0.40372	0.55929
0.09770	0.55929
-0.05531	0.48277
-0.18282	0.89089
-0.25932	0.43176
-0.13181	-0.18043
0.17421	-0.35899
0.53123	-0.20594
0.53123	-0.38449
0.86275	0.02363
0.14870	0.55929
0.02119	0.48277
-0.28482	0.32972
-0.31033	0.73785
-0.33583	0.32972
-0.20832	-0.18043
0.27621	-0.35899
0.55673	-0.28246
0.48022	-0.46102
0.58223	0.07465
0.53123	0.68683
0.09770	0.68683
-0.10631	0.43176
-0.25932	0.71234
-0.41233	0.27871
-0.23382	-0.33348
0.25071	-0.43551
0.53123	-0.12942
0.53123	-0.46102
0.58223	0.10015
0.50573	0.66132
0.02119	0.55929
-0.23382	0.40625
-0.20832	0.73785
-0.28482	0.25320
-0.15732	-0.23145
0.25071	-0.53754
0.55673	-0.15492
0.53123	-0.48652
0.53123	0.04914
0.45472	0.61031
0.09770	0.50828
-0.13181	0.48277
-0.15732	0.83988
-0.41233	0.40625
-0.25932	-0.23145
0.17421	-0.43551
0.53123	-0.10391
0.53123	-0.41000
0.68424	0.07465
0.48022	0.53379
0.02119	0.53379
-0.28482	0.25320
-0.28482	0.76336
-0.20832	0.43176
-0.10631	-0.30797
0.12320	-0.51203
0.30171	-0.28246
0.55673	-0.35899
0.70974	0.17668
0.50573	0.71234
0.07220	0.58480
-0.13181	0.30422
-0.05531	0.71234
-0.43783	0.27871
-0.25932	-0.23145
0.30171	-0.28246
0.55673	-0.07840
0.50573	-0.41000
0.53123	-0.10391
0.32721	0.61031
0.07220	0.53379
-0.13181	0.38074
-0.20832	0.71234
-0.28482	0.22769
-0.25932	-0.23145
0.17421	-0.35899
0.53123	-0.02739
0.60773	-0.33348
0.65874	0.07465
0.50573	0.53379
-0.02981	0.32972
-0.20832	0.20219
-0.28482	0.78886
-0.20832	0.35523
-0.20832	-0.28246
0.09770	-0.46102
0.60773	-0.25695
0.50573	-0.43551
0.53123	0.27871
0.60773	0.78886
0.07220	0.66132
-0.20832	0.30422
-0.18282	0.78886
-0.23382	0.20219
-0.23382	-0.25695
0.19971	-0.58856
0.42922	-0.10391
0.48022	-0.51203
0.53123	0.07465
0.50573	0.68683
0.19971	0.66132
-0.13181	0.50828
-0.36133	0.66132
-0.46334	0.17668
-0.23382	-0.25695
0.19971	-0.33348
0.55673	-0.12942
0.78624	-0.43551
0.78624	0.02363
0.50573	0.50828
-0.18282	0.53379
-0.28482	0.45726
-0.20832	0.73785
-0.33583	0.38074
-0.23382	-0.15492
0.25071	-0.28246
0.50573	-0.15492
0.55673	-0.61406
0.53123	-0.00188
0.42922	0.43176
0.12320	0.71234
-0.02981	0.76336
-0.25932	0.86539
-0.31033	0.40625
-0.25932	-0.28246
0.37822	-0.53754
0.55673	-0.20594
0.58223	-0.56305
0.53123	0.17668
0.32721	0.71234
0.04670	0.66132
-0.18282	0.48277
-0.20832	0.66132
-0.36133	0.32972
-0.20832	-0.18043
0.35272	-0.33348
0.60773	-0.33348
0.37822	-0.48652
0.45472	0.07465
0.55673	0.48277
0.14870	0.53379
-0.15732	0.40625
-0.20832	0.73785
-0.31033	0.35523
-0.20832	-0.30797
0.30171	-0.43551
0.53123	-0.05289
0.55673	-0.12942
0.60773	0.07465
0.40372	0.43176
-0.08081	0.22769
-0.15732	0.50828
-0.15732	0.86539
-0.33583	0.53379
-0.20832	-0.25695
0.19971	-0.35899
0.45472	-0.15492
0.50573	-0.46102
0.58223	0.04914
0.53123	0.63582
0.09770	0.48277
-0.18282	0.30422
-0.20832	0.58480
-0.31033	0.22769
-0.18282	-0.33348
0.09770	-0.33348
0.58223	-0.07840
0.65874	-0.38449
0.58223	0.07465
0.40372	0.50828
-0.10631	0.58480
-0.23382	0.50828
-0.18282	0.68683
-0.28482	0.53379
-0.20832	-0.15492
0.12320	-0.41000
0.58223	-0.33348
0.70974	-0.43551
0.60773	-0.25695
0.27621	0.55929
-0.02981	0.66132
0.02119	0.43176
-0.25932	0.78886
-0.18282	0.40625
-0.15732	-0.12942
0.22521	-0.28246
0.60773	-0.25695
0.40372	-0.63957
0.45472	0.04914
0.45472	0.53379
-0.00431	0.50828
-0.18282	0.55929
-0.18282	0.66132
-0.33583	0.45726
-0.10631	-0.28246
0.12320	-0.56305
0.37822	-0.25695
0.58223	-0.35899
0.53123	0.10015
0.50573	0.55929
0.17421	0.50828
-0.02981	0.48277
-0.15732	0.81437
-0.23382	0.35523
-0.25932	-0.25695
0.17421	-0.46102
0.48022	-0.30797
0.19971	-0.28246
0.73524	-0.00188
0.60773	0.50828
-0.00431	0.58480
-0.00431	0.55929
-0.23382	0.76336
-0.46334	0.30422
-0.43783	-0.15492
0.25071	-0.38449
0.50573	-0.15492
0.58223	-0.35899
0.63323	0.10015
0.40372	0.50828
0.07220	0.55929
-0.13181	0.32972
-0.28482	0.53379
-0.28482	0.30422
-0.13181	-0.15492
0.19971	-0.41000
0.48022	-0.33348
0.50573	-0.41000
0.55673	0.07465
0.55673	0.63582
-0.00431	0.63582
-0.20832	0.53379
-0.15732	0.86539
-0.28482	0.30422
-0.31033	-0.23145
0.19971	-0.56305
0.42922	-0.38449
0.53123	-0.38449
0.68424	0.20219
0.50573	0.63582
0.02119	0.55929
-0.13181	0.43176
-0.23382	0.81437
-0.36133	0.43176
-0.25932	-0.23145
0.07220	-0.46102
0.45472	-0.23145
0.60773	-0.35899
0.68424	0.10015
0.53123	0.50828
0.19971	0.48277
-0.28482	0.30422
-0.61635	0.71234
-0.31033	0.40625
-0.13181	-0.15492
0.37822	-0.38449
0.55673	-0.18043
0.48022	-0.46102
0.58223	-0.02739
0.63323	0.43176
0.07220	0.66132
0.02119	0.35523
-0.41233	0.63582
-0.51434	0.38074
-0.28482	-0.18043
0.22521	-0.15492
0.63323	-0.15492
0.35272	-0.41000
0.65874	0.04914
0.60773	0.43176
0.07220	0.48277
-0.23382	0.43176
-0.18282	0.71234
-0.28482	0.32972
-0.28482	-0.18043
0.09770	-0.35899
0.53123	-0.18043
0.63323	-0.35899
0.55673	-0.10391
0.37822	0.55929
0.07220	0.53379
-0.13181	0.50828
-0.28482	0.76336
-0.38683	0.30422
-0.25932	-0.18043
0.25071	-0.35899
0.48022	-0.05289
0.53123	-0.38449
0.63323	-0.10391
0.53123	0.40625
-0.00431	0.78886
-0.08081	0.55929
-0.15732	0.71234
-0.33583	0.32972
-0.13181	-0.25695
0.12320	-0.48652
0.53123	-0.30797
0.53123	-0.48652
0.55673	-0.07840
0.48022	0.68683
-0.00431	0.50828
-0.20832	0.50828
-0.18282	0.78886
-0.31033	0.35523
-0.31033	-0.15492
0.25071	-0.41000
0.53123	-0.35899
0.53123	-0.30797
0.76074	0.02363
0.35272	0.53379
-0.08081	0.73785
-0.08081	0.45726
-0.10631	0.63582
-0.61635	0.40625
-0.20832	-0.30797
0.60773	-0.86914
0.45472	-0.25695
0.50573	-0.12942
0.53123	0.22769
0.53123	0.63582
-0.05531	0.66132
-0.18282	0.40625
-0.23382	0.68683
-0.20832	0.30422
-0.20832	-0.23145
0.12320	-0.46102
0.53123	-0.18043
0.50573	-0.38449
0.53123	0.04914
0.45472	0.27871
0.12320	0.48277
-0.15732	0.68683
-0.28482	0.91640
-0.20832	0.40625
-0.25932	-0.30797
0.09770	-0.58856
0.53123	-0.25695
0.63323	-0.41000
0.48022	-0.02739
0.42922	0.55929
0.12320	0.71234
-0.18282	0.48277
-0.31033	0.61031
-0.28482	0.25320
-0.25932	-0.25695
0.12320	-0.25695
0.53123	-0.18043
0.58223	-0.20594
0.68424	0.12566
0.48022	0.50828
0.14870	0.53379
-0.08081	0.27871
-0.36133	0.43176
-0.64185	0.38074
-0.10631	-0.15492
0.45472	-0.25695
0.37822	-0.35899
0.50573	-0.30797
0.53123	0.07465
0.53123	0.55929
0.14870	0.61031
-0.10631	0.38074
-0.33583	0.58480
-0.28482	0.58480
-0.28482	-0.41000
0.12320	-0.56305
0.48022	-0.18043
0.53123	-0.07840
0.65874	0.10015
0.55673	0.30422
-0.05531	1.09496
-0.38683	0.81437
-0.28482	0.81437
-0.31033	-0.56305
-0.51434	0.07465
0.17421	-0.81812
0.99026	-0.89465
0.83725	-0.74160
0.55673	0.45726
0.30171	0.99292
0.09770	0.53379
-0.00431	0.68683
-0.41233	1.06945
-0.76936	0.68683
-0.61635	-0.20594
-0.74385	-0.41000
-0.23382	-0.33348
1.32178	-0.43551
2.03582	-0.48652
1.70430	0.50828
1.06676	0.76336
0.30171	0.32972
-0.33583	2.03874
-0.59084	0.35523
-0.64185	-1.25176
-0.36133	-1.32828
-0.02981	-0.84363
0.12320	-1.83844
0.25071	0.89089
0.12320	2.39585
-0.56534	0.96742
-0.51434	0.76336
-0.13181	1.01843
-0.79486	0.38074
-0.28482	-0.51203
0.83725	-0.99668
0.22521	-0.02739
-0.20832	-0.43551
1.24527	-0.79262
1.78081	-0.38449
1.24527	1.29902
0.48022	1.68163
-0.00431	1.68163
-0.43783	-0.97117
-0.28482	-3.47093
0.76074	1.42656
0.93925	0.89089
0.27621	-0.99668
-1.40690	-0.20594
-0.87136	-0.46102
-1.27939	1.32453
-0.15732	1.88570
0.88825	0.99292
0.73524	0.83988
0.73524	-4.69530
0.60773	1.91120
0.68424	1.83468
-0.10631	-1.99148
0.02119	0.17668
0.14870	0.63582
-0.13181	-1.02219
-0.51434	1.19699
-0.61635	2.82948
-0.25932	-1.30277
-0.23382	-1.58336
0.30171	-1.17523
0.50573	-1.58336
0.78624	-0.48652
0.25071	1.91120
0.78624	0.86539
0.73524	0.32972
0.55673	1.29902
-0.08081	0.91640
-0.02981	0.78886
-0.53984	0.66132
-0.23382	0.40625
0.32721	-1.32828
-0.66735	-0.69059
0.27621	-0.12942
0.53123	-0.41000
1.06676	-1.02219
0.27621	1.24800
0.02119	2.80397
-0.05531	-0.02739
0.19971	0.10015
0.45472	0.27871
0.35272	-1.50683
0.35272	-2.06800
-0.41233	-1.63437
-0.87136	1.09496
-0.43783	-0.28246
0.42922	-0.92016
0.78624	-0.23145
-0.02981	5.15069
-0.82036	1.88570
-0.94787	-1.09871
0.76074	-0.56305
1.70430	1.09496
1.37278	-3.85355
0.60773	0.73785
-0.89686	3.11007
-0.08081	0.35523
0.48022	1.17148
0.40372	-2.75671
0.07220	-2.27207
-0.08081	2.08976
-0.79486	0.04914
0.22521	-1.32828
0.91375	-0.10391
0.91375	4.51299
0.35272	-1.37929
-0.05531	-4.72081
-0.43783	0.99292
-0.69285	4.35995
-1.43240	1.19699
-0.36133	-1.60887
0.09770	-1.02219
0.73524	-0.07840
1.24527	-0.58856
1.37278	1.17148
0.78624	1.70714
-0.05531	0.02363
-0.25932	0.40625
-0.48884	0.12566
-1.58541	-0.79262
-0.76936	0.22769
0.53123	-0.63957
1.16877	-1.43031
1.67880	0.00000
0.65874	0.91640
-0.18282	0.12566
0.42922	-0.43551
-0.38683	1.50308
-0.31033	2.14077
-0.08081	0.94191
0.17421	-0.28246
0.40372	-0.33348
0.88825	0.40625
0.58223	-1.81293
-0.05531	-1.30277
-2.29945	1.75816
-1.10088	-0.30797
0.37822	0.94191
0.58223	1.60511
0.42922	-0.69059
0.53123	-0.10391
0.73524	0.96742
0.63323	0.61031
0.37822	0.63582
0.48022	-0.15492
0.37822	-1.63437
0.53123	0.38074
0.02119	0.48277
-1.02437	-0.53754
-1.84042	1.22250
-0.53984	-0.63957
0.70974	-0.76711
1.14327	0.07465
0.58223	-0.74160
1.32178	0.91640
1.24527	2.47238
0.70974	-1.91496
-0.61635	0.61031
-0.28482	3.33964
0.02119	1.98773
-0.79486	-0.25695
-0.36133	-1.99148
1.14327	-0.71609
0.99026	-0.15492
0.78624	-1.27726
0.42922	-1.45582
0.14870	-0.30797
-0.25932	2.19179
-0.43783	2.29382
-0.61635	-0.56305
-0.28482	-0.97117
0.17421	0.45726
0.48022	0.50828
0.60773	-0.76711
0.65874	-0.79262
0.14870	-1.48133
-0.15732	2.59991
0.09770	2.54890
0.68424	2.06425
0.19971	0.17668
-0.94787	-1.12422
-1.61091	-1.63437
0.35272	-0.18043
0.50573	-3.01179
1.75531	-1.22625
1.11776	0.63582
0.25071	1.35003
0.32721	1.27351
-0.05531	1.57960
0.14870	1.37554
0.25071	-0.28246
0.19971	-0.35899
-0.10631	-0.76711
0.30171	0.22769
-0.20832	1.37554
-0.02981	0.58480
-0.38683	-0.43551
-0.10631	-0.48652
-0.25932	1.12046
-0.25932	-0.20594
0.04670	0.32972
0.65874	-0.43551
0.76074	-0.10391
1.04126	-2.39961
0.99026	-2.50164
0.48022	3.13558
-0.28482	1.01843
-1.73842	1.14597
-0.82036	0.40625
0.63323	1.65613
0.09770	-3.77702
0.88825	1.12046
0.78624	2.08976
0.83725	1.70714
0.93925	-0.23145
0.40372	-0.63957
-0.38683	0.20219
-0.59084	-0.99668
-1.22839	0.15117
-0.53984	-1.58336
-0.13181	-1.25176
0.99026	1.14597
0.86275	0.61031
0.45472	-0.69059
0.42922	1.32453
0.40372	2.29382
0.22521	1.40105
0.32721	0.30422
-0.43783	-0.71609
-0.31033	2.34484
-0.02981	-0.07840
0.19971	-0.63957
-0.13181	-0.81812
-0.13181	-1.02219
1.04126	-1.63437
0.09770	1.04394
0.25071	0.73785
0.17421	-0.84363
0.19971	1.04394
0.60773	1.96222
0.35272	-1.25176
-0.64185	0.10015
-1.07538	-1.55785
0.35272	-0.84363
0.42922	1.88570
0.14870	0.20219
0.91375	-0.92016
0.04670	1.40105
-0.20832	1.73265
-0.08081	0.61031
0.45472	-0.94566
0.25071	-0.71609
0.40372	-1.22625
0.37822	-1.07320
0.73524	0.96742
-0.46334	5.83940
-0.25932	0.27871
-0.10631	-1.14973
-0.51434	-1.02219
-0.36133	-0.97117
0.42922	-0.58856
0.32721	-2.29757
0.45472	0.07465
0.48022	3.33964
1.01576	0.66132
0.37822	1.35003
-0.33583	-0.53754
-0.82036	-2.14453
-0.79486	-0.56305
-0.25932	0.99292
0.35272	0.55929
0.83725	0.45726
0.78624	0.38074
0.81175	-0.00188
0.60773	-0.00188
0.02119	0.27871
-0.15732	0.22769
-0.33583	-1.27726
-0.18282	0.55929
0.07220	0.71234
-0.08081	0.35523
-0.74385	0.61031
0.02119	1.17148
0.63323	-0.97117
0.73524	-0.74160
-0.00431	0.10015
-0.79486	0.32972
0.17421	0.38074
0.63323	0.71234
0.37822	0.50828
0.55673	-0.07840
0.81175	-0.25695
0.73524	0.58480
0.35272	-0.18043
0.22521	-0.74160
-0.38683	-0.23145
-0.53984	2.26831
-0.31033	0.96742
-0.38683	-0.58856
-0.13181	1.27351
0.32721	-0.15492
-0.43783	-0.28246
0.07220	-2.52714
0.63323	-0.99668
0.78624	2.29382
0.50573	1.83468
0.09770	0.61031
-0.05531	0.15117
0.35272	0.07465
0.32721	-0.20594
-0.10631	-0.61406
-0.13181	-0.61406
-0.36133	-0.97117
0.53123	-0.46102
0.99026	0.45726
0.70974	0.27871
-0.13181	0.81437
-0.89686	0.99292
-0.18282	0.94191
0.22521	0.81437
-0.02981	0.17668
-1.10088	-0.33348
0.30171	0.27871
1.60230	-0.30797
1.39828	1.50308
0.32721	-1.20074
-0.38683	-0.76711
-0.05531	0.45726
0.12320	-0.38449
0.30171	2.26831
-0.61635	0.32972
0.14870	-0.30797
0.48022	-0.28246
0.42922	-0.43551
0.12320	-0.35899
0.04670	-1.04770
0.04670	-0.20594
0.07220	2.65093
-0.10631	-1.07320
-0.28482	0.10015
-0.28482	2.90601
0.09770	1.22250
0.60773	-0.94566
1.01576	-1.04770
0.73524	-1.50683
-0.56534	-1.30277
-0.64185	-1.37929
-0.41233	0.94191
0.40372	2.29382
0.83725	2.01323
1.01576	0.22769
-0.74385	-1.45582
-1.15188	-0.25695
0.30171	-0.10391
0.91375	-0.66508
0.65874	0.66132
0.53123	0.86539
0.12320	0.61031
-0.05531	1.19699
-0.28482	0.81437
-0.13181	-0.46102
0.22521	-1.12422
-0.18282	-0.15492
0.22521	-0.84363
0.22521	-0.18043
0.12320	0.83988
0.17421	-0.25695
-0.25932	-0.46102
0.48022	0.73785
0.25071	2.01323
-0.05531	-1.14973
-1.30489	-0.81812
0.37822	-0.33348
1.57679	-1.91496
1.27078	1.52859
0.93925	2.11527
0.48022	1.55410
-0.89686	0.73785
-1.15188	-0.66508
-0.02981	0.38074
0.19971	0.17668
0.93925	-0.25695
0.30171	-2.11902
0.70974	-0.56305
1.01576	0.45726
-0.74385	0.38074
-0.48884	0.86539
-0.15732	0.71234
0.02119	1.37554
-0.08081	0.43176
0.19971	-0.28246
0.76074	-1.63437
0.32721	-0.25695
0.27621	1.06945
0.60773	-0.02739
-0.33583	0.25320
-0.08081	0.55929
-0.08081	-0.07840
0.30171	0.20219
-0.23382	0.55929
0.17421	-0.66508
-0.59084	-0.43551
0.27621	-0.23145
0.91375	2.39585
1.21977	-0.63957
0.12320	0.07465
0.48022	-0.58856
-0.10631	0.15117
-0.13181	1.86019
-0.36133	1.12046
0.02119	-0.63957
0.73524	0.81437
0.53123	-0.51203
0.25071	-1.22625
0.02119	-0.46102
0.07220	-0.15492
0.07220	0.10015
-0.08081	0.55929
-0.48884	1.24800
-0.48884	1.37554
0.45472	-0.38449
0.65874	-1.12422
0.76074	-0.35899
0.60773	0.12566
0.40372	0.32972
-0.20832	0.40625
-0.25932	0.66132
-1.27939	0.63582
-0.38683	0.04914
0.68424	0.04914
1.14327	1.24800
1.32178	-0.25695
0.02119	-1.02219
0.83725	-0.43551
0.42922	-0.76711
0.04670	0.83988
-0.00431	0.63582
-0.28482	1.22250
-1.02437	0.45726
-0.87136	-0.10391
0.14870	-0.53754
0.22521	-0.05289
0.14870	0.20219
0.73524	-1.65988
0.96476	-0.76711
0.32721	1.37554
-0.08081	0.53379
0.22521	1.32453
-0.18282	0.27871
0.14870	-1.94047
0.17421	0.58480
-0.43783	0.58480
-0.36133	0.73785
0.45472	0.07465
0.81175	0.12566
0.27621	0.55929
0.19971	0.45726
0.02119	0.53379
0.17421	0.71234
0.09770	-0.28246
0.07220	-1.02219
-0.05531	-0.94566
-0.08081	-0.41000
0.93925	0.78886
1.14327	-0.30797
0.40372	0.45726
0.25071	0.66132
-0.48884	0.02363
-0.05531	-0.07840
-0.61635	0.58480
-0.36133	0.99292
0.07220	0.61031
0.30171	-0.71609
0.60773	-1.32828
0.83725	0.30422
-0.08081	0.02363
0.07220	0.66132
-0.10631	1.06945
-0.08081	1.27351
-0.20832	-0.38449
0.12320	-0.05289
0.53123	-1.25176
0.58223	0.71234
0.25071	1.32453
0.40372	-0.38449
0.30171	0.38074
0.09770	-0.10391
-0.18282	0.27871
-0.71835	0.50828
-0.18282	1.06945
0.09770	-0.61406
-0.71835	-0.38449
0.40372	0.22769
0.50573	-1.86394
1.24527	0.17668
0.68424	1.27351
0.17421	0.48277
-0.08081	0.10015
-0.53984	0.45726
-0.00431	1.35003
0.17421	0.71234
-0.33583	-0.86914
0.45472	-1.20074
1.01576	-0.35899
0.78624	-0.71609
0.25071	0.30422
-0.13181	1.09496
-1.45790	1.45206
-0.87136	0.66132
-0.13181	2.01323
0.40372	-1.78742
0.86275	-0.97117
0.76074	0.71234
0.22521	0.76336
0.02119	-0.66508
0.48022	-1.35379
0.04670	0.45726
0.02119	0.96742
-0.20832	0.78886
-0.20832	0.32972
0.22521	-0.05289
0.55673	-0.12942
0.50573	-0.20594
-0.25932	-0.58856
0.25071	-0.25695
0.65874	1.06945
0.50573	1.40105
-0.08081	-2.06800
-1.91693	0.53379
-1.50890	2.52339
0.63323	0.63582
0.81175	-0.56305
0.73524	-0.63957
1.60230	-0.46102
1.42379	-0.28246
-0.05531	0.73785
-0.13181	0.35523
-0.41233	0.22769
-0.97337	0.38074
-0.79486	0.76336
0.50573	-0.53754
0.83725	-0.92016
0.68424	-0.00188
0.48022	-0.20594
0.32721	-0.99668
0.04670	2.67644
-0.15732	2.72745
-0.18282	1.06945
-0.28482	-0.48652
-0.38683	0.81437
0.09770	-2.70570
0.37822	-2.42511
0.42922	-1.68539
0.45472	0.83988
0.76074	2.75296
0.25071	1.75816
-0.23382	-0.33348
-0.10631	-0.35899
-0.18282	1.60511
0.22521	1.80917
0.19971	-0.33348
0.93925	-0.94566
0.88825	-0.99668
-3.21751	-1.45582
-0.84586	-0.02739
0.37822	0.76336
-0.02981	0.63582
0.78624	0.71234
2.29084	0.96742
0.40372	0.48277
1.47479	-0.41000
0.96476	-0.00188
-1.81492	-0.30797
0.48022	0.12566
0.76074	0.50828
0.40372	1.75816
-0.20832	0.20219
-0.36133	-1.12422
-0.10631	1.17148
-0.41233	-0.89465
-0.23382	-1.88945
0.32721	0.73785
0.53123	0.35523
0.35272	-0.43551
0.19971	0.66132
-0.74385	2.01323
-0.05531	0.66132
0.09770	-1.81293
0.12320	-0.56305
0.30171	0.66132
0.32721	-0.35899
0.53123	0.45726
-0.36133	0.43176
0.55673	0.10015
0.91375	-0.07840
0.32721	0.94191
0.58223	0.66132
-0.48884	-0.10391
-0.84586	0.48277
-0.23382	0.50828
0.19971	-0.15492
-0.38683	-0.23145
0.76074	-0.48652
0.78624	0.04914
1.19427	0.15117
0.32721	-0.25695
-0.43783	0.71234
-0.64185	0.17668
-0.31033	0.43176
-0.00431	1.12046
0.48022	-0.46102
0.40372	-1.37929
-0.00431	0.20219
0.55673	-0.12942
0.73524	0.48277
0.12320	1.88570
-0.25932	0.12566
-0.25932	-0.58856
-0.38683	0.55929
-0.08081	0.99292
-0.08081	-0.28246
0.48022	-0.86914
0.55673	-0.94566
0.65874	-0.58856
0.27621	0.10015
0.12320	0.76336
0.53123	0.38074
-0.53984	0.25320
-0.25932	1.32453
0.02119	0.02363
0.04670	-0.71609
-0.23382	-0.00188
0.93925	0.20219
1.21977	-0.02739
1.14327	-0.02739
-0.87136	0.76336
0.37822	0.66132
-0.08081	0.35523
-0.51434	0.48277
-0.10631	0.35523
-0.33583	-0.28246
-0.10631	-0.66508
0.88825	-0.92016
0.86275	-0.25695
0.99026	0.43176
0.14870	-0.10391
-0.00431	0.10015
-0.31033	1.27351
-0.18282	2.90601
-0.69285	0.81437
0.02119	-0.86914
0.68424	-0.76711
0.48022	-0.86914
0.19971	-1.68539
0.09770	-1.53234
0.02119	1.57960
0.09770	0.89089
0.02119	-0.92016
-0.13181	1.32453
0.19971	0.22769
0.70974	-0.15492
-0.48884	0.32972
-0.82036	0.15117
1.11776	0.71234
0.88825	0.43176
0.35272	0.25320
-0.31033	-0.02739
0.37822	0.38074
0.37822	0.71234
-0.00431	0.43176
-1.15188	-0.25695
0.12320	-0.79262
0.76074	-0.18043
0.86275	-0.43551
0.93925	-0.25695
-1.43240	-0.46102
-0.76936	0.99292
0.30171	1.35003
0.19971	-0.58856
0.22521	1.27351
0.40372	0.15117
0.55673	-0.71609
0.58223	1.19699
0.60773	0.07465
0.53123	-1.37929
0.09770	-0.48652
-0.25932	0.94191
-0.23382	-0.63957
-0.69285	0.63582
-0.56534	0.68683
0.09770	-0.51203
0.68424	0.02363
1.04126	0.04914
0.32721	-0.02739
-0.00431	-0.00188
0.19971	0.45726
-0.53984	0.71234
-0.74385	0.66132
0.02119	1.22250
0.63323	0.04914
1.78081	-0.74160
1.75531	-0.15492
-2.24845	0.12566
-0.61635	-0.41000
0.93925	-0.35899
0.83725	0.71234
-0.28482	1.04394
0.32721	1.40105
0.07220	-0.05289
0.25071	-0.00188
0.07220	-0.97117
0.07220	0.48277
0.02119	-1.17523
-0.41233	-0.84363
0.50573	0.73785
0.19971	1.12046
-0.00431	0.22769
0.25071	0.66132
0.19971	2.47238
-0.25932	0.68683
-1.35589	-1.76191
0.04670	-1.22625
1.01576	-0.23145
0.93925	1.57960
0.35272	-1.30277
0.65874	-1.55785
0.19971	-0.00188
-0.05531	1.09496
0.32721	1.63062
-0.18282	0.71234
-0.18282	0.50828
-1.30489	1.17148
-0.10631	0.45726
1.67880	-1.60887
0.83725	-0.15492
-0.13181	0.45726
0.53123	0.07465
0.32721	0.22769
-0.76936	0.83988
-0.00431	0.63582
0.25071	-0.71609
0.76074	-0.30797
0.65874	-0.07840
0.17421	-0.33348
-0.08081	-0.30797
-0.18282	-0.25695
0.04670	0.63582
0.07220	1.35003
-0.08081	0.22769
-0.08081	0.96742
0.32721	0.40625
0.53123	-0.48652
0.19971	-0.33348
0.32721	-1.83844
0.65874	-0.33348
0.27621	0.66132
-0.08081	1.17148
-1.04987	1.32453
0.25071	0.53379
0.17421	0.15117
0.07220	-0.46102
-0.43783	-1.48133
0.50573	-0.81812
0.88825	0.02363
0.99026	0.38074
-0.48884	1.01843
0.17421	0.94191
0.25071	1.19699
-0.28482	0.04914
-0.48884	-0.25695
-0.33583	-0.28246
0.09770	-0.28246
0.58223	-0.00188
0.45472	0.30422
0.91375	-0.18043
0.73524	0.43176
0.09770	0.40625
-0.38683	-0.35899
-0.36133	0.15117
-0.05531	1.32453
-0.05531	0.07465
-0.25932	-0.66508
0.27621	0.55929
0.35272	-0.89465
0.50573	1.12046
0.45472	-2.47613
0.63323	1.32453
0.09770	2.70194
-0.56534	0.17668
-0.89686	0.25320
0.25071	-0.28246
0.93925	-0.63957
1.01576	-0.71609
0.37822	-0.20594
-0.13181	-0.35899
-0.59084	0.22769
0.02119	0.30422
0.65874	0.83988
-0.31033	2.54890
-0.33583	-0.94566
-0.20832	-1.86394
0.35272	0.20219
0.93925	0.53379
0.91375	0.20219
0.12320	-0.07840
0.32721	1.37554
0.50573	1.19699
0.37822	0.63582
-1.12638	0.15117
-0.18282	-0.30797
-0.20832	-0.12942
0.25071	-0.61406
0.42922	-0.56305
0.32721	-1.86394
0.12320	0.04914
0.17421	1.70714
-0.05531	0.66132
-0.25932	-0.02739
-0.10631	2.54890
-0.08081	-0.79262
0.48022	-1.86394
0.48022	0.07465
0.32721	1.14597
0.53123	0.91640
1.04126	0.04914
-0.08081	0.45726
-1.38139	-0.33348
0.12320	-0.20594
0.19971	0.07465
-0.23382	0.71234
0.22521	0.61031
0.45472	0.12566
0.78624	-0.38449
-0.59084	-0.23145
0.48022	-0.30797
0.53123	0.38074
0.35272	0.71234
0.02119	0.32972
0.19971	0.55929
-0.00431	0.48277
0.32721	-0.00188
0.37822	-0.18043
0.25071	0.22769
-0.36133	-0.99668
-0.28482	-0.43551
-0.15732	0.43176
-0.08081	1.73265
0.19971	0.20219
-0.00431	-1.04770
-0.08081	1.68163
0.35272	2.19179
0.65874	-1.55785
0.65874	-1.58336
0.35272	-0.30797
0.25071	0.55929
-0.02981	0.35523
-0.10631	0.99292
-0.25932	0.04914
-0.10631	-0.05289
0.07220	0.48277
0.32721	0.43176
0.68424	0.45726
-0.02981	-0.46102
0.58223	-2.34859
-0.23382	-0.86914
0.14870	1.01843
0.45472	1.22250
0.12320	1.35003
-0.20832	1.14597
-0.38683	0.86539
0.45472	0.48277
0.37822	-0.61406
0.27621	-0.74160
0.12320	0.30422
0.60773	0.48277
0.30171	0.53379
-0.13181	-0.30797
-0.08081	-0.23145
0.07220	0.58480
-0.10631	0.55929
-0.25932	-0.20594
-0.36133	-0.48652
0.48022	-2.14453
0.76074	0.50828
0.63323	1.73265
0.42922	1.17148
0.14870	0.48277
-0.13181	0.04914
-0.00431	0.40625
-0.02981	-0.00188
0.09770	-0.48652
0.40372	-0.56305
0.73524	0.43176
0.12320	-0.51203
0.40372	-1.60887
0.22521	0.27871
-1.04987	0.99292
-0.25932	0.86539
0.27621	1.40105
0.25071	0.81437
0.30171	-0.28246
0.73524	-0.43551
-0.15732	0.15117
0.81175	0.22769
0.60773	-0.41000
0.19971	-0.28246
-0.13181	0.32972
-0.28482	0.30422
0.02119	0.73785
-0.25932	0.50828
-0.59084	-0.20594
0.50573	-1.30277
0.81175	-0.58856
0.55673	0.78886
0.65874	-1.22625
-0.00431	0.91640
-0.05531	2.57441
-0.61635	1.09496
-0.15732	0.15117
-0.15732	-0.23145
0.22521	-0.97117
0.55673	-0.41000
0.93925	0.02363
0.32721	0.04914
0.22521	-0.38449
-0.74385	-0.56305
-0.82036	0.89089
0.65874	1.40105
0.42922	1.42656
-0.56534	1.45206
0.48022	-1.37929
1.14327	-1.43031
0.93925	-0.56305
0.12320	-0.15492
-0.15732	0.78886
-0.00431	1.52859
-0.61635	0.02363
-0.36133	-0.51203
0.22521	0.96742
-0.05531	0.66132
-0.48884	0.12566
0.19971	-0.74160
0.96476	-0.02739
1.09226	0.43176
0.55673	0.32972
-0.20832	0.43176
-0.20832	0.20219
-0.36133	-0.81812
-0.05531	-0.28246
0.04670	-0.35899
0.25071	0.73785
0.58223	1.37554
0.58223	0.25320
0.42922	0.22769
0.22521	-0.35899
0.07220	-0.25695
-0.10631	-0.92016
-0.23382	1.17148
-0.13181	1.55410
0.12320	1.06945
-0.08081	-1.35379
-0.20832	-0.99668
0.09770	-0.99668
0.78624	0.94191
1.19427	0.40625
-0.20832	-0.23145
0.19971	1.45206
0.19971	0.35523
0.32721	0.35523
-0.31033	0.76336
-0.28482	-0.23145
0.27621	-0.48652
0.32721	-0.10391
0.78624	-0.35899
0.32721	-0.30797
-0.59084	0.94191
0.37822	0.30422
0.73524	0.17668
-0.02981	0.76336
-0.20832	0.68683
0.07220	-0.23145
0.32721	-0.61406
0.25071	-0.76711
0.35272	-0.41000
0.40372	0.27871
0.07220	0.96742
-0.25932	0.07465
-0.36133	0.17668
-0.13181	0.32972
-0.23382	0.96742
0.12320	0.86539
0.81175	-0.46102
0.81175	-1.35379
-0.13181	-0.56305
0.50573	-0.33348
0.27621	0.86539
-0.02981	2.59991
-0.05531	0.12566
0.12320	0.04914
-0.10631	0.07465
-0.02981	-0.35899
0.60773	-0.58856
0.99026	-0.46102
0.65874	0.10015
-0.08081	0.53379
-0.48884	0.78886
-0.64185	0.12566
-0.10631	0.27871
0.22521	0.86539
0.09770	1.06945
0.12320	-0.41000
0.48022	-0.94566
0.73524	-0.35899
0.37822	0.17668
-0.05531	0.17668
0.30171	0.53379
-0.05531	0.81437
-0.23382	0.25320
-0.74385	0.40625
-0.87136	0.15117
0.12320	-0.58856
0.68424	-0.23145
0.81175	0.55929
0.83725	-0.35899
0.83725	-0.38449
-0.15732	0.02363
-0.02981	1.37554
-0.56534	1.78367
-0.61635	-0.38449
-0.41233	-1.27726
0.27621	-0.07840
1.11776	-0.33348
1.16877	-0.23145
0.40372	-0.15492
-0.05531	0.20219
0.27621	1.12046
-0.38683	1.57960
-0.05531	0.43176
0.02119	0.04914
0.22521	0.71234
-0.64185	0.02363
0.25071	-0.61406
0.88825	-0.35899
0.58223	-0.61406
0.76074	-0.30797
0.14870	0.15117
-0.08081	0.45726
-0.38683	0.32972
-0.08081	0.96742
-0.28482	0.71234
-0.02981	-0.41000
0.30171	-0.56305
0.42922	-0.15492
0.30171	0.17668
1.04126	0.10015
0.55673	1.12046
-0.20832	-0.38449
-0.18282	-0.43551
-0.46334	1.37554
-1.15188	0.38074
0.19971	1.42656
0.81175	0.04914
1.04126	-1.14973
1.04126	-0.71609
0.88825	0.32972
0.22521	0.27871
-0.84586	0.30422
-0.43783	0.71234
0.42922	-0.66508
-0.41233	0.25320
-0.97337	0.91640
0.40372	-0.00188
0.70974	-0.43551
0.99026	-0.25695
1.01576	-0.10391
0.68424	0.89089
-0.18282	-0.10391
-0.89686	-0.51203
-0.74385	0.94191
-0.08081	1.04394
0.42922	0.50828
0.83725	-0.05289
0.09770	-0.53754
0.50573	-0.84363
0.30171	0.07465
0.32721	0.94191
-0.05531	0.73785
-0.18282	-0.58856
-0.25932	-0.10391
-0.28482	0.94191
0.22521	0.20219
0.45472	-0.76711
0.25071	0.20219
0.22521	-0.20594
0.14870	-0.76711
0.42922	1.27351
0.40372	1.35003
-0.41233	0.10015
-0.87136	-0.66508
-0.02981	0.25320
0.53123	0.58480
0.68424	0.45726
0.68424	-0.18043
0.78624	-0.86914
0.60773	-0.46102
-0.08081	0.76336
-0.51434	1.01843
-0.64185	0.04914
0.30171	0.30422
-0.99887	0.63582
-0.23382	0.07465
0.76074	-0.46102
1.19427	-0.33348
0.09770	-0.28246
0.30171	0.43176
-0.10631	0.45726
0.27621	-0.07840
0.45472	0.66132
-0.41233	1.35003
-0.18282	0.63582
0.22521	-0.15492
0.32721	-0.53754
-0.20832	-0.56305
0.35272	-0.02739
0.42922	-0.51203
0.37822	0.30422
-0.05531	0.99292
-0.13181	0.63582
-0.05531	1.17148
-0.15732	-0.15492
-0.23382	-1.68539
0.09770	-0.41000
0.50573	0.12566
0.88825	0.25320
0.88825	2.06425
0.22521	1.06945
-0.43783	-0.18043
-0.46334	0.04914
-0.05531	-0.51203
0.07220	0.10015
0.42922	0.43176
0.58223	-0.53754
0.02119	-0.15492
-0.15732	0.20219
0.63323	-0.15492
0.60773	0.17668
-0.33583	0.63582
-0.20832	0.50828
0.25071	0.78886
-0.99887	0.86539
0.40372	0.02363
1.04126	-1.17523
0.91375	0.15117
0.12320	0.17668
0.42922	0.71234
-0.18282	0.12566
-0.15732	0.27871
0.14870	0.45726
0.04670	-0.05289
-0.33583	-0.10391
-0.05531	0.12566
0.60773	-0.10391
0.40372	-0.02739
0.50573	0.04914
0.37822	-0.38449
0.22521	0.76336
-0.18282	0.89089
-0.20832	-0.89465
-0.20832	0.38074
-0.23382	1.55410
0.19971	1.68163
0.40372	-0.89465
0.50573	-1.43031
0.42922	-0.28246
0.50573	-0.51203
0.30171	-0.05289
0.07220	0.15117
-0.41233	0.04914
-0.48884	1.12046
0.19971	2.01323
-0.18282	0.27871
0.76074	-0.81812
0.04670	-0.07840
0.09770	0.17668
1.39828	-0.15492
-0.05531	0.15117
-1.04987	0.50828
0.37822	0.83988
0.68424	0.81437
-0.59084	0.50828
0.32721	-0.53754
0.76074	-0.66508
0.65874	-0.38449
0.09770	-0.56305
0.12320	0.07465
0.22521	0.66132
-0.38683	0.83988
-0.41233	0.40625
-0.13181	-0.10391
0.12320	-0.20594
-0.25932	0.32972
0.22521	-0.35899
0.83725	-0.48652
0.83725	0.15117
0.12320	0.58480
-0.97337	-0.15492
-0.51434	1.06945
0.53123	2.44687
0.70974	0.58480
0.60773	0.07465
0.32721	-0.84363
0.42922	-1.14973
0.70974	-1.17523
0.25071	0.20219
0.55673	0.73785
0.22521	-0.30797
-0.33583	-0.38449
-0.53984	0.32972
-0.46334	1.24800
-0.02981	0.68683
-0.10631	0.04914
0.22521	0.15117
0.40372	0.04914
-0.23382	0.15117
0.58223	0.27871
0.32721	-0.02739
0.09770	0.25320
0.09770	0.15117
0.14870	0.50828
-0.08081	0.48277
0.12320	-0.23145
0.32721	-0.43551
0.40372	-0.76711
0.42922	-0.33348
0.63323	0.76336
0.58223	1.45206
0.27621	0.45726
0.35272	0.43176
-1.25389	-0.46102
-1.10088	0.86539
-1.20288	-0.18043
0.32721	-1.20074
0.96476	-0.41000
1.27078	-0.23145
1.39828	0.50828
0.76074	0.61031
0.19971	0.53379
-0.05531	1.01843
-0.20832	0.55929
-0.38683	0.61031
-0.38683	0.02363
0.02119	0.25320
0.32721	-0.84363
0.25071	-1.91496
0.55673	-0.18043
0.04670	1.01843
-0.10631	0.81437
-0.20832	0.25320
-0.23382	0.12566
-0.25932	-0.05289
0.14870	0.35523
0.50573	0.04914
0.58223	-0.38449
0.68424	-0.25695
0.68424	-0.12942
0.53123	0.68683
-0.38683	0.71234
-0.79486	0.20219
-0.05531	0.50828
0.25071	0.48277
0.09770	0.02363
0.07220	0.07465
0.42922	-0.48652
0.93925	-0.46102
0.58223	-0.63957
0.14870	0.71234
-0.10631	1.50308
0.30171	0.40625
-0.43783	-0.63957
-0.48884	0.38074
0.14870	-0.33348
0.45472	0.25320
0.63323	-0.33348
0.53123	-0.92016
0.55673	0.32972
0.02119	0.12566
-0.13181	0.50828
-0.36133	0.50828
-0.25932	1.27351
-0.23382	1.22250
0.14870	0.53379
0.45472	-0.79262
0.55673	-1.40480
0.53123	-0.53754
0.73524	-0.38449
0.35272	0.43176
0.07220	0.76336
-0.28482	0.22769
-0.25932	0.43176
-1.45790	0.71234
-0.08081	0.22769
0.96476	0.12566
1.04126	-0.02739
0.93925	-0.12942
0.58223	-0.12942
-1.15188	0.43176
-1.04987	0.48277
0.55673	0.15117
0.60773	0.12566
0.19971	0.22769
0.07220	-0.07840
0.63323	-0.33348
0.42922	0.43176
0.07220	-0.43551
0.30171	-0.51203
0.17421	-0.92016
-0.08081	1.37554
-0.10631	0.10015
-0.46334	0.38074
-0.31033	2.98253
-0.23382	1.47757
0.35272	-1.96597
0.73524	-2.29757
0.32721	-0.48652
0.86275	-0.58856
0.45472	0.04914
0.04670	1.04394
-0.28482	1.68163
-0.08081	0.96742
-0.41233	0.12566
0.32721	0.07465
0.63323	-0.38449
0.70974	-0.43551
0.50573	-0.48652
0.60773	-0.33348
0.19971	1.14597
-0.41233	0.43176
-0.94787	-0.53754
-0.97337	0.10015
0.07220	0.99292
0.17421	0.35523
0.70974	-0.18043
0.58223	-0.25695
0.70974	-0.20594
0.55673	0.17668
0.22521	0.96742
0.07220	0.35523
-0.69285	-0.35899
-0.38683	1.91120
-0.23382	0.07465
-0.13181	-1.40480
0.55673	0.15117
0.88825	-0.48652
0.70974	0.73785
0.88825	-0.33348
0.32721	-0.84363
-0.69285	0.78886
-1.04987	1.55410
-0.46334	1.83468
-0.10631	-0.66508
0.35272	-0.25695
0.58223	-0.02739
0.40372	0.02363
0.22521	0.35523
0.65874	-0.63957
0.73524	-0.02739
0.07220	0.40625
0.17421	0.48277
-0.13181	0.22769
-0.41233	0.10015
-0.00431	-0.07840
0.60773	-0.51203
0.42922	-0.18043
0.40372	0.43176
0.37822	0.45726
-0.69285	0.27871
-0.69285	0.27871
-0.66735	0.45726
0.22521	0.55929
0.17421	0.35523
0.70974	-0.10391
0.91375	-0.25695
-0.10631	-0.53754
0.42922	-0.66508
0.83725	0.02363
0.83725	0.83988
0.12320	1.22250
-1.15188	-0.05289
-0.89686	0.25320
-0.43783	0.71234
-0.02981	-0.69059
0.73524	-1.20074
1.19427	0.76336
0.70974	0.32972
0.22521	-0.23145
0.09770	0.73785
0.07220	1.06945
-0.08081	-0.71609
-0.31033	-0.79262
-0.74385	0.15117
-0.87136	0.61031
0.40372	0.10015
1.01576	0.76336
0.81175	0.15117
0.68424	-0.53754
0.19971	0.10015
-0.02981	0.71234
-0.36133	0.55929
-0.56534	0.04914
-0.08081	0.10015
0.04670	-0.18043
0.91375	-0.56305
0.12320	-0.71609
0.25071	-0.28246
-0.41233	-0.23145
-0.38683	0.78886
0.48022	1.06945
-0.15732	1.09496
0.27621	0.25320
-0.02981	0.50828
0.35272	-0.58856
0.60773	-0.15492
0.45472	0.12566
0.50573	0.76336
0.32721	0.43176
-0.08081	-0.79262
-0.31033	-0.81812
-0.23382	-0.66508
-0.05531	0.81437
-0.61635	0.96742
-0.84586	-0.18043
0.42922	0.20219
0.63323	1.19699
0.73524	-0.12942
0.91375	0.25320
0.70974	0.73785
-0.00431	-0.94566
-0.08081	-0.99668
-0.00431	1.42656
-0.13181	1.35003
0.14870	-0.28246
0.40372	-0.69059
0.42922	-0.58856
0.53123	-0.25695
0.32721	-0.12942
-0.15732	0.66132
-0.71835	1.06945
-0.13181	-0.15492
-0.10631	-0.15492
-0.51434	0.73785
-0.51434	0.48277
1.04126	-0.20594
1.32178	-0.18043
0.81175	0.45726
1.01576	-0.53754
0.53123	-0.58856
-0.02981	1.14597
-0.38683	1.65613
-0.53984	0.22769
-0.59084	0.17668
-0.28482	-0.69059
0.07220	-1.40480
0.58223	-0.76711
0.19971	0.15117
0.55673	1.60511
0.42922	1.45206
-0.05531	0.02363
-0.25932	-0.05289
-0.59084	0.45726
-0.33583	-0.20594
0.30171	-1.25176
0.68424	-0.38449
0.81175	0.40625
0.58223	0.17668
0.60773	0.15117
0.30171	0.63582
0.40372	1.19699
-0.05531	0.22769
-0.87136	0.22769
-1.45790	0.50828
-0.48884	0.04914
0.86275	-0.23145
0.70974	-0.58856
0.65874	-0.43551
1.04126	-0.00188
0.81175	0.55929
0.27621	0.58480
-0.02981	0.25320
-0.08081	0.27871
-0.51434	0.96742
-0.33583	-0.12942
-0.84586	-0.53754
0.19971	-0.61406
0.60773	-0.12942
0.70974	0.10015
0.35272	0.12566
0.09770	0.48277
0.07220	0.25320
-0.18282	0.48277
-0.25932	1.42656
-0.00431	0.81437
0.50573	-0.00188
0.53123	-0.63957
0.32721	-1.48133
0.35272	-1.12422
0.42922	0.32972
-0.00431	1.80917
-0.82036	-0.10391
-0.25932	0.40625
0.12320	1.06945
0.19971	-0.28246
0.53123	-0.33348
0.42922	-0.30797
0.27621	0.15117
0.22521	0.66132
-0.15732	0.58480
-0.00431	0.55929
0.07220	0.43176
-0.02981	0.27871
-0.05531	0.17668
-0.00431	-0.58856
0.30171	-0.46102
0.35272	-0.30797
0.19971	-0.25695
0.63323	-0.05289
0.14870	0.58480
-0.33583	0.83988
0.07220	0.12566
-0.18282	0.53379
-0.15732	0.86539
0.42922	0.50828
0.83725	-0.66508
0.73524	-0.86914
-0.05531	-0.61406
0.17421	-0.28246
0.63323	0.81437
0.02119	1.14597
-0.10631	2.08976
-0.10631	0.32972
-0.38683	-0.99668
0.04670	-1.09871
0.35272	-0.51203
0.45472	1.35003
0.58223	0.76336
-0.15732	-0.61406
0.17421	-0.58856
-0.02981	0.40625
0.19971	0.76336
0.07220	0.43176
-1.02437	0.20219
-0.64185	-0.20594
0.70974	-0.58856
0.91375	-0.12942
0.73524	-0.15492
0.73524	0.63582
0.02119	0.66132
-0.20832	0.61031
0.12320	0.73785
-0.08081	0.71234
-0.10631	0.48277
0.17421	-0.25695
0.45472	-0.66508
0.35272	-0.12942
0.27621	0.10015
0.14870	-0.25695
0.12320	0.35523
0.04670	0.20219
-0.59084	0.45726
-0.02981	0.38074
-0.02981	0.68683
0.30171	-0.05289
0.50573	-0.79262
0.58223	-0.02739
0.81175	-0.43551
0.83725	-0.02739
0.22521	-0.15492
-0.79486	1.42656
-1.86593	2.42136
-0.00431	-0.10391
0.35272	-1.02219
0.65874	-0.02739
0.81175	0.68683
0.53123	-0.99668
0.42922	-0.66508
0.60773	0.45726
0.19971	-0.18043
-0.10631	-0.05289
-0.20832	1.01843
-0.23382	1.68163
-0.74385	1.37554
-0.56534	0.35523
0.35272	-1.02219
0.68424	-0.56305
0.70974	-0.51203
0.70974	-0.71609
0.48022	-0.41000
0.12320	1.19699
-0.25932	1.22250
-0.28482	0.73785
-0.33583	0.55929
0.32721	-0.41000
0.53123	-0.76711
0.60773	-0.69059
0.37822	-0.00188
-1.02437	0.27871
0.37822	1.01843
0.30171	-0.25695
-0.38683	-0.07840
0.30171	0.71234
0.12320	0.89089
0.53123	-0.05289
0.99026	0.15117
0.53123	-0.38449
-0.23382	0.35523
-0.05531	-0.43551
0.27621	0.58480
-0.05531	0.61031
-0.10631	0.40625
-0.15732	-0.35899
-0.41233	-0.28246
-0.23382	0.15117
0.42922	0.10015
0.55673	0.02363
0.42922	-0.02739
0.53123	0.02363
0.14870	-0.41000
-0.05531	0.04914
-0.18282	0.66132
-0.02981	0.73785
-0.28482	0.83988
0.12320	0.35523
0.60773	-0.28246
0.65874	-0.30797
0.07220	0.10015
0.42922	-0.56305
0.04670	0.27871
-0.10631	0.50828
-0.31033	0.61031
0.17421	1.29902
0.22521	-0.18043
0.12320	-1.30277
0.14870	-0.12942
0.37822	-0.12942
0.32721	-0.43551
0.42922	-0.28246
-0.02981	0.78886
0.07220	0.30422
0.17421	1.40105
-0.28482	1.88570
0.09770	0.25320
0.07220	-1.35379
-0.71835	-0.94566
0.40372	-0.23145
0.53123	-0.25695
0.91375	0.15117
0.25071	0.81437
0.27621	0.68683
0.09770	0.30422
-0.28482	0.15117
-0.53984	0.17668
-0.13181	-0.30797
0.40372	-0.20594
0.68424	-0.18043
0.55673	0.12566
0.07220	-0.18043
0.09770	0.48277
0.25071	1.35003
-0.02981	1.22250
-0.02981	0.86539
-0.46334	0.20219
-0.08081	-1.43031
0.45472	-0.97117
0.55673	-0.25695
0.17421	-0.00188
0.37822	-0.84363
0.58223	-0.69059
0.30171	1.32453
-0.13181	2.39585
-0.25932	1.47757
-0.33583	0.48277
-0.10631	-1.22625
0.42922	-0.84363
0.50573	0.17668
0.32721	-0.02739
0.42922	-0.58856
0.25071	-0.00188
0.07220	0.38074
0.12320	0.43176
-0.28482	0.63582
-1.22839	0.38074
0.14870	-0.00188
0.53123	-0.23145
0.93925	-0.38449
0.55673	0.25320
0.73524	0.66132
-0.02981	0.04914
-0.02981	-0.20594
-0.84586	0.78886
-0.36133	0.63582
0.14870	0.40625
0.12320	-0.35899
0.32721	0.10015
0.73524	0.04914
0.73524	-0.25695
0.73524	-0.43551
0.60773	0.20219
0.25071	1.45206
0.19971	-0.35899
-0.18282	0.15117
-0.76936	0.53379
-0.71835	-0.61406
0.19971	-0.69059
0.76074	-0.30797
0.60773	0.86539
0.37822	1.19699
0.07220	0.50828
-0.25932	0.40625
-0.20832	0.86539
-0.05531	-0.12942
-0.13181	-0.05289
0.14870	-0.28246
0.42922	-0.53754
0.42922	-0.33348
0.25071	-0.28246
0.60773	-0.30797
0.50573	0.58480
0.17421	0.50828
-0.15732	0.53379
-0.13181	0.76336
-0.23382	0.83988
-0.05531	-0.25695
0.40372	-0.00188
0.76074	-0.33348
-0.23382	-0.07840
0.27621	-0.20594
0.14870	0.45726
0.58223	0.78886
0.07220	0.20219
-1.20288	0.53379
-0.64185	1.57960
0.25071	-0.18043
1.04126	-1.07320
1.04126	-1.43031
0.81175	0.48277
0.81175	-0.25695
0.22521	1.12046
-0.41233	0.71234
-1.17738	0.04914
-0.28482	0.96742
-0.33583	0.55929
0.14870	-0.41000
0.53123	-0.58856
0.48022	-0.35899
0.35272	-1.40480
0.63323	0.91640
0.27621	0.50828
-0.08081	0.02363
-0.02981	0.89089
0.04670	0.30422
-0.28482	1.45206
-0.33583	0.35523
0.14870	-0.58856
0.42922	-0.30797
0.60773	-0.46102
0.76074	-0.23145
0.50573	0.22769
0.07220	0.27871
-0.08081	0.43176
-0.02981	0.61031
-0.56534	0.61031
-0.66735	-0.30797
0.22521	-0.25695
0.48022	0.15117
0.32721	0.12566
0.76074	-0.15492
0.40372	0.71234
0.27621	0.17668
0.37822	0.20219
0.22521	0.12566
0.07220	0.17668
0.09770	-0.05289
0.09770	-0.51203
0.02119	0.10015
-0.43783	-0.46102
0.60773	0.76336
0.35272	1.86019
-0.05531	0.66132
-0.08081	0.78886
-0.02981	0.20219
-0.36133	0.76336
-0.18282	-1.65988
0.35272	-2.42511
0.48022	-0.46102
0.48022	0.27871
0.63323	0.45726
0.27621	0.78886
0.09770	1.37554
0.02119	1.27351
-0.28482	0.71234
-0.51434	0.58480
-0.05531	-0.23145
0.65874	-0.28246
0.58223	-0.63957
0.45472	-0.56305
0.86275	-0.07840
-0.00431	0.43176
-0.48884	0.48277
-0.18282	0.71234
0.12320	-0.02739
-0.31033	-0.71609
0.58223	-0.00188
0.22521	0.02363
-0.23382	-0.02739
-0.13181	0.22769
0.55673	-0.00188
0.83725	0.38074
0.40372	0.76336
0.22521	0.22769
0.14870	0.99292
-0.33583	1.14597
-0.18282	-0.46102
0.22521	-1.12422
0.27621	-0.51203
0.30171	0.55929
0.42922	-0.07840
0.27621	-0.48652
-0.10631	0.04914
-0.53984	0.25320
-0.33583	1.35003
-0.23382	0.71234
0.07220	-0.66508
0.58223	-0.33348
0.63323	0.38074
0.63323	-0.28246
0.99026	-0.35899
0.53123	0.40625
-0.08081	0.53379
-0.89686	1.12046
-0.64185	0.71234
-0.33583	0.27871
0.30171	-0.12942
0.02119	-0.53754
0.70974	-0.30797
0.63323	-0.00188
0.63323	-0.07840
0.45472	0.50828
-0.02981	0.48277
-0.23382	0.32972
0.09770	-0.02739
-0.28482	0.55929
-0.20832	0.83988
0.04670	-0.38449
0.17421	-0.66508
0.65874	-0.76711
0.22521	-0.43551
0.50573	0.78886
-0.05531	0.83988
-0.05531	0.27871
-0.02981	-0.56305
-0.51434	1.42656
-0.43783	0.55929
0.19971	0.07465
0.70974	-0.20594
0.68424	-0.69059
0.93925	-0.69059
0.48022	0.10015
0.12320	0.30422
-0.25932	1.14597
-0.08081	0.12566
-0.25932	0.17668
-0.25932	0.63582
-0.13181	-0.12942
-0.23382	-0.12942
0.48022	0.15117
1.09226	0.12566
0.60773	0.32972
0.27621	0.50828
0.12320	0.71234
0.02119	0.20219
-0.41233	0.32972
-0.74385	0.17668
-0.28482	-0.86914
0.60773	-0.25695
0.63323	0.22769
0.65874	0.10015
0.25071	0.22769
0.02119	0.25320
0.04670	0.15117
-0.02981	0.50828
-0.23382	0.94191
-0.33583	0.32972
0.02119	-0.00188
0.78624	-1.76191
0.27621	-0.94566
0.91375	-0.10391
0.63323	1.52859
0.25071	0.76336
-0.20832	0.86539
-0.36133	0.55929
-0.31033	0.38074
0.32721	0.17668
0.48022	-0.51203
0.53123	-1.17523
0.42922	-0.28246
0.32721	0.20219
-0.13181	0.55929
-0.20832	0.99292
-0.05531	0.61031
-0.08081	0.32972
-0.56534	0.61031
0.02119	-0.33348
0.58223	-0.63957
0.68424	-0.02739
0.45472	-0.25695
0.55673	0.55929
0.25071	0.45726
-0.15732	-0.20594
-0.08081	-0.30797
-0.10631	0.48277
-0.08081	0.86539
0.19971	0.10015
0.40372	-0.18043
0.27621	0.22769
0.12320	0.04914
0.55673	-0.18043
0.14870	0.25320
-0.13181	0.50828
-0.02981	0.30422
0.22521	1.47757
0.02119	0.81437
-1.10088	-1.14973
0.50573	-1.37929
0.42922	0.32972
0.04670	-0.28246
0.32721	-0.41000
0.60773	0.61031
0.30171	1.22250
0.04670	1.47757
-0.10631	1.29902
-0.36133	0.86539
0.12320	-0.86914
0.30171	-2.27207
0.32721	-0.99668
0.42922	-0.05289
0.30171	0.15117
-0.05531	0.53379
0.07220	0.58480
0.12320	1.04394
0.02119	0.91640
-0.10631	0.94191
-0.05531	0.38074
0.12320	-0.15492
0.93925	-0.58856
0.73524	-0.43551
0.55673	-0.43551
-0.53984	0.48277
-0.38683	0.43176
-0.00431	0.04914
-0.02981	0.35523
-0.18282	0.68683
0.35272	0.04914
0.91375	-0.02739
0.76074	0.04914
-0.13181	-0.46102
0.65874	-0.89465
0.48022	0.53379
0.07220	0.89089
-0.46334	1.04394
-0.13181	0.50828
-0.46334	-0.35899
0.02119	0.27871
0.27621	0.12566
0.58223	-1.17523
0.53123	0.38074
0.50573	-0.92016
0.17421	-0.28246
-0.13181	1.06945
-0.43783	0.76336
-0.15732	0.55929
0.02119	1.17148
0.12320	-0.25695
0.37822	-0.12942
0.37822	-0.30797
0.02119	0.25320
0.45472	-0.51203
0.55673	0.32972
0.55673	0.68683
-0.13181	0.43176
-0.36133	0.25320
-0.69285	0.66132
-0.18282	-0.18043
-0.15732	-0.28246
0.48022	0.30422
0.65874	-1.22625
0.65874	-1.27726
0.93925	0.50828
0.19971	1.09496
-0.53984	1.09496
-0.25932	0.91640
-0.41233	0.22769
-0.13181	-0.35899
0.30171	0.43176
0.55673	0.35523
0.53123	0.40625
0.50573	-1.07320
0.09770	-0.58856
-0.13181	0.73785
-0.20832	0.22769
-0.20832	-0.00188
-0.33583	1.32453
-0.43783	0.63582
0.32721	-0.61406
0.65874	-0.20594
0.55673	-0.61406
0.86275	-0.86914
0.37822	0.55929
0.12320	0.94191
-0.56534	0.81437
-0.10631	1.17148
-0.48884	0.07465
0.07220	-0.97117
0.32721	-0.18043
0.12320	-0.05289
0.50573	0.12566
1.32178	0.17668
0.78624	0.66132
-0.13181	0.58480
-1.04987	0.63582
-0.25932	0.17668
-0.74385	0.35523
0.07220	-0.07840
0.70974	-0.30797
0.96476	-0.43551
0.96476	-0.35899
0.14870	-0.63957
0.42922	0.38074
-0.28482	0.94191
-0.33583	0.43176
-0.31033	0.55929
-0.41233	0.91640
-0.28482	0.15117
0.22521	-1.09871
0.63323	-0.84363
0.55673	0.58480
0.53123	0.83988
0.35272	-0.53754
0.02119	-0.18043
-0.18282	0.32972
-0.15732	0.68683
-0.20832	0.48277
-0.00431	-0.38449
0.32721	0.12566
0.70974	0.17668
0.58223	-0.05289
0.42922	-0.30797
0.37822	0.32972
-0.13181	0.78886
-0.69285	0.30422
-0.05531	0.10015
-0.20832	0.68683
-0.15732	0.38074
0.32721	-0.51203
0.96476	-0.07840
0.68424	-0.58856
0.30171	-0.00188
0.83725	0.35523
0.07220	0.94191
-0.99887	0.50828
-1.50890	0.10015
0.17421	0.43176
0.76074	-0.18043
0.76074	-0.43551
0.76074	0.50828
0.32721	0.45726
0.53123	-0.53754
0.30171	0.43176
-0.18282	-0.66508
-0.23382	-0.63957
-0.38683	0.07465
-0.71835	1.91120
-0.00431	0.25320
0.45472	0.32972
0.70974	0.40625
0.78624	-0.58856
0.53123	0.81437
0.27621	-0.46102
-0.02981	-1.09871
-0.05531	0.15117
-0.13181	0.73785
-0.23382	0.38074
-0.08081	0.40625
0.32721	-1.37929
0.60773	0.17668
0.40372	0.55929
0.70974	-0.10391
0.53123	0.35523
-0.10631	0.50828
-0.48884	0.55929
-0.87136	0.43176
-0.48884	0.73785
0.32721	-0.07840
0.68424	0.02363
0.88825	0.02363
0.78624	-0.35899
0.40372	-0.43551
-0.05531	-0.05289
-0.02981	0.68683
0.14870	0.73785
-1.81492	0.04914
-0.36133	0.20219
0.37822	0.12566
0.60773	-0.20594
-0.10631	-0.05289
0.07220	-0.10391
1.47479	-0.05289
0.91375	0.63582
-0.08081	0.15117
-0.28482	0.35523
-0.05531	0.63582
-0.25932	1.19699
-0.08081	-0.71609
0.12320	-0.38449
0.48022	0.63582
0.22521	-0.28246
0.35272	-1.07320
0.17421	-0.74160
-0.25932	0.38074
-0.23382	1.14597
-0.05531	1.60511
-0.36133	0.35523
-0.38683	-0.07840
0.19971	-0.18043
0.81175	-0.74160
0.73524	-0.58856
0.88825	-0.20594
0.45472	0.48277
-0.25932	0.68683
-0.10631	0.81437
-0.28482	0.55929
-0.00431	0.55929
-0.02981	-0.25695
0.53123	-0.25695
0.35272	-0.28246
0.17421	-0.46102
0.30171	-0.15492
-0.23382	0.38074
-0.23382	0.53379
-0.15732	0.43176
0.12320	0.55929
-0.10631	0.94191
0.14870	0.07465
0.09770	-0.66508
0.70974	-0.53754
0.40372	-0.10391
0.48022	0.35523
0.45472	-0.02739
-0.33583	0.55929
-0.51434	0.53379
-0.00431	0.22769
-0.18282	0.99292
0.17421	-0.81812
0.48022	-0.56305
0.50573	0.27871
0.35272	0.61031
0.45472	0.20219
0.30171	-0.05289
-0.08081	-0.20594
-0.20832	0.35523
-0.31033	-0.28246
-0.23382	0.38074
-0.00431	0.73785
0.50573	-0.15492
0.53123	-0.51203
0.42922	-0.74160
0.45472	-0.23145
0.14870	0.81437
-0.15732	1.17148
-0.05531	1.37554
0.02119	0.15117
-0.43783	0.12566
-0.28482	0.32972
0.48022	-0.76711
0.65874	-0.63957
0.53123	0.02363
0.86275	-0.12942
0.83725	0.45726
-0.79486	0.71234
-0.76936	0.55929
-0.08081	0.12566
-0.02981	0.45726
-0.02981	-0.23145
0.45472	-0.41000
0.83725	-0.00188
0.35272	-0.99668
0.53123	0.22769
0.27621	1.35003
-0.10631	-0.33348
-0.25932	0.15117
-0.23382	1.14597
-0.33583	0.81437
-0.08081	-0.30797
0.27621	-0.41000
0.68424	-1.32828
0.37822	0.12566
0.25071	0.71234
0.12320	0.78886
0.07220	0.55929
0.12320	0.10015
0.02119	0.45726
-0.20832	-0.23145
-0.31033	-0.41000
0.25071	0.40625
0.99026	-0.79262
0.14870	-0.79262
0.58223	-0.28246
-0.28482	0.71234
0.25071	1.27351
0.32721	1.52859
0.07220	0.96742
-0.13181	0.89089
0.02119	-0.28246
0.35272	-0.56305
0.60773	-0.81812
0.02119	-0.46102
0.48022	-0.71609
-0.36133	0.17668
-0.20832	0.43176
-0.02981	0.48277
-0.13181	-0.23145
-0.38683	1.27351
0.37822	0.53379
0.48022	-0.38449
0.50573	-0.69059
0.09770	-0.15492
0.22521	-0.12942
0.76074	0.04914
0.25071	1.09496
0.02119	1.70714
-0.15732	0.96742
-0.43783	-0.35899
-0.18282	-1.12422
0.37822	-0.46102
0.58223	0.04914
0.58223	0.15117
0.53123	-0.23145
0.22521	0.25320
-0.51434	0.89089
-0.69285	0.55929
-0.61635	0.71234
-0.20832	0.91640
0.22521	-0.56305
0.65874	-0.56305
0.76074	-0.25695
0.30171	0.15117
1.04126	-0.58856
0.78624	-0.02739
-0.08081	0.78886
-0.94787	0.68683
-0.25932	0.30422
-0.08081	0.76336
0.14870	0.12566
0.45472	-0.18043
0.81175	-0.48652
0.04670	-0.30797
-0.51434	-0.38449
0.32721	0.43176
0.07220	1.14597
0.14870	0.61031
0.02119	-0.38449
-0.59084	0.61031
0.02119	-0.79262
0.65874	-0.99668
0.55673	0.63582
0.53123	0.96742
0.70974	-0.58856
0.48022	0.17668
-0.05531	0.66132
-0.82036	0.12566
-0.48884	0.32972
-0.31033	0.53379
0.17421	-0.18043
0.42922	-0.30797
0.63323	0.02363
0.73524	0.04914
0.63323	-0.56305
0.04670	0.02363
-0.05531	0.81437
-0.41233	0.58480
0.07220	0.45726
-0.33583	0.22769
-0.13181	-0.10391
0.30171	0.04914
0.63323	-0.41000
0.58223	-0.02739
0.70974	0.32972
0.27621	0.35523
0.09770	0.43176
-0.00431	0.27871
-0.00431	0.30422
-0.36133	0.43176
-0.38683	-0.23145
0.30171	-0.30797
0.63323	-0.56305
0.45472	-0.12942
0.58223	-0.35899
0.35272	0.96742
-0.00431	0.25320
-0.08081	0.55929
-0.23382	1.40105
-0.33583	0.96742
-0.13181	-0.38449
0.48022	-0.86914
0.58223	-1.68539
-0.18282	0.35523
0.40372	-0.92016
0.53123	0.55929
0.19971	2.01323
-0.08081	1.24800
-0.02981	0.63582
-0.08081	1.09496
-0.20832	-0.56305
0.30171	-1.88945
0.35272	0.30422
0.32721	0.63582
0.76074	-0.94566
0.55673	-0.28246
-0.33583	0.27871
-0.69285	0.66132
-0.56534	0.63582
0.17421	1.14597
0.42922	0.17668
0.32721	-0.38449
0.68424	-0.35899
0.53123	0.02363
0.73524	-0.10391
0.22521	0.48277
-0.51434	0.43176
-0.38683	0.40625
0.02119	0.04914
0.02119	0.63582
0.32721	-0.28246
0.70974	-0.84363
0.53123	0.17668
0.27621	0.91640
0.60773	-0.56305
0.14870	-0.41000
-0.36133	0.71234
-0.38683	0.71234
-0.20832	1.57960
-0.48884	0.76336
-0.10631	-1.48133
0.45472	-0.02739
0.60773	-0.23145
0.42922	-0.07840
0.65874	0.04914
0.27621	-0.20594
-0.08081	0.53379
-0.13181	1.04394
-0.13181	0.07465
-0.25932	0.30422
-0.02981	-0.30797
0.42922	0.04914
0.96476	0.38074
0.53123	0.53379
-0.00431	-0.66508
-0.53984	-0.23145
-0.05531	0.15117
0.35272	0.02363
0.40372	0.25320
0.09770	0.94191
0.37822	0.48277
0.63323	0.61031
0.12320	-0.51203
-0.02981	-0.07840
0.37822	-0.48652
-0.10631	-0.46102
0.02119	1.27351
0.04670	1.27351
-0.02981	0.35523
-0.23382	0.17668
-0.25932	-0.38449
0.25071	-0.46102
0.73524	-0.23145
0.50573	-0.58856
0.50573	0.04914
0.25071	0.68683
-0.15732	0.53379
-0.33583	0.73785
-0.15732	0.73785
-0.71835	0.48277
-0.05531	-2.45062
0.58223	-2.14453
0.78624	0.73785
0.60773	0.94191
0.73524	0.53379
-0.02981	0.99292
-0.08081	1.01843
-0.25932	0.68683
0.02119	0.20219
0.12320	0.40625
-0.38683	0.22769
0.22521	-0.66508
0.14870	-0.66508
0.27621	-0.53754
0.83725	-0.41000
0.68424	0.71234
-0.00431	0.78886
-0.08081	0.10015
-0.00431	0.15117
-0.46334	0.66132
-0.94787	0.15117
-0.25932	-0.56305
0.35272	-0.48652
0.63323	0.30422
1.29628	-0.25695
0.93925	-0.15492
0.32721	0.55929
0.04670	1.29902
-0.25932	0.71234
-0.38683	-0.00188
-0.28482	0.04914
0.04670	0.45726
0.30171	-0.69059
0.30171	-0.10391
0.60773	-0.12942
0.27621	0.25320
-0.02981	0.15117
-0.25932	0.50828
-0.18282	0.43176
-0.31033	0.30422
0.07220	0.02363
0.42922	-0.07840
0.35272	-0.35899
0.45472	-0.05289
0.37822	-0.48652
0.27621	0.25320
-0.08081	0.50828
-0.20832	0.53379
0.19971	0.10015
-0.48884	1.29902
-0.18282	0.96742
0.42922	-0.18043
0.91375	-0.63957
-0.02981	-0.41000
0.37822	-1.07320
0.40372	0.38074
0.17421	0.76336
0.12320	0.58480
0.19971	0.43176
-0.51434	0.91640
-0.28482	0.50828
-0.10631	-0.46102
0.65874	-1.35379
0.50573	-0.18043
0.42922	-0.25695
0.42922	0.48277
0.07220	0.91640
-0.23382	0.53379
-0.10631	0.35523
-0.41233	0.96742
-0.02981	0.15117
0.35272	0.20219
0.55673	-0.86914
0.60773	-0.84363
0.53123	0.30422
0.32721	0.07465
-0.05531	0.17668
-0.20832	0.63582
-0.15732	0.58480
-0.36133	0.83988
-0.00431	0.25320
0.35272	-0.56305
0.30171	-0.23145
0.09770	-0.43551
0.63323	0.02363
0.48022	0.53379
-0.05531	0.53379
0.22521	0.58480
0.09770	0.20219
-0.71835	0.58480
0.04670	-0.00188
0.45472	-0.38449
0.50573	0.10015
0.55673	-0.20594
0.81175	-0.66508
0.14870	0.43176
-0.48884	0.68683
0.07220	0.55929
0.53123	0.22769
-0.46334	0.76336
-0.89686	-0.02739
-0.74385	-0.33348
0.50573	-0.35899
1.09226	0.35523
1.14327	-0.66508
0.73524	-0.38449
0.25071	0.99292
-0.05531	0.68683
-0.64185	0.20219
-0.61635	1.12046
-0.13181	1.29902
0.32721	-0.48652
0.53123	-0.38449
0.53123	-0.79262
0.70974	-1.48133
0.22521	0.32972
-0.23382	0.22769
-0.08081	-0.12942
-0.18282	1.22250
-0.46334	1.65613
-0.08081	0.83988
0.14870	-0.33348
0.65874	-0.51203
0.30171	-0.25695
0.53123	-0.30797
0.42922	0.66132
-0.00431	0.66132
0.12320	0.32972
-0.00431	0.12566
-0.43783	0.61031
-0.59084	-0.33348
0.17421	-0.46102
0.96476	-0.38449
0.65874	-0.02739
0.32721	-0.30797
-0.33583	0.48277
0.12320	0.63582
0.02119	0.68683
0.17421	0.35523
-0.08081	0.32972
-0.05531	-0.05289
0.12320	-0.28246
0.58223	0.02363
0.42922	-0.23145
0.48022	0.04914
0.27621	-0.05289
-0.02981	0.50828
-0.13181	1.24800
-0.33583	-0.86914
-0.56534	0.07465
-0.38683	0.78886
0.32721	1.68163
0.70974	0.63582
0.63323	-1.40480
0.63323	-1.63437
0.42922	-0.00188
-0.00431	0.38074
0.09770	0.61031
0.07220	0.91640
-0.28482	-0.33348
-0.46334	-0.12942
-0.13181	-0.12942
0.58223	-0.02739
-0.18282	0.63582
1.06676	0.12566
0.53123	0.58480
-0.36133	0.81437
0.19971	0.61031
-0.02981	0.48277
0.48022	0.40625
0.65874	-0.35899
0.17421	-0.43551
-0.71835	-0.46102
-0.23382	-0.23145
0.73524	-0.38449
0.70974	0.50828
0.07220	0.25320
-0.18282	0.20219
-0.15732	0.50828
-0.28482	1.06945
-0.00431	0.10015
0.32721	-0.58856
0.45472	0.04914
0.27621	0.04914
0.50573	-0.66508
0.48022	-0.25695
-0.05531	1.78367
-0.36133	1.01843
-0.25932	0.04914
-0.41233	0.61031
-0.08081	-0.23145
0.32721	0.02363
0.76074	-1.17523
0.58223	-0.81812
0.78624	-0.20594
0.53123	1.32453
0.02119	0.61031
-0.36133	-0.41000
-0.25932	0.15117
-0.43783	0.83988
0.14870	0.48277
0.42922	-0.05289
0.35272	-0.53754
0.09770	-0.02739
-0.48884	-0.18043
0.78624	0.32972
0.81175	1.04394
-0.13181	1.06945
-0.38683	-0.00188
-0.31033	0.20219
0.27621	-0.53754
0.60773	-0.15492
0.55673	-0.20594
0.50573	-0.28246
0.14870	-0.48652
0.19971	0.89089
0.14870	1.42656
-0.18282	0.48277
-0.92237	-0.33348
-0.53984	-0.43551
-0.59084	0.02363
0.42922	0.04914
0.73524	-0.18043
0.63323	0.45726
0.81175	-0.46102
0.58223	0.43176
0.14870	0.71234
-0.05531	0.83988
-0.20832	0.66132
-0.33583	-0.02739
-0.08081	0.32972
0.30171	-0.51203
0.48022	-1.04770
0.42922	0.10015
