0.37822	-0.71609
0.48022	0.17668
-0.05531	0.76336
0.30171	-0.30797
0.07220	0.10015
0.07220	0.27871
0.02119	0.35523
-0.10631	-0.58856
-0.64185	-0.20594
-0.15732	0.07465
0.25071	0.04914
0.99026	0.20219
1.44929	0.55929
1.27078	1.14597
0.35272	0.35523
-0.82036	0.35523
-0.82036	-0.41000
-1.02437	0.53379
-0.59084	-0.00188
-0.02981	-0.15492
0.93925	-0.76711
0.48022	-0.05289
0.45472	0.99292
0.86275	0.32972
0.42922	0.04914
-0.94787	-0.89465
-0.59084	0.38074
0.12320	0.94191
0.40372	0.10015
0.35272	-0.48652
0.68424	0.15117
0.96476	-0.86914
0.53123	1.09496
0.53123	1.73265
0.37822	0.76336
-0.71835	1.19699
-0.69285	0.43176
-0.38683	-0.56305
-0.48884	-0.63957
-0.89686	-1.07320
0.35272	-0.35899
0.81175	-0.99668
1.01576	1.17148
0.73524	-0.61406
0.02119	-0.58856
0.09770	-0.02739
-0.18282	1.12046
0.37822	1.45206
-0.74385	0.61031
-1.02437	0.10015
0.40372	-0.05289
1.70430	0.30422
1.70430	0.71234
0.65874	-0.92016
0.19971	-1.09871
0.27621	1.35003
-0.05531	1.37554
-0.41233	0.35523
-1.91693	-0.46102
-0.76936	-0.63957
0.45472	-0.15492
0.91375	-0.05289
0.86275	0.32972
0.68424	-0.86914
0.73524	-0.92016
0.22521	1.42656
-0.43783	0.50828
-0.94787	0.81437
-0.79486	2.16628
-0.38683	-0.00188
-0.13181	-1.12422
1.11776	0.91640
1.57679	0.66132
1.09226	-0.56305
0.40372	0.22769
-0.28482	-0.81812
0.25071	0.38074
0.40372	-0.20594
-0.15732	0.30422
-0.94787	-0.05289
-0.92237	0.81437
-0.23382	3.13558
0.88825	-0.66508
1.21977	-3.41992
0.86275	-1.35379
-0.10631	-3.21585
-0.59084	2.37034
-0.56534	3.18659
0.12320	2.67644
0.65874	0.55929
0.27621	-0.35899
0.68424	-0.05289
0.55673	0.04914
0.58223	-1.68539
0.42922	-1.76191
0.12320	0.89089
-0.61635	-0.84363
-1.20288	0.63582
-1.07538	1.73265
-0.23382	0.63582
0.91375	1.17148
0.48022	0.96742
0.68424	-2.52714
1.47479	-3.87905
1.29628	1.73265
0.14870	3.97733
-0.23382	0.99292
-0.23382	-1.53234
-0.20832	0.66132
-0.18282	1.68163
0.30171	-0.79262
0.17421	0.38074
-0.08081	0.58480
-0.02981	0.63582
-0.20832	-0.61406
0.04670	-1.12422
-0.66735	-1.20074
-0.05531	-0.69059
0.58223	0.48277
0.73524	0.71234
0.70974	-0.07840
0.88825	0.35523
0.68424	0.68683
0.45472	0.96742
0.17421	0.38074
-0.66735	0.99292
-0.41233	-0.02739
-0.43783	1.52859
-0.31033	-0.58856
0.12320	-1.65988
-0.23382	0.86539
0.04670	0.89089
0.12320	0.25320
0.96476	0.10015
0.96476	0.81437
0.22521	-1.12422
-0.89686	-1.83844
-0.43783	2.59991
0.50573	3.26312
0.88825	-0.94566
0.02119	-0.56305
0.86275	-0.38449
0.88825	-0.41000
0.83725	-0.53754
-0.10631	0.43176
-1.33039	-0.38449
-0.59084	-0.81812
-0.28482	-0.02739
0.17421	0.73785
0.27621	0.96742
0.50573	0.48277
1.04126	0.68683
0.09770	0.40625
0.19971	-1.27726
0.30171	0.73785
-0.13181	1.50308
-0.23382	0.10015
-0.18282	0.55929
-0.48884	-0.23145
-0.36133	-2.09351
0.35272	-1.27726
0.50573	2.26831
0.42922	0.94191
0.93925	-0.41000
0.73524	0.43176
-0.43783	-0.48652
-0.20832	-0.20594
0.55673	1.19699
0.25071	0.50828
-0.28482	-0.00188
-0.53984	0.17668
-0.76936	-0.02739
0.45472	-0.76711
0.42922	-0.84363
0.83725	0.40625
0.70974	1.17148
0.78624	1.35003
0.50573	-0.18043
0.40372	-0.33348
-0.18282	-0.15492
-1.27939	-0.05289
-0.23382	0.20219
0.04670	0.76336
0.32721	-0.30797
0.45472	0.30422
0.04670	0.22769
-0.05531	-1.88945
-0.08081	2.29382
-0.36133	1.96222
-0.51434	-0.30797
0.12320	-1.63437
0.55673	1.22250
0.48022	-0.15492
0.76074	-2.19554
0.53123	-0.15492
0.12320	0.04914
0.17421	-0.02739
-0.05531	1.04394
-0.36133	0.78886
0.14870	0.86539
0.04670	0.81437
0.27621	-0.51203
0.48022	-0.89465
-0.43783	0.12566
0.14870	1.06945
-0.51434	0.55929
-0.56534	-1.48133
0.93925	-0.25695
1.57679	0.89089
0.40372	0.07465
0.58223	0.58480
-0.89686	0.76336
0.04670	-0.30797
0.83725	-1.91496
0.86275	1.63062
0.22521	2.59991
0.04670	-1.25176
-0.53984	-1.78742
-0.61635	0.66132
-0.48884	0.35523
-0.25932	-1.63437
0.25071	0.30422
0.45472	5.53330
0.50573	1.96222
0.63323	-2.39961
0.09770	-1.25176
-0.02981	-1.07320
0.02119	-1.88945
-0.13181	-1.37929
-0.33583	0.15117
0.22521	1.35003
0.27621	0.35523
0.35272	0.35523
0.22521	0.10015
0.99026	1.24800
0.81175	1.57960
1.29628	0.58480
-0.00431	0.43176
-1.86593	-0.23145
-2.42696	-0.20594
-0.61635	-0.51203
1.42379	-0.58856
2.23984	1.27351
1.67880	-0.00188
0.93925	-0.18043
-0.13181	0.22769
-0.41233	-1.37929
-0.46334	-0.18043
-0.94787	1.01843
-1.15188	0.27871
-0.25932	-0.38449
0.76074	1.06945
0.78624	0.63582
0.78624	1.52859
0.65874	-0.51203
0.37822	-1.60887
-0.08081	-1.27726
-0.23382	0.32972
-0.20832	0.96742
-0.15732	1.24800
0.27621	0.40625
0.42922	0.40625
0.68424	0.15117
-0.02981	0.12566
-0.13181	-0.15492
0.02119	0.30422
-0.10631	0.07465
0.02119	-0.51203
0.02119	0.27871
0.09770	0.58480
-0.02981	-0.05289
1.47479	0.99292
0.42922	-0.81812
0.14870	-1.27726
0.09770	0.43176
0.53123	0.71234
-0.02981	0.61031
-0.31033	0.94191
-0.10631	0.04914
-0.18282	-0.38449
0.12320	0.86539
0.22521	-1.09871
0.30171	0.15117
0.42922	1.29902
0.25071	-0.30797
0.02119	-1.43031
-0.18282	0.20219
-0.20832	1.32453
-0.31033	1.40105
-0.25932	0.83988
0.30171	-1.32828
0.63323	-1.17523
0.83725	-0.18043
0.93925	0.30422
0.09770	-0.20594
-0.18282	0.10015
-0.13181	0.76336
0.07220	1.17148
0.30171	1.01843
-0.25932	0.43176
-0.23382	-0.38449
0.17421	-0.30797
0.37822	0.83988
0.73524	-1.02219
0.45472	-1.25176
0.40372	0.89089
0.50573	0.76336
0.42922	0.55929
-0.69285	0.12566
-1.58541	0.71234
-1.30489	-0.48652
0.96476	-0.25695
1.19427	0.50828
0.99026	-0.53754
0.88825	-0.69059
0.58223	0.71234
-0.00431	0.12566
-0.33583	-0.02739
-0.31033	1.14597
-0.51434	0.53379
-0.28482	0.38074
-0.08081	-0.86914
0.14870	-1.27726
0.68424	-0.25695
0.78624	-0.69059
0.32721	2.08976
0.04670	2.77847
-0.00431	0.94191
-0.31033	-1.32828
-0.33583	-1.88945
0.09770	0.17668
0.22521	-0.10391
1.09226	-0.07840
0.96476	0.12566
0.22521	0.15117
-0.79486	0.61031
-0.33583	1.88570
0.19971	0.20219
0.22521	-0.56305
0.04670	1.60511
0.76074	-1.30277
0.14870	-2.09351
0.30171	0.30422
0.73524	0.66132
0.73524	0.63582
0.12320	0.35523
-0.28482	0.68683
-0.59084	0.96742
-0.36133	0.91640
-0.31033	-0.07840
0.14870	-0.46102
0.58223	-0.63957
0.48022	-0.05289
0.50573	-0.53754
0.73524	-0.74160
0.48022	0.40625
-0.23382	0.25320
-0.48884	0.89089
-2.01894	1.17148
-0.74385	-1.96597
0.93925	-0.51203
1.29628	1.32453
1.04126	1.68163
0.63323	0.96742
0.53123	0.50828
0.65874	-0.48652
0.17421	-0.20594
-0.13181	1.91120
-1.20288	0.48277
-1.15188	-2.32308
-0.48884	-1.35379
0.42922	0.30422
0.60773	0.45726
1.04126	0.20219
0.93925	0.61031
0.40372	0.81437
-0.20832	0.35523
-0.13181	0.35523
-0.18282	0.40625
-0.41233	0.32972
0.09770	-0.25695
0.53123	0.48277
0.37822	-0.79262
0.40372	-0.76711
0.37822	0.45726
-0.23382	0.38074
-0.48884	-0.18043
-0.53984	1.01843
-0.05531	1.29902
0.17421	-0.81812
0.58223	0.20219
0.83725	1.32453
0.63323	0.32972
0.60773	-1.04770
0.55673	-2.17003
-0.20832	-0.38449
-0.28482	1.57960
-0.46334	1.45206
-0.13181	0.50828
-0.23382	0.22769
-0.84586	-1.99148
1.19427	-1.09871
1.57679	0.61031
0.93925	0.22769
-0.28482	0.81437
-0.69285	0.78886
-0.28482	0.50828
0.48022	0.73785
-0.00431	0.68683
0.02119	0.15117
-0.28482	-0.46102
0.35272	-0.20594
0.73524	0.04914
0.78624	0.78886
0.37822	0.07465
-0.05531	-0.58856
-0.05531	-0.56305
-0.10631	1.60511
-0.46334	0.10015
-0.99887	-0.74160
-0.23382	-0.46102
0.65874	0.71234
0.73524	-0.97117
0.70974	0.27871
0.73524	0.86539
0.30171	0.25320
-0.18282	0.20219
-0.31033	0.04914
-0.59084	0.71234
-0.20832	0.22769
0.40372	-0.41000
0.55673	0.10015
0.76074	0.78886
0.37822	0.58480
0.40372	-0.97117
-0.02981	0.53379
0.42922	0.78886
-0.08081	-0.20594
-0.53984	0.27871
-1.25389	0.12566
-0.36133	-1.17523
1.34728	-0.58856
0.58223	0.76336
0.93925	0.35523
1.09226	-0.15492
0.37822	1.57960
-0.25932	0.63582
-0.59084	-0.18043
-0.79486	-0.94566
-0.46334	-0.43551
-0.23382	1.17148
0.63323	0.45726
0.91375	0.02363
0.63323	-0.18043
0.63323	0.12566
-0.25932	-0.46102
-0.20832	0.38074
-0.15732	-0.00188
-0.20832	0.30422
-0.23382	3.05905
0.19971	0.55929
0.73524	-3.70050
0.68424	-1.60887
0.48022	-0.07840
0.63323	1.04394
-0.00431	1.37554
-0.23382	1.27351
0.04670	-0.00188
-0.76936	0.63582
-0.61635	1.06945
0.55673	0.20219
0.65874	-0.07840
0.53123	-0.48652
0.12320	-0.38449
-0.10631	-0.12942
-0.46334	0.76336
0.37822	-0.18043
0.73524	-0.53754
-0.08081	0.20219
0.09770	0.66132
0.04670	0.45726
0.37822	-0.61406
0.32721	-1.25176
0.07220	0.78886
0.30171	0.99292
0.63323	0.66132
-0.25932	0.27871
-0.05531	0.45726
-0.36133	-0.43551
-0.02981	-0.30797
0.27621	0.89089
0.55673	0.43176
0.40372	0.15117
0.55673	-0.99668
0.32721	-0.18043
-0.13181	-0.38449
-0.20832	1.17148
-0.25932	1.19699
-0.36133	-0.00188
-0.08081	-0.79262
0.35272	-0.28246
0.53123	-0.07840
0.19971	1.12046
0.25071	-0.10391
0.81175	-0.69059
0.35272	0.58480
0.12320	0.73785
-0.18282	0.53379
-0.13181	0.43176
0.12320	0.15117
0.40372	-0.02739
0.19971	-0.05289
0.53123	-0.25695
0.12320	-0.18043
-0.84586	0.25320
-0.15732	0.43176
0.68424	0.38074
0.42922	0.76336
-0.10631	-0.74160
-0.02981	-0.46102
0.37822	0.30422
0.53123	-0.33348
0.30171	0.12566
0.37822	1.04394
0.22521	1.32453
-0.20832	0.12566
-0.13181	-0.86914
-0.20832	0.35523
-0.31033	0.66132
-0.20832	-0.46102
0.17421	-0.46102
0.25071	0.17668
0.42922	-0.35899
0.68424	0.61031
0.99026	0.22769
0.17421	0.89089
-0.10631	-0.15492
-0.38683	-0.41000
-0.38683	0.45726
-0.08081	0.27871
0.58223	-0.10391
0.12320	0.35523
0.27621	0.48277
0.42922	0.43176
0.37822	0.27871
0.68424	0.04914
0.07220	-0.25695
0.07220	0.04914
-0.13181	0.07465
-0.10631	0.40625
-0.25932	-0.00188
0.19971	-0.63957
0.73524	0.66132
0.32721	-0.43551
0.02119	-0.94566
-1.02437	1.88570
-0.41233	1.45206
0.27621	0.27871
0.40372	0.10015
0.32721	-0.33348
0.58223	-1.25176
0.76074	0.40625
0.58223	-0.18043
0.04670	-0.56305
-0.13181	-0.56305
0.17421	1.01843
0.07220	0.94191
0.04670	0.58480
-0.00431	0.78886
-0.38683	1.47757
0.22521	-1.60887
0.45472	-2.14453
0.22521	0.32972
0.42922	0.71234
-0.33583	0.58480
0.40372	-0.05289
0.32721	0.61031
0.22521	1.27351
-0.10631	1.04394
-0.79486	0.10015
-0.13181	-0.46102
1.11776	-0.58856
1.06676	-0.41000
1.06676	0.07465
0.53123	-0.15492
-0.41233	-1.09871
-0.18282	-0.81812
-0.18282	1.27351
-0.56534	1.78367
-0.43783	0.76336
-0.02981	-0.05289
0.30171	-0.66508
0.50573	0.04914
0.91375	0.07465
0.73524	0.96742
0.27621	1.17148
-0.28482	-1.12422
-0.46334	-0.99668
-0.59084	-0.71609
-0.18282	1.32453
0.30171	2.26831
0.76074	0.63582
0.73524	-1.37929
0.73524	-0.94566
0.30171	-0.20594
-0.08081	0.32972
-0.13181	-0.05289
0.09770	0.12566
-0.66735	0.81437
-0.33583	0.15117
-0.05531	-0.25695
-0.43783	0.63582
0.50573	0.78886
1.09226	-0.41000
0.93925	-0.30797
0.53123	0.25320
0.04670	0.58480
-0.33583	-0.00188
-0.76936	-0.41000
-0.38683	0.48277
0.50573	0.66132
0.40372	-0.35899
0.48022	0.04914
0.07220	-0.05289
0.35272	-0.48652
0.17421	0.94191
-0.08081	0.32972
-0.00431	-0.35899
-0.31033	-0.20594
-0.13181	0.63582
-0.20832	0.78886
0.37822	-0.76711
0.68424	-0.28246
0.45472	0.17668
0.81175	0.17668
0.58223	0.22769
-0.08081	0.89089
-0.28482	0.27871
-0.82036	0.66132
-0.31033	-0.15492
0.14870	-0.66508
0.25071	-0.69059
0.48022	0.22769
0.83725	0.43176
0.25071	0.53379
-0.02981	0.25320
-0.64185	0.30422
-0.13181	0.73785
0.30171	0.99292
0.12320	-0.02739
0.55673	-0.46102
0.40372	-0.58856
0.45472	0.35523
0.25071	0.30422
0.02119	0.02363
0.12320	-0.48652
-0.08081	0.58480
-0.20832	-0.23145
-0.69285	0.17668
-0.36133	0.40625
0.37822	1.17148
0.60773	0.17668
1.01576	0.35523
0.63323	-0.00188
0.53123	0.40625
0.02119	-0.58856
-0.31033	-0.79262
-0.15732	-0.41000
-0.18282	0.27871
-0.31033	0.32972
0.02119	-0.20594
0.30171	0.27871
0.58223	0.15117
0.70974	0.58480
0.73524	0.38074
0.30171	0.15117
-0.28482	0.68683
-0.13181	0.66132
-1.02437	0.66132
-0.15732	0.07465
0.19971	-0.02739
0.55673	0.22769
0.76074	-0.71609
0.48022	-1.68539
0.22521	0.30422
0.07220	1.27351
0.48022	0.27871
0.25071	-0.20594
-0.05531	0.66132
-0.13181	0.17668
-0.46334	0.20219
0.12320	-0.41000
0.37822	-0.38449
0.48022	0.02363
0.48022	0.45726
0.02119	-0.05289
-0.31033	-0.84363
-0.18282	-0.18043
-0.13181	1.52859
-0.25932	1.57960
0.22521	0.63582
0.48022	-0.76711
0.02119	-0.81812
0.60773	-0.56305
0.68424	0.68683
0.40372	0.58480
0.14870	0.35523
-0.08081	-0.58856
0.02119	0.40625
-0.02981	0.45726
0.02119	-0.48652
0.30171	-0.15492
0.30171	0.38074
0.81175	-0.07840
0.14870	-0.15492
-0.13181	0.22769
-0.02981	0.55929
-0.10631	0.58480
-0.41233	0.76336
-0.00431	0.32972
0.63323	0.12566
0.70974	0.40625
0.53123	-0.66508
-0.00431	-0.97117
0.19971	0.32972
-0.23382	0.50828
0.02119	0.66132
-0.20832	0.17668
-0.20832	0.17668
-0.28482	0.61031
0.09770	-0.97117
0.73524	-1.02219
0.60773	1.57960
0.42922	-0.05289
0.65874	0.55929
0.22521	0.58480
-0.20832	-0.51203
-0.71835	-0.92016
-0.56534	0.07465
0.09770	1.09496
0.42922	1.35003
0.76074	-0.46102
0.48022	-1.04770
0.37822	-0.12942
0.78624	0.78886
0.27621	0.10015
0.04670	0.27871
-1.15188	-0.00188
-1.22839	0.68683
-0.56534	0.91640
0.50573	0.45726
1.04126	0.38074
0.81175	-0.41000
0.73524	-0.79262
0.88825	0.10015
0.40372	0.48277
-0.02981	0.35523
-0.28482	-0.33348
-0.25932	-0.05289
-0.51434	-1.32828
-0.94787	0.73785
-0.13181	3.08456
0.42922	1.19699
0.81175	-0.69059
0.76074	-1.32828
0.45472	-0.61406
0.12320	0.22769
-0.10631	-1.07320
-0.15732	-0.41000
-0.53984	1.68163
0.02119	1.47757
0.48022	0.07465
0.58223	-0.12942
0.25071	-0.05289
0.91375	0.15117
0.65874	-0.35899
-0.13181	0.27871
-0.08081	0.58480
-0.38683	0.04914
-0.79486	-0.28246
-0.48884	0.48277
-0.10631	-0.00188
1.62780	-0.18043
0.99026	0.38074
-0.20832	0.55929
-0.20832	0.40625
-0.41233	0.38074
0.27621	-0.15492
0.17421	-0.92016
0.35272	0.91640
0.37822	0.45726
0.12320	1.09496
0.17421	-0.20594
0.99026	-0.38449
0.45472	-0.71609
-0.00431	-0.53754
-0.36133	-0.35899
-0.46334	0.89089
-0.46334	2.06425
-0.61635	-0.15492
0.07220	-0.48652
0.55673	-0.15492
0.63323	-0.92016
0.68424	-1.07320
0.86275	0.53379
0.25071	0.71234
-0.02981	1.12046
-0.08081	0.86539
-0.28482	-0.89465
-0.59084	0.07465
-0.02981	1.12046
0.58223	0.76336
1.14327	1.01843
0.53123	0.35523
0.22521	-0.76711
-0.51434	-1.32828
-0.53984	-0.12942
-0.13181	0.71234
0.30171	0.43176
-0.18282	0.20219
0.73524	-0.61406
1.16877	-0.35899
0.73524	0.27871
0.40372	0.25320
-0.08081	-0.15492
-0.61635	0.22769
-0.41233	0.81437
-0.18282	0.71234
-0.10631	0.99292
-0.02981	-0.00188
0.22521	-0.81812
0.63323	-1.17523
0.60773	-0.33348
0.22521	1.37554
0.53123	1.17148
0.12320	0.10015
-0.08081	-0.46102
-0.23382	0.61031
-0.28482	-1.07320
-0.20832	-0.33348
0.04670	-0.46102
0.65874	1.22250
0.55673	0.27871
0.42922	0.17668
-0.02981	0.61031
0.09770	0.48277
0.02119	-0.23145
0.02119	0.35523
0.07220	-0.28246
-0.13181	-0.84363
0.04670	0.10015
0.27621	-0.41000
0.55673	-0.10391
0.76074	0.50828
0.58223	0.50828
-0.10631	0.66132
-0.13181	0.61031
-0.38683	0.83988
-0.18282	0.30422
-0.28482	-0.25695
0.14870	-0.07840
0.60773	-0.48652
0.60773	0.40625
0.50573	0.25320
0.73524	0.30422
-0.13181	0.25320
-0.48884	-0.76711
-0.64185	-0.25695
0.22521	1.55410
-0.13181	0.32972
0.35272	-0.00188
0.70974	-0.86914
0.78624	0.10015
0.73524	0.25320
0.70974	0.22769
-0.02981	-0.53754
-0.33583	0.27871
-0.82036	0.78886
-0.28482	-0.38449
-0.18282	-0.20594
0.02119	0.63582
0.37822	0.58480
0.88825	0.30422
0.60773	0.27871
-0.00431	0.20219
-0.10631	1.57960
-0.28482	0.45726
0.04670	-1.68539
-0.18282	-0.81812
-0.23382	0.81437
0.12320	0.58480
0.65874	0.10015
0.83725	0.04914
0.63323	0.07465
0.65874	-0.33348
0.19971	-0.23145
-0.15732	0.99292
-0.53984	0.96742
-0.53984	0.63582
-0.84586	-0.84363
0.02119	0.61031
0.37822	-0.38449
0.88825	-0.69059
0.78624	-0.30797
0.78624	-0.18043
0.32721	0.53379
0.14870	0.48277
-0.64185	-0.10391
-0.53984	0.96742
-0.59084	0.55929
0.35272	-0.41000
0.65874	-0.56305
0.88825	0.15117
0.73524	0.63582
0.76074	0.58480
-0.18282	0.32972
-0.56534	0.40625
-0.41233	0.40625
0.19971	0.22769
-0.18282	0.10015
0.40372	-0.12942
0.55673	-1.12422
0.30171	0.17668
0.17421	0.27871
0.58223	0.15117
0.58223	0.02363
-0.48884	0.73785
-0.33583	-0.15492
-0.10631	0.12566
-0.23382	1.24800
0.07220	-0.43551
0.48022	-1.07320
0.48022	1.27351
0.35272	0.38074
0.45472	-1.53234
0.19971	0.17668
-0.13181	0.76336
-0.20832	0.32972
-0.28482	-0.23145
-0.33583	0.40625
-0.00431	1.17148
0.37822	-0.12942
0.81175	0.27871
0.73524	0.15117
0.70974	-0.92016
0.30171	-0.94566
0.25071	0.61031
0.02119	0.89089
-0.99887	1.35003
-0.94787	0.35523
-0.31033	-0.25695
0.50573	0.02363
0.91375	-0.35899
-0.15732	-0.46102
0.65874	0.02363
1.06676	0.30422
0.22521	0.32972
0.32721	0.17668
0.40372	0.32972
-0.66735	0.12566
-0.23382	0.55929
-0.31033	0.04914
0.30171	0.15117
0.50573	0.38074
0.48022	0.50828
-0.15732	-0.18043
-0.38683	0.20219
-0.08081	-0.41000
-0.05531	-1.17523
-0.10631	0.83988
0.32721	1.27351
0.63323	0.96742
0.32721	-0.92016
0.50573	-2.04250
0.50573	-0.61406
0.42922	0.89089
-0.20832	1.29902
-0.28482	1.57960
0.09770	1.60511
0.14870	-0.35899
0.19971	-1.86394
0.12320	-0.79262
-0.28482	0.63582
0.60773	1.06945
0.73524	0.27871
0.73524	-0.28246
0.32721	-0.00188
-1.07538	0.12566
-0.82036	0.12566
-0.59084	0.22769
0.50573	0.25320
0.53123	-0.00188
-0.00431	0.07465
0.88825	0.17668
0.86275	0.40625
0.73524	0.32972
0.25071	0.22769
-0.33583	0.04914
-0.38683	0.76336
-0.41233	0.25320
0.02119	-1.09871
0.22521	-0.35899
0.45472	0.25320
0.27621	1.09496
0.40372	0.86539
0.22521	-0.00188
-0.10631	-1.14973
-0.02981	0.27871
-0.20832	1.09496
-0.51434	-0.41000
-0.00431	0.15117
0.68424	0.48277
0.73524	-0.38449
0.70974	0.30422
0.53123	0.91640
-0.23382	-0.02739
-0.13181	-0.43551
-0.08081	-0.28246
-0.10631	0.53379
-0.10631	0.43176
0.09770	0.04914
0.35272	-0.02739
0.65874	-0.56305
0.58223	0.12566
0.68424	1.29902
-0.00431	0.66132
-0.48884	-0.69059
-0.92237	0.04914
0.02119	1.47757
-0.15732	0.20219
-0.25932	-0.81812
0.81175	-0.10391
1.06676	0.43176
0.55673	0.12566
0.68424	0.15117
0.19971	-0.18043
-0.02981	0.07465
-0.08081	0.78886
-0.31033	0.66132
-0.51434	-0.35899
-0.02981	0.58480
0.30171	0.89089
0.40372	-0.28246
0.48022	-1.48133
0.60773	-1.20074
-0.00431	0.40625
-0.41233	0.61031
-0.15732	0.76336
-0.20832	-0.28246
-0.25932	-0.15492
0.35272	0.45726
0.68424	0.50828
0.70974	0.25320
0.78624	0.48277
0.83725	0.04914
0.32721	0.04914
-0.64185	1.57960
-1.07538	1.19699
-0.48884	-0.86914
0.02119	-0.92016
0.32721	0.17668
0.81175	-0.18043
0.88825	0.40625
0.70974	0.68683
0.30171	0.20219
0.17421	0.12566
-0.02981	0.12566
-0.25932	-0.28246
-0.46334	0.02363
-0.71835	0.55929
0.04670	0.17668
-0.25932	-0.20594
0.63323	-0.25695
0.91375	-0.35899
0.83725	1.09496
0.93925	-0.33348
-0.38683	-0.41000
-0.28482	0.63582
-0.00431	0.96742
-0.20832	1.65613
-0.10631	-0.81812
0.40372	-1.12422
0.58223	-0.00188
0.32721	0.02363
0.60773	0.35523
0.12320	0.50828
-0.02981	-0.00188
-0.15732	0.45726
-0.36133	0.48277
-0.43783	-0.02739
0.02119	0.32972
0.45472	0.76336
0.48022	0.12566
0.37822	-0.00188
0.60773	0.02363
0.19971	-1.32828
-0.02981	0.15117
-0.13181	0.71234
-0.33583	0.76336
-0.69285	0.04914
0.22521	-0.74160
0.91375	-0.05289
1.29628	0.22769
0.78624	-0.41000
-0.33583	0.07465
-1.02437	0.50828
0.09770	0.27871
0.40372	0.22769
0.02119	0.53379
-0.10631	0.96742
0.35272	0.17668
0.58223	-0.46102
0.50573	-1.07320
0.53123	0.81437
0.58223	1.04394
-0.08081	0.43176
-0.41233	0.30422
-0.56534	0.32972
-0.46334	-0.97117
-0.28482	-0.41000
0.14870	-0.07840
0.53123	-0.25695
0.78624	-0.12942
0.63323	0.07465
0.30171	-0.10391
0.22521	0.96742
-0.28482	0.63582
-0.20832	0.15117
0.09770	-0.00188
-0.18282	0.20219
-0.18282	0.40625
0.68424	0.17668
1.16877	0.61031
0.19971	-0.48652
0.50573	0.38074
0.07220	0.35523
-0.51434	-0.05289
-0.13181	0.43176
0.07220	0.02363
-0.28482	-0.33348
-0.00431	-0.15492
-0.69285	0.22769
0.25071	-0.07840
1.21977	0.04914
0.76074	0.53379
0.58223	0.27871
0.48022	0.20219
0.04670	-0.10391
-0.23382	1.24800
-0.48884	0.53379
-0.10631	0.50828
0.14870	-0.48652
0.27621	-0.74160
0.40372	-0.23145
0.50573	0.96742
0.12320	0.73785
-0.43783	1.91120
-0.18282	-1.17523
-0.18282	-1.96597
-0.20832	0.45726
0.27621	0.53379
0.53123	-0.07840
0.48022	0.43176
0.32721	0.20219
0.63323	0.45726
0.42922	0.55929
-0.15732	0.43176
-0.08081	0.10015
-0.00431	0.25320
-0.33583	0.94191
-0.48884	-0.05289
-0.15732	-0.71609
0.50573	-0.46102
0.93925	0.32972
0.99026	0.43176
0.78624	0.45726
0.02119	0.45726
-0.43783	0.43176
-0.82036	-0.07840
-0.71835	0.10015
0.53123	0.10015
0.48022	-0.12942
0.48022	-0.84363
0.42922	0.43176
0.93925	0.43176
0.42922	0.30422
-0.10631	-0.05289
-0.71835	-0.35899
-0.38683	1.01843
-0.05531	1.06945
0.14870	-1.25176
0.50573	-0.84363
0.45472	0.55929
0.40372	-0.18043
0.55673	0.22769
0.17421	0.55929
-0.18282	1.68163
-0.18282	0.83988
-0.25932	-0.41000
-0.33583	-0.33348
-0.08081	-0.43551
0.53123	-0.23145
0.27621	0.02363
0.50573	0.04914
0.65874	0.25320
0.30171	0.53379
0.37822	0.07465
-0.28482	-0.35899
-0.33583	0.38074
-0.13181	0.02363
0.19971	0.53379
0.32721	0.43176
0.42922	0.10015
0.53123	-0.20594
0.55673	0.02363
0.12320	0.30422
-0.28482	-0.35899
-0.46334	-0.18043
-0.31033	0.50828
-0.23382	0.96742
0.07220	0.94191
0.40372	-0.58856
0.60773	-0.23145
0.65874	0.45726
0.68424	-0.94566
0.32721	-0.05289
-0.05531	0.22769
-0.25932	-0.41000
-0.61635	0.32972
-0.48884	1.22250
0.02119	-0.10391
0.50573	0.35523
0.83725	0.27871
0.96476	0.15117
0.68424	0.25320
-0.18282	0.12566
-0.84586	0.02363
-0.43783	0.22769
0.12320	0.71234
0.40372	0.25320
0.70974	0.07465
0.53123	-0.07840
-0.13181	-0.63957
-0.56534	-0.12942
0.32721	-0.07840
0.86275	0.53379
0.32721	0.63582
-0.20832	-0.28246
0.17421	0.35523
0.02119	0.99292
0.17421	0.20219
0.22521	0.20219
0.42922	-0.30797
0.40372	-0.92016
0.40372	-0.02739
-0.00431	0.96742
-0.28482	-0.76711
-0.41233	1.37554
-0.33583	0.73785
-0.25932	-0.66508
0.04670	-0.18043
0.45472	0.86539
0.70974	-0.35899
0.63323	-0.89465
0.70974	-0.41000
0.22521	0.22769
-0.00431	0.81437
-0.08081	0.40625
-0.25932	0.35523
-0.71835	1.40105
-0.36133	0.10015
0.68424	-0.43551
0.76074	-0.86914
0.70974	-0.23145
0.40372	0.04914
0.09770	0.91640
0.02119	0.76336
-0.00431	0.86539
-0.10631	0.38074
0.22521	0.40625
0.12320	0.12566
-0.66735	0.07465
-0.51434	-0.61406
-0.23382	-0.71609
1.32178	0.25320
0.93925	0.48277
0.42922	0.25320
0.17421	-0.56305
-0.18282	-0.81812
-0.74385	1.29902
-0.36133	1.01843
0.53123	-0.28246
0.63323	-0.92016
0.37822	0.66132
0.53123	0.55929
0.17421	0.22769
-0.20832	-0.38449
-0.18282	0.71234
-0.23382	0.45726
-0.33583	0.22769
0.17421	-0.15492
0.60773	-0.38449
0.58223	0.27871
0.22521	0.50828
0.02119	0.07465
0.25071	0.32972
0.42922	-0.30797
-0.10631	0.15117
-0.79486	0.15117
-0.23382	0.55929
0.09770	0.78886
0.68424	-0.15492
1.44929	-0.12942
1.04126	-0.20594
-0.10631	0.02363
-0.18282	0.27871
-0.13181	0.43176
-0.15732	0.66132
-0.00431	0.55929
-0.13181	-0.02739
-0.10631	-0.07840
0.04670	0.02363
0.02119	-0.56305
0.40372	-0.07840
0.63323	-0.25695
0.22521	-0.97117
0.07220	-0.05289
-0.00431	1.24800
-0.20832	0.27871
-0.84586	1.12046
0.02119	1.55410
0.55673	-0.81812
0.83725	-1.60887
0.68424	0.63582
0.99026	1.14597
0.53123	0.63582
-0.08081	0.38074
-0.18282	-0.05289
-0.33583	-0.10391
-0.53984	-0.33348
-0.51434	-0.20594
0.40372	-0.28246
0.88825	-0.20594
0.65874	0.48277
0.60773	0.15117
-0.59084	0.20219
0.19971	0.55929
-0.20832	0.38074
-0.23382	0.35523
-0.56534	0.43176
-0.08081	0.43176
0.55673	-0.12942
0.68424	-0.18043
0.53123	-0.15492
0.63323	0.07465
0.83725	-0.58856
-0.43783	0.71234
-0.51434	1.12046
-0.20832	0.15117
-0.28482	-0.41000
-0.05531	-0.51203
0.37822	0.78886
0.50573	0.15117
0.53123	-1.17523
0.60773	-0.86914
0.35272	0.71234
-0.20832	1.73265
-0.25932	1.19699
-0.28482	-0.18043
-0.38683	-0.05289
-0.08081	0.17668
0.32721	-1.63437
0.73524	0.30422
0.73524	1.24800
0.88825	0.76336
0.35272	-0.15492
-0.05531	-0.69059
-0.20832	0.50828
-0.36133	0.12566
-0.18282	-0.25695
0.04670	-0.15492
-0.18282	-0.28246
-0.94787	0.58480
-0.02981	1.14597
1.29628	0.89089
1.04126	-0.07840
0.63323	-0.43551
0.22521	0.22769
-0.10631	0.07465
-0.43783	0.22769
0.07220	0.15117
-0.05531	-0.35899
0.53123	0.04914
0.37822	0.10015
0.58223	0.02363
0.09770	0.45726
-0.33583	0.76336
-0.38683	-0.43551
-0.18282	-0.81812
-0.41233	1.35003
-0.08081	0.78886
0.48022	-0.56305
0.50573	-0.38449
0.58223	-0.18043
0.78624	-0.28246
0.50573	0.61031
-0.02981	-0.18043
-0.28482	-0.46102
-0.13181	0.32972
0.07220	0.86539
0.19971	0.55929
0.25071	0.12566
0.14870	0.12566
0.30171	0.22769
0.86275	0.10015
0.25071	-0.00188
0.12320	0.07465
-0.05531	0.25320
0.17421	0.32972
-0.31033	0.53379
-0.53984	-0.35899
-0.43783	-0.43551
0.68424	0.20219
1.04126	0.20219
0.76074	0.27871
0.40372	0.35523
-0.15732	0.15117
-0.43783	-0.07840
0.22521	0.40625
-0.10631	0.07465
0.40372	0.94191
0.37822	0.35523
0.37822	-1.99148
0.35272	0.73785
0.45472	0.66132
-0.08081	0.48277
-0.33583	-0.00188
-0.28482	0.25320
-0.20832	-0.15492
-0.31033	0.38074
-0.02981	0.71234
0.58223	0.50828
0.65874	-0.51203
0.48022	-0.81812
0.55673	-1.45582
0.42922	0.12566
0.09770	1.19699
-0.08081	1.22250
-0.15732	0.89089
-0.76936	0.53379
-0.28482	-0.05289
0.68424	0.02363
0.73524	0.17668
0.14870	0.17668
0.53123	-0.07840
0.73524	-0.20594
0.14870	-0.20594
-0.13181	0.07465
-0.43783	0.40625
-0.08081	0.12566
0.19971	0.12566
0.27621	-0.10391
-0.28482	-0.02739
0.53123	-0.07840
0.70974	0.22769
0.42922	0.86539
-0.15732	0.96742
-0.51434	0.99292
-0.56534	-0.25695
-0.43783	0.27871
0.04670	-0.05289
0.63323	-1.99148
0.78624	-0.74160
0.58223	1.06945
0.48022	0.48277
0.19971	0.12566
-0.08081	0.38074
-0.28482	0.68683
-0.23382	0.30422
-0.25932	0.15117
0.09770	-0.05289
0.53123	-0.10391
0.58223	0.07465
0.14870	-0.02739
0.68424	0.27871
0.25071	-0.02739
-0.36133	0.04914
-0.51434	1.17148
-0.08081	-0.38449
0.09770	-1.07320
0.30171	0.45726
0.09770	0.20219
0.93925	-0.69059
0.76074	0.27871
0.35272	1.22250
-0.79486	0.53379
-0.69285	0.73785
0.25071	0.27871
0.50573	0.15117
-0.00431	0.10015
0.02119	-0.35899
0.30171	-0.43551
0.50573	-0.46102
0.42922	-0.41000
0.48022	0.35523
0.12320	-0.28246
-0.33583	1.29902
-0.61635	1.35003
-0.28482	1.01843
-0.20832	-0.56305
0.27621	-1.22625
0.42922	-0.94566
0.42922	0.45726
0.25071	0.96742
0.96476	0.73785
0.53123	0.71234
-0.00431	-0.86914
-0.25932	-0.63957
-0.28482	0.40625
-0.38683	0.73785
-0.13181	-0.10391
0.27621	-0.35899
0.93925	-0.05289
1.19427	0.12566
0.60773	0.38074
-0.59084	0.43176
-0.53984	0.30422
0.50573	0.12566
0.07220	0.15117
-0.38683	0.27871
-0.38683	0.17668
0.19971	-0.10391
0.53123	-0.23145
0.78624	-0.18043
0.91375	0.27871
0.40372	-0.20594
-0.51434	0.55929
-0.38683	0.86539
-0.10631	0.22769
-0.33583	-0.05289
-0.18282	0.22769
0.32721	-0.18043
0.68424	-0.76711
0.50573	1.06945
0.53123	0.12566
0.35272	-0.25695
-0.13181	-0.20594
-0.15732	-0.07840
-0.10631	-0.07840
-0.28482	0.50828
-0.02981	2.01323
0.45472	1.37554
0.55673	0.55929
0.42922	-1.96597
0.83725	-2.11902
0.35272	-0.25695
-0.33583	0.76336
-0.66735	0.76336
-0.23382	0.58480
-0.18282	0.50828
-0.33583	0.53379
0.27621	0.07465
0.58223	0.30422
0.91375	-0.10391
0.76074	-0.25695
0.53123	0.40625
-0.23382	0.07465
-0.28482	0.35523
0.12320	0.30422
-0.38683	0.22769
0.30171	-0.00188
0.53123	-0.25695
0.48022	-0.07840
0.32721	0.12566
0.40372	0.17668
0.07220	0.32972
-0.18282	-0.38449
-0.71835	0.32972
-0.53984	0.78886
-0.28482	1.27351
0.17421	-0.25695
0.50573	-0.84363
0.65874	0.35523
0.58223	0.43176
0.83725	0.04914
0.40372	-0.25695
-0.10631	-0.46102
-0.20832	0.78886
-0.18282	0.55929
-0.10631	-0.12942
0.07220	0.12566
0.42922	0.04914
0.12320	0.81437
0.12320	0.27871
0.50573	-0.61406
0.55673	-0.35899
0.25071	0.89089
-0.10631	-0.28246
-0.61635	-0.63957
-0.59084	0.76336
0.02119	0.55929
0.35272	0.43176
1.04126	0.20219
0.65874	-0.15492
0.70974	-0.33348
0.60773	0.50828
-0.08081	0.43176
-0.64185	0.12566
-0.36133	0.02363
-0.13181	0.27871
0.12320	-0.76711
0.27621	-0.23145
0.55673	0.30422
0.40372	0.48277
0.55673	-0.48652
0.37822	0.66132
-0.02981	1.27351
-0.56534	-0.05289
-0.33583	-0.94566
-0.48884	-0.53754
0.17421	0.22769
0.53123	0.38074
0.76074	0.99292
0.53123	-0.48652
0.86275	-0.41000
0.30171	0.81437
-0.05531	0.78886
0.04670	0.43176
-0.31033	-0.15492
-0.66735	0.38074
-0.00431	-0.00188
-0.15732	-0.25695
0.27621	-0.02739
0.65874	0.04914
0.68424	-0.25695
0.50573	0.40625
0.30171	0.45726
0.02119	0.32972
-0.15732	0.30422
-0.53984	0.32972
-0.33583	-0.10391
-0.18282	0.86539
0.35272	0.25320
0.86275	-0.61406
0.99026	-1.07320
0.63323	0.15117
0.12320	0.17668
-0.02981	-0.05289
-0.13181	1.19699
-0.46334	1.06945
-0.13181	0.58480
0.25071	-0.38449
0.58223	-0.61406
0.40372	-0.05289
0.53123	-0.48652
-0.00431	1.27351
-0.38683	0.25320
-0.20832	-0.71609
-0.08081	-0.23145
-0.25932	0.32972
0.12320	0.32972
0.63323	0.35523
0.81175	-0.15492
0.68424	-0.00188
0.32721	-0.15492
-0.25932	0.40625
-0.41233	0.48277
-0.00431	0.86539
0.19971	-0.53754
-0.05531	-0.02739
0.17421	0.12566
-0.18282	0.40625
0.14870	0.20219
0.78624	0.32972
0.86275	-0.35899
0.45472	0.02363
-0.20832	0.20219
0.02119	0.17668
-0.28482	-0.18043
-0.64185	0.50828
-0.08081	0.10015
0.53123	0.10015
0.73524	-0.10391
0.40372	0.81437
0.55673	0.48277
0.04670	-0.05289
-0.51434	-0.58856
-0.33583	-0.35899
-0.08081	-0.58856
-0.08081	0.45726
0.25071	2.01323
0.42922	-0.12942
0.63323	0.10015
0.60773	-0.41000
0.76074	1.09496
0.12320	0.25320
-0.33583	-0.97117
-0.48884	-0.46102
0.02119	0.32972
-0.13181	0.58480
-0.05531	0.12566
0.32721	0.25320
0.42922	0.45726
0.63323	0.25320
0.86275	-0.33348
0.42922	-0.20594
-0.10631	0.38074
-0.13181	0.38074
-0.18282	0.27871
-1.04987	0.32972
-0.61635	0.02363
-0.13181	0.04914
0.60773	-0.23145
1.14327	0.12566
1.21977	-0.28246
0.65874	0.30422
0.14870	0.81437
-0.25932	0.40625
-0.71835	-0.35899
-0.76936	0.25320
0.02119	0.15117
0.50573	0.15117
0.73524	-0.35899
0.60773	-0.84363
0.45472	0.32972
-0.02981	0.50828
-0.13181	1.37554
-0.31033	1.55410
-0.10631	0.83988
-0.18282	-0.86914
0.12320	-1.40480
0.50573	-0.97117
0.68424	-0.35899
0.50573	-0.05289
0.22521	0.55929
-0.13181	0.96742
-0.05531	0.89089
-0.10631	0.66132
-0.08081	0.43176
-0.25932	0.22769
0.02119	0.32972
0.48022	0.12566
0.81175	-0.56305
0.73524	-0.84363
0.70974	0.53379
0.22521	0.50828
-0.28482	-0.00188
-0.31033	-0.48652
-0.38683	0.40625
-0.41233	0.38074
-0.38683	0.10015
-0.36133	0.32972
0.91375	0.32972
1.34728	-0.41000
1.09226	-0.15492
0.04670	-0.18043
-0.74385	1.47757
-0.69285	0.78886
0.02119	0.35523
-0.00431	-0.51203
0.37822	0.04914
0.63323	0.66132
0.53123	-0.84363
0.37822	-1.63437
0.22521	1.06945
-0.00431	1.50308
-0.18282	0.07465
-0.18282	-0.56305
-0.18282	-0.33348
-0.33583	-0.63957
-0.13181	1.27351
0.37822	0.91640
0.58223	0.63582
0.68424	-0.30797
0.60773	-0.07840
0.04670	-0.81812
-0.25932	-0.81812
0.09770	0.38074
-0.05531	0.50828
-0.43783	1.12046
0.07220	0.32972
0.12320	-0.10391
0.73524	0.15117
0.78624	-0.28246
0.63323	-0.10391
0.63323	0.61031
-0.28482	0.89089
-0.64185	-0.15492
-0.08081	-0.05289
-0.02981	0.81437
0.37822	0.15117
0.30171	-0.66508
0.07220	-0.30797
0.02119	0.04914
0.55673	0.25320
0.53123	0.02363
0.09770	-0.38449
-0.13181	0.38074
-0.23382	0.58480
-0.18282	0.30422
0.09770	1.01843
0.30171	-0.10391
0.37822	0.02363
0.45472	0.91640
0.73524	0.20219
0.22521	-1.25176
-0.10631	-0.79262
-0.38683	0.17668
-0.28482	0.43176
-0.28482	1.50308
0.22521	-0.69059
0.50573	-0.15492
0.42922	0.32972
0.37822	0.25320
0.58223	0.22769
0.19971	0.35523
-0.43783	0.63582
0.27621	0.35523
0.40372	-0.10391
0.17421	0.12566
-0.84586	0.17668
-0.41233	-0.05289
0.96476	0.04914
0.63323	0.25320
0.83725	-0.10391
0.45472	-0.33348
0.27621	0.25320
0.22521	1.12046
0.12320	0.30422
-0.36133	-0.23145
-0.15732	-0.20594
0.02119	0.02363
0.42922	0.30422
0.42922	-0.33348
0.45472	-0.56305
0.07220	2.03874
-0.18282	0.61031
-0.20832	-0.48652
-0.23382	0.48277
-0.36133	0.96742
-0.02981	-1.17523
0.48022	-0.81812
0.60773	0.45726
0.58223	1.01843
0.68424	-0.66508
0.42922	-2.29757
0.17421	-0.46102
-0.18282	1.42656
-0.48884	1.04394
-0.71835	1.14597
-0.02981	0.76336
0.68424	0.10015
0.78624	0.22769
0.86275	0.20219
0.91375	0.02363
0.14870	-0.12942
-0.82036	-0.05289
-0.99887	0.12566
-0.15732	0.07465
-0.51434	0.35523
0.35272	-0.41000
1.09226	0.15117
1.19427	0.04914
0.88825	0.17668
0.60773	-0.25695
-0.18282	0.27871
-0.02981	0.48277
-0.13181	0.55929
-0.25932	0.04914
-0.36133	0.45726
-0.18282	0.12566
0.09770	-0.76711
0.32721	-0.79262
0.32721	0.89089
0.58223	1.45206
0.27621	-0.05289
-0.08081	0.17668
-0.23382	-0.02739
-0.36133	0.15117
-0.25932	0.40625
0.09770	0.38074
0.35272	0.02363
0.65874	-1.48133
0.65874	-0.48652
0.78624	0.07465
0.50573	0.27871
-0.08081	0.83988
-0.51434	0.68683
-0.69285	0.55929
-0.97337	0.25320
-0.25932	-0.43551
0.83725	0.53379
0.63323	0.43176
0.86275	-0.05289
1.14327	-0.43551
0.68424	0.10015
-0.38683	0.61031
-1.30489	0.20219
-0.61635	0.20219
-0.48884	0.50828
0.58223	0.10015
0.81175	-0.30797
0.86275	-0.53754
0.65874	-0.10391
0.68424	-0.02739
0.12320	-0.18043
-0.13181	0.83988
-0.31033	1.35003
-0.36133	0.61031
-0.51434	0.30422
-0.13181	-0.35899
0.30171	-0.63957
0.58223	-0.18043
0.48022	0.38074
0.55673	0.20219
0.30171	-0.63957
-0.05531	1.24800
-0.10631	1.24800
-0.08081	0.22769
-0.05531	-0.53754
-0.05531	-0.10391
0.22521	0.12566
0.17421	-0.07840
0.48022	-0.02739
0.32721	-0.10391
0.73524	-1.12422
0.04670	0.30422
-0.23382	1.68163
-0.20832	1.06945
-0.33583	-0.15492
0.25071	-0.94566
0.68424	0.45726
0.53123	0.53379
-0.23382	0.35523
0.60773	0.25320
0.60773	0.20219
-0.08081	0.27871
-0.69285	0.07465
-0.41233	-0.30797
-0.05531	0.20219
-0.05531	-0.25695
0.30171	-0.66508
0.42922	0.66132
0.32721	0.53379
0.58223	-0.02739
0.32721	-0.97117
-0.00431	1.35003
-0.18282	1.65613
-0.41233	1.01843
-0.23382	-1.22625
0.12320	-1.81293
0.53123	-0.25695
0.53123	0.43176
0.12320	0.48277
0.27621	0.22769
0.65874	0.15117
0.07220	1.70714
-0.13181	0.20219
-0.18282	-0.86914
-0.48884	0.35523
-0.23382	0.50828
0.07220	1.40105
1.06676	-0.00188
0.68424	-1.76191
0.78624	-0.99668
0.78624	0.12566
0.19971	0.81437
-0.38683	1.01843
-0.48884	1.14597
-0.48884	0.61031
-0.33583	-0.30797
0.30171	-1.14973
0.32721	0.22769
0.19971	0.43176
0.42922	-0.07840
0.40372	-0.00188
0.12320	0.32972
-0.02981	0.83988
-0.05531	-0.61406
-0.25932	-0.20594
0.14870	-0.05289
0.60773	-0.00188
0.55673	0.15117
0.17421	0.43176
0.37822	0.40625
0.27621	-1.14973
0.14870	1.45206
-0.13181	2.62542
-0.08081	0.66132
-0.08081	-0.07840
-0.00431	-0.41000
0.02119	-0.89465
-0.41233	-0.97117
0.30171	0.25320
0.70974	-0.71609
0.76074	-0.56305
0.42922	0.68683
0.37822	0.38074
0.17421	0.40625
-0.31033	1.12046
-0.79486	1.01843
-0.38683	0.50828
0.32721	0.02363
0.53123	-0.30797
0.93925	-0.25695
0.73524	-0.18043
0.30171	0.43176
-0.05531	0.61031
-0.28482	0.25320
-0.38683	-0.56305
-0.15732	-0.56305
0.19971	0.15117
0.53123	0.15117
0.48022	-0.20594
0.48022	0.61031
0.09770	1.12046
-0.08081	1.65613
-0.36133	0.22769
-0.23382	-0.38449
-0.28482	-1.04770
0.09770	-1.04770
0.48022	-0.48652
0.68424	0.76336
0.68424	1.09496
0.65874	0.48277
0.37822	0.63582
-0.08081	0.43176
-0.61635	-0.38449
-0.08081	-0.41000
-0.10631	0.55929
-0.18282	0.32972
0.32721	0.02363
0.07220	-0.00188
1.09226	-0.02739
1.55129	-0.15492
0.14870	0.35523
-0.61635	0.83988
-1.99343	-0.07840
-1.02437	-0.51203
0.58223	-0.46102
0.86275	0.45726
0.65874	1.01843
0.73524	0.61031
0.55673	-0.02739
0.70974	-0.43551
0.32721	0.10015
-0.18282	0.12566
-0.53984	0.63582
-0.43783	0.81437
-0.48884	-0.18043
-0.25932	0.61031
0.30171	-0.38449
0.53123	0.43176
0.48022	0.25320
0.60773	-1.50683
0.27621	-1.32828
-0.05531	-0.05289
-0.08081	0.91640
-0.05531	1.47757
-0.31033	0.81437
0.12320	0.73785
0.58223	0.04914
0.60773	-0.07840
0.58223	0.02363
0.22521	0.10015
-0.05531	-0.33348
-0.05531	-0.05289
-0.15732	0.17668
-0.10631	-0.02739
-0.28482	0.17668
0.04670	0.53379
0.22521	0.20219
0.88825	0.12566
0.58223	0.07465
-0.08081	0.25320
-0.18282	0.07465
0.14870	0.38074
0.12320	0.10015
0.22521	0.10015
-0.05531	0.38074
-0.13181	-0.15492
0.04670	-0.66508
0.27621	0.76336
0.45472	0.43176
0.58223	0.35523
0.17421	-0.30797
-0.13181	0.15117
-0.10631	-0.10391
-0.23382	-0.46102
-0.28482	-0.05289
-0.00431	0.63582
0.30171	0.40625
0.63323	0.35523
0.50573	-1.27726
0.81175	0.35523
0.27621	1.22250
0.04670	1.12046
-0.31033	0.02363
-0.28482	-0.48652
-0.53984	0.38074
-0.38683	-0.02739
0.50573	-0.20594
0.70974	0.15117
0.48022	0.07465
0.86275	0.12566
0.42922	0.25320
-0.13181	0.45726
-0.20832	0.27871
0.04670	0.02363
-0.23382	0.12566
-0.15732	0.15117
0.76074	0.07465
0.58223	0.02363
-0.08081	0.04914
0.30171	-0.00188
-0.74385	0.15117
-0.28482	0.66132
0.35272	0.07465
0.14870	-0.58856
0.07220	-0.10391
0.04670	-0.28246
0.42922	1.37554
0.55673	1.35003
0.37822	-0.05289
0.48022	-0.66508
0.12320	-0.30797
-0.18282	-0.35899
-0.05531	-0.07840
-0.13181	0.35523
-0.25932	0.68683
0.04670	0.04914
0.25071	-0.15492
0.70974	0.40625
0.35272	1.32453
0.58223	-0.28246
0.25071	-0.79262
-0.25932	0.07465
0.12320	0.55929
-0.13181	0.27871
-0.79486	0.55929
-0.10631	0.15117
0.30171	-0.18043
0.65874	0.27871
0.60773	0.25320
0.68424	-0.05289
0.53123	-0.02739
0.22521	0.32972
-0.20832	0.45726
-0.31033	-0.00188
-0.76936	0.07465
-0.05531	0.02363
0.37822	-0.10391
0.55673	0.17668
0.14870	0.61031
0.32721	-0.10391
0.42922	-1.43031
-0.02981	0.63582
-0.02981	1.37554
0.25071	0.50828
-0.10631	-0.23145
-0.23382	0.35523
-0.31033	0.02363
0.04670	-0.99668
0.60773	0.15117
1.01576	0.30422
0.70974	-0.00188
0.22521	0.66132
-0.23382	0.35523
-0.08081	-0.15492
-0.41233	0.40625
-0.28482	0.35523
0.17421	0.15117
0.42922	0.07465
0.42922	0.17668
0.48022	0.32972
0.30171	0.27871
-0.20832	0.04914
0.17421	0.22769
0.30171	0.02363
-0.59084	0.15117
-0.23382	0.04914
-0.10631	-0.07840
0.45472	-0.18043
0.96476	0.10015
0.88825	0.12566
0.53123	0.76336
-0.05531	0.32972
-0.13181	-0.25695
0.02119	-0.35899
-0.51434	0.30422
-0.13181	0.10015
0.37822	0.78886
0.12320	-0.00188
0.17421	1.52859
0.68424	0.10015
0.37822	-0.69059
0.12320	0.17668
-0.13181	0.55929
-0.23382	-0.69059
-0.20832	-0.07840
0.02119	0.35523
0.40372	-0.00188
0.70974	-0.38449
0.40372	-0.30797
0.32721	0.04914
0.02119	0.45726
-0.33583	1.12046
-0.41233	0.63582
0.32721	-0.07840
0.14870	0.15117
0.02119	0.32972
-0.08081	0.22769
0.19971	-0.07840
0.88825	-0.02739
1.14327	-0.61406
0.17421	0.58480
-0.08081	0.91640
-0.05531	0.20219
-0.02981	-0.12942
-0.31033	0.38074
-0.23382	-0.97117
0.50573	-0.33348
0.40372	-0.63957
0.12320	0.61031
-0.18282	0.53379
0.19971	0.43176
0.09770	0.55929
-0.15732	0.55929
0.14870	0.73785
-0.13181	0.17668
0.14870	-1.48133
0.35272	-0.56305
0.37822	0.53379
0.40372	0.71234
0.65874	0.35523
0.37822	0.15117
-0.13181	0.71234
-0.23382	1.01843
-0.20832	-0.56305
-0.51434	-0.71609
-0.08081	0.50828
0.22521	0.25320
0.35272	0.12566
0.73524	-0.18043
0.88825	-0.10391
0.68424	0.27871
-0.02981	0.38074
-0.66735	0.12566
-0.84586	0.76336
-0.15732	0.66132
0.45472	0.50828
0.35272	-0.53754
0.50573	-0.84363
0.55673	-0.15492
-0.00431	0.02363
0.50573	0.15117
0.07220	0.55929
-0.31033	0.81437
-0.05531	0.35523
-0.48884	0.25320
-0.38683	0.10015
0.48022	-0.12942
0.83725	-0.15492
0.65874	0.07465
0.81175	-0.18043
0.32721	0.83988
-0.08081	0.22769
-0.25932	-0.84363
-0.23382	-0.30797
-0.46334	0.17668
-0.23382	0.25320
0.27621	0.76336
0.53123	0.63582
0.32721	-0.28246
0.50573	0.45726
0.42922	0.81437
0.14870	0.50828
0.09770	-0.15492
-0.15732	-0.66508
-0.36133	-0.41000
-0.28482	-0.20594
0.27621	0.22769
0.68424	0.35523
0.76074	0.55929
0.70974	0.35523
0.25071	-0.07840
-0.31033	-0.02739
-0.51434	0.07465
-0.10631	-0.02739
0.02119	0.68683
0.32721	0.78886
0.42922	-0.46102
0.04670	-0.10391
-0.05531	0.43176
0.53123	0.17668
0.68424	0.27871
0.02119	-0.02739
0.09770	0.12566
0.07220	0.04914
-0.46334	0.63582
-0.18282	0.10015
-0.00431	-0.35899
0.40372	0.35523
0.58223	0.45726
0.78624	-0.33348
0.48022	-0.66508
-0.08081	0.55929
-0.38683	0.66132
-0.56534	0.94191
-0.61635	0.04914
0.02119	-0.41000
0.78624	0.17668
0.78624	0.35523
0.78624	0.07465
0.60773	0.07465
0.32721	0.04914
-0.00431	0.32972
-0.15732	0.40625
-0.53984	-0.10391
-0.66735	0.10015
0.19971	0.20219
0.76074	-0.05289
0.48022	0.04914
-0.15732	0.10015
0.40372	-0.05289
0.86275	0.73785
0.42922	0.22769
-0.38683	-0.07840
-0.59084	0.32972
-0.51434	0.53379
0.02119	-0.28246
0.60773	-0.38449
0.76074	0.32972
0.58223	0.04914
0.58223	-0.18043
0.17421	0.22769
-0.02981	1.17148
-0.18282	-0.12942
-0.13181	-0.18043
-0.69285	-0.25695
-0.41233	0.40625
0.40372	0.73785
0.12320	0.55929
0.73524	-0.15492
0.78624	-0.48652
0.53123	0.27871
0.12320	0.02363
-0.08081	-0.25695
-0.23382	0.32972
-0.36133	-0.15492
0.12320	-0.23145
0.45472	0.22769
0.35272	0.32972
0.22521	-0.20594
0.53123	-0.10391
0.35272	0.66132
-0.05531	0.91640
-0.18282	0.66132
-0.10631	0.40625
-0.38683	-0.20594
-0.33583	-0.12942
-0.18282	0.17668
0.55673	-0.33348
0.76074	-0.38449
0.91375	-0.15492
0.65874	0.58480
0.30171	0.66132
-0.31033	0.35523
-0.59084	-0.00188
-1.17738	0.25320
-0.20832	-0.18043
0.50573	-0.05289
0.76074	0.58480
0.65874	-0.15492
0.88825	-0.66508
0.55673	-0.30797
0.09770	0.35523
-0.05531	0.73785
-0.20832	0.02363
-0.56534	0.58480
-0.43783	-0.25695
0.19971	-0.33348
0.50573	0.12566
0.37822	0.45726
0.45472	0.10015
0.35272	-0.02739
0.12320	0.38074
-0.13181	0.35523
-0.08081	-0.23145
-0.18282	0.89089
0.19971	0.99292
0.48022	-0.43551
0.07220	-0.41000
0.17421	-0.23145
0.53123	-0.10391
0.37822	0.17668
-0.59084	0.35523
-0.23382	0.15117
0.27621	0.66132
0.17421	0.86539
0.30171	-0.76711
0.40372	-0.46102
0.60773	0.50828
0.68424	0.43176
0.42922	-0.00188
0.04670	0.20219
-0.38683	0.12566
-0.02981	0.32972
-0.51434	0.32972
-0.59084	0.17668
-0.48884	-0.00188
0.48022	-0.33348
0.73524	0.10015
0.55673	0.02363
0.63323	-0.71609
0.35272	-0.00188
-0.00431	0.73785
-0.18282	-0.05289
-0.28482	1.09496
-0.48884	0.55929
-0.18282	-0.00188
0.53123	0.04914
0.73524	0.02363
0.53123	-0.25695
0.68424	-0.61406
0.50573	0.55929
-0.00431	0.78886
-1.07538	0.45726
-0.76936	-0.71609
-0.02981	-0.86914
0.27621	-0.74160
0.65874	0.32972
0.30171	1.47757
0.50573	0.48277
0.48022	-0.15492
0.45472	0.68683
0.48022	0.83988
0.09770	0.48277
-0.28482	-0.25695
-1.02437	-0.00188
-0.46334	0.22769
0.42922	0.04914
0.55673	-0.12942
0.63323	-0.12942
0.83725	-0.05289
0.60773	0.10015
-0.10631	0.53379
-0.23382	0.04914
-0.20832	-0.23145
-0.46334	0.32972
-0.20832	0.27871
0.17421	-0.46102
0.32721	1.60511
0.60773	0.45726
0.73524	-2.39961
0.42922	-0.58856
-0.13181	1.24800
-0.43783	0.45726
-0.46334	1.04394
-0.18282	1.27351
0.14870	0.89089
0.58223	-0.71609
0.63323	-1.65988
0.53123	-0.53754
0.35272	0.04914
0.22521	0.83988
-0.02981	0.55929
-0.05531	0.30422
-0.20832	0.10015
-0.74385	0.15117
-0.31033	-0.10391
0.63323	0.10015
1.11776	0.40625
0.99026	0.25320
0.32721	-0.35899
-0.46334	-0.25695
-1.25389	0.45726
0.07220	0.40625
0.58223	0.32972
0.22521	0.50828
0.35272	0.27871
0.45472	-0.05289
0.35272	-0.56305
0.55673	1.17148
0.55673	0.04914
-0.05531	-1.48133
-0.38683	0.25320
-0.31033	0.89089
-0.08081	0.43176
-0.23382	-0.05289
0.17421	0.20219
0.45472	0.48277
0.50573	-0.38449
0.45472	0.50828
0.53123	0.40625
0.25071	-0.05289
0.09770	0.76336
-0.13181	-0.48652
-0.28482	-1.12422
-0.31033	0.20219
-0.23382	0.30422
0.50573	0.30422
0.42922	0.20219
0.22521	0.30422
0.22521	0.45726
0.42922	0.27871
0.30171	0.10015
-0.00431	0.22769
0.07220	0.10015
-0.15732	0.35523
0.02119	0.25320
0.09770	0.22769
0.32721	0.07465
0.76074	-0.15492
0.83725	-0.07840
0.02119	-0.12942
-0.69285	0.35523
-0.43783	0.45726
-0.23382	0.12566
-0.18282	-0.30797
0.27621	0.30422
0.42922	-0.86914
0.42922	-0.53754
0.65874	1.09496
0.86275	0.76336
0.37822	0.99292
-0.08081	0.30422
-0.31033	-0.02739
-0.51434	-0.48652
-0.38683	-0.10391
-0.08081	-0.07840
0.25071	-0.58856
0.58223	0.66132
0.48022	0.53379
0.63323	-0.00188
0.30171	0.02363
-0.02981	0.30422
-0.36133	0.15117
0.04670	0.17668
-0.36133	0.32972
0.04670	-0.02739
0.53123	-0.05289
0.78624	0.15117
0.55673	0.20219
0.40372	-0.46102
-0.18282	-0.25695
-0.87136	0.78886
-0.71835	0.50828
0.40372	0.22769
0.45472	0.20219
0.22521	-0.18043
0.37822	-0.25695
0.68424	0.12566
0.48022	0.43176
0.53123	0.55929
0.27621	0.63582
-0.23382	-0.43551
-0.48884	-0.20594
-0.71835	-1.68539
-0.53984	0.50828
0.09770	1.35003
0.35272	0.40625
0.70974	-0.02739
0.73524	-0.02739
0.70974	-0.07840
0.30171	0.40625
0.07220	0.32972
-0.13181	0.04914
-0.23382	0.15117
-0.25932	0.32972
-0.15732	0.07465
0.32721	0.15117
0.53123	0.10015
0.37822	0.12566
0.60773	-0.05289
0.30171	0.22769
-0.02981	0.04914
0.07220	-0.25695
-0.10631	0.15117
-0.59084	0.55929
-0.43783	0.12566
0.35272	-0.12942
0.78624	0.12566
0.93925	0.35523
0.99026	0.07465
0.55673	0.40625
-0.05531	0.02363
-0.38683	0.50828
-0.31033	0.68683
-0.38683	0.35523
-0.00431	-0.23145
0.17421	-0.41000
0.37822	0.04914
0.19971	0.66132
0.58223	-0.76711
0.50573	-0.76711
0.14870	0.35523
-0.10631	0.63582
-0.02981	0.45726
-0.43783	0.66132
-0.10631	0.71234
0.17421	0.40625
0.78624	-0.20594
0.50573	-0.84363
0.78624	-0.84363
0.35272	-0.51203
-0.38683	0.20219
-0.41233	1.01843
0.17421	0.86539
-0.20832	0.89089
0.14870	0.63582
0.50573	-0.05289
0.04670	-0.07840
0.78624	-0.10391
0.37822	-0.20594
-0.05531	0.17668
-0.69285	0.02363
-0.23382	0.04914
0.32721	0.35523
0.04670	0.32972
0.32721	0.04914
0.17421	0.04914
0.76074	0.02363
0.63323	0.12566
-0.15732	-0.02739
-0.82036	0.27871
0.30171	0.38074
0.27621	-0.58856
0.48022	-0.28246
-0.00431	1.55410
0.12320	0.71234
0.32721	0.66132
0.37822	-0.63957
0.32721	-0.99668
0.53123	0.78886
0.14870	0.17668
-0.33583	-0.10391
-0.38683	-0.05289
-0.23382	0.12566
-0.43783	0.35523
-0.00431	-0.46102
0.42922	0.96742
0.68424	1.32453
0.63323	-0.48652
0.86275	-1.09871
0.32721	-0.00188
0.12320	0.96742
-0.00431	0.35523
-0.28482	-0.43551
-0.51434	0.02363
-0.08081	0.50828
0.22521	0.55929
0.60773	0.04914
0.14870	-0.69059
0.45472	-0.28246
-0.08081	1.47757
0.14870	0.71234
-0.20832	-0.07840
0.02119	-0.48652
0.17421	-0.43551
0.25071	-0.56305
0.32721	0.50828
0.58223	0.35523
0.53123	0.76336
0.45472	0.15117
0.02119	0.25320
-0.23382	-0.61406
-0.59084	-0.15492
-1.17738	0.76336
-0.38683	0.66132
0.30171	0.02363
0.58223	-0.58856
0.73524	0.22769
0.68424	0.61031
0.88825	0.12566
0.50573	-1.45582
-0.05531	-0.79262
-0.05531	1.12046
-0.05531	1.04394
-0.43783	0.48277
-0.31033	0.35523
-0.23382	0.63582
0.63323	0.32972
0.60773	-0.41000
0.76074	-0.58856
0.42922	-0.05289
0.02119	0.15117
-0.59084	0.53379
-0.38683	0.50828
-0.25932	0.35523
0.45472	0.12566
0.86275	0.12566
0.93925	0.15117
0.58223	-0.10391
0.07220	-0.43551
-0.13181	0.07465
0.09770	0.25320
-0.08081	-0.15492
-0.25932	0.38074
-0.31033	0.94191
0.02119	0.32972
0.12320	0.04914
0.53123	0.32972
0.40372	-0.02739
0.45472	-0.58856
0.17421	-0.20594
-0.08081	-0.23145
-0.00431	0.91640
-0.00431	1.45206
-0.28482	-0.25695
-0.00431	-0.86914
0.22521	1.01843
0.32721	0.83988
0.48022	-1.14973
0.63323	-0.35899
0.58223	0.50828
0.12320	0.32972
-0.10631	0.55929
-0.61635	-0.61406
-0.53984	-0.18043
0.27621	0.55929
0.40372	0.50828
0.27621	0.32972
0.22521	0.55929
0.68424	0.35523
0.53123	0.30422
0.25071	0.53379
-0.23382	-0.00188
-0.23382	-0.46102
-0.56534	0.15117
-0.38683	0.35523
0.42922	-0.30797
0.81175	0.45726
0.53123	0.38074
0.70974	-0.25695
0.35272	0.15117
-0.08081	0.30422
-0.23382	0.10015
-0.25932	0.02363
-0.33583	0.35523
-0.15732	0.10015
0.09770	-0.25695
0.78624	-1.17523
0.53123	-0.86914
0.60773	1.86019
0.37822	1.52859
-0.10631	0.38074
-0.51434	-0.05289
-0.53984	0.22769
0.02119	0.07465
0.12320	-0.35899
0.27621	-0.30797
0.81175	0.30422
0.50573	-0.18043
0.63323	-0.48652
0.48022	0.71234
0.02119	0.45726
-0.31033	0.83988
-0.82036	-0.30797
-0.61635	-1.09871
0.07220	-0.79262
0.19971	0.63582
0.99026	0.81437
1.16877	0.81437
0.96476	0.48277
0.58223	0.43176
-0.28482	0.71234
-1.02437	0.25320
-0.43783	0.17668
-0.23382	0.07465
0.04670	-0.76711
0.65874	-0.48652
0.78624	-0.23145
0.63323	-0.05289
0.63323	0.38074
0.32721	0.68683
-0.20832	-0.25695
-0.18282	0.45726
-0.38683	-0.00188
-0.46334	0.22769
-0.05531	0.25320
0.27621	-0.05289
0.53123	0.04914
0.32721	-0.58856
0.32721	-0.28246
0.68424	0.89089
0.19971	0.94191
0.02119	0.48277
-0.08081	0.22769
-0.33583	-0.30797
0.09770	0.07465
0.42922	0.15117
0.42922	0.15117
-0.08081	0.04914
0.45472	0.25320
0.55673	0.40625
0.19971	0.17668
-0.18282	-0.15492
-0.99887	0.15117
-0.08081	-0.28246
0.19971	-0.33348
0.12320	0.17668
1.14327	0.45726
0.63323	0.32972
0.93925	-0.18043
0.63323	0.32972
-0.02981	0.58480
-0.18282	0.96742
-0.51434	0.17668
-0.69285	-0.18043
-0.53984	-0.38449
0.17421	-0.41000
0.17421	0.07465
0.63323	0.68683
0.65874	-0.56305
0.45472	-0.05289
-0.08081	0.55929
-0.10631	0.78886
0.02119	0.76336
-0.15732	-0.63957
0.12320	-0.05289
0.40372	1.52859
0.30171	0.83988
0.58223	0.07465
0.65874	-0.05289
0.58223	-0.69059
-0.08081	-1.04770
-0.31033	-0.38449
-0.28482	0.48277
-0.48884	0.50828
-0.43783	0.07465
0.65874	0.15117
1.21977	0.27871
0.42922	0.25320
-0.00431	0.15117
-0.87136	0.27871
-0.28482	1.14597
0.86275	0.38074
0.42922	-0.63957
-0.13181	-0.15492
-0.13181	0.48277
0.27621	0.12566
0.83725	0.10015
0.65874	0.10015
0.50573	-0.00188
0.45472	0.83988
-0.28482	0.71234
-0.46334	0.27871
-0.41233	-1.22625
-0.51434	-0.56305
-0.38683	0.50828
0.12320	1.35003
0.53123	-0.25695
0.32721	-1.32828
0.83725	-1.09871
0.65874	1.42656
0.14870	1.75816
-0.15732	1.22250
-0.13181	0.17668
-0.48884	-0.66508
-0.05531	-0.99668
0.50573	0.12566
0.86275	0.35523
0.35272	0.89089
0.22521	-0.46102
-0.20832	0.53379
-0.43783	0.76336
0.53123	-0.58856
0.48022	0.30422
-0.36133	0.50828
-0.61635	0.12566
-0.15732	-0.12942
0.86275	-0.20594
0.70974	-0.25695
0.50573	-0.00188
0.55673	0.43176
-0.00431	0.35523
0.04670	0.27871
-0.05531	0.32972
-0.41233	0.45726
-0.25932	0.25320
0.02119	-0.00188
0.32721	-0.15492
0.48022	-0.00188
0.60773	0.20219
0.32721	0.30422
-0.02981	-0.33348
-0.20832	0.48277
-0.31033	0.30422
-0.41233	1.01843
0.02119	-0.18043
0.35272	-1.20074
0.65874	-0.15492
0.50573	-0.48652
0.65874	1.06945
0.60773	1.29902
0.09770	0.35523
-0.10631	-0.56305
-0.41233	-0.41000
-0.92237	-0.15492
-0.25932	0.40625
0.58223	0.91640
0.53123	-0.38449
0.96476	-0.51203
1.04126	0.02363
0.25071	0.55929
-0.97337	0.04914
-1.02437	0.10015
-0.02981	0.58480
0.55673	0.55929
0.55673	0.30422
0.68424	0.04914
0.78624	-0.12942
0.27621	0.02363
0.42922	-0.02739
0.22521	0.20219
-0.53984	0.38074
-0.43783	-0.05289
-0.28482	-0.41000
-0.28482	-0.07840
-0.05531	0.25320
0.42922	0.20219
0.68424	0.30422
0.50573	-0.41000
0.63323	1.06945
0.40372	0.71234
-0.05531	-1.22625
-0.28482	-0.00188
-0.18282	1.78367
-0.33583	-0.43551
-0.10631	-1.25176
0.32721	1.19699
0.55673	0.12566
0.53123	-0.76711
0.73524	-0.30797
0.65874	0.55929
0.09770	0.68683
-0.33583	0.81437
-0.69285	0.76336
-1.22839	0.17668
-0.25932	-0.74160
0.88825	-0.15492
0.99026	0.17668
0.88825	0.30422
0.76074	0.12566
0.63323	0.22769
0.04670	0.83988
-0.23382	0.27871
-0.36133	-0.12942
-0.28482	0.20219
-0.23382	-0.00188
0.04670	-0.15492
-0.05531	-0.07840
0.32721	-0.33348
0.83725	0.15117
0.42922	0.07465
0.07220	1.06945
-0.25932	0.73785
0.04670	-0.61406
-0.10631	-0.61406
0.07220	-0.20594
0.37822	0.15117
0.50573	0.86539
0.42922	0.89089
0.63323	0.10015
0.32721	-0.07840
0.09770	-0.02739
-0.18282	-0.86914
-0.25932	1.06945
-0.38683	1.63062
-0.20832	-0.05289
0.30171	-0.94566
0.58223	-0.28246
0.83725	-0.10391
0.55673	-0.18043
0.09770	0.20219
-0.92237	0.55929
-0.53984	-0.23145
0.17421	-0.25695
-0.02981	1.01843
0.17421	0.35523
0.68424	-0.12942
0.73524	0.35523
0.68424	-0.15492
0.73524	-0.43551
0.42922	0.43176
-0.28482	1.12046
-0.48884	0.25320
-0.31033	-0.18043
-0.51434	0.38074
-0.20832	0.10015
0.30171	0.20219
0.53123	0.22769
0.37822	-0.63957
0.68424	-0.35899
0.32721	-0.05289
-0.13181	-0.07840
-0.08081	1.68163
-0.08081	1.45206
-0.33583	0.50828
