0.42922	-0.30797
0.53123	-0.23145
0.30171	-0.38449
0.48022	-0.15492
0.17421	0.45726
-0.13181	0.55929
-0.08081	0.61031
-0.02981	0.66132
-0.25932	0.53379
0.09770	-0.15492
0.45472	-0.35899
0.40372	-0.33348
0.45472	-0.43551
0.53123	-0.15492
0.19971	0.55929
-0.02981	0.66132
-0.00431	0.53379
-0.33583	0.38074
-0.51434	0.38074
0.04670	-0.18043
0.40372	-0.58856
0.65874	-0.30797
0.63323	-0.25695
0.45472	-0.02739
0.19971	0.48277
-0.18282	0.63582
-0.02981	0.61031
-0.13181	0.73785
-0.28482	0.40625
-0.00431	-0.07840
0.35272	-0.41000
0.40372	-0.41000
0.48022	-0.28246
0.45472	-0.05289
0.17421	0.48277
-0.10631	0.76336
-0.23382	0.53379
-0.10631	0.48277
-0.10631	0.48277
0.07220	-0.23145
0.42922	-0.43551
0.50573	-0.33348
0.50573	-0.10391
0.45472	-0.07840
0.09770	0.45726
-0.02981	0.76336
-0.18282	0.53379
-0.15732	0.43176
-0.18282	0.40625
0.04670	-0.12942
0.35272	-0.53754
0.55673	-0.18043
0.48022	-0.07840
0.50573	-0.07840
0.32721	0.48277
-0.18282	0.73785
-0.20832	0.45726
0.07220	0.45726
-0.08081	0.55929
-0.02981	-0.18043
0.32721	-0.46102
0.45472	-0.20594
0.27621	-0.23145
0.48022	-0.12942
0.22521	0.50828
0.09770	0.73785
-0.18282	0.55929
-0.28482	0.35523
-0.38683	0.53379
0.02119	-0.10391
0.45472	-0.53754
0.63323	-0.33348
0.60773	-0.05289
0.45472	-0.05289
0.25071	0.35523
-0.08081	0.66132
-0.15732	0.55929
-0.18282	0.43176
-0.18282	0.48277
0.07220	-0.18043
0.30171	-0.38449
0.53123	-0.33348
0.50573	-0.15492
0.48022	-0.05289
0.07220	0.50828
0.07220	0.63582
-0.05531	0.63582
-0.18282	0.35523
-0.18282	0.20219
0.17421	-0.25695
0.32721	-0.51203
0.50573	-0.28246
0.48022	-0.07840
0.45472	-0.02739
0.12320	0.38074
-0.05531	0.66132
-0.13181	0.66132
-0.15732	0.43176
-0.20832	0.45726
0.14870	-0.12942
0.27621	-0.48652
0.42922	-0.33348
0.48022	-0.15492
0.58223	-0.05289
0.09770	0.43176
-0.10631	0.71234
-0.15732	0.63582
-0.18282	0.43176
-0.13181	0.58480
0.12320	-0.07840
0.32721	-0.58856
0.58223	-0.43551
0.48022	-0.15492
0.50573	-0.18043
0.12320	0.50828
-0.08081	0.81437
-0.28482	0.61031
-0.13181	0.53379
-0.28482	0.45726
0.04670	-0.20594
0.35272	-0.53754
0.63323	-0.35899
0.42922	-0.12942
0.40372	-0.12942
-0.15732	0.40625
0.22521	0.66132
-0.05531	0.61031
-0.10631	0.55929
-0.13181	0.55929
0.12320	-0.10391
0.30171	-0.76711
0.42922	-0.43551
0.58223	0.15117
0.55673	-0.05289
0.02119	0.27871
0.02119	0.43176
-0.15732	0.68683
-0.43783	0.86539
-0.43783	1.01843
-0.05531	-0.58856
0.45472	-0.81812
0.32721	-0.38449
0.30171	-0.07840
0.70974	-0.46102
0.60773	-0.23145
0.91375	1.06945
-0.05531	1.57960
-1.02437	1.63062
-1.22839	0.68683
-0.66735	-1.17523
-0.51434	-0.94566
-0.89686	0.17668
-0.56534	-1.20074
1.29628	-1.30277
2.11233	-2.09351
2.26534	-0.05289
1.90832	5.83940
1.50029	4.99764
0.55673	0.63582
0.09770	-3.21585
0.07220	-1.60887
-0.20832	-1.94047
-1.17738	0.04914
-1.89143	0.35523
-1.53441	0.12566
-0.48884	1.68163
-1.20288	1.27351
-0.56534	-0.12942
0.42922	-1.71090
0.58223	0.53379
0.86275	2.08976
0.78624	-0.84363
0.93925	-1.50683
0.91375	-0.38449
1.11776	0.25320
0.55673	1.09496
0.19971	1.40105
0.02119	1.57960
-0.38683	0.17668
0.04670	-0.33348
0.83725	-0.46102
0.40372	0.12566
-0.36133	-0.66508
-1.33039	-0.25695
-1.45790	-0.69059
-1.35589	0.43176
-0.33583	-0.10391
0.76074	1.80917
1.50029	0.89089
1.93382	0.07465
1.75531	-1.17523
1.42379	-0.35899
0.81175	-0.38449
0.17421	2.14077
-0.31033	-1.40480
-0.82036	-1.58336
-1.45790	0.10015
-1.45790	1.42656
-1.15188	1.83468
-0.46334	-0.46102
0.63323	-0.48652
0.99026	0.40625
0.86275	0.45726
1.14327	-0.07840
0.53123	0.35523
0.12320	1.19699
0.68424	2.03874
0.27621	-0.43551
-0.38683	-0.74160
-0.66735	0.58480
-1.38139	-0.99668
-0.64185	-1.09871
0.35272	-1.96597
1.42379	-0.12942
1.52579	1.22250
1.11776	2.19179
0.32721	-0.81812
0.27621	1.22250
-0.76936	0.32972
-0.61635	-0.76711
0.50573	-0.18043
0.65874	-0.53754
-0.02981	0.30422
-0.33583	1.17148
-0.64185	0.48277
-0.18282	-0.84363
0.22521	0.45726
0.19971	-0.25695
-0.02981	3.90081
-0.08081	-0.12942
0.42922	-1.55785
0.83725	2.21730
0.50573	-0.38449
-0.05531	-2.96078
-0.53984	0.96742
-0.08081	1.60511
0.25071	-0.51203
0.81175	-0.56305
0.17421	1.17148
0.73524	-0.07840
0.91375	0.43176
-0.08081	-0.81812
-0.59084	-4.05761
-0.20832	-1.68539
0.42922	4.35995
0.27621	2.54890
0.14870	2.80397
-0.38683	0.40625
-0.69285	1.75816
-0.23382	-0.66508
-0.02981	-2.60367
-0.48884	-6.30229
0.73524	0.94191
0.86275	0.27871
0.70974	0.89089
0.53123	2.03874
0.22521	1.78367
-0.00431	1.93671
-0.66735	-1.30277
-0.87136	-2.29757
0.53123	-0.92016
1.24527	0.07465
0.73524	3.77327
0.86275	0.55929
0.14870	-1.63437
-1.30489	-0.10391
-0.84586	0.55929
0.07220	-0.10391
0.14870	0.35523
0.40372	0.96742
0.40372	-0.48652
0.53123	-0.46102
0.73524	0.55929
0.12320	-0.00188
-0.15732	-0.81812
-0.18282	0.66132
-0.23382	0.43176
0.27621	1.12046
-0.10631	0.71234
0.22521	0.73785
-1.10088	-0.81812
-0.87136	-0.20594
0.99026	-1.04770
1.52579	-1.88945
1.16877	3.03355
0.35272	1.86019
-0.89686	-0.35899
-0.64185	-0.20594
-0.15732	0.15117
0.68424	-1.14973
0.88825	-0.00188
0.55673	-1.83844
-0.51434	-1.58336
-0.23382	3.72225
0.50573	2.03874
0.14870	-1.09871
-0.00431	0.55929
-0.28482	0.25320
-0.23382	0.91640
0.09770	-1.55785
0.19971	-1.32828
0.55673	1.06945
0.60773	1.19699
0.40372	-2.85874
0.30171	1.32453
-0.13181	2.16628
-0.05531	-0.15492
-0.20832	0.27871
-0.13181	0.04914
0.22521	0.55929
0.58223	-0.84363
-0.08081	-0.48652
0.04670	-0.46102
-0.10631	0.91640
-0.02981	0.17668
0.17421	-1.17523
0.73524	0.86539
0.96476	0.71234
0.22521	0.96742
-0.46334	-0.30797
-0.13181	-0.94566
-0.00431	0.55929
0.63323	0.02363
0.53123	0.50828
0.50573	1.35003
0.55673	2.24281
0.42922	1.12046
-0.02981	-2.42511
-0.41233	-1.07320
-0.20832	0.86539
-0.28482	0.40625
-0.13181	-1.76191
0.25071	-0.79262
0.55673	-2.75671
0.02119	2.34484
0.30171	2.19179
0.27621	2.26831
0.63323	5.68635
0.14870	0.40625
0.30171	-1.60887
-0.38683	-2.42511
0.07220	-1.40480
0.88825	-1.02219
0.04670	-0.56305
-0.13181	1.73265
-0.31033	-0.66508
0.60773	-0.33348
0.53123	1.70714
-0.10631	1.42656
-0.53984	0.58480
-0.94787	-0.12942
0.30171	-0.28246
0.83725	0.35523
1.24527	0.55929
1.06676	0.76336
0.25071	0.58480
-0.28482	0.10015
-1.07538	0.25320
-0.61635	0.20219
0.12320	-0.41000
0.68424	-0.48652
0.19971	-1.04770
0.07220	0.78886
0.37822	-1.40480
0.55673	-0.76711
0.04670	1.86019
0.12320	2.03874
0.19971	-0.66508
-0.28482	0.12566
-0.08081	2.16628
0.25071	-0.61406
0.37822	1.17148
0.30171	-1.43031
0.35272	-0.61406
-0.25932	-0.05289
-0.36133	0.15117
0.48022	0.91640
0.35272	1.65613
0.04670	0.50828
0.32721	-1.83844
-0.00431	-0.79262
-0.71835	-0.48652
-0.76936	0.22769
0.88825	0.10015
1.75531	1.68163
0.42922	2.29382
0.07220	0.91640
-0.28482	-0.15492
-0.15732	2.21730
0.14870	-1.76191
-0.08081	-3.16484
0.37822	-1.63437
0.50573	1.06945
0.63323	1.57960
0.12320	1.19699
-0.76936	0.71234
-0.13181	-1.40480
-0.00431	0.55929
-0.05531	0.86539
0.19971	-0.69059
0.22521	-2.70570
0.30171	1.91120
0.63323	0.96742
0.53123	1.52859
0.04670	-0.20594
-0.33583	-2.57816
-0.66735	0.12566
-0.38683	1.93671
-0.02981	-0.86914
0.55673	-1.60887
0.93925	0.02363
1.04126	0.25320
0.40372	0.22769
0.04670	-0.48652
-0.66735	1.45206
-0.59084	1.78367
0.88825	1.22250
0.83725	0.32972
0.12320	0.43176
-0.46334	0.50828
-0.08081	-1.12422
0.12320	-2.65468
0.35272	2.03874
0.02119	-1.07320
0.45472	-0.38449
-0.05531	0.32972
0.32721	1.12046
0.04670	1.47757
-0.61635	-0.43551
0.40372	-1.68539
0.83725	-0.02739
0.70974	0.04914
0.42922	1.17148
0.40372	2.37034
-0.23382	-0.07840
-0.51434	-0.53754
-0.59084	-0.25695
-0.33583	-0.20594
-0.31033	0.96742
0.02119	0.78886
0.40372	0.48277
0.73524	-1.99148
0.63323	-1.02219
0.83725	0.99292
0.37822	0.76336
0.09770	0.53379
-0.87136	0.02363
-0.59084	-0.05289
0.22521	1.14597
0.27621	1.06945
0.48022	0.02363
-0.18282	-1.50683
0.30171	-1.68539
1.44929	0.22769
0.32721	1.27351
-0.69285	1.78367
-0.59084	0.15117
0.58223	-1.17523
0.50573	2.21730
0.17421	0.76336
0.68424	-1.12422
0.63323	-0.00188
0.22521	-0.23145
-0.08081	-1.50683
-0.25932	-1.32828
-0.89686	1.35003
-0.33583	2.29382
0.07220	-0.20594
0.17421	0.50828
0.32721	1.32453
0.73524	0.12566
0.40372	0.35523
0.19971	0.12566
0.45472	-3.49644
0.14870	-2.78222
0.07220	2.26831
-0.64185	1.22250
-0.38683	1.06945
0.17421	0.71234
0.73524	0.30422
0.88825	-0.46102
0.04670	-0.56305
-0.92237	0.48277
-0.38683	-0.20594
0.12320	0.07465
0.12320	0.78886
0.55673	0.86539
1.52579	1.22250
0.48022	1.37554
-0.46334	-0.94566
-1.04987	-0.86914
0.27621	1.98773
0.78624	-0.35899
0.96476	-2.88425
0.37822	-0.18043
-0.10631	0.53379
-0.33583	2.31933
-0.43783	1.78367
-0.13181	-1.25176
0.07220	0.99292
0.27621	0.30422
0.07220	-1.48133
0.27621	-0.56305
0.45472	0.15117
0.17421	-0.71609
-0.05531	1.27351
0.07220	1.52859
0.32721	0.73785
0.22521	0.89089
-0.13181	1.37554
0.50573	-0.61406
0.53123	-0.84363
0.63323	-1.32828
0.70974	-0.97117
-0.94787	-0.20594
-0.69285	0.76336
-0.66735	0.12566
-0.51434	0.12566
0.12320	1.06945
0.42922	1.63062
1.24527	1.09496
1.42379	-1.04770
0.63323	-1.96597
0.42922	-2.52714
0.12320	1.91120
-0.28482	1.88570
-0.33583	2.19179
-0.82036	0.27871
-0.74385	0.96742
-0.10631	1.32453
0.45472	-0.02739
0.12320	-2.70570
0.27621	-1.27726
0.42922	-1.81293
0.32721	0.17668
0.19971	1.68163
0.04670	0.22769
-0.18282	1.06945
-0.69285	1.17148
0.48022	-2.01699
0.68424	-0.38449
0.78624	0.63582
0.76074	0.66132
0.86275	0.10015
-0.23382	0.63582
-0.25932	0.86539
-0.43783	-0.15492
0.19971	0.48277
0.09770	0.76336
0.35272	0.43176
-0.56534	-0.38449
-0.64185	-1.14973
-0.82036	-0.71609
0.40372	-0.61406
1.21977	0.04914
1.04126	0.71234
0.91375	2.70194
0.32721	2.03874
0.02119	-0.38449
0.12320	-0.71609
-0.08081	0.48277
-0.23382	-0.05289
-0.46334	-1.83844
0.60773	-4.21066
0.48022	2.16628
-0.08081	1.73265
-0.51434	2.98253
-0.15732	-0.89465
0.07220	0.07465
0.19971	0.07465
0.37822	-0.10391
0.30171	-0.33348
0.45472	-0.81812
1.06676	-1.20074
0.40372	-0.51203
0.22521	1.17148
0.14870	2.11527
-0.23382	1.45206
-0.56534	0.94191
-1.20288	-0.23145
-0.41233	-0.56305
0.73524	-0.76711
0.78624	-0.05289
0.37822	-0.35899
0.27621	-0.41000
0.53123	-0.15492
0.25071	0.96742
0.22521	1.57960
0.07220	1.22250
0.17421	0.10015
0.30171	-0.63957
0.19971	-0.99668
0.42922	-0.84363
0.02119	0.38074
-0.36133	0.38074
-0.74385	-0.00188
-0.48884	0.91640
-0.33583	-0.00188
0.27621	0.50828
0.86275	0.86539
0.76074	-0.61406
0.73524	-0.02739
0.81175	-1.58336
0.40372	-0.18043
0.07220	2.34484
-0.08081	0.55929
0.07220	-0.81812
-0.79486	0.10015
-0.46334	0.86539
0.37822	-0.20594
0.68424	0.25320
0.27621	0.32972
-0.10631	-0.58856
0.45472	0.50828
-0.38683	0.45726
-0.13181	0.25320
-0.64185	0.38074
0.35272	0.02363
0.58223	1.37554
0.73524	0.15117
1.09226	-0.69059
0.17421	-0.76711
-0.31033	-0.46102
0.09770	-0.38449
0.53123	0.22769
0.93925	0.68683
0.50573	0.94191
-0.59084	-0.02739
-1.99343	-0.02739
-1.55991	0.43176
0.48022	1.32453
1.52579	0.15117
0.88825	-0.35899
0.35272	-0.79262
0.17421	-2.39961
0.48022	-0.58856
0.63323	2.08976
0.40372	2.67644
-0.15732	0.99292
-0.05531	-1.32828
0.12320	-0.18043
0.25071	-0.23145
0.14870	-1.14973
0.25071	2.01323
0.07220	1.86019
-0.99887	0.30422
0.02119	-0.84363
0.14870	-0.12942
0.14870	0.83988
-0.10631	-0.56305
0.12320	-1.96597
0.53123	-1.32828
0.37822	-0.23145
0.60773	-0.30797
0.68424	0.99292
0.60773	2.06425
-0.38683	1.45206
-0.28482	1.32453
0.19971	0.35523
0.22521	-0.69059
0.99026	0.63582
0.42922	-0.18043
0.32721	-2.06800
0.32721	-0.69059
-0.18282	0.48277
-0.56534	1.52859
-0.28482	0.32972
-0.51434	-0.74160
-0.28482	1.73265
0.04670	-0.10391
0.53123	0.07465
0.86275	-0.18043
0.37822	-0.00188
0.02119	0.71234
0.07220	0.30422
-0.43783	-1.17523
0.45472	-0.07840
0.53123	0.45726
0.32721	1.01843
0.42922	0.45726
-0.23382	-0.23145
0.91375	-0.69059
0.81175	-1.53234
0.63323	0.45726
-0.28482	0.89089
-0.74385	1.35003
-0.61635	1.19699
0.02119	0.22769
-0.05531	-0.12942
0.37822	-0.74160
0.73524	-0.81812
0.68424	-0.18043
0.02119	0.53379
0.04670	0.15117
0.12320	0.30422
0.09770	0.02363
-0.23382	0.58480
-0.38683	1.83468
-0.15732	1.22250
-0.38683	-1.63437
0.22521	0.22769
0.63323	-0.23145
0.93925	-0.71609
1.04126	-0.86914
0.32721	1.14597
-0.05531	1.22250
-0.00431	0.76336
-0.46334	0.25320
-0.53984	0.78886
-0.10631	-0.61406
0.32721	-0.38449
0.32721	-0.07840
0.60773	-0.33348
0.93925	0.22769
0.17421	-0.18043
-1.15188	0.25320
-0.20832	-0.05289
0.35272	0.76336
-0.25932	2.19179
-0.25932	0.20219
-0.41233	-0.97117
0.02119	-0.61406
1.44929	0.15117
1.37278	0.25320
0.22521	-1.27726
-0.08081	0.86539
-0.18282	0.86539
-0.08081	-0.33348
-0.05531	0.96742
0.32721	1.17148
0.30171	-0.61406
0.30171	-1.22625
-0.02981	-0.58856
0.42922	-0.35899
0.14870	0.48277
-0.28482	1.42656
-0.41233	0.02363
-0.76936	0.48277
0.27621	1.98773
0.32721	-0.28246
0.88825	-1.45582
0.70974	-0.28246
0.60773	0.07465
0.09770	-0.43551
-0.94787	0.76336
0.42922	0.40625
0.42922	0.55929
-0.20832	0.55929
-0.31033	0.76336
0.63323	-0.30797
0.42922	0.58480
0.07220	-0.61406
0.22521	-0.20594
0.48022	-0.61406
-0.13181	0.25320
-0.31033	0.96742
0.14870	0.76336
0.27621	0.76336
0.12320	-0.63957
-0.00431	0.55929
0.37822	1.19699
0.50573	0.53379
0.40372	-1.60887
0.58223	-0.46102
-0.08081	0.50828
-0.61635	0.96742
-0.53984	-1.30277
-0.33583	-0.30797
-0.31033	1.40105
0.48022	1.35003
0.58223	-0.30797
0.99026	-0.76711
0.86275	-0.38449
0.55673	-0.66508
0.19971	0.61031
0.17421	1.14597
-0.25932	0.50828
-0.28482	0.94191
-0.08081	0.55929
-0.46334	-0.46102
0.12320	-0.41000
-0.05531	-0.43551
-0.69285	-0.12942
0.14870	-1.43031
1.14327	0.15117
1.29628	1.17148
0.65874	1.14597
0.17421	1.04394
-0.53984	0.38074
0.27621	0.07465
-0.18282	-0.05289
-0.08081	0.30422
-0.15732	-2.09351
0.32721	-0.33348
0.35272	0.07465
0.12320	-0.61406
0.35272	1.09496
-0.05531	1.45206
-0.33583	2.06425
0.14870	-0.00188
0.42922	1.27351
0.27621	-0.35899
0.25071	-2.37410
0.37822	-0.69059
0.02119	-0.20594
-0.10631	0.58480
0.12320	0.38074
0.09770	-0.15492
-0.15732	0.58480
-0.13181	0.27871
0.04670	-0.12942
0.65874	0.27871
0.78624	0.15117
0.78624	0.17668
0.09770	0.38074
-1.61091	0.89089
-0.87136	0.27871
-0.23382	0.53379
0.96476	0.83988
1.27078	-0.51203
0.25071	-0.86914
0.09770	-0.18043
0.76074	-0.30797
0.88825	-0.97117
-0.10631	0.76336
-0.59084	0.55929
-0.61635	0.96742
0.12320	1.19699
0.17421	1.09496
0.02119	-1.45582
0.42922	-1.60887
0.78624	-0.81812
0.63323	0.07465
0.60773	1.32453
0.19971	0.38074
-0.13181	1.04394
-0.20832	0.15117
-0.18282	0.55929
-0.20832	0.76336
-0.08081	-0.20594
0.25071	-0.89465
0.37822	-0.89465
0.12320	-0.35899
1.01576	0.27871
0.68424	0.17668
-0.25932	-0.00188
-0.92237	0.68683
-1.17738	-0.10391
0.02119	1.09496
1.44929	0.66132
0.70974	0.71234
-0.13181	-0.48652
-0.05531	-0.81812
1.11776	-0.30797
1.32178	0.22769
1.01576	1.17148
0.19971	1.17148
-0.76936	0.35523
-1.10088	0.15117
-0.38683	-0.25695
0.12320	-0.25695
0.63323	-0.25695
0.63323	-0.53754
0.48022	-0.86914
0.27621	-1.07320
-0.36133	1.22250
-0.92237	2.59991
-0.61635	2.14077
0.04670	0.35523
0.40372	-1.43031
0.68424	-2.19554
0.70974	-1.14973
0.45472	-0.02739
0.68424	0.30422
0.32721	1.57960
-0.02981	1.83468
-0.38683	1.17148
-0.41233	0.38074
-0.38683	-0.00188
-0.48884	-0.51203
0.68424	-0.56305
1.57679	-1.09871
0.86275	-0.25695
0.32721	-0.33348
-0.74385	0.25320
0.22521	0.96742
-0.51434	0.55929
-0.71835	0.94191
0.14870	1.17148
0.81175	-0.58856
1.04126	-1.27726
0.45472	-0.51203
0.68424	0.25320
-0.00431	0.04914
-0.33583	1.32453
0.12320	0.94191
-0.71835	-0.84363
-0.18282	0.17668
-0.13181	2.44687
0.48022	-1.09871
0.99026	-1.48133
0.68424	0.43176
-0.08081	-0.18043
-0.08081	0.25320
-0.10631	-1.07320
-0.13181	0.22769
0.30171	1.40105
0.32721	-0.12942
0.04670	0.63582
0.25071	0.81437
0.37822	-0.43551
0.48022	-0.51203
0.19971	-0.15492
0.02119	-0.43551
-0.10631	0.17668
-0.69285	0.71234
0.40372	0.68683
0.30171	0.55929
-0.00431	0.78886
0.09770	0.04914
0.58223	-0.25695
0.35272	-0.84363
0.27621	-0.05289
0.42922	-0.07840
0.32721	-0.07840
0.04670	1.50308
0.30171	1.45206
-0.74385	-0.38449
0.12320	-1.45582
0.14870	-0.51203
-0.00431	0.71234
0.17421	-0.02739
0.02119	1.35003
-0.15732	-0.10391
-0.15732	-0.02739
0.70974	1.17148
0.09770	0.96742
0.42922	-0.07840
0.50573	-1.43031
0.63323	3.00804
0.63323	-2.11902
0.37822	-6.83795
-0.08081	0.12566
-0.82036	1.37554
-0.46334	2.29382
0.12320	1.47757
0.07220	0.99292
0.07220	1.17148
0.02119	0.35523
0.22521	0.81437
0.73524	0.07465
0.25071	-1.27726
-0.08081	-0.74160
-0.28482	-0.38449
0.48022	0.73785
0.45472	0.20219
0.40372	-0.02739
0.07220	0.30422
0.22521	1.12046
-0.15732	-0.35899
0.22521	-0.66508
-0.05531	0.15117
0.19971	0.20219
0.63323	-0.33348
-0.71835	0.10015
-0.53984	0.38074
0.53123	0.38074
-0.08081	0.15117
0.02119	0.86539
0.42922	1.01843
0.58223	-0.51203
0.60773	-0.71609
0.48022	0.20219
0.12320	-0.48652
0.09770	0.83988
-0.23382	0.45726
-0.23382	-0.46102
-0.25932	1.24800
-0.15732	0.96742
0.32721	0.12566
-0.02981	-0.79262
0.19971	0.38074
0.73524	-0.18043
0.55673	-2.04250
-0.15732	-1.48133
0.22521	1.12046
-0.13181	1.52859
-0.23382	1.42656
0.22521	1.42656
0.32721	-0.25695
0.76074	-0.53754
0.70974	-0.48652
-0.13181	0.04914
-0.56534	-0.12942
-0.28482	-0.05289
0.76074	0.38074
0.48022	1.70714
0.19971	0.73785
0.17421	0.25320
0.02119	-0.86914
0.42922	-0.69059
0.12320	-0.58856
0.12320	-1.32828
0.40372	-0.30797
0.09770	1.68163
-0.25932	1.65613
-0.38683	0.10015
-0.08081	-0.12942
0.22521	0.81437
0.27621	-0.18043
0.68424	0.53379
0.53123	-0.30797
0.45472	-0.69059
0.17421	-0.35899
-0.05531	-0.61406
-0.02981	0.71234
-0.08081	0.86539
0.32721	1.22250
0.02119	1.27351
-0.05531	-0.84363
-0.25932	-1.78742
-0.38683	-0.69059
0.55673	-0.66508
1.27078	0.40625
0.76074	2.42136
-0.56534	1.17148
-0.84586	2.59991
-0.13181	0.53379
0.40372	-1.09871
0.40372	-1.55785
0.81175	-2.09351
1.29628	0.12566
0.40372	0.53379
0.14870	-0.05289
0.02119	0.25320
-0.79486	0.99292
-0.31033	1.06945
-0.08081	0.91640
-0.10631	1.01843
0.04670	-0.33348
-0.10631	-1.12422
0.17421	-0.02739
0.65874	-0.00188
0.76074	-0.20594
0.19971	1.14597
-0.00431	0.68683
-0.36133	-0.15492
0.14870	0.27871
-0.15732	-0.38449
-0.41233	0.94191
0.63323	0.48277
0.86275	-0.10391
0.58223	-0.63957
0.40372	-0.69059
0.22521	0.32972
-0.18282	-0.30797
-0.33583	-0.18043
0.07220	0.78886
0.12320	1.12046
-0.28482	0.20219
-0.61635	-0.48652
-0.51434	-0.23145
0.19971	0.02363
1.24527	0.10015
0.88825	0.73785
0.48022	1.22250
0.12320	0.55929
0.37822	0.22769
0.12320	0.99292
0.09770	0.50828
-0.02981	-0.89465
-0.28482	-1.53234
-0.51434	-0.92016
0.35272	-0.56305
0.19971	0.89089
0.09770	1.35003
0.02119	1.09496
0.12320	-0.25695
-0.10631	0.73785
0.07220	0.86539
0.12320	0.17668
-0.02981	-0.38449
0.48022	-0.58856
1.01576	-0.66508
0.58223	-1.45582
-0.02981	-0.23145
-0.15732	1.37554
-0.20832	0.96742
-0.08081	0.68683
0.78624	0.04914
0.45472	-0.38449
-0.02981	-0.33348
-0.18282	0.10015
0.25071	-0.02739
0.78624	0.61031
0.65874	0.96742
0.09770	0.76336
-0.87136	0.50828
-1.07538	0.63582
-0.08081	0.10015
0.78624	-0.41000
1.21977	-1.07320
0.25071	-0.51203
0.12320	0.12566
0.53123	0.17668
0.55673	0.43176
0.22521	1.42656
-0.00431	1.86019
-0.64185	0.50828
-0.53984	-1.55785
0.32721	-0.56305
0.32721	-0.15492
0.68424	1.01843
0.42922	0.32972
0.04670	0.27871
0.07220	0.43176
0.25071	-0.10391
-0.00431	0.30422
-0.28482	-0.12942
-0.33583	-0.99668
-0.38683	-0.48652
-0.33583	-0.15492
0.91375	-0.23145
1.29628	0.35523
0.93925	1.17148
0.63323	1.22250
0.27621	1.12046
-0.25932	0.17668
-0.59084	0.43176
-0.87136	-0.12942
0.45472	-0.69059
0.81175	-0.38449
1.34728	0.17668
-1.61091	-0.38449
0.42922	-0.63957
-0.02981	1.09496
-0.87136	0.66132
0.14870	1.06945
0.53123	0.55929
0.42922	-0.20594
0.81175	-0.97117
0.40372	-0.56305
0.42922	-0.84363
0.88825	-0.48652
0.53123	0.22769
-0.08081	1.45206
-1.10088	0.86539
-0.56534	0.81437
0.04670	0.55929
0.14870	-0.81812
0.45472	0.78886
0.63323	0.96742
0.53123	-0.86914
0.25071	-2.11902
-0.48884	-0.48652
-0.43783	-0.02739
0.14870	0.45726
0.12320	0.99292
0.37822	1.29902
0.42922	0.32972
0.53123	-0.38449
0.65874	-0.46102
-0.08081	0.27871
0.17421	0.04914
-0.84586	0.48277
-0.61635	0.66132
0.96476	0.58480
0.40372	0.38074
0.60773	0.53379
-0.02981	0.22769
0.02119	-0.92016
1.11776	-1.71090
0.70974	0.10015
0.73524	-0.30797
-0.43783	-0.02739
-0.53984	2.26831
-0.36133	1.04394
-0.15732	0.43176
-0.05531	-0.12942
0.22521	-1.55785
0.12320	-0.66508
-0.02981	0.04914
0.48022	0.22769
0.65874	0.53379
0.37822	0.25320
-0.05531	0.30422
-0.05531	0.40625
-0.74385	0.71234
-0.53984	0.86539
0.40372	-0.18043
0.86275	-0.56305
0.93925	-0.61406
0.65874	-1.07320
0.65874	-1.32828
0.04670	0.89089
-0.74385	1.42656
-0.33583	1.01843
-0.79486	0.58480
-0.43783	0.99292
0.17421	0.17668
0.45472	-0.56305
0.93925	-1.09871
0.68424	0.43176
0.70974	0.07465
0.09770	0.61031
0.12320	0.68683
0.09770	1.06945
-0.25932	-0.12942
-0.36133	-0.81812
-0.20832	0.07465
-0.38683	-0.79262
0.30171	-0.07840
0.58223	0.61031
0.65874	1.24800
0.40372	0.32972
0.14870	-0.12942
-0.66735	0.22769
-0.46334	1.04394
-0.15732	0.10015
0.19971	-2.45062
0.60773	-0.02739
0.78624	0.32972
0.45472	-1.43031
0.48022	0.07465
0.12320	1.60511
0.12320	1.19699
-0.15732	0.78886
-0.31033	0.76336
-0.38683	0.94191
0.02119	-0.18043
0.48022	-0.66508
0.35272	-0.63957
0.81175	-0.35899
0.32721	0.15117
0.04670	0.55929
0.19971	0.32972
-0.48884	0.04914
-0.25932	0.38074
0.02119	0.58480
0.42922	-0.10391
0.60773	-0.41000
0.70974	-1.02219
0.27621	0.55929
-0.38683	-0.18043
-0.13181	0.71234
-1.12638	-0.12942
-0.18282	0.53379
0.65874	1.80917
0.40372	1.96222
0.40372	-1.12422
0.70974	-2.45062
0.73524	0.10015
0.35272	0.32972
-0.05531	-0.28246
-0.43783	-0.02739
-0.25932	1.01843
-0.05531	0.86539
0.07220	0.20219
-0.15732	0.73785
0.09770	1.06945
0.30171	-0.58856
-0.00431	-1.30277
0.42922	0.78886
0.32721	0.53379
0.91375	-0.81812
0.32721	-0.92016
-0.36133	0.38074
-0.66735	0.81437
0.12320	1.60511
0.45472	0.45726
0.48022	-0.43551
0.40372	-0.79262
0.53123	-0.25695
0.83725	0.07465
0.09770	0.25320
-0.25932	0.68683
-0.13181	0.22769
-0.38683	0.99292
-0.89686	0.91640
-0.25932	0.10015
0.68424	-1.22625
0.68424	-0.56305
0.32721	0.04914
0.12320	0.12566
-0.33583	1.29902
-0.18282	0.71234
0.27621	1.17148
0.40372	0.30422
0.12320	-0.76711
0.19971	-2.17003
0.53123	-0.28246
0.40372	-0.58856
0.50573	0.53379
0.14870	1.09496
-0.10631	0.96742
-0.08081	0.66132
-0.18282	0.38074
-0.33583	0.66132
0.07220	0.63582
0.09770	-0.05289
0.19971	-0.86914
0.42922	-1.14973
0.19971	-0.20594
0.40372	-0.00188
0.50573	0.25320
0.14870	0.48277
0.19971	0.17668
0.55673	0.76336
0.17421	0.71234
0.04670	0.15117
-0.15732	-0.46102
0.04670	-0.46102
0.35272	-0.05289
0.30171	0.38074
-0.08081	1.06945
-0.02981	0.04914
-0.05531	-0.51203
-0.25932	0.10015
-0.20832	1.09496
0.48022	1.47757
0.55673	-0.43551
0.07220	-0.66508
0.02119	0.04914
0.27621	-0.86914
0.22521	0.40625
0.14870	0.04914
0.40372	0.73785
0.22521	0.55929
0.09770	0.15117
0.14870	-0.20594
0.32721	-0.66508
0.37822	-0.84363
0.35272	0.04914
0.50573	0.02363
0.07220	0.35523
0.02119	0.35523
-0.25932	1.22250
-0.48884	0.89089
-0.53984	0.78886
-1.30489	0.04914
-0.61635	0.02363
0.93925	-0.10391
1.47479	-0.94566
1.55129	-1.50683
1.14327	0.73785
0.45472	1.14597
-0.00431	0.48277
-0.53984	0.35523
-0.66735	0.43176
0.19971	-0.33348
0.19971	-0.15492
-0.41233	-0.20594
0.27621	-0.35899
0.42922	-0.10391
0.40372	-0.00188
0.35272	1.57960
-0.02981	-0.33348
-0.59084	2.42136
-0.38683	0.86539
0.42922	-1.17523
0.73524	-1.68539
0.45472	-0.76711
0.55673	-0.23145
0.63323	-0.15492
0.07220	0.04914
-0.05531	1.96222
0.04670	2.01323
-0.20832	0.35523
-0.25932	0.20219
-0.28482	0.02363
-0.61635	-1.37929
0.50573	-0.10391
0.53123	-0.38449
0.70974	-0.46102
0.83725	0.07465
0.42922	0.32972
0.32721	1.12046
-0.00431	0.71234
0.14870	0.35523
-0.20832	-0.05289
0.22521	-0.56305
0.55673	-0.51203
-0.59084	-0.30797
-0.97337	-0.15492
-0.08081	0.63582
-0.08081	1.12046
0.96476	1.73265
0.88825	0.45726
0.50573	0.40625
0.37822	-0.76711
0.45472	-1.17523
0.30171	-1.55785
0.35272	0.48277
0.09770	-0.38449
0.07220	0.20219
-0.43783	1.17148
-0.48884	0.35523
-0.31033	-0.25695
-0.18282	1.29902
0.17421	0.38074
0.60773	-0.35899
0.55673	0.55929
-0.43783	-0.02739
-0.13181	-1.48133
0.53123	0.17668
0.65874	0.83988
0.22521	0.25320
0.22521	0.61031
0.07220	0.66132
0.40372	0.66132
0.68424	-0.66508
0.53123	-1.14973
-0.31033	-0.69059
-0.89686	-0.20594
-0.28482	0.17668
0.63323	0.55929
0.50573	0.58480
-0.08081	0.99292
-1.07538	1.04394
-0.71835	0.07465
0.70974	-0.53754
0.78624	-0.02739
1.14327	0.04914
0.78624	-0.23145
0.14870	0.71234
-0.48884	0.32972
-0.51434	-0.05289
0.14870	0.45726
-0.15732	-0.10391
-0.08081	-0.30797
-0.13181	1.01843
0.04670	0.38074
0.81175	-1.20074
0.76074	0.15117
0.32721	0.81437
0.02119	0.91640
-0.00431	0.35523
-0.15732	-0.46102
-0.33583	-1.63437
0.12320	0.17668
0.22521	0.15117
0.50573	0.02363
0.40372	0.25320
0.40372	0.02363
0.78624	0.76336
0.09770	1.32453
-0.51434	0.45726
-0.99887	-0.05289
-1.43240	0.73785
0.09770	-0.05289
0.83725	-0.38449
0.55673	-0.07840
1.01576	0.17668
1.37278	-0.25695
1.14327	0.38074
-0.28482	0.66132
-1.15188	0.17668
-1.50890	0.25320
0.60773	0.55929
0.83725	0.12566
0.88825	-0.30797
0.55673	-1.27726
0.32721	-0.76711
0.27621	-0.33348
-0.00431	2.26831
-0.31033	1.14597
-0.51434	-1.14973
-0.46334	0.10015
-0.46334	0.04914
-0.08081	-0.12942
0.42922	0.58480
0.53123	-0.07840
0.40372	-0.10391
0.50573	-0.99668
0.30171	0.78886
0.37822	1.42656
-0.00431	1.06945
0.02119	-0.07840
-0.02981	-0.86914
0.22521	-0.46102
0.02119	-0.28246
0.32721	0.04914
0.40372	0.43176
0.19971	-0.10391
0.12320	0.71234
0.07220	0.94191
-0.05531	0.50828
-0.08081	0.45726
0.12320	1.06945
0.30171	-0.33348
0.42922	-0.61406
0.48022	-1.22625
0.70974	0.30422
0.50573	0.20219
-0.10631	0.66132
-0.61635	0.38074
-0.28482	-0.05289
-0.36133	0.02363
-0.53984	0.22769
0.02119	0.22769
0.04670	0.32972
0.40372	-0.53754
0.81175	-0.35899
0.63323	-0.20594
0.53123	-0.05289
0.17421	0.86539
-0.02981	0.89089
-0.05531	0.89089
0.19971	0.91640
-0.18282	-0.71609
-0.05531	-0.43551
-0.15732	0.20219
-0.10631	0.73785
1.06676	-0.23145
0.88825	-0.86914
0.45472	0.20219
-0.18282	0.61031
-0.89686	0.55929
-0.08081	-0.00188
0.35272	-0.23145
-0.43783	-0.02739
0.19971	-0.10391
0.86275	-0.00188
1.06676	0.35523
0.40372	0.61031
-0.08081	0.50828
-0.31033	0.35523
-0.28482	0.40625
-0.25932	0.78886
-0.10631	0.20219
-0.00431	-0.63957
0.27621	-1.02219
0.65874	-1.17523
0.45472	0.83988
0.12320	1.04394
-0.08081	0.12566
0.07220	0.91640
-0.02981	1.29902
-0.33583	0.10015
-0.64185	-1.04770
0.19971	-1.17523
0.65874	-0.12942
0.96476	0.66132
0.93925	0.86539
0.50573	0.17668
-0.23382	0.50828
-1.17738	1.65613
0.35272	-0.28246
0.07220	0.66132
0.50573	0.22769
-0.25932	-0.56305
0.42922	-0.63957
-0.28482	-0.23145
-0.33583	-0.35899
0.25071	0.40625
0.27621	1.04394
-0.00431	0.91640
-0.28482	0.94191
0.07220	0.45726
0.42922	-0.46102
0.50573	-0.51203
0.53123	-0.38449
0.42922	-0.15492
0.48022	0.25320
0.45472	0.53379
-0.10631	0.38074
-0.87136	0.86539
-0.51434	0.96742
0.04670	-0.79262
0.22521	-1.37929
0.55673	2.37034
0.76074	-0.56305
0.48022	0.66132
0.19971	-0.25695
-0.00431	-0.51203
0.22521	-0.46102
-0.02981	0.38074
-0.15732	0.63582
-0.13181	0.78886
-0.13181	0.35523
0.53123	-1.07320
0.37822	-1.37929
0.04670	0.32972
0.30171	0.30422
0.48022	1.27351
0.45472	1.40105
-0.15732	0.71234
-1.71292	0.45726
-0.66735	0.35523
1.01576	-0.74160
1.04126	-0.07840
0.96476	-0.25695
0.83725	-0.38449
0.70974	-0.41000
-0.05531	0.30422
-0.38683	0.71234
-0.59084	0.63582
-0.18282	0.25320
0.04670	0.58480
-0.13181	0.68683
0.25071	-0.74160
0.22521	-2.52714
0.32721	1.24800
0.55673	0.91640
0.27621	0.10015
-0.15732	0.25320
-0.69285	-0.23145
-0.41233	0.66132
0.07220	1.40105
0.40372	0.15117
0.96476	-0.99668
0.88825	-0.35899
0.30171	-0.05289
0.25071	0.15117
0.22521	1.22250
-0.02981	0.25320
0.04670	-0.25695
-0.02981	0.15117
-0.41233	0.40625
-0.46334	0.48277
0.68424	0.27871
-0.08081	-0.15492
-0.48884	-0.20594
0.86275	-0.35899
0.40372	-0.07840
0.30171	-0.41000
0.40372	1.22250
0.07220	1.01843
-0.59084	1.04394
-0.38683	-0.07840
0.37822	-0.61406
0.70974	-0.51203
0.45472	-0.51203
0.63323	-0.69059
0.48022	-0.05289
0.07220	1.37554
-0.33583	1.19699
-0.53984	0.58480
-0.43783	0.02363
0.02119	0.61031
0.14870	-1.63437
0.48022	-0.23145
0.37822	0.25320
0.19971	-0.28246
0.40372	-0.33348
0.42922	1.32453
0.17421	1.65613
-0.02981	-1.48133
-0.53984	1.12046
-0.10631	1.22250
0.58223	0.15117
1.04126	-0.56305
0.50573	-0.97117
0.53123	-0.33348
-0.28482	0.43176
-0.74385	0.61031
0.17421	0.50828
-1.22839	0.50828
-1.04987	0.27871
1.19427	-0.25695
1.11776	-0.58856
1.44929	-0.10391
1.50029	0.22769
1.06676	0.12566
-0.25932	0.25320
-0.18282	1.12046
-0.18282	1.32453
-0.61635	0.30422
-0.79486	0.22769
-0.61635	-0.92016
-0.43783	-1.02219
0.27621	0.48277
0.48022	0.17668
0.93925	0.07465
0.63323	-0.18043
0.27621	1.70714
-0.13181	0.35523
-0.51434	0.55929
-0.33583	0.45726
0.40372	-0.23145
0.63323	0.04914
0.42922	-0.69059
0.55673	-1.17523
0.55673	-0.30797
0.45472	0.12566
0.02119	1.22250
-0.46334	1.17148
-0.31033	0.38074
-0.20832	0.38074
-0.08081	-0.30797
-0.20832	0.35523
0.14870	0.48277
0.81175	0.15117
1.21977	-0.46102
0.25071	-0.05289
-0.41233	0.32972
-0.51434	0.48277
0.17421	0.12566
-0.10631	0.71234
0.42922	0.04914
0.42922	-0.66508
0.60773	-0.51203
0.70974	-0.33348
0.63323	-0.35899
-0.10631	0.35523
-0.31033	0.78886
-0.36133	-0.18043
-0.28482	1.68163
-0.33583	0.81437
-0.33583	-0.43551
0.02119	-0.10391
0.42922	0.04914
0.45472	0.04914
0.76074	-0.53754
0.60773	-0.12942
0.14870	-0.61406
-0.05531	0.17668
-0.02981	1.32453
-0.28482	0.91640
-0.02981	-0.18043
0.42922	0.86539
0.40372	0.04914
0.25071	-1.32828
0.12320	-1.25176
0.42922	0.58480
0.50573	1.14597
0.22521	1.01843
-0.20832	0.73785
-0.43783	0.63582
-0.56534	-0.05289
-0.41233	-0.41000
0.35272	-0.56305
0.86275	-0.15492
0.78624	-0.35899
0.73524	0.30422
0.19971	0.76336
0.02119	0.45726
0.02119	0.48277
-0.18282	0.61031
-0.08081	0.27871
-0.25932	-0.81812
0.22521	-1.99148
0.58223	0.10015
0.53123	1.42656
0.37822	0.89089
-0.18282	0.02363
-0.25932	-0.33348
-0.28482	0.27871
-0.23382	2.21730
0.09770	0.86539
0.22521	-1.68539
0.48022	-1.58336
0.68424	-0.43551
0.70974	-1.09871
0.48022	2.14077
0.17421	2.34484
-0.28482	0.32972
-0.20832	-1.40480
-0.48884	-0.12942
-0.25932	0.45726
0.30171	-0.05289
0.32721	-0.69059
0.86275	-0.10391
1.19427	0.10015
0.17421	0.55929
-0.20832	0.63582
-0.59084	0.73785
-0.89686	0.81437
-1.27939	0.66132
0.45472	-0.20594
0.58223	-1.53234
0.99026	-0.05289
1.29628	0.25320
1.29628	-0.25695
0.42922	-0.10391
-0.64185	0.63582
-0.79486	0.89089
-0.13181	0.71234
-0.20832	-0.07840
-0.15732	-0.18043
0.22521	-0.76711
0.32721	0.32972
0.22521	0.20219
0.35272	0.32972
0.35272	-0.71609
-0.08081	0.81437
-0.28482	1.27351
-0.69285	0.66132
-0.71835	0.22769
0.37822	-0.28246
0.99026	-0.66508
1.16877	-1.17523
1.01576	-0.41000
1.11776	0.27871
0.19971	0.38074
-0.28482	0.50828
-0.20832	1.40105
-0.69285	0.94191
-0.31033	0.53379
-0.10631	-0.46102
0.19971	-0.38449
0.50573	-0.10391
0.50573	-0.10391
0.02119	-0.35899
0.19971	0.02363
-0.00431	0.43176
-0.10631	0.81437
-0.25932	0.66132
-0.66735	0.99292
0.07220	-0.05289
0.99026	-1.07320
1.34728	-0.20594
0.42922	-0.20594
0.48022	-1.02219
-0.02981	-0.33348
0.02119	1.22250
-0.08081	1.73265
-0.53984	0.76336
-0.28482	-0.07840
0.17421	-0.43551
-0.43783	-1.78742
-0.15732	-0.05289
0.37822	1.98773
0.30171	0.15117
0.63323	-0.12942
0.48022	-0.18043
0.55673	0.76336
0.07220	1.04394
-0.05531	0.30422
0.32721	-0.66508
-0.02981	-0.79262
-0.10631	-0.18043
-0.38683	-0.63957
-0.10631	-0.28246
0.73524	1.06945
0.42922	1.22250
-0.05531	0.83988
-0.59084	0.81437
0.68424	0.76336
0.93925	-0.51203
0.48022	-0.74160
-0.23382	-0.51203
-1.07538	-0.35899
-0.18282	-0.20594
0.42922	0.76336
0.78624	0.73785
0.48022	0.83988
0.42922	0.66132
0.07220	0.68683
-0.18282	-0.46102
0.19971	-1.50683
0.48022	0.10015
0.14870	0.25320
0.22521	0.15117
-0.00431	0.68683
-0.23382	-0.63957
-0.10631	0.58480
-0.38683	0.15117
-0.28482	1.35003
0.25071	-0.30797
0.58223	-0.23145
0.68424	-0.10391
0.81175	-0.18043
0.70974	-0.41000
0.73524	0.22769
-0.13181	0.76336
-0.43783	0.38074
-0.97337	0.50828
-0.82036	0.73785
0.78624	-0.10391
0.93925	-0.23145
0.78624	-0.51203
0.07220	0.02363
0.12320	-0.28246
0.73524	0.58480
0.32721	0.96742
0.14870	0.40625
0.17421	0.02363
-0.99887	0.45726
-0.28482	-0.15492
0.32721	-0.15492
0.63323	-0.15492
0.60773	-0.35899
0.25071	-0.81812
-0.02981	0.58480
-0.36133	1.12046
0.14870	0.71234
0.14870	-0.10391
-0.00431	0.78886
-0.36133	0.66132
-0.79486	-0.43551
-0.05531	-1.22625
0.99026	0.61031
1.01576	-0.84363
0.53123	-1.17523
0.22521	1.91120
0.32721	0.63582
0.07220	0.15117
-0.13181	0.40625
0.04670	0.73785
0.42922	-0.05289
0.09770	-0.53754
0.25071	0.20219
0.32721	-0.10391
-0.05531	0.50828
-0.69285	0.50828
-0.64185	0.55929
-0.25932	0.40625
0.14870	0.27871
0.42922	-0.53754
0.32721	-0.33348
1.32178	-0.07840
1.14327	-0.18043
0.76074	0.20219
-0.05531	0.66132
-1.04987	0.96742
-0.41233	0.25320
-0.20832	0.02363
-0.36133	0.10015
0.14870	-0.18043
1.09226	-0.25695
0.96476	-0.23145
0.81175	-0.28246
0.65874	-0.15492
0.27621	0.86539
-0.31033	1.17148
-0.87136	0.66132
-0.92237	0.20219
-0.05531	0.71234
0.12320	-0.05289
0.32721	-1.45582
0.53123	0.02363
0.45472	-0.00188
0.50573	-0.74160
0.30171	-0.48652
-0.05531	0.78886
-0.25932	0.58480
-0.08081	0.63582
-0.13181	1.06945
0.12320	0.96742
0.40372	-1.02219
0.48022	-0.61406
0.37822	-0.25695
0.73524	0.10015
0.27621	0.48277
-0.15732	0.66132
0.14870	1.04394
0.27621	0.35523
-0.41233	0.02363
-0.51434	-0.02739
-0.38683	-0.28246
-0.59084	-0.58856
0.35272	-0.23145
1.42379	-0.05289
1.16877	0.86539
0.76074	0.91640
0.14870	0.20219
0.09770	0.25320
-0.23382	-0.18043
0.02119	-0.28246
0.30171	-0.12942
-0.31033	-0.10391
0.14870	-0.02739
0.45472	-1.12422
0.17421	0.43176
-0.10631	1.75816
-0.33583	0.15117
-0.20832	0.38074
-0.25932	0.94191
-0.05531	0.50828
0.27621	-1.12422
0.37822	-1.78742
0.55673	0.45726
0.76074	-0.86914
0.53123	0.99292
-0.18282	2.54890
-0.43783	1.29902
-0.18282	-0.00188
-0.20832	-0.48652
0.25071	-1.12422
0.58223	-1.27726
0.60773	-0.58856
0.88825	0.20219
0.45472	0.30422
-0.31033	0.73785
-0.69285	1.01843
-0.69285	0.91640
-0.33583	0.78886
0.40372	0.66132
1.06676	-0.00188
0.76074	-0.71609
0.50573	-0.41000
-0.23382	-0.18043
0.09770	-0.38449
0.37822	0.12566
-0.13181	0.50828
-0.43783	0.38074
-0.08081	0.15117
-0.18282	0.99292
0.30171	-0.23145
0.14870	-0.61406
0.07220	-0.18043
-0.08081	-0.02739
0.58223	-1.02219
0.60773	0.35523
0.30171	2.21730
0.09770	1.12046
0.09770	-0.20594
-0.00431	1.04394
-0.00431	-0.02739
0.30171	-1.43031
0.12320	-2.14453
-0.02981	0.91640
0.27621	0.38074
0.60773	0.73785
0.22521	0.78886
-0.02981	0.50828
0.32721	0.32972
-0.20832	0.40625
-0.23382	-0.05289
-1.02437	-0.20594
-0.10631	-0.61406
0.88825	-0.51203
1.19427	-0.15492
0.07220	0.43176
-0.02981	0.96742
-0.15732	0.96742
-0.05531	0.73785
0.14870	1.01843
0.48022	0.15117
0.58223	-0.71609
0.37822	-0.79262
0.22521	-0.51203
-0.02981	-0.46102
-0.13181	0.48277
0.02119	0.63582
0.12320	0.30422
0.22521	1.32453
0.04670	1.65613
-0.15732	-0.07840
0.04670	-1.07320
-0.15732	-0.43551
0.17421	-1.37929
0.42922	-1.55785
0.68424	0.99292
0.14870	1.73265
-0.00431	0.99292
0.02119	0.53379
-0.08081	1.14597
0.07220	-0.43551
0.37822	-1.45582
0.42922	-0.53754
0.12320	-0.74160
0.27621	0.53379
0.22521	1.14597
0.27621	0.94191
0.12320	0.25320
-0.23382	-0.18043
-1.02437	0.45726
-1.40690	0.15117
0.35272	-1.04770
0.48022	0.30422
0.86275	0.83988
1.32178	0.48277
0.83725	0.15117
0.78624	0.55929
-0.10631	0.38074
-0.33583	0.07465
-0.33583	0.58480
-0.56534	-0.41000
-0.02981	-0.97117
0.42922	-0.69059
0.22521	0.10015
0.04670	-0.28246
0.09770	0.32972
0.22521	1.24800
0.04670	0.83988
-0.05531	0.63582
-0.10631	0.30422
0.12320	0.30422
0.19971	-0.51203
0.42922	0.20219
0.25071	0.43176
0.14870	-1.17523
0.48022	-0.28246
0.22521	0.99292
0.17421	1.24800
0.02119	0.32972
-0.25932	0.43176
-0.38683	-0.15492
-0.02981	-0.74160
0.53123	-0.61406
0.63323	-0.05289
0.63323	-0.25695
0.45472	0.53379
0.04670	0.83988
-0.53984	0.58480
-0.76936	0.68683
-0.23382	0.91640
0.07220	0.10015
0.86275	-0.41000
0.81175	0.10015
0.58223	-0.07840
0.53123	-1.09871
-0.51434	-0.94566
-0.48884	1.35003
0.35272	0.81437
0.60773	0.68683
0.14870	0.91640
0.02119	0.07465
0.07220	-0.38449
0.22521	-0.84363
0.35272	-0.25695
0.60773	-0.41000
0.50573	1.27351
0.12320	1.24800
-0.25932	0.15117
-0.71835	-0.46102
-1.07538	-0.48652
-0.31033	1.01843
0.48022	-0.43551
0.91375	-0.58856
0.78624	-0.23145
0.58223	0.35523
0.02119	0.58480
0.09770	1.68163
0.02119	0.58480
0.30171	-0.51203
-0.00431	0.45726
0.12320	-0.05289
0.07220	-0.66508
0.09770	-0.30797
-0.08081	0.20219
-0.02981	-0.05289
0.30171	-0.05289
0.50573	0.63582
0.73524	1.12046
0.42922	0.58480
-0.46334	0.78886
-0.33583	0.53379
-0.28482	-0.33348
0.53123	-0.94566
0.76074	-0.74160
0.99026	-0.46102
0.45472	0.45726
-0.33583	0.71234
-0.31033	0.99292
-0.56534	0.50828
-0.56534	0.15117
0.12320	0.04914
0.32721	-1.07320
0.73524	-0.69059
0.63323	0.15117
0.70974	0.45726
0.09770	1.09496
-0.10631	0.20219
-0.59084	0.43176
-0.46334	0.04914
0.04670	1.09496
0.02119	0.55929
0.30171	-0.15492
0.65874	-0.48652
0.60773	-1.40480
0.65874	-1.07320
0.63323	0.55929
0.12320	1.37554
-0.18282	0.63582
-0.66735	0.91640
-0.79486	1.09496
-0.15732	-0.30797
0.45472	-0.79262
0.81175	-0.18043
0.70974	0.02363
0.07220	0.04914
-0.10631	0.40625
0.22521	0.58480
0.19971	0.66132
0.25071	0.63582
-0.28482	0.96742
-0.59084	-0.00188
0.37822	-0.58856
0.68424	-1.04770
-0.08081	-0.51203
0.35272	-0.69059
0.81175	0.50828
0.50573	0.99292
0.42922	0.58480
0.12320	0.63582
-0.99887	0.61031
-0.38683	-0.07840
0.37822	0.10015
0.30171	-1.53234
0.48022	-1.12422
0.68424	1.17148
0.09770	1.27351
-0.13181	-0.15492
-0.13181	0.43176
-0.02981	1.32453
-0.18282	-0.05289
-0.00431	-0.15492
-0.13181	0.15117
0.55673	0.81437
0.53123	-1.07320
0.70974	-1.96597
0.42922	0.35523
-0.02981	0.96742
-0.23382	0.78886
0.12320	0.76336
-0.08081	0.66132
-0.15732	-0.89465
0.14870	-1.02219
0.27621	-0.10391
0.30171	0.32972
0.07220	0.22769
0.17421	0.68683
0.30171	0.91640
0.22521	0.86539
0.27621	0.45726
-0.18282	0.32972
0.17421	-0.02739
0.04670	-0.71609
0.19971	-1.02219
-0.53984	-0.28246
0.19971	-0.18043
0.55673	0.45726
0.32721	0.38074
0.22521	1.22250
0.04670	0.61031
-0.05531	0.15117
-0.56534	-0.07840
0.27621	-1.14973
0.42922	0.43176
0.40372	0.76336
0.58223	-0.02739
0.40372	0.53379
-0.28482	-0.56305
-0.31033	0.53379
0.02119	0.22769
-0.20832	-0.07840
0.32721	-0.15492
0.50573	0.10015
0.68424	-0.30797
0.12320	-0.05289
0.25071	-0.05289
-0.18282	0.58480
-0.41233	0.89089
-0.38683	0.91640
-0.08081	0.53379
0.48022	0.43176
0.68424	-0.12942
0.73524	-0.69059
0.60773	-0.86914
0.53123	-0.46102
0.17421	-1.14973
0.35272	0.53379
-0.15732	1.73265
-1.07538	0.91640
-0.25932	0.81437
0.04670	0.73785
0.17421	0.15117
0.22521	-0.38449
0.55673	-1.07320
0.73524	-1.20074
0.60773	-0.69059
0.22521	0.81437
-0.87136	1.40105
0.09770	0.81437
0.40372	0.15117
0.19971	0.53379
0.27621	0.02363
0.22521	-0.48652
-0.00431	-1.76191
0.09770	0.83988
0.40372	0.53379
0.88825	-0.05289
0.17421	0.83988
-0.61635	1.47757
-0.84586	-0.02739
-0.71835	0.48277
0.60773	-0.10391
1.01576	-0.99668
0.96476	-1.17523
0.81175	-0.05289
0.12320	0.35523
-0.51434	0.76336
-0.23382	1.09496
-0.08081	0.76336
0.22521	0.55929
-0.02981	0.38074
0.14870	-0.12942
0.40372	-0.71609
0.25071	-0.66508
0.32721	0.07465
-0.00431	0.32972
-0.20832	0.48277
-0.05531	0.25320
-0.18282	0.61031
0.37822	0.17668
0.12320	0.81437
0.14870	0.12566
0.42922	-0.23145
0.45472	-0.18043
0.32721	0.04914
0.73524	-0.51203
0.48022	-0.97117
-0.05531	0.58480
-0.79486	1.12046
-0.25932	0.50828
-0.02981	0.94191
-0.13181	0.10015
0.30171	-0.97117
0.04670	0.10015
0.73524	0.30422
1.09226	-0.94566
0.81175	-0.12942
0.45472	0.63582
0.19971	0.96742
-0.48884	1.12046
-1.07538	0.91640
-0.76936	0.30422
-0.18282	-0.41000
0.58223	-0.58856
1.06676	-0.10391
0.81175	-0.58856
0.53123	-0.10391
0.27621	0.78886
-0.20832	0.40625
-0.64185	0.40625
-0.48884	0.86539
0.25071	0.15117
0.45472	-0.38449
0.60773	-0.48652
0.60773	-0.25695
0.40372	-0.35899
-0.00431	0.17668
-0.46334	-0.35899
-0.02981	1.22250
0.17421	1.32453
-0.02981	1.29902
-0.18282	0.45726
-0.41233	-0.71609
-0.10631	-0.56305
0.48022	-1.58336
1.09226	-1.73640
0.42922	1.06945
0.35272	1.75816
0.35272	1.45206
0.19971	0.71234
-0.33583	0.55929
-0.08081	-0.12942
0.25071	-0.41000
0.30171	-0.28246
0.02119	0.07465
0.48022	-0.23145
0.48022	-0.05289
-0.15732	-0.07840
-0.48884	0.40625
-0.28482	0.76336
-0.25932	1.09496
-0.10631	0.15117
0.32721	-0.71609
1.11776	-0.46102
0.93925	0.10015
0.32721	-0.18043
-0.36133	0.43176
-0.74385	0.91640
-0.25932	0.50828
0.27621	0.10015
0.42922	0.45726
0.53123	-0.05289
0.53123	-0.46102
0.88825	-0.69059
0.68424	0.12566
0.45472	0.91640
-0.10631	0.55929
-0.71835	-0.25695
-0.05531	-0.18043
-0.23382	-0.66508
-0.23382	0.30422
0.04670	1.52859
0.32721	0.17668
0.32721	-0.02739
0.40372	-0.35899
0.37822	-0.48652
0.22521	0.04914
0.02119	0.02363
-0.02981	0.15117
-0.10631	0.22769
-0.18282	1.35003
0.17421	0.38074
0.99026	0.20219
0.93925	-0.10391
0.30171	-0.53754
-0.28482	-0.56305
-1.33039	0.17668
-0.05531	0.55929
1.16877	0.76336
0.81175	0.50828
0.07220	0.91640
-0.53984	0.15117
-0.43783	-0.74160
0.35272	-1.12422
0.63323	-0.18043
0.60773	-0.53754
1.09226	1.04394
0.50573	1.06945
0.02119	-0.18043
-0.05531	0.32972
-0.46334	0.45726
-0.56534	-0.00188
-0.28482	-0.05289
0.17421	-0.51203
0.30171	-0.56305
0.32721	0.38074
0.04670	-0.92016
-0.23382	1.29902
0.09770	1.91120
0.27621	0.76336
0.07220	0.48277
0.22521	-0.81812
0.09770	-0.99668
0.14870	-0.18043
0.50573	-0.69059
0.65874	-1.35379
0.63323	0.17668
0.45472	1.63062
0.19971	1.63062
-0.43783	1.01843
-0.59084	0.94191
-0.25932	-0.43551
0.35272	-0.43551
0.68424	-0.56305
0.12320	-0.20594
-0.13181	-0.18043
0.42922	-0.12942
0.73524	0.71234
-0.00431	0.96742
-0.46334	0.78886
-0.92237	0.71234
-0.02981	-0.35899
0.17421	-0.86914
1.14327	-0.43551
0.81175	0.43176
0.73524	-0.07840
0.40372	0.30422
0.07220	0.58480
-0.28482	0.27871
-0.71835	-0.18043
-0.92237	0.71234
-0.05531	0.43176
0.70974	0.38074
0.73524	-0.23145
0.76074	-2.22105
0.32721	0.55929
0.02119	1.55410
-0.05531	0.55929
0.02119	-0.07840
0.07220	0.55929
-0.13181	-0.66508
0.04670	0.10015
0.40372	0.20219
0.48022	0.30422
0.14870	-0.18043
0.30171	-0.28246
0.37822	-0.56305
-0.18282	0.17668
0.17421	0.55929
0.42922	0.91640
-0.23382	1.22250
-0.46334	0.35523
-0.66735	-0.38449
0.14870	-0.43551
1.01576	0.35523
1.34728	-0.05289
0.78624	0.25320
-0.02981	0.20219
-0.08081	0.32972
-0.13181	0.55929
0.19971	0.76336
0.02119	-0.51203
-0.08081	-1.32828
-0.18282	-0.46102
-0.08081	0.15117
0.53123	0.10015
0.19971	0.48277
-0.02981	1.04394
-0.05531	0.58480
-0.13181	0.12566
-0.53984	0.86539
-0.08081	0.58480
0.60773	-0.02739
0.55673	-0.61406
0.42922	-1.04770
0.55673	-0.81812
0.30171	0.66132
-0.13181	1.27351
0.04670	0.53379
0.40372	0.45726
0.30171	0.38074
-0.08081	0.17668
-0.33583	-0.41000
-0.51434	-0.51203
0.07220	-0.33348
0.48022	-1.43031
0.88825	0.53379
0.53123	1.60511
-0.25932	1.22250
0.37822	0.73785
-0.02981	0.68683
0.14870	-0.12942
0.42922	-0.35899
0.48022	-0.38449
0.63323	-0.05289
0.50573	-0.18043
0.17421	-0.33348
-1.04987	-0.76711
-1.10088	0.89089
-1.30489	1.57960
-0.51434	0.91640
0.70974	-0.07840
1.29628	-1.07320
1.39828	-0.74160
0.91375	-1.30277
0.55673	0.32972
-0.02981	1.52859
0.02119	0.91640
-0.10631	0.10015
-0.20832	0.35523
-0.28482	0.50828
-0.08081	-0.35899
0.09770	-0.58856
0.35272	-1.20074
0.17421	0.99292
0.53123	-0.20594
0.37822	-0.51203
0.17421	0.58480
0.12320	0.78886
-0.00431	1.17148
-0.28482	0.96742
-0.18282	-0.51203
0.30171	-0.97117
0.55673	-0.46102
0.48022	-0.18043
0.50573	-0.02739
0.37822	0.76336
-0.36133	1.12046
-0.00431	0.53379
0.02119	0.20219
-0.15732	0.45726
-0.00431	-0.02739
0.53123	-0.28246
0.83725	-0.76711
0.58223	0.50828
0.55673	-0.00188
-0.08081	-0.07840
-0.59084	0.32972
-0.74385	0.71234
-0.28482	0.10015
-0.00431	0.63582
0.35272	0.02363
0.65874	-0.33348
0.76074	-0.23145
0.65874	-1.30277
0.73524	1.22250
0.14870	0.99292
-0.33583	0.83988
-0.36133	0.40625
-0.28482	-0.05289
-0.64185	0.04914
0.07220	-0.38449
0.45472	-0.56305
0.42922	-0.28246
0.93925	-0.20594
0.76074	-0.43551
0.14870	0.61031
-0.33583	1.09496
-0.36133	0.94191
0.09770	0.55929
-0.48884	0.38074
-0.33583	-0.02739
0.42922	-0.33348
0.65874	-0.23145
0.50573	-0.10391
0.96476	-0.20594
0.63323	0.30422
-0.02981	0.55929
-0.10631	0.55929
-0.31033	0.22769
-0.64185	0.76336
-0.41233	0.04914
-0.08081	0.02363
0.70974	-1.53234
0.63323	-0.43551
0.63323	-0.00188
0.27621	0.55929
0.04670	1.27351
-0.13181	0.89089
-0.05531	-0.18043
-0.15732	0.30422
0.02119	0.43176
0.30171	-0.18043
0.60773	-1.27726
0.37822	0.58480
0.40372	-0.02739
0.17421	0.35523
0.07220	0.50828
0.02119	-0.20594
-0.08081	-0.07840
-0.33583	0.63582
-0.38683	0.48277
1.09226	-0.25695
0.93925	0.10015
0.58223	-0.07840
-0.87136	-0.79262
-1.94243	0.32972
0.48022	1.37554
0.86275	0.94191
1.19427	0.04914
0.70974	0.73785
0.14870	0.02363
-0.08081	-0.48652
0.35272	-0.38449
0.27621	-0.02739
0.42922	-0.12942
-0.08081	0.02363
-0.20832	0.15117
-0.25932	0.45726
-0.36133	0.68683
-0.71835	0.58480
-0.15732	0.25320
0.35272	0.35523
0.42922	-0.71609
0.63323	-0.66508
0.83725	0.48277
0.58223	0.58480
0.14870	0.35523
-0.13181	-0.12942
-0.23382	0.10015
-0.08081	0.58480
0.04670	0.20219
0.35272	-0.99668
0.60773	-0.86914
0.42922	0.25320
0.40372	-0.15492
0.19971	1.45206
-0.33583	1.17148
0.02119	0.71234
-0.28482	0.55929
0.07220	0.76336
0.73524	-0.00188
0.22521	-0.48652
0.17421	-0.56305
-0.97337	-0.56305
-0.89686	-0.79262
0.70974	0.15117
0.76074	0.86539
0.50573	0.76336
0.93925	0.30422
0.60773	0.43176
0.12320	0.25320
0.19971	-0.25695
0.02119	-0.69059
-0.38683	-1.48133
0.30171	0.53379
0.35272	1.24800
-0.08081	1.22250
-0.31033	0.61031
-0.36133	0.04914
-0.36133	0.32972
0.09770	-0.05289
0.42922	-0.15492
0.53123	-1.07320
0.58223	0.38074
0.55673	-0.33348
0.22521	-0.76711
-0.00431	0.50828
-0.31033	1.14597
-0.25932	1.29902
0.09770	0.76336
0.40372	0.96742
0.48022	-0.53754
0.53123	-1.22625
0.42922	-0.69059
0.27621	-0.38449
0.09770	0.10015
-0.13181	0.86539
-0.69285	1.17148
-0.31033	0.73785
-0.28482	0.40625
0.12320	-0.05289
0.65874	-0.30797
1.19427	-0.51203
1.11776	-0.12942
0.32721	-0.35899
-0.25932	0.02363
-0.33583	0.68683
-0.13181	0.63582
0.12320	0.38074
-0.00431	0.78886
-0.08081	0.30422
0.07220	-1.48133
-0.20832	-1.07320
0.12320	0.55929
0.78624	0.76336
0.55673	0.32972
0.14870	-0.97117
0.09770	0.99292
-0.10631	0.76336
0.17421	0.66132
0.07220	0.45726
-0.00431	0.38074
-0.61635	-1.07320
-0.46334	-0.53754
0.50573	-0.46102
0.81175	0.63582
0.81175	0.73785
0.48022	0.38074
0.48022	-0.02739
0.07220	0.94191
-0.10631	0.04914
0.07220	-0.05289
-0.08081	-0.48652
-0.31033	-0.25695
0.30171	-0.41000
0.02119	0.12566
-0.02981	0.48277
0.09770	1.09496
0.19971	1.01843
0.25071	0.58480
0.14870	-0.58856
0.35272	-0.23145
0.25071	-0.46102
0.37822	0.32972
0.53123	-0.43551
0.12320	-0.46102
-0.05531	0.76336
-0.23382	0.89089
0.09770	0.48277
-0.23382	1.19699
-0.38683	0.50828
0.40372	-0.00188
0.02119	-0.63957
0.30171	-0.63957
0.93925	-0.58856
0.09770	1.04394
0.07220	-0.20594
0.22521	-1.37929
0.07220	0.58480
-0.02981	1.42656
-0.15732	0.68683
0.40372	-0.69059
0.35272	-0.25695
0.14870	-0.12942
0.63323	0.20219
0.17421	0.96742
-0.20832	0.61031
-0.05531	0.61031
-0.10631	0.27871
-0.08081	0.32972
-0.00431	-0.41000
0.27621	-0.30797
0.02119	0.27871
-0.18282	0.04914
0.83725	-0.61406
0.68424	-0.07840
0.22521	0.58480
0.04670	0.63582
-0.02981	0.63582
-0.28482	0.61031
0.07220	-0.02739
0.45472	-0.20594
0.58223	-0.05289
0.22521	-0.07840
-0.13181	-1.48133
-0.13181	0.04914
0.09770	1.40105
-0.10631	0.96742
-0.20832	-0.63957
0.17421	1.68163
0.22521	1.22250
0.53123	-0.69059
0.50573	-1.02219
0.48022	0.58480
0.37822	-0.81812
0.04670	-1.09871
-0.20832	0.55929
0.02119	2.14077
0.07220	1.01843
-0.00431	0.55929
-0.10631	-0.28246
-0.08081	-0.53754
-0.10631	-0.56305
0.02119	0.07465
0.81175	-0.12942
0.88825	-0.10391
0.30171	-0.33348
-0.38683	0.63582
-0.25932	1.01843
0.19971	1.19699
0.30171	0.38074
-0.13181	-0.23145
0.14870	-0.23145
0.50573	-0.41000
1.19427	-0.28246
0.65874	0.27871
0.22521	0.45726
-0.82036	-0.00188
-0.64185	0.32972
-0.53984	1.01843
-0.41233	0.50828
0.22521	-1.07320
0.91375	-1.50683
0.86275	0.27871
0.86275	-0.23145
0.32721	0.27871
0.17421	1.55410
-0.23382	1.52859
-0.61635	1.04394
-0.92237	0.63582
-0.15732	-0.94566
0.50573	-1.14973
0.68424	-0.71609
0.76074	-0.23145
0.63323	-0.46102
0.17421	-0.05289
0.07220	0.81437
-0.20832	0.96742
-0.28482	0.86539
-0.20832	0.73785
0.09770	0.35523
0.35272	-0.35899
0.53123	-0.61406
0.58223	-0.35899
0.32721	-0.25695
0.02119	-0.00188
0.12320	0.96742
-0.00431	0.50828
-0.18282	0.81437
-0.38683	0.71234
-0.10631	-0.28246
0.83725	-0.76711
0.83725	-0.38449
0.12320	-0.23145
-0.33583	-0.25695
0.55673	0.27871
0.22521	0.45726
-0.08081	0.20219
0.22521	1.91120
-0.13181	1.22250
0.12320	-0.99668
0.35272	-1.25176
0.35272	-0.97117
0.19971	1.06945
-0.08081	0.32972
0.04670	0.02363
0.22521	0.27871
0.09770	0.50828
-0.28482	0.30422
-0.46334	0.17668
0.37822	0.83988
0.58223	-0.18043
0.53123	-1.27726
0.55673	-0.48652
0.50573	0.10015
0.19971	0.71234
0.07220	1.06945
0.02119	0.86539
-0.10631	0.48277
-0.20832	0.68683
0.07220	0.04914
0.17421	-0.79262
0.37822	-0.74160
0.27621	-0.10391
0.17421	-0.15492
-0.13181	0.35523
0.12320	0.66132
-0.02981	0.78886
0.22521	0.22769
-0.08081	0.53379
-0.66735	0.15117
0.60773	-0.51203
0.68424	-0.12942
0.48022	-0.00188
0.93925	-0.66508
0.86275	-0.43551
0.32721	0.89089
-0.10631	1.86019
-0.31033	0.40625
-0.61635	-0.33348
-0.59084	-0.05289
-0.05531	-0.56305
0.27621	-0.20594
0.32721	0.81437
0.50573	0.27871
0.25071	-0.48652
-0.02981	1.37554
-0.10631	0.48277
0.09770	-2.04250
-0.08081	-0.56305
0.12320	1.01843
0.42922	0.35523
0.27621	0.17668
0.19971	0.32972
0.65874	-0.25695
0.60773	-0.02739
0.19971	0.81437
-0.10631	0.63582
-0.20832	0.53379
-0.59084	0.71234
0.09770	-0.10391
0.25071	-0.74160
0.17421	-0.69059
0.42922	-0.07840
0.45472	-0.33348
0.40372	0.35523
0.14870	0.83988
-0.23382	0.73785
0.09770	0.71234
-0.23382	0.76336
0.27621	-0.33348
0.70974	-0.92016
0.55673	-0.56305
0.22521	0.15117
0.30171	0.25320
0.07220	0.40625
-0.08081	0.07465
-0.18282	0.73785
-0.28482	0.86539
-0.41233	0.55929
-0.28482	-0.30797
0.09770	-0.92016
0.22521	0.25320
0.73524	1.32453
0.78624	-0.46102
0.37822	-1.20074
0.19971	-0.25695
0.14870	0.71234
0.19971	0.04914
-0.23382	0.71234
-0.13181	1.32453
0.14870	0.66132
0.19971	-1.40480
0.19971	-0.61406
0.50573	-0.41000
0.60773	0.43176
0.40372	1.24800
-0.18282	1.68163
-0.59084	0.50828
-0.18282	0.20219
-0.18282	-0.35899
0.55673	-0.58856
0.81175	-0.66508
0.25071	-0.20594
0.65874	-0.48652
0.19971	-0.00188
-0.13181	0.66132
-0.53984	0.68683
-0.51434	0.53379
0.09770	0.96742
0.48022	0.38074
0.53123	-0.43551
0.83725	-0.48652
0.45472	-0.79262
0.27621	-0.15492
0.02119	0.83988
-0.08081	0.76336
-0.25932	-0.12942
-0.08081	0.50828
-0.33583	0.68683
-0.00431	0.22769
0.25071	-0.69059
0.68424	0.83988
0.70974	-0.20594
0.37822	-3.98109
0.17421	1.22250
-0.53984	2.03874
-0.59084	0.35523
0.25071	0.63582
0.14870	1.91120
0.30171	0.45726
0.68424	-0.86914
0.58223	-1.32828
0.40372	-0.84363
0.12320	-0.15492
-0.10631	0.02363
-0.23382	-0.02739
-0.15732	1.22250
-0.33583	0.83988
-0.02981	0.89089
0.48022	0.17668
0.53123	-0.25695
0.30171	-0.25695
0.53123	-0.02739
0.63323	-0.07840
0.40372	0.35523
-0.08081	0.71234
-0.28482	0.32972
-0.28482	0.27871
-0.41233	0.73785
-0.28482	-0.10391
