0.40372	-0.38449
0.30171	0.22769
0.04670	0.45726
-0.23382	0.53379
-0.00431	0.55929
-0.13181	0.73785
-0.02981	0.30422
0.27621	-0.18043
0.32721	-0.43551
0.30171	-0.12942
0.50573	-0.41000
0.27621	0.04914
0.17421	0.63582
-0.05531	0.53379
-0.15732	0.38074
-0.36133	0.66132
0.09770	0.10015
0.22521	-0.38449
0.53123	-0.35899
0.53123	-0.15492
0.40372	-0.15492
0.32721	0.25320
-0.05531	0.53379
-0.13181	0.55929
-0.02981	0.55929
-0.13181	0.55929
0.12320	0.12566
0.17421	-0.30797
0.37822	-0.41000
0.35272	-0.15492
0.32721	-0.35899
0.35272	0.12566
0.02119	0.73785
-0.13181	0.55929
-0.08081	0.48277
-0.10631	0.71234
-0.05531	0.10015
0.27621	-0.25695
0.40372	-0.25695
0.30171	-0.20594
0.42922	-0.28246
0.27621	0.17668
-0.00431	0.43176
-0.05531	0.50828
-0.08081	0.48277
-0.18282	0.66132
0.04670	0.32972
0.30171	-0.25695
0.35272	-0.38449
0.45472	-0.07840
0.35272	-0.35899
0.22521	0.04914
0.12320	0.50828
-0.15732	0.63582
-0.05531	0.45726
-0.10631	0.78886
0.07220	0.38074
0.22521	-0.25695
0.35272	-0.33348
0.35272	-0.25695
0.42922	-0.38449
0.37822	0.17668
0.04670	0.66132
-0.13181	0.55929
-0.15732	0.32972
-0.18282	0.55929
0.02119	0.17668
0.37822	-0.28246
0.32721	-0.41000
0.35272	-0.07840
0.48022	-0.33348
0.27621	0.20219
0.14870	0.68683
-0.13181	0.55929
-0.23382	0.38074
-0.38683	0.63582
0.17421	0.17668
0.42922	-0.25695
0.30171	-0.48652
0.30171	-0.18043
0.48022	-0.28246
0.37822	0.22769
0.14870	0.55929
-0.08081	0.55929
-0.13181	0.45726
-0.05531	0.68683
0.02119	0.25320
0.27621	-0.33348
0.25071	-0.38449
0.37822	-0.23145
0.45472	-0.35899
0.32721	0.25320
0.02119	0.63582
-0.18282	0.50828
-0.13181	0.40625
-0.13181	0.55929
0.07220	0.35523
0.19971	-0.23145
0.35272	-0.41000
0.30171	-0.43551
0.42922	-0.28246
0.40372	0.30422
0.17421	0.76336
-0.02981	0.66132
-0.02981	0.48277
-0.20832	0.66132
0.02119	0.15117
0.32721	-0.30797
0.37822	-0.38449
0.22521	-0.20594
0.27621	-0.35899
0.32721	0.22769
0.07220	0.55929
-0.02981	0.50828
-0.10631	0.35523
-0.08081	0.58480
0.04670	0.22769
0.32721	-0.30797
0.42922	-0.35899
0.35272	-0.07840
0.32721	-0.38449
0.19971	0.17668
0.12320	0.50828
-0.02981	0.50828
-0.15732	0.43176
-0.18282	0.71234
-0.00431	0.22769
0.30171	-0.18043
0.48022	-0.25695
0.30171	0.02363
0.35272	-0.28246
0.25071	-0.02739
-0.02981	0.53379
-0.08081	0.48277
0.02119	0.40625
-0.18282	0.55929
0.02119	0.15117
0.27621	-0.28246
0.42922	-0.35899
0.35272	-0.30797
0.55673	-0.35899
0.19971	0.12566
-0.18282	0.48277
-0.08081	0.68683
-0.05531	0.48277
0.07220	0.66132
-0.00431	0.35523
0.12320	-0.30797
0.40372	-0.35899
0.37822	-0.15492
0.37822	-0.38449
0.42922	0.17668
0.12320	0.66132
-0.13181	0.55929
-0.00431	0.50828
-0.10631	0.53379
0.02119	0.12566
0.19971	-0.25695
0.35272	-0.43551
0.32721	-0.15492
0.30171	-0.35899
0.30171	0.15117
0.02119	0.58480
-0.08081	0.35523
0.04670	0.50828
-0.08081	0.73785
0.04670	0.12566
0.32721	-0.23145
0.35272	-0.35899
0.37822	-0.15492
0.40372	-0.25695
0.09770	0.15117
0.12320	0.55929
-0.08081	0.55929
-0.10631	0.30422
0.07220	0.55929
0.07220	0.20219
0.22521	-0.25695
0.45472	-0.20594
0.32721	-0.23145
0.37822	-0.30797
0.25071	0.25320
-0.05531	0.53379
-0.02981	0.68683
-0.15732	0.45726
-0.13181	0.66132
0.02119	0.15117
0.17421	-0.35899
0.42922	-0.33348
0.32721	-0.20594
0.45472	-0.23145
0.27621	-0.05289
0.07220	0.73785
-0.00431	0.86539
0.02119	0.35523
-0.05531	0.50828
0.02119	0.15117
-0.00431	-0.38449
0.17421	-0.30797
0.32721	-0.07840
0.32721	-0.81812
0.32721	0.58480
0.17421	1.17148
0.25071	0.38074
0.45472	0.15117
-0.13181	0.68683
-0.25932	0.40625
-0.00431	-0.30797
0.32721	-0.81812
0.19971	-0.33348
-0.15732	-0.00188
0.07220	0.15117
0.63323	0.63582
0.93925	0.99292
0.91375	-0.15492
0.09770	0.45726
0.04670	0.40625
0.19971	-0.51203
-0.25932	-0.89465
-1.20288	0.40625
-0.64185	0.35523
0.22521	-0.89465
0.19971	0.81437
-0.51434	0.58480
-0.31033	1.75816
0.76074	0.96742
1.47479	-0.07840
1.37278	-0.86914
1.19427	-0.89465
0.91375	1.06945
0.17421	0.30422
-0.76936	-0.69059
-1.02437	-0.38449
-0.76936	-0.33348
-0.79486	0.94191
-1.43240	0.76336
-0.48884	0.07465
0.55673	-1.53234
1.21977	0.32972
1.37278	-0.25695
1.29628	0.22769
0.68424	0.86539
0.02119	1.75816
0.09770	0.45726
-0.00431	-0.76711
-0.15732	0.55929
-0.43783	0.17668
-0.00431	-0.84363
0.19971	-0.46102
0.35272	-0.35899
0.63323	-1.25176
0.53123	0.96742
-0.00431	1.63062
-0.08081	1.45206
0.14870	0.86539
-0.00431	0.38074
-0.15732	0.40625
-0.36133	-1.50683
-0.43783	-0.02739
-1.17738	-0.00188
0.27621	-2.39961
1.47479	1.68163
0.93925	0.50828
0.63323	0.55929
0.45472	0.40625
0.30171	0.91640
0.30171	-0.69059
0.35272	-0.79262
0.25071	-0.51203
-0.05531	0.81437
0.07220	-0.66508
-0.61635	-1.02219
-1.53441	-0.46102
-0.33583	0.89089
-0.28482	0.94191
0.48022	1.73265
0.99026	0.86539
1.42379	0.53379
0.76074	-0.02739
0.45472	-0.35899
0.42922	0.86539
0.32721	-0.02739
-0.46334	-0.30797
-1.12638	-1.48133
-0.00431	0.07465
-0.02981	0.25320
0.40372	0.63582
0.35272	0.25320
-0.00431	-1.50683
-0.15732	0.50828
0.12320	1.01843
0.35272	1.63062
0.48022	-0.76711
0.63323	0.22769
0.12320	0.99292
0.02119	-0.92016
0.17421	-3.67499
0.19971	2.88050
0.25071	2.77847
0.42922	-0.46102
0.22521	-3.29238
-0.02981	-0.28246
0.04670	-2.09351
0.07220	4.02835
0.02119	1.45206
-0.02981	1.29902
-0.46334	1.50308
-1.20288	0.99292
-0.89686	-1.50683
0.93925	-4.92487
1.85731	0.30422
0.42922	1.06945
-0.10631	1.22250
-0.33583	0.17668
-0.10631	0.25320
0.53123	0.58480
1.29628	0.04914
1.39828	-1.32828
-0.38683	1.88570
-0.38683	-0.28246
0.68424	-0.92016
0.35272	-1.99148
-0.20832	1.57960
-0.25932	0.20219
-0.23382	0.96742
-0.43783	0.35523
-0.48884	-0.94566
-0.10631	-0.56305
0.40372	-0.58856
0.53123	1.35003
0.40372	1.50308
0.35272	1.78367
-0.43783	-1.65988
-0.38683	2.19179
0.55673	0.50828
-0.18282	-0.86914
0.45472	-4.00659
0.14870	-0.66508
0.65874	-0.43551
0.83725	2.21730
0.65874	0.58480
0.60773	0.27871
0.07220	-1.27726
0.07220	-0.51203
-0.23382	0.55929
-1.33039	1.70714
-1.04987	1.09496
-0.20832	-1.40480
0.81175	-0.94566
-0.18282	0.25320
0.32721	0.38074
1.16877	0.99292
0.58223	1.27351
0.30171	0.91640
0.45472	0.78886
-0.41233	0.68683
-0.53984	-0.35899
0.60773	-0.79262
0.25071	-0.81812
0.09770	0.94191
0.07220	-0.30797
-0.00431	-1.07320
-0.08081	1.40105
-0.48884	1.70714
-0.61635	-3.39441
0.35272	1.55410
0.40372	1.29902
0.55673	-0.43551
-0.08081	-0.35899
0.55673	0.43176
1.16877	-5.23097
0.73524	5.30373
-0.13181	0.48277
-1.73842	-0.10391
-1.15188	0.02363
-0.33583	0.71234
0.99026	0.35523
1.14327	-0.43551
0.86275	-0.92016
1.16877	-0.12942
2.06133	0.63582
0.27621	0.22769
-0.18282	0.38074
-0.25932	0.43176
-1.73842	0.40625
-1.04987	0.22769
-0.74385	1.24800
-0.43783	0.32972
0.60773	-1.20074
0.96476	-0.12942
0.78624	-0.10391
0.32721	0.99292
0.40372	-0.92016
0.27621	1.63062
-0.66735	0.63582
-0.48884	0.91640
-0.74385	-0.89465
0.42922	-4.51675
1.19427	0.45726
0.91375	3.16108
0.40372	0.94191
-0.15732	0.99292
0.19971	0.83988
0.70974	-2.60367
0.81175	3.36515
0.17421	0.53379
-0.69285	0.96742
-2.17195	-0.53754
-1.76392	-1.43031
1.14327	-1.88945
1.78081	-3.34339
0.12320	-0.66508
-0.59084	1.55410
1.32178	1.91120
1.14327	0.07465
0.35272	2.14077
-0.33583	1.42656
-0.61635	0.71234
0.37822	-0.18043
0.73524	-0.20594
0.45472	-0.79262
0.07220	-0.92016
-0.33583	-1.17523
-0.25932	1.63062
-0.43783	1.70714
-0.36133	0.58480
-0.69285	2.31933
-0.02981	-0.79262
0.93925	-0.61406
1.01576	0.22769
0.81175	-1.35379
0.50573	-1.68539
0.27621	-0.25695
-0.51434	1.88570
-0.41233	0.12566
0.19971	-0.35899
-0.05531	0.81437
0.30171	0.55929
0.93925	0.22769
0.50573	1.01843
0.07220	0.25320
-1.96793	-0.48652
-1.40690	-0.43551
0.91375	2.03874
1.09226	0.27871
0.76074	-0.00188
0.96476	0.81437
0.96476	0.10015
0.70974	-0.35899
0.45472	-0.63957
-0.48884	-0.35899
0.37822	0.25320
1.04126	2.95702
-0.28482	-0.97117
-2.06994	-1.02219
-1.12638	0.55929
-0.48884	1.96222
-0.51434	0.78886
0.88825	-1.40480
1.72980	-1.53234
0.93925	-0.84363
0.22521	-3.24136
-0.28482	3.72225
0.14870	3.21210
0.37822	0.61031
0.30171	0.38074
0.19971	-2.73121
0.19971	-0.41000
0.19971	0.22769
0.40372	0.81437
0.27621	0.32972
-0.00431	-0.61406
-0.41233	-0.28246
-0.74385	0.55929
-0.28482	-1.96597
-0.02981	1.78367
-0.18282	2.39585
-1.20288	0.30422
0.37822	-0.38449
1.88281	-0.46102
1.67880	-0.20594
1.27078	0.12566
0.42922	0.94191
-0.02981	1.35003
0.17421	-0.15492
-0.18282	0.35523
-0.53984	-0.00188
-0.23382	0.55929
0.19971	-1.09871
-0.18282	-3.31788
0.07220	2.52339
0.07220	0.40625
0.22521	0.55929
0.42922	3.00804
-0.20832	0.68683
-0.38683	-0.53754
-0.20832	-1.22625
0.48022	-0.53754
0.53123	-1.40480
0.63323	1.22250
0.60773	0.96742
0.50573	0.76336
0.32721	-0.35899
-0.08081	-0.25695
-0.66735	-0.05289
-0.46334	0.81437
0.48022	-0.02739
0.58223	1.17148
0.02119	-0.38449
-1.17738	-0.71609
-1.35589	1.22250
-0.53984	0.15117
1.34728	-1.78742
1.98482	1.14597
1.78081	0.94191
0.73524	1.22250
-1.10088	0.02363
-0.84586	-0.53754
0.48022	0.35523
0.76074	1.27351
0.58223	-0.15492
0.14870	-0.97117
-0.48884	-2.04250
-0.33583	1.47757
-0.41233	0.07465
-0.41233	0.32972
-0.18282	2.16628
-0.13181	-1.68539
0.25071	0.32972
0.50573	-0.41000
0.70974	-1.17523
0.42922	-0.56305
-0.08081	0.20219
-0.10631	0.22769
0.35272	0.15117
0.25071	1.29902
0.30171	2.06425
-0.10631	1.06945
0.81175	-2.09351
0.70974	-1.32828
0.25071	-0.10391
-0.33583	-0.15492
0.60773	0.91640
0.07220	0.38074
-1.02437	0.32972
-1.50890	1.86019
-0.97337	1.63062
0.40372	-1.09871
1.72980	-1.63437
1.27078	0.22769
0.93925	-0.66508
0.99026	-0.30797
0.35272	1.01843
-0.20832	0.45726
-0.05531	1.06945
-1.35589	0.78886
-0.36133	-0.25695
-0.20832	1.06945
0.09770	0.25320
0.37822	-1.99148
0.53123	-0.15492
-0.02981	-1.78742
-0.48884	-0.53754
-0.48884	0.43176
-0.02981	1.78367
0.50573	2.80397
0.63323	0.30422
0.78624	1.96222
0.60773	-0.79262
0.27621	-2.39961
-0.31033	-1.30277
0.17421	-0.97117
0.35272	0.63582
0.14870	0.96742
0.07220	-0.35899
0.09770	0.66132
0.07220	1.09496
0.17421	0.22769
0.22521	-0.10391
-0.38683	0.50828
-0.59084	0.27871
0.86275	0.66132
-0.66735	0.20219
0.42922	-0.61406
0.78624	0.45726
-0.13181	1.78367
-0.64185	0.10015
-0.23382	-0.43551
0.35272	-0.20594
1.14327	-0.81812
0.70974	-0.46102
0.53123	-1.17523
0.12320	-0.41000
-0.10631	-0.12942
-0.48884	4.07936
-0.48884	1.47757
-0.00431	-3.29238
-0.43783	0.76336
-0.20832	0.73785
0.32721	0.27871
0.58223	-0.63957
0.81175	-0.58856
0.60773	3.11007
0.09770	2.62542
0.02119	0.66132
-0.10631	-0.56305
-0.36133	-0.94566
0.04670	-1.55785
0.32721	-0.86914
0.30171	-0.92016
0.48022	-0.56305
0.32721	0.81437
0.22521	1.37554
-0.10631	2.37034
0.09770	0.17668
-0.61635	-0.92016
0.27621	0.50828
-1.17738	0.04914
-0.84586	-0.10391
1.32178	0.48277
1.70430	0.25320
1.09226	-0.23145
0.04670	-0.41000
0.02119	0.45726
0.27621	1.09496
-0.10631	1.50308
-0.05531	1.01843
-0.28482	-1.17523
-0.15732	-2.32308
0.48022	-1.25176
1.24527	0.27871
-0.20832	2.31933
-0.31033	0.02363
-0.84586	-0.25695
-0.20832	0.73785
0.14870	0.78886
0.04670	-1.22625
0.35272	-0.30797
0.42922	0.20219
0.55673	0.35523
0.45472	0.20219
0.37822	0.89089
0.42922	0.61031
0.07220	-0.05289
-0.38683	0.38074
-0.36133	1.27351
-0.25932	0.43176
-0.33583	0.20219
0.35272	-0.38449
0.25071	-0.97117
0.22521	-0.48652
0.50573	0.17668
0.30171	0.12566
0.65874	0.25320
0.53123	0.45726
0.25071	0.45726
-0.10631	-0.02739
-0.38683	-0.00188
0.27621	-0.53754
0.63323	-0.02739
0.45472	0.15117
0.17421	-0.79262
0.25071	1.17148
-0.25932	1.37554
-0.56534	1.47757
-0.08081	0.73785
-0.25932	0.10015
-0.00431	0.20219
0.14870	-1.53234
0.14870	-2.22105
0.48022	-0.35899
0.42922	0.50828
0.27621	0.50828
0.17421	-0.84363
0.17421	2.16628
0.30171	2.03874
0.17421	1.01843
0.12320	0.48277
-0.00431	-0.10391
-0.41233	-1.63437
-0.15732	-2.17003
0.86275	-0.53754
0.32721	0.71234
0.22521	0.83988
0.14870	0.83988
0.17421	1.29902
0.22521	1.12046
0.73524	-0.10391
0.58223	-0.43551
-0.99887	-0.05289
-0.79486	-0.53754
0.37822	0.04914
0.76074	0.25320
0.48022	0.76336
0.25071	0.27871
0.19971	0.89089
-0.08081	-0.12942
0.32721	0.20219
0.14870	0.45726
0.32721	-1.53234
0.30171	-2.11902
0.14870	1.57960
-0.71835	0.89089
-0.66735	-1.20074
0.22521	0.55929
0.09770	2.26831
-0.05531	0.45726
0.37822	-0.74160
0.17421	-0.35899
1.04126	-0.51203
0.88825	0.04914
0.53123	0.10015
0.30171	0.58480
-0.69285	0.66132
0.07220	0.12566
-0.05531	0.25320
-0.13181	-0.12942
0.73524	-0.33348
0.70974	-0.10391
0.30171	0.12566
-0.08081	0.02363
-2.42696	0.30422
0.09770	0.78886
-0.33583	0.78886
0.81175	0.76336
1.11776	0.48277
0.83725	-0.12942
-1.40690	-0.30797
0.27621	-0.56305
-0.08081	-0.15492
0.65874	0.32972
0.83725	-0.12942
0.83725	-0.61406
0.73524	0.38074
0.42922	0.40625
0.04670	-0.71609
-0.74385	1.42656
-1.17738	0.02363
-0.56534	-0.53754
0.30171	3.00804
0.78624	-0.30797
0.32721	-4.36370
0.09770	-0.02739
0.19971	1.50308
-0.15732	1.42656
-0.18282	0.73785
0.12320	-0.56305
0.32721	0.48277
0.88825	0.76336
0.53123	-0.33348
0.32721	-1.14973
-0.18282	-0.58856
-1.12638	0.78886
0.25071	0.30422
0.07220	0.04914
0.19971	0.83988
0.68424	0.81437
-0.18282	-0.15492
1.06676	-0.35899
1.04126	-0.15492
0.83725	0.15117
0.22521	0.91640
-0.79486	0.32972
-1.07538	-1.30277
-0.36133	0.22769
0.12320	1.27351
0.32721	0.71234
0.37822	-0.41000
0.14870	0.50828
0.02119	-0.48652
-0.28482	-1.02219
0.25071	0.12566
0.42922	0.66132
0.27621	0.89089
-0.13181	-0.02739
-0.05531	-0.51203
0.37822	2.37034
0.30171	0.94191
0.19971	-2.17003
-0.38683	-1.88945
0.12320	0.20219
0.58223	0.50828
0.37822	0.35523
-0.61635	0.76336
-0.23382	0.15117
-0.00431	0.99292
0.68424	0.30422
0.60773	-0.23145
0.09770	-0.12942
0.37822	0.20219
0.50573	0.12566
0.22521	-0.18043
-0.59084	0.12566
-0.69285	0.61031
-0.53984	0.66132
0.70974	0.91640
1.01576	0.35523
0.63323	-0.10391
0.04670	-0.58856
-0.38683	-0.84363
0.42922	-1.22625
0.70974	0.89089
0.25071	1.12046
0.14870	1.17148
-0.74385	0.35523
-0.66735	-0.25695
0.32721	-0.46102
0.27621	1.09496
0.45472	-0.43551
0.45472	-0.58856
0.30171	-1.45582
0.19971	-0.56305
0.09770	1.09496
-0.18282	0.25320
-0.13181	0.91640
0.12320	2.03874
0.12320	1.04394
0.27621	-0.84363
0.45472	-0.94566
0.73524	-0.66508
0.12320	0.76336
0.27621	0.22769
-0.46334	-1.09871
-0.79486	0.25320
0.04670	0.91640
0.35272	1.17148
0.12320	0.48277
0.78624	-0.10391
-0.10631	-0.81812
0.48022	-0.48652
0.09770	0.76336
0.55673	0.43176
0.63323	0.55929
-0.25932	0.38074
-0.02981	-0.07840
0.09770	-0.25695
0.07220	0.50828
-0.08081	-0.15492
0.04670	0.63582
0.07220	0.10015
-0.00431	-0.99668
0.22521	-1.63437
0.78624	1.70714
0.45472	0.76336
0.02119	1.17148
-0.61635	0.38074
-1.20288	0.02363
0.19971	-0.41000
1.11776	0.15117
0.73524	-0.51203
0.53123	-1.35379
0.17421	-0.81812
0.27621	1.04394
0.35272	0.81437
0.27621	0.61031
-0.00431	1.86019
-0.51434	1.35003
-0.69285	-1.07320
0.35272	0.20219
0.63323	0.04914
0.53123	-0.18043
-0.02981	0.10015
-0.89686	0.15117
0.99026	0.04914
0.99026	-0.02739
-0.38683	0.50828
-0.18282	0.12566
-0.64185	-0.05289
0.19971	0.02363
1.37278	-0.35899
0.73524	-2.45062
0.58223	0.76336
0.53123	2.11527
0.42922	0.61031
-0.38683	0.73785
-0.87136	0.53379
-1.30489	-0.33348
-0.38683	-0.07840
0.58223	-0.00188
0.78624	0.10015
0.83725	0.45726
0.22521	0.61031
0.14870	1.09496
-0.38683	0.53379
-0.18282	-1.99148
0.60773	-0.86914
0.19971	-0.05289
0.12320	0.38074
-0.41233	0.48277
0.30171	0.02363
0.93925	-0.18043
0.60773	0.50828
0.32721	1.52859
0.12320	0.94191
-0.18282	0.07465
-0.33583	0.50828
-0.66735	-0.15492
-0.33583	-0.12942
0.19971	-0.30797
1.75531	-0.71609
1.14327	-0.18043
-0.05531	0.20219
0.14870	0.45726
-0.25932	0.63582
-0.94787	0.68683
-0.56534	0.66132
-0.08081	0.45726
0.73524	0.27871
0.78624	-1.68539
0.99026	0.35523
0.96476	0.89089
0.65874	0.38074
0.09770	-0.86914
-0.79486	0.63582
-0.48884	-0.99668
-0.43783	1.50308
-0.31033	0.76336
-0.10631	0.73785
0.32721	0.96742
0.68424	-0.41000
0.81175	-1.30277
0.48022	-0.46102
0.17421	-0.00188
0.04670	-0.10391
-0.02981	0.71234
-0.20832	1.57960
-0.10631	0.91640
0.09770	-0.30797
0.32721	-0.56305
0.32721	-0.66508
0.73524	1.14597
0.30171	-0.66508
-0.08081	-0.86914
-0.84586	0.76336
-0.41233	0.91640
-0.59084	1.29902
0.50573	0.55929
0.60773	-0.25695
0.81175	-0.28246
0.53123	0.38074
-0.10631	-0.89465
0.50573	-0.86914
0.91375	0.81437
0.68424	0.53379
0.25071	-0.81812
-0.05531	1.78367
-0.71835	0.78886
-0.64185	0.66132
0.30171	0.15117
-0.53984	0.40625
0.25071	-1.48133
0.42922	-3.11382
0.32721	0.96742
-0.00431	2.39585
0.02119	1.57960
-0.15732	-0.18043
-0.02981	0.32972
0.42922	-1.09871
0.32721	-1.12422
-0.00431	-0.30797
0.68424	-0.15492
0.63323	-0.33348
0.60773	0.61031
0.50573	1.57960
-0.20832	1.96222
-0.48884	0.53379
-1.17738	-1.48133
0.09770	0.12566
0.22521	-0.84363
0.76074	1.93671
0.99026	0.71234
0.55673	-0.99668
-0.13181	0.43176
-0.56534	1.40105
0.40372	-0.10391
0.48022	-0.43551
-0.08081	-0.23145
-0.82036	-1.20074
0.58223	-1.32828
0.70974	-0.10391
0.40372	-0.71609
0.78624	1.14597
0.37822	-0.35899
-0.38683	0.55929
-0.13181	2.44687
-0.18282	2.26831
-0.64185	-0.56305
-0.05531	-0.15492
0.42922	-1.55785
0.25071	1.27351
0.78624	2.62542
0.50573	-2.39961
0.30171	-0.92016
-0.31033	1.37554
-0.28482	2.29382
0.07220	0.55929
-0.43783	-0.81812
0.50573	-1.71090
1.19427	-1.25176
0.63323	-1.63437
0.48022	-0.38449
0.02119	0.83988
-0.74385	1.60511
-0.08081	-0.35899
0.40372	2.34484
0.32721	1.65613
0.04670	0.25320
-0.18282	-3.01179
-0.20832	1.04394
-0.36133	1.14597
0.60773	-0.12942
0.58223	-0.51203
0.19971	-0.00188
0.25071	-0.10391
0.17421	-0.25695
-0.28482	0.20219
-0.00431	0.73785
0.27621	-0.46102
-0.20832	-0.46102
-0.00431	-0.84363
0.32721	1.42656
0.32721	1.32453
-0.13181	-0.35899
0.63323	-0.58856
0.53123	0.10015
-0.08081	1.37554
0.12320	1.12046
0.37822	-0.12942
0.32721	-0.48652
0.14870	-1.60887
-0.05531	0.07465
0.02119	0.45726
-0.31033	1.42656
-0.46334	0.83988
-0.38683	-1.09871
0.53123	0.04914
0.58223	0.48277
-0.05531	0.12566
0.25071	-1.09871
0.76074	-0.23145
-0.48884	-0.02739
-0.10631	0.17668
0.55673	0.96742
1.06676	1.14597
0.19971	0.81437
0.35272	0.12566
-2.01894	0.22769
-1.07538	0.07465
1.11776	0.32972
0.93925	-0.02739
0.99026	-0.89465
0.78624	-0.79262
0.32721	0.15117
-0.05531	0.45726
-0.38683	-0.69059
-0.71835	0.58480
-0.36133	0.58480
0.17421	1.06945
0.45472	-0.05289
0.35272	0.35523
0.37822	-1.45582
0.53123	-0.33348
0.42922	1.70714
0.07220	1.17148
-0.28482	0.43176
-0.46334	0.04914
-0.89686	-0.92016
0.45472	-0.58856
0.73524	-0.25695
0.70974	0.30422
0.30171	-0.33348
0.73524	-0.18043
0.53123	1.09496
-0.15732	0.35523
-1.22839	2.29382
-1.78942	1.09496
-0.00431	-1.45582
1.78081	-0.99668
0.55673	0.15117
0.63323	0.12566
0.93925	0.22769
0.45472	-0.05289
0.02119	0.86539
-0.33583	0.50828
0.09770	0.73785
-0.13181	-0.12942
-0.15732	-0.35899
-0.33583	0.91640
-0.53984	-0.97117
0.19971	-1.86394
0.70974	-0.99668
0.58223	-0.38449
0.19971	1.88570
-0.38683	3.59471
-0.28482	0.76336
0.07220	-2.68019
-0.05531	-0.71609
0.37822	-0.20594
0.73524	-0.81812
0.65874	1.42656
0.73524	1.19699
0.58223	0.10015
-0.00431	-0.10391
-0.71835	-0.30797
-0.05531	0.17668
-0.02981	0.68683
-0.28482	0.30422
-0.43783	-0.25695
0.63323	-0.33348
0.91375	-0.02739
-0.02981	-0.02739
0.27621	0.30422
0.25071	0.58480
0.14870	0.94191
0.25071	0.55929
0.25071	0.38074
-0.69285	-0.00188
-2.45246	-0.35899
0.27621	-0.56305
-0.02981	-0.15492
0.30171	-0.38449
0.81175	0.04914
0.99026	1.50308
1.06676	0.38074
0.37822	0.50828
0.04670	-0.15492
0.09770	-1.22625
-0.87136	0.53379
-0.05531	1.55410
0.60773	0.38074
0.73524	-2.06800
0.42922	-1.55785
-0.15732	0.25320
-0.56534	1.42656
-0.23382	0.86539
-0.10631	0.86539
-0.18282	0.22769
-0.10631	-0.89465
0.32721	-0.05289
0.35272	1.19699
0.48022	-0.33348
0.63323	-0.10391
0.50573	0.76336
0.22521	0.76336
-0.18282	0.30422
-0.69285	0.20219
-1.10088	0.25320
0.37822	-0.56305
0.93925	-0.79262
0.91375	-0.58856
0.78624	-0.10391
0.58223	0.40625
-0.51434	0.83988
-0.87136	0.73785
-0.31033	0.20219
-0.87136	0.53379
0.73524	1.06945
1.01576	0.10015
0.58223	-0.97117
0.19971	-0.30797
0.65874	0.68683
0.40372	-0.15492
0.12320	-1.12422
-0.46334	-0.33348
-0.51434	2.06425
-0.36133	1.40105
-0.05531	0.53379
0.07220	-0.43551
0.48022	-1.14973
0.42922	-0.35899
0.32721	-0.92016
0.42922	0.73785
0.22521	0.35523
-0.05531	-0.12942
-0.41233	0.04914
-0.23382	0.58480
0.12320	0.48277
0.27621	0.04914
0.30171	-0.15492
1.04126	0.22769
0.22521	-0.51203
0.40372	-0.89465
-0.56534	0.86539
0.42922	1.06945
0.07220	0.73785
0.27621	1.09496
0.14870	0.48277
-0.53984	-0.25695
-1.22839	-0.58856
-0.64185	-0.23145
0.55673	-0.33348
1.75531	0.50828
1.57679	0.40625
0.93925	-0.23145
0.63323	0.17668
0.19971	0.45726
-0.08081	-0.10391
-0.43783	0.25320
-0.25932	0.71234
-0.46334	-0.00188
0.17421	-1.07320
0.27621	0.25320
-0.18282	0.81437
-0.74385	0.61031
-0.18282	0.66132
0.14870	0.76336
0.25071	0.04914
0.55673	-0.28246
0.60773	-0.66508
0.09770	-0.53754
0.27621	-0.20594
0.30171	-0.56305
0.30171	0.50828
0.17421	1.37554
0.32721	0.86539
0.04670	1.09496
-0.02981	1.04394
-0.56534	0.04914
-0.48884	-0.99668
0.17421	-1.14973
0.73524	-0.35899
0.40372	-0.02739
-0.33583	0.40625
-0.28482	0.66132
0.35272	0.38074
0.63323	0.96742
0.93925	0.50828
0.63323	0.04914
0.30171	-0.30797
-0.33583	-0.84363
0.22521	-1.07320
-0.43783	0.89089
0.02119	1.50308
0.09770	0.15117
0.02119	-0.58856
-0.20832	0.32972
-0.10631	1.24800
0.22521	0.55929
0.42922	-0.66508
0.32721	-1.63437
0.35272	-1.76191
0.14870	1.98773
0.19971	2.19179
0.09770	1.01843
-0.00431	-1.63437
-0.08081	-0.63957
0.04670	0.58480
0.30171	0.78886
0.40372	0.22769
0.53123	-0.23145
0.32721	-0.89465
-0.23382	-0.56305
-0.05531	0.68683
-0.13181	0.66132
0.17421	0.78886
0.50573	0.94191
0.65874	0.35523
-0.99887	0.10015
-1.02437	-0.66508
-1.53441	-1.48133
1.44929	-0.25695
1.67880	0.81437
0.81175	0.35523
0.70974	0.22769
0.53123	-0.00188
-0.08081	1.73265
-0.31033	1.29902
-0.08081	-0.33348
0.27621	-0.71609
-0.00431	-0.61406
-0.15732	-1.99148
0.02119	0.86539
0.07220	0.45726
-0.05531	-0.02739
-0.10631	1.37554
-0.13181	0.76336
-0.02981	2.37034
0.19971	0.53379
0.42922	-2.83324
0.42922	-2.01699
0.17421	-0.12942
0.76074	0.27871
0.35272	1.22250
-0.00431	1.45206
-0.41233	0.96742
-0.48884	0.81437
0.25071	0.12566
0.96476	-0.69059
1.06676	-0.46102
0.40372	-0.12942
-1.30489	-0.48652
-2.47797	-0.20594
-0.28482	0.32972
1.19427	0.86539
1.24527	0.83988
0.68424	0.89089
0.73524	0.38074
0.50573	-0.51203
-0.05531	-0.38449
0.07220	-0.18043
0.25071	-0.33348
0.12320	0.10015
-0.28482	0.68683
-0.92237	0.32972
-0.20832	1.12046
-0.08081	0.99292
-0.23382	-0.43551
0.17421	-1.48133
0.27621	-0.30797
0.45472	0.20219
0.35272	-0.74160
0.37822	0.55929
-0.18282	0.71234
0.14870	0.66132
0.60773	1.37554
0.27621	1.68163
0.12320	0.12566
0.17421	-1.20074
0.35272	-1.09871
0.30171	-0.35899
0.37822	-0.23145
0.40372	-0.07840
0.04670	-0.41000
-0.13181	1.12046
-0.20832	1.14597
0.25071	-0.00188
0.09770	0.61031
-0.28482	-0.05289
0.50573	-0.23145
-0.48884	-0.10391
-0.69285	-0.41000
0.88825	-0.07840
0.60773	0.45726
0.73524	0.66132
0.60773	0.45726
0.02119	0.76336
0.58223	0.30422
0.25071	-0.63957
0.48022	-0.66508
-0.64185	-0.15492
-0.05531	-0.10391
0.30171	0.45726
0.40372	0.53379
-0.15732	0.48277
-0.08081	0.53379
0.22521	0.94191
0.27621	-0.56305
0.45472	-1.27726
0.07220	1.45206
-0.36133	-0.25695
0.35272	-1.07320
0.73524	-0.89465
0.12320	0.58480
-0.48884	2.54890
-0.10631	0.68683
0.12320	0.12566
0.22521	-0.02739
0.22521	-1.07320
0.48022	-0.58856
-0.05531	-0.41000
-0.43783	-0.81812
0.45472	0.48277
0.48022	0.78886
-0.23382	0.73785
0.22521	0.50828
0.25071	0.81437
0.17421	0.71234
-0.00431	0.35523
0.12320	-0.23145
0.42922	-0.66508
0.48022	-0.66508
0.48022	-0.05289
0.78624	0.04914
-0.38683	0.63582
-0.18282	0.63582
-1.30489	0.73785
0.27621	0.99292
0.37822	0.68683
0.88825	-0.61406
0.58223	-1.37929
0.32721	-2.04250
0.09770	1.29902
0.07220	1.86019
0.30171	0.32972
0.09770	-0.81812
-0.66735	0.17668
-1.38139	1.52859
0.17421	1.73265
0.81175	-0.86914
0.88825	-1.99148
0.78624	-0.97117
0.53123	0.12566
0.02119	0.71234
0.07220	0.71234
-0.15732	0.32972
0.07220	1.27351
-0.38683	1.37554
-0.18282	-0.51203
0.40372	-0.74160
0.42922	-0.92016
0.45472	-1.40480
0.30171	0.73785
0.35272	1.29902
-0.10631	1.12046
-0.10631	0.96742
-0.31033	0.71234
-0.05531	0.58480
0.09770	-0.25695
0.58223	-0.89465
0.45472	-0.69059
0.07220	-0.10391
0.50573	-0.18043
0.45472	0.50828
-0.28482	0.66132
-0.69285	0.22769
0.37822	0.15117
0.53123	0.86539
0.42922	-0.38449
0.32721	-1.68539
0.09770	0.63582
-0.59084	-0.05289
0.17421	0.02363
0.35272	1.09496
0.32721	-0.66508
0.14870	1.93671
0.02119	2.70194
-0.02981	0.43176
0.14870	-2.04250
0.27621	-2.29757
0.14870	-0.66508
0.02119	0.55929
0.60773	0.35523
0.37822	0.50828
-0.20832	0.48277
-0.64185	0.63582
-0.99887	0.94191
0.30171	0.78886
0.76074	-0.05289
0.83725	-0.41000
1.14327	-0.10391
0.73524	-0.33348
0.14870	0.25320
0.30171	0.35523
-0.31033	-0.12942
-0.46334	0.50828
-1.30489	0.71234
-0.61635	0.61031
0.04670	-0.97117
0.99026	-0.35899
1.04126	-0.12942
1.16877	-0.18043
1.32178	-0.18043
0.68424	0.48277
0.04670	0.53379
-0.66735	1.32453
-0.56534	1.22250
-0.38683	-0.41000
-0.20832	0.30422
0.14870	-1.17523
0.30171	-0.74160
0.48022	-0.97117
0.50573	0.58480
0.17421	0.04914
-0.08081	2.59991
-0.05531	1.78367
-0.02981	-0.20594
0.04670	-0.30797
0.19971	-0.33348
0.32721	-0.61406
0.30171	-0.41000
0.40372	-0.46102
0.27621	0.15117
0.45472	0.96742
0.19971	-0.05289
0.19971	-0.33348
-0.15732	0.55929
-0.33583	0.58480
0.02119	0.12566
0.04670	-0.07840
0.58223	0.02363
0.93925	-0.12942
0.76074	0.20219
0.17421	0.55929
-0.36133	0.63582
-0.84586	0.83988
-0.13181	-0.00188
0.30171	-0.61406
0.25071	-0.51203
0.27621	0.07465
0.42922	-0.33348
0.42922	-0.35899
0.35272	0.43176
0.32721	0.15117
-0.05531	1.96222
-0.33583	0.63582
-0.38683	0.53379
-0.56534	0.63582
-0.02981	-0.74160
0.63323	-0.97117
0.50573	-1.30277
0.55673	-0.00188
0.63323	-0.05289
0.48022	-0.05289
0.12320	0.40625
-0.25932	1.29902
-1.07538	0.83988
-0.84586	0.71234
-0.13181	0.17668
0.99026	-1.09871
1.19427	-0.76711
0.78624	-0.18043
0.70974	0.45726
-0.00431	1.01843
-0.71835	0.78886
-1.12638	0.30422
0.27621	0.25320
0.37822	0.43176
0.27621	0.12566
-0.20832	0.22769
1.29628	-0.10391
0.76074	-0.94566
0.32721	-0.69059
-0.46334	-0.00188
-0.05531	0.45726
0.02119	0.50828
-0.15732	0.30422
-0.23382	0.32972
-0.02981	1.29902
0.35272	0.12566
0.40372	-0.79262
0.35272	-0.46102
-0.02981	-0.41000
-0.08081	-0.33348
0.14870	0.96742
-0.33583	0.89089
-0.36133	0.91640
0.25071	0.04914
0.40372	0.15117
0.53123	0.27871
0.93925	0.48277
0.73524	-1.14973
0.12320	-0.46102
-0.41233	0.02363
-1.10088	-0.23145
-0.23382	1.01843
0.17421	1.22250
0.37822	0.45726
0.60773	-0.30797
0.63323	-0.43551
0.25071	-0.20594
0.07220	0.02363
0.30171	0.15117
0.14870	0.17668
-0.69285	0.48277
-0.92237	0.35523
0.14870	0.71234
0.17421	0.61031
0.78624	-0.23145
0.83725	-1.48133
0.70974	-0.86914
0.32721	0.50828
0.07220	1.06945
-0.13181	1.14597
-0.33583	0.71234
0.17421	-0.02739
-0.00431	0.58480
-0.15732	0.58480
0.09770	0.45726
0.22521	-0.86914
0.40372	-2.47613
0.30171	-0.43551
0.12320	0.25320
-0.02981	0.55929
-0.18282	0.61031
0.17421	-0.00188
0.53123	0.78886
0.50573	1.04394
0.32721	0.04914
0.02119	-0.46102
-0.28482	-0.15492
0.40372	-0.25695
0.35272	0.25320
0.42922	0.58480
-0.89686	1.14597
-1.43240	0.61031
0.19971	0.63582
0.81175	0.48277
0.42922	-0.53754
-0.08081	-0.63957
1.09226	-0.51203
1.37278	-0.56305
0.91375	-0.05289
-0.48884	0.38074
-0.43783	0.45726
-0.20832	1.06945
-0.23382	0.30422
-0.53984	0.48277
-0.13181	0.35523
0.19971	0.32972
0.27621	-0.66508
0.19971	-0.56305
0.12320	-0.07840
0.04670	-0.63957
0.14870	0.30422
0.09770	1.73265
0.07220	1.19699
0.17421	0.02363
0.55673	0.43176
0.55673	-0.43551
0.40372	-0.84363
-0.25932	-0.12942
-0.23382	0.43176
0.09770	0.27871
0.19971	0.81437
0.45472	0.63582
0.68424	0.68683
-0.00431	0.04914
-0.25932	-0.61406
0.02119	0.04914
-0.38683	-0.18043
0.55673	-0.84363
0.02119	-0.25695
0.58223	0.48277
-0.20832	0.78886
0.09770	0.76336
0.40372	-0.76711
-0.08081	1.63062
0.30171	1.09496
0.65874	-0.46102
0.58223	-1.17523
0.17421	-1.30277
0.07220	-0.00188
-0.41233	0.96742
-0.64185	0.78886
-0.18282	-0.35899
0.07220	0.45726
0.09770	-0.35899
-0.20832	1.68163
-0.28482	0.15117
0.19971	-1.04770
0.88825	0.04914
0.88825	-0.20594
0.55673	0.40625
0.22521	0.76336
-0.08081	0.38074
-0.15732	0.07465
0.02119	0.04914
0.04670	-0.71609
0.27621	-0.79262
-0.00431	-0.76711
0.02119	-0.00188
0.19971	0.83988
0.65874	0.35523
0.22521	1.14597
-0.38683	1.32453
-0.76936	1.01843
-0.69285	0.02363
0.53123	0.15117
1.04126	-0.23145
0.30171	-0.46102
-0.38683	-0.66508
0.91375	-0.28246
0.88825	0.35523
0.73524	0.48277
0.40372	0.32972
0.09770	0.25320
-0.15732	0.04914
-0.23382	-0.25695
-0.59084	-0.23145
-0.33583	0.58480
0.25071	-0.38449
0.42922	-1.40480
0.30171	0.35523
-0.02981	-0.41000
-0.05531	2.70194
-0.02981	1.91120
0.09770	0.55929
0.27621	0.32972
0.40372	-1.71090
0.35272	-2.52714
0.83725	0.38074
0.58223	0.55929
-0.15732	-0.43551
-0.61635	0.86539
-0.48884	1.50308
-0.43783	0.96742
0.86275	-0.10391
0.32721	-0.46102
0.76074	-0.38449
0.78624	-0.61406
0.35272	-0.23145
-0.43783	0.22769
-0.25932	0.76336
-0.33583	0.73785
0.30171	0.40625
0.09770	0.63582
0.68424	0.43176
0.63323	-0.10391
0.37822	-0.25695
0.12320	-0.58856
0.02119	-0.74160
-0.08081	-0.18043
-0.13181	0.55929
-0.02981	0.35523
-0.15732	0.61031
-0.28482	0.86539
-0.08081	0.91640
0.19971	0.02363
0.37822	-1.35379
0.14870	-0.12942
0.22521	0.99292
0.22521	0.12566
0.04670	-0.05289
0.22521	0.04914
0.32721	0.78886
0.17421	0.61031
0.27621	0.07465
0.09770	-0.02739
-0.13181	-0.38449
0.60773	-0.10391
-0.23382	-0.76711
0.40372	-0.18043
0.09770	0.15117
-0.38683	0.94191
-0.00431	0.96742
0.42922	1.06945
0.68424	0.55929
0.55673	-0.18043
-0.08081	-0.51203
-0.38683	-0.25695
-0.92237	-0.07840
-0.41233	0.10015
0.27621	0.22769
0.99026	0.55929
0.73524	0.66132
0.37822	0.83988
0.17421	-0.00188
0.22521	-0.18043
0.19971	-0.43551
0.02119	-0.66508
-0.05531	-0.56305
0.07220	0.04914
0.19971	1.17148
0.02119	0.48277
-0.10631	-0.38449
-0.38683	0.94191
-0.48884	2.59991
0.09770	0.27871
0.60773	-1.99148
0.73524	-1.91496
0.70974	-0.58856
0.68424	-0.30797
0.19971	1.24800
-0.41233	1.75816
-0.23382	0.61031
-0.08081	0.40625
0.14870	0.25320
0.37822	0.20219
0.40372	-0.51203
0.30171	-0.15492
0.25071	-0.33348
0.09770	-0.30797
0.09770	0.04914
0.12320	0.30422
0.07220	0.91640
0.02119	0.58480
-0.28482	0.45726
-0.02981	-0.25695
-0.48884	-0.28246
-0.53984	-0.12942
0.93925	-0.12942
0.37822	-0.07840
0.19971	-0.07840
0.53123	1.32453
0.60773	1.22250
0.02119	0.86539
-0.15732	0.02363
0.14870	-0.66508
0.25071	-0.69059
0.12320	-0.02739
0.04670	-0.61406
0.09770	0.02363
-0.08081	-0.07840
-0.13181	0.45726
-0.28482	0.17668
-0.02981	0.55929
0.04670	0.22769
0.02119	-0.43551
-0.00431	0.32972
-0.02981	0.63582
0.42922	0.22769
0.65874	-0.00188
0.65874	0.58480
0.37822	0.63582
0.17421	0.35523
0.17421	0.55929
0.42922	1.22250
0.30171	-0.46102
-0.31033	-2.19554
-1.33039	-1.12422
-0.43783	0.07465
0.58223	0.50828
0.83725	0.78886
0.37822	0.55929
0.42922	0.94191
0.22521	0.48277
0.12320	0.58480
-0.10631	0.55929
0.04670	-0.00188
0.07220	-1.02219
0.42922	-0.86914
-0.05531	0.55929
0.12320	0.66132
0.30171	0.04914
0.09770	-1.30277
-0.02981	1.93671
-0.08081	1.73265
-0.05531	-0.30797
0.27621	-1.43031
0.42922	0.45726
0.58223	-0.15492
0.12320	0.04914
-0.36133	0.76336
0.27621	-0.43551
0.27621	-0.94566
0.32721	1.29902
-0.13181	0.66132
0.04670	0.15117
0.19971	-0.30797
0.35272	-0.07840
0.04670	-0.25695
0.32721	0.15117
0.60773	0.71234
0.37822	1.01843
-0.05531	0.55929
-0.02981	0.22769
-0.87136	0.32972
-0.41233	-0.30797
-0.18282	-0.18043
0.45472	-0.10391
0.93925	-0.51203
0.76074	-0.07840
0.50573	0.40625
0.19971	0.61031
0.04670	0.73785
-0.43783	0.35523
-0.48884	0.40625
0.09770	-0.33348
0.37822	-0.18043
0.53123	-0.20594
0.53123	-1.04770
0.42922	0.40625
-0.02981	0.86539
-0.08081	-0.58856
-0.23382	1.75816
-0.64185	1.75816
-0.31033	-0.86914
0.27621	-0.99668
1.09226	0.25320
0.83725	0.22769
0.42922	-0.35899
-0.08081	-0.10391
-0.38683	0.68683
0.25071	0.66132
0.25071	0.71234
0.19971	0.55929
0.07220	-0.43551
0.32721	0.35523
0.22521	-0.12942
0.25071	-0.43551
0.02119	-0.81812
0.02119	-0.33348
-0.02981	0.99292
-0.38683	1.24800
-0.69285	-0.00188
0.99026	-0.76711
0.30171	0.66132
0.63323	0.38074
0.65874	-0.15492
0.53123	0.07465
0.07220	-0.18043
-0.08081	0.02363
-0.31033	0.58480
-0.13181	0.76336
0.22521	0.43176
0.45472	0.50828
-0.00431	-0.18043
-0.23382	0.55929
0.27621	-0.79262
0.45472	-1.07320
0.14870	-0.35899
0.07220	0.38074
0.50573	0.96742
0.12320	0.61031
-0.15732	0.38074
-0.56534	-1.20074
-0.02981	-0.38449
0.12320	1.29902
0.42922	1.42656
0.81175	0.71234
0.60773	-0.15492
0.48022	-1.58336
0.07220	-1.27726
-0.18282	0.35523
-0.02981	0.76336
0.07220	1.29902
-0.08081	0.86539
-0.36133	-0.12942
0.14870	-0.12942
0.40372	0.02363
0.35272	-0.48652
0.50573	0.17668
-0.02981	0.55929
-0.02981	0.53379
0.22521	0.35523
-0.20832	0.30422
-0.51434	0.25320
0.19971	-0.30797
0.73524	-0.61406
0.27621	-0.38449
0.86275	0.07465
0.55673	0.40625
0.22521	0.55929
0.04670	0.68683
-0.00431	-0.79262
-0.13181	0.45726
0.02119	0.58480
-0.64185	0.63582
-0.51434	0.12566
0.45472	-0.15492
0.40372	-1.60887
0.48022	-0.07840
0.37822	0.20219
0.19971	1.52859
0.19971	1.47757
-0.15732	0.68683
-0.05531	-0.74160
0.19971	-0.76711
0.42922	-0.79262
0.42922	-0.25695
0.22521	0.10015
0.19971	0.15117
0.12320	0.50828
-0.02981	0.48277
-0.33583	-0.43551
0.25071	1.09496
-0.02981	0.91640
0.45472	0.15117
0.35272	-0.28246
-0.33583	-0.48652
-0.23382	-0.30797
0.37822	0.27871
0.73524	0.53379
0.68424	0.66132
0.14870	0.32972
0.09770	0.73785
-0.08081	0.76336
-0.05531	-0.92016
0.27621	-1.65988
0.30171	0.63582
-0.38683	0.02363
-0.28482	0.15117
0.14870	1.65613
0.91375	0.15117
0.53123	-0.79262
0.42922	0.40625
0.04670	-0.02739
0.22521	-0.18043
0.17421	0.58480
0.07220	0.43176
0.02119	0.30422
0.22521	-0.00188
-0.00431	-0.58856
-0.20832	-0.05289
-0.05531	0.63582
-0.13181	0.66132
-0.08081	0.17668
0.19971	-0.20594
0.35272	-0.51203
0.35272	-0.10391
0.48022	0.20219
0.53123	-0.10391
0.25071	0.12566
0.07220	0.66132
0.17421	0.76336
0.12320	0.89089
-0.41233	0.43176
-0.64185	-0.12942
0.17421	-0.46102
0.50573	-0.28246
1.47479	-0.23145
0.55673	-0.18043
-1.30489	-0.20594
-0.43783	1.19699
0.63323	1.27351
0.63323	0.10015
0.42922	0.22769
0.30171	0.15117
0.12320	-0.56305
0.22521	-1.04770
0.19971	-0.48652
0.07220	-0.12942
-0.31033	1.75816
-0.33583	1.27351
-0.43783	0.25320
-0.33583	0.66132
0.45472	0.15117
0.48022	-0.53754
0.27621	-0.69059
0.25071	-0.86914
0.65874	0.32972
0.58223	0.53379
0.19971	0.12566
0.02119	0.25320
-0.08081	0.78886
-0.20832	1.17148
-0.20832	0.89089
0.22521	-0.71609
0.48022	-0.94566
0.27621	0.04914
0.42922	-0.33348
0.45472	-0.46102
0.63323	0.58480
0.25071	1.01843
-0.05531	0.83988
-1.10088	0.30422
-1.10088	0.20219
0.37822	0.25320
-0.05531	-0.18043
-0.51434	-0.30797
1.04126	-0.56305
1.44929	-0.35899
1.16877	-0.07840
0.65874	1.27351
0.19971	1.14597
0.02119	0.32972
-0.31033	-0.69059
-0.89686	-0.69059
-0.18282	-0.05289
0.25071	0.50828
0.37822	0.12566
0.37822	0.25320
0.09770	0.20219
0.07220	1.24800
-0.00431	1.32453
-0.05531	-0.53754
-0.00431	0.04914
0.07220	-0.12942
0.30171	-1.40480
0.50573	-0.12942
0.30171	0.27871
0.32721	0.35523
0.25071	0.71234
0.14870	0.61031
-0.00431	0.81437
0.04670	0.66132
-0.13181	0.15117
-0.08081	-0.38449
0.50573	-0.10391
0.42922	-0.05289
-0.00431	0.12566
-0.00431	0.12566
0.42922	-0.28246
0.14870	0.15117
-0.28482	0.73785
-0.10631	0.86539
0.32721	0.45726
0.45472	-0.05289
0.68424	-0.33348
0.76074	-0.18043
0.53123	-0.10391
0.17421	-0.18043
-0.23382	-0.15492
-0.28482	0.20219
-0.48884	0.07465
-0.33583	0.99292
-0.18282	1.68163
0.14870	0.10015
0.40372	-0.51203
0.60773	-0.94566
0.37822	-1.48133
0.48022	1.19699
0.17421	1.19699
0.07220	-0.92016
-0.13181	-0.81812
-0.02981	0.63582
0.09770	1.35003
0.22521	0.35523
0.48022	-0.35899
0.12320	0.15117
0.19971	-0.20594
0.32721	0.17668
0.17421	0.20219
0.17421	-0.05289
0.02119	0.55929
-0.18282	0.68683
-0.20832	0.32972
-0.41233	0.10015
-0.76936	-0.30797
0.68424	-0.18043
0.76074	-0.12942
0.93925	-0.20594
0.73524	0.58480
0.50573	0.55929
-0.13181	0.17668
-0.99887	0.48277
-0.15732	0.32972
0.53123	-0.28246
0.81175	-0.35899
0.68424	-0.46102
-0.51434	-0.15492
-0.13181	0.04914
0.42922	0.22769
-0.08081	0.15117
0.07220	0.91640
0.19971	0.96742
0.02119	2.54890
0.35272	-0.02739
0.42922	-1.55785
0.48022	-1.07320
0.48022	0.17668
0.60773	-0.20594
0.07220	-0.92016
-0.28482	1.09496
-0.56534	-0.05289
-0.46334	0.94191
-0.28482	0.96742
0.45472	0.81437
0.65874	-0.05289
0.45472	-0.84363
0.37822	-0.66508
0.55673	-0.56305
0.12320	0.61031
0.02119	1.04394
0.07220	0.68683
-0.00431	0.02363
-0.18282	-0.07840
-0.10631	-0.30797
0.32721	-0.76711
0.30171	-0.33348
0.55673	-0.05289
0.63323	0.40625
0.17421	0.99292
0.19971	0.99292
-0.71835	0.81437
-0.64185	0.76336
0.32721	0.40625
-0.05531	-0.18043
-0.23382	-0.56305
0.14870	-0.66508
0.91375	-0.38449
0.91375	-0.18043
0.55673	0.02363
0.37822	0.78886
0.12320	1.12046
-0.05531	0.35523
-0.43783	-0.35899
-0.79486	0.25320
-0.51434	-0.00188
0.45472	0.25320
0.81175	-0.12942
0.78624	-0.69059
0.35272	-0.53754
0.12320	-0.58856
0.02119	1.63062
-0.28482	1.75816
-0.43783	1.78367
0.17421	-0.02739
0.48022	-2.04250
0.58223	-1.17523
0.65874	-0.46102
0.50573	0.53379
0.09770	0.63582
-0.28482	0.73785
-0.43783	0.99292
-0.38683	0.22769
0.19971	0.12566
0.32721	0.15117
0.32721	-0.25695
0.25071	-0.41000
0.37822	-0.33348
0.48022	-0.12942
0.25071	0.63582
-0.08081	0.32972
0.02119	-0.00188
-0.20832	0.55929
-1.15188	0.81437
0.25071	0.30422
0.96476	-0.23145
1.16877	-0.30797
0.63323	-0.12942
0.32721	-0.20594
0.09770	0.15117
0.19971	1.17148
-0.28482	0.66132
0.02119	0.45726
0.14870	0.81437
0.12320	-0.02739
0.32721	-1.76191
0.12320	-1.17523
0.07220	-0.33348
0.07220	1.52859
-0.31033	-0.23145
-0.41233	0.58480
0.07220	1.42656
0.19971	1.37554
0.17421	1.19699
0.14870	-2.32308
0.48022	-2.27207
0.40372	0.43176
0.40372	0.45726
0.27621	-0.05289
0.22521	0.86539
0.14870	0.81437
-0.05531	0.32972
0.02119	0.68683
0.12320	0.50828
0.32721	-0.28246
0.25071	-0.28246
0.25071	-0.25695
-0.15732	-0.48652
0.02119	0.12566
0.22521	0.76336
-0.41233	0.48277
0.30171	0.55929
0.02119	0.83988
-0.59084	0.48277
0.35272	-0.33348
1.04126	-0.35899
0.99026	-0.35899
0.70974	-0.28246
0.58223	0.04914
0.42922	1.60511
0.02119	-0.18043
-0.36133	-0.12942
-0.28482	0.32972
-0.38683	0.38074
-0.28482	-0.23145
0.19971	-0.38449
0.07220	-0.07840
0.02119	-0.66508
0.30171	0.71234
0.19971	1.57960
0.19971	0.32972
0.19971	-1.40480
0.17421	0.40625
-0.05531	1.47757
0.27621	-0.53754
0.22521	-0.07840
0.50573	0.35523
0.76074	0.25320
0.91375	-0.05289
0.48022	-0.00188
-0.79486	0.27871
-1.55991	0.32972
-0.38683	0.10015
0.65874	0.04914
0.14870	-0.10391
0.25071	-1.02219
1.11776	-0.18043
1.14327	0.30422
0.78624	0.04914
0.25071	1.27351
-0.64185	1.32453
-0.87136	0.58480
-0.41233	0.12566
0.19971	0.04914
0.48022	-0.02739
-0.00431	-0.41000
0.02119	-0.48652
0.19971	-0.35899
0.55673	-0.28246
0.12320	0.12566
0.19971	0.99292
0.17421	0.86539
0.35272	1.17148
0.14870	1.17148
-0.05531	-0.61406
-0.20832	-1.30277
0.17421	-0.76711
0.58223	-0.33348
0.37822	-0.46102
0.19971	1.22250
-0.00431	0.55929
-0.08081	0.12566
-0.05531	0.71234
-0.13181	0.73785
-0.15732	0.17668
0.30171	-0.38449
0.19971	-0.46102
0.25071	-0.33348
0.45472	-0.02739
0.22521	0.35523
0.04670	0.73785
-0.13181	0.55929
0.22521	0.43176
0.27621	0.12566
0.32721	-0.15492
0.02119	-0.28246
0.48022	-0.20594
0.04670	-0.02739
0.12320	0.02363
0.19971	-0.66508
-0.61635	0.94191
-0.28482	1.63062
-0.82036	1.29902
-0.05531	0.48277
1.16877	-0.66508
1.14327	-0.97117
1.06676	-1.60887
0.65874	-0.43551
0.25071	1.06945
-0.38683	0.12566
-0.38683	0.63582
-0.15732	-0.23145
-0.20832	0.96742
-0.20832	1.06945
-0.00431	-1.32828
0.09770	-0.58856
0.30171	0.61031
0.40372	0.68683
0.55673	-0.00188
0.27621	0.10015
0.02119	0.17668
-0.48884	0.15117
-0.76936	0.22769
0.70974	0.35523
0.09770	-0.05289
0.12320	-0.30797
0.68424	-0.35899
1.01576	-0.12942
0.76074	0.15117
-0.08081	0.40625
-0.02981	-0.00188
-0.53984	0.91640
-0.05531	0.99292
0.07220	0.43176
0.19971	-0.07840
0.27621	-0.71609
0.32721	-0.51203
0.25071	-0.53754
0.27621	-0.10391
0.22521	0.02363
0.04670	1.63062
-0.31033	0.73785
-0.79486	-0.15492
-0.64185	0.89089
0.30171	-0.23145
0.70974	-0.61406
0.65874	0.17668
0.81175	-0.12942
0.60773	-0.66508
0.09770	0.53379
-0.08081	0.40625
-0.20832	-0.56305
-0.28482	-0.35899
-0.02981	0.71234
0.17421	0.35523
0.60773	0.04914
0.22521	0.22769
0.09770	0.22769
0.48022	0.04914
0.19971	0.48277
-0.08081	1.12046
-0.08081	0.25320
0.22521	-0.15492
0.27621	0.32972
0.27621	-0.23145
0.42922	-0.58856
0.04670	-0.35899
-0.13181	-0.00188
-0.59084	-0.25695
0.17421	0.15117
0.42922	0.78886
0.32721	0.68683
0.42922	0.53379
0.48022	0.04914
-0.15732	0.55929
-0.79486	0.55929
-0.15732	-0.81812
-0.13181	-0.79262
0.68424	0.53379
1.09226	0.38074
0.83725	-0.00188
0.48022	0.99292
0.07220	0.86539
0.14870	-0.33348
-0.00431	-0.76711
0.19971	0.27871
0.02119	0.10015
-0.00431	-0.10391
0.04670	-0.05289
-0.20832	0.99292
-0.28482	0.07465
-0.13181	-0.07840
-0.18282	0.81437
-0.00431	0.78886
0.25071	-0.30797
0.48022	-0.41000
0.53123	-0.23145
0.40372	-0.79262
0.22521	-0.33348
0.30171	0.50828
0.07220	0.96742
0.14870	0.76336
0.50573	0.55929
0.12320	0.22769
-0.08081	0.38074
-0.41233	0.02363
0.07220	-0.81812
0.19971	-0.38449
-0.43783	-0.15492
-0.43783	0.50828
0.86275	0.63582
1.14327	0.53379
0.60773	0.15117
0.27621	0.38074
-0.00431	-0.02739
0.22521	0.02363
0.22521	-0.35899
0.14870	-0.61406
0.12320	-0.76711
-0.36133	0.53379
-0.10631	1.19699
-0.00431	1.35003
-0.15732	1.29902
-0.31033	0.61031
0.02119	-1.65988
0.42922	-1.53234
0.45472	0.63582
0.35272	1.83468
0.40372	0.91640
0.19971	-0.66508
0.14870	-0.94566
0.12320	0.35523
0.12320	0.66132
0.09770	0.76336
0.27621	0.32972
0.04670	-0.61406
0.07220	0.50828
0.27621	0.27871
0.30171	-0.69059
0.50573	0.07465
0.07220	0.50828
-0.28482	0.55929
-0.51434	0.76336
0.04670	0.71234
0.32721	0.27871
0.42922	-0.43551
0.83725	-0.66508
0.96476	-0.28246
0.60773	0.45726
-0.10631	0.58480
-0.38683	0.27871
-0.25932	0.27871
0.25071	-0.12942
-0.13181	0.02363
-0.08081	0.27871
-0.13181	0.25320
-0.89686	-0.69059
0.68424	-0.63957
0.78624	0.35523
0.58223	0.91640
0.42922	1.27351
0.14870	0.68683
0.04670	-0.76711
0.09770	-0.76711
0.12320	-0.20594
0.17421	-0.46102
0.25071	0.15117
0.22521	-0.97117
0.07220	1.80917
0.14870	1.88570
-0.18282	1.68163
-0.10631	0.20219
0.17421	-0.56305
0.02119	-0.38449
0.12320	-0.25695
0.12320	-0.81812
0.42922	-0.86914
0.45472	-0.33348
0.42922	-0.20594
0.40372	0.53379
-0.05531	0.71234
-0.28482	0.76336
-0.43783	0.81437
0.55673	1.27351
0.48022	0.02363
-0.20832	-0.35899
0.40372	-0.56305
0.93925	-0.25695
0.58223	-0.07840
0.37822	0.32972
0.09770	0.22769
-0.20832	0.58480
-0.23382	0.43176
-0.33583	0.38074
-0.10631	0.02363
0.02119	0.07465
0.32721	0.10015
0.37822	-0.56305
0.32721	-0.66508
0.22521	0.43176
0.09770	0.27871
0.09770	1.40105
-0.00431	0.32972
-0.10631	-1.27726
0.04670	-0.35899
0.25071	0.58480
0.42922	0.22769
0.55673	-0.10391
0.32721	0.30422
0.40372	1.04394
-0.02981	0.04914
-0.76936	-0.69059
-1.50890	-0.18043
-0.20832	1.06945
1.16877	0.81437
1.29628	-0.18043
0.81175	-0.15492
0.76074	-0.46102
0.55673	-0.12942
-0.20832	0.43176
0.09770	0.55929
-0.69285	0.40625
-0.82036	0.61031
-0.69285	0.32972
-0.10631	-0.30797
0.14870	-0.41000
1.04126	-0.35899
0.96476	-0.12942
0.55673	-0.33348
0.12320	-0.23145
0.07220	0.61031
0.40372	0.50828
0.14870	0.96742
-0.02981	0.12566
0.17421	0.76336
0.12320	0.50828
0.12320	-0.51203
0.17421	-0.51203
0.19971	-0.46102
0.07220	0.58480
-0.23382	-0.07840
-0.13181	-0.25695
-0.08081	0.30422
-0.02981	0.66132
0.30171	0.25320
0.63323	-0.10391
0.83725	0.35523
0.58223	0.25320
0.30171	0.04914
-0.20832	0.38074
-0.92237	0.25320
-0.20832	-0.05289
-0.41233	0.15117
-0.87136	0.38074
1.29628	0.04914
1.29628	-0.10391
0.68424	-0.33348
0.65874	-0.15492
0.45472	-0.02739
-0.25932	0.55929
-0.02981	0.58480
-0.46334	0.17668
-0.05531	0.15117
0.17421	0.86539
-0.08081	0.04914
0.02119	-1.37929
0.40372	-0.61406
0.14870	0.20219
0.14870	0.76336
0.07220	-0.20594
-0.10631	1.68163
-0.08081	1.78367
0.19971	0.71234
0.07220	-0.66508
0.22521	0.45726
0.32721	-1.07320
0.32721	-2.19554
0.48022	-0.66508
0.30171	1.37554
-0.08081	1.14597
0.02119	0.43176
0.09770	0.66132
0.02119	1.17148
0.12320	0.96742
0.09770	-1.27726
0.42922	-1.17523
0.27621	-0.28246
0.45472	0.12566
0.30171	0.40625
-0.05531	0.81437
-0.18282	0.50828
0.09770	0.40625
-0.36133	0.73785
0.30171	0.45726
0.12320	-0.20594
-1.53441	-0.43551
-0.61635	-0.07840
0.73524	-0.43551
0.35272	-0.30797
0.88825	0.32972
1.04126	0.76336
0.78624	0.78886
0.35272	0.78886
0.22521	0.35523
0.42922	-0.25695
0.17421	-0.51203
-0.18282	-0.63957
-0.48884	-1.60887
-0.41233	0.63582
-0.02981	2.01323
-0.10631	0.43176
-0.13181	0.58480
-0.10631	0.17668
-0.10631	0.27871
0.25071	-0.38449
0.50573	-0.18043
0.53123	-0.89465
0.45472	-0.48652
0.53123	-0.33348
0.32721	-0.35899
-0.02981	0.91640
-0.02981	1.06945
0.17421	0.89089
-0.05531	0.76336
0.02119	0.35523
0.19971	-0.12942
0.25071	-0.07840
0.32721	-0.25695
0.48022	-0.12942
0.60773	0.55929
-0.08081	0.43176
-0.23382	-0.00188
-1.07538	0.04914
-1.10088	0.40625
0.04670	0.10015
0.32721	-0.51203
1.44929	-0.41000
1.62780	-0.18043
0.93925	0.02363
0.30171	0.45726
0.09770	0.55929
-0.00431	0.53379
-0.23382	0.83988
-0.43783	0.40625
-0.28482	-0.28246
-0.15732	-0.53754
0.09770	-0.56305
0.25071	0.17668
0.19971	0.25320
0.07220	-0.00188
0.07220	1.29902
-0.00431	1.22250
-0.05531	0.86539
-0.00431	-0.07840
0.27621	-1.12422
0.37822	-2.11902
0.45472	0.66132
0.48022	0.07465
0.48022	-0.15492
0.32721	0.27871
0.19971	0.86539
-0.18282	1.06945
-0.43783	0.86539
-0.28482	0.40625
-0.18282	-0.33348
0.60773	-0.48652
0.83725	-0.46102
1.04126	0.25320
-0.18282	0.12566
-0.59084	-0.30797
-0.38683	0.38074
-0.23382	0.91640
0.04670	0.50828
0.22521	0.07465
0.25071	0.25320
1.01576	0.17668
0.99026	-0.00188
0.32721	-1.02219
0.32721	-0.94566
-0.36133	0.61031
-0.69285	0.81437
-0.18282	0.94191
-0.15732	0.58480
-0.13181	0.27871
0.22521	0.35523
0.25071	-0.58856
0.32721	-0.28246
0.22521	-0.76711
0.19971	0.30422
0.22521	0.50828
0.27621	0.35523
0.12320	0.50828
0.02119	0.38074
0.09770	0.53379
0.14870	-0.18043
0.50573	-0.15492
0.35272	-0.30797
0.12320	-0.79262
0.14870	-0.66508
0.07220	0.96742
-0.02981	1.75816
0.04670	0.68683
-0.23382	-0.41000
0.09770	0.12566
0.32721	0.25320
0.60773	-0.23145
-0.02981	-0.05289
-0.84586	-0.18043
0.12320	-0.35899
0.88825	0.73785
0.53123	0.96742
0.27621	0.38074
0.04670	0.32972
-0.20832	0.12566
-0.18282	-0.23145
0.04670	-0.46102
0.55673	0.02363
0.25071	0.04914
-0.05531	-1.04770
0.12320	-0.35899
-0.00431	0.30422
0.04670	1.86019
-0.10631	1.55410
-0.08081	0.66132
-0.05531	-0.23145
0.25071	-0.48652
0.40372	-0.63957
0.40372	-0.86914
0.40372	-0.76711
0.22521	1.32453
0.14870	0.91640
0.02119	-0.71609
-0.23382	-0.86914
-0.10631	0.58480
0.50573	1.09496
0.53123	0.81437
0.50573	0.07465
0.02119	-0.30797
-0.20832	-0.05289
-0.74385	0.43176
-0.02981	0.53379
0.81175	0.27871
0.65874	0.43176
0.53123	0.12566
0.17421	-0.05289
-0.53984	-0.41000
0.55673	-0.43551
0.07220	-0.28246
0.09770	-0.23145
0.60773	0.35523
0.42922	0.63582
0.09770	0.73785
-0.02981	0.50828
-0.20832	0.35523
-0.10631	-0.10391
-0.18282	-1.43031
0.22521	0.07465
0.45472	0.58480
0.42922	-0.30797
0.17421	0.45726
-0.05531	1.06945
-0.05531	1.52859
-0.74385	0.45726
0.12320	-0.38449
0.40372	-1.60887
0.50573	-0.46102
0.63323	-0.00188
0.48022	0.04914
0.45472	-0.07840
-0.10631	0.48277
-0.00431	0.04914
0.19971	1.29902
0.22521	1.12046
-0.05531	1.01843
-0.02981	-0.00188
0.09770	-1.02219
-0.05531	-1.50683
0.35272	-0.71609
0.19971	0.25320
-0.31033	0.76336
0.07220	1.06945
-0.18282	0.96742
0.42922	0.73785
0.02119	0.45726
0.50573	-0.07840
0.88825	-0.63957
0.60773	-0.05289
0.30171	-0.35899
0.04670	-0.46102
-0.15732	0.27871
-0.53984	0.76336
-0.02981	0.50828
-0.05531	0.02363
-0.13181	0.50828
-0.05531	-0.20594
0.42922	-0.48652
0.50573	0.40625
0.37822	0.30422
0.30171	-0.63957
0.22521	0.76336
0.07220	0.43176
-0.08081	0.25320
-0.02981	1.73265
0.12320	1.01843
0.25071	-1.43031
0.30171	-2.06800
0.27621	-0.51203
0.19971	-0.69059
0.12320	0.38074
0.17421	1.27351
-0.36133	1.06945
-0.13181	0.81437
0.30171	0.89089
0.09770	0.73785
-0.05531	-0.05289
0.60773	-0.74160
0.68424	-0.56305
0.45472	-0.15492
0.45472	-0.61406
0.09770	-0.35899
0.32721	0.73785
-0.13181	0.86539
-0.38683	0.73785
-1.27939	0.63582
-1.10088	-0.10391
0.78624	-0.51203
0.60773	-0.20594
0.14870	-0.07840
1.14327	-0.25695
0.91375	0.27871
0.45472	0.76336
-0.02981	0.83988
-0.10631	1.37554
-0.13181	-0.63957
-0.02981	-1.78742
0.22521	-0.30797
0.19971	0.15117
0.02119	0.10015
0.07220	1.19699
-0.05531	1.14597
0.04670	0.12566
0.27621	-0.00188
-0.15732	0.71234
0.17421	-0.02739
0.19971	-0.74160
0.04670	-0.76711
0.42922	-1.17523
0.48022	-0.12942
0.53123	0.76336
0.58223	0.89089
0.19971	0.71234
-0.00431	0.86539
-0.02981	0.66132
-0.13181	0.40625
-0.36133	0.02363
-0.25932	-0.46102
-0.18282	-0.51203
0.48022	-0.46102
0.78624	-0.18043
0.48022	0.50828
0.30171	0.61031
0.14870	0.48277
0.04670	0.38074
0.02119	0.48277
-0.15732	-0.20594
-0.25932	-0.28246
0.25071	-0.35899
0.40372	-0.38449
0.73524	0.10015
0.27621	0.78886
-0.08081	0.35523
-0.23382	0.07465
-0.08081	0.15117
-0.43783	0.66132
-0.08081	0.58480
0.48022	0.43176
0.60773	-0.89465
0.42922	-0.46102
0.42922	-0.15492
0.14870	0.32972
0.02119	0.30422
0.02119	0.68683
-0.02981	0.86539
-0.13181	0.78886
0.09770	-0.10391
0.19971	-0.84363
0.37822	-0.71609
0.48022	-0.43551
0.37822	-0.23145
0.22521	0.50828
-0.10631	0.76336
-0.48884	0.73785
-1.07538	0.25320
0.17421	0.35523
0.40372	-0.05289
0.53123	0.07465
1.04126	-0.07840
0.58223	-0.35899
0.37822	0.02363
0.58223	0.38074
0.83725	0.45726
-0.05531	0.61031
-0.43783	0.53379
-0.33583	0.40625
-0.15732	-0.10391
-0.20832	-0.63957
0.02119	-1.65988
0.09770	0.35523
0.27621	1.52859
0.25071	0.02363
0.14870	-1.09871
0.17421	0.04914
0.07220	0.83988
-0.02981	0.68683
0.12320	0.83988
0.42922	-0.05289
0.50573	-0.66508
0.30171	0.02363
0.27621	-0.63957
0.12320	-0.02739
-0.05531	0.83988
0.02119	0.73785
0.12320	0.45726
0.12320	0.27871
0.02119	0.25320
-0.33583	0.04914
0.55673	-0.18043
0.50573	-0.84363
0.42922	0.30422
0.14870	0.83988
-0.38683	0.81437
0.14870	0.35523
0.48022	0.43176
-0.05531	0.48277
0.50573	-0.05289
0.07220	-0.63957
0.32721	-0.89465
0.42922	-0.71609
0.27621	-0.10391
-0.18282	0.94191
0.19971	0.83988
0.30171	0.63582
-0.02981	0.63582
-0.43783	0.27871
-0.28482	-0.35899
-0.08081	0.02363
0.19971	0.04914
0.58223	-0.15492
0.53123	-0.61406
-0.08081	-0.51203
-0.18282	0.48277
0.07220	0.35523
0.07220	0.61031
-0.05531	1.42656
0.25071	1.17148
0.45472	-0.30797
0.55673	-1.22625
0.37822	-0.41000
0.40372	-0.18043
0.30171	-0.07840
-0.02981	0.04914
-0.02981	0.40625
-0.48884	0.68683
-0.61635	0.83988
0.30171	0.27871
0.14870	-0.25695
0.27621	-0.23145
0.17421	-0.33348
0.37822	-0.05289
0.50573	0.48277
0.22521	0.96742
-0.41233	0.86539
-0.36133	0.27871
0.32721	-0.10391
0.63323	-0.05289
0.70974	-0.18043
-0.00431	-0.38449
0.04670	-0.51203
0.63323	0.17668
0.25071	0.66132
-0.18282	0.61031
-0.23382	0.73785
-0.00431	0.04914
-0.20832	0.35523
-0.08081	-0.12942
0.25071	-1.02219
0.48022	1.47757
0.45472	-0.35899
0.37822	-2.68019
0.17421	-0.12942
-0.20832	1.88570
-0.02981	1.75816
0.17421	0.78886
0.22521	0.53379
0.25071	0.07465
0.32721	-0.46102
0.32721	-0.97117
