0.60773	-0.99668
0.17421	-1.81293
-0.31033	0.81437
-0.28482	2.80397
-0.33583	1.24800
-0.48884	2.67644
-0.33583	-0.41000
0.40372	-2.34859
-0.59084	-1.40480
0.50573	-1.25176
0.91375	-1.17523
1.09226	0.63582
1.37278	2.01323
0.32721	1.14597
-0.87136	0.63582
-0.48884	1.73265
-1.53441	-0.23145
-0.00431	-1.78742
1.09226	-1.58336
0.73524	0.04914
0.45472	-1.14973
0.93925	2.24281
0.32721	1.27351
-0.31033	0.30422
-0.74385	1.65613
-0.56534	0.83988
-0.23382	-0.97117
0.02119	-0.97117
0.53123	-2.19554
0.30171	-0.86914
0.81175	0.27871
1.04126	0.78886
-0.36133	1.96222
-0.48884	2.90601
-0.23382	2.67644
0.27621	-3.72601
0.07220	-3.13933
0.50573	1.98773
0.19971	-0.20594
0.48022	-0.92016
0.19971	0.04914
0.48022	-0.28246
0.17421	1.88570
-0.28482	1.75816
0.14870	0.22769
0.19971	1.91120
-0.59084	0.17668
-0.08081	-2.52714
0.63323	-2.73121
0.53123	0.32972
0.32721	0.58480
0.53123	0.73785
-0.02981	0.22769
-0.36133	0.25320
-0.61635	1.06945
-0.87136	2.52339
-0.23382	-0.48652
0.76074	-2.11902
0.86275	-1.17523
0.50573	-0.56305
0.58223	-0.63957
0.86275	1.98773
-0.36133	2.49788
-0.13181	1.60511
0.25071	0.02363
-0.15732	-0.63957
-0.51434	0.32972
-0.38683	-0.48652
0.81175	-0.28246
0.60773	-0.66508
0.42922	-3.64948
0.86275	0.71234
0.14870	0.53379
-0.41233	2.93151
-0.51434	3.49268
-0.28482	2.08976
-0.76936	-3.80253
-0.25932	-2.27207
0.22521	1.29902
1.42379	-0.81812
1.24527	-2.09351
1.32178	-0.25695
-0.02981	2.01323
-0.79486	1.98773
-0.36133	1.29902
-0.38683	1.17148
-0.46334	-0.86914
-0.28482	-0.07840
0.35272	0.12566
1.16877	-0.79262
1.06676	-1.99148
0.86275	-0.35899
-0.00431	2.82948
-0.56534	1.55410
-0.89686	-0.48652
-0.31033	1.04394
-0.41233	1.06945
0.40372	-1.30277
0.81175	-3.34339
0.91375	-1.20074
0.37822	-1.88945
-0.08081	1.45206
0.22521	3.44167
0.02119	2.16628
-0.99887	-2.22105
-0.25932	4.89561
-0.89686	0.38074
0.35272	-2.80773
0.96476	1.29902
0.68424	0.15117
0.27621	-1.99148
0.68424	-3.34339
0.35272	-1.17523
0.58223	1.47757
0.55673	0.63582
0.07220	3.95182
-1.12638	2.16628
-0.87136	-1.40480
-0.43783	-1.73640
0.32721	-1.27726
0.42922	-0.05289
1.78081	1.40105
0.50573	0.53379
0.02119	1.47757
-0.25932	1.19699
0.19971	1.35003
-0.38683	-0.41000
-0.02981	-0.92016
0.93925	-0.99668
0.55673	-1.02219
0.09770	0.50828
-0.31033	1.04394
-0.46334	-0.25695
-0.00431	-1.07320
-0.00431	0.40625
0.09770	2.29382
-0.08081	1.04394
0.32721	-1.37929
0.55673	-5.76663
0.63323	3.11007
0.55673	1.73265
0.65874	1.80917
-0.31033	2.03874
-0.33583	-0.15492
0.04670	0.17668
0.02119	0.17668
-0.13181	-0.30797
-0.94787	-2.24656
-1.30489	-2.62918
0.60773	0.83988
1.34728	-0.15492
2.13783	0.83988
1.44929	1.80917
0.04670	1.88570
-0.71835	1.35003
-0.61635	1.24800
-0.79486	0.22769
-0.18282	-0.97117
0.50573	-1.78742
0.17421	-1.17523
0.55673	-0.99668
1.06676	0.53379
0.48022	1.52859
-0.15732	1.47757
-0.36133	2.85499
-0.53984	1.06945
-0.84586	-4.23616
-0.13181	-3.64948
0.73524	0.78886
0.50573	1.78367
0.42922	-1.68539
1.06676	-0.76711
-0.00431	5.55881
-0.08081	2.47238
-0.33583	-0.53754
-0.79486	0.38074
-0.48884	-0.89465
0.09770	-3.24136
1.47479	-1.53234
1.70430	-0.48652
0.65874	0.12566
-0.79486	0.76336
-1.38139	1.52859
-0.61635	1.40105
0.58223	1.93671
0.70974	1.50308
0.45472	-1.30277
0.55673	-2.50164
0.76074	-0.51203
0.58223	0.25320
0.37822	-0.02739
0.37822	1.37554
-0.10631	0.89089
-0.51434	1.55410
-1.68742	0.73785
-0.79486	0.15117
-0.33583	-0.35899
0.27621	0.04914
0.88825	-3.08831
1.01576	0.04914
0.76074	-0.23145
0.91375	1.45206
0.40372	-0.30797
-0.31033	-0.58856
-0.43783	1.04394
-0.46334	1.04394
-0.69285	0.15117
0.09770	-0.71609
0.76074	-0.74160
0.76074	0.25320
0.86275	-0.38449
0.81175	0.30422
0.27621	1.22250
-0.18282	1.91120
-0.99887	0.76336
-0.74385	0.55929
-0.43783	0.30422
-0.66735	-2.29757
1.11776	-1.88945
1.44929	-0.05289
0.12320	0.07465
0.48022	0.66132
0.81175	0.83988
0.55673	1.47757
0.07220	0.43176
-0.23382	1.04394
-0.71835	0.68683
-0.08081	0.55929
0.19971	-0.35899
0.02119	-2.32308
0.55673	-5.58807
0.91375	-1.83844
0.07220	4.05386
-0.51434	3.36515
-0.66735	0.99292
-0.48884	2.70194
-0.36133	1.22250
0.02119	-1.48133
0.78624	-1.73640
1.14327	-1.63437
0.68424	-1.60887
0.53123	0.30422
0.19971	1.68163
0.14870	1.52859
-0.15732	1.60511
-0.28482	1.57960
-0.69285	-0.79262
-0.20832	-1.86394
0.53123	-1.17523
0.32721	-0.89465
0.45472	-1.32828
1.39828	1.04394
1.06676	1.78367
0.17421	2.85499
-0.51434	1.45206
-1.10088	-2.42511
-1.07538	-1.65988
0.17421	0.48277
0.86275	-0.05289
0.93925	1.24800
0.86275	0.17668
0.81175	0.48277
0.14870	-0.51203
-0.76936	2.65093
-0.53984	1.42656
-0.33583	0.86539
-0.28482	-1.07320
-0.08081	-0.99668
0.45472	-1.27726
0.60773	-0.10391
0.58223	-1.50683
0.91375	-0.86914
0.37822	1.40105
-0.18282	2.59991
-0.15732	1.83468
-0.25932	0.02363
-0.69285	-1.45582
0.45472	-1.35379
0.73524	-0.20594
0.32721	0.55929
0.22521	-0.99668
0.88825	0.66132
0.91375	1.57960
-0.15732	2.21730
-1.04987	1.01843
-0.33583	0.15117
-0.56534	-1.17523
0.37822	-3.29238
0.50573	1.88570
0.35272	1.50308
0.68424	-1.32828
0.35272	-0.97117
0.42922	0.99292
0.04670	0.53379
-0.51434	0.40625
0.14870	1.12046
-0.31033	-0.00188
0.04670	-0.89465
0.45472	0.81437
-0.02981	0.07465
0.48022	-2.42511
1.09226	-1.17523
0.53123	1.12046
-0.28482	2.95702
-0.79486	2.88050
-1.04987	1.88570
-0.79486	-1.45582
0.12320	-2.24656
0.93925	-0.15492
1.27078	0.27871
1.01576	0.15117
0.99026	1.06945
0.12320	0.30422
-0.25932	-1.43031
-0.69285	0.40625
-0.82036	1.22250
-0.94787	-0.18043
0.19971	-0.38449
0.91375	-0.76711
1.27078	-1.37929
1.11776	-0.99668
0.96476	1.29902
0.96476	1.96222
0.30171	1.37554
-0.41233	1.22250
-1.55991	0.94191
-0.74385	0.68683
-0.51434	-1.17523
0.19971	-2.68019
1.14327	-2.39961
0.12320	0.61031
0.53123	1.55410
0.91375	1.78367
0.12320	0.83988
-0.59084	0.83988
-0.20832	-0.56305
-0.89686	0.45726
-0.36133	-0.48652
1.16877	-1.96597
1.21977	-0.97117
0.60773	0.35523
0.58223	1.68163
0.48022	0.96742
-0.15732	1.98773
-0.43783	0.76336
-0.87136	-1.22625
-1.27939	-1.32828
-0.28482	-0.99668
0.63323	1.68163
0.73524	0.27871
1.06676	-2.39961
1.29628	0.30422
1.04126	0.96742
0.14870	1.78367
-0.51434	0.78886
-0.97337	1.27351
-0.87136	0.10015
0.30171	-0.61406
0.58223	-0.43551
0.42922	-0.86914
-0.59084	-2.39961
0.32721	-0.00188
0.86275	2.31933
0.04670	1.47757
0.22521	0.81437
0.25071	0.32972
-0.08081	-0.12942
0.14870	-0.05289
0.53123	-0.94566
0.70974	-0.94566
0.25071	-0.43551
-0.38683	0.68683
0.14870	-0.92016
0.12320	0.76336
-0.18282	3.97733
-0.43783	3.97733
-0.76936	-2.78222
-0.00431	-4.84835
0.65874	-1.86394
1.24527	-0.48652
1.09226	1.04394
1.11776	1.47757
-0.23382	2.21730
-0.69285	1.86019
-0.15732	1.70714
-0.28482	0.91640
-0.76936	-0.41000
0.14870	-1.30277
0.63323	-1.35379
1.01576	-2.06800
1.34728	-1.37929
1.09226	0.86539
-0.31033	2.08976
-0.82036	2.06425
-0.89686	0.58480
-0.33583	0.35523
-0.46334	-0.48652
0.14870	-0.81812
0.96476	-1.12422
1.34728	-0.71609
0.91375	-1.04770
0.32721	2.37034
-0.64185	2.52339
-1.10088	-0.48652
0.17421	-1.35379
0.40372	3.05905
0.02119	2.70194
0.35272	-1.81293
0.68424	-2.52714
0.68424	-0.79262
0.22521	-1.12422
0.70974	-0.46102
0.19971	1.68163
-0.38683	0.86539
-0.59084	0.53379
-0.59084	2.31933
-0.51434	0.81437
0.12320	-1.17523
0.73524	-0.79262
0.73524	-1.55785
0.42922	-1.96597
0.22521	1.52859
0.19971	2.98253
0.22521	2.21730
0.04670	0.63582
-0.00431	0.89089
-0.69285	-0.58856
0.09770	-0.99668
0.35272	-1.50683
0.50573	-2.80773
0.45472	-1.65988
0.99026	1.42656
0.02119	1.80917
-0.31033	1.47757
0.09770	-0.56305
0.04670	2.98253
-0.38683	1.96222
-0.20832	-2.06800
0.81175	-3.57296
0.91375	-1.09871
0.65874	1.14597
0.83725	2.49788
0.19971	-1.14973
-0.56534	-0.05289
-0.84586	2.82948
-0.43783	1.63062
-0.59084	-1.04770
0.02119	-1.53234
0.50573	-0.66508
0.93925	-0.41000
0.02119	-0.23145
0.73524	0.76336
0.58223	1.55410
-0.20832	1.04394
-0.28482	0.43176
-0.02981	1.04394
-0.51434	-0.25695
0.25071	-1.07320
0.78624	-0.86914
0.81175	-0.99668
0.48022	-1.91496
0.14870	0.91640
-0.02981	1.24800
0.35272	0.83988
-0.48884	2.77847
0.40372	2.26831
-0.48884	-0.02739
-0.48884	-1.20074
-0.31033	-1.37929
1.16877	-2.24656
1.01576	-0.05289
1.39828	1.63062
0.73524	1.19699
-0.20832	-1.07320
-0.46334	0.58480
-0.56534	2.14077
-0.82036	-0.02739
-0.23382	-1.27726
0.12320	-0.56305
0.76074	-1.37929
0.83725	-1.58336
0.70974	2.44687
-0.10631	0.99292
-0.43783	-0.30797
-0.43783	1.29902
-0.15732	2.80397
-0.23382	-0.07840
0.37822	0.94191
0.63323	-0.28246
1.14327	-3.31788
1.39828	-1.99148
1.04126	1.91120
-0.61635	2.03874
-2.17195	0.48277
-0.89686	0.73785
0.25071	0.27871
-0.13181	0.53379
0.50573	-0.12942
1.06676	-2.29757
1.60230	0.00000
1.11776	-1.20074
0.65874	-0.35899
-0.08081	0.94191
-1.38139	1.29902
-0.66735	1.57960
-0.02981	1.80917
-0.36133	0.20219
0.14870	-1.50683
0.42922	-0.05289
0.73524	-0.97117
0.60773	0.30422
1.01576	-0.33348
0.25071	0.12566
-0.66735	1.55410
-0.69285	0.30422
-0.48884	2.01323
-0.18282	-0.12942
0.02119	-0.07840
0.55673	-1.43031
0.81175	-1.73640
0.40372	0.22769
1.21977	-1.20074
0.65874	1.91120
-0.08081	-0.00188
-0.82036	0.78886
-0.48884	1.06945
-0.89686	-0.97117
-0.08081	0.04914
0.68424	0.30422
1.14327	0.15117
1.34728	0.71234
1.06676	-0.61406
0.02119	-0.28246
-0.64185	0.89089
-1.22839	1.29902
-0.38683	0.96742
-0.13181	1.35003
-0.13181	-0.35899
0.53123	-0.61406
1.04126	-2.01699
0.88825	-1.71090
0.42922	-0.71609
0.45472	1.32453
-0.31033	1.17148
-0.38683	1.75816
-0.38683	0.78886
-0.46334	1.83468
0.14870	0.83988
0.53123	-1.91496
0.65874	-2.96078
0.02119	0.43176
0.04670	-1.09871
0.53123	-0.12942
-0.20832	2.19179
0.07220	1.22250
0.04670	0.76336
-0.59084	1.50308
-0.23382	0.48277
0.78624	-0.58856
1.09226	-1.37929
0.81175	-0.23145
0.99026	-0.84363
0.42922	1.19699
-0.71835	1.37554
-0.82036	0.53379
-0.53984	0.27871
-0.99887	0.50828
-0.36133	0.25320
0.81175	-1.40480
0.40372	-2.42511
0.45472	0.12566
1.04126	0.20219
1.19427	0.45726
0.53123	1.06945
-0.02981	1.45206
-0.71835	0.63582
-1.61091	2.24281
-0.13181	-0.12942
0.91375	-1.27726
0.78624	-3.11382
0.81175	-1.07320
1.04126	0.10015
0.12320	1.93671
-0.20832	2.72745
-0.28482	0.76336
-0.43783	-0.79262
-0.79486	0.78886
-0.18282	-0.86914
0.70974	-2.22105
0.76074	-0.76711
0.58223	-0.00188
1.01576	-0.35899
0.83725	0.71234
-0.05531	1.57960
-0.97337	2.01323
-1.22839	1.52859
-0.69285	1.22250
0.73524	-1.25176
1.37278	-0.28246
1.29628	-0.99668
0.53123	-2.52714
-0.38683	-1.78742
-0.69285	0.73785
0.48022	2.16628
0.27621	2.14077
0.04670	-0.35899
-0.28482	0.86539
0.48022	-0.02739
0.60773	-0.76711
0.58223	-0.84363
0.12320	-0.35899
0.40372	-1.27726
-0.36133	0.73785
-0.31033	1.65613
-0.36133	0.63582
-0.28482	2.11527
-0.38683	1.04394
0.09770	-1.02219
0.70974	-1.20074
0.99026	1.65613
-0.02981	-0.56305
0.86275	-4.26167
0.40372	-0.28246
-0.33583	1.70714
-0.43783	1.17148
-0.51434	1.47757
-0.76936	2.16628
0.22521	0.78886
1.04126	-1.27726
1.32178	-1.73640
1.11776	-0.05289
0.86275	0.02363
-0.59084	1.24800
-1.15188	1.19699
-1.25389	1.68163
-0.43783	0.15117
0.02119	0.02363
0.76074	-0.66508
1.32178	-0.35899
0.60773	-1.37929
0.68424	-1.27726
0.55673	-0.38449
0.63323	0.53379
0.22521	1.86019
-0.92237	2.26831
-0.61635	0.81437
-0.71835	-0.76711
-0.33583	-0.05289
0.30171	-0.61406
0.73524	-1.17523
0.78624	2.03874
0.68424	-0.05289
0.12320	0.02363
-0.15732	2.29382
-0.38683	-0.56305
-0.28482	-1.71090
-0.46334	0.22769
-0.02981	0.30422
0.53123	-0.84363
0.93925	-0.66508
0.70974	1.65613
1.14327	0.45726
0.17421	0.55929
-0.74385	0.71234
-0.23382	1.14597
-0.59084	0.20219
-1.10088	0.96742
0.02119	0.91640
1.21977	-0.63957
1.62780	-3.03730
0.37822	-0.35899
-0.23382	0.53379
0.09770	-0.71609
0.70974	-0.25695
0.02119	0.96742
-0.41233	1.63062
-0.46334	1.27351
0.32721	0.30422
0.83725	0.07465
0.35272	-2.29757
0.27621	-0.92016
0.58223	-1.25176
0.04670	2.67644
-0.48884	2.90601
-0.59084	0.32972
-0.10631	0.17668
-0.59084	0.35523
-0.13181	-0.79262
0.17421	-1.37929
0.99026	-0.94566
1.24527	-0.51203
1.52579	0.30422
0.37822	0.25320
-0.43783	-0.02739
-0.74385	2.37034
-0.25932	1.14597
-0.53984	0.45726
0.19971	0.02363
-0.13181	-1.09871
0.78624	-1.02219
1.62780	0.07465
0.99026	-0.35899
0.19971	0.30422
-1.63641	1.91120
-0.43783	1.35003
-0.59084	0.63582
-0.99887	-1.17523
0.32721	-1.09871
1.09226	0.53379
1.24527	1.27351
0.81175	0.38074
0.68424	-2.88425
0.07220	-1.22625
-0.64185	1.32453
-1.22839	3.31413
-0.82036	1.17148
-0.43783	-1.60887
0.45472	-1.09871
0.99026	0.32972
0.81175	1.63062
0.58223	0.66132
0.76074	-1.17523
0.55673	-1.91496
-0.15732	-0.30797
-0.31033	1.32453
-0.25932	1.73265
-0.48884	2.72745
0.04670	-0.00188
0.32721	-2.73121
0.09770	-3.62398
0.12320	0.68683
0.81175	0.15117
0.93925	1.24800
0.09770	1.12046
0.02119	1.27351
-0.33583	1.68163
-0.94787	1.37554
-0.51434	-1.78742
0.27621	-1.58336
1.09226	-0.25695
0.30171	0.10015
1.34728	0.96742
0.96476	0.12566
0.35272	-0.15492
-0.28482	0.96742
-0.74385	0.96742
-0.97337	1.45206
-0.97337	0.35523
0.55673	-0.97117
0.78624	-1.81293
0.68424	-0.66508
0.76074	-2.19554
0.22521	1.35003
-0.00431	3.08456
-0.13181	0.81437
-0.38683	0.96742
-0.69285	1.22250
-0.05531	-1.30277
0.50573	-3.44542
0.73524	-0.76711
0.40372	0.68683
-0.10631	0.53379
0.42922	0.53379
0.17421	-0.15492
-0.02981	0.20219
-0.13181	0.96742
-0.51434	1.98773
-0.05531	0.73785
0.58223	-0.33348
0.58223	-0.92016
0.48022	-1.04770
0.83725	-1.04770
0.53123	0.83988
-1.22839	1.75816
-0.43783	1.37554
-0.08081	-0.33348
-0.20832	0.63582
0.50573	-0.18043
0.22521	-0.81812
0.86275	-1.27726
0.73524	-0.51203
0.40372	0.55929
0.14870	-0.69059
-0.18282	0.30422
-0.79486	2.26831
-0.31033	0.25320
-0.36133	-0.71609
0.19971	1.12046
0.60773	1.50308
1.04126	-0.05289
0.55673	-3.16484
0.99026	-0.71609
0.09770	0.71234
-0.66735	-0.07840
-0.69285	0.66132
-0.28482	2.57441
-0.48884	1.55410
0.09770	-1.22625
0.53123	-0.51203
1.04126	-0.66508
0.68424	-1.99148
1.16877	-1.25176
-0.10631	1.09496
-0.36133	1.78367
-0.48884	1.35003
-0.69285	1.93671
-0.64185	2.21730
-0.59084	-1.45582
1.01576	-3.11382
1.21977	-1.02219
0.88825	-1.07320
1.19427	-0.00188
0.09770	2.06425
-0.13181	2.70194
-0.20832	0.43176
-0.92237	1.24800
-1.30489	0.02363
-0.18282	-2.14453
0.91375	-1.81293
1.32178	-1.63437
1.04126	0.15117
1.11776	-0.05289
0.48022	0.91640
-0.41233	2.47238
-1.04987	1.27351
-0.87136	1.14597
-0.61635	0.48277
-0.20832	-2.68019
0.70974	-0.99668
1.09226	0.66132
0.70974	-0.20594
0.40372	0.04914
0.50573	0.83988
0.25071	0.94191
-0.00431	0.58480
-0.18282	0.12566
-1.27939	0.89089
-1.53441	-0.38449
0.58223	-0.99668
1.80631	-1.09871
1.42379	-0.00188
1.37278	-0.69059
0.68424	0.43176
0.30171	1.57960
-0.05531	2.62542
-1.07538	0.73785
-1.91693	-0.74160
-1.43240	-1.07320
0.76074	-0.48652
1.39828	-0.58856
1.24527	0.45726
1.34728	-0.61406
0.45472	1.17148
-0.69285	1.19699
-1.33039	-0.12942
-1.12638	0.55929
-0.20832	0.91640
0.42922	-0.61406
0.91375	0.94191
1.04126	-0.41000
0.93925	-2.29757
0.83725	-3.01179
0.53123	2.06425
-0.23382	4.35995
-0.56534	0.83988
-0.76936	-2.42511
-1.40690	-0.25695
0.14870	1.14597
0.76074	-0.94566
0.53123	-2.50164
0.76074	0.38074
0.93925	0.53379
0.50573	0.40625
-0.25932	1.01843
-0.79486	1.73265
-0.36133	1.19699
-0.23382	1.75816
0.12320	-0.33348
1.04126	-1.30277
0.70974	-1.22625
0.27621	-1.25176
0.70974	-0.84363
-0.61635	0.58480
-1.22839	1.70714
-0.38683	1.35003
0.19971	0.61031
0.02119	1.06945
0.76074	-0.15492
0.55673	-1.07320
0.78624	-1.35379
0.81175	-1.14973
0.65874	-1.32828
0.07220	1.86019
-0.15732	2.70194
-0.25932	-0.05289
-0.48884	0.66132
-1.27939	-0.38449
-0.76936	0.43176
0.22521	0.35523
1.19427	-0.71609
0.93925	-1.20074
1.04126	-0.71609
0.76074	0.58480
0.09770	1.50308
-0.23382	0.25320
-0.28482	0.27871
-0.94787	1.35003
-0.51434	1.04394
0.93925	-0.92016
0.42922	-2.70570
0.86275	-0.94566
0.63323	-0.05289
-0.02981	0.45726
0.19971	1.57960
-0.33583	1.96222
-0.48884	1.12046
-0.51434	0.50828
0.02119	-0.15492
0.58223	-0.81812
0.48022	-1.96597
0.07220	-0.25695
1.29628	0.25320
1.14327	0.91640
0.42922	0.07465
-0.64185	0.81437
-1.02437	0.81437
-1.15188	0.27871
-0.25932	-0.89465
1.06676	-1.43031
0.93925	1.29902
0.60773	-0.56305
0.70974	-2.70570
0.30171	0.86539
-0.28482	0.55929
-0.38683	4.23241
-0.46334	0.86539
-0.43783	0.15117
0.09770	0.25320
0.55673	-1.81293
0.45472	-3.62398
0.99026	0.40625
0.60773	0.38074
-0.28482	0.66132
-0.15732	0.99292
0.42922	1.22250
0.37822	1.57960
-0.71835	2.14077
-0.53984	-2.04250
-1.20288	-3.01179
0.73524	-1.14973
1.14327	0.43176
1.37278	0.61031
0.88825	1.47757
0.35272	0.25320
-0.23382	0.25320
-0.10631	1.37554
-0.69285	2.82948
-0.48884	-0.41000
0.40372	-2.80773
0.78624	-1.09871
0.65874	-0.25695
0.91375	-1.45582
0.09770	2.01323
-0.97337	2.47238
-0.48884	1.83468
0.30171	0.20219
-0.13181	-0.53754
-0.38683	-0.00188
-0.36133	-0.53754
0.83725	-0.69059
1.39828	-1.48133
1.39828	0.27871
0.60773	0.25320
-0.38683	0.58480
-0.38683	0.30422
-1.33039	-0.81812
-1.89143	1.17148
0.19971	1.14597
1.19427	3.21210
1.11776	-2.06800
1.04126	-4.10862
1.21977	-0.53754
0.17421	1.35003
-0.38683	2.82948
-0.43783	2.47238
-0.25932	1.19699
-0.59084	1.37554
-0.79486	-0.07840
0.42922	-1.30277
-0.38683	-2.11902
1.04126	-1.63437
1.57679	-0.97117
0.91375	0.89089
0.07220	2.06425
-0.05531	1.57960
-0.99887	-0.25695
-0.79486	0.12566
-0.61635	-0.56305
0.63323	-0.38449
0.35272	0.55929
0.48022	-0.28246
0.99026	-3.90456
0.09770	0.22769
0.27621	3.00804
-0.08081	1.27351
-0.64185	2.14077
-0.89686	2.34484
-0.13181	0.61031
0.09770	-2.17003
0.99026	-0.33348
0.76074	-1.25176
0.78624	-1.96597
0.32721	-1.27726
-0.18282	0.04914
-0.28482	1.63062
-0.28482	1.19699
-0.64185	0.89089
0.09770	1.14597
0.45472	0.43176
0.76074	-1.45582
0.73524	-1.96597
0.86275	-0.94566
0.42922	0.10015
-1.15188	0.91640
-0.94787	2.54890
-0.10631	1.42656
0.09770	1.06945
-0.00431	-0.20594
0.73524	-1.71090
1.09226	-1.07320
1.29628	-1.22625
1.09226	-1.48133
0.27621	1.35003
-0.31033	0.96742
-0.05531	0.12566
-0.15732	0.50828
-0.53984	2.11527
-0.28482	-0.33348
0.32721	-1.12422
0.53123	-0.48652
-0.00431	0.73785
0.63323	-0.05289
0.35272	-0.81812
-0.20832	1.86019
-0.38683	0.10015
-0.46334	-0.41000
-0.61635	2.19179
-0.10631	-1.40480
0.60773	-1.88945
1.04126	-0.76711
0.78624	1.45206
0.86275	-1.27726
0.30171	0.50828
0.50573	2.49788
-0.20832	2.24281
-1.48340	-0.12942
-2.57997	0.04914
0.14870	-0.28246
1.06676	-1.58336
1.29628	-2.04250
1.29628	-1.32828
0.81175	-0.18043
-0.18282	1.52859
0.14870	1.96222
0.17421	1.65613
0.12320	1.63062
-0.51434	1.80917
-0.18282	-0.25695
0.27621	-2.90976
0.58223	-1.07320
0.35272	1.01843
0.17421	-2.55265
-0.08081	-3.13933
-0.31033	-1.81293
-0.46334	4.84460
-0.38683	4.43647
-0.56534	1.60511
0.17421	0.53379
0.70974	-0.51203
0.91375	-1.83844
0.48022	-1.20074
0.37822	-1.09871
0.73524	-0.05289
0.12320	1.04394
-0.41233	2.06425
-0.00431	1.04394
-0.46334	0.12566
-0.00431	-1.32828
-0.05531	-2.39961
1.29628	-0.46102
1.44929	0.35523
1.24527	0.12566
-0.10631	0.73785
-0.69285	1.78367
-1.33039	1.40105
-0.10631	1.09496
-0.36133	1.78367
0.19971	0.22769
1.09226	-1.45582
0.73524	-0.66508
0.35272	-1.96597
0.63323	-0.43551
0.42922	-0.46102
-0.25932	0.50828
-0.36133	0.17668
-0.48884	2.70194
-0.51434	2.29382
0.17421	0.63582
0.58223	-1.73640
0.50573	-1.35379
-0.28482	-2.47613
0.40372	-2.50164
0.68424	2.95702
0.27621	2.95702
0.17421	0.83988
0.12320	0.02363
-0.64185	0.86539
-0.41233	-0.07840
0.60773	-1.68539
1.19427	-1.07320
0.68424	-0.63957
0.55673	-0.33348
-0.41233	1.32453
0.17421	1.93671
-0.28482	2.49788
-1.58541	1.65613
-1.50890	0.43176
0.32721	-1.58336
1.14327	-2.57816
1.60230	-0.86914
1.11776	-0.05289
-0.59084	-0.05289
0.22521	0.76336
0.19971	0.73785
0.35272	2.11527
0.14870	1.06945
-0.61635	1.29902
-0.79486	-0.05289
0.30171	-2.70570
0.88825	-3.75152
0.73524	0.12566
0.96476	1.32453
0.53123	1.63062
-0.46334	-0.30797
-0.74385	1.57960
-0.82036	0.78886
-0.51434	1.12046
0.04670	-1.43031
0.60773	-1.58336
1.16877	-0.07840
1.11776	0.38074
0.70974	0.22769
0.32721	1.04394
-0.48884	0.32972
-1.15188	-0.10391
-0.71835	0.58480
-0.69285	0.58480
0.70974	0.25320
1.34728	-0.86914
1.04126	-1.02219
0.68424	0.40625
0.42922	-0.12942
-0.84586	1.12046
-0.38683	0.25320
0.07220	-0.79262
0.14870	0.86539
-0.46334	1.80917
-0.28482	1.22250
0.81175	-0.58856
1.09226	-0.76711
0.88825	-2.75671
0.55673	-1.22625
-0.20832	2.77847
-0.69285	2.47238
-0.36133	0.83988
-0.31033	-0.86914
-0.43783	2.11527
0.02119	-1.25176
0.58223	-3.75152
0.78624	-2.06800
0.81175	0.83988
0.81175	0.32972
-0.05531	0.50828
-0.48884	0.86539
-0.20832	2.47238
-0.20832	0.76336
-0.43783	0.45726
0.37822	1.09496
0.86275	-0.33348
0.12320	-0.76711
0.50573	-0.15492
0.60773	-0.53754
0.53123	0.35523
-0.18282	0.66132
-1.61091	0.68683
-0.10631	0.76336
0.48022	1.01843
0.58223	-0.58856
0.58223	-1.55785
0.58223	-1.53234
0.55673	0.45726
0.50573	-0.46102
0.35272	0.32972
-0.25932	0.30422
-0.31033	1.55410
-0.38683	0.32972
-0.79486	1.55410
-0.36133	2.03874
0.42922	1.14597
0.83725	-2.85874
0.63323	-2.09351
0.50573	-1.43031
0.55673	0.58480
0.07220	0.35523
0.09770	1.96222
-0.41233	1.52859
-1.48340	0.68683
-0.56534	0.78886
0.81175	-1.78742
1.47479	-1.68539
1.21977	0.15117
1.55129	0.35523
0.53123	-0.56305
-0.41233	1.60511
-0.82036	2.14077
-0.94787	1.17148
-0.64185	0.96742
-0.00431	-0.63957
0.02119	-1.58336
0.35272	-0.79262
0.40372	-0.30797
1.06676	-1.86394
0.99026	0.40625
0.12320	1.50308
-0.13181	0.35523
-0.10631	0.96742
-0.89686	2.14077
-0.08081	0.25320
0.78624	-0.76711
0.83725	-0.46102
-0.28482	-1.30277
-0.05531	-1.14973
0.50573	1.22250
0.19971	1.01843
-0.02981	-0.81812
-0.33583	0.30422
-0.59084	1.27351
-0.10631	1.57960
0.42922	1.09496
0.91375	-0.79262
0.50573	-1.48133
0.88825	-1.50683
0.45472	1.78367
0.02119	0.58480
-0.05531	-1.55785
-0.46334	-0.66508
-0.76936	1.55410
-0.23382	-0.07840
0.70974	-0.46102
0.91375	-0.07840
0.37822	0.38074
-0.18282	0.40625
0.12320	1.52859
0.19971	1.12046
0.32721	0.73785
0.22521	1.19699
-0.31033	1.01843
-0.74385	-0.56305
-0.92237	-1.50683
0.70974	-1.68539
0.93925	-1.48133
1.50029	-0.71609
1.01576	1.37554
0.04670	0.76336
-0.51434	0.66132
-0.59084	0.40625
-0.74385	2.49788
-0.31033	0.20219
0.35272	-0.94566
0.70974	-0.94566
0.63323	-0.97117
0.25071	-1.73640
0.27621	0.43176
-0.41233	2.24281
-0.13181	0.94191
0.07220	0.96742
-0.15732	1.91120
-0.25932	-0.05289
0.19971	-1.35379
0.32721	-0.89465
1.21977	-0.61406
1.55129	-0.28246
0.55673	0.43176
-0.59084	-0.25695
-1.17738	-0.25695
-1.12638	0.86539
-0.87136	1.42656
0.35272	0.81437
1.09226	-0.97117
1.29628	-1.27726
0.60773	-0.20594
0.42922	-0.63957
0.14870	1.04394
-0.23382	1.80917
-0.48884	-0.20594
-0.69285	0.50828
-0.36133	0.73785
0.19971	-0.10391
0.81175	-1.30277
1.09226	-1.32828
0.68424	-2.06800
0.73524	0.83988
0.07220	0.83988
-0.28482	2.19179
-0.56534	2.34484
-0.51434	0.17668
-0.89686	1.45206
-0.38683	-2.04250
0.30171	-3.59847
0.81175	-1.12422
0.91375	1.37554
1.19427	-0.66508
0.19971	-0.86914
0.27621	2.29382
-0.28482	2.70194
-0.38683	1.09496
-0.43783	0.81437
-0.20832	-0.20594
0.60773	-1.27726
0.14870	-1.53234
0.63323	-0.35899
1.34728	-0.15492
0.63323	0.81437
-0.31033	0.71234
-0.94787	1.42656
-0.43783	0.30422
-0.36133	1.37554
0.19971	-0.30797
0.68424	-0.71609
0.19971	-1.40480
0.32721	-2.14453
0.88825	-0.74160
0.37822	1.19699
-0.59084	1.24800
-0.41233	0.55929
-0.28482	1.37554
-0.56534	0.94191
0.07220	-1.17523
0.83725	-0.18043
0.83725	0.27871
0.68424	-1.04770
0.81175	-0.48652
-0.56534	2.01323
-0.31033	0.22769
-0.10631	-0.89465
-0.23382	0.55929
-0.31033	1.86019
0.09770	1.40105
0.53123	-0.71609
1.37278	-1.27726
0.70974	-0.41000
0.83725	-0.84363
-0.76936	0.25320
-1.04987	1.32453
-0.61635	0.68683
0.35272	-0.00188
0.09770	0.55929
-0.08081	-0.15492
0.91375	-0.46102
1.14327	-0.63957
0.83725	-0.56305
0.93925	-0.76711
-0.02981	-0.12942
-0.61635	1.60511
-0.99887	2.95702
-1.25389	1.80917
-0.38683	0.63582
0.17421	-1.45582
0.63323	-1.96597
1.44929	-2.17003
1.09226	0.38074
0.73524	-1.53234
-0.33583	1.60511
0.07220	2.62542
-0.00431	1.88570
-0.28482	0.91640
-0.76936	1.24800
-0.59084	-1.35379
-0.15732	-1.71090
0.76074	-0.05289
0.86275	-1.40480
1.14327	-1.40480
0.48022	0.27871
-0.02981	1.22250
-0.20832	1.29902
-0.38683	0.32972
-0.59084	1.68163
-0.28482	0.12566
0.02119	-0.84363
0.83725	-0.94566
0.88825	0.12566
1.09226	-0.84363
0.14870	1.06945
-0.36133	1.19699
-0.43783	-0.00188
-1.53441	0.61031
-1.35589	0.99292
0.68424	-0.07840
1.21977	-0.86914
1.34728	-1.99148
1.29628	-0.61406
1.42379	0.25320
0.37822	1.17148
-0.53984	0.78886
-0.94787	0.76336
-0.66735	-1.17523
-0.87136	1.47757
0.07220	1.93671
0.58223	1.63062
0.73524	-1.25176
0.30171	-1.91496
0.83725	-1.48133
-0.23382	-0.00188
-0.18282	-0.38449
-0.38683	1.12046
-0.08081	1.86019
-0.18282	1.80917
-0.15732	0.86539
0.78624	-1.17523
0.88825	-1.02219
1.01576	-0.05289
1.19427	-1.12422
-0.18282	-0.07840
-0.31033	1.27351
-1.30489	-0.12942
-0.56534	0.91640
-0.28482	1.88570
-0.05531	0.20219
-0.02981	-0.58856
0.96476	-1.14973
1.47479	-0.71609
1.72980	-0.41000
0.30171	1.17148
-0.23382	1.73265
-0.33583	0.76336
-0.48884	0.58480
-0.82036	0.61031
-0.43783	0.35523
0.19971	-1.83844
0.73524	-1.48133
0.53123	-1.32828
0.65874	-1.30277
0.25071	0.10015
-0.13181	2.16628
-0.28482	1.17148
-0.18282	3.16108
-0.43783	2.57441
-0.00431	-0.48652
0.12320	-1.65988
0.73524	-1.40480
0.42922	-1.25176
1.44929	-1.45582
0.68424	1.12046
-0.33583	1.24800
-0.59084	1.09496
-0.25932	0.86539
-0.51434	1.47757
0.07220	0.15117
0.68424	-1.40480
0.99026	-1.09871
0.99026	-0.20594
1.11776	-0.92016
0.12320	0.22769
-0.71835	1.52859
-0.89686	1.24800
-0.59084	0.99292
-0.56534	1.88570
-0.43783	0.27871
0.27621	-1.27726
0.93925	-1.55785
0.02119	-1.35379
0.88825	-1.68539
0.93925	1.12046
0.22521	2.24281
-0.15732	0.12566
-0.33583	0.43176
-0.43783	1.93671
-0.82036	-0.02739
0.09770	-0.12942
0.63323	-0.97117
1.11776	-2.04250
1.52579	-1.58336
0.78624	1.32453
-0.46334	1.19699
-0.41233	0.99292
-0.31033	0.68683
-0.61635	1.93671
-0.64185	-0.48652
-0.13181	-2.19554
0.63323	-0.61406
1.01576	-0.69059
0.99026	-0.66508
0.68424	1.37554
0.04670	1.70714
-0.61635	1.19699
-0.36133	1.04394
-0.43783	1.32453
-0.08081	-0.43551
0.58223	-1.22625
0.40372	-1.55785
0.86275	0.25320
0.99026	-0.69059
-0.18282	0.10015
-0.61635	1.09496
-0.71835	1.70714
-0.15732	-0.07840
-0.61635	1.37554
-0.33583	-0.43551
1.04126	-1.86394
1.16877	1.93671
0.58223	-0.63957
0.93925	-4.05761
0.55673	-1.14973
-0.13181	1.83468
-0.23382	3.03355
-0.74385	2.26831
-0.79486	1.47757
-0.56534	0.12566
0.04670	-1.55785
0.78624	-1.88945
0.96476	-0.76711
1.32178	-0.86914
1.01576	0.86539
-0.18282	1.93671
-0.76936	1.09496
-0.79486	0.40625
-0.64185	0.55929
-0.38683	1.24800
-0.05531	0.20219
0.91375	-2.80773
1.47479	-2.22105
1.65330	-0.63957
0.58223	1.01843
-1.12638	1.75816
-1.84042	1.78367
-0.15732	1.06945
0.04670	1.19699
0.50573	-0.81812
0.65874	-1.76191
0.60773	-1.07320
0.65874	0.30422
0.99026	-0.12942
0.19971	0.91640
-0.18282	1.37554
-0.15732	0.89089
-0.66735	-0.28246
-0.82036	0.76336
-0.31033	0.22769
0.40372	-1.30277
1.01576	-1.12422
0.93925	-0.07840
1.01576	-0.46102
0.09770	-0.00188
-0.51434	0.81437
-0.20832	1.68163
-0.18282	1.27351
-1.20288	2.16628
-0.64185	0.35523
1.14327	-2.04250
1.34728	-1.68539
0.65874	-0.53754
0.09770	-0.63957
0.22521	1.24800
-0.23382	1.86019
-0.05531	1.24800
-0.89686	0.17668
-0.53984	1.17148
0.42922	-0.58856
1.19427	-0.81812
0.93925	-0.97117
0.63323	-1.09871
0.83725	-0.79262
0.04670	0.66132
-0.99887	0.81437
-0.84586	0.76336
-0.02981	2.29382
-0.56534	1.19699
0.09770	0.25320
0.78624	-1.48133
0.96476	-2.78222
0.70974	-0.05289
0.27621	0.40625
0.27621	0.02363
-0.00431	1.98773
-0.23382	-0.00188
-0.15732	-0.02739
-0.33583	1.65613
-0.13181	-0.35899
-0.23382	-1.48133
0.02119	-0.51203
0.02119	-0.00188
1.72980	-0.53754
1.19427	0.61031
-0.18282	0.78886
-0.71835	0.32972
-0.53984	1.24800
-0.89686	1.50308
0.76074	-0.69059
0.76074	-1.60887
1.14327	-1.04770
0.73524	-0.25695
-0.23382	0.20219
-0.28482	0.25320
-0.61635	1.27351
-0.20832	1.68163
0.04670	1.50308
-0.69285	0.76336
0.42922	-1.27726
0.83725	-0.86914
0.91375	-0.89465
0.60773	-0.35899
1.04126	-0.81812
-0.41233	-0.56305
-0.74385	0.96742
-0.64185	1.88570
-0.79486	2.72745
-0.48884	1.86019
0.22521	-1.12422
0.96476	-1.43031
1.09226	-0.97117
0.81175	-2.06800
1.34728	-2.19554
0.73524	0.55929
-0.48884	1.96222
-1.53441	1.63062
-1.38139	2.16628
-0.51434	1.65613
0.58223	-0.71609
0.78624	-1.78742
0.68424	-0.74160
0.55673	-0.25695
1.06676	-1.17523
0.32721	0.45726
-0.10631	1.37554
-0.69285	1.12046
0.37822	1.47757
-0.25932	1.55410
0.14870	0.61031
-0.05531	-1.45582
0.19971	-1.58336
0.63323	-1.37929
0.93925	-1.30277
0.07220	0.04914
-0.23382	1.47757
-0.18282	2.21730
-0.38683	1.47757
-0.56534	2.08976
0.02119	-1.04770
0.65874	-2.32308
0.93925	-2.17003
0.50573	-0.20594
0.42922	0.66132
0.17421	1.63062
-0.25932	1.75816
0.17421	0.22769
-0.59084	-0.12942
-0.25932	1.86019
-0.66735	0.61031
0.68424	-1.53234
1.19427	-1.88945
0.22521	-0.84363
0.73524	-1.04770
0.63323	1.52859
0.35272	1.60511
-0.10631	1.55410
-0.64185	0.96742
-0.79486	1.01843
-0.15732	-0.38449
0.60773	-1.12422
0.40372	-1.91496
0.42922	-0.20594
0.53123	0.27871
-0.25932	1.19699
-0.02981	1.60511
-0.10631	0.99292
0.25071	0.04914
-0.10631	0.96742
0.09770	-0.12942
0.09770	-1.58336
-0.41233	-1.22625
0.76074	-0.97117
0.86275	-1.07320
0.91375	1.45206
0.22521	1.01843
0.09770	1.06945
-0.18282	2.77847
-0.53984	1.47757
-0.36133	-0.58856
-0.18282	-1.27726
-0.10631	-1.48133
0.83725	-1.58336
1.29628	-0.94566
0.27621	0.91640
-0.76936	1.83468
0.07220	0.89089
0.07220	0.35523
-0.64185	1.19699
-0.46334	-0.05289
-0.87136	-0.23145
1.27078	-0.74160
1.55129	-0.63957
1.52579	-0.74160
0.78624	0.43176
-0.20832	0.48277
-1.15188	1.93671
-1.07538	2.62542
-1.33039	1.12046
0.04670	-0.99668
0.93925	-1.58336
0.91375	-1.99148
0.78624	-1.17523
1.67880	-1.71090
0.78624	0.81437
-0.64185	1.68163
-0.94787	1.70714
-1.15188	1.50308
-1.04987	2.19179
-0.69285	0.22769
1.09226	-1.14973
1.42379	-3.67499
1.29628	-0.30797
1.34728	-0.05289
0.53123	0.17668
-0.23382	1.93671
-0.48884	1.57960
-0.69285	1.35003
-1.48340	0.02363
-0.33583	-0.56305
0.68424	-0.66508
1.04126	-1.07320
0.73524	-1.60887
0.96476	-1.43031
0.27621	1.24800
-0.25932	1.98773
-0.08081	1.45206
-0.46334	0.66132
-0.99887	1.47757
-0.08081	-0.25695
0.37822	-1.86394
0.83725	-1.48133
1.06676	-0.46102
1.09226	-0.66508
0.42922	0.86539
-0.18282	1.93671
0.02119	1.32453
-0.20832	1.01843
-0.64185	1.55410
-0.23382	-0.76711
-0.13181	-2.04250
0.99026	-0.94566
0.78624	-1.14973
0.93925	0.12566
0.25071	1.57960
-0.31033	-0.43551
-0.41233	0.83988
-0.48884	1.78367
-1.02437	2.21730
-0.41233	0.12566
0.19971	-1.50683
1.01576	-1.88945
0.81175	-0.79262
0.83725	-1.07320
0.37822	1.32453
0.04670	2.03874
-0.08081	1.37554
-0.97337	0.76336
-0.46334	0.66132
0.22521	-0.53754
0.96476	-1.88945
0.88825	-1.07320
0.30171	-0.51203
0.42922	-0.46102
-0.53984	0.58480
-0.08081	1.47757
-0.02981	1.47757
0.45472	1.29902
-0.38683	1.55410
-0.46334	-0.43551
0.55673	-1.09871
0.96476	-1.20074
0.88825	-0.56305
0.63323	-0.92016
0.14870	0.53379
-0.18282	1.19699
-0.38683	1.01843
-0.28482	-0.20594
-0.61635	1.47757
-0.41233	2.03874
0.65874	0.38074
0.81175	-3.08831
0.65874	-2.01699
0.68424	-0.84363
0.17421	0.55929
-0.41233	0.17668
-0.46334	1.24800
-0.43783	1.06945
-0.53984	2.06425
0.17421	0.55929
0.88825	-1.30277
0.73524	-1.04770
0.32721	-0.51203
0.81175	-0.20594
0.19971	0.35523
-0.23382	0.20219
-0.51434	0.55929
-0.38683	1.22250
-0.18282	1.47757
-0.94787	-0.23145
-0.53984	-1.20074
1.32178	-0.30797
1.67880	0.04914
1.72980	-0.74160
1.37278	0.35523
0.60773	1.40105
-0.69285	0.99292
-0.79486	2.21730
-1.27939	0.78886
-0.84586	-1.63437
0.91375	-2.19554
1.06676	-0.76711
-0.05531	1.50308
0.12320	-0.97117
0.37822	-1.25176
-0.23382	1.70714
-0.20832	0.02363
-0.10631	-0.10391
-0.36133	2.65093
-0.00431	1.60511
0.48022	0.68683
0.65874	-1.58336
0.83725	-3.49644
1.09226	-2.09351
0.19971	0.96742
-0.61635	0.96742
-0.59084	2.88050
-0.33583	1.40105
-0.05531	0.94191
0.19971	0.04914
0.02119	-2.04250
0.93925	-0.51203
0.76074	0.17668
0.68424	-0.86914
0.76074	0.40625
-0.76936	0.61031
-1.30489	0.73785
-0.71835	0.55929
-0.64185	1.06945
1.04126	-0.00188
1.44929	-0.92016
1.14327	-1.50683
0.73524	-0.25695
0.96476	-0.79262
0.14870	0.27871
-0.41233	2.16628
-0.82036	1.75816
-0.89686	0.63582
-0.99887	-0.43551
-0.20832	0.04914
0.53123	-0.10391
0.78624	-0.00188
0.78624	0.58480
1.24527	-0.38449
0.78624	-0.71609
-0.36133	0.78886
-0.87136	0.25320
-1.73842	0.50828
-0.43783	0.25320
0.53123	-0.53754
1.19427	-0.02739
1.55129	-0.20594
1.11776	-0.69059
0.14870	-1.48133
0.09770	0.58480
-0.20832	1.68163
-0.08081	1.50308
-0.66735	1.04394
-1.10088	2.59991
-0.38683	-0.74160
-0.23382	-1.83844
0.96476	-1.50683
1.29628	-1.20074
1.42379	-0.35899
0.35272	1.42656
-0.08081	1.24800
-0.08081	0.30422
-0.38683	1.14597
-0.66735	2.06425
0.02119	0.12566
0.35272	-1.76191
0.53123	-1.32828
0.60773	-0.12942
0.76074	-1.94047
-0.00431	0.30422
-0.89686	1.50308
-0.38683	1.45206
-0.00431	0.35523
-0.25932	1.17148
0.14870	0.27871
0.63323	-0.86914
0.93925	-0.15492
0.12320	-0.05289
1.06676	-1.68539
0.50573	-0.79262
-0.33583	1.93671
-1.04987	1.50308
-0.76936	-0.07840
0.37822	1.42656
0.27621	0.25320
0.83725	-1.07320
0.78624	-0.81812
0.42922	-0.35899
0.42922	-0.61406
0.27621	0.76336
-0.66735	1.42656
-0.28482	1.37554
0.19971	0.71234
-0.48884	1.01843
-0.13181	-0.58856
0.55673	-1.20074
0.65874	-1.37929
0.32721	0.12566
0.53123	-1.35379
-0.00431	0.07465
-0.10631	1.60511
-0.20832	-0.43551
-0.23382	1.91120
-0.56534	2.06425
-0.00431	0.45726
0.91375	-0.97117
0.58223	-1.09871
0.32721	-1.48133
0.83725	-1.91496
0.63323	0.63582
-0.02981	1.83468
-0.20832	1.68163
-0.87136	0.78886
-0.23382	2.08976
0.40372	-0.79262
-0.20832	-2.90976
0.53123	-0.92016
1.16877	0.50828
1.78081	-0.46102
0.81175	0.38074
-0.53984	1.68163
-1.30489	1.24800
-0.41233	2.34484
-0.31033	1.73265
-0.41233	-1.68539
0.81175	-1.94047
1.09226	-1.58336
0.70974	-0.15492
0.55673	0.45726
0.50573	0.55929
-0.46334	1.42656
-0.84586	1.14597
-0.61635	-0.66508
-0.53984	1.35003
-0.02981	0.61031
0.70974	-0.99668
0.88825	-1.14973
0.83725	-1.94047
1.14327	-1.91496
0.48022	0.96742
-0.28482	1.88570
-0.15732	1.50308
-0.48884	1.73265
-1.07538	1.88570
-0.31033	0.15117
0.32721	-1.09871
1.32178	-1.58336
0.88825	-0.89465
0.27621	-1.04770
-0.69285	0.96742
0.81175	0.73785
0.35272	0.27871
-0.15732	0.63582
-1.48340	1.70714
-0.53984	0.45726
0.86275	-1.17523
1.14327	-1.55785
1.37278	-0.38449
1.29628	-0.38449
0.32721	0.76336
-0.46334	1.75816
-0.59084	1.78367
-0.56534	0.12566
-0.94787	0.55929
-0.69285	-1.78742
-0.53984	-0.84363
0.50573	0.30422
1.01576	0.94191
1.24527	-0.12942
0.78624	-0.89465
0.17421	0.96742
-0.02981	1.86019
-0.20832	0.32972
-0.89686	1.09496
-0.64185	-1.12422
-0.13181	-1.55785
1.01576	-0.20594
1.14327	-0.35899
1.14327	-1.20074
0.68424	0.43176
-0.05531	1.70714
-0.20832	1.52859
-0.38683	0.38074
-1.04987	1.32453
-1.02437	0.94191
0.42922	-0.92016
0.76074	-1.27726
1.29628	-0.81812
0.99026	-1.14973
0.02119	0.32972
-0.10631	1.42656
-0.33583	1.32453
-0.23382	0.45726
-0.28482	0.91640
0.58223	-0.02739
0.81175	-1.07320
0.07220	-0.94566
-0.20832	0.02363
0.53123	-0.76711
0.58223	0.66132
-0.53984	1.37554
-0.18282	0.10015
0.14870	2.08976
-0.38683	2.42136
-0.13181	-0.58856
0.42922	-1.37929
0.76074	-1.07320
0.81175	-1.76191
0.93925	-2.70570
0.14870	1.04394
-0.51434	2.06425
-0.79486	1.80917
-0.15732	0.81437
-0.38683	2.08976
0.09770	-0.12942
0.25071	-1.25176
-0.00431	-1.17523
0.78624	-0.35899
1.19427	-0.53754
0.48022	0.12566
-0.41233	0.71234
-0.31033	0.83988
0.09770	0.83988
-0.31033	1.78367
0.25071	0.86539
0.42922	-0.92016
-0.33583	-1.78742
0.53123	-1.22625
1.04126	0.07465
-0.08081	1.22250
-0.02981	1.12046
-0.23382	0.66132
-0.10631	0.55929
-0.71835	0.94191
-0.08081	-1.07320
0.40372	-0.43551
0.60773	-0.20594
0.63323	0.43176
0.81175	-1.17523
0.40372	-1.12422
-0.18282	1.45206
-0.59084	2.11527
-0.48884	0.02363
-1.12638	0.55929
-0.25932	0.61031
0.63323	-1.22625
1.11776	-0.48652
1.14327	0.27871
1.39828	-1.32828
0.37822	-0.33348
-0.38683	1.93671
-1.68742	1.17148
-1.35589	1.63062
0.04670	1.98773
0.42922	-0.30797
0.78624	-1.32828
1.32178	-1.27726
0.68424	-0.74160
0.81175	-0.92016
0.17421	1.01843
-1.02437	1.35003
-0.61635	0.71234
0.35272	0.94191
-0.08081	1.37554
0.27621	-0.41000
0.55673	-0.33348
0.78624	-0.15492
-0.31033	-0.99668
0.53123	-2.09351
0.65874	0.76336
0.04670	0.99292
-0.46334	0.89089
-0.41233	0.73785
-0.79486	3.64573
-0.08081	0.76336
0.91375	-1.78742
1.14327	-2.45062
0.60773	-1.12422
0.09770	-1.68539
-0.28482	0.66132
0.19971	1.47757
0.07220	3.18659
0.02119	1.80917
-0.38683	0.89089
-0.13181	-0.48652
0.48022	-1.53234
0.63323	-1.65988
0.65874	-0.99668
1.06676	-0.63957
0.78624	1.06945
-0.43783	0.30422
-0.87136	0.43176
-1.15188	1.24800
-0.82036	1.45206
0.35272	0.27871
0.70974	-0.94566
0.91375	-0.69059
0.55673	-0.51203
1.06676	-0.76711
0.42922	0.86539
-0.10631	1.22250
-0.64185	0.81437
-0.36133	0.91640
-0.38683	1.14597
0.17421	-0.15492
0.60773	-1.14973
0.68424	-0.79262
0.68424	-0.76711
0.78624	-1.45582
0.12320	-0.33348
-0.18282	2.16628
-0.61635	1.35003
-0.43783	0.32972
-0.61635	2.54890
-0.13181	0.45726
0.53123	-2.14453
0.58223	-1.88945
0.91375	-0.15492
1.19427	-0.56305
0.50573	0.91640
-0.56534	1.65613
-0.71835	1.45206
0.04670	0.45726
-0.25932	1.04394
0.12320	0.32972
0.53123	-1.22625
-0.02981	-1.63437
0.93925	0.10015
1.44929	-1.37929
0.17421	-0.63957
-1.53441	1.50308
-0.46334	1.88570
0.40372	1.73265
0.14870	0.68683
0.25071	-0.20594
0.58223	-0.92016
0.35272	-1.14973
0.60773	0.50828
0.93925	-1.27726
-0.02981	-1.40480
-0.28482	1.78367
-0.38683	2.44687
-0.43783	1.98773
-0.71835	1.45206
-0.10631	-1.53234
0.53123	-0.97117
0.73524	-0.76711
0.73524	-1.88945
1.04126	-1.96597
0.48022	0.43176
-0.15732	1.42656
-0.28482	1.78367
-0.28482	1.42656
-0.71835	1.17148
-0.31033	-0.51203
0.17421	-0.79262
0.81175	-0.66508
1.16877	-0.48652
1.52579	-0.81812
-0.25932	0.71234
-0.51434	1.50308
-0.69285	1.04394
-0.79486	0.30422
-0.61635	1.47757
0.58223	0.22769
1.34728	-1.30277
1.14327	-1.53234
1.06676	-0.61406
0.63323	-1.65988
-0.46334	2.21730
-0.10631	2.01323
-0.13181	-0.02739
-0.46334	-0.12942
-1.04987	2.14077
-0.74385	0.66132
0.60773	-0.58856
0.81175	-2.62918
0.73524	-3.47093
0.88825	0.35523
-0.05531	2.06425
-0.13181	2.11527
-0.28482	1.42656
-0.25932	1.86019
-0.28482	2.01323
0.04670	-0.41000
0.86275	-2.24656
1.01576	-2.60367
0.48022	-0.56305
0.73524	-0.51203
-0.25932	0.07465
-0.33583	0.94191
-0.15732	0.86539
-0.18282	1.55410
-0.33583	2.19179
-0.66735	1.12046
0.07220	-2.22105
0.96476	-1.73640
1.21977	-0.23145
1.24527	-0.25695
-0.02981	0.66132
-0.59084	0.78886
-1.17738	0.94191
-0.76936	1.24800
-0.23382	1.68163
0.78624	0.02363
1.11776	-1.20074
1.19427	-1.25176
0.42922	-0.86914
0.65874	-0.53754
0.30171	0.50828
-0.48884	0.17668
-0.59084	2.93151
-0.56534	2.03874
-0.64185	-1.73640
-0.48884	-2.14453
0.58223	0.07465
1.16877	0.76336
0.73524	-0.15492
0.50573	-1.91496
-0.13181	-0.05289
-0.38683	1.40105
0.09770	2.01323
0.02119	1.37554
-0.20832	0.76336
0.30171	-0.05289
0.73524	-1.48133
1.09226	-1.65988
0.19971	-0.23145
0.78624	-0.92016
-0.31033	0.22769
-1.30489	1.65613
-0.38683	0.96742
0.14870	0.66132
0.04670	1.65613
0.53123	0.15117
0.65874	-1.12422
-0.00431	-0.05289
0.32721	-1.22625
1.01576	-2.32308
0.60773	0.76336
0.32721	1.55410
-0.51434	1.19699
-0.48884	1.01843
-0.69285	2.65093
-0.08081	-0.10391
0.35272	-1.88945
0.63323	-1.81293
0.53123	-1.04770
0.42922	-1.65988
0.53123	1.70714
-0.10631	3.00804
-0.28482	2.14077
-0.69285	-0.20594
-0.99887	-0.97117
0.12320	-0.00188
0.99026	-0.00188
1.14327	-0.92016
0.83725	-0.76711
0.81175	-1.50683
-0.02981	-0.07840
0.04670	1.35003
-0.59084	2.08976
-0.05531	1.80917
-0.23382	0.78886
-0.20832	-1.50683
-0.20832	-1.27726
0.02119	-0.76711
-0.08081	0.12566
1.11776	-0.41000
1.34728	1.19699
0.19971	1.32453
-0.00431	0.55929
0.22521	0.30422
-0.25932	0.86539
-0.13181	0.15117
0.09770	-0.74160
0.37822	-0.84363
0.04670	-0.81812
0.65874	-0.76711
0.12320	0.38074
-0.15732	1.32453
-0.36133	1.52859
-0.56534	0.91640
-1.04987	0.22769
-1.10088	0.04914
0.91375	-1.86394
1.44929	-1.53234
0.96476	-0.81812
1.09226	-0.76711
0.55673	0.76336
-0.05531	2.85499
-0.28482	2.14077
-0.23382	1.12046
-0.69285	0.71234
-0.25932	-2.65468
0.07220	-0.41000
0.73524	0.91640
0.42922	-0.00188
1.16877	-1.48133
0.30171	-0.10391
-0.59084	0.91640
-0.92237	0.76336
-0.79486	0.68683
-0.84586	1.50308
0.30171	0.10015
1.47479	-1.65988
1.32178	-1.35379
0.96476	-0.48652
0.14870	-0.30797
-0.28482	1.32453
-0.00431	1.78367
0.07220	0.83988
-0.08081	0.32972
-0.51434	1.27351
-0.28482	0.81437
0.22521	-0.84363
0.63323	-1.76191
0.50573	-0.94566
0.70974	-1.86394
0.27621	-0.25695
-0.28482	2.39585
-0.46334	2.80397
-0.61635	1.86019
-0.79486	2.44687
-0.13181	-1.37929
0.83725	-3.72601
0.83725	-1.22625
0.32721	-1.22625
0.55673	-0.30797
0.65874	1.12046
0.42922	1.52859
-0.13181	0.61031
-0.02981	1.73265
-0.76936	1.65613
-0.36133	-1.53234
-0.00431	-1.07320
0.37822	-0.79262
1.42379	-0.15492
1.32178	-0.71609
0.53123	0.66132
-1.15188	2.34484
-0.48884	1.35003
0.60773	0.66132
-0.38683	1.06945
-0.15732	-0.41000
0.30171	-1.58336
0.02119	-1.35379
0.60773	-0.43551
1.04126	-0.92016
0.37822	0.91640
-0.28482	1.32453
-0.38683	1.47757
-0.18282	0.58480
-0.69285	0.22769
-0.18282	-0.48652
0.35272	-0.79262
0.55673	0.15117
0.53123	-2.39961
1.09226	1.29902
0.53123	1.55410
-0.00431	0.17668
-0.36133	1.12046
-0.38683	0.76336
-0.71835	1.29902
-0.33583	-0.84363
0.19971	-0.89465
0.68424	-0.07840
1.19427	-0.38449
1.29628	-2.55265
0.73524	-0.23145
0.04670	1.73265
-0.38683	1.73265
-0.94787	1.40105
-1.17738	1.57960
-0.76936	0.48277
0.53123	-1.48133
0.81175	-1.50683
-0.00431	-0.35899
1.57679	-0.86914
1.50029	0.61031
-0.02981	1.32453
-0.43783	1.14597
-0.84586	0.73785
-0.87136	1.14597
-0.10631	-0.25695
0.83725	-1.32828
0.93925	-2.11902
0.73524	-0.05289
0.83725	-0.48652
0.22521	0.83988
-0.38683	1.35003
-0.51434	0.68683
-0.61635	0.86539
-0.89686	1.63062
-0.23382	-0.69059
0.45472	-1.22625
0.53123	-0.66508
0.91375	-0.18043
1.24527	-2.11902
0.76074	0.02363
-0.23382	1.68163
-0.56534	0.50828
-0.38683	2.72745
-0.66735	2.08976
0.07220	-1.22625
0.60773	-1.60887
0.65874	-1.12422
0.83725	0.61031
0.93925	-0.56305
-0.18282	0.04914
-0.87136	1.42656
-0.31033	1.70714
-0.28482	1.09496
-1.04987	1.14597
0.32721	-1.14973
0.81175	-0.97117
1.44929	0.07465
1.37278	-0.15492
0.91375	-2.22105
-0.43783	-1.07320
-0.36133	1.01843
-0.64185	0.81437
-1.30489	2.26831
-0.87136	1.60511
0.14870	-1.04770
0.63323	0.55929
1.01576	-0.15492
0.88825	-1.35379
0.91375	-2.55265
0.35272	0.20219
-0.15732	1.80917
-0.51434	0.83988
-0.33583	2.75296
-0.71835	1.12046
-0.36133	-2.27207
0.37822	-1.68539
0.32721	-0.81812
0.78624	-0.97117
0.91375	0.38074
1.04126	0.96742
0.53123	1.47757
0.02119	2.21730
-0.97337	-0.25695
-3.06450	-0.20594
-0.23382	0.17668
1.42379	-0.58856
1.85731	-0.74160
1.37278	-0.20594
1.09226	-1.27726
-0.41233	0.50828
-1.22839	1.55410
-0.18282	1.09496
0.14870	0.76336
-0.18282	1.35003
-0.02981	-0.51203
0.45472	-0.76711
0.35272	-1.35379
0.32721	-1.27726
0.91375	-1.07320
0.40372	0.55929
-0.38683	1.22250
-0.31033	0.86539
-0.61635	1.63062
-0.69285	2.44687
-0.18282	0.55929
0.53123	-2.68019
0.99026	-0.41000
0.63323	-0.56305
1.09226	-0.66508
0.42922	0.35523
-0.36133	1.37554
-1.10088	0.38074
-1.30489	-0.30797
-0.18282	1.50308
0.48022	0.81437
1.14327	-0.63957
1.14327	-1.91496
0.99026	-1.20074
1.06676	-0.20594
-0.66735	0.50828
-0.64185	2.06425
-0.31033	1.37554
-0.64185	-0.25695
-0.56534	1.27351
0.27621	0.76336
0.78624	-0.61406
1.14327	-0.07840
0.96476	-1.22625
0.76074	-1.81293
-0.20832	0.27871
-1.30489	1.57960
-1.10088	1.45206
0.02119	1.12046
0.07220	1.42656
0.17421	-0.38449
0.63323	-2.19554
1.06676	-1.83844
1.01576	0.02363
0.91375	1.14597
-0.23382	0.48277
-0.61635	-0.97117
-0.53984	0.17668
-0.20832	2.29382
-0.41233	0.76336
0.17421	-0.38449
0.73524	0.61031
0.78624	-0.99668
0.81175	-1.65988
0.93925	-0.61406
0.32721	0.55929
-0.56534	1.04394
-0.53984	1.68163
-0.28482	1.04394
-0.28482	1.29902
-0.33583	-0.00188
-0.23382	-0.92016
-0.31033	-1.20074
0.17421	-0.74160
1.80631	0.17668
1.32178	0.32972
0.35272	-0.38449
0.32721	1.17148
0.12320	1.52859
-0.23382	1.35003
-0.31033	-0.25695
0.12320	-0.97117
0.32721	-1.32828
0.09770	-0.53754
0.22521	-1.20074
0.22521	0.02363
-0.28482	2.19179
-0.10631	1.78367
-0.33583	0.91640
-0.59084	1.73265
-0.05531	-0.46102
0.83725	-2.57816
0.93925	-1.04770
0.73524	0.10015
0.73524	0.15117
0.25071	-0.97117
-0.18282	-0.56305
-0.48884	3.44167
-0.25932	2.06425
-0.59084	0.32972
-0.00431	-0.05289
0.70974	-1.48133
0.99026	-1.53234
0.53123	-0.69059
0.63323	-1.48133
-0.92237	0.76336
-0.18282	1.78367
0.17421	1.45206
-0.08081	1.22250
-0.23382	1.70714
-0.43783	0.91640
0.22521	-1.71090
1.47479	-3.34339
1.62780	-0.20594
1.39828	-0.18043
0.32721	0.89089
-1.20288	1.68163
-1.81492	1.17148
-0.08081	0.71234
0.37822	0.61031
0.48022	-1.37929
0.37822	-0.79262
0.78624	-0.07840
0.70974	-1.27726
0.83725	0.40625
0.22521	0.66132
-0.31033	0.89089
-0.61635	1.40105
-0.87136	1.01843
-0.87136	1.09496
0.04670	1.37554
0.65874	-0.43551
0.81175	-2.39961
0.93925	-1.63437
1.11776	-1.09871
0.63323	1.04394
-0.25932	1.32453
-1.15188	1.40105
-0.56534	1.88570
-0.13181	1.40105
0.14870	-0.48652
0.60773	-1.04770
0.91375	-1.22625
0.42922	-0.74160
0.73524	-1.09871
0.53123	0.66132
-0.66735	1.17148
-0.59084	1.24800
-0.64185	0.25320
-0.61635	0.89089
0.32721	-0.18043
1.14327	-1.40480
1.06676	-0.05289
0.76074	-0.02739
0.42922	-1.09871
-0.53984	0.53379
-0.08081	1.88570
0.02119	2.08976
0.09770	0.91640
-0.38683	0.96742
-0.00431	-0.56305
0.48022	-2.52714
0.86275	-1.55785
0.60773	-1.50683
0.68424	-0.66508
0.19971	2.26831
-0.41233	1.37554
-0.51434	1.19699
-0.08081	1.06945
-0.71835	1.40105
-0.31033	-0.56305
0.35272	-1.63437
0.40372	-1.65988
0.27621	-0.58856
0.73524	-0.81812
0.83725	1.57960
0.40372	0.50828
0.25071	-0.00188
0.30171	2.29382
-0.51434	1.98773
-0.48884	-0.58856
-0.48884	-0.74160
0.40372	0.02363
0.83725	0.45726
0.40372	-1.91496
0.91375	-0.92016
0.30171	1.40105
0.02119	1.91120
-0.43783	1.37554
-1.12638	1.29902
-0.28482	-0.18043
0.53123	-2.06800
0.83725	-1.04770
0.40372	0.35523
0.81175	-1.78742
0.45472	-1.09871
-0.20832	1.22250
-0.18282	1.60511
-0.38683	1.27351
-0.79486	0.99292
-0.28482	0.07465
0.78624	-0.63957
1.27078	-1.04770
0.68424	0.63582
0.22521	-1.63437
-0.13181	-0.58856
-0.79486	1.65613
0.19971	1.57960
0.32721	1.19699
-0.33583	1.60511
0.27621	-0.43551
0.99026	-1.58336
0.93925	-0.74160
0.55673	-0.84363
0.45472	-1.32828
0.14870	0.66132
-0.99887	2.19179
-1.10088	1.60511
0.25071	0.50828
-0.36133	0.89089
0.30171	-0.41000
0.70974	-1.14973
1.09226	-1.12422
1.09226	-0.58856
1.01576	-0.84363
-0.38683	0.45726
-0.48884	1.98773
-0.38683	1.96222
-0.43783	0.81437
-0.59084	1.24800
0.02119	-0.69059
0.63323	-3.21585
0.76074	-1.32828
0.45472	0.27871
1.50029	-0.66508
0.70974	-0.61406
-0.28482	1.63062
-1.33039	2.37034
-1.91693	1.14597
-0.51434	1.98773
0.76074	0.71234
1.14327	-0.89465
1.29628	-1.32828
1.14327	-0.66508
0.99026	-1.30277
0.07220	-0.69059
-0.33583	1.06945
-0.59084	1.57960
-0.43783	0.76336
-0.69285	1.42656
-0.43783	-0.07840
0.45472	-0.99668
0.83725	-1.12422
0.73524	-0.48652
0.99026	-0.94566
0.50573	0.66132
-0.13181	1.37554
-0.64185	0.96742
-0.99887	0.32972
-0.48884	1.14597
-0.00431	0.78886
0.70974	-1.07320
0.88825	-0.79262
1.01576	-0.05289
1.04126	-2.42511
0.93925	-0.69059
0.02119	1.65613
-0.99887	2.39585
-1.55991	1.75816
-0.99887	-0.20594
0.48022	-0.69059
0.83725	0.45726
1.01576	0.10015
0.35272	-0.30797
0.91375	-1.65988
0.76074	-0.38449
-0.38683	1.60511
-0.53984	1.68163
-0.89686	0.55929
-0.94787	0.35523
0.68424	-0.30797
0.93925	-0.97117
0.93925	-1.35379
0.86275	0.38074
0.68424	-1.55785
0.70974	0.07465
-0.10631	1.65613
-1.04987	1.86019
-1.25389	0.78886
-1.71292	-0.25695
-0.28482	0.40625
1.16877	-0.00188
1.27078	-0.84363
1.09226	-0.61406
1.34728	0.35523
0.81175	0.22769
-0.15732	0.86539
-0.31033	1.47757
-0.31033	0.91640
-0.99887	0.32972
-0.46334	-1.30277
0.55673	-0.20594
0.73524	-0.89465
0.48022	-0.61406
0.88825	-0.81812
0.02119	-0.05289
0.12320	1.19699
-0.38683	1.57960
-0.00431	0.96742
-0.15732	1.83468
-0.02981	0.35523
0.48022	-1.43031
0.40372	-1.91496
-0.05531	-0.15492
0.91375	-0.63957
0.60773	0.81437
-0.43783	1.19699
-0.46334	-0.25695
-0.31033	0.63582
-0.41233	2.19179
0.02119	0.27871
0.53123	-1.20074
0.78624	-1.43031
0.63323	0.35523
0.48022	-0.46102
0.09770	0.53379
0.04670	1.42656
-0.31033	0.38074
-0.31033	1.47757
-0.46334	1.57960
-0.31033	-1.20074
0.37822	-1.81293
0.42922	-1.71090
0.81175	-0.74160
1.14327	-0.61406
0.40372	0.66132
0.14870	1.91120
-0.25932	2.19179
-0.36133	1.01843
-1.27939	0.91640
-1.35589	-0.05289
0.27621	-0.74160
1.75531	-0.56305
1.24527	-0.81812
0.78624	-2.34859
0.83725	-0.28246
0.25071	1.78367
-0.15732	1.93671
-0.31033	1.35003
-0.53984	1.78367
-0.33583	0.10015
-0.05531	-0.48652
0.53123	-1.32828
0.53123	-1.73640
0.68424	-1.12422
0.25071	0.83988
-0.31033	1.73265
-0.46334	0.22769
-0.51434	0.32972
-0.76936	1.75816
-0.08081	-0.02739
0.70974	-0.43551
0.93925	-0.10391
0.88825	-1.07320
0.93925	-2.32308
0.58223	0.04914
-0.23382	2.06425
-0.25932	1.42656
-0.31033	0.53379
-1.10088	0.76336
-0.31033	0.35523
0.32721	-0.58856
1.24527	-0.76711
1.24527	-0.33348
0.91375	-0.74160
0.02119	0.12566
-1.50890	1.19699
-0.18282	1.22250
0.12320	0.83988
-0.13181	1.37554
-0.48884	-0.05289
0.68424	-1.12422
0.99026	-1.43031
1.04126	-0.81812
0.93925	-0.81812
-0.05531	-0.30797
-0.61635	1.17148
-0.64185	2.29382
-0.61635	1.78367
-0.69285	1.37554
-0.08081	-1.04770
0.65874	-1.40480
0.93925	-1.43031
0.78624	-1.02219
0.88825	-1.45582
0.53123	0.78886
-0.25932	2.37034
-0.48884	0.96742
-0.36133	0.66132
-0.51434	1.32453
-0.13181	0.25320
0.50573	-1.09871
0.81175	-1.32828
0.73524	-0.69059
0.55673	-0.97117
0.17421	0.27871
-0.05531	1.32453
-0.28482	1.40105
-0.20832	0.96742
-0.51434	1.35003
-0.10631	-0.10391
0.48022	-1.17523
0.63323	-1.27726
0.45472	-0.58856
1.04126	-1.07320
0.53123	0.55929
-0.25932	1.47757
-0.92237	1.29902
-0.69285	1.04394
-0.48884	1.40105
-0.02981	-0.18043
0.65874	-1.30277
1.06676	-1.17523
0.86275	-0.63957
0.99026	-0.97117
0.45472	0.73785
-0.20832	1.27351
-0.56534	0.76336
-0.51434	0.71234
-0.74385	1.42656
-0.20832	0.15117
0.42922	-0.94566
0.68424	-1.09871
0.78624	-0.94566
0.96476	-1.50683
0.48022	1.55410
-0.18282	2.21730
-0.46334	0.71234
-0.41233	0.50828
-0.59084	1.06945
-0.20832	-0.43551
0.53123	-1.14973
0.93925	-0.97117
0.91375	-0.25695
1.06676	-0.74160
0.42922	0.38074
-0.13181	1.27351
-0.43783	1.12046
-0.61635	0.61031
-0.74385	1.14597
-0.15732	0.04914
0.37822	-1.04770
0.76074	-1.07320
0.83725	-0.43551
1.04126	-0.63957
0.48022	0.45726
-0.25932	1.45206
-0.51434	1.27351
-0.53984	0.86539
-0.46334	1.27351
-0.13181	-0.07840
0.63323	-1.17523
0.53123	-1.30277
0.35272	-0.69059
0.96476	-1.02219
0.60773	0.43176
0.07220	1.32453
-0.13181	1.22250
-0.33583	0.94191
-0.56534	1.37554
-0.33583	-0.00188
0.30171	-1.14973
0.53123	-1.20074
0.65874	-0.69059
1.09226	-0.89465
0.45472	0.48277
-0.25932	1.37554
-0.28482	1.29902
-0.36133	0.91640
-0.66735	1.52859
-0.10631	0.22769
0.48022	-0.97117
0.73524	-1.53234
0.73524	-0.74160
0.86275	-1.32828
0.35272	0.07465
-0.23382	1.93671
-0.46334	1.78367
-0.38683	0.86539
-0.59084	1.06945
-0.20832	-0.23145
0.55673	-1.14973
0.88825	-1.22625
0.78624	-0.63957
0.96476	-0.86914
0.45472	0.30422
-0.15732	1.40105
-0.33583	1.57960
-0.41233	1.09496
-0.74385	1.37554
-0.36133	-0.28246
0.48022	-1.07320
0.86275	-1.02219
0.73524	-0.46102
0.91375	-0.89465
0.40372	0.30422
-0.18282	1.37554
-0.41233	1.22250
-0.53984	0.73785
-0.66735	1.24800
-0.08081	-0.07840
0.63323	-1.04770
0.86275	-1.22625
0.73524	-0.48652
0.88825	-0.86914
0.25071	0.40625
-0.33583	1.27351
-0.36133	1.19699
-0.20832	0.86539
-0.56534	1.37554
-0.20832	-0.10391
0.53123	-1.12422
0.88825	-1.07320
