0.30171	-0.46102
0.42922	-0.25695
0.35272	-0.05289
0.50573	-0.23145
0.22521	0.35523
-0.00431	0.53379
-0.08081	0.55929
-0.25932	0.50828
-0.10631	0.55929
-0.02981	0.02363
0.30171	-0.41000
0.45472	-0.48652
0.37822	-0.15492
0.45472	-0.30797
0.22521	0.22769
0.02119	0.58480
-0.02981	0.63582
-0.02981	0.58480
-0.13181	0.71234
-0.13181	0.25320
0.27621	-0.38449
0.63323	-0.46102
0.32721	-0.20594
0.37822	-0.28246
0.27621	0.22769
-0.02981	0.55929
-0.08081	0.58480
-0.02981	0.66132
-0.15732	0.78886
-0.00431	0.15117
0.19971	-0.23145
0.37822	-0.56305
0.45472	-0.35899
0.45472	-0.66508
0.22521	-0.20594
-0.00431	0.53379
-0.10631	0.48277
0.02119	0.86539
-0.10631	1.12046
-0.02981	0.35523
0.27621	-0.28246
0.42922	-0.15492
0.50573	-0.15492
0.40372	-0.46102
0.19971	-0.07840
0.09770	0.53379
-0.05531	0.63582
-0.36133	0.35523
-0.41233	0.63582
0.07220	0.10015
0.50573	-0.33348
0.53123	-0.28246
0.48022	-0.20594
0.45472	-0.25695
0.19971	0.20219
0.07220	0.58480
-0.02981	0.66132
0.07220	0.45726
-0.23382	0.66132
-0.36133	0.30422
0.14870	-0.30797
0.42922	-0.35899
0.53123	-0.18043
0.48022	-0.25695
0.30171	0.10015
0.02119	0.61031
-0.00431	0.73785
-0.10631	0.53379
-0.28482	0.55929
0.09770	-0.10391
0.30171	-0.25695
0.48022	-0.38449
0.32721	-0.20594
0.45472	-0.20594
0.14870	0.38074
-0.08081	0.61031
-0.08081	0.73785
-0.08081	0.45726
-0.25932	0.38074
0.09770	0.10015
0.27621	-0.43551
0.42922	-0.28246
0.48022	-0.05289
0.40372	-0.25695
0.30171	0.15117
-0.05531	0.55929
-0.13181	0.53379
-0.08081	0.53379
-0.18282	0.66132
-0.00431	0.15117
0.32721	-0.43551
0.22521	-0.48652
0.37822	-0.07840
0.12320	-0.28246
0.37822	0.22769
0.32721	0.63582
0.02119	0.48277
-0.18282	0.30422
-0.13181	0.63582
0.07220	0.35523
0.37822	-0.23145
0.22521	-0.48652
0.19971	-0.25695
0.37822	-0.25695
0.27621	0.07465
0.02119	0.71234
-0.10631	0.55929
-0.15732	0.40625
-0.20832	0.48277
0.07220	0.17668
0.37822	-0.28246
0.42922	-0.30797
0.37822	-0.12942
0.48022	-0.41000
0.25071	0.22769
0.09770	0.63582
-0.13181	0.58480
-0.18282	0.35523
-0.13181	0.55929
0.09770	0.27871
0.25071	-0.28246
0.35272	-0.30797
0.27621	-0.18043
0.37822	-0.48652
0.22521	0.12566
0.12320	0.63582
-0.05531	0.61031
-0.10631	0.43176
-0.23382	0.55929
-0.05531	0.20219
0.35272	-0.05289
0.48022	-0.38449
0.35272	-0.35899
0.48022	-0.53754
0.40372	0.15117
0.02119	0.73785
-0.18282	0.71234
-0.15732	0.55929
-0.10631	0.61031
0.02119	-0.10391
0.25071	-0.46102
0.35272	-0.41000
0.35272	0.10015
0.42922	-0.10391
0.22521	0.25320
-0.02981	0.55929
-0.08081	0.48277
-0.00431	0.45726
0.02119	0.73785
-0.10631	0.25320
-0.05531	-0.43551
0.30171	-0.43551
0.50573	-0.23145
0.55673	-0.30797
0.35272	0.15117
0.09770	0.63582
-0.08081	0.61031
-0.13181	0.43176
-0.18282	0.58480
0.02119	0.25320
0.22521	-0.15492
0.35272	-0.43551
0.32721	-0.07840
0.45472	-0.25695
0.53123	0.20219
-0.00431	0.58480
-0.25932	0.45726
-0.13181	0.43176
-0.18282	0.55929
0.07220	0.27871
0.42922	-0.35899
0.32721	-0.30797
0.22521	-0.25695
0.37822	-0.35899
0.42922	0.15117
-0.00431	0.63582
0.07220	0.55929
-0.28482	0.45726
-0.20832	0.61031
0.04670	0.25320
0.35272	-0.15492
0.42922	-0.33348
0.32721	-0.23145
0.37822	-0.48652
0.27621	0.02363
0.09770	0.50828
-0.10631	0.55929
-0.15732	0.68683
-0.10631	0.71234
0.04670	-0.00188
0.27621	-0.38449
0.30171	-0.35899
0.40372	-0.12942
0.42922	-0.05289
0.25071	0.12566
-0.00431	0.35523
-0.08081	0.48277
-0.13181	0.35523
-0.23382	0.61031
-0.08081	0.15117
0.27621	-0.28246
0.53123	-0.23145
0.35272	-0.05289
0.42922	-0.33348
0.25071	0.15117
-0.02981	0.55929
0.02119	0.66132
-0.05531	0.50828
-0.15732	0.71234
-0.08081	0.22769
0.19971	-0.33348
0.42922	-0.51203
0.53123	-0.20594
0.48022	-0.30797
0.27621	0.15117
-0.08081	0.55929
-0.02981	0.43176
-0.00431	0.38074
-0.10631	0.68683
0.04670	0.25320
0.12320	-0.25695
0.32721	-0.38449
0.27621	-0.15492
0.53123	-0.25695
0.37822	0.15117
0.09770	0.55929
-0.02981	0.73785
-0.10631	0.55929
-0.18282	0.61031
0.07220	0.15117
0.30171	-0.30797
0.27621	-0.35899
0.25071	-0.25695
0.42922	-0.46102
0.40372	0.17668
-0.02981	0.66132
-0.13181	0.61031
-0.18282	0.50828
-0.23382	0.61031
0.04670	0.27871
0.27621	-0.23145
0.45472	-0.38449
0.30171	-0.51203
0.42922	-0.48652
0.42922	0.35523
0.12320	0.76336
-0.05531	0.76336
-0.10631	0.48277
-0.08081	0.68683
-0.05531	0.17668
0.17421	-0.38449
0.45472	-0.20594
0.42922	-0.12942
0.37822	-0.58856
0.32721	-0.00188
0.02119	0.58480
-0.10631	0.63582
-0.15732	0.40625
-0.15732	0.58480
0.12320	0.27871
0.19971	-0.28246
0.40372	-0.30797
0.40372	-0.20594
0.37822	-0.10391
-0.00431	0.22769
-0.00431	0.55929
0.12320	0.61031
0.02119	0.38074
-0.05531	0.61031
0.12320	0.25320
0.27621	-0.30797
0.37822	-0.58856
0.32721	-0.02739
0.50573	-0.30797
0.19971	0.07465
-0.00431	0.50828
-0.10631	0.66132
-0.13181	0.43176
-0.08081	0.66132
0.02119	0.45726
0.27621	-0.15492
0.40372	-0.58856
0.25071	-0.56305
0.40372	-0.38449
0.27621	0.15117
-0.05531	0.73785
-0.15732	0.68683
-0.05531	0.45726
-0.10631	0.71234
-0.08081	0.17668
0.50573	-0.28246
0.78624	-0.35899
0.32721	-0.58856
0.37822	-0.33348
0.30171	0.89089
-0.18282	0.96742
-0.25932	0.86539
-0.36133	0.12566
-0.28482	-0.15492
-0.05531	-0.30797
0.42922	-0.41000
0.48022	-0.28246
0.35272	-0.10391
0.45472	-0.10391
0.50573	0.27871
0.07220	0.68683
-0.18282	0.71234
-0.18282	0.55929
-0.05531	0.71234
-0.13181	0.30422
0.19971	-0.38449
0.45472	-0.30797
0.37822	-0.25695
0.58223	-0.25695
0.27621	-0.00188
-0.08081	0.63582
-0.18282	0.04914
-0.08081	0.30422
-0.15732	0.55929
-0.13181	0.02363
0.35272	-0.20594
0.40372	-0.23145
0.50573	-0.10391
0.48022	0.27871
0.45472	0.45726
0.14870	0.83988
0.02119	-0.12942
0.27621	-0.38449
-0.10631	0.58480
-0.43783	-0.23145
-0.10631	0.58480
0.19971	0.22769
0.25071	0.12566
0.48022	-0.33348
0.53123	0.40625
0.35272	0.22769
-0.36133	-0.00188
-0.48884	0.22769
-0.13181	0.71234
0.25071	0.55929
0.35272	1.68163
0.81175	-0.79262
0.53123	-3.59847
0.76074	-2.75671
0.35272	1.17148
-0.05531	1.60511
-0.48884	1.68163
-0.89686	0.86539
-0.69285	1.45206
-0.61635	-0.23145
0.50573	-0.81812
1.32178	0.78886
1.83181	0.81437
1.24527	0.25320
0.65874	-0.46102
0.17421	-0.79262
-0.69285	-0.15492
-1.30489	0.22769
-0.97337	0.38074
-0.74385	0.66132
-0.89686	-0.20594
-0.25932	-0.46102
1.01576	-1.20074
1.21977	-0.18043
1.52579	0.04914
0.48022	-0.41000
0.58223	1.42656
0.37822	1.60511
-0.00431	0.86539
0.04670	-0.07840
0.17421	0.43176
-0.25932	0.94191
-0.33583	-0.12942
-0.20832	-2.39961
-0.08081	-0.58856
0.19971	1.45206
0.42922	1.96222
0.27621	0.53379
-0.46334	0.53379
-0.82036	-0.99668
-0.08081	0.38074
0.63323	-1.04770
1.14327	1.65613
1.44929	-0.92016
0.99026	-0.66508
0.32721	-2.06800
-0.38683	-1.04770
-0.64185	1.96222
-0.20832	0.58480
-0.38683	1.01843
-0.28482	1.63062
0.50573	0.55929
0.78624	-1.27726
0.86275	-1.02219
0.53123	1.37554
-0.46334	0.15117
-0.59084	0.30422
0.07220	4.02835
0.19971	1.70714
-0.10631	-0.81812
-0.08081	-1.88945
0.60773	-1.37929
0.81175	-1.12422
0.32721	-0.63957
0.17421	0.10015
-0.15732	-0.15492
0.12320	0.10015
-0.38683	1.98773
-0.18282	3.16108
-0.43783	0.71234
-0.28482	-2.80773
0.78624	-1.81293
1.24527	1.37554
1.11776	1.98773
0.35272	-1.86394
-0.25932	-0.79262
-0.87136	0.81437
-0.64185	-1.73640
0.19971	-1.30277
-0.08081	3.33964
0.07220	3.26312
0.63323	1.86019
0.81175	0.40625
0.83725	-2.17003
0.78624	-0.10391
-0.20832	-0.23145
-0.76936	0.20219
0.12320	-2.22105
0.25071	2.59991
-0.46334	-1.48133
-0.56534	-1.71090
-0.25932	-1.02219
0.09770	0.86539
1.01576	0.91640
0.96476	-0.02739
0.14870	0.86539
0.14870	1.83468
-0.33583	1.42656
0.19971	0.15117
-0.13181	-1.27726
0.22521	-0.53754
0.02119	0.94191
0.60773	0.17668
0.17421	-1.04770
-0.13181	0.20219
-0.08081	0.61031
0.60773	0.76336
0.48022	-0.05289
0.58223	0.27871
-0.00431	0.02363
-0.61635	0.66132
-0.89686	-0.38449
0.02119	-1.22625
0.53123	1.22250
1.11776	0.66132
0.81175	-5.99620
0.63323	1.24800
0.19971	6.01795
-0.28482	3.72225
-0.97337	1.47757
-0.28482	-2.85874
0.93925	0.83988
0.60773	-0.18043
0.70974	-0.89465
0.19971	0.02363
0.04670	0.22769
0.04670	0.30422
-0.18282	-0.92016
-0.43783	1.65613
-1.07538	-0.43551
-0.31033	-2.96078
0.68424	-1.35379
0.63323	0.66132
0.78624	3.03355
0.63323	1.68163
0.27621	-2.65468
0.30171	-0.30797
-0.84586	1.73265
-0.79486	1.96222
-0.69285	0.58480
-0.59084	1.24800
0.81175	-0.20594
1.34728	0.96742
1.52579	-0.25695
1.60230	-1.07320
-0.00431	-0.58856
-0.92237	-0.58856
-1.76392	-1.71090
0.53123	1.47757
1.04126	0.43176
1.60230	1.42656
1.34728	-2.37410
-0.18282	1.45206
-0.38683	0.32972
-0.53984	-2.39961
-0.36133	0.91640
-0.02981	-0.30797
0.04670	-0.79262
-0.13181	2.24281
-0.13181	2.29382
0.35272	1.01843
0.55673	0.12566
0.37822	-0.15492
0.48022	-0.61406
0.12320	-0.66508
-0.51434	1.17148
0.30171	-0.18043
0.27621	-0.56305
0.17421	-0.05289
0.65874	0.35523
-0.33583	-1.22625
-0.53984	2.49788
0.09770	-0.92016
-0.59084	-4.23616
0.42922	0.55929
1.44929	1.68163
0.63323	2.52339
1.01576	2.26831
0.68424	0.55929
0.17421	-1.07320
-0.18282	-0.56305
-0.00431	0.15117
-0.08081	0.58480
0.32721	-1.99148
-0.13181	-1.81293
-0.43783	1.68163
0.12320	0.02363
0.14870	2.31933
-0.18282	1.17148
-0.48884	-2.39961
0.12320	2.75296
0.40372	0.63582
0.32721	-3.11382
0.02119	-2.70570
0.88825	2.39585
0.53123	0.12566
-0.13181	2.93151
-0.89686	0.50828
-1.10088	0.12566
0.35272	-2.29757
1.19427	-2.14453
1.14327	-1.45582
-0.08081	0.20219
-0.48884	-1.09871
0.22521	1.09496
0.70974	2.39585
0.30171	0.45726
-0.00431	-0.18043
0.12320	1.91120
0.17421	2.72745
0.42922	0.40625
0.42922	-0.97117
-0.08081	-0.99668
-0.02981	1.40105
-0.28482	-1.58336
0.14870	1.32453
-0.25932	-0.33348
-0.69285	-0.92016
-0.43783	2.21730
0.19971	3.21210
0.58223	-1.25176
0.96476	-4.59327
0.88825	-0.66508
0.65874	-0.30797
0.27621	0.53379
0.12320	-0.10391
0.19971	1.50308
-0.08081	1.98773
-0.48884	1.96222
-0.71835	1.12046
0.32721	-1.99148
0.83725	-1.43031
0.30171	-0.07840
-0.10631	-1.55785
-0.38683	-0.15492
-0.38683	1.57960
0.40372	1.19699
0.02119	2.21730
0.60773	-0.25695
0.83725	0.66132
0.78624	-0.12942
1.19427	-1.12422
-0.10631	-0.41000
-0.28482	0.22769
-0.36133	-1.40480
0.07220	0.83988
-0.00431	1.60511
-0.02981	-0.28246
0.12320	1.60511
-0.02981	0.91640
0.09770	-0.41000
0.07220	-1.37929
0.42922	-0.97117
0.30171	-1.45582
0.02119	-0.48652
0.14870	1.83468
0.40372	1.17148
0.07220	0.86539
-0.05531	0.02363
-0.59084	-0.76711
0.12320	-0.18043
0.63323	0.10015
0.88825	0.55929
1.09226	1.01843
0.45472	0.12566
-0.64185	0.43176
-1.02437	0.07465
-0.51434	-0.84363
0.17421	1.37554
0.63323	1.32453
0.78624	0.35523
0.58223	-1.30277
-0.05531	-0.46102
-0.84586	-0.66508
-0.08081	-0.10391
1.06676	0.38074
0.32721	0.15117
0.48022	1.14597
-0.05531	1.63062
-0.28482	0.35523
0.19971	-1.12422
0.09770	-0.89465
0.17421	0.91640
-0.25932	0.15117
0.65874	-1.02219
0.22521	0.94191
0.17421	2.52339
0.27621	-0.66508
0.17421	-0.81812
0.07220	1.01843
-0.00431	1.17148
-0.10631	0.30422
0.30171	-4.10862
0.63323	-0.61406
0.40372	1.75816
-0.13181	1.73265
0.09770	1.32453
0.02119	0.76336
-0.13181	0.43176
-0.05531	-0.05289
-0.41233	-1.37929
-0.02981	-0.61406
0.88825	-0.05289
1.44929	-1.04770
0.93925	0.68683
-1.10088	1.17148
-1.53441	0.40625
0.53123	0.89089
0.32721	-0.25695
-0.20832	-0.12942
-0.18282	0.53379
0.37822	-0.07840
0.63323	-0.25695
1.01576	-0.74160
0.91375	3.90081
0.12320	-1.48133
-0.02981	-1.43031
-0.23382	0.86539
-0.28482	0.30422
-0.38683	0.53379
-0.18282	0.83988
-0.00431	0.02363
-0.05531	-1.37929
0.32721	-1.27726
0.25071	0.25320
0.14870	1.73265
0.02119	0.04914
0.35272	0.66132
0.22521	1.32453
0.17421	1.01843
-0.20832	-0.41000
-0.18282	-0.63957
-0.00431	-0.48652
0.96476	-1.04770
1.75531	-1.37929
0.65874	-0.28246
-0.48884	1.37554
-2.22295	1.29902
-3.80405	0.35523
0.53123	1.52859
1.85731	0.68683
1.80631	-1.32828
1.75531	-0.56305
1.27078	0.76336
1.14327	1.83468
-1.25389	0.45726
-0.25932	-4.03210
-0.61635	-0.00188
-0.59084	2.62542
-0.69285	1.40105
0.02119	-0.46102
0.27621	0.27871
0.12320	0.15117
0.17421	-0.51203
0.25071	-1.40480
0.09770	0.55929
0.12320	1.60511
0.04670	-0.07840
0.07220	-1.45582
0.25071	-0.33348
0.17421	0.27871
0.40372	-0.53754
0.50573	0.40625
0.96476	2.88050
0.93925	1.68163
-0.02981	0.15117
-1.50890	-0.86914
-1.30489	-0.66508
-0.41233	0.43176
0.50573	-0.63957
-0.28482	-0.66508
1.09226	-0.10391
1.19427	0.53379
0.96476	-1.20074
0.76074	0.58480
0.37822	0.96742
0.17421	-0.74160
-0.00431	0.96742
-0.20832	1.35003
-0.18282	0.86539
0.04670	1.22250
-0.23382	-0.18043
-0.43783	0.25320
0.22521	-0.84363
0.25071	-1.04770
-0.00431	1.22250
-0.15732	-0.35899
-0.79486	-0.51203
-0.59084	0.22769
0.40372	-0.07840
0.93925	-0.79262
0.93925	0.63582
0.55673	0.22769
0.83725	0.43176
0.91375	0.76336
0.32721	0.76336
-0.41233	-0.25695
-1.07538	0.40625
-0.08081	0.32972
0.14870	-0.15492
-0.10631	0.40625
-0.61635	-0.38449
0.93925	-0.48652
0.63323	-1.30277
-0.41233	0.81437
-0.66735	0.78886
0.83725	0.78886
1.24527	-0.10391
1.04126	1.06945
-0.02981	0.53379
-0.05531	-0.23145
0.07220	0.20219
-0.05531	-0.66508
-0.00431	-1.30277
0.02119	3.16108
-0.00431	1.37554
-0.31033	-3.75152
-0.23382	1.55410
-0.05531	2.59991
0.02119	-0.35899
0.22521	-1.53234
0.48022	-2.06800
0.25071	0.22769
0.50573	0.73785
0.58223	0.15117
0.86275	-0.38449
0.76074	0.38074
-0.23382	0.25320
-1.45790	0.15117
-3.31952	0.40625
-0.41233	0.66132
2.23984	-0.23145
2.16333	-1.12422
1.29628	0.30422
0.73524	0.25320
0.73524	0.71234
-0.18282	0.32972
0.04670	0.12566
-0.84586	1.04394
-1.48340	0.78886
-0.69285	0.96742
0.68424	0.45726
1.09226	-1.32828
0.68424	-0.92016
0.53123	-0.71609
0.09770	-1.63437
-0.02981	-0.05289
-0.08081	3.87530
-0.20832	1.52859
-0.18282	-0.86914
0.02119	-0.74160
0.19971	-0.18043
0.53123	-0.86914
0.30171	-1.88945
0.07220	0.55929
-0.05531	0.68683
0.27621	0.71234
0.17421	-0.18043
0.22521	0.55929
-0.48884	1.65613
0.14870	1.17148
0.40372	-0.02739
0.86275	-0.66508
0.19971	-0.66508
-0.15732	-0.99668
0.40372	-0.56305
0.83725	1.73265
-0.02981	0.89089
-0.64185	0.71234
-0.82036	0.48277
0.37822	-0.53754
0.53123	-0.53754
0.68424	0.04914
1.16877	-0.51203
0.07220	-0.89465
-0.51434	1.14597
-0.69285	1.06945
-0.00431	-0.10391
0.48022	0.07465
0.12320	0.02363
0.12320	1.55410
0.07220	0.94191
0.14870	-2.24656
0.35272	-0.63957
0.27621	-0.20594
0.02119	0.38074
-0.00431	0.83988
0.09770	-1.50683
-0.02981	1.37554
0.02119	2.47238
-0.18282	0.20219
0.32721	-1.27726
0.48022	-1.30277
0.88825	-1.30277
0.73524	1.17148
0.27621	0.32972
-0.13181	-0.20594
-1.73842	0.91640
-0.71835	1.27351
-0.48884	0.89089
-0.15732	0.50828
1.78081	-0.00188
1.72980	-0.97117
0.58223	-0.23145
-0.18282	0.55929
-0.89686	-0.38449
-0.02981	-0.07840
0.63323	0.15117
0.63323	1.42656
-0.08081	1.09496
-0.28482	-2.01699
-0.18282	-0.35899
-0.00431	0.55929
0.45472	1.29902
0.37822	0.71234
0.07220	-0.28246
-0.08081	1.55410
-0.66735	-0.30797
-0.28482	-3.39441
-0.02981	-0.58856
0.19971	0.83988
0.58223	1.27351
0.76074	0.68683
0.63323	0.35523
0.53123	0.12566
0.12320	-0.51203
-0.15732	1.63062
-0.08081	1.60511
-0.53984	0.07465
-0.36133	-0.05289
0.58223	-0.51203
0.19971	-1.37929
0.27621	-1.43031
-0.02981	-0.71609
1.09226	-0.53754
0.83725	1.37554
0.09770	1.70714
-0.48884	1.32453
-0.28482	1.45206
0.27621	0.99292
0.37822	-0.51203
0.76074	-0.89465
0.58223	-0.99668
0.42922	-0.51203
0.27621	0.91640
-0.23382	1.01843
-0.48884	0.89089
-0.38683	-0.76711
-1.61091	0.53379
-0.84586	1.35003
0.40372	-1.48133
0.83725	-1.25176
1.34728	-0.51203
1.09226	-1.30277
0.91375	-0.92016
-0.13181	1.83468
-0.18282	2.08976
-0.10631	0.02363
-0.18282	1.04394
-0.74385	1.14597
0.04670	0.38074
0.68424	-0.63957
0.78624	-0.53754
1.09226	-0.53754
0.42922	-0.38449
-0.33583	0.96742
0.30171	0.53379
-0.48884	-0.25695
-0.92237	0.76336
-0.13181	0.89089
0.42922	-1.40480
-0.48884	-1.20074
0.48022	-0.05289
0.83725	0.27871
0.91375	0.91640
0.70974	-0.33348
0.48022	1.57960
0.22521	1.47757
-0.08081	0.35523
-0.25932	-1.02219
-0.08081	-0.10391
-0.08081	1.17148
-0.05531	-1.83844
-0.08081	-0.94566
0.25071	0.78886
0.07220	1.17148
0.14870	-0.00188
0.19971	-1.53234
0.02119	-2.80773
-0.18282	1.37554
-0.10631	2.01323
0.68424	1.35003
0.40372	-0.30797
0.02119	-0.23145
0.25071	0.81437
0.48022	0.20219
-0.38683	-0.30797
1.06676	0.48277
0.50573	0.25320
-0.00431	0.53379
-0.00431	0.17668
-0.79486	-0.56305
0.30171	-1.27726
0.12320	-0.00188
0.30171	0.50828
0.07220	0.76336
0.42922	0.76336
-0.02981	0.30422
-0.18282	-0.35899
0.30171	0.02363
0.37822	0.07465
0.50573	0.20219
0.27621	-0.25695
0.07220	-0.25695
0.17421	0.71234
-0.18282	0.86539
-0.23382	1.86019
0.14870	1.45206
-0.05531	0.81437
-0.15732	-2.70570
-0.13181	-1.65988
-0.10631	-0.51203
0.60773	0.12566
0.78624	0.61031
0.99026	0.91640
0.27621	-0.10391
-0.66735	0.99292
-0.71835	1.14597
0.12320	0.99292
0.76074	-0.12942
0.81175	-1.37929
0.60773	-0.15492
-0.41233	-0.43551
-0.28482	-0.41000
0.09770	0.20219
0.32721	0.55929
0.02119	0.43176
-0.94787	0.81437
0.19971	1.06945
0.40372	0.89089
0.73524	-0.20594
0.45472	0.12566
0.12320	-0.23145
0.68424	-0.28246
1.04126	-1.45582
0.12320	1.24800
-1.04987	1.12046
-1.45790	0.96742
-1.25389	-1.07320
0.53123	0.17668
0.93925	0.35523
0.45472	-0.76711
0.91375	-0.76711
0.93925	0.27871
0.93925	1.29902
0.35272	-0.48652
-0.00431	-0.00188
-0.18282	1.73265
-0.13181	0.53379
-0.23382	0.50828
-0.31033	0.71234
-0.10631	-2.90976
-0.00431	-1.91496
0.27621	1.22250
0.45472	1.27351
0.42922	1.52859
0.60773	1.17148
-0.05531	1.19699
-0.69285	0.86539
-1.35589	-1.04770
0.22521	-1.17523
1.06676	-0.56305
0.81175	-0.28246
0.37822	-0.30797
0.32721	0.10015
0.55673	0.50828
0.27621	0.76336
-0.05531	0.71234
-0.28482	0.61031
-0.92237	0.25320
0.22521	-0.35899
0.83725	-0.25695
0.70974	0.07465
0.40372	-0.38449
0.25071	-1.63437
0.07220	1.06945
-0.05531	1.88570
-0.18282	-1.09871
-0.48884	2.03874
-0.64185	2.42136
-0.13181	-0.43551
0.37822	-2.01699
0.63323	-1.02219
0.58223	-2.14453
0.53123	0.25320
0.22521	0.81437
0.07220	1.68163
-0.20832	0.81437
-0.05531	0.07465
-0.00431	0.61031
0.25071	-0.38449
0.42922	-0.51203
0.55673	-0.15492
0.42922	0.55929
-0.10631	1.37554
0.12320	-0.15492
0.22521	-0.79262
0.09770	0.53379
-1.07538	0.86539
-1.76392	0.48277
-0.20832	-0.02739
0.58223	-0.18043
1.21977	-0.18043
1.93382	-0.58856
1.34728	0.15117
0.63323	0.78886
0.30171	0.76336
-0.08081	-0.41000
-0.94787	0.76336
-0.89686	0.04914
-0.33583	0.07465
-0.08081	1.47757
0.12320	-1.12422
0.32721	-2.55265
0.40372	-0.89465
0.07220	1.19699
-0.10631	1.45206
-0.28482	0.02363
0.17421	0.50828
0.04670	2.44687
0.53123	1.01843
0.60773	-2.37410
0.60773	-1.71090
0.81175	0.50828
0.76074	1.01843
0.04670	-0.51203
-0.36133	1.12046
-0.33583	0.73785
-0.36133	-0.02739
-0.00431	0.55929
-0.08081	-0.23145
0.09770	-0.56305
-0.43783	-0.35899
0.30171	-0.28246
-0.48884	-0.05289
0.91375	0.38074
0.96476	0.81437
0.68424	0.27871
-0.08081	0.55929
0.12320	0.45726
0.22521	0.07465
0.32721	-0.69059
0.35272	-0.28246
-0.38683	0.53379
-0.66735	-1.91496
-0.94787	-0.86914
-0.23382	1.78367
0.27621	0.53379
0.09770	3.13558
0.32721	0.35523
0.50573	-1.55785
0.73524	-0.79262
0.76074	0.10015
0.50573	0.94191
0.35272	-0.51203
0.07220	-0.63957
-0.48884	0.15117
-0.64185	0.94191
0.04670	0.66132
-0.00431	0.43176
0.45472	0.02363
0.45472	-0.30797
0.63323	-0.76711
-0.23382	0.10015
-0.15732	-0.41000
1.24527	0.40625
0.22521	1.04394
-0.33583	0.89089
-0.71835	0.63582
-0.05531	0.68683
0.86275	-0.25695
0.32721	-0.63957
0.04670	-0.69059
0.32721	-0.71609
0.48022	0.04914
-0.08081	0.76336
-0.28482	0.48277
-0.18282	0.61031
-0.00431	0.86539
0.09770	0.63582
0.19971	-1.25176
0.55673	-1.58336
0.25071	2.82948
0.04670	0.32972
-0.05531	-1.68539
0.22521	0.43176
0.45472	0.25320
0.30171	-1.35379
-0.02981	-1.22625
-0.28482	1.37554
-0.28482	1.45206
0.42922	-0.02739
0.73524	-0.61406
0.07220	-0.35899
-0.43783	0.43176
-0.69285	0.81437
0.63323	1.32453
0.63323	1.06945
0.48022	0.76336
-1.02437	0.07465
0.02119	-0.23145
0.27621	-1.32828
1.14327	-1.71090
0.78624	0.15117
0.40372	0.07465
0.65874	0.58480
0.27621	2.31933
0.02119	-0.10391
-1.55991	-1.48133
-0.69285	0.73785
0.12320	-0.41000
0.70974	1.12046
0.53123	-0.63957
0.42922	-1.04770
0.32721	2.57441
-0.33583	1.60511
-0.05531	0.20219
0.04670	2.01323
-0.13181	-0.86914
-0.13181	-2.11902
0.22521	-0.79262
0.30171	-0.46102
0.55673	-1.27726
0.63323	0.53379
-0.08081	0.30422
0.02119	1.78367
0.19971	1.75816
-0.08081	0.48277
-0.08081	0.17668
-0.00431	0.12566
0.48022	-0.74160
0.68424	-0.33348
0.30171	-0.56305
0.86275	-0.38449
-0.36133	-0.25695
-0.23382	0.63582
0.09770	1.27351
-1.68742	0.94191
-0.48884	0.25320
-0.33583	0.61031
0.53123	0.40625
1.42379	-0.61406
1.21977	-0.28246
1.09226	-0.33348
0.50573	-0.05289
-0.00431	0.02363
0.07220	-0.43551
-0.43783	1.75816
-0.76936	1.29902
-1.10088	-0.86914
-0.53984	-0.66508
-0.02981	1.35003
0.86275	0.07465
1.01576	0.38074
0.65874	0.17668
0.02119	-1.45582
-0.08081	-1.83844
-0.36133	0.73785
0.25071	0.96742
0.22521	0.78886
-0.00431	-0.28246
0.17421	-0.20594
0.04670	0.48277
0.48022	1.14597
0.86275	0.38074
0.40372	-0.28246
0.58223	0.27871
-0.05531	0.66132
-0.59084	0.66132
-0.97337	0.32972
-1.17738	-0.05289
0.78624	-0.28246
0.45472	-0.86914
1.04126	-0.48652
0.73524	0.15117
0.37822	0.40625
0.32721	0.73785
0.17421	1.45206
-0.41233	0.53379
-0.56534	-0.35899
-0.02981	-0.46102
-0.43783	-1.04770
0.83725	0.48277
0.86275	0.17668
0.70974	-0.30797
0.02119	0.22769
-0.74385	1.42656
-0.41233	1.45206
0.45472	-0.02739
-0.10631	0.12566
-0.25932	-1.30277
-0.05531	-2.22105
0.48022	-0.89465
0.88825	0.38074
0.60773	0.96742
0.25071	1.37554
0.09770	0.27871
0.07220	-0.02739
-0.15732	1.57960
-0.43783	1.27351
-0.69285	-0.76711
-0.69285	-0.63957
0.70974	-0.15492
0.93925	-0.15492
0.78624	-0.18043
0.60773	0.96742
0.27621	0.71234
0.07220	1.14597
0.22521	0.22769
-0.36133	0.38074
-0.48884	-0.61406
-0.87136	-1.37929
0.60773	-0.74160
0.42922	0.10015
0.37822	0.40625
0.48022	-0.15492
0.48022	0.89089
0.25071	1.17148
0.30171	0.53379
-0.61635	-1.12422
-0.08081	1.45206
0.32721	1.22250
0.63323	-0.58856
0.48022	-0.25695
0.12320	-0.74160
-0.25932	1.09496
-0.13181	-1.09871
0.12320	-1.63437
0.02119	1.75816
-0.05531	0.20219
0.19971	-2.11902
0.25071	0.40625
0.32721	1.91120
0.65874	1.04394
0.88825	0.55929
0.60773	0.76336
-0.33583	0.40625
-1.68742	0.35523
-1.15188	0.12566
0.25071	0.10015
1.09226	-0.97117
1.83181	-1.07320
1.75531	-0.12942
0.30171	-0.05289
-0.82036	-0.18043
-0.18282	0.32972
-0.59084	0.53379
-0.00431	0.78886
0.14870	0.71234
0.60773	0.81437
0.83725	0.15117
0.68424	-0.18043
0.55673	-0.07840
0.19971	-0.30797
-0.13181	-1.30277
-0.36133	0.58480
-0.41233	2.26831
-0.00431	-0.46102
-0.08081	0.12566
-0.25932	1.47757
0.02119	3.21210
0.30171	-0.71609
0.37822	-3.16484
0.25071	-2.37410
0.37822	-1.07320
0.35272	0.96742
0.25071	2.42136
0.09770	1.09496
0.30171	-0.43551
-0.59084	0.43176
0.14870	0.55929
0.99026	0.12566
0.53123	-0.25695
-0.59084	-0.35899
-0.56534	-0.12942
-0.33583	0.45726
0.96476	0.96742
1.04126	0.07465
0.30171	0.02363
-1.10088	-0.02739
-0.28482	-0.38449
0.58223	-0.25695
1.04126	0.48277
0.48022	-0.15492
0.40372	-0.30797
-0.38683	0.58480
-0.23382	0.83988
0.12320	0.40625
-0.05531	0.48277
-0.59084	0.10015
-0.38683	-0.00188
0.40372	-0.74160
0.48022	-0.12942
0.58223	0.45726
0.45472	-0.05289
0.35272	0.48277
-0.02981	0.02363
0.02119	0.68683
0.04670	-0.12942
-0.10631	0.38074
0.12320	0.15117
0.53123	-0.05289
0.53123	-0.18043
0.27621	-0.30797
0.27621	-0.41000
-0.92237	0.43176
-0.76936	0.43176
0.14870	1.52859
0.32721	1.35003
0.78624	0.40625
0.07220	-0.69059
0.91375	0.12566
-0.10631	-1.37929
-0.53984	-2.52714
0.70974	-0.48652
0.73524	0.66132
0.40372	1.83468
0.17421	1.98773
-0.38683	1.55410
-0.23382	1.14597
-0.10631	-1.09871
0.19971	-0.99668
0.48022	-0.00188
0.42922	-0.79262
0.42922	-1.25176
0.14870	1.14597
-0.28482	1.14597
-0.38683	-0.46102
-0.10631	1.88570
-0.10631	-0.43551
0.27621	-0.48652
0.48022	-0.48652
0.55673	-0.79262
0.42922	-0.00188
0.50573	0.04914
0.32721	0.73785
-0.10631	0.83988
-0.38683	0.58480
-0.31033	0.71234
-0.38683	0.71234
0.60773	-0.15492
0.70974	-0.71609
0.70974	-0.56305
0.07220	-0.18043
-1.27939	0.07465
-0.20832	0.15117
-0.00431	1.01843
1.27078	1.40105
1.16877	0.07465
0.65874	-0.07840
0.76074	-1.02219
0.22521	-0.61406
-0.05531	-0.20594
-0.79486	0.38074
-0.92237	-0.30797
0.25071	0.40625
-0.02981	1.45206
0.07220	2.26831
0.32721	0.35523
0.09770	-1.02219
0.30171	0.61031
0.35272	-0.46102
0.48022	-2.14453
0.32721	-1.40480
0.37822	-0.20594
0.17421	1.17148
-0.15732	1.50308
-0.05531	1.29902
-0.13181	0.91640
0.02119	0.96742
0.48022	-0.46102
0.93925	-0.76711
0.02119	-0.97117
-0.76936	-0.30797
-0.20832	-0.02739
0.63323	0.38074
0.27621	2.19179
0.04670	0.78886
0.83725	-0.94566
0.40372	-1.07320
0.76074	1.27351
-0.20832	0.73785
-1.38139	-0.07840
0.70974	-0.86914
0.35272	0.53379
0.53123	0.40625
0.53123	0.25320
0.40372	-0.92016
0.22521	0.35523
-0.18282	1.19699
0.04670	0.66132
0.17421	-0.10391
-0.00431	-1.25176
0.19971	-0.02739
-0.28482	0.27871
-0.15732	0.27871
0.12320	0.53379
-0.05531	0.10015
0.09770	-0.15492
-0.08081	0.76336
0.19971	0.61031
0.55673	-0.41000
0.63323	-0.48652
0.53123	-0.89465
0.58223	0.91640
0.45472	1.98773
-0.13181	0.12566
-0.43783	-0.51203
-0.23382	1.29902
-0.15732	0.17668
0.09770	-2.29757
0.27621	-0.79262
0.12320	0.25320
0.60773	0.71234
0.14870	-0.20594
0.40372	1.55410
-0.23382	0.86539
-0.48884	0.10015
-0.38683	0.04914
0.63323	0.76336
0.93925	-0.10391
0.68424	-0.84363
0.63323	0.55929
0.83725	0.12566
0.45472	-0.56305
0.22521	-0.74160
-0.20832	0.10015
-0.79486	1.14597
-0.92237	0.61031
-0.64185	-1.43031
0.27621	1.80917
0.35272	0.45726
0.55673	1.24800
0.60773	-0.53754
0.73524	-0.35899
-0.33583	-0.69059
-0.51434	-0.74160
0.48022	0.07465
0.32721	0.89089
0.12320	1.65613
0.19971	-0.63957
0.45472	-0.76711
0.50573	0.58480
0.42922	0.02363
0.32721	-0.79262
0.17421	0.30422
0.02119	0.68683
0.32721	0.61031
-0.64185	0.58480
-1.35589	0.48277
-0.94787	-0.23145
-0.02981	-0.23145
1.32178	0.35523
1.37278	-0.33348
1.29628	-1.09871
0.58223	0.55929
0.35272	0.71234
-1.40690	1.19699
-0.76936	0.04914
0.35272	0.17668
0.83725	0.12566
0.83725	-0.05289
0.58223	-1.76191
0.42922	0.07465
0.32721	0.48277
-0.00431	2.16628
-0.13181	0.22769
-0.18282	-0.46102
-0.18282	0.40625
-0.71835	-1.60887
-0.31033	0.38074
0.19971	-0.12942
0.30171	1.29902
0.45472	0.15117
0.45472	-0.38449
0.30171	0.43176
0.19971	0.38074
-0.02981	-0.94566
0.58223	-0.07840
0.35272	0.89089
0.17421	0.12566
-0.28482	-0.25695
-0.25932	-0.18043
0.09770	0.04914
0.53123	0.22769
0.04670	0.58480
-0.46334	0.63582
-0.02981	0.66132
0.76074	0.81437
0.27621	0.12566
0.48022	-0.23145
0.65874	-0.41000
-0.00431	-0.46102
-0.46334	-0.53754
0.25071	-0.05289
0.48022	1.35003
0.22521	-0.12942
0.30171	-0.00188
-0.74385	0.73785
-1.43240	0.04914
-0.59084	0.63582
0.99026	-0.61406
0.91375	1.32453
0.78624	-0.33348
0.78624	-1.99148
0.60773	-1.71090
0.07220	1.68163
-0.25932	2.08976
-0.38683	1.14597
-0.31033	0.91640
0.04670	-0.25695
0.30171	0.20219
0.42922	-0.48652
0.12320	-1.83844
0.45472	-1.02219
0.27621	-0.18043
0.40372	0.91640
0.02119	0.81437
-0.46334	0.68683
-0.71835	1.27351
-0.33583	0.30422
-0.10631	-0.81812
1.29628	0.25320
0.88825	-0.05289
0.86275	-1.02219
-0.20832	0.15117
0.53123	1.06945
0.45472	0.86539
0.14870	0.86539
-0.28482	0.86539
0.27621	-0.02739
0.63323	-0.86914
0.40372	-0.38449
-0.25932	-0.25695
-0.64185	-1.30277
0.12320	-0.15492
-0.15732	3.13558
-0.23382	0.22769
-0.02981	-0.00188
-0.08081	0.68683
0.32721	-1.68539
0.40372	-3.13933
0.48022	0.71234
0.42922	2.03874
0.42922	0.02363
0.42922	0.17668
0.22521	1.27351
0.04670	1.63062
-0.20832	0.96742
-0.33583	-0.61406
0.22521	-1.17523
0.14870	-0.74160
0.53123	-0.20594
0.25071	0.55929
0.48022	-0.10391
0.68424	-0.35899
-0.08081	0.66132
-0.10631	1.09496
-0.10631	0.91640
-0.82036	1.37554
-0.20832	-0.35899
1.16877	-0.89465
1.24527	-0.38449
0.81175	-0.18043
0.14870	-0.61406
-0.08081	0.66132
-0.64185	1.04394
0.42922	0.71234
-1.07538	-0.76711
0.19971	0.35523
0.25071	0.02363
0.19971	-0.94566
0.32721	-1.37929
0.78624	0.86539
0.42922	0.15117
-0.13181	1.27351
-0.38683	2.08976
0.02119	1.45206
0.09770	-1.30277
0.02119	-0.56305
0.25071	-0.12942
0.25071	-1.04770
0.22521	-0.46102
0.53123	0.30422
0.73524	0.17668
0.22521	0.35523
-0.05531	0.20219
-0.69285	0.99292
-1.20288	1.09496
-0.18282	1.65613
0.22521	-0.69059
0.32721	-2.22105
1.34728	-0.61406
1.60230	0.81437
1.52579	0.61031
-0.84586	0.55929
-0.82036	0.45726
-0.48884	0.83988
-0.10631	0.71234
-0.05531	0.45726
-0.18282	-0.51203
0.50573	-0.56305
0.12320	-0.35899
0.37822	-0.66508
0.55673	-0.46102
0.42922	-0.05289
-0.02981	0.22769
-0.10631	1.57960
-0.25932	-0.43551
-0.08081	1.22250
0.27621	0.45726
0.45472	0.15117
0.42922	-0.00188
0.09770	-0.48652
0.30171	-2.01699
0.30171	-1.68539
0.32721	0.10015
-0.08081	2.59991
-0.20832	2.01323
-1.27939	0.35523
-1.04987	-0.61406
0.53123	-0.46102
0.73524	-0.66508
1.24527	-0.25695
0.35272	-0.25695
-0.36133	0.27871
0.86275	0.99292
1.11776	0.86539
0.60773	0.15117
-0.00431	0.45726
-0.05531	-0.12942
-0.74385	-0.84363
-0.51434	-0.33348
0.42922	-0.00188
0.32721	-0.05289
0.22521	0.12566
-0.25932	0.68683
-0.25932	1.22250
-0.08081	1.22250
0.19971	0.20219
0.27621	-1.48133
0.19971	-0.56305
0.19971	0.81437
0.53123	-0.48652
0.73524	-0.66508
0.22521	0.32972
0.02119	1.45206
-0.18282	1.45206
-0.05531	0.48277
-0.18282	0.53379
-0.33583	-0.15492
0.17421	-0.10391
0.35272	-1.45582
0.45472	-1.58336
0.78624	-0.61406
0.32721	0.58480
0.04670	0.94191
0.22521	0.35523
-0.02981	1.04394
-1.02437	1.40105
-1.22839	0.25320
-0.51434	-0.02739
0.65874	-0.12942
1.55129	-0.71609
1.70430	0.04914
0.25071	0.12566
0.17421	0.55929
0.12320	0.55929
-0.02981	0.55929
-0.36133	1.01843
-0.38683	-0.07840
-0.59084	-1.50683
-0.38683	-1.45582
0.60773	0.43176
0.70974	-0.02739
0.27621	1.98773
-0.41233	2.44687
0.19971	-2.09351
0.09770	1.06945
-0.08081	0.76336
-0.13181	-1.14973
-0.05531	-0.69059
0.35272	0.07465
0.93925	0.58480
0.99026	0.04914
0.42922	0.30422
0.12320	0.50828
-0.18282	0.25320
-0.33583	0.32972
-0.18282	0.50828
0.14870	0.25320
0.40372	0.10015
0.12320	-0.35899
0.48022	-1.17523
-0.02981	-0.86914
-0.28482	0.63582
-0.79486	1.24800
-0.53984	0.94191
0.25071	0.66132
0.83725	1.09496
0.48022	-0.61406
0.48022	-0.56305
0.86275	-0.28246
0.88825	-0.58856
0.70974	-0.20594
0.22521	0.91640
-0.41233	1.09496
-0.76936	0.73785
-1.27939	0.61031
-0.46334	-0.86914
-0.13181	-1.07320
0.76074	0.25320
0.93925	-1.07320
0.96476	0.15117
0.86275	0.53379
0.37822	0.50828
-0.51434	0.20219
-0.74385	0.89089
-0.33583	0.99292
-0.31033	0.76336
0.40372	-0.33348
0.55673	0.07465
0.63323	-0.66508
0.40372	-1.27726
0.63323	-0.30797
0.19971	0.15117
0.02119	0.48277
-0.20832	1.19699
-0.20832	1.12046
-0.28482	0.81437
0.04670	0.10015
-0.38683	-0.07840
0.30171	-0.43551
0.83725	-0.66508
0.78624	-0.25695
0.22521	0.94191
0.58223	0.45726
0.09770	-0.41000
0.42922	0.78886
-0.76936	1.04394
-0.08081	0.20219
0.40372	-0.18043
-0.28482	-0.79262
-0.38683	-0.23145
0.83725	-0.86914
0.07220	-0.56305
0.12320	2.57441
-0.00431	0.07465
0.19971	-0.94566
0.09770	0.17668
0.09770	-0.79262
0.14870	2.54890
0.17421	0.58480
0.27621	-0.74160
0.48022	-1.30277
0.32721	0.73785
0.04670	1.70714
0.04670	0.27871
-0.15732	-0.69059
-0.41233	-0.79262
-0.00431	-0.58856
0.68424	-0.43551
0.83725	0.45726
0.73524	0.63582
0.76074	-1.02219
-0.51434	0.27871
-1.15188	0.94191
-2.09544	0.86539
-0.36133	0.91640
1.52579	0.81437
1.44929	0.07465
1.37278	-0.56305
1.01576	-0.43551
0.73524	-0.05289
-0.18282	-0.10391
-1.07538	0.76336
-0.92237	0.12566
0.22521	-0.20594
-0.02981	0.50828
0.27621	0.66132
0.58223	0.10015
0.09770	-0.81812
0.19971	-0.00188
0.50573	0.40625
0.53123	-1.12422
0.04670	0.38074
-0.46334	1.65613
-0.20832	3.51819
-0.25932	-0.97117
0.09770	-3.70050
0.30171	-0.12942
0.48022	-0.18043
0.53123	-0.05289
0.50573	1.24800
0.70974	0.55929
0.35272	-0.79262
-0.59084	1.52859
-0.61635	1.73265
-0.51434	0.43176
0.09770	0.81437
0.58223	-0.15492
0.50573	-0.61406
1.04126	-0.86914
0.17421	-0.79262
-0.71835	-0.71609
-0.56534	0.27871
0.02119	1.35003
0.12320	0.45726
-0.41233	0.55929
0.19971	0.78886
0.96476	-0.23145
0.91375	-0.38449
0.73524	-0.43551
0.27621	-0.18043
0.32721	-0.15492
-0.10631	0.30422
-0.33583	1.22250
-0.31033	-0.28246
-0.79486	-0.20594
-0.25932	0.73785
-0.08081	0.66132
0.14870	0.10015
0.55673	0.02363
0.86275	-0.63957
0.88825	-0.97117
-0.05531	0.32972
-0.48884	1.45206
-0.53984	0.78886
0.50573	-0.69059
0.63323	0.55929
0.53123	0.66132
0.63323	-0.23145
0.53123	-0.89465
0.35272	-0.05289
0.27621	-0.35899
-0.28482	0.66132
-0.38683	1.17148
-0.33583	0.20219
0.02119	-0.12942
-0.36133	0.83988
-1.12638	-0.00188
0.07220	0.25320
0.76074	-0.84363
1.01576	-0.35899
1.27078	0.53379
0.78624	1.06945
-0.00431	0.76336
-0.43783	0.22769
-0.53984	0.27871
-0.41233	0.38074
0.37822	-0.15492
0.63323	-0.48652
0.60773	-0.66508
-0.20832	-0.05289
0.14870	0.15117
0.35272	0.71234
0.07220	-0.53754
0.07220	1.09496
-0.13181	1.32453
-0.20832	1.91120
-0.13181	-0.97117
0.30171	-1.73640
0.42922	-1.32828
0.42922	0.50828
0.45472	0.99292
0.19971	1.29902
-0.28482	0.45726
-0.02981	-0.51203
0.48022	0.38074
0.35272	0.27871
-0.05531	0.10015
-0.87136	-0.30797
-0.25932	-0.66508
-0.59084	-0.20594
-0.33583	-0.69059
1.06676	0.07465
1.65330	1.78367
1.21977	1.29902
0.73524	0.94191
0.19971	-0.33348
-0.23382	-0.84363
-0.15732	-0.02739
0.22521	-0.23145
-0.00431	-0.66508
0.37822	-0.20594
-0.00431	0.27871
-0.59084	0.89089
-0.71835	-0.53754
-0.23382	2.06425
-0.02981	1.06945
0.09770	-0.25695
0.48022	-0.66508
0.58223	-0.41000
0.50573	0.10015
0.48022	-0.10391
0.65874	0.45726
0.02119	-0.10391
-0.23382	-0.12942
-0.18282	-0.05289
-0.59084	1.17148
0.45472	0.78886
0.68424	-0.48652
0.81175	-0.05289
0.58223	0.04914
-0.13181	-0.79262
-0.08081	-0.18043
-1.43240	0.48277
-0.28482	0.50828
0.63323	0.58480
0.04670	0.99292
0.17421	-0.51203
0.73524	-0.30797
1.27078	-0.20594
0.48022	-0.58856
0.07220	-0.30797
0.09770	0.12566
0.12320	0.94191
-0.00431	1.86019
-0.31033	1.24800
-0.89686	0.22769
-0.18282	-0.99668
0.30171	-0.81812
0.12320	-1.55785
0.27621	2.08976
1.04126	-0.76711
0.48022	0.25320
0.09770	0.96742
-0.33583	0.32972
-0.33583	0.91640
0.04670	-0.38449
0.14870	-1.58336
0.32721	-0.51203
0.53123	-0.51203
0.22521	0.73785
0.50573	0.30422
0.27621	0.76336
-0.08081	0.35523
0.22521	0.32972
-0.33583	0.27871
-0.61635	0.43176
-0.31033	0.27871
-0.69285	-0.30797
1.11776	0.12566
0.50573	0.04914
0.58223	-0.86914
0.91375	0.15117
0.17421	0.76336
-0.02981	0.94191
-0.25932	0.53379
-0.08081	0.94191
0.02119	-0.30797
0.22521	-1.09871
0.45472	-0.33348
0.22521	-0.51203
0.53123	-0.15492
0.32721	0.71234
-0.36133	-0.46102
-0.89686	-0.00188
-0.82036	1.32453
-0.18282	0.78886
0.02119	1.47757
0.73524	0.07465
0.93925	-2.11902
1.01576	-0.63957
0.83725	-0.15492
0.32721	-0.15492
0.04670	1.47757
-0.15732	1.19699
-0.20832	1.04394
-0.18282	0.83988
0.12320	-0.07840
0.32721	-0.76711
0.45472	-0.56305
0.09770	-0.66508
-0.48884	-0.28246
-0.33583	0.50828
-0.10631	0.99292
-0.08081	-0.10391
0.35272	-0.41000
1.14327	0.35523
0.99026	-0.66508
0.37822	0.20219
-0.59084	0.02363
0.45472	0.22769
1.09226	0.20219
0.60773	1.35003
0.17421	0.22769
-0.13181	0.07465
-0.46334	0.66132
-0.38683	0.73785
-0.33583	-0.56305
-0.51434	-0.25695
0.48022	0.40625
0.50573	-0.23145
0.68424	-1.81293
-0.00431	0.96742
-0.20832	-0.12942
-0.36133	0.73785
-0.38683	0.66132
0.22521	0.30422
0.58223	-0.48652
0.65874	-0.46102
0.70974	0.02363
0.55673	0.83988
0.60773	1.06945
0.27621	-0.86914
-0.08081	-0.20594
-0.31033	0.22769
-0.43783	0.55929
-0.69285	0.78886
-0.36133	0.22769
0.53123	-0.28246
0.99026	0.38074
0.53123	-0.30797
0.40372	-1.12422
-0.56534	0.12566
-0.10631	0.68683
0.63323	0.71234
0.63323	0.86539
-0.51434	0.94191
0.40372	0.22769
0.35272	-0.43551
0.63323	-0.46102
0.19971	-0.15492
0.78624	-0.46102
0.17421	1.01843
-0.53984	0.10015
0.04670	0.27871
-0.08081	0.40625
-0.20832	0.38074
-0.00431	0.07465
0.14870	-0.38449
0.48022	-0.35899
0.27621	1.29902
0.30171	-1.17523
0.17421	-0.46102
0.09770	0.20219
-0.08081	-0.30797
-0.02981	0.12566
-0.61635	1.57960
0.02119	1.70714
0.73524	-0.56305
0.93925	0.45726
0.37822	-0.20594
-0.20832	-1.91496
-0.74385	0.25320
-0.41233	0.15117
0.93925	1.12046
0.93925	1.27351
0.19971	0.99292
0.22521	-0.20594
0.55673	-0.66508
-0.08081	-0.61406
-0.13181	-0.46102
0.48022	-0.48652
0.12320	0.12566
-1.07538	0.45726
-0.33583	0.43176
0.70974	0.61031
0.14870	1.52859
-0.20832	0.38074
-0.33583	-0.92016
0.30171	-1.91496
0.88825	0.17668
0.55673	1.32453
0.27621	0.32972
0.22521	-0.56305
0.02119	0.10015
0.02119	1.78367
-0.15732	0.58480
-0.10631	-0.84363
0.30171	-0.99668
0.32721	1.24800
0.19971	0.89089
0.07220	-0.69059
0.22521	-0.58856
0.22521	0.61031
-0.38683	0.48277
-0.46334	0.12566
-0.18282	-0.10391
0.19971	0.10015
0.37822	0.30422
0.73524	-0.74160
0.55673	-0.56305
0.65874	0.30422
1.19427	-0.12942
-0.18282	1.98773
-0.02981	1.09496
-1.30489	-0.12942
-1.40690	0.55929
-0.20832	-0.56305
1.44929	-0.23145
0.63323	-0.30797
0.81175	-0.10391
0.91375	-0.00188
0.65874	0.02363
0.83725	1.22250
-0.69285	1.14597
-0.61635	-1.02219
-0.94787	-0.43551
-0.53984	0.73785
-0.23382	0.55929
0.30171	-1.65988
0.83725	-0.66508
0.81175	0.30422
0.48022	0.27871
0.32721	1.80917
-0.15732	1.35003
-0.08081	-0.46102
0.02119	2.54890
-0.08081	-1.48133
0.07220	-1.35379
0.53123	-0.00188
0.45472	0.35523
0.55673	-0.66508
0.25071	0.45726
-0.08081	-0.12942
-0.53984	-0.71609
0.02119	0.86539
0.17421	1.65613
0.22521	0.15117
0.37822	-0.74160
-0.31033	-0.05289
-0.23382	0.20219
0.81175	-0.58856
0.83725	0.55929
0.12320	1.24800
-0.71835	1.14597
0.07220	0.78886
0.37822	0.81437
0.53123	-0.00188
0.45472	-0.71609
0.86275	-0.66508
-0.82036	-0.48652
0.32721	-0.56305
0.50573	-0.23145
0.22521	0.48277
0.07220	0.55929
-0.13181	0.40625
-0.28482	0.76336
-0.18282	0.10015
-0.00431	-0.76711
0.19971	-0.30797
0.42922	0.86539
0.48022	0.35523
0.12320	-0.05289
0.17421	0.66132
0.07220	-0.48652
0.12320	-0.23145
-0.00431	0.07465
-0.02981	1.65613
0.09770	0.96742
0.19971	0.20219
0.37822	0.15117
0.53123	-1.40480
0.55673	-0.92016
0.45472	0.55929
-0.08081	0.68683
-0.31033	0.61031
-1.58541	-0.05289
-1.40690	-0.10391
-0.64185	-0.12942
1.27078	-0.10391
2.21434	0.10015
1.80631	0.40625
1.27078	0.55929
0.58223	0.55929
-0.15732	0.63582
-0.89686	0.61031
-1.33039	0.25320
-0.18282	-0.00188
0.17421	-1.09871
0.27621	1.19699
0.07220	-0.33348
0.27621	-1.48133
0.25071	-0.15492
-0.00431	1.17148
-0.08081	0.83988
0.12320	0.17668
0.09770	0.20219
0.04670	-0.92016
0.30171	0.45726
0.25071	2.08976
0.32721	0.35523
0.50573	-2.96078
0.25071	-0.69059
0.22521	1.75816
0.07220	1.50308
-0.00431	1.27351
-0.46334	0.43176
-0.10631	-0.58856
0.42922	-0.35899
0.63323	-0.74160
0.40372	-0.79262
0.35272	-0.61406
-0.13181	0.45726
-0.53984	1.45206
-0.02981	0.48277
0.25071	0.50828
-0.02981	1.17148
-0.00431	0.15117
0.14870	-0.38449
0.35272	-0.05289
0.25071	0.10015
0.96476	-1.07320
0.58223	-0.71609
0.30171	0.45726
-0.15732	1.17148
-0.08081	0.12566
-0.33583	-0.05289
-0.20832	0.07465
0.19971	-0.71609
0.22521	0.61031
0.27621	0.58480
0.14870	0.58480
0.22521	0.30422
0.37822	-0.86914
0.07220	1.17148
-0.00431	0.58480
-0.53984	0.25320
0.02119	0.40625
0.42922	-0.23145
0.70974	-1.07320
0.53123	-1.20074
0.58223	-1.04770
0.19971	1.91120
0.14870	2.34484
0.12320	-0.66508
-0.10631	-1.14973
-0.48884	0.71234
-1.02437	0.15117
-0.61635	-0.53754
-0.18282	0.25320
0.91375	0.66132
0.60773	0.10015
1.16877	0.68683
0.83725	0.61031
0.35272	0.10015
0.22521	0.22769
0.04670	0.17668
-0.48884	0.07465
-0.13181	-0.25695
-0.28482	0.76336
-0.41233	-0.69059
0.37822	-0.10391
0.32721	0.30422
0.04670	0.35523
-0.02981	0.10015
0.17421	0.10015
-0.05531	1.19699
0.07220	0.02363
0.37822	-0.46102
0.53123	-1.48133
0.42922	-0.18043
0.50573	0.45726
0.27621	0.71234
-0.00431	-0.43551
-0.02981	1.78367
0.04670	1.63062
-0.20832	-0.53754
0.48022	-0.12942
0.55673	-0.28246
-0.23382	-0.41000
-1.10088	-0.15492
-0.43783	-0.38449
0.76074	0.38074
0.78624	0.68683
0.65874	0.89089
-0.28482	0.35523
0.12320	0.71234
0.83725	0.04914
-0.08081	-0.12942
0.02119	-0.66508
-0.20832	-0.25695
-0.89686	-0.33348
0.42922	-0.10391
0.78624	0.43176
0.27621	1.09496
0.09770	0.81437
-0.08081	0.55929
-0.15732	0.35523
0.22521	-0.53754
-0.10631	-0.41000
0.12320	0.30422
0.40372	0.50828
0.27621	-1.35379
0.17421	0.10015
-0.05531	2.16628
0.04670	1.96222
0.02119	1.29902
-0.08081	-2.11902
0.19971	-1.68539
0.27621	-0.35899
0.53123	1.17148
0.53123	0.63582
0.45472	-1.60887
0.02119	-2.11902
-0.23382	1.63062
-0.51434	1.98773
0.09770	1.63062
0.58223	0.76336
0.32721	0.04914
-1.02437	0.04914
-0.64185	-0.81812
1.06676	-1.73640
1.44929	0.27871
1.14327	0.73785
-0.51434	0.55929
-0.64185	0.48277
0.02119	1.35003
0.45472	-0.28246
0.68424	-1.30277
0.42922	-1.04770
0.14870	0.68683
0.42922	-0.12942
-0.18282	1.60511
-0.05531	0.53379
-0.00431	-1.50683
-0.89686	0.15117
-0.31033	0.71234
-0.18282	2.47238
0.25071	0.81437
0.83725	-2.27207
0.50573	-0.53754
0.53123	0.55929
0.42922	0.45726
0.17421	-0.28246
0.12320	0.96742
0.04670	0.30422
-0.13181	0.91640
-0.00431	0.53379
-0.28482	-0.94566
0.32721	-0.86914
0.70974	-0.00188
0.70974	-0.15492
0.60773	0.25320
-0.43783	0.61031
-0.56534	0.81437
0.32721	0.50828
0.12320	0.17668
-0.66735	-0.18043
-0.46334	0.68683
0.55673	0.35523
1.42379	-0.23145
1.11776	-0.63957
0.73524	-0.10391
0.35272	0.38074
-0.46334	0.58480
-0.64185	0.32972
-0.28482	0.86539
0.27621	0.53379
-0.08081	-0.63957
-0.66735	-0.84363
0.25071	0.58480
0.88825	0.07465
0.37822	-0.76711
-0.05531	-0.71609
-0.10631	0.02363
-0.10631	1.32453
-0.18282	2.24281
0.25071	1.04394
0.45472	-1.07320
0.58223	-2.27207
0.17421	0.76336
0.22521	1.32453
0.25071	0.78886
0.35272	0.58480
0.02119	-0.18043
-0.18282	0.20219
-0.48884	0.45726
-0.84586	-0.12942
0.32721	-0.84363
0.86275	0.15117
0.65874	-1.07320
0.55673	-1.63437
-0.20832	0.30422
-0.46334	1.27351
-0.20832	0.83988
0.32721	0.86539
-0.08081	1.19699
0.50573	0.66132
0.73524	-0.38449
0.50573	-0.28246
0.45472	0.02363
0.40372	-0.38449
0.02119	0.66132
-0.64185	0.45726
-0.43783	-0.15492
-0.23382	1.09496
-0.56534	-0.58856
-0.08081	-1.68539
0.48022	0.58480
0.63323	-0.25695
0.55673	-1.50683
0.65874	0.30422
0.42922	1.32453
0.02119	2.14077
-0.18282	0.78886
-0.23382	0.15117
-0.18282	0.20219
0.19971	-0.56305
0.35272	0.12566
0.30171	0.55929
0.60773	-0.56305
0.68424	-0.92016
0.32721	-0.02739
0.14870	0.73785
-0.28482	0.53379
-0.38683	0.27871
-0.48884	0.45726
-1.30489	0.25320
0.09770	0.12566
1.14327	-0.00188
1.19427	-0.33348
0.99026	-0.69059
0.81175	-0.00188
-0.15732	0.61031
-0.23382	0.61031
-0.31033	0.63582
-0.33583	0.58480
0.02119	0.66132
0.04670	-0.35899
0.40372	-1.07320
0.22521	-0.56305
0.27621	-0.25695
0.35272	1.24800
0.14870	1.96222
-0.05531	0.15117
-0.28482	-1.81293
0.12320	-0.71609
0.19971	1.14597
0.19971	0.43176
0.30171	0.17668
0.30171	-0.66508
0.25071	-0.10391
0.22521	0.10015
0.02119	0.22769
0.60773	0.38074
0.68424	0.73785
-0.31033	1.04394
-0.66735	0.20219
-1.02437	-0.33348
-0.64185	-0.38449
0.99026	-0.33348
1.24527	-0.07840
0.70974	0.10015
0.14870	0.40625
0.73524	0.66132
-0.23382	0.63582
-0.00431	0.83988
0.17421	0.12566
-0.02981	-0.35899
-0.23382	-0.56305
0.25071	0.02363
0.68424	-0.15492
0.19971	0.12566
0.07220	-0.00188
-0.64185	0.30422
-0.15732	0.73785
-0.08081	0.91640
0.19971	0.20219
0.53123	0.22769
0.53123	-0.15492
0.45472	-1.35379
0.50573	-1.07320
0.22521	0.45726
-0.15732	0.91640
0.02119	0.66132
-0.02981	0.63582
-0.31033	-0.41000
0.14870	0.78886
0.30171	0.12566
0.53123	1.12046
0.55673	0.12566
0.30171	-1.22625
0.17421	-0.63957
-0.28482	0.68683
-0.05531	1.22250
0.09770	-0.30797
0.25071	-1.76191
0.19971	-0.66508
0.19971	0.40625
-0.13181	0.61031
-1.55991	0.96742
1.06676	0.50828
1.44929	0.53379
0.58223	0.78886
-0.00431	0.71234
0.19971	0.45726
-0.20832	0.22769
-0.15732	0.27871
0.09770	-0.53754
0.19971	-1.32828
0.22521	-0.56305
0.19971	-0.76711
0.02119	-0.00188
-0.08081	0.55929
-0.10631	1.09496
-0.08081	0.83988
-0.20832	0.45726
0.04670	0.68683
0.22521	0.96742
0.63323	-0.18043
0.83725	-1.22625
0.76074	-0.92016
0.12320	0.15117
-0.28482	0.61031
-0.31033	-0.12942
-0.13181	0.45726
0.14870	1.17148
0.27621	0.32972
0.45472	-0.07840
0.42922	-0.05289
-0.05531	-0.30797
0.07220	-0.30797
0.78624	0.40625
0.12320	0.66132
-0.20832	0.78886
-0.66735	0.30422
-0.84586	0.27871
0.14870	0.55929
1.01576	0.15117
1.11776	-0.51203
-0.05531	-0.43551
0.48022	-0.66508
0.22521	-0.05289
-0.48884	0.25320
-0.08081	0.20219
0.09770	1.40105
0.04670	2.01323
0.27621	0.96742
0.42922	-1.88945
0.19971	-2.45062
-0.25932	-1.43031
-0.74385	0.73785
0.04670	1.27351
0.22521	1.04394
-0.00431	1.52859
0.30171	0.61031
0.12320	0.45726
0.12320	-0.02739
0.37822	-0.58856
0.63323	-0.97117
0.60773	-0.51203
0.55673	-0.74160
0.30171	0.35523
-0.08081	1.09496
-0.25932	0.83988
-0.87136	0.35523
-0.02981	1.17148
0.78624	-0.00188
0.02119	-1.25176
-0.20832	-0.28246
-0.89686	0.07465
0.37822	-0.28246
1.85731	0.43176
0.48022	0.94191
0.07220	0.22769
0.12320	0.86539
0.14870	1.32453
0.02119	-0.05289
-0.20832	-1.02219
-0.28482	-0.07840
-0.08081	-0.00188
0.42922	-1.88945
0.42922	-0.79262
0.19971	1.06945
-0.02981	2.06425
-0.13181	1.57960
-0.02981	-1.04770
-0.13181	-0.15492
0.04670	0.20219
0.27621	0.15117
0.37822	0.35523
0.60773	-0.66508
0.70974	1.50308
0.12320	-0.05289
-0.28482	-2.04250
-0.36133	-0.51203
-0.08081	2.16628
0.22521	0.89089
0.37822	-0.12942
0.32721	-0.23145
0.09770	-0.30797
0.50573	-0.89465
0.53123	-0.05289
0.50573	0.96742
-0.02981	0.73785
-0.00431	0.81437
-0.69285	0.78886
-0.38683	0.22769
0.19971	-0.38449
0.17421	-0.66508
0.19971	-0.10391
-0.02981	-0.23145
0.70974	0.02363
0.27621	-0.15492
1.06676	0.58480
0.50573	1.52859
-0.23382	0.15117
-0.08081	-0.51203
-0.28482	0.15117
0.25071	0.32972
0.42922	0.04914
0.19971	-0.51203
0.22521	0.27871
0.07220	0.66132
-0.18282	0.50828
-0.18282	1.19699
-0.33583	1.09496
-0.23382	-1.50683
0.17421	-1.04770
0.32721	0.45726
0.27621	-0.48652
0.37822	-0.25695
0.35272	0.02363
0.09770	1.27351
0.07220	1.01843
0.12320	0.66132
0.07220	0.89089
0.22521	0.07465
0.25071	-1.63437
0.27621	-1.07320
0.32721	-0.20594
0.73524	-0.20594
0.30171	0.78886
-0.36133	1.14597
-0.46334	1.29902
-0.51434	0.53379
0.42922	0.17668
0.17421	0.20219
0.09770	-0.00188
-0.13181	-0.25695
0.60773	-0.51203
0.91375	-0.66508
0.91375	0.10015
0.25071	0.96742
-0.13181	0.55929
-0.28482	0.02363
-0.41233	-0.10391
-0.53984	0.63582
-0.59084	0.48277
0.09770	-0.92016
0.58223	-0.89465
0.76074	-0.30797
0.48022	0.43176
0.30171	1.50308
0.04670	1.27351
-0.25932	0.10015
-0.23382	0.43176
0.04670	-1.35379
0.48022	-0.97117
0.37822	0.02363
-0.08081	0.61031
0.27621	-0.20594
0.53123	0.30422
0.19971	0.48277
0.63323	0.02363
0.35272	1.47757
-0.48884	0.83988
-0.89686	-0.86914
-0.82036	-0.43551
-0.00431	-0.20594
0.88825	0.04914
1.14327	0.04914
0.60773	0.45726
0.60773	0.96742
0.45472	0.71234
0.07220	0.22769
-0.20832	0.45726
-0.00431	-0.12942
0.09770	-0.38449
-1.02437	-0.66508
0.02119	-0.10391
0.68424	-0.30797
0.27621	0.20219
0.30171	0.43176
0.07220	-0.56305
0.07220	0.73785
0.02119	2.19179
-0.05531	0.58480
0.22521	-0.05289
0.37822	-0.84363
0.22521	-1.45582
0.65874	-1.22625
0.27621	0.12566
0.07220	1.50308
-0.10631	1.45206
-0.41233	0.73785
-0.28482	0.32972
0.14870	-0.00188
0.60773	-0.15492
0.73524	-0.86914
0.53123	-0.99668
-0.13181	0.17668
-0.13181	-0.61406
0.32721	0.30422
-0.46334	1.32453
0.30171	1.01843
0.12320	1.09496
0.25071	0.63582
0.07220	-0.33348
0.09770	-0.41000
0.53123	-0.30797
1.09226	-0.53754
0.81175	0.30422
-0.10631	0.61031
-1.07538	0.07465
-1.35589	0.04914
-0.18282	0.76336
0.55673	0.07465
0.53123	-0.58856
0.48022	0.86539
0.07220	0.04914
0.55673	-0.69059
0.48022	-0.58856
-0.02981	0.32972
-0.23382	1.17148
-0.10631	1.73265
-0.08081	0.68683
-0.13181	-0.71609
0.17421	-0.79262
0.35272	-0.10391
0.37822	-0.30797
0.42922	-0.58856
0.32721	0.99292
0.07220	0.32972
0.04670	0.25320
0.09770	0.04914
-0.18282	0.22769
-0.43783	0.68683
-0.20832	0.50828
0.17421	-0.89465
0.58223	-0.00188
0.81175	0.15117
0.42922	0.40625
0.63323	0.99292
0.04670	0.55929
-0.38683	-0.33348
-0.94787	0.61031
-0.10631	0.55929
0.55673	-0.79262
0.93925	-0.33348
0.78624	-0.33348
0.55673	-0.51203
0.07220	0.12566
-1.53441	-0.10391
-1.04987	1.12046
0.25071	0.73785
0.45472	0.45726
0.45472	1.01843
0.78624	0.78886
0.50573	-0.97117
0.42922	-1.20074
0.14870	-1.17523
-0.69285	0.35523
-0.38683	1.55410
0.14870	1.04394
0.32721	-0.74160
0.32721	0.35523
0.25071	0.25320
0.58223	-0.30797
0.63323	0.07465
0.27621	0.22769
0.19971	0.27871
-0.13181	0.35523
-0.00431	0.50828
0.02119	0.02363
-0.08081	0.94191
-0.41233	1.04394
-0.13181	0.61031
-0.05531	-0.79262
0.45472	-1.60887
0.45472	-0.48652
0.81175	-0.25695
0.04670	-0.33348
-0.36133	0.71234
-0.46334	0.89089
-0.08081	0.71234
0.65874	0.91640
0.88825	0.50828
0.60773	-0.25695
0.19971	-0.97117
-0.08081	-0.35899
0.14870	0.07465
-0.36133	0.35523
-0.23382	0.89089
-0.08081	0.38074
0.12320	0.83988
0.30171	1.63062
0.27621	-0.25695
0.37822	-2.14453
0.25071	-0.15492
-0.05531	-0.10391
0.02119	0.43176
0.40372	-0.46102
0.14870	1.01843
-0.13181	1.17148
0.07220	0.86539
-0.13181	1.12046
-0.10631	-0.48652
0.42922	-1.27726
0.48022	-0.74160
0.40372	-0.20594
0.53123	-0.63957
0.37822	0.73785
0.09770	1.04394
-0.10631	0.43176
-0.59084	0.58480
-0.46334	0.61031
0.53123	0.35523
0.27621	-0.05289
0.37822	-0.63957
-0.36133	-0.33348
-0.10631	-0.51203
0.91375	-0.12942
0.68424	0.63582
0.60773	0.81437
0.40372	0.66132
0.04670	0.86539
0.12320	0.07465
0.12320	-0.48652
0.12320	-0.25695
0.09770	-0.51203
0.09770	-0.53754
-0.00431	0.76336
-0.00431	0.55929
-0.20832	0.38074
-0.38683	0.25320
-1.02437	0.53379
-0.25932	-0.05289
0.83725	-0.48652
0.81175	-0.23145
0.58223	-0.43551
0.60773	-0.20594
0.48022	0.07465
0.07220	1.17148
-0.05531	1.14597
-0.05531	0.02363
-0.02981	0.22769
0.17421	0.32972
0.42922	-0.25695
0.53123	-0.23145
-0.18282	-0.18043
-0.61635	-0.33348
-0.48884	0.02363
-0.18282	0.45726
0.02119	1.06945
1.04126	1.12046
1.21977	0.83988
0.73524	-0.20594
0.12320	-0.81812
-0.20832	-0.28246
-0.82036	-0.10391
-0.20832	-1.27726
0.70974	-0.76711
0.22521	0.78886
0.12320	0.94191
0.27621	0.99292
-0.02981	1.52859
-0.02981	0.89089
0.22521	-0.46102
0.09770	-0.94566
0.04670	0.02363
-0.13181	-0.63957
0.17421	-0.05289
0.48022	0.32972
0.25071	0.83988
0.25071	1.19699
0.02119	0.48277
-0.18282	0.12566
0.17421	-0.46102
0.22521	-0.92016
0.30171	-0.07840
0.58223	-0.23145
0.37822	0.20219
0.04670	0.61031
-0.15732	2.29382
0.02119	-0.63957
0.02119	-0.56305
-0.13181	0.55929
-0.28482	-0.12942
-0.13181	-0.48652
-0.33583	-0.56305
0.35272	-0.30797
1.01576	0.45726
0.73524	0.91640
0.86275	0.86539
0.32721	0.66132
-0.10631	0.76336
-1.10088	0.04914
-0.79486	-0.92016
0.45472	-0.41000
1.16877	-0.12942
0.78624	-0.25695
0.42922	-0.15492
-0.36133	1.17148
-0.66735	0.63582
-0.23382	0.15117
-0.02981	0.38074
0.12320	0.07465
0.32721	-0.76711
0.53123	0.20219
0.32721	0.02363
0.25071	0.63582
0.19971	0.27871
-0.05531	-0.99668
-0.18282	0.66132
0.09770	0.10015
-0.08081	-1.02219
0.12320	0.71234
0.30171	1.04394
0.55673	0.76336
0.60773	0.45726
0.65874	0.22769
0.14870	-0.25695
-0.38683	-0.43551
-0.48884	0.53379
-0.51434	0.61031
-0.05531	0.86539
0.65874	0.04914
0.14870	-0.61406
0.53123	-0.51203
0.65874	-0.99668
0.50573	-0.41000
-0.36133	1.12046
-0.38683	0.78886
0.42922	-0.23145
0.81175	0.71234
0.17421	1.09496
-0.43783	0.25320
0.22521	-0.18043
0.48022	-0.86914
0.45472	-0.74160
0.40372	-0.89465
0.07220	1.60511
-0.10631	0.55929
-0.25932	-0.92016
-0.18282	0.55929
-0.05531	0.22769
-0.82036	1.42656
0.22521	1.22250
0.68424	0.07465
0.83725	-0.30797
0.65874	-0.23145
0.35272	-0.46102
0.04670	-1.02219
0.04670	0.25320
-0.10631	0.86539
-0.10631	0.73785
