0.35272	-0.30797
0.17421	0.15117
0.19971	0.61031
-0.08081	0.68683
-0.08081	0.55929
0.02119	0.63582
-0.20832	-0.05289
0.02119	-0.38449
0.27621	-0.28246
0.45472	-0.25695
0.50573	-0.41000
0.60773	0.17668
0.22521	0.68683
-0.08081	0.66132
-0.18282	0.45726
-0.18282	0.73785
-0.23382	0.10015
0.04670	-0.20594
0.37822	-0.23145
0.48022	-0.25695
0.37822	-0.56305
0.37822	-0.00188
0.19971	0.58480
-0.08081	0.71234
-0.15732	0.61031
-0.05531	0.76336
-0.15732	0.10015
0.02119	-0.43551
0.53123	-0.43551
0.32721	-0.25695
-0.00431	-0.35899
0.58223	0.25320
0.58223	0.55929
-0.00431	0.53379
-0.10631	0.43176
-0.08081	0.76336
-0.28482	0.12566
0.02119	-0.48652
0.40372	-0.46102
0.32721	-0.15492
0.37822	-0.28246
0.48022	0.40625
0.22521	0.71234
0.09770	0.50828
0.07220	0.35523
-0.20832	0.76336
-1.10088	0.12566
-0.08081	-0.35899
0.07220	-0.48652
0.81175	-0.15492
0.73524	-0.23145
0.78624	0.30422
0.35272	0.63582
0.02119	0.48277
-0.18282	0.25320
-0.08081	0.76336
-0.08081	0.12566
0.02119	-0.38449
0.09770	-0.63957
0.32721	-0.12942
0.32721	-0.10391
0.45472	0.38074
0.30171	0.76336
0.02119	0.63582
-0.08081	0.40625
-0.13181	0.55929
-0.20832	0.04914
0.02119	-0.41000
0.37822	-0.38449
0.32721	-0.28246
0.09770	-0.38449
0.70974	0.27871
0.53123	0.66132
0.12320	0.61031
-0.25932	0.32972
-0.53984	0.61031
-0.10631	0.10015
0.07220	-0.25695
0.40372	-0.35899
0.65874	-0.12942
0.37822	-0.25695
0.42922	0.17668
0.22521	0.66132
-0.02981	0.58480
-0.00431	0.55929
-0.08081	0.68683
-0.48884	0.02363
0.19971	-0.51203
0.27621	-0.48652
-0.23382	-0.05289
0.48022	-0.30797
0.68424	0.27871
0.45472	0.83988
0.17421	0.76336
-0.05531	0.30422
-0.15732	0.35523
-0.25932	-0.18043
-0.08081	-0.46102
0.25071	-0.35899
0.42922	0.04914
0.40372	-0.25695
0.45472	0.45726
0.27621	0.68683
-0.05531	0.66132
-0.10631	0.40625
-0.02981	0.50828
-0.23382	-0.02739
0.02119	-0.51203
0.25071	-0.46102
0.35272	-0.12942
0.37822	-0.15492
0.53123	0.25320
0.48022	0.68683
-0.02981	0.61031
-0.28482	0.30422
-0.51434	0.63582
0.14870	0.07465
0.12320	-0.41000
0.37822	-0.51203
0.35272	-0.25695
0.48022	-0.23145
0.48022	0.25320
0.27621	0.81437
-0.00431	0.66132
-0.02981	0.61031
-0.13181	0.66132
0.02119	0.10015
-0.43783	-0.43551
0.25071	-0.48652
0.58223	-0.20594
0.35272	-0.41000
0.50573	0.22769
0.32721	0.71234
-0.02981	0.66132
-0.28482	0.35523
-0.08081	0.68683
-0.33583	-0.05289
0.02119	-0.28246
0.37822	-0.33348
0.58223	0.02363
0.50573	-0.25695
0.48022	0.22769
0.17421	0.63582
-0.15732	0.55929
-0.13181	0.43176
-0.13181	0.53379
-0.18282	-0.00188
-0.02981	-0.33348
0.32721	-0.25695
0.50573	-0.15492
0.37822	-0.28246
0.45472	0.35523
0.22521	0.73785
-0.02981	0.66132
-0.00431	0.35523
-0.05531	0.55929
-0.36133	-0.05289
-0.13181	-0.43551
0.55673	-0.30797
0.48022	-0.05289
0.14870	-0.20594
0.32721	0.43176
0.42922	0.76336
0.09770	0.48277
-0.08081	0.15117
0.02119	0.32972
-0.15732	0.07465
-0.08081	-0.23145
0.27621	-0.18043
0.50573	-0.02739
0.50573	-0.15492
0.45472	0.35523
0.22521	0.61031
-0.13181	0.58480
-0.05531	0.35523
-0.02981	0.53379
-0.74385	-0.00188
-0.08081	-0.61406
0.22521	-0.38449
0.68424	-0.05289
0.68424	-0.25695
0.48022	0.22769
0.27621	0.61031
-0.00431	0.61031
-0.08081	0.45726
-0.20832	0.73785
-0.18282	0.10015
0.04670	-0.30797
0.35272	-0.30797
0.58223	-0.02739
0.42922	-0.35899
0.45472	0.22769
0.30171	0.71234
-0.10631	0.45726
-0.05531	0.30422
-0.79486	0.68683
-0.41233	0.15117
-0.18282	-0.28246
0.45472	-0.46102
0.65874	-0.02739
0.55673	-0.28246
0.60773	0.17668
0.22521	0.58480
-0.08081	0.50828
-0.20832	0.32972
-0.13181	0.66132
-0.18282	0.07465
0.04670	-0.23145
0.30171	-0.38449
0.48022	-0.12942
0.32721	-0.35899
0.53123	0.04914
0.30171	0.48277
-0.00431	0.35523
-0.05531	0.63582
-0.08081	0.86539
-0.25932	0.27871
-0.05531	-0.33348
0.27621	-0.35899
0.58223	-0.12942
0.42922	-0.35899
0.45472	0.25320
-0.08081	0.66132
0.17421	0.53379
0.02119	0.40625
-0.08081	0.43176
-0.36133	0.02363
-0.08081	-0.30797
0.32721	-0.33348
0.50573	-0.15492
0.35272	-0.33348
0.53123	0.27871
0.22521	0.63582
-0.28482	0.43176
-0.13181	0.32972
0.58223	0.71234
-0.64185	0.12566
0.07220	-0.23145
-0.00431	-0.33348
0.27621	-0.05289
0.60773	-0.18043
0.53123	0.27871
0.19971	0.55929
-0.08081	0.61031
-0.02981	0.27871
-0.08081	0.61031
-0.28482	-0.07840
0.02119	-0.51203
0.37822	-0.20594
0.42922	0.07465
0.42922	-0.28246
0.60773	0.22769
0.35272	0.55929
-0.05531	0.43176
-0.28482	0.43176
-0.28482	0.73785
-0.28482	0.12566
0.07220	-0.35899
0.40372	-0.35899
0.55673	-0.05289
0.50573	-0.35899
0.45472	0.17668
0.30171	0.45726
0.02119	0.86539
-0.18282	0.89089
-0.10631	0.94191
-0.28482	-0.18043
-0.08081	-0.71609
0.17421	-0.92016
0.42922	-0.43551
0.37822	-0.30797
0.48022	0.32972
0.09770	0.66132
0.04670	1.04394
0.02119	0.76336
0.14870	0.68683
-0.00431	-0.20594
0.02119	-0.25695
0.45472	-0.25695
0.50573	-0.23145
0.22521	-0.33348
0.25071	-0.12942
0.12320	0.22769
-0.10631	0.66132
-0.28482	0.50828
-0.08081	0.76336
-0.20832	0.04914
-0.20832	-0.00188
0.40372	-0.02739
0.88825	0.25320
0.48022	-0.76711
0.37822	-0.79262
0.68424	0.38074
0.19971	0.89089
-0.20832	0.99292
0.17421	1.40105
-0.10631	0.81437
-0.31033	0.48277
-0.31033	-1.04770
0.19971	-1.27726
0.35272	-2.24656
0.25071	0.10015
0.14870	1.01843
0.32721	1.14597
-0.10631	1.01843
-0.48884	1.27351
-0.82036	0.40625
-0.38683	-0.51203
0.63323	-0.41000
0.99026	-1.04770
0.99026	0.20219
1.65330	0.22769
1.34728	1.24800
0.35272	0.38074
-0.56534	-1.65988
-0.69285	0.78886
-0.74385	0.73785
-0.79486	-0.33348
-0.33583	-0.89465
0.22521	0.17668
0.12320	0.32972
-0.28482	-0.92016
-0.08081	0.78886
0.73524	1.01843
1.09226	1.63062
0.55673	0.91640
0.35272	-0.74160
0.30171	-0.76711
0.04670	-1.12422
-0.41233	-0.30797
-0.43783	-0.00188
0.17421	0.55929
0.07220	1.09496
0.32721	-0.00188
0.40372	0.99292
-0.00431	0.96742
-0.13181	0.53379
0.73524	-0.66508
0.42922	-1.94047
0.19971	-1.20074
-0.36133	-0.10391
-0.20832	1.57960
0.35272	1.45206
0.12320	0.07465
0.32721	0.15117
0.22521	0.89089
-0.28482	-0.15492
0.02119	-0.69059
0.60773	-1.83844
0.53123	-1.48133
0.12320	0.63582
0.17421	1.27351
-0.08081	0.89089
-0.00431	2.01323
0.17421	-0.38449
-0.51434	0.02363
-1.02437	-0.15492
-0.18282	-0.94566
0.81175	-2.83324
0.76074	-0.71609
1.16877	1.27351
1.55129	2.39585
1.01576	2.49788
0.53123	2.54890
-0.08081	-0.02739
0.12320	1.04394
-0.99887	-1.88945
-0.99887	-5.69010
-0.89686	-0.46102
-0.79486	2.11527
-0.59084	-0.02739
0.70974	-0.86914
0.83725	0.38074
0.99026	-0.15492
0.48022	0.10015
-0.23382	0.76336
-0.38683	0.25320
0.14870	0.81437
0.70974	0.30422
0.99026	1.04394
1.01576	1.73265
0.30171	0.10015
-0.10631	0.15117
-0.18282	-0.41000
-0.33583	-3.29238
-0.38683	1.91120
-0.33583	0.63582
-0.13181	-0.33348
0.93925	-3.01179
0.35272	1.93671
0.14870	2.65093
0.48022	-0.07840
-0.00431	-1.20074
0.09770	-0.89465
0.07220	1.14597
0.63323	2.39585
-0.00431	0.61031
-0.08081	0.25320
-0.41233	-0.30797
-0.13181	-1.17523
0.45472	-1.65988
0.93925	0.45726
0.35272	1.35003
-0.05531	-1.68539
-0.25932	1.27351
0.14870	1.93671
-0.20832	-1.22625
-0.41233	2.21730
0.32721	-0.38449
1.24527	-0.58856
0.93925	-1.20074
0.14870	0.81437
-0.38683	1.70714
-0.38683	0.27871
0.07220	-0.48652
0.45472	0.81437
-0.10631	0.40625
-0.25932	-1.17523
0.25071	-2.06800
0.73524	-0.51203
0.88825	0.15117
0.30171	1.98773
-0.46334	1.88570
0.27621	1.29902
0.04670	0.43176
-0.00431	0.10015
0.17421	0.35523
0.22521	-0.46102
0.50573	-0.46102
-0.02981	-2.19554
-0.13181	-1.91496
-0.31033	2.29382
-0.05531	2.06425
0.12320	1.63062
0.17421	-1.73640
0.12320	3.03355
0.02119	0.81437
0.19971	-1.68539
0.58223	-1.55785
0.70974	-0.84363
0.17421	0.25320
0.19971	0.20219
-0.31033	1.24800
-0.02981	-0.71609
0.35272	-1.32828
-0.69285	0.76336
0.25071	0.25320
0.40372	0.96742
0.32721	1.04394
0.07220	1.01843
0.17421	-0.58856
0.81175	1.29902
1.47479	0.58480
1.21977	-0.89465
-0.20832	0.27871
-1.38139	0.68683
-1.61091	-0.35899
-0.15732	-0.94566
1.34728	-0.53754
-0.79486	-1.09871
0.42922	-0.86914
0.37822	2.52339
0.65874	3.90081
0.37822	1.29902
0.35272	-0.15492
0.32721	-0.46102
-0.23382	-2.32308
-0.48884	-4.18515
-0.10631	3.00804
-0.15732	1.60511
0.42922	-0.66508
0.86275	-0.33348
0.65874	1.60511
0.40372	-0.12942
-0.02981	-0.05289
-0.00431	0.20219
-0.41233	0.99292
-0.28482	0.32972
0.40372	0.17668
0.53123	-0.18043
1.04126	-0.63957
0.42922	-1.48133
-0.15732	-0.51203
-0.87136	0.50828
-1.50890	1.17148
-0.64185	1.45206
-0.13181	0.04914
-1.43240	0.78886
1.19427	0.63582
1.65330	-0.63957
1.60230	-1.63437
1.55129	1.88570
0.53123	2.72745
0.09770	-0.20594
-0.23382	-0.97117
-0.25932	-1.04770
-0.43783	-1.73640
-0.59084	1.22250
0.17421	2.67644
0.22521	0.00000
-0.05531	-0.10391
-0.31033	-0.15492
-0.20832	-0.63957
0.02119	-1.27726
0.22521	-1.17523
0.04670	0.48277
0.02119	0.22769
0.12320	1.78367
0.58223	1.91120
0.73524	-1.48133
0.76074	-0.41000
0.63323	1.06945
0.12320	0.96742
0.04670	-0.30797
0.07220	-0.25695
-0.15732	1.63062
-1.45790	0.38074
-0.66735	-0.71609
-0.08081	-0.79262
1.11776	-0.15492
1.14327	-0.00188
0.68424	0.38074
0.50573	0.20219
0.63323	0.22769
0.53123	3.39065
-0.31033	-0.15492
-0.36133	-1.91496
-0.36133	-0.94566
-0.18282	-0.69059
0.09770	0.71234
0.07220	0.78886
0.50573	0.89089
0.19971	1.57960
-0.18282	-0.33348
-0.25932	-0.74160
0.07220	4.89561
-0.08081	-0.20594
0.09770	-1.71090
0.63323	-1.07320
0.42922	-1.73640
0.50573	0.43176
0.68424	-1.25176
0.65874	-1.94047
0.02119	-2.96078
-0.18282	2.70194
-0.38683	2.80397
-0.25932	3.16108
0.09770	2.34484
0.04670	0.99292
-0.23382	-0.86914
-0.08081	-2.11902
1.62780	-0.79262
0.81175	-0.25695
-0.66735	0.17668
-3.01350	0.63582
0.40372	0.43176
1.21977	2.26831
0.93925	1.68163
1.21977	-2.42511
1.09226	-2.39961
0.70974	-1.83844
-0.02981	1.01843
-0.10631	3.72225
-0.36133	2.59991
-0.38683	-1.20074
-0.48884	-3.29238
-0.59084	0.10015
-0.36133	1.45206
0.07220	2.08976
0.32721	-0.51203
0.25071	-1.83844
0.12320	-0.35899
-0.02981	1.47757
0.58223	0.91640
0.50573	0.12566
0.22521	0.43176
-0.08081	0.38074
-0.13181	-0.58856
0.17421	0.50828
0.83725	-0.20594
0.76074	0.40625
0.55673	-2.11902
-0.31033	-2.06800
-0.87136	0.38074
-0.15732	1.65613
0.14870	1.93671
-1.30489	0.53379
0.63323	1.52859
1.50029	-0.63957
1.09226	-1.12422
0.86275	-1.73640
0.53123	1.35003
-0.08081	2.70194
-0.20832	1.09496
-0.36133	0.15117
-0.53984	-0.48652
-0.76936	-0.15492
-0.53984	-1.22625
0.07220	0.27871
0.35272	-1.91496
0.65874	-1.99148
0.81175	0.63582
-0.02981	0.76336
-0.15732	0.55929
-0.18282	0.66132
-0.00431	0.53379
0.25071	0.91640
0.30171	0.45726
0.35272	-0.51203
0.48022	-0.05289
0.60773	-0.33348
0.76074	-0.86914
0.37822	0.53379
-0.15732	0.48277
-0.53984	1.42656
0.07220	1.01843
-2.04444	0.53379
-0.46334	0.30422
-0.74385	-0.20594
0.70974	-0.51203
1.85731	-1.04770
1.98482	-1.30277
0.81175	0.25320
-0.38683	0.55929
-0.51434	0.78886
0.14870	1.01843
0.07220	-1.37929
-0.10631	2.01323
-0.28482	1.50308
0.25071	0.45726
0.22521	-0.66508
0.27621	-3.06281
0.04670	-1.30277
-0.18282	1.60511
-0.28482	0.94191
-0.61635	-1.48133
-0.36133	0.02363
0.37822	1.78367
0.58223	1.24800
0.73524	-0.07840
1.01576	-1.68539
1.14327	0.71234
0.30171	1.68163
-0.38683	1.09496
-0.69285	-0.05289
0.27621	-0.46102
-0.56534	0.20219
-0.89686	-0.02739
-0.10631	0.04914
0.76074	-0.35899
1.14327	0.02363
0.86275	0.04914
0.02119	-0.05289
0.42922	-0.30797
0.60773	1.73265
0.19971	-0.05289
-0.33583	-1.40480
-0.20832	2.54890
-0.02981	1.57960
-0.10631	-2.50164
0.27621	-0.97117
0.48022	0.81437
0.12320	0.04914
-0.38683	0.71234
-0.23382	0.73785
-0.05531	-0.07840
-0.31033	0.22769
0.27621	-0.92016
0.88825	0.76336
0.93925	1.47757
0.81175	-0.81812
-0.18282	-3.39441
-0.48884	-0.53754
-0.33583	0.91640
-0.00431	1.65613
0.65874	1.01843
0.63323	1.83468
0.27621	1.63062
-0.05531	1.65613
-0.00431	-2.32308
-0.25932	-3.77702
0.81175	-1.25176
0.25071	1.29902
0.04670	1.47757
0.09770	0.89089
0.17421	2.21730
-0.28482	3.59471
0.14870	0.17668
0.27621	-2.68019
0.17421	-1.88945
-0.02981	-0.38449
0.22521	0.02363
0.40372	-0.86914
-0.13181	-0.05289
-0.20832	0.17668
0.09770	1.04394
-0.08081	2.31933
0.09770	0.32972
0.35272	-1.94047
0.48022	-1.48133
0.19971	-0.74160
0.32721	0.61031
0.42922	0.71234
0.02119	1.47757
-0.36133	1.83468
0.09770	0.71234
0.07220	0.94191
0.27621	0.04914
0.68424	0.10015
-0.82036	-1.09871
-0.89686	-0.20594
-0.28482	-1.63437
1.24527	0.45726
1.39828	0.96742
0.88825	0.96742
0.37822	-0.35899
-0.18282	1.75816
-0.20832	-0.00188
0.25071	-1.32828
0.22521	-1.86394
0.04670	-2.34859
0.07220	-0.99668
-0.53984	1.75816
-0.46334	2.49788
-0.02981	0.32972
-0.00431	0.04914
0.07220	2.98253
0.19971	0.58480
0.55673	-0.61406
0.53123	-0.28246
0.35272	-0.15492
0.53123	-0.61406
0.37822	-1.81293
-0.15732	-1.45582
0.09770	0.73785
0.12320	0.61031
-0.20832	1.80917
-0.20832	1.06945
0.09770	0.35523
0.63323	-0.35899
0.86275	-0.99668
0.70974	-0.20594
-0.02981	0.53379
-3.34502	1.45206
-0.46334	1.04394
-0.28482	-0.15492
0.58223	-0.51203
1.60230	-0.05289
1.42379	1.35003
1.32178	0.61031
0.81175	-0.71609
0.40372	-1.78742
-0.46334	0.81437
-0.43783	-0.43551
-0.38683	0.50828
-0.51434	0.32972
-0.76936	-0.05289
-0.28482	0.94191
0.09770	0.35523
0.30171	0.89089
0.30171	0.04914
0.76074	-0.23145
0.73524	0.55929
0.30171	-1.55785
0.04670	0.25320
-0.25932	0.32972
-0.48884	0.15117
0.35272	0.22769
0.42922	-0.20594
0.76074	0.15117
0.27621	0.25320
0.27621	-0.84363
0.40372	1.57960
0.19971	1.37554
-0.97337	0.17668
-0.28482	0.96742
-0.25932	1.24800
0.07220	0.10015
0.78624	-0.89465
1.01576	-1.65988
0.37822	-0.69059
0.02119	-1.12422
0.60773	-1.50683
-0.18282	1.06945
0.19971	1.35003
0.22521	3.08456
-0.08081	2.52339
0.32721	-1.27726
0.17421	-1.86394
0.22521	-0.66508
0.22521	0.83988
0.27621	-0.02739
-0.15732	-1.04770
-0.00431	0.94191
0.12320	1.32453
-0.08081	1.93671
-0.33583	-0.00188
-0.48884	-0.48652
-0.28482	-1.43031
0.63323	-0.79262
1.09226	-0.25695
1.27078	-1.68539
0.70974	-0.58856
-0.20832	1.35003
-0.41233	1.37554
-0.31033	1.55410
0.02119	0.91640
-0.08081	0.38074
0.45472	0.22769
0.76074	-0.15492
-0.00431	-0.07840
-0.23382	-0.89465
0.04670	-0.61406
0.27621	2.65093
0.37822	0.78886
0.42922	-1.43031
0.19971	-0.23145
-0.20832	-0.15492
-0.23382	-1.60887
0.50573	-0.76711
0.42922	1.63062
0.35272	3.95182
0.12320	0.17668
0.14870	-2.39961
0.12320	-1.81293
-0.15732	0.32972
-0.61635	0.89089
-0.33583	1.96222
0.60773	-2.14453
-0.08081	0.66132
0.27621	1.19699
1.14327	-0.89465
0.70974	0.38074
-0.18282	1.37554
-0.02981	0.66132
0.17421	-0.51203
-0.05531	0.40625
-0.02981	0.35523
0.37822	-0.23145
-1.27939	0.17668
0.12320	-1.02219
0.12320	-1.88945
0.63323	0.20219
0.68424	1.86019
0.63323	1.40105
0.37822	-0.43551
0.12320	0.50828
-0.23382	0.43176
0.35272	-0.20594
0.53123	-0.56305
-0.00431	0.22769
-0.08081	0.35523
-0.13181	1.98773
-0.13181	0.25320
-0.02981	-1.81293
-0.08081	0.32972
0.17421	1.04394
0.22521	0.76336
0.19971	-0.81812
0.37822	-1.32828
0.55673	1.24800
0.50573	-0.43551
-0.05531	-2.29757
-0.23382	1.55410
-0.13181	2.39585
0.19971	0.32972
0.09770	0.15117
0.22521	-0.51203
0.32721	-0.48652
0.50573	-0.74160
0.42922	0.07465
0.50573	0.02363
0.70974	0.96742
0.63323	0.99292
-1.40690	0.89089
-0.61635	0.68683
-0.89686	0.76336
0.83725	-0.86914
0.58223	-1.32828
0.48022	-0.18043
0.22521	1.65613
1.60230	0.10015
-0.23382	0.17668
-0.66735	-0.33348
0.17421	-0.05289
1.57679	0.22769
-0.13181	0.81437
-1.15188	-0.86914
-0.28482	0.10015
0.27621	-0.30797
0.14870	1.88570
-0.05531	-1.99148
0.65874	-2.80773
0.02119	2.08976
-0.25932	0.27871
0.32721	1.73265
-0.28482	3.08456
0.32721	1.32453
0.63323	-0.12942
0.37822	-0.89465
0.42922	-1.12422
0.32721	-1.37929
-0.08081	-0.33348
-0.31033	-0.58856
0.02119	0.07465
0.48022	0.66132
0.07220	0.58480
-0.33583	0.76336
0.32721	0.48277
0.14870	-0.30797
0.32721	-0.10391
0.40372	0.22769
0.12320	-0.15492
0.42922	1.19699
0.12320	0.89089
-0.15732	0.63582
-0.31033	0.81437
-0.38683	0.07465
0.09770	-1.48133
0.60773	-1.99148
0.22521	-0.58856
0.86275	0.55929
0.40372	1.55410
0.12320	1.27351
0.04670	1.12046
-0.13181	-0.86914
-0.15732	-0.84363
-0.38683	0.25320
0.09770	0.07465
0.09770	0.61031
0.25071	-0.71609
0.25071	-1.83844
0.02119	0.66132
0.12320	0.66132
0.42922	0.91640
0.58223	2.39585
0.63323	1.78367
0.04670	-0.12942
-0.89686	-1.45582
-0.69285	-0.94566
0.53123	-0.86914
1.44929	-0.12942
0.02119	0.38074
-0.23382	-0.41000
-0.05531	-0.00188
0.30171	0.86539
0.07220	1.83468
0.30171	0.50828
0.30171	0.25320
0.58223	0.10015
0.81175	0.25320
0.70974	-0.92016
0.25071	-0.71609
-0.46334	0.38074
-1.07538	0.27871
-1.12638	2.16628
-0.36133	1.09496
0.48022	0.15117
0.78624	-2.06800
0.83725	-2.29757
0.50573	-0.02739
0.45472	-0.33348
0.50573	-0.25695
-0.05531	1.75816
-0.08081	1.35003
0.02119	0.63582
-0.13181	1.32453
0.02119	0.20219
0.32721	-0.63957
0.35272	-0.53754
0.25071	-0.56305
0.53123	-0.12942
0.40372	1.17148
0.27621	0.91640
-0.10631	-0.35899
-0.48884	0.45726
-0.84586	0.55929
0.45472	0.02363
0.73524	-0.66508
0.45472	-1.91496
-0.02981	0.83988
0.09770	1.86019
-0.43783	-0.05289
1.47479	-1.68539
-0.10631	0.58480
-0.66735	0.43176
-0.18282	-0.92016
0.55673	2.65093
0.70974	1.83468
0.70974	-2.45062
0.12320	0.43176
0.22521	0.94191
0.02119	-0.46102
-0.48884	-0.63957
-0.41233	0.30422
-0.20832	0.83988
-0.33583	0.38074
0.07220	-0.20594
0.27621	-0.63957
0.48022	-0.74160
0.42922	0.15117
0.60773	0.50828
0.42922	0.04914
0.14870	1.12046
0.12320	1.17148
0.12320	1.06945
-0.28482	0.48277
-0.10631	-0.25695
0.19971	-0.53754
0.70974	-0.05289
0.88825	-0.56305
0.63323	-1.04770
-0.28482	0.20219
-0.79486	0.78886
-0.53984	0.71234
-0.02981	0.43176
-0.46334	0.66132
0.40372	-1.35379
1.39828	1.63062
0.93925	1.55410
0.53123	0.38074
0.27621	-1.32828
0.63323	-0.10391
-0.08081	-0.00188
-0.05531	-2.96078
-0.48884	0.63582
-0.53984	1.80917
-0.02981	1.09496
0.09770	0.71234
0.37822	0.78886
0.27621	-0.12942
0.42922	-1.65988
0.12320	-0.61406
-0.13181	0.45726
0.12320	-0.28246
0.19971	1.40105
-0.05531	1.96222
0.22521	0.76336
0.32721	-0.15492
0.65874	-0.18043
0.65874	-0.48652
0.65874	-1.88945
0.09770	-0.33348
-0.94787	0.58480
-0.84586	0.71234
0.02119	0.63582
0.02119	0.48277
0.50573	-0.71609
0.48022	1.06945
0.93925	0.96742
0.45472	-0.23145
0.32721	-1.14973
0.76074	-0.89465
0.04670	1.01843
-0.25932	1.09496
-0.10631	0.53379
-0.18282	0.04914
0.12320	-0.25695
0.37822	-0.18043
0.09770	-1.58336
0.25071	0.45726
0.30171	0.17668
0.17421	1.93671
-0.56534	1.37554
0.04670	-0.25695
0.07220	-0.94566
-0.02981	0.17668
-0.00431	-0.43551
0.53123	-0.30797
0.55673	0.48277
0.45472	-0.07840
0.37822	-0.02739
0.27621	0.53379
0.17421	0.86539
0.14870	0.50828
-0.13181	-0.51203
-0.18282	2.01323
-0.38683	0.81437
-0.13181	-0.71609
0.19971	-1.48133
0.09770	-0.61406
0.63323	-1.14973
0.37822	0.22769
0.12320	1.45206
0.17421	0.53379
0.65874	0.78886
-0.33583	1.14597
-0.89686	-0.35899
0.37822	-0.92016
0.65874	0.58480
0.91375	0.30422
0.32721	-0.07840
-0.46334	-1.50683
-0.28482	0.07465
0.37822	2.52339
0.40372	1.19699
0.27621	0.04914
0.07220	-0.81812
0.02119	-0.35899
-0.38683	-1.12422
0.19971	0.07465
0.48022	-0.53754
0.17421	1.27351
0.35272	1.37554
0.32721	0.10015
0.09770	0.58480
-0.10631	0.53379
0.07220	0.22769
0.32721	-0.71609
0.35272	-0.46102
0.19971	-0.28246
0.58223	-1.96597
0.35272	-0.53754
-0.28482	1.27351
-0.25932	1.42656
-0.46334	0.96742
-0.51434	1.42656
0.02119	0.25320
0.22521	-0.69059
1.04126	-0.46102
0.91375	-0.02739
0.50573	0.50828
0.27621	-0.35899
0.42922	-0.58856
0.27621	0.83988
0.14870	-0.23145
-0.87136	2.24281
-0.46334	1.78367
0.02119	-0.94566
-0.00431	-1.83844
0.78624	-0.28246
0.63323	0.10015
0.32721	0.55929
0.02119	0.53379
-0.00431	-0.46102
-0.20832	0.63582
-0.08081	0.22769
0.09770	0.48277
0.48022	-0.10391
0.12320	-0.23145
0.22521	-0.02739
0.22521	-0.23145
0.22521	0.35523
0.19971	1.09496
0.32721	0.48277
-0.38683	0.12566
0.27621	0.55929
0.68424	0.12566
-0.43783	0.55929
-0.33583	-1.20074
-1.04987	-0.79262
0.45472	0.07465
1.60230	0.63582
1.16877	0.55929
0.58223	0.99292
0.32721	0.35523
-0.02981	0.45726
0.07220	-0.61406
-0.08081	-0.12942
-0.08081	0.38074
-0.38683	-1.09871
-0.18282	-1.07320
-0.51434	1.52859
-0.08081	0.45726
0.25071	0.89089
0.02119	1.32453
0.02119	0.32972
0.02119	-1.83844
0.53123	-0.94566
0.88825	0.20219
0.60773	0.10015
0.50573	-0.79262
0.12320	-0.02739
-0.61635	0.91640
-0.31033	0.86539
0.35272	1.17148
0.02119	1.01843
0.32721	0.30422
0.27621	-0.25695
0.73524	-0.23145
0.81175	0.20219
1.01576	-0.20594
-0.33583	-0.15492
-1.30489	0.15117
-1.94243	0.15117
-0.15732	0.30422
0.50573	0.78886
0.93925	0.04914
1.42379	-0.15492
1.34728	-1.02219
0.96476	0.55929
0.50573	-0.07840
-0.36133	-1.12422
-0.31033	0.45726
-0.23382	1.57960
-0.15732	0.61031
-0.36133	0.35523
-0.08081	0.12566
0.19971	-0.66508
0.35272	-0.63957
0.48022	0.07465
0.19971	-1.71090
-0.18282	-0.51203
-0.28482	1.01843
0.09770	1.12046
0.50573	1.17148
0.22521	1.32453
0.12320	0.04914
0.32721	-0.18043
0.32721	-0.30797
0.22521	-0.35899
0.22521	-0.66508
-0.36133	-0.41000
0.32721	0.58480
0.53123	0.96742
0.45472	0.40625
-0.05531	1.35003
-0.28482	0.50828
-0.08081	-0.89465
0.25071	-0.25695
0.27621	0.30422
0.30171	-0.69059
-0.15732	-0.41000
0.12320	0.45726
0.55673	0.71234
-0.28482	-0.25695
-0.41233	1.14597
0.27621	0.48277
0.32721	-0.05289
0.55673	-0.30797
0.09770	-0.30797
0.50573	0.25320
0.40372	0.35523
-0.18282	1.17148
-0.25932	0.02363
-0.36133	-0.56305
-0.08081	0.63582
0.04670	0.48277
0.30171	-0.58856
0.27621	-0.51203
0.42922	0.17668
0.50573	0.38074
0.42922	0.45726
0.27621	1.09496
-0.18282	1.14597
-0.05531	0.17668
-0.08081	0.30422
-0.28482	-0.05289
0.27621	-0.63957
0.12320	-0.79262
0.14870	-0.61406
0.32721	-0.10391
0.12320	-0.10391
-0.05531	0.76336
0.35272	1.06945
0.32721	0.43176
0.04670	1.09496
0.53123	0.10015
0.30171	-1.04770
0.53123	-1.14973
0.91375	0.63582
0.42922	-0.51203
-0.13181	0.96742
-0.74385	0.43176
-1.10088	-0.76711
-0.36133	1.68163
-0.00431	1.27351
0.22521	1.12046
0.53123	-0.76711
0.70974	-0.97117
0.58223	-0.05289
0.50573	-0.02739
0.19971	-0.66508
-0.28482	0.07465
-0.33583	-0.02739
-0.00431	0.25320
-0.00431	0.61031
0.12320	0.99292
0.53123	-0.05289
0.60773	0.04914
0.17421	0.10015
0.68424	-0.71609
0.63323	0.48277
0.35272	0.96742
-0.18282	0.66132
-0.61635	0.32972
-1.10088	1.60511
-1.10088	0.10015
0.30171	-1.68539
0.65874	-1.12422
1.09226	0.45726
1.47479	-0.00188
0.83725	0.15117
0.19971	0.86539
-0.10631	1.57960
-0.02981	-0.81812
-0.20832	0.22769
-0.31033	0.15117
0.04670	0.48277
0.19971	-0.53754
0.25071	0.38074
-0.31033	-0.28246
-0.15732	-0.35899
-0.02981	0.68683
-0.02981	0.76336
0.12320	0.20219
-0.02981	0.73785
0.02119	-0.99668
0.37822	-1.94047
0.63323	-0.69059
0.63323	0.45726
0.55673	0.35523
0.42922	1.35003
0.12320	1.91120
0.07220	0.73785
-0.66735	0.35523
-0.61635	0.48277
0.22521	-0.15492
0.68424	-0.38449
0.58223	-0.35899
-0.89686	-0.46102
-0.31033	-1.27726
0.30171	0.12566
0.88825	1.50308
1.04126	1.09496
0.53123	-0.63957
-0.13181	0.50828
-0.28482	0.30422
0.50573	-0.66508
0.32721	-0.23145
0.27621	0.22769
0.17421	0.48277
-0.00431	1.14597
-0.05531	0.81437
-0.38683	0.27871
-0.25932	-0.92016
-0.23382	0.76336
0.04670	1.04394
0.22521	0.22769
0.45472	-1.17523
0.50573	-1.83844
0.40372	-1.35379
0.14870	0.38074
0.25071	1.09496
0.14870	0.94191
0.12320	0.68683
-0.08081	1.27351
-0.25932	0.94191
-0.13181	-0.15492
0.37822	-0.99668
0.37822	-0.15492
0.68424	-0.41000
0.50573	-0.20594
-0.69285	0.30422
-0.38683	0.78886
0.45472	1.09496
0.37822	1.22250
0.45472	-0.18043
0.07220	-0.66508
0.42922	-0.38449
0.25071	-0.10391
0.22521	-0.41000
0.27621	0.02363
0.14870	1.09496
-0.20832	-0.30797
-0.13181	0.50828
-0.13181	2.24281
-0.31033	1.09496
0.25071	-1.30277
0.25071	-1.12422
0.12320	-1.02219
0.25071	-1.02219
0.40372	1.45206
0.27621	1.45206
0.27621	-0.33348
0.42922	-0.15492
0.09770	0.30422
-0.18282	0.22769
0.02119	0.12566
0.68424	0.30422
0.25071	-0.56305
-0.00431	-0.92016
0.07220	1.12046
0.37822	1.57960
-0.41233	1.12046
-0.31033	0.25320
0.35272	0.35523
0.17421	0.55929
0.42922	-0.51203
0.45472	-1.32828
0.42922	-1.35379
0.27621	-0.79262
-0.48884	0.86539
-0.33583	1.17148
0.14870	0.91640
0.12320	0.61031
0.14870	0.73785
0.30171	0.58480
0.48022	0.38074
0.37822	-0.18043
0.50573	-1.22625
0.22521	-0.86914
-0.10631	0.38074
-0.20832	-0.30797
-0.33583	1.35003
-0.38683	1.22250
-0.28482	1.40105
0.17421	0.15117
0.50573	-0.76711
0.55673	-0.99668
0.40372	-0.81812
0.30171	-0.99668
0.09770	-0.02739
0.22521	0.55929
0.27621	0.96742
0.07220	1.37554
0.19971	2.11527
-0.28482	0.17668
0.07220	-0.92016
0.32721	-0.92016
-0.66735	-0.00188
0.63323	-0.18043
0.45472	0.38074
-0.18282	1.06945
-0.13181	0.71234
-0.20832	0.66132
0.70974	0.63582
1.29628	-0.30797
0.76074	-1.27726
-0.10631	-0.66508
-0.61635	-0.33348
0.02119	-0.46102
0.27621	0.71234
0.12320	1.45206
-0.08081	0.83988
0.02119	0.04914
0.04670	0.40625
0.02119	1.63062
-0.05531	-0.79262
0.30171	-1.63437
0.27621	-1.43031
0.25071	-0.46102
0.27621	1.24800
0.02119	2.47238
0.32721	1.37554
0.17421	-0.28246
0.07220	-0.53754
0.12320	-0.12942
0.32721	-0.48652
0.60773	-0.25695
0.02119	-0.66508
0.32721	-0.18043
0.02119	0.55929
-0.38683	0.38074
-0.02981	0.96742
0.27621	0.91640
0.17421	1.17148
-0.20832	0.48277
0.53123	-0.41000
0.19971	-0.63957
-0.18282	-0.25695
0.14870	-0.66508
0.65874	0.02363
0.83725	0.58480
0.22521	0.89089
-0.02981	-0.07840
0.12320	0.30422
-0.05531	0.27871
-0.18282	-1.20074
0.40372	-0.58856
0.40372	0.76336
0.40372	1.47757
0.14870	-0.00188
-0.38683	-0.79262
-0.53984	1.60511
-0.10631	0.15117
-0.25932	0.38074
-0.20832	0.86539
0.25071	-0.46102
0.50573	-1.53234
0.63323	-0.71609
0.91375	-0.35899
0.53123	0.25320
-0.48884	1.06945
-0.84586	1.14597
-0.02981	-0.05289
0.14870	0.04914
0.63323	0.63582
0.65874	-0.10391
0.25071	0.48277
0.53123	-0.25695
-0.18282	-1.27726
-0.20832	0.32972
0.30171	0.78886
0.35272	1.35003
-0.20832	-0.25695
-0.23382	0.61031
0.22521	1.52859
0.25071	0.40625
0.37822	-1.63437
0.22521	-0.69059
0.63323	-0.66508
0.42922	-0.61406
-0.18282	-0.56305
-0.46334	1.50308
-0.61635	0.17668
-0.28482	1.63062
0.63323	0.15117
0.50573	0.17668
0.53123	0.66132
0.32721	-1.17523
0.42922	-2.06800
0.42922	0.53379
-0.10631	1.42656
-0.25932	1.12046
-0.28482	-0.56305
-0.48884	0.99292
-0.53984	-0.23145
0.53123	-0.84363
0.73524	-0.33348
0.73524	0.50828
0.93925	-0.07840
0.22521	-0.48652
-0.05531	0.73785
-0.05531	1.35003
-0.20832	0.89089
-0.82036	0.73785
0.27621	0.27871
0.37822	-0.30797
0.50573	-0.92016
0.58223	-1.17523
0.32721	-0.86914
-1.12638	0.04914
0.22521	0.71234
0.60773	0.91640
0.25071	0.89089
0.14870	1.45206
0.02119	-0.74160
0.58223	-0.76711
0.65874	0.43176
0.30171	0.10015
0.42922	0.30422
-0.41233	-0.15492
-0.66735	0.48277
-0.46334	0.02363
-0.28482	1.17148
0.22521	0.99292
0.35272	-0.51203
0.55673	-1.63437
0.68424	-0.33348
0.30171	1.04394
0.65874	0.15117
0.42922	-0.28246
0.25071	0.02363
-0.33583	0.40625
-0.36133	0.25320
-0.59084	1.75816
-0.15732	1.04394
0.63323	-0.89465
0.63323	-1.14973
0.53123	-0.10391
0.60773	-0.10391
0.50573	0.66132
-0.28482	1.01843
-0.20832	1.12046
-0.13181	0.99292
-0.74385	0.55929
-0.38683	-0.38449
-0.10631	-0.56305
-0.08081	-0.51203
0.99026	-0.23145
1.16877	-0.79262
0.55673	-0.18043
0.17421	0.53379
-0.00431	0.10015
0.30171	0.86539
-0.00431	1.04394
-0.15732	0.22769
0.12320	-0.43551
0.14870	0.58480
0.09770	-0.05289
-0.02981	-1.25176
0.35272	-0.84363
0.02119	0.66132
-0.10631	1.78367
-0.00431	0.83988
-0.08081	1.01843
-0.10631	0.10015
0.53123	-0.48652
0.63323	-0.92016
0.35272	-0.28246
0.48022	-0.66508
-0.08081	0.71234
-0.15732	1.19699
0.14870	0.45726
0.12320	-0.28246
0.12320	0.50828
-0.05531	0.15117
0.32721	0.10015
-0.33583	-0.51203
-0.94787	-0.35899
-0.36133	-0.35899
0.91375	0.61031
0.93925	1.14597
1.14327	1.01843
0.91375	0.32972
0.02119	-0.33348
-0.99887	-0.43551
-1.48340	-0.46102
-0.36133	-0.38449
1.11776	0.89089
1.34728	-0.71609
0.81175	0.35523
0.27621	1.32453
-0.28482	0.78886
-0.66735	-0.10391
-0.53984	0.83988
-0.38683	0.20219
0.42922	-1.58336
0.76074	-1.50683
0.48022	-0.15492
0.37822	-0.51203
0.37822	-0.28246
-0.08081	0.76336
-0.46334	2.06425
-0.18282	0.53379
-0.02981	1.12046
0.32721	0.91640
0.27621	0.15117
-0.05531	-0.76711
0.63323	-0.79262
0.76074	-0.58856
0.37822	0.30422
0.12320	0.78886
-0.28482	0.71234
-0.15732	0.17668
-0.23382	0.48277
0.07220	0.02363
0.40372	-0.20594
-0.28482	-0.46102
-0.53984	-0.25695
1.09226	-0.58856
1.19427	0.55929
0.73524	1.45206
0.40372	0.35523
-0.02981	-1.53234
-0.38683	2.11527
-0.38683	0.71234
0.04670	-2.09351
0.37822	0.30422
0.30171	1.24800
-0.15732	-1.04770
-0.79486	0.35523
-0.51434	0.50828
0.70974	0.17668
0.22521	0.66132
0.17421	0.86539
0.32721	-0.58856
0.68424	-1.35379
0.88825	-0.10391
0.78624	0.76336
0.58223	0.73785
-0.15732	0.02363
-0.53984	0.04914
-0.97337	0.63582
-0.38683	0.86539
0.19971	0.48277
0.17421	-0.25695
-0.38683	-0.35899
-0.61635	-0.30797
0.35272	-0.25695
1.62780	-0.58856
1.34728	0.38074
0.63323	0.71234
-0.20832	0.66132
0.04670	0.58480
-0.31033	0.96742
-0.02981	-0.07840
-0.02981	-1.07320
0.45472	-0.81812
0.40372	1.01843
0.30171	0.83988
-0.87136	-1.14973
-0.87136	0.02363
0.35272	0.15117
0.32721	1.27351
-0.02981	1.98773
0.19971	-0.43551
0.63323	-1.14973
0.63323	-1.25176
0.42922	-0.35899
0.53123	-0.58856
0.02119	0.73785
-0.13181	1.75816
-0.10631	1.09496
-0.10631	0.32972
-0.28482	1.22250
-0.18282	-0.07840
0.50573	-1.35379
0.73524	-0.79262
0.70974	-0.61406
0.12320	-0.28246
-0.36133	0.15117
-0.79486	0.30422
-0.48884	0.43176
0.88825	1.83468
0.17421	1.98773
0.42922	-0.30797
0.53123	-1.12422
-0.13181	-1.32828
-0.10631	-0.30797
0.78624	0.40625
0.60773	0.68683
-0.02981	0.89089
-0.00431	0.73785
0.09770	-0.25695
-0.00431	1.52859
0.07220	0.07465
0.32721	-0.89465
0.40372	-0.41000
0.30171	-0.25695
0.37822	-0.61406
0.04670	0.25320
-0.48884	0.15117
-0.61635	0.61031
-0.51434	0.02363
-0.08081	0.91640
0.35272	0.38074
0.60773	-0.86914
0.81175	-0.05289
0.50573	-0.07840
0.50573	0.43176
0.32721	0.48277
0.25071	0.61031
-0.13181	0.63582
-0.38683	0.22769
-0.15732	0.94191
-0.18282	0.22769
0.32721	-0.99668
0.35272	-1.07320
-0.46334	0.27871
0.17421	-0.15492
1.21977	0.38074
0.42922	0.43176
0.14870	0.63582
0.27621	0.25320
-0.00431	1.27351
-0.08081	0.38074
0.37822	-0.23145
0.07220	-0.63957
-0.08081	-0.76711
0.22521	-1.76191
0.09770	-0.41000
0.07220	0.83988
-0.20832	0.43176
-0.15732	2.19179
0.12320	3.41616
0.02119	-0.66508
0.32721	-1.91496
0.55673	-0.41000
0.70974	0.10015
0.58223	-0.76711
0.53123	-0.48652
-0.02981	0.43176
-0.31033	0.58480
-0.48884	0.32972
-0.33583	0.78886
0.27621	0.73785
0.40372	-0.46102
0.40372	-0.84363
0.12320	-0.05289
-0.25932	-0.00188
0.60773	0.61031
0.42922	1.60511
0.09770	0.30422
-0.13181	-0.66508
-0.15732	0.63582
-0.69285	0.55929
0.14870	-0.41000
0.70974	-0.69059
0.48022	-0.35899
0.12320	-0.94566
0.09770	0.66132
0.55673	1.17148
0.25071	0.81437
-0.05531	-0.43551
-0.20832	0.35523
0.19971	1.93671
0.35272	0.30422
0.32721	-1.71090
-0.00431	-0.94566
0.42922	-0.63957
0.09770	-0.12942
-0.05531	0.50828
-0.20832	0.86539
-0.00431	1.65613
-0.20832	0.61031
-0.02981	0.12566
-0.00431	0.02363
0.58223	-0.20594
0.65874	-0.05289
0.76074	-0.66508
0.40372	-0.00188
0.22521	0.07465
-0.02981	0.89089
-0.20832	0.48277
-0.61635	0.78886
-0.61635	0.12566
0.45472	-0.33348
0.25071	-0.56305
0.55673	-0.20594
0.73524	-0.43551
1.21977	-0.05289
0.53123	1.04394
-0.28482	0.76336
-0.59084	0.07465
-1.20288	1.17148
0.19971	1.47757
0.65874	-0.56305
0.65874	-0.86914
0.58223	-0.76711
0.27621	-0.20594
0.12320	0.35523
-0.10631	0.30422
-0.18282	0.12566
-0.28482	-0.10391
-0.23382	1.45206
-0.08081	1.40105
0.04670	0.27871
0.53123	-1.17523
0.65874	-1.53234
0.63323	-0.38449
0.22521	0.55929
0.17421	1.22250
0.19971	0.78886
-0.10631	0.86539
-0.53984	0.07465
-0.43783	-0.30797
0.45472	-0.30797
0.60773	-0.41000
0.37822	-0.15492
0.02119	-0.25695
-0.28482	0.38074
0.12320	0.55929
0.12320	0.86539
0.14870	0.50828
-0.48884	0.04914
0.40372	0.22769
0.96476	-0.46102
1.11776	-0.43551
-0.00431	0.38074
-0.18282	-0.02739
-0.00431	0.15117
0.37822	0.53379
-0.33583	-0.15492
-0.28482	0.66132
-0.31033	0.66132
-0.20832	0.66132
0.09770	-0.66508
0.53123	-0.33348
0.63323	0.83988
0.50573	-0.51203
0.07220	-0.84363
-0.00431	-0.63957
-0.15732	0.91640
-0.10631	1.98773
0.09770	0.66132
-0.08081	-0.46102
0.25071	-0.51203
0.53123	0.17668
0.37822	0.61031
1.19427	-0.89465
0.53123	0.32972
0.09770	1.27351
-0.36133	1.01843
-0.28482	-0.71609
-0.53984	-0.00188
0.35272	0.66132
0.02119	-0.15492
0.50573	-1.04770
0.73524	0.48277
0.17421	0.10015
0.07220	0.63582
-0.46334	0.50828
-0.82036	0.22769
-0.08081	0.20219
0.58223	0.76336
0.73524	0.50828
0.81175	-0.63957
0.50573	-0.86914
0.42922	-0.41000
0.50573	-0.61406
0.07220	0.58480
-0.31033	1.12046
-0.59084	-0.05289
-0.79486	0.04914
-0.02981	1.65613
0.35272	0.10015
0.42922	-0.23145
0.19971	-0.46102
0.35272	0.02363
0.78624	-0.74160
0.55673	-0.30797
0.04670	1.17148
-0.05531	1.22250
-0.18282	0.32972
-0.66735	0.96742
-0.43783	0.17668
0.50573	-1.22625
0.63323	-1.50683
0.53123	-0.33348
0.60773	-0.30797
0.25071	0.58480
0.17421	0.91640
-0.13181	1.12046
-0.38683	0.78886
-0.31033	1.14597
0.14870	0.12566
0.32721	-0.15492
0.35272	-0.15492
0.32721	-1.12422
0.76074	-0.99668
0.53123	-0.20594
-0.15732	0.96742
-0.15732	1.24800
0.09770	0.96742
-0.13181	0.83988
-0.05531	-0.07840
0.04670	-0.58856
0.30171	0.15117
0.07220	-0.76711
0.42922	-1.30277
0.91375	0.58480
0.25071	0.32972
-0.28482	0.66132
-0.48884	0.20219
-0.69285	0.91640
0.22521	1.65613
0.58223	-0.66508
0.65874	-1.35379
0.58223	-0.10391
0.78624	0.17668
0.14870	0.30422
-0.20832	0.04914
-0.43783	0.32972
-0.46334	0.58480
-0.20832	0.89089
0.09770	0.35523
0.25071	-0.25695
0.70974	-0.38449
1.14327	0.15117
0.60773	-0.48652
-0.13181	0.27871
-1.55991	0.20219
-1.07538	0.71234
0.68424	0.53379
0.42922	0.61031
0.78624	0.20219
1.11776	-0.41000
1.11776	-0.41000
0.73524	-0.18043
-0.08081	-0.51203
-0.56534	-0.20594
-1.04987	0.25320
-0.92237	0.40625
0.30171	0.63582
0.32721	1.96222
0.32721	1.35003
0.53123	-0.69059
0.53123	-1.94047
0.58223	0.20219
0.19971	-0.15492
0.04670	-0.46102
-0.13181	0.43176
-0.15732	0.78886
-0.20832	0.45726
-0.25932	1.29902
0.14870	1.24800
0.32721	-1.27726
0.22521	-1.88945
-0.28482	-0.58856
-0.18282	-0.41000
0.78624	1.04394
0.73524	1.12046
0.48022	1.19699
0.27621	0.12566
-0.08081	0.10015
-0.41233	0.20219
-0.15732	-0.25695
0.88825	-0.46102
0.45472	0.10015
0.02119	-0.12942
-0.31033	0.25320
-0.92237	0.55929
-0.02981	0.68683
0.60773	0.66132
0.42922	0.40625
0.45472	-0.23145
0.50573	-0.48652
0.50573	-0.61406
0.02119	-0.18043
0.19971	-0.33348
0.12320	0.68683
-0.00431	1.01843
-0.10631	0.10015
-0.13181	0.91640
-0.38683	1.42656
-0.20832	-0.00188
0.30171	-0.86914
0.60773	-1.27726
0.42922	0.40625
0.17421	-0.05289
0.17421	-0.38449
0.42922	-0.10391
0.32721	0.58480
-0.02981	0.94191
-0.51434	1.24800
0.09770	0.55929
0.65874	-0.15492
0.73524	-0.35899
0.40372	-0.66508
-0.56534	-0.35899
-0.97337	0.40625
0.48022	0.55929
0.55673	0.55929
0.70974	0.48277
-0.02981	0.73785
0.09770	0.15117
0.12320	-0.35899
0.30171	-0.43551
0.19971	-0.43551
0.37822	-0.61406
0.19971	0.50828
-0.05531	0.96742
-0.02981	0.48277
-0.10631	0.30422
-0.20832	0.25320
-0.05531	0.55929
0.14870	0.96742
0.07220	-0.18043
0.35272	-2.04250
0.63323	-0.84363
0.60773	0.38074
0.22521	1.29902
-0.05531	0.91640
-0.13181	1.37554
-0.48884	-0.35899
0.02119	-1.71090
0.30171	-0.86914
0.42922	-0.07840
0.63323	0.61031
0.70974	0.15117
0.30171	0.58480
-0.20832	0.83988
-0.28482	0.40625
-0.15732	0.32972
-0.23382	0.71234
-0.28482	-0.00188
0.12320	-0.18043
0.48022	-0.48652
0.50573	-0.46102
0.30171	-0.61406
0.12320	0.25320
0.55673	0.73785
0.40372	0.63582
-0.08081	0.76336
-0.33583	1.40105
-0.48884	0.04914
0.53123	-0.35899
0.55673	-0.76711
0.32721	-0.12942
-0.08081	-0.89465
0.07220	-0.41000
0.14870	0.94191
0.02119	0.76336
-0.10631	-0.20594
-0.48884	0.40625
-0.38683	0.45726
0.07220	-1.02219
0.53123	0.10015
0.63323	0.43176
0.81175	-0.61406
0.45472	-0.41000
0.04670	0.86539
-0.13181	1.50308
-0.28482	0.63582
-0.05531	0.50828
0.02119	0.10015
0.17421	-0.71609
0.58223	-0.48652
0.45472	0.22769
0.35272	-0.43551
0.22521	0.04914
-0.00431	0.61031
-0.46334	0.61031
-0.25932	0.45726
-0.28482	0.71234
0.48022	0.25320
0.17421	-0.18043
0.91375	-0.48652
0.86275	-0.58856
0.91375	-0.46102
0.22521	0.15117
-0.66735	1.12046
-0.64185	0.76336
-0.59084	0.02363
-0.53984	0.38074
-0.28482	-0.43551
0.30171	-0.58856
1.44929	-0.86914
1.11776	-0.07840
0.76074	1.40105
0.58223	1.78367
-0.00431	-0.18043
-0.20832	-0.76711
-0.08081	1.27351
-0.28482	1.80917
-0.23382	-0.07840
-0.05531	-1.20074
0.14870	-2.19554
0.25071	-0.28246
0.32721	-0.15492
0.19971	-0.20594
-0.76936	0.50828
-0.33583	1.68163
0.27621	1.42656
0.30171	1.42656
0.37822	-0.23145
0.68424	-1.02219
0.83725	-0.38449
0.60773	-0.18043
0.17421	-0.66508
-0.23382	0.12566
-0.18282	0.99292
-0.10631	0.76336
-0.00431	0.50828
0.19971	0.94191
0.42922	0.20219
0.27621	-0.51203
-0.20832	-0.63957
-0.84586	-0.00188
0.73524	-0.81812
0.60773	-0.33348
0.02119	0.89089
0.25071	0.91640
0.07220	0.83988
-0.28482	0.81437
0.45472	0.43176
0.55673	0.48277
0.60773	-0.92016
0.22521	-1.88945
0.17421	-0.05289
-0.41233	1.04394
-0.20832	0.76336
-0.05531	0.63582
-0.38683	0.53379
-0.51434	0.38074
0.40372	1.06945
0.63323	-0.71609
0.53123	-1.99148
0.68424	-1.02219
0.86275	0.71234
0.53123	1.06945
-0.18282	0.71234
-0.28482	1.09496
-0.20832	0.45726
-0.23382	-0.10391
-0.08081	0.12566
0.12320	-0.35899
0.60773	-0.25695
0.63323	-0.15492
0.65874	-0.61406
0.30171	-0.23145
-0.31033	0.38074
-0.79486	1.12046
-0.59084	1.12046
0.45472	1.42656
-0.13181	0.43176
0.30171	-0.71609
1.16877	-0.51203
0.63323	-0.38449
0.40372	-0.43551
0.14870	0.32972
0.30171	0.32972
-0.00431	-0.58856
-0.25932	0.58480
-0.69285	0.76336
-0.36133	0.83988
0.60773	0.78886
0.83725	-1.73640
0.53123	-0.28246
0.48022	0.15117
0.35272	0.55929
-0.08081	1.24800
-0.23382	0.63582
-0.25932	-0.46102
-0.28482	-0.74160
-0.23382	-0.58856
0.04670	-0.18043
0.17421	0.61031
0.42922	0.81437
0.86275	0.15117
0.73524	-0.28246
0.37822	-0.15492
0.02119	1.14597
-0.08081	0.43176
-0.48884	0.66132
-0.28482	0.32972
0.22521	-0.41000
0.50573	-0.41000
0.53123	-0.46102
0.50573	-0.35899
-0.36133	0.12566
-0.79486	0.50828
0.12320	0.99292
0.27621	1.01843
0.50573	0.83988
0.35272	-0.10391
0.37822	-1.17523
0.02119	-0.33348
-0.15732	-0.25695
0.42922	-0.48652
0.45472	0.96742
0.25071	0.53379
-0.00431	-1.09871
-0.23382	0.83988
-0.28482	0.55929
-0.05531	0.32972
0.12320	0.94191
0.32721	0.40625
0.40372	-0.74160
0.35272	-0.79262
0.22521	-0.23145
0.02119	-0.00188
0.09770	0.66132
-0.25932	0.78886
-0.46334	0.89089
-0.00431	0.32972
0.35272	-0.07840
0.91375	-0.07840
1.06676	-0.18043
0.63323	-0.89465
0.12320	0.04914
-0.18282	0.78886
-0.46334	0.63582
-0.59084	0.35523
-0.31033	0.76336
0.40372	0.07465
0.58223	-0.33348
0.37822	-0.46102
0.02119	-0.07840
0.88825	-0.28246
0.65874	0.04914
0.17421	0.83988
-0.18282	1.04394
-0.82036	-0.63957
-0.64185	0.66132
0.04670	-0.25695
0.09770	0.32972
0.30171	0.66132
0.73524	-0.38449
0.76074	-0.58856
0.68424	-1.17523
0.19971	0.83988
-0.13181	2.19179
-0.38683	1.47757
-0.36133	0.27871
-0.23382	-0.99668
0.12320	-0.89465
0.45472	-0.58856
0.42922	-0.84363
0.50573	-1.07320
0.30171	0.78886
0.30171	1.04394
-0.08081	0.63582
-0.20832	0.76336
-0.36133	1.37554
-0.08081	0.38074
0.37822	-0.05289
0.93925	-0.25695
0.55673	0.35523
-0.02981	-0.61406
-0.71835	-0.46102
-0.38683	0.45726
0.02119	0.48277
0.83725	0.45726
0.60773	0.55929
0.32721	0.58480
-0.25932	-0.38449
0.65874	-1.17523
0.12320	-0.33348
-0.23382	0.04914
0.30171	0.71234
0.53123	1.35003
0.48022	-0.12942
0.22521	-0.84363
-0.31033	0.71234
-0.31033	0.30422
-0.00431	0.15117
0.37822	0.35523
0.35272	-0.07840
0.42922	-1.88945
0.12320	-0.35899
-0.38683	1.42656
-0.15732	2.90601
0.12320	1.35003
0.04670	-0.58856
0.12320	-1.07320
0.37822	-1.17523
0.58223	-1.12422
0.32721	0.53379
0.40372	-0.28246
0.25071	0.43176
-0.00431	0.78886
-0.05531	0.81437
0.09770	0.83988
-0.25932	0.86539
-0.38683	0.20219
-0.18282	-0.74160
0.27621	-0.71609
0.53123	-0.20594
0.68424	-0.43551
0.73524	0.02363
0.60773	0.40625
-0.10631	0.83988
0.02119	0.89089
-0.59084	0.50828
-1.10088	0.07465
0.40372	-0.25695
0.50573	-0.41000
0.48022	-0.43551
1.06676	-0.05289
0.55673	0.71234
-0.02981	0.76336
-0.28482	0.45726
-0.13181	-0.15492
-0.31033	0.48277
-0.02981	0.61031
0.25071	-0.38449
0.53123	-0.12942
0.48022	-0.05289
0.35272	-1.78742
-0.00431	-0.71609
-0.13181	2.62542
-0.15732	2.42136
-0.10631	0.32972
-0.13181	0.04914
0.14870	-0.89465
0.48022	-1.04770
0.78624	-1.07320
0.70974	-0.76711
0.42922	-0.56305
-0.36133	0.45726
-0.71835	1.12046
0.12320	1.06945
0.53123	0.99292
-0.18282	0.86539
-0.02981	0.45726
-0.15732	-0.33348
0.09770	-0.92016
0.83725	-0.12942
0.93925	-0.51203
0.09770	0.76336
-0.31033	0.53379
0.65874	-0.30797
0.35272	0.04914
-0.33583	1.14597
-0.33583	0.76336
0.32721	-0.00188
0.19971	-0.23145
0.12320	-0.97117
0.17421	-1.02219
0.22521	0.68683
-0.00431	0.68683
-0.08081	0.58480
-0.10631	1.14597
-0.25932	0.02363
0.12320	-1.17523
0.19971	0.38074
0.42922	-0.20594
0.55673	-0.12942
0.68424	-0.30797
0.32721	-0.02739
-0.23382	0.81437
-0.18282	0.68683
-0.46334	1.17148
-0.28482	1.06945
0.09770	-0.07840
0.91375	-0.92016
0.68424	-0.53754
0.73524	-0.25695
0.68424	-0.35899
0.12320	0.30422
-0.31033	0.94191
-1.30489	0.78886
-0.20832	-0.18043
0.35272	0.40625
0.50573	1.57960
0.70974	0.81437
0.50573	-1.27726
0.35272	-1.48133
0.42922	-0.97117
0.04670	0.32972
-0.23382	0.78886
-0.25932	1.65613
-0.36133	0.50828
-0.28482	2.37034
-0.28482	0.58480
0.17421	-1.78742
0.73524	-0.99668
0.60773	-0.92016
0.73524	-0.79262
0.58223	0.30422
-0.00431	0.22769
-0.36133	-0.07840
-0.10631	0.86539
-0.18282	1.68163
0.22521	0.66132
0.55673	-0.28246
0.70974	-0.18043
0.40372	-0.18043
-0.18282	-0.56305
-0.64185	0.25320
-0.87136	0.83988
0.42922	0.76336
1.16877	0.55929
0.02119	0.22769
-0.20832	-0.05289
0.07220	-0.41000
-0.53984	-0.63957
1.14327	-0.79262
1.11776	-0.15492
0.50573	0.58480
-0.18282	0.68683
-0.66735	0.78886
-0.41233	0.66132
-0.13181	0.68683
0.07220	0.89089
0.17421	-0.30797
0.35272	-1.35379
0.40372	-1.73640
0.40372	0.20219
0.12320	0.58480
0.02119	0.83988
0.04670	0.73785
-0.15732	0.83988
-0.13181	1.01843
-0.08081	-0.58856
0.02119	-0.76711
0.48022	0.10015
0.50573	0.27871
0.68424	-0.41000
0.45472	-0.23145
0.07220	0.35523
0.02119	0.61031
-0.10631	0.35523
-0.31033	0.71234
-0.13181	0.27871
0.19971	-0.25695
0.53123	-0.71609
0.22521	-0.10391
-0.05531	-0.56305
-0.08081	0.17668
0.30171	0.83988
0.32721	0.94191
-0.00431	0.61031
-0.41233	0.76336
-0.00431	0.12566
0.63323	-0.33348
0.83725	-0.43551
0.27621	-0.86914
0.53123	-0.86914
-0.15732	0.10015
-0.05531	1.60511
-0.43783	0.83988
-0.10631	-0.12942
-0.08081	1.24800
-0.10631	-0.92016
0.27621	-0.25695
0.45472	0.45726
0.17421	0.07465
0.30171	-0.41000
0.22521	-0.41000
-0.02981	-0.10391
-0.10631	0.63582
-0.08081	0.55929
-0.10631	0.89089
0.17421	0.43176
0.55673	0.32972
0.45472	-0.30797
0.37822	-0.46102
0.35272	-0.33348
0.12320	0.43176
-0.02981	0.61031
0.17421	0.53379
-0.08081	0.40625
-0.08081	0.55929
0.09770	0.10015
-0.69285	-0.43551
-0.46334	-0.86914
0.25071	-0.81812
0.53123	-0.28246
0.17421	0.50828
0.53123	0.86539
0.63323	1.06945
0.45472	0.86539
-0.10631	1.50308
-0.00431	-0.48652
0.37822	-2.11902
0.32721	-0.30797
-0.00431	0.27871
0.07220	0.17668
-0.48884	0.02363
-0.41233	2.06425
-0.25932	1.19699
-0.13181	0.02363
0.17421	0.40625
0.27621	0.76336
0.42922	-1.25176
0.70974	-1.43031
0.63323	-1.09871
0.45472	-0.71609
0.22521	-0.15492
0.12320	0.66132
-0.15732	1.06945
-0.28482	1.55410
-0.28482	1.17148
-0.08081	0.48277
0.42922	0.07465
0.37822	-0.33348
0.27621	-0.48652
0.50573	-1.17523
0.07220	-0.71609
-0.31033	0.94191
-0.00431	0.94191
-0.28482	0.94191
-0.10631	1.06945
0.17421	0.22769
0.07220	-0.63957
0.40372	-1.04770
0.42922	-0.38449
0.99026	-0.58856
1.01576	0.43176
0.25071	0.45726
-0.48884	-0.10391
-0.69285	0.68683
-0.48884	1.24800
0.04670	0.68683
0.30171	0.07465
0.48022	-0.46102
0.37822	-0.25695
0.50573	-1.94047
0.19971	0.12566
-0.28482	1.68163
-0.69285	0.99292
-0.71835	0.63582
0.32721	0.22769
0.27621	-0.05289
0.65874	-0.63957
0.78624	-0.51203
0.65874	-0.74160
0.65874	-0.63957
0.09770	0.66132
-0.25932	1.04394
-0.23382	0.94191
-0.08081	0.76336
-0.18282	0.45726
0.12320	0.43176
0.42922	-0.15492
0.35272	-0.28246
0.37822	-0.25695
0.02119	-0.33348
-0.61635	-0.18043
0.22521	-0.10391
0.27621	0.27871
0.12320	0.71234
-0.25932	1.01843
0.02119	0.48277
0.70974	0.10015
0.68424	-0.38449
0.42922	-0.58856
0.17421	-0.53754
-0.08081	0.50828
0.14870	-0.00188
-0.13181	0.94191
-0.18282	1.96222
-0.33583	0.63582
-0.10631	-0.84363
0.22521	-1.02219
0.68424	-0.99668
0.40372	-0.05289
0.35272	0.22769
-0.10631	0.96742
-0.10631	1.12046
0.07220	0.58480
0.32721	-0.07840
0.30171	-0.48652
0.30171	0.66132
0.42922	0.81437
0.07220	-0.46102
-0.28482	-1.40480
-0.05531	-1.07320
0.02119	-0.00188
0.76074	0.53379
-0.23382	1.96222
0.30171	0.83988
-0.08081	0.66132
-0.64185	-0.02739
0.27621	-0.84363
0.45472	-0.20594
0.30171	-0.05289
0.40372	-0.20594
0.42922	0.25320
0.27621	0.55929
0.09770	0.55929
-0.33583	0.25320
-0.69285	0.35523
-0.23382	0.38074
0.50573	-0.25695
0.68424	-0.63957
0.07220	-0.51203
0.88825	-0.35899
0.76074	0.12566
-0.05531	1.17148
-0.59084	1.01843
-0.18282	0.43176
-0.33583	0.10015
-0.20832	0.15117
0.35272	-0.25695
0.60773	-0.20594
1.04126	-0.25695
0.93925	-0.43551
0.37822	-0.00188
-0.31033	1.78367
-0.53984	0.71234
-0.23382	-1.09871
-0.02981	1.78367
-0.38683	1.27351
0.42922	-0.25695
0.50573	-1.02219
0.53123	-1.02219
0.50573	-0.66508
0.27621	0.07465
0.22521	0.27871
-0.28482	0.30422
-0.36133	0.63582
-0.56534	1.04394
-0.94787	-0.10391
0.30171	-0.74160
0.83725	0.25320
0.76074	0.55929
0.86275	-0.05289
0.68424	0.20219
0.02119	0.68683
-0.10631	0.96742
-0.18282	0.10015
-0.43783	-0.23145
-0.15732	-0.20594
0.35272	-0.51203
0.45472	-0.05289
-0.28482	0.27871
0.45472	-0.02739
0.58223	0.02363
0.68424	0.81437
0.22521	0.58480
-0.28482	0.35523
-0.84586	0.86539
-0.46334	-0.20594
0.48022	-0.05289
0.48022	-0.63957
0.91375	-0.12942
0.96476	-0.79262
0.83725	-0.56305
0.32721	1.60511
-0.28482	0.30422
-0.82036	0.58480
-0.69285	1.80917
0.17421	0.02363
0.35272	-0.53754
0.70974	-0.69059
-0.25932	-0.86914
-0.43783	-1.58336
0.25071	0.86539
0.42922	0.81437
0.22521	0.40625
0.17421	0.43176
0.27621	1.22250
0.32721	0.73785
0.37822	-0.30797
0.40372	-0.46102
0.63323	0.07465
0.30171	-0.48652
-0.28482	-0.02739
-0.79486	0.63582
-0.28482	0.25320
0.37822	0.68683
0.19971	1.04394
-0.05531	0.38074
0.17421	-0.38449
0.50573	-0.61406
0.45472	-0.51203
0.78624	-1.07320
0.73524	-0.38449
-0.08081	0.89089
-0.74385	0.68683
-1.20288	0.83988
-0.74385	1.12046
0.35272	0.25320
0.60773	-0.33348
0.96476	-0.43551
0.83725	0.35523
0.76074	-1.07320
0.07220	0.20219
-0.13181	1.24800
-0.00431	0.89089
-0.18282	1.12046
-0.18282	0.04914
-0.15732	-2.01699
0.04670	-1.04770
0.42922	0.61031
0.19971	0.25320
0.32721	0.43176
0.27621	0.22769
0.07220	0.58480
-0.20832	0.89089
-0.02981	1.04394
0.02119	0.32972
0.19971	-0.74160
0.30171	-0.35899
0.35272	-0.30797
0.37822	0.10015
0.27621	-0.81812
0.07220	-0.28246
-0.13181	0.86539
0.73524	1.06945
0.40372	0.61031
-0.02981	1.09496
-0.33583	0.40625
-0.66735	-0.25695
-0.66735	-0.71609
0.02119	-0.35899
1.11776	-0.43551
1.34728	-0.51203
0.70974	0.32972
0.50573	1.55410
-0.08081	1.24800
-0.79486	0.32972
-1.35589	-0.33348
-0.36133	-0.81812
0.88825	-0.79262
0.86275	-0.89465
0.70974	0.17668
0.65874	0.25320
0.22521	1.86019
-0.05531	1.22250
-0.13181	0.63582
-0.36133	1.09496
-0.38683	0.20219
0.02119	-0.61406
0.37822	-1.88945
0.32721	-1.96597
0.19971	-0.43551
0.35272	0.45726
0.27621	1.24800
-0.02981	1.50308
-0.00431	1.27351
-0.23382	1.14597
0.02119	0.53379
0.07220	-0.86914
0.83725	-0.63957
0.73524	-0.15492
0.40372	-0.46102
0.07220	0.15117
-0.05531	0.83988
-0.00431	0.32972
0.07220	0.20219
-0.10631	0.61031
0.02119	0.30422
0.14870	-0.10391
0.32721	-0.30797
0.27621	-0.10391
0.40372	-0.74160
0.32721	-0.71609
0.09770	0.48277
-0.05531	1.19699
-0.10631	1.17148
-0.74385	1.06945
-0.69285	0.43176
0.40372	-0.63957
0.83725	-0.20594
0.88825	-0.07840
0.86275	-1.30277
0.32721	-0.74160
-0.20832	1.04394
0.25071	1.45206
-0.15732	0.43176
-0.33583	0.71234
-0.18282	-0.84363
0.12320	-0.20594
0.27621	-0.12942
0.63323	-0.53754
0.45472	-0.18043
0.09770	0.86539
0.09770	1.01843
0.12320	0.50828
-0.38683	-0.10391
-0.48884	0.94191
0.12320	0.45726
0.45472	-0.23145
0.58223	-0.53754
0.70974	0.15117
0.40372	-0.48652
0.12320	-0.25695
-0.08081	0.76336
-0.46334	0.86539
-0.10631	0.58480
-0.38683	0.55929
0.35272	0.27871
0.63323	-0.28246
0.73524	-0.71609
0.35272	-0.41000
-0.08081	-0.25695
0.07220	0.30422
-0.18282	0.58480
-0.48884	-0.46102
-0.56534	-0.66508
0.02119	1.29902
0.76074	2.03874
0.60773	1.17148
0.93925	-0.38449
0.63323	-1.60887
0.55673	-1.94047
-0.02981	-0.05289
-0.69285	1.37554
-0.36133	0.43176
-0.13181	0.73785
-0.31033	0.73785
-0.02981	0.20219
0.22521	-0.53754
0.48022	-0.79262
0.50573	0.07465
0.32721	-0.10391
0.42922	-0.74160
0.27621	0.68683
-0.08081	1.22250
-0.10631	1.06945
-0.25932	0.91640
-0.08081	0.30422
0.12320	0.12566
0.32721	-0.35899
0.32721	-1.22625
0.30171	-0.71609
0.58223	-0.18043
0.35272	0.35523
0.45472	0.83988
-0.00431	0.83988
-0.64185	0.76336
-0.41233	0.61031
0.32721	-0.18043
0.48022	-0.79262
0.78624	-0.10391
0.70974	-0.18043
0.37822	0.07465
0.07220	0.73785
-0.23382	-0.15492
-0.33583	0.35523
-0.61635	0.81437
-0.23382	0.86539
0.22521	0.25320
0.48022	-0.61406
0.40372	-0.51203
0.73524	-0.71609
0.40372	-0.35899
0.02119	0.48277
0.12320	0.10015
0.04670	0.66132
-0.38683	1.19699
-0.46334	0.22769
-0.00431	-0.61406
0.60773	-0.15492
0.73524	0.15117
0.76074	-0.05289
0.48022	0.17668
0.09770	0.76336
-0.18282	0.63582
-0.41233	0.61031
-0.84586	1.04394
0.04670	-0.18043
0.30171	-0.69059
0.50573	-0.61406
0.50573	-0.05289
0.32721	-0.86914
-0.18282	0.40625
-0.36133	0.76336
0.42922	0.27871
0.37822	0.66132
0.07220	1.22250
0.02119	0.43176
0.09770	-0.35899
0.27621	-0.69059
0.45472	-0.51203
0.35272	-0.86914
0.40372	-1.09871
0.07220	1.78367
-0.53984	1.86019
-0.20832	0.73785
-0.69285	1.01843
0.09770	-0.07840
0.55673	-0.58856
0.76074	-0.33348
0.48022	0.04914
0.65874	-0.35899
0.42922	-0.28246
0.09770	0.55929
-0.10631	0.76336
-0.18282	0.86539
-0.18282	0.73785
-0.10631	0.15117
0.17421	-0.35899
0.40372	-0.33348
0.25071	-0.18043
0.42922	-0.92016
0.14870	-0.79262
-0.53984	0.89089
-0.56534	1.14597
0.32721	0.91640
0.70974	0.71234
0.55673	0.43176
0.53123	0.10015
0.40372	-0.48652
0.42922	-0.46102
0.25071	-0.81812
-0.28482	0.48277
-0.38683	0.27871
-0.08081	0.07465
0.22521	1.27351
-0.05531	0.99292
0.07220	-0.25695
0.14870	-1.43031
0.32721	-0.53754
0.50573	-0.05289
0.42922	0.53379
0.37822	0.58480
0.04670	1.45206
-0.18282	-0.05289
-0.08081	0.43176
-0.02981	1.01843
-0.08081	0.48277
0.25071	-1.14973
0.73524	-0.51203
0.32721	-0.99668
0.42922	-0.99668
-0.28482	0.12566
-0.33583	0.86539
0.27621	0.91640
0.25071	0.91640
0.14870	1.01843
0.22521	0.53379
0.22521	0.32972
0.27621	-0.20594
0.02119	-0.61406
-0.00431	-0.71609
-0.51434	-0.61406
0.50573	0.32972
0.40372	0.81437
0.76074	0.71234
0.88825	1.01843
0.12320	0.32972
-0.36133	-0.46102
-0.15732	-0.53754
0.17421	-0.46102
0.53123	-0.07840
0.58223	0.10015
-0.20832	0.17668
-0.25932	0.71234
-0.25932	0.25320
-0.38683	0.76336
-0.08081	-0.15492
0.17421	0.66132
0.37822	-0.07840
0.37822	-0.23145
0.48022	-0.56305
0.42922	-0.43551
0.32721	-0.28246
0.02119	0.86539
-0.08081	1.17148
-0.18282	1.09496
0.04670	0.76336
0.42922	-0.20594
0.55673	-0.97117
0.32721	-0.66508
-0.10631	-0.33348
-0.28482	0.32972
-0.18282	0.86539
0.32721	0.71234
0.78624	0.96742
0.45472	1.47757
-0.08081	0.25320
-0.20832	-0.99668
0.48022	-0.92016
