0.30171	-0.48652
0.48022	-0.38449
0.48022	-0.07840
0.58223	-0.15492
0.35272	0.32972
-0.02981	0.61031
0.02119	0.55929
-0.51434	0.43176
-0.23382	0.30422
-0.10631	-0.12942
0.40372	-0.41000
0.58223	-0.18043
0.42922	-0.05289
0.25071	-0.38449
-0.10631	0.43176
0.12320	0.55929
0.17421	0.50828
-0.08081	0.48277
-0.38683	0.66132
0.27621	-0.10391
0.35272	-0.35899
0.35272	-0.43551
0.35272	-0.33348
0.63323	-0.25695
0.25071	0.35523
0.02119	0.55929
-0.15732	0.63582
-0.15732	0.43176
-0.33583	0.73785
-0.02981	-0.07840
0.27621	-0.48652
0.50573	-0.58856
0.30171	-0.41000
0.48022	-0.20594
0.37822	0.58480
0.04670	0.89089
-0.05531	0.50828
-0.05531	0.53379
-0.28482	0.61031
0.02119	-0.02739
0.17421	-0.41000
0.35272	-0.38449
0.40372	-0.10391
0.53123	-0.25695
0.37822	0.27871
0.07220	0.76336
-0.13181	0.50828
-0.18282	0.43176
-0.23382	0.66132
0.07220	-0.05289
0.27621	-0.46102
0.45472	-0.35899
0.30171	-0.10391
0.37822	-0.33348
0.19971	0.27871
0.02119	0.78886
-0.13181	0.53379
-0.10631	0.32972
-0.08081	0.55929
0.02119	-0.10391
0.25071	-0.38449
0.45472	-0.20594
0.37822	0.02363
0.55673	-0.15492
0.19971	0.20219
-0.02981	0.58480
-0.23382	0.15117
-0.10631	0.15117
-0.10631	0.76336
0.07220	0.17668
0.25071	-0.25695
0.42922	-0.35899
0.50573	-0.05289
0.50573	-0.10391
0.22521	0.30422
-0.08081	0.43176
-0.13181	0.68683
-0.08081	0.53379
-0.28482	0.38074
0.09770	-0.15492
0.32721	-0.56305
0.35272	-0.46102
0.32721	-0.05289
0.53123	-0.12942
0.22521	0.40625
-0.02981	0.71234
-0.10631	0.61031
-0.05531	0.50828
-0.18282	0.45726
-0.00431	0.10015
0.25071	-0.23145
0.37822	-0.33348
0.50573	-0.23145
0.58223	-0.35899
0.07220	0.10015
-0.18282	0.55929
-0.08081	0.50828
-0.00431	0.32972
-0.15732	0.61031
0.12320	-0.02739
0.37822	-0.23145
0.37822	-0.35899
0.35272	-0.07840
0.48022	-0.23145
0.30171	0.04914
-0.10631	0.78886
-0.10631	0.63582
-0.13181	0.32972
-0.36133	0.66132
0.02119	0.04914
0.48022	-0.61406
0.42922	-0.25695
0.27621	-0.05289
0.53123	-0.20594
0.35272	0.30422
-0.02981	0.40625
0.02119	0.55929
-0.13181	0.61031
-0.31033	0.73785
-0.08081	-0.00188
0.42922	-0.35899
0.40372	-0.53754
0.35272	-0.15492
0.53123	-0.28246
0.27621	0.25320
-0.08081	0.61031
-0.08081	0.45726
-0.13181	0.22769
-0.18282	0.76336
0.04670	0.15117
0.25071	-0.12942
0.48022	-0.41000
0.40372	-0.35899
0.58223	-0.53754
0.35272	0.35523
-0.05531	0.76336
-0.13181	0.58480
-0.18282	0.43176
-0.18282	0.61031
0.07220	0.10015
0.32721	-0.35899
0.45472	-0.30797
0.32721	-0.20594
0.42922	-0.38449
0.25071	0.32972
-0.00431	0.76336
0.02119	0.50828
-0.20832	0.40625
-0.31033	0.61031
0.12320	-0.05289
0.45472	-0.38449
0.35272	-0.35899
0.25071	-0.12942
0.22521	-0.20594
0.17421	0.20219
-0.02981	0.66132
-0.02981	0.61031
-0.05531	0.48277
-0.20832	0.58480
-0.02981	-0.10391
0.53123	-0.43551
0.58223	-0.20594
0.42922	0.07465
0.50573	-0.15492
0.12320	0.02363
-0.08081	0.55929
-0.43783	0.55929
-0.18282	0.71234
-0.10631	0.99292
0.19971	-0.18043
0.35272	-0.81812
0.55673	-0.43551
0.53123	-0.10391
0.60773	-0.30797
0.32721	0.04914
-0.18282	0.61031
-0.41233	0.68683
-0.31033	-0.05289
-0.18282	1.06945
0.14870	0.91640
0.40372	0.02363
0.45472	-0.25695
0.27621	-0.56305
0.42922	-0.94566
0.17421	0.02363
-0.18282	0.48277
-0.13181	0.55929
-0.05531	0.45726
-0.13181	0.71234
0.27621	0.15117
0.42922	-0.35899
0.60773	-0.46102
0.48022	-0.33348
0.63323	-0.25695
0.02119	0.45726
-0.20832	0.89089
-0.23382	0.76336
-0.36133	0.10015
-0.46334	0.40625
0.02119	0.15117
0.53123	-0.25695
1.04126	-0.28246
1.01576	0.07465
0.37822	-0.20594
0.48022	0.35523
-0.13181	0.66132
-0.43783	0.53379
-0.48884	0.40625
-0.56534	0.35523
-0.28482	-0.15492
0.32721	-0.81812
0.32721	-0.66508
0.53123	0.12566
0.65874	-0.33348
0.58223	1.22250
0.17421	0.81437
0.04670	0.30422
-0.05531	-0.20594
-0.20832	0.35523
0.02119	0.76336
0.12320	0.02363
0.22521	-0.18043
0.40372	-0.25695
0.50573	-0.76711
0.17421	-0.33348
-0.00431	0.45726
0.09770	0.55929
-0.00431	0.55929
-0.28482	0.99292
-0.02981	0.32972
0.14870	-0.30797
0.42922	-0.20594
0.32721	-0.10391
0.58223	-0.15492
0.45472	0.30422
0.22521	0.78886
0.07220	0.68683
-0.08081	0.27871
-0.51434	0.45726
-0.28482	-0.53754
0.32721	-0.66508
0.48022	-0.35899
-0.05531	-0.12942
0.60773	-0.15492
0.42922	0.32972
0.40372	0.48277
-2.06994	0.53379
0.68424	0.20219
0.70974	1.40105
0.14870	-0.20594
-0.10631	-0.00188
-0.05531	0.63582
0.09770	0.66132
0.83725	-0.84363
1.24527	-0.86914
0.86275	0.40625
0.25071	0.76336
-0.08081	0.86539
-0.53984	0.15117
-0.43783	-1.30277
-0.15732	-0.99668
-0.13181	-0.07840
0.02119	0.30422
0.50573	2.01323
0.60773	1.35003
0.19971	0.43176
-0.00431	0.04914
-0.05531	0.38074
-0.02981	-0.25695
-0.02981	-1.22625
0.09770	-0.74160
0.42922	-0.28246
0.17421	0.45726
0.45472	0.32972
0.32721	0.81437
0.22521	0.81437
0.02119	0.50828
-0.59084	-0.02739
-0.61635	0.73785
-0.08081	-0.07840
1.44929	-0.15492
1.75531	0.45726
0.88825	-0.35899
0.27621	-1.50683
-0.82036	-0.33348
-1.81492	1.17148
-0.94787	0.35523
0.42922	0.71234
0.63323	1.17148
0.91375	0.10015
0.55673	-0.02739
0.48022	-0.43551
0.22521	0.68683
0.37822	1.52859
0.07220	0.94191
0.12320	-2.70570
0.53123	-1.94047
0.35272	-0.10391
-0.20832	0.78886
-0.31033	0.02363
-0.71835	2.62542
-0.84586	0.20219
-0.20832	-0.28246
0.60773	0.35523
0.60773	2.26831
0.78624	1.83468
0.45472	1.63062
0.40372	-2.29757
-0.46334	-1.09871
-0.51434	-0.46102
0.37822	-0.56305
1.09226	0.38074
0.91375	-0.53754
0.73524	-2.29757
0.27621	-1.45582
-0.43783	1.19699
-1.04987	2.08976
-0.48884	1.60511
-0.51434	1.52859
0.02119	1.57960
0.55673	-0.20594
0.55673	-1.27726
0.73524	-0.86914
1.34728	-0.56305
1.21977	0.94191
-0.13181	1.27351
-0.66735	-0.07840
-0.94787	0.04914
-0.87136	0.61031
-0.05531	0.81437
0.83725	-0.35899
1.06676	-0.84363
0.58223	-0.25695
0.02119	-0.79262
-0.71835	0.45726
-1.10088	-0.97117
-0.08081	-2.11902
0.55673	2.98253
0.14870	3.08456
0.65874	-0.10391
0.30171	-1.04770
1.04126	1.37554
0.96476	0.17668
0.42922	-0.05289
0.35272	0.58480
-0.20832	-0.20594
-0.48884	-3.54745
-0.59084	0.96742
-0.38683	3.41616
-0.69285	1.52859
0.76074	-0.99668
0.81175	-1.30277
0.76074	0.10015
0.35272	0.10015
-0.02981	-0.30797
-0.38683	1.06945
0.02119	0.96742
0.35272	0.71234
-0.64185	0.35523
0.37822	0.10015
0.25071	-2.32308
-0.13181	-0.81812
0.65874	1.63062
0.58223	-0.00188
0.19971	-2.68019
0.04670	1.47757
-1.20288	-0.94566
-0.48884	-0.66508
0.65874	3.90081
0.81175	1.37554
0.68424	-0.35899
0.55673	-0.30797
0.60773	0.43176
0.30171	-0.76711
-0.00431	0.66132
-0.13181	-0.02739
-0.43783	-0.86914
-0.13181	1.29902
-0.10631	-0.05289
0.14870	-2.19554
0.22521	-0.35899
0.53123	-0.86914
-0.05531	-2.83324
-0.08081	4.33444
0.37822	2.19179
0.12320	0.32972
-0.20832	0.71234
0.50573	-0.20594
0.19971	0.43176
0.12320	-0.07840
0.12320	-0.89465
0.53123	-2.47613
0.83725	0.66132
0.83725	0.25320
0.48022	0.53379
-0.00431	-1.71090
-0.25932	0.25320
-0.13181	1.93671
-0.56534	1.60511
-1.20288	-0.66508
-0.36133	0.99292
-0.48884	0.10015
0.40372	-0.99668
1.09226	-1.07320
0.70974	1.50308
0.19971	0.91640
1.09226	-0.74160
0.04670	0.04914
-0.84586	-0.30797
-0.84586	-1.50683
0.32721	0.45726
0.73524	0.91640
0.86275	0.30422
0.68424	-0.12942
0.53123	2.14077
0.09770	1.06945
-0.15732	0.63582
-0.46334	-0.51203
-0.48884	0.22769
-0.23382	0.53379
-0.08081	-1.27726
0.12320	-2.90976
0.22521	0.35523
0.73524	1.37554
0.37822	1.60511
0.02119	1.55410
-0.13181	-1.17523
0.07220	-1.50683
-0.28482	0.96742
0.42922	2.11527
0.45472	-2.80773
0.14870	-2.50164
0.81175	0.66132
0.63323	0.55929
0.40372	0.53379
0.14870	1.35003
0.04670	1.22250
-0.25932	1.52859
-1.25389	1.06945
-2.52897	-0.15492
-0.05531	-0.15492
1.32178	0.45726
1.80631	0.04914
1.90832	-0.63957
1.90832	-0.74160
0.88825	-0.79262
0.07220	0.38074
-0.89686	1.04394
-1.50890	0.07465
-1.25389	-1.63437
-0.02981	0.04914
0.27621	-0.61406
0.32721	0.02363
0.14870	-0.35899
0.07220	1.63062
0.04670	-0.76711
0.14870	5.50780
0.12320	0.17668
-0.36133	-0.71609
-0.08081	-1.20074
0.35272	-0.25695
0.83725	1.47757
0.78624	0.73785
0.78624	-1.50683
0.55673	-1.30277
0.02119	-1.17523
0.09770	-1.35379
-0.18282	0.66132
-1.91693	1.37554
-1.71292	0.50828
0.53123	0.30422
1.19427	1.42656
1.67880	1.17148
1.34728	-0.25695
1.01576	-0.86914
0.02119	0.61031
-0.53984	1.27351
-0.51434	0.58480
0.25071	1.75816
0.02119	0.86539
0.50573	-1.71090
-0.00431	-1.86394
-0.08081	-0.53754
0.32721	-1.32828
-0.02981	-0.43551
-0.36133	2.98253
-0.25932	-0.02739
-0.61635	1.22250
-0.48884	2.01323
0.55673	0.81437
0.73524	-1.43031
0.76074	-1.86394
0.78624	-1.68539
0.83725	-1.48133
0.48022	0.40625
0.30171	2.47238
0.37822	0.89089
-0.10631	0.50828
-0.87136	1.68163
-1.61091	1.55410
-1.53441	-3.34339
0.83725	-1.27726
1.60230	0.99292
1.06676	0.50828
0.48022	0.40625
0.27621	1.14597
0.27621	-0.00188
0.32721	1.37554
-0.18282	1.22250
-1.20288	-0.84363
-0.43783	-1.48133
0.73524	-1.30277
1.06676	0.76336
1.01576	0.55929
0.37822	-0.15492
-0.05531	2.01323
-0.33583	1.37554
-0.31033	-1.35379
-0.48884	-0.99668
-0.28482	-0.48652
0.17421	0.30422
0.22521	0.35523
0.27621	0.43176
0.58223	-0.18043
0.53123	0.55929
0.09770	0.45726
-0.10631	2.88050
0.04670	1.42656
-0.08081	-1.32828
-0.00431	-1.40480
0.55673	0.04914
1.06676	-1.07320
0.73524	-0.10391
0.40372	-0.84363
-0.61635	-1.04770
-1.76392	1.65613
-0.97337	2.16628
0.42922	0.22769
0.53123	-0.48652
1.37278	0.63582
1.24527	-0.15492
-0.46334	0.25320
0.48022	-0.48652
0.93925	0.94191
0.35272	0.04914
-0.00431	0.38074
-0.99887	0.83988
-0.31033	0.68683
0.14870	-2.32308
-0.28482	-3.03730
-0.36133	0.76336
0.22521	1.52859
0.37822	0.10015
0.76074	2.85499
0.42922	-0.86914
0.19971	-0.05289
-0.18282	-0.53754
-0.15732	0.63582
-0.23382	0.86539
-0.08081	-1.14973
0.27621	1.47757
0.55673	1.12046
0.35272	-0.25695
0.17421	-2.80773
0.14870	0.81437
0.30171	-0.18043
0.63323	0.53379
0.12320	0.68683
-0.10631	0.43176
-1.35589	-0.10391
-0.94787	0.20219
1.04126	-0.33348
1.29628	0.20219
0.81175	-0.53754
0.14870	0.50828
0.83725	2.37034
0.40372	0.27871
0.14870	-1.22625
-0.43783	0.86539
-1.50890	0.25320
-1.17738	-0.00188
-0.23382	0.04914
1.29628	-0.20594
1.14327	-1.30277
0.78624	-0.30797
0.32721	1.63062
0.09770	2.03874
-0.08081	0.66132
0.07220	0.40625
-0.84586	-2.01699
-0.94787	-2.80773
-0.28482	0.99292
0.60773	0.02363
0.96476	-0.89465
0.70974	0.94191
0.19971	0.94191
0.17421	1.06945
0.14870	1.04394
-0.25932	1.32453
-0.02981	0.10015
0.12320	-0.38449
0.35272	0.76336
0.65874	0.12566
0.83725	-1.81293
0.12320	-2.50164
-0.97337	1.40105
-1.86593	1.60511
-0.28482	0.71234
0.32721	0.94191
0.99026	0.63582
0.96476	-0.28246
0.65874	-0.89465
0.73524	-0.38449
1.06676	-0.46102
0.63323	-0.15492
0.02119	0.25320
-0.56534	1.80917
-1.38139	0.48277
-1.17738	0.43176
-0.43783	0.12566
0.70974	-2.96078
1.01576	1.22250
0.48022	1.98773
0.02119	0.43176
0.60773	0.89089
0.50573	-1.02219
0.12320	-2.19554
-0.02981	-0.05289
-0.00431	1.12046
-0.02981	1.24800
0.09770	-0.74160
0.19971	-0.63957
0.32721	-0.00188
0.63323	-0.35899
-0.05531	0.22769
-0.23382	1.52859
0.02119	0.83988
0.19971	0.38074
-0.48884	0.86539
-0.69285	0.02363
-0.51434	-0.30797
0.48022	-0.33348
1.62780	-0.25695
1.52579	-0.28246
1.11776	0.12566
-0.08081	0.53379
-0.02981	0.76336
-0.00431	0.25320
-1.10088	0.07465
-0.13181	-0.46102
-0.05531	-0.86914
-0.05531	-0.02739
0.58223	-0.18043
1.19427	0.89089
0.65874	0.50828
0.17421	-0.18043
-0.13181	0.91640
-0.08081	0.86539
-0.33583	1.37554
-0.28482	-1.35379
0.12320	-3.41992
0.48022	0.61031
0.42922	0.66132
0.73524	0.86539
0.22521	1.32453
-0.02981	0.61031
-0.28482	0.17668
-0.28482	0.15117
-0.15732	0.45726
-0.08081	0.12566
0.27621	0.45726
0.70974	-0.20594
0.65874	-0.86914
1.29628	-0.89465
-0.20832	0.27871
-0.79486	0.83988
-0.43783	1.45206
0.27621	1.24800
0.63323	-0.23145
0.22521	-0.46102
0.22521	-0.25695
-0.41233	-0.69059
0.37822	0.43176
1.06676	-0.61406
0.63323	0.30422
-0.08081	-0.35899
-0.13181	1.32453
-0.15732	2.21730
-0.82036	0.83988
-0.33583	-0.66508
0.50573	0.81437
0.50573	-1.78742
0.14870	-3.93007
0.42922	-0.23145
-0.43783	1.29902
0.14870	2.08976
0.32721	0.50828
0.45472	1.68163
0.22521	1.47757
0.14870	0.83988
0.68424	-0.48652
0.32721	-0.46102
-0.02981	-0.25695
0.22521	-1.37929
0.65874	-0.76711
0.27621	-0.23145
-0.61635	0.32972
-0.59084	0.81437
-1.30489	1.37554
-0.94787	0.63582
0.19971	-0.41000
0.73524	-0.48652
1.32178	-0.61406
1.44929	0.38074
0.68424	0.07465
0.07220	1.75816
0.02119	0.38074
0.12320	0.50828
-0.38683	0.40625
-0.74385	0.81437
0.22521	-1.09871
0.63323	-0.51203
0.14870	0.12566
0.70974	-2.17003
0.17421	-0.92016
-0.61635	1.91120
-0.71835	1.73265
0.35272	1.19699
0.37822	0.43176
0.37822	0.07465
0.37822	-1.78742
0.02119	-1.20074
0.22521	1.40105
0.60773	-0.07840
0.27621	-0.97117
-0.08081	1.01843
0.30171	0.73785
0.27621	1.01843
-0.13181	0.99292
-0.08081	0.53379
0.07220	-0.46102
-0.08081	-0.66508
-1.27939	-0.23145
0.48022	-0.99668
1.29628	0.32972
0.70974	-0.00188
0.22521	1.27351
-0.13181	0.99292
-0.10631	0.99292
0.45472	0.10015
-0.08081	-1.50683
-0.10631	-1.14973
-0.46334	-0.71609
0.83725	-1.02219
0.68424	2.44687
0.17421	1.98773
-0.23382	-0.61406
-0.33583	-0.05289
-0.71835	2.26831
-0.08081	-0.48652
0.45472	-2.93527
0.65874	-1.91496
0.60773	0.04914
0.65874	1.47757
-0.18282	2.88050
-0.00431	0.76336
0.04670	0.17668
-0.10631	0.22769
-0.28482	0.86539
0.37822	0.38074
0.02119	-1.17523
0.17421	-1.88945
0.32721	-0.76711
0.40372	-0.07840
0.12320	0.48277
-0.13181	0.94191
0.07220	1.47757
0.12320	1.06945
-0.41233	0.58480
-0.00431	-0.02739
0.55673	-0.33348
0.78624	-0.92016
0.53123	-0.46102
0.73524	0.04914
0.63323	-0.00188
-0.18282	0.91640
-1.07538	1.42656
-0.89686	0.32972
0.09770	0.61031
-0.31033	-0.35899
0.22521	-1.35379
1.47479	-0.61406
0.81175	0.71234
0.86275	0.12566
0.65874	0.63582
-0.41233	0.22769
-0.36133	1.35003
-0.31033	-0.53754
-0.38683	-2.60367
-0.31033	0.68683
0.09770	2.29382
0.48022	-0.48652
0.63323	0.68683
0.55673	-0.07840
0.32721	-0.18043
0.07220	0.02363
-0.53984	-0.43551
-0.33583	0.20219
-0.05531	0.48277
0.60773	0.35523
0.88825	-0.43551
0.42922	-0.51203
-0.10631	-0.25695
-0.13181	1.52859
0.02119	-0.05289
0.02119	-1.40480
0.42922	0.50828
0.12320	1.37554
-0.41233	1.29902
-0.10631	0.43176
0.63323	0.30422
1.11776	-0.07840
0.78624	-0.15492
0.55673	-0.05289
-0.05531	-0.25695
-0.48884	-0.15492
-0.71835	-0.10391
-0.18282	0.35523
-0.15732	1.45206
-0.18282	0.25320
0.37822	0.02363
0.53123	-0.18043
-0.00431	-0.46102
0.86275	0.22769
0.65874	-1.04770
0.25071	-0.43551
-0.08081	0.04914
-0.08081	0.32972
-0.31033	2.21730
-0.20832	1.40105
0.07220	-0.00188
0.25071	-0.38449
0.70974	-0.58856
0.86275	-0.35899
0.45472	0.43176
-0.05531	0.55929
-0.23382	0.86539
-0.36133	1.14597
-0.10631	0.91640
0.07220	0.04914
0.04670	-1.02219
0.40372	-1.32828
0.60773	-0.51203
0.12320	-0.71609
0.07220	0.22769
0.68424	1.04394
0.45472	0.20219
-0.33583	-0.51203
-0.20832	1.52859
-0.48884	0.91640
-0.18282	0.76336
-0.18282	-0.28246
0.22521	0.45726
0.37822	-1.07320
0.40372	-0.07840
0.53123	0.94191
0.50573	0.38074
0.07220	-0.53754
-0.38683	2.21730
-0.25932	-0.10391
-0.46334	-2.55265
0.55673	0.30422
0.93925	-0.89465
0.60773	-1.12422
-0.00431	0.25320
-0.66735	1.68163
-0.05531	1.83468
0.25071	1.01843
-0.08081	0.63582
0.35272	0.07465
0.88825	0.81437
1.21977	-0.25695
0.30171	-0.53754
-0.05531	-1.68539
-0.48884	-0.07840
-1.02437	-0.12942
-0.08081	0.32972
0.40372	0.76336
0.37822	1.50308
0.30171	0.89089
0.53123	-0.86914
0.35272	0.25320
0.40372	0.27871
0.35272	-0.71609
0.04670	-0.86914
-0.28482	0.10015
-0.15732	1.42656
0.12320	0.35523
-0.02981	1.50308
-0.20832	-1.27726
-0.18282	0.83988
0.17421	-0.76711
0.50573	-0.58856
0.58223	-0.84363
0.63323	0.53379
0.48022	2.01323
0.17421	1.42656
0.07220	-1.32828
-1.38139	-1.86394
-0.59084	0.68683
0.19971	0.15117
0.40372	0.27871
1.04126	-0.28246
1.34728	0.07465
1.04126	0.63582
0.30171	1.19699
-0.92237	0.73785
-0.92237	0.35523
-1.02437	0.63582
0.07220	-0.23145
0.73524	-0.74160
0.70974	-0.74160
0.53123	-0.76711
0.35272	0.07465
0.14870	0.71234
-0.25932	0.86539
-0.15732	0.61031
0.17421	1.57960
0.22521	0.38074
-0.02981	-0.00188
-0.46334	-1.02219
-0.00431	-1.96597
0.50573	-0.56305
0.60773	0.71234
0.83725	0.22769
0.35272	-1.73640
0.30171	2.47238
0.27621	4.13038
-0.18282	0.04914
-0.69285	-1.99148
-0.69285	-1.22625
0.09770	-0.58856
0.48022	0.78886
1.04126	0.43176
0.22521	0.20219
-0.13181	0.81437
0.53123	0.40625
0.22521	1.17148
-0.23382	0.30422
-1.04987	-0.38449
-1.02437	-0.94566
0.68424	-0.63957
1.37278	0.32972
1.16877	0.48277
0.83725	0.45726
0.27621	0.61031
-0.79486	0.73785
-0.56534	0.53379
0.07220	0.30422
-0.31033	-0.46102
-0.00431	-0.89465
0.04670	-1.12422
-0.41233	-0.84363
0.73524	-0.05289
0.88825	1.09496
0.30171	1.12046
-0.02981	2.08976
-0.10631	1.24800
0.27621	-0.56305
0.02119	-0.43551
-0.13181	0.10015
-0.53984	-0.07840
0.14870	-0.51203
1.24527	-0.53754
0.45472	0.32972
0.27621	-1.04770
-0.20832	1.45206
-0.59084	1.73265
0.02119	0.43176
-0.10631	-1.35379
0.17421	-1.12422
0.60773	-0.38449
0.50573	0.63582
1.11776	0.61031
0.48022	1.19699
-0.69285	0.20219
-1.10088	-0.15492
-0.20832	-0.10391
0.14870	1.78367
0.42922	1.32453
0.37822	-0.56305
0.53123	-0.74160
0.68424	-0.58856
0.63323	-1.53234
0.27621	1.19699
-0.00431	-0.58856
-0.10631	1.40105
-0.38683	0.96742
-0.43783	-1.37929
-0.59084	0.66132
-0.02981	0.30422
0.42922	-0.00188
0.42922	-0.71609
0.53123	0.43176
0.17421	-0.35899
0.04670	-0.97117
0.37822	0.86539
0.37822	1.60511
0.02119	1.96222
-0.20832	1.17148
0.60773	-2.39961
0.25071	-2.80773
-0.23382	0.66132
-0.13181	0.63582
0.76074	1.19699
0.73524	1.27351
0.07220	-0.63957
-0.71835	1.50308
-0.53984	2.01323
0.78624	0.99292
1.14327	-1.35379
0.73524	-1.68539
0.73524	0.07465
-0.10631	0.32972
-0.05531	-0.35899
-0.33583	0.22769
-0.48884	0.91640
-0.61635	-0.15492
-0.53984	0.12566
0.14870	-0.43551
0.40372	-1.81293
0.55673	0.55929
0.35272	1.78367
0.09770	-1.55785
-0.13181	0.91640
-0.02981	1.37554
0.14870	0.02363
0.22521	2.08976
-0.20832	0.99292
0.25071	-1.96597
0.40372	-1.58336
0.53123	-0.15492
0.88825	0.30422
1.04126	0.73785
0.07220	0.68683
-0.53984	1.17148
-1.38139	0.40625
-0.76936	-0.12942
0.25071	0.45726
0.63323	-0.02739
0.63323	-0.66508
0.63323	-0.25695
0.53123	-0.30797
0.19971	-0.38449
-0.20832	0.12566
-0.43783	0.61031
0.07220	0.66132
0.42922	-0.46102
0.19971	2.44687
0.17421	1.47757
0.37822	-1.96597
-0.10631	-1.32828
-0.10631	0.27871
0.04670	-0.53754
-0.25932	-1.65988
0.32721	2.67644
0.32721	0.04914
0.30171	2.47238
0.12320	1.80917
0.35272	-1.60887
0.27621	-1.27726
-0.02981	-0.61406
0.02119	-0.86914
0.53123	-0.81812
0.27621	-0.86914
0.12320	0.43176
0.07220	1.37554
0.22521	0.96742
-0.20832	1.40105
-0.74385	0.25320
-0.08081	-0.51203
0.60773	-0.15492
-0.13181	0.04914
-0.15732	0.12566
1.34728	0.02363
1.19427	0.27871
0.99026	0.27871
-0.08081	0.86539
-1.02437	1.29902
-0.10631	0.78886
0.22521	-1.35379
0.83725	-2.17003
-1.15188	-1.32828
0.65874	-0.25695
0.27621	2.16628
-0.18282	0.89089
-0.15732	0.61031
0.04670	0.17668
-0.46334	1.52859
0.02119	-0.28246
0.45472	-2.34859
0.58223	-0.61406
0.53123	0.86539
0.50573	1.12046
0.22521	0.17668
-0.00431	0.91640
-0.25932	-0.12942
-0.23382	-1.60887
-0.05531	-0.07840
0.27621	0.38074
0.14870	0.94191
-0.02981	0.73785
-1.12638	-0.00188
0.42922	-0.99668
0.93925	0.50828
0.55673	1.35003
0.60773	0.86539
-0.02981	0.25320
-0.02981	0.66132
0.19971	0.32972
0.65874	-1.14973
0.55673	-1.22625
-0.08081	0.04914
-0.66735	0.55929
-0.76936	1.12046
-0.05531	0.40625
0.48022	-1.53234
-0.10631	-1.65988
-0.13181	2.39585
0.58223	0.15117
0.53123	1.35003
0.68424	-0.23145
0.63323	-1.37929
0.63323	-0.53754
0.12320	0.20219
-0.20832	1.40105
-0.69285	-0.12942
-0.64185	-0.74160
0.02119	1.68163
0.04670	0.58480
0.40372	-0.33348
0.63323	-0.33348
0.17421	0.07465
0.35272	-0.76711
0.65874	0.48277
0.35272	-0.23145
-0.15732	1.01843
-0.43783	0.71234
-0.25932	0.99292
0.50573	0.73785
-0.36133	-0.81812
0.55673	-0.51203
-0.02981	-0.35899
-0.25932	-1.43031
-0.46334	0.40625
1.70430	1.52859
1.01576	1.37554
0.35272	0.27871
-0.23382	-0.99668
-0.23382	0.76336
0.14870	0.76336
0.35272	0.10015
0.32721	-1.25176
0.30171	-1.50683
-0.00431	1.68163
-0.41233	-0.30797
-0.53984	-0.20594
-0.48884	-0.25695
-0.13181	1.19699
0.22521	1.19699
0.50573	0.02363
0.63323	-0.51203
0.81175	0.20219
0.50573	-0.61406
0.25071	-0.81812
-0.25932	0.35523
-0.23382	1.22250
-0.15732	1.06945
0.04670	-0.05289
0.42922	-0.18043
0.48022	0.02363
0.17421	0.12566
-0.18282	1.14597
0.78624	-1.22625
0.70974	-1.12422
0.30171	1.06945
-0.61635	0.89089
-1.30489	0.89089
0.42922	1.42656
0.70974	0.12566
0.83725	-1.25176
0.63323	0.17668
0.35272	0.53379
-0.00431	-0.86914
-0.00431	0.32972
-0.10631	0.45726
-0.18282	0.04914
-0.15732	-0.46102
-0.18282	1.24800
-0.18282	0.55929
-0.10631	0.78886
0.55673	-0.28246
0.58223	-0.71609
0.32721	-0.92016
0.73524	-0.18043
0.25071	1.04394
0.02119	0.45726
-0.02981	-0.46102
0.04670	0.71234
-0.05531	0.63582
0.19971	0.35523
0.09770	0.32972
0.53123	-0.02739
0.27621	-0.51203
0.63323	0.04914
-0.33583	0.81437
-0.33583	0.94191
-0.56534	0.48277
-1.76392	0.45726
0.53123	-0.05289
1.29628	-0.38449
1.50029	-0.30797
0.81175	-0.20594
0.83725	-0.51203
0.22521	0.58480
0.07220	0.50828
0.02119	-0.84363
-0.10631	0.99292
-0.56534	1.17148
-0.53984	-1.53234
-0.76936	1.65613
-0.18282	1.06945
0.53123	-1.45582
0.60773	-0.97117
0.50573	-0.38449
0.40372	0.55929
0.22521	-0.94566
0.22521	-0.43551
-0.38683	1.14597
-0.25932	0.96742
-0.00431	-0.10391
0.68424	-0.86914
0.58223	0.50828
0.48022	0.45726
0.32721	0.71234
0.02119	0.66132
-0.10631	0.63582
0.02119	0.27871
-0.02981	0.30422
0.60773	0.38074
0.35272	-0.20594
-0.66735	-0.48652
-1.71292	-0.71609
0.58223	-0.76711
1.37278	0.22769
1.16877	0.50828
1.14327	0.55929
0.27621	-0.00188
0.12320	1.27351
-0.13181	0.71234
-0.23382	0.32972
0.27621	-0.12942
0.19971	-1.91496
0.17421	-0.66508
-0.18282	-0.05289
0.04670	1.78367
0.14870	0.86539
0.02119	1.47757
-0.15732	1.14597
0.07220	-0.30797
0.30171	-1.07320
0.35272	-2.50164
0.32721	0.02363
0.25071	0.45726
0.04670	0.10015
-0.08081	0.81437
0.09770	0.78886
0.35272	0.66132
0.02119	0.96742
0.40372	0.68683
0.32721	0.12566
0.07220	-0.97117
0.02119	-0.18043
-0.25932	0.15117
0.42922	0.32972
-0.00431	0.22769
-0.59084	0.35523
-0.02981	0.45726
0.81175	0.50828
0.22521	0.15117
0.58223	-0.05289
0.35272	-0.38449
0.04670	-0.25695
0.25071	-1.55785
0.30171	0.50828
-0.02981	1.93671
-0.08081	1.73265
0.12320	0.22769
-0.25932	-0.23145
-0.15732	-1.88945
0.02119	-0.38449
-0.18282	0.10015
0.19971	1.04394
0.68424	-0.00188
0.53123	-0.38449
0.22521	0.55929
-0.02981	0.66132
-0.00431	0.89089
-0.31033	0.02363
-0.15732	-0.58856
0.42922	0.10015
1.04126	-0.23145
0.68424	-0.28246
0.53123	-0.12942
0.12320	0.43176
-0.38683	0.53379
-0.25932	0.66132
-0.28482	1.09496
0.04670	-0.07840
0.37822	-0.28246
0.02119	-0.15492
-0.48884	0.48277
0.55673	-0.05289
0.68424	-0.66508
0.93925	0.71234
0.99026	0.55929
0.22521	-0.56305
-0.43783	-0.38449
-0.61635	1.09496
-0.23382	0.32972
0.27621	0.04914
0.42922	0.04914
0.04670	-1.35379
0.22521	0.15117
0.32721	0.89089
0.09770	1.22250
-0.33583	2.47238
-0.20832	0.15117
-0.18282	-0.61406
-0.00431	-0.53754
0.32721	-1.04770
0.63323	-0.97117
0.91375	-0.02739
0.65874	-0.12942
0.07220	0.96742
-0.69285	0.10015
-0.43783	-0.28246
-0.10631	0.58480
0.37822	0.53379
0.53123	0.55929
0.53123	-0.18043
0.32721	-0.48652
0.70974	0.07465
0.88825	0.07465
0.48022	0.27871
-0.36133	0.55929
-1.02437	0.61031
-1.55991	1.01843
-0.41233	0.76336
0.93925	-0.25695
1.11776	-0.63957
0.91375	-0.74160
0.30171	-0.05289
0.50573	-0.12942
0.65874	0.73785
-0.02981	0.35523
-0.51434	0.04914
-0.33583	0.45726
-0.53984	1.47757
0.02119	0.76336
0.25071	-0.66508
0.50573	-2.52714
0.50573	1.50308
0.50573	-0.46102
0.40372	-0.66508
-0.00431	0.35523
-0.23382	0.12566
-0.05531	0.61031
-0.25932	0.96742
-0.23382	0.25320
0.70974	0.04914
0.50573	-0.71609
-0.31033	-1.04770
-0.38683	-1.07320
0.22521	0.35523
0.73524	1.24800
0.63323	1.04394
0.48022	0.73785
0.09770	0.86539
-0.00431	0.50828
0.32721	-0.33348
0.40372	-0.41000
0.27621	-0.71609
-0.08081	-0.58856
-0.53984	0.30422
-0.84586	0.83988
-0.10631	0.38074
0.45472	-0.00188
0.99026	1.01843
0.70974	0.22769
0.58223	-0.51203
0.55673	-0.66508
0.27621	0.02363
0.02119	-0.99668
0.02119	1.73265
0.02119	1.60511
-0.15732	0.40625
-0.31033	0.32972
-0.28482	-0.12942
-0.20832	-1.09871
0.27621	1.04394
0.32721	-0.41000
0.19971	-1.27726
0.60773	-0.23145
0.58223	0.15117
0.30171	1.37554
-0.08081	0.30422
-0.13181	-0.00188
-0.18282	0.83988
-0.20832	0.07465
0.35272	0.25320
0.81175	-0.10391
0.63323	-0.07840
0.73524	-0.25695
-0.28482	0.30422
-0.51434	0.61031
0.17421	0.45726
-0.82036	0.02363
0.02119	0.86539
1.14327	0.55929
1.24527	-0.30797
0.68424	-0.15492
0.04670	-0.05289
0.25071	-1.14973
-0.02981	-0.69059
-0.59084	-0.18043
-0.28482	0.35523
0.30171	0.99292
0.12320	1.01843
-0.05531	0.55929
0.25071	-0.46102
0.55673	0.55929
0.30171	0.68683
0.35272	0.07465
0.27621	-0.92016
-0.05531	-0.38449
-0.02981	0.12566
-0.36133	0.40625
-0.28482	1.75816
0.07220	0.53379
0.42922	-1.07320
0.42922	-0.51203
-0.13181	-0.10391
0.40372	-0.33348
0.40372	0.04914
0.55673	0.68683
0.45472	1.22250
0.12320	1.04394
-0.25932	0.91640
-0.84586	0.12566
-0.10631	-0.79262
0.55673	-0.23145
0.25071	-0.12942
0.53123	-0.46102
0.09770	0.04914
0.78624	0.73785
0.55673	0.58480
0.30171	0.30422
-0.13181	0.61031
-0.13181	0.12566
-0.00431	-0.25695
0.02119	-0.25695
-0.20832	-0.56305
0.12320	-2.01699
0.12320	0.78886
-0.18282	2.11527
-0.48884	1.12046
-0.56534	-0.07840
0.27621	0.99292
0.48022	-0.25695
0.60773	-1.14973
0.73524	-0.12942
0.68424	0.58480
0.65874	-0.74160
0.17421	-0.46102
-0.20832	0.81437
-0.38683	0.76336
-0.23382	0.43176
0.17421	1.24800
0.45472	0.43176
0.09770	-0.92016
-0.25932	-0.84363
-0.76936	-0.12942
-0.10631	-0.25695
0.86275	0.17668
1.04126	0.83988
0.02119	0.99292
-0.43783	0.86539
-0.38683	0.91640
0.99026	-0.12942
0.93925	-0.35899
0.58223	-0.66508
0.07220	-0.18043
-0.64185	-0.84363
0.12320	0.17668
0.22521	0.86539
0.40372	1.04394
-0.38683	0.22769
-0.23382	0.45726
0.09770	1.01843
0.30171	-0.05289
0.50573	-0.30797
0.45472	-1.17523
0.40372	-0.76711
0.22521	0.38074
0.07220	0.58480
-0.10631	0.76336
-0.20832	0.43176
-0.33583	0.91640
-0.33583	0.10015
0.35272	-0.38449
0.32721	-0.25695
0.35272	-0.00188
0.76074	-0.92016
0.65874	0.48277
0.12320	1.01843
0.14870	1.01843
-0.25932	0.38074
-0.51434	0.66132
-0.53984	0.17668
0.22521	-0.56305
0.50573	-0.99668
0.50573	0.17668
0.73524	-0.63957
0.70974	0.17668
0.32721	1.01843
-0.02981	1.14597
-0.28482	0.27871
-0.38683	0.30422
-0.66735	-0.23145
0.32721	0.61031
0.81175	-0.15492
0.93925	-1.27726
0.55673	-0.86914
0.12320	-1.02219
-0.38683	2.01323
-0.28482	2.52339
0.07220	0.55929
-0.02981	0.15117
0.07220	-0.69059
0.17421	0.22769
0.40372	-0.84363
0.63323	-2.14453
0.63323	-1.02219
0.14870	0.40625
-0.71835	1.17148
-0.25932	1.50308
0.12320	1.27351
0.48022	1.27351
0.07220	0.38074
-0.66735	-0.33348
-0.02981	-0.69059
1.19427	-0.58856
1.19427	-0.89465
0.55673	-0.05289
0.12320	0.68683
-1.02437	0.89089
-0.38683	0.22769
-0.56534	1.09496
0.09770	0.40625
0.32721	-0.71609
0.60773	-0.05289
0.40372	-1.02219
0.65874	-0.41000
0.86275	1.01843
0.37822	1.06945
-0.20832	0.22769
-0.64185	0.27871
-1.48340	0.25320
-0.36133	-0.92016
0.42922	0.32972
1.04126	0.40625
0.76074	0.73785
0.73524	-0.61406
0.50573	-0.41000
-0.02981	-0.07840
-0.10631	0.58480
-0.28482	0.55929
-0.48884	1.06945
-0.25932	0.02363
-0.36133	-0.97117
0.22521	-0.58856
0.55673	-0.18043
0.68424	-0.33348
0.22521	0.68683
0.32721	1.45206
0.30171	0.50828
-0.02981	-0.84363
0.19971	0.78886
0.17421	0.48277
-0.10631	0.22769
0.12320	-0.61406
-0.23382	-0.25695
-0.20832	-0.43551
0.50573	0.04914
0.02119	0.43176
0.02119	0.12566
0.27621	0.38074
-0.28482	1.47757
0.65874	0.96742
0.55673	-0.33348
0.76074	-0.46102
0.73524	-0.46102
-0.02981	-0.97117
-0.41233	-0.05289
-0.05531	0.50828
-0.61635	0.20219
0.07220	-0.38449
0.07220	1.45206
0.07220	1.75816
0.40372	0.02363
0.32721	0.55929
0.22521	-1.32828
0.42922	-1.73640
0.32721	0.07465
-0.31033	0.35523
0.19971	0.94191
0.09770	1.22250
-0.28482	0.55929
-0.18282	-0.33348
0.48022	-0.66508
0.78624	-0.38449
0.58223	0.12566
0.68424	-0.84363
0.02119	0.99292
-1.33039	0.73785
-0.18282	0.10015
-0.05531	0.73785
0.04670	1.01843
0.42922	0.45726
0.63323	-0.56305
0.40372	-0.41000
0.25071	0.04914
0.53123	-0.41000
0.14870	0.12566
0.22521	0.81437
0.14870	-0.02739
-0.71835	-0.18043
-0.61635	1.12046
-0.61635	-0.07840
0.27621	-0.07840
0.91375	-0.43551
0.68424	-1.17523
0.68424	-1.76191
0.65874	1.88570
0.19971	3.33964
-0.05531	1.32453
-0.18282	-0.00188
-0.71835	0.27871
-0.41233	-0.84363
0.50573	-2.09351
0.68424	-0.43551
0.68424	-0.43551
0.40372	-0.12942
0.02119	1.47757
0.02119	1.32453
-0.00431	0.91640
-0.31033	0.22769
-0.28482	0.38074
0.30171	0.12566
0.40372	-0.46102
0.27621	-0.71609
0.32721	-0.53754
0.17421	-0.48652
0.35272	0.15117
0.35272	1.06945
-0.02981	0.58480
0.17421	0.15117
0.04670	1.19699
-0.25932	0.40625
-0.10631	-0.51203
-0.46334	-0.15492
0.70974	0.07465
0.86275	-0.41000
0.63323	0.35523
-0.31033	0.55929
0.02119	0.38074
-0.31033	0.27871
0.12320	0.91640
0.09770	0.12566
0.55673	-0.35899
0.50573	-0.46102
0.48022	-0.61406
-0.25932	-0.71609
0.32721	0.58480
0.12320	0.40625
-0.15732	0.86539
0.27621	0.96742
-0.69285	0.27871
-0.31033	0.25320
0.63323	-0.18043
0.99026	0.17668
0.83725	0.63582
0.48022	-1.12422
-0.00431	-0.35899
-0.51434	0.53379
-0.43783	0.50828
-0.18282	0.40625
0.07220	1.14597
0.12320	0.12566
0.27621	-1.25176
0.48022	-0.58856
0.48022	0.43176
0.32721	0.02363
0.40372	0.38074
-0.00431	1.09496
-0.15732	0.71234
-0.43783	0.55929
-0.38683	0.53379
0.04670	0.10015
0.45472	-0.18043
0.58223	-0.58856
0.27621	-0.25695
0.58223	-0.46102
0.17421	0.10015
0.12320	0.78886
-0.05531	0.83988
-0.56534	-0.07840
-0.36133	0.66132
0.37822	0.55929
0.70974	0.04914
0.76074	-0.46102
0.02119	-0.99668
-0.05531	-0.86914
0.07220	0.76336
0.17421	1.19699
-0.05531	-0.25695
-0.53984	0.76336
0.12320	1.70714
0.53123	-0.58856
0.17421	-2.93527
0.37822	1.17148
0.53123	0.99292
-0.10631	-0.23145
-0.13181	-0.05289
0.32721	0.73785
0.22521	1.32453
0.07220	0.58480
-0.10631	-0.02739
0.42922	-1.12422
0.35272	0.71234
-0.08081	0.45726
-0.13181	0.04914
-0.13181	-1.02219
-0.13181	-0.66508
0.55673	0.40625
0.17421	0.66132
0.40372	0.53379
0.27621	0.99292
-0.18282	0.30422
0.12320	0.07465
0.65874	-0.23145
0.63323	-1.12422
0.32721	-0.86914
-0.28482	0.38074
-0.23382	1.75816
0.30171	1.06945
0.32721	0.43176
0.02119	0.53379
0.22521	-0.56305
0.19971	0.35523
0.19971	0.40625
0.32721	-0.71609
0.30171	-1.71090
-0.46334	0.71234
0.02119	1.17148
0.40372	-0.43551
0.37822	-0.94566
0.22521	1.68163
-0.20832	0.91640
0.17421	-0.33348
0.68424	-1.07320
0.37822	-0.30797
0.25071	-0.58856
-0.00431	0.04914
-0.23382	0.40625
0.30171	1.75816
0.22521	1.22250
-0.13181	0.83988
-0.74385	-0.43551
-0.56534	-1.25176
0.35272	-0.35899
0.76074	0.10015
1.16877	0.02363
0.25071	0.30422
-0.31033	0.50828
-0.02981	0.83988
0.73524	0.71234
0.04670	0.99292
-0.15732	0.22769
-0.43783	-0.63957
-0.92237	-0.84363
0.45472	-0.48652
1.39828	-0.48652
1.01576	0.45726
0.27621	1.17148
0.02119	0.45726
-0.05531	0.10015
-0.66735	0.61031
-0.87136	-0.25695
-0.36133	0.10015
0.42922	-0.51203
0.68424	0.02363
0.70974	-0.69059
0.58223	0.07465
0.02119	1.35003
-0.33583	1.06945
-0.00431	-0.23145
-0.10631	0.71234
-0.13181	-0.48652
0.12320	0.50828
0.40372	0.40625
0.27621	1.09496
0.48022	0.12566
0.32721	-1.02219
0.17421	0.04914
0.19971	0.50828
-0.05531	0.04914
-0.25932	0.53379
-0.38683	-0.10391
-0.20832	-0.92016
0.27621	-0.66508
0.99026	-0.02739
0.76074	0.02363
0.27621	0.66132
0.07220	0.48277
0.19971	1.45206
0.07220	1.35003
0.12320	0.91640
-0.15732	0.02363
0.07220	-0.38449
0.63323	-0.43551
-0.08081	-0.28246
0.68424	-0.79262
-0.10631	-0.97117
-0.97337	-0.00188
-0.15732	0.58480
0.40372	0.78886
0.35272	2.26831
0.53123	0.45726
0.53123	-1.09871
0.32721	-0.20594
0.32721	-0.71609
0.42922	0.22769
0.12320	-0.02739
-0.18282	0.35523
-0.33583	1.12046
-0.31033	0.38074
-0.25932	0.20219
0.02119	0.25320
0.19971	-0.25695
0.48022	-0.41000
0.45472	-1.04770
0.86275	0.02363
0.53123	1.14597
-0.05531	1.14597
-0.56534	0.50828
-0.28482	0.45726
-0.02981	0.30422
0.45472	-0.61406
0.17421	-0.61406
-0.51434	-0.25695
0.65874	-0.02739
1.16877	-0.28246
0.60773	0.25320
-0.02981	1.06945
-0.08081	0.94191
-0.10631	0.35523
-0.13181	0.38074
-0.76936	-0.10391
-0.13181	-0.30797
0.58223	-0.58856
0.32721	-0.15492
0.35272	-0.35899
0.09770	0.53379
-0.28482	0.20219
-0.05531	-0.35899
-0.02981	0.38074
-0.10631	0.45726
0.09770	1.29902
0.53123	1.17148
0.50573	0.25320
0.40372	-1.40480
0.60773	-1.09871
0.14870	-0.20594
0.17421	0.76336
0.14870	0.20219
0.09770	-0.25695
-0.71835	0.94191
-0.38683	0.55929
-0.79486	0.15117
0.45472	0.02363
0.55673	-0.23145
0.78624	-0.15492
1.11776	-0.20594
0.63323	0.76336
-0.46334	1.65613
-0.56534	1.12046
-0.25932	0.45726
0.58223	-0.71609
0.63323	-0.92016
0.35272	-0.46102
0.09770	-0.51203
0.07220	-0.94566
-0.02981	0.12566
-0.08081	0.76336
-0.05531	0.99292
-0.08081	0.50828
-0.25932	0.71234
-0.05531	0.12566
0.19971	-0.35899
0.53123	-0.20594
0.60773	-1.58336
0.42922	1.14597
0.37822	2.29382
-0.20832	0.76336
-0.23382	-1.68539
-0.00431	-1.12422
-0.28482	0.94191
0.02119	1.55410
0.60773	-0.18043
0.86275	-0.56305
0.63323	-1.02219
0.45472	-0.94566
0.27621	0.30422
-0.69285	1.17148
-0.20832	0.96742
-0.10631	0.07465
-0.25932	0.53379
-0.28482	0.25320
0.42922	-0.38449
0.99026	-0.18043
0.70974	-0.48652
-0.00431	0.10015
0.02119	0.15117
-0.36133	0.22769
-0.08081	0.81437
0.12320	0.81437
0.19971	1.24800
0.32721	0.63582
0.30171	-0.86914
0.07220	-1.63437
-0.48884	-0.99668
0.07220	-0.66508
0.45472	0.96742
0.76074	1.04394
0.37822	1.29902
0.12320	0.91640
-0.02981	0.73785
0.02119	-0.18043
-0.25932	-0.69059
0.14870	-0.61406
0.35272	-1.63437
0.58223	0.91640
0.04670	1.40105
0.07220	0.61031
0.02119	-0.71609
-0.02981	0.15117
0.02119	1.22250
0.02119	0.50828
0.17421	-0.92016
0.19971	-0.86914
0.48022	-0.76711
0.17421	-0.66508
0.22521	0.48277
-0.15732	1.12046
-0.53984	1.52859
0.37822	1.24800
0.09770	0.63582
0.32721	0.48277
0.25071	-0.10391
0.22521	-0.15492
0.22521	-0.56305
-0.08081	-1.07320
0.55673	-0.35899
0.88825	0.50828
0.35272	1.22250
-0.10631	1.06945
-0.10631	-0.48652
-0.56534	-0.51203
-0.48884	-0.12942
-0.23382	0.15117
0.63323	-0.23145
0.70974	-0.51203
0.50573	1.12046
0.19971	1.50308
0.02119	0.04914
-0.02981	-0.58856
-0.10631	0.91640
-0.10631	0.66132
0.09770	-0.25695
0.35272	-0.66508
0.40372	-0.92016
0.55673	-0.23145
0.42922	0.35523
0.30171	0.81437
-0.00431	1.06945
-0.48884	0.58480
-0.64185	0.63582
-0.53984	0.45726
0.27621	-0.07840
0.63323	-0.89465
1.39828	-0.66508
1.04126	-0.89465
0.48022	-0.51203
-0.48884	1.01843
-1.15188	1.27351
-0.38683	0.99292
0.22521	0.96742
0.32721	0.22769
0.32721	-0.35899
0.45472	-0.94566
0.35272	-0.86914
0.40372	-0.30797
-0.28482	0.89089
0.35272	0.83988
0.32721	0.50828
-0.08081	1.70714
-0.38683	0.91640
-0.15732	-0.89465
-0.05531	-0.38449
0.32721	-0.86914
0.48022	-1.17523
0.53123	-0.46102
0.37822	0.38074
0.14870	0.78886
-0.08081	1.09496
-0.15732	1.06945
-0.25932	0.76336
0.09770	0.25320
0.45472	-0.15492
0.27621	-0.41000
0.19971	-0.25695
0.32721	-0.84363
0.76074	-0.07840
0.25071	0.66132
-0.05531	0.83988
-0.31033	0.22769
-0.48884	0.81437
-0.33583	-0.10391
-0.00431	0.17668
1.09226	0.12566
0.86275	-0.30797
-0.23382	-1.07320
0.30171	0.12566
0.27621	0.48277
0.27621	0.66132
0.22521	0.45726
-0.05531	0.68683
-0.36133	0.32972
-0.48884	0.07465
0.02119	-0.92016
0.17421	-0.97117
0.96476	0.35523
0.42922	-0.28246
0.12320	1.40105
-0.20832	1.60511
0.12320	0.50828
0.02119	0.45726
-0.18282	-0.07840
-0.18282	-2.19554
-0.18282	-1.25176
0.42922	-0.23145
0.88825	0.22769
0.40372	0.43176
0.12320	1.32453
0.17421	1.40105
0.04670	-0.05289
-0.00431	-0.28246
0.14870	0.61031
0.17421	0.02363
0.07220	-0.23145
0.22521	-0.23145
0.63323	-0.33348
0.27621	-0.02739
-0.25932	0.81437
-0.33583	0.66132
0.09770	0.45726
-0.36133	0.68683
-0.36133	0.04914
0.50573	-0.28246
0.22521	-0.56305
0.91375	-0.41000
0.99026	-1.35379
0.42922	-0.66508
-0.15732	2.08976
0.02119	0.99292
0.27621	0.94191
-0.38683	0.02363
-0.51434	0.50828
-0.28482	-0.15492
0.22521	-0.48652
0.68424	-0.71609
0.50573	-1.27726
0.02119	-0.76711
0.02119	2.24281
0.02119	1.86019
-0.02981	0.45726
-0.10631	-0.33348
-0.10631	-0.43551
0.32721	-0.30797
0.35272	-0.51203
0.45472	-0.43551
0.48022	-0.15492
0.37822	0.20219
0.17421	1.09496
-0.00431	1.06945
-0.02981	1.17148
-0.41233	0.55929
-0.43783	0.27871
0.02119	-0.48652
0.70974	-0.74160
0.86275	-0.56305
0.04670	-0.69059
0.19971	0.38074
-0.15732	0.22769
-0.53984	1.27351
0.27621	1.40105
0.12320	1.32453
0.35272	-0.07840
0.60773	-0.92016
0.91375	-1.04770
0.48022	-0.43551
0.45472	-0.15492
0.27621	-0.18043
-0.25932	-0.15492
-0.84586	0.66132
-0.53984	1.42656
0.09770	1.27351
0.27621	0.99292
0.12320	-0.43551
0.12320	-1.45582
-0.61635	-1.02219
-0.05531	-0.02739
0.93925	0.81437
0.68424	0.50828
0.40372	0.35523
0.40372	1.27351
-0.02981	1.06945
-0.13181	-0.25695
-0.08081	-1.17523
0.53123	-0.41000
0.60773	0.40625
0.35272	0.38074
-0.13181	-0.23145
-0.66735	1.01843
-0.18282	1.63062
0.37822	0.53379
0.30171	0.61031
0.32721	0.02363
0.02119	-1.04770
-0.41233	-1.35379
0.19971	-0.48652
0.14870	-0.69059
0.19971	-0.20594
0.48022	1.01843
0.48022	1.19699
0.45472	0.89089
0.19971	0.81437
-0.00431	-1.53234
-0.10631	0.43176
0.42922	0.55929
0.19971	0.58480
0.25071	-0.23145
-0.00431	-0.66508
-0.23382	0.27871
0.02119	0.22769
-0.10631	0.27871
-0.20832	1.14597
0.07220	0.71234
0.19971	0.02363
0.37822	-0.89465
0.45472	-0.86914
0.32721	-1.17523
0.25071	-0.48652
0.12320	1.35003
-0.08081	1.60511
0.09770	0.53379
0.12320	0.35523
0.30171	0.02363
-0.38683	0.66132
-0.15732	-0.18043
0.68424	-0.30797
0.83725	-0.56305
0.63323	-0.02739
-0.18282	0.91640
-0.71835	0.89089
-0.20832	0.07465
-1.25389	0.20219
-0.74385	0.10015
1.24527	-0.43551
1.52579	-0.05289
1.19427	0.30422
1.01576	-0.18043
0.40372	-0.02739
-0.08081	0.63582
-1.25389	0.66132
-0.69285	0.12566
-0.20832	0.61031
-0.08081	0.76336
0.14870	-1.20074
0.17421	-0.89465
0.30171	1.22250
0.63323	0.63582
0.22521	-0.07840
0.12320	0.35523
-0.18282	1.35003
-0.13181	-0.25695
-0.08081	-0.00188
0.14870	0.94191
0.35272	-0.35899
0.63323	-0.79262
0.53123	-0.02739
0.50573	-0.23145
0.32721	0.27871
0.22521	0.89089
-0.25932	-0.10391
-0.02981	-0.12942
-0.51434	0.91640
-0.89686	0.22769
0.02119	-0.35899
0.30171	-0.18043
1.29628	0.22769
0.58223	-0.20594
0.58223	0.15117
0.14870	0.58480
0.02119	0.81437
0.14870	0.63582
-0.33583	0.55929
-0.84586	0.38074
-0.00431	-0.20594
0.48022	-0.79262
1.16877	-1.40480
0.68424	-1.07320
0.45472	0.78886
-0.08081	1.78367
-0.61635	1.42656
-0.33583	-0.66508
-0.02981	0.53379
0.02119	0.20219
0.19971	-1.09871
0.30171	-0.00188
-0.08081	0.40625
0.60773	0.07465
0.78624	0.22769
0.17421	0.12566
0.04670	0.76336
-0.18282	0.30422
-0.33583	0.07465
-0.02981	-0.15492
0.22521	-0.10391
0.53123	0.50828
0.55673	-0.48652
0.60773	-1.48133
0.02119	0.48277
-0.43783	1.60511
-0.15732	1.37554
0.04670	0.25320
0.22521	0.66132
-0.02981	0.66132
-0.18282	-0.18043
-0.08081	-0.46102
0.27621	-0.66508
0.81175	-0.81812
0.35272	-0.02739
0.73524	0.58480
-0.00431	0.76336
-0.05531	-0.41000
0.07220	0.66132
0.19971	1.19699
-0.00431	-0.18043
0.30171	0.58480
0.17421	0.10015
0.07220	-1.60887
0.42922	-1.73640
0.09770	0.61031
-0.15732	1.70714
-0.13181	2.01323
-0.25932	1.22250
-0.08081	-0.28246
0.12320	-1.07320
0.37822	-0.56305
0.32721	-0.23145
0.35272	-0.51203
0.60773	-0.25695
0.04670	0.53379
-0.20832	0.83988
0.22521	1.12046
0.09770	0.45726
0.02119	0.10015
-0.00431	0.22769
0.32721	-0.25695
0.73524	-0.28246
0.53123	-0.41000
-0.02981	0.27871
0.09770	0.76336
-0.25932	0.68683
-0.43783	0.12566
-0.10631	0.68683
0.32721	0.22769
0.19971	-0.61406
0.83725	-0.97117
0.58223	0.53379
0.45472	-1.17523
-0.05531	-0.07840
-0.20832	0.43176
0.12320	1.22250
-0.08081	0.66132
-0.31033	1.14597
-0.20832	0.76336
0.17421	-1.63437
0.42922	-1.40480
0.37822	0.40625
0.30171	1.17148
0.02119	0.53379
-0.02981	-0.20594
0.07220	0.15117
0.12320	0.66132
0.09770	0.32972
0.25071	0.58480
0.19971	-0.18043
-0.05531	-0.53754
0.53123	-0.23145
0.81175	-0.35899
0.65874	0.27871
-0.05531	0.22769
-0.94787	0.50828
-0.02981	0.96742
0.07220	0.96742
0.35272	0.50828
0.30171	-0.12942
-0.15732	-0.30797
0.37822	-0.76711
0.48022	-1.25176
0.42922	-0.35899
0.42922	0.99292
0.14870	0.50828
0.12320	1.17148
-0.10631	1.42656
-0.20832	1.12046
-0.66735	-0.86914
-0.31033	-0.94566
0.40372	-0.46102
0.55673	-0.53754
0.70974	-0.30797
0.35272	0.32972
-0.00431	0.71234
0.12320	0.17668
-0.02981	1.29902
-0.02981	1.32453
0.04670	-0.10391
-0.00431	-0.35899
-0.13181	-0.84363
0.32721	-0.97117
0.63323	0.38074
0.42922	0.50828
0.27621	0.48277
-0.02981	0.22769
-0.38683	0.35523
0.07220	0.53379
0.30171	0.02363
0.48022	-0.63957
0.70974	-0.02739
0.25071	-0.18043
-0.00431	0.04914
-0.23382	0.89089
-0.64185	1.68163
0.12320	1.06945
0.48022	0.89089
0.25071	-0.12942
-0.53984	-1.07320
-0.10631	-1.32828
-0.02981	-0.81812
0.91375	-0.66508
0.88825	0.17668
0.96476	0.27871
0.53123	0.68683
0.04670	1.12046
-0.10631	1.14597
-0.05531	0.68683
-0.10631	-0.30797
-0.15732	-0.51203
-0.13181	-0.20594
0.35272	-0.97117
0.22521	-0.46102
-0.10631	0.15117
-0.15732	0.66132
0.04670	1.22250
0.09770	1.75816
0.12320	1.14597
0.07220	-1.60887
0.12320	-0.99668
0.50573	0.94191
0.53123	-0.63957
0.42922	-0.76711
0.25071	-0.51203
-0.15732	0.50828
-0.13181	0.94191
-0.20832	1.40105
-0.05531	0.55929
0.17421	-0.18043
0.45472	-0.38449
0.35272	-0.46102
0.37822	-0.46102
0.45472	0.32972
-0.05531	0.55929
0.17421	0.86539
-0.15732	0.81437
-0.74385	0.66132
-1.40690	0.04914
0.40372	-0.43551
1.27078	-0.76711
0.83725	-0.18043
0.76074	-0.12942
0.99026	0.04914
0.09770	0.71234
-0.02981	0.58480
-0.00431	0.66132
0.19971	1.19699
-0.25932	0.07465
-0.10631	-1.22625
0.17421	-0.58856
0.19971	-0.53754
0.40372	-0.12942
0.17421	0.30422
0.02119	1.19699
-0.41233	-0.15492
-0.23382	2.34484
-0.20832	2.08976
-0.05531	0.55929
0.32721	-1.22625
0.73524	-1.71090
0.58223	-0.92016
0.37822	0.15117
0.22521	-0.35899
0.09770	0.04914
0.17421	0.45726
-0.02981	0.22769
-0.00431	1.55410
0.09770	0.78886
0.32721	-0.66508
0.35272	-0.35899
-0.02981	0.15117
-0.23382	-0.10391
-0.00431	0.22769
0.37822	0.76336
-0.23382	0.73785
0.17421	0.35523
0.32721	0.76336
0.09770	0.89089
0.25071	-0.53754
0.32721	-1.53234
0.45472	-0.99668
0.37822	0.04914
0.35272	0.35523
0.14870	0.68683
-0.25932	0.38074
-0.66735	-0.28246
-0.43783	1.09496
-0.25932	0.61031
0.17421	-0.35899
0.53123	0.32972
1.09226	0.40625
0.99026	-0.76711
0.63323	-0.79262
0.17421	-0.25695
-0.02981	0.86539
-0.48884	0.78886
-0.97337	0.68683
-0.64185	-0.05289
0.55673	-0.30797
1.04126	0.02363
0.70974	0.12566
0.58223	-0.92016
0.27621	0.58480
0.04670	1.24800
-0.25932	0.86539
0.09770	0.35523
-0.28482	0.15117
-0.33583	-0.10391
-0.18282	-0.30797
0.12320	-0.20594
0.35272	-0.71609
0.58223	-1.14973
0.70974	-0.12942
0.50573	1.40105
0.17421	1.29902
-0.05531	0.89089
-0.36133	0.68683
-0.79486	-0.25695
0.45472	-0.46102
0.53123	-0.18043
0.48022	-0.38449
0.48022	0.04914
0.04670	0.10015
0.02119	0.76336
-0.02981	0.89089
-0.10631	0.40625
-0.05531	1.40105
0.09770	-0.66508
0.35272	-0.89465
0.65874	-0.18043
0.45472	-0.28246
0.30171	-0.71609
0.22521	-0.79262
0.04670	1.17148
-0.15732	1.12046
-0.28482	0.58480
-0.43783	0.89089
-0.28482	0.25320
0.48022	-0.38449
0.68424	-0.23145
0.45472	-0.02739
0.48022	-0.46102
0.27621	0.17668
-0.00431	0.76336
-0.05531	0.66132
-0.10631	-0.07840
0.02119	0.55929
0.50573	0.45726
0.73524	-0.25695
0.07220	-0.43551
-1.02437	-0.07840
-0.10631	-0.61406
0.76074	-0.07840
0.91375	0.32972
0.55673	0.22769
0.19971	1.60511
0.02119	0.73785
-0.69285	0.55929
-0.08081	-0.79262
0.32721	-0.35899
0.32721	-0.23145
0.42922	-0.81812
0.50573	0.12566
0.14870	1.50308
-0.23382	0.73785
-0.25932	-1.02219
-0.18282	0.83988
-0.23382	0.66132
0.09770	0.02363
0.45472	-0.56305
0.53123	-0.43551
0.55673	-0.25695
0.55673	0.43176
0.27621	0.71234
-0.08081	0.55929
-0.25932	-0.15492
-0.20832	0.48277
0.02119	0.68683
0.25071	-0.18043
0.50573	-0.23145
0.83725	-0.12942
0.58223	-0.63957
0.37822	-0.20594
-0.20832	0.94191
-0.89686	0.53379
-0.56534	0.43176
-0.48884	0.91640
-0.23382	0.22769
1.09226	-0.63957
1.24527	-0.05289
1.09226	-0.46102
0.63323	-1.27726
0.42922	0.32972
0.02119	1.80917
-0.79486	0.45726
-1.20288	-0.05289
-0.38683	0.35523
0.25071	0.45726
0.37822	-0.25695
0.68424	1.01843
0.50573	0.15117
0.40372	-0.74160
0.48022	-0.58856
0.17421	0.25320
-0.18282	1.35003
-0.33583	1.37554
-0.18282	-0.66508
-0.43783	-0.86914
-0.13181	-0.97117
0.65874	-0.23145
0.73524	0.30422
0.68424	0.04914
0.58223	0.91640
-0.08081	1.65613
-0.61635	0.71234
-0.41233	0.10015
0.12320	0.76336
0.30171	0.25320
0.40372	-0.58856
0.30171	-0.63957
0.22521	-0.18043
-0.18282	-0.02739
0.83725	-0.48652
0.48022	0.17668
0.19971	1.17148
-0.31033	0.78886
-0.82036	0.63582
-0.48884	0.68683
0.48022	-0.35899
0.86275	-0.76711
0.63323	-0.56305
0.58223	-0.71609
0.30171	-0.15492
0.22521	0.63582
-0.46334	0.94191
-1.15188	0.22769
-0.38683	1.57960
0.07220	0.71234
0.48022	-0.63957
0.68424	-0.15492
0.70974	0.68683
0.68424	-0.51203
0.17421	-0.58856
0.02119	0.12566
-0.15732	0.76336
-0.28482	0.32972
-0.28482	1.04394
-0.20832	0.61031
0.19971	-1.17523
0.55673	-1.40480
0.83725	-0.23145
0.63323	0.04914
0.22521	0.53379
-0.08081	0.96742
0.02119	1.22250
-0.08081	0.99292
-0.38683	0.78886
-0.25932	0.17668
-0.46334	-0.33348
0.14870	-0.61406
0.96476	-0.61406
0.91375	-0.46102
0.58223	0.10015
0.09770	0.55929
-0.05531	0.50828
-0.18282	0.83988
-0.02981	0.76336
-0.18282	0.38074
-0.08081	-0.51203
0.42922	-0.99668
0.42922	-0.43551
0.30171	-0.23145
0.02119	-0.12942
-0.05531	0.61031
-0.15732	1.14597
0.09770	1.09496
0.09770	0.48277
0.22521	-0.69059
0.40372	0.10015
0.22521	-0.10391
-0.00431	-0.07840
0.65874	-0.38449
0.37822	0.22769
0.12320	0.58480
0.30171	0.53379
0.25071	0.50828
-0.05531	0.68683
-0.66735	0.17668
-1.07538	-1.32828
-0.15732	-1.22625
1.11776	0.43176
1.06676	-0.46102
0.63323	0.63582
0.17421	1.22250
-0.08081	1.06945
-0.15732	0.76336
0.35272	0.50828
0.17421	0.35523
0.14870	-0.23145
-0.00431	-0.86914
0.45472	-0.76711
0.42922	-0.92016
0.32721	-0.56305
0.09770	0.89089
-0.28482	0.48277
-0.28482	1.60511
-0.28482	1.42656
-0.20832	0.35523
0.17421	-0.38449
0.37822	-0.15492
0.27621	-0.28246
0.45472	-0.84363
0.70974	-0.74160
0.35272	-0.23145
0.07220	-0.02739
0.12320	1.37554
-0.15732	1.73265
-0.38683	0.66132
-0.02981	-0.33348
-0.02981	-0.74160
0.30171	-0.25695
0.55673	-0.30797
0.73524	0.07465
0.42922	0.63582
0.19971	0.48277
-0.25932	0.55929
-0.31033	0.66132
-0.48884	0.30422
0.02119	-0.58856
0.32721	-0.38449
0.40372	-0.12942
0.63323	-0.35899
0.76074	0.25320
0.19971	0.53379
-1.27939	0.66132
-0.92237	0.12566
-0.71835	0.76336
0.81175	1.12046
1.01576	0.07465
1.01576	-0.71609
0.88825	-0.63957
0.68424	-0.58856
0.35272	-0.28246
-0.33583	0.89089
-0.56534	0.45726
-0.59084	1.55410
-0.25932	-0.61406
-0.00431	-1.76191
0.35272	0.22769
0.48022	0.50828
0.35272	1.01843
0.30171	0.04914
0.35272	-0.35899
0.14870	0.66132
-0.08081	0.27871
-0.23382	0.89089
0.02119	1.37554
0.07220	0.35523
0.32721	-0.92016
0.53123	-1.04770
0.35272	-0.81812
0.42922	-0.56305
0.37822	0.15117
-0.18282	0.99292
-0.43783	0.58480
0.07220	0.17668
-0.41233	0.89089
0.25071	0.50828
0.53123	-0.35899
-0.08081	-0.35899
0.22521	0.35523
-0.18282	-0.18043
0.53123	0.15117
1.04126	0.55929
0.55673	0.66132
0.09770	0.35523
-0.33583	0.20219
-1.22839	-0.79262
-0.41233	-0.23145
0.86275	0.50828
0.48022	0.58480
-0.10631	-0.76711
0.17421	-1.07320
0.65874	-0.05289
0.22521	0.81437
0.12320	0.45726
0.02119	1.78367
-0.31033	1.52859
-0.46334	-1.14973
0.22521	-0.74160
0.65874	0.50828
0.37822	-0.12942
0.22521	-1.09871
0.22521	0.86539
0.04670	0.66132
0.02119	0.35523
-0.18282	0.22769
-0.18282	-0.33348
0.17421	-0.35899
0.70974	-0.02739
0.53123	-0.12942
0.19971	-1.07320
0.09770	-0.05289
0.40372	1.14597
0.30171	1.32453
0.14870	0.91640
-0.31033	0.91640
-0.41233	0.53379
-0.56534	-0.30797
0.58223	-0.51203
0.45472	-0.48652
-0.05531	-0.76711
0.25071	-0.07840
0.37822	0.50828
0.53123	0.45726
0.45472	0.25320
0.22521	0.48277
0.12320	0.43176
-0.00431	-0.20594
0.04670	-0.43551
0.45472	-0.00188
0.37822	-0.05289
0.35272	-0.28246
0.09770	0.35523
-0.02981	0.30422
-0.15732	1.68163
-0.15732	1.06945
-0.56534	-1.43031
-0.33583	1.09496
-0.23382	-0.18043
0.91375	-0.58856
1.34728	-0.66508
1.01576	-0.23145
0.42922	0.48277
-0.41233	0.83988
-0.25932	0.66132
0.09770	0.35523
0.12320	0.27871
-0.02981	-0.00188
-0.08081	-0.28246
-0.38683	-0.02739
0.50573	-0.18043
0.68424	0.20219
0.22521	0.76336
0.19971	0.63582
-0.10631	0.32972
-0.31033	0.50828
0.14870	0.15117
-0.18282	-0.46102
0.09770	-0.66508
0.22521	-0.23145
0.73524	-0.41000
0.76074	0.10015
-0.25932	0.43176
-0.46334	0.55929
-0.00431	0.81437
0.27621	0.73785
0.27621	0.43176
0.42922	-0.48652
0.35272	-0.41000
0.37822	0.07465
0.30171	-0.28246
0.09770	0.43176
-0.10631	0.91640
-0.20832	0.15117
-0.23382	-0.41000
-0.20832	0.53379
-0.10631	0.96742
0.09770	-0.86914
0.35272	0.32972
0.35272	-0.00188
0.60773	-0.81812
0.65874	0.55929
0.37822	1.17148
0.09770	0.73785
-0.15732	0.04914
-0.28482	0.22769
0.12320	-0.07840
0.14870	-0.58856
-0.08081	-0.81812
-0.10631	-0.38449
0.19971	-0.30797
0.88825	0.15117
0.76074	0.76336
0.42922	1.06945
0.04670	0.68683
-0.25932	0.86539
-0.48884	0.61031
-0.69285	-0.05289
0.76074	-0.41000
0.53123	-0.10391
0.40372	-0.79262
0.63323	-0.61406
0.42922	0.68683
0.22521	1.52859
-0.18282	1.68163
-0.82036	1.01843
-0.71835	-0.18043
0.09770	-1.99148
0.40372	-0.99668
0.58223	-0.99668
0.65874	-0.02739
0.50573	-0.46102
0.04670	0.78886
0.02119	0.91640
-0.00431	1.12046
-0.05531	0.99292
-0.02981	0.20219
0.30171	0.96742
0.30171	0.15117
0.25071	-0.30797
0.37822	-0.99668
0.63323	-0.25695
0.12320	0.12566
-0.25932	0.22769
-0.64185	0.27871
-0.23382	0.53379
0.53123	0.43176
0.78624	-0.02739
0.17421	-0.38449
0.04670	-0.38449
0.22521	-0.66508
0.02119	-0.00188
-0.79486	1.06945
-0.02981	1.35003
1.19427	-0.00188
0.19971	0.30422
0.12320	-0.10391
0.78624	0.04914
0.55673	-0.35899
0.45472	-0.10391
0.35272	0.02363
0.07220	-0.02739
-0.18282	-0.07840
-0.46334	0.32972
-0.33583	0.76336
-0.38683	0.83988
-0.43783	0.04914
-0.20832	-0.12942
0.17421	-0.35899
0.50573	0.63582
0.58223	-0.71609
0.65874	0.58480
0.25071	1.14597
0.02119	0.63582
0.14870	0.07465
0.09770	-0.35899
0.07220	-0.66508
0.19971	0.15117
0.32721	-0.48652
0.09770	-0.66508
0.30171	-0.00188
0.68424	0.58480
0.70974	1.27351
-0.00431	1.86019
-0.87136	0.68683
-0.79486	-0.25695
-0.36133	-0.20594
0.45472	-0.18043
0.12320	-0.15492
0.35272	-0.46102
0.35272	-0.53754
1.11776	0.10015
0.30171	0.94191
-0.28482	0.73785
0.48022	0.15117
0.22521	0.43176
-0.08081	0.35523
-0.31033	-0.28246
0.02119	-0.53754
0.27621	-0.43551
0.58223	-0.86914
0.45472	-0.12942
0.04670	0.89089
-0.23382	1.65613
-0.23382	1.42656
-0.31033	0.76336
-0.33583	-0.71609
0.17421	-0.81812
0.53123	-0.30797
0.50573	0.25320
0.50573	0.15117
0.40372	-0.89465
0.12320	-1.45582
-0.02981	0.22769
0.12320	1.40105
0.07220	1.98773
-0.02981	1.22250
0.19971	-0.10391
0.42922	-0.69059
0.04670	-0.38449
0.45472	0.04914
0.40372	-0.46102
0.14870	-0.43551
-0.28482	1.01843
-0.23382	1.17148
0.07220	0.78886
0.30171	0.07465
0.37822	-0.02739
-0.02981	-0.20594
0.12320	-0.33348
0.65874	-0.76711
0.65874	-0.30797
0.35272	0.73785
-0.10631	0.38074
-0.38683	1.68163
-0.51434	0.73785
-0.15732	-0.00188
-0.02981	-0.15492
0.35272	-1.14973
0.42922	-1.55785
0.53123	-1.65988
0.48022	0.07465
-0.10631	1.42656
-0.00431	2.19179
-0.13181	0.78886
-0.05531	1.09496
0.09770	0.71234
