0.02119	0.40625
0.93925	0.07465
0.19971	0.15117
-0.59084	-0.25695
0.19971	0.17668
-0.00431	-0.33348
0.25071	0.12566
0.14870	0.22769
0.19971	0.22769
-0.69285	0.45726
0.65874	0.45726
0.27621	0.12566
0.12320	0.15117
0.30171	-0.05289
1.14327	0.02363
0.91375	-0.05289
-1.17738	-0.15492
-0.33583	0.32972
-0.69285	0.15117
0.50573	0.12566
0.78624	0.61031
0.60773	0.20219
0.50573	0.20219
-0.64185	-0.00188
0.09770	0.25320
0.70974	0.07465
0.45472	-0.00188
-0.08081	-0.00188
-0.10631	0.15117
-1.07538	0.02363
-0.84586	-0.05289
-0.20832	0.32972
0.83725	0.27871
1.62780	0.25320
0.93925	0.15117
-0.94787	-0.12942
0.25071	-0.05289
1.34728	0.48277
-1.76392	-0.02739
-1.40690	0.48277
0.83725	0.89089
0.50573	-0.02739
1.34728	-0.00188
1.70430	-0.10391
-0.61635	-0.07840
-0.00431	-0.20594
0.50573	-0.02739
1.27078	0.12566
-0.64185	-0.10391
-3.77855	0.04914
-1.66191	0.17668
1.83181	0.35523
1.34728	0.78886
2.26534	0.35523
0.70974	0.45726
0.63323	-0.46102
-2.32496	0.25320
-1.38139	0.32972
1.55129	-0.07840
1.32178	-0.05289
-1.02437	0.32972
2.26534	0.04914
-0.08081	0.10015
-3.26852	0.27871
-0.66735	0.04914
1.11776	-0.12942
0.09770	0.20219
1.11776	0.20219
1.06676	-0.05289
0.17421	-0.18043
0.30171	0.30422
-1.58541	0.17668
0.42922	0.53379
1.72980	0.25320
2.31634	0.04914
0.45472	0.20219
-3.57454	0.35523
0.35272	0.12566
-0.08081	0.61031
-1.04987	-0.05289
0.19971	-0.28246
0.07220	-0.20594
-0.56534	0.12566
1.04126	0.22769
1.47479	-0.02739
1.78081	-0.28246
0.40372	0.50828
0.60773	0.38074
-0.33583	0.15117
-1.04987	-0.28246
-0.25932	0.48277
0.22521	0.48277
-0.36133	0.35523
1.50029	-0.25695
-0.05531	-0.00188
-0.99887	0.48277
0.58223	0.35523
-0.33583	0.02363
-0.38683	0.10015
-0.02981	-0.41000
0.63323	0.30422
0.73524	0.22769
0.12320	-0.18043
0.25071	-0.10391
-0.38683	0.40625
1.70430	0.43176
1.72980	0.22769
-0.74385	-0.18043
-0.20832	0.32972
-0.08081	0.22769
-1.35589	0.20219
0.68424	0.15117
0.42922	0.17668
0.04670	0.07465
-0.25932	-0.20594
-0.92237	-0.20594
-0.41233	0.04914
0.78624	0.55929
2.03582	0.12566
1.04126	0.04914
0.19971	0.07465
-0.79486	0.35523
-1.33039	-0.05289
-0.56534	0.40625
0.68424	0.20219
1.24527	-0.23145
0.35272	0.07465
-0.10631	-0.02739
-0.25932	-0.05289
-0.28482	0.35523
0.63323	0.32972
0.93925	0.43176
0.63323	0.02363
0.68424	0.15117
0.32721	0.20219
0.09770	0.12566
0.48022	0.15117
1.01576	-0.18043
-2.45246	-0.41000
-1.63641	0.20219
-0.08081	0.32972
-0.00431	1.06945
1.44929	0.35523
0.99026	-0.18043
0.14870	-0.30797
0.58223	-0.07840
0.48022	-0.02739
-0.46334	0.50828
0.53123	0.40625
-0.53984	-0.10391
-3.06450	0.10015
-0.51434	0.55929
2.01032	-0.15492
1.93382	-0.18043
0.32721	0.12566
-0.31033	0.40625
-0.25932	0.27871
0.88825	0.35523
0.93925	-0.00188
0.37822	0.32972
-0.28482	0.48277
-0.20832	0.30422
-0.05531	0.22769
0.02119	-0.12942
-0.18282	-0.05289
0.27621	0.12566
0.53123	0.07465
-1.84042	0.38074
-0.59084	-0.10391
0.55673	0.04914
2.23984	-0.00188
0.60773	-0.00188
-1.53441	0.25320
-0.00431	0.04914
1.14327	0.15117
0.32721	0.02363
0.12320	0.20219
0.12320	0.35523
0.17421	-0.12942
0.70974	0.38074
1.06676	0.50828
1.80631	0.15117
-1.50890	-0.35899
-1.91693	-0.30797
-1.63641	0.30422
-1.15188	0.17668
3.82094	0.12566
0.70974	0.32972
-1.55991	0.07465
-0.79486	0.15117
-1.86593	0.38074
1.14327	-0.15492
2.06133	0.12566
1.50029	0.35523
0.12320	0.17668
0.53123	0.35523
0.30171	-0.05289
1.65330	0.43176
-0.41233	0.50828
-5.79318	-0.35899
-0.08081	-0.35899
1.32178	-0.74160
0.93925	0.35523
1.14327	0.35523
1.16877	0.32972
1.14327	0.25320
-1.15188	-0.25695
-0.15732	0.30422
0.07220	0.30422
0.96476	0.68683
-0.13181	0.35523
0.30171	0.15117
1.16877	-0.12942
1.88281	-0.10391
-2.55447	0.12566
-3.31952	-0.12942
-0.00431	-0.18043
1.06676	0.04914
-0.97337	0.12566
-0.51434	0.35523
0.93925	0.76336
1.14327	-0.15492
2.67337	0.15117
2.46935	-0.07840
-0.02981	0.15117
-1.15188	0.12566
-1.43240	0.30422
1.09226	0.50828
0.42922	0.20219
-1.07538	0.30422
-1.48340	0.10015
0.63323	-0.10391
-1.20288	-0.02739
0.55673	0.35523
2.54586	-0.30797
-1.76392	0.25320
-0.56534	0.48277
1.37278	0.15117
1.32178	0.12566
0.07220	-0.05289
-0.28482	-0.00188
0.50573	-0.00188
2.06133	0.04914
0.07220	0.35523
-2.96250	-0.05289
-2.52897	0.04914
-0.13181	0.04914
1.14327	0.22769
0.73524	-0.07840
0.83725	0.20219
1.98482	0.40625
-0.89686	0.30422
0.04670	0.38074
1.32178	-0.02739
-1.07538	0.04914
0.42922	-0.33348
-2.17195	-0.46102
0.22521	-0.48652
0.50573	0.40625
0.99026	0.66132
0.19971	0.63582
1.55129	0.66132
0.19971	0.35523
-0.00431	0.40625
0.09770	-0.43551
-0.05531	-0.12942
-0.13181	-0.58856
-0.48884	-0.07840
0.68424	0.53379
-0.18282	0.25320
0.40372	0.02363
1.75531	0.40625
-2.55447	-0.05289
-1.10088	0.25320
0.99026	0.43176
1.44929	0.12566
0.48022	-0.00188
-0.76936	0.15117
0.99026	0.32972
2.03582	0.45726
0.81175	0.61031
-3.09000	-0.02739
-1.10088	0.10015
0.30171	-0.28246
0.48022	-0.10391
0.78624	0.68683
0.30171	-0.05289
0.73524	0.10015
1.06676	0.10015
-0.08081	0.02363
-1.35589	-0.00188
-0.20832	0.15117
0.68424	0.04914
0.63323	0.07465
-0.76936	0.55929
-0.25932	0.27871
1.09226	-0.18043
0.14870	-0.15492
-0.82036	0.35523
1.19427	0.04914
0.60773	0.32972
0.99026	-0.07840
-1.96793	0.20219
0.42922	-0.18043
1.06676	-0.18043
-1.02437	0.20219
-0.59084	0.25320
-1.10088	0.58480
0.70974	-0.12942
0.32721	-0.00188
0.93925	-0.07840
0.93925	1.04394
-0.28482	0.53379
0.86275	0.10015
0.02119	-0.38449
1.11776	-0.41000
-0.10631	0.35523
-1.94243	-0.02739
0.83725	-0.15492
0.99026	0.15117
-0.33583	0.35523
-1.50890	0.12566
0.27621	0.53379
0.73524	0.07465
1.60230	0.07465
-1.48340	0.27871
0.86275	0.63582
-0.20832	0.10015
0.07220	-0.53754
0.22521	0.27871
0.32721	0.20219
-0.48884	0.40625
0.27621	0.12566
0.09770	-0.00188
0.76074	0.27871
0.48022	0.22769
-0.15732	0.02363
0.45472	0.15117
0.09770	-0.15492
-1.89143	0.58480
1.09226	0.17668
0.76074	0.25320
0.63323	0.30422
-0.56534	0.10015
-0.36133	-0.07840
0.55673	0.02363
-1.25389	-0.00188
1.16877	0.32972
0.99026	-0.20594
-0.15732	-0.07840
0.02119	0.50828
-0.38683	0.38074
1.29628	0.12566
0.22521	0.35523
0.25071	-0.23145
0.32721	-0.15492
0.37822	0.20219
0.45472	0.22769
-1.71292	0.61031
-1.38139	-0.05289
0.25071	0.20219
0.70974	-0.00188
0.50573	0.22769
0.40372	0.17668
0.88825	0.04914
1.06676	0.43176
-0.46334	0.12566
-1.17738	0.10015
0.96476	0.07465
2.01032	0.27871
-0.71835	-0.25695
-1.10088	0.22769
-1.07538	0.38074
1.72980	0.40625
-0.28482	-0.10391
1.57679	-0.12942
0.76074	-0.23145
-1.58541	0.27871
0.83725	0.53379
0.91375	0.45726
-0.10631	0.22769
-0.82036	-0.07840
0.45472	0.17668
-0.89686	-0.10391
-1.43240	0.07465
0.93925	0.30422
2.97938	0.25320
-0.38683	0.22769
-1.25389	0.66132
0.45472	-0.10391
0.17421	0.20219
0.73524	-0.02739
1.29628	0.40625
0.09770	0.20219
-0.48884	-0.02739
-0.71835	0.07465
-1.48340	0.40625
0.78624	0.25320
0.83725	-0.15492
1.27078	0.25320
-0.43783	-0.05289
-0.18282	0.02363
-0.10631	0.02363
0.30171	0.17668
1.80631	-0.00188
0.35272	0.38074
-1.10088	0.04914
-1.71292	0.20219
-0.74385	0.02363
0.50573	0.04914
0.12320	0.17668
1.42379	0.58480
2.95388	0.43176
-1.10088	0.30422
-1.58541	-0.07840
0.30171	-0.02739
1.34728	0.20219
-1.45790	0.27871
-0.13181	-0.30797
0.93925	0.32972
0.73524	0.32972
0.73524	0.25320
-0.10631	-0.18043
-0.10631	-0.02739
-0.02981	0.45726
0.17421	0.32972
-0.74385	0.10015
-0.53984	0.02363
0.60773	0.07465
0.78624	0.32972
0.45472	0.38074
0.30171	0.10015
-0.05531	0.02363
0.37822	0.02363
0.63323	-0.05289
-0.56534	0.02363
0.12320	0.17668
-0.15732	0.04914
-0.82036	0.02363
0.93925	0.38074
0.99026	0.25320
0.02119	0.25320
0.35272	0.43176
0.42922	0.10015
-2.17195	0.04914
1.14327	0.15117
0.19971	-0.07840
-0.53984	0.02363
0.78624	0.15117
-0.36133	0.20219
0.65874	0.45726
1.65330	0.15117
0.37822	0.22769
0.12320	0.07465
0.04670	-0.23145
-0.18282	0.48277
-0.61635	0.10015
-1.20288	-0.38449
-0.25932	0.30422
0.12320	0.30422
0.42922	0.12566
0.81175	-0.07840
0.81175	0.12566
0.12320	0.22769
0.27621	0.35523
0.32721	0.35523
0.42922	0.15117
-0.02981	-0.23145
-1.10088	-0.05289
-1.10088	0.32972
0.58223	0.55929
0.73524	-0.48652
0.02119	0.40625
0.76074	0.10015
-0.71835	0.15117
-0.28482	0.40625
1.16877	0.04914
1.34728	-0.00188
-0.25932	0.22769
0.17421	0.15117
0.48022	0.10015
0.42922	0.30422
-0.23382	0.07465
-0.51434	-0.05289
0.35272	-0.02739
-0.05531	-0.25695
-0.66735	0.25320
0.40372	0.35523
0.12320	0.35523
-0.99887	0.45726
1.32178	-0.10391
0.93925	0.20219
-0.74385	-0.05289
0.78624	0.20219
0.65874	-0.15492
0.53123	-0.00188
0.09770	0.35523
-0.31033	0.12566
-0.18282	0.40625
0.50573	0.00000
0.42922	0.07465
-0.20832	-0.02739
-0.48884	-0.02739
0.40372	0.27871
0.45472	0.25320
-1.91693	-0.05289
-0.59084	-0.18043
0.78624	-0.10391
0.73524	-0.33348
2.23984	0.45726
0.02119	0.15117
-0.48884	0.76336
0.88825	0.61031
0.12320	0.12566
0.76074	0.04914
0.40372	0.53379
-0.43783	0.15117
0.55673	0.04914
0.19971	-0.10391
-0.76936	0.35523
0.07220	-0.18043
-1.15188	-0.18043
0.19971	-0.35899
0.93925	0.30422
-0.13181	0.25320
0.73524	0.55929
0.73524	0.15117
0.83725	-0.23145
0.35272	0.15117
-0.08081	0.15117
0.63323	0.32972
0.14870	0.35523
-1.89143	-0.12942
-0.28482	0.45726
0.68424	0.10015
1.95932	-0.35899
-0.23382	-0.43551
-2.45246	0.43176
0.25071	0.35523
-0.74385	0.50828
1.65330	0.15117
2.23984	0.12566
2.11233	0.20219
-0.28482	-0.18043
0.02119	0.45726
-0.08081	0.48277
0.19971	-0.10391
-0.51434	-0.33348
-1.17738	0.15117
-0.59084	0.22769
-0.36133	0.25320
0.88825	0.12566
0.04670	-0.15492
-0.92237	0.58480
1.75531	0.07465
1.39828	0.35523
-1.63641	0.02363
0.19971	-0.35899
0.12320	0.12566
1.04126	0.45726
0.07220	0.17668
1.01576	0.17668
1.04126	0.10015
0.02119	0.45726
-0.56534	0.15117
-0.71835	0.15117
0.27621	-0.23145
-0.00431	0.35523
0.19971	0.10015
-0.82036	0.40625
-1.43240	0.15117
0.35272	-0.20594
1.27078	-0.00188
0.42922	-0.00188
0.25071	0.20219
-0.20832	0.02363
0.60773	0.12566
-0.00431	0.12566
-0.31033	0.38074
0.60773	0.25320
1.24527	0.32972
-0.69285	-0.00188
0.30171	0.17668
-0.15732	0.15117
-0.00431	0.35523
-0.18282	0.04914
-0.41233	-0.05289
1.65330	0.15117
0.60773	-0.18043
-2.06994	0.17668
0.07220	0.32972
0.17421	0.15117
0.02119	0.22769
1.11776	-0.02739
-0.13181	-0.07840
0.27621	-0.12942
1.42379	0.30422
0.19971	0.10015
-0.15732	0.35523
-1.35589	0.63582
-1.48340	-0.00188
0.96476	0.12566
1.32178	-0.25695
0.22521	0.12566
0.37822	0.27871
0.32721	0.20219
-0.59084	-0.05289
0.19971	0.22769
-0.15732	0.15117
0.14870	0.17668
1.04126	0.32972
0.63323	-0.23145
-0.13181	0.20219
-0.71835	0.83988
0.32721	0.10015
-0.25932	-0.15492
0.81175	-0.00188
-0.00431	0.22769
0.14870	0.15117
0.19971	0.27871
-0.23382	0.07465
0.81175	0.48277
0.58223	-0.00188
-1.02437	-0.10391
-0.79486	-0.18043
-0.38683	0.04914
-0.33583	0.12566
0.12320	0.22769
1.83181	0.63582
1.55129	0.61031
0.58223	-0.15492
-0.05531	-0.23145
-0.33583	-0.00188
-1.10088	-0.15492
-0.02981	0.07465
0.30171	0.45726
0.14870	0.12566
-0.23382	0.04914
-0.36133	-0.12942
-0.13181	0.30422
0.09770	0.12566
0.53123	0.22769
1.27078	0.48277
0.48022	0.17668
-0.48884	0.02363
0.91375	-0.00188
-0.76936	0.12566
-1.27939	-0.10391
1.83181	-0.00188
0.86275	0.27871
-1.89143	-0.05289
-0.38683	0.32972
1.39828	-0.18043
0.65874	-0.43551
1.47479	0.43176
-0.23382	0.22769
-2.42696	0.25320
1.65330	0.25320
-0.10631	0.32972
-0.53984	-0.25695
-0.02981	0.38074
1.16877	0.10015
0.22521	0.04914
-0.00431	-0.00188
-0.74385	0.17668
0.02119	0.27871
1.52579	0.66132
-0.02981	0.20219
-1.84042	0.12566
-0.23382	-0.48652
1.01576	-0.05289
1.65330	-0.07840
0.76074	-0.18043
-1.58541	0.07465
-0.48884	0.02363
0.48022	0.38074
1.04126	0.20219
0.68424	0.10015
1.21977	0.45726
-1.22839	0.30422
0.02119	0.71234
-0.89686	0.10015
0.14870	0.27871
0.45472	-0.05289
0.40372	-0.79262
0.76074	-0.25695
-0.10631	0.32972
0.07220	0.55929
0.12320	0.12566
-0.02981	0.25320
0.02119	-0.00188
1.93382	0.61031
-0.74385	0.61031
-2.09544	0.10015
0.12320	-0.28246
1.29628	-0.00188
0.93925	0.22769
0.55673	0.20219
1.09226	0.25320
-0.28482	0.02363
-0.99887	0.32972
-0.25932	-0.20594
-0.08081	-0.20594
0.78624	0.22769
0.96476	0.17668
1.06676	0.27871
-0.18282	0.45726
-0.94787	0.15117
0.27621	0.38074
0.17421	0.07465
0.68424	0.35523
-0.23382	-0.00188
-0.64185	-0.30797
-0.43783	-0.33348
1.21977	0.38074
0.30171	0.32972
-0.71835	-0.10391
0.55673	-0.10391
-0.10631	0.12566
-0.94787	0.04914
0.81175	0.25320
0.88825	0.71234
-0.15732	0.20219
0.91375	0.07465
0.30171	0.55929
-0.48884	0.40625
0.40372	-0.00188
0.25071	-0.15492
-0.89686	-0.00188
0.88825	-0.05289
1.39828	-0.38449
-0.59084	0.53379
-1.68742	0.27871
-0.23382	0.07465
0.68424	-0.02739
0.63323	0.30422
1.39828	0.30422
0.63323	0.17668
-3.42153	0.32972
0.78624	0.12566
-0.02981	0.22769
0.48022	0.30422
1.57679	-0.12942
1.21977	0.40625
0.04670	0.25320
-0.33583	0.25320
-0.10631	-0.10391
0.02119	-0.05289
0.45472	-0.18043
0.07220	-0.18043
-0.84586	-0.00188
-0.99887	0.12566
1.21977	0.55929
0.53123	0.32972
-0.31033	0.20219
0.50573	0.32972
1.01576	0.25320
-0.71835	-0.15492
-0.51434	0.12566
-0.10631	0.02363
0.09770	0.30422
0.45472	0.35523
1.09226	0.04914
1.09226	-0.18043
0.35272	0.15117
-0.59084	0.15117
-0.02981	-0.10391
-0.66735	-0.10391
1.01576	-0.00188
-0.51434	0.43176
-1.02437	0.25320
-0.08081	0.02363
1.19427	0.10015
0.73524	0.07465
-0.59084	-0.00188
-0.66735	0.55929
0.73524	0.17668
1.93382	0.02363
-0.87136	0.35523
-1.48340	-0.38449
0.30171	-0.00188
1.95932	0.17668
-0.38683	0.63582
-0.69285	0.38074
0.42922	-0.28246
0.04670	-0.05289
-0.08081	0.15117
1.21977	0.43176
0.30171	0.30422
-1.17738	0.50828
-0.15732	0.10015
0.76074	-0.46102
0.73524	0.15117
0.25071	-0.07840
-0.20832	0.22769
-0.69285	-0.25695
0.88825	-0.05289
1.14327	0.25320
-1.33039	0.35523
-0.43783	0.10015
0.12320	-0.15492
0.02119	0.45726
0.65874	0.48277
0.93925	0.25320
0.12320	0.02363
0.04670	0.17668
0.12320	0.22769
-0.64185	0.15117
-0.20832	0.02363
0.50573	0.22769
0.93925	0.25320
0.25071	0.04914
0.35272	0.04914
1.06676	-0.15492
-1.89143	0.02363
-0.38683	0.04914
0.58223	0.12566
-1.04987	0.35523
0.50573	-0.15492
0.83725	0.35523
-0.99887	0.12566
-0.25932	0.25320
1.37278	0.63582
1.29628	0.22769
0.02119	0.02363
0.19971	0.30422
0.30171	-0.51203
-0.36133	0.45726
-0.48884	0.07465
0.60773	0.22769
0.12320	0.43176
-0.08081	-0.12942
-0.00431	-0.18043
0.09770	0.02363
1.27078	0.32972
-0.76936	0.25320
-1.94243	0.27871
-1.45790	0.07465
1.72980	-0.02739
1.93382	0.15117
0.65874	0.17668
1.11776	0.04914
0.50573	0.38074
-2.35046	0.20219
0.65874	0.50828
2.62236	0.40625
0.25071	0.15117
-0.15732	-0.25695
-1.66191	-0.28246
-1.99343	-0.33348
0.12320	0.25320
1.90832	0.27871
0.58223	0.22769
-0.15732	-0.10391
-0.31033	0.27871
0.78624	-0.00188
0.50573	0.45726
-0.18282	0.30422
0.45472	0.35523
-0.94787	-0.02739
-0.00431	0.12566
0.53123	-0.05289
0.37822	0.10015
0.53123	-0.41000
0.22521	0.04914
0.19971	0.71234
0.60773	0.20219
-0.69285	0.20219
-2.83499	0.12566
-0.76936	0.04914
1.44929	0.27871
2.67337	0.50828
0.58223	0.45726
0.93925	-0.12942
-0.00431	-0.30797
-0.66735	-0.07840
-0.38683	0.27871
0.07220	0.04914
-0.51434	0.15117
-1.38139	-0.15492
0.12320	0.40625
1.14327	0.45726
1.75531	0.32972
0.27621	-0.07840
-0.97337	0.25320
-1.73842	-0.00188
-0.02981	-0.07840
0.99026	-0.00188
0.86275	0.15117
0.48022	0.27871
0.73524	0.38074
1.55129	0.04914
0.32721	0.07465
-0.02981	0.35523
-1.02437	0.10015
-0.89686	0.12566
-0.92237	-0.33348
0.30171	0.30422
1.34728	0.38074
-0.53984	0.07465
-1.25389	0.66132
0.32721	0.30422
1.57679	-0.15492
0.48022	-0.23145
0.68424	-0.00188
1.11776	-0.02739
0.35272	0.38074
-0.84586	0.17668
0.50573	0.30422
0.53123	0.12566
-0.41233	0.07465
-0.13181	-0.05289
-0.18282	0.25320
0.73524	0.45726
-0.33583	0.15117
-0.56534	-0.00188
0.30171	0.15117
0.40372	-0.05289
0.12320	-0.07840
0.42922	0.07465
0.68424	0.02363
-0.74385	0.10015
-0.79486	0.86539
-0.10631	0.20219
1.11776	-0.05289
0.37822	0.17668
0.50573	0.15117
2.29084	0.20219
-0.56534	-0.05289
-0.53984	0.25320
-0.23382	0.27871
-0.08081	0.27871
0.48022	0.12566
0.53123	-0.35899
0.09770	-0.00188
-0.87136	0.15117
-0.56534	0.15117
0.58223	0.15117
1.14327	0.22769
0.32721	0.04914
0.68424	0.25320
-0.38683	0.40625
-1.07538	0.10015
0.25071	0.17668
0.27621	-0.10391
0.19971	0.04914
-0.00431	0.17668
0.63323	0.58480
0.48022	-0.02739
0.25071	0.35523
-0.08081	0.22769
0.02119	-0.18043
0.37822	0.02363
-1.66191	-0.23145
0.32721	0.32972
0.65874	0.43176
0.17421	0.07465
0.81175	-0.05289
-0.61635	0.27871
1.19427	0.10015
0.04670	0.15117
-0.05531	0.15117
0.73524	0.07465
-0.20832	0.04914
-0.05531	0.40625
0.73524	0.38074
0.22521	0.15117
0.19971	0.20219
-0.69285	0.22769
-0.02981	0.30422
-0.20832	-0.00188
0.58223	-0.05289
-0.18282	0.04914
0.70974	-0.02739
1.29628	0.20219
0.30171	0.15117
-1.35589	0.10015
0.17421	-0.05289
0.58223	0.30422
0.60773	0.17668
-0.43783	-0.07840
-0.08081	-0.20594
0.70974	0.43176
0.93925	0.55929
-0.59084	0.07465
-0.48884	0.25320
-0.59084	-0.05289
0.22521	0.15117
0.70974	0.22769
1.19427	0.20219
0.53123	-0.00188
0.04670	0.15117
0.65874	-0.02739
-0.48884	0.02363
-0.41233	-0.05289
0.70974	0.12566
-1.43240	0.10015
-0.00431	0.17668
0.40372	0.32972
-0.10631	0.30422
0.30171	0.15117
2.11233	0.04914
0.58223	0.30422
-1.96793	-0.00188
-0.28482	0.17668
-1.48340	-0.05289
1.75531	0.30422
1.19427	0.15117
-0.13181	-0.05289
0.12320	-0.33348
0.37822	0.20219
0.83725	0.53379
-0.23382	0.22769
-0.46334	0.38074
0.48022	-0.18043
-0.25932	0.15117
-1.30489	0.04914
0.09770	0.53379
0.55673	0.04914
0.35272	0.02363
-0.48884	-0.15492
0.81175	0.17668
0.60773	0.55929
0.12320	0.25320
1.04126	-0.07840
0.35272	0.04914
-0.71835	-0.07840
0.55673	0.83988
1.21977	0.17668
-1.15188	0.17668
0.14870	-0.00188
1.32178	0.20219
-0.15732	0.43176
-0.13181	-0.12942
0.81175	-0.20594
-0.66735	-0.18043
-1.25389	0.07465
0.30171	0.15117
-0.18282	0.17668
0.42922	0.38074
0.88825	0.40625
0.81175	0.22769
-0.69285	0.55929
-0.08081	0.17668
1.24527	-0.10391
0.55673	0.25320
-1.40690	0.45726
-0.15732	-0.18043
1.29628	0.35523
0.83725	0.22769
0.19971	0.10015
0.50573	0.04914
0.88825	-0.23145
0.09770	-0.00188
-0.99887	0.30422
0.12320	0.45726
-0.13181	0.38074
-1.76392	0.10015
-0.13181	0.22769
0.35272	-0.15492
0.93925	0.25320
0.73524	-0.07840
-0.53984	-0.12942
0.99026	0.25320
0.04670	0.35523
-0.13181	0.45726
1.37278	0.20219
0.35272	0.35523
-1.71292	0.04914
0.09770	-0.18043
0.17421	0.45726
1.65330	0.32972
0.48022	0.35523
-0.28482	0.02363
-0.36133	0.22769
-0.13181	-0.15492
0.32721	-0.28246
-0.05531	-0.46102
-0.69285	0.15117
1.52579	0.07465
0.30171	0.48277
-0.59084	0.61031
-0.18282	0.45726
0.40372	0.12566
0.35272	-0.00188
1.04126	0.25320
-0.36133	0.30422
1.06676	-0.33348
-0.02981	0.20219
-1.81492	0.10015
-0.53984	-0.18043
-0.10631	0.40625
1.01576	0.35523
1.39828	0.15117
-0.43783	0.27871
-0.10631	-0.10391
0.86275	0.17668
0.53123	0.27871
0.30171	0.02363
-0.08081	0.25320
1.21977	0.17668
-0.13181	-0.00188
-0.82036	0.02363
-0.69285	0.20219
0.58223	-0.07840
0.78624	-0.05289
0.53123	0.12566
-0.61635	0.38074
-0.08081	0.40625
0.02119	0.66132
-0.74385	0.40625
1.04126	-0.05289
0.14870	-0.07840
0.76074	-0.46102
-0.25932	-0.23145
0.68424	0.20219
1.06676	0.38074
-0.56534	0.25320
-0.18282	0.35523
0.48022	0.40625
0.48022	0.50828
0.07220	0.20219
-1.17738	0.22769
1.29628	0.12566
-0.46334	-0.05289
-0.94787	-0.30797
-0.18282	0.20219
1.11776	0.04914
1.11776	0.30422
0.63323	0.10015
-0.64185	0.07465
-0.13181	-0.00188
0.02119	0.22769
-0.08081	0.22769
0.32721	0.32972
0.70974	0.27871
-0.10631	-0.02739
0.02119	0.48277
-0.10631	-0.30797
0.32721	0.25320
-0.92237	0.07465
-0.87136	0.25320
1.27078	0.53379
0.76074	-0.18043
0.63323	-0.20594
0.40372	0.02363
0.93925	0.76336
-0.28482	0.10015
-0.82036	0.02363
0.37822	0.50828
0.30171	-0.00188
-0.18282	-0.07840
-0.15732	0.22769
0.96476	0.22769
1.34728	-0.15492
-3.14101	0.12566
-0.08081	0.17668
1.90832	-0.20594
1.06676	0.07465
-1.07538	0.53379
0.30171	0.43176
1.21977	0.04914
0.09770	0.30422
-0.89686	0.22769
1.06676	0.17668
0.86275	0.20219
-0.23382	0.02363
0.32721	0.10015
-1.07538	-0.10391
0.12320	0.20219
0.53123	-0.05289
-0.23382	0.50828
-0.79486	0.10015
0.76074	0.48277
1.06676	0.68683
0.17421	-0.28246
-0.02981	-0.15492
0.19971	-0.20594
0.25071	0.32972
-0.38683	0.12566
0.22521	-0.12942
0.88825	0.40625
0.63323	-0.02739
-0.51434	0.63582
-1.30489	0.20219
0.68424	0.17668
0.60773	-0.07840
0.45472	-0.07840
0.35272	-0.02739
0.45472	0.04914
-0.82036	0.25320
-1.45790	-0.05289
1.88281	0.15117
-0.20832	0.04914
0.60773	0.76336
0.32721	0.30422
-0.28482	-0.07840
0.70974	0.02363
1.11776	0.10015
-0.46334	0.32972
-0.66735	-0.20594
-0.08081	0.10015
-0.59084	0.15117
0.53123	0.20219
0.76074	0.20219
0.32721	-0.12942
0.17421	0.27871
-0.36133	0.30422
-0.20832	-0.00188
0.17421	0.17668
0.32721	0.17668
0.99026	0.25320
0.96476	0.17668
0.17421	-0.00188
-1.04987	0.12566
-0.74385	0.12566
0.12320	0.15117
0.04670	0.32972
1.75531	0.15117
-0.61635	0.30422
0.02119	-0.07840
-0.05531	-0.05289
-0.31033	0.04914
0.68424	0.17668
0.25071	0.15117
0.76074	0.27871
0.32721	0.27871
-0.92237	0.45726
0.93925	0.27871
0.55673	0.04914
-0.33583	-0.20594
-0.28482	0.02363
-0.02981	-0.02739
1.01576	0.25320
-0.48884	0.66132
0.12320	0.45726
0.88825	-0.20594
-0.36133	0.35523
-1.25389	0.02363
0.81175	0.15117
0.63323	0.17668
-0.28482	-0.28246
0.76074	0.27871
-0.71835	0.17668
0.91375	-0.00188
1.11776	-0.12942
0.12320	0.07465
-0.23382	0.45726
-0.08081	0.22769
-0.20832	-0.00188
-0.10631	0.07465
1.21977	0.04914
0.19971	0.20219
-0.56534	0.63582
0.25071	0.25320
-0.82036	-0.15492
-1.22839	0.32972
1.75531	-0.10391
-0.23382	0.04914
-0.10631	0.04914
1.75531	0.17668
0.27621	0.12566
-0.05531	0.22769
0.07220	0.35523
-0.18282	0.38074
1.34728	0.02363
-0.71835	-0.15492
-0.84586	-0.00188
-1.22839	0.07465
0.30171	0.20219
1.34728	0.55929
1.16877	0.27871
-0.20832	0.15117
-0.18282	-0.20594
0.37822	0.04914
-0.15732	0.22769
-0.56534	0.17668
0.68424	0.38074
-0.31033	-0.00188
-0.33583	0.12566
0.42922	0.48277
1.50029	-0.23145
0.70974	0.25320
-1.12638	0.04914
-0.13181	0.43176
-0.48884	-0.00188
-0.99887	0.15117
0.32721	0.10015
0.83725	0.04914
0.99026	-0.07840
0.88825	0.17668
0.25071	0.17668
1.14327	0.35523
0.42922	0.30422
0.25071	0.30422
-1.33039	-0.05289
-1.38139	-0.10391
-0.69285	0.02363
0.83725	0.15117
0.81175	0.12566
-0.66735	0.15117
-0.53984	0.38074
0.93925	0.20219
1.42379	-0.00188
-0.59084	-0.00188
-0.89686	0.10015
0.91375	0.48277
0.63323	0.50828
0.83725	0.04914
-0.46334	-0.15492
-0.46334	-0.07840
0.91375	0.17668
0.73524	0.30422
0.73524	0.15117
0.37822	0.07465
-0.23382	-0.00188
0.07220	0.12566
-0.31033	-0.00188
-1.33039	0.20219
0.02119	0.04914
0.83725	0.15117
-0.08081	-0.12942
-0.05531	0.07465
0.60773	0.15117
0.63323	0.55929
0.50573	0.10015
-1.02437	0.22769
-0.69285	0.15117
-0.08081	-0.00188
0.73524	0.30422
0.30171	0.15117
1.21977	0.20219
0.91375	0.15117
0.81175	0.17668
0.40372	0.10015
-0.61635	-0.02739
-0.46334	0.35523
-0.20832	0.12566
-0.15732	0.10015
-0.02981	0.04914
0.22521	0.07465
0.32721	0.10015
-0.92237	0.22769
-0.28482	0.30422
1.24527	0.17668
0.17421	0.02363
0.81175	-0.92016
0.63323	-0.12942
-1.99343	0.27871
-0.64185	0.43176
0.27621	0.76336
2.08683	0.20219
1.16877	0.50828
-0.23382	0.04914
0.09770	0.10015
0.12320	0.17668
0.07220	0.15117
0.17421	0.04914
-0.00431	0.04914
-0.69285	0.07465
0.50573	0.25320
0.37822	0.07465
-0.76936	0.15117
-0.92237	-0.02739
-0.64185	-0.74160
-0.08081	0.22769
-0.15732	0.71234
1.44929	0.45726
1.11776	0.20219
0.53123	-0.00188
0.93925	0.17668
0.22521	0.48277
-0.18282	0.35523
0.68424	0.15117
0.83725	0.07465
-1.30489	0.04914
-0.66735	0.10015
0.14870	0.12566
0.04670	-0.02739
-0.36133	-0.05289
0.09770	0.27871
-0.00431	0.17668
1.39828	0.15117
0.17421	0.35523
-1.63641	0.20219
0.45472	-0.05289
0.91375	0.12566
0.42922	0.17668
-1.68742	-0.18043
0.25071	-0.15492
1.29628	0.35523
1.29628	0.48277
0.37822	0.61031
0.27621	-0.23145
-0.36133	0.04914
0.70974	0.35523
0.14870	-0.07840
-0.23382	0.30422
-0.74385	0.22769
-0.74385	0.15117
0.27621	0.04914
0.78624	0.20219
-0.20832	0.12566
1.67880	0.22769
-0.13181	-0.02739
-1.99343	-0.02739
-0.82036	-0.15492
1.75531	-0.05289
0.09770	0.30422
-0.31033	0.22769
0.76074	-0.05289
-0.76936	0.38074
2.06133	-0.00188
1.16877	0.40625
0.35272	0.50828
-0.33583	0.48277
0.93925	-0.12942
-0.00431	-0.05289
-1.15188	0.25320
0.73524	0.30422
-0.56534	-0.28246
-1.25389	0.20219
0.63323	-0.41000
0.45472	0.22769
-0.38683	0.38074
1.34728	0.40625
0.02119	0.40625
0.17421	0.45726
0.91375	0.55929
-0.05531	0.43176
0.91375	-0.00188
0.40372	-0.35899
-0.33583	-0.20594
-1.12638	0.02363
1.14327	-0.33348
0.25071	0.27871
-1.30489	0.45726
0.32721	0.55929
-0.99887	0.32972
0.86275	0.15117
1.60230	-0.02739
0.53123	0.20219
-0.23382	0.12566
0.58223	-0.00188
-1.20288	-0.07840
1.32178	0.10015
1.24527	-0.05289
-0.94787	0.25320
-1.20288	0.10015
0.35272	0.43176
-0.31033	0.53379
1.83181	0.30422
0.70974	0.17668
-2.37596	-0.15492
-0.46334	-0.02739
0.83725	-0.00188
0.58223	0.25320
1.65330	0.35523
0.76074	0.17668
0.14870	-0.20594
0.07220	-0.02739
-0.61635	0.22769
-0.76936	0.45726
1.11776	0.38074
-0.51434	0.10015
0.37822	0.10015
-0.38683	-0.05289
0.58223	0.22769
-0.05531	0.20219
1.50029	-0.18043
-0.79486	-0.20594
-0.64185	0.43176
0.45472	0.38074
1.06676	0.22769
0.12320	0.04914
0.76074	0.02363
0.14870	0.27871
0.30171	0.17668
-1.12638	0.04914
-0.41233	0.40625
0.99026	0.30422
-0.74385	0.25320
-0.20832	-0.41000
1.32178	-0.38449
0.37822	-0.38449
-0.08081	0.30422
0.12320	0.66132
-0.82036	-0.05289
0.63323	0.35523
1.01576	0.02363
-0.28482	-0.02739
0.27621	0.15117
-0.59084	0.10015
-0.64185	0.45726
1.75531	0.35523
-0.28482	0.22769
-0.36133	0.32972
0.30171	-0.28246
0.45472	0.17668
0.35272	-0.02739
-0.10631	-0.25695
-0.05531	0.27871
0.32721	0.04914
1.04126	0.38074
-0.94787	0.43176
-0.25932	0.04914
-1.71292	-0.48652
1.80631	0.32972
1.44929	0.58480
-0.31033	0.30422
0.30171	0.02363
0.63323	-0.00188
0.70974	0.43176
0.25071	0.40625
-0.97337	0.30422
-0.74385	0.15117
-0.10631	-0.10391
0.93925	0.20219
0.27621	-0.20594
0.35272	-0.05289
0.42922	-0.05289
-1.25389	-0.07840
-1.66191	0.07465
0.42922	0.25320
0.91375	0.25320
1.80631	-0.18043
-0.02981	0.15117
-0.97337	0.55929
0.48022	0.66132
1.06676	0.30422
2.03582	-0.15492
0.32721	-0.18043
0.09770	0.20219
-0.59084	0.55929
-0.41233	0.04914
-0.59084	0.02363
-0.28482	0.04914
-0.18282	0.20219
1.34728	-0.12942
-0.76936	-0.02739
-1.81492	0.15117
1.04126	0.27871
0.02119	0.20219
-1.04987	-0.35899
2.80087	0.20219
1.72980	0.73785
0.88825	0.27871
-0.31033	0.07465
-0.08081	0.22769
-1.25389	0.15117
-0.08081	0.35523
-0.23382	0.10015
-0.00431	-0.07840
0.91375	-0.25695
-0.23382	-0.00188
-0.33583	0.30422
0.27621	0.32972
0.02119	0.17668
1.37278	0.20219
-0.69285	-0.00188
-1.20288	0.12566
0.42922	0.15117
0.50573	0.15117
0.93925	0.45726
0.93925	-0.02739
0.12320	0.76336
0.22521	-0.07840
-0.43783	-0.30797
-0.36133	-0.38449
0.99026	0.07465
0.02119	0.45726
-0.46334	0.15117
-0.59084	0.20219
0.37822	0.12566
0.53123	0.35523
0.93925	0.38074
-0.33583	0.20219
-0.08081	0.35523
0.81175	0.02363
-1.15188	0.15117
-0.74385	0.22769
1.06676	0.15117
0.91375	-0.00188
0.70974	-0.18043
-0.02981	-0.05289
0.83725	0.40625
-0.79486	0.20219
1.04126	0.20219
-1.43240	0.25320
-0.51434	-0.00188
0.65874	0.25320
1.04126	0.48277
1.32178	0.27871
0.25071	0.04914
-0.36133	0.22769
-0.43783	-0.02739
0.25071	0.12566
-0.61635	0.15117
-0.97337	-0.25695
0.88825	0.22769
-0.36133	0.27871
1.16877	0.30422
0.30171	-0.02739
-0.69285	0.20219
0.86275	0.27871
0.37822	0.32972
0.35272	-0.41000
0.63323	0.17668
0.14870	-0.00188
-0.94787	0.35523
-0.08081	0.17668
0.53123	0.61031
0.60773	0.10015
0.53123	-0.18043
0.30171	0.02363
0.63323	0.17668
-1.43240	-0.02739
-0.23382	-0.10391
0.32721	0.15117
-0.18282	0.45726
0.12320	0.43176
1.85731	0.02363
-0.15732	-0.10391
-4.08457	0.02363
0.83725	-0.33348
2.21434	0.38074
1.27078	0.61031
1.16877	-0.15492
0.76074	0.25320
0.09770	0.12566
0.22521	0.35523
0.09770	0.15117
-1.10088	0.48277
-1.02437	0.32972
-0.43783	-0.15492
0.78624	-0.12942
-0.33583	-0.00188
-0.92237	-0.18043
-1.91693	-0.30797
1.21977	0.30422
1.60230	0.38074
1.62780	0.38074
0.63323	0.17668
0.91375	0.02363
-0.23382	0.10015
-0.38683	0.27871
0.09770	1.17148
0.19971	0.61031
0.30171	-0.18043
0.04670	0.10015
0.12320	-0.18043
-0.64185	-0.20594
-0.08081	-0.12942
1.21977	0.07465
0.37822	0.15117
-2.40146	0.04914
-1.55991	0.15117
0.63323	-0.02739
-0.33583	0.15117
0.19971	0.17668
1.62780	0.73785
1.14327	0.12566
1.34728	0.45726
0.63323	0.50828
1.29628	0.04914
-0.18282	-0.20594
-0.66735	-0.00188
-0.48884	-0.15492
0.17421	-0.02739
-1.22839	0.20219
-2.17195	0.17668
0.68424	0.50828
1.60230	0.32972
-0.28482	0.10015
-0.05531	-0.02739
1.09226	-0.46102
0.07220	0.04914
-0.00431	0.53379
0.12320	0.04914
0.17421	0.27871
0.65874	0.15117
-0.08081	-0.05289
-0.46334	0.10015
2.21434	-0.05289
-1.86593	0.83988
-0.74385	0.32972
-0.20832	0.04914
0.83725	-0.05289
1.19427	0.20219
-0.53984	0.30422
1.34728	0.35523
0.02119	0.07465
-0.53984	0.07465
-1.76392	-0.28246
-0.51434	-0.10391
2.06133	-0.15492
1.16877	0.22769
0.30171	0.30422
-1.89143	0.10015
0.88825	0.35523
0.76074	0.55929
1.39828	0.38074
0.27621	0.35523
-0.51434	-0.02739
1.19427	0.10015
-0.53984	0.15117
-0.28482	-0.58856
-1.61091	0.07465
-1.84042	0.25320
0.86275	0.20219
-0.18282	0.17668
2.34184	0.38074
1.42379	0.71234
0.12320	0.30422
-0.38683	0.02363
0.12320	0.43176
0.37822	-0.18043
-0.25932	-0.25695
0.09770	-0.38449
0.68424	0.10015
0.19971	0.27871
-2.14644	-0.00188
-0.56534	0.45726
0.88825	0.35523
0.45472	0.20219
0.45472	0.12566
0.96476	0.53379
0.73524	0.15117
0.22521	0.61031
0.07220	0.35523
-0.20832	0.04914
0.07220	-0.15492
0.63323	-0.15492
0.30171	0.32972
1.14327	0.61031
-0.89686	-0.25695
-0.97337	-0.23145
-0.08081	-0.07840
1.14327	0.07465
0.32721	0.38074
0.68424	0.32972
-0.99887	0.32972
0.42922	0.07465
0.86275	0.10015
-0.51434	-0.28246
-0.00431	0.10015
1.16877	0.15117
0.53123	0.48277
-0.13181	0.30422
-1.12638	0.15117
-0.43783	-0.43551
0.50573	0.02363
-0.59084	0.48277
0.91375	0.45726
0.88825	-0.33348
0.27621	-0.05289
0.07220	0.10015
0.48022	-0.05289
-0.18282	-0.12942
0.14870	0.27871
-0.33583	0.17668
-0.89686	0.32972
0.53123	0.61031
0.14870	0.15117
0.19971	-0.00188
0.09770	-0.12942
1.65330	-0.10391
0.30171	0.15117
-0.84586	0.12566
-0.28482	0.40625
-0.69285	0.38074
1.29628	0.43176
-0.15732	-0.15492
0.63323	-0.05289
1.57679	0.12566
-0.61635	0.07465
-1.04987	0.35523
0.53123	0.07465
0.50573	0.15117
0.50573	-0.10391
0.04670	-0.05289
-1.04987	0.07465
0.09770	0.58480
-0.51434	0.43176
0.04670	-0.20594
0.86275	-0.10391
1.44929	0.40625
0.50573	0.45726
0.30171	0.66132
-0.71835	-0.18043
-0.59084	-0.05289
0.63323	-0.53754
0.37822	-0.02739
0.93925	0.58480
-0.36133	0.50828
-0.94787	0.99292
-1.35589	0.15117
1.24527	-0.07840
1.93382	0.04914
0.83725	-0.10391
-0.15732	-0.48652
-1.91693	0.20219
-2.24845	0.07465
0.25071	0.07465
0.91375	0.53379
1.39828	0.40625
1.65330	0.30422
-0.13181	0.20219
-0.56534	-0.02739
0.27621	0.07465
-0.20832	0.07465
-0.82036	0.30422
0.86275	-0.00188
1.14327	0.10015
0.50573	0.32972
0.37822	0.71234
-0.31033	0.27871
-1.89143	-0.05289
-2.19745	-0.30797
0.88825	-0.05289
1.95932	-0.25695
1.44929	0.40625
-0.87136	0.38074
1.32178	0.04914
0.86275	0.35523
-1.53441	0.04914
0.17421	0.15117
0.91375	0.10015
-0.28482	-0.02739
-0.66735	0.53379
-0.87136	-0.05289
0.40372	0.22769
-0.61635	0.71234
0.60773	-0.10391
1.65330	-0.07840
-0.13181	0.02363
-0.08081	0.43176
-0.18282	-0.18043
0.22521	-0.25695
1.67880	-0.30797
-0.87136	0.35523
-0.64185	0.66132
0.70974	0.22769
1.95932	0.12566
0.50573	0.32972
-1.91693	0.25320
0.37822	0.02363
2.41835	0.15117
-0.08081	-0.02739
-2.47797	0.10015
-0.13181	0.12566
0.30171	0.17668
-0.00431	0.17668
0.42922	0.22769
0.22521	0.25320
-0.02981	-0.00188
1.14327	-0.10391
0.86275	0.30422
0.50573	0.17668
-0.05531	0.04914
0.93925	0.25320
0.42922	0.07465
-1.30489	0.43176
-1.50890	-0.23145
0.07220	0.02363
1.44929	-0.30797
0.35272	0.48277
0.27621	0.22769
-0.71835	0.20219
0.12320	0.20219
-0.15732	0.32972
0.93925	0.20219
1.24527	0.04914
0.14870	0.22769
-0.46334	0.40625
-0.08081	0.22769
0.73524	-0.12942
-2.14644	-0.15492
0.32721	0.02363
-0.89686	0.25320
-0.25932	0.02363
1.57679	0.22769
1.39828	-0.12942
-0.20832	0.58480
0.27621	0.04914
0.63323	0.04914
0.09770	-0.05289
0.30171	-0.25695
0.12320	0.17668
0.09770	-0.12942
-0.28482	0.76336
-0.15732	0.66132
0.58223	0.38074
-0.56534	0.53379
-0.31033	-0.25695
0.76074	-0.25695
0.19971	0.12566
0.91375	0.27871
-0.46334	-0.07840
1.04126	0.25320
-0.48884	-0.05289
-0.41233	0.22769
-0.82036	-0.02739
0.48022	0.02363
0.88825	0.43176
0.25071	0.02363
0.32721	0.25320
1.09226	0.20219
-0.18282	0.35523
-1.10088	0.22769
0.83725	0.22769
0.14870	-0.05289
-0.59084	0.25320
-0.82036	0.15117
1.34728	0.12566
2.11233	0.27871
-1.30489	0.35523
-1.15188	-0.81812
-0.74385	-0.05289
-0.13181	0.15117
0.99026	0.04914
0.88825	-0.10391
0.68424	0.48277
-1.48340	-0.05289
1.04126	0.07465
0.63323	0.15117
0.70974	0.20219
0.48022	0.10015
-0.33583	0.15117
0.09770	0.71234
0.30171	0.10015
0.09770	0.12566
-0.05531	0.07465
-1.10088	0.04914
-0.08081	0.38074
0.63323	0.30422
-0.05531	0.02363
-0.05531	0.20219
0.40372	0.02363
0.40372	0.17668
0.12320	-0.07840
0.70974	0.15117
-0.23382	0.53379
0.02119	-0.12942
0.30171	0.20219
1.50029	-0.15492
1.55129	0.12566
-3.01350	0.35523
-2.01894	0.53379
1.60230	0.15117
0.12320	0.15117
0.78624	0.12566
0.37822	0.10015
0.81175	0.12566
0.76074	-0.00188
0.09770	0.22769
0.37822	0.25320
0.17421	0.22769
-0.15732	-0.15492
-3.16651	0.20219
-1.38139	0.20219
0.73524	0.30422
0.93925	0.12566
1.29628	0.02363
1.06676	0.02363
0.73524	0.38074
0.19971	-0.25695
0.19971	-0.20594
0.12320	0.17668
-0.61635	0.27871
-0.28482	-0.00188
-0.00431	0.35523
-0.18282	0.66132
0.70974	0.12566
1.01576	-0.12942
-0.05531	0.20219
-1.02437	0.07465
-0.53984	-0.25695
0.02119	0.17668
0.60773	0.20219
1.44929	0.22769
-0.31033	0.50828
0.19971	0.27871
0.07220	0.12566
-1.17738	0.25320
2.59686	0.15117
-0.59084	-0.30797
0.40372	0.07465
0.37822	0.15117
0.45472	0.12566
-0.10631	0.10015
-1.38139	0.20219
0.30171	0.20219
0.48022	0.10015
0.99026	-0.05289
-0.94787	-0.10391
0.32721	-0.46102
-0.08081	0.12566
-0.08081	0.38074
0.40372	0.15117
1.27078	0.48277
-0.87136	0.30422
-0.33583	0.40625
0.22521	-0.12942
0.22521	-0.15492
1.32178	0.38074
0.53123	0.50828
-0.59084	0.02363
0.45472	-0.15492
0.42922	0.07465
-0.51434	-0.10391
-0.23382	0.10015
1.65330	0.25320
0.58223	-0.07840
-0.00431	0.15117
-2.24845	0.25320
-0.46334	0.22769
0.07220	0.25320
0.60773	0.02363
0.14870	0.27871
-0.82036	0.27871
-0.10631	0.04914
1.52579	-0.28246
1.83181	0.25320
0.14870	0.07465
-0.53984	0.38074
0.19971	0.58480
-0.25932	-0.20594
0.14870	-0.61406
0.27621	0.30422
0.76074	0.27871
-1.25389	0.58480
-0.20832	0.55929
0.02119	-0.05289
-0.15732	-0.18043
1.24527	-0.15492
0.37822	-0.10391
-0.53984	0.68683
0.83725	0.17668
0.30171	0.07465
-0.48884	0.12566
0.91375	-0.00188
0.55673	0.02363
-0.79486	0.15117
0.70974	-0.05289
-0.20832	0.22769
1.01576	-0.10391
1.78081	0.22769
-1.25389	0.55929
-2.68198	0.58480
0.45472	0.02363
-0.00431	-0.07840
0.96476	-0.25695
0.91375	0.15117
-0.82036	0.32972
-0.74385	-0.28246
0.83725	0.22769
0.65874	0.20219
1.19427	0.22769
0.30171	0.30422
0.60773	0.35523
0.22521	0.30422
-0.48884	0.45726
-1.40690	0.61031
0.22521	-0.28246
0.76074	0.43176
0.04670	-0.33348
0.30171	-0.53754
-0.51434	0.12566
0.14870	0.73785
0.30171	0.58480
0.50573	0.15117
0.42922	-0.30797
-0.13181	0.04914
0.09770	0.25320
0.25071	0.02363
0.50573	0.30422
1.88281	0.27871
-0.02981	0.38074
-3.09000	0.17668
0.32721	-0.35899
-0.02981	0.04914
0.27621	0.48277
2.90288	0.53379
-0.02981	0.30422
-0.56534	-0.07840
1.04126	0.07465
-0.18282	0.04914
0.53123	0.50828
-0.82036	-0.35899
-0.28482	0.04914
-0.25932	-0.12942
0.58223	0.43176
0.88825	0.40625
0.14870	0.25320
0.53123	0.04914
0.37822	-0.35899
-0.38683	-0.18043
-0.20832	0.17668
0.22521	0.10015
0.22521	0.12566
-0.13181	-0.25695
0.58223	1.04394
0.40372	0.43176
0.12320	-0.25695
-0.28482	-0.25695
0.65874	0.38074
-0.74385	0.38074
-1.22839	0.32972
1.34728	-0.25695
0.53123	-0.12942
0.32721	0.10015
-0.36133	0.10015
0.32721	0.10015
1.27078	0.50828
0.04670	0.12566
0.17421	-0.12942
-0.23382	-0.35899
-0.00431	0.04914
0.45472	0.76336
0.73524	0.61031
0.73524	0.22769
0.53123	0.15117
-1.04987	0.27871
-1.78942	0.15117
-0.56534	0.17668
1.11776	-0.30797
1.19427	0.20219
-0.08081	-0.02739
1.60230	0.27871
0.55673	0.53379
-0.41233	0.20219
-0.31033	-0.48652
0.65874	0.12566
0.42922	-0.00188
-0.87136	0.27871
0.19971	0.40625
0.32721	-0.02739
0.91375	0.20219
0.45472	0.53379
-1.55991	0.35523
-0.00431	-0.23145
1.50029	0.15117
1.57679	0.22769
0.45472	0.12566
-1.91693	0.71234
-0.08081	0.02363
0.14870	-0.48652
-0.08081	-0.10391
1.09226	-0.20594
1.50029	0.12566
0.86275	0.53379
0.55673	0.50828
-3.09000	0.30422
-0.28482	-0.12942
0.68424	0.15117
1.16877	0.15117
1.09226	-0.15492
0.27621	-0.15492
-0.66735	0.15117
-2.57997	0.12566
0.42922	0.22769
2.18883	0.48277
0.45472	0.30422
0.02119	-0.05289
-0.10631	-0.00188
-0.15732	-0.18043
-0.05531	-0.05289
0.60773	0.73785
0.42922	0.22769
0.81175	-0.33348
-0.46334	-1.07320
-1.58541	0.25320
0.35272	0.53379
0.81175	0.73785
1.65330	0.53379
-0.51434	0.35523
0.30171	0.86539
-0.41233	0.73785
0.83725	0.15117
0.17421	-0.56305
0.55673	-0.43551
1.47479	-0.12942
-0.18282	-0.18043
-0.18282	0.10015
0.58223	0.35523
-0.71835	0.22769
-0.25932	0.30422
-0.89686	0.12566
0.73524	0.25320
-1.27939	0.12566
0.81175	0.45726
0.76074	0.15117
0.27621	0.22769
0.25071	0.02363
0.93925	-0.10391
0.78624	0.27871
0.42922	0.07465
-0.20832	0.20219
-1.35589	-0.00188
-0.28482	-0.02739
0.63323	0.55929
0.60773	-0.38449
0.45472	0.43176
0.30171	-0.51203
-0.05531	-0.05289
-1.02437	0.32972
0.27621	-0.05289
0.91375	1.47757
0.42922	0.15117
-0.79486	0.02363
-0.43783	0.25320
1.67880	-0.05289
-0.76936	-0.02739
0.86275	0.32972
0.73524	0.07465
0.22521	0.02363
1.32178	0.02363
-1.27939	0.27871
-1.91693	0.04914
-0.15732	0.58480
0.83725	-0.18043
1.09226	0.20219
1.14327	0.35523
0.35272	0.07465
0.19971	0.10015
-1.17738	0.04914
-1.45790	0.15117
0.60773	-0.05289
0.42922	0.02363
1.72980	0.25320
2.03582	0.45726
-1.17738	0.76336
-2.04444	0.15117
0.48022	0.04914
0.78624	-0.23145
-0.64185	-0.10391
-0.15732	-0.58856
0.86275	-0.15492
0.60773	0.12566
0.19971	0.35523
1.01576	0.40625
0.76074	0.50828
-0.61635	0.50828
-0.74385	0.43176
-0.76936	0.10015
0.65874	-0.35899
0.73524	0.04914
-1.22839	0.04914
0.58223	0.12566
0.91375	0.30422
0.63323	0.02363
-0.23382	0.32972
0.25071	0.35523
-0.05531	-0.20594
0.25071	-0.25695
-0.36133	0.17668
0.04670	0.40625
0.50573	0.22769
-0.89686	0.35523
-0.48884	0.02363
0.73524	0.17668
2.18883	0.35523
0.07220	0.07465
-3.49803	0.55929
0.83725	-0.10391
1.78081	0.15117
-0.43783	-0.35899
0.37822	0.58480
1.09226	0.20219
0.45472	0.12566
-0.00431	0.27871
-0.53984	0.25320
0.68424	-0.12942
0.22521	0.20219
-0.69285	0.17668
-0.38683	0.15117
-0.87136	0.38074
0.99026	0.30422
1.04126	0.35523
-1.45790	0.27871
0.04670	0.15117
0.88825	0.07465
1.65330	-0.12942
0.83725	-0.20594
-0.00431	-0.18043
-0.46334	0.35523
-0.48884	0.45726
-0.46334	-0.00188
0.73524	0.22769
0.48022	0.30422
-0.33583	0.02363
0.35272	0.38074
-0.38683	-0.18043
-0.20832	0.32972
0.22521	0.32972
0.76074	0.17668
0.53123	0.35523
-0.08081	0.32972
0.53123	0.25320
0.53123	0.07465
-1.40690	-0.61406
-0.13181	0.15117
0.35272	-0.18043
0.73524	0.30422
0.68424	0.27871
-0.20832	0.45726
-0.08081	0.22769
0.42922	-0.05289
0.04670	-0.35899
-0.38683	0.15117
1.32178	0.50828
0.60773	0.45726
0.32721	0.38074
-0.38683	0.02363
-0.13181	0.10015
-0.76936	-0.48652
0.58223	-0.02739
-0.18282	0.35523
-0.10631	0.43176
1.19427	0.10015
0.58223	0.32972
-0.18282	0.38074
-1.30489	-0.10391
0.68424	-0.05289
1.32178	0.15117
0.68424	0.38074
-1.35589	0.40625
-0.10631	0.30422
0.88825	0.07465
-1.10088	-0.10391
0.93925	0.40625
1.14327	0.04914
0.60773	-0.18043
0.42922	0.15117
0.17421	0.43176
-0.59084	-0.10391
-0.41233	-0.35899
0.48022	0.35523
0.42922	0.35523
-0.48884	0.45726
0.58223	0.20219
-0.05531	0.17668
1.06676	-0.35899
-0.13181	0.04914
-2.32496	-0.07840
-0.20832	-0.33348
0.86275	0.32972
0.76074	0.61031
0.63323	0.22769
1.39828	0.17668
1.11776	0.45726
-0.51434	0.12566
-0.97337	0.35523
-0.48884	0.38074
0.22521	0.35523
0.63323	-0.15492
0.40372	0.10015
-0.33583	-0.10391
0.68424	-0.02739
0.02119	-0.23145
0.17421	-0.10391
-1.20288	0.27871
0.50573	0.58480
0.70974	0.32972
-0.33583	0.53379
0.42922	-0.30797
0.42922	0.38074
-2.14644	-0.15492
0.53123	-0.15492
2.11233	0.10015
0.35272	-0.05289
0.58223	1.01843
0.02119	0.07465
0.68424	0.66132
0.78624	0.10015
-0.15732	0.25320
-1.68742	-0.58856
-0.18282	0.17668
-0.28482	-0.18043
0.81175	-0.07840
0.32721	0.10015
0.04670	0.25320
0.02119	0.04914
0.55673	0.12566
0.22521	0.20219
0.19971	0.17668
0.14870	-0.02739
0.53123	0.10015
0.14870	0.32972
-0.10631	0.25320
-0.23382	0.58480
0.76074	0.30422
0.35272	-0.00188
-1.91693	0.32972
-0.05531	0.02363
0.32721	-0.30797
1.09226	-0.10391
0.55673	0.25320
0.78624	0.50828
0.76074	0.30422
0.02119	0.20219
-1.27939	0.25320
0.88825	0.22769
0.17421	0.17668
0.27621	-0.05289
-0.48884	0.53379
-0.87136	-0.12942
0.32721	-0.20594
1.34728	0.45726
-0.08081	-0.00188
-1.63641	-0.10391
0.04670	-0.00188
0.96476	0.07465
0.73524	0.43176
0.50573	-0.02739
0.17421	0.35523
0.27621	0.45726
0.22521	0.38074
0.55673	0.35523
-0.33583	0.15117
-1.04987	-0.38449
-0.66735	-0.23145
0.53123	0.07465
1.06676	0.22769
0.58223	-0.00188
-0.10631	0.48277
0.14870	0.45726
0.27621	0.04914
-0.41233	-0.12942
-0.08081	0.15117
1.19427	0.61031
-0.20832	0.04914
0.09770	0.12566
1.16877	0.61031
1.50029	0.22769
-0.66735	0.17668
-2.78398	-0.38449
0.42922	-0.18043
-0.99887	0.04914
-0.31033	-0.02739
1.16877	0.25320
1.50029	0.07465
1.62780	0.55929
0.93925	0.04914
0.14870	0.02363
-0.02981	0.30422
-0.36133	0.04914
-0.82036	0.10015
-0.61635	0.45726
0.14870	0.04914
0.35272	0.38074
-0.33583	0.12566
0.12320	0.35523
-0.13181	0.40625
0.73524	-0.07840
-0.28482	-0.02739
0.14870	-0.12942
1.01576	-0.05289
0.19971	0.25320
-1.10088	0.30422
0.60773	0.02363
1.09226	0.12566
-0.20832	-0.15492
-0.46334	0.25320
0.76074	0.20219
-0.23382	0.22769
-0.08081	0.38074
0.09770	-0.12942
0.48022	0.02363
-0.05531	0.17668
0.50573	0.07465
1.50029	0.61031
0.22521	0.45726
-1.10088	0.25320
-0.46334	0.07465
-0.48884	-0.28246
-0.10631	0.04914
0.42922	-0.38449
0.55673	-0.35899
-0.89686	0.02363
0.55673	0.02363
0.32721	0.32972
-0.28482	0.71234
0.55673	0.38074
0.25071	0.15117
0.68424	0.30422
1.01576	0.22769
1.04126	0.25320
-0.33583	0.17668
-0.82036	0.48277
-0.00431	0.35523
-0.99887	-0.18043
1.14327	0.17668
-0.08081	-0.05289
-0.64185	-0.46102
0.73524	-0.53754
2.06133	-0.18043
-0.10631	0.25320
-1.02437	0.35523
-0.02981	0.02363
0.25071	0.27871
-0.92237	0.58480
0.25071	0.30422
1.34728	0.15117
0.04670	-0.07840
-1.07538	-0.05289
0.37822	0.40625
0.70974	0.45726
0.78624	0.25320
-0.05531	0.02363
0.27621	-0.05289
0.22521	0.10015
-0.53984	-0.07840
0.42922	0.73785
0.02119	0.22769
-0.05531	0.12566
0.48022	0.12566
-0.48884	-0.46102
0.32721	-0.25695
0.48022	0.35523
0.12320	0.94191
1.37278	0.81437
1.24527	0.35523
-1.25389	0.10015
-2.17195	0.04914
0.48022	-0.43551
0.50573	-0.23145
2.13783	-0.07840
0.35272	0.07465
-1.04987	0.07465
-0.41233	0.32972
0.02119	0.50828
1.04126	0.04914
1.60230	-0.10391
-1.35589	0.35523
-0.66735	0.20219
0.32721	0.55929
0.53123	0.58480
-0.05531	0.17668
0.32721	-0.41000
-0.33583	-0.18043
0.50573	0.20219
0.93925	0.10015
0.83725	-0.18043
-0.36133	0.04914
-0.74385	0.35523
-0.48884	0.15117
-0.69285	0.15117
0.73524	0.07465
0.99026	0.07465
0.53123	0.20219
0.22521	-0.05289
1.14327	0.30422
0.70974	0.55929
-0.59084	-0.05289
-1.22839	0.04914
-0.38683	-0.05289
0.73524	0.02363
0.12320	0.50828
-0.08081	0.02363
-0.13181	0.04914
0.60773	0.30422
0.78624	0.17668
0.48022	0.25320
-0.69285	0.25320
0.19971	0.04914
-0.08081	0.02363
0.45472	0.32972
0.22521	0.22769
0.30171	0.22769
0.50573	0.04914
0.14870	-0.07840
0.25071	0.15117
-1.55991	0.07465
-0.31033	0.10015
0.53123	0.22769
1.47479	0.32972
-0.94787	0.55929
-0.08081	0.35523
0.50573	-0.25695
0.68424	-0.28246
0.83725	0.04914
-0.46334	0.22769
0.32721	0.45726
0.30171	0.40625
0.07220	-0.02739
0.04670	0.20219
-1.10088	-0.07840
-0.69285	-0.02739
-0.56534	-0.20594
0.73524	0.71234
1.04126	0.66132
1.85731	0.17668
0.22521	0.15117
-0.13181	0.12566
-0.05531	0.50828
0.50573	-0.00188
-0.23382	-0.23145
-0.74385	0.02363
0.25071	-0.23145
0.27621	-0.05289
0.53123	-0.10391
0.40372	0.30422
-1.10088	0.17668
0.40372	0.12566
0.70974	0.22769
0.32721	0.30422
0.37822	0.73785
0.37822	0.22769
-0.53984	-0.05289
-1.10088	-0.10391
0.07220	0.15117
0.30171	0.22769
1.06676	-0.07840
0.83725	0.25320
-1.02437	0.10015
0.53123	0.10015
-0.02981	0.20219
0.88825	0.17668
0.65874	-0.35899
-0.79486	0.30422
-1.63641	0.22769
0.30171	0.68683
1.06676	0.15117
0.27621	-0.10391
0.37822	-0.30797
0.76074	0.07465
0.55673	0.30422
-0.51434	-0.07840
-0.08081	0.38074
0.09770	0.48277
0.02119	0.45726
0.27621	-0.07840
0.53123	0.27871
0.40372	-0.00188
-0.79486	-0.02739
-1.20288	-0.07840
0.42922	0.04914
0.58223	0.25320
0.42922	0.35523
1.44929	0.38074
1.16877	-0.07840
-1.22839	0.07465
-2.09544	0.12566
0.68424	-0.10391
1.75531	0.15117
0.65874	0.02363
-0.51434	0.17668
-0.15732	0.07465
0.70974	0.20219
0.40372	-0.00188
0.73524	0.30422
0.91375	0.25320
-0.46334	0.63582
0.07220	0.22769
-0.48884	-0.02739
-0.28482	0.40625
-0.10631	0.38074
-0.74385	-0.25695
-0.10631	0.12566
0.65874	-0.07840
0.99026	0.32972
0.48022	0.25320
0.65874	0.30422
1.29628	0.15117
1.14327	-0.05289
-0.99887	0.10015
-0.08081	0.15117
-0.10631	0.02363
0.40372	0.25320
0.07220	-0.10391
0.48022	0.15117
-0.36133	0.20219
-0.79486	0.27871
0.37822	0.10015
1.19427	0.04914
-0.46334	0.02363
-0.18282	-0.05289
0.88825	0.55929
0.27621	0.12566
0.07220	0.55929
-0.59084	0.30422
0.53123	-0.02739
1.04126	-0.00188
0.40372	0.02363
-0.51434	-0.05289
-1.68742	0.50828
-0.89686	-0.20594
0.30171	0.20219
1.09226	-0.02739
1.04126	-0.00188
0.78624	0.25320
1.65330	0.25320
1.09226	0.22769
-1.48340	0.43176
-0.92237	0.20219
0.14870	0.15117
-0.33583	0.53379
-0.31033	-0.00188
0.30171	0.12566
0.91375	0.04914
0.86275	0.20219
0.35272	-0.00188
0.60773	0.10015
-0.56534	0.22769
-0.66735	0.10015
-0.38683	-0.18043
-1.20288	-0.07840
1.14327	-0.10391
-0.25932	0.07465
0.91375	0.55929
1.32178	0.53379
1.57679	0.25320
0.42922	0.27871
-0.36133	0.45726
-0.15732	-0.23145
0.32721	-0.15492
-0.79486	-0.20594
-0.71835	0.12566
-0.25932	0.27871
0.63323	0.10015
-0.10631	0.12566
-0.41233	-0.15492
0.65874	-0.28246
0.68424	0.38074
1.11776	0.38074
-1.17738	0.58480
-0.36133	0.35523
0.86275	-0.05289
0.65874	0.25320
0.65874	0.07465
0.22521	0.48277
-0.08081	0.22769
0.63323	-0.12942
0.02119	-0.20594
-1.02437	-0.02739
0.35272	0.25320
-0.13181	0.20219
-0.38683	0.40625
0.14870	0.27871
0.81175	0.22769
0.37822	0.30422
1.16877	-0.00188
0.88825	0.15117
-1.99343	0.07465
-0.38683	-0.10391
1.67880	0.50828
-2.88599	-0.15492
-2.37596	0.04914
1.67880	-0.15492
1.83181	0.07465
1.44929	0.04914
0.30171	0.53379
0.91375	0.20219
0.45472	0.61031
0.25071	0.10015
0.27621	0.10015
-0.79486	-0.02739
-1.15188	0.04914
-0.28482	0.04914
0.60773	0.35523
0.09770	0.20219
-0.08081	0.32972
0.63323	-0.05289
0.76074	0.35523
-0.71835	0.25320
-0.82036	-0.07840
1.04126	0.15117
0.81175	-0.18043
-0.08081	-0.05289
-0.46334	0.17668
0.12320	0.17668
1.37278	0.91640
0.53123	-0.07840
0.32721	-0.46102
-0.25932	-0.18043
-0.00431	0.22769
-0.36133	0.25320
0.45472	0.35523
0.19971	0.48277
-0.13181	0.25320
1.47479	0.55929
-0.08081	-0.10391
-1.25389	-0.18043
-0.33583	-0.10391
0.30171	0.02363
0.53123	0.04914
0.83725	0.38074
-2.52897	0.32972
0.12320	0.07465
0.35272	0.32972
0.99026	0.55929
1.57679	-0.25695
0.42922	-0.18043
0.53123	0.22769
0.63323	0.30422
0.09770	0.15117
-0.43783	-0.20594
-0.13181	0.15117
-0.46334	0.10015
-0.59084	-0.10391
0.27621	0.76336
0.12320	0.58480
0.55673	0.38074
0.27621	0.02363
-1.20288	-0.10391
0.81175	0.02363
1.19427	0.27871
0.45472	-0.28246
-0.36133	0.35523
-0.48884	-0.20594
0.32721	-0.05289
0.86275	0.12566
-0.08081	0.25320
-0.41233	0.35523
0.91375	-0.00188
-0.33583	0.02363
-0.33583	0.04914
-0.28482	0.22769
0.27621	0.32972
0.78624	0.32972
0.37822	0.27871
0.50573	-0.10391
0.58223	-0.10391
-0.08081	0.17668
-1.33039	0.61031
-0.18282	-0.00188
-0.08081	0.48277
1.32178	-0.05289
0.30171	-0.38449
-1.04987	-0.28246
-0.41233	0.04914
0.91375	0.30422
1.60230	0.43176
-0.28482	0.43176
0.02119	0.17668
0.07220	-0.10391
0.27621	0.17668
1.19427	0.22769
0.02119	0.04914
-1.33039	-0.28246
0.07220	0.48277
0.63323	-0.07840
0.93925	0.45726
0.07220	0.50828
-3.98256	0.17668
0.32721	0.12566
1.21977	0.15117
1.67880	-0.41000
0.27621	-0.18043
0.42922	-0.30797
-0.51434	0.25320
-0.51434	1.06945
0.83725	0.53379
0.73524	-0.20594
1.16877	-0.07840
0.12320	-0.28246
-0.66735	0.15117
-0.28482	0.12566
-0.64185	-0.25695
0.27621	0.04914
0.07220	0.25320
0.04670	0.38074
1.09226	0.48277
0.73524	0.10015
0.63323	-0.18043
-0.92237	0.35523
-3.34502	0.10015
-0.00431	0.17668
1.09226	0.07465
1.27078	-0.30797
1.60230	0.35523
1.24527	0.15117
1.24527	0.38074
0.14870	0.38074
-1.43240	-0.58856
-0.48884	-0.43551
0.48022	-0.18043
-0.23382	0.35523
-1.12638	0.63582
0.14870	0.55929
1.01576	0.40625
1.37278	0.25320
-1.33039	0.40625
-0.33583	-0.10391
-0.10631	0.25320
0.35272	-0.18043
1.04126	-0.25695
0.83725	-0.41000
0.60773	0.63582
-0.43783	0.78886
-0.92237	-0.02739
0.81175	0.27871
0.70974	-0.18043
-1.12638	-0.33348
-0.28482	0.10015
0.53123	-0.18043
0.65874	0.20219
0.70974	0.55929
0.22521	0.55929
1.62780	0.48277
0.42922	0.30422
-2.75848	-0.10391
-1.17738	-0.56305
0.37822	0.10015
1.62780	0.17668
0.83725	0.55929
0.68424	0.55929
-0.18282	-0.15492
0.99026	-0.12942
-0.20832	0.58480
-0.79486	-0.00188
-0.66735	0.35523
0.45472	-0.35899
0.30171	-0.15492
-0.33583	0.27871
-0.82036	0.22769
1.83181	-0.12942
1.24527	-0.35899
-0.59084	-0.23145
0.07220	0.78886
-0.02981	1.09496
0.07220	0.76336
1.09226	0.27871
0.55673	-0.05289
-0.08081	0.04914
-0.15732	-0.38449
-0.28482	-0.07840
0.12320	0.15117
0.78624	0.07465
-0.71835	-0.00188
0.40372	0.32972
-0.28482	0.07465
0.53123	0.15117
0.07220	0.04914
1.04126	0.45726
-1.40690	-0.07840
-0.64185	-0.02739
0.40372	0.48277
1.65330	-0.07840
1.75531	0.17668
0.73524	0.15117
-2.37596	0.12566
0.19971	0.22769
0.50573	0.10015
-0.61635	-0.23145
0.22521	-0.05289
1.44929	0.04914
0.35272	0.55929
-0.76936	0.83988
-0.59084	0.22769
1.06676	0.20219
1.01576	0.12566
-0.59084	0.10015
-0.05531	-0.05289
0.22521	-0.02739
0.04670	-0.18043
-0.25932	0.40625
-0.05531	-0.25695
-0.59084	0.45726
-0.28482	0.35523
0.42922	0.20219
1.24527	-0.23145
0.88825	0.32972
0.78624	0.40625
1.39828	-0.25695
-0.28482	-0.02739
-3.19201	0.20219
-0.43783	0.55929
2.06133	0.27871
0.45472	0.30422
-2.17195	0.02363
0.27621	-0.12942
1.50029	0.22769
0.50573	0.32972
0.19971	-0.15492
-0.36133	0.02363
-0.20832	0.02363
0.76074	-0.18043
-0.02981	0.35523
0.60773	0.20219
0.02119	0.55929
0.88825	0.55929
-0.76936	0.32972
-2.04444	-0.05289
1.27078	-0.23145
1.37278	0.25320
-2.37596	0.07465
0.17421	0.30422
1.21977	-0.10391
0.86275	0.30422
1.39828	0.10015
0.40372	-0.18043
-0.36133	0.25320
-0.23382	-0.02739
-0.10631	0.27871
-0.89686	0.35523
0.32721	0.35523
0.37822	-0.00188
