0.14870	0.20219
0.37822	0.12566
0.27621	0.02363
0.12320	0.15117
0.09770	0.20219
0.12320	0.15117
-0.02981	0.02363
0.04670	0.27871
0.25071	0.17668
0.27621	0.10015
0.35272	0.17668
0.22521	0.22769
0.32721	0.12566
0.50573	-0.00188
0.40372	0.12566
-0.18282	0.07465
-0.43783	-0.02739
-0.41233	0.20219
-0.13181	0.38074
0.17421	0.25320
0.32721	0.20219
0.50573	0.20219
0.60773	0.15117
0.37822	0.10015
-0.00431	-0.02739
-0.13181	0.10015
-0.10631	0.15117
-0.05531	0.02363
0.19971	0.07465
0.40372	0.35523
0.32721	0.22769
0.14870	0.22769
0.12320	0.15117
0.25071	0.04914
0.12320	0.04914
-0.02981	0.17668
-0.05531	0.07465
-0.13181	0.10015
-0.05531	0.30422
0.37822	0.22769
0.53123	0.12566
0.32721	0.12566
0.04670	0.25320
0.12320	0.20219
0.22521	0.07465
0.07220	-0.10391
-0.08081	0.17668
0.02119	0.25320
0.04670	0.10015
0.19971	0.04914
0.17421	0.12566
0.14870	0.20219
0.30171	0.15117
0.27621	0.12566
0.25071	0.17668
0.32721	0.15117
0.07220	0.10015
-0.18282	0.22769
0.04670	0.25320
0.12320	0.10015
0.17421	0.15117
0.12320	0.17668
0.12320	0.12566
0.25071	0.12566
0.19971	0.12566
0.14870	-0.00188
0.17421	0.10015
0.09770	0.07465
-0.13181	0.15117
-0.13181	0.10015
0.30171	0.20219
0.40372	0.25320
0.12320	0.10015
0.53123	0.17668
0.09770	0.17668
-0.02981	0.04914
0.22521	0.10015
-0.02981	0.15117
-0.69285	0.17668
-0.28482	0.15117
0.35272	0.17668
0.76074	0.20219
0.63323	0.15117
0.37822	0.04914
0.12320	0.04914
-0.05531	0.12566
0.12320	0.07465
0.02119	0.02363
-0.28482	0.27871
-0.02981	0.32972
0.45472	0.40625
0.19971	0.27871
0.27621	0.02363
0.53123	0.10015
0.32721	0.02363
0.02119	-0.12942
-0.59084	-0.00188
0.04670	0.12566
0.12320	0.20219
-0.05531	0.35523
0.17421	0.15117
0.50573	0.10015
0.45472	0.17668
0.55673	0.20219
0.14870	-0.02739
-0.43783	0.15117
-0.59084	0.10015
-0.92237	-0.00188
1.09226	0.17668
1.09226	0.25320
0.45472	0.27871
-0.05531	0.32972
0.58223	0.12566
1.19427	-0.00188
-0.36133	0.17668
-0.97337	0.15117
0.37822	-0.07840
-0.28482	-0.02739
-0.05531	0.12566
0.12320	0.12566
1.09226	0.40625
-0.41233	0.30422
-2.19745	0.25320
0.02119	-0.10391
0.68424	0.04914
0.25071	-0.15492
1.39828	0.12566
0.76074	0.35523
1.42379	0.32972
-0.08081	0.04914
-0.59084	0.40625
-0.38683	0.35523
0.07220	-0.10391
0.30171	0.22769
0.32721	0.22769
0.25071	-0.05289
0.45472	0.04914
-0.51434	0.10015
-1.04987	0.07465
-0.08081	0.15117
-0.18282	0.17668
0.68424	0.10015
1.01576	0.10015
0.32721	0.25320
0.19971	0.04914
0.88825	0.25320
0.81175	0.27871
-0.02981	-0.00188
-0.69285	0.30422
0.58223	0.50828
-0.46334	-0.00188
-0.89686	0.12566
0.37822	0.15117
-0.53984	0.25320
0.07220	0.10015
1.01576	0.15117
1.47479	-0.12942
-0.00431	-0.05289
0.40372	0.25320
0.73524	0.43176
-0.08081	0.07465
-0.48884	0.10015
-0.18282	-0.07840
0.07220	0.22769
-0.23382	0.07465
0.27621	0.32972
-0.46334	0.45726
0.22521	0.17668
1.19427	0.22769
0.50573	0.20219
-0.25932	0.15117
-1.04987	-0.02739
-0.02981	0.32972
0.58223	0.12566
1.14327	-0.00188
0.58223	-0.35899
-0.61635	0.07465
-1.17738	0.22769
0.83725	-0.05289
1.65330	0.45726
0.63323	0.76336
-0.28482	0.10015
-0.92237	0.27871
-1.27939	-0.02739
0.09770	0.10015
0.53123	-0.10391
0.25071	0.45726
0.22521	0.02363
0.70974	0.12566
1.09226	-0.07840
0.17421	-0.30797
-0.94787	-0.23145
-0.64185	0.35523
0.42922	0.38074
0.91375	0.32972
0.78624	0.15117
-0.79486	0.20219
0.40372	0.27871
-0.13181	-0.07840
0.25071	0.10015
0.48022	0.45726
0.45472	0.53379
-0.69285	0.20219
-1.94243	0.35523
1.44929	0.10015
1.14327	-0.20594
0.68424	-0.05289
-0.08081	0.15117
0.45472	0.17668
-0.02981	0.20219
-0.31033	0.10015
-0.20832	0.12566
0.88825	-0.10391
0.60773	-0.25695
-0.99887	0.02363
-0.41233	0.30422
0.86275	0.40625
-0.48884	0.17668
-1.04987	0.04914
0.68424	0.32972
0.32721	0.50828
0.99026	0.73785
0.32721	0.32972
0.02119	-0.10391
0.32721	-0.46102
0.93925	-0.07840
0.02119	0.12566
-0.94787	0.27871
0.32721	0.25320
0.22521	0.48277
1.09226	0.07465
-0.13181	-0.30797
-1.63641	0.07465
-0.08081	0.17668
1.50029	0.22769
0.19971	0.25320
1.04126	0.27871
-0.08081	0.12566
0.07220	0.50828
0.30171	-0.18043
0.09770	-0.10391
-0.13181	-0.00188
-0.64185	0.15117
-1.53441	0.30422
0.53123	0.27871
0.83725	0.15117
0.99026	-0.02739
0.88825	-0.02739
-0.48884	0.22769
-0.23382	0.15117
0.73524	0.61031
-0.51434	0.25320
-0.76936	-0.12942
1.14327	-0.33348
2.31634	0.04914
-0.59084	0.04914
-0.59084	0.12566
0.32721	0.35523
-0.28482	0.20219
-0.15732	0.40625
0.42922	0.10015
-0.13181	0.02363
-0.28482	-0.30797
0.45472	-0.00188
0.04670	0.40625
-1.50890	0.27871
0.37822	0.32972
-0.15732	0.30422
-0.18282	0.07465
1.29628	-0.33348
0.91375	0.22769
1.21977	0.63582
0.40372	0.12566
0.68424	-0.05289
0.02119	0.43176
-0.92237	0.12566
-0.74385	-0.25695
-0.97337	0.15117
-0.20832	0.17668
0.93925	0.22769
0.48022	0.02363
0.27621	-0.07840
0.07220	0.22769
0.35272	0.40625
0.42922	0.32972
-0.20832	0.02363
-0.13181	0.20219
-0.51434	0.17668
-0.25932	-0.23145
1.60230	0.02363
0.63323	0.50828
-0.38683	0.25320
-0.48884	0.20219
0.65874	-0.18043
-0.08081	-0.20594
-0.31033	-0.25695
0.12320	-0.02739
-0.38683	-0.00188
0.93925	0.45726
0.58223	0.55929
-0.20832	0.55929
-0.79486	0.27871
0.14870	0.30422
0.86275	-0.00188
0.81175	-0.05289
0.68424	0.07465
0.17421	-0.25695
-1.45790	0.20219
-0.41233	0.25320
0.27621	0.32972
0.70974	0.12566
-0.08081	-0.02739
0.22521	0.15117
0.40372	-0.02739
-0.23382	0.15117
1.04126	0.10015
-0.02981	0.17668
-0.87136	0.27871
0.50573	0.04914
0.42922	0.20219
0.53123	0.15117
0.25071	0.50828
1.06676	0.17668
-0.08081	-0.00188
-0.64185	0.10015
0.14870	0.15117
-0.43783	0.10015
0.65874	0.48277
0.60773	-0.00188
-0.61635	0.32972
0.09770	-0.02739
-0.48884	-0.18043
-0.87136	0.02363
0.93925	-0.15492
0.78624	0.12566
0.35272	-0.00188
-0.79486	0.48277
0.45472	0.35523
0.63323	0.15117
0.35272	0.32972
1.11776	0.10015
0.58223	0.22769
-0.43783	-0.00188
-2.04444	-0.12942
0.37822	0.22769
1.14327	0.27871
0.81175	0.02363
-0.89686	0.32972
-1.20288	-0.00188
-1.02437	0.17668
0.86275	0.22769
1.27078	-0.00188
1.14327	0.07465
0.86275	0.20219
-0.28482	0.43176
-0.23382	0.12566
0.07220	0.02363
0.07220	0.07465
0.17421	0.20219
0.17421	0.22769
0.22521	0.32972
0.40372	0.20219
-0.33583	0.25320
-0.71835	-0.00188
-0.18282	-0.07840
0.99026	0.22769
0.58223	-0.15492
0.42922	-0.02739
0.27621	0.17668
-0.38683	0.07465
-0.43783	0.15117
-0.79486	0.55929
-0.87136	0.15117
1.60230	0.12566
1.70430	0.22769
-0.13181	0.17668
0.53123	0.17668
0.14870	0.32972
-0.61635	0.02363
-0.51434	0.15117
1.39828	0.32972
0.88825	0.20219
-1.35589	0.27871
-1.30489	0.43176
0.58223	0.04914
0.63323	-0.12942
0.83725	-0.41000
0.37822	-0.20594
-0.31033	0.12566
-1.02437	0.04914
0.91375	0.53379
0.86275	0.32972
0.81175	0.50828
-0.38683	0.30422
0.09770	0.38074
0.04670	-0.05289
-0.61635	-0.05289
-0.51434	-0.00188
0.32721	0.07465
0.50573	0.30422
0.40372	0.53379
0.81175	0.35523
0.78624	0.15117
0.25071	-0.05289
-0.56534	-0.28246
1.14327	0.20219
-0.92237	0.35523
-2.91149	0.22769
0.63323	-0.05289
1.50029	-0.10391
0.68424	0.12566
0.68424	0.15117
-0.23382	0.17668
-0.59084	0.50828
1.72980	0.20219
-0.02981	0.25320
-1.66191	0.10015
0.14870	0.12566
0.53123	-0.00188
0.93925	0.04914
0.63323	0.07465
0.50573	0.20219
-0.05531	0.12566
0.07220	0.15117
-0.23382	0.04914
-0.46334	0.17668
-0.13181	0.10015
0.19971	0.07465
0.93925	0.10015
-1.58541	0.10015
-1.02437	0.22769
1.75531	0.15117
0.83725	0.30422
-0.23382	0.25320
0.14870	0.50828
1.01576	-0.05289
-0.74385	-0.63957
-0.41233	-0.00188
0.42922	0.17668
0.81175	0.32972
-0.20832	0.40625
0.55673	0.35523
0.78624	0.04914
-0.08081	0.04914
-0.53984	0.22769
-1.53441	0.20219
0.78624	0.10015
1.09226	0.10015
0.58223	0.25320
0.32721	0.30422
0.27621	0.22769
0.27621	-0.07840
-0.08081	-0.15492
-0.51434	0.17668
0.30171	0.25320
0.37822	0.17668
-0.18282	0.15117
0.07220	0.07465
-0.64185	0.27871
-0.00431	0.17668
0.53123	0.17668
1.24527	-0.02739
0.93925	0.04914
-0.00431	0.27871
-0.61635	0.43176
-0.25932	0.04914
0.60773	0.20219
0.40372	-0.05289
-0.28482	0.25320
-0.43783	0.32972
0.91375	-0.07840
0.81175	-0.05289
-0.15732	-0.25695
-1.33039	-0.10391
0.63323	0.63582
0.96476	0.32972
0.02119	0.48277
-1.73842	-0.00188
1.04126	0.04914
0.48022	0.02363
-1.02437	0.04914
0.12320	0.02363
0.65874	0.10015
2.01032	0.12566
0.78624	0.12566
-0.48884	0.15117
0.25071	0.15117
-0.10631	0.40625
-1.73842	0.25320
-0.38683	0.20219
0.32721	-0.02739
0.40372	0.17668
0.48022	0.12566
0.42922	0.10015
0.70974	0.22769
0.78624	-0.02739
-0.18282	0.02363
-0.89686	0.07465
0.45472	0.22769
0.42922	0.00000
0.07220	0.12566
-0.36133	0.04914
-0.23382	0.25320
0.99026	0.20219
0.35272	0.32972
-1.15188	0.20219
0.63323	0.38074
0.88825	0.04914
0.86275	-0.35899
0.40372	-0.05289
0.17421	0.27871
0.07220	0.07465
-0.38683	0.35523
-0.43783	0.17668
0.09770	0.32972
0.25071	0.20219
0.93925	0.12566
0.45472	-0.10391
-0.76936	-0.15492
-0.48884	0.10015
0.48022	0.30422
0.19971	0.07465
-0.08081	0.15117
0.70974	0.58480
0.22521	0.55929
0.02119	0.55929
0.65874	-0.35899
-0.13181	-0.41000
-0.38683	-0.33348
-0.31033	-0.33348
0.07220	0.32972
1.27078	0.50828
0.65874	0.38074
0.53123	0.15117
0.27621	0.32972
0.02119	-0.07840
-0.94787	0.12566
0.32721	0.04914
0.50573	0.15117
-0.33583	0.35523
-0.69285	0.40625
0.50573	0.25320
0.53123	-0.05289
-0.08081	-0.07840
-0.46334	0.32972
1.04126	0.32972
0.12320	-0.05289
-1.25389	-0.25695
-1.22839	0.07465
1.19427	-0.02739
1.90832	0.22769
1.83181	0.35523
0.22521	0.35523
-1.58541	0.02363
-0.05531	0.50828
0.19971	0.15117
0.50573	0.27871
-0.10631	0.07465
-0.08081	-0.02739
0.17421	0.25320
0.19971	0.15117
0.53123	0.20219
0.48022	0.02363
0.88825	-0.00188
-1.73842	0.07465
-0.41233	0.02363
-0.15732	0.15117
-0.23382	0.45726
0.91375	0.20219
1.70430	-0.10391
0.42922	0.20219
-0.48884	0.25320
0.48022	0.32972
0.42922	0.12566
-0.20832	0.02363
-0.18282	0.17668
0.12320	0.30422
0.81175	0.15117
0.48022	-0.05289
-1.25389	0.10015
-0.51434	0.12566
1.04126	-0.05289
0.60773	0.30422
0.99026	0.48277
0.42922	0.50828
-0.02981	-0.00188
-0.53984	0.02363
-0.89686	0.10015
-0.36133	-0.05289
-0.87136	0.12566
0.63323	0.17668
-0.10631	0.25320
0.81175	0.32972
2.06133	0.38074
0.68424	-0.05289
-1.40690	0.04914
-0.02981	-0.02739
1.29628	0.07465
-0.00431	0.02363
-1.27939	-0.18043
0.22521	-0.23145
1.11776	0.48277
0.09770	0.63582
0.07220	0.53379
0.35272	0.25320
0.12320	0.17668
0.93925	-0.10391
-0.25932	-0.05289
-1.94243	0.10015
0.42922	0.27871
-0.15732	0.12566
0.14870	0.20219
0.40372	0.66132
0.96476	0.45726
-0.33583	-0.10391
1.75531	-0.18043
1.32178	-0.02739
-3.80405	-0.33348
-0.71835	-0.10391
2.23984	-0.00188
3.10689	0.35523
0.30171	0.35523
-2.14644	0.02363
0.19971	0.07465
-1.78942	0.32972
-0.05531	0.27871
1.98482	-0.30797
-1.71292	0.53379
0.27621	0.53379
1.72980	0.40625
1.55129	0.30422
0.70974	-0.12942
-0.00431	0.04914
-0.10631	-0.02739
-0.05531	0.10015
0.55673	0.22769
-2.01894	-0.05289
-1.99343	-0.07840
0.55673	0.04914
0.86275	-0.12942
0.55673	0.15117
0.65874	0.35523
1.06676	0.35523
0.45472	0.48277
-0.84586	-0.15492
-0.48884	-0.05289
0.27621	0.15117
0.19971	0.12566
1.21977	0.45726
1.21977	0.43176
-0.82036	0.17668
0.27621	-0.18043
-0.31033	-0.10391
-0.46334	0.22769
-0.15732	0.25320
1.04126	0.32972
0.73524	0.17668
-0.76936	-0.25695
-0.74385	-0.25695
-0.28482	0.10015
0.83725	0.30422
0.27621	0.12566
0.76074	0.89089
0.88825	0.68683
0.48022	-0.18043
0.12320	-0.00188
-0.05531	-0.10391
-0.10631	0.02363
-0.74385	0.04914
0.22521	0.04914
0.04670	0.04914
0.81175	0.15117
0.88825	0.20219
-0.61635	0.22769
-2.19745	0.27871
0.93925	0.15117
0.53123	-0.07840
0.48022	-0.20594
0.45472	0.04914
0.70974	0.38074
1.37278	0.40625
0.32721	0.10015
-0.89686	0.17668
-0.89686	0.02363
-0.18282	-0.28246
0.40372	0.32972
-0.02981	0.30422
0.30171	0.38074
1.09226	0.07465
-0.08081	0.15117
-1.25389	0.22769
0.37822	-0.02739
1.62780	0.15117
0.22521	-0.20594
-1.89143	-0.07840
-0.18282	0.38074
0.83725	0.15117
-0.28482	0.12566
0.73524	0.20219
1.44929	0.04914
0.50573	0.20219
-0.94787	0.45726
0.68424	0.20219
-0.10631	-0.05289
-0.31033	-0.15492
0.37822	0.07465
0.14870	0.43176
-0.36133	0.32972
-0.23382	-0.07840
0.02119	-0.18043
0.83725	0.32972
0.45472	0.20219
0.40372	0.43176
-0.41233	0.20219
0.17421	0.02363
0.07220	0.02363
0.68424	0.07465
0.45472	0.15117
-0.25932	0.15117
-0.53984	0.17668
-0.82036	-0.07840
0.60773	0.12566
1.29628	-0.05289
-0.69285	-0.12942
-0.00431	0.43176
1.01576	0.53379
0.22521	0.43176
-0.28482	0.40625
0.27621	0.07465
0.17421	-0.10391
0.25071	0.04914
0.37822	0.10015
0.30171	0.10015
-0.05531	0.25320
-1.43240	-0.07840
-0.15732	0.04914
0.12320	-0.02739
-0.53984	0.20219
0.68424	0.27871
1.19427	-0.02739
1.04126	0.04914
0.73524	0.50828
0.04670	0.35523
0.12320	0.27871
0.30171	0.12566
-0.46334	0.04914
-0.92237	0.20219
-0.38683	-0.05289
0.96476	0.10015
1.27078	-0.02739
-0.53984	-0.05289
-0.38683	0.22769
0.04670	0.27871
0.48022	0.40625
1.01576	0.40625
0.40372	0.35523
-1.25389	-0.30797
-0.08081	-0.18043
0.65874	0.10015
0.70974	0.35523
0.73524	0.17668
-0.15732	0.22769
0.58223	0.15117
0.45472	0.30422
-0.94787	-0.15492
-0.59084	-0.05289
0.19971	0.15117
0.73524	0.22769
1.11776	0.38074
0.22521	0.25320
-2.01894	0.25320
-0.05531	-0.10391
0.70974	-0.00188
0.27621	0.22769
0.45472	0.25320
0.70974	0.22769
0.30171	-0.10391
0.73524	0.04914
0.65874	0.02363
-1.50890	0.35523
-2.24845	0.30422
0.78624	0.17668
0.83725	0.15117
1.11776	0.17668
0.86275	0.04914
0.83725	0.02363
-0.94787	0.02363
-0.20832	0.12566
0.91375	0.15117
0.19971	0.17668
-0.15732	0.30422
-0.97337	0.02363
-0.38683	0.20219
0.14870	0.25320
0.55673	-0.05289
0.86275	0.25320
0.37822	0.04914
-0.13181	-0.10391
0.42922	0.17668
0.35272	0.22769
-0.71835	-0.07840
0.30171	0.43176
-0.20832	0.17668
0.19971	0.04914
0.55673	0.30422
0.27621	0.07465
0.22521	-0.05289
0.27621	0.15117
0.42922	0.22769
0.09770	0.17668
-0.38683	0.07465
0.48022	0.02363
0.45472	0.15117
-1.38139	0.48277
-0.89686	0.35523
0.32721	0.15117
0.88825	-0.10391
1.47479	-0.05289
0.42922	0.22769
-0.13181	0.02363
-0.25932	0.20219
1.16877	0.12566
-0.02981	0.35523
-0.79486	0.15117
-0.28482	-0.10391
-0.10631	-0.25695
-0.36133	0.12566
0.53123	0.25320
0.78624	0.38074
0.45472	0.17668
0.09770	0.30422
0.55673	0.15117
-0.74385	0.04914
-0.18282	0.15117
0.58223	0.15117
0.48022	0.07465
0.30171	-0.07840
-0.08081	0.10015
-0.36133	-0.02739
0.35272	0.20219
0.42922	0.10015
-1.10088	0.04914
-0.28482	0.02363
0.65874	0.30422
0.96476	0.15117
0.91375	0.38074
0.27621	0.25320
0.45472	0.22769
0.58223	-0.02739
-1.27939	-0.00188
-1.43240	-0.05289
0.93925	0.15117
1.06676	0.25320
1.11776	0.43176
-0.08081	0.35523
-0.46334	-0.20594
0.58223	0.04914
-1.10088	-0.07840
-0.18282	0.17668
0.17421	-0.15492
0.45472	0.30422
0.55673	0.43176
0.83725	0.35523
0.42922	0.02363
0.25071	-0.15492
-0.08081	0.04914
-0.05531	-0.15492
-0.36133	-0.10391
0.53123	0.30422
-0.02981	0.43176
-0.87136	0.50828
0.17421	0.35523
1.75531	0.48277
-0.05531	-0.00188
-1.30489	-0.07840
-0.28482	-0.07840
0.81175	0.15117
0.70974	0.15117
0.70974	0.40625
0.48022	0.12566
0.63323	0.32972
0.17421	-0.02739
-0.18282	-0.12942
-0.38683	0.25320
-0.33583	0.27871
0.22521	0.38074
0.09770	-0.00188
-0.61635	-0.07840
0.22521	0.02363
0.12320	0.10015
0.19971	0.02363
0.55673	0.22769
0.22521	0.30422
-0.99887	-0.02739
0.93925	0.35523
1.04126	0.58480
-0.31033	0.17668
0.86275	0.25320
-0.18282	0.12566
-1.71292	-0.33348
0.55673	-0.05289
0.88825	0.50828
-0.36133	0.22769
0.65874	0.17668
0.35272	-0.18043
0.37822	0.22769
0.48022	0.10015
-0.02981	-0.20594
-0.89686	0.55929
-0.02981	0.45726
0.68424	0.22769
0.12320	0.04914
-0.82036	0.07465
0.25071	0.17668
0.86275	0.02363
0.40372	-0.10391
0.12320	0.20219
-0.00431	0.30422
0.45472	0.20219
0.17421	0.04914
-0.46334	0.20219
-0.15732	0.04914
0.76074	0.22769
-0.08081	-0.00188
-0.61635	0.20219
0.86275	0.43176
1.62780	0.02363
0.78624	0.35523
-0.84586	0.17668
-1.45790	0.12566
-0.20832	0.10015
0.73524	0.17668
1.75531	0.30422
0.27621	0.02363
-0.89686	0.15117
0.12320	-0.00188
0.25071	-0.18043
0.27621	-0.05289
0.73524	-0.15492
-0.69285	0.04914
-0.99887	0.30422
0.30171	0.45726
0.83725	0.40625
0.68424	0.38074
0.42922	0.40625
0.55673	0.25320
0.42922	-0.05289
-0.59084	-0.20594
-0.23382	0.02363
0.42922	0.10015
-0.23382	-0.12942
0.02119	0.17668
0.22521	0.32972
0.32721	0.27871
0.07220	-0.00188
-0.20832	0.10015
0.25071	0.17668
0.58223	0.25320
0.14870	-0.02739
0.70974	0.35523
0.68424	-0.00188
0.12320	0.17668
-0.61635	-0.10391
0.02119	0.15117
0.17421	0.35523
0.60773	0.30422
0.02119	0.20219
-0.38683	0.07465
-0.74385	-0.00188
-0.64185	-0.00188
0.88825	0.10015
0.99026	-0.00188
0.55673	0.04914
-0.08081	0.30422
0.88825	0.25320
0.37822	0.25320
-0.59084	0.02363
0.04670	0.07465
-0.05531	0.07465
-0.48884	0.04914
0.45472	0.27871
1.01576	0.30422
0.40372	0.30422
-1.45790	0.15117
-0.23382	-0.07840
0.60773	0.12566
0.91375	0.15117
0.30171	-0.25695
0.02119	0.10015
-0.79486	0.30422
-0.59084	0.53379
0.93925	0.32972
1.24527	0.32972
0.63323	-0.07840
-0.59084	0.04914
0.53123	-0.02739
-0.36133	-0.00188
-1.04987	-0.15492
1.04126	0.27871
1.09226	0.22769
0.25071	0.07465
-0.79486	0.38074
-0.51434	0.20219
-0.18282	0.27871
1.70430	0.15117
2.21434	-0.00188
-0.74385	0.12566
-1.40690	0.58480
-0.18282	0.53379
0.19971	-0.00188
0.45472	-0.10391
0.76074	-0.10391
-0.31033	0.04914
-0.56534	0.07465
0.04670	0.15117
0.04670	-0.30797
0.04670	0.04914
1.01576	0.38074
0.96476	0.22769
-0.87136	0.22769
-0.36133	0.58480
1.32178	0.15117
1.19427	0.10015
0.48022	0.12566
-0.25932	0.10015
0.19971	0.04914
0.12320	0.32972
-0.36133	0.22769
-0.79486	0.02363
-0.05531	-0.07840
-0.36133	0.17668
0.27621	0.30422
0.32721	0.10015
0.37822	0.02363
0.30171	0.20219
0.19971	-0.07840
0.09770	0.12566
0.12320	0.30422
0.09770	0.02363
0.30171	0.25320
0.42922	0.32972
0.58223	0.04914
-0.46334	0.45726
-2.17195	-0.00188
1.24527	0.12566
0.70974	0.15117
-0.28482	0.25320
0.55673	0.17668
1.11776	-0.00188
0.12320	-0.18043
0.14870	0.20219
0.73524	0.45726
0.14870	0.38074
-0.64185	0.10015
-0.66735	-0.05289
-0.25932	0.30422
-0.38683	-0.07840
0.09770	0.15117
0.73524	0.02363
0.76074	0.02363
0.17421	0.10015
-1.30489	0.10015
0.68424	0.20219
1.06676	0.30422
0.60773	0.35523
1.24527	-0.10391
0.27621	-0.18043
-2.17195	-0.10391
-0.38683	0.50828
0.83725	0.32972
0.22521	0.30422
-1.10088	0.15117
1.75531	0.10015
1.09226	0.43176
-0.51434	0.22769
0.02119	0.04914
0.32721	-0.05289
-0.84586	-0.20594
0.27621	0.12566
0.55673	0.04914
0.30171	0.15117
0.42922	0.30422
-0.33583	0.04914
-0.46334	0.22769
0.17421	0.02363
0.53123	0.07465
0.12320	0.25320
0.14870	0.32972
0.60773	0.32972
-0.43783	0.27871
0.45472	0.32972
0.83725	-0.28246
-0.28482	0.02363
0.40372	-0.10391
-0.02981	0.17668
0.45472	0.17668
-0.33583	0.02363
-1.10088	0.35523
0.58223	0.30422
0.65874	0.25320
0.07220	0.02363
-0.08081	0.17668
-0.31033	0.32972
-0.05531	0.25320
1.60230	0.15117
0.53123	-0.10391
-1.45790	-0.18043
0.30171	-0.02739
0.30171	0.15117
0.17421	0.27871
0.68424	0.07465
0.12320	0.02363
0.04670	0.04914
0.02119	0.35523
-0.18282	0.43176
0.53123	0.35523
0.40372	0.02363
-0.18282	-0.30797
-0.18282	-0.28246
0.93925	0.22769
0.09770	0.15117
-1.86593	0.27871
0.37822	0.50828
0.78624	0.40625
1.55129	0.25320
0.12320	0.07465
0.07220	-0.05289
0.12320	-0.05289
-1.45790	0.38074
-0.53984	0.20219
0.96476	0.25320
0.58223	-0.43551
0.35272	-0.10391
1.29628	0.10015
1.65330	0.35523
-0.64185	0.20219
-0.61635	0.17668
-1.04987	0.32972
-0.28482	0.15117
0.02119	0.15117
0.12320	-0.28246
-0.00431	-0.30797
1.09226	0.30422
0.91375	0.45726
-0.05531	0.53379
0.37822	0.48277
1.01576	0.17668
-1.33039	0.07465
-0.25932	0.07465
0.78624	-0.23145
0.07220	-0.20594
-1.27939	0.15117
0.83725	0.43176
0.27621	0.27871
0.73524	0.07465
1.42379	-0.02739
0.19971	-0.15492
-0.33583	-0.33348
0.02119	-0.02739
0.09770	0.22769
-0.28482	0.38074
-0.18282	0.15117
-0.28482	0.35523
0.14870	0.20219
0.35272	0.20219
0.73524	0.20219
-0.59084	0.17668
0.07220	0.25320
0.30171	-0.18043
0.55673	0.10015
0.86275	0.27871
0.25071	0.38074
-1.30489	0.32972
0.60773	0.25320
0.09770	0.02363
-0.15732	-0.28246
0.25071	-0.02739
0.30171	0.20219
0.78624	-0.15492
0.40372	-0.15492
-0.31033	0.35523
0.45472	0.32972
0.02119	0.15117
-0.28482	0.25320
1.11776	-0.02739
0.14870	0.32972
-0.00431	0.35523
-0.99887	0.30422
-0.64185	0.10015
0.53123	-0.10391
1.27078	-0.00188
0.12320	0.40625
-0.05531	0.15117
1.06676	0.12566
-0.23382	-0.02739
-1.84042	0.38074
-0.46334	0.07465
1.04126	0.10015
0.58223	-0.02739
1.21977	0.02363
1.34728	0.12566
0.30171	0.30422
-0.87136	0.04914
0.07220	0.15117
-0.13181	0.02363
0.55673	0.12566
0.25071	0.17668
-1.07538	-0.00188
0.22521	0.10015
0.27621	0.15117
0.88825	0.25320
0.73524	0.27871
-0.61635	0.25320
-0.15732	0.12566
0.19971	0.17668
0.12320	0.10015
-0.13181	0.20219
0.45472	-0.07840
-0.08081	-0.00188
0.25071	0.12566
0.58223	0.17668
-0.46334	-0.00188
0.58223	0.25320
0.32721	0.40625
0.17421	0.17668
-0.23382	0.04914
0.58223	0.04914
0.27621	0.20219
-0.56534	-0.00188
-0.41233	0.25320
0.83725	0.25320
-0.25932	0.07465
0.86275	0.17668
0.96476	0.25320
0.88825	0.15117
-0.79486	-0.07840
0.02119	-0.12942
0.12320	0.30422
0.55673	0.25320
0.55673	-0.02739
-2.73298	0.07465
-0.94787	0.15117
0.78624	0.27871
0.53123	0.32972
0.93925	0.17668
1.44929	0.25320
0.25071	0.15117
-0.87136	0.02363
0.27621	0.15117
0.63323	0.07465
-0.13181	-0.10391
-0.00431	-0.05289
0.09770	0.25320
0.37822	0.40625
0.45472	0.04914
0.58223	0.17668
-0.08081	-0.07840
-0.43783	-0.02739
-0.13181	0.38074
-0.02981	0.35523
-0.28482	0.22769
0.30171	0.22769
0.35272	0.20219
0.30171	-0.12942
0.27621	0.17668
0.40372	0.20219
-0.43783	0.02363
0.22521	0.04914
0.25071	0.22769
0.53123	0.02363
0.14870	0.07465
0.70974	0.22769
-0.33583	0.20219
-0.48884	0.15117
-0.36133	0.17668
0.35272	0.20219
0.91375	0.22769
0.48022	0.22769
-0.33583	0.04914
-0.38683	-0.20594
0.27621	0.12566
0.30171	-0.00188
0.70974	0.25320
0.91375	0.43176
0.50573	0.20219
-0.76936	0.02363
-0.18282	0.15117
0.04670	0.30422
-0.08081	0.10015
-0.71835	-0.18043
0.37822	0.15117
0.83725	0.22769
0.04670	0.25320
-0.28482	0.10015
0.12320	0.22769
-0.64185	0.15117
0.35272	0.10015
0.63323	0.15117
0.81175	0.12566
0.48022	0.10015
0.12320	0.25320
0.12320	0.20219
0.25071	-0.05289
0.27621	0.07465
-0.31033	0.17668
-0.69285	0.20219
0.37822	0.27871
0.91375	0.35523
0.09770	-0.15492
-1.91693	-0.41000
0.12320	0.02363
1.16877	0.20219
1.09226	0.50828
-0.74385	0.30422
-0.00431	0.30422
1.01576	0.27871
0.37822	0.27871
-0.25932	0.02363
-0.18282	-0.05289
0.35272	-0.15492
0.42922	-0.02739
0.37822	0.12566
0.27621	0.17668
0.32721	0.30422
0.27621	0.17668
-0.76936	-0.12942
-1.20288	0.15117
-0.31033	-0.07840
0.73524	0.07465
0.86275	0.38074
0.50573	0.15117
1.01576	0.40625
-0.38683	0.27871
-0.08081	0.22769
0.50573	0.20219
0.50573	0.30422
0.30171	0.04914
-0.02981	0.04914
-0.08081	-0.10391
0.40372	0.04914
-0.00431	-0.00188
-0.36133	-0.02739
-0.15732	0.02363
0.83725	0.30422
0.25071	0.25320
-0.31033	-0.02739
-0.08081	0.40625
0.48022	0.27871
-0.00431	0.12566
-0.13181	-0.05289
0.09770	0.10015
0.73524	0.27871
0.04670	-0.28246
-0.28482	0.22769
0.19971	0.12566
0.25071	0.25320
0.76074	0.20219
0.63323	0.25320
0.50573	0.22769
0.40372	0.10015
-0.08081	0.50828
-0.18282	0.25320
-0.92237	-0.18043
0.04670	-0.25695
0.37822	-0.02739
0.17421	0.07465
1.52579	0.04914
-0.92237	0.10015
-3.11551	0.27871
0.25071	0.20219
1.06676	0.07465
1.19427	0.12566
0.68424	-0.15492
1.27078	0.38074
0.48022	0.12566
-0.20832	0.27871
-0.23382	0.61031
0.40372	0.53379
-0.38683	0.30422
-1.10088	-0.25695
0.09770	-0.05289
0.86275	0.15117
1.39828	0.07465
0.12320	-0.02739
-1.27939	-0.07840
0.53123	0.22769
0.02119	0.25320
-1.55991	0.20219
0.32721	0.27871
1.34728	0.12566
1.06676	-0.00188
0.27621	-0.30797
-0.89686	0.27871
-0.18282	0.30422
0.17421	-0.12942
0.55673	0.61031
0.55673	0.35523
0.83725	0.38074
0.48022	-0.02739
-0.48884	0.12566
0.19971	0.30422
0.25071	-0.02739
0.37822	-0.05289
0.09770	-0.12942
-0.89686	0.02363
-0.18282	0.15117
0.45472	0.15117
0.27621	0.27871
0.14870	0.15117
-1.50890	0.15117
1.44929	0.32972
1.55129	0.22769
-0.94787	0.15117
-0.89686	-0.12942
1.01576	0.04914
1.01576	0.30422
-0.05531	0.12566
0.68424	0.35523
-0.10631	0.27871
-0.48884	-0.18043
-0.51434	-0.10391
0.63323	-0.10391
0.58223	0.40625
-0.46334	0.40625
0.14870	0.27871
0.09770	-0.05289
0.12320	-0.10391
0.48022	0.17668
1.01576	0.04914
0.55673	0.27871
-1.40690	0.27871
0.02119	0.02363
1.24527	0.17668
0.42922	0.22769
-0.33583	0.04914
-0.08081	0.20219
-1.48340	0.20219
0.25071	0.38074
0.37822	-0.10391
1.16877	-0.20594
0.86275	-0.10391
-0.23382	0.27871
-0.59084	0.48277
0.76074	0.27871
0.25071	0.12566
-0.13181	-0.05289
-1.02437	0.02363
1.11776	0.04914
-0.31033	-0.10391
-0.10631	0.25320
0.91375	0.27871
0.48022	0.25320
0.78624	0.53379
0.42922	0.17668
-0.08081	-0.02739
-0.00431	-0.07840
0.27621	-0.12942
-0.87136	0.07465
0.02119	0.25320
0.12320	0.25320
-0.76936	0.30422
0.73524	0.35523
1.44929	0.20219
0.83725	0.10015
-0.99887	-0.15492
-1.17738	-0.07840
1.01576	-0.28246
0.40372	0.43176
0.40372	0.17668
0.40372	0.12566
-0.51434	0.15117
0.17421	0.25320
0.81175	0.38074
0.48022	0.02363
0.04670	0.02363
-0.15732	0.27871
0.32721	0.04914
0.30171	0.22769
-0.82036	0.04914
-0.79486	0.12566
-0.05531	0.20219
0.37822	0.32972
0.45472	-0.15492
1.09226	-0.05289
0.83725	0.40625
-1.30489	0.38074
-1.10088	-0.15492
1.52579	0.15117
1.27078	0.38074
-1.22839	-0.02739
-0.33583	-0.35899
0.70974	0.12566
0.73524	0.35523
0.88825	0.30422
-0.08081	0.45726
0.25071	0.43176
0.42922	0.17668
-0.64185	0.15117
0.25071	0.07465
-0.18282	-0.07840
-1.71292	-0.02739
-0.13181	0.07465
1.42379	0.20219
1.09226	0.30422
0.02119	0.07465
-0.05531	0.17668
0.83725	0.10015
0.35272	0.07465
-0.69285	0.17668
-0.00431	0.17668
0.78624	0.38074
0.53123	-0.00188
-0.74385	0.12566
0.19971	-0.12942
0.40372	0.15117
-0.46334	0.04914
0.35272	0.25320
0.04670	0.63582
0.04670	0.35523
0.40372	-0.05289
0.22521	-0.05289
0.81175	0.10015
-0.08081	-0.00188
-0.76936	-0.00188
0.70974	0.35523
-0.02981	0.27871
0.88825	0.07465
0.60773	-0.00188
-0.92237	0.12566
-0.43783	0.17668
-0.02981	-0.00188
1.06676	0.43176
0.63323	0.30422
0.04670	0.22769
1.27078	0.17668
0.86275	0.20219
-1.38139	-0.10391
-2.12094	-0.20594
0.22521	0.17668
0.22521	0.27871
1.60230	0.17668
0.81175	0.61031
-0.51434	0.15117
0.19971	-0.00188
0.70974	0.04914
-0.08081	-0.05289
-0.08081	-0.05289
-1.07538	0.32972
0.70974	0.10015
0.60773	0.15117
-0.66735	0.25320
-0.48884	0.25320
0.99026	0.10015
1.16877	0.02363
1.14327	0.22769
0.63323	0.32972
-0.08081	0.17668
-1.76392	0.17668
-1.38139	0.20219
0.55673	-0.10391
1.72980	0.53379
0.83725	-0.00188
-0.51434	-0.38449
0.30171	-0.00188
0.37822	0.58480
-0.08081	0.10015
-0.25932	0.20219
-0.18282	0.17668
0.40372	0.15117
-0.51434	0.35523
-0.33583	-0.05289
-0.10631	-0.07840
1.55129	-0.07840
0.70974	0.22769
-0.61635	0.12566
0.07220	0.25320
0.40372	0.38074
-0.20832	0.07465
-0.33583	0.12566
0.55673	0.07465
0.65874	0.35523
0.32721	0.22769
-0.28482	0.02363
0.45472	0.10015
0.42922	0.20219
-0.38683	-0.07840
0.07220	0.04914
0.42922	0.10015
0.45472	0.15117
-0.02981	0.27871
-0.36133	0.17668
0.14870	-0.05289
-0.25932	0.43176
0.32721	0.12566
0.93925	0.20219
0.91375	0.17668
-0.61635	-0.02739
-1.10088	0.20219
0.76074	0.15117
0.55673	-0.05289
0.55673	0.15117
0.27621	0.15117
-0.28482	0.32972
-0.51434	-0.05289
-0.18282	0.20219
1.32178	0.25320
0.76074	0.02363
-0.36133	0.12566
-0.94787	-0.02739
-0.53984	-0.20594
0.17421	0.25320
0.60773	0.35523
1.21977	0.66132
1.11776	-0.02739
-0.48884	-0.02739
-0.43783	0.22769
0.68424	0.22769
0.73524	0.17668
-0.71835	0.07465
-0.15732	0.20219
-0.20832	0.12566
-0.13181	-0.00188
0.68424	-0.25695
0.19971	0.35523
0.76074	0.22769
0.42922	0.10015
-0.51434	0.20219
-0.84586	0.22769
-0.28482	0.35523
0.76074	0.27871
1.16877	0.20219
0.68424	-0.02739
-0.97337	-0.07840
-0.18282	-0.05289
0.78624	-0.05289
1.09226	0.20219
-0.64185	0.73785
-0.79486	-0.05289
0.65874	0.22769
0.55673	-0.00188
0.63323	0.27871
0.32721	0.22769
0.37822	-0.10391
0.53123	0.20219
-0.92237	0.10015
-0.08081	0.17668
-0.13181	0.15117
0.73524	0.20219
0.30171	0.04914
-0.94787	0.04914
-0.08081	0.25320
0.40372	-0.00188
1.75531	0.15117
0.12320	0.25320
-2.01894	0.15117
0.83725	0.20219
1.09226	0.32972
0.27621	0.30422
0.58223	0.12566
1.37278	-0.02739
-1.91693	-0.25695
-1.66191	0.12566
0.63323	0.02363
1.06676	0.10015
0.40372	0.45726
0.68424	0.40625
-0.02981	0.25320
-0.46334	0.12566
0.19971	0.04914
0.76074	-0.07840
0.02119	0.07465
-1.33039	-0.12942
-0.48884	0.02363
0.93925	0.32972
0.88825	0.61031
0.25071	0.25320
0.02119	-0.10391
0.37822	0.02363
0.70974	0.25320
0.88825	0.07465
0.32721	0.04914
-0.46334	0.30422
-0.69285	-0.00188
-0.53984	0.22769
-0.51434	0.10015
0.02119	0.04914
0.73524	-0.20594
1.01576	-0.00188
-0.13181	-0.07840
-0.20832	0.30422
1.37278	0.30422
1.19427	0.50828
-2.68198	0.38074
-0.41233	0.53379
1.16877	0.15117
0.19971	-0.25695
-0.05531	-0.53754
1.24527	0.04914
0.96476	0.35523
0.93925	0.35523
-0.61635	0.40625
-0.74385	0.12566
-0.08081	0.07465
0.37822	0.07465
0.32721	0.12566
-0.31033	0.20219
0.32721	-0.28246
-0.43783	-0.43551
-0.89686	0.27871
0.73524	0.27871
-0.00431	0.15117
1.37278	0.68683
0.48022	0.32972
-1.91693	-0.00188
0.88825	0.25320
1.01576	-0.07840
0.35272	0.04914
0.50573	-0.00188
0.37822	0.45726
-0.00431	-0.05289
-0.48884	-0.05289
-1.07538	0.15117
-0.25932	0.22769
-0.23382	0.15117
0.93925	0.07465
1.39828	0.32972
-0.74385	0.48277
-0.84586	0.12566
0.45472	0.25320
1.34728	0.17668
0.86275	-0.10391
0.07220	-0.28246
-0.51434	-0.05289
-0.00431	0.15117
-2.19745	0.30422
0.60773	0.20219
1.34728	0.20219
0.42922	0.10015
-0.71835	0.22769
0.48022	-0.05289
1.06676	0.35523
0.12320	0.43176
0.22521	-0.10391
0.30171	-0.10391
0.50573	0.15117
-0.33583	0.02363
-0.36133	0.40625
-0.33583	0.35523
0.17421	0.27871
0.42922	-0.02739
0.14870	0.17668
-0.23382	-0.23145
-0.82036	-0.00188
0.42922	0.53379
0.45472	0.45726
0.58223	0.32972
0.63323	0.12566
0.14870	-0.05289
-0.82036	-0.05289
0.63323	-0.25695
0.27621	0.04914
-0.25932	0.32972
0.42922	0.10015
2.64786	0.27871
-0.43783	0.43176
-0.53984	0.17668
-0.23382	-0.07840
-0.66735	0.02363
-0.33583	-0.20594
0.50573	0.27871
-1.50890	0.12566
-0.64185	0.76336
0.68424	0.45726
1.42379	-0.18043
2.01032	-0.07840
0.48022	0.17668
-0.38683	0.30422
0.91375	0.45726
-0.28482	-0.07840
-1.58541	-0.79262
0.19971	0.02363
-0.15732	0.27871
1.09226	0.17668
0.02119	0.35523
-1.27939	0.32972
0.83725	0.35523
-0.20832	-0.10391
0.60773	0.50828
1.19427	0.43176
0.88825	0.25320
1.01576	-0.05289
-0.56534	-0.05289
-1.55991	0.12566
-1.02437	0.07465
0.45472	-0.30797
0.93925	0.07465
0.55673	-0.18043
0.25071	0.30422
0.53123	0.15117
-0.23382	0.10015
-1.91693	0.15117
0.45472	0.38074
1.24527	0.53379
0.78624	0.45726
0.32721	0.40625
0.45472	0.12566
-0.00431	0.10015
0.02119	-0.30797
-0.10631	-0.33348
-0.10631	0.12566
0.63323	0.35523
-0.69285	0.04914
-1.04987	0.22769
0.78624	0.38074
0.91375	0.27871
0.68424	0.25320
0.07220	0.07465
-0.31033	-0.25695
-0.64185	0.07465
0.25071	0.10015
0.48022	0.04914
1.14327	0.07465
0.17421	0.15117
-0.18282	0.32972
-0.82036	0.25320
0.12320	0.17668
0.40372	0.17668
0.14870	0.27871
1.06676	-0.05289
0.17421	0.17668
-0.74385	0.04914
0.42922	0.15117
1.16877	0.30422
0.53123	0.25320
-1.40690	-0.02739
-0.10631	0.35523
0.86275	-0.05289
0.14870	0.35523
-1.38139	-0.05289
0.91375	0.02363
0.12320	0.17668
0.27621	-0.05289
1.01576	-0.02739
0.45472	0.22769
-1.10088	0.25320
0.58223	0.17668
0.68424	-0.05289
0.30171	0.20219
0.45472	0.04914
-0.08081	0.10015
-0.59084	0.02363
-0.41233	0.40625
0.99026	0.40625
0.60773	0.48277
-0.00431	0.20219
-0.41233	-0.30797
-0.00431	-0.10391
0.40372	0.04914
0.63323	0.20219
-0.69285	0.15117
-0.61635	0.27871
1.29628	-0.00188
0.76074	0.17668
-1.20288	0.12566
-1.04987	0.25320
0.76074	0.04914
0.93925	0.07465
1.95932	0.04914
0.35272	0.27871
-1.58541	0.15117
0.07220	0.12566
0.99026	0.15117
-0.31033	-0.15492
0.09770	0.20219
0.50573	0.35523
0.30171	0.40625
0.09770	0.22769
-0.10631	0.17668
-0.08081	-0.02739
0.14870	-0.05289
-0.28482	0.20219
0.12320	0.04914
0.32721	0.20219
0.19971	0.22769
1.01576	0.40625
0.48022	0.35523
-0.18282	-0.00188
-0.10631	-0.12942
-0.08081	-0.15492
-0.20832	-0.00188
0.09770	0.27871
0.50573	0.58480
0.55673	0.12566
0.40372	0.10015
-0.61635	0.12566
-0.87136	-0.00188
0.50573	0.04914
-0.13181	0.10015
-0.69285	0.12566
1.93382	0.04914
1.11776	0.25320
-0.43783	0.38074
-0.25932	0.50828
0.76074	0.38074
-0.36133	0.30422
-0.51434	-0.18043
0.88825	-0.15492
0.17421	-0.15492
-0.38683	-0.07840
0.60773	0.45726
0.81175	0.63582
0.25071	0.30422
-0.76936	0.04914
-0.13181	-0.02739
0.48022	-0.10391
-0.08081	-0.00188
-0.53984	0.10015
-0.25932	0.43176
0.12320	0.35523
0.60773	-0.07840
0.88825	0.17668
0.04670	0.10015
0.14870	0.12566
0.40372	0.15117
0.02119	-0.00188
0.35272	0.20219
0.32721	0.15117
-0.46334	0.45726
-0.99887	0.12566
0.22521	0.10015
0.30171	0.02363
0.35272	0.17668
0.22521	0.15117
0.73524	0.07465
0.07220	-0.02739
0.25071	0.22769
-0.10631	0.07465
0.19971	0.15117
0.14870	0.10015
0.42922	0.30422
-0.23382	-0.00188
0.32721	0.40625
0.48022	0.40625
-0.69285	0.35523
0.45472	-0.46102
0.63323	-0.28246
-0.20832	0.10015
-0.13181	0.10015
0.58223	0.10015
0.78624	0.30422
0.37822	0.45726
0.22521	0.30422
-0.82036	0.04914
-0.76936	0.07465
0.76074	0.15117
0.30171	0.38074
0.02119	0.04914
-0.02981	-0.05289
0.30171	-0.05289
0.50573	-0.12942
0.48022	0.32972
0.30171	0.15117
0.07220	-0.00188
-0.41233	0.30422
0.73524	0.22769
0.19971	0.27871
0.68424	0.27871
0.02119	0.04914
-0.02981	0.17668
0.09770	0.17668
-0.53984	-0.15492
-1.81492	-0.07840
0.30171	0.27871
0.96476	0.32972
1.04126	0.20219
1.14327	0.15117
0.63323	-0.07840
-0.08081	-0.07840
-0.28482	-0.05289
0.12320	0.20219
-0.18282	0.22769
0.22521	0.27871
0.12320	0.35523
0.45472	0.22769
0.14870	0.17668
-0.61635	0.20219
-0.92237	-0.23145
0.30171	0.04914
0.53123	0.25320
0.55673	0.25320
0.37822	0.20219
0.35272	0.25320
0.63323	-0.07840
0.14870	0.10015
0.42922	0.07465
-0.31033	0.20219
-1.35589	-0.05289
-0.08081	0.07465
0.73524	0.48277
0.73524	0.22769
0.19971	0.15117
-0.15732	-0.02739
0.17421	0.07465
1.01576	0.27871
-0.59084	0.17668
-0.23382	0.17668
0.32721	0.10015
-0.41233	-0.05289
0.17421	0.32972
0.68424	0.12566
-0.41233	0.17668
0.22521	-0.07840
0.30171	-0.15492
-0.38683	0.30422
0.35272	0.43176
1.04126	0.22769
0.17421	0.10015
-0.48884	-0.02739
0.12320	0.02363
0.07220	-0.05289
0.53123	0.35523
0.76074	0.35523
-0.05531	0.32972
-1.20288	0.22769
0.48022	0.04914
0.53123	-0.00188
-0.10631	0.20219
0.37822	0.02363
0.42922	0.30422
-0.02981	-0.00188
-0.05531	-0.10391
0.50573	0.12566
-0.23382	0.12566
0.02119	0.38074
0.58223	0.35523
0.63323	0.07465
0.65874	0.22769
-0.10631	0.12566
-1.50890	0.20219
-0.13181	-0.00188
0.48022	0.22769
0.53123	-0.15492
0.35272	0.07465
0.48022	0.04914
0.27621	0.22769
0.27621	0.25320
0.55673	0.20219
0.35272	0.38074
-1.78942	0.04914
-2.22295	0.10015
0.78624	-0.05289
1.80631	0.45726
-0.02981	0.32972
-0.13181	0.17668
2.01032	-0.00188
0.65874	0.38074
0.12320	-0.20594
-0.38683	-0.10391
-0.36133	0.17668
-1.71292	-0.12942
-0.48884	0.25320
0.25071	0.12566
0.48022	0.30422
1.04126	0.68683
1.11776	0.17668
0.37822	0.02363
-1.07538	0.10015
0.14870	0.02363
0.37822	-0.02739
0.32721	0.04914
0.50573	0.02363
0.58223	0.15117
-0.94787	0.20219
-0.36133	0.04914
0.42922	0.45726
0.32721	0.38074
1.32178	-0.10391
0.68424	0.12566
-1.22839	0.30422
-0.82036	0.15117
-0.00431	-0.05289
0.63323	-0.15492
1.55129	0.07465
0.73524	0.35523
-1.81492	0.55929
-1.22839	-0.23145
2.11233	0.32972
-0.25932	0.12566
-0.53984	0.12566
0.88825	0.12566
1.27078	-0.02739
0.65874	-0.05289
0.93925	0.10015
-0.08081	-0.05289
-1.04987	0.15117
-0.25932	0.25320
-0.59084	0.27871
-0.36133	0.20219
-0.08081	0.38074
0.30171	0.22769
0.35272	0.50828
0.50573	0.12566
0.50573	0.15117
0.53123	0.15117
0.35272	-0.02739
0.19971	0.02363
0.09770	-0.12942
0.04670	0.10015
0.12320	0.35523
-0.08081	0.15117
0.42922	-0.15492
0.17421	-0.07840
-0.15732	-0.07840
0.12320	0.35523
-0.74385	0.25320
0.32721	0.53379
1.14327	0.40625
-0.00431	0.10015
-0.25932	0.15117
0.25071	-0.25695
0.63323	0.15117
0.17421	0.25320
-1.12638	0.22769
0.07220	0.22769
0.65874	0.25320
1.11776	-0.18043
0.42922	-0.00188
0.02119	-0.00188
-1.04987	0.07465
-0.28482	0.15117
-0.18282	0.30422
0.17421	0.25320
1.44929	0.07465
0.09770	0.22769
-1.10088	0.15117
-0.02981	0.40625
0.93925	0.40625
0.53123	-0.00188
-0.18282	-0.00188
0.32721	-0.10391
0.04670	-0.05289
0.09770	0.27871
0.12320	0.45726
0.48022	0.30422
0.02119	-0.00188
0.83725	0.35523
-0.41233	0.32972
-1.84042	-0.33348
-0.13181	-0.10391
0.40372	0.04914
0.32721	0.43176
-0.08081	0.32972
1.14327	0.32972
1.29628	-0.02739
0.63323	0.02363
-0.20832	0.32972
-0.28482	0.20219
-0.02981	0.04914
0.12320	-0.25695
0.25071	-0.00188
0.60773	-0.02739
-0.71835	0.07465
-0.61635	0.35523
0.35272	0.35523
0.63323	0.25320
0.32721	0.02363
-0.61635	-0.05289
0.32721	0.35523
0.58223	0.25320
-0.46334	0.10015
-0.71835	0.12566
1.24527	0.07465
0.09770	0.10015
0.30171	0.30422
0.09770	0.32972
0.12320	0.35523
0.27621	0.15117
0.30171	-0.12942
-0.38683	-0.20594
-0.66735	-0.00188
-0.00431	0.17668
0.09770	0.20219
1.75531	0.30422
0.48022	0.35523
-0.25932	0.25320
-0.59084	0.50828
0.27621	0.02363
0.32721	-0.10391
0.48022	0.04914
0.27621	-0.00188
-0.92237	0.15117
-0.28482	0.10015
0.32721	0.17668
0.65874	0.12566
0.48022	0.40625
0.35272	0.20219
0.27621	0.02363
0.19971	0.15117
-0.69285	0.04914
0.58223	0.17668
-0.02981	0.25320
-0.13181	0.04914
0.27621	-0.18043
-0.00431	-0.02739
-0.02981	0.35523
0.42922	0.55929
0.48022	0.22769
0.40372	-0.00188
0.63323	-0.23145
-0.23382	0.10015
-1.61091	0.32972
-0.53984	0.25320
0.81175	0.04914
0.91375	-0.02739
0.83725	0.22769
0.32721	0.04914
0.76074	-0.10391
-0.31033	0.04914
-1.38139	0.15117
0.48022	0.30422
1.04126	0.25320
0.50573	0.07465
-0.64185	0.10015
-0.94787	-0.07840
1.29628	0.27871
1.01576	0.40625
0.37822	0.20219
-0.38683	0.17668
-1.40690	-0.00188
0.07220	0.04914
0.42922	0.17668
0.78624	0.32972
0.60773	0.30422
0.12320	0.10015
-1.35589	-0.10391
0.14870	-0.02739
0.68424	0.27871
0.14870	-0.05289
0.35272	0.35523
0.22521	0.15117
0.32721	0.15117
0.17421	0.12566
0.02119	0.27871
-0.05531	0.30422
0.32721	0.15117
0.55673	0.22769
0.55673	0.20219
0.30171	-0.10391
-0.10631	0.15117
-0.48884	0.04914
-0.20832	-0.05289
-0.46334	0.20219
-0.71835	0.30422
0.63323	0.02363
0.63323	0.17668
0.65874	0.07465
-0.15732	0.04914
-0.92237	0.25320
0.96476	0.07465
0.83725	0.02363
0.65874	0.25320
-0.25932	0.17668
-0.23382	0.35523
0.37822	0.17668
1.50029	-0.00188
0.02119	0.30422
-1.38139	0.17668
-1.15188	-0.05289
0.09770	0.04914
0.45472	-0.05289
0.81175	0.10015
0.60773	0.27871
0.63323	0.17668
0.58223	0.02363
0.48022	-0.00188
-0.33583	0.76336
-1.50890	0.30422
0.40372	0.45726
-0.00431	0.20219
0.22521	-0.33348
0.91375	-0.05289
0.07220	0.12566
-0.56534	0.10015
0.02119	0.07465
0.50573	0.10015
0.45472	0.22769
0.35272	0.17668
0.45472	-0.00188
-1.04987	-0.15492
0.42922	0.12566
0.27621	0.40625
0.27621	0.30422
0.73524	0.25320
0.14870	0.20219
-1.10088	0.22769
-1.71292	0.07465
1.29628	-0.10391
1.16877	0.25320
1.04126	-0.18043
0.58223	-0.18043
0.17421	0.15117
1.24527	0.32972
-0.48884	0.35523
-2.52897	0.04914
-0.15732	0.10015
0.73524	0.30422
1.39828	0.43176
0.55673	-0.05289
-0.18282	0.15117
-0.71835	0.15117
0.17421	0.07465
0.60773	0.10015
0.12320	0.22769
-0.25932	0.15117
0.27621	0.02363
0.45472	0.17668
0.30171	0.20219
0.22521	0.20219
-0.51434	0.22769
0.19971	0.38074
-0.00431	-0.12942
0.40372	0.02363
1.14327	0.15117
0.22521	0.02363
-1.33039	0.12566
-0.61635	0.17668
0.63323	0.12566
0.65874	0.22769
0.30171	0.32972
0.73524	0.22769
1.24527	0.32972
-0.79486	0.12566
-2.45246	0.02363
0.63323	0.17668
0.88825	0.15117
0.76074	0.04914
0.42922	-0.00188
0.27621	-0.10391
-0.15732	0.12566
-0.46334	0.10015
0.14870	0.15117
0.76074	0.40625
-0.18282	0.30422
-0.94787	0.17668
1.04126	0.15117
0.86275	0.15117
-1.61091	0.12566
-0.92237	-0.02739
0.93925	0.10015
0.83725	0.17668
0.78624	-0.07840
0.88825	0.02363
0.37822	-0.00188
-0.82036	0.07465
-1.12638	0.27871
0.42922	0.86539
1.16877	0.25320
0.14870	-0.00188
-0.08081	-0.10391
0.30171	0.04914
-0.66735	0.22769
-0.20832	0.25320
0.60773	0.12566
0.99026	-0.00188
-0.20832	-0.20594
-0.36133	0.07465
0.04670	0.20219
0.22521	0.15117
0.70974	0.15117
0.48022	0.20219
-0.64185	0.10015
-1.02437	0.22769
0.37822	0.07465
1.06676	0.22769
1.34728	0.20219
0.48022	0.22769
-0.82036	0.10015
-0.64185	0.35523
1.11776	0.20219
0.65874	-0.07840
-0.18282	0.25320
0.17421	-0.00188
-0.05531	0.20219
-0.92237	0.32972
0.27621	0.12566
-0.25932	0.15117
1.06676	0.22769
0.78624	-0.02739
-0.36133	0.04914
0.37822	-0.10391
0.12320	-0.00188
0.17421	0.35523
0.42922	0.40625
0.27621	0.25320
0.04670	0.20219
0.19971	0.10015
-0.13181	0.10015
-0.53984	0.02363
0.19971	0.27871
0.27621	0.25320
-0.02981	-0.10391
-0.25932	-0.10391
0.30171	0.12566
0.53123	0.48277
0.45472	0.20219
0.27621	0.10015
-0.02981	0.12566
0.02119	-0.00188
0.83725	-0.02739
0.12320	0.12566
-0.97337	0.27871
0.53123	0.38074
0.55673	0.30422
-0.61635	0.25320
0.32721	0.07465
-0.51434	0.10015
0.30171	-0.02739
0.73524	0.07465
0.96476	0.12566
0.30171	0.17668
0.81175	0.25320
0.02119	0.12566
-1.20288	0.20219
-0.46334	-0.05289
0.65874	0.04914
-0.15732	0.27871
0.40372	0.15117
0.22521	0.15117
-0.23382	0.10015
-0.08081	0.20219
0.63323	0.15117
-0.15732	0.32972
0.17421	0.12566
-0.08081	-0.05289
0.96476	0.02363
0.50573	0.04914
0.42922	0.07465
-0.18282	0.30422
0.22521	-0.02739
0.35272	0.17668
-0.23382	0.12566
-0.00431	0.20219
0.17421	0.27871
0.04670	0.22769
0.07220	0.10015
-0.31033	-0.07840
-0.00431	0.07465
0.22521	0.30422
0.12320	0.27871
0.14870	0.04914
0.14870	0.17668
0.17421	0.22769
0.40372	-0.00188
0.09770	-0.07840
0.19971	0.30422
0.12320	0.02363
-0.10631	0.04914
0.17421	0.10015
0.22521	0.20219
0.50573	0.20219
0.91375	0.02363
0.07220	0.38074
-2.12094	0.35523
0.76074	0.20219
0.04670	0.07465
0.30171	0.07465
0.73524	0.07465
0.53123	0.04914
0.53123	0.12566
0.07220	0.22769
-0.08081	0.22769
-0.74385	0.07465
1.14327	0.15117
0.53123	0.38074
-1.10088	0.04914
-0.99887	0.17668
0.68424	-0.00188
-0.46334	-0.02739
-0.08081	0.22769
0.81175	0.22769
1.50029	-0.00188
1.01576	0.25320
-0.71835	0.20219
-0.18282	0.20219
0.42922	0.38074
0.50573	0.10015
-0.00431	0.27871
-0.64185	0.04914
-0.20832	-0.12942
0.27621	-0.12942
0.70974	0.07465
0.86275	-0.05289
-0.33583	0.40625
-0.84586	0.43176
0.68424	0.45726
0.19971	0.15117
-0.74385	0.35523
0.32721	0.20219
0.78624	-0.18043
0.32721	-0.05289
-0.48884	0.20219
0.65874	0.27871
0.09770	0.12566
0.32721	0.12566
0.14870	-0.05289
0.07220	-0.05289
0.53123	0.32972
-0.38683	0.04914
0.27621	0.12566
0.12320	0.04914
-0.05531	0.27871
-1.04987	0.17668
0.60773	0.04914
0.93925	0.12566
0.48022	0.20219
0.70974	0.35523
-0.28482	0.02363
-0.20832	-0.10391
-0.38683	-0.00188
-0.46334	0.17668
0.73524	0.45726
0.07220	0.20219
1.21977	0.25320
1.16877	0.15117
-0.64185	0.07465
-0.08081	-0.00188
0.19971	0.27871
-0.13181	0.17668
0.32721	-0.18043
-0.15732	-0.25695
0.04670	0.22769
0.09770	0.38074
0.27621	0.35523
0.25071	0.22769
0.40372	0.32972
1.01576	0.07465
0.02119	-0.10391
-1.02437	0.02363
-0.28482	0.04914
0.12320	0.17668
0.32721	0.45726
0.81175	0.25320
0.60773	0.20219
0.07220	0.38074
-0.48884	0.07465
-0.46334	-0.07840
0.68424	-0.02739
0.45472	0.15117
-0.08081	0.32972
0.50573	0.10015
1.14327	0.07465
-0.02981	-0.00188
-0.59084	0.27871
0.19971	0.20219
0.70974	0.17668
-1.15188	0.25320
-1.30489	0.25320
0.96476	-0.02739
1.21977	0.10015
-0.15732	-0.05289
0.17421	-0.10391
0.37822	0.55929
0.73524	0.30422
-0.36133	0.48277
-1.15188	0.10015
0.22521	0.04914
0.53123	0.22769
0.42922	0.22769
0.32721	-0.10391
0.07220	-0.38449
-0.02981	-0.15492
-0.02981	0.12566
0.68424	0.43176
0.63323	0.30422
-0.69285	0.32972
-0.61635	0.53379
0.55673	-0.05289
0.65874	-0.02739
-0.46334	-0.18043
-0.08081	0.15117
0.58223	0.43176
0.32721	0.40625
-0.08081	0.15117
1.04126	0.12566
1.09226	0.25320
-1.81492	-0.00188
-0.94787	-0.15492
1.39828	0.04914
0.17421	0.50828
-0.00431	0.17668
0.07220	0.20219
0.81175	0.12566
0.14870	-0.00188
-0.18282	0.12566
0.53123	-0.05289
0.14870	0.15117
0.02119	0.15117
-0.89686	0.10015
-1.43240	0.02363
0.12320	-0.10391
0.93925	0.12566
0.81175	0.20219
0.55673	0.45726
0.53123	0.22769
1.75531	0.45726
-0.69285	0.12566
-0.05531	-0.00188
-1.04987	0.10015
0.22521	0.15117
0.32721	0.17668
0.27621	-0.02739
-0.38683	-0.05289
-0.79486	-0.15492
0.53123	0.27871
0.55673	0.17668
0.35272	0.32972
-0.20832	0.35523
-0.00431	0.07465
0.17421	0.04914
-0.02981	-0.10391
0.30171	0.25320
0.96476	0.20219
0.78624	0.12566
0.55673	0.32972
-0.31033	0.22769
-0.36133	0.15117
-0.00431	0.07465
-0.61635	-0.05289
-1.10088	0.02363
0.58223	0.22769
-0.13181	0.12566
1.14327	-0.02739
1.55129	0.38074
0.88825	0.38074
-0.05531	0.12566
-0.36133	-0.05289
-0.43783	0.10015
-0.48884	0.22769
-0.51434	0.17668
0.17421	0.04914
0.70974	0.12566
-0.23382	0.22769
-0.59084	0.20219
0.60773	0.25320
0.91375	-0.02739
0.50573	-0.15492
-0.13181	-0.00188
0.04670	0.20219
0.53123	0.38074
0.27621	0.58480
-0.28482	0.17668
0.04670	-0.02739
0.40372	-0.02739
0.45472	0.07465
0.02119	-0.10391
0.17421	0.17668
-0.05531	0.20219
-0.43783	-0.12942
0.30171	0.04914
0.63323	0.22769
-0.48884	0.25320
0.02119	0.20219
0.70974	0.27871
-0.61635	0.17668
-0.74385	0.35523
1.09226	0.25320
0.63323	-0.12942
0.22521	-0.30797
-0.08081	-0.07840
0.58223	0.27871
-0.25932	0.25320
0.42922	0.32972
-0.53984	0.32972
0.32721	0.10015
0.86275	0.25320
0.32721	0.12566
-0.00431	0.12566
0.22521	0.15117
-0.25932	0.17668
-0.41233	-0.07840
0.22521	-0.28246
0.48022	-0.10391
0.30171	0.35523
0.19971	0.35523
0.02119	0.40625
-0.08081	0.35523
-0.20832	0.15117
0.22521	0.02363
0.30171	0.10015
-0.43783	-0.00188
-0.02981	0.17668
0.93925	0.38074
1.16877	0.22769
0.07220	0.15117
-0.84586	0.15117
0.12320	0.10015
0.63323	-0.10391
0.45472	-0.25695
-0.66735	-0.05289
-0.66735	0.22769
0.14870	0.22769
0.81175	0.35523
0.35272	0.27871
0.22521	0.43176
0.40372	0.40625
0.27621	0.35523
0.55673	0.07465
0.48022	-0.25695
0.12320	-0.10391
-0.41233	0.04914
-0.89686	0.07465
-0.64185	0.20219
0.19971	0.25320
0.45472	0.10015
0.12320	0.25320
0.45472	0.25320
0.14870	0.02363
0.32721	0.20219
0.22521	0.30422
0.17421	-0.00188
1.37278	0.20219
-0.64185	0.15117
-1.71292	0.10015
0.55673	0.17668
0.99026	0.15117
0.40372	0.22769
0.30171	0.15117
-0.33583	0.07465
0.40372	-0.07840
0.07220	0.10015
-0.59084	0.22769
0.19971	0.02363
0.22521	0.30422
0.22521	0.25320
0.53123	0.12566
0.30171	0.20219
-0.00431	-0.15492
-0.97337	0.25320
0.22521	0.32972
0.30171	0.10015
0.81175	0.17668
1.09226	0.02363
-0.33583	0.15117
0.09770	0.10015
0.02119	0.10015
-0.13181	0.15117
0.22521	0.07465
0.02119	0.10015
0.22521	0.10015
-0.05531	0.17668
-0.38683	0.04914
0.55673	0.30422
0.93925	0.20219
0.12320	0.35523
-1.58541	0.15117
0.55673	0.10015
0.53123	0.02363
1.11776	0.12566
0.27621	0.07465
-0.05531	0.22769
0.14870	0.20219
-0.25932	-0.00188
-0.64185	0.22769
-0.02981	0.12566
0.48022	0.27871
0.22521	0.25320
0.22521	-0.15492
-1.20288	-0.18043
-0.53984	0.02363
0.58223	-0.00188
0.96476	0.38074
0.93925	0.45726
1.04126	0.04914
0.83725	0.27871
-0.13181	0.63582
-1.99343	0.35523
0.42922	0.07465
0.27621	-0.12942
0.53123	-0.41000
0.30171	-0.15492
0.12320	0.38074
0.09770	0.25320
0.45472	0.30422
0.35272	0.45726
-0.89686	0.20219
0.42922	0.15117
0.53123	0.02363
-0.31033	-0.00188
-0.82036	-0.07840
0.53123	-0.18043
0.58223	-0.02739
0.07220	0.04914
0.12320	0.25320
0.09770	0.43176
0.83725	0.55929
-0.64185	0.17668
-0.10631	-0.12942
0.04670	0.04914
0.48022	0.07465
0.63323	0.25320
-0.89686	0.04914
0.58223	-0.20594
0.70974	0.45726
0.17421	0.38074
-0.20832	0.12566
0.42922	0.45726
0.30171	0.12566
0.27621	0.04914
-0.31033	-0.05289
-0.48884	-0.10391
0.37822	0.17668
0.81175	0.35523
-0.61635	0.22769
0.32721	0.22769
0.22521	-0.07840
0.27621	0.17668
1.01576	0.10015
0.65874	0.17668
-0.97337	0.22769
-1.68742	0.04914
0.30171	0.20219
1.19427	0.07465
0.30171	-0.18043
0.48022	0.15117
0.35272	0.30422
0.32721	0.15117
0.12320	0.32972
0.02119	0.40625
-0.18282	-0.05289
0.32721	-0.07840
0.25071	0.17668
-0.84586	0.04914
-0.43783	-0.02739
0.63323	0.17668
0.76074	0.40625
0.40372	0.17668
0.63323	-0.10391
0.22521	-0.05289
-0.08081	0.20219
-0.92237	0.32972
-1.10088	0.38074
0.55673	0.15117
1.32178	0.30422
-0.08081	0.04914
-0.20832	-0.02739
0.32721	0.07465
0.35272	0.25320
-0.23382	0.15117
0.53123	0.12566
0.70974	0.15117
0.07220	0.15117
-1.12638	0.12566
-0.20832	0.10015
0.53123	0.27871
0.17421	0.38074
0.93925	0.25320
0.40372	-0.25695
-0.69285	-0.23145
-0.20832	0.12566
0.76074	0.30422
0.40372	0.22769
-0.25932	0.15117
-0.43783	0.27871
0.07220	0.22769
1.34728	0.12566
0.22521	0.20219
0.70974	0.10015
1.09226	0.12566
-0.87136	0.10015
-1.76392	0.02363
0.25071	0.07465
0.63323	0.30422
0.40372	0.17668
0.30171	0.17668
0.42922	0.25320
0.53123	-0.00188
0.09770	0.07465
-0.43783	0.02363
0.02119	-0.02739
0.35272	0.10015
0.35272	0.22769
0.12320	0.45726
0.22521	0.53379
0.63323	0.43176
0.65874	0.20219
1.52579	0.10015
-0.08081	-0.12942
-3.47253	-0.30797
-0.94787	-0.38449
0.88825	0.07465
0.93925	0.38074
0.81175	0.22769
0.86275	0.40625
0.12320	0.32972
0.32721	0.20219
0.04670	0.02363
-0.08081	0.15117
0.42922	0.10015
0.17421	0.15117
-0.25932	0.02363
-0.74385	0.12566
-0.89686	0.27871
0.70974	0.22769
0.73524	-0.02739
0.32721	-0.07840
0.45472	0.10015
1.29628	0.10015
-0.74385	0.10015
-0.94787	0.15117
1.14327	0.25320
-1.25389	-0.02739
-0.46334	0.12566
1.42379	0.38074
1.01576	0.58480
0.86275	0.17668
0.17421	-0.07840
0.42922	0.17668
0.27621	0.22769
-1.30489	-0.05289
-0.99887	0.02363
0.02119	-0.02739
0.45472	0.07465
0.19971	0.15117
0.42922	0.22769
0.55673	0.32972
0.40372	0.25320
0.30171	0.12566
0.09770	0.04914
0.12320	0.22769
0.02119	0.04914
-0.15732	0.02363
-0.13181	-0.05289
0.25071	0.12566
0.68424	0.27871
-0.20832	0.25320
0.12320	0.25320
0.07220	0.15117
-0.18282	0.02363
-0.05531	0.30422
1.34728	0.43176
0.07220	0.20219
-0.36133	0.25320
1.52579	-0.00188
0.32721	0.02363
-0.82036	-0.25695
-0.38683	-0.05289
-0.20832	0.04914
-0.05531	0.10015
0.02119	0.20219
0.32721	0.50828
1.60230	0.45726
0.78624	0.32972
-2.29945	0.10015
-1.45790	0.30422
1.24527	0.10015
1.37278	-0.00188
0.91375	0.17668
0.32721	-0.05289
0.42922	-0.20594
0.37822	-0.05289
-0.10631	0.32972
-0.25932	0.45726
0.09770	0.45726
-0.25932	0.02363
0.02119	0.02363
-0.00431	0.25320
0.07220	0.20219
0.17421	0.10015
0.32721	0.17668
0.02119	0.04914
0.07220	-0.05289
-0.15732	-0.02739
-0.08081	0.35523
1.21977	0.17668
-0.38683	0.25320
-0.69285	0.12566
0.35272	-0.10391
0.86275	-0.12942
0.65874	0.22769
0.70974	0.30422
0.30171	0.45726
-0.43783	0.30422
0.19971	0.25320
0.12320	0.02363
-0.43783	-0.15492
0.12320	0.17668
0.30171	0.15117
0.12320	-0.10391
-0.13181	-0.05289
-0.28482	0.15117
-0.18282	0.12566
0.04670	0.07465
0.17421	0.15117
0.27621	0.45726
0.53123	0.15117
1.09226	-0.10391
-0.28482	0.20219
-1.40690	0.48277
0.32721	0.35523
0.48022	0.07465
