0.14870	0.22769
0.14870	0.32972
0.45472	0.30422
0.04670	0.17668
0.14870	0.15117
0.32721	0.30422
0.27621	0.12566
0.22521	-0.20594
0.04670	0.12566
-0.41233	0.22769
-0.10631	0.48277
0.81175	0.22769
0.53123	0.20219
-1.12638	-0.15492
-0.61635	-0.00188
0.60773	-0.02739
0.96476	0.15117
0.19971	0.04914
0.70974	0.22769
0.17421	0.22769
0.07220	0.27871
0.93925	0.20219
0.76074	0.27871
-0.82036	0.12566
-1.63641	0.12566
0.09770	-0.12942
-0.25932	0.17668
-0.10631	0.04914
0.91375	0.35523
0.19971	-0.15492
0.60773	0.10015
1.27078	0.32972
0.35272	0.27871
-0.53984	0.30422
-0.48884	-0.12942
0.35272	-0.02739
0.40372	0.25320
0.12320	0.17668
0.12320	0.04914
-0.18282	0.04914
0.55673	0.17668
0.70974	0.35523
-0.00431	0.12566
-0.89686	0.10015
-0.18282	0.17668
-0.36133	0.22769
0.30171	0.02363
0.99026	0.10015
0.55673	0.10015
-0.66735	-0.07840
0.02119	0.17668
0.63323	0.30422
0.73524	0.30422
0.86275	0.02363
0.68424	0.38074
-1.10088	-0.12942
-0.59084	0.40625
0.30171	0.10015
0.19971	0.15117
-1.10088	0.27871
0.19971	0.32972
1.16877	0.15117
-0.00431	-0.02739
1.21977	-0.02739
0.83725	-0.02739
0.27621	0.45726
-0.13181	0.02363
0.30171	0.22769
-0.61635	0.22769
-1.07538	0.02363
0.12320	0.25320
-0.13181	0.12566
-0.10631	-0.07840
1.14327	0.07465
1.04126	-0.02739
1.42379	0.22769
0.27621	0.30422
-0.48884	0.25320
-0.66735	0.15117
0.04670	-0.10391
0.27621	0.55929
-1.02437	-0.18043
-0.25932	0.25320
1.60230	0.07465
0.88825	0.04914
0.35272	0.07465
-0.00431	0.22769
-0.20832	-0.10391
-0.84586	0.02363
-1.63641	0.15117
1.44929	0.02363
1.32178	0.48277
-0.89686	0.30422
-0.05531	0.30422
0.42922	0.40625
0.35272	0.15117
0.70974	0.04914
0.63323	-0.28246
0.93925	0.04914
-0.59084	-0.00188
-0.38683	0.20219
-0.33583	0.22769
-0.64185	0.40625
1.14327	0.53379
0.78624	0.07465
-1.12638	-0.28246
-1.96793	-0.15492
0.48022	-0.05289
1.14327	0.27871
0.53123	0.38074
0.09770	-0.07840
0.73524	0.22769
0.32721	-0.28246
1.47479	0.35523
-0.36133	-0.05289
-1.81492	0.17668
0.27621	0.07465
1.16877	0.20219
0.45472	0.22769
2.41835	0.15117
-0.00431	0.35523
-2.65648	0.81437
-2.60547	-0.10391
0.50573	-0.07840
1.24527	0.15117
0.48022	-0.20594
-0.18282	-0.10391
1.52579	-0.12942
1.62780	0.32972
-0.43783	0.17668
-1.27939	0.48277
-0.28482	0.43176
1.39828	0.45726
0.22521	-0.02739
-0.13181	-0.23145
0.30171	-0.02739
-0.46334	0.02363
1.98482	0.15117
0.83725	0.27871
-2.65648	-0.05289
-1.35589	0.43176
0.99026	0.20219
0.96476	0.10015
1.55129	0.12566
-0.25932	0.48277
-0.64185	-0.00188
1.27078	0.02363
-0.59084	0.38074
0.50573	-0.20594
-1.20288	-0.15492
0.22521	0.45726
1.11776	-0.10391
0.76074	0.30422
-0.00431	0.30422
-0.02981	0.04914
0.07220	0.04914
0.73524	0.02363
1.04126	0.35523
0.32721	0.17668
-1.10088	-0.02739
-0.53984	-0.07840
-1.35589	-0.05289
-0.38683	0.20219
0.14870	0.30422
0.35272	0.66132
1.75531	0.27871
1.85731	-0.15492
0.09770	0.02363
-0.82036	0.53379
-0.02981	0.25320
-0.18282	0.25320
-0.15732	-0.10391
0.70974	-0.12942
1.34728	0.35523
-1.40690	0.17668
-0.41233	0.17668
0.55673	0.35523
-0.59084	-0.25695
0.35272	0.12566
1.57679	0.35523
-0.10631	0.12566
0.65874	0.35523
0.09770	0.12566
-0.23382	-0.28246
1.42379	0.38074
0.02119	-0.02739
-2.32496	0.02363
-0.59084	-0.00188
0.48022	0.43176
-0.20832	-0.00188
1.04126	0.43176
0.81175	0.02363
0.37822	0.43176
1.57679	0.38074
-0.53984	0.45726
-1.22839	-0.12942
1.06676	-0.02739
1.47479	0.38074
0.25071	-0.25695
0.27621	-0.05289
-1.73842	0.12566
-3.77855	0.22769
1.62780	0.27871
2.36734	-0.05289
1.55129	0.53379
0.37822	-0.25695
0.93925	0.27871
-0.15732	-0.00188
-2.01894	0.12566
-0.20832	0.50828
0.73524	0.38074
0.30171	0.40625
1.83181	0.17668
0.78624	0.22769
-2.01894	0.02363
0.50573	-0.00188
0.42922	0.02363
-0.25932	0.10015
0.40372	-0.02739
0.12320	-0.20594
-0.89686	0.07465
0.07220	0.25320
-0.13181	0.22769
0.96476	0.89089
2.18883	0.40625
2.06133	-0.07840
-0.82036	-0.25695
-1.84042	-0.43551
-1.12638	0.76336
0.48022	-0.66508
0.86275	0.78886
2.67337	0.89089
-0.64185	0.12566
-0.94787	0.48277
0.42922	-0.05289
-0.51434	-0.00188
-0.15732	0.04914
0.32721	-0.00188
0.99026	0.17668
0.25071	-0.07840
0.02119	0.45726
-0.23382	0.22769
-1.04987	-0.33348
0.02119	0.12566
0.17421	0.35523
2.34184	0.15117
1.67880	-0.00188
-0.89686	0.10015
-3.06450	0.15117
0.50573	-0.10391
0.32721	0.17668
0.22521	0.17668
0.32721	0.30422
1.09226	0.25320
2.87738	0.30422
0.45472	0.25320
-2.42696	0.15117
-0.20832	0.07465
0.25071	-0.20594
1.04126	-0.00188
-0.69285	0.20219
-1.12638	0.27871
-0.28482	0.12566
-1.27939	0.04914
1.83181	0.66132
1.39828	0.78886
0.35272	-0.30797
-0.28482	-0.51203
-0.08081	-0.05289
0.17421	-0.07840
0.50573	0.07465
0.19971	0.66132
0.48022	0.40625
0.53123	0.73785
-0.23382	-0.28246
-0.31033	-0.12942
0.37822	0.30422
0.37822	0.45726
0.02119	0.22769
-0.08081	0.04914
-0.13181	0.15117
-1.04987	0.12566
1.80631	-0.05289
-0.00431	0.02363
-0.33583	0.04914
-2.78398	0.27871
-1.27939	-0.28246
2.64786	0.27871
2.31634	-0.00188
2.08683	0.32972
-0.28482	0.38074
-1.45790	0.32972
-0.02981	0.35523
-0.13181	0.27871
0.88825	0.22769
-1.76392	-0.18043
-2.04444	-0.23145
1.21977	-0.07840
0.27621	0.40625
1.19427	0.12566
1.50029	0.25320
1.47479	0.35523
0.19971	0.10015
0.68424	-0.23145
-0.41233	0.45726
-1.84042	-0.05289
-0.28482	0.30422
0.76074	0.17668
0.12320	0.12566
-0.10631	0.38074
-0.15732	-0.28246
-0.28482	-0.07840
-0.02981	0.02363
0.78624	0.15117
0.30171	0.17668
-0.05531	0.40625
-0.33583	0.40625
0.73524	0.02363
1.62780	0.02363
-0.71835	-0.38449
-1.33039	0.12566
2.11233	0.61031
0.53123	0.35523
-1.43240	-0.23145
0.48022	0.32972
-1.61091	0.02363
1.75531	-0.38449
2.69887	0.35523
-0.94787	0.58480
-1.04987	0.38074
-0.28482	0.35523
-0.36133	-0.18043
1.21977	-0.15492
0.91375	-0.18043
-0.08081	0.40625
0.37822	0.40625
1.01576	0.15117
-0.18282	0.76336
-1.48340	-1.04770
-1.15188	-0.41000
0.53123	0.04914
0.40372	0.58480
0.70974	0.27871
1.75531	0.43176
0.32721	-0.18043
-1.53441	0.15117
0.83725	0.32972
0.22521	-0.12942
0.12320	0.04914
-0.08081	-0.12942
0.53123	0.25320
0.50573	0.32972
0.32721	1.09496
-0.69285	0.40625
0.14870	-0.07840
1.14327	-0.10391
-1.30489	-0.43551
0.22521	-0.33348
0.25071	-0.10391
0.63323	0.53379
-1.17738	0.48277
1.16877	0.61031
0.12320	0.38074
1.95932	-0.10391
1.42379	0.22769
-0.46334	0.15117
-1.02437	0.04914
-0.15732	-0.35899
0.88825	0.30422
0.37822	0.45726
-0.13181	0.20219
-1.84042	0.15117
-0.20832	-0.02739
1.62780	0.32972
1.01576	0.20219
1.24527	0.25320
1.55129	0.07465
-1.02437	0.12566
-2.86049	-0.00188
-1.15188	-0.20594
1.60230	0.27871
1.44929	-0.30797
0.27621	-0.00188
0.96476	0.15117
0.35272	0.25320
0.27621	-0.00188
0.25071	0.07465
0.07220	0.04914
-0.28482	0.10015
0.09770	0.58480
-0.43783	0.68683
-0.00431	0.22769
0.04670	0.17668
-0.02981	-0.07840
0.22521	-0.20594
1.14327	0.04914
0.40372	0.15117
-0.08081	0.10015
0.93925	-0.02739
-0.64185	0.02363
-2.52897	0.32972
0.83725	0.22769
1.78081	0.17668
0.35272	0.17668
0.91375	0.25320
-0.25932	0.50828
0.17421	-0.05289
0.30171	-0.41000
-0.05531	0.15117
-2.42696	-0.00188
-1.33039	0.35523
1.16877	-0.07840
1.34728	0.22769
1.50029	0.35523
1.16877	0.12566
0.91375	0.12566
-1.33039	-0.25695
-0.66735	0.12566
0.53123	0.40625
0.14870	0.55929
0.86275	-0.05289
-0.18282	0.27871
-0.43783	-0.25695
0.07220	0.17668
0.04670	-0.12942
0.12320	-0.05289
0.19971	0.04914
0.09770	0.40625
0.63323	0.17668
0.30171	0.30422
-0.38683	0.17668
0.58223	-0.02739
1.14327	0.20219
-1.38139	0.04914
-0.69285	0.27871
1.52579	0.17668
0.25071	0.17668
1.78081	0.10015
1.42379	-0.35899
-1.43240	0.45726
-2.91149	0.20219
0.04670	0.04914
1.29628	0.15117
1.80631	0.12566
-0.18282	0.27871
-0.43783	0.20219
1.55129	0.17668
-0.13181	0.27871
-1.10088	0.35523
0.07220	-0.12942
0.37822	-0.28246
0.30171	-0.10391
0.30171	-0.12942
0.14870	0.25320
1.01576	0.78886
0.83725	0.27871
-2.47797	-0.15492
-0.59084	0.35523
0.35272	0.02363
0.12320	0.25320
0.73524	-0.02739
0.93925	0.35523
-0.05531	-0.33348
1.06676	0.27871
1.01576	0.43176
-1.45790	0.12566
-0.94787	0.10015
1.01576	0.10015
0.27621	-0.35899
0.55673	0.04914
0.02119	0.12566
0.58223	-0.05289
0.83725	0.40625
-1.76392	0.15117
-0.64185	0.22769
1.21977	0.32972
0.40372	0.38074
-0.02981	0.04914
-0.79486	-0.15492
-0.71835	0.12566
1.65330	0.43176
1.24527	0.10015
0.50573	0.15117
-0.99887	0.12566
0.91375	0.15117
-0.43783	0.43176
-0.15732	0.15117
0.40372	0.02363
0.27621	-0.33348
-0.25932	-0.58856
0.40372	0.04914
0.22521	0.45726
-0.00431	0.12566
-0.15732	0.61031
0.60773	0.55929
0.37822	-0.02739
-0.13181	-0.00188
0.42922	0.20219
-0.28482	0.04914
-0.10631	0.25320
0.19971	0.17668
0.65874	-0.02739
0.17421	0.07465
-0.69285	0.20219
0.73524	0.55929
0.32721	0.10015
-1.10088	-0.00188
0.42922	-0.00188
0.35272	0.27871
0.63323	-0.07840
1.37278	0.10015
0.19971	-0.00188
-0.94787	0.15117
0.14870	0.20219
0.93925	0.58480
1.09226	0.25320
0.22521	0.27871
0.12320	0.12566
-0.92237	0.25320
0.09770	-0.05289
-0.38683	-0.25695
-2.14644	-0.00188
0.14870	0.27871
2.01032	0.22769
1.21977	0.27871
0.93925	0.40625
-1.22839	-0.12942
-0.71835	0.20219
0.78624	0.43176
1.04126	0.10015
0.22521	-0.15492
-0.15732	-0.00188
-0.20832	0.17668
-1.02437	0.25320
0.09770	0.25320
0.78624	0.04914
0.25071	0.02363
0.48022	0.07465
0.48022	0.22769
-0.46334	-0.02739
0.83725	0.22769
-1.10088	0.10015
-1.91693	0.25320
0.40372	-0.25695
1.39828	0.73785
0.73524	0.10015
0.83725	-0.07840
0.83725	0.04914
0.22521	0.25320
-0.36133	-0.02739
-0.46334	-0.05289
-1.50890	-0.10391
1.75531	0.40625
1.34728	0.25320
0.40372	0.45726
-1.25389	0.20219
0.12320	-0.05289
0.22521	0.04914
-1.15188	0.07465
-0.20832	0.04914
1.16877	0.04914
0.07220	0.43176
0.40372	0.25320
-0.02981	0.27871
-0.48884	-0.05289
1.42379	0.30422
1.47479	0.15117
1.09226	0.10015
0.86275	0.02363
-0.89686	0.32972
-0.71835	0.20219
-0.05531	0.50828
0.91375	0.12566
-0.38683	0.10015
0.42922	0.38074
-0.36133	0.04914
-0.89686	0.02363
-1.33039	-0.02739
-0.13181	0.15117
0.42922	-0.02739
0.63323	0.30422
0.99026	0.96742
1.11776	-0.15492
0.73524	0.58480
0.40372	-0.25695
1.55129	-0.15492
-1.71292	-0.07840
-1.35589	0.35523
-0.41233	0.30422
0.25071	0.22769
0.60773	0.12566
0.99026	0.40625
0.88825	0.35523
0.14870	-0.20594
-1.35589	0.07465
0.30171	0.25320
0.65874	-0.18043
0.27621	0.35523
-1.38139	-0.10391
0.55673	0.30422
0.02119	0.30422
-0.41233	0.12566
0.45472	0.15117
1.14327	-0.00188
1.21977	0.25320
-0.02981	0.15117
-0.97337	0.48277
-0.00431	0.10015
0.25071	0.25320
1.47479	-0.58856
0.68424	0.15117
-1.66191	0.25320
-0.76936	-0.02739
0.73524	0.35523
0.73524	-0.00188
1.09226	0.30422
-1.04987	0.22769
0.30171	0.10015
-1.45790	0.15117
0.17421	0.38074
0.63323	0.10015
1.09226	-0.15492
0.68424	0.50828
-0.05531	0.32972
0.45472	0.02363
0.27621	-0.18043
-0.08081	0.20219
-1.02437	-0.12942
0.17421	0.30422
-0.64185	0.35523
0.17421	0.02363
0.22521	0.94191
0.37822	0.22769
0.22521	0.20219
1.75531	0.12566
0.12320	0.20219
-2.14644	-0.05289
-0.43783	-0.56305
-0.18282	-0.02739
2.34184	0.22769
0.45472	0.53379
-0.69285	0.04914
1.01576	0.35523
1.01576	0.40625
-0.94787	0.38074
1.50029	-0.05289
0.63323	-0.05289
-1.63641	-0.00188
-0.46334	0.45726
-0.05531	-0.30797
0.91375	0.17668
-1.66191	0.40625
-1.10088	0.32972
1.52579	0.04914
0.73524	-0.02739
-0.59084	0.10015
-0.74385	0.10015
0.96476	0.25320
0.83725	0.27871
1.24527	0.30422
0.68424	0.22769
0.12320	0.15117
-0.08081	0.10015
-0.05531	-0.10391
0.22521	-0.00188
-0.28482	0.02363
-0.28482	0.30422
-0.13181	0.12566
-0.97337	-0.00188
0.42922	-0.00188
1.21977	-0.00188
-0.76936	0.35523
0.22521	0.12566
-0.05531	0.10015
0.65874	0.27871
0.70974	0.07465
1.11776	-0.05289
1.19427	-0.35899
-0.87136	0.71234
0.30171	0.50828
0.22521	0.22769
-0.31033	0.02363
0.81175	0.38074
0.55673	0.10015
-0.99887	0.02363
-0.25932	0.15117
1.09226	0.27871
-0.56534	0.02363
0.04670	-0.33348
-0.89686	0.12566
-0.10631	0.35523
0.83725	0.02363
0.68424	0.15117
-0.00431	0.22769
0.76074	0.68683
-0.08081	-0.25695
0.86275	0.27871
1.32178	0.12566
-1.81492	0.04914
-0.31033	0.10015
0.60773	0.40625
1.83181	0.07465
-1.30489	-0.46102
-1.71292	0.35523
1.09226	0.15117
0.60773	0.17668
0.70974	0.45726
0.09770	0.15117
-1.17738	-0.20594
0.60773	0.10015
0.48022	0.38074
-0.08081	0.12566
0.53123	0.27871
0.78624	0.02363
-0.31033	0.55929
-0.08081	-0.00188
0.37822	-0.02739
0.32721	-0.05289
0.68424	0.12566
-1.02437	0.45726
-2.27395	-0.05289
1.21977	0.04914
1.06676	0.30422
0.63323	0.35523
-0.33583	-0.02739
1.19427	0.02363
0.27621	0.17668
0.07220	0.15117
-0.28482	-0.00188
0.55673	0.27871
0.93925	0.27871
0.32721	0.04914
-0.18282	0.50828
-0.64185	-0.20594
-1.40690	-0.02739
0.93925	0.02363
0.60773	0.25320
0.58223	-0.15492
-0.28482	-0.05289
-0.13181	-0.02739
0.25071	0.50828
0.93925	0.15117
-1.10088	0.07465
0.45472	0.73785
0.76074	0.30422
0.70974	0.07465
0.55673	0.20219
0.88825	0.02363
-0.18282	-0.05289
-1.50890	-0.15492
-0.59084	-0.48652
2.26534	0.45726
0.37822	0.20219
-1.15188	0.25320
-1.53441	0.20219
0.25071	0.32972
1.27078	0.25320
0.53123	-0.02739
1.50029	0.32972
0.50573	0.30422
-1.96793	-0.05289
-1.96793	0.30422
0.73524	-0.05289
1.57679	0.27871
0.35272	0.04914
0.14870	0.68683
-0.02981	-0.66508
-0.02981	0.20219
0.58223	0.27871
0.35272	0.50828
0.37822	0.12566
-0.36133	0.07465
-0.13181	0.45726
0.22521	0.04914
0.32721	0.22769
0.02119	-0.07840
0.55673	0.55929
0.27621	-0.10391
-0.18282	-0.12942
0.19971	0.30422
0.12320	0.10015
0.02119	-0.05289
0.53123	0.15117
-0.20832	0.38074
-0.74385	0.55929
0.96476	0.12566
0.83725	-0.28246
0.19971	-0.02739
-0.48884	0.22769
0.27621	0.20219
-0.71835	0.15117
-0.69285	-0.12942
1.52579	0.07465
0.30171	0.17668
-0.13181	0.30422
0.53123	0.53379
0.19971	0.02363
0.45472	0.25320
-0.61635	0.15117
0.65874	0.02363
-0.56534	0.10015
-0.92237	0.27871
0.99026	-0.07840
0.68424	0.35523
0.02119	0.40625
-0.18282	-0.48652
0.40372	-0.23145
-0.10631	-0.02739
0.12320	0.10015
0.70974	0.07465
0.48022	0.91640
-0.99887	0.45726
0.22521	-0.15492
1.14327	0.50828
0.35272	0.40625
-0.13181	0.43176
-0.51434	-0.05289
-0.08081	-0.12942
0.88825	-0.18043
0.37822	-0.00188
-0.71835	0.73785
-0.08081	0.22769
0.55673	0.07465
0.68424	0.15117
0.78624	-0.46102
0.58223	0.04914
-0.97337	0.35523
-0.33583	0.27871
0.45472	0.30422
-0.36133	0.40625
-0.31033	-0.25695
0.58223	0.20219
2.01032	0.22769
0.86275	-0.02739
-0.10631	0.76336
-0.28482	0.45726
0.73524	0.04914
0.45472	0.04914
-1.22839	-0.33348
-1.55991	0.17668
-0.76936	0.02363
0.50573	0.17668
1.19427	0.10015
0.63323	0.35523
0.91375	0.07465
0.53123	0.04914
-0.25932	0.25320
0.45472	0.25320
0.50573	-0.05289
-0.18282	-0.05289
-0.87136	0.35523
-0.48884	-0.12942
0.91375	0.27871
0.88825	0.25320
1.01576	0.25320
-0.79486	0.30422
-0.36133	-0.10391
0.02119	0.10015
-0.10631	0.43176
0.53123	0.32972
0.02119	-0.20594
0.42922	-0.05289
0.53123	-0.05289
0.63323	-0.56305
-0.66735	0.22769
-1.10088	0.38074
-0.20832	-0.02739
0.83725	0.15117
1.11776	0.38074
0.42922	0.61031
-0.33583	-0.69059
0.45472	0.25320
-0.18282	0.53379
-0.02981	0.30422
0.42922	-0.05289
1.11776	0.17668
-0.00431	-0.07840
0.17421	0.45726
-1.30489	0.02363
-2.01894	-0.51203
-0.66735	0.04914
1.72980	0.30422
1.42379	0.61031
0.88825	0.35523
-0.64185	-0.12942
0.32721	-0.12942
0.53123	0.58480
1.16877	0.35523
0.17421	-0.25695
-0.64185	0.22769
-0.84586	0.12566
0.35272	0.22769
0.73524	0.30422
1.01576	-0.10391
-0.66735	-0.33348
-0.99887	-0.02739
0.50573	0.50828
-0.02981	-0.41000
0.14870	0.20219
0.37822	0.43176
0.14870	-0.07840
0.19971	0.50828
0.58223	0.07465
0.27621	0.50828
0.32721	-0.48652
0.30171	0.43176
0.68424	0.25320
-0.87136	-0.05289
-0.71835	-0.28246
-0.59084	0.10015
0.58223	0.15117
0.19971	0.20219
-0.56534	0.15117
1.65330	0.55929
0.65874	0.12566
-0.56534	0.20219
0.93925	0.17668
0.50573	0.10015
-0.51434	0.22769
1.04126	0.32972
-0.64185	0.10015
-1.07538	0.04914
-1.07538	0.15117
0.55673	0.04914
1.42379	0.22769
1.60230	0.38074
0.14870	0.27871
-1.71292	-0.38449
-0.41233	0.50828
0.63323	0.53379
0.81175	0.15117
0.32721	0.15117
-0.53984	-0.15492
0.68424	0.50828
0.35272	-0.23145
-0.08081	0.30422
0.83725	0.04914
-0.15732	0.22769
-1.04987	-0.05289
0.04670	0.04914
0.86275	0.32972
-0.05531	0.35523
-0.48884	0.30422
1.04126	0.38074
0.04670	0.17668
1.39828	-0.02739
-0.00431	0.10015
-1.91693	-0.33348
0.68424	0.25320
-0.31033	-0.05289
-0.84586	-0.05289
-1.15188	0.22769
1.06676	0.43176
2.59686	0.35523
2.16333	0.22769
0.58223	0.53379
-1.10088	-0.23145
-0.94787	0.30422
-0.48884	-0.00188
-0.38683	-0.02739
0.91375	0.04914
0.50573	0.27871
0.65874	-0.15492
-0.43783	0.53379
-1.38139	0.38074
0.07220	0.76336
0.93925	0.86539
0.78624	-0.48652
0.81175	-0.41000
0.07220	-0.20594
-0.46334	-0.25695
-1.02437	0.58480
-0.10631	0.30422
0.22521	0.30422
0.14870	0.32972
1.04126	0.12566
0.22521	0.12566
0.42922	-0.02739
0.76074	-0.02739
0.78624	0.15117
-0.53984	0.35523
-1.61091	0.35523
-0.59084	0.12566
0.35272	-0.07840
0.42922	0.22769
1.72980	0.15117
0.99026	0.38074
-0.38683	-0.12942
-0.41233	-0.05289
-0.59084	0.17668
0.22521	0.22769
0.22521	0.25320
0.50573	0.07465
0.48022	-0.20594
-0.46334	0.53379
-0.74385	0.27871
0.83725	0.35523
1.04126	0.04914
-1.48340	-0.05289
0.19971	0.30422
0.86275	0.20219
0.78624	0.10015
0.63323	0.35523
-0.38683	0.25320
0.17421	-0.35899
-0.25932	-0.38449
0.42922	0.12566
0.65874	0.55929
0.04670	0.83988
-1.15188	0.40625
-0.31033	-0.00188
-0.48884	-0.20594
1.34728	-0.12942
1.32178	0.10015
-0.61635	0.02363
0.37822	0.02363
0.78624	-0.00188
0.55673	0.40625
-0.71835	-0.00188
-0.92237	0.22769
0.76074	0.02363
0.35272	0.15117
-0.36133	0.17668
0.25071	0.25320
0.02119	0.07465
1.50029	0.40625
-0.28482	0.10015
-0.28482	-0.15492
-0.18282	0.07465
-0.99887	0.15117
1.29628	0.15117
0.37822	0.25320
0.12320	0.10015
0.42922	0.45726
1.04126	0.35523
-0.74385	-0.20594
-0.02981	0.20219
0.42922	0.30422
0.50573	0.04914
-0.08081	0.35523
0.07220	0.40625
-0.28482	-0.07840
0.55673	0.07465
-0.97337	-0.02739
-0.66735	0.02363
0.53123	0.15117
0.81175	0.20219
0.25071	0.15117
0.17421	-0.46102
-0.89686	0.86539
-1.78942	0.25320
1.01576	0.30422
1.60230	0.35523
0.58223	0.22769
-0.36133	0.15117
0.19971	0.22769
1.06676	-0.15492
0.50573	0.10015
-0.36133	-0.18043
-0.15732	0.22769
-1.02437	-0.12942
-1.30489	0.25320
-0.05531	0.15117
1.67880	0.12566
1.85731	0.25320
0.32721	0.15117
-1.07538	0.20219
-0.38683	-0.02739
-0.02981	0.20219
-0.33583	-0.02739
0.83725	0.17668
0.88825	0.10015
1.24527	0.22769
-0.79486	-0.00188
-0.89686	0.02363
0.60773	0.58480
0.42922	0.12566
-0.02981	-0.30797
0.09770	0.25320
0.37822	0.17668
0.02119	0.17668
-0.13181	0.15117
-0.64185	0.12566
-0.20832	-0.10391
1.95932	0.25320
0.45472	0.20219
-1.71292	0.10015
0.19971	0.30422
-0.08081	-0.05289
0.32721	0.17668
1.14327	0.32972
1.06676	0.32972
-0.46334	0.53379
-0.05531	-0.25695
0.60773	0.07465
0.42922	0.04914
-0.05531	-0.28246
-0.25932	0.12566
-0.53984	0.32972
-0.20832	0.40625
-0.18282	0.15117
0.32721	-0.00188
0.48022	-0.00188
0.17421	-0.07840
0.40372	0.40625
0.14870	0.35523
0.37822	0.35523
0.25071	-0.00188
0.32721	-0.00188
-0.36133	-0.05289
-0.05531	0.27871
0.40372	0.35523
0.53123	0.48277
0.12320	0.45726
-0.08081	0.30422
1.01576	0.32972
0.53123	-0.30797
0.07220	-0.10391
0.25071	-0.10391
0.07220	0.20219
0.14870	0.20219
-0.23382	0.04914
-0.38683	0.30422
-0.28482	-0.12942
-0.05531	0.15117
0.22521	0.25320
0.12320	0.10015
-0.20832	0.35523
0.27621	0.17668
0.88825	0.35523
1.14327	0.12566
0.17421	0.12566
-0.61635	0.12566
0.50573	0.22769
-0.61635	0.17668
1.78081	0.25320
0.27621	0.04914
0.12320	0.38074
0.07220	-0.20594
-0.64185	-0.25695
-0.74385	0.07465
0.48022	0.17668
0.76074	0.30422
0.37822	0.53379
0.14870	0.17668
-0.00431	0.15117
0.63323	0.10015
-0.25932	0.30422
-0.89686	0.32972
-0.46334	0.12566
-0.28482	0.07465
0.73524	-0.20594
1.06676	0.04914
0.81175	0.55929
0.50573	0.20219
0.50573	0.38074
0.02119	0.30422
-0.13181	0.07465
-0.48884	-0.23145
0.09770	0.10015
-0.18282	0.12566
-0.15732	0.12566
0.45472	0.25320
0.22521	0.04914
1.70430	0.07465
-0.25932	0.12566
-2.60547	0.38074
-0.48884	0.48277
1.16877	0.17668
1.55129	0.07465
-0.56534	-0.56305
0.27621	0.07465
0.86275	0.17668
0.45472	0.32972
0.60773	0.25320
0.25071	0.43176
-0.71835	0.15117
-0.99887	0.17668
0.68424	-0.30797
-1.20288	-0.18043
-1.15188	0.17668
0.58223	0.53379
1.55129	0.43176
1.29628	0.32972
-0.10631	0.15117
-0.41233	-0.05289
0.99026	-0.07840
-0.00431	0.02363
-0.87136	-0.18043
-0.31033	0.07465
0.50573	0.35523
0.40372	0.12566
1.04126	0.20219
-0.41233	0.27871
0.55673	0.22769
0.02119	0.43176
-0.84586	0.20219
-0.46334	0.15117
1.14327	-0.00188
0.27621	0.04914
-1.86593	0.02363
-0.05531	0.27871
0.91375	-0.05289
1.44929	0.40625
0.40372	0.12566
-0.18282	-0.25695
0.45472	0.48277
0.12320	0.55929
-0.23382	-0.46102
0.55673	-0.23145
0.88825	0.66132
0.17421	0.45726
0.25071	0.32972
-0.02981	0.07465
-0.48884	0.04914
0.09770	0.10015
-0.13181	0.30422
0.53123	0.12566
0.09770	0.15117
-0.46334	-0.00188
-0.53984	0.35523
0.53123	0.45726
0.60773	0.17668
0.65874	-0.05289
-0.38683	-0.15492
-0.05531	0.10015
0.55673	0.30422
1.29628	0.20219
-0.33583	0.17668
0.50573	0.10015
0.45472	0.17668
-0.38683	0.17668
-0.69285	-0.12942
0.17421	-0.12942
0.42922	0.32972
0.99026	0.50828
-0.53984	0.30422
-1.84042	0.04914
-0.18282	-0.10391
0.63323	0.35523
1.04126	0.17668
0.58223	-0.18043
1.21977	-0.30797
-0.00431	0.17668
-0.08081	0.40625
-0.08081	0.04914
0.65874	0.20219
0.14870	-0.02739
-1.04987	-0.23145
-1.63641	0.32972
0.88825	0.38074
0.22521	0.66132
0.55673	-0.02739
0.86275	-0.05289
0.07220	0.61031
0.04670	-0.10391
1.21977	0.20219
-0.31033	0.15117
-1.07538	-0.07840
0.50573	0.22769
0.22521	0.27871
1.85731	0.04914
-0.18282	0.20219
-0.28482	0.53379
-0.13181	0.48277
-0.46334	-0.00188
-0.25932	-0.25695
1.11776	-0.02739
0.78624	-0.00188
-1.12638	-0.05289
-0.92237	0.04914
0.73524	0.07465
-0.05531	0.38074
0.55673	0.45726
1.24527	0.48277
-1.22839	0.10015
-0.08081	-0.15492
1.27078	0.04914
0.07220	0.15117
0.53123	0.32972
-0.02981	0.17668
0.37822	0.25320
-0.56534	0.15117
-0.38683	0.22769
1.34728	0.17668
-0.02981	0.04914
-1.30489	-0.07840
-0.69285	0.04914
0.14870	0.35523
0.45472	0.45726
1.01576	0.15117
0.65874	0.12566
0.09770	-0.05289
0.42922	0.20219
0.09770	0.15117
0.32721	0.20219
-0.59084	0.02363
-1.15188	0.15117
-0.10631	0.20219
-0.00431	0.22769
0.68424	0.07465
1.55129	0.30422
0.19971	0.30422
0.12320	-0.15492
-0.33583	0.17668
-0.53984	0.12566
1.14327	0.25320
0.53123	0.17668
-1.25389	-0.00188
-0.25932	0.22769
0.14870	-0.02739
-0.66735	0.40625
1.01576	0.12566
1.55129	0.32972
0.22521	0.22769
-1.02437	-0.05289
-0.33583	0.07465
1.14327	-0.25695
1.57679	-0.02739
-2.47797	0.10015
-0.89686	0.30422
2.31634	0.17668
0.37822	0.32972
-0.00431	0.35523
0.68424	0.30422
0.70974	0.04914
-0.33583	0.40625
0.22521	0.10015
-1.20288	-0.18043
-0.33583	0.30422
0.02119	0.27871
0.17421	-0.15492
1.14327	0.20219
0.32721	0.55929
-0.84586	-0.05289
0.48022	0.45726
0.68424	0.22769
0.27621	-0.05289
0.27621	0.32972
-0.25932	0.02363
0.02119	-0.00188
0.45472	-0.02739
-0.20832	0.22769
0.45472	0.02363
0.22521	0.10015
-0.51434	0.12566
0.02119	0.10015
0.45472	0.04914
1.04126	0.07465
0.22521	0.45726
0.17421	0.15117
0.09770	0.10015
-0.51434	0.30422
0.63323	0.20219
-0.10631	0.32972
-1.10088	-0.07840
0.63323	-0.10391
0.14870	0.25320
-0.89686	-0.00188
0.04670	-0.02739
1.04126	0.12566
0.93925	0.55929
0.99026	-0.20594
1.52579	0.10015
-1.27939	0.12566
-1.81492	-0.18043
0.02119	0.10015
0.02119	0.32972
0.99026	0.38074
0.30171	0.12566
0.60773	0.10015
0.14870	0.22769
0.07220	0.35523
0.42922	-0.56305
-0.08081	0.17668
-0.18282	-0.02739
0.07220	0.17668
-0.31033	0.43176
0.07220	0.45726
0.78624	0.43176
0.99026	0.30422
-0.59084	-0.00188
-1.04987	-0.18043
-0.00431	-0.07840
0.76074	-0.07840
1.09226	0.17668
-0.05531	0.17668
-1.12638	0.02363
0.78624	0.20219
1.34728	0.17668
-0.46334	0.27871
1.24527	0.40625
-0.41233	0.50828
-0.18282	0.63582
0.58223	-0.00188
0.53123	-0.25695
-0.08081	-0.10391
-0.48884	-0.02739
-0.25932	0.07465
-0.13181	-0.05289
0.78624	0.32972
0.30171	0.10015
-0.89686	0.27871
-0.64185	0.40625
0.50573	0.02363
0.88825	0.20219
0.96476	0.12566
-0.56534	0.15117
-0.64185	0.15117
-0.13181	-0.05289
-0.38683	-0.12942
0.73524	0.07465
0.17421	0.15117
1.70430	0.50828
0.76074	0.38074
-0.23382	0.50828
0.73524	0.30422
0.27621	0.25320
-0.31033	0.04914
-0.41233	-0.18043
-0.10631	-0.00188
-0.13181	0.12566
-0.28482	0.25320
-0.36133	-0.12942
0.73524	0.40625
0.50573	0.27871
-0.99887	0.04914
-1.71292	0.35523
-0.56534	0.12566
0.96476	0.15117
1.90832	-0.28246
-0.05531	0.07465
0.91375	0.17668
0.81175	0.43176
0.32721	-0.00188
0.58223	0.48277
-0.28482	0.35523
0.17421	0.04914
0.12320	-0.25695
-0.94787	-0.02739
-1.02437	0.43176
0.19971	0.32972
0.55673	0.12566
0.93925	0.15117
0.42922	0.07465
0.07220	0.32972
0.25071	-0.02739
0.32721	-0.02739
0.02119	-0.23145
0.09770	-0.23145
0.37822	0.17668
0.45472	0.07465
-1.04987	0.25320
-1.25389	0.53379
0.93925	0.02363
0.86275	0.55929
0.65874	0.25320
1.19427	0.04914
-0.15732	-0.00188
-1.12638	-0.05289
-1.15188	-0.15492
0.81175	0.15117
1.29628	0.63582
0.63323	0.22769
-0.13181	0.15117
0.60773	-0.10391
0.22521	0.07465
0.27621	-0.05289
-0.87136	0.12566
-0.38683	0.32972
0.68424	-0.05289
1.04126	0.17668
0.22521	-0.00188
-0.76936	0.43176
-0.38683	-0.05289
0.91375	0.22769
0.35272	0.25320
0.12320	0.22769
0.27621	0.22769
0.42922	0.20219
-0.10631	0.07465
-0.05531	-0.10391
-0.53984	-0.02739
0.42922	0.32972
0.78624	0.30422
-0.00431	0.35523
-0.02981	0.10015
0.35272	0.04914
0.30171	0.04914
0.73524	-0.10391
-0.02981	0.07465
-0.64185	0.20219
0.12320	0.20219
-0.46334	0.22769
-0.82036	-0.18043
0.60773	0.27871
1.47479	0.35523
0.99026	0.07465
0.53123	0.30422
-0.89686	0.20219
-0.48884	-0.02739
-0.59084	0.43176
1.01576	0.02363
1.16877	-0.35899
0.27621	0.48277
0.02119	0.20219
0.30171	-0.25695
0.04670	0.35523
-0.79486	0.17668
-0.38683	0.43176
1.06676	0.02363
0.68424	0.15117
-0.51434	-0.30797
-0.97337	0.22769
1.70430	0.53379
0.48022	0.12566
-1.73842	0.12566
-0.25932	0.10015
0.55673	-0.15492
1.06676	0.04914
1.37278	-0.18043
0.32721	0.25320
-1.68742	0.20219
-0.53984	0.50828
0.25071	0.10015
1.44929	0.10015
1.57679	-0.07840
-0.05531	-0.30797
-0.25932	0.58480
0.12320	0.15117
-0.13181	0.27871
0.02119	0.27871
0.07220	0.30422
0.58223	-0.00188
-0.02981	0.07465
-1.45790	0.22769
-0.25932	0.35523
0.65874	0.15117
0.14870	-0.00188
0.22521	0.20219
0.70974	0.30422
0.53123	0.04914
-0.13181	-0.15492
0.30171	-0.30797
0.81175	0.43176
0.07220	0.53379
-0.25932	0.35523
0.17421	0.15117
1.27078	-0.00188
-0.84586	0.22769
-0.25932	0.40625
-0.69285	0.30422
0.35272	-0.20594
1.06676	0.04914
0.27621	-0.02739
-0.18282	-0.00188
-0.31033	0.04914
0.19971	0.50828
0.81175	-0.02739
-0.23382	0.48277
0.32721	0.17668
0.78624	0.45726
0.09770	-0.23145
0.40372	-0.35899
-0.48884	0.17668
-0.41233	0.25320
0.78624	0.50828
1.04126	-0.41000
-0.15732	0.10015
-1.25389	0.76336
-0.84586	0.20219
0.91375	-0.10391
1.37278	0.17668
0.70974	0.02363
-0.53984	0.48277
0.76074	0.32972
-0.15732	0.10015
0.32721	-0.28246
0.14870	-0.18043
-0.46334	0.17668
-0.46334	0.04914
0.25071	0.50828
0.12320	0.53379
-0.20832	0.22769
1.04126	-0.10391
0.40372	0.17668
-0.08081	0.45726
-1.53441	-0.12942
0.91375	0.15117
0.35272	0.68683
0.63323	-0.18043
1.14327	-0.15492
0.53123	0.20219
-0.94787	-0.02739
-0.23382	0.12566
0.88825	-0.02739
-0.59084	0.15117
-1.30489	0.30422
1.55129	0.25320
1.04126	-0.25695
-0.71835	0.02363
-1.81492	0.25320
0.55673	0.32972
1.09226	0.12566
1.72980	0.58480
0.17421	-0.12942
0.14870	-0.10391
0.12320	0.45726
-0.23382	0.04914
-0.74385	0.10015
0.60773	0.10015
-0.84586	0.43176
-0.41233	0.12566
0.30171	0.07465
0.76074	0.27871
0.45472	0.30422
0.12320	-0.05289
0.68424	-0.02739
0.32721	-0.18043
-0.79486	-0.05289
-0.79486	0.38074
1.32178	0.22769
1.75531	0.43176
-0.43783	0.45726
-2.80949	-0.00188
-0.15732	-0.10391
1.16877	0.12566
0.70974	0.07465
0.12320	0.32972
1.09226	0.32972
0.96476	0.22769
-0.48884	-0.12942
-1.73842	-0.05289
-0.18282	-0.10391
0.93925	-0.00188
0.25071	-0.18043
0.27621	0.71234
0.48022	0.53379
0.32721	0.12566
-0.51434	0.20219
0.22521	0.07465
0.17421	-0.00188
0.96476	0.15117
-0.41233	0.27871
0.17421	-0.33348
-0.66735	0.07465
-1.15188	-0.00188
0.02119	0.32972
0.60773	0.30422
1.32178	0.53379
1.06676	-0.05289
0.42922	-0.10391
0.17421	0.15117
-0.36133	0.35523
-0.10631	-0.02739
0.83725	0.40625
0.83725	0.22769
-1.20288	-0.00188
-1.61091	-0.05289
-0.33583	0.45726
0.93925	0.12566
1.72980	0.04914
0.42922	0.22769
-0.38683	-0.28246
-0.08081	0.32972
-0.23382	0.10015
-0.48884	0.22769
0.63323	0.27871
-0.10631	0.15117
0.63323	0.38074
1.72980	0.22769
0.35272	-0.07840
-0.08081	0.12566
-0.28482	-0.18043
0.25071	0.15117
0.35272	0.43176
-0.87136	-0.10391
-0.36133	0.22769
-0.20832	0.17668
0.02119	0.10015
0.17421	-0.02739
0.32721	0.17668
0.68424	0.15117
1.39828	0.10015
0.55673	0.30422
-0.82036	0.17668
-1.17738	-0.02739
0.25071	0.10015
0.07220	0.32972
0.76074	-0.05289
1.16877	0.27871
-0.13181	0.10015
0.42922	-0.25695
0.40372	0.22769
-0.18282	0.10015
-0.13181	0.15117
-0.66735	0.10015
-0.53984	0.15117
0.48022	0.40625
0.14870	0.07465
0.07220	0.10015
0.55673	0.27871
1.29628	-0.07840
-0.00431	0.63582
-2.17195	0.25320
-0.15732	0.07465
0.83725	-0.12942
1.11776	-0.00188
0.65874	-0.28246
0.04670	0.58480
0.30171	-0.15492
0.96476	0.25320
-0.69285	0.22769
-0.99887	-0.23145
1.01576	0.30422
0.37822	0.30422
-0.66735	0.10015
-0.13181	0.10015
0.68424	0.17668
0.19971	0.12566
0.25071	0.15117
0.40372	0.35523
0.37822	0.10015
0.22521	0.30422
-0.18282	0.20219
1.32178	-0.10391
-1.10088	-0.05289
-2.80949	0.04914
0.09770	0.10015
0.86275	0.07465
1.62780	0.04914
1.09226	0.17668
0.40372	-0.00188
0.50573	0.20219
-0.13181	0.10015
-0.13181	0.50828
0.04670	0.35523
0.12320	0.27871
-0.33583	-0.56305
0.53123	0.12566
-0.15732	0.17668
-1.33039	0.22769
0.99026	0.45726
1.37278	0.04914
0.32721	0.10015
-1.07538	0.20219
0.04670	0.10015
0.68424	0.17668
0.17421	0.12566
0.17421	0.04914
0.30171	0.02363
-0.69285	0.12566
0.25071	0.25320
1.16877	0.10015
0.91375	0.38074
0.02119	0.38074
-0.31033	0.17668
0.30171	-0.15492
-0.76936	-0.41000
-0.18282	-0.02739
1.01576	0.04914
1.04126	0.30422
-0.00431	0.50828
-1.04987	0.35523
-0.59084	0.25320
-0.18282	0.10015
0.53123	0.10015
0.48022	0.15117
1.37278	0.12566
0.07220	0.15117
-0.99887	0.02363
0.70974	0.40625
0.76074	0.63582
0.50573	0.25320
0.04670	-0.15492
0.27621	-0.25695
0.04670	-0.20594
0.40372	0.04914
-1.17738	0.40625
-2.47797	0.20219
0.91375	0.50828
0.99026	-0.07840
0.73524	-0.20594
0.78624	0.58480
0.86275	0.15117
0.58223	-0.00188
-0.10631	0.30422
0.07220	0.20219
-0.74385	0.12566
-0.61635	0.04914
0.58223	0.22769
-0.02981	0.25320
0.53123	0.27871
0.63323	-0.05289
-0.41233	0.07465
-0.79486	-0.12942
0.27621	0.10015
-0.00431	0.04914
0.07220	0.27871
0.45472	0.50828
1.16877	0.35523
0.99026	-0.05289
-0.08081	0.04914
0.37822	0.15117
0.50573	-0.05289
-1.07538	0.02363
-0.69285	0.48277
0.78624	0.02363
-0.00431	0.04914
-1.55991	0.10015
0.65874	0.10015
1.98482	0.02363
1.09226	0.22769
-1.02437	0.38074
-0.46334	0.04914
0.73524	0.10015
-0.38683	0.32972
-1.04987	0.38074
0.09770	-0.10391
0.07220	0.04914
0.91375	0.15117
1.52579	-0.02739
0.83725	0.30422
-1.10088	0.17668
-1.04987	0.17668
-0.43783	-0.12942
0.55673	0.07465
1.24527	0.45726
0.60773	-0.18043
0.09770	0.63582
0.40372	0.15117
0.17421	0.15117
-1.02437	0.07465
0.35272	0.22769
1.93382	0.20219
-0.51434	-0.25695
-1.84042	-0.00188
0.22521	-0.28246
0.27621	0.58480
0.45472	0.25320
1.04126	0.20219
0.25071	0.38074
0.17421	0.12566
0.22521	-0.00188
-0.38683	0.10015
0.35272	0.12566
0.30171	0.25320
0.32721	0.35523
-0.02981	0.10015
-0.69285	-0.25695
0.19971	0.25320
-0.08081	0.17668
0.35272	-0.00188
1.21977	0.35523
0.93925	0.27871
1.09226	0.27871
-1.55991	-0.18043
-0.48884	-0.38449
0.22521	0.25320
0.22521	-0.10391
0.76074	0.12566
0.22521	0.68683
-1.10088	0.25320
0.22521	-0.20594
0.60773	0.04914
-0.33583	0.20219
-0.13181	0.22769
-0.28482	0.25320
0.35272	0.30422
0.83725	-0.23145
0.48022	0.02363
-0.38683	-0.12942
-0.51434	0.22769
0.17421	0.20219
1.04126	0.07465
0.76074	0.04914
-0.97337	0.63582
-0.76936	0.35523
-0.20832	-0.23145
1.11776	0.32972
0.19971	0.17668
0.70974	0.30422
1.32178	0.10015
-0.51434	0.38074
0.30171	0.10015
-0.33583	0.04914
-2.47797	-0.12942
-0.23382	0.10015
1.39828	-0.10391
0.04670	-0.23145
-0.10631	0.32972
1.01576	0.32972
0.88825	0.15117
0.86275	0.25320
-0.31033	0.15117
-0.59084	0.25320
-0.10631	-0.25695
0.48022	0.02363
-0.51434	0.15117
-0.97337	0.15117
0.50573	0.63582
2.72437	0.40625
0.68424	0.25320
-1.96793	-0.18043
-0.31033	-0.18043
0.65874	0.17668
0.78624	-0.25695
0.42922	-0.20594
0.25071	0.15117
-0.31033	0.61031
0.70974	0.45726
-1.17738	0.04914
-0.31033	-0.05289
0.68424	0.25320
-0.10631	0.35523
0.32721	-0.05289
0.32721	0.27871
0.42922	-0.18043
0.76074	0.22769
0.35272	0.38074
-0.66735	0.15117
-0.46334	-0.05289
0.09770	0.55929
-0.25932	0.10015
0.78624	-0.10391
0.22521	0.12566
0.14870	0.12566
-0.02981	0.12566
0.42922	-0.18043
0.45472	0.25320
1.44929	0.32972
-1.04987	0.45726
-0.89686	-0.15492
0.37822	0.30422
0.96476	0.04914
0.42922	0.20219
-0.71835	0.12566
0.60773	0.45726
0.50573	0.27871
0.81175	0.25320
-0.08081	-0.05289
-1.07538	-0.12942
-0.71835	0.12566
1.06676	0.12566
-0.64185	-0.02739
-1.02437	0.12566
1.09226	0.38074
0.73524	0.20219
1.24527	0.20219
0.63323	0.20219
1.19427	0.43176
-0.71835	0.38074
-1.02437	-0.02739
0.53123	0.32972
0.14870	-0.53754
-0.20832	-0.20594
0.02119	0.04914
0.25071	0.35523
-0.94787	0.78886
0.12320	0.07465
0.60773	-0.35899
0.63323	0.66132
-0.02981	0.17668
-0.28482	0.10015
0.35272	0.04914
1.09226	-0.30797
0.60773	0.02363
0.19971	0.17668
-0.41233	0.43176
-0.99887	0.50828
-1.15188	-0.07840
1.67880	-0.07840
0.86275	-0.02739
-0.46334	0.55929
-0.28482	-0.00188
0.81175	0.20219
1.24527	0.38074
0.19971	0.30422
-0.48884	0.15117
-0.51434	-0.07840
0.48022	-0.20594
-0.46334	-0.02739
0.45472	0.17668
-0.15732	0.27871
0.42922	0.50828
-0.41233	0.20219
-0.33583	0.27871
0.17421	0.12566
1.70430	0.20219
1.04126	0.30422
0.30171	-0.05289
-0.43783	0.02363
-0.56534	-0.25695
-1.27939	0.12566
0.07220	0.35523
0.63323	0.07465
0.60773	0.22769
-0.20832	-0.20594
1.27078	0.35523
0.93925	0.20219
-1.58541	0.15117
-0.69285	0.22769
0.07220	0.15117
0.96476	-0.05289
0.70974	-0.12942
0.35272	0.02363
1.19427	0.48277
0.78624	-0.46102
-1.22839	0.12566
-0.51434	0.04914
-0.28482	0.86539
0.04670	0.55929
0.27621	-0.00188
1.37278	-0.10391
-0.18282	0.20219
-0.13181	0.38074
-0.48884	-0.00188
-0.64185	-0.00188
0.45472	-0.25695
-1.20288	0.04914
0.14870	0.20219
0.78624	0.32972
0.12320	0.17668
1.16877	0.07465
1.24527	0.15117
-0.10631	0.15117
-0.36133	0.17668
0.22521	0.50828
-0.05531	-0.00188
0.50573	0.07465
0.02119	-0.18043
-0.79486	0.27871
0.60773	0.32972
0.25071	0.07465
-0.87136	0.38074
-0.41233	0.02363
0.60773	0.20219
0.65874	0.02363
0.40372	-0.07840
0.48022	0.02363
0.37822	0.45726
-0.36133	-0.76711
0.07220	0.43176
-0.36133	0.17668
-0.51434	0.35523
1.09226	0.07465
0.53123	-0.00188
-1.15188	0.22769
-0.89686	0.63582
0.93925	0.25320
0.83725	-0.12942
1.78081	0.15117
0.25071	0.12566
-0.79486	0.22769
-0.48884	0.30422
0.73524	0.35523
0.42922	-0.05289
0.96476	-0.12942
-0.13181	-0.25695
-0.64185	-0.05289
-0.48884	0.20219
-0.38683	0.35523
0.19971	0.53379
0.63323	-0.15492
0.50573	0.30422
0.53123	0.07465
0.50573	0.20219
0.48022	-0.30797
-0.53984	0.99292
0.02119	-0.00188
-0.69285	0.02363
-0.51434	-0.02739
0.63323	-0.02739
1.27078	0.15117
1.01576	0.48277
-0.89686	-0.15492
-0.13181	0.32972
0.53123	0.17668
0.35272	-0.05289
0.14870	0.17668
0.14870	0.17668
0.22521	0.04914
-0.02981	-0.00188
0.12320	0.15117
-0.48884	0.43176
-0.20832	0.45726
-0.02981	-0.25695
0.32721	-0.12942
-0.13181	-0.07840
-0.08081	-0.02739
-0.10631	-0.07840
0.81175	0.50828
-0.02981	0.32972
0.42922	0.25320
0.19971	0.12566
0.30171	0.12566
0.42922	0.04914
-0.28482	-0.15492
0.12320	0.20219
-0.13181	0.10015
0.07220	-0.02739
0.93925	0.15117
0.53123	-0.07840
-0.92237	0.30422
-1.30489	0.35523
0.60773	0.35523
0.93925	0.38074
1.55129	0.17668
0.19971	-0.12942
-0.18282	-0.28246
0.37822	0.27871
-0.15732	0.27871
-0.23382	0.12566
-0.82036	0.04914
-0.31033	0.35523
1.14327	0.45726
0.78624	0.07465
0.27621	-0.25695
-1.40690	-0.18043
-0.82036	-0.23145
0.73524	-0.02739
0.99026	0.35523
0.17421	0.91640
0.35272	0.78886
0.53123	-0.30797
0.35272	0.12566
-0.48884	-0.38449
0.32721	0.15117
0.70974	0.20219
-0.43783	0.12566
-0.69285	0.30422
-1.15188	0.17668
0.12320	0.35523
1.24527	0.04914
1.01576	0.22769
1.04126	-0.05289
0.81175	0.12566
0.19971	0.15117
-0.23382	0.10015
-0.82036	0.32972
-0.15732	0.32972
0.09770	0.04914
-1.04987	-0.30797
0.91375	0.15117
0.53123	0.25320
-0.05531	-0.51203
0.70974	0.17668
0.42922	0.40625
-0.02981	0.30422
1.06676	0.61031
-0.69285	0.15117
-1.22839	0.55929
-0.13181	0.07465
1.16877	0.02363
1.42379	-0.07840
0.63323	0.15117
-0.02981	-0.07840
0.48022	0.10015
-0.08081	0.38074
-0.18282	0.25320
-0.08081	0.02363
-1.10088	-0.25695
-0.08081	0.07465
1.55129	0.22769
-0.41233	0.55929
-1.66191	0.68683
-0.00431	0.12566
0.99026	0.17668
1.80631	-0.23145
0.32721	0.02363
-0.43783	0.12566
-0.28482	0.43176
0.40372	0.20219
0.68424	0.17668
0.63323	-0.02739
0.32721	-0.10391
0.04670	0.15117
-0.43783	0.20219
0.04670	0.25320
-1.20288	0.15117
-0.74385	0.02363
0.27621	0.30422
0.83725	0.22769
0.48022	0.15117
1.21977	-0.05289
0.12320	0.17668
-0.94787	0.07465
0.22521	0.30422
0.78624	0.25320
-1.96793	-0.02739
1.39828	-0.00188
1.93382	0.32972
0.04670	0.35523
-0.18282	-0.00188
-0.25932	0.15117
0.32721	0.10015
0.19971	0.22769
0.14870	0.43176
-0.15732	0.35523
0.22521	0.02363
0.30171	-0.46102
-0.02981	-0.05289
0.09770	0.43176
0.07220	0.22769
0.02119	0.27871
0.50573	0.17668
-0.18282	0.17668
-0.00431	0.22769
1.16877	0.45726
-0.36133	0.02363
-0.59084	-0.00188
1.32178	0.07465
0.30171	0.17668
-3.21751	-0.63957
-0.18282	0.76336
2.16333	0.30422
0.70974	0.04914
1.34728	0.10015
0.02119	-0.18043
-0.25932	0.17668
0.50573	0.12566
0.12320	-0.02739
0.02119	0.02363
0.04670	0.32972
-0.02981	0.15117
-0.25932	0.07465
0.19971	-0.18043
-0.51434	0.30422
-0.94787	0.02363
0.40372	0.43176
0.45472	0.89089
-0.66735	0.38074
0.70974	-0.20594
1.52579	-0.07840
1.09226	-0.15492
-0.15732	0.50828
0.22521	0.04914
0.04670	0.25320
-0.13181	0.20219
-0.31033	0.02363
0.48022	0.04914
-0.74385	0.04914
0.12320	0.02363
0.17421	0.04914
0.78624	-0.00188
0.88825	0.02363
-0.71835	0.48277
0.70974	0.38074
-0.15732	0.30422
-0.00431	0.20219
0.40372	0.22769
0.07220	-0.18043
-1.27939	0.53379
-0.18282	0.04914
1.50029	0.22769
0.93925	0.17668
-2.14644	0.22769
-1.12638	0.10015
1.39828	-0.12942
1.16877	-0.05289
0.48022	0.30422
0.63323	0.20219
0.30171	0.10015
1.93382	0.55929
0.70974	0.38074
-2.06994	-0.15492
-1.53441	-0.20594
0.07220	0.38074
0.70974	0.22769
0.58223	0.27871
0.48022	0.12566
0.40372	0.07465
1.60230	0.15117
-0.10631	0.32972
-2.57997	0.30422
-0.05531	0.25320
1.16877	-0.05289
-0.25932	-0.05289
-0.46334	0.04914
1.04126	0.17668
0.91375	0.25320
0.30171	0.25320
-0.33583	-0.12942
0.86275	0.27871
1.32178	0.02363
-0.59084	0.25320
-0.53984	-0.10391
-1.27939	0.04914
-1.33039	0.15117
0.02119	0.12566
0.40372	0.10015
0.40372	-0.10391
1.04126	0.04914
0.58223	0.30422
1.60230	0.89089
0.50573	0.38074
-0.02981	0.48277
0.04670	-0.46102
-0.79486	0.68683
-1.30489	0.35523
-1.12638	-0.18043
0.91375	-0.30797
0.53123	-0.05289
0.22521	-0.10391
0.04670	-0.02739
-0.08081	0.40625
0.96476	-0.15492
0.91375	0.40625
0.14870	0.25320
-0.33583	0.04914
0.14870	0.15117
-0.51434	-0.12942
0.07220	0.27871
0.53123	0.20219
0.50573	0.43176
0.22521	0.07465
0.68424	0.32972
-0.02981	-0.15492
-0.79486	0.30422
-1.25389	-0.05289
-0.36133	-0.35899
1.42379	0.25320
0.78624	0.40625
-0.48884	0.71234
0.99026	0.30422
0.81175	-0.20594
-0.08081	-0.23145
0.25071	-0.15492
-0.25932	-0.28246
-0.10631	0.17668
0.45472	0.12566
-0.64185	0.07465
-0.36133	0.50828
1.14327	0.17668
-0.15732	0.20219
1.11776	0.35523
0.14870	0.68683
-1.50890	0.10015
0.19971	0.15117
0.68424	-0.20594
1.04126	-0.23145
0.45472	0.15117
-1.50890	-0.10391
-1.55991	0.30422
1.67880	0.30422
1.11776	0.45726
0.93925	0.12566
-0.25932	0.15117
-1.30489	-0.10391
0.60773	0.15117
0.45472	-0.18043
0.04670	0.35523
-0.31033	-0.20594
0.45472	0.25320
0.63323	-0.02739
-0.94787	0.10015
-0.79486	0.58480
0.91375	0.30422
0.07220	0.22769
0.65874	-0.25695
0.63323	0.20219
1.11776	0.10015
1.34728	0.10015
-1.17738	-0.15492
-3.01350	0.02363
0.17421	0.38074
1.98482	0.40625
0.91375	0.20219
0.55673	-0.02739
-0.38683	-0.00188
0.02119	0.10015
1.11776	0.17668
-1.10088	0.20219
-0.87136	0.30422
0.48022	0.38074
0.48022	0.15117
-0.08081	-0.38449
0.42922	0.35523
0.73524	-0.35899
-0.02981	0.02363
-0.00431	0.12566
-0.23382	0.43176
-0.33583	0.15117
1.93382	-0.35899
0.37822	0.22769
-2.37596	0.20219
0.37822	-0.05289
1.24527	0.30422
1.21977	0.17668
0.50573	0.22769
-0.53984	0.17668
-1.10088	0.35523
0.78624	0.15117
1.37278	0.04914
-1.55991	-0.00188
-0.33583	0.27871
0.48022	-0.15492
0.04670	0.10015
0.68424	0.10015
-0.00431	-0.46102
-0.48884	0.12566
0.53123	-0.18043
0.32721	0.45726
-0.23382	0.55929
0.14870	0.27871
0.48022	0.32972
0.19971	0.43176
1.01576	0.15117
0.65874	-0.02739
-1.17738	-0.05289
-0.84586	0.12566
-1.25389	0.12566
0.55673	0.15117
1.32178	0.22769
0.32721	0.15117
0.68424	0.04914
0.78624	0.22769
0.88825	0.25320
0.86275	0.25320
-0.31033	0.02363
-0.31033	0.15117
-1.10088	0.35523
-0.02981	-0.15492
0.14870	0.22769
0.91375	-0.41000
0.22521	0.20219
-2.37596	0.22769
-0.59084	0.10015
0.86275	0.10015
1.39828	0.20219
0.65874	0.04914
0.73524	0.30422
0.32721	0.10015
-0.10631	0.38074
0.14870	0.45726
1.60230	0.15117
-1.07538	-0.15492
-1.25389	0.61031
0.04670	0.53379
-0.36133	-0.07840
0.91375	-0.07840
0.76074	-0.28246
0.58223	-0.10391
0.25071	0.35523
-0.38683	0.27871
-0.41233	0.22769
0.09770	0.07465
0.19971	0.04914
0.48022	-0.02739
0.35272	0.17668
-0.74385	0.07465
1.14327	0.27871
0.63323	0.20219
-1.02437	-0.10391
-0.25932	0.40625
0.91375	0.27871
0.22521	0.15117
0.17421	-0.23145
0.14870	0.40625
-0.51434	-0.05289
1.70430	-0.23145
-0.08081	0.32972
-2.17195	0.32972
-0.02981	0.15117
1.37278	-0.00188
0.70974	0.07465
0.14870	0.27871
0.22521	-0.05289
-0.59084	0.10015
0.14870	0.22769
-0.61635	0.10015
1.27078	0.17668
1.04126	0.45726
-0.46334	0.30422
0.17421	0.45726
0.42922	0.10015
0.37822	0.17668
0.32721	-0.15492
-0.33583	-0.20594
-1.27939	0.20219
-0.79486	0.02363
0.86275	0.10015
1.14327	0.45726
1.65330	0.48277
-0.46334	-0.10391
-1.63641	0.07465
0.17421	-0.15492
-0.48884	0.15117
0.53123	-0.10391
0.12320	0.63582
0.63323	0.25320
0.35272	0.25320
0.55673	0.04914
0.22521	0.04914
0.70974	0.40625
0.99026	0.12566
0.12320	0.20219
0.37822	0.35523
-0.64185	0.30422
-0.28482	0.07465
0.30171	0.38074
-1.94243	-0.07840
-0.92237	-0.25695
0.22521	0.15117
0.86275	0.04914
1.24527	0.10015
1.09226	0.35523
-0.59084	-0.05289
-0.92237	0.30422
0.91375	0.04914
1.01576	-0.07840
0.53123	0.43176
0.12320	0.20219
-0.76936	0.76336
-0.10631	-0.10391
0.17421	0.20219
-0.08081	0.20219
0.22521	-0.35899
-0.08081	-0.23145
-0.79486	-0.05289
0.60773	0.45726
0.17421	0.38074
1.65330	0.27871
-0.38683	0.20219
0.14870	0.20219
1.39828	0.32972
-1.27939	0.12566
0.32721	-0.10391
-0.20832	-0.53754
0.93925	-0.18043
-0.08081	0.25320
-0.99887	0.22769
-0.48884	0.30422
0.32721	0.17668
0.70974	0.30422
0.45472	0.30422
0.25071	0.27871
0.76074	0.10015
0.60773	0.04914
0.27621	0.22769
-1.12638	-0.05289
-1.91693	-0.05289
0.42922	0.35523
1.16877	0.15117
0.07220	0.15117
1.52579	0.30422
0.55673	0.22769
-0.18282	-0.18043
0.60773	0.55929
-1.86593	0.35523
-1.63641	-0.02739
0.73524	0.07465
0.93925	0.12566
0.63323	0.12566
0.60773	0.10015
0.76074	0.40625
0.14870	0.45726
0.14870	-0.00188
0.27621	0.25320
-0.84586	0.04914
0.12320	0.17668
-0.23382	0.22769
0.17421	-0.02739
-0.69285	0.02363
0.48022	0.22769
0.55673	0.38074
0.27621	-0.12942
0.19971	0.22769
0.22521	0.35523
0.68424	-0.00188
-0.33583	0.40625
-1.33039	-0.02739
0.04670	0.04914
1.98482	0.38074
1.42379	0.02363
0.73524	0.04914
-0.71835	-0.05289
0.09770	0.38074
-1.04987	0.25320
0.07220	0.12566
-0.10631	0.15117
-1.25389	-0.07840
1.24527	0.12566
1.04126	0.25320
0.09770	0.25320
0.60773	0.02363
-0.15732	0.25320
0.02119	0.20219
-0.10631	0.15117
0.02119	0.30422
0.12320	-0.00188
0.48022	0.27871
0.63323	0.22769
0.09770	-0.15492
0.37822	-0.05289
0.30171	0.07465
0.63323	0.17668
-0.33583	0.25320
-1.45790	0.30422
-0.87136	0.25320
0.37822	0.10015
0.58223	0.12566
-0.08081	0.17668
0.65874	0.15117
1.14327	0.35523
1.14327	0.10015
0.12320	0.17668
-0.02981	0.02363
-0.38683	0.07465
-0.94787	0.12566
-0.08081	0.30422
1.14327	0.35523
-0.23382	0.22769
-1.02437	0.20219
0.53123	0.15117
0.65874	0.15117
1.24527	-0.43551
0.37822	0.43176
-0.61635	0.43176
0.53123	-0.12942
0.60773	-0.25695
-1.71292	-0.02739
0.22521	0.32972
0.50573	0.58480
0.35272	0.53379
0.73524	0.10015
-0.28482	-0.20594
-0.05531	-0.05289
0.73524	-0.02739
0.32721	-0.10391
-0.36133	0.40625
-0.46334	0.43176
-0.33583	0.15117
-0.23382	-0.07840
0.63323	0.25320
0.30171	0.40625
-0.41233	0.04914
0.32721	0.15117
0.68424	0.20219
1.01576	0.27871
0.78624	0.27871
0.19971	0.45726
-0.79486	0.20219
-0.08081	0.04914
-0.00431	-0.02739
0.99026	0.02363
-0.02981	-0.07840
-0.71835	-0.05289
0.25071	0.22769
0.04670	0.45726
0.32721	0.04914
-0.51434	-0.07840
-1.66191	-0.43551
0.60773	0.07465
1.37278	0.22769
0.91375	0.20219
1.75531	0.32972
-0.89686	0.32972
-0.38683	0.43176
0.14870	0.35523
-0.61635	0.43176
0.78624	-0.41000
0.32721	-0.18043
0.76074	0.15117
-0.02981	0.40625
-1.20288	0.20219
0.60773	0.04914
0.58223	-0.00188
0.22521	0.04914
0.12320	0.48277
0.17421	-0.66508
-0.31033	0.32972
0.07220	0.45726
-1.15188	0.17668
-0.13181	0.25320
0.93925	0.25320
1.60230	0.27871
0.22521	-0.02739
-0.69285	0.07465
0.25071	0.32972
0.25071	0.48277
-0.10631	-0.23145
0.53123	-0.05289
0.53123	0.02363
0.68424	0.15117
-0.02981	0.40625
-1.02437	0.40625
-0.10631	0.22769
0.53123	-0.00188
0.53123	0.20219
0.22521	0.07465
-0.18282	0.10015
0.86275	0.10015
0.17421	0.15117
-0.89686	0.35523
-0.66735	-0.12942
0.60773	0.30422
0.27621	0.22769
0.86275	0.48277
1.06676	-0.15492
0.14870	-0.10391
0.63323	0.25320
-0.74385	0.07465
-2.65648	0.22769
-0.00431	0.32972
0.88825	0.04914
0.70974	-0.05289
0.68424	0.15117
0.68424	0.20219
0.40372	0.15117
0.09770	0.10015
-0.13181	0.12566
0.02119	0.17668
-0.10631	0.30422
0.40372	0.15117
0.48022	0.12566
-0.64185	0.04914
0.68424	0.15117
0.25071	-0.05289
-2.29945	0.30422
-0.00431	-0.02739
0.63323	0.20219
0.53123	0.45726
1.34728	0.30422
0.02119	-0.07840
-0.20832	-0.20594
1.11776	-0.18043
0.42922	0.27871
0.12320	-0.25695
-0.28482	0.25320
-0.36133	0.15117
0.14870	0.25320
0.02119	0.40625
-1.12638	0.30422
-0.05531	0.20219
0.81175	0.25320
1.39828	0.30422
0.32721	0.27871
0.58223	0.07465
-0.08081	-0.05289
-1.76392	0.40625
-0.38683	-0.48652
0.91375	0.30422
0.83725	-1.04770
-0.38683	1.04394
0.53123	0.32972
0.55673	0.43176
0.86275	0.15117
-0.00431	0.32972
-0.00431	0.20219
0.12320	-0.02739
0.32721	-0.02739
-0.15732	0.22769
0.02119	0.25320
0.07220	0.04914
0.14870	0.15117
-0.08081	0.04914
-0.08081	0.35523
-0.08081	0.38074
0.27621	-0.15492
0.07220	-0.28246
0.12320	0.30422
1.88281	-0.02739
-0.66735	0.55929
-2.55447	0.25320
0.17421	0.30422
2.29084	0.07465
0.68424	0.35523
0.58223	0.45726
-0.41233	0.12566
-0.08081	-0.05289
0.12320	-0.61406
0.27621	-0.10391
-0.00431	-0.02739
0.48022	0.30422
-0.23382	0.63582
0.76074	0.25320
-0.43783	0.15117
-0.10631	0.32972
0.42922	0.30422
-1.35589	-0.07840
-0.00431	-0.02739
0.70974	0.12566
1.04126	-0.02739
0.76074	0.10015
0.53123	0.22769
-0.46334	-0.00188
-1.84042	0.50828
0.48022	0.04914
1.21977	0.30422
0.68424	0.27871
-1.07538	-0.58856
0.50573	0.38074
0.25071	-0.05289
0.07220	0.12566
0.73524	0.25320
0.25071	0.27871
0.12320	0.15117
0.14870	0.48277
0.30171	0.50828
-0.28482	-0.02739
-0.28482	0.02363
-0.28482	-0.15492
0.48022	-0.07840
0.63323	0.07465
-0.18282	0.02363
0.30171	0.17668
0.07220	0.22769
-0.59084	0.02363
0.58223	-0.02739
-0.13181	0.66132
-0.05531	0.17668
-0.25932	0.68683
0.93925	-0.00188
1.42379	0.58480
0.76074	0.10015
-1.04987	0.25320
-0.74385	0.20219
0.60773	-0.23145
0.55673	-0.25695
0.93925	-0.30797
-0.23382	-0.18043
0.12320	-0.05289
0.02119	0.35523
-0.05531	0.38074
0.14870	0.25320
0.91375	0.32972
0.27621	0.32972
-1.99343	-0.15492
-0.64185	0.04914
0.17421	0.35523
0.22521	-0.07840
1.01576	0.32972
0.65874	-0.05289
0.60773	0.27871
0.02119	0.38074
-0.02981	0.27871
0.30171	-0.18043
-0.18282	0.02363
0.02119	0.10015
0.12320	0.86539
0.32721	-0.00188
0.04670	-0.15492
0.50573	-0.15492
0.12320	-0.00188
-0.25932	0.15117
0.02119	-0.15492
0.58223	0.04914
-0.13181	0.68683
-0.66735	0.07465
0.81175	0.17668
0.32721	0.48277
0.09770	0.15117
-0.71835	0.17668
0.63323	-0.05289
0.55673	0.20219
1.04126	0.04914
0.07220	-0.00188
-1.66191	0.12566
-0.89686	-0.05289
1.50029	0.35523
0.93925	0.30422
1.37278	0.50828
0.25071	-0.23145
-1.61091	0.20219
0.48022	-0.00188
0.48022	-0.10391
0.09770	-0.05289
0.50573	0.35523
0.65874	0.32972
-0.97337	0.27871
0.32721	-0.02739
0.35272	0.20219
-0.61635	0.10015
0.55673	0.12566
-0.92237	-0.05289
-0.15732	0.20219
0.93925	0.04914
0.42922	0.25320
0.86275	-0.05289
0.55673	-0.02739
-0.25932	-0.10391
-0.00431	0.38074
0.30171	0.22769
0.07220	0.55929
0.14870	0.35523
-0.00431	0.17668
-0.08081	0.20219
-0.48884	-0.25695
0.25071	0.02363
0.42922	0.04914
0.58223	0.10015
-0.61635	0.15117
-0.25932	0.07465
0.55673	-0.07840
0.60773	0.15117
1.09226	0.15117
-0.02981	0.20219
-1.48340	0.38074
-0.59084	0.25320
1.11776	0.32972
1.04126	-0.07840
-0.00431	0.10015
0.02119	0.04914
0.65874	0.27871
0.40372	0.15117
-0.08081	0.15117
-0.13181	-0.07840
0.09770	0.45726
0.78624	0.07465
1.14327	0.27871
-0.43783	0.10015
-2.52897	-0.30797
-0.28482	0.22769
-0.99887	0.25320
0.32721	0.17668
1.50029	0.71234
2.18883	0.55929
0.17421	-0.18043
-1.27939	-0.58856
1.11776	0.30422
0.40372	0.25320
-0.41233	0.45726
0.02119	0.45726
0.45472	0.30422
0.42922	-0.15492
0.22521	0.10015
0.68424	0.04914
-0.66735	0.02363
-1.66191	-0.10391
0.19971	0.04914
0.93925	0.25320
0.27621	0.12566
-0.36133	0.12566
0.17421	0.20219
1.21977	0.12566
1.29628	0.27871
0.78624	0.45726
-1.17738	0.04914
-2.32496	-0.02739
0.07220	-0.00188
0.96476	0.20219
1.70430	-0.00188
0.70974	0.38074
-0.41233	0.45726
-0.05531	0.12566
0.30171	-0.02739
0.50573	0.07465
-0.15732	-0.58856
0.63323	0.25320
-0.10631	-0.07840
-0.61635	-0.00188
-0.20832	0.15117
-0.13181	0.53379
0.02119	0.53379
0.14870	0.30422
0.70974	0.27871
0.50573	-0.00188
-0.53984	-0.07840
-0.15732	-0.25695
-0.15732	0.20219
0.70974	0.30422
0.02119	0.45726
-0.13181	0.43176
0.30171	-0.23145
0.86275	-0.05289
0.60773	0.35523
0.02119	-0.00188
-0.15732	0.12566
-0.89686	-0.10391
-0.89686	0.02363
-0.02981	0.10015
0.86275	0.45726
0.99026	0.48277
0.48022	0.32972
0.50573	0.32972
0.42922	0.12566
0.45472	0.07465
-0.08081	0.02363
-0.28482	0.10015
-0.43783	0.02363
-0.64185	0.22769
0.04670	0.12566
0.35272	-0.10391
0.73524	-0.12942
0.14870	0.40625
0.76074	-0.00188
0.42922	0.48277
-1.20288	0.12566
0.91375	-0.00188
0.40372	0.17668
-1.04987	0.04914
-0.69285	0.38074
-0.05531	0.17668
0.73524	0.10015
0.30171	-0.12942
0.81175	0.55929
1.01576	0.25320
0.73524	0.25320
-0.10631	-0.20594
