0.09770	0.27871
0.30171	0.12566
0.17421	0.22769
0.02119	0.20219
0.07220	0.07465
0.32721	0.04914
0.37822	0.17668
0.09770	0.15117
0.12320	0.17668
0.12320	0.25320
0.17421	0.25320
0.14870	0.07465
0.30171	0.04914
0.22521	0.10015
0.07220	0.10015
0.02119	0.07465
0.09770	0.15117
0.07220	0.15117
0.22521	0.30422
0.27621	0.30422
0.27621	0.22769
0.22521	0.10015
0.09770	-0.02739
0.07220	0.07465
0.02119	0.17668
0.04670	0.22769
-0.00431	0.12566
0.19971	0.15117
0.37822	0.12566
0.32721	0.12566
0.17421	0.15117
-0.02981	0.25320
0.02119	0.17668
0.09770	0.15117
0.14870	0.04914
0.17421	0.10015
0.22521	0.15117
0.12320	0.15117
0.09770	0.15117
0.19971	-0.02739
0.22521	0.17668
0.22521	0.32972
0.12320	0.30422
0.14870	0.02363
0.07220	0.04914
0.17421	0.12566
-0.08081	0.20219
0.14870	0.40625
0.09770	0.12566
0.19971	0.07465
0.09770	0.15117
0.04670	0.12566
0.12320	0.10015
0.04670	0.02363
0.04670	0.02363
0.32721	0.02363
0.48022	0.10015
0.25071	0.17668
0.14870	0.15117
0.19971	0.15117
0.17421	0.22769
0.12320	0.12566
0.09770	0.07465
0.02119	0.07465
0.09770	-0.02739
0.22521	-0.05289
0.09770	0.07465
0.02119	0.12566
0.09770	0.15117
0.25071	0.17668
0.25071	0.22769
0.27621	0.20219
0.02119	0.12566
-0.13181	0.17668
-0.08081	0.15117
0.02119	-0.05289
0.04670	-0.00188
0.04670	0.10015
0.30171	0.15117
0.42922	0.12566
0.35272	0.17668
0.22521	0.17668
0.09770	0.20219
0.04670	0.22769
0.07220	0.12566
0.02119	0.10015
-0.13181	0.07465
-0.23382	0.17668
-0.05531	0.20219
0.02119	0.22769
0.17421	0.25320
0.19971	0.20219
0.17421	0.07465
0.12320	0.02363
0.04670	0.02363
0.12320	0.04914
0.12320	-0.02739
0.14870	0.22769
0.32721	0.22769
0.45472	0.22769
0.25071	0.22769
-0.18282	0.15117
-0.00431	0.10015
-0.00431	0.20219
0.07220	0.30422
0.04670	0.20219
-0.00431	0.10015
0.25071	0.12566
0.25071	0.15117
0.27621	0.17668
0.55673	0.12566
-0.18282	0.25320
-0.02981	0.30422
-0.15732	0.04914
0.25071	0.10015
0.40372	0.15117
0.45472	-0.00188
0.09770	-0.07840
-0.00431	0.10015
-0.18282	0.35523
0.40372	0.30422
0.53123	0.10015
0.30171	0.15117
-0.08081	0.10015
-0.10631	0.15117
-0.41233	0.17668
-0.18282	0.15117
-0.31033	0.07465
0.86275	-0.00188
0.45472	0.15117
0.30171	0.15117
0.37822	0.45726
0.09770	0.30422
-0.87136	0.04914
-0.97337	-0.15492
0.48022	0.02363
0.70974	0.15117
0.78624	0.22769
0.42922	0.30422
0.40372	0.22769
0.14870	0.04914
-0.84586	0.10015
-0.28482	0.12566
0.99026	0.04914
0.83725	0.10015
-0.28482	0.25320
-2.04444	0.22769
-0.33583	-0.05289
1.95932	0.20219
1.67880	0.32972
0.50573	0.15117
0.30171	0.25320
-0.82036	0.07465
-1.61091	0.02363
0.40372	0.15117
0.88825	0.35523
0.27621	-0.02739
-1.10088	0.04914
-0.31033	0.12566
0.17421	-0.00188
1.24527	0.12566
0.81175	0.38074
1.09226	0.25320
0.07220	0.35523
-0.41233	0.07465
-0.05531	0.07465
-0.89686	0.07465
0.12320	0.15117
0.40372	0.38074
0.76074	0.12566
0.19971	0.10015
-0.59084	0.25320
0.14870	0.12566
0.53123	0.02363
0.45472	0.12566
0.09770	-0.00188
0.02119	-0.05289
-0.56534	0.10015
0.30171	0.40625
0.73524	0.17668
-0.10631	-0.00188
-0.23382	0.32972
0.30171	0.45726
0.73524	-0.02739
0.30171	0.02363
-1.10088	-0.00188
0.55673	0.10015
0.96476	0.04914
-0.28482	0.02363
0.27621	0.15117
1.04126	0.76336
-1.20288	0.55929
-0.15732	-0.12942
1.75531	-0.51203
-0.46334	-0.15492
-1.07538	0.25320
-0.02981	0.17668
1.75531	0.40625
1.21977	0.07465
-0.74385	0.25320
-0.38683	0.07465
1.60230	0.30422
-0.46334	0.15117
-1.25389	0.07465
0.42922	-0.25695
0.73524	-0.02739
-0.64185	0.10015
0.22521	-0.10391
0.63323	0.27871
0.25071	0.53379
0.27621	0.17668
0.42922	-0.05289
-2.37596	0.02363
-1.91693	0.35523
1.95932	0.55929
1.83181	0.04914
0.30171	0.12566
3.59142	-0.00188
1.16877	-0.10391
-5.41065	0.15117
-3.75305	0.20219
1.50029	0.22769
1.78081	0.12566
1.42379	0.48277
0.99026	0.15117
0.60773	-0.05289
-0.00431	-0.10391
0.93925	-0.15492
0.48022	-0.38449
-2.35046	0.45726
-0.43783	0.15117
0.73524	0.10015
-0.02981	0.25320
0.53123	0.25320
0.22521	0.55929
-1.10088	0.58480
0.12320	0.22769
1.44929	-0.20594
1.09226	-0.25695
0.30171	0.50828
-0.89686	0.17668
0.25071	0.15117
-0.74385	0.27871
1.55129	0.10015
1.21977	0.27871
-1.91693	-0.18043
-1.40690	-0.12942
1.65330	-0.02739
0.73524	0.07465
-0.20832	0.50828
0.04670	0.30422
1.34728	0.17668
0.42922	0.35523
0.48022	0.32972
-0.89686	0.17668
-1.02437	0.07465
-1.55991	0.02363
-0.25932	-0.05289
1.70430	0.15117
1.21977	0.04914
0.76074	0.30422
1.14327	0.25320
0.45472	0.02363
-0.79486	-0.02739
0.53123	0.27871
-0.08081	0.10015
-1.53441	-0.00188
-0.28482	0.22769
0.70974	0.02363
-0.02981	-0.05289
-0.00431	0.61031
1.19427	0.45726
0.73524	-0.28246
0.35272	-0.20594
-2.40146	-0.07840
-1.35589	0.15117
0.70974	0.35523
0.25071	1.17148
1.90832	0.55929
2.67337	0.15117
0.48022	0.17668
-1.96793	-0.05289
1.37278	-0.18043
1.24527	-0.33348
0.32721	-0.07840
-1.84042	0.30422
-3.29402	0.10015
0.40372	0.25320
1.65330	-0.12942
0.96476	-0.00188
0.63323	-0.05289
0.19971	0.07465
0.22521	0.45726
1.01576	0.38074
-0.61635	0.22769
-1.61091	0.38074
1.06676	-0.02739
0.76074	0.15117
-0.84586	0.12566
-1.25389	0.32972
0.50573	0.25320
2.59686	0.22769
1.75531	0.15117
0.40372	-0.15492
-1.58541	-0.30797
-3.52353	0.07465
1.16877	0.02363
1.78081	0.25320
1.67880	-0.07840
0.81175	-0.05289
0.86275	0.43176
-0.97337	0.68683
-1.48340	0.45726
0.99026	0.35523
0.48022	0.04914
-0.28482	-0.00188
-0.25932	-0.12942
0.27621	0.38074
-1.02437	0.10015
-2.50347	-0.18043
0.42922	-0.25695
1.09226	-0.07840
2.36734	0.12566
1.14327	0.22769
-0.18282	0.35523
-0.74385	0.38074
0.45472	0.17668
0.99026	-0.00188
1.55129	0.02363
-3.37052	0.27871
-0.84586	0.25320
1.34728	-0.02739
0.30171	0.40625
0.81175	0.15117
1.70430	-0.15492
0.02119	-0.02739
-3.34502	0.15117
0.63323	-0.07840
-1.76392	0.27871
0.14870	0.35523
0.68424	0.22769
1.62780	0.35523
2.85188	-0.25695
-0.20832	0.35523
-0.41233	0.15117
0.32721	-0.07840
0.30171	0.45726
-0.64185	0.12566
-0.28482	0.12566
-0.76936	0.20219
0.48022	-0.02739
0.32721	0.35523
0.48022	0.27871
0.65874	0.07465
-1.71292	0.27871
-0.41233	-0.00188
-0.41233	0.10015
1.55129	0.30422
0.25071	0.30422
1.24527	0.58480
2.46935	-0.05289
0.12320	-0.71609
-1.66191	-0.15492
0.73524	0.35523
0.81175	0.63582
-1.66191	0.25320
-1.71292	-0.25695
-0.05531	0.12566
1.85731	-0.00188
0.35272	0.07465
-0.23382	0.38074
0.42922	0.27871
0.19971	0.04914
-0.28482	0.40625
0.40372	0.53379
-0.53984	0.17668
0.35272	-0.43551
0.81175	-0.18043
0.30171	-0.05289
0.14870	0.40625
-1.43240	0.63582
-1.10088	0.38074
1.34728	0.15117
1.11776	-0.07840
0.32721	0.35523
-0.74385	-0.38449
0.22521	-0.05289
-0.56534	0.10015
0.37822	0.20219
1.90832	0.38074
-0.05531	0.73785
0.58223	0.17668
-0.82036	-0.12942
-0.13181	0.10015
-0.05531	-0.15492
-0.59084	0.20219
0.07220	0.53379
0.70974	-0.25695
0.02119	0.12566
0.12320	0.66132
1.04126	-0.05289
-2.22295	-0.20594
0.55673	0.38074
1.04126	0.12566
1.42379	0.20219
-0.18282	-0.15492
-0.05531	0.40625
1.24527	0.53379
-0.08081	0.10015
-0.71835	0.12566
0.55673	0.02363
-0.79486	0.12566
-0.43783	-0.00188
1.14327	-0.12942
-0.56534	0.22769
0.02119	0.43176
1.04126	0.25320
1.29628	-0.20594
0.37822	-0.46102
-0.08081	0.12566
-1.04987	0.63582
0.42922	0.48277
0.55673	0.10015
-0.36133	-0.10391
-1.25389	0.55929
-0.13181	0.07465
0.70974	-0.25695
0.35272	0.25320
0.53123	0.02363
1.42379	-0.02739
0.53123	0.38074
-0.64185	0.17668
-0.76936	0.40625
0.83725	0.10015
1.21977	0.22769
0.04670	-0.12942
-1.53441	-0.58856
-1.48340	0.02363
1.67880	0.55929
1.57679	0.15117
1.70430	0.68683
-0.48884	-0.48652
-0.05531	0.45726
-1.07538	0.63582
-0.56534	0.27871
0.14870	0.15117
-0.51434	-0.25695
0.48022	-0.23145
1.47479	0.22769
1.65330	0.20219
0.17421	0.35523
-0.53984	-0.00188
-0.74385	-0.02739
-0.25932	-0.05289
-0.31033	0.15117
-0.00431	0.38074
1.29628	0.25320
0.12320	0.30422
-0.94787	0.45726
-0.25932	0.25320
1.14327	0.22769
0.22521	-0.02739
2.18883	-0.12942
1.57679	0.10015
-2.88599	-0.30797
-3.01350	0.25320
1.37278	-0.10391
0.96476	0.15117
1.04126	0.35523
1.44929	0.07465
0.09770	0.38074
-0.02981	-0.02739
0.22521	0.35523
-0.25932	-0.05289
-1.12638	0.02363
-0.28482	0.12566
0.93925	-0.15492
-0.84586	0.32972
-0.59084	0.40625
1.88281	0.12566
0.14870	0.12566
-2.45246	-0.18043
0.86275	-0.02739
0.91375	0.53379
0.70974	-0.00188
0.22521	0.04914
-0.74385	0.17668
1.14327	-0.05289
1.19427	0.25320
0.02119	0.15117
-0.97337	0.20219
-0.08081	0.00000
-0.25932	0.00000
1.24527	0.00000
1.16877	0.00000
-2.22295	0.00000
-1.43240	0.00000
0.96476	0.00000
1.88281	0.00000
0.68424	0.00000
-1.50890	0.10015
0.35272	0.12566
-0.38683	0.55929
0.22521	0.30422
1.60230	0.12566
1.06676	-0.23145
-1.25389	-0.23145
-1.04987	-0.30797
0.63323	0.30422
1.09226	0.55929
0.37822	0.83988
0.22521	0.66132
0.63323	0.38074
0.68424	0.12566
-0.64185	-0.58856
-0.97337	0.02363
0.19971	0.04914
-0.43783	0.15117
0.35272	0.07465
0.40372	0.22769
1.09226	0.25320
1.50029	0.35523
-0.46334	0.22769
-2.52897	-0.05289
-0.82036	-0.23145
1.01576	-0.02739
0.60773	-0.10391
-0.79486	0.43176
0.07220	0.66132
1.50029	0.38074
2.34184	0.15117
0.12320	0.17668
-0.59084	-0.02739
0.63323	0.04914
-0.05531	-0.00188
-1.91693	0.20219
-1.38139	0.25320
0.27621	0.25320
1.19427	0.27871
0.63323	0.32972
1.04126	0.35523
0.09770	0.45726
0.27621	-0.15492
-0.08081	-0.18043
0.27621	-0.35899
-0.41233	0.30422
0.22521	0.48277
0.48022	0.25320
0.81175	0.43176
0.25071	-0.05289
0.91375	0.17668
0.48022	0.32972
-0.89686	-0.18043
-2.47797	0.04914
0.70974	-0.15492
1.04126	-0.07840
1.37278	0.20219
0.40372	0.25320
0.63323	0.07465
-0.08081	0.07465
-1.10088	-0.18043
0.12320	0.15117
-0.15732	0.27871
0.99026	0.32972
-0.51434	0.25320
0.32721	-0.23145
0.07220	0.35523
0.45472	0.22769
-0.00431	-0.43551
0.30171	-0.12942
0.12320	0.25320
0.37822	0.02363
0.25071	0.32972
-2.27395	0.12566
0.60773	0.22769
1.75531	0.15117
0.09770	0.17668
-3.42153	-0.28246
-0.10631	-0.07840
3.48942	0.27871
1.37278	0.40625
0.17421	0.27871
-0.05531	0.35523
0.53123	0.17668
-0.53984	-0.07840
0.14870	0.15117
0.04670	0.10015
-1.78942	-0.07840
0.53123	0.07465
0.07220	0.15117
-1.50890	-0.05289
0.27621	0.20219
0.88825	0.27871
1.24527	0.35523
0.09770	0.27871
0.86275	0.27871
0.32721	0.48277
-0.61635	-0.07840
-0.41233	-0.15492
0.48022	0.22769
0.99026	0.30422
0.48022	0.27871
0.17421	0.27871
0.58223	-0.02739
0.37822	0.17668
-0.89686	-0.15492
-0.59084	0.04914
-0.48884	0.04914
0.12320	0.10015
-0.33583	0.04914
0.60773	-0.15492
0.70974	0.10015
0.70974	0.22769
1.09226	0.43176
-0.05531	0.15117
-0.92237	-0.20594
-0.99887	-0.05289
0.76074	-0.05289
0.02119	0.68683
1.14327	0.43176
0.68424	0.48277
0.37822	-0.12942
0.37822	-0.53754
-0.66735	0.30422
-0.56534	0.25320
0.07220	0.43176
0.68424	-0.02739
0.17421	0.02363
-0.89686	0.20219
0.32721	0.40625
0.32721	-0.10391
0.83725	0.02363
-0.79486	0.43176
0.02119	0.25320
0.63323	-0.10391
-1.27939	0.04914
0.86275	-0.15492
0.22521	-0.25695
0.02119	0.15117
0.45472	0.55929
0.83725	0.50828
0.86275	0.50828
0.68424	0.61031
-0.25932	0.12566
-1.45790	-0.02739
0.42922	0.15117
0.14870	0.15117
-0.23382	-0.00188
-0.69285	-0.15492
0.25071	0.04914
0.58223	0.40625
0.91375	0.22769
0.22521	0.04914
0.27621	0.10015
0.02119	-0.25695
0.02119	0.12566
1.06676	0.25320
-0.79486	0.22769
-1.33039	0.38074
0.86275	0.07465
0.35272	0.25320
0.76074	0.02363
1.14327	0.25320
-0.10631	0.25320
-1.48340	0.20219
-0.08081	0.02363
0.76074	-0.18043
1.62780	0.27871
0.09770	0.04914
-1.48340	0.22769
0.42922	0.17668
-0.89686	-0.02739
0.93925	0.38074
1.16877	-0.20594
1.24527	-0.05289
-1.76392	0.45726
-2.06994	0.20219
0.83725	0.38074
0.96476	0.15117
0.35272	-0.10391
-0.02981	0.25320
1.88281	0.48277
0.35272	0.15117
-0.20832	0.12566
-0.64185	-0.05289
0.09770	0.27871
0.25071	-0.00188
0.12320	-0.00188
-0.74385	0.20219
-0.43783	0.27871
1.16877	0.50828
0.70974	0.25320
-0.10631	-0.28246
0.25071	0.20219
0.37822	0.02363
-0.76936	-0.25695
-0.74385	0.25320
-0.76936	0.17668
1.57679	0.38074
1.19427	0.10015
0.58223	-0.02739
0.93925	0.10015
-0.56534	0.12566
-0.48884	0.20219
0.68424	0.35523
0.22521	0.15117
-0.13181	-0.12942
-0.69285	0.50828
-2.12094	0.04914
0.27621	-0.05289
0.88825	0.07465
1.75531	0.22769
0.48022	-0.10391
0.42922	-0.05289
-0.13181	0.20219
0.07220	0.25320
0.93925	0.32972
0.02119	0.45726
-0.79486	0.35523
0.25071	0.38074
-0.74385	0.10015
-1.68742	-0.05289
0.81175	-0.07840
0.63323	-0.05289
0.78624	-0.12942
0.12320	0.10015
0.68424	0.45726
0.86275	-0.12942
0.09770	-0.05289
-0.69285	0.04914
-1.71292	0.25320
0.45472	0.48277
1.34728	0.61031
1.11776	-0.00188
0.58223	-0.12942
-0.99887	0.07465
-0.41233	0.30422
0.83725	0.07465
0.17421	0.17668
-1.45790	-0.07840
0.48022	-0.23145
0.40372	-0.02739
-0.43783	0.45726
-0.97337	0.45726
1.14327	0.30422
1.04126	0.20219
0.50573	0.02363
1.57679	0.27871
-2.19745	-0.20594
0.32721	-0.05289
0.78624	0.25320
-0.71835	-0.05289
-0.13181	0.10015
0.70974	0.30422
0.63323	0.45726
0.48022	0.10015
-0.59084	0.07465
0.83725	0.25320
0.12320	0.43176
-1.07538	0.32972
0.27621	0.45726
1.32178	0.27871
0.04670	-0.02739
-0.99887	-0.41000
-0.33583	-0.61406
-0.48884	0.02363
0.58223	0.12566
0.78624	0.76336
-0.38683	0.66132
0.58223	-0.15492
1.24527	-0.15492
1.09226	-0.05289
-2.55447	0.32972
-0.82036	0.07465
0.30171	0.20219
0.88825	0.73785
1.16877	0.32972
1.75531	0.17668
-0.20832	0.04914
0.12320	-0.07840
-0.20832	-0.00188
1.75531	0.22769
-0.08081	-0.15492
-2.57997	-0.10391
-1.61091	-0.07840
0.17421	0.15117
0.73524	0.22769
1.37278	0.61031
0.88825	0.15117
-0.15732	0.12566
0.76074	-0.07840
-0.71835	0.32972
0.19971	0.04914
1.04126	0.48277
0.68424	0.25320
-0.38683	-0.35899
0.19971	0.12566
0.17421	0.32972
-0.18282	0.53379
-0.28482	0.27871
0.37822	0.04914
0.55673	-0.33348
0.88825	0.20219
-0.08081	0.25320
-1.35589	-0.00188
-1.12638	-0.20594
0.68424	0.35523
0.27621	0.15117
1.21977	0.40625
0.78624	0.17668
1.37278	0.32972
0.48022	0.15117
1.16877	-0.25695
-0.56534	0.15117
-3.62554	0.45726
0.09770	0.15117
-0.23382	-0.00188
0.37822	0.04914
2.06133	0.17668
-0.94787	0.32972
1.44929	0.45726
1.44929	0.27871
-0.59084	-0.51203
-0.46334	-0.05289
0.70974	0.43176
0.19971	0.04914
0.45472	0.20219
-1.55991	0.30422
-0.56534	0.22769
-0.23382	0.71234
1.11776	-0.05289
1.19427	-0.02739
-0.36133	-0.35899
-0.38683	-0.02739
-0.20832	0.12566
0.65874	0.30422
0.93925	0.48277
-0.25932	0.22769
-0.43783	-0.00188
1.16877	0.12566
1.34728	-0.02739
0.25071	0.04914
-0.97337	0.20219
-0.05531	0.22769
-0.43783	0.10015
0.42922	0.10015
-0.10631	0.22769
0.48022	0.22769
0.19971	-0.30797
0.37822	0.40625
0.02119	0.43176
-1.04987	0.43176
-0.25932	-0.38449
-0.46334	0.04914
1.14327	0.02363
0.50573	-0.00188
-0.18282	0.15117
0.35272	0.66132
-0.28482	0.04914
-0.05531	0.22769
0.76074	0.02363
0.32721	0.45726
0.58223	0.48277
0.22521	-0.05289
-0.20832	-0.12942
-0.23382	-0.10391
-1.04987	-0.33348
0.27621	0.27871
0.73524	0.10015
0.42922	0.40625
0.22521	0.07465
-1.61091	-0.00188
0.65874	0.45726
0.27621	0.25320
1.04126	0.40625
0.02119	0.25320
0.65874	0.20219
0.96476	-0.48652
-1.94243	-0.07840
-0.84586	0.20219
1.85731	0.32972
1.80631	0.83988
0.17421	-0.25695
0.99026	-0.10391
0.42922	0.30422
-2.78398	0.48277
-0.23382	-0.30797
0.19971	0.02363
0.70974	0.20219
0.65874	0.35523
0.37822	0.35523
-0.20832	0.50828
0.07220	0.15117
0.32721	0.15117
0.02119	0.17668
-0.10631	0.12566
-0.51434	-0.28246
0.19971	-0.00188
1.42379	0.27871
0.32721	0.32972
-1.07538	0.17668
0.65874	0.25320
0.12320	0.07465
0.53123	-0.15492
-0.08081	0.02363
0.37822	0.20219
0.99026	0.45726
0.09770	0.15117
-1.50890	-0.10391
1.24527	0.10015
0.17421	0.32972
-1.48340	0.22769
0.02119	0.12566
1.85731	0.22769
-0.08081	-0.00188
-0.92237	-0.02739
0.86275	0.45726
0.30171	0.38074
-0.59084	-0.18043
0.78624	0.07465
1.19427	0.27871
0.09770	0.07465
-0.61635	0.17668
-0.15732	0.22769
-0.33583	-0.23145
0.12320	-0.05289
0.37822	0.27871
-0.28482	0.83988
0.07220	0.25320
-0.79486	-0.15492
0.37822	-0.46102
0.27621	-0.20594
0.70974	0.63582
1.09226	0.15117
0.35272	0.50828
-0.87136	0.40625
0.19971	0.45726
0.68424	0.15117
-0.13181	-0.10391
-0.28482	-0.07840
0.83725	0.20219
1.42379	0.07465
0.22521	0.07465
-0.31033	0.07465
-1.91693	0.17668
0.73524	0.32972
-0.10631	-0.05289
-0.05531	-0.10391
-0.13181	0.04914
0.93925	0.45726
0.65874	0.30422
0.78624	0.30422
0.65874	0.20219
-0.23382	-0.18043
-1.71292	0.10015
0.02119	0.07465
-0.28482	0.04914
1.14327	0.58480
1.09226	0.04914
0.42922	0.30422
0.70974	0.02363
0.83725	-0.23145
-0.53984	0.15117
-2.14644	0.40625
-0.00431	0.10015
0.27621	-0.00188
0.55673	-0.02739
0.12320	0.12566
0.07220	0.45726
0.73524	0.35523
0.14870	-0.20594
-0.59084	-0.15492
-0.23382	0.20219
0.53123	0.22769
1.04126	0.07465
1.29628	0.58480
0.12320	0.12566
0.25071	0.48277
-1.20288	-0.35899
0.09770	-0.05289
0.63323	-0.00188
-0.08081	0.02363
-1.10088	0.04914
1.01576	0.22769
1.24527	0.25320
-0.00431	0.27871
-0.56534	0.02363
-0.94787	0.22769
-0.41233	0.32972
0.53123	-0.02739
1.29628	0.32972
-0.18282	0.53379
0.19971	0.27871
0.32721	0.22769
0.17421	-0.15492
0.55673	-0.15492
0.40372	-0.05289
0.32721	0.40625
-1.33039	0.48277
-0.00431	0.55929
1.19427	0.27871
1.39828	-0.25695
-0.82036	-0.00188
-1.45790	0.22769
1.01576	0.15117
0.04670	-0.12942
0.55673	0.22769
0.30171	0.15117
0.19971	0.53379
-0.74385	0.30422
0.07220	0.35523
0.99026	-0.07840
0.93925	-0.02739
-1.10088	-0.02739
-1.61091	-0.20594
0.22521	0.15117
0.99026	0.66132
0.93925	-0.10391
0.99026	0.30422
0.17421	0.27871
-0.05531	0.35523
-0.46334	-0.07840
0.02119	0.40625
1.67880	-0.02739
-0.69285	0.35523
-0.33583	-0.00188
-0.18282	-0.02739
-0.33583	0.10015
0.19971	-0.20594
1.14327	0.07465
0.27621	0.27871
-0.48884	0.04914
-0.25932	0.30422
-0.51434	0.25320
0.48022	0.63582
0.78624	0.04914
0.45472	0.20219
-0.28482	-0.00188
0.60773	-0.05289
1.09226	0.04914
-0.02981	0.43176
0.02119	0.32972
0.19971	0.20219
0.17421	0.02363
-0.23382	-0.25695
-0.10631	0.30422
0.30171	0.15117
-0.15732	0.10015
0.12320	0.17668
-0.33583	0.15117
0.07220	0.25320
2.01032	0.20219
0.25071	-0.02739
0.45472	0.20219
-1.07538	0.30422
-0.53984	-0.07840
-0.28482	0.12566
1.14327	0.30422
0.88825	0.02363
0.32721	0.04914
-0.05531	0.22769
-1.84042	-0.00188
0.37822	0.02363
0.81175	-0.10391
0.65874	0.22769
1.01576	0.30422
0.40372	-0.10391
0.14870	0.04914
-2.06994	0.48277
-0.08081	0.66132
0.81175	0.30422
0.58223	0.30422
0.35272	-0.02739
0.12320	-0.18043
-0.15732	-0.56305
-0.31033	0.20219
-0.48884	0.71234
0.45472	-0.05289
0.22521	-0.12942
0.78624	0.30422
0.37822	0.15117
-0.38683	0.32972
0.14870	0.12566
-0.43783	0.02363
-0.10631	0.02363
0.35272	0.12566
0.48022	0.25320
0.73524	0.45726
0.86275	0.48277
-1.10088	0.27871
0.63323	0.15117
0.65874	0.07465
-0.05531	-0.02739
-0.05531	0.15117
-0.25932	-0.05289
-0.82036	0.15117
-0.61635	-0.07840
1.01576	0.45726
-0.53984	0.35523
0.78624	0.10015
1.04126	-0.05289
1.37278	0.02363
0.25071	0.25320
-0.53984	-0.00188
-0.69285	-0.02739
-0.25932	-0.18043
0.19971	0.25320
0.60773	0.32972
0.86275	0.35523
0.93925	0.35523
-0.48884	-0.12942
0.27621	-0.00188
-0.74385	0.43176
-0.79486	0.17668
0.63323	0.17668
0.50573	-0.05289
0.50573	0.02363
0.37822	0.12566
-0.10631	0.25320
-0.02981	0.35523
-0.00431	0.10015
0.12320	0.15117
1.01576	0.10015
1.37278	0.27871
0.50573	-0.02739
-1.86593	-0.00188
-2.63097	0.04914
0.42922	-0.10391
0.86275	-0.02739
1.21977	0.55929
1.50029	0.25320
-0.33583	0.30422
-0.02981	0.02363
0.02119	-0.10391
0.78624	0.12566
0.42922	0.30422
-0.59084	0.15117
-0.38683	0.38074
0.25071	0.15117
0.32721	-0.12942
0.91375	0.45726
-0.23382	0.25320
-1.10088	0.04914
0.07220	0.04914
1.01576	0.04914
0.73524	-0.00188
-1.61091	0.27871
-0.13181	0.17668
0.70974	0.17668
1.19427	0.22769
0.73524	0.04914
-0.20832	0.02363
0.78624	0.35523
0.55673	0.30422
0.09770	-0.02739
-0.36133	0.02363
0.19971	0.20219
-0.97337	0.27871
-0.41233	0.78886
0.35272	0.20219
-0.10631	0.04914
-0.18282	-0.28246
1.80631	-0.05289
0.58223	-0.33348
-2.73298	-0.05289
1.34728	-0.12942
-0.25932	0.17668
0.58223	0.61031
1.42379	0.73785
-0.48884	0.61031
0.32721	0.04914
0.42922	-0.02739
0.27621	-0.46102
0.27621	-0.00188
0.12320	0.22769
0.30171	0.30422
-0.41233	0.10015
-0.38683	0.32972
-0.20832	0.15117
0.76074	0.20219
0.35272	-0.00188
-0.46334	0.17668
0.93925	0.15117
-0.33583	0.20219
-0.99887	0.10015
0.37822	0.15117
0.37822	0.10015
0.55673	-0.12942
0.35272	-0.02739
-0.00431	-0.20594
0.83725	0.15117
-0.13181	0.76336
-1.27939	0.32972
0.63323	0.43176
1.04126	-0.05289
0.91375	-0.10391
0.27621	0.17668
-0.28482	-0.02739
0.53123	0.04914
-0.08081	0.15117
-0.36133	0.07465
0.07220	0.38074
0.19971	-0.12942
-0.59084	-0.25695
-0.13181	0.27871
0.27621	0.27871
-0.25932	0.35523
0.73524	0.35523
0.91375	0.22769
0.58223	0.12566
0.73524	0.25320
0.50573	-0.28246
-0.08081	-0.25695
-0.08081	0.10015
-0.56534	0.40625
-1.38139	-0.12942
0.22521	0.25320
0.78624	0.43176
0.91375	0.45726
0.55673	0.43176
-0.33583	0.48277
-0.10631	-0.05289
0.50573	0.02363
0.53123	-0.18043
0.19971	0.10015
-0.87136	0.07465
0.07220	-0.25695
-1.68742	0.12566
0.17421	0.38074
0.91375	0.30422
0.65874	-0.12942
1.39828	0.22769
0.73524	1.14597
-0.08081	0.22769
-0.10631	-0.30797
-0.79486	-0.56305
-0.94787	0.10015
0.25071	0.17668
1.16877	0.48277
0.45472	0.25320
-0.89686	0.32972
0.73524	0.22769
-0.02981	-0.15492
-0.28482	0.10015
0.40372	0.30422
-0.51434	0.10015
-0.15732	-0.12942
0.42922	-0.18043
0.93925	0.58480
-0.02981	0.45726
1.11776	0.04914
-0.38683	0.12566
-0.56534	-0.43551
2.46935	0.35523
-0.23382	-0.10391
-1.40690	0.07465
-0.41233	0.35523
-0.02981	0.22769
-0.23382	-0.02739
0.02119	0.12566
0.30171	0.27871
-1.22839	0.45726
0.60773	0.25320
0.73524	0.04914
1.32178	0.10015
0.14870	0.04914
-1.40690	-0.18043
0.17421	-0.02739
0.99026	0.45726
0.58223	0.07465
0.40372	0.12566
0.14870	0.07465
0.27621	0.22769
0.02119	0.07465
-0.18282	0.35523
-0.05531	-0.28246
-0.28482	-0.18043
0.22521	0.27871
0.14870	0.02363
0.17421	0.55929
0.63323	-0.00188
-1.50890	0.12566
-0.94787	0.15117
1.19427	0.02363
0.40372	0.04914
-1.89143	0.35523
1.50029	0.25320
2.72437	-0.23145
1.24527	0.45726
0.53123	0.32972
-0.25932	0.20219
-0.79486	-0.18043
-0.15732	-0.15492
0.27621	0.02363
-0.31033	0.15117
-1.25389	0.20219
0.48022	0.17668
1.29628	0.27871
-0.43783	0.66132
-3.09000	-0.33348
0.19971	0.12566
2.46935	0.38074
1.62780	0.38074
-0.18282	0.55929
0.40372	0.27871
-0.02981	-0.43551
-0.05531	0.30422
-0.38683	-0.23145
-0.18282	-0.25695
0.99026	0.10015
-0.08081	0.02363
-1.96793	0.35523
0.40372	0.32972
0.60773	0.48277
0.58223	0.30422
1.01576	-0.07840
0.91375	-0.02739
-0.02981	0.32972
-0.36133	0.10015
-0.41233	-0.33348
-0.99887	0.12566
-0.79486	0.40625
1.83181	0.55929
1.16877	0.20219
-0.13181	-0.12942
-2.32496	0.04914
0.04670	-0.07840
0.65874	0.20219
0.42922	0.45726
0.83725	0.22769
-0.08081	0.15117
-1.15188	-0.18043
0.12320	-0.35899
1.29628	0.30422
0.68424	0.30422
-1.73842	0.04914
0.63323	0.15117
0.65874	0.43176
0.53123	0.02363
-0.48884	0.12566
0.19971	0.35523
0.93925	0.22769
-0.13181	-0.12942
-0.33583	0.10015
0.27621	0.02363
-0.56534	0.10015
0.40372	0.27871
0.25071	0.10015
-0.23382	0.27871
0.42922	0.10015
0.32721	0.10015
0.58223	0.04914
0.25071	0.53379
0.78624	0.43176
0.63323	0.50828
-0.36133	-0.15492
-1.53441	-0.41000
0.32721	0.20219
0.76074	-0.18043
0.37822	-0.05289
0.19971	-0.20594
-0.02981	0.55929
0.35272	0.55929
0.12320	0.68683
0.83725	0.22769
0.68424	-0.02739
-0.79486	0.04914
-0.84586	-0.33348
-0.02981	0.30422
0.63323	0.35523
-0.61635	0.04914
0.32721	0.27871
0.91375	0.30422
0.19971	0.04914
0.50573	0.04914
0.30171	0.22769
0.65874	-0.00188
0.37822	0.12566
-1.89143	0.17668
0.07220	-0.18043
0.12320	0.38074
0.55673	-0.10391
1.32178	0.61031
-1.50890	-0.07840
-0.66735	0.27871
1.34728	-0.07840
0.63323	0.12566
-0.25932	0.22769
-0.08081	-0.10391
0.42922	0.32972
0.42922	0.40625
0.22521	0.15117
0.81175	0.17668
0.30171	0.25320
-1.43240	-0.00188
-0.59084	-0.25695
0.17421	0.07465
0.88825	0.32972
0.35272	0.20219
-0.69285	0.30422
0.83725	0.63582
0.37822	-0.15492
1.34728	-0.15492
-0.02981	-0.12942
-0.94787	-0.02739
-0.08081	0.20219
0.40372	0.22769
-0.23382	0.27871
0.19971	0.20219
0.02119	0.35523
0.58223	0.04914
0.65874	-0.07840
0.25071	0.17668
0.83725	0.07465
0.73524	-0.00188
-1.68742	0.35523
-0.97337	0.10015
0.99026	0.04914
-0.23382	0.20219
0.63323	0.43176
0.63323	0.30422
0.12320	-0.28246
0.07220	-0.02739
0.12320	0.20219
0.12320	0.15117
-0.13181	-0.00188
0.50573	0.10015
0.22521	0.40625
-0.94787	-0.00188
0.17421	0.30422
1.24527	-0.00188
0.40372	-0.35899
0.63323	0.45726
0.02119	0.35523
0.42922	0.40625
-0.08081	-0.41000
-0.00431	0.32972
0.86275	0.50828
-0.66735	0.76336
-0.25932	-0.00188
0.07220	-0.07840
0.55673	0.07465
0.99026	-0.25695
0.02119	0.04914
-0.89686	0.10015
0.22521	0.20219
-0.00431	0.07465
0.83725	0.55929
-0.66735	-0.07840
-0.23382	0.07465
0.53123	0.20219
0.45472	0.32972
0.32721	0.30422
0.45472	-0.23145
-0.00431	0.07465
0.48022	0.32972
-1.04987	0.20219
-0.43783	0.04914
0.14870	-0.02739
-0.36133	-0.02739
0.14870	0.12566
0.86275	0.40625
2.16333	1.24800
-0.08081	-0.25695
-1.48340	-0.20594
-0.48884	-0.30797
0.91375	-0.02739
0.73524	0.58480
-0.69285	-0.28246
0.07220	0.78886
0.83725	0.02363
0.40372	-0.20594
-0.05531	0.20219
0.09770	0.02363
-0.25932	-0.10391
0.22521	0.22769
-0.02981	0.17668
-0.00431	0.30422
0.88825	0.38074
0.30171	0.25320
-0.05531	0.12566
0.02119	0.07465
0.42922	-0.12942
-0.25932	0.10015
-1.43240	0.38074
-0.05531	-0.00188
0.35272	-0.15492
0.48022	-0.00188
1.75531	0.27871
0.53123	0.25320
-1.96793	-0.00188
0.99026	0.61031
1.80631	0.30422
-0.08081	-0.35899
-1.43240	-0.12942
0.42922	-0.07840
0.53123	0.27871
-0.05531	0.35523
0.19971	0.35523
0.32721	0.10015
0.42922	0.15117
0.19971	0.20219
-0.28482	-0.00188
-0.69285	-0.43551
-0.53984	0.30422
0.32721	0.58480
1.01576	0.12566
0.17421	0.10015
-0.69285	-0.07840
0.91375	0.20219
0.60773	0.20219
0.91375	0.25320
1.19427	0.25320
-2.24845	0.50828
-1.17738	0.12566
0.93925	-0.07840
1.04126	-0.18043
0.35272	0.04914
-0.56534	-0.28246
0.45472	0.22769
0.73524	0.15117
0.70974	0.27871
0.17421	0.76336
-0.87136	-0.15492
-0.31033	0.20219
0.35272	0.38074
-0.84586	0.30422
-0.13181	-0.38449
0.86275	0.27871
1.14327	0.45726
0.73524	0.12566
0.17421	0.07465
-0.08081	0.02363
0.27621	-0.35899
-0.10631	-0.41000
-0.38683	0.17668
0.99026	0.20219
0.37822	0.45726
-1.66191	0.32972
-0.64185	0.17668
1.14327	0.43176
1.57679	0.22769
0.73524	-0.05289
-1.66191	-0.15492
0.17421	0.30422
0.27621	0.15117
0.02119	-0.10391
0.48022	0.48277
0.42922	0.10015
0.50573	-0.12942
0.53123	0.40625
-0.15732	0.04914
-0.31033	0.12566
0.42922	0.25320
0.70974	0.20219
-0.59084	-0.00188
0.32721	0.04914
0.25071	0.35523
-0.20832	0.04914
-1.15188	-0.23145
-0.56534	0.04914
1.52579	0.15117
1.11776	0.27871
0.86275	0.04914
0.30171	0.40625
0.73524	0.45726
-1.53441	0.10015
-1.45790	-0.10391
-0.02981	0.15117
1.14327	0.53379
0.45472	0.12566
0.12320	-0.02739
0.88825	-0.25695
0.27621	-0.10391
-0.05531	-0.10391
0.48022	0.45726
0.42922	0.50828
-0.18282	-0.25695
-0.43783	0.40625
-0.61635	0.07465
0.60773	0.35523
0.83725	0.15117
0.09770	-0.07840
0.53123	0.27871
0.45472	0.45726
-0.74385	0.22769
-0.66735	-0.10391
0.17421	-0.23145
1.78081	0.10015
0.81175	0.32972
-1.04987	0.32972
-1.04987	-0.00188
-0.00431	0.07465
1.06676	0.12566
0.78624	0.35523
0.99026	0.38074
0.32721	-0.30797
-0.00431	-0.02739
-0.15732	-0.05289
-0.18282	0.10015
-0.02981	0.25320
0.58223	0.71234
0.50573	0.43176
-0.02981	0.12566
0.58223	0.12566
-0.53984	-0.18043
-0.38683	0.22769
0.25071	-0.10391
-0.66735	0.04914
0.53123	-0.07840
0.48022	0.10015
0.42922	0.20219
0.37822	0.10015
-0.79486	0.22769
0.25071	0.10015
0.53123	0.35523
1.14327	0.35523
-0.28482	0.45726
-0.79486	0.55929
0.70974	0.04914
0.37822	-0.05289
0.04670	0.04914
0.40372	0.17668
0.58223	0.15117
-0.10631	0.10015
-1.35589	-0.33348
-0.33583	0.02363
0.12320	0.04914
0.32721	-0.10391
0.73524	0.63582
0.83725	0.50828
0.50573	0.58480
-0.28482	-0.20594
-0.08081	0.27871
0.35272	-0.18043
-0.38683	0.20219
0.30171	0.15117
0.22521	0.17668
-0.13181	0.35523
1.29628	0.20219
0.12320	-0.25695
-0.02981	0.20219
-0.41233	0.50828
-0.00431	0.04914
0.68424	-0.12942
0.93925	0.12566
-0.00431	0.17668
-0.18282	-0.02739
-0.20832	0.32972
-0.82036	-0.02739
0.48022	0.25320
0.30171	0.15117
0.55673	0.45726
0.32721	-0.25695
0.35272	-0.05289
-0.28482	0.07465
0.40372	-0.05289
0.73524	-0.00188
-0.02981	0.40625
-1.58541	0.76336
-1.40690	0.15117
0.58223	0.17668
1.39828	-0.33348
0.88825	0.35523
-0.71835	0.25320
0.35272	0.63582
0.73524	0.12566
0.96476	-0.18043
0.32721	0.04914
0.40372	0.45726
0.07220	0.35523
-0.28482	-0.35899
-0.31033	0.07465
-0.10631	0.07465
-0.02981	-0.05289
0.35272	0.12566
0.12320	0.10015
0.02119	0.20219
0.25071	0.17668
-0.56534	0.10015
-1.20288	0.53379
1.04126	0.25320
2.26534	0.04914
0.83725	0.17668
-1.94243	0.10015
0.12320	-0.28246
0.60773	0.48277
0.32721	0.35523
0.58223	-0.07840
-0.43783	0.25320
0.68424	0.25320
0.63323	-0.05289
-1.25389	0.12566
0.25071	0.17668
0.35272	0.02363
0.22521	0.12566
0.25071	0.43176
0.88825	0.04914
1.04126	0.02363
-0.51434	0.30422
-1.12638	0.17668
0.19971	0.12566
-0.28482	-0.05289
0.76074	0.04914
-0.08081	-0.00188
-0.99887	0.10015
-0.82036	0.35523
0.93925	0.27871
0.73524	0.30422
0.50573	0.30422
0.07220	0.12566
0.50573	-0.02739
0.45472	0.20219
0.58223	0.32972
0.32721	-0.15492
-1.25389	-0.07840
0.02119	0.30422
0.42922	0.35523
0.22521	0.30422
0.32721	0.04914
0.65874	-0.02739
0.50573	-0.07840
-0.00431	-0.18043
-0.56534	0.35523
-0.66735	0.30422
-0.71835	0.17668
1.62780	0.02363
1.01576	0.43176
1.11776	-0.00188
-0.25932	0.43176
-0.20832	0.25320
0.37822	0.27871
-0.33583	0.12566
-0.43783	0.15117
-0.02981	-0.10391
0.17421	-0.15492
0.30171	0.10015
-0.10631	0.12566
0.32721	0.68683
0.91375	0.25320
0.55673	0.25320
0.55673	-0.00188
-2.06994	-0.35899
-0.84586	-0.10391
2.36734	0.58480
1.19427	-0.07840
-0.89686	0.15117
1.32178	0.02363
-0.46334	0.35523
-1.40690	0.32972
-0.05531	0.07465
1.06676	0.17668
0.96476	0.45726
-0.61635	0.17668
1.04126	0.17668
-0.00431	-0.33348
-1.78942	-0.53754
-1.99343	0.07465
0.55673	0.45726
0.99026	0.40625
0.99026	0.40625
0.96476	0.07465
0.48022	0.02363
-0.18282	-0.02739
0.12320	0.25320
0.70974	0.35523
-0.10631	-0.15492
-0.43783	0.27871
0.19971	0.22769
0.50573	0.48277
0.14870	0.20219
0.17421	-0.15492
0.73524	0.17668
-0.87136	0.22769
-1.68742	-0.10391
0.88825	0.10015
1.34728	-0.46102
-2.32496	0.22769
-1.48340	0.53379
1.50029	0.12566
2.16333	-0.53754
1.21977	0.48277
0.50573	0.04914
0.63323	0.12566
0.42922	0.25320
0.12320	0.10015
-0.99887	0.40625
-0.66735	0.15117
-0.02981	0.32972
0.32721	0.20219
0.12320	0.17668
-0.94787	-0.12942
1.50029	-0.00188
1.34728	0.04914
-1.50890	0.40625
-3.57454	0.12566
0.45472	0.20219
1.04126	-0.18043
1.65330	0.40625
1.95932	0.20219
1.06676	0.17668
-0.38683	0.48277
0.48022	0.17668
0.22521	0.04914
-0.13181	-0.20594
0.25071	-0.05289
-0.33583	-0.28246
-2.22295	-0.30797
-0.20832	0.40625
1.11776	0.04914
0.76074	0.86539
-0.33583	0.66132
-0.00431	0.22769
2.06133	0.32972
-0.00431	0.04914
-0.69285	-0.28246
-0.51434	0.12566
0.35272	-0.07840
0.93925	0.55929
1.06676	-0.00188
-0.05531	0.12566
-0.08081	-0.00188
0.58223	0.04914
-1.04987	0.02363
0.14870	-0.18043
0.22521	0.27871
-0.05531	0.43176
1.34728	0.50828
0.91375	0.25320
-1.50890	0.12566
-0.28482	-0.43551
1.14327	-0.00188
0.17421	0.25320
0.40372	0.45726
-0.66735	0.76336
-0.59084	-0.20594
0.37822	-0.25695
0.22521	0.38074
0.93925	0.10015
1.09226	0.20219
0.40372	0.32972
0.22521	0.10015
0.91375	0.12566
0.45472	0.15117
-0.64185	0.10015
-1.12638	-0.23145
-2.17195	-0.18043
0.78624	0.17668
1.04126	0.30422
0.78624	0.48277
0.48022	0.27871
0.50573	-0.05289
1.52579	0.32972
0.58223	0.15117
-1.50890	0.43176
-1.33039	0.43176
-0.92237	0.04914
0.91375	0.12566
1.01576	0.17668
0.99026	0.12566
0.45472	0.27871
-0.10631	-0.56305
0.58223	-0.28246
-0.18282	0.35523
-0.00431	0.38074
-0.08081	1.06945
0.12320	0.53379
-0.82036	-0.10391
0.63323	0.02363
1.98482	0.25320
-1.78942	-0.28246
-0.53984	-0.28246
1.11776	0.38074
-0.59084	0.22769
-0.31033	0.40625
1.50029	0.45726
0.53123	-0.00188
1.14327	-0.15492
-0.69285	0.10015
0.27621	-0.28246
0.76074	0.53379
0.63323	0.38074
-0.25932	0.45726
-1.84042	0.20219
-0.46334	-0.00188
0.76074	-0.02739
0.48022	-0.05289
1.16877	0.17668
-0.08081	0.35523
-1.35589	0.12566
0.63323	0.15117
1.19427	0.30422
-1.07538	0.17668
-1.10088	0.25320
2.64786	-0.15492
0.32721	0.15117
-0.13181	0.20219
0.37822	0.45726
0.12320	-0.07840
-0.82036	-0.25695
-0.36133	0.40625
0.55673	0.17668
1.16877	-0.05289
0.83725	0.15117
-0.59084	0.04914
-1.84042	-0.20594
-0.82036	-0.43551
0.17421	0.71234
0.81175	0.76336
0.83725	0.63582
1.88281	0.55929
0.30171	-0.05289
-1.50890	-0.05289
-0.66735	-0.33348
0.27621	-0.28246
1.32178	0.30422
-0.53984	0.10015
0.19971	0.35523
1.75531	0.04914
-0.13181	0.27871
-0.51434	0.32972
-0.69285	-0.02739
-0.53984	-0.20594
0.81175	0.07465
1.27078	0.35523
-0.92237	0.35523
-0.15732	0.15117
-0.02981	0.17668
0.09770	-0.35899
1.75531	-0.00188
0.63323	0.53379
1.06676	0.86539
-0.25932	0.63582
-1.81492	-0.07840
1.06676	-0.38449
0.76074	-0.53754
-1.10088	0.20219
-0.18282	-0.02739
1.34728	0.35523
-0.05531	0.45726
0.22521	0.53379
1.01576	0.15117
-1.73842	-0.18043
-0.36133	0.02363
2.21434	0.07465
-0.38683	0.17668
-2.52897	0.04914
1.42379	0.10015
0.32721	-0.00188
0.30171	0.66132
1.24527	0.20219
1.42379	-0.07840
0.48022	0.12566
-1.25389	0.27871
-0.59084	-0.05289
-0.28482	-0.41000
0.78624	-0.46102
-0.69285	0.71234
1.37278	1.01843
2.23984	-0.00188
-1.30489	0.30422
-1.96793	0.07465
-0.18282	0.25320
-0.33583	0.15117
0.32721	-0.23145
1.72980	-0.28246
1.60230	-0.25695
-1.94243	-0.00188
0.04670	0.61031
1.50029	0.53379
2.16333	0.50828
0.78624	0.22769
-2.83499	-0.25695
-0.59084	-0.10391
0.73524	0.40625
0.68424	0.02363
1.14327	0.17668
0.32721	0.22769
0.42922	-0.10391
-0.41233	0.17668
-0.87136	0.45726
-0.20832	-0.30797
-0.20832	0.04914
0.42922	0.35523
0.27621	0.07465
-2.45246	0.71234
0.50573	-0.18043
1.27078	-0.05289
1.04126	-0.69059
1.27078	0.27871
1.24527	0.83988
1.37278	0.40625
-0.61635	0.22769
-1.25389	-0.12942
-0.87136	0.04914
0.09770	-0.00188
0.53123	0.38074
-1.30489	0.15117
1.42379	0.32972
1.04126	0.25320
-0.61635	0.22769
-0.84586	-0.18043
0.86275	0.15117
0.60773	0.12566
-0.08081	-0.05289
0.76074	-0.02739
0.09770	0.10015
-1.12638	0.58480
1.42379	0.30422
0.50573	0.12566
0.32721	-0.38449
0.53123	0.22769
-0.23382	-0.15492
-0.61635	0.55929
0.70974	0.25320
-0.87136	0.32972
-1.61091	0.32972
0.58223	-0.48652
0.53123	0.15117
-0.05531	0.66132
1.34728	0.68683
0.93925	0.25320
1.24527	-0.15492
1.75531	-0.00188
-0.97337	-0.05289
-2.42696	-0.46102
-1.61091	-0.46102
-0.08081	-0.15492
0.96476	0.43176
1.27078	0.22769
1.29628	0.83988
1.27078	0.32972
-0.53984	0.45726
0.40372	0.07465
-0.89686	0.35523
0.60773	0.12566
-0.10631	1.01843
0.35272	0.40625
0.32721	-0.05289
0.50573	-0.02739
0.53123	-0.71609
-0.10631	-0.25695
-3.11551	-0.76711
-0.33583	0.04914
1.72980	0.27871
0.63323	0.17668
1.09226	0.63582
0.88825	0.66132
-0.99887	0.20219
-0.87136	0.32972
1.04126	0.48277
0.63323	0.15117
0.73524	0.02363
-0.28482	0.12566
-0.20832	0.22769
-0.08081	-0.07840
-0.00431	-0.38449
1.04126	-0.10391
0.68424	-0.07840
-2.04444	0.20219
-1.12638	0.50828
0.37822	0.45726
-0.89686	0.15117
1.70430	-0.35899
1.65330	-0.30797
1.37278	0.15117
-0.69285	0.15117
-0.20832	0.12566
0.58223	0.38074
1.85731	0.86539
-0.05531	0.96742
-1.86593	0.25320
-1.20288	0.17668
0.12320	-0.84363
0.09770	-0.30797
0.55673	0.10015
1.06676	0.20219
0.02119	0.27871
0.50573	0.27871
-0.02981	0.02363
-0.08081	-0.43551
1.21977	0.55929
-2.01894	0.15117
-0.94787	0.27871
0.93925	0.25320
0.86275	0.27871
0.99026	-0.18043
0.73524	0.15117
0.27621	-0.00188
-0.28482	0.22769
-0.00431	0.22769
0.45472	0.22769
0.25071	0.30422
-2.14644	-0.12942
0.60773	0.30422
1.52579	0.10015
0.09770	0.30422
0.02119	0.22769
0.22521	0.02363
0.32721	0.20219
-1.73842	0.15117
1.32178	0.04914
0.50573	0.02363
-0.61635	0.40625
0.65874	0.48277
0.12320	-0.30797
0.99026	-0.10391
0.25071	-0.18043
-0.33583	0.25320
0.04670	0.15117
-0.38683	-0.00188
-0.00431	0.55929
0.32721	0.53379
0.25071	0.17668
0.27621	0.12566
0.53123	-0.10391
-0.05531	0.20219
-0.84586	-0.07840
-0.41233	0.22769
2.92838	0.02363
1.95932	0.27871
-3.62554	0.25320
-1.35589	0.17668
1.27078	0.17668
1.04126	0.15117
1.88281	0.07465
0.25071	-0.07840
-2.17195	0.27871
0.09770	-0.23145
0.50573	-0.10391
1.21977	0.35523
0.81175	0.45726
0.27621	0.45726
-0.02981	0.32972
-0.05531	0.10015
0.09770	0.12566
-0.05531	0.02363
-1.12638	-0.10391
-0.10631	-0.00188
-0.23382	0.50828
1.11776	0.12566
0.70974	0.30422
-0.25932	0.20219
-0.61635	0.30422
0.65874	-0.02739
0.42922	0.07465
0.58223	0.04914
0.30171	-0.48652
0.35272	0.30422
0.30171	0.43176
0.02119	0.38074
-0.51434	0.22769
1.21977	0.35523
-0.59084	0.15117
-0.99887	0.25320
0.17421	-0.23145
0.83725	-0.00188
1.67880	-0.05289
0.88825	-0.15492
-1.76392	-0.05289
-0.56534	0.35523
0.76074	0.35523
0.70974	0.35523
-0.23382	0.40625
0.68424	-0.35899
-0.76936	0.35523
-1.35589	0.45726
2.11233	0.43176
1.34728	0.17668
-1.81492	0.43176
0.93925	-0.43551
0.45472	-0.48652
-0.25932	0.40625
0.48022	0.48277
0.48022	0.22769
-0.56534	0.48277
0.42922	0.12566
0.09770	0.25320
0.35272	-0.35899
-0.36133	0.02363
-0.66735	0.66132
-0.33583	-0.02739
1.04126	0.04914
0.30171	-0.05289
-0.92237	-0.28246
-0.25932	0.10015
-0.00431	0.10015
1.14327	0.20219
0.48022	0.35523
0.32721	0.15117
0.42922	0.07465
0.19971	0.38074
0.37822	0.20219
0.58223	0.45726
-0.08081	-0.12942
-0.05531	-0.05289
-0.20832	0.89089
-0.53984	0.25320
0.32721	0.27871
-0.10631	-0.18043
-1.35589	-0.02739
0.27621	0.17668
1.24527	-0.07840
0.50573	0.12566
-1.12638	0.07465
1.19427	0.10015
0.14870	-0.15492
0.40372	0.66132
1.01576	0.58480
0.78624	-0.23145
-0.53984	0.63582
-0.25932	0.02363
0.78624	0.10015
1.01576	0.55929
-0.46334	-0.15492
-1.07538	0.12566
-0.20832	-0.02739
0.50573	-0.07840
0.53123	0.53379
0.35272	0.38074
0.50573	0.15117
0.65874	-0.02739
-0.69285	0.50828
-0.61635	-0.05289
-1.20288	-0.33348
-0.66735	-0.02739
0.14870	-0.05289
1.65330	0.27871
1.11776	0.35523
-0.97337	0.22769
2.03582	0.07465
1.06676	0.10015
-1.53441	0.27871
-0.00431	0.17668
0.37822	0.30422
-0.00431	-0.25695
-0.02981	0.15117
0.68424	0.22769
0.63323	0.25320
-0.66735	0.02363
0.04670	0.04914
0.07220	0.40625
0.14870	-0.02739
0.02119	0.02363
0.04670	-0.05289
0.50573	0.07465
-0.69285	-0.07840
-1.61091	-0.25695
-0.31033	0.12566
1.14327	0.55929
1.29628	-0.07840
0.35272	0.53379
0.73524	0.35523
1.06676	0.15117
0.65874	0.10015
-1.17738	0.22769
0.35272	0.27871
0.30171	-0.02739
-0.28482	-0.02739
-0.59084	0.10015
0.35272	-0.10391
0.07220	0.50828
0.65874	0.12566
0.48022	0.04914
-0.13181	-0.18043
-0.02981	-0.05289
0.09770	-0.05289
-0.00431	0.07465
0.60773	0.22769
-0.61635	0.15117
-0.28482	0.20219
0.83725	0.22769
-0.25932	0.35523
0.73524	0.20219
0.27621	0.30422
0.09770	0.32972
0.60773	0.02363
-0.38683	-0.43551
-1.48340	0.68683
0.78624	0.40625
1.09226	0.35523
0.58223	-0.43551
0.12320	0.17668
-0.48884	0.10015
0.19971	0.43176
0.65874	-0.20594
0.25071	-0.43551
0.02119	0.30422
0.22521	0.48277
-0.23382	0.20219
-0.48884	0.40625
0.27621	0.10015
0.04670	-0.18043
0.58223	0.15117
-0.51434	-0.00188
1.50029	0.50828
-0.71835	0.22769
0.27621	-0.05289
0.27621	-0.07840
-1.30489	0.35523
0.53123	0.10015
0.63323	0.10015
1.32178	0.17668
0.02119	0.10015
-0.41233	-0.00188
-0.48884	0.04914
0.40372	0.25320
-0.15732	0.38074
0.07220	0.22769
1.44929	0.25320
0.40372	0.27871
-1.35589	0.43176
-0.94787	-0.10391
0.22521	-0.02739
1.14327	-0.10391
0.78624	-0.12942
0.53123	0.30422
0.19971	0.20219
0.60773	0.22769
0.25071	0.30422
0.83725	0.35523
-0.05531	-0.12942
-1.12638	-0.05289
-0.41233	-0.35899
-0.46334	0.20219
-0.53984	0.15117
0.78624	0.12566
0.81175	0.53379
0.27621	0.15117
0.19971	0.22769
0.14870	-0.18043
0.12320	-0.02739
-0.10631	0.22769
0.02119	0.35523
0.40372	-0.02739
0.48022	0.15117
-0.25932	0.38074
0.88825	0.25320
0.19971	0.02363
-1.02437	0.83988
0.42922	0.15117
0.50573	-0.23145
0.04670	-0.28246
-0.36133	0.15117
0.32721	0.12566
1.04126	0.15117
0.14870	0.15117
0.22521	0.25320
0.83725	-0.07840
-0.48884	0.45726
0.07220	1.09496
0.35272	0.32972
-1.30489	-0.41000
0.48022	0.20219
0.55673	0.15117
0.37822	-0.10391
0.07220	0.10015
-0.18282	-0.18043
0.12320	0.30422
0.70974	0.15117
0.68424	0.25320
-0.36133	0.04914
-1.40690	-0.25695
-0.08081	0.12566
0.60773	0.55929
1.37278	0.15117
0.60773	-0.18043
0.45472	0.43176
-0.15732	0.02363
-0.46334	-0.12942
-0.20832	0.40625
-0.25932	0.04914
0.55673	0.20219
0.70974	0.10015
0.27621	0.35523
-0.00431	0.22769
-0.74385	-0.05289
-0.10631	0.07465
0.07220	-0.07840
0.22521	0.04914
0.58223	0.45726
1.19427	0.38074
0.22521	0.27871
-1.07538	0.17668
-0.23382	-0.20594
0.40372	0.02363
0.40372	-0.15492
0.60773	0.35523
0.25071	0.20219
-0.33583	0.22769
0.53123	0.20219
0.50573	-0.05289
-0.64185	-0.15492
-1.17738	0.17668
0.96476	0.68683
0.73524	0.20219
0.55673	0.45726
0.04670	-0.25695
-0.23382	0.30422
0.60773	-0.02739
-0.20832	0.35523
0.40372	0.12566
0.32721	0.32972
-0.71835	0.17668
-0.18282	-0.20594
0.35272	-0.00188
0.76074	-0.02739
0.78624	0.30422
-0.33583	0.15117
-0.76936	0.30422
0.35272	0.07465
0.65874	0.27871
0.40372	0.07465
-0.74385	0.10015
0.04670	0.07465
0.32721	0.10015
1.29628	0.17668
0.35272	0.15117
-0.61635	-0.38449
0.55673	0.43176
1.14327	-0.07840
-0.10631	0.50828
-1.35589	0.61031
0.25071	0.12566
0.63323	0.07465
-0.28482	-0.38449
-0.56534	0.35523
-0.33583	-0.07840
0.30171	-0.10391
0.65874	0.48277
0.53123	0.25320
0.55673	0.07465
0.55673	0.22769
0.81175	0.17668
0.30171	0.35523
-0.28482	-0.20594
-0.18282	-0.15492
-0.05531	0.02363
-0.15732	0.02363
-1.35589	0.15117
-0.23382	0.25320
0.63323	0.25320
0.78624	0.20219
0.32721	0.40625
1.04126	0.32972
-0.64185	-0.02739
0.07220	0.30422
1.04126	0.43176
0.68424	-0.02739
0.55673	-0.23145
-0.20832	0.07465
0.22521	0.30422
0.48022	0.15117
-0.46334	0.32972
-1.30489	0.15117
-0.00431	0.22769
0.45472	-0.35899
0.63323	-0.12942
0.40372	0.55929
0.50573	0.17668
0.93925	0.02363
-0.87136	-0.20594
-0.18282	0.07465
-0.46334	-0.12942
-0.05531	-0.02739
0.50573	0.55929
0.70974	0.78886
0.53123	0.66132
0.14870	0.12566
0.42922	-0.10391
0.32721	-0.46102
-0.41233	-0.18043
-0.15732	0.02363
0.30171	-0.05289
0.02119	0.73785
-0.43783	0.53379
0.55673	-0.15492
1.62780	0.96742
0.02119	0.07465
-0.64185	-0.30797
-1.22839	-0.25695
-1.76392	-0.05289
1.19427	0.17668
1.27078	0.32972
-0.02981	0.22769
1.50029	0.10015
0.73524	0.04914
-0.20832	-0.10391
-0.05531	0.35523
0.12320	0.32972
0.63323	0.22769
0.17421	0.38074
-0.08081	0.25320
-0.28482	0.10015
0.02119	0.02363
0.12320	-0.05289
-0.41233	-0.18043
-0.61635	0.17668
0.60773	0.02363
0.99026	0.22769
-0.18282	0.32972
-0.10631	-0.05289
0.45472	0.07465
-0.71835	0.43176
0.50573	0.12566
0.63323	0.25320
0.86275	-0.23145
-0.18282	0.17668
-0.18282	-0.07840
0.02119	0.27871
0.58223	0.32972
0.35272	0.10015
0.48022	0.04914
-0.10631	0.25320
-0.69285	0.10015
-0.51434	-0.00188
0.78624	0.20219
0.45472	0.22769
0.12320	0.04914
-0.10631	0.45726
-0.08081	0.50828
0.48022	0.55929
0.32721	-0.07840
-0.00431	0.04914
0.12320	-0.38449
0.45472	-0.25695
-0.13181	-0.15492
-0.36133	0.43176
-0.31033	0.78886
1.29628	0.48277
1.37278	0.35523
-1.12638	-0.12942
-0.64185	0.04914
0.55673	0.02363
0.73524	0.15117
0.68424	0.10015
-0.36133	-0.05289
-0.41233	0.04914
-0.41233	0.17668
0.86275	0.04914
0.32721	0.17668
0.83725	0.43176
-0.46334	0.17668
-0.02981	0.07465
-0.36133	0.10015
0.53123	0.27871
0.81175	-0.10391
0.04670	0.12566
0.27621	-0.07840
-0.25932	0.20219
-0.10631	0.43176
0.25071	0.22769
0.17421	-0.28246
0.22521	0.40625
0.32721	0.17668
0.17421	0.10015
-0.15732	0.55929
-0.41233	0.10015
0.25071	-0.35899
0.58223	0.25320
0.60773	0.07465
0.37822	0.30422
0.32721	0.15117
0.22521	0.71234
-0.23382	0.07465
-0.15732	-0.18043
-0.56534	-0.00188
0.17421	0.15117
0.50573	0.07465
0.78624	0.04914
0.88825	0.20219
-0.05531	-0.18043
-1.91693	0.35523
0.25071	0.32972
-0.05531	0.27871
0.63323	-0.02739
1.14327	0.17668
0.48022	0.20219
-0.33583	0.32972
-0.48884	0.02363
-0.23382	-0.18043
0.17421	-0.00188
0.91375	0.40625
0.93925	0.30422
0.12320	0.10015
-0.92237	-0.05289
-0.00431	-0.05289
0.45472	0.25320
0.40372	0.12566
-0.97337	0.43176
0.45472	0.35523
0.53123	0.15117
0.73524	0.50828
0.04670	-0.15492
-0.59084	-0.00188
0.09770	-0.05289
0.48022	0.12566
0.30171	0.50828
0.70974	0.50828
0.50573	-0.02739
-0.02981	0.25320
0.04670	0.15117
0.02119	0.22769
-0.89686	0.15117
0.35272	0.15117
0.40372	0.30422
-1.17738	-0.30797
0.65874	0.07465
0.78624	0.12566
-0.74385	0.17668
0.68424	0.12566
0.68424	0.15117
0.73524	0.55929
0.02119	0.43176
-0.71835	-0.07840
0.30171	-0.05289
0.53123	-0.02739
-0.28482	-0.43551
0.04670	0.17668
0.27621	0.20219
0.81175	0.53379
-0.18282	0.25320
-0.02981	0.04914
-0.15732	0.04914
0.45472	-0.05289
0.48022	0.53379
0.17421	-0.18043
0.32721	0.32972
0.53123	0.07465
-0.97337	0.32972
-0.36133	0.58480
-0.79486	0.17668
-0.41233	0.07465
1.04126	-0.05289
1.32178	-0.18043
-0.10631	-0.58856
-0.00431	-0.00188
0.14870	0.55929
0.76074	0.43176
0.88825	0.50828
0.60773	0.38074
0.25071	0.38074
-0.53984	-0.05289
-1.17738	0.07465
0.14870	-0.15492
-0.28482	0.04914
0.83725	0.10015
0.83725	0.10015
-0.53984	0.12566
-0.13181	0.27871
0.60773	0.27871
0.91375	0.45726
0.09770	-0.18043
-1.12638	0.25320
0.93925	0.27871
-0.89686	-0.05289
0.14870	-0.05289
0.53123	-0.00188
0.73524	0.04914
1.01576	0.07465
-0.56534	-0.20594
-0.25932	0.27871
0.63323	0.27871
0.35272	0.40625
-0.28482	0.10015
-0.08081	0.04914
0.27621	0.27871
0.19971	-0.20594
0.14870	0.04914
0.14870	0.15117
-0.43783	0.25320
0.53123	0.32972
0.73524	0.20219
0.17421	-0.07840
-0.13181	-0.00188
-0.18282	0.04914
0.14870	0.04914
0.32721	0.20219
0.19971	0.15117
0.30171	0.76336
0.07220	-0.02739
-0.89686	-0.15492
0.53123	0.15117
1.14327	-0.05289
0.81175	-0.23145
-0.31033	0.07465
-0.69285	0.12566
-0.13181	0.32972
0.02119	0.63582
-0.23382	0.04914
0.73524	0.04914
1.04126	0.04914
-0.10631	0.20219
0.02119	0.15117
0.19971	0.12566
0.48022	-0.07840
-0.56534	0.25320
0.07220	0.10015
-0.05531	0.02363
0.55673	0.22769
0.70974	0.27871
0.07220	0.10015
-1.43240	-0.07840
-0.82036	0.38074
0.91375	0.07465
0.55673	0.55929
0.93925	0.15117
-0.31033	-0.10391
-0.43783	-0.30797
0.86275	-0.02739
0.81175	0.71234
0.32721	0.40625
-0.20832	0.20219
0.17421	0.02363
0.02119	-0.07840
0.07220	0.04914
0.07220	0.50828
0.04670	0.20219
0.35272	0.40625
-0.23382	0.12566
0.48022	0.17668
0.35272	-0.05289
-0.38683	0.22769
0.53123	0.17668
0.73524	0.17668
-0.33583	-0.28246
-0.51434	-0.20594
-0.94787	0.45726
0.68424	0.27871
0.96476	0.20219
0.83725	0.10015
0.55673	0.17668
-1.25389	0.50828
0.30171	0.22769
0.07220	-0.10391
0.70974	0.02363
0.35272	-0.12942
-0.00431	0.25320
0.14870	0.45726
0.30171	0.32972
-0.20832	0.12566
0.07220	0.07465
0.88825	-0.02739
0.68424	0.22769
-2.06994	0.25320
-0.89686	-0.25695
0.70974	0.04914
1.29628	0.22769
0.60773	0.25320
0.07220	0.10015
0.55673	-0.15492
0.93925	0.15117
-1.10088	0.27871
-0.25932	0.22769
0.37822	0.66132
-0.25932	-0.18043
0.07220	0.07465
0.30171	0.12566
0.88825	0.45726
0.78624	0.53379
0.48022	0.63582
-0.38683	0.07465
-0.20832	-0.43551
0.32721	-0.10391
-0.18282	-0.20594
-0.18282	0.04914
0.27621	0.55929
-0.51434	0.04914
0.32721	-0.07840
0.60773	0.43176
0.09770	-0.05289
0.83725	0.61031
0.70974	0.22769
-0.69285	0.30422
-0.71835	-0.10391
0.60773	-0.00188
-0.18282	-0.25695
0.09770	0.15117
0.68424	0.25320
0.19971	0.17668
0.37822	0.25320
0.12320	0.20219
0.27621	0.63582
-0.61635	0.20219
1.27078	0.48277
-0.18282	-0.07840
-0.46334	-0.12942
-0.36133	0.07465
-0.08081	0.04914
0.73524	0.17668
0.50573	0.17668
-0.61635	0.25320
-0.05531	-0.00188
-1.12638	0.02363
0.65874	0.17668
0.73524	-0.07840
0.86275	0.22769
-0.15732	0.35523
-0.15732	0.53379
1.04126	0.02363
1.04126	-0.10391
0.48022	0.15117
-1.71292	0.35523
-0.13181	0.50828
0.58223	-0.18043
0.40372	0.02363
0.55673	-0.23145
-1.20288	-0.15492
0.07220	0.20219
1.06676	0.55929
-0.28482	0.61031
-0.38683	0.25320
1.06676	0.27871
0.35272	0.04914
0.27621	-0.10391
0.30171	-0.12942
-0.33583	-0.02739
0.17421	0.38074
-0.76936	0.04914
-0.33583	0.02363
0.70974	0.17668
1.06676	0.50828
0.73524	0.02363
0.88825	0.30422
-0.43783	0.20219
-1.17738	0.20219
-0.02981	0.10015
-0.15732	0.17668
-0.33583	0.15117
-0.59084	-0.05289
0.81175	0.63582
1.24527	0.35523
1.55129	-0.25695
-0.05531	-0.35899
-1.02437	-0.10391
-0.28482	0.25320
0.04670	0.32972
-0.23382	0.55929
0.30171	-0.12942
0.83725	0.63582
0.86275	0.17668
-0.18282	-0.02739
0.04670	-0.20594
-0.43783	0.48277
-0.48884	0.04914
0.40372	0.02363
-0.61635	0.10015
0.48022	0.04914
-0.51434	0.32972
0.30171	0.02363
1.47479	0.15117
1.47479	0.22769
-0.10631	0.35523
-0.61635	-0.00188
-0.05531	0.38074
0.12320	-0.10391
0.73524	0.07465
-0.18282	0.27871
-0.13181	0.15117
0.68424	0.73785
0.76074	0.04914
-0.92237	0.07465
-0.38683	-0.05289
0.32721	0.48277
-0.66735	-0.15492
-2.29945	-0.00188
1.98482	-0.05289
0.86275	0.02363
0.40372	-0.35899
0.53123	0.22769
0.93925	0.20219
0.45472	-0.07840
-0.08081	0.50828
-1.20288	0.35523
0.96476	0.35523
-0.76936	0.38074
-0.33583	-0.02739
0.65874	0.07465
0.40372	-0.15492
0.55673	0.12566
0.32721	0.25320
0.40372	0.10015
-0.10631	0.12566
-0.05531	0.27871
-0.51434	0.04914
-0.00431	0.27871
0.27621	0.20219
-0.28482	-0.35899
0.65874	0.25320
0.42922	0.22769
-1.94243	0.40625
0.17421	0.22769
1.32178	0.10015
1.47479	0.07465
1.21977	0.25320
0.35272	0.27871
-1.04987	0.61031
-0.92237	0.30422
0.30171	0.22769
2.26534	-0.18043
-0.99887	-0.38449
-0.61635	0.25320
0.02119	0.27871
0.32721	0.02363
0.19971	-0.28246
0.40372	0.25320
-0.05531	0.10015
-0.53984	0.15117
-0.48884	0.45726
0.73524	0.55929
0.55673	0.30422
0.73524	0.35523
0.88825	0.12566
1.14327	0.10015
-0.00431	-0.07840
-3.21751	-0.30797
-0.23382	0.43176
1.16877	0.43176
0.78624	-0.56305
-0.08081	-0.10391
0.12320	0.04914
0.55673	0.12566
0.91375	0.76336
0.09770	0.12566
-1.86593	0.07465
0.22521	0.43176
0.63323	0.25320
0.60773	-0.05289
0.42922	0.15117
-0.05531	0.04914
0.42922	0.02363
-0.13181	-0.00188
0.09770	0.10015
0.32721	0.22769
-0.79486	-0.00188
-0.08081	-0.07840
0.73524	0.07465
0.70974	0.25320
-0.51434	0.17668
-0.66735	0.66132
0.40372	0.07465
1.44929	-0.07840
-0.02981	0.76336
-1.17738	-0.25695
0.81175	-0.23145
0.78624	-0.02739
-0.31033	0.17668
0.45472	0.30422
1.01576	0.27871
-0.00431	0.07465
-0.87136	0.30422
-1.66191	-0.15492
0.25071	0.02363
0.73524	0.53379
1.21977	0.15117
1.21977	0.22769
1.93382	0.02363
-1.50890	0.04914
-3.11551	0.25320
-0.08081	-0.00188
1.50029	0.38074
1.09226	-0.25695
1.01576	0.22769
0.32721	-0.10391
-0.08081	0.04914
-0.36133	0.25320
-0.31033	-0.05289
0.83725	0.02363
0.02119	0.55929
-1.20288	0.35523
0.55673	0.32972
-0.13181	-0.10391
0.04670	0.35523
0.27621	0.10015
1.57679	-0.25695
0.45472	-0.15492
-1.94243	0.30422
0.78624	0.43176
0.45472	0.66132
0.99026	-0.05289
0.58223	-0.33348
0.99026	-0.20594
-0.13181	0.35523
-1.78942	0.30422
-0.51434	-0.30797
1.09226	0.48277
-0.23382	0.17668
-0.43783	-0.05289
0.42922	0.43176
0.88825	0.45726
0.81175	0.32972
0.83725	0.27871
-1.02437	0.02363
-0.99887	-0.18043
0.99026	-0.30797
-0.25932	0.15117
0.45472	0.55929
0.91375	0.48277
0.19971	0.22769
0.30171	-0.00188
