-0.51434	0.35523
-0.59084	0.10015
-0.00431	-0.20594
-0.23382	0.02363
0.27621	0.15117
0.60773	0.38074
1.16877	0.68683
0.93925	0.15117
-1.27939	-0.05289
-0.46334	-0.35899
0.81175	0.20219
0.42922	-0.05289
1.14327	0.45726
0.42922	0.53379
1.14327	0.35523
0.42922	0.20219
-0.36133	0.07465
-0.89686	0.02363
-0.02981	0.30422
0.96476	0.07465
0.65874	-0.02739
-0.28482	0.17668
-1.94243	0.07465
-0.64185	0.20219
1.06676	-0.18043
0.96476	-0.02739
1.01576	-0.41000
-0.89686	-0.10391
-1.81492	0.25320
0.35272	0.15117
1.24527	1.06945
0.70974	0.50828
0.42922	0.38074
2.21434	-0.07840
0.55673	-0.46102
-0.61635	0.40625
-1.96793	0.32972
0.83725	-0.02739
0.17421	0.20219
-0.28482	0.04914
0.37822	0.20219
0.63323	-0.00188
0.88825	0.40625
0.76074	0.53379
-0.00431	-0.46102
-0.92237	-0.71609
-3.52353	-0.18043
0.12320	0.45726
0.55673	0.73785
1.19427	0.83988
1.39828	0.15117
1.29628	0.27871
1.75531	-0.41000
0.53123	0.10015
-1.02437	0.25320
0.22521	0.25320
0.37822	0.38074
-0.38683	0.43176
1.72980	0.32972
-0.33583	-0.20594
-2.57997	-0.18043
-0.05531	-0.28246
-0.46334	-0.30797
0.63323	-0.15492
0.73524	0.45726
0.37822	0.35523
0.07220	0.38074
0.55673	0.22769
0.02119	0.12566
-0.18282	-0.15492
-0.05531	0.04914
1.14327	0.40625
1.16877	0.68683
0.63323	0.45726
-0.20832	0.12566
0.32721	-0.02739
-0.02981	-0.10391
-0.31033	0.43176
1.16877	0.02363
0.25071	0.04914
-1.07538	0.20219
-0.82036	-0.02739
-3.98256	0.12566
1.62780	-0.20594
0.99026	-0.12942
0.78624	0.02363
1.27078	0.38074
0.81175	0.55929
0.63323	0.53379
0.73524	0.10015
0.04670	0.04914
0.02119	-0.46102
-0.99887	0.22769
0.88825	0.12566
-0.53984	0.50828
1.14327	0.45726
0.02119	0.02363
-2.93700	0.15117
0.78624	0.48277
1.57679	-0.10391
0.68424	0.17668
0.22521	0.15117
0.40372	-0.12942
0.17421	0.15117
0.58223	0.04914
-0.00431	0.27871
-0.36133	0.02363
0.22521	0.17668
0.30171	0.22769
-0.25932	0.40625
0.73524	0.04914
0.68424	0.43176
0.12320	-0.00188
-0.87136	0.17668
-2.12094	0.10015
-0.41233	-0.00188
0.12320	0.04914
1.32178	0.25320
1.65330	0.32972
0.93925	0.20219
2.44385	0.38074
1.14327	-0.12942
-2.27395	0.35523
-2.86049	0.30422
1.09226	-0.07840
1.93382	0.10015
0.93925	-0.00188
-0.38683	0.43176
0.19971	0.22769
1.55129	-0.10391
-0.08081	0.58480
-0.61635	0.15117
-0.59084	0.04914
-2.75848	-0.69059
-0.38683	0.38074
1.24527	0.53379
0.53123	0.30422
1.32178	0.17668
1.44929	-0.07840
0.12320	-0.25695
-0.02981	0.55929
0.12320	0.12566
0.63323	0.15117
-0.05531	-0.15492
-0.74385	0.25320
-1.04987	0.30422
0.17421	-0.15492
0.53123	0.07465
0.40372	0.35523
1.83181	0.32972
-0.10631	0.25320
-2.24845	0.35523
-0.41233	-0.10391
1.42379	-0.41000
1.67880	-0.18043
-0.51434	-0.07840
-0.69285	0.45726
0.40372	0.78886
1.24527	0.27871
0.07220	0.04914
0.22521	0.38074
-1.10088	0.07465
-0.69285	-0.25695
0.42922	0.25320
0.02119	0.12566
0.40372	-0.05289
1.50029	0.07465
1.85731	0.22769
-1.58541	0.15117
-1.40690	0.04914
1.09226	-0.02739
-0.46334	-0.07840
0.76074	0.81437
0.30171	0.32972
0.83725	0.17668
0.58223	-0.15492
-1.33039	-0.38449
-0.15732	0.50828
0.07220	0.10015
0.07220	0.12566
0.40372	0.38074
-1.68742	0.27871
0.86275	0.30422
2.72437	0.02363
0.07220	-0.15492
-2.86049	0.22769
-2.22295	0.12566
1.39828	0.20219
2.18883	0.15117
0.93925	-0.30797
2.21434	0.22769
0.32721	0.61031
-2.86049	0.35523
0.09770	0.22769
0.27621	0.07465
0.35272	-0.51203
0.02119	0.35523
0.50573	-0.28246
1.06676	0.53379
-0.74385	-0.00188
1.24527	0.35523
0.42922	0.83988
-2.29945	0.12566
-0.79486	-0.15492
0.81175	-0.89465
1.24527	-0.05289
0.78624	-0.25695
0.68424	0.30422
-1.15188	0.81437
-1.50890	0.61031
0.99026	0.27871
0.91375	0.15117
1.24527	0.20219
1.24527	-0.53754
0.60773	0.38074
-0.92237	-0.15492
-0.08081	0.15117
0.68424	0.27871
-0.71835	-0.05289
-1.48340	0.22769
-1.27939	-0.18043
-0.20832	0.66132
1.95932	0.53379
2.64786	-0.12942
1.09226	-0.02739
-2.68198	0.25320
-1.40690	-0.07840
-0.36133	-0.94566
0.53123	-0.38449
1.75531	0.50828
0.99026	0.86539
1.11776	0.55929
0.19971	0.45726
-1.30489	0.50828
-0.13181	0.22769
-0.53984	-0.30797
-0.41233	-0.30797
-0.28482	-0.20594
0.02119	0.76336
0.07220	-0.12942
1.83181	0.73785
1.04126	0.25320
0.70974	0.15117
-1.48340	-0.15492
0.37822	-0.38449
0.17421	-0.23145
-1.20288	0.38074
-0.18282	0.35523
1.14327	0.15117
0.09770	0.76336
-0.51434	-0.10391
0.73524	-0.38449
0.76074	0.25320
1.14327	0.40625
0.40372	0.50828
-2.52897	0.10015
-0.08081	0.25320
0.88825	-0.41000
-0.36133	0.04914
0.99026	0.40625
1.39828	-0.00188
0.42922	0.32972
-0.94787	0.58480
2.08683	-0.18043
-0.41233	-0.23145
-1.71292	0.55929
-0.13181	0.25320
-2.73298	0.10015
1.16877	0.15117
2.36734	-0.05289
-1.43240	-0.00188
1.88281	0.48277
1.14327	0.27871
0.83725	0.07465
1.34728	0.22769
0.93925	-0.63957
-1.61091	0.27871
-1.94243	0.35523
-0.23382	0.35523
-1.55991	0.17668
0.65874	0.27871
0.53123	-0.28246
2.39285	0.27871
1.09226	0.50828
-1.20288	0.20219
-0.61635	0.02363
0.58223	0.15117
0.19971	-0.41000
0.93925	-0.28246
1.11776	0.22769
-0.31033	0.20219
-1.43240	0.22769
-0.51434	0.10015
0.07220	0.25320
1.04126	0.40625
0.88825	0.20219
0.68424	-0.00188
-0.69285	-0.61406
-0.71835	0.53379
1.21977	0.45726
0.53123	0.35523
0.55673	0.27871
-0.46334	0.35523
1.14327	0.12566
0.86275	-0.02739
-0.71835	-0.00188
-2.17195	-0.38449
-0.69285	-0.46102
0.27621	0.27871
0.35272	-0.07840
0.04670	0.55929
0.25071	0.22769
0.99026	0.12566
1.14327	0.32972
0.63323	0.53379
-0.28482	0.30422
-1.81492	-0.30797
0.07220	0.12566
0.76074	0.20219
0.50573	0.04914
0.22521	-0.05289
0.96476	0.61031
1.44929	-0.35899
-1.15188	-0.07840
-0.97337	-0.12942
-2.52897	-0.20594
0.83725	0.99292
0.93925	-0.05289
0.07220	0.63582
0.04670	0.38074
1.09226	-0.05289
0.53123	0.04914
0.99026	0.45726
0.02119	0.15117
0.55673	0.15117
-0.92237	-0.33348
-0.48884	0.02363
0.70974	-0.02739
-1.43240	-0.20594
-0.76936	0.02363
0.25071	0.15117
0.68424	0.55929
1.09226	0.30422
1.72980	0.76336
1.34728	0.04914
-0.10631	0.15117
-1.02437	0.20219
-0.59084	-0.51203
0.19971	0.27871
0.96476	0.55929
-0.99887	0.76336
-2.32496	-0.25695
-0.43783	-0.15492
1.85731	0.07465
1.55129	0.40625
0.14870	-0.30797
0.32721	-0.20594
-0.08081	-0.10391
1.65330	0.17668
1.04126	0.45726
-0.99887	0.15117
-1.86593	0.50828
0.14870	0.32972
-0.23382	0.07465
0.60773	-0.12942
0.63323	0.20219
0.78624	0.40625
1.65330	-0.33348
-1.12638	-0.05289
-3.93156	0.68683
0.93925	0.22769
1.60230	0.17668
1.55129	0.35523
1.72980	0.04914
0.27621	-0.28246
-0.59084	0.04914
1.78081	0.07465
-1.27939	-0.02739
-3.03900	0.38074
-0.89686	-0.02739
1.32178	0.07465
1.47479	0.55929
1.09226	0.04914
-0.13181	-0.38449
-0.18282	0.66132
0.91375	0.17668
1.60230	0.38074
-1.30489	0.55929
-0.99887	-0.35899
-0.25932	0.43176
0.96476	-0.00188
0.53123	0.25320
0.78624	0.76336
-0.10631	0.10015
-2.17195	0.20219
-0.33583	0.10015
1.04126	-0.20594
-0.36133	0.22769
1.44929	-0.15492
0.70974	0.04914
-0.41233	0.17668
0.12320	0.35523
2.82638	0.35523
-0.02981	-0.05289
-2.42696	0.12566
-0.76936	0.38074
0.45472	-0.35899
0.14870	-0.33348
0.91375	0.27871
0.73524	0.35523
1.19427	0.71234
1.39828	0.40625
0.22521	0.32972
-1.78942	0.17668
-2.47797	-0.07840
0.42922	-0.10391
0.65874	0.25320
0.76074	-0.25695
0.40372	-0.30797
0.35272	0.27871
-1.73842	0.32972
-0.28482	0.38074
2.11233	-0.05289
0.70974	0.48277
-1.63641	0.04914
0.30171	-0.15492
1.44929	0.45726
0.58223	0.07465
0.70974	0.48277
0.37822	0.76336
1.55129	-0.07840
0.35272	0.50828
-3.31952	-0.25695
-1.40690	-0.10391
-0.61635	-0.15492
0.78624	-0.00188
1.16877	0.17668
1.24527	0.38074
0.42922	0.45726
0.35272	0.25320
0.86275	0.02363
-0.25932	-0.30797
-1.55991	-0.25695
0.04670	0.61031
0.30171	0.45726
0.78624	0.50828
0.60773	0.15117
-0.00431	0.04914
1.47479	0.17668
1.75531	-0.69059
-2.96250	0.15117
-4.97713	0.17668
2.67337	0.20219
2.44385	0.17668
0.53123	0.50828
-2.22295	-0.12942
0.73524	0.07465
0.99026	0.15117
0.12320	0.07465
1.57679	0.25320
0.12320	0.40625
2.62236	0.61031
-1.91693	-0.10391
-2.96250	0.04914
0.96476	0.02363
-0.46334	-0.18043
0.88825	-0.05289
1.62780	0.20219
-0.56534	0.32972
1.24527	0.02363
1.78081	-0.12942
-2.12094	0.73785
-2.63097	0.38074
1.70430	0.27871
0.81175	0.17668
-0.05531	-0.76711
0.86275	-0.15492
0.07220	0.43176
0.63323	0.15117
-0.82036	0.17668
-0.61635	0.71234
-1.33039	0.35523
-0.74385	-0.30797
1.47479	-0.46102
2.03582	0.30422
-0.15732	0.25320
-0.69285	0.32972
0.40372	0.35523
0.88825	0.40625
1.34728	0.22769
-0.48884	-0.15492
-0.61635	-0.33348
-0.56534	-0.07840
1.04126	0.15117
1.24527	0.17668
1.16877	0.40625
-1.66191	0.10015
-2.14644	0.12566
0.45472	-0.15492
0.40372	-0.18043
0.53123	0.55929
0.22521	0.99292
1.04126	0.66132
1.14327	-0.05289
0.45472	-0.69059
-0.59084	0.12566
0.32721	-0.07840
0.63323	-0.07840
-0.23382	0.38074
-0.02981	0.40625
0.14870	0.25320
-0.02981	0.38074
-1.35589	0.15117
1.09226	-0.63957
-0.43783	0.04914
-1.94243	-0.25695
0.53123	-0.15492
0.96476	0.02363
0.09770	0.35523
0.14870	0.81437
2.64786	-0.05289
0.99026	0.27871
-0.31033	0.50828
0.73524	-0.10391
0.37822	0.27871
-1.20288	-0.12942
-0.23382	0.17668
1.11776	0.25320
-2.04444	0.40625
-3.06450	-0.41000
1.88281	0.22769
-0.13181	-0.33348
0.73524	0.04914
0.88825	0.20219
-0.99887	0.32972
1.57679	0.25320
0.88825	0.04914
0.22521	0.96742
-0.48884	-0.74160
0.45472	-0.41000
-0.13181	0.30422
0.30171	0.91640
1.19427	0.61031
0.65874	0.27871
0.42922	0.17668
-0.33583	-0.28246
0.12320	0.04914
-1.12638	0.12566
-0.51434	-0.05289
0.65874	-0.05289
-0.05531	0.04914
-0.46334	0.43176
0.48022	0.94191
0.93925	-0.00188
-0.69285	-0.38449
1.04126	-0.07840
1.67880	0.20219
-3.06450	0.22769
-0.05531	0.07465
0.22521	-0.00188
1.27078	-0.05289
2.18883	0.55929
-0.53984	0.61031
-0.15732	-0.38449
0.53123	0.50828
0.27621	0.02363
0.07220	0.30422
-0.69285	-0.15492
0.70974	0.04914
0.40372	-0.51203
-0.48884	0.17668
-0.08081	0.43176
-0.23382	0.53379
-0.84586	0.76336
0.32721	-0.10391
0.02119	-0.30797
-0.48884	-0.25695
0.73524	0.27871
0.93925	0.12566
0.53123	0.58480
0.48022	0.20219
-0.36133	0.02363
-0.71835	0.50828
-0.08081	0.53379
0.45472	-0.12942
1.39828	-0.46102
-0.36133	-0.18043
0.02119	0.04914
0.50573	0.15117
1.21977	0.35523
0.91375	0.15117
-2.78398	0.15117
-0.66735	0.12566
1.29628	0.35523
1.83181	0.48277
-2.09544	-0.02739
-3.34502	-0.43551
1.21977	-0.10391
1.11776	0.58480
0.42922	0.48277
1.70430	0.30422
1.57679	0.27871
0.83725	0.25320
1.09226	0.07465
-1.17738	-0.05289
-1.73842	-0.20594
0.50573	-0.00188
0.70974	0.50828
-1.40690	-0.07840
-0.53984	-0.41000
-0.46334	0.48277
-0.08081	0.45726
1.37278	0.50828
0.88825	-0.18043
0.99026	0.35523
0.60773	0.15117
0.50573	-0.05289
-0.25932	0.45726
-0.61635	0.15117
0.48022	0.15117
-0.08081	-0.02739
-0.48884	0.07465
0.12320	0.32972
0.07220	-0.38449
-0.10631	0.15117
0.91375	0.25320
-0.00431	0.25320
0.12320	0.10015
0.45472	0.30422
3.28540	-0.07840
-1.71292	0.04914
-7.93532	-0.02739
1.50029	0.71234
1.65330	0.45726
1.52579	-0.18043
1.19427	-0.23145
1.83181	-0.25695
1.67880	0.04914
-1.96793	0.22769
0.35272	0.17668
2.36734	0.55929
-2.91149	0.40625
-3.06450	0.04914
1.14327	-0.28246
0.53123	0.38074
0.42922	0.35523
1.42379	0.07465
2.03582	0.12566
0.60773	0.04914
-0.28482	0.07465
0.60773	0.15117
-0.25932	0.30422
-0.74385	-0.30797
-0.02981	-0.02739
0.40372	0.43176
-0.99887	0.10015
-0.53984	0.38074
-0.56534	0.17668
1.60230	0.15117
0.30171	0.07465
-0.02981	0.12566
0.88825	0.53379
0.73524	0.45726
0.30171	0.50828
0.09770	-0.02739
3.18340	-0.35899
-0.31033	0.30422
-7.19577	0.12566
-0.66735	0.07465
1.57679	0.27871
0.76074	-0.05289
0.93925	-0.00188
2.46935	0.27871
3.33641	-0.05289
0.42922	0.22769
-2.63097	0.15117
-1.84042	0.43176
0.12320	0.53379
0.63323	0.27871
1.29628	0.25320
-0.00431	-0.10391
0.09770	-0.05289
-0.59084	0.12566
-0.38683	0.02363
0.40372	0.30422
0.96476	0.27871
-0.51434	-0.00188
0.30171	-0.00188
1.16877	-0.15492
-1.20288	0.12566
-2.37596	0.07465
0.30171	0.55929
1.78081	0.25320
1.21977	-0.20594
0.53123	0.17668
0.93925	0.12566
-0.02981	-0.35899
-0.64185	0.20219
-0.41233	0.15117
0.37822	0.40625
0.42922	0.25320
-1.30489	0.38074
0.32721	0.12566
0.78624	0.22769
1.32178	0.25320
1.01576	0.53379
-0.38683	-0.00188
-0.33583	0.20219
-1.02437	-0.35899
0.50573	-0.41000
0.68424	0.20219
0.09770	-0.10391
-0.74385	0.12566
-0.53984	0.15117
-0.02981	0.35523
0.02119	0.30422
0.32721	0.53379
0.88825	0.20219
0.53123	0.27871
-0.10631	0.15117
0.63323	0.17668
0.09770	-0.30797
2.29084	0.35523
0.12320	-0.02739
-4.21208	0.43176
-3.60004	0.30422
2.18883	-0.10391
1.52579	0.07465
1.16877	-0.00188
1.60230	0.32972
1.57679	0.32972
1.32178	0.04914
0.35272	0.15117
-1.02437	0.25320
-0.20832	0.53379
-0.28482	0.04914
0.27621	0.10015
-0.25932	0.15117
-1.30489	0.12566
-2.57997	0.12566
-0.41233	0.10015
1.04126	0.10015
1.11776	0.20219
1.60230	0.35523
0.68424	-0.00188
0.17421	0.30422
0.58223	-0.20594
-0.48884	0.40625
-0.79486	-0.61406
1.98482	1.19699
0.45472	-0.71609
-2.27395	0.61031
-0.79486	0.20219
1.04126	0.22769
0.81175	0.30422
1.70430	-0.28246
0.17421	0.04914
0.81175	-0.05289
-0.79486	0.15117
-0.13181	0.53379
1.14327	0.04914
-1.78942	0.20219
-1.50890	0.35523
0.91375	0.35523
1.29628	0.02363
0.70974	0.12566
0.86275	0.10015
-0.99887	0.15117
-0.48884	0.02363
0.91375	-0.07840
1.16877	0.10015
-0.08081	0.27871
0.19971	0.27871
0.14870	0.30422
0.45472	-0.28246
0.50573	-0.20594
0.07220	0.22769
-1.73842	0.30422
0.53123	0.89089
0.70974	-0.18043
0.14870	-0.33348
-2.32496	-0.02739
0.35272	0.38074
0.48022	0.17668
1.09226	0.38074
1.09226	0.17668
0.42922	-0.10391
0.40372	0.22769
0.48022	0.76336
0.65874	0.12566
0.65874	-0.05289
-0.84586	-0.23145
-1.38139	0.25320
-0.84586	0.27871
-1.20288	0.27871
1.75531	0.07465
0.48022	0.04914
-0.66735	-0.18043
-0.56534	0.02363
1.14327	0.12566
1.44929	0.45726
0.35272	0.35523
-0.97337	0.25320
0.93925	-0.25695
1.37278	0.25320
-0.43783	0.55929
-0.20832	0.20219
0.02119	0.17668
0.70974	0.07465
-0.18282	-0.02739
0.09770	-0.15492
0.07220	0.27871
-2.42696	-0.12942
-0.76936	0.20219
1.62780	0.35523
1.44929	-0.15492
0.60773	0.10015
0.22521	0.32972
0.35272	-0.10391
0.40372	-0.46102
0.22521	0.07465
0.12320	0.58480
-0.13181	0.30422
-0.08081	0.55929
0.02119	0.17668
0.04670	0.10015
0.22521	-0.15492
0.73524	0.07465
-0.08081	0.12566
-0.82036	0.38074
-0.31033	0.30422
1.37278	-0.05289
-0.36133	-0.15492
-0.56534	0.12566
-0.89686	0.17668
-1.04987	0.22769
2.01032	0.22769
0.22521	-0.10391
-0.25932	0.22769
1.44929	0.35523
1.72980	0.38074
0.45472	0.35523
-0.02981	-0.10391
-0.31033	0.20219
0.17421	0.17668
-0.56534	-0.23145
-0.59084	0.17668
-0.56534	-0.07840
-0.48884	0.02363
-1.35589	0.45726
1.62780	-0.15492
0.99026	0.15117
-0.33583	0.58480
0.48022	0.25320
1.01576	0.32972
1.72980	0.78886
-1.73842	0.12566
-1.15188	-0.35899
0.65874	-0.25695
0.96476	-0.25695
1.21977	-0.07840
0.09770	0.15117
0.25071	0.45726
-0.18282	-0.12942
0.22521	0.22769
0.40372	0.58480
-0.15732	0.45726
-1.45790	0.20219
-1.22839	-0.02739
0.78624	0.15117
0.50573	0.27871
0.12320	0.27871
0.02119	0.15117
0.73524	-0.05289
1.98482	-0.07840
0.55673	-0.05289
-1.50890	0.15117
0.19971	0.04914
0.09770	0.22769
0.96476	0.53379
0.50573	0.04914
0.22521	0.22769
-0.08081	-0.00188
0.19971	0.27871
-0.18282	0.61031
0.37822	0.40625
0.17421	-0.00188
-0.10631	-0.15492
-0.33583	0.12566
-0.38683	-0.94566
-0.25932	0.61031
0.50573	0.61031
-0.23382	-0.00188
0.53123	0.20219
1.72980	0.43176
-0.18282	-0.07840
-0.20832	0.30422
0.22521	0.53379
-0.33583	-0.07840
-1.30489	0.35523
0.91375	0.10015
0.60773	-0.05289
0.48022	0.15117
0.96476	0.20219
1.39828	-0.00188
1.24527	0.10015
-1.17738	0.25320
-1.30489	0.25320
-0.13181	0.10015
-1.84042	0.30422
-0.48884	0.20219
1.39828	0.10015
0.45472	-0.58856
-0.51434	0.12566
0.60773	0.12566
0.04670	0.58480
0.04670	0.20219
0.86275	0.04914
0.91375	0.32972
0.63323	0.61031
0.78624	-0.23145
-0.56534	0.45726
-1.63641	0.43176
-0.61635	-0.07840
0.76074	-0.35899
1.14327	-0.38449
1.11776	0.12566
0.12320	0.20219
-0.08081	0.15117
-0.08081	0.25320
0.17421	0.32972
0.32721	0.15117
-0.61635	-0.20594
-0.00431	0.20219
-0.18282	0.40625
0.12320	0.35523
-0.00431	0.55929
0.96476	-0.18043
0.37822	0.15117
0.68424	-0.00188
0.60773	0.32972
0.42922	0.10015
1.16877	0.68683
-0.69285	0.10015
-1.81492	-0.07840
-0.89686	-0.15492
0.58223	-0.05289
1.09226	-0.10391
0.70974	-0.12942
-0.10631	0.38074
0.81175	0.32972
0.09770	0.38074
-0.79486	0.15117
0.86275	-0.25695
0.78624	0.22769
-0.13181	0.17668
-0.46334	0.25320
-0.51434	0.22769
0.65874	0.76336
0.73524	0.86539
0.09770	0.07465
-0.28482	-0.18043
0.48022	-0.25695
0.19971	-0.33348
-0.10631	0.10015
-0.05531	0.04914
0.35272	-0.41000
0.53123	0.35523
0.53123	0.25320
0.12320	0.22769
-0.48884	0.48277
0.68424	0.27871
0.53123	0.15117
-0.41233	0.15117
0.32721	0.07465
0.35272	0.12566
0.04670	0.07465
0.02119	0.22769
0.48022	-0.23145
0.55673	0.61031
0.07220	0.12566
-1.10088	-0.05289
0.76074	0.07465
0.19971	0.25320
1.04126	0.07465
-0.89686	0.15117
-2.73298	0.07465
0.70974	0.22769
1.55129	-0.15492
0.50573	0.12566
0.42922	0.55929
1.14327	-0.02739
1.16877	0.10015
0.07220	0.10015
-0.28482	0.02363
0.35272	0.22769
-0.84586	0.10015
-0.59084	0.27871
0.50573	0.07465
0.09770	0.12566
0.30171	0.15117
0.60773	0.04914
0.35272	0.22769
-0.23382	0.25320
0.48022	0.04914
0.30171	-0.18043
-2.01894	0.30422
0.37822	-0.25695
1.95932	-0.05289
-1.48340	0.78886
-1.20288	0.22769
0.68424	0.02363
1.78081	0.66132
1.04126	0.17668
-0.10631	0.07465
0.93925	-0.30797
0.19971	-0.05289
-1.50890	0.17668
0.04670	0.07465
0.12320	-0.38449
0.81175	0.40625
0.58223	0.63582
0.63323	0.38074
0.96476	0.02363
-0.08081	0.32972
-1.66191	-0.00188
0.04670	0.04914
0.12320	0.35523
-1.30489	-0.23145
0.40372	0.17668
0.25071	-0.28246
0.48022	0.20219
1.06676	0.02363
-0.25932	0.35523
0.55673	0.30422
0.96476	0.20219
-0.10631	0.53379
-0.74385	0.32972
-0.28482	0.32972
1.42379	0.55929
1.47479	-0.23145
-0.31033	-0.48652
-0.76936	-0.00188
0.45472	0.27871
-0.13181	0.27871
0.55673	0.35523
-0.38683	0.22769
0.12320	-0.23145
-0.13181	0.43176
-0.25932	0.32972
-0.25932	0.20219
2.03582	-0.10391
0.76074	0.17668
-0.97337	0.25320
-0.59084	0.68683
0.88825	0.61031
1.11776	-0.05289
0.12320	-0.46102
-1.38139	-0.15492
0.07220	0.30422
0.81175	-0.02739
1.01576	0.30422
-0.48884	0.32972
0.04670	0.22769
0.32721	0.35523
1.67880	-0.10391
0.07220	-0.25695
-0.71835	0.12566
-1.86593	0.12566
0.14870	0.12566
0.76074	0.17668
1.34728	0.12566
-0.99887	0.53379
-0.48884	0.04914
0.81175	0.38074
0.86275	0.38074
0.63323	0.20219
0.19971	0.12566
-0.46334	-0.43551
-0.33583	0.15117
0.42922	0.35523
0.63323	-0.20594
0.22521	0.02363
-0.36133	-0.18043
0.45472	0.27871
-0.18282	0.17668
-0.02981	0.20219
-0.89686	0.17668
0.35272	0.07465
0.78624	0.30422
-0.41233	0.15117
0.17421	0.04914
0.83725	0.27871
0.27621	0.15117
0.96476	0.10015
0.48022	0.22769
-0.28482	0.12566
0.48022	-0.20594
0.53123	0.38074
-1.45790	0.45726
-0.23382	-0.12942
0.93925	0.20219
0.86275	0.27871
0.48022	0.55929
-0.92237	-0.00188
-0.08081	0.45726
1.11776	-0.23145
0.68424	0.20219
-0.87136	0.04914
-0.51434	0.25320
-0.18282	0.20219
0.60773	0.20219
1.19427	0.43176
-1.17738	0.35523
1.50029	-0.66508
0.48022	0.10015
0.02119	0.38074
0.09770	0.12566
0.22521	-0.07840
0.42922	0.89089
0.14870	0.61031
0.17421	0.32972
0.78624	0.02363
-0.33583	-0.20594
-1.76392	0.04914
-0.64185	0.10015
1.60230	-0.07840
0.48022	0.02363
-0.13181	-0.02739
0.04670	0.10015
0.68424	0.35523
0.27621	0.40625
0.07220	0.22769
0.88825	-0.05289
-0.41233	-0.00188
-2.32496	-0.10391
0.60773	0.20219
1.06676	-0.10391
0.42922	0.27871
-0.02981	0.71234
1.32178	0.38074
-0.41233	-0.12942
0.04670	0.22769
0.73524	0.32972
1.11776	0.10015
1.11776	-0.05289
-0.59084	-0.12942
-1.96793	-0.28246
-1.12638	-0.23145
-0.28482	-0.28246
0.53123	1.09496
0.76074	1.06945
1.65330	0.30422
0.88825	-0.28246
-1.50890	-0.18043
-1.30489	-0.05289
0.07220	0.04914
0.88825	-0.10391
0.83725	0.38074
0.86275	0.12566
0.68424	0.35523
0.42922	0.50828
0.70974	0.55929
-0.15732	-0.07840
-1.33039	-0.02739
0.02119	0.12566
0.27621	-0.25695
-0.94787	0.53379
0.68424	0.15117
0.07220	-0.10391
-0.46334	0.22769
0.60773	0.15117
0.76074	0.38074
0.73524	0.27871
1.04126	0.10015
0.02119	0.45726
-0.41233	-0.07840
-1.15188	0.30422
-0.79486	-0.35899
0.04670	-0.15492
-0.38683	0.30422
1.47479	0.55929
1.09226	0.07465
2.01032	-0.10391
1.32178	0.12566
-2.27395	0.22769
-3.39602	0.10015
0.91375	0.58480
1.32178	-0.10391
0.42922	-0.02739
1.34728	0.25320
-0.51434	0.20219
-0.05531	0.15117
0.83725	0.17668
0.35272	0.10015
-0.33583	0.04914
-0.20832	0.02363
-0.38683	0.20219
0.27621	0.30422
-0.25932	0.07465
-0.15732	0.38074
0.32721	-0.41000
0.42922	0.07465
0.53123	0.32972
0.27621	-0.02739
0.27621	0.68683
0.12320	-0.23145
0.63323	0.45726
-0.20832	-0.15492
-0.66735	-0.00188
0.04670	-0.00188
0.63323	0.07465
0.63323	-0.07840
0.04670	0.25320
0.48022	0.32972
0.30171	0.22769
0.65874	0.25320
1.47479	-0.10391
-2.32496	-0.18043
-3.26852	0.20219
0.30171	0.35523
2.03582	0.43176
1.67880	0.40625
0.09770	0.10015
-0.15732	-0.15492
0.65874	-0.00188
-0.05531	0.04914
0.35272	0.07465
1.09226	0.17668
-1.12638	0.45726
-0.92237	-0.05289
0.30171	0.27871
-0.08081	0.12566
-1.40690	-0.23145
1.32178	0.10015
0.63323	0.10015
-0.02981	0.25320
0.70974	0.66132
1.19427	0.17668
-0.79486	0.25320
-0.92237	0.02363
0.93925	0.30422
0.35272	-0.18043
-0.28482	0.22769
1.37278	0.25320
0.70974	0.22769
-0.69285	0.35523
-0.33583	-0.07840
-0.48884	0.12566
0.09770	0.04914
0.78624	-0.05289
-0.20832	0.07465
0.22521	0.27871
0.68424	0.27871
0.99026	0.17668
-0.31033	0.15117
-1.27939	-0.05289
0.22521	0.12566
0.42922	-0.07840
-0.23382	0.12566
0.70974	0.30422
0.60773	0.27871
0.48022	0.43176
-0.41233	0.63582
0.12320	-0.12942
-0.46334	-0.23145
0.14870	-0.10391
0.25071	0.20219
0.42922	0.20219
0.53123	0.45726
0.22521	0.66132
0.27621	-0.18043
-1.10088	-0.07840
-0.25932	-0.07840
1.14327	0.25320
1.01576	0.30422
-0.15732	0.12566
0.02119	0.10015
0.55673	0.22769
0.42922	0.12566
-0.92237	0.02363
-0.28482	0.27871
1.19427	0.32972
0.58223	0.22769
-0.64185	0.35523
-0.31033	-0.18043
-1.22839	0.12566
-0.28482	-0.10391
0.22521	0.12566
0.53123	-0.02739
1.01576	0.45726
1.19427	0.07465
1.04126	-0.18043
-0.00431	0.25320
-0.97337	0.38074
-0.13181	-0.07840
-0.23382	-0.02739
-0.08081	-0.12942
0.42922	-0.10391
-0.13181	0.04914
0.09770	0.25320
0.53123	0.63582
1.27078	0.32972
1.01576	0.04914
-0.76936	0.27871
0.32721	0.04914
-0.69285	0.02363
-0.56534	0.32972
0.17421	-0.02739
-0.13181	0.27871
0.19971	0.10015
0.81175	0.15117
0.96476	-0.05289
0.91375	0.48277
-1.10088	0.15117
-0.71835	0.20219
0.42922	0.20219
0.96476	-0.10391
0.91375	0.04914
-1.10088	0.02363
-0.61635	0.15117
0.55673	0.15117
0.65874	0.45726
-0.41233	0.45726
0.27621	-0.12942
1.06676	0.22769
1.88281	0.15117
0.12320	0.12566
-1.66191	0.10015
-1.78942	-0.07840
0.42922	0.38074
0.40372	0.12566
1.14327	-0.05289
1.32178	0.32972
-0.15732	0.07465
-0.87136	-0.10391
-0.10631	0.22769
-0.00431	-0.10391
-0.61635	0.30422
1.29628	-0.05289
-0.25932	0.76336
-0.05531	0.32972
0.27621	0.12566
1.32178	0.10015
1.34728	-0.02739
0.81175	0.20219
0.63323	0.10015
-0.41233	0.12566
-0.71835	0.15117
-1.10088	0.25320
-2.12094	0.22769
0.81175	0.15117
0.45472	0.20219
1.14327	0.20219
0.88825	0.12566
0.83725	-0.00188
-0.89686	-0.66508
-2.22295	-0.28246
0.58223	0.50828
0.68424	0.58480
0.78624	0.76336
1.88281	0.45726
0.07220	0.15117
-0.10631	-0.28246
0.37822	-0.18043
0.07220	0.04914
-0.59084	0.38074
0.19971	0.04914
0.14870	-0.35899
0.55673	0.71234
0.37822	0.53379
-0.18282	0.02363
-1.38139	-0.33348
-0.38683	0.30422
0.22521	0.25320
-0.46334	-0.10391
1.44929	0.15117
0.42922	0.07465
0.73524	0.45726
0.78624	0.15117
1.83181	0.35523
-0.59084	0.58480
-2.52897	0.10015
-0.51434	0.07465
2.72437	-0.46102
1.37278	-0.12942
-2.65648	0.20219
-1.86593	0.10015
0.99026	0.30422
0.78624	0.27871
1.24527	-0.02739
0.55673	0.04914
0.65874	0.50828
0.25071	0.25320
-0.61635	-0.18043
-0.10631	-0.20594
0.02119	0.02363
-0.92237	0.22769
-0.31033	0.20219
0.02119	0.30422
1.01576	0.35523
0.40372	0.22769
0.02119	-0.05289
0.99026	0.02363
0.65874	0.02363
-0.28482	0.35523
-1.81492	0.04914
-0.61635	0.38074
1.39828	-0.25695
1.16877	0.25320
-0.92237	0.45726
-0.41233	0.27871
1.62780	0.22769
0.07220	-0.15492
1.44929	0.10015
0.78624	-0.20594
0.27621	-0.00188
-2.68198	0.02363
-1.66191	0.25320
0.53123	0.50828
1.39828	0.15117
0.17421	0.30422
0.22521	0.10015
1.01576	0.02363
0.42922	-0.02739
-1.30489	0.43176
0.81175	0.53379
1.37278	-0.25695
-0.10631	0.12566
-0.61635	-0.05289
0.37822	0.43176
0.27621	0.35523
0.42922	0.30422
0.37822	0.43176
-0.43783	-0.02739
0.17421	0.25320
0.30171	-0.10391
0.09770	0.40625
0.68424	-0.15492
0.53123	0.10015
-1.50890	0.10015
-1.22839	0.40625
0.81175	0.10015
1.16877	0.27871
1.16877	0.15117
0.22521	0.17668
0.12320	0.22769
0.37822	-0.02739
0.73524	0.15117
-0.43783	-0.02739
-1.10088	0.30422
-0.41233	0.35523
0.09770	0.10015
0.99026	-0.30797
0.83725	-0.02739
-0.08081	0.45726
-0.53984	0.35523
0.58223	0.40625
0.81175	0.38074
0.48022	-0.07840
0.12320	-0.05289
0.42922	-0.00188
0.55673	0.20219
-0.38683	-0.33348
-0.84586	0.48277
-0.43783	0.61031
-0.10631	-0.02739
0.42922	-0.41000
0.04670	-0.10391
-0.46334	0.32972
0.17421	0.53379
1.14327	0.30422
0.91375	-0.20594
1.50029	0.66132
-1.27939	-0.10391
-0.51434	0.20219
0.81175	0.12566
-0.13181	0.17668
0.17421	0.38074
0.19971	0.27871
-0.08081	-0.10391
-0.00431	-0.23145
0.32721	0.02363
0.88825	0.07465
-0.20832	0.22769
-1.66191	0.25320
-0.00431	0.17668
0.42922	0.10015
0.68424	0.17668
0.86275	0.71234
-0.28482	0.10015
0.68424	0.12566
-0.18282	0.07465
0.45472	-0.10391
0.48022	-0.12942
-0.00431	0.17668
-1.07538	-0.00188
0.70974	0.20219
2.06133	0.43176
1.11776	0.22769
-3.88056	-0.28246
-1.68742	0.10015
0.76074	0.43176
1.29628	0.38074
1.75531	0.30422
0.73524	-0.02739
-0.18282	-0.33348
0.14870	0.02363
0.65874	0.17668
0.12320	0.15117
-0.97337	-0.07840
0.40372	0.55929
0.09770	0.15117
-0.13181	0.15117
0.04670	-0.25695
-0.08081	0.40625
-0.02981	0.27871
-0.13181	0.20219
0.04670	0.32972
0.42922	-0.02739
0.86275	0.17668
1.06676	-0.10391
2.26534	0.17668
-1.20288	0.12566
-5.30865	-0.41000
-0.25932	0.15117
0.78624	-0.05289
0.93925	0.20219
1.88281	0.15117
2.52035	0.22769
1.09226	0.45726
-0.00431	0.38074
0.45472	0.15117
0.50573	0.15117
-0.46334	0.30422
-1.17738	-0.23145
-2.70748	0.30422
-1.22839	0.10015
1.11776	0.32972
1.75531	0.12566
0.42922	-0.35899
-0.15732	-0.25695
1.04126	-0.28246
0.50573	1.01843
0.58223	0.68683
0.19971	0.17668
-0.28482	-0.00188
-0.31033	-0.53754
0.04670	0.17668
-0.28482	0.40625
0.12320	0.22769
0.22521	0.20219
-0.43783	0.04914
0.27621	0.48277
0.99026	0.04914
-0.48884	0.15117
0.42922	-0.02739
0.14870	-0.00188
0.78624	-0.15492
-0.71835	0.12566
0.42922	0.45726
0.37822	0.22769
-2.04444	0.22769
0.65874	0.25320
1.14327	0.10015
0.83725	-0.33348
0.30171	0.45726
0.30171	0.55929
0.81175	-0.05289
-0.38683	-0.10391
-1.10088	-0.33348
0.14870	-0.02739
0.68424	0.68683
0.60773	0.27871
-0.08081	0.66132
-0.82036	0.50828
-0.20832	-0.15492
-0.05531	-0.25695
0.58223	-0.25695
-0.46334	-0.00188
0.81175	0.32972
0.09770	0.25320
0.17421	0.48277
0.68424	0.20219
0.37822	-0.41000
0.37822	0.35523
0.14870	0.12566
0.04670	0.20219
0.65874	0.38074
0.12320	0.15117
-0.18282	0.10015
-0.41233	0.02363
0.25071	0.17668
0.27621	0.22769
-0.15732	0.10015
-0.05531	0.10015
0.09770	-0.00188
0.02119	0.04914
0.81175	0.04914
-0.48884	0.10015
-0.48884	0.40625
0.60773	0.50828
1.01576	-0.02739
1.01576	-0.00188
-0.94787	0.35523
0.02119	0.17668
0.12320	-0.33348
0.32721	0.55929
1.27078	0.45726
0.42922	-0.23145
-1.27939	0.38074
0.32721	-0.25695
1.09226	-0.10391
0.25071	0.30422
-0.69285	0.12566
-0.36133	0.15117
0.22521	0.30422
0.55673	0.20219
0.27621	0.15117
0.32721	0.10015
-0.02981	0.07465
-0.51434	0.10015
0.04670	0.17668
0.32721	-0.10391
1.01576	0.07465
-0.02981	0.35523
-1.15188	0.25320
0.12320	0.10015
-0.97337	-0.23145
-0.18282	-0.00188
2.23984	0.35523
1.24527	0.45726
0.02119	0.35523
-2.06994	0.61031
0.60773	-0.02739
1.39828	-0.38449
1.50029	0.20219
-1.17738	0.17668
-0.08081	0.07465
1.16877	0.12566
-0.53984	0.32972
-1.50890	0.68683
-0.28482	0.25320
-0.48884	0.15117
0.50573	-0.05289
1.78081	0.32972
0.60773	-0.10391
-0.20832	-0.12942
-0.41233	0.32972
0.14870	0.38074
0.65874	0.17668
0.45472	0.22769
0.22521	0.15117
0.02119	-0.25695
0.81175	0.40625
-0.28482	0.04914
-1.86593	-0.28246
-0.25932	0.20219
0.96476	0.48277
1.04126	0.15117
0.58223	0.04914
-0.10631	0.45726
0.32721	0.71234
0.14870	-0.18043
0.02119	-0.02739
0.65874	-0.00188
0.09770	0.12566
-0.64185	-0.02739
0.81175	-0.05289
0.22521	0.30422
-0.82036	0.20219
0.14870	0.15117
-0.08081	-0.10391
-0.23382	0.38074
1.67880	0.50828
1.34728	0.15117
-0.02981	-0.00188
-0.05531	0.15117
-0.23382	0.12566
0.63323	0.04914
-0.15732	0.02363
1.04126	0.35523
-0.99887	-0.00188
-1.30489	0.04914
1.34728	0.38074
0.53123	0.45726
-0.36133	0.07465
-0.48884	-0.15492
0.30171	-0.07840
0.30171	0.25320
1.11776	0.43176
-0.38683	-0.05289
-0.59084	0.53379
1.06676	0.25320
0.53123	0.15117
0.70974	-0.05289
-0.18282	0.45726
0.17421	-0.43551
0.27621	0.10015
0.09770	0.17668
-0.56534	0.02363
-0.10631	0.45726
0.30171	0.43176
-0.08081	0.40625
0.04670	-0.10391
0.19971	0.12566
-0.08081	-0.38449
0.07220	0.27871
0.22521	0.30422
0.48022	0.22769
0.32721	0.35523
0.04670	0.30422
0.02119	-0.07840
0.88825	-0.28246
0.93925	0.02363
-1.43240	0.32972
-1.27939	0.63582
0.73524	0.45726
0.30171	0.17668
1.04126	-0.23145
1.80631	0.07465
-1.20288	0.20219
-0.97337	0.07465
1.09226	0.07465
0.55673	-0.20594
0.53123	0.02363
0.09770	0.32972
-1.07538	0.66132
-0.05531	0.40625
0.88825	-0.07840
0.22521	0.10015
-0.00431	0.15117
0.45472	0.02363
0.09770	-0.00188
-1.30489	0.02363
0.30171	0.30422
0.32721	0.35523
0.37822	0.35523
0.93925	0.35523
0.93925	0.15117
-0.61635	-0.15492
-0.02981	-0.25695
0.45472	0.25320
-0.08081	-0.05289
0.60773	0.20219
0.19971	-0.07840
-0.74385	0.12566
0.53123	0.04914
-0.25932	0.02363
-0.20832	0.38074
0.17421	0.43176
-1.10088	0.20219
-0.20832	0.17668
1.16877	0.04914
1.01576	-0.12942
0.58223	0.40625
-0.08081	0.22769
-0.00431	0.38074
0.22521	-0.02739
0.30171	0.15117
0.78624	-0.00188
0.93925	0.15117
-0.64185	0.17668
-1.07538	0.02363
-1.27939	0.10015
0.09770	0.04914
0.81175	-0.05289
0.42922	0.20219
1.14327	-0.00188
0.12320	-0.33348
0.53123	0.73785
0.37822	0.10015
-2.09544	0.12566
-0.76936	0.38074
0.88825	0.22769
1.06676	0.25320
0.86275	0.35523
0.73524	0.25320
0.42922	0.04914
-0.00431	-0.10391
-0.38683	-0.10391
-0.13181	0.20219
0.27621	0.40625
-0.48884	-0.18043
0.50573	0.10015
-0.23382	-0.00188
-0.94787	0.25320
0.53123	0.30422
0.68424	0.17668
1.19427	0.35523
0.37822	0.07465
-2.14644	0.12566
1.37278	0.12566
0.48022	0.07465
-2.93700	0.35523
0.78624	0.12566
1.72980	-0.07840
0.93925	-0.02739
0.70974	0.22769
0.22521	-0.18043
0.22521	0.04914
0.68424	0.58480
-0.10631	0.38074
0.19971	0.38074
-0.82036	0.35523
-0.28482	-0.12942
-0.33583	-0.00188
-0.92237	0.04914
0.32721	0.02363
1.16877	0.32972
0.50573	0.27871
0.78624	-0.15492
0.30171	-0.15492
-0.89686	0.61031
0.12320	0.27871
0.76074	-0.35899
0.25071	0.25320
-0.28482	-0.30797
-0.64185	0.20219
0.37822	0.15117
0.68424	0.15117
0.27621	0.25320
-0.08081	0.35523
0.83725	0.25320
0.09770	0.25320
0.81175	0.30422
0.17421	-0.25695
-0.74385	0.15117
-1.40690	0.27871
0.50573	0.25320
0.17421	0.02363
0.45472	0.45726
1.57679	0.02363
0.86275	-0.25695
-0.61635	0.32972
-0.69285	0.07465
0.86275	-0.05289
-1.10088	0.12566
0.73524	0.25320
0.96476	0.25320
0.83725	0.25320
0.45472	0.20219
0.22521	0.27871
0.25071	0.17668
-0.18282	-0.15492
-0.64185	0.12566
0.02119	-0.10391
-0.33583	0.22769
-0.13181	0.20219
0.32721	0.30422
0.30171	0.15117
0.65874	0.15117
0.65874	0.12566
-0.33583	0.15117
-0.36133	-0.02739
0.25071	0.25320
0.09770	-0.02739
0.17421	-0.00188
0.83725	0.15117
0.02119	0.17668
0.42922	0.25320
1.75531	0.30422
-0.02981	0.38074
-2.93700	0.15117
-1.66191	-0.07840
1.11776	0.35523
2.13783	0.45726
1.01576	-0.02739
0.73524	-0.00188
0.19971	0.15117
-0.25932	0.02363
-0.59084	0.17668
0.19971	0.27871
0.02119	0.07465
-0.08081	0.15117
-0.08081	0.20219
-0.18282	0.32972
-0.13181	0.17668
0.60773	0.04914
0.73524	0.15117
0.09770	-0.05289
0.07220	0.15117
0.53123	0.30422
0.32721	0.10015
-0.20832	0.15117
-0.41233	0.27871
0.58223	-0.28246
0.40372	-0.05289
-0.76936	0.48277
0.58223	-0.25695
0.91375	0.10015
-0.51434	0.50828
-1.15188	-0.05289
1.06676	0.20219
1.24527	0.53379
-0.15732	0.55929
-0.87136	-0.18043
0.27621	-0.05289
0.32721	0.20219
0.65874	-0.05289
0.88825	-0.02739
-0.69285	0.35523
-0.53984	0.25320
0.50573	0.43176
0.83725	-0.00188
-0.71835	-0.15492
-0.33583	0.04914
-0.43783	0.10015
0.14870	0.15117
1.04126	0.17668
1.04126	0.17668
-0.20832	0.15117
-0.08081	0.27871
0.70974	-0.02739
-0.84586	0.43176
-1.20288	0.27871
-0.13181	-0.05289
0.99026	0.15117
0.76074	0.40625
0.73524	0.04914
0.86275	-0.10391
0.19971	0.20219
-0.61635	0.02363
1.11776	-0.05289
-0.79486	0.25320
-1.58541	0.27871
0.19971	0.53379
0.45472	0.61031
0.78624	0.22769
0.53123	-0.18043
0.04670	0.12566
0.30171	-0.12942
0.22521	0.02363
0.83725	-0.20594
0.25071	0.15117
-0.33583	0.58480
-1.07538	0.45726
0.63323	0.07465
-0.66735	0.04914
-1.20288	0.20219
1.21977	0.12566
0.37822	0.17668
0.73524	-0.05289
1.29628	0.10015
0.65874	0.35523
-0.59084	0.35523
0.99026	0.27871
0.48022	-0.02739
0.40372	-0.38449
-1.71292	-0.05289
-0.94787	0.35523
0.50573	0.30422
0.78624	0.30422
0.19971	-0.05289
1.01576	0.25320
0.48022	0.20219
-1.30489	0.15117
-0.13181	0.35523
0.60773	0.30422
0.60773	-0.25695
-1.15188	0.15117
1.39828	0.10015
-0.08081	-0.38449
-0.64185	0.07465
0.50573	0.15117
0.17421	0.55929
0.81175	0.32972
0.35272	0.10015
-0.61635	0.38074
-0.25932	0.12566
0.93925	-0.02739
0.91375	-0.05289
-1.81492	0.04914
0.04670	0.32972
0.45472	0.10015
0.68424	-0.10391
1.01576	0.32972
0.96476	0.27871
-0.64185	0.10015
-1.43240	0.17668
-0.43783	0.02363
0.37822	0.35523
0.35272	0.32972
-0.08081	-0.00188
0.73524	0.25320
0.53123	0.27871
-0.08081	-0.35899
0.37822	-0.23145
0.37822	0.48277
0.09770	-0.05289
0.40372	-0.35899
0.58223	0.17668
0.50573	0.86539
-2.70748	0.48277
-0.97337	0.55929
1.34728	-0.12942
1.60230	-0.15492
1.11776	-0.23145
0.30171	0.07465
0.48022	0.17668
-0.31033	0.20219
-0.05531	-0.25695
-0.13181	0.43176
-0.46334	0.43176
0.25071	0.35523
-0.79486	0.15117
0.58223	0.07465
0.48022	0.02363
0.37822	-0.35899
0.50573	0.10015
-0.00431	0.38074
-1.71292	0.40625
0.07220	0.07465
1.06676	0.22769
1.44929	0.07465
0.37822	0.02363
-0.36133	0.15117
0.27621	0.35523
-0.94787	-0.23145
0.37822	0.35523
0.50573	0.10015
0.63323	0.20219
0.60773	0.35523
-0.25932	0.20219
-0.31033	0.22769
0.32721	-0.00188
-0.28482	-0.46102
-0.23382	0.25320
0.19971	0.22769
-0.08081	0.04914
0.09770	0.35523
0.32721	0.40625
0.32721	-0.20594
-0.15732	0.25320
0.68424	0.30422
0.65874	0.07465
0.09770	-0.33348
-0.53984	-0.18043
0.48022	0.07465
0.55673	0.35523
-0.69285	0.32972
-0.05531	0.12566
0.81175	0.48277
0.91375	0.32972
-0.00431	0.15117
-0.64185	-0.00188
1.44929	-0.02739
-0.69285	-0.05289
-3.42153	0.07465
0.81175	0.10015
0.58223	-0.02739
0.93925	-0.23145
0.70974	0.61031
1.32178	0.50828
0.40372	0.25320
-0.08081	0.25320
-0.31033	-0.00188
-0.33583	0.04914
-0.53984	0.02363
0.37822	-0.12942
-0.13181	0.55929
0.32721	0.12566
0.30171	-0.10391
0.17421	-0.02739
0.25071	0.32972
-0.18282	0.10015
0.09770	0.17668
-0.13181	0.40625
0.30171	0.30422
0.40372	0.04914
0.45472	0.32972
0.32721	0.17668
-0.15732	-0.20594
0.58223	0.35523
-0.56534	-0.00188
-0.61635	0.30422
0.19971	-0.10391
1.04126	0.35523
-0.08081	0.27871
-0.38683	-0.02739
0.50573	0.07465
0.81175	0.48277
0.50573	0.04914
-1.02437	0.15117
-0.25932	0.04914
0.48022	0.04914
-0.05531	0.12566
0.99026	-0.07840
0.45472	-0.00188
0.30171	0.22769
0.14870	0.32972
-0.43783	0.17668
-0.56534	0.45726
-0.13181	0.10015
-0.08081	0.04914
0.78624	0.10015
0.68424	0.43176
0.30171	-0.20594
0.60773	0.27871
-0.23382	0.04914
0.09770	-0.10391
-0.87136	0.17668
-0.36133	0.32972
0.76074	0.22769
1.42379	0.12566
0.53123	-0.05289
0.93925	0.02363
-0.89686	0.17668
-1.33039	0.48277
0.19971	0.35523
0.30171	0.12566
-0.20832	-0.20594
0.07220	0.04914
1.11776	-0.07840
0.22521	0.27871
0.42922	0.17668
-0.20832	0.15117
0.12320	0.02363
0.22521	0.17668
-0.13181	0.12566
-0.08081	0.02363
0.04670	0.15117
-0.13181	0.45726
0.30171	0.71234
1.04126	0.20219
-0.43783	-0.00188
-0.82036	-0.20594
0.70974	-0.05289
0.32721	0.07465
0.27621	0.07465
0.50573	0.22769
-0.18282	-0.10391
0.63323	0.17668
0.58223	0.20219
0.07220	0.25320
-0.05531	0.35523
-0.23382	0.27871
-0.38683	0.12566
-0.05531	-0.28246
-0.48884	-0.18043
0.14870	0.35523
0.35272	0.30422
0.78624	0.61031
0.58223	0.27871
0.60773	0.22769
0.37822	0.15117
-0.25932	-0.15492
-0.36133	-0.28246
-0.28482	-0.02739
0.17421	0.12566
0.14870	0.27871
0.35272	0.17668
-0.08081	0.25320
0.35272	0.12566
0.30171	0.15117
0.09770	0.30422
0.65874	0.15117
0.40372	0.04914
-0.28482	0.10015
-0.89686	0.07465
-0.31033	0.22769
-0.43783	-0.07840
0.86275	0.04914
0.78624	0.12566
1.60230	0.10015
0.35272	0.35523
-1.55991	0.04914
0.30171	-0.02739
0.73524	0.27871
0.40372	0.12566
-0.33583	0.43176
0.55673	0.17668
0.50573	0.25320
0.60773	0.10015
-0.05531	0.17668
-0.92237	0.20219
-0.08081	0.40625
0.35272	-0.38449
-1.04987	-0.07840
0.14870	0.27871
1.11776	0.02363
0.76074	-0.25695
0.25071	0.22769
0.73524	0.10015
0.81175	0.53379
-0.53984	-0.23145
-0.82036	0.63582
0.48022	0.45726
0.30171	-0.05289
0.17421	-0.10391
-0.05531	0.40625
0.17421	0.17668
0.17421	0.25320
0.02119	0.07465
-0.08081	-0.23145
0.17421	0.25320
0.14870	0.20219
0.68424	-0.07840
0.60773	0.27871
-0.13181	0.22769
-0.36133	-0.15492
0.09770	0.27871
0.19971	0.61031
0.02119	0.30422
0.02119	-0.30797
0.02119	0.32972
0.45472	-0.02739
0.17421	0.17668
-0.15732	-0.05289
0.17421	0.25320
0.78624	0.22769
0.12320	0.38074
0.07220	-0.02739
0.04670	-0.05289
0.22521	0.12566
0.25071	0.35523
0.02119	0.04914
-0.66735	0.22769
0.02119	0.04914
1.16877	0.53379
0.58223	0.38074
-0.20832	0.07465
0.45472	0.15117
0.02119	-0.00188
-0.15732	-0.00188
-0.13181	0.25320
-1.35589	0.04914
-0.23382	0.25320
0.99026	-0.00188
0.76074	0.25320
0.58223	0.15117
-0.33583	0.25320
1.32178	0.25320
1.29628	0.10015
-0.87136	0.45726
0.48022	-0.02739
0.35272	-0.12942
-0.10631	-0.10391
-0.36133	0.04914
0.19971	0.22769
0.45472	0.38074
0.12320	0.27871
-0.08081	0.25320
0.32721	-0.25695
-1.17738	0.20219
-0.74385	0.30422
0.42922	0.15117
0.40372	0.15117
0.45472	0.04914
0.37822	0.25320
0.27621	0.15117
0.60773	0.48277
0.48022	0.27871
1.04126	0.20219
0.50573	0.07465
-0.08081	-0.12942
-0.20832	-0.10391
-1.66191	-0.10391
-1.15188	-0.02739
0.78624	0.25320
0.93925	0.40625
0.78624	0.15117
0.81175	-0.12942
0.25071	0.20219
-0.69285	0.45726
0.40372	0.45726
0.32721	-0.00188
-0.89686	0.02363
0.48022	0.25320
0.14870	0.07465
0.09770	0.20219
0.50573	0.12566
0.19971	0.43176
0.53123	-0.02739
0.17421	0.35523
-0.25932	0.04914
-0.89686	-0.00188
-0.25932	-0.02739
0.48022	0.12566
0.19971	0.30422
0.35272	0.22769
1.14327	0.12566
-0.23382	0.20219
-0.71835	-0.00188
0.27621	0.55929
0.81175	-0.25695
0.70974	0.07465
0.09770	0.07465
-0.08081	0.15117
0.60773	0.43176
0.45472	0.12566
-0.76936	-0.05289
-0.51434	0.07465
0.25071	0.15117
0.17421	0.12566
0.50573	0.25320
-0.05531	0.15117
-0.59084	0.27871
0.65874	0.35523
0.40372	0.15117
0.30171	-0.18043
0.53123	0.30422
0.17421	0.07465
0.53123	0.20219
0.45472	0.35523
-1.27939	0.20219
-1.78942	-0.12942
-0.53984	0.10015
0.48022	-0.05289
1.11776	0.17668
0.83725	0.22769
1.14327	0.32972
0.91375	0.17668
-0.02981	0.17668
0.32721	0.43176
-0.08081	0.22769
0.60773	0.30422
-0.38683	0.02363
-0.15732	0.15117
-0.13181	-0.12942
-0.00431	0.10015
0.12320	0.12566
-0.33583	0.12566
-0.33583	-0.15492
-0.02981	0.38074
0.58223	-0.12942
0.99026	0.22769
-0.46334	0.35523
-1.40690	-0.18043
0.32721	-0.07840
1.06676	0.35523
0.73524	0.48277
0.73524	0.25320
-0.38683	-0.00188
0.55673	0.04914
0.22521	0.10015
0.12320	-0.05289
0.81175	0.40625
0.14870	0.15117
-0.97337	0.12566
-0.71835	0.02363
0.17421	0.30422
0.60773	-0.05289
0.96476	0.12566
-0.48884	0.35523
-0.82036	0.04914
0.45472	0.27871
0.70974	0.07465
0.12320	0.02363
-0.00431	0.07465
0.04670	0.20219
-0.00431	-0.00188
0.02119	0.25320
0.48022	0.20219
0.93925	0.43176
0.88825	0.55929
-0.05531	0.25320
0.27621	-0.10391
-0.64185	-0.20594
-1.35589	-0.00188
-0.00431	-0.15492
0.42922	0.04914
0.30171	0.02363
0.63323	0.35523
0.27621	0.10015
0.37822	0.15117
0.83725	0.22769
0.76074	0.04914
0.25071	0.43176
-1.33039	-0.07840
-1.30489	0.07465
0.32721	0.40625
1.39828	-0.05289
1.09226	0.30422
-0.61635	-0.10391
0.14870	0.27871
0.48022	0.30422
-0.41233	-0.25695
-1.38139	-0.23145
0.58223	0.25320
-0.36133	0.20219
-0.53984	0.45726
1.55129	0.71234
2.11233	0.04914
2.59686	-0.10391
-0.41233	-0.02739
-1.68742	0.20219
-0.33583	0.02363
-0.28482	0.07465
0.14870	0.04914
-0.00431	-0.25695
0.14870	-0.00188
0.17421	0.63582
0.02119	0.50828
0.86275	0.38074
0.58223	-0.10391
-0.46334	-0.00188
-0.56534	0.48277
-0.31033	0.35523
-0.10631	-0.15492
0.58223	0.04914
0.55673	0.04914
0.48022	0.32972
0.78624	0.12566
0.81175	0.04914
0.42922	0.07465
-1.48340	-0.15492
-1.27939	-0.00188
0.50573	0.45726
0.58223	0.35523
0.12320	0.07465
1.19427	0.48277
-0.43783	-0.00188
0.86275	0.22769
0.12320	0.12566
0.50573	0.04914
0.12320	-0.05289
-0.43783	0.07465
-1.02437	0.45726
0.40372	0.35523
0.19971	0.25320
1.42379	0.07465
-0.31033	0.15117
-0.71835	0.02363
1.37278	-0.12942
-0.20832	-0.00188
-0.13181	0.38074
-0.10631	-0.02739
-0.10631	-0.05289
-0.28482	-0.02739
0.63323	0.55929
0.19971	0.45726
-0.41233	0.12566
0.12320	0.55929
0.09770	-0.20594
0.73524	-0.02739
0.50573	-0.00188
0.19971	-0.10391
0.09770	-0.00188
0.22521	0.20219
0.27621	0.27871
0.07220	0.25320
-0.28482	0.20219
1.01576	0.04914
0.02119	0.30422
-1.10088	-0.05289
-0.33583	0.20219
0.22521	0.32972
0.42922	0.17668
0.78624	-0.00188
1.01576	0.20219
0.81175	0.20219
-1.38139	0.12566
-1.78942	0.22769
0.76074	0.04914
0.91375	0.07465
0.53123	0.12566
0.32721	0.25320
0.35272	-0.05289
0.83725	-0.02739
-0.13181	0.30422
-1.45790	0.15117
1.11776	0.22769
0.37822	0.22769
0.07220	0.27871
0.25071	0.12566
0.30171	0.15117
-0.08081	-0.05289
-0.33583	-0.38449
0.30171	0.35523
-0.31033	0.10015
-0.64185	0.35523
0.55673	0.12566
1.01576	0.43176
-0.20832	0.10015
0.37822	-0.10391
0.25071	-0.33348
0.22521	0.32972
0.48022	0.55929
-0.20832	0.35523
-0.41233	0.22769
0.53123	0.15117
0.45472	0.30422
0.65874	-0.12942
1.52579	-0.05289
-0.31033	-0.12942
-1.04987	0.12566
-0.18282	0.02363
-1.27939	0.30422
-1.58541	0.27871
1.11776	0.17668
1.67880	0.35523
1.72980	0.35523
1.04126	-0.10391
-1.53441	-0.23145
-0.18282	0.43176
0.50573	0.25320
0.37822	0.20219
0.40372	0.27871
-0.36133	-0.07840
-0.28482	-0.05289
0.50573	-0.05289
-1.15188	-0.18043
-0.02981	0.32972
2.01032	0.20219
1.29628	0.35523
-2.04444	0.32972
0.14870	-0.15492
0.50573	0.27871
0.27621	0.22769
0.83725	0.32972
0.73524	0.07465
-0.89686	-0.05289
-0.00431	0.10015
-0.20832	0.27871
-0.23382	0.17668
0.63323	0.20219
0.35272	0.58480
0.02119	0.15117
0.19971	0.02363
0.65874	-0.05289
0.17421	-0.07840
-0.76936	-0.02739
-0.25932	0.07465
0.02119	0.17668
0.32721	0.10015
0.30171	0.10015
0.63323	0.27871
-0.02981	0.45726
-0.53984	0.12566
0.93925	0.02363
1.04126	0.04914
-0.84586	0.04914
0.04670	0.15117
0.65874	0.17668
0.68424	0.55929
-0.05531	0.22769
-0.18282	0.20219
-0.33583	-0.02739
0.17421	0.10015
0.02119	-0.23145
-0.48884	-0.15492
-0.71835	0.43176
-0.36133	0.27871
1.24527	0.66132
1.04126	0.02363
0.70974	0.15117
-0.48884	-0.07840
-0.00431	-0.07840
0.42922	0.30422
-0.33583	0.30422
0.55673	0.25320
0.32721	0.04914
0.07220	0.02363
0.27621	0.17668
-0.48884	-0.05289
-0.13181	0.10015
0.68424	0.38074
0.14870	0.25320
-0.69285	0.30422
0.63323	0.20219
0.53123	-0.10391
0.93925	0.20219
-0.10631	-0.05289
-0.92237	0.02363
-0.43783	-0.15492
0.09770	0.15117
0.14870	0.35523
-0.48884	0.40625
1.78081	0.20219
0.53123	0.17668
-1.63641	0.12566
0.76074	0.15117
0.27621	0.40625
0.42922	-0.02739
-0.76936	0.02363
-0.15732	-0.23145
0.17421	-0.18043
-0.18282	0.32972
-0.31033	-0.05289
0.93925	0.25320
0.30171	0.35523
0.37822	0.32972
1.90832	0.12566
0.63323	0.43176
-0.10631	0.48277
-0.59084	-0.48652
-0.33583	0.40625
-0.48884	0.15117
-0.53984	-0.25695
-0.15732	0.25320
0.25071	0.12566
-0.00431	0.53379
0.53123	0.43176
0.76074	0.02363
0.53123	0.02363
0.07220	-0.07840
-0.28482	-0.00188
-0.36133	-0.07840
1.06676	0.15117
-0.38683	0.10015
-0.99887	0.35523
1.34728	0.15117
1.04126	0.32972
-0.23382	0.35523
-0.66735	0.35523
0.02119	0.20219
0.35272	0.10015
0.78624	0.12566
-0.79486	-0.30797
0.09770	0.04914
0.68424	0.04914
0.88825	0.35523
-0.59084	0.25320
-1.07538	-0.15492
0.35272	0.63582
0.76074	0.32972
0.27621	-0.07840
-0.02981	0.25320
0.81175	0.22769
0.50573	-0.15492
-0.92237	-0.12942
-1.20288	0.10015
0.58223	0.10015
0.65874	0.38074
1.27078	0.20219
0.63323	0.20219
-1.91693	-0.33348
-1.30489	-0.41000
0.83725	0.35523
0.60773	0.55929
1.21977	0.86539
0.17421	0.63582
0.76074	0.12566
0.60773	0.27871
0.09770	-0.18043
-0.25932	-0.23145
0.27621	-0.28246
0.12320	0.68683
-1.04987	0.07465
-0.46334	-0.02739
0.19971	0.10015
0.68424	0.12566
0.35272	0.25320
0.76074	0.43176
-0.20832	0.12566
-1.12638	-0.07840
-0.23382	-0.00188
0.32721	-0.35899
0.37822	0.30422
1.09226	0.40625
0.68424	0.17668
-0.08081	0.22769
-0.84586	-0.00188
0.76074	0.12566
1.01576	0.30422
-0.48884	0.20219
0.12320	0.02363
0.17421	0.04914
-0.56534	0.15117
1.11776	0.10015
1.29628	0.25320
-0.13181	0.04914
0.02119	-0.00188
0.37822	0.50828
-0.33583	-0.00188
-0.28482	-0.51203
-0.23382	-0.02739
-0.84586	0.38074
-0.13181	0.45726
-0.02981	0.25320
0.70974	0.35523
1.11776	0.32972
0.53123	-0.12942
0.12320	-0.00188
0.17421	0.32972
0.14870	0.20219
-0.53984	0.04914
-0.10631	-0.05289
0.55673	0.30422
0.81175	0.15117
-0.41233	0.12566
-0.18282	-0.07840
0.30171	-0.28246
0.30171	0.58480
0.04670	0.45726
-0.20832	0.30422
0.25071	-0.12942
0.35272	0.10015
-0.25932	0.17668
0.17421	-0.10391
0.53123	0.12566
0.73524	-0.18043
-0.10631	0.35523
0.42922	0.30422
0.02119	0.04914
-2.01894	-0.02739
-0.10631	-0.07840
0.14870	0.15117
0.99026	0.22769
0.63323	0.17668
0.83725	0.30422
0.02119	0.25320
0.27621	0.38074
-0.18282	0.45726
0.09770	-0.10391
0.42922	-0.15492
0.53123	0.04914
-0.05531	-0.18043
-0.76936	0.04914
0.53123	0.04914
0.45472	0.20219
-0.87136	0.55929
0.17421	0.12566
0.42922	0.17668
0.48022	-0.00188
0.63323	0.04914
-0.41233	-0.00188
-0.46334	0.17668
0.53123	0.12566
-0.13181	-0.02739
0.60773	0.27871
0.50573	0.35523
0.27621	0.30422
0.42922	0.30422
-0.02981	0.20219
-0.15732	0.07465
-0.05531	0.15117
0.45472	0.02363
-0.08081	-0.10391
0.86275	0.07465
0.14870	0.10015
-0.36133	0.50828
0.32721	-0.02739
-0.69285	0.25320
-1.10088	-0.02739
-0.41233	-0.05289
0.99026	0.07465
0.55673	0.30422
1.16877	0.32972
1.80631	0.35523
-0.02981	0.10015
-0.48884	0.30422
-0.05531	0.15117
-0.18282	0.10015
-0.28482	-0.18043
0.50573	0.10015
-0.02981	-0.00188
0.96476	0.10015
0.73524	0.25320
0.88825	0.50828
-1.27939	0.17668
-1.25389	0.27871
-0.33583	-0.12942
0.32721	0.22769
0.88825	-0.07840
1.19427	0.30422
0.37822	0.43176
-0.69285	0.15117
-0.92237	0.15117
0.70974	0.15117
0.53123	-0.30797
0.17421	-0.15492
-0.08081	-0.53754
0.60773	0.35523
-0.02981	0.43176
0.22521	0.73785
0.22521	0.20219
0.07220	0.20219
0.73524	-0.25695
0.14870	0.30422
-0.10631	0.38074
-0.18282	0.25320
0.07220	-0.10391
0.78624	-0.02739
-0.41233	0.10015
-1.50890	-0.05289
-0.76936	0.25320
1.44929	0.12566
1.09226	-0.20594
-0.15732	0.25320
0.96476	0.45726
-0.43783	-0.05289
-0.61635	0.15117
0.12320	0.35523
2.13783	0.07465
1.01576	0.12566
-0.41233	0.25320
-0.13181	0.32972
0.96476	-0.05289
0.58223	0.10015
-1.15188	0.12566
-1.43240	-0.07840
-0.31033	0.45726
-0.74385	0.48277
1.09226	-0.10391
1.19427	0.02363
0.17421	0.02363
-0.38683	-0.18043
0.93925	0.25320
0.83725	0.50828
0.45472	0.38074
0.35272	0.38074
1.24527	0.22769
-0.41233	0.02363
-0.92237	-0.20594
-0.18282	-0.15492
0.53123	-0.02739
-0.25932	0.30422
-0.84586	0.27871
0.96476	0.10015
-0.20832	0.35523
-0.00431	0.15117
1.29628	-0.10391
-0.82036	0.15117
0.19971	0.48277
0.93925	0.17668
0.68424	0.38074
0.40372	0.35523
-0.10631	0.02363
-1.61091	-0.15492
0.60773	-0.12942
0.07220	-0.07840
0.17421	0.07465
0.22521	-0.20594
1.06676	0.10015
-0.69285	0.45726
-0.20832	0.61031
-1.71292	0.43176
0.19971	0.27871
1.72980	0.22769
1.52579	-0.15492
-0.02981	0.22769
-0.43783	-0.48652
0.30171	-0.30797
0.45472	0.15117
-0.74385	0.25320
-0.84586	0.40625
0.30171	0.25320
0.42922	0.07465
0.02119	0.12566
0.04670	0.17668
1.21977	0.22769
2.16333	0.45726
-0.59084	0.07465
-1.99343	-0.05289
0.68424	0.04914
-1.02437	0.27871
-0.79486	0.20219
0.83725	-0.10391
1.32178	-0.63957
1.88281	0.15117
0.12320	0.50828
-1.15188	0.48277
-0.13181	0.10015
0.81175	0.68683
-0.15732	0.15117
0.25071	0.17668
0.93925	-0.18043
0.50573	-0.41000
-1.48340	0.10015
-0.89686	0.50828
0.73524	0.25320
1.01576	0.04914
0.76074	0.53379
-0.36133	0.86539
0.12320	-0.43551
0.37822	0.02363
-0.33583	0.07465
-0.89686	-0.18043
1.24527	0.25320
0.09770	-0.25695
0.32721	0.73785
0.37822	0.45726
0.93925	0.53379
0.81175	0.48277
-0.99887	-0.23145
-0.13181	-0.41000
-0.08081	-0.63957
-0.94787	-0.12942
-0.23382	0.25320
0.99026	0.27871
1.72980	0.61031
-1.38139	-0.05289
-0.69285	0.15117
1.14327	0.50828
1.39828	0.58480
-0.08081	0.45726
0.83725	0.43176
0.55673	0.22769
-1.63641	-0.46102
-0.33583	-0.07840
0.93925	-0.00188
0.12320	-0.38449
0.60773	0.04914
0.50573	-0.05289
0.37822	0.43176
-0.02981	0.48277
-0.25932	0.53379
0.45472	0.35523
-0.38683	-0.25695
0.07220	0.10015
-0.13181	0.12566
0.99026	0.66132
-0.33583	0.48277
-0.41233	0.15117
1.06676	-0.00188
-1.04987	-0.41000
-0.38683	-0.30797
1.47479	-0.00188
-0.08081	0.20219
0.04670	0.27871
0.58223	0.17668
1.57679	-0.00188
1.70430	0.40625
-0.38683	0.38074
-0.61635	0.38074
-0.59084	0.20219
-0.13181	-0.28246
0.63323	-0.25695
0.09770	0.27871
-0.02981	-0.15492
0.19971	0.32972
-0.25932	0.89089
-0.82036	0.35523
0.19971	-0.02739
0.04670	-0.28246
0.42922	-0.10391
0.86275	-0.15492
0.63323	-0.18043
-1.99343	-0.12942
-1.04987	0.17668
0.63323	0.91640
1.06676	0.38074
1.29628	0.20219
1.65330	0.40625
0.55673	0.07465
-0.05531	0.12566
-0.08081	-0.02739
0.17421	0.20219
-0.15732	-0.30797
0.12320	0.12566
-0.00431	0.07465
0.14870	0.35523
0.37822	0.30422
-1.10088	0.35523
0.35272	0.45726
-0.02981	0.17668
-1.25389	0.04914
-0.28482	-0.10391
1.09226	0.15117
0.22521	-0.10391
-0.05531	0.07465
1.14327	-0.46102
0.86275	0.27871
0.65874	0.38074
0.37822	0.53379
-0.41233	-0.25695
-1.10088	0.10015
0.42922	-0.00188
-0.25932	0.22769
-0.79486	0.43176
0.70974	0.45726
0.63323	0.45726
0.91375	-0.12942
1.44929	-0.25695
-0.61635	-0.58856
-1.38139	0.32972
0.35272	0.63582
0.63323	0.07465
0.12320	0.45726
0.12320	0.17668
0.32721	0.30422
-0.61635	0.04914
0.22521	0.12566
-0.00431	0.10015
-0.15732	-0.02739
0.53123	-0.15492
-0.56534	-0.20594
-0.23382	-0.15492
0.17421	-0.10391
2.41835	0.15117
0.32721	0.32972
-2.19745	0.76336
0.25071	0.38074
1.85731	0.10015
1.60230	0.25320
0.14870	0.35523
-1.50890	0.07465
-0.46334	0.17668
-0.05531	0.35523
1.32178	-0.07840
0.58223	-0.07840
0.02119	0.10015
0.09770	-0.05289
0.50573	0.30422
0.02119	0.04914
-1.12638	-0.02739
-0.33583	0.17668
0.35272	0.04914
