0.25071	0.27871
0.30171	0.20219
0.12320	0.15117
-0.05531	0.22769
0.09770	0.20219
0.14870	0.10015
0.02119	0.04914
0.07220	0.15117
0.19971	0.15117
0.25071	0.15117
0.19971	0.17668
0.14870	0.22769
0.22521	0.20219
0.32721	0.07465
0.14870	0.02363
0.09770	0.20219
0.02119	0.07465
-0.02981	0.04914
0.04670	0.20219
0.22521	0.27871
0.25071	0.12566
0.40372	0.22769
0.45472	0.02363
0.19971	0.02363
-0.00431	0.17668
-0.08081	0.15117
-0.15732	0.15117
0.02119	0.17668
0.25071	0.07465
0.12320	0.25320
0.25071	0.17668
0.25071	0.07465
0.17421	0.10015
0.25071	0.15117
0.48022	0.22769
0.22521	0.02363
-0.08081	0.10015
-0.05531	0.27871
0.12320	0.12566
0.07220	0.10015
0.14870	0.22769
0.35272	0.22769
0.30171	0.04914
0.22521	0.15117
0.04670	0.20219
-0.02981	0.04914
-0.10631	0.04914
0.04670	0.12566
0.19971	0.15117
0.19971	0.04914
0.12320	0.20219
0.22521	0.45726
0.30171	0.04914
0.17421	0.25320
0.22521	-0.00188
0.12320	0.04914
0.04670	0.12566
0.14870	-0.00188
0.12320	0.15117
0.02119	0.10015
0.14870	0.04914
0.12320	0.35523
0.30171	0.10015
0.12320	0.15117
0.19971	0.15117
0.12320	0.07465
-0.05531	0.15117
0.25071	0.12566
0.27621	0.22769
0.32721	0.25320
0.25071	0.15117
0.14870	0.15117
0.27621	0.02363
0.04670	0.02363
-0.00431	-0.02739
-0.08081	-0.00188
-0.20832	0.25320
0.04670	0.15117
0.04670	0.12566
0.19971	0.30422
0.42922	0.30422
0.37822	0.35523
0.42922	0.12566
0.22521	0.10015
0.07220	0.22769
0.14870	-0.05289
-0.10631	-0.02739
-0.08081	0.04914
0.14870	0.07465
-0.02981	0.32972
0.17421	0.25320
0.42922	0.17668
0.35272	0.12566
0.17421	0.27871
0.22521	0.02363
0.04670	-0.02739
-0.10631	0.15117
0.02119	0.22769
0.07220	0.22769
0.14870	0.15117
0.27621	0.10015
0.27621	0.15117
0.17421	0.15117
0.19971	0.15117
0.22521	0.02363
-0.05531	0.17668
-0.00431	0.15117
0.12320	0.07465
0.12320	0.22769
0.09770	0.15117
0.30171	0.22769
0.37822	0.20219
0.32721	0.02363
0.14870	0.15117
0.09770	0.04914
0.09770	0.10015
-0.08081	0.15117
-0.13181	-0.00188
-0.08081	0.04914
0.27621	0.32972
0.40372	0.22769
0.30171	0.04914
0.17421	-0.05289
0.09770	0.02363
-0.00431	0.12566
0.02119	0.25320
0.02119	0.04914
-0.00431	0.20219
0.19971	0.27871
0.22521	0.07465
0.12320	0.17668
0.22521	0.22769
0.35272	0.17668
0.14870	0.02363
0.07220	0.20219
-0.00431	0.15117
-0.02981	0.02363
0.09770	0.32972
0.27621	0.15117
0.12320	0.20219
0.09770	0.17668
0.27621	0.15117
0.32721	0.07465
0.12320	0.22769
0.04670	0.17668
0.02119	0.04914
-0.10631	0.10015
0.09770	0.12566
0.32721	0.17668
0.30171	0.25320
0.22521	0.25320
0.27621	0.15117
0.27621	0.10015
-0.08081	0.10015
0.02119	0.12566
0.07220	0.10015
0.04670	0.22769
0.30171	0.17668
0.27621	0.10015
0.17421	0.12566
0.07220	0.15117
0.27621	0.10015
0.02119	0.25320
-0.31033	0.22769
0.19971	0.10015
0.17421	0.17668
0.22521	0.10015
0.27621	0.12566
0.32721	0.22769
0.40372	0.30422
0.02119	0.22769
-0.13181	0.07465
0.19971	0.02363
0.32721	0.02363
0.12320	-0.07840
-0.10631	-0.00188
-0.23382	0.10015
0.02119	0.17668
0.12320	0.27871
-0.08081	0.27871
0.48022	0.35523
0.63323	0.20219
0.27621	0.07465
-0.18282	0.17668
0.19971	0.17668
-0.02981	0.07465
-0.53984	0.12566
0.02119	0.02363
0.53123	0.07465
0.45472	0.20219
0.25071	0.15117
0.63323	0.17668
0.27621	0.35523
0.35272	0.02363
-0.20832	0.12566
0.07220	0.17668
-0.08081	-0.00188
-0.13181	0.12566
-0.33583	0.12566
0.09770	0.12566
-0.13181	0.12566
0.17421	0.25320
0.76074	0.20219
0.63323	0.25320
1.01576	0.07465
-0.08081	0.10015
-1.02437	-0.07840
0.14870	0.12566
0.50573	0.27871
-0.10631	0.15117
0.04670	0.25320
0.50573	0.07465
-0.08081	0.25320
0.58223	0.27871
0.40372	-0.05289
0.17421	0.07465
-0.97337	0.10015
0.30171	0.22769
0.22521	0.15117
-0.41233	0.07465
0.78624	0.35523
0.63323	0.22769
-0.02981	0.07465
0.09770	0.12566
0.63323	0.07465
0.07220	0.12566
-1.10088	0.20219
0.68424	-0.02739
0.63323	0.35523
0.42922	0.40625
0.25071	0.32972
0.76074	0.04914
0.50573	0.04914
-0.48884	-0.10391
-1.10088	0.10015
0.53123	0.12566
0.14870	-0.15492
-1.07538	0.12566
0.48022	-0.10391
0.40372	0.45726
0.25071	0.53379
0.45472	0.27871
-0.05531	0.15117
1.32178	0.10015
0.65874	0.35523
-1.15188	-0.05289
-0.82036	0.04914
0.65874	-0.41000
0.63323	0.58480
0.48022	0.20219
0.25071	0.25320
0.76074	0.15117
-1.81492	-0.02739
-0.74385	0.02363
0.63323	0.12566
1.44929	0.12566
0.35272	0.04914
-0.79486	0.32972
0.68424	0.25320
2.01032	0.30422
0.12320	-0.28246
-2.88599	-0.23145
-0.87136	0.25320
0.09770	0.40625
1.06676	0.32972
-0.10631	0.30422
1.42379	0.04914
0.12320	0.20219
0.07220	0.22769
0.53123	0.10015
-0.15732	0.17668
0.35272	-0.00188
1.57679	0.07465
1.55129	0.02363
-1.55991	0.04914
-2.45246	0.07465
-0.41233	0.40625
1.14327	-0.00188
-0.56534	0.17668
1.11776	0.66132
2.08683	0.40625
1.09226	0.43176
-0.79486	-0.15492
-0.99887	-0.07840
-0.31033	-0.18043
-0.46334	-0.20594
1.09226	0.04914
0.99026	0.30422
-0.28482	0.63582
0.50573	0.35523
-0.69285	0.02363
-1.53441	-0.05289
1.16877	0.32972
-0.66735	0.15117
0.42922	-0.02739
0.22521	0.30422
-0.48884	-0.15492
0.68424	-0.20594
1.67880	-0.18043
1.65330	0.73785
0.83725	0.40625
-0.74385	0.27871
0.02119	0.15117
0.02119	-0.35899
0.25071	0.02363
0.17421	0.27871
-1.40690	0.30422
-0.94787	-0.07840
0.37822	0.20219
-1.73842	0.25320
-1.27939	0.02363
2.85188	0.35523
1.55129	0.22769
2.26534	-0.02739
1.21977	0.15117
0.25071	0.10015
-2.22295	-0.05289
-1.20288	0.12566
0.09770	0.17668
0.63323	0.17668
0.76074	0.15117
0.60773	0.15117
-0.08081	0.20219
0.37822	-0.46102
-0.84586	0.12566
-0.53984	0.20219
0.07220	0.40625
0.42922	0.30422
0.09770	0.45726
1.21977	0.35523
0.30171	0.25320
-0.69285	0.12566
1.09226	-0.18043
0.93925	-0.07840
0.09770	0.35523
-0.33583	0.45726
1.04126	0.02363
-1.40690	-0.41000
-4.41609	-0.12942
1.21977	0.20219
2.06133	0.68683
1.98482	0.25320
1.37278	0.12566
0.48022	0.27871
1.65330	-0.00188
-0.41233	0.04914
-3.80405	-0.05289
-1.55991	0.02363
2.54586	0.02363
0.78624	0.12566
-1.07538	0.50828
0.70974	-0.15492
0.50573	0.17668
0.60773	0.22769
0.58223	0.32972
-1.71292	0.15117
-0.92237	0.22769
0.27621	0.50828
1.11776	-0.25695
0.83725	0.38074
1.01576	-0.20594
0.76074	-0.00188
0.42922	0.10015
-0.51434	0.17668
0.40372	0.15117
-0.15732	0.04914
0.04670	0.27871
-0.10631	-0.00188
-2.57997	-0.12942
0.63323	0.25320
0.93925	-0.10391
0.63323	0.04914
-0.64185	0.58480
0.88825	0.50828
1.29628	0.27871
0.60773	0.22769
1.32178	-0.05289
-0.61635	-0.15492
-2.14644	-0.02739
0.09770	0.25320
0.55673	-0.05289
-2.70748	0.35523
0.81175	0.04914
2.74987	0.20219
1.21977	0.20219
0.30171	-0.48652
0.55673	-0.02739
0.83725	-0.07840
-0.74385	0.04914
-0.87136	0.63582
1.39828	0.63582
-0.13181	0.20219
-2.65648	-0.23145
0.04670	0.40625
0.55673	0.38074
0.65874	-0.35899
0.27621	-0.23145
0.14870	0.15117
0.58223	0.63582
1.06676	0.45726
0.02119	0.15117
-1.48340	-0.25695
1.65330	-0.10391
-0.84586	-0.28246
-1.30489	0.20219
0.63323	0.12566
1.60230	0.30422
0.68424	0.32972
0.35272	0.15117
-0.48884	0.17668
0.96476	0.12566
1.27078	0.02363
-2.96250	-0.02739
-1.84042	-0.10391
1.52579	0.66132
1.32178	0.58480
-0.08081	0.12566
1.37278	-0.15492
2.13783	-0.10391
-0.08081	0.20219
-0.82036	0.25320
-1.20288	0.20219
-0.00431	-0.38449
0.53123	0.04914
0.35272	0.04914
0.55673	0.48277
0.73524	0.30422
-2.12094	0.12566
-1.45790	0.10015
0.37822	0.15117
1.47479	-0.28246
1.09226	0.61031
0.91375	-0.05289
0.60773	0.12566
0.81175	0.30422
-1.38139	0.30422
-1.07538	0.35523
-0.05531	0.15117
-0.05531	-0.12942
0.88825	0.17668
0.83725	0.10015
2.67337	0.50828
0.81175	0.35523
-2.57997	-0.20594
-2.65648	-0.20594
-0.99887	0.02363
0.63323	0.45726
2.36734	0.12566
0.91375	0.43176
-1.78942	-0.12942
-0.89686	-0.46102
1.52579	-0.05289
1.09226	0.40625
1.01576	0.48277
1.01576	0.58480
-0.46334	0.25320
0.17421	0.17668
0.02119	-0.23145
-1.71292	-0.05289
-0.94787	0.30422
0.78624	0.53379
0.93925	-0.15492
-1.15188	-0.00188
0.35272	0.22769
0.35272	0.25320
0.60773	-0.20594
-0.18282	-0.02739
-0.89686	0.68683
1.24527	0.07465
0.91375	-0.23145
0.73524	-0.02739
-0.05531	0.22769
0.63323	0.04914
0.22521	0.20219
-0.25932	0.40625
0.17421	0.10015
-0.10631	-0.00188
-0.99887	0.38074
-0.33583	0.10015
-0.02981	0.22769
0.63323	0.15117
-1.15188	-0.15492
-1.15188	0.40625
2.03582	0.17668
1.24527	-0.23145
0.53123	0.02363
0.07220	-0.15492
-0.20832	0.15117
1.14327	0.40625
0.91375	0.66132
0.55673	0.15117
0.83725	-0.38449
-1.99343	0.12566
-1.68742	0.43176
-0.56534	0.55929
-2.04444	0.40625
2.26534	0.07465
0.19971	-0.25695
0.73524	0.12566
1.50029	0.00000
0.53123	-0.33348
0.78624	0.15117
0.81175	0.25320
-0.48884	0.04914
-0.74385	0.38074
-0.18282	0.22769
0.04670	0.27871
0.17421	0.10015
1.04126	0.04914
-0.69285	-0.02739
-0.18282	0.40625
1.09226	0.02363
1.90832	0.61031
-1.07538	0.32972
-3.31952	0.17668
0.45472	-0.07840
0.91375	-0.35899
0.96476	-0.15492
0.07220	0.07465
1.01576	0.20219
1.14327	0.30422
0.30171	0.15117
0.50573	0.22769
0.40372	-0.18043
-0.64185	0.12566
-1.76392	0.02363
-0.89686	0.17668
0.65874	0.45726
-0.13181	0.17668
0.60773	0.12566
-1.48340	-0.41000
1.60230	0.50828
1.57679	0.35523
1.14327	0.40625
0.83725	0.35523
0.12320	-0.12942
0.19971	0.22769
-0.36133	-0.20594
-1.02437	0.02363
-0.41233	-0.30797
-0.02981	0.04914
0.19971	0.38074
0.68424	0.71234
0.12320	0.22769
0.45472	0.20219
0.81175	0.10015
-0.71835	-0.07840
-2.32496	-0.05289
-0.10631	-0.15492
0.73524	0.20219
0.30171	0.45726
0.99026	0.27871
2.97938	0.27871
1.32178	0.20219
-1.53441	-0.18043
-0.92237	0.10015
-0.71835	0.58480
-0.31033	0.27871
-0.41233	0.12566
0.53123	0.15117
1.62780	-0.46102
-0.08081	-0.00188
0.32721	0.35523
-0.08081	-0.33348
-0.33583	0.15117
0.55673	0.61031
0.65874	0.38074
0.37822	-0.05289
0.12320	0.10015
-0.82036	-0.15492
-2.09544	-0.07840
0.40372	0.04914
1.04126	0.35523
1.39828	0.27871
-0.38683	0.22769
-1.07538	0.30422
0.91375	-0.15492
1.42379	-0.05289
-0.18282	0.17668
-1.45790	0.22769
0.58223	0.30422
0.73524	0.48277
0.35272	-0.25695
-0.02981	-0.00188
0.45472	0.15117
0.27621	0.07465
-0.13181	-0.02739
-0.51434	0.61031
0.99026	0.25320
0.14870	0.50828
-1.45790	-0.02739
0.09770	0.17668
0.70974	0.02363
2.39285	-0.25695
0.12320	0.04914
-1.55991	0.20219
-2.83499	0.61031
-0.74385	0.48277
1.83181	0.22769
1.42379	-0.33348
1.93382	-0.07840
1.04126	-0.41000
1.27078	0.02363
-0.28482	0.45726
-0.92237	0.50828
0.07220	0.50828
-0.74385	0.10015
-0.10631	0.04914
1.34728	-0.15492
0.42922	0.17668
-2.57997	0.27871
-1.50890	-0.25695
0.86275	0.15117
2.06133	0.15117
1.39828	0.53379
-1.43240	0.02363
-0.33583	0.15117
0.02119	0.15117
1.19427	0.17668
1.06676	0.17668
0.45472	-0.30797
0.96476	0.17668
0.27621	0.40625
-0.10631	-0.02739
-0.46334	0.38074
-0.31033	0.20219
-0.59084	-0.15492
-0.05531	0.22769
0.55673	0.25320
-0.31033	0.53379
-0.99887	0.04914
0.04670	-0.05289
0.81175	0.15117
0.55673	0.12566
0.53123	-0.05289
-0.31033	-0.02739
0.55673	0.30422
0.86275	0.04914
0.14870	0.04914
-0.02981	0.32972
0.42922	0.30422
0.81175	-0.00188
0.12320	0.04914
-0.53984	0.22769
0.22521	0.17668
-0.41233	0.55929
-0.13181	0.07465
0.04670	-0.41000
-0.59084	-0.07840
-0.00431	0.10015
1.85731	0.53379
-1.15188	0.17668
-1.25389	0.50828
1.21977	0.40625
2.62236	-0.48652
-1.40690	-0.07840
-0.92237	-0.00188
1.37278	0.04914
1.24527	0.43176
0.42922	0.35523
0.37822	-0.12942
1.04126	0.35523
-0.15732	0.10015
-0.79486	-0.07840
-0.38683	0.38074
-0.25932	0.12566
-0.53984	0.25320
0.32721	-0.10391
0.07220	-0.07840
0.07220	0.27871
0.40372	-0.07840
0.37822	0.78886
0.83725	-0.12942
0.27621	0.15117
0.07220	0.22769
-0.48884	0.40625
-1.02437	0.15117
0.68424	-0.07840
0.88825	-0.25695
0.30171	-0.10391
-0.41233	0.25320
0.78624	0.15117
0.42922	0.17668
0.81175	0.48277
0.45472	0.30422
-1.04987	0.04914
0.25071	-0.12942
-1.50890	0.04914
1.09226	0.10015
-0.41233	0.30422
0.27621	0.66132
0.02119	0.25320
1.06676	-0.10391
1.27078	-0.30797
-0.20832	0.12566
-0.38683	-0.20594
0.09770	-0.23145
-1.07538	0.10015
0.53123	0.17668
0.63323	0.81437
0.17421	0.86539
-0.13181	0.10015
0.32721	0.25320
0.70974	-0.18043
-0.66735	-0.02739
-0.53984	0.17668
0.78624	0.15117
0.70974	0.07465
0.48022	-0.23145
-0.20832	0.02363
-0.25932	0.17668
0.45472	0.35523
0.96476	0.32972
0.07220	0.63582
-1.22839	0.20219
-0.08081	0.12566
-0.15732	0.27871
0.27621	-0.23145
1.16877	0.15117
1.19427	-0.05289
0.09770	0.48277
-1.81492	0.02363
-0.05531	0.04914
0.53123	0.17668
-0.84586	0.15117
0.35272	-0.25695
1.04126	-0.05289
1.01576	0.27871
0.83725	0.30422
-0.46334	0.48277
-0.25932	-0.07840
0.78624	-0.25695
0.96476	0.35523
0.63323	0.15117
-0.31033	0.61031
-0.48884	0.48277
-0.15732	-0.41000
0.30171	0.07465
-0.00431	0.12566
-0.48884	0.17668
-0.15732	-0.02739
-0.48884	-0.07840
-0.99887	0.30422
0.60773	0.45726
1.11776	0.04914
0.91375	-0.23145
1.42379	0.55929
0.78624	0.71234
0.32721	0.50828
-0.13181	0.20219
-0.00431	-0.12942
-0.79486	-0.25695
0.37822	0.12566
0.27621	0.30422
0.09770	-0.33348
-0.74385	-0.25695
-0.76936	0.15117
-0.51434	0.07465
1.21977	0.04914
0.48022	0.32972
0.22521	0.17668
0.53123	0.32972
1.57679	0.68683
-0.74385	0.04914
-0.69285	0.10015
0.30171	-0.18043
0.12320	0.43176
0.04670	-0.56305
0.32721	-0.28246
1.06676	0.20219
0.58223	0.99292
-0.31033	0.38074
-1.50890	-0.18043
0.04670	-0.23145
0.96476	0.71234
0.48022	0.04914
-1.22839	0.02363
-0.46334	0.17668
0.35272	0.10015
0.55673	0.25320
1.24527	0.38074
2.34184	0.02363
-1.55991	0.48277
-3.24301	-0.12942
1.62780	-0.15492
0.40372	-0.20594
0.58223	0.48277
-0.38683	0.35523
0.32721	-0.02739
0.73524	0.04914
0.37822	0.10015
-0.28482	0.45726
-0.02981	-0.46102
1.27078	0.58480
-0.00431	0.17668
-0.99887	0.07465
-0.15732	0.15117
0.32721	0.04914
0.42922	-0.02739
0.17421	0.91640
0.30171	0.53379
1.04126	-0.07840
0.48022	-0.07840
-0.71835	-0.43551
0.30171	-0.10391
-2.04444	0.15117
0.09770	0.53379
1.01576	-0.10391
0.55673	0.27871
0.78624	0.07465
0.45472	0.22769
-1.22839	-0.18043
0.88825	0.53379
0.99026	0.45726
0.48022	0.10015
-0.13181	-0.15492
-0.28482	0.10015
-0.94787	-0.00188
-0.25932	0.17668
-0.28482	0.15117
0.30171	0.32972
1.34728	0.40625
1.21977	0.15117
-0.41233	-0.18043
-1.63641	-0.53754
-1.20288	0.07465
0.42922	0.07465
1.24527	0.55929
1.19427	0.50828
0.68424	0.45726
0.65874	0.10015
0.68424	-0.10391
0.50573	0.02363
0.73524	0.30422
-0.89686	0.10015
0.42922	0.48277
-0.00431	0.35523
-0.48884	-0.18043
-1.84042	-0.10391
-0.46334	-0.20594
0.76074	-0.12942
0.60773	0.30422
0.35272	0.58480
1.16877	0.35523
0.17421	-0.15492
0.02119	-0.25695
0.81175	0.25320
1.19427	0.40625
-2.22295	0.10015
-2.63097	0.30422
1.14327	0.55929
1.34728	0.35523
0.58223	-0.02739
0.93925	-0.05289
0.30171	-0.38449
0.25071	-0.25695
0.68424	0.30422
0.42922	0.45726
-0.25932	0.04914
-1.02437	0.27871
-1.20288	0.17668
0.09770	-0.00188
0.60773	-0.38449
0.42922	0.53379
0.32721	-0.02739
0.32721	0.12566
1.14327	0.66132
-1.33039	0.35523
-0.71835	0.38074
-0.13181	-0.53754
-0.28482	-0.07840
1.65330	0.17668
2.01032	0.32972
0.63323	0.32972
-0.28482	0.45726
0.07220	-0.20594
-0.33583	0.07465
-0.66735	-0.05289
0.93925	0.25320
0.60773	0.22769
-1.33039	0.04914
-0.18282	0.12566
0.53123	0.02363
1.29628	0.07465
-0.15732	0.17668
-2.01894	0.30422
-0.84586	0.12566
1.09226	0.43176
1.44929	0.02363
-0.25932	0.17668
-0.23382	-0.25695
1.75531	0.35523
0.48022	0.45726
-0.89686	0.20219
0.19971	0.32972
0.91375	-0.23145
0.32721	-0.10391
1.04126	0.10015
0.40372	0.07465
0.12320	0.45726
-0.46334	0.15117
-2.68198	-0.30797
-0.08081	0.45726
1.47479	-0.05289
0.04670	0.15117
-0.20832	0.40625
0.19971	0.38074
0.96476	0.58480
0.55673	-0.07840
0.58223	-0.23145
0.55673	-0.23145
-0.31033	-0.18043
0.32721	0.27871
-0.15732	0.17668
-0.76936	0.45726
0.14870	0.48277
1.24527	0.15117
0.22521	0.15117
-1.96793	0.15117
-0.02981	-0.18043
0.63323	0.30422
1.04126	-0.12942
-0.33583	0.25320
1.11776	0.07465
1.24527	0.17668
-0.33583	0.04914
-0.51434	0.20219
0.73524	-0.00188
-0.33583	0.27871
-0.23382	0.20219
-0.15732	0.15117
0.25071	-0.05289
0.63323	-0.00188
0.81175	0.15117
-0.02981	-0.07840
-0.43783	0.48277
-0.59084	0.40625
-0.97337	-0.02739
0.17421	0.20219
0.88825	-0.56305
0.99026	-0.20594
-0.38683	0.50828
0.53123	0.48277
-0.46334	1.14597
0.27621	0.30422
1.14327	0.10015
0.35272	-0.10391
-0.74385	-0.46102
0.27621	-0.25695
0.12320	-0.05289
0.32721	0.20219
0.07220	0.61031
-0.13181	0.25320
0.17421	0.17668
0.30171	0.15117
0.25071	0.22769
-0.02981	0.02363
-0.31033	-0.00188
0.12320	0.04914
-0.41233	0.25320
0.19971	-0.12942
1.16877	0.35523
0.27621	0.35523
0.48022	0.27871
-0.18282	-0.15492
-2.12094	-0.25695
-0.23382	0.35523
1.06676	0.15117
1.19427	0.17668
0.07220	0.12566
1.32178	0.35523
0.63323	-0.35899
-0.38683	0.63582
-0.10631	0.35523
0.19971	-0.07840
-0.28482	0.04914
0.55673	0.10015
0.30171	-0.05289
-0.28482	-0.10391
-0.89686	0.22769
0.07220	0.50828
0.53123	0.04914
0.60773	-0.15492
0.48022	0.15117
0.12320	0.15117
-0.97337	-0.05289
-0.51434	0.25320
-0.18282	0.35523
0.76074	0.07465
1.19427	0.20219
0.73524	0.40625
1.01576	0.15117
-0.23382	0.10015
-0.51434	0.12566
0.45472	0.17668
0.30171	-0.00188
-1.25389	0.10015
0.09770	-0.10391
-0.94787	0.07465
-0.13181	0.38074
0.93925	0.25320
1.06676	0.22769
1.24527	0.20219
0.81175	0.20219
-0.38683	-0.28246
-0.51434	-0.25695
-0.36133	0.12566
0.19971	0.20219
0.22521	0.22769
0.12320	0.22769
0.12320	0.15117
0.35272	0.17668
0.45472	0.35523
-0.23382	0.43176
0.22521	0.38074
0.70974	0.27871
0.12320	-0.07840
-0.18282	-0.00188
-0.00431	-0.02739
0.12320	-0.10391
-0.23382	-0.12942
0.07220	0.53379
-0.82036	0.45726
0.55673	0.12566
0.42922	-0.20594
0.68424	-0.15492
0.83725	0.50828
0.83725	0.10015
-0.48884	0.25320
-0.92237	0.22769
0.42922	-0.28246
0.19971	0.04914
-0.41233	0.04914
1.19427	0.27871
0.93925	0.12566
-0.36133	0.10015
-0.79486	0.10015
-0.53984	0.15117
0.55673	0.22769
0.58223	0.45726
0.91375	0.43176
0.96476	0.35523
-0.28482	0.35523
0.30171	-0.10391
-0.43783	-0.25695
-0.92237	0.04914
-0.69285	0.07465
0.55673	-0.00188
0.25071	-0.00188
-0.18282	0.32972
-0.08081	0.22769
0.81175	0.25320
0.48022	0.32972
0.81175	0.12566
0.70974	0.10015
0.35272	0.07465
0.02119	0.17668
-0.69285	-0.00188
0.02119	0.27871
0.40372	0.38074
0.32721	-0.20594
-0.33583	-0.23145
-0.05531	0.71234
0.37822	0.22769
0.22521	0.17668
0.25071	0.38074
0.73524	-0.07840
0.32721	-0.10391
-0.84586	-0.00188
0.09770	0.30422
0.58223	0.40625
-0.08081	0.35523
-0.31033	0.17668
0.70974	-0.07840
-0.48884	-0.25695
-0.08081	0.17668
-0.43783	-0.07840
0.88825	0.04914
0.65874	0.53379
0.81175	0.15117
0.17421	-0.28246
-0.71835	0.55929
-0.23382	0.40625
0.27621	0.38074
0.12320	0.35523
1.06676	0.15117
0.35272	0.10015
0.07220	0.86539
0.19971	-0.23145
0.04670	-0.33348
0.19971	0.12566
-0.84586	-0.43551
-0.10631	0.12566
0.99026	0.10015
-0.08081	0.22769
-1.84042	0.15117
0.35272	0.20219
0.37822	0.15117
0.68424	0.48277
-0.00431	0.10015
0.32721	0.30422
0.55673	0.48277
0.55673	0.48277
0.09770	0.02363
0.27621	-0.15492
-0.13181	0.07465
0.68424	0.40625
0.55673	-0.56305
-0.74385	-0.02739
-0.92237	0.30422
-0.20832	0.35523
0.58223	0.63582
0.96476	0.20219
0.42922	0.04914
0.42922	-0.12942
0.17421	-0.23145
-0.64185	-0.05289
-0.46334	0.04914
-0.10631	0.43176
0.73524	0.40625
0.14870	0.50828
-0.00431	0.12566
0.07220	-0.15492
0.07220	0.12566
0.83725	0.53379
0.91375	0.02363
-0.28482	0.25320
-0.71835	0.10015
0.02119	-0.07840
-0.25932	0.04914
0.88825	-0.02739
-0.38683	0.25320
-0.00431	0.15117
0.32721	0.12566
0.30171	-0.05289
0.76074	0.27871
0.22521	0.30422
0.07220	0.63582
0.63323	0.02363
-0.71835	0.20219
-0.76936	-0.28246
1.01576	0.10015
0.76074	0.27871
0.22521	0.02363
-0.18282	0.22769
0.63323	0.20219
0.48022	0.15117
-0.31033	0.17668
-1.81492	0.15117
-1.91693	0.10015
1.29628	0.30422
1.65330	-0.00188
1.16877	0.17668
0.48022	0.38074
0.83725	0.10015
0.37822	-0.07840
-0.89686	0.20219
-0.20832	0.45726
-0.13181	-0.12942
-0.23382	0.07465
-0.10631	0.15117
0.25071	0.15117
0.42922	-0.05289
0.86275	0.25320
0.81175	-0.10391
-0.61635	0.04914
0.25071	0.68683
-0.08081	0.48277
-0.38683	-0.25695
0.30171	-0.18043
0.60773	0.53379
0.45472	0.07465
0.32721	0.32972
0.17421	0.15117
-0.10631	0.15117
0.09770	0.07465
-0.13181	0.07465
-0.08081	0.12566
0.04670	0.30422
0.25071	-0.00188
0.22521	0.30422
0.37822	0.35523
0.32721	0.20219
0.45472	-0.10391
-0.00431	-0.20594
-1.02437	0.02363
-0.15732	0.35523
0.17421	-0.05289
0.81175	0.15117
-0.13181	-0.15492
0.50573	0.20219
1.04126	0.55929
0.42922	0.22769
-0.51434	0.25320
-1.30489	0.32972
0.40372	-0.05289
1.16877	-0.38449
-0.69285	0.96742
-0.31033	-0.25695
0.76074	-0.25695
-0.00431	-0.05289
0.45472	-0.00188
0.88825	0.50828
-0.13181	-0.05289
-0.51434	0.04914
0.12320	-0.05289
-0.00431	0.58480
0.22521	0.35523
0.22521	0.30422
0.53123	0.07465
0.12320	0.07465
-1.07538	-0.18043
-0.18282	0.25320
0.48022	-0.07840
0.53123	0.43176
-0.00431	-0.20594
0.09770	0.55929
-0.20832	0.32972
0.50573	-0.10391
1.42379	0.35523
0.83725	0.27871
-0.13181	-0.05289
0.09770	0.25320
-0.89686	-0.25695
-0.99887	0.15117
0.68424	0.12566
0.14870	0.04914
-1.12638	0.50828
0.27621	0.15117
0.25071	0.15117
0.78624	0.32972
0.63323	0.17668
1.06676	0.15117
0.83725	0.15117
-0.84586	-0.15492
-0.87136	0.02363
-0.46334	0.10015
-0.05531	0.45726
0.55673	0.32972
0.86275	0.07465
0.22521	0.04914
0.22521	0.25320
0.32721	0.04914
-0.00431	-0.53754
0.09770	0.04914
0.12320	0.12566
-0.38683	0.02363
0.35272	0.73785
-0.23382	0.32972
-0.31033	-0.02739
0.40372	0.32972
0.25071	-0.05289
-0.02981	0.48277
1.32178	0.17668
0.50573	0.32972
-0.99887	-0.12942
-0.56534	-0.18043
0.50573	0.02363
0.76074	-0.07840
-0.43783	0.17668
-0.92237	0.15117
0.78624	0.25320
0.55673	0.30422
0.42922	0.15117
0.68424	0.17668
0.12320	0.38074
-0.53984	0.07465
0.07220	0.15117
-1.40690	0.30422
0.86275	0.15117
0.91375	0.30422
-0.20832	-0.10391
0.73524	-0.07840
0.83725	0.02363
0.02119	-0.18043
0.27621	0.20219
-0.28482	0.04914
-0.20832	0.38074
0.25071	0.32972
-0.43783	0.53379
-0.20832	0.76336
0.22521	0.15117
0.35272	0.17668
0.30171	-0.25695
0.04670	-0.28246
0.35272	-0.05289
0.45472	-0.07840
-0.02981	0.25320
0.19971	0.55929
0.48022	0.55929
-0.15732	-0.02739
-0.43783	-0.12942
0.22521	0.04914
0.17421	-0.00188
0.99026	0.66132
-0.74385	0.30422
-0.00431	0.35523
-0.00431	0.04914
0.53123	-0.18043
0.32721	-0.38449
-1.02437	-0.07840
0.65874	0.35523
0.60773	0.40625
0.30171	0.27871
0.40372	0.15117
0.81175	0.04914
0.37822	-0.10391
-1.40690	0.15117
-0.79486	0.10015
-0.08081	0.30422
0.73524	0.20219
0.73524	0.66132
0.91375	-0.00188
0.12320	0.22769
-0.10631	0.10015
0.19971	0.22769
-0.02981	0.04914
0.07220	-0.23145
0.73524	0.22769
0.12320	0.45726
-0.46334	0.25320
-0.23382	0.04914
0.07220	0.07465
0.02119	-0.38449
0.86275	-0.07840
0.60773	0.17668
-0.15732	0.22769
-0.48884	0.22769
0.50573	0.40625
1.21977	0.15117
-0.20832	0.12566
-0.92237	0.35523
-0.20832	0.25320
0.99026	0.81437
0.53123	-0.12942
0.63323	0.12566
-0.00431	-0.30797
-0.28482	-0.15492
0.19971	0.15117
0.32721	0.35523
0.09770	0.43176
-0.38683	-0.25695
-0.05531	0.25320
-0.13181	0.20219
0.50573	-0.12942
-0.02981	0.04914
-0.05531	0.04914
0.35272	0.15117
0.53123	0.15117
0.48022	0.32972
0.12320	0.38074
0.32721	0.12566
0.02119	0.15117
0.02119	0.17668
0.02119	0.04914
0.27621	0.10015
-0.31033	-0.10391
0.17421	-0.15492
-0.08081	-0.25695
-0.02981	0.45726
0.19971	0.68683
0.53123	0.50828
0.50573	0.15117
-0.43783	0.15117
0.02119	-0.15492
1.37278	-0.07840
-0.38683	0.15117
-1.30489	-0.28246
0.96476	0.48277
0.19971	0.27871
0.45472	0.20219
0.37822	0.10015
-0.66735	0.22769
0.27621	0.07465
1.14327	0.32972
0.14870	0.40625
-0.10631	-0.41000
0.73524	0.12566
-0.84586	-0.07840
-1.61091	0.10015
0.42922	0.15117
0.68424	0.30422
0.45472	0.55929
0.58223	0.22769
0.99026	0.15117
0.32721	0.04914
-0.20832	-0.02739
-0.18282	0.04914
-0.89686	-0.12942
-0.59084	-0.05289
-0.10631	-0.07840
0.76074	0.35523
0.73524	0.61031
0.83725	0.40625
0.50573	0.10015
-0.51434	0.07465
0.09770	-0.00188
0.12320	0.20219
-0.10631	0.27871
0.25071	0.12566
0.42922	0.17668
-0.20832	0.10015
0.19971	0.02363
-0.08081	0.07465
-0.31033	0.07465
0.73524	0.12566
0.37822	0.27871
-0.36133	0.15117
-0.10631	-0.25695
0.04670	-0.25695
0.32721	0.22769
1.01576	0.22769
-0.38683	0.10015
-0.69285	0.04914
0.32721	0.30422
0.73524	0.30422
0.58223	0.45726
0.02119	0.38074
-0.74385	0.10015
-0.00431	-0.23145
0.78624	0.15117
0.37822	0.50828
-0.10631	0.27871
-0.43783	-0.02739
0.17421	-0.05289
1.19427	-0.20594
0.83725	0.22769
-1.40690	0.32972
-0.13181	0.15117
0.12320	-0.05289
-0.48884	0.27871
0.09770	0.43176
0.04670	0.20219
0.76074	-0.18043
0.86275	0.10015
0.63323	0.04914
0.30171	0.25320
-0.25932	0.02363
-0.10631	0.17668
0.04670	0.22769
-1.73842	0.10015
0.09770	0.22769
0.88825	0.32972
0.91375	0.30422
0.93925	-0.25695
0.25071	0.32972
-1.43240	0.15117
0.50573	0.27871
0.40372	0.12566
-0.71835	0.20219
0.22521	-0.25695
0.73524	0.04914
1.09226	0.48277
0.50573	0.20219
0.07220	0.32972
-0.33583	-0.15492
0.12320	-0.20594
-0.23382	-0.00188
-0.05531	0.04914
0.02119	0.12566
-0.97337	0.15117
-0.31033	0.17668
0.50573	0.53379
0.99026	0.25320
1.52579	0.15117
0.19971	0.43176
-0.23382	0.15117
0.58223	0.07465
0.25071	-0.05289
-0.84586	0.22769
-0.53984	0.27871
0.07220	0.22769
-0.15732	-0.07840
0.68424	-0.12942
0.96476	-0.00188
-0.10631	0.17668
0.35272	0.15117
0.32721	0.07465
0.45472	-0.07840
-0.48884	0.35523
-0.79486	0.63582
0.48022	0.27871
0.48022	-0.10391
1.52579	0.15117
0.14870	0.12566
-1.43240	0.22769
-0.08081	0.35523
0.14870	-0.15492
-0.56534	0.10015
0.53123	-0.18043
0.83725	0.35523
0.68424	0.45726
0.40372	0.25320
0.53123	0.22769
0.53123	-0.05289
-0.02981	-0.00188
-0.15732	0.04914
-0.31033	0.02363
-0.15732	0.10015
0.02119	0.25320
-0.20832	0.20219
-0.36133	0.10015
0.55673	0.17668
0.60773	-0.00188
1.09226	0.10015
-0.33583	0.22769
-1.50890	-0.05289
-0.53984	0.15117
1.47479	0.25320
0.99026	0.27871
0.17421	0.32972
0.14870	0.45726
0.37822	0.58480
-0.53984	-0.23145
-0.46334	-0.15492
0.09770	-0.20594
0.22521	-0.58856
-0.20832	0.38074
-0.48884	0.22769
0.27621	0.25320
0.53123	0.50828
0.63323	0.30422
0.91375	0.07465
0.68424	0.25320
-0.10631	-0.02739
0.19971	0.22769
0.14870	0.04914
0.04670	-0.10391
-0.87136	0.15117
-0.69285	0.12566
-0.00431	0.27871
0.58223	0.35523
0.55673	0.20219
0.42922	0.22769
0.88825	-0.00188
0.37822	0.07465
-0.18282	0.40625
-0.84586	0.20219
0.42922	-0.02739
0.50573	-0.00188
0.73524	0.07465
-0.15732	0.45726
-0.89686	0.17668
0.32721	-0.05289
0.40372	0.07465
0.45472	0.02363
-0.56534	0.25320
0.22521	-0.00188
-0.38683	0.04914
0.42922	0.27871
0.50573	0.15117
0.53123	0.45726
0.42922	0.15117
1.06676	0.35523
0.12320	0.32972
-0.66735	-0.12942
-0.46334	-0.02739
0.32721	0.17668
0.25071	-0.15492
-0.28482	0.22769
-0.99887	0.30422
0.68424	0.15117
0.68424	0.66132
0.73524	0.32972
0.02119	-0.25695
0.12320	-0.05289
-0.64185	0.35523
0.32721	0.30422
0.48022	0.22769
0.30171	0.04914
0.12320	-0.02739
0.02119	0.04914
-0.00431	0.10015
0.60773	0.22769
0.35272	0.25320
0.27621	0.17668
-1.02437	0.20219
-0.48884	-0.18043
-0.41233	0.25320
0.60773	-0.00188
0.73524	0.45726
0.37822	0.43176
0.58223	0.35523
0.19971	0.30422
0.91375	0.12566
1.06676	-0.23145
-1.30489	-0.46102
-0.71835	-0.12942
-0.18282	0.20219
-0.31033	0.17668
1.09226	0.53379
1.01576	0.53379
0.60773	0.38074
0.22521	-0.00188
-0.36133	0.15117
-0.46334	0.02363
-0.08081	-0.07840
0.63323	0.12566
-0.25932	0.15117
-0.94787	0.38074
0.53123	-0.20594
0.53123	0.02363
0.12320	0.45726
0.60773	0.35523
0.65874	0.32972
0.25071	0.20219
-0.10631	-0.15492
0.35272	0.10015
-0.02981	-0.30797
-0.48884	0.17668
-1.17738	-0.18043
0.25071	-0.05289
1.21977	0.20219
0.96476	0.55929
0.22521	0.32972
-0.48884	0.04914
-0.05531	0.32972
-0.59084	0.27871
0.86275	-0.10391
1.65330	0.04914
-0.13181	0.12566
-1.30489	0.12566
-0.59084	0.27871
0.35272	0.07465
1.24527	0.02363
0.96476	0.38074
0.27621	0.15117
0.45472	0.20219
-1.73842	0.20219
-1.53441	-0.00188
0.04670	0.07465
1.11776	0.17668
1.29628	-0.05289
0.81175	0.07465
0.91375	0.35523
0.07220	0.07465
-0.28482	0.20219
-0.82036	0.12566
0.50573	0.25320
0.63323	0.20219
0.55673	-0.28246
-0.23382	-0.00188
-1.12638	0.43176
-0.20832	0.30422
0.53123	0.27871
0.60773	-0.02739
0.48022	-0.23145
0.12320	0.17668
0.25071	0.30422
0.02119	0.48277
0.27621	0.53379
-0.08081	0.17668
-0.51434	0.12566
0.65874	-0.02739
0.63323	-0.15492
0.37822	-0.00188
0.40372	0.30422
-0.33583	-0.25695
0.02119	0.20219
-0.15732	-0.00188
0.02119	0.55929
0.55673	0.10015
0.27621	0.35523
-1.40690	0.32972
-0.28482	0.12566
0.86275	-0.20594
1.34728	-0.15492
0.73524	-0.10391
0.12320	-0.10391
-0.25932	0.02363
-0.41233	0.30422
0.50573	0.35523
-0.00431	0.50828
0.12320	0.35523
0.32721	-0.05289
0.40372	0.17668
-1.53441	0.12566
-0.74385	0.07465
0.68424	0.35523
1.09226	0.25320
0.83725	0.20219
0.53123	0.35523
0.27621	-0.02739
0.48022	0.20219
0.35272	-0.28246
-0.28482	-0.00188
-0.00431	0.04914
-0.38683	0.04914
0.30171	0.17668
0.12320	0.48277
0.14870	0.17668
0.42922	0.27871
0.73524	0.04914
-0.08081	0.10015
-1.50890	0.27871
-0.92237	0.12566
1.37278	-0.00188
1.44929	-0.10391
0.55673	0.30422
-1.17738	0.30422
0.35272	0.25320
0.63323	0.17668
-0.59084	0.17668
0.76074	-0.05289
0.83725	0.04914
1.32178	-0.23145
0.22521	-0.07840
-0.94787	0.53379
-1.20288	1.06945
0.07220	0.15117
0.76074	-0.12942
0.19971	-0.38449
0.60773	-0.41000
-0.33583	0.02363
-0.20832	0.45726
-0.82036	0.53379
-0.15732	-0.02739
0.37822	-0.30797
0.76074	0.15117
1.16877	0.38074
0.83725	0.38074
0.27621	0.32972
0.14870	-0.18043
-0.08081	-0.00188
0.07220	0.07465
-0.33583	0.02363
-0.59084	0.10015
-0.08081	0.17668
0.30171	0.04914
-0.48884	0.38074
-0.48884	0.35523
0.63323	0.17668
0.27621	0.07465
0.55673	0.07465
0.55673	0.02363
1.44929	0.15117
-0.36133	0.27871
-0.53984	-0.02739
-0.13181	-0.10391
1.01576	0.35523
0.53123	-0.02739
-1.20288	0.02363
-0.08081	0.22769
0.42922	0.15117
-0.08081	0.12566
0.17421	0.32972
-0.10631	0.04914
0.32721	-0.35899
0.32721	0.53379
0.81175	0.55929
0.63323	0.25320
-0.71835	0.22769
-0.28482	0.15117
0.19971	-0.10391
0.04670	0.04914
0.32721	0.35523
0.32721	-0.10391
0.81175	0.12566
0.14870	0.32972
0.14870	0.04914
0.25071	0.04914
-0.64185	-0.10391
0.30171	0.04914
0.14870	0.25320
-0.00431	0.38074
-0.46334	-0.02739
0.25071	0.38074
0.40372	0.45726
0.25071	0.04914
0.48022	0.71234
-0.28482	0.40625
0.78624	-0.10391
0.88825	-0.05289
-0.25932	-0.12942
-0.25932	-0.20594
0.76074	0.02363
-0.33583	0.04914
-0.43783	-0.02739
0.42922	0.32972
0.14870	0.25320
-0.20832	0.35523
0.48022	0.45726
0.42922	0.20219
-0.59084	0.04914
0.48022	0.15117
0.32721	0.25320
0.02119	0.15117
0.04670	-0.07840
1.04126	0.10015
0.55673	-0.15492
-1.68742	0.43176
-0.25932	0.63582
0.91375	0.02363
1.14327	0.12566
-0.31033	0.07465
-0.61635	-0.18043
0.53123	0.07465
0.96476	0.20219
0.93925	0.17668
-0.15732	0.50828
-0.43783	0.10015
-0.05531	-0.00188
0.42922	0.12566
-0.53984	0.02363
0.37822	0.10015
0.48022	0.25320
0.17421	0.30422
0.19971	0.30422
0.19971	0.17668
-0.82036	0.17668
-0.00431	0.04914
0.22521	-0.10391
0.68424	0.53379
0.60773	0.45726
-0.25932	0.04914
-1.07538	0.17668
0.35272	0.04914
0.63323	-0.20594
0.12320	-0.46102
0.42922	-0.10391
0.30171	0.27871
0.25071	0.35523
-0.02981	0.61031
-0.41233	0.55929
0.37822	0.07465
0.63323	0.25320
0.58223	0.22769
-0.18282	0.07465
-1.25389	-0.28246
0.19971	0.12566
0.65874	0.22769
0.53123	0.45726
0.19971	0.15117
0.19971	-0.05289
0.19971	0.15117
0.12320	0.12566
-0.28482	-0.07840
0.14870	0.10015
0.86275	0.45726
0.70974	0.30422
-1.55991	0.20219
-0.23382	0.27871
0.45472	-0.07840
0.55673	-0.07840
0.40372	-0.05289
-0.08081	0.17668
-0.38683	0.17668
0.30171	0.32972
0.73524	0.07465
0.37822	0.22769
0.12320	0.15117
0.48022	-0.00188
0.60773	0.17668
0.02119	0.02363
-0.74385	0.45726
-0.46334	0.32972
-0.89686	-0.30797
1.04126	-0.12942
1.06676	0.20219
0.22521	0.43176
0.68424	-0.02739
-0.02981	0.43176
-0.18282	0.48277
-0.33583	0.12566
0.37822	0.02363
0.19971	-0.15492
-0.15732	0.15117
0.22521	-0.05289
0.09770	0.02363
-0.66735	0.04914
0.12320	0.22769
0.88825	0.71234
0.25071	0.25320
0.78624	0.07465
-0.05531	-0.33348
-0.61635	-0.23145
0.19971	0.22769
0.04670	0.32972
-0.89686	0.32972
-0.41233	0.48277
1.50029	0.66132
1.44929	0.43176
0.68424	0.30422
0.73524	-0.35899
-0.15732	-0.46102
-1.27939	-0.12942
-0.38683	-0.18043
0.22521	-0.07840
-0.18282	0.15117
0.42922	0.48277
-0.08081	0.61031
-0.02981	0.35523
0.63323	0.30422
0.19971	-0.30797
0.35272	0.48277
-0.05531	0.25320
0.58223	0.15117
-0.51434	-0.07840
-0.94787	0.22769
-0.02981	0.48277
0.53123	-0.15492
1.16877	0.07465
0.50573	-0.15492
0.60773	-0.07840
0.81175	-0.05289
0.60773	0.04914
-0.38683	0.55929
-1.20288	0.30422
-0.08081	-0.15492
0.35272	0.15117
0.30171	0.35523
-0.13181	0.45726
0.02119	0.50828
0.30171	-0.35899
-0.15732	-0.07840
0.27621	0.32972
-0.36133	0.07465
0.09770	0.61031
-0.46334	0.20219
-0.13181	0.02363
0.53123	-0.28246
1.09226	-0.25695
-0.13181	0.22769
0.37822	0.12566
0.53123	0.12566
0.45472	0.17668
0.35272	-0.00188
-0.13181	0.22769
-0.38683	0.12566
0.30171	0.32972
-0.51434	0.45726
0.37822	0.35523
0.25071	0.04914
0.09770	0.30422
0.22521	-0.05289
0.14870	0.32972
-0.15732	-0.20594
-1.96793	-0.00188
1.14327	0.04914
0.96476	0.04914
0.73524	-0.00188
0.42922	0.38074
0.27621	0.55929
-0.08081	0.30422
-0.69285	0.25320
0.19971	-0.05289
0.37822	-0.20594
0.30171	-0.20594
0.35272	0.12566
0.22521	0.15117
0.88825	0.27871
0.35272	0.25320
-0.41233	0.66132
0.30171	0.66132
-0.31033	0.58480
0.32721	-0.00188
-0.02981	-0.10391
-0.53984	-0.15492
0.37822	-0.15492
1.37278	0.07465
0.25071	-0.18043
0.35272	0.17668
-0.28482	0.25320
-0.82036	0.38074
-0.48884	0.04914
0.37822	0.15117
-1.22839	0.17668
-0.08081	0.04914
0.48022	0.15117
1.37278	0.27871
1.78081	0.25320
-0.25932	0.43176
-0.15732	0.43176
1.06676	-0.10391
0.78624	-0.05289
-0.18282	0.17668
-0.20832	0.15117
-0.33583	0.20219
-0.74385	0.04914
-0.71835	0.30422
0.27621	-0.30797
0.17421	-0.00188
0.30171	0.20219
0.83725	0.61031
0.30171	0.30422
0.27621	0.12566
0.14870	0.12566
-0.31033	0.27871
0.81175	0.22769
1.24527	-0.41000
-1.27939	-0.02739
-1.61091	0.04914
0.60773	0.15117
0.68424	0.22769
1.44929	0.45726
0.30171	0.32972
-1.12638	-0.02739
-0.28482	0.04914
0.30171	-0.00188
0.65874	-0.02739
0.45472	0.15117
-0.05531	0.30422
0.14870	0.38074
0.30171	0.35523
-0.48884	0.35523
-0.41233	0.20219
0.37822	0.07465
0.68424	0.12566
0.53123	-0.15492
0.32721	0.02363
-0.48884	0.02363
-0.41233	0.25320
0.04670	-0.33348
-0.87136	0.15117
0.48022	0.61031
0.65874	0.04914
0.17421	-0.10391
0.83725	0.17668
-0.79486	-0.10391
-1.04987	0.22769
0.93925	0.48277
0.96476	0.17668
0.83725	-0.18043
0.45472	0.02363
0.32721	0.15117
0.14870	0.50828
-0.48884	0.30422
0.02119	0.17668
0.27621	-0.18043
-0.64185	-0.07840
-0.15732	0.07465
-0.28482	0.32972
0.93925	0.15117
1.27078	0.32972
-0.25932	-0.02739
0.50573	0.10015
-0.74385	-0.02739
-1.35589	-0.20594
-0.76936	0.15117
0.22521	0.43176
0.83725	0.53379
0.86275	0.22769
0.65874	0.07465
0.93925	-0.05289
0.19971	0.10015
-0.23382	-0.00188
-0.18282	0.12566
-0.18282	0.20219
0.42922	0.12566
0.86275	0.38074
-0.13181	0.45726
-1.58541	0.48277
-0.08081	-0.10391
1.19427	0.12566
0.58223	-0.00188
0.32721	-0.15492
0.27621	0.30422
-0.08081	0.25320
0.42922	0.38074
-0.25932	-0.07840
-0.48884	-0.00188
1.01576	0.04914
1.50029	0.02363
-1.30489	0.07465
-2.73298	0.48277
0.93925	0.38074
0.88825	-0.00188
0.42922	0.12566
0.48022	-0.05289
0.19971	0.15117
-0.05531	0.27871
0.53123	0.20219
0.02119	0.12566
0.19971	-0.00188
1.01576	0.27871
0.70974	0.22769
-0.71835	0.35523
-0.43783	0.25320
-0.38683	0.20219
0.19971	0.10015
-0.43783	-0.38449
-0.48884	0.15117
0.81175	-0.05289
0.73524	0.20219
0.76074	0.43176
0.42922	0.58480
0.40372	0.25320
-0.18282	0.32972
-1.02437	-0.30797
-0.08081	0.12566
0.53123	0.27871
0.40372	0.58480
0.76074	0.48277
0.88825	-0.12942
-0.10631	-0.25695
-0.38683	-0.12942
-0.05531	0.15117
-0.00431	0.10015
0.30171	-0.18043
-0.18282	0.22769
-0.28482	-0.05289
0.63323	0.30422
0.35272	0.25320
0.32721	0.22769
0.70974	0.32972
0.86275	0.20219
-0.51434	0.50828
-0.71835	0.15117
-1.10088	-0.15492
0.22521	-0.25695
0.53123	0.15117
0.88825	0.43176
1.01576	0.22769
0.68424	0.43176
0.12320	0.07465
0.07220	0.22769
0.37822	-0.00188
-0.36133	-0.43551
-0.05531	0.04914
-0.20832	0.35523
0.55673	0.58480
-0.15732	0.35523
-0.08081	0.12566
0.09770	0.30422
0.27621	-0.05289
0.22521	-0.20594
0.17421	-0.05289
-0.15732	-0.12942
0.14870	-0.10391
0.14870	0.32972
0.19971	0.38074
0.22521	0.30422
0.27621	0.15117
0.30171	0.20219
0.86275	0.32972
0.14870	0.35523
-0.41233	0.17668
-0.66735	0.32972
0.17421	-0.15492
0.53123	0.04914
0.88825	-0.05289
-0.53984	-0.23145
-1.02437	-0.05289
1.27078	0.35523
0.83725	0.30422
-1.48340	0.66132
-0.51434	0.15117
0.88825	0.10015
1.16877	0.07465
0.63323	-0.18043
0.37822	0.04914
0.12320	0.12566
-0.48884	0.20219
-0.02981	0.30422
0.60773	0.17668
-0.08081	0.30422
0.09770	0.30422
0.04670	0.17668
0.32721	0.17668
0.02119	-0.00188
0.02119	-0.10391
-0.36133	0.22769
-0.31033	0.12566
0.73524	0.27871
0.73524	0.07465
0.12320	0.10015
-0.00431	-0.15492
-0.28482	0.22769
-0.00431	0.17668
0.40372	0.25320
0.22521	0.45726
-0.18282	-0.00188
0.32721	0.12566
0.58223	0.04914
0.22521	0.04914
-1.22839	0.12566
0.42922	0.20219
0.65874	0.20219
1.04126	0.04914
0.96476	0.20219
-0.41233	0.17668
-0.79486	0.43176
0.65874	0.48277
-0.46334	0.15117
0.09770	-0.30797
0.22521	-0.07840
0.60773	-0.02739
-0.53984	0.04914
-0.89686	0.22769
0.19971	0.20219
0.73524	0.53379
0.83725	0.35523
0.45472	0.25320
0.40372	-0.18043
-0.33583	-0.12942
0.07220	0.17668
0.22521	-0.00188
-0.08081	0.22769
0.12320	0.40625
0.55673	0.25320
0.12320	0.38074
-0.02981	0.15117
-0.46334	-0.18043
0.93925	-0.02739
0.50573	0.15117
-1.40690	0.10015
0.19971	0.07465
0.55673	-0.02739
0.53123	0.25320
0.42922	-0.05289
0.04670	0.53379
-0.23382	0.40625
0.22521	-0.00188
0.96476	0.17668
-0.02981	0.07465
-0.46334	-0.05289
0.02119	0.17668
-0.13181	0.10015
0.27621	0.10015
0.50573	0.02363
0.60773	-0.15492
0.42922	0.15117
0.48022	0.30422
-0.48884	0.76336
-0.87136	0.50828
0.32721	-0.00188
0.17421	-0.23145
-0.13181	-0.38449
-0.00431	-0.05289
0.86275	-0.12942
0.91375	0.20219
0.14870	0.40625
-0.13181	0.22769
0.27621	0.12566
0.73524	0.55929
-0.61635	0.27871
-0.48884	0.10015
-0.10631	0.10015
0.02119	-0.18043
0.27621	-0.07840
0.25071	-0.18043
0.22521	0.35523
-0.00431	0.25320
0.35272	0.32972
0.55673	0.10015
0.07220	0.15117
0.45472	0.45726
0.45472	0.38074
0.04670	-0.02739
0.12320	0.10015
-0.28482	-0.12942
-0.15732	-0.23145
-0.23382	0.22769
0.02119	-0.00188
0.68424	0.22769
0.42922	0.20219
-0.33583	0.15117
0.19971	0.12566
0.12320	0.25320
0.02119	0.04914
-0.08081	0.25320
-0.25932	0.04914
0.27621	0.12566
1.50029	-0.05289
0.22521	-0.07840
-0.69285	0.12566
-0.46334	0.10015
0.22521	0.43176
0.14870	0.35523
0.35272	0.35523
0.63323	0.02363
0.76074	0.02363
0.25071	-0.15492
-0.74385	0.35523
0.12320	0.20219
0.02119	-0.20594
-0.02981	-0.00188
-0.28482	0.40625
0.40372	0.53379
0.30171	0.17668
-0.31033	-0.07840
0.25071	-0.02739
0.45472	0.17668
0.50573	0.17668
0.22521	0.04914
0.53123	-0.05289
0.25071	0.20219
-0.69285	0.15117
-0.92237	0.22769
0.07220	0.02363
0.48022	0.35523
0.48022	-0.25695
0.63323	0.30422
0.27621	0.32972
-0.74385	-0.00188
0.22521	0.27871
0.55673	0.30422
-0.00431	-0.00188
0.30171	-0.10391
0.25071	0.40625
0.35272	0.27871
0.02119	-0.02739
-0.10631	0.50828
0.48022	0.30422
0.63323	-0.25695
0.19971	0.04914
-0.99887	-0.12942
-0.56534	0.17668
-1.02437	0.43176
-0.31033	0.10015
1.24527	0.15117
1.11776	0.20219
0.83725	0.20219
0.32721	0.02363
0.40372	0.45726
0.45472	0.17668
0.27621	-0.02739
-0.28482	-0.02739
-0.97337	-0.05289
-0.13181	0.35523
-0.61635	0.10015
0.17421	-0.18043
0.55673	0.50828
0.19971	0.07465
0.30171	0.20219
0.50573	0.48277
0.07220	-0.02739
-0.00431	-0.05289
-0.00431	-0.07840
0.12320	-0.30797
0.27621	0.58480
0.25071	0.61031
0.40372	0.53379
0.12320	-0.05289
0.02119	-0.10391
0.02119	-0.10391
0.19971	0.15117
-0.08081	-0.10391
-0.23382	-0.00188
0.32721	0.04914
0.12320	0.43176
-0.18282	0.43176
-0.05531	0.27871
-0.00431	0.17668
0.93925	-0.12942
0.76074	0.04914
-0.87136	0.15117
-0.66735	0.04914
1.21977	0.20219
1.19427	0.27871
0.04670	0.38074
0.09770	0.20219
0.25071	0.35523
0.50573	-0.10391
0.14870	-0.07840
0.07220	-0.02739
-0.13181	0.12566
-0.82036	0.20219
-2.12094	0.17668
-0.05531	0.40625
0.58223	-0.15492
1.11776	0.35523
1.04126	0.10015
0.78624	0.15117
0.70974	-0.00188
-0.00431	-0.10391
-0.69285	0.25320
-0.18282	0.15117
0.30171	0.10015
0.04670	0.17668
0.35272	0.12566
0.02119	0.20219
0.27621	0.27871
0.27621	0.15117
0.14870	0.35523
0.14870	0.12566
-0.79486	-0.15492
-0.59084	0.04914
0.07220	0.02363
-0.02981	0.02363
0.81175	-0.00188
1.39828	0.20219
0.53123	-0.02739
0.32721	0.40625
-0.84586	0.15117
0.09770	0.53379
0.73524	0.38074
-0.41233	-0.30797
-0.08081	-0.23145
-0.51434	-0.25695
-0.84586	0.17668
1.50029	-0.05289
1.01576	0.48277
-0.05531	-0.02739
0.04670	0.27871
-0.23382	0.25320
-0.10631	0.32972
0.42922	-0.00188
0.14870	-0.15492
0.42922	-0.07840
0.93925	0.22769
-0.56534	0.48277
-0.92237	0.58480
0.25071	0.38074
0.42922	-0.10391
0.02119	-0.33348
0.42922	-0.25695
-0.00431	0.04914
0.37822	0.30422
0.37822	-0.07840
0.12320	0.22769
0.14870	0.15117
0.25071	0.45726
0.48022	0.17668
-0.02981	0.25320
0.17421	0.35523
-0.10631	0.10015
-0.74385	0.10015
-0.28482	0.04914
0.53123	-0.35899
1.72980	-0.05289
-0.18282	0.15117
-0.48884	0.32972
0.32721	0.43176
0.86275	-0.00188
-0.71835	0.20219
-1.50890	0.22769
0.81175	0.04914
2.11233	-0.02739
-0.25932	0.10015
-1.38139	0.07465
-0.05531	0.27871
0.65874	0.17668
1.34728	-0.02739
0.60773	0.35523
0.25071	0.40625
-0.18282	0.17668
0.76074	0.35523
0.32721	0.04914
-0.28482	-0.02739
-0.51434	0.04914
-0.13181	0.22769
0.19971	-0.07840
-0.28482	-0.10391
-0.48884	0.27871
0.02119	0.32972
0.25071	0.20219
0.37822	0.15117
0.25071	-0.15492
0.40372	0.35523
0.30171	-0.20594
0.53123	0.07465
0.37822	0.91640
0.35272	0.58480
0.19971	-0.00188
0.25071	-0.23145
-0.41233	-0.46102
-0.20832	-0.18043
0.22521	0.07465
-0.15732	0.45726
0.48022	0.20219
0.93925	0.32972
-0.15732	0.35523
-0.43783	0.15117
-0.28482	0.25320
0.45472	0.04914
0.50573	-0.28246
0.88825	0.10015
-0.38683	0.10015
-0.15732	0.22769
-0.13181	0.32972
0.65874	0.30422
0.63323	0.17668
0.02119	0.15117
-0.00431	-0.12942
-0.02981	0.10015
0.02119	0.30422
0.07220	-0.05289
0.25071	0.32972
0.32721	0.27871
0.40372	-0.05289
-0.05531	-0.23145
-0.05531	0.22769
0.30171	0.55929
0.30171	0.35523
0.22521	-0.15492
0.07220	0.02363
-0.02981	0.02363
0.02119	0.27871
-0.02981	-0.25695
0.12320	0.63582
0.19971	0.15117
0.17421	0.07465
0.17421	0.45726
0.37822	0.07465
-0.20832	0.17668
0.83725	0.25320
0.76074	0.02363
-0.38683	0.10015
-0.43783	0.15117
-0.18282	-0.23145
0.02119	0.17668
0.40372	0.17668
-0.02981	0.10015
-0.89686	-0.10391
0.78624	0.25320
0.04670	0.10015
0.40372	0.17668
0.68424	0.25320
0.42922	0.15117
0.30171	0.12566
0.37822	0.25320
0.07220	0.07465
-0.31033	0.02363
0.04670	0.20219
0.17421	0.10015
0.35272	0.38074
0.30171	0.22769
-0.79486	0.07465
-1.91693	0.04914
0.93925	0.32972
0.58223	0.45726
0.27621	0.02363
0.96476	0.32972
0.78624	-0.10391
0.30171	-0.25695
-0.02981	0.04914
0.25071	0.02363
0.17421	0.02363
0.09770	0.32972
-0.23382	-0.02739
0.02119	0.25320
0.07220	0.20219
0.40372	0.20219
-0.18282	0.20219
-0.71835	0.43176
-0.23382	0.07465
0.60773	-0.00188
0.48022	0.04914
0.45472	0.04914
0.09770	0.15117
0.14870	0.15117
-0.02981	0.20219
0.73524	0.50828
0.73524	0.25320
-0.20832	0.02363
0.42922	-0.10391
0.50573	-0.20594
0.30171	0.15117
-0.59084	0.07465
-1.10088	0.30422
-0.18282	-0.18043
0.58223	0.35523
0.73524	0.10015
-0.02981	0.02363
0.14870	-0.00188
0.50573	0.30422
0.12320	0.15117
0.22521	0.35523
0.27621	0.27871
0.14870	0.30422
-0.61635	-0.07840
-0.10631	0.22769
0.83725	0.10015
0.27621	0.17668
0.02119	0.04914
0.19971	0.07465
0.60773	0.07465
-0.20832	0.02363
-0.51434	0.15117
-0.48884	0.02363
0.63323	0.32972
0.48022	0.15117
-0.18282	0.40625
0.19971	-0.00188
0.68424	0.07465
0.22521	0.10015
0.65874	0.15117
-0.20832	0.27871
-0.18282	0.04914
0.50573	0.25320
0.02119	-0.00188
0.19971	0.20219
0.07220	0.12566
0.12320	0.25320
0.04670	-0.15492
0.17421	0.25320
0.19971	0.35523
0.02119	-0.28246
-0.23382	0.07465
-0.08081	0.04914
0.02119	0.25320
-0.08081	0.15117
0.42922	0.35523
1.37278	0.43176
1.01576	0.15117
-0.46334	0.17668
-0.43783	0.17668
-0.18282	0.12566
0.17421	-0.10391
0.50573	-0.20594
-0.18282	0.15117
0.30171	0.32972
-0.05531	0.10015
0.63323	0.27871
-0.15732	0.35523
-0.23382	0.12566
-0.08081	-0.05289
0.40372	-0.00188
-0.13181	-0.10391
0.19971	0.22769
0.35272	0.55929
0.37822	-0.00188
-0.13181	-0.02739
0.09770	0.04914
0.37822	0.25320
0.04670	0.35523
-0.36133	0.45726
-0.48884	0.38074
0.50573	-0.12942
0.53123	0.17668
0.04670	0.30422
0.17421	-0.12942
0.48022	0.15117
0.60773	0.12566
0.40372	0.07465
-0.02981	0.27871
-0.10631	0.07465
-0.13181	-0.05289
-0.02981	0.25320
-0.25932	0.04914
0.32721	0.17668
-0.46334	0.22769
0.32721	-0.00188
0.50573	0.07465
0.27621	0.12566
0.19971	0.27871
0.45472	0.10015
0.19971	0.12566
-0.28482	0.02363
0.14870	0.32972
0.42922	0.45726
0.14870	0.20219
0.37822	0.02363
0.27621	0.32972
-0.36133	-0.00188
-0.15732	-0.02739
0.02119	0.15117
-0.05531	0.12566
0.60773	-0.18043
0.09770	0.04914
-0.61635	0.20219
0.32721	-0.05289
0.19971	0.83988
0.22521	0.15117
0.81175	-0.10391
1.19427	0.04914
-0.02981	-0.00188
-0.64185	0.17668
0.35272	0.45726
0.22521	0.38074
-0.05531	0.04914
0.17421	0.02363
0.45472	0.53379
0.12320	0.10015
-0.25932	-0.23145
0.09770	-0.10391
0.17421	0.02363
-0.23382	0.27871
0.17421	0.20219
0.42922	0.35523
0.53123	-0.10391
0.93925	0.15117
-0.33583	0.20219
-1.10088	0.04914
-0.33583	0.27871
0.60773	0.22769
0.25071	0.15117
0.63323	0.27871
0.42922	0.12566
0.40372	-0.05289
1.04126	0.12566
0.14870	0.45726
-0.10631	0.15117
0.25071	0.10015
-0.08081	0.10015
-0.82036	-0.28246
-1.27939	0.25320
-0.05531	0.30422
0.73524	0.02363
0.50573	-0.23145
0.73524	0.55929
0.73524	0.35523
0.37822	0.61031
-0.20832	-0.15492
-0.20832	-0.20594
0.12320	0.30422
-0.25932	0.53379
-0.02981	-0.20594
0.37822	-0.25695
0.04670	-0.18043
0.48022	-0.00188
0.42922	0.30422
0.30171	0.63582
-0.79486	0.48277
0.12320	0.10015
0.40372	0.20219
1.37278	0.22769
-0.05531	-0.18043
-0.46334	-0.10391
-0.20832	0.32972
-0.38683	-0.05289
0.96476	0.27871
2.01032	0.40625
-0.53984	0.45726
-1.20288	0.07465
-0.71835	-0.07840
0.30171	-0.00188
0.02119	-0.00188
-0.74385	0.10015
0.86275	0.04914
1.11776	0.45726
0.53123	0.68683
0.48022	0.04914
0.48022	0.04914
0.19971	-0.56305
-0.43783	-0.05289
-0.00431	0.50828
0.07220	0.25320
-0.20832	0.04914
-0.25932	-0.05289
-0.36133	-0.10391
0.55673	0.48277
0.35272	0.58480
0.40372	0.48277
0.42922	0.91640
0.53123	0.17668
0.63323	0.10015
0.04670	-0.18043
-0.48884	-0.02739
0.14870	-0.35899
-0.38683	-0.05289
0.22521	0.22769
0.73524	0.22769
-0.56534	0.27871
-0.46334	0.15117
0.55673	0.15117
0.81175	-0.05289
0.45472	0.07465
0.07220	0.07465
0.32721	0.30422
0.35272	0.15117
-1.22839	0.17668
-0.74385	-0.05289
0.48022	0.15117
0.83725	0.32972
-0.23382	-0.30797
1.27078	0.43176
-0.10631	0.12566
-0.82036	0.15117
-0.08081	0.04914
0.91375	0.07465
-0.05531	0.27871
0.73524	-0.00188
-0.23382	0.17668
-0.02981	0.43176
0.22521	0.25320
0.04670	0.10015
-0.46334	0.32972
-0.15732	-0.28246
0.42922	0.32972
0.45472	0.17668
0.19971	0.30422
0.40372	0.17668
0.45472	0.10015
0.14870	-0.12942
-0.18282	0.22769
-0.74385	0.02363
0.55673	0.15117
0.63323	-0.02739
0.07220	0.20219
-0.18282	0.22769
-0.10631	0.10015
0.70974	0.22769
0.12320	0.04914
-0.15732	-0.02739
0.50573	0.25320
-0.79486	0.12566
-0.28482	0.30422
0.32721	0.17668
0.68424	0.15117
0.22521	0.53379
0.32721	0.15117
0.53123	-0.20594
0.58223	0.38074
-0.08081	-0.07840
-0.08081	-0.15492
0.07220	-0.05289
-0.43783	0.30422
0.25071	0.27871
0.83725	0.22769
-0.18282	0.22769
0.22521	0.04914
0.68424	0.04914
0.07220	0.12566
-0.61635	0.38074
0.50573	0.17668
0.25071	-0.00188
0.22521	-0.07840
0.25071	0.10015
0.07220	0.25320
0.27621	0.35523
0.25071	0.10015
-0.08081	0.35523
-0.87136	-0.05289
0.40372	0.22769
0.19971	0.12566
0.68424	0.15117
0.09770	0.15117
0.73524	-0.07840
0.65874	-0.00188
0.58223	0.15117
-0.41233	0.15117
-0.15732	0.15117
0.65874	0.32972
-0.23382	0.20219
-1.38139	0.20219
0.91375	0.15117
0.04670	0.07465
-0.43783	0.25320
-0.51434	0.02363
1.42379	0.25320
0.81175	-0.12942
0.22521	-0.07840
0.83725	0.07465
0.60773	0.10015
-0.61635	0.10015
-1.71292	0.27871
0.27621	0.20219
0.65874	0.27871
0.76074	0.20219
0.73524	0.17668
-0.97337	0.12566
0.88825	0.35523
0.40372	-0.02739
-0.69285	0.15117
0.25071	-0.05289
0.30171	0.15117
-0.13181	0.25320
0.50573	0.04914
0.22521	0.15117
0.40372	0.04914
-0.00431	0.20219
-1.07538	0.35523
-0.25932	0.25320
1.19427	-0.20594
-0.05531	0.07465
-1.07538	0.27871
-0.59084	0.10015
1.50029	0.22769
0.40372	0.25320
0.91375	0.45726
-0.05531	-0.02739
0.22521	0.12566
-0.76936	0.12566
-0.64185	-0.07840
0.27621	0.30422
1.55129	0.10015
0.02119	0.17668
0.78624	0.07465
0.30171	0.10015
-0.87136	0.04914
-1.33039	0.20219
-0.48884	-0.02739
0.63323	0.04914
-0.23382	0.25320
0.17421	0.32972
0.32721	0.48277
0.37822	0.20219
0.88825	0.12566
0.42922	-0.15492
0.83725	0.02363
0.65874	0.07465
-0.87136	0.12566
-0.79486	0.22769
0.12320	0.25320
0.60773	0.10015
0.40372	-0.00188
0.53123	0.25320
0.45472	0.04914
-0.08081	0.02363
0.02119	-0.00188
0.07220	0.20219
0.07220	0.32972
-0.13181	0.48277
-0.08081	-0.05289
0.02119	0.76336
-0.00431	-0.18043
0.17421	-0.10391
0.12320	-0.12942
0.22521	0.04914
0.60773	0.25320
0.55673	0.20219
0.02119	0.17668
-0.43783	0.25320
0.02119	0.15117
0.99026	0.25320
0.25071	0.20219
0.30171	0.07465
0.19971	0.12566
-0.79486	0.25320
0.07220	-0.10391
1.19427	0.15117
0.04670	0.20219
-1.91693	-0.00188
0.07220	0.25320
-0.76936	0.30422
-0.31033	0.07465
1.19427	-0.02739
1.32178	-0.00188
0.73524	0.12566
0.91375	-0.02739
-0.69285	0.45726
-0.08081	0.35523
0.19971	0.30422
0.12320	-0.00188
-0.18282	-0.18043
0.14870	0.32972
0.07220	0.17668
0.42922	0.02363
-0.69285	0.27871
-0.59084	0.10015
0.73524	0.12566
0.70974	0.12566
0.30171	-0.10391
0.37822	0.10015
-0.13181	0.50828
-0.33583	-0.15492
0.14870	0.12566
0.14870	0.22769
0.70974	0.07465
0.37822	0.15117
-0.15732	0.30422
-0.25932	0.04914
0.42922	-0.12942
0.35272	0.02363
0.76074	0.27871
-0.02981	0.20219
-0.69285	0.32972
-0.15732	-0.12942
0.19971	0.32972
-0.33583	0.17668
0.40372	0.15117
-0.10631	0.15117
0.17421	-0.20594
0.83725	0.12566
0.30171	-0.00188
0.45472	0.20219
0.65874	0.15117
0.73524	0.15117
-0.71835	0.20219
-0.33583	0.45726
0.02119	0.71234
-0.05531	-0.02739
0.40372	-0.18043
0.27621	0.30422
-0.10631	-0.07840
-0.15732	-0.00188
0.07220	0.25320
0.27621	-0.05289
0.17421	0.15117
0.12320	0.10015
0.37822	0.20219
0.58223	0.48277
0.60773	0.12566
0.02119	0.15117
-1.76392	0.07465
-0.97337	-0.02739
1.42379	0.40625
0.93925	0.35523
-0.25932	0.17668
1.04126	0.30422
0.60773	0.27871
-0.28482	-0.10391
0.50573	-0.02739
-0.10631	0.10015
-0.31033	0.30422
0.25071	0.10015
-0.33583	0.02363
0.42922	0.20219
0.27621	0.20219
0.88825	0.17668
0.04670	0.20219
1.14327	0.15117
-0.38683	0.17668
-2.29945	-0.23145
0.09770	0.04914
0.63323	0.27871
0.14870	-0.05289
0.45472	0.22769
