-1.30489	0.35523
0.27621	0.20219
0.70974	0.12566
0.32721	0.22769
0.12320	0.17668
1.04126	-0.00188
-0.84586	0.15117
0.48022	0.02363
-0.00431	-0.15492
-0.69285	0.15117
0.19971	0.22769
0.81175	0.25320
0.35272	-0.02739
0.55673	0.07465
0.76074	0.17668
-0.97337	0.25320
-0.46334	0.04914
-0.08081	0.04914
0.37822	0.15117
0.04670	0.43176
0.68424	0.32972
0.83725	0.30422
0.40372	0.17668
-0.38683	0.02363
-0.69285	-0.02739
0.68424	-0.00188
0.63323	0.15117
-1.45790	0.20219
0.35272	0.10015
0.58223	0.17668
0.27621	0.02363
-0.08081	0.12566
-0.28482	0.27871
-0.08081	0.20219
0.63323	0.17668
-0.13181	0.12566
1.16877	0.12566
-0.00431	0.15117
-0.31033	0.25320
-0.33583	0.07465
1.34728	0.25320
0.93925	0.53379
1.06676	0.12566
0.55673	0.10015
-0.69285	0.12566
-1.04987	-0.00188
-1.55991	-0.20594
-0.28482	0.10015
0.93925	0.27871
1.19427	0.30422
0.83725	0.22769
-0.05531	0.22769
0.65874	0.22769
0.19971	0.40625
-0.92237	-0.05289
-0.56534	-0.10391
0.93925	0.27871
1.14327	0.22769
-0.13181	-0.02739
-0.10631	0.27871
0.78624	0.17668
-0.48884	0.04914
-0.05531	0.30422
0.22521	-0.07840
-0.05531	-0.18043
0.55673	0.12566
-0.33583	0.43176
0.02119	0.38074
0.07220	-0.02739
0.37822	0.15117
1.47479	0.50828
-0.64185	0.27871
0.73524	0.25320
-0.89686	-0.07840
-0.31033	-0.35899
-0.69285	-0.00188
0.83725	0.32972
0.25071	0.27871
-0.28482	0.20219
0.58223	0.61031
-0.18282	0.22769
0.50573	-0.05289
1.09226	-0.18043
0.27621	-0.41000
-1.53441	0.04914
-0.87136	-0.07840
1.29628	0.50828
1.06676	0.27871
-0.15732	0.38074
-0.43783	0.53379
1.93382	0.32972
-0.51434	0.17668
-0.00431	0.15117
-0.36133	-0.18043
0.02119	-0.02739
0.12320	0.17668
0.14870	0.30422
0.65874	0.15117
-0.99887	-0.02739
0.60773	0.17668
0.73524	0.12566
0.32721	0.12566
0.19971	0.15117
-0.59084	-0.00188
-0.71835	0.20219
0.63323	0.25320
0.88825	0.32972
-0.05531	0.35523
1.24527	0.12566
-0.51434	0.25320
0.83725	-0.12942
1.24527	0.17668
-0.48884	0.12566
-3.49803	-0.48652
0.65874	0.02363
0.25071	0.53379
0.86275	0.40625
-1.12638	0.15117
1.16877	0.22769
-1.58541	0.25320
0.60773	0.10015
1.39828	0.15117
1.04126	0.12566
-0.20832	0.15117
0.14870	0.17668
-0.20832	0.10015
0.86275	-0.00188
0.58223	-0.07840
-0.94787	-0.05289
0.93925	0.48277
0.32721	0.30422
-0.92237	0.12566
1.52579	0.27871
-0.84586	0.20219
-0.59084	-0.05289
-2.42696	0.27871
0.12320	0.30422
1.55129	-0.05289
2.36734	0.15117
1.93382	0.15117
-1.40690	0.12566
-0.08081	0.15117
0.30171	0.10015
-0.13181	-0.10391
0.32721	0.07465
-0.89686	-0.00188
0.14870	0.20219
-0.02981	0.43176
0.63323	0.32972
-0.48884	0.15117
0.65874	0.07465
0.50573	0.17668
-1.43240	0.02363
-0.13181	0.22769
0.91375	0.30422
1.44929	0.22769
-0.00431	0.22769
-0.97337	-0.05289
0.81175	-0.02739
0.40372	-0.07840
-1.76392	-0.10391
0.53123	0.45726
0.58223	0.27871
1.19427	0.12566
-0.43783	0.15117
-0.48884	0.22769
0.09770	0.30422
0.88825	0.10015
1.47479	-0.05289
-1.02437	0.35523
-0.00431	-0.00188
1.19427	0.07465
0.30171	0.38074
-0.31033	0.40625
-0.15732	0.25320
0.40372	-0.02739
-0.41233	-0.10391
0.50573	0.10015
0.37822	0.12566
0.65874	0.27871
0.07220	0.17668
-1.43240	0.17668
-0.20832	0.22769
0.73524	0.35523
1.34728	-0.07840
2.16333	0.15117
-0.23382	0.48277
-2.09544	0.30422
-0.71835	-0.02739
0.99026	0.15117
0.91375	0.10015
0.63323	-0.00188
0.30171	0.02363
-0.28482	0.30422
-0.08081	0.25320
-0.43783	0.07465
0.50573	0.22769
0.60773	0.20219
0.91375	0.04914
-0.69285	0.10015
-1.04987	0.17668
0.60773	0.45726
0.86275	0.22769
0.32721	0.12566
-0.25932	0.04914
1.01576	0.10015
0.37822	0.20219
-0.74385	-0.07840
0.30171	-0.00188
-0.18282	0.27871
0.37822	0.27871
1.24527	0.43176
-0.99887	-0.33348
-0.20832	-0.02739
-0.71835	-0.05289
-0.84586	0.20219
0.73524	0.35523
0.83725	0.53379
0.63323	0.35523
1.21977	0.38074
-0.69285	0.02363
-1.50890	-0.25695
0.32721	-0.15492
0.99026	0.15117
-0.33583	0.20219
-0.28482	0.38074
2.95388	0.35523
-0.82036	0.20219
-1.17738	-0.18043
-0.59084	0.20219
0.50573	0.20219
0.50573	0.04914
-0.53984	0.25320
1.21977	0.25320
-0.10631	0.22769
0.35272	-0.00188
-0.56534	0.07465
0.42922	0.15117
1.04126	0.04914
-0.51434	0.35523
-0.82036	0.15117
0.04670	0.15117
1.16877	0.38074
0.93925	-0.00188
-0.89686	-0.02739
-0.02981	0.04914
-1.63641	0.04914
0.12320	-0.00188
0.88825	0.32972
0.02119	0.35523
0.88825	0.07465
0.50573	-0.02739
0.99026	0.07465
-0.00431	0.07465
-0.51434	0.20219
-0.69285	0.25320
-0.15732	0.22769
1.44929	0.10015
-1.53441	-0.05289
0.42922	0.25320
0.91375	0.17668
-0.51434	0.35523
0.50573	0.20219
1.16877	-0.00188
-0.84586	0.04914
0.60773	0.10015
0.19971	-0.00188
0.40372	0.10015
0.65874	0.17668
-0.92237	-0.05289
0.35272	-0.10391
-0.33583	0.32972
0.73524	0.55929
0.09770	0.25320
-2.29945	-0.18043
-0.08081	0.25320
2.59686	0.43176
0.02119	0.32972
0.12320	0.30422
0.07220	-0.02739
0.04670	-0.25695
0.60773	0.15117
0.91375	0.15117
-0.08081	-0.12942
-1.63641	-0.25695
-0.31033	0.20219
1.09226	0.32972
-0.25932	0.40625
0.22521	0.48277
1.37278	0.12566
0.40372	0.15117
-1.50890	0.25320
1.42379	0.15117
-0.69285	0.12566
-0.18282	0.22769
-0.13181	0.10015
1.62780	0.04914
-0.15732	-0.05289
0.27621	0.15117
0.91375	0.12566
-0.41233	0.17668
0.35272	0.32972
0.60773	0.17668
-0.41233	-0.02739
-1.33039	-0.10391
0.04670	-0.00188
0.78624	0.35523
-0.48884	0.32972
0.12320	0.30422
0.35272	0.10015
-0.20832	0.10015
0.76074	0.15117
1.04126	0.25320
0.37822	-0.05289
-0.15732	-0.05289
0.04670	0.22769
0.27621	0.17668
-0.23382	0.10015
0.91375	0.27871
-1.30489	0.15117
1.01576	0.27871
0.30171	0.15117
0.22521	0.04914
0.07220	-0.15492
-1.30489	0.17668
-0.13181	0.12566
-0.18282	0.30422
0.99026	-0.05289
0.96476	0.12566
-1.40690	0.30422
-0.00431	0.32972
1.04126	0.04914
1.34728	0.17668
1.24527	0.15117
0.40372	0.17668
-0.43783	-0.07840
-0.53984	-0.02739
-0.64185	-0.15492
0.35272	0.04914
0.48022	0.45726
0.19971	0.53379
1.85731	0.68683
2.52035	0.35523
-2.73298	-0.15492
-2.04444	-0.43551
-0.76936	-0.20594
-0.00431	0.17668
0.17421	0.25320
0.25071	0.38074
0.55673	0.15117
-0.48884	0.27871
0.63323	0.07465
1.72980	0.22769
-0.36133	0.07465
0.96476	0.15117
1.42379	0.22769
-0.43783	0.07465
-0.51434	0.15117
0.22521	0.25320
-0.02981	0.10015
0.17421	-0.15492
0.25071	0.07465
0.30171	0.25320
0.09770	0.15117
-0.02981	0.12566
-0.79486	-0.00188
-0.66735	0.15117
0.19971	0.27871
0.53123	0.25320
1.37278	0.22769
1.80631	-0.10391
-1.22839	-0.12942
-1.10088	-0.12942
0.45472	0.35523
1.06676	0.55929
-0.31033	-0.05289
-0.05531	-0.02739
0.63323	0.17668
1.21977	0.10015
-1.63641	0.30422
0.55673	0.12566
-0.53984	0.17668
0.30171	0.35523
1.93382	0.22769
-0.61635	-0.15492
-1.58541	-0.12942
0.91375	0.15117
-1.07538	-0.02739
0.88825	0.15117
1.16877	0.27871
0.25071	0.32972
0.42922	0.35523
0.02119	0.35523
-1.12638	0.17668
0.19971	0.12566
0.91375	-0.05289
0.73524	-0.00188
-1.20288	-0.02739
-0.10631	0.25320
0.09770	0.32972
0.50573	0.45726
0.32721	0.15117
-0.23382	-0.05289
1.04126	0.17668
0.42922	0.10015
-0.48884	-0.00188
-0.08081	0.25320
0.22521	0.25320
0.48022	0.30422
0.32721	0.25320
-0.51434	-0.05289
0.58223	0.02363
-0.59084	-0.10391
-0.20832	0.07465
0.02119	-0.00188
0.65874	-0.20594
-1.43240	0.15117
0.78624	0.58480
1.29628	0.50828
0.93925	0.38074
0.60773	0.17668
-0.31033	0.02363
-0.89686	-0.12942
-0.76936	-0.18043
-0.74385	0.02363
0.55673	0.20219
0.42922	0.22769
1.06676	0.40625
0.96476	0.35523
-0.28482	0.15117
-1.71292	-0.05289
0.81175	0.22769
0.30171	-0.20594
1.04126	-0.00188
0.19971	0.20219
0.27621	0.38074
0.14870	0.17668
0.02119	0.20219
-0.05531	0.12566
0.19971	0.22769
0.30171	0.17668
0.45472	0.10015
-0.66735	0.04914
-1.40690	0.12566
-0.08081	0.07465
0.40372	0.15117
0.88825	0.12566
1.04126	0.35523
-0.13181	0.38074
-0.61635	-0.05289
0.07220	0.02363
0.73524	0.17668
0.65874	0.25320
-0.76936	0.20219
-0.20832	0.10015
1.16877	0.10015
0.60773	-0.15492
-1.40690	0.07465
-0.20832	0.25320
0.99026	0.17668
2.03582	0.25320
-0.61635	0.20219
-0.74385	0.20219
0.53123	0.32972
-0.41233	0.04914
-1.12638	0.02363
-0.79486	-0.00188
1.04126	0.22769
1.44929	0.22769
0.53123	0.22769
0.76074	0.04914
-0.82036	0.04914
-0.99887	-0.07840
-0.25932	-0.18043
0.48022	0.12566
0.93925	0.25320
-0.33583	0.58480
0.32721	0.38074
0.02119	0.10015
0.30171	0.12566
0.73524	0.32972
0.25071	0.10015
-1.15188	-0.23145
0.02119	-0.23145
-0.13181	0.20219
0.53123	0.12566
0.88825	0.35523
-0.53984	0.20219
-0.13181	0.30422
-0.53984	0.25320
0.53123	0.17668
0.40372	-0.10391
0.35272	0.10015
0.19971	0.07465
-0.79486	0.25320
-0.23382	0.15117
0.65874	0.15117
0.27621	0.20219
-0.48884	0.17668
1.75531	0.10015
-0.33583	-0.00188
0.27621	-0.02739
0.35272	0.22769
-0.20832	0.32972
1.39828	0.27871
-1.58541	0.27871
-1.53441	0.07465
-0.18282	-0.23145
1.72980	0.12566
1.47479	0.43176
0.35272	0.15117
-0.97337	0.20219
-0.69285	0.15117
0.25071	0.07465
0.30171	0.04914
0.68424	0.15117
0.27621	0.07465
0.22521	0.02363
0.50573	0.43176
1.65330	0.04914
1.93382	0.17668
-1.43240	0.17668
-4.72211	-0.12942
-0.15732	0.12566
1.62780	0.17668
1.39828	0.04914
0.81175	0.22769
-0.66735	0.15117
0.48022	0.17668
0.65874	0.17668
1.32178	-0.02739
0.48022	0.15117
-3.09000	0.02363
-0.31033	0.07465
0.99026	0.25320
0.53123	-0.00188
-0.08081	0.07465
0.30171	0.15117
0.81175	0.32972
1.32178	0.61031
1.60230	0.35523
-0.59084	0.25320
-4.41609	-0.05289
1.19427	0.10015
1.83181	-0.23145
-0.28482	-0.23145
0.60773	-0.23145
-0.00431	0.20219
-0.33583	0.35523
0.27621	0.27871
0.96476	0.15117
-0.13181	0.32972
0.07220	0.61031
-1.35589	0.04914
0.93925	0.12566
-0.08081	-0.05289
0.73524	-0.07840
0.73524	-0.02739
-1.53441	0.10015
0.42922	0.27871
1.34728	0.30422
0.19971	-0.00188
0.30171	0.15117
-0.05531	0.04914
-1.55991	-0.15492
-0.89686	0.22769
-0.23382	0.35523
0.50573	0.66132
0.78624	0.45726
1.16877	0.15117
1.39828	-0.05289
1.14327	-0.20594
-0.28482	-0.15492
-1.73842	0.04914
0.76074	0.02363
-0.20832	0.20219
1.29628	0.22769
0.12320	0.07465
-2.55447	0.04914
-1.25389	0.50828
0.48022	0.45726
0.14870	-0.30797
1.16877	-0.10391
0.73524	0.22769
0.35272	0.25320
0.22521	0.04914
-0.38683	0.38074
0.04670	0.17668
0.25071	0.15117
0.40372	-0.05289
0.93925	0.22769
1.93382	0.07465
-0.08081	0.10015
-1.33039	-0.00188
-2.57997	0.15117
0.65874	0.20219
1.19427	0.30422
-0.20832	0.25320
-1.04987	0.30422
0.30171	0.20219
1.19427	-0.25695
1.65330	0.15117
-0.28482	0.45726
-0.48884	0.45726
1.70430	0.04914
1.72980	-0.00188
0.42922	-0.00188
-1.94243	0.04914
-1.91693	0.25320
0.22521	0.32972
0.60773	-0.10391
0.60773	-0.12942
1.34728	0.27871
-0.05531	0.38074
-0.84586	0.02363
-0.00431	0.27871
0.73524	0.15117
1.16877	0.22769
0.99026	0.22769
-0.33583	0.22769
-0.00431	-0.23145
1.78081	0.20219
-1.35589	0.07465
-0.74385	0.35523
0.53123	0.40625
0.37822	0.17668
-0.23382	0.10015
0.48022	-0.15492
0.04670	0.07465
-0.15732	0.25320
1.70430	0.30422
-3.85505	0.25320
0.25071	0.04914
1.50029	-0.10391
0.07220	0.17668
0.42922	0.27871
1.67880	0.20219
-0.48884	0.02363
-0.53984	0.15117
1.42379	0.20219
-0.00431	0.02363
-0.05531	0.20219
-0.41233	0.25320
-2.37596	-0.02739
-1.48340	0.02363
0.96476	0.35523
0.88825	0.27871
1.04126	0.35523
0.63323	-0.07840
0.55673	-0.35899
-0.31033	-0.15492
-0.10631	0.38074
-0.13181	0.58480
-0.66735	0.40625
0.68424	0.32972
-0.51434	-0.10391
0.07220	-0.18043
0.27621	-0.07840
0.50573	0.30422
0.70974	0.38074
0.91375	0.35523
0.22521	0.22769
-0.48884	-0.20594
0.02119	0.04914
-1.20288	0.02363
0.81175	0.07465
1.39828	0.27871
-1.78942	0.30422
2.13783	0.30422
2.54586	0.25320
-3.24301	0.02363
-2.19745	-0.05289
-0.46334	-0.12942
2.36734	-0.15492
1.57679	0.15117
-4.00806	-0.12942
-1.07538	0.07465
3.13239	0.25320
1.47479	0.78886
1.55129	0.61031
1.16877	0.50828
-0.66735	0.15117
-0.89686	0.07465
-0.59084	-0.41000
0.02119	0.02363
0.86275	0.17668
-1.25389	0.10015
-0.33583	0.25320
1.19427	0.04914
-0.18282	0.12566
0.50573	0.20219
-0.48884	0.12566
0.73524	0.25320
-0.25932	0.15117
0.27621	0.30422
0.42922	0.22769
0.19971	-0.07840
0.25071	0.07465
0.96476	0.02363
1.50029	0.20219
-0.51434	0.35523
-1.81492	0.12566
-0.43783	0.04914
1.37278	0.32972
1.14327	0.22769
-0.13181	0.07465
0.40372	0.25320
-1.20288	0.15117
-0.13181	0.20219
-0.15732	-0.00188
0.25071	-0.00188
0.50573	-0.02739
0.55673	0.40625
0.81175	0.07465
1.24527	-0.00188
-0.38683	-0.00188
-0.20832	-0.15492
0.40372	0.43176
0.63323	0.30422
-1.22839	0.43176
0.93925	0.53379
0.25071	-0.25695
-0.18282	-0.25695
0.40372	0.02363
-0.82036	0.12566
0.04670	-0.05289
-0.53984	0.20219
-0.28482	0.30422
0.63323	0.40625
1.19427	0.32972
1.14327	0.35523
0.60773	0.22769
-0.41233	-0.00188
0.76074	0.20219
0.40372	0.15117
-1.25389	-0.46102
-0.31033	0.10015
0.22521	0.04914
0.58223	0.10015
0.04670	0.15117
0.96476	0.43176
-0.38683	0.38074
0.25071	0.17668
0.86275	-0.07840
-1.20288	0.25320
0.32721	0.20219
-2.73298	0.07465
-1.10088	0.07465
0.91375	-0.15492
1.44929	0.20219
1.78081	0.22769
0.17421	0.32972
0.53123	0.07465
0.58223	-0.00188
-0.18282	0.40625
-0.89686	0.10015
-0.33583	0.10015
-0.38683	0.15117
0.96476	0.10015
0.93925	0.27871
0.93925	0.38074
-0.43783	-0.00188
-2.32496	-0.00188
0.02119	-0.05289
0.78624	-0.05289
0.35272	0.04914
0.99026	-0.18043
1.98482	0.12566
-0.28482	0.27871
-1.20288	0.55929
0.81175	0.22769
0.83725	0.35523
0.58223	0.17668
-1.40690	0.10015
0.37822	0.04914
0.12320	0.12566
-0.28482	0.12566
0.12320	0.17668
0.70974	0.32972
-0.15732	0.30422
0.70974	0.02363
0.14870	-0.10391
0.35272	0.15117
0.22521	0.04914
-0.69285	-0.02739
-1.17738	-0.07840
-0.08081	0.22769
0.86275	0.38074
1.19427	0.10015
0.27621	-0.00188
-0.18282	0.25320
0.35272	0.17668
0.48022	0.25320
0.76074	0.32972
0.42922	0.17668
-0.38683	0.17668
-1.22839	-0.00188
0.04670	0.32972
0.86275	0.15117
-1.30489	0.04914
0.81175	0.15117
1.60230	0.12566
-0.89686	0.25320
-0.00431	-0.02739
0.17421	-0.15492
0.30171	0.15117
-0.59084	0.30422
-0.08081	0.32972
0.78624	0.35523
1.09226	0.27871
0.12320	0.02363
-0.48884	0.25320
-0.56534	0.07465
0.60773	-0.00188
1.11776	-0.02739
-0.89686	-0.12942
-1.22839	0.15117
0.63323	0.07465
0.91375	0.35523
-0.59084	0.17668
0.93925	0.35523
1.09226	0.30422
0.12320	-0.02739
0.12320	0.25320
0.76074	0.12566
-0.89686	0.07465
-1.53441	0.07465
0.70974	0.22769
0.83725	0.40625
1.39828	0.25320
-1.43240	-0.00188
-0.48884	-0.15492
0.91375	0.22769
0.14870	-0.10391
-0.56534	0.04914
0.76074	0.30422
-0.05531	0.30422
0.50573	0.40625
0.65874	0.17668
1.24527	0.10015
-0.74385	-0.00188
-1.84042	0.25320
-0.66735	0.02363
1.16877	0.04914
1.62780	0.07465
1.24527	0.27871
0.53123	0.35523
-2.40146	0.07465
-0.10631	0.15117
-0.15732	0.04914
1.14327	0.04914
0.35272	-0.12942
-0.15732	0.58480
1.27078	0.58480
0.96476	0.15117
-0.51434	0.02363
-0.59084	-0.12942
-0.48884	0.07465
0.73524	0.07465
-0.46334	-0.02739
-1.53441	0.22769
0.40372	0.15117
1.14327	0.30422
1.42379	-0.00188
-0.66735	0.12566
0.86275	0.04914
0.96476	0.20219
1.09226	0.32972
-0.23382	0.32972
-1.81492	0.15117
-0.10631	-0.00188
-0.05531	-0.25695
0.60773	0.04914
0.76074	0.40625
0.19971	0.35523
0.12320	0.30422
0.65874	0.04914
-0.31033	-0.25695
-0.02981	0.20219
-0.23382	0.40625
-0.02981	-0.00188
-0.41233	0.17668
0.48022	0.04914
1.29628	0.10015
0.25071	0.12566
0.55673	0.40625
-0.51434	0.17668
-0.59084	0.17668
0.17421	-0.02739
0.68424	0.35523
-0.79486	-0.10391
-0.25932	-0.02739
1.09226	0.07465
1.04126	-0.05289
-0.02981	0.27871
-0.15732	0.27871
0.83725	0.20219
0.73524	0.10015
1.67880	0.25320
-2.14644	0.17668
-1.07538	0.10015
-0.05531	-0.07840
0.02119	0.07465
0.88825	0.32972
-0.69285	0.20219
-0.00431	0.15117
0.81175	0.15117
0.60773	0.25320
0.76074	0.15117
-0.10631	-0.15492
0.25071	0.22769
0.78624	0.15117
-0.10631	-0.05289
0.12320	0.22769
-0.84586	0.25320
-1.73842	0.30422
0.17421	-0.02739
1.32178	0.04914
0.81175	0.04914
-0.51434	0.20219
0.73524	0.40625
0.02119	0.32972
-0.82036	0.17668
0.35272	-0.00188
-0.18282	-0.10391
-0.31033	-0.05289
0.48022	0.17668
0.48022	0.15117
0.45472	0.32972
0.37822	0.17668
0.83725	0.43176
0.19971	0.15117
-0.20832	0.02363
-1.17738	-0.15492
-0.36133	0.12566
0.14870	0.20219
0.91375	0.12566
0.19971	0.10015
0.65874	0.25320
-1.20288	0.17668
0.22521	0.25320
1.24527	0.20219
0.17421	-0.05289
-1.61091	-0.07840
0.45472	0.07465
1.50029	-0.00188
0.07220	-0.15492
0.37822	0.30422
0.07220	0.58480
-0.00431	0.27871
1.47479	0.38074
0.22521	0.22769
-1.48340	0.17668
-0.69285	-0.23145
0.27621	-0.38449
0.19971	-0.02739
-0.33583	0.07465
0.02119	0.53379
2.03582	0.45726
0.27621	0.43176
0.07220	0.25320
-0.76936	0.02363
0.07220	-0.18043
0.12320	0.12566
-0.31033	0.15117
0.78624	-0.02739
-1.25389	0.02363
-0.76936	0.04914
1.14327	0.10015
0.14870	0.40625
0.68424	0.25320
0.04670	0.10015
0.50573	0.20219
0.32721	0.25320
0.81175	0.30422
0.76074	0.10015
0.25071	0.12566
-1.71292	-0.07840
-0.05531	0.27871
0.37822	0.10015
0.63323	0.04914
-0.69285	0.04914
-0.10631	0.10015
0.12320	0.25320
0.63323	0.25320
-0.13181	0.30422
0.40372	0.12566
0.19971	-0.00188
-0.74385	0.12566
1.93382	0.20219
-0.59084	0.10015
2.29084	0.20219
0.35272	0.15117
-1.78942	0.10015
-2.09544	0.04914
0.27621	0.15117
0.04670	0.25320
0.63323	0.15117
1.32178	0.30422
0.93925	0.30422
-1.02437	0.15117
-0.05531	0.17668
0.91375	0.22769
0.93925	0.12566
-0.00431	-0.20594
-0.20832	-0.02739
0.14870	0.27871
1.39828	0.10015
0.60773	-0.00188
0.07220	0.45726
-2.06994	0.35523
-0.48884	-0.00188
0.32721	-0.15492
0.50573	-0.05289
-1.10088	0.15117
1.11776	0.43176
-0.43783	0.32972
0.19971	0.04914
0.55673	0.17668
0.14870	-0.05289
0.99026	0.10015
0.65874	0.22769
0.30171	0.30422
0.09770	0.30422
0.30171	0.17668
0.30171	0.10015
-0.36133	-0.00188
-0.59084	-0.25695
-0.38683	0.12566
1.06676	0.45726
0.60773	0.40625
-0.53984	0.30422
-1.12638	0.04914
-0.36133	-0.05289
0.25071	0.10015
0.96476	-0.00188
0.99026	0.25320
-0.76936	0.10015
-0.56534	0.30422
1.06676	0.22769
0.78624	0.22769
0.07220	0.17668
-0.41233	0.30422
0.22521	0.25320
0.48022	0.15117
0.68424	-0.00188
-0.28482	-0.05289
0.02119	0.17668
0.02119	0.15117
-0.05531	0.17668
-1.55991	0.12566
1.09226	0.30422
1.04126	0.10015
0.78624	0.04914
0.58223	0.27871
0.65874	0.04914
-0.94787	-0.12942
-1.38139	0.04914
-0.74385	0.50828
1.34728	0.38074
1.39828	-0.05289
0.30171	0.20219
0.76074	0.30422
0.60773	0.15117
-0.10631	-0.00188
-0.87136	0.07465
0.35272	-0.02739
-0.25932	0.27871
-0.64185	0.04914
0.19971	0.10015
0.37822	0.22769
0.42922	0.15117
-0.31033	0.17668
0.12320	0.35523
0.68424	0.27871
0.32721	0.15117
0.42922	0.30422
-0.23382	0.17668
0.63323	-0.23145
-0.36133	-0.07840
1.60230	0.07465
-1.43240	-0.10391
-3.24301	0.17668
0.53123	0.32972
1.21977	-0.02739
0.78624	0.30422
1.06676	0.43176
0.70974	0.32972
-0.05531	0.12566
0.02119	0.22769
0.12320	0.12566
0.32721	0.04914
0.17421	-0.02739
0.07220	-0.05289
-0.64185	0.07465
-0.08081	0.20219
0.58223	0.10015
-0.69285	0.04914
-0.23382	0.15117
0.83725	0.32972
-0.20832	0.04914
-0.05531	0.02363
0.02119	0.10015
0.48022	0.25320
1.29628	0.20219
0.35272	0.04914
-1.10088	0.17668
-0.66735	0.38074
0.40372	-0.05289
1.24527	-0.18043
0.53123	-0.28246
-0.08081	0.25320
0.86275	0.40625
-0.59084	0.04914
-0.38683	0.55929
0.32721	0.40625
0.48022	0.20219
0.65874	0.15117
0.27621	0.22769
-1.10088	0.07465
0.30171	-0.00188
0.17421	0.12566
0.35272	0.17668
0.17421	0.07465
-0.28482	0.10015
-0.18282	0.02363
0.35272	-0.05289
0.42922	-0.07840
-0.15732	0.20219
-0.28482	0.25320
0.32721	0.25320
0.96476	0.38074
0.45472	-0.00188
0.09770	-0.02739
-0.38683	0.07465
0.93925	0.15117
-0.08081	0.27871
-0.33583	0.20219
-0.76936	-0.12942
0.91375	0.04914
-0.97337	0.22769
0.35272	0.35523
1.16877	0.25320
-0.02981	0.25320
0.02119	0.25320
0.53123	0.17668
-0.00431	0.30422
-0.13181	-0.05289
0.22521	0.02363
0.25071	0.07465
0.35272	0.02363
0.73524	0.15117
0.22521	0.17668
-0.41233	-0.02739
0.35272	0.15117
0.42922	0.07465
-0.79486	0.17668
-0.05531	0.27871
0.09770	0.17668
-0.10631	0.27871
0.45472	0.15117
0.50573	0.17668
0.07220	0.17668
1.21977	0.04914
0.58223	-0.02739
-1.94243	0.12566
-1.50890	0.25320
1.09226	0.55929
0.88825	0.58480
0.63323	0.10015
0.40372	-0.38449
1.11776	-0.05289
-0.08081	0.30422
-0.05531	0.35523
0.14870	0.25320
-0.51434	0.25320
-0.46334	0.12566
0.42922	0.04914
-0.53984	0.12566
-0.05531	-0.00188
0.93925	0.17668
1.19427	0.38074
-0.13181	0.30422
0.73524	0.17668
-0.51434	-0.05289
-0.71835	-0.02739
-0.38683	-0.00188
0.50573	0.12566
0.12320	0.25320
-1.45790	0.25320
0.22521	0.38074
1.72980	0.15117
0.60773	0.04914
1.01576	0.22769
0.07220	0.04914
-0.56534	-0.12942
0.04670	0.12566
-0.38683	0.25320
0.12320	0.10015
1.11776	0.27871
0.93925	0.38074
-0.36133	0.07465
-0.18282	-0.07840
0.70974	0.20219
-0.74385	0.22769
-0.08081	0.25320
0.17421	0.20219
0.78624	0.04914
0.02119	0.10015
-0.74385	0.22769
-0.69285	0.25320
1.39828	0.15117
1.01576	-0.02739
-0.97337	0.12566
0.22521	-0.10391
-0.48884	0.04914
-0.02981	0.25320
0.73524	0.17668
1.29628	0.30422
-0.13181	0.17668
-0.18282	0.27871
0.35272	0.27871
0.63323	-0.05289
-1.81492	-0.15492
-0.97337	0.04914
0.12320	0.12566
0.73524	0.10015
0.48022	0.25320
0.40372	0.22769
0.73524	0.25320
0.58223	0.32972
0.73524	0.10015
0.96476	0.20219
-0.66735	0.30422
-0.56534	0.15117
-0.08081	0.25320
-0.89686	-0.23145
-0.18282	-0.38449
0.45472	-0.10391
0.88825	0.25320
1.06676	0.48277
0.50573	0.32972
0.27621	0.40625
0.22521	0.27871
0.02119	0.15117
-0.59084	0.17668
-0.87136	0.15117
0.09770	0.17668
0.42922	-0.00188
0.78624	-0.00188
0.68424	0.07465
0.55673	0.15117
0.09770	0.22769
-2.17195	0.15117
0.40372	0.10015
0.96476	0.12566
0.99026	0.04914
0.45472	0.12566
-0.76936	0.53379
-0.46334	0.15117
0.04670	0.10015
0.73524	-0.00188
1.44929	0.12566
0.58223	0.25320
-1.99343	0.25320
0.19971	0.32972
0.30171	-0.02739
-0.13181	0.04914
0.35272	0.15117
1.42379	0.20219
0.04670	0.17668
-1.58541	0.12566
0.27621	0.12566
0.50573	0.30422
0.50573	0.04914
0.07220	0.15117
-0.33583	-0.20594
0.19971	-0.10391
1.50029	0.25320
-0.20832	0.38074
-0.76936	0.38074
-0.23382	0.15117
0.27621	0.02363
0.40372	0.04914
-0.48884	0.04914
0.22521	0.02363
1.21977	0.12566
0.99026	0.25320
0.37822	0.27871
0.07220	0.27871
-0.51434	-0.00188
-1.45790	-0.02739
0.19971	0.12566
0.60773	0.17668
0.02119	0.17668
0.78624	0.27871
1.42379	0.12566
-0.13181	0.10015
-0.05531	0.15117
0.55673	0.27871
-0.38683	0.32972
-0.38683	0.15117
-0.38683	0.02363
-0.08081	0.02363
0.50573	0.17668
-0.82036	-0.05289
0.55673	0.15117
0.25071	0.04914
-1.04987	0.15117
0.32721	0.35523
1.19427	0.30422
0.86275	0.12566
0.48022	0.15117
0.32721	0.22769
0.09770	0.07465
0.35272	0.04914
-0.08081	-0.05289
-0.48884	0.02363
-0.28482	0.30422
0.07220	0.35523
0.32721	0.15117
0.27621	0.15117
0.25071	-0.07840
-0.69285	-0.18043
-0.46334	0.10015
-0.36133	0.07465
0.27621	0.25320
1.83181	0.38074
2.31634	0.50828
-0.38683	0.32972
-1.20288	0.10015
0.37822	-0.02739
0.22521	-0.15492
-0.15732	-0.15492
-0.46334	-0.10391
0.25071	0.04914
0.19971	0.25320
0.60773	0.71234
0.40372	0.38074
0.83725	0.40625
-0.74385	0.04914
0.48022	0.04914
0.37822	-0.02739
-0.00431	-0.05289
-0.69285	-0.00188
-1.17738	0.10015
0.60773	0.27871
0.37822	0.12566
0.37822	0.17668
0.30171	0.22769
0.68424	0.20219
0.86275	0.20219
0.55673	0.04914
0.50573	-0.10391
0.04670	0.04914
-0.94787	0.22769
-0.48884	0.30422
0.02119	0.30422
0.60773	0.22769
0.86275	0.04914
-0.61635	-0.15492
0.53123	0.20219
0.48022	0.10015
0.63323	0.25320
-0.53984	0.25320
-1.20288	0.15117
0.50573	0.17668
0.25071	0.04914
-0.48884	-0.05289
0.09770	0.17668
2.01032	0.20219
1.24527	0.12566
-1.12638	0.32972
-0.18282	0.38074
0.19971	0.10015
0.76074	-0.05289
-0.13181	-0.07840
0.37822	-0.07840
-0.28482	0.20219
-0.18282	0.22769
0.40372	0.45726
0.14870	0.35523
0.63323	-0.00188
1.19427	0.22769
0.02119	0.07465
-0.61635	0.02363
-0.13181	0.15117
-0.43783	0.20219
0.02119	0.15117
0.09770	0.15117
0.70974	0.15117
0.58223	0.17668
-0.41233	0.07465
0.42922	-0.00188
-0.53984	-0.07840
0.17421	0.07465
0.96476	0.07465
-0.28482	0.25320
0.17421	0.48277
0.40372	0.35523
0.58223	0.10015
-0.02981	0.22769
-0.13181	0.12566
-0.23382	0.04914
0.07220	0.25320
-0.25932	0.25320
0.58223	0.10015
0.86275	0.15117
1.01576	0.07465
0.25071	0.02363
-0.64185	0.07465
-0.94787	0.15117
-0.13181	0.32972
-0.08081	0.15117
0.91375	-0.02739
0.19971	0.02363
-0.33583	0.15117
0.58223	0.25320
1.47479	0.25320
-0.61635	0.15117
0.27621	0.25320
-0.20832	0.10015
-0.10631	-0.02739
0.58223	0.38074
-0.36133	0.38074
-0.13181	-0.15492
-0.05531	-0.10391
0.68424	0.10015
0.73524	-0.41000
-0.53984	0.48277
0.42922	0.61031
0.02119	0.78886
-0.02981	0.48277
0.30171	0.07465
-0.00431	-0.07840
0.55673	-0.15492
0.32721	-0.10391
-0.79486	0.04914
0.48022	0.17668
0.65874	0.20219
0.12320	0.17668
0.42922	0.20219
0.02119	0.17668
-0.05531	0.12566
-0.84586	-0.02739
0.53123	0.17668
0.83725	0.12566
0.25071	0.32972
-0.25932	0.30422
0.14870	0.22769
0.17421	0.17668
0.53123	0.15117
0.09770	0.04914
-0.36133	-0.05289
-1.15188	0.02363
0.70974	-0.00188
0.32721	0.10015
0.32721	0.04914
0.53123	0.30422
-0.00431	0.32972
0.78624	0.25320
0.86275	0.22769
-0.46334	0.38074
-0.15732	0.27871
0.12320	-0.00188
0.09770	-0.02739
-0.48884	0.04914
0.02119	-0.00188
0.53123	0.22769
-0.00431	0.15117
0.02119	0.07465
0.17421	0.07465
-0.08081	0.10015
-0.66735	0.10015
0.40372	0.20219
2.67337	0.25320
0.30171	0.27871
-1.68742	0.15117
-0.28482	0.22769
-0.20832	0.15117
0.65874	0.17668
0.45472	0.04914
0.12320	0.07465
-0.25932	0.10015
0.25071	0.04914
-0.48884	-0.00188
0.22521	0.32972
0.96476	0.22769
0.19971	0.30422
-0.36133	0.02363
0.83725	-0.00188
0.78624	0.30422
0.12320	0.15117
0.42922	-0.00188
-0.33583	0.40625
0.27621	0.20219
0.42922	0.10015
-0.51434	0.10015
-0.61635	0.22769
0.19971	0.17668
-0.13181	0.07465
0.76074	0.17668
0.81175	0.15117
-0.41233	0.15117
-0.10631	-0.05289
0.09770	-0.07840
0.65874	-0.05289
-0.69285	0.12566
-0.10631	0.12566
0.88825	0.15117
0.53123	0.27871
0.42922	0.38074
0.73524	0.32972
0.04670	0.04914
-1.91693	-0.15492
-0.33583	0.10015
0.50573	0.20219
1.42379	0.27871
0.35272	0.22769
-0.18282	0.20219
0.83725	0.30422
1.29628	0.15117
-0.89686	0.02363
0.32721	-0.00188
0.25071	0.02363
-1.17738	0.04914
-0.79486	-0.05289
0.81175	0.15117
0.81175	0.22769
0.65874	0.32972
0.45472	0.22769
-0.48884	0.15117
-0.28482	0.27871
0.17421	0.07465
0.09770	-0.07840
0.68424	-0.05289
0.76074	0.10015
-0.08081	0.22769
-0.94787	0.30422
0.35272	0.45726
0.83725	0.32972
-0.15732	0.15117
0.35272	0.04914
0.60773	0.02363
-0.33583	0.10015
-1.35589	-0.07840
0.60773	-0.00188
0.32721	0.07465
0.32721	0.27871
1.67880	0.12566
0.19971	0.12566
-2.35046	0.22769
0.27621	0.20219
0.86275	0.10015
0.76074	0.12566
-0.05531	0.02363
0.09770	-0.00188
0.09770	0.27871
-0.23382	0.35523
-0.38683	0.27871
0.63323	0.15117
1.14327	0.10015
0.37822	0.15117
-1.53441	0.15117
0.37822	0.04914
0.02119	0.10015
0.09770	0.10015
-0.28482	0.15117
0.78624	0.15117
0.35272	0.25320
1.16877	0.15117
0.22521	0.20219
0.17421	0.07465
-0.18282	-0.10391
-0.41233	0.04914
-0.05531	0.12566
0.53123	0.22769
-0.20832	0.20219
-0.08081	0.04914
-0.53984	0.10015
0.14870	0.43176
1.21977	0.32972
0.65874	0.48277
-0.18282	-0.00188
-0.08081	-0.05289
0.55673	-0.00188
-0.56534	-0.02739
-0.59084	-0.00188
0.14870	0.38074
0.70974	0.25320
0.53123	0.10015
0.58223	0.20219
0.25071	-0.02739
0.86275	0.15117
0.35272	0.15117
-0.31033	0.20219
-0.66735	0.15117
-0.64185	0.04914
0.30171	0.04914
0.53123	0.07465
0.93925	0.15117
0.25071	0.25320
-0.48884	0.12566
0.09770	0.04914
0.45472	0.12566
0.04670	0.20219
-0.38683	-0.00188
0.04670	0.15117
0.76074	0.30422
0.14870	0.32972
1.09226	0.20219
0.68424	0.20219
0.07220	0.04914
-0.33583	0.10015
0.17421	-0.15492
0.22521	0.02363
-0.33583	-0.07840
-0.76936	0.02363
0.09770	0.15117
0.55673	0.35523
0.63323	0.20219
0.32721	0.38074
0.40372	0.48277
0.17421	0.20219
0.09770	0.04914
-1.07538	-0.02739
0.48022	-0.02739
0.60773	-0.02739
0.32721	0.04914
-1.04987	0.07465
-0.08081	0.07465
1.85731	0.12566
-0.51434	0.17668
-0.31033	0.35523
-0.00431	0.25320
0.76074	0.17668
0.22521	0.02363
-0.02981	0.22769
-0.20832	0.17668
0.30171	0.15117
0.32721	-0.02739
0.55673	0.15117
0.40372	0.25320
0.14870	0.12566
-0.33583	-0.10391
0.12320	0.10015
0.22521	0.25320
-0.61635	0.25320
0.40372	0.10015
0.76074	0.15117
0.68424	0.15117
-0.13181	0.04914
-0.31033	0.10015
-0.79486	0.12566
1.42379	-0.02739
0.83725	0.30422
-0.00431	0.35523
-0.56534	-0.15492
-0.51434	0.15117
0.02119	0.12566
0.60773	0.15117
0.96476	0.12566
0.35272	0.25320
0.02119	0.20219
-0.33583	0.15117
0.27621	0.12566
0.78624	0.12566
0.35272	-0.02739
-0.25932	0.02363
-0.08081	0.04914
-0.23382	0.30422
0.19971	0.10015
0.22521	0.38074
-0.71835	0.27871
0.19971	0.04914
0.17421	0.02363
0.50573	0.07465
0.91375	0.07465
0.91375	0.22769
-1.02437	0.27871
0.02119	0.22769
0.32721	0.27871
0.55673	0.27871
0.09770	0.12566
0.07220	0.02363
-0.66735	-0.02739
0.30171	-0.00188
-0.13181	0.10015
-0.08081	0.25320
1.34728	0.35523
-0.64185	0.20219
-0.20832	0.20219
0.14870	-0.05289
0.42922	0.10015
-0.25932	0.15117
-1.15188	0.12566
0.37822	0.02363
0.58223	-0.05289
0.63323	0.25320
-0.08081	0.27871
-0.13181	0.38074
0.35272	0.40625
0.55673	0.20219
-0.08081	0.04914
0.09770	-0.05289
0.93925	0.40625
1.21977	-0.07840
0.53123	0.02363
-0.59084	-0.05289
-0.71835	0.10015
-0.84586	0.38074
-0.74385	0.02363
-0.08081	0.04914
-0.51434	0.15117
0.22521	0.12566
1.04126	-0.07840
1.14327	-0.02739
1.60230	0.53379
-0.20832	0.53379
-0.05531	0.27871
0.19971	0.04914
-0.74385	0.10015
-0.08081	0.12566
0.50573	0.07465
-0.00431	0.07465
0.19971	0.27871
0.60773	-0.23145
-0.25932	0.02363
0.30171	0.15117
-0.05531	0.32972
-0.18282	0.20219
0.25071	-0.00188
-0.02981	0.22769
-0.05531	0.10015
-0.00431	0.15117
-0.08081	0.40625
0.35272	0.32972
0.32721	-0.00188
0.37822	-0.02739
0.81175	0.07465
0.96476	0.25320
1.16877	0.22769
-0.05531	0.17668
-0.84586	0.07465
-0.69285	0.25320
-0.38683	0.15117
0.12320	0.15117
-0.08081	0.02363
0.37822	-0.15492
0.32721	0.07465
-0.00431	-0.07840
0.07220	0.02363
-0.08081	0.20219
-0.41233	0.12566
0.48022	0.43176
0.53123	0.17668
0.32721	0.02363
-0.41233	0.07465
0.60773	0.20219
0.88825	0.35523
0.68424	0.25320
0.53123	0.22769
-0.74385	0.27871
-0.18282	0.15117
0.22521	0.12566
-0.15732	-0.30797
-0.08081	-0.25695
0.09770	0.15117
0.42922	0.22769
0.50573	0.30422
-0.10631	0.20219
-0.02981	-0.05289
1.21977	0.15117
-0.61635	0.27871
-0.05531	-0.00188
0.32721	0.35523
-0.20832	0.22769
0.07220	0.12566
-0.64185	0.22769
0.27621	-0.00188
1.44929	0.10015
0.86275	0.12566
-0.46334	0.27871
-0.05531	0.12566
-0.31033	0.25320
0.02119	-0.05289
0.35272	-0.00188
-0.23382	0.04914
-0.28482	0.22769
0.65874	0.40625
1.24527	0.22769
-0.02981	0.22769
-0.18282	-0.07840
1.01576	0.04914
-0.46334	-0.05289
-0.97337	0.10015
0.48022	0.12566
1.29628	0.27871
-0.23382	0.20219
-0.74385	0.12566
-0.28482	0.20219
0.50573	0.15117
-0.02981	0.15117
0.07220	0.15117
0.88825	0.15117
0.70974	0.15117
0.04670	0.25320
-0.53984	0.12566
0.12320	0.07465
0.37822	0.04914
-0.13181	0.15117
0.40372	0.10015
0.63323	-0.00188
0.45472	0.04914
0.09770	0.07465
-0.13181	0.40625
-0.08081	0.22769
0.42922	0.30422
0.30171	-0.10391
0.22521	0.20219
0.09770	-0.18043
0.50573	-0.10391
-0.20832	0.32972
-0.20832	0.30422
0.27621	0.25320
0.25071	0.04914
-0.33583	0.20219
-0.97337	0.38074
0.48022	0.25320
1.32178	0.22769
1.50029	-0.05289
0.07220	-0.05289
-1.50890	-0.02739
0.04670	0.12566
-0.25932	0.02363
0.30171	0.12566
-0.28482	0.17668
-0.10631	0.15117
0.81175	0.22769
1.42379	0.25320
0.70974	0.22769
-0.18282	0.25320
0.07220	0.04914
-0.15732	-0.05289
-0.92237	0.22769
-0.56534	0.04914
0.58223	0.12566
0.88825	0.15117
-0.94787	-0.00188
-0.53984	0.15117
1.83181	0.12566
0.96476	0.35523
0.60773	0.32972
-0.23382	0.12566
0.04670	0.07465
-0.18282	-0.12942
-0.43783	-0.00188
-0.18282	0.22769
0.48022	0.30422
0.83725	0.25320
-0.10631	0.02363
-0.74385	0.20219
0.63323	0.12566
1.14327	0.04914
-0.08081	0.12566
-0.74385	0.02363
-0.31033	0.10015
0.45472	0.04914
0.81175	0.38074
-0.02981	0.17668
0.55673	0.17668
0.93925	0.27871
0.22521	0.10015
-0.66735	0.07465
0.14870	0.12566
-0.13181	0.17668
0.55673	0.22769
1.19427	0.15117
-0.33583	0.04914
-1.40690	0.15117
0.25071	0.27871
0.53123	0.35523
1.04126	0.25320
0.83725	0.07465
-0.28482	-0.05289
-0.61635	-0.20594
-0.43783	-0.20594
-0.43783	0.07465
0.53123	0.27871
0.30171	0.30422
0.14870	0.20219
0.63323	0.22769
-0.08081	0.12566
0.19971	0.12566
0.09770	0.07465
-0.00431	0.12566
1.19427	0.20219
-0.00431	0.12566
0.37822	0.04914
-0.00431	0.22769
0.04670	0.27871
-0.82036	0.10015
0.19971	0.02363
-0.08081	0.10015
0.53123	0.15117
0.22521	0.25320
-0.28482	0.02363
-0.28482	0.27871
0.22521	0.02363
1.72980	0.07465
-1.55991	-0.18043
-0.59084	0.04914
1.04126	0.43176
0.70974	0.32972
0.65874	0.07465
-1.33039	0.25320
0.50573	0.30422
1.47479	0.35523
0.50573	-0.02739
0.09770	0.04914
0.14870	0.10015
-0.15732	0.15117
-0.38683	0.12566
-0.33583	0.15117
-0.20832	0.15117
1.04126	0.15117
0.55673	0.07465
-1.12638	-0.02739
0.58223	0.43176
-0.31033	0.02363
-0.00431	0.17668
0.68424	0.07465
0.40372	0.22769
-0.05531	0.12566
0.50573	0.10015
1.01576	0.04914
-0.08081	0.30422
-0.38683	0.40625
0.27621	0.25320
0.55673	0.22769
-0.94787	0.04914
-0.02981	-0.10391
0.12320	-0.15492
0.76074	0.10015
0.32721	0.04914
0.22521	0.04914
0.42922	0.38074
-0.74385	0.17668
-0.92237	0.15117
0.35272	0.32972
0.99026	0.04914
0.53123	0.30422
0.19971	0.22769
-0.84586	0.30422
0.48022	0.15117
0.88825	-0.02739
1.39828	-0.00188
-0.87136	0.04914
-0.79486	0.10015
0.27621	0.07465
0.53123	0.25320
-0.00431	0.27871
0.25071	0.20219
-0.41233	-0.02739
0.17421	-0.07840
0.93925	0.10015
1.11776	0.22769
-0.31033	0.43176
-0.59084	0.15117
0.53123	0.40625
-0.33583	-0.05289
-0.61635	-0.18043
-0.38683	0.27871
0.55673	0.04914
0.99026	-0.02739
0.88825	0.10015
0.68424	0.15117
-0.76936	0.38074
0.37822	0.32972
0.63323	0.17668
-0.71835	0.04914
0.02119	0.17668
-0.05531	-0.02739
0.22521	-0.05289
0.12320	0.10015
0.17421	0.38074
0.32721	0.15117
0.27621	0.12566
0.09770	0.25320
-0.43783	-0.02739
0.27621	0.15117
-0.08081	0.12566
0.35272	0.07465
-0.28482	0.25320
0.42922	0.17668
0.81175	0.30422
-1.96793	0.02363
0.73524	0.27871
1.04126	-0.10391
0.68424	0.10015
0.45472	0.12566
0.48022	0.25320
0.17421	0.27871
-0.51434	0.15117
-0.02981	0.02363
0.14870	0.12566
0.25071	0.02363
0.04670	0.25320
-0.08081	0.10015
0.25071	0.15117
-0.33583	0.20219
0.55673	-0.02739
-0.61635	0.10015
0.12320	0.17668
0.73524	0.10015
-0.02981	0.02363
0.68424	0.15117
1.42379	0.30422
0.53123	0.12566
-0.56534	0.04914
-0.10631	0.43176
-0.74385	0.27871
-0.69285	0.27871
0.30171	0.30422
0.78624	0.02363
0.12320	-0.15492
0.40372	-0.23145
1.24527	0.12566
-0.23382	0.07465
-1.55991	0.38074
-0.05531	0.10015
0.83725	0.04914
1.14327	0.22769
-0.89686	0.15117
-0.00431	-0.12942
1.29628	0.15117
0.40372	0.07465
0.19971	0.30422
-0.10631	0.22769
-0.13181	0.20219
-0.61635	0.17668
0.17421	0.15117
1.19427	0.32972
-0.23382	0.04914
0.07220	0.17668
-0.71835	0.15117
0.19971	-0.12942
0.40372	0.10015
0.65874	0.17668
0.12320	0.40625
0.04670	0.43176
0.27621	0.10015
0.22521	-0.00188
-0.41233	-0.02739
0.35272	0.07465
0.37822	0.10015
0.07220	0.07465
-0.15732	0.30422
0.27621	0.20219
0.25071	0.15117
-0.41233	0.15117
0.48022	0.17668
0.02119	-0.15492
-0.02981	-0.00188
0.45472	0.15117
-0.25932	0.43176
0.76074	0.20219
0.27621	0.32972
-0.08081	0.12566
0.19971	0.10015
0.70974	-0.10391
0.37822	0.17668
-0.82036	0.15117
-0.38683	0.10015
0.37822	0.22769
0.65874	0.04914
0.35272	-0.05289
0.14870	0.07465
-0.33583	0.15117
-0.10631	0.07465
0.70974	0.30422
0.50573	-0.00188
0.02119	0.30422
-0.18282	0.22769
0.17421	0.27871
-0.00431	-0.05289
-0.64185	-0.05289
0.17421	0.17668
0.25071	0.30422
0.17421	0.17668
0.48022	0.15117
0.37822	0.20219
-0.13181	-0.05289
0.63323	0.12566
-0.46334	0.27871
0.86275	0.25320
1.75531	0.10015
0.04670	0.04914
-0.51434	0.10015
0.02119	0.10015
-1.15188	0.07465
-1.22839	0.27871
1.01576	-0.05289
0.63323	0.20219
0.40372	0.15117
0.09770	0.07465
0.53123	-0.05289
-0.59084	-0.02739
0.68424	0.30422
-0.08081	0.30422
0.40372	0.25320
0.42922	0.35523
0.32721	0.10015
0.27621	0.04914
-0.00431	0.10015
-1.25389	0.12566
0.42922	0.15117
0.40372	0.04914
0.42922	0.12566
0.35272	0.15117
-0.00431	0.20219
0.70974	0.17668
-0.56534	0.12566
0.37822	-0.02739
0.53123	0.12566
-0.15732	0.12566
0.12320	0.07465
0.12320	0.27871
0.27621	0.25320
-0.00431	0.32972
0.02119	0.04914
0.12320	0.12566
-0.23382	-0.10391
-0.28482	0.15117
1.11776	0.07465
0.37822	0.12566
-0.38683	0.22769
0.17421	0.32972
0.35272	0.32972
-0.31033	-0.05289
0.58223	0.38074
0.32721	0.15117
-0.08081	0.15117
0.68424	0.15117
-0.05531	0.15117
-0.46334	-0.12942
-0.23382	-0.07840
0.37822	-0.30797
0.55673	-0.00188
-1.04987	0.35523
0.22521	0.45726
0.73524	0.48277
0.30171	0.48277
0.73524	0.20219
0.17421	0.07465
-0.05531	0.10015
0.02119	-0.05289
0.07220	-0.00188
0.09770	0.10015
0.35272	-0.00188
-0.53984	0.22769
0.12320	0.10015
0.14870	0.15117
-0.84586	0.04914
0.45472	0.25320
0.42922	0.02363
-0.41233	0.12566
0.70974	0.38074
0.76074	0.25320
0.81175	0.12566
0.25071	0.04914
-0.08081	-0.02739
-0.61635	-0.20594
-0.05531	0.07465
0.19971	0.10015
-1.10088	0.25320
0.42922	0.22769
0.30171	0.15117
0.63323	0.25320
0.53123	0.27871
0.48022	0.25320
0.53123	0.25320
0.14870	-0.00188
-0.00431	0.10015
-0.00431	0.10015
-0.10631	0.07465
-0.71835	-0.15492
1.11776	0.02363
0.91375	0.25320
-1.17738	0.10015
-0.76936	0.25320
0.45472	0.07465
0.07220	-0.12942
0.40372	0.10015
-0.23382	0.20219
0.22521	0.25320
1.27078	0.45726
0.12320	0.20219
0.73524	0.27871
-0.20832	0.22769
0.30171	-0.05289
0.30171	0.17668
-0.48884	0.07465
0.42922	0.15117
-0.25932	0.04914
-0.69285	0.04914
0.09770	0.04914
0.02119	0.12566
1.47479	0.12566
-0.10631	0.12566
-0.41233	0.30422
0.12320	0.25320
0.40372	0.04914
0.35272	0.15117
0.50573	-0.02739
-0.79486	0.20219
-0.94787	0.22769
0.63323	0.02363
0.50573	0.32972
0.07220	0.32972
0.55673	0.38074
0.40372	0.27871
0.14870	0.27871
-0.18282	-0.07840
0.70974	-0.02739
0.35272	0.12566
0.63323	0.10015
-0.15732	0.10015
-0.25932	0.20219
-0.66735	0.15117
-0.43783	-0.05289
-0.36133	0.15117
0.02119	0.04914
0.48022	0.15117
0.42922	0.02363
0.19971	-0.00188
0.14870	0.30422
-0.41233	0.25320
1.55129	0.25320
1.57679	0.35523
0.35272	0.25320
0.30171	0.17668
-0.23382	0.07465
0.02119	0.25320
-0.69285	-0.07840
-0.53984	-0.00188
-0.33583	0.25320
-0.15732	0.07465
0.63323	0.12566
0.55673	0.25320
0.48022	-0.05289
0.17421	0.22769
-0.56534	0.02363
-0.02981	0.15117
0.32721	0.17668
0.17421	0.32972
0.22521	0.15117
0.73524	0.02363
1.01576	0.20219
-0.59084	0.07465
-0.64185	0.02363
0.60773	0.10015
0.86275	0.27871
-0.46334	0.17668
-0.66735	0.07465
0.42922	0.10015
0.32721	0.22769
-1.33039	0.17668
0.48022	0.04914
0.93925	0.20219
0.86275	-0.00188
-0.08081	0.07465
-0.28482	0.10015
-0.00431	0.20219
0.76074	0.30422
0.02119	0.17668
-0.41233	0.02363
0.19971	0.10015
0.78624	0.22769
0.42922	0.12566
-0.31033	0.12566
0.50573	0.20219
0.81175	0.27871
-0.79486	0.07465
0.04670	0.27871
-0.08081	-0.02739
0.68424	0.04914
0.27621	0.10015
-0.59084	0.12566
-0.38683	0.25320
-0.76936	0.25320
0.02119	0.10015
1.24527	0.10015
0.63323	0.10015
0.27621	0.30422
-0.15732	0.10015
0.19971	0.30422
0.63323	0.07465
-0.00431	0.04914
-0.51434	-0.15492
1.04126	0.32972
0.12320	0.38074
0.22521	0.40625
-0.31033	0.10015
-0.76936	-0.05289
-0.56534	-0.00188
1.44929	0.15117
-0.18282	0.10015
-0.53984	0.10015
0.19971	-0.23145
0.50573	0.10015
0.42922	0.45726
-0.23382	0.15117
0.86275	0.15117
0.55673	0.12566
-0.46334	0.12566
1.21977	0.15117
0.30171	0.02363
-1.20288	-0.12942
0.22521	0.25320
0.76074	0.20219
-0.05531	0.15117
-0.23382	0.10015
0.12320	0.22769
0.19971	0.15117
0.70974	0.22769
0.19971	0.12566
-0.18282	-0.02739
-0.53984	0.07465
-1.50890	0.17668
1.16877	0.55929
0.50573	0.25320
1.09226	0.27871
-0.31033	0.02363
0.02119	-0.02739
-0.59084	0.02363
0.65874	0.27871
0.25071	-0.05289
0.19971	0.02363
1.14327	0.27871
0.27621	0.38074
-0.02981	0.02363
0.12320	0.25320
0.07220	-0.02739
0.27621	0.04914
-1.30489	0.02363
0.19971	0.32972
0.55673	0.40625
0.53123	0.35523
0.60773	0.17668
0.40372	-0.00188
-0.56534	0.04914
-0.02981	0.20219
-0.08081	0.04914
-0.05531	-0.00188
0.76074	-0.12942
0.68424	0.15117
-0.20832	0.22769
-0.46334	0.30422
0.12320	0.25320
-0.10631	0.22769
-0.10631	-0.05289
0.19971	0.12566
0.48022	0.04914
0.60773	-0.05289
-0.48884	0.04914
-0.79486	-0.15492
0.65874	0.22769
0.42922	0.40625
-0.10631	0.68683
-0.41233	0.32972
1.44929	0.10015
0.09770	-0.18043
-0.13181	-0.02739
0.60773	0.07465
-0.74385	0.20219
0.12320	0.35523
0.40372	0.17668
-0.18282	0.04914
-0.23382	0.10015
0.12320	0.07465
0.76074	0.32972
0.37822	0.12566
-1.27939	-0.18043
-0.28482	-0.02739
-0.56534	0.15117
0.81175	0.17668
0.91375	0.30422
0.99026	0.20219
0.78624	0.35523
-0.02981	0.17668
-0.69285	0.10015
0.42922	0.02363
0.22521	-0.12942
0.02119	0.15117
-0.05531	0.12566
0.86275	0.17668
0.60773	0.25320
-1.40690	0.02363
-1.43240	0.02363
0.81175	0.22769
1.32178	0.40625
0.65874	0.10015
-0.31033	-0.00188
-1.17738	0.07465
-0.02981	0.32972
0.50573	-0.00188
0.58223	-0.05289
0.50573	-0.05289
0.53123	0.32972
0.81175	0.40625
0.14870	0.20219
-0.38683	0.35523
1.21977	0.10015
1.04126	-0.07840
-0.00431	0.22769
0.02119	0.12566
-0.20832	0.10015
-0.76936	-0.05289
-1.10088	0.12566
0.42922	-0.00188
0.73524	0.15117
0.78624	0.30422
-0.53984	0.22769
0.12320	0.12566
0.37822	0.15117
0.12320	-0.18043
0.35272	0.22769
1.44929	0.38074
-0.61635	0.20219
-0.02981	0.25320
0.60773	0.30422
1.01576	0.35523
-0.36133	0.15117
-0.71835	-0.15492
-0.94787	-0.35899
0.37822	-0.12942
0.58223	0.10015
0.32721	0.30422
0.73524	0.40625
0.63323	0.30422
-0.15732	0.15117
-0.33583	0.17668
-0.33583	0.15117
0.09770	-0.02739
-0.08081	0.25320
-0.18282	0.07465
0.50573	0.12566
0.35272	0.20219
0.76074	0.27871
-0.99887	0.10015
0.53123	0.12566
0.83725	0.20219
0.27621	0.12566
0.12320	0.25320
0.12320	0.12566
-0.15732	0.02363
-0.36133	0.04914
-0.79486	0.10015
0.55673	0.22769
0.17421	-0.02739
0.07220	0.30422
0.42922	0.10015
0.60773	0.27871
0.30171	-0.00188
-0.00431	0.07465
0.22521	0.10015
0.40372	0.30422
-0.13181	0.17668
-0.89686	0.12566
0.32721	0.25320
-0.05531	-0.02739
0.53123	0.27871
0.42922	0.07465
0.70974	0.04914
0.93925	0.15117
0.68424	0.15117
-0.13181	0.20219
-1.33039	0.20219
-0.36133	0.12566
-0.02981	0.02363
0.30171	0.17668
0.22521	0.04914
0.40372	0.02363
-0.20832	0.04914
0.12320	-0.00188
0.37822	0.07465
-0.18282	0.07465
-0.36133	0.10015
1.24527	0.55929
0.91375	0.38074
-0.00431	0.48277
0.30171	0.15117
-0.02981	0.15117
0.35272	0.22769
0.07220	0.02363
0.02119	0.04914
-0.31033	0.02363
-0.18282	0.04914
0.35272	0.20219
0.02119	0.17668
0.17421	0.10015
0.12320	0.12566
0.12320	0.02363
0.60773	0.17668
0.35272	0.25320
0.22521	0.12566
-0.76936	0.10015
-0.00431	0.20219
0.09770	0.35523
-1.02437	0.30422
0.65874	0.32972
1.06676	-0.07840
0.42922	-0.25695
0.22521	-0.12942
0.09770	-0.18043
0.45472	0.04914
0.22521	0.25320
-0.38683	0.58480
0.50573	0.58480
0.40372	0.38074
0.55673	0.10015
0.14870	0.27871
-0.31033	0.15117
-0.51434	-0.07840
-0.61635	-0.05289
0.30171	-0.05289
0.37822	-0.00188
0.02119	0.04914
0.32721	0.15117
-0.10631	0.07465
0.07220	0.25320
-0.02981	0.17668
1.32178	0.30422
0.78624	0.45726
0.02119	0.10015
-1.38139	0.15117
0.65874	0.12566
0.73524	0.04914
0.32721	0.22769
-0.08081	0.12566
0.45472	0.07465
0.58223	-0.07840
0.53123	0.43176
-0.02981	0.17668
-0.20832	0.22769
-0.13181	0.25320
0.07220	0.30422
0.09770	0.22769
-0.13181	0.04914
0.19971	-0.00188
1.06676	0.20219
-0.08081	0.07465
0.35272	-0.12942
-1.22839	0.04914
0.25071	-0.00188
0.07220	0.22769
-0.84586	0.22769
-0.18282	0.07465
0.73524	0.30422
1.04126	0.30422
1.06676	-0.00188
0.07220	0.10015
0.86275	0.17668
0.02119	0.12566
0.48022	0.25320
0.40372	0.04914
-0.66735	0.07465
-0.99887	0.30422
-0.94787	-0.00188
-0.08081	0.27871
0.99026	0.27871
1.01576	0.35523
1.32178	0.35523
0.63323	0.02363
-1.84042	-0.20594
-1.71292	0.15117
0.73524	0.10015
1.06676	0.02363
1.16877	0.04914
0.78624	0.38074
1.24527	0.07465
-0.31033	0.22769
-0.56534	0.27871
1.01576	0.10015
0.14870	0.07465
-0.36133	0.07465
-0.23382	0.17668
-0.38683	0.20219
-0.23382	0.35523
-0.10631	0.17668
0.76074	0.15117
0.65874	0.12566
0.42922	0.15117
-0.10631	-0.07840
-0.89686	-0.02739
-0.69285	-0.02739
0.19971	0.07465
0.60773	0.12566
0.53123	0.30422
0.63323	0.35523
1.09226	0.15117
0.65874	0.32972
0.32721	0.04914
-1.68742	-0.02739
-0.23382	0.10015
0.88825	0.04914
0.02119	0.12566
0.50573	0.17668
0.37822	-0.00188
-0.71835	0.15117
0.04670	0.25320
0.35272	0.25320
0.12320	0.15117
-0.02981	-0.12942
-0.36133	0.02363
0.42922	0.04914
0.09770	0.10015
0.32721	0.12566
0.04670	0.32972
0.48022	0.38074
0.70974	0.17668
0.32721	0.07465
0.25071	-0.00188
-0.02981	0.12566
-0.89686	0.15117
-0.08081	0.02363
0.37822	0.35523
0.14870	0.15117
0.70974	0.15117
0.22521	0.15117
0.60773	0.17668
0.30171	0.04914
-0.13181	0.10015
0.09770	0.12566
-0.48884	-0.00188
-0.00431	0.07465
0.12320	0.10015
0.02119	0.20219
0.58223	0.30422
0.86275	0.27871
0.76074	0.38074
1.21977	0.15117
-0.94787	0.15117
-1.61091	0.04914
-0.94787	-0.10391
0.58223	0.10015
0.93925	0.35523
-0.33583	0.04914
-0.38683	0.10015
1.16877	0.20219
0.14870	0.22769
0.81175	0.20219
0.40372	0.10015
-0.43783	0.04914
-0.10631	0.15117
0.60773	0.12566
1.37278	0.15117
0.02119	0.22769
-0.38683	0.38074
-0.18282	0.35523
0.14870	0.32972
-0.38683	-0.00188
0.02119	-0.23145
-0.23382	-0.23145
-0.13181	-0.07840
-0.33583	0.35523
0.53123	0.30422
0.53123	0.10015
0.88825	0.12566
0.27621	0.22769
0.27621	0.48277
0.45472	0.35523
0.02119	0.27871
-0.46334	-0.00188
0.65874	0.17668
0.93925	0.07465
-0.46334	0.07465
-0.53984	0.15117
-0.18282	0.10015
0.07220	0.15117
0.53123	0.15117
1.34728	-0.00188
-1.10088	-0.12942
-1.43240	0.15117
0.78624	0.30422
1.34728	0.22769
0.73524	0.17668
-0.13181	0.15117
0.78624	0.32972
0.81175	0.43176
-0.31033	-0.00188
-1.76392	0.04914
-1.02437	-0.05289
-0.02981	0.20219
0.27621	0.15117
0.55673	0.32972
0.55673	0.04914
0.63323	0.45726
0.42922	0.10015
0.09770	0.17668
0.19971	0.02363
0.32721	0.20219
-0.13181	-0.00188
-0.71835	-0.00188
0.07220	-0.12942
0.42922	0.07465
-0.15732	0.35523
-0.10631	0.27871
0.07220	0.12566
0.86275	0.17668
1.37278	0.25320
0.76074	0.30422
-0.59084	0.04914
-0.41233	-0.05289
0.42922	-0.05289
-0.23382	0.02363
-1.20288	0.10015
-0.18282	0.20219
1.85731	0.32972
0.83725	0.45726
-0.89686	0.02363
0.50573	0.12566
0.37822	-0.02739
0.07220	0.17668
0.09770	0.04914
0.30171	0.22769
0.22521	0.15117
0.40372	0.32972
0.07220	0.10015
0.14870	-0.25695
-0.20832	0.04914
0.40372	0.43176
0.17421	0.07465
0.40372	0.12566
-0.13181	0.12566
-0.51434	0.27871
0.09770	0.12566
0.42922	0.17668
-0.13181	0.30422
0.35272	0.17668
0.27621	0.27871
0.22521	0.10015
0.50573	-0.02739
1.29628	0.22769
0.42922	0.15117
-0.08081	0.04914
-0.97337	0.02363
0.02119	-0.10391
-1.30489	0.22769
-1.04987	0.22769
0.12320	0.25320
1.32178	0.30422
1.78081	0.27871
0.91375	0.10015
-0.61635	-0.05289
-0.08081	0.07465
-0.51434	0.22769
-0.00431	0.12566
0.04670	0.30422
0.30171	0.07465
0.60773	0.12566
-0.74385	0.22769
-0.18282	0.02363
0.04670	0.43176
0.73524	0.30422
1.21977	-0.00188
-0.13181	-0.23145
-0.23382	-0.05289
-1.10088	0.02363
0.48022	0.40625
1.14327	0.32972
0.02119	0.20219
0.78624	0.20219
-0.08081	0.04914
-0.25932	0.04914
0.02119	0.07465
0.22521	0.15117
-0.00431	0.30422
-0.23382	0.30422
-0.61635	0.12566
1.04126	0.02363
1.98482	0.12566
-0.69285	0.15117
-0.10631	0.15117
-0.23382	0.07465
-0.05531	0.10015
0.32721	0.30422
-0.36133	-0.02739
-0.08081	-0.00188
0.22521	0.30422
0.19971	0.22769
0.37822	0.25320
0.22521	0.10015
0.37822	0.20219
-0.20832	0.30422
-0.00431	0.07465
0.65874	-0.00188
0.96476	0.10015
1.06676	0.12566
-0.43783	0.32972
0.17421	0.17668
-0.18282	0.07465
-0.59084	-0.00188
-0.94787	-0.10391
0.22521	-0.02739
0.50573	0.10015
-0.02981	0.25320
0.55673	0.20219
0.53123	0.17668
-0.87136	0.12566
0.76074	0.27871
1.24527	0.32972
0.53123	0.07465
0.02119	0.17668
0.04670	0.20219
-1.02437	0.07465
0.48022	0.07465
0.96476	-0.02739
-0.33583	0.30422
-0.20832	0.35523
-0.28482	0.02363
0.88825	0.20219
0.37822	-0.00188
0.88825	0.04914
-0.38683	0.07465
-1.15188	-0.07840
-0.84586	0.04914
1.60230	-0.05289
0.58223	0.22769
0.30171	0.63582
-1.61091	0.22769
0.65874	0.22769
0.63323	0.17668
0.70974	0.17668
-0.10631	-0.05289
0.14870	0.04914
0.02119	0.10015
0.14870	0.17668
-0.13181	0.07465
0.96476	0.17668
-0.33583	0.20219
-0.13181	0.25320
0.32721	0.17668
-0.13181	0.04914
0.40372	-0.12942
0.68424	-0.20594
0.50573	0.35523
-0.97337	0.30422
1.19427	0.35523
0.63323	0.35523
-0.23382	-0.05289
0.50573	0.10015
-0.69285	-0.05289
0.50573	0.15117
-1.50890	0.07465
0.35272	0.17668
0.58223	0.20219
0.91375	0.12566
1.42379	0.17668
0.50573	0.25320
-0.51434	0.20219
-0.41233	0.25320
-0.20832	-0.00188
0.07220	0.07465
0.27621	0.02363
-0.10631	-0.00188
0.63323	0.35523
0.78624	0.15117
-0.64185	0.20219
-0.28482	0.15117
1.78081	0.17668
-0.02981	-0.00188
-0.64185	0.15117
1.04126	0.04914
-0.18282	0.25320
-0.20832	0.25320
0.09770	-0.05289
0.22521	0.12566
0.12320	-0.02739
0.07220	0.38074
0.22521	0.10015
0.32721	0.12566
0.42922	0.15117
-0.31033	-0.02739
0.07220	-0.05289
0.32721	0.04914
-0.08081	0.30422
-1.07538	0.35523
0.70974	0.22769
0.50573	0.15117
-0.00431	0.12566
-0.05531	0.12566
0.83725	0.12566
1.14327	-0.02739
-1.91693	0.10015
-0.59084	0.20219
0.32721	0.15117
0.30171	0.30422
0.30171	0.12566
1.21977	0.15117
1.27078	-0.00188
0.12320	0.20219
-0.61635	0.04914
-0.79486	0.22769
-0.38683	-0.05289
-0.18282	0.04914
0.42922	0.22769
0.91375	0.25320
-0.53984	0.07465
-0.20832	0.22769
0.53123	0.20219
1.09226	0.15117
0.58223	0.20219
0.37822	0.27871
-0.13181	0.30422
0.07220	-0.05289
-0.10631	0.02363
0.42922	0.02363
-0.15732	0.20219
-0.59084	0.10015
0.53123	0.12566
0.14870	0.25320
-0.53984	0.17668
-0.08081	0.02363
0.30171	-0.02739
0.07220	0.12566
0.48022	0.12566
0.27621	0.32972
0.83725	0.30422
1.42379	0.40625
-0.56534	0.15117
0.02119	-0.07840
-0.71835	0.12566
-1.04987	0.15117
-0.13181	0.15117
0.55673	-0.10391
0.70974	0.20219
0.99026	0.22769
0.19971	0.04914
-1.25389	0.12566
0.91375	0.15117
0.22521	0.17668
-0.00431	0.15117
-0.02981	0.02363
0.09770	0.30422
0.53123	0.17668
-0.43783	-0.05289
-1.10088	0.15117
0.27621	0.17668
0.86275	0.15117
0.96476	0.25320
0.63323	0.10015
-0.00431	0.04914
0.02119	-0.02739
0.12320	0.17668
0.32721	0.02363
-0.02981	0.17668
0.02119	0.40625
-0.23382	0.15117
-0.69285	0.02363
0.12320	0.15117
0.19971	0.17668
0.53123	0.17668
0.81175	0.32972
0.17421	-0.00188
0.37822	-0.10391
-0.02981	0.15117
0.12320	0.20219
-0.08081	0.35523
0.86275	0.15117
0.02119	0.15117
-0.13181	0.02363
0.32721	0.27871
-0.13181	0.12566
0.22521	0.30422
-0.33583	0.10015
-0.28482	0.02363
-0.05531	0.07465
0.60773	0.25320
-0.33583	0.32972
0.27621	0.04914
0.78624	0.35523
0.68424	0.15117
0.07220	-0.25695
-0.08081	-0.10391
0.19971	0.22769
0.65874	0.20219
0.12320	0.25320
-0.94787	-0.00188
0.17421	0.20219
-0.13181	0.10015
0.04670	0.10015
0.42922	0.17668
0.37822	0.04914
0.30171	0.27871
0.76074	0.27871
-0.64185	0.15117
-0.38683	0.10015
0.73524	0.17668
