0.25071	0.20219
0.27621	0.07465
0.04670	0.07465
-0.02981	0.15117
0.02119	0.15117
-0.08081	0.25320
0.07220	0.20219
0.14870	0.17668
0.14870	0.15117
0.30171	0.10015
0.35272	0.07465
0.22521	0.12566
0.25071	0.04914
0.12320	0.12566
-0.08081	0.17668
0.02119	0.15117
0.04670	0.27871
0.07220	0.15117
0.14870	0.22769
0.19971	0.25320
0.27621	0.07465
0.22521	0.15117
0.14870	0.12566
0.09770	-0.05289
0.02119	0.02363
0.09770	0.10015
0.40372	0.15117
0.27621	0.27871
0.02119	0.12566
-0.02981	0.12566
-0.10631	0.22769
0.22521	0.07465
0.27621	0.17668
0.27621	0.17668
0.12320	0.43176
-0.15732	0.27871
0.04670	0.10015
0.40372	0.15117
0.17421	0.15117
-0.13181	0.07465
0.48022	-0.00188
0.50573	0.07465
0.12320	0.22769
0.14870	0.20219
0.04670	0.04914
-0.13181	0.10015
-0.08081	0.12566
0.32721	-0.02739
0.22521	0.25320
0.27621	0.27871
0.37822	-0.00188
-0.08081	0.17668
-0.46334	0.22769
0.27621	0.15117
0.30171	0.02363
0.22521	0.15117
0.30171	0.17668
-0.02981	0.17668
0.12320	0.12566
0.14870	0.07465
0.17421	0.15117
0.25071	0.22769
0.32721	0.12566
0.09770	0.07465
0.12320	0.10015
0.04670	0.27871
0.12320	0.20219
0.35272	0.04914
0.12320	0.20219
0.17421	0.07465
-0.02981	0.04914
0.09770	0.12566
0.19971	-0.00188
0.04670	0.15117
0.04670	0.25320
0.22521	0.20219
0.22521	0.25320
-0.08081	0.15117
0.07220	0.04914
0.17421	0.12566
0.27621	0.07465
0.35272	0.10015
0.50573	0.07465
0.27621	0.35523
-0.18282	0.15117
-0.23382	0.07465
-0.10631	0.15117
0.35272	0.17668
0.35272	0.27871
-0.10631	0.15117
0.02119	0.07465
0.42922	-0.07840
0.12320	0.15117
0.14870	-0.00188
-0.38683	0.15117
-0.08081	0.22769
0.32721	0.17668
0.19971	0.20219
0.45472	0.10015
0.04670	0.25320
0.70974	0.12566
0.32721	0.20219
-0.05531	0.27871
0.17421	0.17668
0.17421	0.20219
-0.00431	-0.02739
0.04670	0.22769
-0.33583	0.07465
0.19971	0.04914
0.19971	0.22769
0.42922	0.15117
0.14870	-0.05289
0.30171	0.10015
-0.36133	-0.00188
0.37822	0.32972
-0.33583	0.32972
-0.41233	0.27871
-0.08081	0.38074
0.50573	0.04914
1.09226	0.12566
1.01576	-0.10391
0.58223	0.12566
-0.23382	0.12566
-0.15732	0.12566
0.07220	0.20219
0.19971	-0.18043
-0.10631	0.22769
-0.18282	0.25320
-1.22839	0.20219
-0.15732	0.17668
1.32178	0.17668
1.62780	0.04914
0.81175	0.30422
-0.15732	0.30422
-0.84586	0.25320
-0.74385	0.25320
-0.66735	0.02363
0.83725	-0.05289
1.62780	-0.41000
1.42379	0.02363
-1.25389	0.25320
-0.59084	0.04914
0.35272	0.25320
1.06676	0.27871
0.14870	0.07465
-0.00431	0.17668
-0.20832	0.17668
-2.04444	0.35523
-0.31033	0.30422
0.91375	-0.15492
1.09226	0.15117
0.65874	0.22769
0.76074	0.15117
0.22521	0.15117
0.07220	-0.12942
-0.41233	0.10015
-0.64185	-0.00188
-0.23382	0.12566
0.09770	-0.15492
2.16333	0.48277
-1.10088	0.50828
-1.38139	0.25320
-0.41233	-0.35899
0.96476	-0.05289
0.73524	0.43176
0.32721	0.32972
1.60230	0.73785
-2.45246	-0.25695
-0.41233	0.07465
1.72980	-0.35899
1.72980	0.02363
1.09226	0.32972
0.04670	0.45726
-0.23382	-0.18043
-0.84586	0.50828
-0.84586	0.43176
0.83725	0.38074
0.53123	0.17668
-0.33583	-0.10391
-0.64185	0.02363
-1.50890	0.07465
-0.51434	-0.02739
2.44385	0.04914
0.86275	0.40625
-1.33039	-0.28246
0.63323	0.35523
0.88825	0.35523
-0.02981	0.71234
-0.00431	0.55929
-0.02981	0.12566
0.50573	-0.38449
0.19971	-0.63957
0.40372	0.04914
1.70430	0.48277
0.76074	0.48277
-0.92237	0.17668
-3.14101	-0.18043
0.25071	0.30422
0.53123	0.04914
1.55129	0.07465
0.12320	0.12566
0.04670	0.30422
-0.38683	0.35523
1.21977	0.17668
1.98482	-0.05289
-0.15732	0.12566
-1.68742	0.50828
-0.10631	0.17668
-0.43783	-0.48652
1.42379	0.58480
-0.28482	0.17668
0.58223	0.30422
0.35272	-0.35899
-0.28482	0.40625
0.76074	-0.02739
0.25071	0.04914
-1.02437	0.40625
-1.04987	0.07465
-0.20832	0.15117
0.86275	-0.05289
0.86275	0.50828
0.96476	0.25320
0.09770	-0.05289
0.17421	0.12566
1.04126	0.35523
-1.38139	-0.12942
-2.29945	0.25320
-1.20288	0.02363
2.46935	-0.05289
1.60230	0.30422
1.24527	0.27871
1.09226	0.12566
1.04126	-0.05289
0.35272	-0.02739
-1.86593	0.10015
-0.36133	0.10015
-1.25389	0.20219
-0.02981	0.07465
0.25071	0.45726
-2.60547	-0.30797
1.65330	0.55929
1.80631	0.10015
1.57679	-0.25695
2.21434	0.10015
-0.94787	0.35523
-2.47797	0.66132
1.24527	0.58480
1.14327	0.10015
-0.61635	-0.46102
-0.59084	-0.46102
0.86275	-0.15492
0.96476	0.35523
0.04670	0.43176
0.50573	0.53379
-0.66735	-0.48652
-0.51434	0.32972
0.42922	-0.10391
0.93925	0.55929
-1.55991	0.45726
-1.20288	0.07465
0.93925	0.17668
1.34728	-0.38449
0.96476	-0.38449
-0.74385	-0.12942
0.04670	0.71234
0.91375	0.22769
-2.17195	0.32972
1.39828	0.81437
1.01576	0.15117
0.70974	0.22769
0.93925	0.22769
-0.13181	-0.30797
-2.01894	-0.05289
-1.61091	-0.10391
-0.08081	0.12566
0.45472	0.22769
-0.10631	0.25320
1.47479	-0.07840
1.39828	-0.20594
0.88825	0.07465
0.12320	0.10015
-1.22839	0.10015
1.19427	0.25320
-0.33583	0.22769
-0.20832	0.35523
-0.69285	0.48277
-0.48884	0.17668
0.86275	0.15117
-0.31033	-0.10391
0.48022	0.27871
-0.10631	0.32972
-1.94243	0.22769
-0.08081	-0.35899
1.78081	-0.07840
1.11776	-0.25695
0.19971	0.27871
0.30171	0.04914
0.99026	0.25320
0.58223	0.04914
-0.28482	0.73785
0.27621	0.07465
-0.64185	0.22769
-1.81492	0.32972
-0.33583	-0.46102
0.78624	0.43176
0.93925	0.43176
0.37822	0.30422
1.37278	0.32972
1.42379	0.22769
-2.24845	-0.30797
-1.35589	-0.05289
1.14327	-0.02739
0.07220	-0.10391
-0.33583	0.27871
1.44929	0.22769
-0.25932	0.27871
1.24527	0.04914
0.63323	-0.00188
-0.25932	0.12566
-0.41233	0.86539
-0.05531	-0.74160
0.93925	0.78886
0.04670	-0.07840
-0.48884	0.91640
-0.23382	0.04914
1.39828	-0.30797
1.16877	0.20219
-2.06994	0.10015
-1.50890	0.38074
0.35272	0.17668
1.29628	0.02363
1.04126	-0.43551
0.73524	-0.07840
0.65874	0.10015
0.19971	0.25320
-0.33583	0.35523
0.55673	-0.05289
1.27078	0.15117
-0.48884	0.48277
-2.29945	0.02363
-2.45246	0.32972
1.09226	0.22769
1.95932	0.02363
1.78081	0.04914
0.99026	0.20219
0.14870	-0.07840
-0.36133	0.04914
-0.23382	0.32972
-0.00431	0.50828
2.13783	-0.00188
-0.31033	0.04914
-0.38683	-0.07840
-0.99887	0.04914
-0.05531	0.04914
-1.17738	0.30422
-0.99887	-0.38449
0.86275	-0.38449
2.95388	0.76336
-1.30489	0.50828
-2.04444	0.10015
-0.41233	-0.10391
1.29628	-0.00188
1.19427	0.53379
0.76074	0.10015
1.14327	0.07465
0.35272	0.20219
-0.13181	0.45726
0.42922	0.07465
-0.18282	-0.07840
-0.59084	0.04914
-0.13181	-0.66508
0.17421	-0.05289
-0.02981	0.30422
-0.59084	0.76336
-0.20832	0.38074
-0.51434	0.48277
-0.61635	0.04914
-0.66735	-0.07840
3.33641	-0.15492
3.20890	0.35523
-1.84042	-0.07840
-2.29945	0.25320
1.62780	0.17668
1.44929	0.12566
0.22521	0.10015
-0.00431	-0.00188
2.11233	-0.07840
0.25071	0.12566
-4.18658	0.66132
-0.74385	0.22769
1.09226	0.38074
1.14327	-0.02739
1.11776	0.02363
0.81175	0.17668
-0.02981	-0.18043
-0.66735	0.38074
-0.59084	0.15117
-0.56534	-0.12942
-0.20832	-0.15492
-0.28482	-0.18043
0.37822	0.17668
0.88825	0.27871
0.42922	-0.30797
0.42922	-0.02739
-0.13181	0.45726
0.76074	0.32972
0.53123	0.22769
-1.43240	0.25320
0.83725	0.30422
0.35272	0.15117
-1.50890	0.40625
-0.23382	0.17668
0.93925	-0.30797
1.44929	0.17668
-0.25932	0.10015
0.35272	0.17668
0.60773	0.07465
-1.22839	-0.00188
0.73524	0.25320
1.98482	0.10015
-1.58541	-0.18043
-0.23382	-0.12942
1.34728	0.40625
1.67880	0.53379
-0.46334	0.38074
-1.12638	-0.33348
-1.38139	-0.46102
-2.24845	0.43176
1.21977	0.22769
2.64786	0.50828
1.19427	0.58480
0.25071	-0.05289
0.55673	0.07465
0.48022	0.55929
0.53123	-0.12942
-1.22839	-0.33348
-0.13181	-0.25695
-0.08081	-0.18043
0.63323	0.32972
-0.20832	0.38074
-0.53984	0.32972
-0.20832	0.22769
1.16877	0.43176
1.21977	-0.07840
-1.30489	0.10015
-1.86593	-0.43551
0.73524	0.22769
-0.02981	0.38074
0.45472	0.66132
2.13783	0.55929
1.70430	0.25320
-1.61091	-0.07840
-1.66191	-0.18043
0.63323	0.15117
0.48022	0.27871
0.37822	0.15117
0.48022	0.12566
1.50029	0.22769
0.88825	-0.07840
0.35272	-0.05289
-1.91693	-0.30797
-2.42696	0.40625
1.19427	0.68683
0.30171	0.48277
-0.43783	0.38074
1.85731	0.04914
1.60230	0.17668
-0.41233	0.15117
-2.73298	-0.28246
1.06676	-0.10391
0.53123	0.38074
0.48022	0.38074
1.06676	0.12566
0.70974	-0.15492
-0.02981	0.35523
0.17421	0.07465
0.25071	0.25320
-0.02981	0.27871
-0.74385	0.15117
0.48022	-0.20594
-0.71835	-0.41000
-0.02981	0.55929
0.70974	0.07465
0.93925	0.32972
-0.38683	0.15117
-0.82036	0.43176
-0.00431	0.04914
0.68424	-0.00188
0.17421	0.15117
1.85731	-0.05289
0.70974	0.35523
-0.79486	0.04914
0.99026	0.22769
-0.10631	-0.23145
-0.43783	0.10015
-0.56534	0.17668
-0.64185	0.00000
0.02119	0.00000
0.04670	0.00000
1.90832	0.00000
0.93925	0.30422
-0.94787	0.35523
0.14870	0.25320
0.86275	0.48277
0.07220	0.55929
1.01576	0.25320
-0.23382	-0.10391
-1.71292	0.04914
0.22521	0.15117
0.70974	-0.35899
0.70974	-0.33348
0.30171	0.12566
0.07220	0.25320
-0.18282	0.63582
-0.33583	0.35523
-0.05531	0.15117
-0.08081	-0.15492
0.53123	0.07465
0.14870	0.12566
0.30171	0.02363
-0.02981	0.48277
0.04670	-0.25695
0.09770	0.12566
-0.61635	0.25320
-1.25389	0.43176
0.88825	0.10015
1.06676	0.17668
0.58223	0.10015
1.34728	0.17668
1.34728	-0.15492
0.65874	0.78886
-0.00431	0.02363
-1.02437	-0.23145
-2.63097	-0.81812
0.42922	0.12566
0.65874	0.35523
-0.48884	0.27871
1.16877	0.15117
1.16877	-0.00188
0.65874	0.32972
-0.20832	0.07465
-1.10088	0.71234
0.60773	0.63582
0.09770	-0.18043
0.12320	-0.35899
0.22521	0.10015
0.27621	0.40625
0.12320	0.25320
0.25071	0.32972
1.06676	0.15117
0.81175	-0.10391
-1.25389	0.20219
-1.94243	0.04914
0.42922	0.15117
0.55673	0.15117
1.39828	-0.00188
0.37822	0.04914
0.99026	-0.15492
1.14327	0.20219
-1.63641	0.15117
-1.71292	0.22769
0.35272	0.25320
-0.31033	-0.33348
1.65330	0.32972
1.21977	0.17668
0.63323	0.40625
0.02119	0.07465
-0.61635	0.17668
-0.53984	0.22769
0.73524	0.30422
0.65874	0.10015
0.73524	0.35523
-2.01894	-0.48652
-0.87136	-0.05289
-0.79486	0.12566
1.01576	0.43176
0.58223	0.50828
0.91375	0.10015
1.57679	0.07465
0.96476	0.25320
0.68424	-0.20594
0.70974	0.25320
-0.15732	-0.07840
-1.61091	-0.10391
-0.74385	0.25320
-0.18282	0.27871
0.45472	0.15117
0.14870	0.12566
0.04670	-0.25695
0.93925	0.35523
0.99026	0.43176
-1.04987	0.22769
-1.12638	0.20219
0.09770	0.32972
0.37822	0.30422
0.93925	-0.10391
0.76074	0.10015
0.68424	0.15117
-0.00431	0.45726
0.12320	0.43176
-0.33583	-0.18043
0.63323	-0.28246
0.60773	-0.48652
-3.21751	0.20219
0.07220	0.38074
1.24527	-0.00188
0.88825	-0.23145
0.76074	0.66132
0.27621	0.25320
0.22521	0.27871
0.70974	-0.02739
0.07220	0.58480
1.83181	0.12566
-1.22839	-0.12942
-3.57454	0.04914
-0.15732	0.04914
0.93925	0.22769
1.72980	0.15117
-0.33583	0.02363
0.60773	0.35523
-0.82036	0.15117
-0.05531	0.35523
0.40372	-0.18043
0.86275	-0.76711
0.83725	-0.05289
0.40372	0.81437
0.12320	0.35523
-0.18282	0.17668
-0.10631	-0.07840
0.17421	0.35523
0.73524	-0.30797
-0.76936	0.32972
-0.66735	0.35523
0.91375	-0.02739
0.02119	-0.05289
0.22521	0.04914
-0.00431	-0.05289
-0.08081	-0.02739
-0.38683	0.25320
0.19971	0.15117
0.50573	0.43176
0.02119	0.53379
0.81175	-0.05289
0.55673	-0.10391
-0.10631	0.04914
1.47479	0.30422
-0.56534	0.20219
-3.62554	0.07465
1.19427	0.32972
0.48022	-0.10391
1.01576	0.20219
0.86275	0.15117
0.81175	0.17668
0.91375	0.35523
-0.53984	0.04914
-0.69285	-0.30797
0.78624	0.71234
-0.08081	0.55929
-0.51434	0.53379
0.93925	0.35523
-0.02981	-0.07840
-2.37596	-0.23145
-1.25389	-0.35899
1.16877	-0.25695
1.04126	-0.12942
1.39828	0.30422
0.76074	0.30422
-0.41233	0.35523
-0.08081	0.27871
0.32721	0.38074
0.40372	0.73785
0.09770	0.07465
-0.02981	0.17668
0.14870	-0.02739
-0.13181	0.27871
-0.08081	0.20219
0.12320	0.07465
0.07220	-0.58856
0.17421	0.15117
0.12320	0.10015
-0.33583	0.07465
0.17421	0.20219
0.12320	0.04914
0.68424	0.27871
0.40372	0.30422
1.29628	0.04914
0.12320	-0.28246
-3.54903	-0.15492
-0.79486	0.20219
1.16877	0.07465
1.52579	0.45726
1.04126	0.32972
-0.08081	0.66132
-0.99887	0.10015
0.83725	0.32972
0.91375	-0.05289
0.65874	-0.46102
1.01576	-0.10391
0.09770	0.30422
-0.97337	-0.05289
-0.15732	0.40625
1.37278	0.30422
-0.99887	0.30422
0.68424	-0.07840
-0.61635	0.04914
-4.67111	-0.10391
-0.59084	0.10015
0.96476	0.02363
2.26534	0.15117
1.75531	0.32972
0.09770	0.30422
1.29628	0.22769
0.93925	0.15117
0.53123	0.55929
0.04670	-0.05289
-0.89686	0.07465
-0.48884	-0.25695
-0.74385	-0.15492
-0.15732	0.10015
0.04670	0.20219
0.27621	0.25320
0.42922	0.20219
1.34728	0.04914
-0.02981	0.30422
-1.17738	0.04914
0.70974	-0.00188
0.25071	0.38074
-2.63097	0.04914
0.17421	0.22769
1.47479	0.50828
2.13783	-0.18043
-0.56534	-0.25695
-0.79486	0.43176
1.09226	0.22769
0.81175	-0.02739
0.99026	0.30422
0.22521	0.43176
-1.61091	-0.07840
-0.25932	-0.05289
0.27621	0.40625
0.48022	-0.15492
-0.13181	0.02363
-0.56534	-0.23145
0.02119	0.38074
0.32721	0.40625
0.37822	0.43176
0.78624	0.12566
0.09770	0.12566
0.17421	0.04914
-0.69285	0.22769
0.58223	-0.00188
0.76074	0.12566
0.14870	-0.20594
0.12320	-0.02739
0.04670	0.68683
0.27621	0.68683
0.09770	0.43176
0.55673	-0.07840
-0.02981	-0.28246
-1.22839	-0.61406
-0.36133	-0.35899
1.04126	0.55929
1.44929	0.61031
-0.99887	0.55929
-0.92237	-0.02739
0.70974	-0.12942
1.78081	0.17668
0.09770	0.30422
-1.73842	0.35523
-0.92237	0.35523
1.24527	-0.23145
2.44385	-0.23145
0.68424	-0.23145
-1.30489	0.68683
-0.48884	0.50828
0.40372	0.12566
0.17421	0.10015
0.78624	-0.05289
0.25071	0.40625
-0.00431	0.12566
0.19971	0.15117
-0.46334	0.04914
-1.02437	0.10015
-0.02981	0.12566
0.30171	0.32972
0.73524	-0.58856
0.91375	0.27871
0.14870	0.32972
0.07220	0.38074
0.09770	0.17668
-0.05531	0.15117
-0.00431	0.35523
0.09770	0.25320
0.73524	0.12566
0.35272	0.32972
0.04670	0.30422
-0.23382	0.27871
-0.74385	-0.33348
0.14870	-0.05289
0.81175	-0.35899
0.53123	0.43176
-0.10631	0.35523
-0.05531	0.20219
-0.00431	0.30422
0.37822	0.02363
0.02119	0.07465
-0.18282	0.02363
0.53123	0.30422
-0.89686	0.25320
0.19971	0.38074
0.50573	-0.10391
0.76074	-0.00188
2.06133	0.25320
0.22521	-0.10391
-3.24301	0.12566
0.50573	-0.05289
0.50573	0.15117
0.35272	0.45726
0.65874	0.27871
0.48022	-0.00188
-0.15732	0.53379
0.63323	0.04914
0.58223	-0.02739
0.14870	0.20219
0.04670	-0.05289
-0.51434	0.35523
-0.87136	0.78886
-0.08081	0.10015
0.88825	0.07465
0.70974	0.15117
-1.33039	0.07465
-0.51434	-0.18043
0.76074	-0.18043
0.63323	0.10015
0.53123	0.27871
0.32721	0.07465
0.07220	-0.02739
0.09770	0.04914
0.91375	0.30422
0.42922	0.20219
-1.17738	0.32972
-0.87136	0.15117
1.32178	0.43176
-0.41233	0.25320
-0.69285	0.17668
0.86275	0.27871
0.09770	0.15117
0.63323	0.15117
0.14870	-0.10391
-0.10631	0.20219
-0.15732	-0.25695
1.60230	-0.00188
-1.50890	0.10015
-1.50890	0.55929
-0.69285	-0.10391
0.83725	0.22769
1.24527	-0.63957
1.16877	-0.10391
0.91375	0.61031
0.53123	0.83988
0.30171	0.12566
0.65874	0.68683
0.07220	0.04914
-0.00431	-0.15492
-1.55991	-0.23145
-1.02437	-0.18043
0.32721	0.40625
0.50573	0.22769
-0.00431	0.32972
0.60773	-0.05289
1.24527	0.48277
-0.31033	0.25320
0.30171	-0.12942
0.50573	0.20219
-0.74385	0.17668
-1.17738	0.12566
-0.13181	0.15117
1.34728	0.04914
-0.18282	-0.05289
0.88825	-0.07840
0.93925	0.43176
0.50573	0.27871
0.58223	0.55929
-0.20832	0.32972
0.40372	0.12566
-0.99887	-0.25695
-1.84042	-0.05289
-0.23382	0.71234
0.88825	-0.07840
0.93925	0.20219
0.53123	-0.30797
0.02119	0.38074
-0.10631	0.40625
0.73524	-0.02739
0.04670	0.20219
-0.99887	-0.12942
0.07220	0.32972
0.83725	-0.00188
-0.10631	0.55929
0.35272	0.02363
0.68424	-0.05289
0.09770	0.04914
-0.53984	-0.07840
0.17421	-0.28246
0.17421	0.07465
0.73524	0.50828
0.32721	0.45726
-1.61091	-0.18043
-0.23382	0.15117
1.27078	0.15117
-0.38683	0.25320
-0.61635	-0.07840
2.23984	0.07465
1.72980	-0.00188
-0.41233	0.27871
-1.27939	-0.07840
-0.20832	0.35523
0.65874	0.27871
0.45472	0.48277
0.63323	0.22769
0.25071	-0.05289
-0.61635	0.17668
0.17421	0.17668
-0.00431	-0.00188
0.17421	0.02363
0.27621	0.20219
-0.61635	0.02363
-0.48884	0.07465
0.48022	-0.25695
-0.25932	0.17668
0.63323	0.35523
0.14870	0.48277
0.48022	0.32972
0.73524	0.58480
0.48022	0.45726
-0.08081	-0.28246
0.30171	0.04914
1.06676	-0.18043
-0.56534	-0.12942
-0.76936	0.30422
-0.25932	0.17668
0.19971	-0.05289
0.12320	0.20219
0.12320	-0.05289
0.07220	0.48277
-0.43783	0.35523
1.50029	0.15117
0.50573	0.40625
-0.38683	0.15117
-0.51434	0.12566
-0.15732	0.32972
1.06676	0.10015
0.17421	-0.33348
-0.28482	-0.10391
1.52579	0.04914
-0.38683	0.40625
-2.35046	0.45726
-0.20832	-0.30797
1.95932	0.12566
1.65330	0.04914
-0.08081	0.38074
0.02119	0.32972
0.27621	-0.15492
0.42922	0.20219
0.45472	0.27871
-0.82036	-0.23145
-1.27939	0.10015
0.32721	0.32972
0.32721	0.35523
-0.00431	0.15117
0.27621	0.43176
0.53123	0.15117
0.09770	-0.05289
0.19971	0.02363
0.19971	0.12566
0.19971	0.12566
-0.08081	0.15117
0.14870	0.12566
0.63323	0.07465
1.14327	0.22769
-0.33583	0.04914
-1.30489	0.45726
1.01576	0.04914
0.68424	0.40625
-0.92237	0.17668
-1.45790	-0.10391
-0.61635	-0.05289
1.32178	-0.23145
1.42379	-0.12942
0.93925	0.53379
1.44929	0.43176
-0.20832	0.40625
-0.66735	0.43176
0.09770	0.27871
-0.05531	-0.02739
0.25071	-0.35899
-0.69285	-0.10391
-0.41233	0.40625
0.93925	0.25320
-0.69285	0.43176
-1.63641	-0.20594
1.24527	0.32972
0.78624	0.22769
1.50029	-0.18043
0.63323	0.25320
-0.56534	-0.05289
0.07220	-0.05289
0.53123	0.25320
0.30171	0.07465
-0.51434	0.32972
0.37822	0.04914
0.09770	0.76336
-0.28482	0.07465
0.30171	-0.25695
0.02119	0.07465
-0.15732	0.25320
0.04670	0.17668
0.48022	0.38074
-0.10631	-0.07840
-0.41233	-0.00188
0.42922	0.07465
0.60773	0.40625
0.22521	0.02363
0.12320	0.43176
-0.41233	-0.46102
0.73524	-0.18043
0.35272	0.10015
-2.19745	-0.07840
-0.51434	0.10015
0.96476	1.17148
1.27078	0.48277
0.91375	0.07465
1.11776	0.25320
1.04126	-0.05289
0.22521	0.15117
-0.84586	0.04914
-0.84586	0.17668
0.12320	-0.20594
0.30171	0.04914
-0.02981	0.04914
-0.00431	0.12566
0.27621	0.02363
-0.43783	-0.10391
0.07220	0.17668
1.09226	0.38074
0.32721	0.45726
0.07220	0.15117
-0.84586	0.02363
0.09770	0.07465
0.14870	-0.02739
0.65874	0.35523
0.81175	0.15117
0.12320	0.22769
-0.64185	0.71234
0.60773	0.12566
0.86275	-0.07840
0.17421	-0.10391
0.19971	-0.46102
0.02119	-0.00188
0.09770	0.43176
-0.02981	0.12566
-0.05531	0.25320
0.02119	0.45726
-0.00431	0.45726
0.07220	-0.20594
-0.10631	-0.00188
0.12320	0.17668
0.17421	0.22769
0.17421	0.04914
0.09770	0.25320
0.40372	-0.07840
0.25071	0.10015
-0.20832	0.81437
0.42922	0.45726
1.24527	0.12566
0.19971	0.20219
-1.43240	-0.30797
-0.33583	-0.18043
0.63323	-0.00188
0.48022	0.35523
0.99026	0.15117
1.29628	0.04914
0.78624	0.20219
-1.76392	0.15117
-1.71292	0.15117
0.68424	0.32972
1.01576	0.32972
-0.13181	0.07465
-0.99887	-0.02739
-0.23382	-0.02739
1.24527	0.43176
1.19427	0.17668
1.14327	0.35523
0.25071	0.04914
-0.23382	0.27871
0.07220	-0.00188
0.04670	-0.07840
-0.79486	0.38074
-0.43783	0.07465
0.02119	-0.20594
0.81175	-0.02739
0.45472	-0.05289
-0.51434	0.07465
0.32721	0.32972
-0.13181	0.22769
-0.18282	0.35523
0.25071	-0.15492
0.55673	0.17668
0.35272	0.02363
0.07220	0.30422
-0.33583	0.61031
0.19971	0.27871
0.12320	-0.05289
0.12320	0.10015
0.99026	0.12566
0.22521	0.04914
-0.64185	0.20219
0.07220	0.10015
0.30171	0.25320
0.12320	0.07465
-0.33583	0.02363
0.45472	0.02363
-0.41233	0.35523
-0.05531	0.27871
1.01576	-0.15492
0.09770	-0.15492
-0.59084	0.15117
0.48022	0.35523
0.99026	0.20219
-0.28482	0.50828
0.12320	0.04914
0.32721	0.12566
1.01576	-0.10391
-0.10631	0.22769
-1.25389	0.04914
0.07220	0.25320
0.02119	0.20219
1.16877	0.25320
0.81175	0.35523
-1.40690	-0.38449
-0.10631	0.02363
0.32721	-0.00188
0.32721	0.50828
0.63323	0.50828
0.65874	-0.00188
-0.79486	-0.25695
-0.71835	0.15117
0.45472	0.20219
-0.23382	0.02363
1.44929	0.30422
0.81175	0.25320
-0.08081	0.22769
-0.20832	0.02363
0.12320	0.12566
0.09770	0.04914
-0.61635	0.22769
0.42922	0.43176
0.91375	0.38074
0.25071	0.04914
0.68424	-0.18043
0.25071	0.38074
-1.30489	-0.00188
-0.02981	0.25320
0.40372	0.12566
0.25071	0.10015
0.30171	-0.00188
1.55129	0.40625
0.76074	-0.20594
-0.28482	0.12566
-1.53441	0.07465
-0.76936	0.38074
0.83725	0.22769
1.19427	0.53379
-0.25932	-0.41000
-0.05531	-0.30797
1.06676	0.20219
0.53123	0.32972
0.02119	0.53379
0.76074	-0.15492
1.37278	0.71234
-0.61635	-0.00188
-0.74385	-0.15492
0.73524	0.17668
-0.59084	0.25320
-0.69285	-0.18043
-0.56534	0.15117
-0.69285	0.15117
0.55673	0.02363
1.88281	0.02363
-0.18282	0.66132
-2.86049	-0.05289
1.06676	0.32972
1.67880	0.38074
1.37278	-0.18043
0.17421	-0.20594
-0.23382	-0.15492
1.06676	0.20219
0.88825	-0.00188
0.12320	0.25320
-0.87136	0.27871
-0.23382	0.58480
-0.31033	-0.05289
-0.28482	0.30422
0.17421	0.25320
-0.76936	0.07465
0.07220	0.15117
0.37822	0.10015
0.81175	0.15117
0.32721	-0.38449
0.04670	-0.20594
0.32721	0.53379
-0.00431	1.32453
1.01576	0.40625
0.73524	0.02363
0.65874	-0.15492
-1.20288	-0.97117
-0.41233	-0.15492
0.14870	0.07465
0.19971	0.20219
0.65874	0.38074
-0.53984	-0.10391
0.30171	0.40625
0.76074	0.68683
1.62780	0.53379
-0.05531	0.25320
0.40372	0.02363
0.40372	-0.15492
-0.00431	-0.05289
-0.71835	0.07465
0.32721	0.04914
-0.18282	0.15117
-1.07538	0.22769
0.35272	0.10015
0.27621	0.22769
-0.20832	-0.12942
0.50573	0.10015
0.63323	0.04914
0.86275	-0.41000
0.88825	0.25320
-0.99887	0.22769
-0.20832	0.38074
0.91375	0.55929
0.53123	0.30422
0.53123	-0.23145
-0.10631	0.35523
-1.30489	-0.00188
0.81175	0.25320
-0.43783	0.15117
0.42922	0.15117
0.35272	0.12566
0.65874	0.07465
0.83725	-0.15492
-1.20288	0.17668
-0.69285	0.22769
0.78624	0.32972
0.42922	0.12566
0.68424	0.04914
0.63323	-0.18043
0.17421	0.32972
0.37822	0.25320
-0.59084	0.04914
-1.30489	0.15117
0.83725	0.43176
0.50573	0.12566
0.30171	-0.10391
-0.02981	0.02363
-0.48884	-0.07840
1.06676	-0.02739
0.14870	0.22769
-0.18282	0.35523
0.48022	0.35523
0.86275	0.45726
0.22521	-0.02739
0.65874	-0.05289
0.25071	-0.15492
-0.18282	-0.53754
-0.94787	0.61031
0.45472	0.38074
0.40372	0.35523
-0.38683	0.25320
0.22521	-0.02739
-0.00431	0.10015
-0.10631	-0.02739
0.60773	0.35523
1.29628	0.27871
0.70974	0.32972
-0.08081	0.04914
-0.36133	-0.07840
0.30171	0.04914
-0.66735	-0.05289
-1.61091	0.12566
0.27621	0.04914
0.83725	0.27871
0.63323	0.32972
0.50573	0.45726
0.78624	0.20219
-0.08081	-0.05289
-0.66735	0.12566
0.30171	0.04914
0.30171	0.04914
0.58223	0.43176
0.48022	0.27871
-0.53984	-0.05289
-0.08081	0.15117
-0.10631	0.30422
0.27621	0.43176
1.19427	0.25320
1.75531	-0.18043
-1.63641	-0.35899
-1.30489	0.10015
0.42922	-0.15492
0.55673	0.68683
0.17421	0.43176
0.86275	0.25320
0.53123	-0.00188
-1.12638	-0.02739
-0.18282	-0.23145
1.29628	0.38074
1.01576	0.10015
0.55673	0.02363
-1.81492	0.17668
-0.18282	0.25320
0.99026	0.30422
0.70974	0.25320
0.17421	-0.23145
-0.84586	0.22769
-0.76936	-0.41000
0.25071	0.20219
0.76074	0.15117
1.32178	0.22769
0.35272	0.30422
-0.56534	0.43176
-0.15732	0.58480
0.60773	0.43176
0.88825	-0.20594
-0.23382	-0.38449
-0.28482	-0.35899
-0.18282	-0.18043
0.42922	0.27871
-0.28482	0.55929
0.40372	0.15117
0.09770	-0.02739
0.48022	0.20219
0.12320	0.61031
0.73524	0.15117
0.50573	0.15117
-1.53441	-0.02739
-0.20832	0.25320
0.91375	0.22769
0.63323	0.15117
1.11776	0.32972
0.09770	0.02363
0.14870	0.02363
-1.10088	0.20219
0.12320	0.04914
0.17421	-0.07840
0.35272	0.25320
0.65874	0.04914
-0.23382	0.22769
-0.00431	0.48277
0.32721	-0.00188
0.68424	0.12566
1.19427	0.04914
-0.99887	-0.15492
-1.55991	0.40625
0.78624	0.48277
0.42922	0.10015
-0.48884	0.10015
0.42922	0.04914
0.68424	-0.25695
0.40372	-0.28246
0.14870	0.10015
-0.79486	0.32972
0.42922	0.71234
1.14327	0.27871
0.68424	0.07465
-0.43783	-0.02739
-0.02981	0.04914
-0.46334	0.32972
-0.53984	0.04914
0.19971	0.02363
-0.05531	-0.05289
-0.08081	0.30422
0.58223	0.22769
-0.02981	0.30422
0.63323	0.15117
0.53123	-0.25695
0.07220	-0.07840
-0.79486	-0.00188
0.81175	0.15117
0.14870	0.30422
0.35272	0.35523
1.44929	0.58480
-0.10631	0.48277
-2.73298	-0.28246
0.37822	0.30422
0.86275	-0.25695
0.27621	-0.48652
-0.23382	0.45726
1.06676	0.68683
0.12320	0.35523
-0.82036	0.22769
0.32721	-0.00188
0.88825	0.04914
0.50573	0.02363
-0.00431	0.02363
-0.02981	0.02363
0.09770	0.04914
0.27621	0.07465
0.32721	0.15117
-0.23382	0.10015
-0.61635	0.15117
0.19971	0.43176
-0.18282	0.32972
0.53123	0.25320
0.63323	-0.86914
-0.74385	-0.10391
0.42922	0.15117
-0.15732	0.66132
-0.13181	1.01843
0.86275	0.94191
1.19427	0.04914
1.04126	-0.25695
-0.74385	-0.33348
-1.25389	-0.33348
1.70430	-0.05289
1.24527	-0.12942
-0.38683	0.02363
-0.36133	0.17668
-0.18282	0.40625
-0.43783	0.22769
-0.08081	0.07465
-0.36133	-0.10391
-0.51434	0.25320
0.22521	0.43176
0.27621	0.30422
0.48022	0.45726
0.35272	0.02363
0.17421	0.12566
0.37822	0.04914
0.45472	0.25320
0.83725	0.07465
-0.38683	0.04914
-1.10088	0.15117
0.50573	0.40625
1.55129	0.07465
0.55673	-0.07840
0.09770	0.07465
-0.33583	-0.15492
-0.25932	0.15117
-0.25932	0.15117
0.17421	0.40625
0.60773	0.10015
-0.08081	0.55929
0.50573	0.10015
-0.53984	-0.33348
-2.12094	-0.25695
-0.56534	-0.12942
1.65330	0.63582
1.70430	0.61031
0.83725	0.63582
-0.66735	0.48277
-0.89686	-0.12942
0.76074	-0.33348
2.13783	-0.18043
-0.48884	-0.38449
-2.12094	-0.00188
-0.33583	0.12566
0.76074	0.66132
0.93925	0.38074
0.76074	0.22769
0.53123	0.10015
0.19971	0.38074
-0.92237	-0.02739
-0.05531	0.02363
0.04670	0.07465
-0.48884	-0.05289
-0.15732	0.38074
0.19971	0.32972
0.63323	0.04914
0.70974	0.20219
0.99026	0.15117
0.02119	-0.18043
-1.27939	-0.10391
-0.08081	0.15117
0.35272	0.27871
0.14870	0.40625
0.76074	0.43176
0.53123	0.17668
0.07220	0.48277
0.35272	-0.02739
-0.51434	-0.07840
0.42922	0.02363
0.35272	0.22769
0.35272	0.25320
-0.18282	0.04914
-0.74385	0.02363
-0.61635	-0.15492
0.04670	0.25320
0.40372	0.45726
1.06676	0.22769
0.35272	0.25320
0.86275	0.25320
1.27078	0.25320
-0.28482	0.10015
-1.25389	-0.10391
0.14870	0.12566
0.30171	-0.20594
-0.59084	0.02363
0.81175	0.10015
0.09770	0.38074
0.17421	0.53379
-0.05531	0.30422
0.45472	0.04914
0.48022	0.07465
-0.94787	0.40625
-0.59084	-0.12942
0.63323	0.07465
1.21977	-0.18043
1.09226	0.27871
-0.59084	0.35523
0.09770	0.40625
0.02119	0.40625
0.91375	-0.02739
0.12320	-0.05289
-0.05531	0.40625
-0.02981	-0.15492
-0.23382	-0.07840
0.25071	-0.41000
-0.00431	0.02363
-0.20832	0.15117
0.30171	0.17668
0.04670	0.22769
-0.28482	0.22769
-0.36133	0.38074
0.02119	0.35523
0.93925	0.58480
1.90832	0.02363
-0.00431	-0.38449
-2.01894	-0.15492
-1.22839	0.17668
-0.00431	0.27871
0.60773	0.58480
0.99026	0.63582
1.90832	0.12566
1.93382	-0.18043
-0.48884	-0.25695
-0.89686	-0.05289
-0.99887	-0.12942
0.02119	0.35523
0.30171	0.22769
0.09770	0.17668
0.45472	0.30422
-0.08081	-0.23145
-0.00431	0.50828
-0.00431	0.35523
0.35272	0.20219
0.09770	-0.46102
0.25071	0.30422
0.48022	0.35523
0.35272	0.30422
-0.53984	-0.10391
-0.28482	0.04914
0.78624	0.48277
1.62780	0.12566
0.12320	0.12566
-2.80949	0.38074
0.65874	0.10015
0.42922	-0.15492
1.11776	0.15117
1.09226	0.12566
0.42922	0.15117
0.73524	0.15117
0.50573	0.02363
-1.33039	0.17668
-1.15188	0.04914
-0.92237	0.30422
0.88825	0.22769
0.45472	0.17668
0.22521	0.10015
1.11776	0.40625
-0.02981	0.30422
-0.38683	-0.05289
0.55673	0.22769
-0.08081	0.30422
-0.05531	-0.18043
0.81175	-0.05289
-0.41233	-0.15492
-1.30489	-0.12942
0.55673	0.38074
1.42379	0.40625
0.53123	0.38074
0.53123	0.17668
0.27621	0.20219
0.22521	0.15117
-0.08081	-0.05289
-0.28482	-0.02739
-0.10631	0.04914
-0.41233	0.25320
-0.25932	0.12566
0.91375	0.30422
-0.23382	0.07465
-0.46334	0.20219
0.53123	0.12566
0.30171	0.15117
0.04670	-0.25695
-0.23382	0.48277
0.73524	0.22769
0.17421	0.32972
-0.10631	0.32972
0.45472	-0.07840
1.93382	-0.30797
0.58223	-0.23145
-2.04444	-0.00188
-0.05531	-0.12942
0.42922	0.38074
0.09770	0.25320
0.48022	0.50828
0.88825	0.35523
0.45472	-0.25695
-0.71835	0.50828
-1.10088	0.32972
-0.20832	0.04914
0.86275	0.15117
0.91375	-0.05289
0.55673	0.02363
0.45472	0.15117
0.07220	0.12566
-0.08081	0.27871
-0.00431	0.20219
0.19971	-0.07840
-1.27939	-0.10391
-0.00431	0.35523
0.88825	0.10015
1.04126	0.15117
0.78624	0.20219
-0.43783	-0.07840
-1.27939	0.32972
0.27621	0.43176
1.24527	0.10015
0.68424	-0.02739
0.22521	0.27871
-0.00431	0.83988
1.57679	0.35523
-0.20832	-0.53754
-0.99887	0.32972
-0.46334	-0.02739
-1.73842	0.17668
0.76074	-0.12942
1.34728	-0.05289
0.96476	0.10015
0.70974	0.07465
-0.08081	0.43176
0.27621	0.53379
-0.61635	-0.05289
-1.07538	-0.02739
0.81175	0.12566
1.95932	0.22769
-0.41233	0.55929
-0.13181	0.15117
0.27621	0.15117
-0.61635	0.30422
-0.66735	0.43176
0.63323	0.17668
0.25071	0.15117
-0.36133	-0.38449
0.81175	-0.12942
-0.02981	-0.12942
0.45472	0.15117
0.02119	-0.05289
0.14870	0.02363
0.99026	0.48277
0.50573	0.35523
0.83725	0.43176
-1.45790	-0.23145
-1.71292	0.45726
1.65330	0.30422
0.60773	0.07465
0.27621	0.25320
1.83181	0.38074
-0.00431	-0.00188
-2.12094	0.20219
-1.15188	-0.07840
0.50573	0.30422
1.19427	0.15117
0.86275	-0.15492
0.04670	0.40625
0.50573	0.15117
-0.15732	-0.20594
-0.41233	0.32972
-0.08081	0.35523
0.30171	0.25320
1.32178	0.12566
-0.15732	0.50828
-1.20288	-0.23145
0.02119	-0.43551
0.81175	0.10015
1.19427	0.32972
0.04670	0.38074
-0.33583	0.38074
-0.56534	0.07465
-0.23382	0.20219
0.93925	0.15117
0.88825	-0.07840
-0.18282	-0.15492
-0.18282	0.27871
0.73524	-0.15492
0.91375	0.48277
-0.48884	0.17668
-0.41233	-0.02739
-0.15732	0.27871
0.42922	0.17668
0.12320	0.07465
0.02119	0.02363
-0.33583	-0.12942
0.73524	0.30422
0.70974	0.17668
-0.89686	0.35523
-0.74385	0.22769
-0.00431	0.55929
0.42922	0.30422
-0.59084	0.17668
0.60773	0.04914
1.34728	-0.02739
0.96476	-0.18043
-0.23382	-0.35899
0.19971	-0.23145
1.01576	0.10015
-0.82036	0.66132
0.42922	0.50828
-0.36133	0.25320
-0.56534	0.20219
0.09770	0.02363
-1.10088	0.40625
0.70974	0.58480
0.22521	-0.35899
-0.66735	0.07465
1.29628	-0.18043
0.09770	-0.25695
0.35272	-0.05289
0.60773	0.43176
0.73524	0.35523
-0.02981	0.30422
-0.08081	0.32972
0.83725	0.27871
0.14870	0.30422
-0.31033	-0.23145
-0.28482	0.07465
-0.20832	0.02363
0.93925	0.12566
0.86275	0.66132
-1.22839	0.15117
-0.82036	0.27871
-0.25932	-0.38449
0.40372	0.17668
0.45472	0.15117
-0.02981	-0.07840
0.76074	0.15117
0.04670	0.10015
-1.15188	-0.10391
0.86275	-0.05289
0.68424	-0.12942
0.78624	0.61031
-0.36133	0.58480
0.25071	0.58480
0.32721	0.32972
0.81175	0.17668
0.42922	0.25320
0.32721	-0.15492
-0.33583	-0.12942
-0.10631	0.07465
0.40372	0.12566
-0.05531	0.40625
-1.12638	0.17668
0.78624	-0.02739
0.02119	0.17668
-0.38683	0.02363
1.44929	0.30422
-0.38683	0.30422
-2.17195	-0.25695
0.30171	0.02363
1.44929	-0.07840
0.17421	0.10015
0.17421	0.91640
0.83725	0.89089
0.45472	-0.12942
0.07220	0.17668
0.45472	-0.28246
-0.10631	0.12566
-0.41233	0.12566
0.83725	0.12566
-0.25932	-0.23145
-0.15732	0.32972
0.50573	0.53379
-0.18282	0.32972
-0.79486	0.12566
0.60773	-0.30797
0.48022	0.10015
-0.00431	0.02363
-0.00431	0.17668
1.06676	0.32972
0.32721	0.38074
0.37822	0.22769
0.32721	-0.12942
-1.50890	-0.05289
-0.25932	0.04914
-0.66735	0.25320
1.21977	0.38074
0.83725	0.40625
0.48022	0.12566
0.53123	0.07465
0.73524	0.17668
0.37822	0.07465
-0.31033	-0.07840
-0.20832	0.45726
-0.00431	0.20219
0.14870	0.20219
-0.69285	-0.00188
-0.15732	0.10015
0.76074	0.17668
-0.08081	0.43176
0.32721	-0.07840
0.27621	-0.07840
1.09226	-0.12942
0.30171	-0.10391
-0.79486	0.45726
0.83725	0.27871
-1.53441	0.35523
-0.43783	0.04914
0.73524	0.22769
1.06676	-0.00188
-0.20832	-0.15492
0.70974	0.53379
1.01576	0.89089
-0.74385	0.02363
-0.28482	-0.15492
0.35272	-0.35899
-0.05531	0.04914
0.32721	-0.15492
-0.05531	-0.25695
0.25071	0.27871
-0.10631	0.50828
-0.31033	0.35523
1.98482	0.68683
-1.25389	0.22769
-0.94787	-0.02739
0.50573	-0.35899
0.04670	-0.02739
0.91375	0.35523
1.24527	0.48277
0.22521	0.22769
-0.56534	0.04914
-0.48884	0.04914
-0.59084	0.27871
0.70974	0.04914
0.42922	0.07465
-0.08081	0.30422
-0.25932	0.43176
0.09770	0.40625
0.37822	-0.71609
0.78624	0.12566
0.73524	0.50828
0.12320	-0.23145
0.17421	0.07465
-0.13181	0.04914
-0.31033	0.32972
-0.94787	0.38074
0.09770	0.22769
-0.20832	0.15117
0.12320	-0.07840
2.26534	0.48277
1.24527	0.35523
-0.10631	0.32972
-0.38683	0.27871
-0.97337	-0.10391
-1.02437	-0.02739
0.42922	0.07465
0.88825	0.07465
0.70974	-0.00188
0.83725	0.04914
0.60773	0.02363
-0.94787	0.15117
-1.12638	0.32972
-0.08081	0.66132
0.50573	0.50828
1.09226	0.07465
0.19971	-0.41000
0.02119	0.17668
0.14870	0.04914
0.30171	-0.00188
0.48022	0.38074
0.63323	0.48277
0.07220	0.43176
-1.76392	-0.12942
0.99026	0.30422
1.50029	0.15117
-0.33583	0.04914
-0.28482	0.10015
-0.18282	-0.25695
-0.64185	-0.00188
0.88825	0.30422
1.16877	0.55929
0.55673	0.71234
0.37822	0.15117
0.19971	0.10015
-0.02981	0.04914
-0.31033	-0.12942
-0.76936	-0.38449
-0.25932	-0.10391
-1.04987	0.10015
0.96476	0.53379
0.42922	-0.23145
1.24527	0.45726
0.58223	0.20219
0.55673	0.40625
0.27621	0.66132
0.42922	0.20219
-0.71835	-0.28246
-2.42696	-0.33348
0.50573	0.15117
0.93925	-0.05289
1.67880	-0.05289
-0.08081	0.55929
-0.18282	0.43176
-0.28482	0.25320
-1.45790	-0.20594
0.17421	0.35523
1.32178	0.45726
0.91375	0.35523
0.45472	0.15117
0.48022	-0.02739
0.27621	0.12566
0.45472	-0.00188
-1.15188	-0.25695
-1.96793	0.10015
-0.23382	-0.00188
0.58223	0.30422
0.09770	-0.10391
0.73524	0.53379
0.63323	0.17668
0.68424	0.55929
-0.05531	0.27871
-0.41233	0.17668
0.30171	0.20219
0.63323	0.07465
0.27621	-0.05289
-0.05531	0.04914
0.12320	0.12566
0.53123	0.43176
-0.41233	0.04914
-0.79486	0.22769
1.16877	0.35523
0.86275	0.30422
-0.00431	-0.07840
0.12320	-0.41000
-0.94787	0.02363
0.12320	0.22769
1.14327	0.27871
-0.10631	0.32972
-0.18282	0.58480
0.37822	0.30422
0.14870	-0.15492
0.50573	0.04914
-1.84042	0.07465
-0.59084	0.10015
0.86275	0.27871
0.07220	0.32972
1.29628	0.10015
0.50573	0.07465
0.42922	-0.33348
-0.36133	0.38074
-0.28482	-0.15492
0.40372	0.38074
0.02119	0.17668
-0.46334	0.12566
-0.61635	0.38074
-0.15732	0.35523
0.83725	-0.00188
0.65874	0.07465
0.09770	0.15117
0.50573	-0.20594
0.35272	0.25320
0.63323	0.17668
-0.28482	0.30422
-0.51434	0.17668
-0.20832	0.20219
-0.84586	0.22769
0.63323	-0.00188
0.27621	0.27871
0.02119	-0.05289
0.60773	-0.15492
0.86275	0.22769
0.68424	0.30422
-0.41233	0.17668
0.04670	0.10015
0.04670	-0.12942
0.25071	0.07465
-0.48884	0.10015
0.07220	0.63582
-0.87136	0.35523
-1.20288	0.12566
1.47479	0.07465
1.44929	0.15117
0.04670	0.35523
0.42922	-0.15492
-0.36133	0.10015
-0.46334	-0.10391
0.40372	0.20219
0.93925	0.30422
0.02119	0.58480
-1.20288	0.12566
0.19971	0.45726
0.73524	0.25320
0.30171	-0.00188
0.19971	0.25320
1.09226	-0.07840
0.30171	-0.48652
0.22521	0.45726
-0.66735	0.17668
-0.48884	-0.18043
-0.20832	0.32972
-0.13181	-0.10391
0.27621	0.55929
0.70974	0.40625
-0.33583	0.15117
-0.59084	-0.00188
0.35272	0.15117
0.22521	-0.10391
0.63323	0.12566
0.53123	0.17668
0.14870	0.15117
0.76074	0.27871
-0.05531	0.27871
-0.41233	0.32972
0.78624	0.25320
0.19971	-0.07840
-0.15732	-0.33348
-0.13181	0.07465
0.02119	0.27871
1.47479	0.25320
-1.61091	-0.28246
-2.14644	0.35523
0.70974	0.50828
2.80087	0.04914
1.01576	0.35523
-1.89143	0.12566
0.02119	-0.05289
1.39828	0.25320
0.09770	0.04914
-0.89686	-0.05289
0.32721	0.12566
-0.13181	0.15117
0.42922	-0.02739
0.14870	0.25320
0.07220	0.27871
0.40372	-0.20594
0.27621	0.02363
0.17421	0.25320
0.09770	0.30422
0.19971	0.22769
0.14870	0.53379
0.02119	0.27871
0.25071	-0.02739
0.32721	-0.02739
-0.20832	-0.18043
-0.13181	-0.07840
-0.10631	-0.12942
0.04670	0.27871
0.37822	0.27871
0.53123	0.40625
0.55673	0.50828
-0.08081	0.45726
0.32721	-0.18043
0.22521	0.27871
0.73524	0.04914
-0.00431	-0.02739
-2.91149	-0.02739
-0.53984	-0.33348
0.53123	0.40625
0.86275	0.35523
1.27078	0.27871
0.93925	0.45726
1.42379	-0.00188
0.02119	0.12566
-1.58541	0.20219
-0.38683	0.25320
0.45472	0.10015
0.32721	-0.15492
-0.00431	0.02363
0.12320	0.02363
0.40372	-0.28246
0.22521	0.10015
-1.02437	0.45726
-0.84586	0.45726
0.65874	0.55929
1.09226	0.25320
-0.33583	-0.15492
-0.38683	-0.30797
0.45472	0.25320
-0.10631	-0.25695
0.45472	0.25320
0.48022	0.38074
0.22521	0.61031
1.32178	0.53379
0.53123	0.25320
-1.04987	-0.10391
-0.92237	-0.25695
-0.31033	0.15117
0.55673	0.22769
0.48022	-0.15492
0.04670	0.07465
0.42922	0.50828
1.19427	0.25320
0.07220	0.15117
-0.69285	0.22769
-0.08081	0.32972
0.53123	-0.07840
-0.05531	-0.05289
1.04126	0.32972
0.42922	0.12566
-0.89686	0.02363
-0.56534	0.22769
0.30171	0.30422
0.02119	0.35523
0.17421	0.12566
-0.36133	-0.00188
0.30171	0.02363
0.83725	-0.05289
0.53123	-0.00188
0.50573	0.43176
0.27621	0.45726
-0.10631	-0.43551
0.22521	0.32972
-0.25932	0.20219
0.50573	0.20219
0.53123	0.17668
-0.61635	0.02363
-1.02437	0.25320
0.07220	-0.02739
0.55673	0.12566
0.78624	0.25320
0.48022	-0.07840
0.60773	0.45726
0.22521	0.20219
0.09770	0.17668
0.19971	0.22769
-0.13181	-0.05289
-0.08081	-0.30797
0.04670	-0.25695
-0.08081	0.22769
0.12320	0.15117
0.07220	0.48277
0.30171	0.38074
0.63323	0.35523
1.06676	0.25320
-0.31033	0.15117
-1.20288	0.12566
-0.00431	-0.12942
0.40372	0.17668
-0.02981	0.15117
0.53123	0.17668
0.73524	0.40625
0.02119	-0.07840
0.25071	0.10015
-0.00431	0.10015
-0.61635	-0.02739
0.42922	-0.00188
0.22521	0.12566
-1.89143	0.10015
0.09770	0.45726
2.11233	0.22769
1.06676	0.20219
0.99026	0.04914
0.42922	-0.05289
0.04670	0.04914
-0.36133	0.40625
-0.25932	-0.00188
-0.23382	-0.00188
-0.00431	0.35523
0.42922	0.45726
0.02119	0.30422
-0.02981	0.15117
-0.05531	0.22769
-0.56534	-0.02739
-0.56534	-0.15492
0.81175	-0.25695
0.48022	0.04914
0.12320	0.20219
0.65874	0.10015
0.65874	0.22769
0.40372	0.25320
-0.05531	0.12566
0.09770	0.12566
-0.08081	0.12566
-0.20832	0.22769
-0.13181	0.15117
0.73524	0.04914
0.76074	-0.02739
-1.33039	0.50828
-0.59084	-0.00188
0.65874	-0.15492
1.11776	0.45726
0.70974	0.38074
1.65330	0.63582
-0.08081	0.55929
-1.99343	0.32972
-0.33583	-0.48652
-0.48884	-0.15492
-0.89686	-0.41000
0.99026	-0.10391
1.04126	0.20219
0.86275	0.22769
0.76074	0.53379
0.53123	0.50828
1.44929	0.04914
-0.64185	0.32972
-2.86049	-0.00188
-0.38683	0.22769
0.58223	0.48277
0.70974	0.35523
0.81175	-0.10391
0.96476	-0.12942
0.45472	-0.02739
-0.15732	0.07465
0.04670	0.40625
-0.61635	0.20219
-0.74385	0.17668
0.30171	-0.25695
1.39828	0.25320
0.22521	0.25320
-0.53984	0.25320
-0.31033	0.30422
-0.71835	0.02363
0.73524	0.35523
0.65874	-0.02739
-1.22839	0.43176
0.02119	0.15117
0.30171	-0.18043
1.16877	0.02363
0.86275	0.15117
1.65330	0.04914
-0.33583	0.22769
-1.40690	0.12566
-0.00431	0.12566
0.12320	0.30422
0.81175	0.30422
0.17421	-0.05289
0.04670	-0.00188
-0.46334	0.38074
-0.10631	0.38074
0.60773	0.45726
0.63323	-0.07840
0.27621	0.35523
-0.15732	-0.05289
-1.35589	-0.00188
-1.40690	0.07465
-0.13181	-0.15492
0.60773	0.38074
1.29628	0.35523
1.27078	0.43176
1.14327	0.50828
-0.02981	-0.33348
0.83725	-0.10391
-1.17738	0.25320
-1.02437	0.17668
0.60773	0.07465
0.53123	-0.38449
0.42922	0.15117
-0.89686	0.20219
0.09770	0.50828
1.04126	0.22769
0.55673	0.71234
0.02119	0.15117
-0.64185	0.04914
-0.20832	-0.43551
0.32721	-0.18043
0.19971	0.20219
-0.05531	0.25320
-0.23382	0.25320
0.22521	0.25320
1.42379	0.17668
0.02119	0.17668
0.02119	0.35523
0.14870	0.04914
-1.04987	0.10015
-0.43783	0.68683
1.01576	-0.25695
0.96476	-0.35899
0.88825	-0.00188
0.45472	0.32972
-0.33583	0.12566
0.63323	0.43176
0.63323	0.32972
-0.28482	0.17668
-0.46334	-0.10391
-0.25932	0.27871
-0.13181	0.15117
0.40372	-0.15492
-0.82036	0.04914
-1.58541	0.32972
-0.25932	0.27871
1.14327	0.27871
1.21977	0.25320
1.14327	0.10015
0.42922	0.04914
1.21977	-0.05289
0.50573	0.48277
-1.91693	0.32972
0.37822	-0.15492
0.58223	0.22769
0.27621	0.02363
-0.87136	0.35523
0.07220	0.10015
0.88825	-0.12942
-0.23382	0.15117
0.73524	0.32972
0.45472	-0.00188
-0.79486	0.27871
-1.04987	0.38074
0.73524	-0.35899
1.65330	0.25320
-0.13181	0.17668
-1.17738	0.12566
0.73524	0.10015
0.65874	0.02363
-0.94787	-0.15492
0.30171	-0.28246
0.58223	0.35523
1.09226	0.32972
-0.51434	0.15117
-0.71835	0.58480
1.01576	0.58480
-0.41233	0.61031
-0.05531	0.35523
0.86275	-0.05289
0.83725	-0.18043
0.09770	-0.10391
-0.02981	-0.33348
0.02119	0.25320
-1.10088	-0.05289
-2.29945	0.10015
0.68424	0.20219
1.34728	-0.00188
0.07220	0.45726
0.68424	0.40625
1.11776	0.27871
0.96476	-0.25695
-0.23382	-0.00188
-0.94787	-0.10391
-0.41233	-0.18043
0.12320	-0.02739
0.42922	0.22769
-0.38683	0.27871
-0.48884	0.61031
0.58223	0.55929
1.11776	0.25320
0.48022	0.12566
0.40372	0.25320
-0.08081	-0.00188
-0.53984	0.12566
1.90832	0.17668
0.12320	-0.23145
-2.50347	0.63582
-1.10088	0.02363
1.24527	-0.02739
1.11776	-0.33348
0.83725	-0.35899
0.55673	-0.28246
-0.46334	0.71234
0.58223	0.15117
0.73524	0.38074
0.19971	0.61031
-0.92237	0.45726
0.32721	0.35523
0.60773	-0.25695
-0.51434	0.10015
0.55673	-0.15492
1.14327	0.12566
0.99026	0.45726
-0.84586	-0.15492
-2.09544	0.27871
0.65874	0.22769
0.70974	-0.25695
0.78624	0.22769
-0.05531	-0.23145
0.88825	0.22769
0.22521	0.07465
0.09770	0.40625
-0.05531	0.63582
0.99026	0.48277
0.19971	0.22769
-1.10088	-0.25695
-0.10631	-0.30797
0.12320	-0.25695
-0.10631	-0.20594
0.22521	0.35523
0.30171	0.38074
-0.20832	0.25320
-0.51434	0.22769
0.48022	0.25320
0.40372	-0.07840
0.78624	0.43176
0.22521	-0.10391
0.14870	0.45726
0.42922	0.40625
0.58223	-0.05289
0.58223	-0.15492
-1.20288	-0.25695
-0.38683	0.04914
0.86275	0.30422
-1.45790	-0.05289
0.55673	0.30422
-0.02981	0.55929
1.14327	0.40625
1.09226	0.25320
-1.07538	-0.41000
0.25071	-0.12942
2.62236	0.15117
0.09770	0.30422
-2.50347	0.66132
-0.18282	0.22769
1.44929	0.22769
-0.25932	-0.18043
0.22521	-0.35899
0.19971	-0.18043
1.06676	0.32972
0.88825	0.43176
-1.35589	0.20219
-1.53441	0.15117
0.19971	0.53379
0.70974	0.32972
1.62780	0.32972
1.01576	0.22769
-0.15732	-0.30797
-0.28482	-0.00188
0.04670	0.04914
0.27621	0.04914
-0.13181	0.20219
0.37822	0.20219
-0.53984	0.27871
0.53123	0.04914
-0.36133	0.10015
0.50573	0.10015
0.60773	0.25320
0.73524	0.43176
-0.25932	-0.05289
0.02119	0.22769
0.32721	-0.23145
0.14870	-0.05289
0.07220	0.25320
-0.48884	0.07465
-0.48884	0.10015
0.93925	0.45726
0.73524	0.30422
0.65874	0.22769
-0.08081	0.02363
0.50573	-0.18043
0.40372	0.02363
-0.76936	0.10015
-0.92237	-0.05289
0.65874	0.30422
-0.05531	0.25320
0.22521	0.35523
0.04670	-0.05289
0.65874	0.07465
0.93925	0.07465
0.55673	0.12566
-0.02981	0.15117
0.17421	0.45726
-0.31033	0.02363
0.30171	0.35523
-0.15732	-0.00188
0.19971	0.30422
0.09770	0.30422
-0.28482	-0.15492
-0.00431	-0.02739
-0.36133	-0.23145
0.32721	-0.12942
0.35272	0.76336
0.19971	0.07465
0.35272	0.17668
0.50573	0.35523
0.27621	0.04914
-0.00431	0.25320
-0.18282	0.25320
0.19971	0.02363
0.35272	0.17668
0.12320	0.04914
-0.18282	0.15117
1.44929	0.20219
0.09770	-0.00188
-1.96793	0.07465
-0.41233	0.10015
0.22521	0.20219
1.52579	0.30422
1.01576	-0.07840
-0.10631	-0.00188
-0.71835	0.20219
0.96476	-0.05289
0.65874	0.55929
-0.43783	0.38074
-0.08081	0.17668
0.32721	0.10015
-0.43783	0.25320
-0.36133	-0.28246
0.07220	-0.28246
0.27621	0.38074
0.27621	0.38074
0.50573	0.45726
0.17421	0.25320
0.32721	0.27871
0.12320	0.25320
-0.15732	-0.00188
0.37822	0.10015
0.17421	0.04914
0.37822	0.12566
0.65874	0.17668
-0.25932	0.07465
-0.74385	-0.10391
-1.33039	0.10015
-0.89686	0.07465
1.24527	0.15117
1.52579	0.32972
-0.23382	0.10015
-0.69285	0.20219
0.07220	0.40625
1.34728	-0.12942
1.44929	0.22769
-0.64185	-0.05289
-0.05531	-0.51203
0.14870	0.78886
-0.02981	0.04914
0.35272	0.50828
-0.15732	0.35523
0.19971	-0.02739
0.93925	0.40625
0.09770	-0.07840
-1.99343	-0.20594
0.12320	0.15117
0.73524	0.04914
0.50573	0.25320
0.45472	0.15117
0.12320	-0.05289
0.22521	0.07465
0.14870	0.22769
0.88825	0.43176
-0.51434	-0.00188
-0.61635	0.32972
-0.08081	-0.02739
-0.69285	0.32972
-0.46334	-0.05289
0.91375	0.38074
1.85731	0.38074
1.72980	0.02363
0.40372	0.04914
-1.02437	-0.15492
-0.92237	0.20219
0.22521	-0.15492
1.65330	0.07465
0.37822	0.55929
-1.58541	0.15117
0.02119	0.30422
0.63323	-0.33348
0.27621	0.48277
0.27621	0.15117
1.65330	0.10015
-0.89686	0.25320
-3.37052	0.15117
0.78624	0.63582
0.32721	-0.10391
0.22521	0.02363
1.65330	0.10015
1.11776	0.25320
-0.15732	0.32972
-0.13181	-0.23145
-0.18282	-0.25695
-0.00431	-0.18043
0.22521	0.22769
-0.08081	0.04914
0.09770	0.10015
0.53123	0.53379
0.19971	0.40625
-0.02981	0.32972
0.27621	0.35523
0.07220	-0.10391
-0.36133	0.25320
-0.15732	-0.02739
0.04670	-0.10391
1.34728	0.07465
-0.84586	0.17668
-2.65648	-0.00188
1.65330	-0.07840
1.55129	0.76336
0.58223	0.22769
0.86275	0.22769
0.27621	0.10015
-0.94787	-0.00188
-0.38683	0.12566
1.14327	-0.10391
1.55129	-0.15492
0.14870	0.12566
-0.69285	0.55929
-0.92237	0.58480
0.12320	0.04914
0.35272	0.02363
-1.33039	0.04914
0.35272	0.20219
1.57679	0.20219
1.21977	0.07465
-2.98800	0.45726
-2.50347	-0.07840
1.55129	-0.30797
2.18883	0.25320
1.39828	0.50828
0.91375	-0.00188
0.02119	-0.18043
0.14870	0.22769
0.27621	-0.02739
-0.82036	0.10015
-0.08081	0.38074
-0.23382	0.10015
-0.08081	0.12566
0.48022	0.35523
-0.15732	-0.07840
0.17421	0.50828
-0.51434	0.40625
0.81175	0.10015
0.14870	0.02363
-0.13181	-0.00188
0.88825	-0.05289
0.93925	0.04914
0.04670	-0.00188
-0.53984	0.27871
-0.92237	0.50828
0.99026	0.20219
0.83725	0.35523
0.17421	-0.05289
-0.38683	-0.33348
-0.15732	-0.07840
-0.38683	0.12566
0.53123	0.43176
1.09226	0.68683
0.78624	0.30422
-0.20832	0.04914
-0.53984	-0.12942
0.53123	0.02363
0.04670	-0.05289
-0.48884	-0.05289
-0.48884	0.25320
-0.08081	-0.61406
0.91375	1.22250
0.50573	0.86539
0.78624	-0.10391
0.04670	-0.10391
-1.91693	0.25320
0.12320	0.04914
0.96476	0.30422
0.83725	-0.05289
0.63323	-0.05289
1.04126	0.32972
0.42922	0.40625
-1.07538	0.10015
-0.82036	0.17668
0.65874	-0.00188
0.37822	-0.10391
0.65874	0.15117
0.12320	0.04914
-0.66735	0.45726
-0.59084	0.40625
-0.20832	0.02363
1.75531	0.15117
0.88825	0.12566
-0.51434	-0.07840
-0.69285	0.02363
0.42922	0.38074
0.12320	-0.00188
-1.10088	0.20219
0.17421	0.17668
0.53123	0.17668
0.09770	0.38074
1.04126	-0.05289
1.75531	-0.07840
0.14870	0.07465
-1.15188	-0.00188
-0.59084	0.22769
1.47479	0.66132
0.73524	0.73785
-1.61091	0.02363
0.12320	0.50828
0.42922	-0.69059
0.12320	-0.51203
0.78624	0.20219
0.45472	0.17668
-0.79486	-0.07840
0.12320	0.17668
0.17421	0.45726
0.09770	0.25320
-0.02981	0.15117
0.32721	-0.02739
0.91375	-0.00188
-0.79486	0.15117
-0.64185	0.30422
0.37822	0.25320
0.37822	0.25320
-0.18282	0.25320
0.09770	0.04914
1.90832	-0.10391
0.42922	0.07465
0.19971	0.55929
-2.19745	0.04914
-0.02981	0.81437
2.87738	-0.00188
0.32721	-0.46102
-1.76392	0.10015
0.53123	0.50828
0.07220	-0.12942
0.58223	-0.23145
0.73524	0.38074
-0.66735	-0.23145
-0.82036	0.15117
0.37822	0.25320
1.01576	0.12566
1.14327	0.91640
0.42922	0.78886
-1.48340	0.35523
-0.82036	0.02363
0.07220	-0.30797
0.02119	-0.23145
0.93925	-0.02739
1.11776	0.22769
0.83725	0.04914
1.47479	0.04914
-1.02437	0.38074
-1.40690	0.40625
0.12320	0.35523
0.55673	0.07465
0.14870	0.10015
-0.38683	0.17668
0.25071	-0.48652
0.42922	0.50828
-0.69285	-0.18043
0.83725	0.91640
0.65874	0.25320
-0.13181	0.02363
-0.76936	0.17668
0.63323	0.30422
-0.48884	0.02363
0.60773	-0.51203
1.06676	-0.15492
0.14870	0.07465
-0.23382	0.38074
-0.87136	0.25320
-0.18282	0.30422
0.65874	0.71234
1.24527	0.58480
0.37822	0.12566
-0.84586	-0.07840
0.27621	-0.30797
0.04670	-0.53754
0.70974	0.35523
0.81175	-0.18043
-0.53984	0.66132
-1.53441	0.30422
0.53123	0.12566
1.14327	0.20219
0.17421	0.04914
0.17421	0.25320
0.32721	0.20219
0.68424	-0.07840
-0.71835	0.02363
-1.63641	0.10015
0.68424	0.02363
0.25071	0.25320
-0.41233	0.15117
0.68424	0.22769
0.73524	-0.00188
1.57679	0.12566
0.27621	0.20219
-0.74385	-0.10391
0.78624	0.12566
-0.28482	0.32972
-1.45790	0.78886
0.63323	-0.48652
0.81175	0.43176
-0.18282	0.07465
0.42922	0.63582
0.63323	-0.02739
-0.05531	-0.07840
-0.20832	0.02363
-1.15188	-0.05289
0.58223	0.15117
0.63323	0.43176
0.17421	-0.05289
1.06676	0.32972
0.73524	0.04914
-0.38683	0.32972
-0.53984	0.20219
-0.25932	0.30422
0.42922	-0.25695
-0.31033	-0.02739
0.45472	-0.02739
-0.28482	0.20219
-0.20832	0.32972
0.73524	-0.10391
1.01576	-0.05289
-0.20832	0.32972
-0.08081	0.38074
-0.61635	0.20219
0.12320	0.58480
-0.33583	0.10015
0.63323	-0.25695
1.34728	-0.05289
1.27078	-0.15492
-2.32496	0.04914
-0.28482	0.22769
0.99026	0.02363
-0.02981	0.02363
-0.25932	0.27871
1.06676	0.38074
0.91375	0.55929
-0.20832	0.25320
0.19971	0.04914
0.48022	0.55929
1.06676	0.25320
-1.04987	0.07465
-3.60004	-0.56305
0.70974	0.27871
0.96476	-0.25695
1.06676	0.10015
-0.10631	0.38074
2.80087	-0.07840
0.45472	0.22769
-3.14101	0.30422
-1.07538	-0.05289
1.39828	0.04914
0.55673	-0.15492
0.76074	0.12566
0.32721	0.02363
-0.15732	0.30422
0.48022	0.12566
0.17421	0.35523
0.14870	0.10015
0.93925	0.25320
-0.51434	0.20219
-1.04987	-0.12942
0.91375	0.04914
0.70974	0.25320
-1.68742	-0.15492
-0.00431	0.04914
1.21977	0.43176
1.19427	0.78886
0.45472	0.50828
-0.97337	-0.25695
-1.91693	-0.66508
0.53123	-0.43551
2.11233	0.07465
0.91375	0.32972
-0.51434	0.12566
-1.50890	0.55929
0.12320	0.32972
1.80631	-0.02739
-0.02981	0.35523
0.78624	0.53379
0.83725	0.17668
0.53123	-0.07840
-0.53984	-0.33348
-1.53441	-0.05289
0.93925	0.50828
0.09770	0.15117
0.58223	0.30422
-0.53984	0.27871
0.91375	0.15117
1.32178	-0.10391
-0.64185	-0.10391
-0.28482	-0.00188
-0.33583	-0.00188
-0.41233	-0.10391
0.30171	0.17668
-0.15732	-0.07840
-0.08081	0.61031
0.88825	0.22769
0.37822	0.53379
0.27621	0.27871
0.78624	0.71234
-1.02437	0.76336
0.27621	-0.10391
-0.92237	-0.84363
-0.56534	0.96742
1.47479	-0.48652
1.24527	-0.92016
0.32721	-0.20594
0.53123	0.12566
0.63323	0.50828
-0.05531	0.40625
-0.08081	0.15117
1.24527	0.20219
-0.23382	0.32972
-3.39602	0.66132
-0.64185	-0.05289
1.29628	-0.00188
2.77537	0.20219
-0.38683	-0.02739
-2.78398	0.12566
0.48022	0.20219
0.22521	-0.07840
2.06133	-0.10391
0.17421	0.20219
0.37822	0.38074
0.65874	0.10015
-0.94787	-0.10391
0.93925	0.17668
0.45472	0.25320
-0.36133	0.43176
-0.38683	0.40625
-0.84586	0.38074
0.40372	-0.00188
0.53123	-0.18043
-0.36133	0.40625
-0.43783	0.10015
0.35272	-0.51203
0.93925	0.35523
1.01576	0.40625
0.35272	-0.07840
0.14870	0.20219
0.35272	-0.02739
-0.10631	-0.48652
-0.13181	0.27871
0.55673	0.68683
-0.36133	0.07465
-0.51434	0.22769
0.19971	-0.00188
-0.08081	-0.12942
1.09226	0.07465
-0.23382	0.10015
-1.22839	0.07465
0.76074	0.17668
-0.25932	0.02363
0.45472	0.35523
0.99026	0.10015
-0.46334	0.38074
-0.08081	0.61031
0.93925	0.15117
0.50573	0.07465
0.76074	-0.43551
0.12320	0.20219
-0.23382	-0.05289
1.06676	0.35523
-0.02981	0.58480
-1.66191	0.10015
0.37822	0.40625
0.83725	-0.41000
-0.20832	0.10015
0.53123	0.22769
0.30171	0.20219
0.09770	0.25320
-0.10631	0.04914
1.09226	0.45726
-0.18282	-0.02739
-0.51434	0.25320
-0.53984	0.07465
0.02119	0.35523
-0.00431	0.32972
0.96476	0.25320
0.83725	-0.05289
-0.31033	-0.00188
-1.27939	0.07465
0.86275	0.35523
1.37278	-0.02739
1.09226	0.20219
0.02119	0.40625
-0.46334	0.12566
-0.28482	-0.33348
1.67880	0.38074
0.83725	0.25320
-0.74385	-0.20594
-1.40690	-0.00188
0.50573	0.15117
0.14870	0.25320
-0.76936	0.43176
0.02119	0.38074
1.44929	0.22769
-1.07538	0.20219
-0.05531	0.12566
0.09770	-0.10391
-0.48884	-0.35899
1.14327	-0.05289
0.96476	0.43176
0.27621	0.94191
0.78624	0.58480
0.35272	0.10015
0.45472	0.35523
-0.48884	-0.00188
-0.48884	-0.58856
-1.35589	-0.33348
0.40372	0.17668
0.78624	-0.15492
0.76074	0.27871
0.32721	0.58480
-0.10631	0.30422
0.22521	0.35523
