0.07220	0.25320
0.14870	0.25320
0.25071	0.10015
0.14870	-0.10391
0.09770	-0.07840
0.14870	0.43176
0.12320	0.48277
0.22521	0.20219
0.17421	-0.10391
0.07220	0.15117
0.09770	0.25320
0.14870	0.25320
0.22521	0.25320
0.12320	0.04914
0.04670	0.10015
0.12320	0.25320
0.09770	0.20219
0.19971	0.12566
0.14870	0.02363
0.12320	-0.05289
0.12320	0.20219
0.17421	0.27871
0.17421	0.20219
0.09770	0.20219
0.09770	0.15117
0.14870	-0.02739
0.25071	-0.00188
0.17421	0.22769
0.07220	0.35523
0.14870	0.43176
0.12320	0.20219
0.19971	0.04914
0.12320	0.17668
0.12320	0.15117
0.19971	0.12566
0.12320	0.07465
0.14870	0.17668
0.22521	0.20219
0.19971	0.07465
0.14870	0.12566
0.07220	0.20219
0.14870	0.15117
0.22521	-0.23145
0.14870	0.07465
0.04670	0.43176
0.17421	0.17668
0.19971	0.10015
0.12320	0.10015
0.09770	0.22769
0.09770	0.27871
0.22521	0.20219
0.14870	0.07465
0.07220	0.12566
0.14870	0.20219
0.14870	0.10015
0.12320	0.17668
0.14870	0.10015
0.14870	0.04914
0.09770	0.04914
0.12320	0.30422
0.12320	0.12566
0.07220	0.15117
0.14870	0.07465
0.12320	0.15117
0.14870	0.07465
0.22521	0.17668
0.14870	0.22769
0.07220	0.22769
0.19971	0.22769
0.12320	0.04914
0.09770	0.10015
0.19971	0.17668
0.14870	0.20219
0.19971	0.38074
0.25071	0.20219
0.12320	0.04914
0.07220	0.10015
0.19971	0.25320
0.12320	-0.23145
0.07220	0.17668
0.14870	0.20219
0.19971	0.12566
0.07220	0.17668
0.14870	0.17668
0.22521	0.15117
0.14870	0.10015
0.14870	0.15117
0.19971	0.10015
0.14870	0.20219
0.07220	0.25320
0.25071	0.02363
0.17421	0.07465
0.07220	0.25320
0.17421	0.07465
0.14870	0.17668
0.04670	0.27871
0.14870	0.04914
0.14870	-0.00188
0.07220	0.22769
0.22521	0.32972
0.14870	0.15117
0.07220	0.07465
0.22521	0.25320
0.14870	0.12566
0.14870	0.07465
0.12320	0.12566
0.12320	0.20219
0.19971	0.07465
0.17421	0.04914
0.07220	0.15117
0.04670	0.22769
0.12320	0.27871
0.17421	0.17668
0.22521	0.15117
0.17421	0.15117
0.07220	0.07465
0.14870	0.15117
0.22521	-0.15492
0.22521	0.40625
0.14870	0.35523
0.12320	-0.05289
0.12320	-0.15492
0.22521	0.20219
0.22521	0.25320
0.17421	0.38074
0.09770	0.17668
0.12320	0.15117
0.14870	0.15117
0.19971	0.12566
0.14870	0.25320
0.07220	0.20219
0.12320	0.15117
0.22521	-0.00188
0.12320	-0.25695
0.12320	0.25320
0.14870	0.38074
0.22521	0.43176
0.17421	0.04914
0.07220	0.02363
0.14870	0.02363
0.14870	0.07465
0.22521	0.10015
0.12320	0.20219
0.04670	0.25320
0.12320	0.32972
0.19971	0.10015
0.14870	0.10015
0.14870	0.17668
0.22521	0.17668
0.14870	0.10015
0.09770	0.12566
0.12320	0.22769
0.19971	0.32972
0.14870	-0.05289
0.17421	0.22769
0.19971	-0.00188
0.12320	0.15117
0.07220	0.17668
0.12320	0.04914
0.19971	0.12566
0.17421	0.30422
0.09770	0.30422
0.14870	0.27871
0.12320	0.10015
0.09770	0.27871
0.17421	0.22769
0.12320	-0.10391
0.09770	0.04914
0.12320	0.15117
0.19971	-0.00188
0.17421	0.04914
0.12320	0.12566
0.12320	0.27871
0.19971	0.25320
0.14870	0.20219
0.04670	0.20219
0.14870	0.17668
0.19971	0.02363
0.09770	0.10015
0.14870	-0.30797
0.22521	0.20219
0.12320	0.32972
0.14870	0.35523
0.12320	0.12566
0.22521	0.07465
0.09770	0.22769
0.14870	0.30422
0.25071	0.02363
0.07220	0.15117
0.14870	0.22769
0.22521	0.15117
0.14870	0.04914
0.07220	0.10015
0.22521	-0.12942
0.12320	0.35523
0.07220	0.32972
0.14870	0.04914
0.25071	-0.05289
0.07220	0.22769
0.17421	0.32972
0.17421	-0.02739
0.14870	-0.02739
0.07220	0.40625
0.22521	0.43176
0.17421	-0.00188
0.07220	0.12566
0.14870	0.27871
0.22521	0.02363
0.14870	-0.05289
0.07220	0.12566
0.12320	0.07465
0.12320	0.25320
0.12320	0.17668
0.12320	0.22769
0.14870	0.25320
0.14870	0.12566
0.09770	0.22769
0.14870	0.20219
0.22521	-0.02739
0.14870	-0.07840
0.07220	0.20219
0.12320	0.27871
0.22521	0.07465
0.07220	0.22769
0.14870	0.17668
0.14870	0.10015
0.09770	0.25320
0.22521	0.27871
0.14870	0.07465
0.14870	-0.15492
0.19971	-0.15492
0.09770	0.25320
0.09770	0.38074
0.12320	0.30422
0.07220	0.35523
0.12320	0.04914
0.19971	0.10015
0.09770	-0.00188
0.14870	0.15117
0.19971	0.40625
0.04670	-0.00188
0.14870	0.07465
0.19971	0.27871
0.17421	0.25320
0.17421	0.17668
0.22521	0.10015
0.07220	0.22769
0.22521	0.12566
0.12320	0.10015
0.09770	0.07465
0.14870	0.02363
0.19971	0.10015
0.04670	0.25320
0.12320	0.25320
0.14870	0.25320
0.22521	0.15117
0.09770	0.15117
0.14870	0.10015
0.19971	0.04914
0.14870	0.20219
0.09770	0.32972
0.19971	-0.15492
0.12320	0.20219
0.07220	0.27871
0.12320	0.25320
0.17421	0.07465
0.14870	0.17668
0.19971	0.04914
0.22521	-0.02739
0.17421	0.17668
0.17421	0.38074
0.22521	0.22769
0.14870	0.20219
0.12320	0.02363
0.12320	0.25320
0.19971	0.17668
0.09770	0.15117
0.07220	0.04914
0.12320	-0.05289
0.17421	0.04914
0.12320	0.12566
0.09770	0.30422
0.14870	0.40625
0.22521	0.12566
0.17421	-0.00188
0.09770	0.04914
0.14870	0.15117
0.19971	0.17668
0.14870	0.12566
0.09770	0.30422
0.17421	0.22769
0.12320	0.10015
0.09770	0.02363
0.12320	0.25320
0.12320	0.17668
0.27621	0.02363
0.17421	0.17668
0.09770	0.25320
0.17421	0.17668
0.25071	0.10015
0.17421	0.17668
0.14870	0.15117
0.22521	0.04914
0.14870	0.15117
0.07220	0.20219
0.12320	0.15117
0.12320	0.15117
0.07220	0.17668
0.14870	0.15117
0.22521	0.10015
0.12320	0.04914
0.09770	0.30422
0.22521	0.17668
0.14870	0.17668
0.09770	0.25320
0.14870	-0.05289
0.25071	0.12566
0.14870	0.30422
0.07220	0.22769
0.17421	0.07465
0.12320	-0.05289
0.07220	0.30422
0.09770	0.12566
0.22521	0.20219
0.12320	0.25320
0.09770	0.25320
0.14870	0.15117
0.14870	-0.00188
0.04670	0.12566
0.17421	0.17668
0.12320	0.02363
0.09770	0.15117
0.14870	0.20219
0.14870	0.15117
0.19971	0.12566
0.17421	0.10015
0.07220	0.17668
0.12320	0.15117
0.12320	0.17668
0.17421	0.20219
0.22521	0.12566
0.14870	0.25320
0.09770	0.27871
0.19971	0.02363
0.09770	-0.05289
0.14870	-0.00188
0.22521	0.02363
0.14870	0.55929
0.14870	-0.07840
0.12320	0.12566
0.09770	0.25320
0.17421	0.22769
0.12320	0.15117
0.07220	0.15117
0.12320	0.22769
0.17421	0.10015
0.09770	0.15117
0.17421	0.10015
0.19971	0.02363
0.12320	0.20219
0.17421	0.12566
0.22521	0.04914
0.14870	0.20219
0.12320	0.17668
0.14870	0.07465
0.07220	0.12566
0.12320	0.15117
0.12320	0.10015
0.12320	0.17668
0.07220	0.22769
0.12320	0.15117
0.12320	0.15117
0.17421	0.20219
0.17421	0.20219
0.19971	0.20219
0.09770	0.22769
0.07220	0.15117
0.17421	-0.02739
0.25071	0.07465
0.14870	-0.28246
0.09770	0.35523
0.12320	0.45726
0.22521	0.27871
0.04670	0.22769
0.07220	0.20219
0.19971	0.04914
0.12320	0.02363
0.09770	0.07465
0.19971	0.15117
0.09770	-0.05289
0.19971	0.22769
0.17421	0.15117
0.09770	0.22769
0.22521	0.22769
0.12320	0.12566
0.07220	0.12566
0.19971	0.12566
0.12320	0.17668
0.07220	0.25320
0.17421	0.20219
0.12320	-0.02739
0.09770	0.10015
0.12320	0.15117
0.22521	0.17668
0.14870	0.07465
0.09770	0.20219
0.12320	0.04914
0.25071	0.38074
0.22521	0.15117
0.09770	0.15117
0.12320	0.10015
0.22521	0.15117
0.12320	0.10015
0.07220	0.20219
0.09770	0.10015
0.27621	0.07465
0.09770	0.12566
0.09770	0.17668
0.12320	0.15117
0.17421	0.10015
0.09770	0.17668
0.09770	0.22769
0.12320	0.20219
0.22521	0.15117
0.17421	0.12566
0.09770	-0.00188
0.14870	0.02363
0.19971	0.04914
0.12320	0.35523
0.07220	0.25320
0.14870	0.22769
0.22521	0.15117
0.12320	0.10015
0.12320	0.15117
0.19971	0.15117
0.14870	0.02363
0.09770	0.07465
0.14870	0.20219
0.12320	0.25320
0.22521	0.12566
0.12320	-0.07840
0.09770	0.04914
0.12320	0.17668
0.19971	0.15117
0.14870	0.35523
0.09770	0.17668
0.12320	0.22769
0.22521	0.15117
0.17421	0.15117
0.04670	0.04914
0.22521	0.15117
0.12320	-0.07840
0.09770	0.32972
0.12320	0.30422
0.12320	0.20219
0.09770	0.07465
0.14870	0.15117
0.22521	0.22769
0.22521	-0.02739
0.14870	-0.00188
0.07220	0.07465
0.19971	0.04914
0.12320	0.12566
0.07220	0.25320
0.14870	0.35523
0.22521	0.22769
0.12320	0.12566
0.07220	0.07465
0.19971	0.15117
0.14870	0.17668
0.09770	0.17668
0.14870	0.22769
0.14870	0.15117
0.19971	0.10015
0.17421	0.15117
0.14870	0.25320
0.12320	0.20219
0.14870	0.04914
0.12320	0.17668
0.14870	0.07465
0.12320	0.04914
0.09770	0.20219
0.19971	0.17668
0.12320	0.07465
0.14870	0.20219
0.22521	0.15117
0.12320	0.17668
0.09770	0.20219
0.17421	-0.18043
0.07220	0.25320
0.14870	0.15117
0.19971	0.02363
0.09770	0.35523
0.14870	0.43176
0.14870	0.04914
0.14870	0.04914
0.25071	-0.15492
0.09770	0.35523
0.19971	0.17668
0.12320	0.00000
0.22521	0.15117
0.14870	0.15117
0.12320	0.15117
0.19971	0.02363
0.07220	-0.00188
0.14870	0.07465
0.14870	0.20219
0.09770	0.20219
0.22521	0.35523
0.14870	0.12566
0.17421	-0.02739
0.22521	0.25320
0.14870	0.20219
0.14870	0.17668
0.19971	0.25320
0.12320	0.04914
0.04670	0.07465
0.22521	0.17668
0.12320	0.12566
0.17421	0.07465
0.22521	0.17668
0.12320	0.04914
0.14870	0.15117
0.12320	0.20219
0.09770	0.10015
0.14870	0.17668
0.19971	0.22769
0.12320	0.17668
0.14870	0.17668
0.22521	0.22769
0.12320	0.15117
0.17421	0.12566
0.14870	0.25320
0.07220	-0.02739
0.12320	0.15117
0.19971	0.17668
0.09770	0.17668
0.17421	0.35523
0.14870	0.15117
0.17421	0.12566
0.19971	-0.15492
0.04670	0.10015
0.14870	0.38074
0.19971	0.17668
0.14870	-0.00188
0.14870	-0.12942
0.17421	0.27871
0.12320	0.27871
0.19971	0.40625
0.25071	-0.05289
0.12320	0.12566
0.14870	0.25320
0.22521	0.15117
0.14870	0.10015
0.14870	0.12566
0.19971	0.15117
0.14870	0.02363
0.07220	0.12566
0.19971	0.12566
0.12320	0.10015
0.14870	0.12566
0.14870	0.27871
0.14870	0.20219
0.04670	0.07465
-0.02981	0.15117
0.04670	0.25320
0.14870	0.10015
0.32721	0.17668
0.30171	0.20219
0.17421	0.17668
0.22521	0.15117
0.14870	0.04914
0.04670	0.02363
0.12320	0.22769
0.12320	0.35523
0.04670	0.15117
0.12320	0.10015
0.14870	0.17668
0.12320	0.10015
0.07220	0.12566
0.12320	0.27871
0.17421	0.10015
0.09770	0.07465
0.14870	0.17668
0.22521	0.15117
0.09770	0.12566
0.14870	0.17668
0.14870	0.32972
0.09770	-0.05289
0.14870	-0.35899
0.17421	0.15117
0.09770	0.07465
0.22521	0.58480
0.14870	0.38074
0.14870	0.20219
0.22521	0.27871
0.14870	0.25320
0.07220	0.02363
0.12320	0.12566
0.17421	0.10015
0.12320	0.10015
0.12320	-0.20594
0.17421	0.25320
0.22521	0.17668
-0.00431	-1.48133
-0.00431	0.32972
0.02119	0.61031
0.07220	0.86539
0.22521	1.01843
0.45472	-0.35899
0.35272	0.22769
0.27621	0.43176
0.02119	-0.53754
0.07220	0.71234
0.25071	0.30422
-0.08081	-0.63957
-0.15732	-0.86914
0.02119	-0.71609
0.30171	1.17148
0.32721	-0.05289
0.30171	-0.00188
0.30171	1.86019
-0.05531	1.01843
0.02119	0.94191
0.58223	0.30422
0.37822	-1.17523
0.17421	-0.38449
0.12320	-0.00188
-0.36133	-0.86914
-0.18282	0.40625
0.02119	0.10015
-0.25932	-0.61406
-0.43783	0.27871
0.17421	0.71234
0.88825	1.78367
1.01576	0.32972
0.40372	-0.07840
0.27621	1.73265
0.30171	2.65093
0.58223	-2.70570
1.01576	-5.48604
0.14870	-6.99100
-1.02437	1.06945
-2.65648	3.69675
-1.89143	4.64053
0.83725	5.20170
1.37278	2.29382
1.65330	-2.62918
1.98482	2.98253
1.85731	2.90601
1.80631	-10.15396
-1.17738	-1.35379
-5.23214	0.25320
-2.45246	1.55410
0.07220	1.96222
0.99026	-0.15492
2.85188	1.19699
2.97938	2.16628
1.06676	0.71234
-1.33039	-1.83844
-0.46334	-1.04770
0.73524	0.63582
1.39828	-4.46573
2.67337	-2.96078
0.53123	1.50308
-1.30489	-3.03730
-0.79486	2.31933
-5.61467	4.53850
-4.23758	5.07416
0.07220	4.23241
-1.02437	-1.25176
1.27078	-0.58856
3.43841	2.80397
4.56049	-2.50164
4.96851	-6.71041
3.38741	-1.55785
1.21977	0.94191
-2.32496	0.76336
-4.82411	2.42136
-1.17738	-0.89465
-0.41233	0.71234
-0.15732	-3.72601
-0.18282	-5.35850
-1.48340	2.01323
1.04126	3.74776
0.63323	4.13038
0.76074	3.11007
1.75531	2.57441
0.12320	-0.46102
0.50573	-1.40480
-1.07538	-0.20594
-2.75848	-1.48133
0.09770	-1.78742
1.70430	-2.14453
1.57679	-0.05289
1.44929	2.11527
0.37822	0.04914
0.60773	-0.71609
0.63323	-4.74632
0.07220	2.01323
-0.38683	4.23241
-1.45790	1.04394
-2.27395	-1.68539
-0.87136	1.52859
1.27078	1.37554
2.36734	3.41616
0.19971	-1.68539
-1.86593	-1.37929
-0.94787	0.50828
1.16877	0.25320
1.57679	-0.20594
1.42379	-0.51203
1.01576	0.15117
0.55673	0.02363
0.22521	-0.02739
0.25071	1.50308
0.09770	-2.09351
-2.27395	-3.47093
-1.91693	-1.25176
-0.69285	-0.10391
0.09770	2.75296
1.09226	1.98773
1.34728	2.54890
1.24527	-0.48652
0.96476	1.45206
0.70974	0.73785
0.86275	-0.12942
0.14870	-0.41000
-0.13181	-1.02219
-1.33039	-1.58336
-2.52897	0.89089
-1.04987	-0.30797
1.09226	0.30422
1.55129	0.68683
1.72980	1.88570
1.52579	-0.35899
0.99026	-0.81812
0.32721	-2.83324
-1.91693	-1.07320
-0.23382	1.37554
0.17421	2.37034
0.19971	0.25320
0.09770	-1.76191
-0.18282	0.35523
0.76074	1.86019
0.60773	-0.56305
0.37822	0.10015
0.45472	-0.53754
0.53123	-0.10391
-0.13181	0.12566
0.07220	-0.28246
0.12320	0.15117
-0.43783	0.76336
-1.20288	1.45206
-0.10631	1.19699
0.73524	0.22769
0.48022	-1.20074
0.53123	0.55929
1.14327	-1.32828
1.14327	0.58480
-0.23382	0.30422
-2.17195	-0.23145
-1.50890	-0.43551
1.11776	-0.02739
1.83181	-0.41000
0.63323	1.50308
-0.97337	-1.04770
-0.00431	-0.43551
0.40372	1.68163
0.55673	2.37034
0.99026	-1.27726
1.01576	-3.72601
-0.33583	1.29902
-0.48884	1.14597
0.12320	-1.14973
-0.02981	2.52339
0.17421	0.83988
-0.08081	3.11007
0.02119	2.65093
0.25071	-1.53234
0.02119	-0.92016
0.30171	0.66132
0.12320	-1.20074
0.07220	-2.93527
-0.36133	-0.35899
-0.66735	0.20219
0.27621	0.53379
0.50573	1.04394
0.65874	0.43176
0.50573	-0.58856
0.65874	0.50828
0.48022	-0.46102
0.48022	0.66132
0.17421	0.32972
-0.23382	-0.63957
-0.59084	-0.12942
-0.33583	0.25320
0.25071	0.76336
0.35272	1.45206
0.17421	1.32453
-0.02981	-0.30797
0.76074	0.45726
0.50573	0.58480
0.32721	-0.23145
-1.04987	-0.23145
-1.25389	0.20219
0.19971	-0.58856
0.83725	-1.45582
1.34728	-0.66508
1.09226	-1.55785
0.35272	2.16628
-0.46334	1.78367
-0.08081	0.02363
0.53123	1.09496
0.53123	1.52859
-0.23382	-1.09871
-0.08081	0.94191
0.07220	-2.78222
-0.23382	-0.92016
-0.00431	1.47757
0.68424	1.80917
-0.08081	0.73785
-1.04987	-0.86914
-0.92237	-0.23145
0.60773	0.73785
1.47479	-1.99148
1.47479	-0.66508
1.06676	2.01323
0.73524	1.57960
0.14870	1.50308
-0.61635	-1.88945
-1.58541	-1.40480
-0.05531	-0.43551
-0.48884	1.78367
-1.38139	0.96742
0.19971	0.58480
1.19427	-0.00188
1.09226	-0.18043
0.83725	1.01843
0.58223	-1.02219
0.22521	0.02363
0.17421	0.71234
0.12320	-1.63437
-0.02981	-0.97117
-0.13181	1.17148
-0.74385	1.17148
-0.08081	1.04394
0.42922	1.63062
0.37822	0.30422
0.45472	0.15117
0.17421	-0.94566
0.07220	0.04914
0.02119	1.40105
-1.30489	-0.84363
-0.08081	-1.71090
1.32178	-0.00188
0.14870	-0.02739
0.99026	2.08976
0.02119	-0.97117
-0.99887	0.83988
0.88825	0.43176
0.35272	-0.81812
-0.18282	-0.25695
0.70974	1.78367
0.83725	0.30422
0.88825	1.70714
0.40372	0.32972
-0.05531	-1.91496
-0.33583	-0.97117
-0.23382	0.35523
-0.23382	0.76336
-0.10631	1.24800
-0.31033	1.27351
-0.08081	1.40105
-0.13181	-0.76711
0.25071	-2.70570
0.42922	-0.28246
0.32721	0.20219
-1.15188	1.37554
0.02119	1.73265
1.06676	1.55410
1.14327	-1.37929
0.78624	-0.66508
0.50573	-0.10391
0.30171	0.35523
0.19971	0.45726
-0.18282	0.76336
-0.31033	-0.56305
0.12320	-0.84363
0.40372	-1.40480
0.53123	-0.15492
-0.87136	0.94191
-1.12638	0.58480
0.30171	0.91640
0.65874	0.76336
1.39828	1.52859
1.32178	1.37554
-0.33583	-1.37929
-1.55991	-1.86394
-1.35589	-1.25176
-1.25389	0.68683
0.60773	0.35523
1.60230	0.32972
1.70430	2.34484
1.16877	0.22769
0.91375	0.50828
0.58223	0.10015
0.19971	-1.17523
-1.30489	0.35523
-1.10088	0.78886
-0.59084	2.95702
-0.08081	-1.81293
0.14870	-5.91967
0.32721	-0.58856
0.32721	1.98773
0.48022	2.34484
0.25071	2.21730
0.19971	0.58480
0.45472	0.30422
0.12320	1.91120
0.12320	1.19699
0.07220	-2.01699
0.14870	-2.24656
-0.05531	-3.06281
0.30171	1.29902
0.81175	1.24800
0.58223	1.55410
0.53123	1.37554
0.30171	1.32453
-0.31033	-0.69059
-2.24845	-1.99148
-0.46334	-0.02739
0.60773	0.71234
1.27078	0.89089
0.53123	-0.86914
0.63323	-0.92016
0.63323	-0.07840
-0.38683	0.66132
-0.33583	0.96742
0.60773	0.55929
0.55673	-0.28246
0.32721	0.30422
-0.08081	1.37554
-0.20832	0.81437
0.07220	-0.30797
0.68424	-2.24656
-0.46334	-2.04250
-0.48884	-1.20074
-0.38683	0.78886
-0.08081	0.43176
0.19971	1.96222
-0.56534	1.32453
0.53123	1.29902
1.04126	0.66132
1.21977	0.50828
0.83725	0.10015
0.45472	-0.15492
0.07220	-0.53754
0.17421	-0.35899
-0.10631	0.86539
-0.10631	-0.71609
-0.15732	-3.11382
0.07220	-0.00188
0.02119	0.43176
-0.20832	0.02363
-0.18282	2.01323
0.09770	1.12046
-0.15732	-0.48652
0.07220	0.78886
0.19971	0.96742
-0.08081	-2.65468
0.12320	0.58480
0.17421	0.38074
0.50573	1.83468
0.93925	1.37554
0.93925	0.66132
0.63323	0.20219
-0.25932	-0.46102
-0.43783	-0.35899
-0.20832	-0.18043
0.27621	-0.23145
0.35272	-0.51203
0.12320	-0.56305
-0.02981	-0.00188
0.04670	0.68683
-0.05531	-0.05289
-0.18282	0.61031
-0.23382	-1.27726
0.22521	0.58480
0.53123	1.42656
0.27621	0.55929
0.07220	0.15117
0.19971	-1.17523
0.17421	-1.55785
-0.10631	1.47757
0.07220	1.68163
0.25071	1.80917
0.53123	0.68683
0.55673	-0.05289
0.53123	1.42656
0.50573	0.55929
-0.20832	-1.30277
-0.18282	-0.05289
-1.61091	-1.88945
0.14870	-1.63437
-0.20832	-0.28246
0.96476	0.68683
1.27078	0.40625
0.81175	0.96742
0.37822	0.89089
0.25071	0.58480
0.04670	0.71234
0.07220	0.20219
-0.61635	0.07465
-1.04987	-0.07840
-0.89686	0.81437
-0.05531	-0.38449
0.37822	-0.66508
0.58223	-0.05289
0.48022	0.48277
0.42922	-0.97117
0.35272	0.76336
0.32721	0.76336
0.35272	0.68683
0.32721	-0.30797
-0.15732	-1.02219
-0.08081	0.10015
-0.18282	0.66132
0.53123	1.78367
0.50573	1.42656
0.37822	0.02363
-0.15732	0.07465
-0.53984	0.43176
0.22521	0.94191
0.99026	-1.07320
0.81175	-0.79262
-0.08081	-0.79262
-0.66735	-0.10391
-0.46334	0.66132
-0.08081	0.25320
0.42922	0.40625
0.65874	0.50828
0.50573	-0.00188
0.81175	-0.15492
0.48022	-0.51203
0.32721	1.45206
-1.89143	0.25320
-2.09544	-0.15492
-0.18282	0.81437
1.09226	-1.20074
1.37278	-0.18043
1.27078	1.06945
1.11776	-0.46102
0.48022	1.14597
0.30171	1.19699
-0.00431	-0.20594
-0.36133	-0.89465
-0.41233	-1.68539
-0.48884	0.66132
-0.33583	1.60511
0.14870	0.78886
0.12320	1.17148
0.32721	0.63582
0.32721	-1.20074
0.02119	-0.33348
-0.25932	-0.33348
-0.05531	-0.35899
0.19971	1.55410
0.63323	-0.69059
0.70974	-0.12942
0.83725	0.43176
0.63323	0.89089
0.12320	-0.69059
-0.64185	0.50828
-1.40690	0.30422
-0.51434	0.35523
0.55673	0.02363
1.04126	-0.56305
0.78624	-0.18043
1.01576	0.81437
-0.05531	0.66132
-1.71292	0.71234
0.22521	-1.25176
0.30171	0.12566
0.27621	0.66132
-0.38683	0.55929
-0.36133	-0.02739
0.50573	0.15117
0.81175	0.12566
0.45472	0.68683
-0.00431	0.27871
0.12320	-0.20594
-0.13181	0.48277
0.12320	-0.99668
0.09770	-1.25176
0.07220	0.83988
0.53123	1.14597
0.40372	0.15117
-0.28482	-0.05289
-0.66735	-0.41000
-0.33583	-0.30797
-0.64185	0.83988
0.73524	1.65613
1.04126	1.29902
0.68424	2.14077
0.70974	0.71234
0.53123	-3.21585
0.22521	-1.68539
0.14870	0.32972
-0.33583	1.01843
-0.31033	0.94191
-0.28482	0.38074
-0.51434	0.25320
-0.20832	0.17668
0.91375	1.12046
0.99026	0.83988
0.02119	-1.71090
-0.76936	-1.30277
-0.71835	0.25320
0.48022	0.45726
0.70974	0.25320
0.58223	0.02363
0.70974	0.63582
0.50573	0.89089
0.07220	0.91640
-0.53984	0.07465
-0.20832	-0.89465
-0.00431	0.04914
0.50573	0.45726
0.35272	0.50828
0.40372	-0.23145
-0.31033	0.40625
-0.79486	0.22769
0.22521	0.61031
0.68424	-0.28246
0.02119	0.55929
-0.20832	-0.23145
-0.08081	-0.02739
0.65874	-1.02219
0.96476	0.99292
0.60773	-0.89465
-0.18282	0.81437
0.02119	0.12566
-0.08081	0.53379
0.07220	0.89089
0.32721	0.43176
0.27621	0.22769
-0.08081	-0.61406
-0.28482	-0.28246
-0.33583	0.27871
0.19971	0.76336
0.48022	0.07465
0.37822	-0.35899
-0.92237	0.78886
-1.55991	-0.38449
0.27621	0.20219
0.81175	-0.25695
1.01576	-0.05289
0.93925	0.25320
0.81175	-0.07840
0.32721	0.25320
0.22521	0.45726
-0.08081	0.48277
-0.33583	-0.38449
-0.18282	-0.76711
-0.02981	0.35523
0.07220	1.19699
0.27621	0.45726
0.27621	1.29902
0.07220	0.53379
-0.33583	-1.83844
-0.05531	-2.39961
-0.82036	0.58480
-0.28482	1.63062
0.81175	1.14597
0.78624	0.73785
0.42922	-0.02739
0.65874	0.15117
0.93925	0.45726
0.68424	0.78886
-0.48884	-0.33348
-0.69285	-1.12422
-0.43783	-0.63957
0.30171	-0.35899
0.65874	0.76336
0.30171	0.55929
0.83725	0.22769
-0.13181	-1.25176
-0.10631	0.04914
-0.53984	1.19699
-0.59084	-0.10391
0.14870	-0.15492
0.81175	1.04394
0.45472	0.89089
0.12320	0.63582
0.12320	0.63582
0.09770	0.04914
0.37822	-0.07840
0.14870	-0.89465
0.25071	-0.41000
0.32721	0.45726
0.25071	-0.05289
0.19971	1.01843
-0.08081	0.35523
0.12320	-0.20594
-0.00431	-0.43551
0.17421	-0.71609
-0.25932	0.45726
-0.15732	0.43176
0.27621	0.25320
-0.31033	-0.07840
0.02119	0.76336
0.42922	0.50828
0.86275	-0.99668
0.30171	0.50828
0.53123	0.04914
-0.08081	0.25320
0.30171	0.10015
0.22521	-0.38449
0.02119	0.20219
0.22521	0.55929
0.35272	0.78886
0.35272	0.45726
-0.61635	0.48277
-0.41233	0.53379
0.22521	-0.12942
0.25071	-1.60887
0.40372	-0.81812
-0.08081	0.40625
-0.18282	0.89089
-0.46334	1.04394
0.27621	0.94191
0.91375	-1.68539
0.70974	-0.56305
0.73524	0.40625
-0.46334	-1.14973
-0.74385	0.63582
0.25071	1.88570
0.50573	1.17148
0.22521	1.06945
0.32721	-0.25695
0.60773	-0.35899
0.58223	0.04914
0.32721	-0.00188
-0.23382	0.17668
0.14870	-1.22625
0.07220	0.15117
-0.00431	0.20219
-0.15732	0.30422
-0.25932	0.07465
-0.10631	-0.35899
-0.00431	0.48277
0.19971	0.17668
0.48022	0.40625
0.42922	0.55929
0.42922	0.86539
0.04670	0.04914
-0.08081	-1.04770
0.32721	0.50828
0.53123	0.48277
-0.02981	0.66132
-0.64185	-0.35899
-0.82036	0.27871
0.35272	0.55929
0.93925	-0.05289
0.25071	-0.28246
0.55673	0.20219
0.32721	1.47757
-0.56534	-1.30277
0.14870	-0.71609
0.60773	1.04394
0.63323	0.50828
0.42922	0.53379
0.07220	-0.02739
-0.25932	0.02363
-0.28482	0.66132
-0.13181	-0.35899
0.02119	-0.20594
0.14870	1.27351
0.25071	0.76336
0.30171	0.07465
0.27621	-0.43551
0.48022	0.12566
-0.74385	-0.94566
-0.53984	-0.51203
0.22521	-0.71609
0.63323	0.20219
1.14327	-0.41000
1.04126	1.19699
0.19971	0.96742
0.25071	0.20219
-0.48884	1.06945
-0.38683	0.78886
-0.23382	-0.00188
-0.00431	-0.41000
0.63323	0.25320
0.63323	-0.25695
0.53123	0.25320
0.30171	0.55929
-0.84586	0.43176
-0.94787	-0.74160
0.04670	-0.12942
0.70974	-0.33348
0.55673	-0.15492
-0.02981	0.73785
-0.02981	-0.28246
0.07220	-0.53754
0.12320	0.30422
0.48022	0.50828
0.35272	0.04914
-0.15732	-0.05289
0.32721	0.73785
0.48022	0.89089
-0.33583	-0.18043
-0.48884	0.96742
0.42922	1.45206
0.35272	-0.25695
0.27621	-0.15492
-0.15732	-0.28246
-0.08081	-0.71609
0.40372	-1.25176
0.48022	0.40625
0.83725	0.91640
0.60773	0.53379
-0.18282	-0.07840
-0.99887	-0.18043
-0.61635	-0.81812
-0.20832	0.58480
0.83725	0.78886
0.76074	0.58480
0.65874	-0.51203
0.45472	0.10015
0.22521	0.99292
0.40372	0.22769
0.14870	0.10015
-0.33583	-0.35899
-0.38683	-0.00188
-0.15732	-0.07840
0.09770	0.22769
-0.08081	0.48277
-0.43783	1.60511
0.27621	-0.63957
0.63323	-1.27726
0.50573	-0.58856
0.40372	0.76336
0.22521	1.22250
0.40372	0.58480
0.14870	1.70714
0.09770	0.04914
-0.23382	-1.40480
-0.87136	-1.81293
-0.28482	0.61031
0.35272	0.81437
0.40372	0.71234
0.88825	-0.89465
0.70974	0.32972
0.53123	0.78886
-0.56534	0.38074
-1.10088	-0.20594
0.42922	0.86539
0.53123	-0.20594
0.50573	0.10015
0.32721	0.38074
-0.00431	-0.43551
-0.02981	-1.12422
0.17421	0.58480
0.22521	1.14597
-0.05531	-0.92016
-0.13181	-0.74160
0.12320	0.71234
0.27621	1.75816
0.17421	0.66132
0.14870	-0.02739
-0.53984	-0.30797
0.07220	0.76336
0.37822	0.94191
0.14870	-1.73640
0.55673	-0.02739
0.96476	0.66132
0.19971	0.20219
-0.43783	-0.12942
-0.20832	-0.15492
-0.28482	0.76336
0.22521	-0.30797
0.68424	-0.15492
0.58223	-0.33348
0.55673	-0.94566
0.30171	0.99292
0.04670	0.73785
-0.33583	0.43176
-0.31033	0.83988
-0.31033	1.01843
-0.05531	-0.84363
0.37822	-0.35899
0.32721	0.22769
0.42922	0.48277
0.37822	1.17148
0.22521	0.45726
0.12320	0.04914
0.02119	-1.58336
0.02119	0.58480
0.09770	0.96742
-0.00431	-0.94566
-0.00431	-0.23145
-0.00431	0.15117
0.37822	-0.00188
0.45472	0.22769
0.09770	0.55929
0.32721	1.32453
0.42922	-0.05289
0.19971	-1.55785
0.22521	-0.30797
-0.23382	0.25320
-0.76936	0.32972
-0.56534	0.48277
0.27621	0.35523
0.78624	0.55929
0.73524	0.02363
0.63323	1.88570
-0.08081	0.76336
-0.33583	-0.99668
0.12320	0.02363
0.22521	0.04914
-0.28482	0.15117
-0.46334	0.12566
0.50573	0.15117
0.25071	-0.43551
0.78624	-0.15492
0.37822	-0.43551
-0.00431	-0.71609
0.27621	-0.05289
0.14870	0.73785
0.32721	0.55929
0.58223	1.14597
0.12320	-0.28246
-1.50890	0.35523
-0.89686	0.15117
0.12320	0.53379
0.42922	0.15117
1.01576	0.53379
0.91375	0.35523
0.63323	-0.43551
0.12320	0.22769
0.22521	0.40625
-0.18282	-0.43551
-0.33583	-0.30797
0.35272	-0.00188
0.07220	1.32453
0.37822	-0.15492
0.60773	-1.14973
0.12320	0.17668
-0.20832	0.40625
0.09770	-0.15492
0.07220	-1.50683
-0.05531	0.48277
-0.18282	0.53379
-0.48884	0.86539
0.25071	1.93671
0.53123	0.99292
0.60773	0.58480
1.06676	0.30422
-0.28482	-0.28246
-0.28482	-0.15492
0.30171	-0.10391
-0.15732	-0.10391
0.22521	-0.79262
0.37822	-0.35899
0.19971	-0.07840
0.53123	0.27871
-0.74385	0.25320
-0.10631	0.45726
0.58223	-0.12942
0.53123	-0.38449
0.40372	0.71234
0.22521	0.48277
0.09770	-0.35899
-0.02981	0.07465
0.12320	1.04394
0.22521	-0.33348
-0.15732	0.38074
-0.08081	1.27351
0.09770	0.25320
0.30171	-0.48652
0.25071	0.02363
0.27621	-0.10391
0.25071	-0.07840
0.09770	0.76336
0.02119	0.96742
-0.43783	0.25320
-0.13181	-0.63957
0.32721	-0.99668
-0.00431	0.96742
0.02119	-0.02739
0.91375	-0.18043
0.17421	0.40625
-0.13181	0.02363
0.93925	-0.30797
0.73524	0.73785
0.63323	1.09496
-0.51434	-0.61406
0.40372	-0.18043
-0.18282	-0.10391
-0.38683	-0.23145
-0.02981	0.91640
0.37822	-0.05289
0.30171	-0.12942
0.22521	0.66132
0.27621	0.61031
0.25071	-0.30797
0.35272	1.04394
-0.08081	0.15117
-0.46334	0.17668
-0.31033	0.55929
-0.08081	-0.25695
0.30171	-0.76711
0.70974	-0.66508
0.68424	-0.18043
0.63323	0.58480
0.63323	1.27351
-0.28482	0.61031
-0.64185	0.20219
0.12320	0.38074
0.12320	-0.38449
-0.38683	0.02363
0.42922	1.04394
0.73524	0.55929
0.73524	-1.32828
0.68424	-0.41000
0.17421	0.30422
0.02119	0.30422
-0.74385	0.10015
-0.64185	0.58480
0.27621	-0.02739
0.45472	0.45726
0.30171	0.07465
-0.05531	-0.05289
0.27621	0.35523
0.60773	-0.00188
0.42922	-0.10391
0.14870	0.04914
-0.28482	0.50828
-0.08081	0.43176
0.02119	0.86539
0.12320	0.10015
0.30171	-1.27726
0.30171	0.40625
0.17421	1.32453
0.14870	-0.69059
0.14870	-1.30277
0.30171	0.55929
0.27621	0.50828
0.19971	0.45726
-0.71835	0.53379
-0.36133	0.86539
0.37822	0.04914
0.37822	-0.46102
0.25071	-0.56305
0.53123	0.45726
-0.05531	0.20219
-0.13181	0.61031
0.50573	-0.15492
0.42922	-0.25695
0.32721	0.25320
0.27621	0.27871
0.50573	0.30422
-0.74385	-0.10391
0.02119	-0.05289
0.65874	-0.30797
0.78624	0.89089
-0.13181	1.04394
-0.99887	0.76336
0.07220	-0.56305
0.22521	-0.38449
0.42922	-0.18043
0.42922	0.53379
0.40372	0.71234
0.25071	0.81437
0.27621	0.25320
0.14870	-1.14973
0.02119	-0.61406
-0.46334	0.48277
-0.18282	-0.63957
0.27621	0.27871
0.48022	0.50828
-0.43783	1.09496
0.32721	1.35003
0.55673	0.30422
0.53123	-1.99148
0.60773	-0.43551
0.40372	0.81437
0.12320	0.55929
-0.18282	0.96742
-0.69285	0.61031
0.02119	-0.63957
0.17421	-1.07320
0.17421	0.27871
0.45472	0.17668
0.37822	0.63582
0.25071	0.55929
0.45472	0.07465
0.09770	-0.46102
-0.00431	0.35523
0.07220	0.22769
0.19971	0.27871
0.07220	0.35523
0.27621	0.40625
0.35272	-0.74160
0.09770	0.45726
-0.53984	-0.30797
-1.25389	0.04914
-0.25932	0.02363
0.83725	0.43176
1.75531	0.12566
0.37822	0.25320
0.60773	0.38074
0.48022	0.30422
0.25071	0.20219
0.17421	-0.02739
0.27621	-0.07840
-0.02981	0.63582
-0.43783	-0.15492
-0.31033	-0.38449
-0.28482	1.24800
-0.02981	-0.25695
0.27621	-0.69059
0.30171	-0.02739
0.14870	0.45726
0.12320	0.15117
0.50573	0.89089
0.42922	0.32972
0.30171	0.68683
0.19971	0.04914
-0.23382	0.55929
0.17421	-0.58856
0.50573	-1.53234
-0.18282	-2.83324
-0.56534	1.24800
-0.94787	1.93671
0.55673	1.24800
0.70974	-0.02739
0.76074	-0.00188
0.68424	0.71234
0.63323	-0.56305
0.35272	-0.46102
-0.08081	0.27871
-0.08081	0.76336
-0.10631	0.55929
0.07220	0.15117
0.27621	-0.30797
0.32721	-1.07320
-0.18282	0.20219
-0.10631	0.63582
-0.38683	0.40625
0.09770	0.20219
0.09770	0.17668
0.37822	0.20219
0.55673	0.25320
0.68424	0.20219
0.37822	-0.00188
-0.33583	-0.46102
-0.05531	-0.30797
-0.28482	0.73785
0.37822	0.76336
0.88825	0.45726
0.93925	0.10015
0.19971	0.30422
-0.92237	1.19699
-0.33583	-0.48652
0.27621	-1.55785
0.30171	0.17668
0.35272	1.17148
0.40372	0.25320
-0.00431	0.04914
-0.08081	-0.58856
0.32721	-0.07840
0.50573	0.68683
0.09770	0.96742
0.04670	0.99292
-0.08081	0.38074
-0.15732	-0.46102
0.12320	-0.10391
0.14870	-0.10391
0.40372	-0.81812
0.30171	0.02363
0.27621	0.45726
-0.31033	-0.12942
-0.13181	-0.46102
0.22521	1.17148
0.27621	0.86539
0.19971	0.15117
0.32721	-0.00188
0.45472	0.15117
0.27621	0.04914
0.25071	-0.23145
-0.20832	0.58480
-0.46334	0.50828
-0.10631	-0.38449
0.55673	-0.02739
0.60773	-0.05289
-0.00431	0.61031
0.42922	0.58480
0.53123	-0.46102
0.02119	0.07465
-0.20832	0.61031
0.78624	0.53379
-0.74385	0.58480
-0.61635	0.12566
-0.13181	-0.63957
0.40372	-0.35899
0.68424	1.40105
0.58223	-0.12942
0.45472	-0.15492
0.32721	0.25320
-0.02981	-0.18043
-0.05531	0.43176
0.09770	-0.20594
0.07220	0.61031
0.32721	0.43176
0.35272	-0.15492
0.58223	-0.30797
0.40372	0.86539
-1.40690	0.04914
-1.45790	-0.61406
0.37822	-0.58856
0.81175	0.86539
0.88825	1.06945
0.70974	-1.07320
0.68424	-0.41000
0.35272	0.35523
0.17421	1.22250
-0.28482	0.76336
-0.51434	0.35523
-0.18282	0.15117
0.02119	-0.25695
0.19971	-0.10391
0.19971	0.04914
0.42922	0.12566
0.42922	0.61031
0.32721	-0.07840
0.27621	-1.02219
0.17421	0.04914
0.22521	0.73785
-0.36133	0.40625
-0.92237	-0.00188
0.17421	0.12566
0.53123	0.66132
0.42922	0.55929
0.91375	0.76336
0.73524	-1.86394
0.42922	0.02363
0.07220	-0.20594
-0.53984	-0.23145
-1.10088	0.15117
-0.53984	0.55929
-0.28482	1.22250
0.63323	1.27351
1.06676	0.15117
0.86275	0.10015
0.83725	0.02363
0.42922	-0.12942
0.09770	-0.07840
0.12320	-0.02739
-0.02981	0.27871
-0.05531	-0.05289
-0.15732	-0.35899
-1.30489	-0.23145
-0.61635	-1.35379
-0.08081	-0.48652
0.45472	1.22250
0.73524	1.88570
0.73524	0.86539
0.65874	-0.18043
0.48022	-0.46102
0.40372	0.58480
0.37822	0.07465
-0.18282	0.58480
-0.38683	-0.05289
0.42922	0.07465
0.58223	0.20219
-0.15732	0.48277
-0.18282	-0.56305
-0.33583	-0.71609
0.17421	-0.38449
0.14870	-0.35899
0.53123	1.04394
0.73524	0.83988
0.40372	0.61031
0.17421	0.86539
0.12320	0.27871
-0.13181	0.10015
0.17421	0.53379
0.30171	-0.56305
-0.36133	-0.63957
-0.13181	-0.41000
0.09770	0.50828
0.40372	0.27871
0.45472	0.78886
-0.02981	0.61031
0.30171	-0.12942
0.09770	-0.74160
0.19971	-0.43551
0.22521	0.43176
0.02119	0.55929
0.09770	0.40625
-0.46334	0.73785
-0.89686	0.10015
0.81175	0.30422
0.81175	-0.46102
0.73524	-0.15492
0.45472	0.73785
0.55673	0.58480
0.42922	-0.46102
-0.48884	0.43176
0.02119	0.53379
0.12320	-0.46102
-0.02981	0.22769
-0.00431	0.99292
-0.00431	0.04914
0.12320	-0.51203
-0.08081	-1.45582
0.02119	1.57960
0.22521	0.63582
0.19971	-0.10391
0.19971	-0.63957
0.50573	0.20219
0.42922	0.73785
0.37822	0.63582
0.04670	0.40625
0.42922	-0.07840
-0.20832	0.10015
-0.33583	0.12566
0.27621	0.55929
0.17421	-0.02739
-0.08081	-0.43551
0.22521	0.10015
-0.23382	-0.02739
0.30171	0.15117
0.32721	0.53379
-0.02981	0.43176
0.12320	0.55929
0.48022	-0.69059
0.25071	-0.10391
-0.05531	-0.74160
0.12320	0.38074
0.78624	1.01843
-0.02981	0.76336
0.17421	0.83988
0.35272	-1.76191
0.02119	0.22769
-0.43783	0.81437
-0.41233	0.32972
-0.18282	0.22769
0.30171	0.27871
0.45472	0.10015
0.27621	-0.30797
0.50573	-0.20594
0.53123	0.22769
0.27621	0.40625
0.22521	0.22769
0.53123	-0.25695
0.04670	-0.00188
0.37822	0.86539
-0.64185	0.15117
-1.20288	0.27871
-0.05531	0.32972
0.63323	-0.43551
0.48022	-1.30277
0.42922	0.76336
0.30171	-0.07840
0.30171	0.40625
0.40372	0.83988
0.50573	0.81437
-0.74385	0.50828
-1.45790	1.04394
0.22521	-0.69059
0.70974	-0.94566
0.86275	0.35523
0.86275	0.32972
0.53123	0.45726
0.17421	0.27871
0.07220	0.25320
0.09770	-0.15492
0.12320	-0.23145
0.04670	0.22769
-0.15732	0.32972
-0.59084	-0.15492
-0.38683	-0.23145
0.32721	-0.00188
0.30171	0.86539
0.35272	0.61031
0.63323	0.02363
0.27621	-0.18043
-0.28482	0.32972
0.25071	0.66132
0.30171	0.83988
0.22521	-0.07840
-0.23382	-1.78742
0.40372	-1.25176
0.35272	0.86539
0.55673	0.78886
0.45472	1.24800
0.32721	0.78886
0.14870	0.32972
-0.33583	0.30422
-0.08081	-0.56305
0.14870	-0.05289
0.35272	0.50828
0.22521	-0.00188
0.17421	-0.25695
-0.23382	0.43176
0.04670	-0.86914
0.04670	-0.61406
0.35272	0.45726
-0.23382	0.86539
0.04670	0.89089
0.35272	0.63582
0.19971	0.30422
0.35272	-0.07840
0.63323	-0.23145
0.12320	-0.18043
-0.69285	0.20219
-0.15732	0.12566
0.22521	-0.18043
0.58223	0.02363
0.70974	-0.02739
0.45472	0.25320
0.14870	0.10015
-0.18282	0.30422
-0.20832	0.76336
0.07220	0.35523
0.12320	0.25320
0.19971	0.66132
0.22521	0.50828
-0.13181	-0.33348
0.22521	-0.63957
0.42922	0.86539
0.25071	-0.15492
0.02119	-0.23145
-0.10631	-0.99668
0.04670	0.45726
0.19971	0.10015
0.22521	0.25320
-0.18282	0.73785
0.14870	0.50828
0.86275	-0.38449
0.27621	-0.48652
-0.00431	0.58480
-0.18282	0.35523
-0.41233	0.43176
0.17421	0.07465
0.22521	0.40625
0.02119	-0.00188
0.42922	0.12566
0.40372	0.04914
0.14870	0.38074
0.53123	0.27871
0.55673	0.12566
0.17421	0.40625
0.09770	0.86539
-0.31033	-0.41000
-0.43783	-1.27726
0.09770	-0.25695
0.22521	1.14597
-0.00431	1.06945
0.14870	-1.37929
0.25071	-1.07320
0.17421	1.04394
0.14870	0.99292
0.32721	0.96742
0.09770	0.86539
0.12320	-0.15492
0.17421	0.50828
0.09770	-0.53754
0.30171	0.86539
0.12320	0.12566
0.14870	-0.28246
-0.00431	-0.81812
-0.08081	-0.23145
0.37822	-0.07840
0.48022	0.04914
0.14870	-0.58856
-0.43783	0.73785
0.09770	0.30422
0.07220	0.55929
-0.08081	-0.10391
0.14870	-0.12942
0.68424	-0.00188
0.53123	0.04914
0.14870	0.66132
0.02119	1.17148
-0.15732	0.81437
0.35272	0.63582
0.53123	-0.25695
0.32721	-0.18043
0.19971	0.61031
-0.10631	-0.25695
-0.08081	-0.23145
-0.00431	-0.10391
-0.13181	-0.35899
-0.38683	0.35523
0.50573	-0.48652
0.42922	-0.25695
-0.10631	0.43176
0.12320	-0.15492
0.22521	0.35523
0.30171	1.32453
0.30171	0.48277
-0.08081	0.17668
-0.10631	0.20219
0.45472	0.55929
0.53123	-0.86914
0.65874	-0.53754
0.30171	0.30422
-0.43783	0.68683
0.07220	0.02363
-0.46334	0.30422
-0.43783	0.30422
0.60773	0.22769
0.73524	0.32972
0.73524	0.27871
0.40372	-0.05289
0.12320	-0.00188
-0.15732	-0.00188
-0.28482	0.22769
-0.10631	-0.43551
0.17421	0.10015
0.19971	0.45726
0.02119	0.71234
0.22521	0.50828
-0.08081	-0.56305
0.48022	0.02363
0.04670	-0.86914
-0.31033	-0.92016
-0.36133	1.29902
0.04670	1.24800
0.60773	0.81437
0.86275	0.61031
0.55673	-0.76711
0.37822	0.89089
0.14870	-0.00188
0.30171	-0.20594
0.17421	-0.51203
-0.13181	-0.18043
-0.20832	-0.28246
-0.28482	-0.18043
-0.28482	0.32972
0.27621	0.81437
0.32721	0.81437
0.32721	-0.41000
0.25071	-0.43551
0.02119	1.12046
0.14870	0.30422
0.30171	-1.07320
-0.20832	-0.15492
-0.46334	0.20219
0.30171	0.55929
0.81175	0.76336
0.63323	0.45726
-0.15732	0.66132
-0.92237	-0.35899
0.17421	-0.84363
0.93925	0.32972
0.81175	0.38074
0.68424	0.76336
0.48022	-0.02739
0.07220	-0.05289
-0.31033	0.43176
-0.05531	0.22769
-0.41233	-0.25695
-0.02981	0.02363
0.09770	0.27871
-0.02981	-0.23145
0.19971	0.78886
0.07220	0.40625
0.07220	-1.35379
0.04670	-0.35899
0.35272	0.45726
0.55673	0.68683
-0.05531	0.86539
-0.18282	0.35523
0.48022	-0.07840
0.37822	0.45726
0.17421	0.53379
0.22521	-0.07840
0.35272	0.15117
0.02119	0.32972
0.19971	-0.07840
0.12320	0.20219
0.07220	0.15117
0.27621	0.35523
0.04670	-1.53234
-0.02981	-0.23145
-0.08081	0.40625
-0.00431	0.38074
0.04670	0.91640
0.35272	0.25320
0.12320	-0.25695
0.04670	-0.61406
0.27621	0.35523
0.25071	1.80917
0.25071	0.27871
0.58223	0.68683
0.32721	0.12566
0.12320	-0.48652
-0.08081	0.07465
-0.02981	0.38074
-0.00431	0.20219
0.32721	0.35523
0.09770	-0.33348
0.12320	-0.61406
0.55673	-0.02739
0.37822	0.12566
-0.18282	0.55929
-0.82036	0.25320
-0.53984	0.20219
-0.08081	0.76336
0.37822	-0.07840
0.86275	-0.25695
0.70974	-0.10391
0.35272	0.30422
0.09770	0.61031
0.14870	0.27871
0.25071	0.22769
0.32721	0.10015
0.40372	1.14597
0.12320	-0.43551
-0.28482	-0.23145
-0.46334	0.99292
-0.46334	-0.10391
-0.25932	-0.12942
0.12320	0.04914
0.70974	-0.18043
0.86275	0.48277
0.70974	-0.18043
0.42922	0.55929
0.14870	0.35523
-0.13181	-0.71609
-0.33583	0.20219
-0.10631	-1.30277
0.19971	-0.58856
0.14870	1.01843
0.25071	1.06945
0.30171	0.99292
0.27621	0.55929
0.04670	-0.61406
0.32721	0.63582
0.12320	0.61031
0.02119	-0.51203
-0.38683	-0.23145
-1.17738	0.04914
-0.61635	0.10015
1.21977	0.15117
1.14327	0.04914
0.73524	0.38074
0.60773	0.35523
0.42922	-0.15492
0.30171	0.20219
0.02119	0.02363
0.07220	0.15117
0.12320	0.04914
-0.08081	0.15117
-0.05531	0.71234
-0.31033	0.55929
-0.28482	-0.48652
-0.28482	-0.74160
0.30171	1.32453
0.12320	-0.07840
0.40372	-0.28246
0.37822	0.48277
0.45472	-0.51203
0.42922	0.94191
0.32721	0.12566
0.50573	0.22769
0.32721	0.12566
0.37822	-0.20594
-0.84586	-0.02739
-1.94243	-0.46102
0.07220	0.10015
0.83725	0.07465
1.09226	1.19699
1.27078	-0.07840
0.73524	-0.30797
0.22521	0.25320
-0.08081	0.73785
-0.59084	0.27871
-0.51434	-0.00188
0.09770	0.25320
0.32721	0.45726
0.27621	0.10015
0.30171	0.04914
0.25071	-0.05289
0.27621	0.55929
0.17421	-0.79262
0.02119	-0.02739
0.04670	0.25320
0.02119	-0.56305
-0.28482	0.48277
-0.53984	0.68683
-0.15732	0.40625
0.76074	0.20219
0.37822	-0.20594
0.55673	-0.02739
0.50573	0.76336
0.45472	0.04914
0.07220	-0.00188
-0.13181	0.38074
-0.18282	0.43176
0.22521	-0.41000
0.25071	0.68683
0.07220	0.35523
0.04670	0.07465
0.19971	-0.81812
0.17421	-0.61406
-0.43783	0.76336
0.12320	0.73785
0.19971	0.04914
0.32721	-0.25695
0.07220	0.04914
0.32721	0.40625
0.42922	-0.20594
0.07220	0.10015
-0.25932	0.45726
-0.13181	-0.41000
0.27621	-0.15492
0.19971	0.17668
-0.00431	0.61031
-0.10631	0.94191
0.70974	0.48277
0.60773	0.10015
0.45472	-0.18043
0.25071	0.20219
0.25071	0.27871
0.02119	0.02363
-0.13181	0.45726
-0.10631	0.35523
-0.08081	-0.28246
0.17421	-0.35899
0.12320	-0.05289
0.12320	-0.07840
-0.00431	0.48277
-0.31033	-0.05289
-0.20832	-1.25176
0.45472	1.17148
0.70974	1.70714
0.68424	-0.12942
0.35272	-0.58856
0.35272	0.55929
0.32721	0.17668
-0.23382	-0.43551
-0.38683	0.17668
-0.05531	0.53379
0.17421	0.25320
0.14870	-0.07840
0.55673	0.22769
0.40372	0.48277
0.07220	0.55929
-0.10631	0.07465
-0.02981	-0.12942
0.09770	0.07465
0.35272	-0.28246
0.09770	-0.63957
-0.10631	0.50828
-0.08081	-0.18043
0.19971	-0.18043
-0.05531	1.04394
-0.05531	0.04914
0.40372	0.27871
0.30171	0.25320
0.45472	0.38074
0.48022	0.55929
0.42922	0.53379
0.12320	-0.79262
-0.38683	-0.12942
-0.33583	0.71234
-0.02981	0.22769
0.22521	0.45726
0.32721	0.40625
0.40372	0.02363
0.58223	-0.23145
0.37822	-0.81812
0.35272	-0.28246
0.27621	0.76336
-0.28482	0.73785
-0.71835	-0.33348
-0.08081	-0.20594
0.32721	0.71234
0.40372	0.76336
0.30171	-0.10391
-0.08081	-0.18043
0.40372	0.07465
0.40372	0.32972
0.14870	0.02363
0.02119	-0.05289
-0.15732	-0.58856
0.27621	-0.53754
0.37822	0.53379
0.48022	0.68683
0.27621	0.81437
0.27621	0.20219
0.09770	0.43176
-0.15732	0.68683
-0.48884	-0.76711
0.04670	-0.46102
0.40372	0.76336
0.50573	0.53379
0.14870	-1.20074
0.17421	-0.33348
-0.13181	1.57960
-0.43783	0.53379
0.37822	-0.61406
0.42922	-0.71609
0.22521	-0.12942
0.12320	0.66132
0.07220	0.63582
0.12320	0.53379
0.09770	0.17668
0.45472	0.30422
0.58223	0.10015
0.12320	-0.28246
0.02119	-0.23145
0.04670	-0.00188
-0.25932	0.35523
0.02119	0.43176
0.04670	-0.00188
-0.28482	-0.48652
0.22521	-0.51203
0.73524	0.38074
0.45472	0.27871
0.09770	0.96742
0.12320	0.66132
0.27621	0.12566
0.40372	0.38074
0.07220	-0.71609
-0.00431	0.40625
0.12320	-1.78742
-0.05531	0.66132
0.09770	0.45726
-0.02981	0.83988
0.19971	0.76336
0.37822	0.35523
0.14870	0.27871
0.17421	-0.10391
0.40372	-0.71609
0.12320	0.40625
0.30171	-0.18043
0.27621	0.25320
0.22521	-0.25695
-0.25932	0.04914
-0.48884	0.48277
-0.38683	-0.12942
0.42922	0.32972
0.81175	0.81437
0.50573	-0.12942
0.25071	0.78886
0.25071	0.12566
0.04670	0.40625
0.35272	0.17668
0.19971	-0.63957
-0.08081	-0.28246
-0.36133	-0.00188
-0.25932	0.38074
0.19971	0.27871
0.30171	-0.23145
0.09770	1.55410
0.19971	-0.25695
0.14870	-0.23145
0.50573	0.63582
0.19971	0.27871
0.37822	0.50828
0.25071	0.38074
0.07220	-1.09871
0.07220	-0.66508
-0.36133	0.35523
-0.53984	0.35523
0.37822	0.25320
0.48022	0.12566
0.32721	0.38074
0.35272	0.12566
0.30171	0.32972
0.17421	0.30422
0.02119	0.45726
-0.00431	-0.56305
-0.13181	0.27871
0.12320	0.22769
0.40372	0.27871
0.04670	-0.56305
-0.20832	0.53379
-0.20832	0.89089
0.25071	0.45726
0.40372	-0.66508
0.42922	-0.97117
0.25071	0.30422
0.12320	0.48277
-0.02981	0.53379
0.30171	1.14597
0.12320	0.78886
0.42922	0.04914
0.07220	-0.02739
-0.20832	-0.86914
0.04670	-0.20594
-0.02981	-0.18043
0.22521	-0.02739
0.27621	0.43176
0.30171	0.55929
0.25071	-0.10391
0.07220	0.55929
0.19971	0.68683
0.27621	0.73785
-0.20832	-0.38449
-0.28482	-0.12942
0.45472	-0.58856
0.25071	0.22769
0.53123	-0.12942
0.07220	0.83988
-0.33583	0.22769
0.02119	0.20219
-0.41233	0.43176
0.27621	0.27871
0.70974	0.15117
0.53123	0.04914
0.53123	0.20219
0.45472	-0.00188
-0.00431	-0.00188
-0.08081	0.25320
0.22521	0.38074
0.02119	-0.10391
-0.82036	0.04914
0.19971	-0.23145
0.32721	0.63582
0.30171	0.58480
0.27621	-0.30797
0.17421	0.38074
0.27621	-0.10391
0.30171	0.32972
0.27621	-0.05289
0.07220	0.10015
0.09770	0.32972
0.25071	0.83988
0.12320	0.32972
0.04670	0.55929
-0.15732	0.07465
0.17421	-1.78742
-0.08081	-0.51203
-0.05531	-0.33348
0.35272	1.32453
0.25071	0.94191
0.42922	0.86539
0.37822	0.10015
0.07220	-0.23145
-0.10631	0.25320
0.32721	-0.02739
0.32721	0.58480
0.35272	0.20219
0.32721	-0.66508
-0.10631	-0.56305
-0.23382	0.32972
-0.08081	0.55929
0.30171	0.30422
0.19971	0.10015
0.09770	0.07465
0.09770	0.15117
0.30171	0.38074
0.22521	0.38074
0.30171	-0.33348
0.17421	0.35523
-0.02981	0.50828
-0.18282	0.17668
-0.10631	-0.86914
0.07220	0.45726
0.22521	0.30422
0.40372	0.50828
0.42922	0.30422
0.37822	-0.15492
-0.10631	-0.23145
-0.00431	0.76336
0.14870	0.32972
0.45472	-0.41000
0.32721	-0.25695
0.22521	0.15117
0.19971	-0.20594
-0.10631	-0.02739
-0.05531	1.42656
-0.15732	0.63582
-0.13181	-1.12422
0.27621	-0.00188
0.58223	0.40625
0.27621	1.01843
0.04670	0.48277
-0.51434	-0.28246
-0.46334	0.02363
-0.23382	0.22769
0.53123	-0.10391
1.04126	-0.25695
0.83725	0.53379
0.45472	0.35523
0.42922	0.20219
0.17421	-0.20594
0.12320	-0.00188
0.02119	0.32972
-0.41233	0.45726
