0.07220	0.20219
0.12320	0.07465
0.12320	0.20219
0.09770	0.27871
0.14870	0.10015
0.17421	0.15117
0.07220	0.12566
0.14870	0.07465
0.19971	0.07465
0.12320	0.12566
0.14870	0.10015
0.17421	0.15117
0.19971	0.25320
0.14870	0.15117
0.19971	0.20219
0.12320	0.22769
0.07220	0.17668
0.14870	0.04914
0.12320	0.17668
0.09770	0.12566
0.14870	0.15117
0.22521	0.17668
0.07220	0.12566
0.14870	0.02363
0.22521	0.12566
0.14870	0.22769
0.07220	0.17668
0.19971	0.10015
0.14870	0.22769
0.07220	0.20219
0.12320	0.04914
0.17421	0.17668
0.09770	0.20219
0.12320	0.07465
0.14870	0.25320
0.07220	0.10015
0.17421	0.12566
0.22521	0.25320
0.09770	0.12566
0.14870	-0.00188
0.22521	0.10015
0.12320	0.22769
0.12320	0.10015
0.19971	0.17668
0.12320	0.15117
0.07220	0.10015
0.22521	0.12566
0.12320	0.20219
0.14870	0.10015
0.22521	0.12566
0.17421	0.10015
0.09770	0.07465
0.19971	0.17668
0.14870	0.22769
0.07220	0.17668
0.22521	0.10015
0.14870	0.15117
0.09770	0.22769
0.17421	0.15117
0.14870	0.02363
0.19971	0.12566
0.14870	0.15117
0.09770	0.22769
0.17421	0.15117
0.19971	0.10015
0.14870	0.15117
0.09770	0.22769
0.12320	0.07465
0.22521	0.15117
0.14870	0.20219
0.09770	0.10015
0.14870	0.12566
0.19971	0.22769
0.07220	0.15117
0.12320	0.15117
0.12320	0.12566
0.09770	0.15117
0.22521	0.15117
0.14870	0.22769
0.07220	0.10015
0.19971	0.12566
0.17421	0.12566
0.09770	0.07465
0.22521	0.12566
0.14870	0.27871
0.04670	0.38074
0.14870	0.10015
0.19971	0.02363
0.12320	0.10015
0.09770	0.15117
0.14870	0.15117
0.22521	0.20219
0.14870	0.20219
0.12320	0.04914
0.19971	0.12566
0.09770	0.15117
0.14870	0.17668
0.12320	0.17668
0.19971	0.17668
0.22521	0.25320
0.07220	0.04914
0.19971	0.12566
0.12320	0.10015
0.19971	0.15117
0.14870	0.17668
0.07220	0.12566
0.22521	0.25320
0.12320	0.15117
0.14870	0.15117
0.19971	0.17668
0.07220	0.10015
0.14870	0.15117
0.12320	0.20219
0.12320	0.10015
0.12320	0.15117
0.14870	0.15117
0.14870	0.15117
0.22521	0.22769
0.14870	0.17668
0.22521	0.10015
0.07220	0.12566
0.22521	0.04914
0.12320	0.22769
0.09770	0.22769
0.12320	0.10015
0.12320	0.25320
0.07220	0.15117
0.22521	0.10015
0.14870	0.17668
0.09770	0.15117
0.22521	0.07465
0.14870	0.17668
0.14870	0.12566
0.22521	0.22769
0.09770	0.15117
0.14870	0.15117
0.12320	0.17668
0.14870	0.07465
0.22521	0.12566
0.09770	0.20219
0.19971	0.20219
0.12320	0.15117
0.07220	0.17668
0.14870	0.02363
0.22521	0.15117
0.07220	0.20219
0.07220	0.15117
0.14870	0.15117
0.22521	0.12566
0.14870	0.12566
0.07220	0.04914
0.19971	0.17668
0.14870	0.15117
0.12320	0.15117
0.22521	0.25320
0.07220	0.17668
0.14870	0.12566
0.12320	0.15117
0.07220	-0.00188
0.12320	0.12566
0.14870	0.15117
0.12320	0.04914
0.14870	0.20219
0.09770	0.15117
0.22521	0.17668
0.09770	0.20219
0.14870	0.15117
0.14870	0.12566
0.14870	0.15117
0.12320	0.12566
0.12320	0.12566
0.14870	0.15117
0.14870	0.15117
0.12320	0.15117
0.14870	0.10015
0.12320	0.22769
0.09770	0.10015
0.19971	0.17668
0.07220	0.12566
0.22521	0.07465
0.14870	0.12566
0.12320	0.12566
0.17421	0.27871
0.04670	0.12566
0.14870	0.25320
0.14870	0.15117
0.14870	0.15117
0.14870	0.15117
0.09770	0.07465
0.22521	0.20219
0.07220	0.12566
0.22521	0.12566
0.12320	0.15117
0.19971	0.10015
0.12320	0.20219
0.09770	0.15117
0.22521	0.10015
0.14870	0.22769
0.12320	0.12566
0.22521	0.10015
0.14870	0.20219
0.14870	0.10015
0.19971	0.17668
0.09770	0.15117
0.12320	0.15117
0.14870	0.12566
0.14870	0.04914
0.19971	0.20219
0.09770	0.17668
0.14870	0.07465
0.12320	0.22769
0.14870	0.10015
0.14870	0.17668
0.07220	0.10015
0.22521	0.20219
0.09770	0.10015
0.22521	0.12566
0.07220	0.10015
0.22521	0.25320
0.09770	0.27871
0.22521	0.04914
0.09770	0.04914
0.17421	0.12566
0.17421	0.15117
0.17421	0.20219
0.14870	0.04914
0.14870	-0.02739
0.19971	0.15117
0.07220	0.20219
0.19971	0.30422
0.09770	0.12566
0.22521	0.25320
0.14870	0.12566
0.14870	0.17668
0.12320	0.15117
0.12320	0.12566
0.19971	0.17668
0.07220	0.04914
0.22521	0.07465
0.14870	0.04914
0.14870	0.10015
0.19971	0.25320
0.07220	0.15117
0.17421	0.17668
0.12320	0.22769
0.17421	0.07465
0.12320	0.15117
0.09770	0.15117
0.19971	0.10015
0.14870	0.17668
0.09770	0.07465
0.19971	0.20219
0.07220	0.07465
0.14870	0.22769
0.09770	0.07465
0.12320	0.22769
0.12320	0.04914
0.14870	0.17668
0.14870	0.15117
0.09770	0.15117
0.12320	0.10015
0.07220	0.12566
0.19971	0.22769
0.07220	0.15117
0.14870	0.15117
0.17421	0.20219
0.07220	-0.20594
0.19971	0.15117
0.07220	0.38074
0.14870	0.25320
0.14870	0.27871
0.09770	0.07465
0.14870	-0.02739
0.12320	0.25320
0.07220	0.20219
0.14870	0.38074
0.22521	0.27871
0.09770	0.02363
0.14870	-0.05289
0.22521	0.07465
0.07220	0.04914
0.17421	0.04914
0.22521	0.22769
0.07220	0.22769
0.14870	0.22769
0.19971	0.30422
0.09770	0.15117
0.19971	0.20219
0.07220	0.02363
0.12320	0.17668
0.12320	0.17668
0.14870	0.20219
0.22521	0.27871
0.07220	0.04914
0.19971	0.02363
0.09770	0.15117
0.17421	0.17668
0.19971	0.20219
0.07220	0.12566
0.19971	0.20219
0.07220	0.15117
0.14870	0.07465
0.14870	0.20219
0.07220	0.10015
0.19971	-0.00188
0.14870	0.20219
0.14870	-0.00188
0.12320	0.22769
0.07220	0.35523
0.19971	0.17668
0.14870	0.10015
0.09770	0.10015
0.22521	0.04914
0.12320	0.15117
0.14870	0.15117
0.19971	0.20219
0.07220	0.30422
0.14870	0.12566
0.14870	0.12566
0.12320	0.02363
0.19971	0.10015
0.14870	0.15117
0.12320	0.04914
0.22521	0.25320
0.12320	0.17668
0.17421	0.20219
0.22521	0.25320
0.12320	0.15117
0.14870	0.17668
0.17421	0.07465
0.09770	-0.00188
0.22521	0.12566
0.09770	0.17668
0.12320	0.12566
0.14870	0.25320
0.09770	0.02363
0.22521	0.15117
0.07220	0.15117
0.19971	0.17668
0.14870	0.17668
0.17421	0.07465
0.19971	0.17668
0.07220	0.02363
0.22521	0.22769
0.14870	0.27871
0.19971	0.12566
0.14870	0.15117
0.14870	0.15117
0.14870	0.12566
0.12320	0.15117
0.12320	0.04914
0.19971	0.15117
0.14870	0.12566
0.14870	0.15117
0.17421	0.15117
0.09770	0.10015
0.22521	0.25320
0.12320	0.22769
0.14870	0.20219
0.22521	0.15117
0.07220	0.02363
0.19971	0.17668
0.17421	0.15117
0.12320	0.10015
0.12320	0.17668
0.09770	0.12566
0.22521	0.20219
0.09770	0.30422
0.12320	0.20219
0.22521	0.17668
0.17421	-0.07840
0.22521	0.02363
0.17421	0.20219
0.14870	0.22769
0.19971	0.27871
0.07220	0.15117
0.14870	0.22769
0.12320	0.17668
0.07220	0.12566
0.19971	-0.05289
0.14870	-0.05289
0.14870	0.12566
0.22521	0.27871
0.09770	0.22769
0.22521	0.17668
0.09770	0.17668
0.14870	0.15117
0.14870	0.15117
0.12320	0.02363
0.22521	0.20219
0.09770	0.10015
0.22521	0.27871
0.17421	0.10015
0.12320	0.10015
0.14870	0.10015
0.07220	0.17668
0.22521	0.22769
0.07220	0.12566
0.17421	0.25320
0.07220	0.02363
0.22521	0.04914
0.07220	0.17668
0.22521	0.22769
0.14870	0.17668
0.07220	0.02363
0.19971	0.17668
0.09770	0.12566
0.14870	0.15117
0.22521	0.25320
0.14870	0.20219
0.14870	-0.00188
0.12320	0.15117
0.09770	-0.15492
0.17421	0.25320
0.14870	0.27871
0.14870	0.20219
0.19971	0.22769
0.12320	0.22769
0.07220	0.12566
0.22521	0.17668
0.07220	0.02363
0.22521	0.15117
0.09770	0.02363
0.12320	0.17668
0.17421	0.12566
0.17421	0.20219
0.12320	0.17668
0.12320	0.12566
0.19971	-0.05289
0.12320	0.32972
0.14870	0.20219
0.14870	0.10015
0.12320	0.15117
0.14870	0.04914
0.22521	0.12566
0.07220	0.12566
0.14870	0.02363
0.12320	0.25320
0.14870	0.20219
0.19971	0.12566
0.09770	0.25320
0.14870	0.12566
0.22521	0.15117
0.12320	0.20219
0.07220	0.07465
0.22521	0.15117
0.14870	0.17668
0.07220	0.15117
0.17421	0.07465
0.19971	0.17668
0.09770	0.15117
0.12320	-0.05289
0.19971	-0.00188
0.14870	-0.02739
0.09770	0.32972
0.22521	0.25320
0.12320	0.30422
0.14870	0.30422
0.14870	0.20219
0.22521	0.04914
0.17421	0.07465
0.12320	0.17668
0.09770	0.10015
0.14870	0.07465
0.14870	0.20219
0.09770	0.15117
0.14870	0.10015
0.22521	0.12566
0.07220	0.17668
0.17421	0.04914
0.22521	0.15117
0.12320	0.15117
0.07220	0.10015
0.19971	0.25320
0.17421	0.20219
0.12320	0.27871
0.22521	0.12566
0.07220	0.10015
0.22521	0.07465
0.07220	0.04914
0.19971	0.20219
0.07220	0.22769
0.14870	0.30422
0.12320	0.17668
0.07220	0.07465
0.19971	0.20219
0.12320	0.15117
0.14870	0.04914
0.12320	0.10015
0.09770	0.04914
0.22521	0.20219
0.12320	0.20219
0.12320	0.20219
0.14870	0.22769
0.14870	0.25320
0.22521	0.17668
0.12320	0.17668
0.14870	0.02363
0.19971	0.00000
0.09770	0.00000
0.14870	0.10015
0.14870	0.12566
0.12320	0.07465
0.14870	0.15117
0.12320	0.10015
0.14870	0.22769
0.19971	0.27871
0.09770	0.15117
0.14870	0.15117
0.22521	0.04914
0.09770	0.20219
0.14870	0.22769
0.12320	0.15117
0.17421	0.07465
0.17421	0.10015
0.17421	0.15117
0.12320	0.12566
0.09770	0.15117
0.19971	0.15117
0.14870	0.12566
0.12320	0.10015
0.14870	0.15117
0.14870	0.22769
0.07220	0.15117
0.14870	0.12566
0.09770	0.07465
0.07220	0.10015
0.12320	0.15117
0.17421	0.22769
0.07220	0.10015
0.14870	0.15117
0.22521	0.20219
0.14870	0.15117
0.07220	0.04914
0.19971	0.22769
0.19971	0.17668
0.14870	0.10015
0.17421	0.27871
0.22521	0.17668
0.17421	0.10015
0.07220	0.10015
0.22521	0.15117
0.17421	-0.05289
0.14870	0.20219
0.14870	0.27871
0.19971	0.15117
0.19971	0.10015
0.12320	0.04914
0.04670	0.15117
0.14870	0.22769
0.22521	0.15117
0.14870	0.17668
0.09770	0.12566
0.09770	0.10015
0.17421	0.10015
0.19971	0.20219
0.14870	0.25320
0.04670	0.15117
0.14870	0.10015
0.22521	0.10015
0.12320	0.17668
0.07220	0.07465
0.14870	0.17668
0.19971	0.22769
0.14870	0.07465
0.09770	0.02363
0.17421	0.25320
0.22521	0.32972
0.17421	0.20219
0.07220	0.04914
0.14870	0.15117
0.19971	0.27871
0.12320	0.07465
0.07220	0.04914
0.14870	-0.02739
0.19971	0.12566
0.14870	0.22769
0.14870	0.15117
0.07220	0.07465
0.12320	0.17668
0.14870	0.22769
0.07220	0.10015
0.14870	0.12566
0.22521	0.22769
0.22521	0.15117
0.12320	0.12566
0.12320	0.25320
0.14870	0.04914
0.17421	0.27871
0.19971	0.30422
0.07220	0.04914
0.12320	0.07465
0.12320	-0.02739
0.17421	0.12566
0.22521	0.15117
0.04670	0.20219
0.22521	0.15117
0.14870	0.07465
0.14870	0.22769
0.12320	0.15117
0.04670	0.07465
0.19971	0.20219
0.17421	0.15117
0.17421	0.15117
0.22521	0.17668
0.09770	0.07465
0.19971	0.27871
0.12320	0.12566
0.17421	-0.00188
0.22521	0.17668
0.07220	0.10015
0.22521	0.25320
0.14870	0.12566
0.19971	0.10015
0.17421	0.12566
0.04670	0.20219
0.19971	0.27871
0.14870	0.12566
0.09770	0.12566
0.19971	0.15117
0.04670	0.07465
0.14870	0.20219
0.19971	0.15117
0.17421	0.07465
0.17421	0.22769
0.14870	0.17668
0.07220	0.12566
0.14870	0.12566
0.14870	0.04914
0.09770	0.17668
0.14870	0.25320
0.25071	0.30422
0.09770	0.20219
0.12320	0.12566
0.22521	0.17668
0.04670	0.04914
0.12320	0.12566
0.12320	0.12566
0.09770	0.02363
0.19971	0.12566
0.12320	0.12566
0.09770	0.20219
0.14870	0.12566
0.19971	0.27871
0.12320	0.25320
0.09770	-0.00188
0.14870	0.04914
0.19971	0.07465
0.09770	0.04914
0.14870	0.12566
0.14870	0.15117
0.09770	0.48277
0.14870	0.50828
0.22521	-0.10391
0.04670	0.15117
0.14870	-0.23145
0.12320	0.66132
0.12320	0.40625
0.22521	-0.25695
0.09770	-0.05289
0.04670	0.66132
0.12320	0.35523
0.04670	0.22769
-0.00431	-0.20594
0.27621	-0.61406
0.17421	-0.38449
0.14870	-1.43031
0.30171	0.45726
0.30171	1.04394
0.48022	1.29902
0.27621	1.88570
0.32721	-1.94047
0.02119	-0.63957
-0.46334	1.91120
0.12320	-0.18043
-0.20832	-0.97117
-0.38683	1.88570
-0.05531	2.90601
0.76074	-0.51203
0.45472	-3.31788
0.19971	-1.12422
0.30171	0.38074
0.04670	1.83468
0.78624	1.04394
0.45472	-0.30797
-0.20832	0.45726
-0.08081	-0.97117
0.45472	-1.81293
-0.31033	0.73785
0.58223	-1.20074
0.48022	0.58480
-0.00431	5.81389
-0.20832	0.22769
-0.08081	-1.48133
-0.08081	-2.50164
-0.64185	-2.01699
-2.52897	-0.18043
0.14870	-1.68539
0.30171	-1.63437
1.90832	4.28343
2.13783	4.74256
0.42922	3.18659
1.72980	2.29382
1.06676	7.08928
-0.56534	-4.26167
1.42379	-6.50635
-1.53441	-8.90408
-3.44703	-0.56305
0.37822	-2.14453
-0.25932	2.52339
-0.84586	2.90601
-0.76936	2.08976
1.37278	3.87530
1.65330	1.27351
0.37822	-0.76711
1.65330	0.17668
2.34184	2.21730
2.54586	1.73265
0.27621	6.55361
-2.93700	-14.61782
-3.01350	-2.17003
-2.57997	-1.63437
-2.01894	-1.50683
0.70974	2.47238
1.72980	4.13038
1.04126	1.70714
1.27078	1.91120
1.47479	1.86019
1.42379	0.81437
1.50029	-0.86914
0.86275	-0.66508
-0.33583	0.22769
-3.42153	0.89089
-1.30489	-4.64429
-1.40690	1.63062
0.02119	-1.32828
2.44385	-0.02739
1.80631	-0.33348
-0.25932	-2.75671
0.09770	2.49788
0.73524	1.60511
1.21977	0.71234
-0.23382	0.96742
-0.20832	1.42656
0.55673	-0.00188
0.30171	-1.07320
-0.94787	3.87530
-0.69285	1.88570
-0.76936	-4.31269
0.19971	-3.03730
0.45472	1.80917
0.14870	-2.42511
-1.02437	-0.76711
-0.00431	1.91120
1.65330	1.96222
1.57679	1.19699
1.14327	0.53379
0.78624	-0.46102
0.42922	0.04914
-0.05531	-0.23145
-0.61635	-0.69059
-0.36133	-1.07320
-0.20832	2.80397
-0.13181	-1.78742
-0.15732	-1.07320
0.07220	-0.71609
-0.51434	0.43176
0.32721	1.73265
0.60773	1.65613
0.88825	2.37034
0.53123	2.88050
0.09770	-0.43551
-0.59084	-3.34339
-0.02981	-2.83324
0.50573	-3.47093
-0.64185	0.58480
-0.99887	1.32453
0.27621	3.31413
0.91375	2.31933
1.16877	-0.56305
0.35272	0.96742
0.12320	0.32972
0.76074	0.32972
-0.15732	0.20219
0.19971	-0.86914
0.25071	-1.30277
-0.99887	0.91640
-0.13181	-0.81812
0.19971	-2.93527
0.22521	0.61031
0.27621	-0.63957
0.12320	1.98773
0.19971	0.86539
0.07220	0.27871
0.04670	-1.30277
0.17421	0.22769
0.19971	1.75816
0.19971	5.71186
-0.25932	-2.24656
-0.15732	-3.62398
-0.05531	0.55929
0.09770	1.01843
0.93925	1.37554
0.58223	1.80917
-0.43783	1.78367
0.22521	-0.56305
0.60773	-2.01699
0.81175	-1.73640
-0.38683	-0.38449
0.81175	0.61031
1.52579	0.94191
-0.13181	0.50828
-1.12638	0.55929
-0.69285	0.45726
-2.68198	0.12566
-0.31033	-3.52195
0.60773	0.45726
1.83181	0.58480
1.55129	2.06425
0.53123	-0.86914
0.65874	0.20219
0.40372	1.52859
-0.28482	1.96222
0.07220	-2.96078
0.12320	-0.25695
-0.25932	0.15117
-0.51434	0.32972
-0.36133	0.53379
-0.15732	0.50828
0.04670	-0.56305
0.04670	2.67644
0.35272	-0.12942
0.48022	-1.60887
0.40372	-0.97117
0.32721	-1.02219
0.09770	2.29382
-0.20832	1.68163
0.27621	-0.86914
1.09226	0.78886
0.50573	0.27871
-0.33583	-1.17523
-0.25932	1.29902
-0.84586	3.64573
0.48022	-5.00139
1.29628	-5.10343
0.37822	0.61031
-0.43783	1.75816
0.27621	2.34484
0.09770	2.11527
0.45472	0.02363
0.22521	0.32972
0.65874	0.35523
0.37822	0.32972
-0.08081	0.30422
-1.17738	1.52859
-2.78398	-1.22625
-0.25932	-1.76191
0.81175	-2.52714
1.39828	1.42656
0.86275	2.14077
0.14870	-1.88945
0.53123	-0.41000
0.93925	1.63062
0.76074	0.86539
0.42922	0.68683
0.07220	0.53379
-0.48884	0.61031
-0.31033	-0.05289
-0.28482	0.50828
0.09770	0.20219
0.12320	-0.28246
-0.38683	-3.59847
0.19971	-0.30797
0.09770	0.83988
0.30171	1.27351
-0.10631	2.26831
0.19971	-1.48133
0.53123	-0.43551
0.73524	0.58480
0.53123	0.99292
-0.00431	2.39585
-0.43783	-0.00188
-0.43783	-3.24136
0.27621	0.45726
1.01576	0.73785
0.25071	-0.53754
-0.48884	0.76336
-0.38683	1.47757
0.09770	-0.12942
1.16877	-0.18043
0.63323	-0.48652
0.07220	-0.25695
-1.02437	-0.43551
-2.32496	1.27351
-0.53984	0.76336
1.83181	0.45726
1.34728	0.45726
0.68424	0.38074
0.91375	-0.05289
0.25071	-0.48652
0.02119	-0.99668
-0.05531	1.17148
-0.20832	-1.22625
0.14870	0.38074
-0.18282	0.43176
-0.13181	1.01843
0.14870	-1.88945
-0.15732	0.71234
-0.53984	1.70714
-0.25932	1.37554
0.50573	1.06945
0.68424	0.71234
0.40372	-0.18043
0.40372	1.27351
0.07220	-1.76191
0.32721	-2.70570
0.22521	-0.46102
0.17421	0.94191
0.12320	0.71234
0.19971	1.93671
0.17421	-1.37929
-0.28482	-0.58856
0.04670	0.61031
-0.38683	1.29902
0.68424	-0.02739
0.07220	-2.29757
0.12320	0.89089
-0.48884	1.24800
0.27621	1.37554
0.32721	1.40105
0.22521	1.60511
0.30171	-2.27207
-0.18282	-3.64948
0.50573	0.86539
0.42922	1.40105
0.48022	1.06945
0.48022	0.81437
-0.00431	0.99292
-0.05531	0.15117
0.17421	-1.83844
0.27621	-0.35899
0.14870	0.73785
-0.13181	-0.61406
-1.07538	-0.56305
-1.15188	0.96742
0.35272	0.10015
0.42922	-1.27726
0.68424	1.22250
0.99026	2.19179
1.34728	-1.09871
0.81175	-0.94566
0.19971	1.24800
-0.41233	-0.20594
-1.55991	-1.99148
-0.48884	2.29382
0.81175	1.42656
0.53123	1.06945
0.40372	0.45726
0.58223	0.17668
0.27621	-0.48652
0.17421	-0.76711
0.25071	-0.56305
0.02119	-0.10391
0.22521	0.35523
-0.05531	-0.30797
-0.02981	-0.18043
0.02119	-0.46102
-1.04987	-0.56305
-1.20288	0.73785
1.29628	-0.66508
1.09226	0.91640
-0.20832	1.40105
-0.00431	1.47757
0.48022	1.09496
0.50573	-0.97117
0.68424	0.43176
0.91375	0.96742
0.65874	0.40625
0.32721	-0.30797
0.04670	-0.76711
-0.28482	0.68683
-0.28482	-1.27726
-0.10631	0.66132
-0.02981	2.01323
0.04670	-0.18043
0.19971	-2.78222
-0.15732	-1.43031
-0.46334	-1.12422
-0.99887	1.24800
0.35272	3.44167
0.58223	0.22769
0.70974	0.83988
0.55673	1.14597
0.55673	0.27871
0.42922	0.04914
0.37822	0.22769
0.42922	-0.25695
0.27621	-0.48652
-0.71835	-0.33348
-0.89686	-0.66508
-0.05531	-0.07840
0.17421	-0.10391
0.65874	-0.69059
0.68424	0.68683
0.88825	0.22769
0.35272	0.83988
-0.53984	0.89089
-1.40690	1.68163
0.07220	0.02363
0.58223	-1.32828
0.65874	-1.35379
0.07220	-0.10391
-0.08081	0.58480
0.45472	0.10015
0.12320	1.65613
0.70974	1.14597
0.37822	-0.02739
0.53123	-0.38449
-0.05531	0.35523
-0.48884	0.55929
0.27621	0.66132
0.04670	0.86539
0.02119	0.30422
-0.28482	-1.78742
-0.08081	-1.96597
-0.13181	-2.62918
-0.05531	-0.18043
0.58223	1.68163
0.25071	1.27351
-0.43783	1.45206
0.27621	1.09496
0.58223	0.71234
0.73524	0.35523
0.40372	0.12566
0.60773	-0.12942
-0.02981	-0.23145
-0.53984	0.53379
-0.08081	0.15117
0.04670	-2.17003
0.12320	-1.86394
0.32721	1.32453
0.68424	1.45206
0.27621	0.10015
-0.69285	1.14597
-0.89686	0.96742
0.70974	-0.35899
-0.02981	1.06945
0.40372	-0.38449
0.83725	-0.05289
0.35272	-1.04770
0.45472	-0.10391
0.25071	0.48277
0.02119	1.47757
0.02119	1.98773
-0.76936	-4.00659
-1.50890	-0.81812
0.12320	0.38074
0.96476	0.38074
0.81175	0.25320
1.21977	1.40105
0.91375	1.68163
0.27621	1.83468
-0.46334	0.48277
-0.84586	-0.94566
-0.00431	0.43176
0.27621	-1.09871
-0.20832	-2.04250
0.73524	-0.41000
0.73524	-1.02219
-0.61635	0.76336
-1.20288	2.49788
-0.08081	0.83988
0.86275	-0.74160
0.86275	-2.01699
0.48022	0.12566
0.45472	0.53379
0.45472	2.21730
-0.23382	1.50308
-0.18282	-0.86914
-0.05531	0.30422
-0.00431	0.68683
0.27621	0.81437
0.35272	-1.14973
0.40372	0.15117
0.45472	0.96742
-0.33583	-0.63957
-0.20832	-2.60367
0.09770	0.12566
-0.87136	0.91640
0.07220	0.86539
0.65874	2.14077
1.01576	0.02363
1.04126	-1.88945
0.02119	0.53379
-0.64185	-0.53754
-0.74385	0.22769
0.78624	0.71234
0.30171	-0.33348
0.65874	0.15117
0.65874	1.42656
0.02119	0.96742
-0.25932	-0.05289
-0.23382	0.86539
-0.02981	0.40625
0.35272	-0.81812
0.40372	-1.50683
0.45472	0.40625
0.19971	0.81437
0.02119	0.48277
-0.13181	-2.06800
-0.33583	-1.81293
-0.56534	2.39585
-0.48884	-0.30797
0.68424	0.94191
0.68424	0.32972
0.42922	0.20219
-0.15732	-0.69059
0.42922	0.71234
0.40372	0.83988
0.09770	1.60511
0.65874	0.15117
0.55673	-0.07840
0.78624	0.45726
-0.23382	-0.66508
-0.46334	-0.41000
-0.15732	-1.14973
-0.41233	-0.66508
-0.05531	0.53379
-0.20832	1.65613
0.09770	0.30422
0.48022	0.17668
0.76074	1.50308
0.68424	-0.30797
0.63323	-0.35899
0.73524	0.35523
0.14870	-0.18043
-0.89686	0.25320
-0.87136	0.10015
-0.53984	0.96742
0.53123	-1.58336
0.76074	-0.46102
0.53123	1.14597
0.02119	0.91640
0.19971	-0.86914
0.73524	1.12046
0.02119	-0.00188
-0.00431	-1.65988
0.02119	-1.71090
-0.10631	1.42656
-0.18282	1.52859
0.14870	2.57441
0.42922	0.91640
0.32721	0.40625
0.37822	-0.10391
0.30171	0.10015
0.12320	-0.12942
-0.00431	-0.25695
0.02119	0.22769
0.02119	-1.27726
-0.05531	-0.61406
-0.51434	-0.05289
0.22521	0.81437
0.02119	0.43176
-0.28482	-0.81812
0.37822	0.17668
1.06676	-0.58856
1.37278	0.86539
0.93925	-0.25695
0.09770	0.40625
-0.92237	1.06945
-0.46334	1.01843
0.04670	0.32972
-0.10631	0.32972
0.45472	0.55929
0.02119	-0.41000
0.22521	0.12566
0.60773	0.32972
0.32721	-0.18043
0.04670	-2.37410
-0.02981	0.12566
0.19971	1.40105
0.12320	1.60511
0.14870	1.47757
0.17421	-0.10391
0.02119	-2.45062
-0.23382	-1.45582
-0.33583	0.76336
-0.00431	2.06425
0.48022	2.11527
0.27621	-0.41000
-0.25932	-1.71090
0.42922	-0.41000
-0.00431	0.53379
0.70974	1.32453
0.58223	1.12046
0.42922	0.07465
0.19971	0.04914
0.40372	0.30422
0.32721	-0.48652
-0.02981	-0.69059
-0.69285	-0.05289
-0.48884	0.35523
0.35272	0.66132
0.27621	0.30422
0.27621	-0.35899
-0.13181	-1.73640
0.27621	-0.35899
-0.28482	0.66132
0.09770	3.05905
0.37822	0.68683
0.63323	-1.02219
0.53123	-0.81812
0.76074	0.89089
0.60773	0.53379
-0.94787	0.53379
-1.22839	0.91640
0.22521	-0.76711
0.17421	-0.48652
0.68424	0.17668
0.73524	0.22769
0.27621	-0.63957
-0.31033	0.12566
0.12320	0.17668
0.37822	-0.12942
0.58223	0.61031
0.73524	0.76336
-0.08081	0.12566
-0.64185	-0.25695
-0.08081	-0.56305
0.04670	-0.43551
-0.00431	0.02363
-0.20832	0.27871
0.37822	1.09496
0.25071	0.78886
0.02119	0.17668
0.55673	1.06945
0.48022	1.88570
0.35272	-1.73640
0.45472	-0.58856
-0.05531	-0.05289
0.17421	1.19699
-0.38683	0.81437
-1.20288	-1.04770
0.19971	-0.02739
0.63323	0.30422
0.65874	-1.73640
0.32721	0.86539
0.42922	0.50828
0.30171	-0.51203
0.07220	0.76336
-0.08081	1.52859
-0.10631	0.66132
0.02119	-0.00188
0.37822	0.20219
0.09770	0.15117
0.22521	-0.05289
-0.13181	-0.69059
-0.66735	-0.43551
0.19971	0.81437
0.35272	-0.12942
0.07220	-0.74160
0.63323	0.96742
0.78624	0.58480
0.55673	0.17668
0.42922	0.02363
0.30171	0.50828
0.04670	0.81437
-0.05531	-1.04770
-0.71835	-0.69059
-0.18282	-0.51203
0.40372	0.55929
0.32721	2.57441
0.32721	0.81437
-0.08081	-1.35379
-0.13181	-0.30797
-0.46334	0.86539
0.14870	0.45726
0.70974	0.22769
0.73524	-0.43551
0.42922	-1.12422
0.17421	0.50828
0.25071	0.15117
-0.02981	-0.15492
-0.36133	-0.20594
-0.20832	-0.66508
0.04670	0.81437
0.07220	1.27351
0.19971	-0.86914
0.63323	0.35523
0.53123	1.37554
0.32721	-0.28246
0.07220	0.58480
0.14870	1.35003
-0.00431	-0.43551
-0.05531	0.17668
-0.15732	0.38074
-0.38683	0.43176
0.04670	-1.50683
0.25071	-0.81812
0.76074	0.12566
0.32721	0.40625
0.32721	0.73785
0.17421	0.40625
0.35272	0.15117
0.14870	-0.10391
0.60773	0.76336
0.55673	1.06945
-0.10631	-0.63957
-0.89686	-0.46102
-1.38139	-0.69059
-0.31033	0.30422
0.37822	0.10015
0.60773	0.02363
1.14327	0.66132
0.99026	1.32453
0.65874	1.04394
0.22521	0.71234
0.12320	0.17668
0.02119	0.02363
0.02119	-0.35899
-0.08081	0.10015
-0.13181	0.07465
-0.08081	0.63582
-0.10631	-1.14973
0.02119	-2.78222
0.09770	-0.02739
0.25071	0.25320
-0.02981	0.63582
0.25071	1.50308
0.30171	1.12046
0.42922	0.66132
0.22521	0.55929
-0.00431	-0.25695
0.09770	-0.25695
0.32721	-0.61406
0.32721	1.29902
0.37822	1.98773
0.22521	-2.27207
-0.87136	-2.22105
-0.38683	-0.71609
0.55673	1.35003
0.63323	1.40105
-0.02981	1.70714
-0.15732	0.94191
0.53123	-0.58856
0.70974	-0.74160
0.22521	-0.46102
0.30171	0.07465
0.45472	0.96742
-0.18282	1.75816
-0.31033	0.17668
-0.43783	-2.42511
-0.23382	-1.55785
-0.46334	0.71234
0.17421	1.42656
0.83725	0.96742
1.06676	0.63582
0.58223	-0.46102
0.09770	-0.41000
0.19971	-0.43551
0.17421	0.71234
0.30171	-0.05289
-0.18282	0.96742
-0.51434	-0.02739
0.19971	-0.23145
0.35272	0.81437
-0.15732	-0.63957
-0.23382	-0.46102
0.53123	-0.10391
0.73524	0.63582
-0.08081	1.32453
-0.20832	0.25320
-0.02981	-2.06800
0.35272	0.66132
0.37822	0.96742
0.60773	0.91640
0.53123	0.81437
0.04670	-0.43551
0.14870	-1.68539
-0.33583	0.45726
-0.48884	0.73785
0.81175	0.30422
0.02119	-0.02739
0.63323	0.35523
0.53123	0.25320
0.19971	-0.18043
-0.08081	-0.43551
-0.28482	0.45726
-0.31033	1.09496
0.22521	-0.33348
0.45472	0.58480
0.60773	-1.20074
-0.28482	0.50828
-0.46334	0.86539
0.63323	-0.33348
0.70974	-0.25695
0.58223	1.17148
0.50573	0.32972
0.32721	0.25320
-0.08081	0.02363
-0.10631	0.76336
-0.41233	0.32972
-0.08081	-1.40480
0.17421	-0.41000
-0.18282	-0.23145
-0.28482	0.55929
0.25071	1.24800
0.17421	0.20219
0.35272	0.20219
0.40372	0.04914
0.45472	0.12566
0.55673	-0.18043
0.32721	-0.69059
0.32721	0.10015
0.32721	0.32972
-0.31033	0.12566
-0.99887	0.35523
-0.20832	0.25320
0.68424	0.53379
0.55673	0.83988
0.09770	-0.35899
-0.89686	-0.56305
-0.28482	0.81437
0.70974	-1.12422
0.78624	0.35523
0.73524	0.12566
0.83725	1.01843
0.09770	1.04394
-0.13181	0.53379
0.19971	0.22769
0.07220	0.45726
-0.66735	0.17668
0.14870	-0.18043
-0.00431	-0.30797
0.17421	-0.20594
-0.15732	-0.12942
-0.18282	-0.28246
0.63323	-0.51203
0.50573	1.06945
0.45472	0.63582
0.53123	-0.86914
0.30171	-0.05289
0.27621	1.42656
0.22521	0.07465
-0.25932	-0.18043
-0.61635	-0.71609
-0.53984	-0.10391
0.12320	1.35003
0.68424	0.20219
0.48022	0.81437
0.45472	0.25320
0.07220	0.15117
0.07220	0.10015
0.37822	-1.02219
0.17421	0.45726
0.02119	-0.35899
-0.20832	-1.25176
-0.25932	0.45726
0.37822	0.86539
0.04670	0.25320
0.09770	1.68163
0.25071	0.43176
0.45472	-0.84363
-0.00431	0.66132
0.14870	-0.33348
0.09770	-0.10391
0.45472	-0.25695
0.02119	0.40625
-0.08081	0.48277
0.37822	0.89089
0.09770	0.63582
-0.08081	-0.79262
0.50573	-0.38449
0.55673	0.17668
-0.10631	0.32972
-0.10631	-0.53754
-0.33583	-0.43551
-0.25932	0.35523
-0.05531	0.63582
0.53123	0.68683
0.70974	1.06945
0.70974	0.15117
0.09770	-0.18043
-0.43783	0.02363
-0.56534	0.17668
0.32721	-0.81812
0.58223	0.35523
0.68424	0.61031
0.65874	1.37554
0.04670	-0.00188
-0.53984	-2.09351
-0.31033	0.10015
-0.13181	0.83988
0.02119	0.12566
0.53123	-0.51203
0.53123	1.27351
0.32721	0.38074
0.17421	0.86539
0.02119	-0.35899
0.25071	-1.83844
-0.00431	0.86539
-0.36133	1.35003
-0.38683	0.63582
-0.31033	-0.97117
0.81175	0.12566
0.63323	0.35523
0.37822	0.55929
0.40372	0.02363
0.25071	-0.43551
-0.00431	-0.15492
-0.18282	0.20219
0.22521	-0.25695
-0.08081	0.07465
0.32721	0.30422
-0.20832	0.71234
0.07220	-0.10391
0.58223	0.38074
0.48022	0.20219
0.14870	0.35523
-0.28482	0.45726
-0.69285	0.55929
0.22521	-1.22625
0.78624	-0.58856
0.96476	-0.89465
0.30171	0.45726
-0.89686	0.76336
-0.66735	0.66132
0.73524	0.32972
0.55673	-0.05289
0.27621	0.73785
0.02119	1.27351
0.22521	0.53379
0.48022	0.25320
0.14870	-0.20594
-0.05531	-0.10391
0.17421	0.25320
0.04670	-0.15492
-0.13181	-1.17523
0.02119	0.25320
-0.28482	0.78886
-0.02981	-0.41000
0.19971	-0.94566
0.22521	-0.61406
0.35272	1.91120
0.30171	-0.12942
0.19971	0.55929
0.30171	0.48277
0.22521	0.86539
0.07220	1.22250
0.09770	-0.33348
0.07220	-0.30797
-0.15732	0.35523
0.37822	0.73785
0.09770	-0.20594
-0.02981	-0.28246
0.53123	-0.46102
0.09770	-0.23145
-0.92237	0.17668
-0.56534	0.50828
0.22521	-0.51203
1.52579	0.40625
0.70974	0.86539
-0.28482	-0.69059
0.32721	-0.79262
0.58223	0.35523
0.73524	0.68683
0.25071	0.99292
0.07220	0.30422
-0.76936	0.45726
-0.64185	0.58480
-0.31033	-0.35899
0.27621	0.73785
-0.20832	0.40625
0.27621	-1.65988
0.81175	-0.25695
0.17421	1.27351
0.32721	0.27871
0.53123	0.27871
0.12320	0.02363
0.22521	-0.15492
0.14870	0.32972
0.09770	0.35523
0.14870	0.04914
-0.13181	-1.65988
-0.28482	-0.97117
0.22521	1.70714
0.12320	-1.48133
0.14870	1.04394
0.27621	1.52859
0.70974	1.37554
0.35272	-0.25695
-0.13181	1.29902
-1.10088	0.86539
-0.87136	-1.14973
0.63323	-0.66508
1.21977	0.58480
0.91375	0.02363
0.58223	-0.23145
0.19971	-0.10391
0.19971	0.35523
0.48022	0.45726
0.07220	-0.23145
0.04670	0.20219
0.25071	0.10015
-0.20832	0.27871
-0.92237	0.78886
-0.87136	0.22769
-0.66735	-0.74160
0.37822	-0.12942
0.83725	0.17668
0.93925	0.94191
0.93925	1.04394
0.73524	-0.28246
0.42922	-0.92016
-0.10631	-0.46102
-0.43783	0.58480
-0.18282	0.17668
-0.13181	-0.58856
0.25071	1.68163
0.86275	1.73265
-0.18282	-0.76711
0.12320	-0.25695
0.27621	0.15117
0.14870	0.22769
0.19971	0.99292
0.22521	0.78886
0.22521	-1.88945
0.19971	-1.76191
-0.15732	0.07465
-0.33583	0.76336
0.40372	0.27871
0.76074	0.50828
0.55673	-0.28246
-0.92237	0.27871
-1.30489	0.73785
-0.46334	0.68683
0.83725	0.38074
1.34728	0.43176
1.09226	0.50828
0.55673	0.30422
0.63323	-0.41000
0.19971	-0.76711
-0.13181	-0.20594
-0.28482	-0.53754
0.37822	0.35523
0.02119	0.99292
-0.38683	0.20219
-0.71835	0.12566
-0.56534	1.27351
0.17421	-0.76711
0.55673	-1.58336
0.50573	0.25320
1.16877	0.55929
-0.00431	1.24800
0.17421	1.37554
0.09770	0.04914
-0.43783	0.66132
0.09770	-1.07320
0.50573	-0.25695
0.30171	0.55929
-0.13181	0.81437
0.22521	0.20219
0.60773	-0.28246
0.45472	0.35523
0.65874	-0.05289
-0.36133	-0.92016
-0.87136	-0.53754
-0.15732	0.30422
-0.00431	0.55929
0.17421	1.09496
0.42922	0.10015
0.83725	-0.74160
0.88825	0.58480
0.53123	-0.28246
0.12320	1.04394
-0.59084	1.12046
-0.48884	0.07465
-0.15732	-0.46102
0.12320	-1.27726
0.48022	0.50828
0.55673	0.91640
0.07220	0.66132
-0.10631	0.53379
-0.10631	-0.28246
0.27621	-0.05289
-0.18282	0.58480
0.22521	0.35523
-0.05531	-0.89465
-0.28482	0.53379
0.12320	-1.30277
0.78624	-0.28246
0.88825	1.24800
0.48022	0.58480
0.53123	-0.53754
-0.08081	-0.92016
0.22521	1.12046
-0.38683	1.93671
-0.13181	0.89089
0.22521	-0.71609
0.19971	-0.05289
0.27621	0.61031
-0.36133	-0.07840
-0.74385	-0.63957
-0.08081	-0.25695
0.48022	0.45726
0.68424	1.24800
0.53123	0.40625
-0.08081	-0.41000
0.37822	-0.89465
0.50573	-0.71609
0.37822	-0.89465
0.35272	0.30422
-0.66735	1.06945
-0.74385	0.86539
-0.00431	0.40625
0.70974	1.12046
0.42922	0.78886
0.07220	-0.25695
0.14870	-0.66508
0.32721	0.20219
0.19971	-0.10391
0.12320	0.55929
-0.18282	-0.30797
-0.08081	-0.92016
0.25071	-0.05289
0.30171	-0.33348
0.32721	0.55929
-0.05531	0.83988
-0.13181	0.30422
0.30171	1.06945
0.48022	0.68683
0.53123	0.63582
0.27621	-0.33348
-0.02981	-0.41000
-0.23382	-2.80773
-0.13181	-1.04770
0.12320	1.17148
0.35272	2.19179
0.32721	-0.00188
0.32721	-0.28246
0.22521	0.68683
0.22521	1.19699
0.07220	-0.05289
0.14870	0.38074
0.09770	0.53379
-0.00431	-0.84363
0.09770	-0.56305
-0.15732	0.10015
-0.02981	0.40625
-0.20832	0.15117
0.19971	-0.20594
0.63323	0.40625
0.37822	0.45726
0.25071	0.25320
0.22521	0.04914
0.17421	-0.81812
0.37822	0.25320
0.40372	0.35523
0.45472	0.63582
-0.66735	0.78886
-2.17195	-0.23145
-0.02981	-0.56305
0.35272	0.55929
1.04126	0.71234
0.96476	0.43176
0.68424	0.40625
0.73524	0.48277
0.45472	0.40625
0.19971	0.96742
-0.48884	-0.10391
-0.92237	-2.24656
-0.28482	-0.74160
0.32721	-0.15492
0.32721	0.55929
0.55673	0.61031
0.30171	-0.15492
-0.02981	1.78367
0.02119	1.73265
0.22521	-0.84363
0.02119	-0.86914
-0.05531	0.43176
0.07220	0.89089
0.53123	0.45726
0.60773	0.61031
0.27621	0.04914
0.30171	-1.30277
0.42922	0.66132
0.04670	0.40625
-0.20832	0.94191
-0.13181	-0.25695
0.04670	-2.19554
0.37822	-1.14973
0.17421	0.15117
0.42922	0.58480
-0.48884	0.61031
0.04670	1.45206
0.45472	1.17148
0.55673	1.35003
0.19971	0.48277
0.25071	0.17668
0.09770	-1.09871
0.32721	-0.35899
-0.13181	0.10015
0.53123	-0.35899
-0.15732	0.55929
-0.38683	0.61031
-0.53984	-0.00188
-0.36133	2.39585
0.81175	0.50828
1.09226	-2.90976
1.09226	-2.78222
0.53123	-0.35899
0.22521	1.45206
-0.18282	1.78367
-0.41233	0.27871
-0.43783	1.06945
-0.10631	0.89089
0.09770	-0.00188
0.17421	0.32972
-0.18282	-0.00188
-0.18282	-0.10391
0.32721	0.15117
0.40372	-0.63957
0.22521	0.12566
0.48022	0.76336
0.27621	-1.48133
0.32721	-0.18043
-0.36133	0.10015
0.40372	0.61031
0.53123	0.48277
0.60773	0.55929
-0.23382	0.96742
-0.48884	0.12566
0.60773	0.02363
0.76074	-0.51203
0.27621	-0.51203
-0.74385	-0.56305
-0.99887	0.50828
0.27621	0.83988
1.16877	1.24800
0.99026	0.25320
0.76074	0.61031
-0.20832	0.40625
-0.51434	0.32972
-0.00431	0.30422
-0.23382	-0.10391
-0.00431	-0.53754
0.25071	-0.63957
0.45472	-0.15492
0.25071	-0.10391
0.35272	0.12566
0.45472	-0.07840
-0.41233	0.12566
-0.23382	0.55929
0.35272	0.71234
0.30171	0.07465
0.22521	0.94191
0.07220	-0.76711
0.22521	0.04914
0.09770	0.68683
0.17421	0.55929
0.17421	0.61031
0.42922	1.06945
0.40372	-0.66508
0.19971	-1.58336
-0.02981	-0.81812
-0.31033	0.32972
0.32721	0.10015
0.25071	1.52859
0.19971	0.76336
0.02119	1.40105
-0.05531	0.20219
0.32721	-0.30797
-0.05531	0.22769
-0.89686	0.17668
0.14870	-0.48652
1.57679	-1.63437
1.50029	1.32453
0.76074	0.94191
-0.94787	-0.51203
-0.82036	-1.88945
0.09770	-0.25695
0.55673	0.50828
0.07220	0.63582
0.27621	0.58480
0.35272	0.99292
0.17421	0.45726
-0.15732	0.40625
-0.13181	-1.04770
0.17421	0.10015
0.32721	1.68163
0.02119	0.38074
-0.15732	-1.20074
0.19971	0.58480
0.22521	0.22769
-0.13181	1.35003
-0.00431	0.20219
0.42922	-0.86914
0.35272	-0.69059
0.32721	0.10015
0.45472	0.73785
0.02119	0.22769
-0.56534	-0.61406
0.22521	0.94191
-0.00431	0.25320
0.32721	-1.88945
0.63323	-0.30797
0.42922	0.99292
0.53123	0.81437
-0.18282	0.81437
-0.00431	0.40625
-0.61635	0.48277
-0.33583	0.15117
0.07220	0.15117
0.30171	0.43176
0.81175	-0.25695
0.76074	-0.79262
0.45472	0.58480
0.19971	0.12566
-0.10631	-0.25695
-0.28482	-0.05289
-0.08081	0.30422
0.07220	0.15117
-0.02981	1.12046
0.14870	0.68683
0.09770	-0.33348
-0.08081	-0.99668
-0.00431	-0.02739
-0.00431	0.83988
0.27621	1.14597
0.40372	-1.71090
0.40372	-0.30797
0.48022	1.32453
0.53123	-0.20594
-0.02981	0.15117
0.04670	1.06945
-0.59084	0.99292
-0.28482	-0.33348
0.32721	-1.02219
0.42922	0.15117
0.17421	1.50308
0.12320	-0.05289
0.50573	0.02363
0.27621	0.04914
0.14870	0.15117
-0.23382	0.81437
0.02119	-0.33348
-0.02981	0.20219
0.30171	0.45726
-0.02981	-0.66508
0.25071	-0.25695
0.22521	-0.30797
0.14870	0.55929
0.25071	1.06945
0.86275	0.20219
0.32721	-1.07320
-0.64185	-0.12942
-1.55991	0.30422
-0.87136	0.81437
0.78624	0.66132
1.09226	0.68683
1.04126	0.89089
0.83725	0.25320
0.53123	0.20219
0.32721	0.27871
0.12320	0.38074
-0.00431	0.30422
-0.13181	-0.84363
-0.20832	-2.50164
-0.38683	-0.56305
-0.48884	0.81437
0.12320	1.17148
0.32721	1.04394
0.78624	0.71234
0.02119	1.04394
-0.23382	-0.58856
0.30171	-1.83844
0.04670	0.04914
0.27621	0.22769
0.40372	0.63582
0.12320	1.04394
0.22521	1.12046
0.42922	0.63582
0.35272	-0.63957
0.30171	-0.12942
0.22521	0.04914
0.17421	0.35523
0.17421	0.48277
0.07220	0.17668
-0.43783	-0.25695
-0.38683	-0.46102
-0.23382	0.32972
0.17421	0.30422
0.63323	-0.56305
0.53123	0.27871
0.35272	0.66132
0.35272	1.27351
0.07220	0.04914
-0.05531	-1.68539
-0.08081	-0.84363
-0.05531	0.66132
-0.00431	1.22250
-0.02981	1.17148
0.48022	0.43176
0.60773	0.15117
0.53123	0.15117
0.50573	0.10015
0.27621	0.02363
0.19971	-0.00188
-0.08081	-0.00188
-0.00431	-0.00188
0.12320	0.22769
-0.05531	0.30422
0.17421	-0.53754
0.02119	-0.02739
0.09770	-0.86914
-0.18282	-0.15492
-0.38683	0.73785
-0.00431	1.93671
-0.31033	0.94191
-0.18282	-1.71090
0.63323	-0.66508
0.93925	0.94191
0.93925	2.16628
0.93925	0.91640
-0.02981	-0.35899
-0.08081	0.12566
0.09770	0.12566
0.14870	-0.05289
0.09770	-0.05289
0.09770	-0.20594
-0.08081	-0.28246
0.02119	-0.05289
-0.05531	0.04914
-0.05531	0.15117
0.09770	-0.02739
-0.02981	-0.10391
0.14870	0.96742
0.22521	1.12046
0.37822	0.50828
0.35272	-1.48133
0.22521	-1.68539
0.32721	0.73785
-0.18282	-1.02219
-0.56534	1.52859
-0.02981	0.94191
-0.08081	1.19699
0.60773	1.29902
0.78624	1.52859
-0.10631	0.10015
0.40372	-0.94566
0.27621	0.25320
0.32721	-1.09871
0.48022	-1.37929
0.68424	0.25320
-0.00431	0.20219
-0.05531	0.25320
-0.02981	0.17668
-0.08081	0.20219
-0.10631	0.10015
-0.15732	0.15117
-0.05531	0.43176
-0.08081	0.25320
-0.00431	-0.25695
0.07220	0.30422
0.12320	0.35523
0.22521	0.27871
0.37822	-1.04770
0.35272	-0.71609
0.25071	0.20219
-0.05531	0.73785
0.25071	1.96222
0.35272	0.96742
0.30171	-0.33348
0.14870	-0.48652
0.30171	1.37554
0.25071	-0.12942
0.30171	-1.14973
0.42922	0.40625
-0.05531	-0.20594
-0.23382	-0.28246
-0.51434	0.30422
-1.61091	0.04914
0.14870	0.25320
0.93925	0.20219
1.01576	0.10015
0.96476	-0.35899
0.68424	0.40625
0.42922	-0.35899
-0.87136	0.17668
-0.18282	0.50828
-0.00431	0.96742
0.42922	0.55929
0.53123	0.17668
0.48022	-0.63957
0.04670	-0.30797
-0.15732	0.78886
-0.23382	0.83988
-0.28482	-0.18043
0.04670	-0.28246
0.25071	0.83988
0.32721	0.61031
0.19971	-1.53234
0.07220	-0.00188
0.07220	0.04914
0.32721	0.61031
0.35272	0.45726
0.40372	-0.38449
0.25071	0.68683
-0.10631	0.91640
-0.74385	-0.15492
0.07220	-0.28246
0.50573	-0.00188
0.73524	0.50828
0.73524	0.63582
0.09770	0.43176
0.04670	-0.48652
0.09770	-0.84363
-0.28482	-0.81812
-0.28482	1.09496
0.27621	1.24800
0.45472	0.40625
0.63323	-0.66508
0.27621	0.32972
-0.25932	0.22769
0.07220	-1.04770
0.35272	0.50828
0.35272	0.66132
-0.10631	0.27871
-0.18282	0.45726
0.09770	-0.00188
0.12320	-0.92016
0.04670	0.22769
-0.08081	0.78886
0.32721	0.78886
0.63323	0.81437
0.78624	0.17668
0.48022	-0.23145
-1.43240	0.45726
-1.10088	-0.07840
0.09770	0.04914
0.65874	0.02363
1.11776	-0.76711
1.06676	-1.53234
0.55673	0.53379
0.35272	0.40625
0.22521	0.66132
0.07220	2.16628
-0.20832	0.76336
-0.31033	-2.37410
-0.53984	0.07465
-0.05531	0.38074
0.14870	0.38074
0.25071	0.43176
0.45472	0.58480
0.32721	0.61031
-0.02981	-0.43551
-0.33583	0.58480
-0.43783	0.20219
0.53123	-0.10391
0.91375	-0.38449
0.83725	0.12566
0.17421	-0.02739
-0.00431	-0.20594
0.12320	-0.05289
0.35272	0.55929
0.19971	0.17668
-0.02981	0.07465
-0.82036	0.35523
0.02119	0.45726
0.40372	0.15117
0.37822	-1.07320
0.48022	-0.66508
0.50573	-0.61406
0.27621	0.86539
-0.48884	1.45206
-0.08081	1.27351
0.07220	0.96742
0.30171	0.83988
0.40372	0.15117
0.27621	-0.84363
-0.15732	-1.12422
-0.00431	-0.33348
-0.05531	1.45206
0.32721	0.30422
0.42922	-0.46102
-0.46334	-0.53754
0.14870	0.02363
0.45472	0.81437
-0.08081	0.17668
0.19971	0.07465
0.40372	-0.94566
0.42922	0.04914
0.50573	0.71234
0.22521	-1.02219
0.14870	1.19699
0.19971	1.52859
-0.25932	0.50828
-0.33583	0.04914
0.17421	-0.07840
0.04670	0.53379
-0.08081	0.15117
0.32721	-0.15492
0.42922	-0.00188
0.40372	0.35523
0.50573	-0.05289
0.07220	-1.71090
-0.64185	0.76336
-1.20288	0.86539
-0.20832	-0.38449
1.01576	-0.89465
0.93925	0.66132
0.93925	0.45726
0.81175	0.66132
0.60773	0.86539
0.22521	0.71234
-0.46334	0.17668
-0.51434	-0.56305
-0.41233	-0.10391
-0.59084	-0.23145
0.40372	1.24800
0.30171	0.27871
0.35272	-0.48652
0.65874	-0.02739
0.60773	0.43176
0.30171	0.53379
-0.18282	0.10015
0.04670	-0.66508
-0.56534	0.02363
-0.15732	0.35523
0.14870	-0.02739
0.02119	-2.70570
0.53123	0.78886
0.78624	1.73265
0.50573	0.81437
0.25071	0.30422
0.04670	0.89089
-0.05531	0.73785
-0.00431	0.04914
0.14870	-0.92016
0.09770	0.32972
0.12320	0.48277
0.17421	-0.61406
0.40372	-0.56305
0.22521	0.35523
-0.15732	0.20219
-0.18282	0.45726
0.25071	0.15117
0.27621	-0.15492
-0.23382	-0.18043
-0.33583	0.30422
0.12320	0.48277
0.83725	0.86539
0.76074	0.61031
1.06676	-0.43551
0.50573	-0.20594
-0.31033	-0.61406
-0.43783	-0.30797
0.04670	0.35523
0.09770	0.96742
0.30171	1.12046
0.17421	0.63582
0.12320	-0.02739
-0.05531	0.66132
-0.25932	0.02363
0.07220	-0.66508
0.14870	-0.35899
0.32721	-0.35899
0.55673	0.43176
0.22521	-0.35899
-0.02981	-0.25695
-0.38683	0.43176
-0.36133	0.61031
0.02119	0.22769
0.45472	-0.15492
0.78624	0.83988
0.73524	0.25320
0.48022	0.20219
-0.02981	0.10015
0.27621	-0.43551
-0.20832	-0.05289
-0.25932	0.43176
-0.15732	0.50828
0.27621	0.07465
0.40372	0.17668
0.14870	-0.30797
-0.41233	0.30422
-0.15732	0.27871
-0.08081	-0.33348
0.40372	0.27871
0.68424	0.25320
0.42922	-0.05289
0.17421	-0.15492
-0.36133	0.07465
-0.46334	0.07465
0.32721	0.25320
0.40372	0.81437
0.42922	0.27871
0.27621	0.30422
0.22521	-0.43551
0.09770	0.68683
-0.13181	-0.38449
-0.33583	0.68683
-0.08081	0.76336
0.48022	-0.15492
0.22521	-0.30797
0.42922	-0.10391
0.25071	0.35523
-0.00431	0.55929
-0.02981	-0.92016
0.25071	-0.53754
0.12320	0.25320
-0.00431	0.71234
0.02119	0.68683
0.25071	0.50828
0.17421	-0.12942
0.22521	0.78886
0.45472	-0.76711
0.09770	-0.05289
-0.13181	0.71234
-0.23382	-0.94566
0.37822	-0.15492
0.40372	0.66132
0.22521	0.68683
0.02119	0.73785
0.07220	-0.10391
0.35272	-0.71609
0.32721	0.22769
-0.61635	-0.07840
-0.61635	0.35523
0.07220	0.76336
0.63323	0.94191
1.04126	0.66132
0.81175	-0.28246
0.60773	-1.27726
-0.20832	0.17668
0.02119	0.30422
-0.15732	-0.05289
0.19971	0.55929
0.14870	0.15117
0.09770	0.35523
0.04670	1.01843
-0.02981	0.83988
0.02119	-0.89465
-0.08081	-0.48652
0.19971	0.94191
0.27621	0.10015
0.42922	-1.02219
0.32721	-0.15492
0.17421	0.45726
0.50573	0.02363
0.32721	0.55929
-0.33583	0.53379
-0.71835	0.17668
-0.15732	0.15117
0.83725	0.22769
0.83725	0.17668
-0.05531	0.30422
-0.33583	0.20219
0.25071	0.43176
0.40372	-0.76711
-0.00431	-0.97117
0.50573	0.20219
0.45472	0.25320
0.42922	1.06945
0.25071	0.61031
0.02119	0.40625
-0.05531	0.32972
0.07220	-0.02739
-0.20832	-0.05289
-0.38683	-0.07840
0.07220	-0.30797
0.25071	0.45726
0.17421	0.58480
0.14870	0.15117
-0.31033	0.43176
-0.13181	-0.25695
0.32721	-0.51203
0.88825	0.20219
0.65874	-0.18043
0.60773	0.78886
0.53123	0.32972
0.30171	0.53379
0.09770	0.55929
-0.25932	0.45726
-0.25932	0.38074
-0.00431	0.02363
0.17421	0.10015
0.12320	-0.28246
0.04670	-1.48133
-0.00431	0.50828
-0.15732	0.27871
-0.94787	0.63582
-0.18282	-0.25695
0.58223	0.38074
0.73524	0.61031
0.86275	0.63582
0.68424	0.20219
0.42922	0.32972
0.04670	-1.20074
-0.23382	0.22769
-0.05531	0.15117
0.37822	0.22769
0.12320	-0.10391
0.30171	0.89089
-0.00431	0.40625
-0.23382	-0.94566
-0.61635	0.12566
0.19971	0.73785
0.73524	0.20219
0.55673	0.25320
0.27621	0.15117
0.14870	-0.25695
0.09770	-0.38449
-0.20832	-0.18043
0.17421	0.81437
0.35272	1.47757
0.17421	0.43176
0.02119	-1.63437
0.12320	-0.46102
0.30171	0.81437
0.14870	0.35523
0.09770	0.73785
0.40372	0.66132
0.19971	-0.10391
-0.36133	0.35523
-0.89686	-0.38449
0.40372	-0.48652
0.25071	0.12566
0.37822	0.61031
0.63323	1.09496
0.53123	-0.35899
0.40372	-1.40480
0.53123	1.06945
-0.05531	0.32972
-0.15732	0.22769
-0.38683	0.55929
-0.46334	0.55929
0.19971	-0.86914
0.65874	0.53379
0.53123	0.38074
0.07220	0.83988
0.25071	-1.27726
-0.02981	0.22769
-0.10631	0.48277
0.17421	-0.66508
0.32721	0.02363
0.42922	0.30422
-0.02981	0.99292
0.19971	0.12566
-0.41233	0.20219
-0.38683	1.24800
0.58223	-0.15492
0.60773	-0.23145
0.70974	-0.18043
0.17421	-0.00188
0.04670	-0.00188
-0.23382	0.20219
-0.59084	0.27871
0.40372	0.15117
0.30171	0.25320
0.09770	-0.86914
0.19971	-0.02739
0.40372	-0.00188
0.30171	0.35523
0.17421	0.78886
0.25071	0.35523
0.07220	0.55929
-0.28482	0.71234
-0.20832	0.45726
0.32721	0.73785
0.60773	0.10015
0.50573	-0.99668
-0.08081	-1.32828
-0.00431	-0.58856
-0.66735	1.37554
-0.23382	0.78886
0.60773	0.50828
0.60773	-0.41000
0.53123	0.04914
0.65874	0.35523
0.25071	1.80917
0.09770	0.55929
-0.18282	-2.34859
-0.20832	-0.56305
-0.38683	0.96742
0.09770	0.61031
0.19971	0.71234
0.45472	0.71234
0.53123	-0.30797
0.09770	-0.38449
-0.10631	0.10015
-0.15732	1.04394
-0.25932	-0.74160
-0.05531	-0.66508
0.19971	-0.58856
0.45472	0.30422
0.60773	0.10015
0.25071	1.37554
0.37822	0.63582
