0.14870	0.32972
0.07220	0.04914
0.25071	-0.02739
0.14870	0.12566
0.07220	0.22769
0.14870	0.12566
0.19971	0.12566
0.14870	0.17668
0.14870	0.04914
0.22521	-0.07840
0.14870	0.27871
0.07220	0.32972
0.14870	0.12566
0.14870	0.32972
0.09770	0.17668
0.22521	0.10015
0.14870	-0.07840
0.12320	0.10015
0.19971	0.25320
0.17421	0.15117
0.09770	0.20219
0.14870	0.25320
0.19971	0.10015
0.14870	0.04914
0.09770	0.15117
0.14870	0.20219
0.19971	0.12566
0.14870	0.10015
0.07220	0.10015
0.14870	0.22769
0.22521	0.10015
0.17421	0.12566
0.09770	0.15117
0.12320	0.22769
0.14870	0.20219
0.07220	0.07465
0.14870	0.15117
0.14870	0.22769
0.22521	0.15117
0.12320	0.07465
0.12320	0.15117
0.14870	0.17668
0.22521	0.20219
0.12320	-0.05289
0.09770	0.15117
0.14870	0.15117
0.14870	0.15117
0.22521	0.10015
0.12320	0.15117
0.12320	0.12566
0.22521	0.10015
0.12320	0.12566
0.07220	0.22769
0.14870	0.15117
0.22521	0.30422
0.14870	0.17668
0.07220	0.07465
0.12320	-0.07840
0.22521	-0.05289
0.14870	0.15117
0.09770	0.27871
0.14870	0.22769
0.22521	-0.00188
0.17421	0.10015
0.07220	-0.00188
0.14870	0.20219
0.19971	0.30422
0.09770	0.32972
0.17421	0.35523
0.22521	0.27871
0.12320	0.07465
0.04670	-0.05289
0.07220	0.12566
0.14870	0.17668
0.19971	0.15117
0.19971	-0.15492
0.14870	0.07465
0.14870	0.15117
0.12320	0.15117
0.19971	-0.00188
0.22521	0.30422
0.14870	0.20219
0.07220	0.25320
0.17421	0.27871
0.19971	0.15117
0.17421	0.10015
0.07220	0.12566
0.14870	0.17668
0.19971	0.15117
0.22521	0.12566
0.14870	0.07465
0.09770	0.10015
0.17421	0.10015
0.17421	0.15117
0.14870	0.17668
0.07220	0.17668
0.17421	0.17668
0.22521	0.15117
0.14870	0.02363
0.09770	0.12566
0.12320	0.25320
0.19971	0.17668
0.14870	0.10015
0.12320	0.02363
0.14870	0.12566
0.19971	0.20219
0.12320	0.17668
0.12320	0.12566
0.07220	0.12566
0.19971	0.15117
0.19971	0.17668
0.12320	0.20219
0.07220	0.17668
0.14870	0.25320
0.12320	0.15117
0.12320	0.15117
0.09770	0.07465
0.17421	0.12566
0.22521	0.20219
0.14870	-0.02739
0.17421	-0.12942
0.07220	0.25320
0.14870	0.22769
0.19971	0.35523
0.12320	0.20219
0.07220	0.25320
0.14870	0.02363
0.25071	0.07465
0.14870	0.27871
0.14870	0.12566
0.22521	-0.25695
0.07220	0.10015
0.12320	-0.07840
0.14870	0.48277
0.12320	0.40625
0.19971	0.15117
0.07220	0.17668
0.17421	0.17668
0.12320	0.38074
0.12320	0.04914
0.19971	-0.07840
0.12320	0.12566
0.14870	0.07465
0.22521	0.10015
0.07220	0.10015
0.22521	0.25320
0.14870	0.04914
0.14870	0.20219
0.17421	0.22769
0.09770	0.15117
0.19971	0.15117
0.17421	0.04914
0.07220	0.20219
0.22521	0.20219
0.19971	0.25320
0.09770	0.12566
0.22521	-0.00188
0.12320	0.25320
0.12320	0.32972
0.14870	0.07465
0.14870	0.12566
0.07220	0.10015
0.14870	0.04914
0.17421	0.12566
0.07220	0.15117
0.14870	0.20219
0.25071	0.15117
0.09770	0.12566
0.14870	0.02363
0.22521	0.17668
0.14870	0.20219
0.07220	0.10015
0.22521	0.32972
0.12320	0.04914
0.14870	0.15117
0.19971	0.30422
0.09770	0.12566
0.12320	0.17668
0.14870	-0.07840
0.04670	-0.12942
0.12320	0.22769
0.25071	0.35523
0.12320	0.10015
0.12320	0.04914
0.09770	-0.10391
0.12320	0.17668
0.07220	0.38074
0.12320	0.50828
0.14870	0.20219
0.12320	0.32972
0.12320	0.30422
0.17421	-0.23145
0.12320	0.15117
0.07220	0.17668
0.12320	-0.02739
0.12320	0.10015
0.07220	0.10015
0.14870	0.17668
0.14870	0.10015
0.22521	0.15117
0.12320	0.10015
0.09770	0.17668
0.22521	0.17668
0.25071	0.07465
0.22521	0.25320
0.14870	0.27871
0.09770	0.10015
0.14870	0.04914
0.22521	0.17668
0.14870	0.15117
0.14870	0.20219
0.07220	0.30422
0.14870	0.15117
0.22521	0.02363
0.14870	-0.15492
0.09770	0.30422
0.14870	-0.00188
0.22521	0.17668
0.17421	0.27871
0.12320	0.30422
0.22521	0.25320
0.17421	0.22769
0.07220	0.02363
0.22521	-0.33348
0.14870	0.32972
0.04670	0.27871
0.22521	-0.23145
0.12320	-0.12942
0.09770	0.22769
0.22521	0.27871
0.14870	0.32972
0.14870	0.55929
0.25071	0.17668
0.14870	-0.07840
0.12320	-0.02739
0.12320	-0.05289
0.17421	0.15117
0.07220	0.20219
0.17421	0.15117
0.14870	0.22769
0.09770	0.20219
0.22521	0.12566
0.12320	0.17668
0.09770	0.10015
0.14870	0.25320
0.25071	0.25320
0.12320	0.15117
0.07220	0.04914
0.17421	-0.05289
0.19971	0.04914
0.07220	-0.15492
0.14870	-0.10391
0.22521	0.38074
0.14870	0.48277
0.07220	0.43176
0.19971	0.30422
0.09770	0.07465
0.14870	-0.05289
0.12320	0.25320
0.12320	0.15117
0.22521	0.12566
0.17421	0.17668
0.12320	0.15117
0.22521	0.12566
0.04670	0.10015
0.12320	0.07465
0.19971	0.15117
0.17421	0.22769
0.14870	0.17668
0.19971	0.17668
0.14870	0.15117
0.14870	-0.07840
0.25071	-0.00188
0.12320	0.22769
0.04670	0.40625
0.12320	0.25320
0.12320	0.10015
0.09770	0.30422
0.17421	0.32972
0.19971	-0.10391
0.12320	-0.35899
0.07220	0.02363
0.17421	0.17668
0.22521	0.45726
0.12320	0.35523
0.04670	-0.05289
0.12320	0.35523
0.14870	-0.15492
0.19971	-0.02739
0.12320	0.38074
0.12320	0.43176
0.19971	0.22769
0.12320	-0.02739
0.12320	0.12566
0.14870	0.22769
0.22521	0.07465
0.17421	0.15117
0.09770	0.04914
0.22521	0.12566
0.12320	0.20219
0.07220	0.04914
0.14870	-0.00188
0.12320	0.25320
0.07220	0.25320
0.14870	0.17668
0.19971	0.20219
0.09770	0.20219
0.17421	0.22769
0.22521	0.17668
0.04670	0.04914
0.14870	0.04914
0.22521	0.25320
0.12320	0.12566
0.17421	0.07465
0.22521	0.12566
0.14870	0.04914
0.14870	0.20219
0.22521	-0.07840
0.04670	0.15117
0.22521	0.32972
0.17421	0.15117
0.14870	0.27871
0.12320	0.30422
0.07220	0.30422
0.22521	-0.20594
0.09770	-0.41000
0.14870	-0.15492
0.19971	0.40625
0.14870	0.58480
0.07220	0.35523
0.17421	0.20219
0.12320	0.20219
0.04670	0.38074
0.09770	0.04914
0.25071	-0.12942
0.12320	-0.05289
0.19971	-0.07840
0.17421	0.10015
0.17421	0.15117
0.14870	0.25320
0.17421	0.17668
0.19971	0.22769
0.17421	0.25320
0.12320	0.17668
0.19971	0.15117
0.14870	0.27871
0.09770	0.12566
0.22521	0.10015
0.14870	0.17668
0.09770	0.02363
0.19971	0.02363
0.25071	0.20219
0.07220	0.20219
0.22521	0.22769
0.07220	0.07465
0.17421	0.10015
0.19971	0.22769
0.09770	0.07465
0.14870	0.15117
0.12320	0.17668
0.09770	0.20219
0.17421	-0.07840
0.22521	0.15117
0.09770	0.35523
0.17421	0.20219
0.12320	0.22769
0.12320	0.17668
0.19971	0.15117
0.14870	-0.10391
0.09770	0.25320
0.22521	0.20219
0.09770	-0.05289
0.14870	0.17668
0.14870	0.25320
0.12320	0.20219
0.22521	0.30422
0.07220	0.02363
0.19971	-0.48652
0.14870	0.17668
0.07220	0.35523
0.17421	0.35523
0.04670	0.38074
0.14870	0.04914
0.14870	0.12566
0.14870	0.17668
0.22521	0.35523
0.07220	0.32972
0.14870	0.10015
0.14870	-0.15492
0.12320	-0.07840
0.19971	0.22769
0.09770	0.27871
0.12320	0.07465
0.12320	0.12566
0.09770	0.15117
0.12320	0.12566
0.19971	0.17668
0.07220	0.25320
0.14870	0.15117
0.19971	-0.05289
0.07220	0.10015
0.14870	0.25320
0.22521	0.17668
0.09770	0.22769
0.09770	0.25320
0.12320	0.17668
0.19971	0.17668
0.09770	0.12566
0.07220	0.15117
0.22521	0.15117
0.22521	-0.07840
0.12320	-0.00188
0.14870	0.30422
0.22521	0.30422
0.12320	0.15117
0.09770	0.20219
0.07220	0.15117
0.14870	0.17668
0.19971	-0.25695
0.09770	0.04914
0.14870	0.15117
0.14870	0.35523
0.14870	0.22769
0.17421	0.20219
0.09770	0.58480
0.17421	0.32972
0.19971	0.10015
0.12320	0.15117
0.09770	0.04914
0.14870	-0.10391
0.14870	-0.05289
0.07220	0.20219
0.12320	0.10015
0.19971	0.15117
0.12320	0.17668
0.14870	0.04914
0.22521	0.27871
0.12320	0.30422
0.09770	0.10015
0.12320	0.04914
0.14870	0.15117
0.07220	0.12566
0.14870	0.04914
0.22521	0.15117
0.14870	0.30422
0.04670	0.22769
0.17421	0.15117
0.17421	0.12566
0.09770	0.20219
0.17421	0.12566
0.22521	0.12566
0.12320	0.12566
0.14870	0.12566
0.22521	0.20219
0.07220	0.20219
0.14870	0.10015
0.12320	0.04914
0.09770	0.22769
0.17421	0.17668
0.22521	-0.00188
0.09770	0.27871
0.14870	-0.07840
0.19971	-0.35899
0.12320	0.15117
0.07220	0.38074
0.14870	0.50828
0.22521	0.40625
0.14870	0.15117
0.07220	-0.30797
0.12320	-0.20594
0.22521	0.45726
0.09770	0.43176
0.14870	0.12566
0.22521	0.22769
0.09770	0.22769
0.14870	-0.12942
0.19971	-0.28246
0.09770	0.15117
0.19971	0.22769
0.17421	0.22769
0.25071	0.20219
0.19971	0.32972
0.12320	0.17668
0.09770	0.10015
0.09770	0.07465
0.07220	0.07465
0.19971	0.10015
0.19971	0.17668
0.14870	0.20219
0.17421	0.17668
0.09770	0.04914
0.14870	0.07465
0.19971	0.25320
0.19971	0.30422
0.12320	0.25320
0.09770	0.00000
0.12320	0.00000
0.12320	0.00000
0.22521	0.00000
0.17421	0.00000
0.14870	0.12566
0.09770	-0.15492
0.09770	0.12566
0.22521	0.17668
0.19971	0.10015
0.12320	0.25320
0.09770	0.20219
0.14870	0.10015
0.17421	0.27871
0.12320	0.22769
0.09770	-0.15492
0.14870	0.15117
0.22521	0.15117
0.17421	0.10015
0.07220	0.15117
0.12320	0.25320
0.22521	0.10015
0.14870	-0.02739
0.12320	0.30422
0.17421	0.25320
0.09770	0.07465
0.12320	0.12566
0.22521	0.04914
0.09770	-0.05289
0.14870	-0.07840
0.19971	0.30422
0.14870	0.35523
0.12320	0.25320
0.17421	0.35523
0.14870	0.30422
0.07220	0.07465
0.14870	0.27871
0.22521	0.07465
0.07220	0.04914
0.17421	0.12566
0.19971	0.10015
0.07220	0.12566
0.19971	0.15117
0.17421	0.15117
0.09770	0.02363
0.14870	0.32972
0.17421	0.15117
0.04670	0.20219
0.14870	0.22769
0.09770	0.12566
0.09770	0.04914
0.12320	0.25320
0.22521	0.20219
0.14870	0.15117
0.09770	0.17668
0.14870	0.20219
0.19971	0.15117
0.14870	0.07465
0.07220	0.10015
0.07220	0.10015
0.14870	0.15117
0.22521	0.15117
0.14870	0.15117
0.17421	0.07465
0.14870	0.10015
0.12320	0.20219
0.22521	0.17668
0.17421	0.04914
0.07220	0.15117
0.12320	0.17668
0.17421	0.25320
0.17421	0.12566
0.09770	0.10015
0.12320	0.20219
0.19971	0.15117
0.17421	0.17668
0.07220	-0.15492
0.12320	0.07465
0.22521	0.50828
0.14870	0.43176
0.17421	0.25320
0.22521	0.12566
0.12320	0.07465
0.07220	-0.05289
0.19971	0.02363
0.22521	0.40625
0.14870	0.17668
0.07220	0.10015
0.17421	-0.05289
0.19971	0.15117
0.22521	0.25320
0.14870	0.12566
0.07220	-0.02739
0.12320	0.17668
0.12320	0.27871
0.04670	0.04914
0.17421	0.12566
0.19971	0.30422
0.14870	0.10015
0.14870	0.17668
0.22521	0.20219
0.14870	0.12566
0.12320	0.10015
0.19971	0.17668
0.09770	0.07465
0.22521	0.15117
0.07220	0.04914
0.19971	0.22769
0.07220	0.10015
0.19971	0.22769
0.09770	0.02363
0.14870	0.17668
0.12320	0.04914
0.14870	0.25320
0.12320	0.10015
0.12320	0.10015
0.14870	0.20219
0.17421	0.17668
0.14870	0.15117
0.14870	0.07465
0.22521	0.20219
0.09770	0.10015
0.19971	0.38074
0.09770	0.07465
0.14870	0.15117
0.12320	0.10015
0.12320	0.07465
0.19971	0.17668
0.09770	0.12566
0.12320	0.22769
0.19971	0.25320
0.09770	0.07465
0.14870	0.12566
0.12320	0.15117
0.09770	0.17668
0.17421	0.17668
0.22521	0.27871
0.14870	-0.00188
0.09770	0.15117
0.19971	0.32972
0.14870	0.27871
0.09770	0.07465
0.19971	0.15117
0.12320	-0.20594
0.12320	-0.10391
0.19971	0.35523
0.12320	0.20219
0.25071	0.35523
0.09770	0.15117
0.02119	0.12566
0.14870	0.43176
-0.08081	0.15117
0.25071	-0.15492
0.25071	-0.56305
0.37822	0.45726
0.40372	1.22250
0.25071	0.17668
0.25071	-0.56305
-0.18282	-0.18043
-0.23382	0.32972
0.09770	0.15117
0.12320	0.30422
-0.46334	0.58480
0.37822	0.38074
0.30171	-0.12942
-0.00431	-1.68539
-1.78942	-1.35379
1.80631	2.19179
2.95388	1.73265
1.75531	0.32972
-0.84586	-1.86394
0.70974	1.68163
-1.33039	4.61503
-1.53441	1.24800
-1.40690	-2.68019
-0.38683	-6.83795
-0.08081	-0.46102
-0.48884	1.63062
0.86275	-1.76191
1.11776	1.55410
2.06133	6.68115
0.12320	6.09448
-0.92237	-3.57296
-0.05531	-5.38401
2.06133	0.53379
-0.84586	-2.24656
-0.61635	1.17148
1.24527	4.25792
-2.09544	2.80397
-1.81492	-0.81812
1.37278	-2.80773
2.18883	-1.60887
1.72980	1.45206
1.34728	2.49788
0.99026	-0.92016
0.32721	-7.60318
-2.01894	2.08976
-3.06450	-7.32260
-1.55991	-0.66508
-0.84586	6.78318
1.01576	5.53330
1.88281	3.72225
1.78081	0.71234
2.13783	-1.20074
-0.25932	0.04914
-0.48884	0.07465
1.19427	2.06425
-0.82036	-1.30277
-3.11551	-7.88377
-3.47253	-3.52195
-0.28482	1.27351
1.72980	2.19179
0.83725	2.39585
2.57136	0.99292
3.82094	2.54890
2.77537	1.27351
-0.79486	-1.81293
-3.72755	-0.51203
-2.45246	-0.58856
-0.66735	-2.01699
1.72980	0.15117
2.23984	-0.58856
1.78081	1.88570
-0.74385	3.77327
-2.70748	2.29382
-0.79486	2.31933
1.06676	-1.78742
-0.13181	-3.11382
0.09770	-1.53234
-0.31033	0.35523
0.50573	0.50828
1.47479	-0.92016
1.70430	1.22250
1.19427	0.22769
-0.02981	-0.07840
-1.40690	3.62022
-1.55991	-0.18043
0.30171	-7.60318
1.27078	-2.62918
-0.18282	0.99292
-0.41233	3.49268
-0.74385	4.56401
0.42922	-2.37410
1.21977	0.86539
0.22521	2.75296
1.19427	2.47238
1.01576	1.96222
1.55129	-0.51203
-1.76392	-1.94047
-0.61635	-0.15492
-1.35589	-0.28246
-0.59084	-1.88945
-0.99887	-1.58336
1.04126	-2.11902
0.93925	-0.28246
0.42922	1.19699
1.01576	2.21730
0.81175	2.59991
0.78624	1.04394
0.32721	-0.07840
-0.28482	-2.42511
-0.53984	-0.18043
-0.08081	0.12566
-0.25932	1.06945
-0.79486	1.29902
-0.59084	-2.01699
0.22521	0.68683
0.91375	-0.10391
0.96476	1.70714
0.42922	2.29382
-0.41233	1.47757
-0.53984	-0.18043
-0.43783	-0.89465
1.29628	-0.76711
1.37278	0.71234
0.83725	-0.25695
-0.25932	-1.50683
-0.94787	-1.35379
-2.09544	0.15117
-0.10631	0.45726
0.68424	-0.41000
1.34728	0.76336
1.52579	1.01843
1.01576	0.55929
0.88825	-0.48652
0.32721	0.66132
-0.13181	0.78886
-0.41233	0.45726
-0.51434	4.64053
-0.41233	-4.74632
-0.59084	-3.11382
-0.18282	-3.85355
-0.28482	2.72745
0.09770	2.85499
0.12320	2.85499
0.30171	2.11527
0.14870	0.45726
0.19971	-0.71609
0.83725	-0.58856
0.73524	-1.53234
-0.23382	-1.65988
0.02119	-1.40480
0.93925	0.32972
1.11776	1.57960
-0.05531	1.01843
-0.31033	1.24800
-0.18282	0.66132
-0.74385	-0.43551
0.93925	-1.17523
0.25071	0.04914
-0.59084	0.48277
0.50573	-0.94566
1.52579	0.15117
0.73524	0.83988
-1.89143	1.17148
-2.86049	1.14597
0.12320	-0.35899
1.37278	0.25320
1.62780	-0.66508
1.50029	0.22769
-0.15732	-0.92016
0.68424	1.19699
0.40372	-1.78742
-0.20832	0.30422
0.02119	1.68163
0.07220	2.90601
-0.20832	-0.43551
-0.46334	-0.20594
-0.46334	0.22769
-0.10631	1.60511
0.17421	-1.76191
0.53123	0.53379
0.42922	1.29902
0.25071	-2.88425
-0.38683	1.32453
0.17421	-0.92016
0.45472	0.78886
0.60773	-0.63957
-0.05531	-0.56305
-0.05531	1.42656
0.02119	1.29902
0.17421	0.15117
0.55673	-0.46102
0.60773	0.91640
0.53123	0.17668
-0.18282	-1.17523
-0.18282	0.04914
0.48022	0.81437
0.88825	1.09496
-0.23382	0.45726
-1.27939	-0.20594
-1.43240	-0.10391
0.93925	-0.10391
1.21977	0.45726
1.06676	0.50828
0.25071	-0.00188
0.02119	-0.97117
-0.00431	0.86539
0.22521	0.02363
-0.02981	-0.86914
0.14870	0.12566
0.14870	1.17148
0.53123	0.12566
0.07220	-0.61406
0.42922	-0.56305
-0.59084	-0.58856
-0.18282	2.16628
-0.20832	2.57441
0.35272	-0.48652
0.53123	0.73785
0.50573	-1.55785
0.73524	0.78886
0.50573	0.38074
0.73524	0.25320
-1.07538	-0.02739
-1.38139	0.02363
-0.15732	-2.39961
1.06676	-1.50683
0.63323	1.40105
0.22521	2.77847
0.96476	-0.00188
0.42922	-0.05289
1.29628	0.94191
-0.41233	0.66132
-0.05531	0.43176
-1.30489	0.38074
-1.53441	-0.94566
0.60773	-1.40480
1.21977	0.04914
1.09226	0.32972
1.14327	0.71234
0.53123	0.10015
-0.51434	-0.00188
-1.30489	0.73785
0.17421	-1.12422
0.70974	0.61031
0.02119	1.19699
-0.02981	1.06945
-0.71835	2.16628
0.25071	-2.75671
0.50573	-2.04250
0.70974	0.58480
0.50573	1.42656
0.25071	1.98773
0.27621	1.80917
-0.13181	-1.27726
0.02119	0.04914
-0.28482	-0.38449
-0.69285	0.10015
-0.10631	0.76336
0.93925	-0.41000
1.09226	-2.50164
0.70974	-0.25695
0.45472	0.50828
0.32721	1.17148
0.25071	-0.35899
0.07220	0.81437
0.22521	0.89089
-0.28482	2.21730
-0.46334	0.73785
-1.12638	-0.63957
0.19971	-5.02690
-0.38683	-2.60367
0.35272	2.52339
0.63323	1.78367
0.91375	1.78367
0.83725	1.55410
-0.66735	0.22769
-0.59084	0.63582
0.76074	0.40625
0.07220	-0.10391
0.12320	-1.48133
0.19971	-1.40480
0.63323	-0.74160
0.81175	0.22769
0.53123	0.55929
-0.18282	1.01843
-0.02981	0.96742
0.35272	-0.81812
-0.71835	-1.02219
-0.61635	-0.48652
-0.13181	1.88570
0.45472	1.57960
0.48022	-0.61406
0.35272	-1.37929
0.09770	0.73785
-0.05531	0.71234
0.45472	0.43176
0.50573	1.09496
-0.10631	0.35523
-0.38683	0.76336
-0.33583	0.30422
0.68424	-0.63957
0.37822	1.06945
-0.51434	-3.11382
-0.10631	-0.86914
0.48022	0.48277
0.68424	-0.00188
0.68424	-0.07840
0.53123	0.45726
0.37822	0.50828
-0.25932	2.03874
0.17421	0.89089
0.58223	-0.61406
-0.25932	-0.46102
-1.35589	0.04914
-0.89686	2.57441
0.32721	-0.71609
1.04126	-3.90456
0.99026	0.53379
1.04126	1.24800
0.07220	1.24800
-1.10088	0.76336
0.12320	0.27871
-0.13181	0.10015
0.45472	-0.38449
0.60773	-0.18043
0.37822	0.17668
-0.13181	0.48277
0.25071	-0.25695
0.32721	0.45726
-0.41233	-0.05289
-0.38683	-0.33348
0.63323	-0.74160
0.48022	0.43176
-0.25932	0.10015
-0.28482	0.61031
-0.00431	-0.79262
0.76074	1.63062
0.88825	1.17148
0.19971	-0.38449
-0.51434	-0.07840
-0.00431	0.58480
-0.41233	-0.56305
-0.82036	0.25320
0.50573	0.94191
0.81175	-0.15492
1.04126	0.76336
0.96476	-0.30797
0.22521	-0.02739
-0.36133	0.81437
-0.99887	-1.09871
-0.64185	0.17668
0.14870	-1.45582
0.32721	1.22250
0.48022	1.29902
0.09770	0.50828
-0.18282	0.20219
-0.43783	1.01843
0.70974	-1.37929
0.73524	-0.25695
0.40372	0.12566
0.45472	0.86539
0.12320	-0.61406
0.12320	-0.43551
-0.41233	0.17668
0.14870	1.27351
-0.15732	0.20219
-0.64185	-1.20074
0.17421	-0.05289
0.78624	0.32972
0.40372	1.27351
0.02119	1.32453
0.30171	-0.02739
0.27621	0.94191
0.32721	-0.69059
-0.48884	-0.25695
-1.61091	0.10015
0.25071	-0.46102
1.16877	-0.46102
0.88825	0.04914
0.68424	0.99292
0.60773	0.63582
0.12320	-0.33348
-0.66735	0.17668
-0.36133	-0.76711
0.02119	0.32972
0.22521	1.32453
0.04670	-0.02739
0.42922	0.66132
0.76074	-0.35899
0.81175	-1.58336
0.48022	-0.10391
-0.10631	-0.00188
-1.15188	1.93671
-1.17738	0.83988
0.30171	0.32972
0.76074	-1.35379
0.73524	1.12046
0.88825	-0.74160
0.60773	-0.28246
0.50573	-0.15492
-0.18282	0.99292
-0.56534	1.24800
-0.23382	0.58480
0.27621	0.32972
0.37822	0.25320
-0.13181	0.43176
-0.02981	-0.63957
0.09770	-0.97117
0.19971	-0.46102
-0.79486	1.12046
-0.10631	-0.58856
1.09226	-0.02739
0.42922	1.09496
-0.10631	0.30422
0.53123	-0.25695
0.83725	-2.70570
0.02119	0.68683
-0.76936	1.63062
-0.66735	1.12046
0.35272	0.73785
0.60773	0.45726
0.37822	-0.30797
0.48022	0.15117
0.19971	0.43176
0.19971	0.99292
0.19971	0.96742
-0.18282	-0.53754
-1.02437	-1.91496
-0.08081	-1.76191
0.22521	0.27871
0.53123	1.37554
0.70974	1.06945
0.83725	0.71234
0.81175	0.94191
-0.79486	2.08976
-0.56534	-2.27207
0.12320	-2.04250
0.09770	-0.15492
0.12320	0.94191
0.04670	-0.12942
-0.28482	1.22250
0.96476	1.04394
0.99026	1.24800
1.04126	0.40625
0.60773	-0.28246
-0.13181	-0.28246
-0.92237	-0.66508
-0.59084	-0.92016
-0.28482	0.10015
0.07220	0.58480
0.35272	1.12046
-0.02981	1.06945
0.22521	-0.97117
-0.02981	-1.68539
0.19971	0.04914
0.70974	1.27351
0.37822	0.32972
0.22521	0.12566
0.17421	0.55929
-0.05531	0.55929
-0.28482	0.40625
0.12320	-0.15492
-0.08081	0.02363
0.22521	0.10015
0.09770	-0.00188
0.30171	-0.00188
0.30171	0.35523
0.27621	0.61031
-0.51434	-0.46102
-0.87136	-0.74160
-0.08081	-1.58336
0.83725	-1.53234
1.04126	-0.20594
1.01576	2.34484
0.68424	2.39585
-0.38683	0.55929
-0.18282	0.20219
0.25071	0.45726
-0.46334	-0.33348
-0.13181	0.66132
0.68424	0.20219
0.12320	-0.38449
0.70974	0.20219
-0.59084	0.07465
0.02119	-0.25695
-0.28482	-1.07320
-0.46334	-0.05289
0.37822	0.07465
0.60773	0.10015
0.35272	1.24800
0.48022	0.10015
0.37822	-0.84363
0.27621	-0.97117
0.14870	0.73785
-0.53984	-0.02739
0.32721	0.89089
0.32721	0.71234
0.50573	0.91640
0.55673	0.15117
0.55673	0.35523
-0.36133	0.10015
-0.59084	1.52859
0.07220	-1.88945
0.35272	-0.84363
-0.00431	0.43176
0.40372	0.81437
0.76074	1.19699
-0.25932	-1.09871
-0.18282	-1.09871
-0.33583	0.71234
0.45472	1.06945
0.19971	-0.02739
0.42922	-2.11902
0.91375	-0.00188
0.68424	1.12046
-0.02981	1.63062
-0.74385	0.66132
-0.15732	-0.23145
0.07220	0.10015
-0.20832	-0.48652
0.40372	0.25320
0.32721	0.58480
0.19971	0.71234
0.35272	0.35523
-0.33583	-0.84363
0.07220	-0.58856
0.17421	-0.20594
0.14870	1.32453
0.30171	0.61031
0.45472	-0.10391
-0.38683	0.22769
0.12320	-0.02739
0.63323	0.55929
0.45472	-0.20594
0.04670	0.20219
-0.66735	0.32972
-0.36133	0.99292
0.30171	-0.15492
0.60773	-1.32828
0.42922	-0.81812
0.25071	-0.30797
0.48022	1.32453
0.30171	0.73785
0.37822	0.94191
-0.69285	-0.05289
-0.82036	0.96742
0.09770	0.38074
0.45472	-0.71609
0.78624	0.07465
0.68424	-0.79262
0.27621	0.43176
0.02119	-0.00188
-0.71835	0.53379
-0.66735	0.22769
-0.25932	0.68683
0.58223	0.15117
0.83725	-0.48652
0.37822	0.38074
0.50573	0.45726
0.68424	-0.61406
0.50573	-0.56305
0.27621	-0.35899
-0.10631	0.99292
-0.46334	1.09496
-0.23382	-0.23145
-0.46334	-1.25176
-0.00431	0.45726
0.48022	1.24800
0.22521	1.29902
0.22521	-0.35899
0.22521	-0.63957
0.53123	-0.97117
0.27621	0.86539
0.25071	-0.07840
-0.48884	0.43176
-0.53984	0.32972
-0.05531	1.55410
0.81175	0.30422
1.16877	-2.06800
0.42922	-1.07320
-0.25932	0.55929
-1.27939	0.40625
-0.18282	1.45206
0.53123	0.66132
0.76074	1.29902
0.88825	0.27871
0.73524	-1.63437
0.58223	-0.94566
0.17421	-1.40480
-1.81492	0.76336
-1.27939	1.83468
0.32721	1.09496
0.60773	0.25320
0.78624	0.02363
0.83725	0.02363
0.55673	0.43176
0.19971	0.17668
0.25071	0.32972
0.19971	-0.94566
-0.38683	-0.38449
-0.87136	-0.05289
-0.56534	-0.28246
0.40372	0.96742
0.53123	0.10015
0.60773	-0.53754
0.68424	-0.56305
0.78624	1.04394
0.60773	1.68163
-0.48884	0.32972
-1.10088	0.58480
-0.51434	-1.27726
0.60773	-0.46102
0.78624	0.99292
0.55673	0.32972
0.55673	0.20219
0.12320	0.66132
-0.69285	-0.23145
0.04670	-0.20594
0.78624	0.07465
0.19971	0.50828
-0.00431	-0.30797
0.37822	-1.32828
0.07220	-0.81812
0.32721	0.45726
-0.20832	0.40625
-0.25932	1.32453
0.30171	0.68683
0.25071	-0.05289
0.65874	0.15117
-0.31033	0.40625
-0.28482	-0.10391
0.25071	-0.38449
0.40372	0.63582
0.63323	0.22769
-0.08081	-0.38449
0.22521	-0.02739
0.09770	0.76336
-0.10631	0.22769
0.22521	1.12046
0.19971	0.07465
0.35272	-0.25695
0.30171	-0.84363
0.19971	1.04394
-0.02981	0.86539
0.12320	-1.45582
0.12320	-2.19554
0.09770	-0.43551
0.27621	0.89089
-0.10631	1.47757
0.02119	2.70194
0.22521	-0.99668
0.40372	-1.86394
0.12320	-0.89465
0.02119	1.50308
0.35272	1.40105
0.04670	0.89089
-0.20832	0.73785
0.35272	-0.12942
0.65874	-0.35899
0.30171	0.22769
0.12320	-0.25695
-0.69285	-0.25695
0.25071	0.30422
0.30171	-0.07840
0.40372	-0.10391
-0.13181	-0.86914
-0.00431	0.81437
0.35272	-0.15492
0.81175	-1.20074
0.27621	0.04914
0.48022	0.89089
0.02119	1.24800
-0.13181	0.86539
-0.00431	0.15117
-0.13181	0.89089
-0.10631	0.55929
0.30171	0.12566
-0.02981	-1.30277
0.09770	0.12566
0.48022	0.45726
0.30171	0.55929
-0.00431	-0.56305
-0.31033	0.27871
0.04670	-0.84363
0.07220	0.48277
-0.08081	0.32972
0.50573	0.58480
0.58223	-0.74160
0.55673	-0.07840
0.81175	0.78886
0.53123	0.27871
0.02119	0.45726
-0.31033	-0.20594
-0.25932	-0.23145
0.02119	0.38074
-1.15188	0.35523
0.02119	0.96742
0.86275	-0.81812
1.16877	-0.15492
0.81175	1.01843
0.27621	0.15117
-0.28482	-1.35379
-0.69285	-0.30797
0.63323	1.45206
0.22521	0.91640
0.40372	-0.43551
0.14870	0.07465
0.27621	0.63582
0.30171	0.15117
0.40372	0.07465
-0.25932	0.04914
-0.69285	-0.18043
-0.51434	-0.51203
0.07220	0.76336
0.42922	0.22769
0.22521	0.07465
0.88825	1.06945
1.34728	-1.30277
0.12320	-0.81812
-0.46334	-0.33348
-1.02437	0.55929
-0.20832	1.50308
0.91375	1.45206
0.83725	-0.99668
0.32721	-1.30277
0.25071	0.22769
0.14870	0.96742
0.02119	0.89089
0.09770	0.48277
0.58223	0.40625
0.30171	0.25320
0.35272	0.07465
-0.84586	-0.46102
-1.33039	-0.20594
0.55673	-0.23145
0.32721	0.22769
-0.33583	0.27871
0.53123	-1.09871
0.42922	0.22769
0.99026	1.17148
0.73524	0.68683
0.53123	-0.07840
0.42922	0.99292
0.09770	0.45726
-0.18282	0.22769
-0.53984	-0.30797
-0.51434	0.66132
-0.08081	-0.61406
0.22521	-0.97117
0.40372	-0.74160
0.35272	0.22769
0.02119	0.76336
0.09770	0.76336
-0.02981	-0.28246
0.12320	0.04914
0.12320	0.83988
0.32721	0.22769
0.42922	-0.66508
0.50573	0.94191
0.78624	0.04914
0.07220	0.45726
-0.23382	0.35523
0.53123	-0.53754
0.22521	-0.97117
0.37822	0.22769
-0.38683	0.30422
-0.48884	0.12566
0.40372	0.78886
0.60773	0.22769
0.60773	0.35523
0.22521	0.02363
-0.15732	0.61031
0.30171	-0.20594
-0.23382	-0.46102
-0.20832	-0.51203
0.09770	-0.10391
0.25071	0.35523
0.32721	0.50828
0.25071	0.68683
0.50573	0.12566
0.04670	0.48277
-1.10088	0.50828
-0.15732	0.55929
0.35272	-0.97117
0.93925	-0.20594
0.81175	0.30422
0.68424	0.20219
0.58223	-0.79262
-0.00431	-0.02739
-0.48884	0.94191
-0.08081	-0.15492
0.09770	0.94191
0.32721	0.35523
0.12320	0.17668
-0.20832	0.61031
-0.10631	0.04914
0.22521	0.17668
-0.31033	-1.32828
-1.02437	-1.02219
0.09770	1.14597
0.63323	0.94191
1.09226	0.15117
0.73524	0.30422
0.81175	-0.00188
-0.10631	0.17668
-0.74385	-0.46102
0.40372	-1.09871
-0.28482	0.17668
0.04670	0.38074
0.40372	0.30422
0.09770	0.55929
0.22521	0.55929
0.27621	0.55929
0.42922	0.55929
0.32721	0.55929
0.14870	-0.61406
-0.33583	0.27871
-0.56534	0.55929
0.12320	0.32972
-0.20832	-1.12422
0.27621	-0.25695
0.88825	-0.23145
0.48022	0.55929
0.19971	0.30422
-0.08081	0.71234
0.02119	-0.41000
0.27621	0.55929
0.32721	-0.07840
0.22521	0.48277
0.09770	1.80917
0.12320	-1.83844
0.04670	-1.43031
0.12320	0.50828
0.07220	0.86539
0.12320	0.76336
0.65874	0.73785
0.42922	0.50828
-0.00431	-0.41000
-1.73842	0.94191
-1.22839	-0.25695
0.09770	-0.12942
1.39828	0.22769
1.52579	-0.69059
1.44929	-0.63957
0.60773	0.15117
-0.74385	0.50828
-0.18282	0.12566
0.25071	-0.25695
0.35272	-0.30797
-0.10631	0.83988
0.02119	0.71234
0.04670	-0.15492
-0.18282	0.38074
-0.00431	1.09496
0.19971	0.40625
0.12320	-0.35899
-0.08081	-0.86914
0.45472	-0.25695
0.53123	0.94191
0.30171	0.76336
-0.18282	0.10015
-0.23382	0.30422
-0.02981	-0.41000
0.12320	-0.18043
0.35272	-0.12942
-0.20832	-0.35899
0.53123	0.71234
0.55673	0.66132
0.32721	0.10015
0.30171	-0.51203
0.35272	-0.05289
-0.05531	1.22250
0.02119	-0.41000
0.12320	-0.41000
0.45472	0.35523
0.99026	0.89089
-1.38139	-1.09871
-1.68742	0.12566
-0.18282	1.78367
0.81175	0.55929
1.04126	-0.12942
0.99026	-0.15492
0.73524	0.17668
0.83725	0.20219
0.37822	0.78886
-0.92237	-0.66508
-1.50890	-0.33348
-0.15732	-0.38449
0.88825	0.20219
0.83725	0.71234
0.50573	0.61031
0.12320	0.45726
0.14870	0.55929
0.04670	0.35523
0.32721	-0.41000
0.04670	-1.83844
-0.18282	0.73785
-0.08081	0.66132
-0.02981	-0.28246
-0.00431	-0.18043
0.37822	0.83988
0.40372	1.19699
0.48022	0.76336
0.14870	-0.02739
0.42922	-0.71609
-0.10631	-0.48652
0.04670	0.63582
-0.28482	1.09496
0.50573	0.35523
0.37822	0.99292
0.02119	-0.46102
0.83725	0.02363
0.60773	-0.02739
-0.94787	-0.12942
-0.51434	-0.48652
0.63323	0.22769
0.04670	-0.35899
-0.00431	-0.38449
-0.48884	0.35523
1.14327	0.89089
0.48022	0.10015
0.09770	0.50828
0.42922	0.58480
-0.00431	0.71234
-0.10631	0.43176
0.19971	-0.25695
0.12320	0.53379
0.27621	-0.18043
0.07220	-0.99668
-0.23382	-0.18043
-0.08081	0.30422
-0.18282	0.32972
0.32721	0.40625
0.48022	0.71234
0.32721	1.37554
0.02119	-0.35899
-0.33583	-0.71609
-0.20832	-1.40480
0.14870	-0.66508
0.81175	1.80917
0.60773	0.91640
0.32721	0.22769
-0.36133	0.40625
-0.23382	0.55929
0.50573	0.43176
0.53123	0.20219
0.73524	-0.07840
0.37822	-0.53754
0.04670	0.04914
-0.00431	-0.05289
0.02119	-0.38449
0.04670	0.55929
0.07220	0.17668
-0.00431	0.12566
-0.61635	0.04914
-0.59084	-0.28246
-0.89686	0.43176
1.04126	0.78886
0.81175	-0.18043
1.09226	-0.35899
0.53123	0.25320
-0.48884	0.86539
0.07220	0.53379
0.50573	0.35523
0.50573	0.38074
0.02119	0.17668
-0.23382	0.07465
0.09770	0.45726
-0.33583	0.58480
0.30171	-0.71609
0.58223	-0.07840
0.42922	0.04914
0.50573	0.12566
0.04670	0.15117
-0.36133	0.12566
-0.38683	-0.58856
-0.28482	0.10015
0.32721	0.17668
0.50573	1.45206
0.45472	0.25320
0.25071	-1.09871
0.17421	-0.43551
0.02119	-0.00188
0.17421	0.35523
0.37822	1.12046
0.22521	1.27351
0.40372	0.07465
0.04670	0.30422
-0.18282	0.27871
-0.56534	0.43176
0.35272	0.12566
0.48022	-0.89465
0.45472	-1.02219
-0.00431	-0.02739
0.19971	0.83988
-0.00431	0.30422
-0.43783	-0.20594
0.22521	0.20219
-0.18282	0.53379
0.50573	0.38074
0.86275	0.04914
0.68424	0.30422
0.50573	0.30422
-0.05531	0.30422
-0.28482	0.02363
-0.10631	-0.38449
-0.36133	0.48277
-0.05531	0.35523
0.40372	0.20219
0.65874	-1.35379
-0.00431	-0.79262
-0.82036	0.73785
0.14870	1.78367
0.70974	0.07465
0.55673	0.10015
-0.02981	0.58480
0.02119	1.01843
0.19971	-0.92016
0.48022	-0.20594
-0.20832	-0.46102
-0.23382	0.66132
0.07220	1.04394
0.45472	1.06945
0.35272	0.20219
0.12320	-0.33348
0.04670	0.48277
0.09770	0.30422
-0.53984	-1.91496
-0.13181	-1.91496
-0.00431	0.48277
0.93925	1.63062
0.25071	-0.33348
-0.48884	-0.66508
0.32721	1.19699
-0.02981	0.89089
0.48022	0.81437
0.76074	0.35523
0.30171	-0.15492
0.27621	0.63582
0.14870	0.32972
0.22521	-0.20594
0.17421	0.07465
-0.00431	0.12566
-0.61635	-0.10391
-1.12638	-0.38449
-0.08081	-0.51203
0.04670	0.53379
0.83725	0.53379
0.78624	0.20219
0.70974	0.02363
0.19971	0.35523
-0.51434	0.45726
-0.00431	0.45726
0.55673	-0.07840
1.01576	0.35523
0.35272	-0.20594
-0.20832	0.76336
-1.04987	0.96742
-1.25389	-1.30277
-0.00431	-0.76711
0.83725	0.22769
0.93925	1.42656
1.16877	0.73785
0.58223	0.22769
0.04670	-0.20594
-0.41233	0.17668
-0.36133	0.45726
0.19971	0.68683
0.40372	0.04914
0.50573	-0.07840
0.17421	-1.37929
-0.31033	0.02363
-0.08081	-1.25176
0.27621	0.68683
0.40372	1.19699
0.27621	0.10015
-0.33583	0.48277
0.02119	1.09496
-0.41233	0.48277
0.12320	-1.02219
0.63323	0.17668
0.76074	0.22769
0.30171	0.89089
-0.10631	-0.25695
-0.02981	-0.33348
0.37822	-0.66508
0.30171	0.55929
0.17421	-0.15492
-0.02981	0.12566
-0.25932	1.01843
-0.64185	0.76336
0.07220	0.27871
0.42922	0.50828
0.88825	-0.69059
0.17421	-0.00188
0.53123	-0.07840
-0.00431	-0.20594
0.17421	0.12566
-0.05531	0.61031
0.45472	0.83988
-0.41233	0.94191
-0.92237	-0.76711
0.45472	-3.67499
0.37822	0.76336
0.42922	1.55410
0.25071	1.50308
0.35272	1.09496
0.32721	0.12566
0.17421	-0.10391
0.32721	-0.20594
0.27621	-0.12942
-0.18282	0.10015
-0.46334	0.20219
0.12320	-0.00188
0.09770	-0.12942
0.22521	-0.51203
0.37822	0.17668
0.27621	0.27871
0.30171	1.37554
0.17421	0.45726
0.42922	-0.00188
-0.23382	-0.12942
-0.36133	-0.33348
0.17421	-0.30797
0.27621	0.30422
0.30171	0.61031
0.40372	0.25320
0.09770	0.40625
0.45472	0.22769
0.35272	0.07465
-0.18282	0.17668
0.22521	0.07465
0.35272	0.07465
0.04670	0.17668
0.07220	0.45726
-0.46334	-0.12942
-0.05531	0.10015
0.19971	0.04914
0.32721	0.07465
0.30171	0.83988
0.30171	0.43176
0.40372	-2.09351
0.30171	-0.94566
0.09770	0.27871
0.02119	1.42656
-0.18282	0.81437
0.17421	1.19699
0.76074	0.83988
-0.00431	0.43176
0.07220	-0.61406
0.35272	-0.61406
-0.02981	0.32972
-0.28482	-0.12942
-0.48884	0.45726
0.30171	0.71234
0.40372	-0.66508
0.25071	-0.18043
0.40372	0.30422
0.42922	-0.23145
0.58223	-0.35899
0.48022	0.53379
0.35272	0.12566
0.04670	1.17148
-0.94787	0.68683
-0.66735	-0.33348
0.58223	-0.56305
0.37822	-1.07320
-0.05531	0.81437
-0.10631	0.81437
0.37822	0.50828
0.50573	0.86539
0.50573	0.61031
0.53123	-0.41000
0.53123	-0.07840
0.17421	-0.25695
0.02119	-0.25695
-0.28482	-0.56305
-1.07538	0.76336
-0.38683	1.70714
0.50573	0.32972
0.45472	-1.35379
0.45472	0.30422
0.73524	-0.10391
0.30171	-0.66508
0.04670	0.99292
-0.18282	0.94191
0.07220	0.35523
0.02119	-0.25695
-0.28482	0.38074
0.19971	-1.86394
0.19971	0.53379
0.68424	1.32453
0.60773	0.73785
0.63323	0.61031
0.58223	0.04914
0.07220	-1.22625
-0.13181	-0.69059
-1.10088	0.58480
-0.84586	0.40625
0.50573	0.76336
0.19971	0.58480
0.25071	-0.02739
0.81175	0.04914
0.19971	-0.07840
-0.41233	0.17668
0.04670	0.32972
0.32721	0.20219
0.40372	-0.76711
0.70974	-0.92016
0.48022	1.50308
0.22521	0.83988
-0.33583	-0.20594
-0.87136	-0.53754
-0.02981	0.04914
0.17421	1.17148
0.48022	-0.07840
0.96476	0.43176
0.42922	0.99292
0.02119	0.53379
-0.00431	-0.46102
0.27621	-0.46102
0.14870	-0.02739
-0.41233	0.40625
-0.00431	0.25320
-0.02981	-0.00188
0.60773	0.71234
0.04670	0.04914
0.22521	-0.43551
0.30171	-0.28246
0.17421	-0.41000
-0.13181	0.15117
0.19971	0.71234
-0.23382	0.30422
0.30171	0.68683
0.12320	0.40625
-0.25932	0.96742
0.30171	-1.40480
0.14870	-1.09871
0.50573	-0.15492
1.09226	0.30422
0.02119	1.35003
-1.30489	1.01843
-0.13181	0.99292
0.19971	0.89089
1.42379	0.35523
1.06676	-0.58856
-0.15732	-0.38449
-0.48884	-1.14973
-1.53441	0.20219
-0.41233	0.63582
0.93925	0.71234
0.91375	-0.74160
1.01576	-0.18043
0.81175	0.66132
0.35272	0.15117
-0.13181	1.19699
0.35272	0.07465
0.22521	-0.23145
0.48022	-0.43551
-0.25932	0.27871
-3.06450	0.15117
-0.92237	0.35523
1.55129	0.10015
0.50573	0.20219
0.65874	0.10015
-0.10631	1.04394
-0.97337	0.38074
-0.36133	-0.48652
1.27078	0.22769
2.44385	-0.18043
1.80631	-0.43551
0.09770	0.61031
-0.56534	0.76336
0.07220	0.99292
0.53123	-0.18043
0.07220	-2.04250
-0.20832	-1.60887
0.19971	0.58480
-0.13181	0.96742
-0.02981	0.35523
-1.20288	0.55929
-1.43240	1.68163
-0.15732	1.42656
-0.15732	-0.15492
0.58223	-0.02739
1.29628	0.48277
0.58223	-0.05289
0.09770	-0.12942
0.73524	-0.56305
0.58223	-0.86914
0.30171	0.22769
0.12320	1.19699
0.12320	-0.05289
0.22521	-0.20594
0.32721	0.15117
0.02119	0.20219
-0.94787	0.61031
-0.43783	-1.09871
0.22521	-0.35899
0.53123	0.43176
0.53123	1.65613
0.73524	1.09496
0.42922	0.15117
0.55673	-0.43551
-0.28482	0.55929
-0.08081	0.76336
-0.00431	-0.35899
-1.12638	-0.56305
-1.02437	-0.35899
0.76074	0.45726
1.50029	0.48277
-0.05531	0.45726
-0.56534	0.40625
0.40372	0.10015
0.48022	0.12566
0.78624	0.04914
0.02119	-0.25695
0.09770	-0.23145
0.07220	0.12566
0.19971	0.17668
0.04670	0.30422
0.02119	0.15117
0.19971	0.35523
0.09770	1.06945
-0.46334	0.63582
-1.17738	-0.07840
0.37822	-1.63437
0.60773	0.83988
0.63323	0.55929
0.65874	-0.53754
0.22521	-1.20074
0.19971	1.29902
0.42922	1.17148
-0.08081	0.32972
0.19971	0.04914
-0.23382	0.25320
-0.38683	0.25320
0.07220	-0.12942
0.48022	-0.18043
0.55673	-0.05289
0.76074	-0.43551
0.53123	0.83988
0.25071	-0.35899
-0.13181	0.04914
-0.05531	0.61031
0.02119	0.02363
-0.18282	-0.92016
-0.64185	0.68683
-0.25932	-0.20594
0.27621	0.45726
0.81175	0.73785
0.53123	0.61031
0.68424	0.22769
0.60773	0.10015
0.09770	0.04914
-0.41233	0.55929
-0.18282	0.22769
0.12320	-0.33348
0.25071	-1.94047
0.09770	-0.71609
0.04670	1.06945
0.22521	1.22250
0.17421	1.14597
0.09770	0.73785
0.04670	0.40625
0.07220	0.15117
0.65874	-0.86914
0.55673	-1.48133
0.19971	0.66132
0.04670	0.91640
-0.08081	0.63582
0.27621	0.35523
0.09770	0.45726
-0.00431	-0.56305
0.02119	-0.00188
0.17421	-0.43551
0.27621	-0.10391
0.19971	0.71234
-0.00431	-0.15492
-0.13181	-0.05289
-0.41233	0.25320
0.19971	0.91640
0.25071	1.68163
-0.13181	-0.51203
-0.05531	-1.14973
1.01576	-1.37929
0.55673	0.58480
0.27621	0.96742
0.42922	1.01843
-0.33583	0.55929
-0.41233	0.66132
-0.23382	-0.99668
0.55673	0.38074
0.76074	-0.05289
0.50573	0.27871
-0.00431	-0.20594
-0.20832	0.38074
-0.31033	-0.69059
0.25071	0.10015
-0.23382	0.38074
-0.92237	0.38074
0.22521	0.20219
0.48022	0.10015
1.04126	-0.07840
0.83725	0.32972
-1.15188	0.30422
-0.69285	-0.28246
0.42922	-0.07840
0.73524	0.22769
0.81175	1.75816
0.86275	1.01843
0.91375	-0.41000
0.25071	-1.53234
-0.48884	-1.20074
-1.53441	1.47757
-0.13181	-0.12942
0.19971	0.10015
0.76074	0.89089
0.63323	0.96742
0.09770	0.12566
-0.00431	-0.15492
0.07220	-0.10391
-0.76936	0.58480
0.14870	0.22769
0.53123	-0.23145
0.25071	-0.30797
0.55673	0.45726
0.55673	0.12566
0.32721	0.35523
-0.08081	-0.69059
0.02119	0.02363
0.19971	0.15117
0.25071	0.04914
0.68424	-0.43551
-0.56534	0.32972
-0.79486	0.81437
-0.51434	0.17668
1.24527	-0.58856
-0.08081	0.91640
-0.79486	0.04914
0.86275	0.45726
0.70974	1.19699
1.21977	-0.41000
0.83725	-0.23145
-0.46334	0.35523
-3.39602	0.61031
-1.81492	-0.99668
1.11776	0.81437
2.01032	0.12566
2.67337	0.38074
0.99026	0.17668
0.91375	-0.23145
0.22521	-0.15492
-0.00431	-0.38449
-0.18282	0.61031
-0.38683	0.40625
-0.61635	-0.30797
-0.84586	-0.69059
-1.43240	-0.35899
-0.28482	-0.07840
0.35272	0.86539
0.45472	1.29902
0.70974	1.06945
0.58223	-0.41000
0.88825	-0.86914
0.42922	0.15117
0.25071	0.61031
0.09770	0.15117
-0.43783	0.27871
-0.28482	-0.10391
1.14327	0.15117
0.70974	0.10015
-0.46334	-0.25695
0.25071	0.15117
0.30171	0.55929
-1.15188	0.35523
0.19971	-0.69059
0.55673	-0.46102
0.25071	0.68683
0.65874	0.63582
0.63323	0.35523
0.48022	-0.20594
-0.18282	-0.00188
-0.41233	0.20219
-0.43783	0.78886
-0.18282	-0.05289
0.30171	0.17668
0.30171	0.30422
0.14870	-0.07840
-0.31033	0.22769
-0.13181	1.14597
0.65874	-0.51203
0.58223	-0.20594
0.30171	-1.40480
-0.41233	0.04914
-1.30489	0.96742
1.27078	0.68683
0.68424	0.45726
0.30171	-0.12942
0.76074	0.55929
0.60773	0.35523
0.19971	-0.02739
0.12320	0.17668
0.07220	0.20219
-0.05531	-0.18043
-0.31033	-0.12942
0.50573	-0.33348
-0.25932	0.91640
-1.20288	0.17668
-0.25932	-0.51203
-0.18282	0.66132
0.58223	0.58480
0.83725	-0.43551
0.81175	-0.84363
0.83725	0.96742
0.09770	0.10015
-0.36133	0.25320
-0.20832	0.12566
0.17421	1.04394
0.07220	0.35523
0.35272	-0.10391
0.58223	0.25320
-0.59084	0.48277
0.09770	0.12566
0.86275	-0.46102
0.81175	0.10015
-0.53984	0.25320
-0.41233	0.17668
0.19971	0.12566
0.12320	0.27871
0.73524	0.07465
0.55673	-0.15492
-0.20832	-0.35899
-0.28482	-0.18043
-0.31033	0.83988
0.63323	0.35523
0.04670	0.35523
0.17421	0.43176
0.50573	-0.20594
0.25071	0.38074
-0.20832	-0.00188
0.07220	-1.17523
0.42922	0.10015
-0.08081	1.06945
-0.10631	1.04394
0.25071	0.63582
0.88825	0.10015
0.63323	-0.20594
-0.28482	-0.12942
-0.28482	0.17668
-0.10631	0.66132
0.42922	-0.23145
0.32721	-0.97117
0.40372	-0.76711
0.40372	0.17668
0.58223	0.96742
-0.25932	0.81437
-2.27395	1.24800
-0.28482	0.43176
0.60773	-0.02739
1.16877	-0.76711
1.09226	0.20219
0.73524	0.68683
0.22521	-0.63957
-0.18282	-0.02739
-0.31033	-0.05289
-0.38683	0.71234
0.42922	-0.10391
-0.18282	0.63582
0.32721	-0.25695
0.04670	-0.10391
-0.36133	0.07465
-0.15732	0.81437
0.60773	-0.10391
0.76074	-0.10391
0.70974	-0.53754
0.58223	-1.63437
0.12320	1.12046
-0.23382	2.03874
-0.46334	0.61031
-0.25932	0.10015
0.25071	0.53379
0.50573	0.35523
0.25071	-0.10391
0.37822	-0.48652
0.32721	-0.05289
-0.10631	0.35523
-0.02981	-0.58856
-0.53984	-0.00188
0.45472	0.32972
0.65874	0.22769
0.48022	0.12566
-0.02981	0.10015
-1.30489	0.12566
-0.02981	0.78886
0.83725	0.32972
0.55673	-0.63957
0.14870	-1.14973
-0.18282	0.30422
0.55673	0.61031
0.22521	0.73785
-0.05531	1.42656
0.45472	0.94191
0.65874	-0.51203
0.42922	-0.58856
-0.25932	0.17668
-0.56534	0.12566
0.19971	0.02363
0.09770	0.35523
0.14870	0.04914
0.07220	-0.25695
0.73524	-0.07840
-0.64185	0.04914
-0.56534	-0.92016
0.07220	0.89089
0.60773	0.76336
0.73524	0.45726
0.60773	0.91640
0.45472	-0.10391
0.45472	-0.38449
-0.05531	-0.35899
0.35272	-0.10391
-0.43783	0.66132
-0.59084	0.10015
-0.18282	0.71234
-0.08081	0.55929
0.40372	0.07465
0.73524	-0.02739
0.53123	-0.28246
0.32721	0.20219
-0.08081	-0.05289
0.50573	0.53379
-0.33583	0.48277
-0.08081	-0.61406
-0.02981	-0.25695
0.12320	0.12566
-0.00431	0.40625
0.45472	0.96742
-0.61635	-0.53754
0.30171	0.71234
1.01576	0.35523
0.73524	0.35523
0.25071	0.04914
-0.25932	0.50828
-0.08081	0.12566
0.22521	-0.41000
0.30171	0.35523
-0.48884	-0.46102
-0.28482	-0.05289
0.48022	-0.33348
0.53123	0.25320
0.50573	0.38074
0.42922	0.58480
0.37822	-0.23145
0.07220	-0.76711
-0.05531	0.45726
-0.46334	1.17148
-0.61635	0.55929
0.19971	0.32972
0.30171	-0.46102
0.12320	-0.00188
-0.00431	0.53379
0.86275	0.25320
0.35272	0.38074
0.30171	-0.71609
0.30171	-0.10391
-0.97337	0.25320
-1.02437	0.89089
0.73524	0.55929
1.01576	0.07465
1.29628	-0.74160
0.76074	-0.05289
-0.00431	0.40625
-0.05531	0.53379
-0.71835	0.38074
0.32721	-0.61406
0.22521	0.25320
0.32721	0.38074
0.37822	0.04914
-0.10631	-0.23145
-0.15732	0.40625
-0.10631	-0.15492
-0.31033	0.63582
0.35272	0.45726
0.35272	-0.12942
0.40372	-0.53754
-0.05531	-0.92016
0.14870	0.55929
0.37822	0.71234
-0.20832	1.17148
-0.02981	0.25320
0.22521	0.40625
0.65874	0.43176
0.53123	0.10015
0.04670	-0.28246
0.25071	0.12566
0.04670	-1.12422
0.09770	0.30422
0.09770	-0.05289
0.53123	0.17668
-0.51434	0.91640
-1.40690	0.35523
-0.13181	-0.30797
0.81175	-0.05289
0.60773	0.15117
0.55673	0.71234
0.12320	-0.15492
-0.13181	0.55929
-0.15732	-0.25695
0.22521	0.43176
0.91375	0.22769
0.83725	0.30422
0.09770	-0.79262
-0.84586	0.40625
-0.59084	0.86539
0.17421	0.12566
0.40372	-0.07840
0.42922	-0.41000
0.37822	0.40625
0.27621	0.35523
-0.02981	0.17668
-0.41233	-0.69059
-0.10631	-0.18043
-0.33583	0.17668
0.07220	0.55929
0.60773	0.30422
0.78624	0.40625
0.63323	0.68683
0.42922	0.48277
0.53123	0.12566
0.42922	-0.20594
-0.53984	-0.43551
-1.81492	0.20219
-0.99887	0.55929
0.53123	0.45726
1.09226	0.32972
1.14327	-0.05289
1.04126	0.35523
0.53123	-0.61406
0.12320	-0.84363
-0.46334	0.48277
-0.28482	0.73785
-0.00431	0.40625
0.19971	0.30422
0.22521	0.32972
0.04670	0.40625
-0.43783	-0.35899
-0.36133	-1.32828
0.14870	-0.07840
0.53123	1.24800
0.35272	0.58480
0.48022	0.04914
0.76074	0.38074
0.22521	0.45726
-0.53984	0.63582
-0.69285	0.02363
0.63323	-0.12942
0.40372	-0.53754
0.48022	0.20219
0.12320	-0.10391
-0.20832	0.83988
0.32721	0.58480
0.12320	-1.22625
-0.00431	-1.20074
0.04670	-0.18043
0.25071	1.73265
0.32721	1.04394
0.40372	0.86539
-0.41233	-0.94566
0.02119	0.10015
-0.10631	0.04914
-0.87136	0.50828
0.73524	0.40625
0.63323	1.22250
0.40372	-0.94566
0.58223	-0.05289
-0.36133	0.12566
0.02119	0.35523
0.50573	-0.71609
0.42922	1.22250
0.14870	1.22250
0.09770	-0.05289
0.42922	-0.43551
0.07220	-0.58856
0.04670	-0.71609
-0.25932	-0.18043
-0.38683	1.22250
-0.59084	1.12046
-0.38683	0.58480
0.22521	0.45726
1.01576	0.43176
1.34728	0.15117
0.93925	-0.02739
0.42922	-0.25695
0.04670	-0.15492
-0.33583	0.27871
-0.69285	0.66132
-0.20832	-0.66508
0.25071	-1.81293
-0.25932	-0.05289
0.17421	1.96222
0.35272	-0.79262
0.86275	-0.02739
0.58223	0.32972
0.32721	1.06945
-0.18282	0.55929
-0.36133	0.55929
-0.28482	0.55929
0.30171	-0.10391
0.37822	-0.02739
0.30171	0.07465
0.53123	0.30422
0.32721	-0.51203
-0.33583	-0.66508
-0.25932	0.83988
0.27621	0.45726
0.32721	-0.30797
0.27621	0.07465
0.32721	-0.05289
0.50573	0.32972
0.04670	1.14597
-0.33583	1.14597
0.09770	-1.43031
-0.20832	-1.58336
0.32721	-1.07320
0.07220	0.66132
0.63323	1.75816
0.73524	1.37554
0.40372	-0.00188
0.19971	0.04914
-0.66735	0.07465
-0.23382	0.48277
0.58223	0.61031
0.73524	-0.56305
0.81175	-0.25695
-0.36133	0.12566
-1.66191	-0.12942
-0.46334	-0.10391
0.48022	0.30422
0.53123	0.45726
0.25071	0.10015
0.55673	-0.05289
0.70974	-0.10391
0.58223	0.07465
0.22521	0.40625
-0.08081	0.48277
-0.51434	0.53379
-0.46334	-0.61406
0.37822	-0.02739
0.12320	-0.30797
-0.00431	0.94191
0.30171	0.45726
0.17421	-0.63957
