0.07220	0.22769
0.12320	0.04914
0.22521	0.10015
0.19971	0.10015
0.07220	0.25320
0.07220	0.27871
0.22521	0.15117
0.14870	0.17668
0.09770	0.30422
0.14870	0.12566
0.14870	0.20219
0.14870	0.10015
0.07220	0.04914
0.09770	0.12566
0.17421	0.30422
0.22521	0.15117
0.17421	-0.05289
0.07220	0.07465
0.22521	0.12566
0.14870	-0.00188
0.07220	-0.00188
0.14870	0.07465
0.22521	0.32972
0.07220	0.25320
0.14870	0.35523
0.22521	0.35523
0.14870	0.20219
0.14870	0.07465
0.22521	0.12566
0.14870	0.07465
0.07220	0.07465
0.14870	0.25320
0.22521	0.25320
0.12320	0.15117
0.09770	0.04914
0.14870	0.07465
0.22521	-0.00188
0.09770	0.15117
0.14870	0.17668
0.19971	0.27871
0.07220	0.12566
0.12320	0.22769
0.22521	0.17668
0.12320	0.12566
0.09770	0.15117
0.22521	0.22769
0.12320	0.10015
0.09770	0.10015
0.07220	0.20219
0.19971	0.20219
0.09770	0.22769
0.22521	0.15117
0.12320	-0.07840
0.07220	0.17668
0.12320	0.27871
0.19971	0.20219
0.22521	0.15117
0.07220	0.04914
0.09770	0.10015
0.14870	0.30422
0.22521	0.10015
0.12320	0.07465
0.14870	0.10015
0.25071	0.22769
0.12320	0.25320
0.09770	0.10015
0.17421	0.20219
0.12320	0.20219
0.07220	0.04914
0.14870	0.12566
0.19971	0.22769
0.12320	0.20219
0.09770	0.20219
0.07220	0.12566
0.17421	-0.05289
0.22521	0.25320
0.17421	0.20219
0.19971	0.10015
0.17421	0.07465
0.09770	0.15117
0.14870	0.17668
0.12320	0.22769
0.17421	0.07465
0.22521	0.15117
0.12320	0.12566
0.09770	0.12566
0.04670	0.22769
0.12320	0.12566
0.19971	-0.02739
0.14870	0.22769
0.12320	0.17668
0.17421	0.12566
0.07220	0.17668
0.17421	0.22769
0.22521	0.22769
0.17421	0.10015
0.14870	0.07465
0.09770	0.17668
0.14870	0.17668
0.14870	0.04914
0.22521	0.22769
0.12320	0.27871
0.07220	0.20219
0.09770	0.02363
0.12320	0.07465
0.12320	0.12566
0.09770	0.15117
0.12320	0.25320
0.22521	0.12566
0.14870	0.10015
0.09770	0.17668
0.22521	0.22769
0.14870	0.20219
0.09770	0.10015
0.14870	0.15117
0.19971	0.12566
0.12320	0.07465
0.07220	0.12566
0.17421	0.22769
0.22521	0.17668
0.07220	-0.02739
0.14870	0.22769
0.22521	0.40625
0.17421	-0.15492
0.07220	0.15117
0.17421	0.25320
0.19971	0.07465
0.12320	0.07465
0.14870	0.20219
0.19971	0.22769
0.17421	0.12566
0.12320	0.15117
0.19971	0.22769
0.12320	0.20219
0.07220	0.10015
0.14870	0.04914
0.19971	0.12566
0.12320	0.04914
0.09770	0.10015
0.22521	0.17668
0.14870	0.20219
0.12320	0.20219
0.09770	0.30422
0.14870	0.20219
0.19971	0.10015
0.12320	0.17668
0.12320	0.10015
0.09770	0.02363
0.12320	0.07465
0.19971	0.20219
0.14870	0.20219
0.14870	0.25320
0.07220	0.15117
0.17421	0.15117
0.22521	0.15117
0.17421	0.07465
0.09770	0.12566
0.14870	0.17668
0.22521	0.10015
0.17421	0.04914
0.09770	0.12566
0.14870	0.22769
0.12320	0.17668
0.04670	0.20219
0.12320	0.20219
0.14870	0.15117
0.12320	0.04914
0.09770	0.10015
0.22521	0.02363
0.09770	0.10015
0.14870	0.07465
0.09770	0.22769
0.14870	0.35523
0.12320	0.20219
0.14870	0.20219
0.17421	0.17668
0.22521	0.10015
0.07220	0.02363
0.09770	0.07465
0.12320	0.22769
0.25071	0.30422
0.12320	-0.02739
0.04670	0.07465
0.12320	0.15117
0.19971	0.20219
0.17421	0.20219
0.09770	0.25320
0.17421	0.17668
0.22521	-0.02739
0.14870	-0.00188
0.09770	0.07465
0.12320	0.32972
0.17421	0.30422
0.07220	0.07465
0.14870	0.20219
0.25071	0.30422
0.14870	0.35523
0.07220	0.20219
0.14870	0.07465
0.14870	0.07465
0.19971	0.07465
0.17421	0.15117
0.09770	0.07465
0.09770	0.12566
0.17421	-0.02739
0.17421	0.04914
0.04670	0.17668
0.09770	0.20219
0.22521	0.25320
0.12320	0.15117
0.17421	0.15117
0.14870	0.38074
0.07220	0.12566
0.17421	0.15117
0.14870	0.10015
0.07220	0.10015
0.22521	0.12566
0.17421	0.04914
0.09770	0.10015
0.22521	0.20219
0.12320	0.12566
0.17421	-0.00188
0.22521	0.17668
0.12320	0.10015
0.07220	0.32972
0.19971	0.22769
0.17421	0.10015
0.09770	-0.00188
0.14870	-0.10391
0.19971	0.15117
0.25071	-0.07840
0.12320	0.22769
0.04670	0.38074
0.14870	0.45726
0.14870	0.45726
0.22521	0.20219
0.14870	0.02363
0.07220	-0.07840
0.09770	-0.05289
0.07220	-0.10391
0.22521	0.20219
0.19971	0.30422
0.14870	0.10015
0.07220	0.15117
0.12320	0.20219
0.14870	0.17668
0.14870	0.27871
0.22521	0.20219
0.14870	0.15117
0.09770	0.12566
0.17421	0.10015
0.19971	0.20219
0.12320	0.02363
0.12320	0.04914
0.09770	0.22769
0.14870	0.22769
0.22521	0.17668
0.19971	0.40625
0.14870	0.10015
0.07220	0.02363
0.07220	-0.15492
0.12320	0.04914
0.12320	0.15117
0.12320	0.12566
0.07220	0.20219
0.12320	0.30422
0.22521	0.32972
0.14870	0.12566
0.09770	0.12566
0.19971	-0.00188
0.27621	0.15117
0.12320	0.22769
0.07220	0.12566
0.12320	0.22769
0.12320	0.30422
0.17421	0.07465
0.17421	0.04914
0.07220	-0.15492
0.14870	0.12566
0.22521	0.30422
0.14870	0.17668
0.09770	-0.07840
0.09770	0.07465
0.14870	0.20219
0.19971	0.15117
0.12320	0.07465
0.09770	0.12566
0.14870	0.27871
0.14870	0.07465
0.07220	-0.05289
0.17421	0.17668
0.22521	0.32972
0.09770	0.20219
0.12320	0.20219
0.17421	0.43176
0.14870	0.22769
0.07220	-0.05289
0.14870	0.02363
0.22521	0.07465
0.14870	0.10015
0.04670	-0.02739
0.14870	0.12566
0.19971	0.15117
0.07220	0.25320
0.17421	0.25320
0.22521	0.12566
0.12320	0.35523
0.07220	0.15117
0.17421	0.12566
0.17421	0.12566
0.17421	0.04914
0.09770	0.17668
0.19971	0.15117
0.12320	0.15117
0.07220	0.17668
0.17421	0.25320
0.25071	0.22769
0.14870	0.02363
0.09770	-0.07840
0.19971	0.17668
0.17421	0.17668
0.14870	0.20219
0.12320	0.38074
0.22521	0.15117
0.12320	0.15117
0.09770	0.10015
0.14870	0.12566
0.22521	0.22769
0.09770	0.04914
0.14870	0.04914
0.17421	0.07465
0.07220	0.15117
0.22521	0.15117
0.12320	0.15117
0.07220	0.04914
0.17421	0.40625
0.14870	0.17668
0.09770	0.07465
0.17421	0.25320
0.17421	0.12566
0.09770	0.04914
0.14870	-0.51203
0.19971	0.25320
0.12320	0.43176
0.09770	0.25320
0.17421	0.35523
0.19971	0.25320
0.14870	0.12566
0.09770	0.17668
0.14870	0.17668
0.27621	-0.02739
0.07220	-0.07840
0.12320	0.22769
0.22521	0.27871
0.19971	0.10015
0.09770	-0.00188
0.17421	-0.07840
0.14870	0.15117
0.17421	-0.12942
0.12320	0.30422
0.19971	0.30422
0.12320	0.22769
0.14870	0.22769
0.22521	0.17668
0.04670	0.04914
0.17421	0.22769
0.22521	0.25320
0.14870	0.17668
0.07220	-0.00188
0.14870	0.04914
0.22521	0.25320
0.14870	0.17668
0.09770	0.10015
0.04670	0.02363
0.19971	0.15117
0.17421	0.02363
0.14870	-0.10391
0.09770	0.22769
0.19971	0.30422
0.22521	0.12566
0.14870	0.02363
0.07220	0.02363
0.17421	0.43176
0.19971	0.35523
0.12320	0.32972
0.12320	0.12566
0.14870	0.15117
0.14870	0.15117
0.22521	0.07465
0.17421	-0.10391
0.17421	-0.10391
0.04670	0.15117
0.14870	0.20219
0.14870	0.20219
0.22521	0.15117
0.19971	0.10015
0.14870	0.12566
0.12320	0.12566
0.14870	0.17668
0.25071	0.35523
0.19971	0.10015
0.14870	0.02363
0.04670	0.45726
0.02119	0.25320
0.19971	0.12566
0.19971	0.17668
0.17421	0.10015
0.07220	-0.05289
0.14870	0.07465
0.17421	0.17668
0.25071	0.15117
0.14870	0.30422
0.12320	0.12566
0.12320	-0.07840
0.12320	0.12566
0.14870	0.22769
0.14870	0.25320
0.12320	0.20219
0.22521	0.22769
0.12320	0.04914
0.12320	0.04914
0.07220	0.10015
0.09770	0.15117
0.14870	0.30422
0.14870	-0.07840
0.19971	0.17668
0.22521	0.25320
0.14870	0.10015
0.04670	0.20219
0.22521	0.20219
0.22521	0.07465
0.12320	0.12566
0.09770	0.22769
0.14870	0.15117
0.14870	0.15117
0.22521	0.04914
0.14870	0.02363
0.14870	0.17668
0.14870	0.12566
0.07220	0.25320
0.19971	0.25320
0.12320	0.17668
0.22521	0.04914
0.19971	0.07465
0.12320	0.15117
0.12320	0.15117
0.12320	0.15117
0.22521	0.17668
0.14870	0.20219
0.17421	0.22769
0.14870	0.07465
0.12320	0.12566
0.17421	0.20219
0.12320	0.25320
0.07220	0.04914
0.14870	-0.05289
0.14870	0.25320
0.17421	0.15117
0.19971	0.22769
0.25071	0.15117
0.19971	0.10015
0.17421	0.07465
0.12320	0.10015
0.07220	0.15117
0.07220	0.22769
0.14870	0.15117
0.22521	0.07465
0.19971	0.30422
0.14870	0.25320
0.14870	0.12566
0.12320	0.04914
0.07220	0.04914
0.09770	-0.07840
0.17421	0.20219
0.22521	0.50828
0.14870	0.32972
0.14870	0.17668
0.09770	-0.18043
0.09770	-0.10391
0.17421	0.35523
0.22521	0.38074
0.17421	0.17668
0.19971	0.25320
0.19971	0.07465
0.14870	-0.10391
0.09770	0.22769
0.14870	0.15117
0.22521	0.20219
0.19971	0.10015
0.17421	0.07465
0.09770	0.02363
0.09770	0.17668
0.19971	0.20219
0.22521	0.30422
0.12320	0.04914
0.09770	0.12566
0.14870	0.30422
0.17421	0.25320
0.17421	0.15117
0.14870	0.15117
0.07220	0.10015
0.09770	-0.05289
0.19971	-0.07840
0.12320	0.45726
0.17421	0.40625
0.14870	0.02363
0.09770	-0.00188
0.14870	0.25320
0.22521	0.17668
0.12320	0.07465
0.12320	0.10015
0.12320	0.27871
0.19971	0.20219
0.07220	0.10015
0.14870	0.15117
0.22521	0.27871
0.17421	0.04914
0.07220	-0.15492
0.12320	0.15117
0.19971	0.10015
0.09770	0.10015
0.17421	0.22769
0.19971	0.17668
0.17421	0.25320
0.04670	0.20219
0.09770	0.10015
0.17421	0.17668
0.25071	0.02363
0.17421	0.15117
0.09770	0.15117
0.14870	0.17668
0.19971	0.30422
0.14870	0.27871
0.07220	0.12566
0.19971	-0.12942
0.22521	0.17668
0.09770	0.15117
0.12320	0.10015
0.22521	0.12566
0.14870	0.12566
0.07220	0.07465
0.14870	0.20219
0.22521	0.25320
0.14870	0.22769
0.09770	0.10015
0.22521	0.25320
0.12320	-0.02739
0.09770	0.10015
0.17421	0.17668
0.17421	0.25320
0.22521	0.17668
0.17421	0.20219
0.12320	-0.02739
0.07220	0.07465
0.14870	0.35523
0.19971	0.38074
0.14870	0.17668
0.09770	-0.10391
0.17421	-0.00188
0.19971	0.22769
0.14870	0.35523
0.07220	0.17668
0.17421	0.07465
0.19971	0.25320
0.14870	0.12566
0.07220	0.02363
0.14870	0.10015
0.22521	0.12566
0.14870	0.07465
0.12320	0.10015
0.17421	0.15117
0.19971	0.30422
0.12320	0.22769
0.07220	0.15117
0.22521	0.25320
0.12320	0.25320
0.07220	0.04914
0.14870	-0.02739
0.19971	0.07465
0.22521	0.12566
0.22521	0.20219
0.14870	0.12566
0.07220	0.15117
0.12320	0.25320
0.19971	0.17668
0.12320	0.10015
0.19971	0.10015
0.25071	0.12566
0.22521	0.20219
0.12320	0.12566
0.09770	-0.05289
0.09770	0.27871
0.19971	0.20219
0.12320	0.12566
0.07220	0.20219
0.14870	0.12566
0.25071	0.10015
0.22521	0.30422
0.14870	0.10015
0.09770	0.27871
0.14870	0.25320
0.19971	-0.05289
0.12320	-0.07840
0.07220	0.07465
0.19971	0.15117
0.25071	0.20219
0.17421	0.22769
0.04670	0.32972
0.14870	0.15117
0.22521	-0.30797
0.22521	-0.20594
0.12320	0.43176
0.17421	0.55929
0.12320	0.15117
0.02119	0.32972
0.04670	0.15117
0.12320	0.15117
0.27621	0.10015
0.14870	0.15117
0.17421	0.02363
0.09770	0.04914
0.14870	-0.00188
0.17421	0.15117
0.19971	0.40625
0.12320	0.50828
0.12320	-0.10391
0.12320	-0.35899
0.12320	0.50828
0.17421	-0.07840
0.09770	-0.07840
-0.02981	-0.20594
0.02119	0.12566
0.22521	1.09496
0.37822	0.27871
-0.00431	0.58480
-0.02981	-1.12422
0.32721	-0.12942
0.48022	0.78886
0.22521	0.12566
0.27621	0.66132
0.07220	1.65613
0.14870	0.17668
0.12320	-0.43551
0.17421	-2.27207
-0.41233	0.45726
-0.69285	-0.99668
-0.13181	-0.30797
0.35272	1.47757
0.27621	0.99292
0.30171	1.45206
0.40372	1.12046
0.65874	0.81437
0.32721	-2.34859
0.42922	-0.28246
-0.71835	0.81437
0.93925	-0.20594
0.12320	2.90601
-0.64185	-2.90976
0.30171	-0.15492
-0.79486	1.09496
0.35272	1.24800
0.73524	-0.48652
0.32721	0.78886
1.04126	-0.18043
0.50573	-1.48133
-1.10088	-2.62918
-0.89686	-0.46102
0.12320	-0.51203
-0.48884	1.12046
0.32721	2.42136
0.78624	4.84460
0.93925	-5.86866
1.93382	3.44167
1.39828	-0.86914
-1.45790	2.59991
-2.96250	-0.30797
-0.48884	-0.53754
-0.08081	2.42136
0.81175	0.68683
1.60230	-2.73121
2.13783	0.38074
1.01576	-0.61406
0.70974	-3.34339
-1.71292	0.94191
-0.84586	3.28862
1.39828	-0.92016
1.34728	-0.25695
-1.53441	0.53379
-2.63097	0.63582
-1.63641	-0.81812
-0.18282	0.55929
2.13783	3.87530
1.93382	1.63062
1.50029	-1.78742
1.57679	-4.66979
-0.79486	-0.30797
-0.64185	-1.04770
-0.36133	0.81437
-0.51434	0.63582
0.91375	1.01843
-0.33583	2.03874
0.81175	2.16628
0.22521	0.86539
0.55673	1.32453
1.55129	1.96222
0.93925	-2.09351
-3.75305	-2.24656
-1.71292	-4.31269
0.53123	0.83988
-2.04444	-0.20594
0.35272	0.68683
3.41291	2.14077
2.77537	3.74776
2.54586	-0.23145
2.13783	-1.94047
1.93382	-3.59847
-1.91693	2.42136
-2.37596	-1.71090
-2.57997	-0.25695
-2.52897	4.43647
1.09226	1.14597
1.42379	0.15117
1.16877	1.40105
0.60773	-1.35379
0.14870	-0.02739
0.35272	0.43176
-1.78942	-0.23145
-1.12638	-0.51203
0.73524	-0.58856
0.93925	-1.83844
1.01576	-0.05289
0.73524	0.22769
0.32721	0.78886
0.04670	1.37554
0.09770	1.63062
0.07220	0.02363
-0.02981	0.71234
-0.05531	-0.48652
0.09770	0.15117
-0.02981	0.30422
0.14870	0.20219
0.19971	-0.41000
0.25071	-1.45582
-0.08081	1.70714
0.12320	0.66132
0.32721	-0.58856
0.04670	-2.52714
0.17421	-2.24656
0.48022	0.83988
0.81175	1.73265
0.04670	2.54890
-0.28482	2.67644
-1.27939	1.45206
0.02119	-1.02219
-0.10631	-2.19554
0.60773	0.30422
1.62780	0.55929
0.91375	0.81437
-0.36133	-0.69059
0.27621	0.04914
-0.76936	-0.25695
0.07220	-0.38449
0.65874	-0.05289
0.68424	0.10015
0.40372	0.10015
-0.15732	-0.12942
-0.38683	0.17668
-0.00431	0.35523
-0.08081	0.86539
-0.02981	0.30422
-0.00431	1.40105
-0.02981	-1.32828
-0.00431	-2.04250
0.09770	2.49788
-0.02981	2.06425
-0.00431	-2.22105
0.07220	0.81437
-0.00431	1.37554
0.37822	1.09496
0.53123	0.66132
0.50573	0.71234
1.06676	0.71234
0.99026	-2.14453
0.09770	-0.30797
-0.69285	0.17668
-1.15188	-0.15492
-0.38683	1.04394
0.48022	-0.92016
0.73524	-0.05289
0.12320	-0.61406
0.58223	0.45726
1.04126	0.45726
0.78624	1.50308
1.34728	-0.46102
-3.90606	0.73785
-2.65648	0.30422
0.76074	-1.02219
1.80631	0.15117
1.78081	0.58480
1.27078	0.86539
0.30171	0.86539
0.12320	2.08976
0.02119	-0.61406
0.02119	-3.44542
-0.02981	-0.63957
-1.12638	1.68163
-0.59084	1.75816
-0.13181	-0.56305
0.14870	0.12566
0.32721	-1.78742
0.27621	0.48277
0.22521	1.06945
0.58223	0.10015
0.32721	1.98773
0.48022	-0.56305
-0.02981	-0.84363
0.17421	-1.02219
0.42922	1.04394
0.19971	0.04914
0.02119	-0.35899
-0.13181	0.89089
0.22521	0.25320
0.17421	0.89089
0.37822	0.22769
0.09770	-1.22625
0.48022	0.27871
0.63323	2.75296
0.93925	-1.37929
0.02119	-3.19035
-0.69285	-0.48652
0.45472	1.50308
-1.10088	1.04394
-1.20288	0.48277
0.48022	0.15117
0.65874	0.55929
0.83725	0.35523
0.93925	-0.33348
0.55673	0.73785
-0.02981	0.89089
-0.87136	-1.53234
-0.02981	0.32972
-0.10631	-0.30797
0.32721	-2.14453
0.40372	0.55929
0.09770	1.04394
0.37822	-0.23145
0.63323	0.58480
-0.46334	0.30422
-0.79486	2.03874
0.02119	-0.92016
0.68424	0.68683
0.91375	1.42656
0.48022	0.17668
0.48022	-0.20594
0.30171	0.73785
0.17421	-0.56305
-0.76936	-0.46102
-0.74385	0.15117
-0.56534	-0.41000
0.73524	-0.51203
0.76074	0.12566
0.55673	-0.23145
0.42922	-0.35899
0.19971	0.45726
-0.08081	0.78886
-0.05531	-0.10391
-0.20832	2.14077
0.83725	1.75816
0.14870	-0.71609
-1.50890	-0.84363
-0.74385	-0.18043
0.53123	0.83988
0.55673	-0.69059
1.29628	-1.27726
1.04126	1.27351
0.68424	2.11527
-0.28482	-1.25176
-0.94787	-0.61406
-0.02981	1.45206
0.48022	0.32972
0.04670	1.01843
-0.08081	-0.81812
-0.46334	-1.94047
0.22521	0.32972
0.53123	0.66132
0.81175	1.06945
0.27621	0.35523
-0.61635	0.63582
-0.36133	1.01843
0.25071	-1.25176
0.17421	0.02363
0.19971	0.20219
0.19971	0.35523
0.60773	0.32972
0.76074	0.61031
0.83725	0.02363
0.12320	-0.69059
-0.56534	-1.02219
-0.53984	0.25320
0.19971	0.20219
0.53123	1.24800
0.88825	0.27871
-0.64185	1.88570
-0.00431	-0.84363
-0.13181	-0.97117
0.73524	-1.35379
0.27621	0.61031
-0.23382	1.32453
-0.23382	1.50308
-1.25389	-0.25695
1.11776	-1.32828
0.99026	0.04914
0.02119	0.94191
0.25071	2.29382
0.40372	-0.23145
0.83725	-1.27726
0.48022	0.99292
0.48022	0.12566
-0.08081	-0.15492
-0.84586	-1.73640
-0.56534	-0.63957
-0.61635	1.40105
0.14870	-0.97117
0.45472	-1.86394
0.17421	0.43176
0.42922	2.21730
0.78624	2.34484
0.55673	1.29902
-0.87136	0.55929
-0.38683	0.25320
0.73524	0.91640
0.60773	-0.58856
0.58223	-1.68539
0.35272	-0.20594
0.07220	-0.10391
-0.02981	-0.46102
0.32721	0.17668
0.35272	1.01843
-0.36133	0.55929
-0.89686	0.02363
-0.87136	-1.09871
-0.31033	-0.02739
0.45472	1.01843
0.96476	-0.10391
0.93925	0.68683
-0.23382	0.55929
-0.48884	0.94191
0.42922	0.76336
0.12320	-0.66508
0.65874	0.32972
1.04126	-0.25695
0.09770	0.35523
-0.87136	0.40625
0.32721	-0.23145
0.65874	0.17668
0.78624	0.50828
0.25071	1.40105
-0.76936	-0.76711
-0.82036	-3.11382
-0.38683	-0.51203
0.02119	0.55929
0.17421	0.53379
0.63323	1.01843
0.53123	1.96222
0.35272	-0.56305
0.25071	-1.50683
0.12320	0.30422
0.17421	0.76336
-0.18282	0.76336
-0.08081	1.04394
0.14870	-0.61406
0.12320	0.17668
0.19971	-0.69059
-0.00431	0.12566
0.42922	0.96742
0.50573	0.86539
0.02119	0.25320
-0.25932	0.22769
0.17421	-0.15492
0.22521	-0.58856
0.48022	-0.46102
0.19971	-0.28246
-0.25932	1.01843
-0.69285	0.20219
-0.23382	-0.51203
0.63323	0.02363
1.06676	0.43176
1.62780	0.94191
0.27621	0.91640
-1.20288	-0.81812
-1.04987	0.58480
0.07220	0.55929
0.73524	0.68683
0.60773	-1.27726
0.32721	-0.05289
0.25071	-0.97117
-0.05531	0.38074
0.07220	1.29902
-0.05531	1.70714
0.04670	0.17668
0.12320	-1.86394
-0.00431	0.55929
0.19971	0.48277
0.12320	0.66132
-0.18282	1.14597
0.32721	0.07465
0.22521	-2.32308
0.12320	-0.15492
-0.15732	0.30422
0.53123	0.66132
0.60773	0.96742
0.55673	0.66132
0.73524	-0.25695
0.02119	0.50828
-0.61635	1.04394
-1.22839	-1.25176
-0.23382	-1.94047
1.14327	-0.76711
0.30171	0.50828
0.42922	1.45206
0.32721	-0.02739
0.25071	2.01323
0.14870	1.42656
0.37822	0.40625
0.22521	-1.02219
-0.08081	-0.05289
-0.31033	1.17148
-1.33039	-0.74160
-1.22839	-0.81812
0.63323	-0.33348
0.96476	0.61031
1.04126	0.35523
0.63323	-0.48652
0.32721	-0.25695
0.55673	-0.02739
0.27621	-0.35899
0.07220	-0.99668
-0.18282	1.55410
-0.53984	1.40105
-0.00431	1.01843
0.37822	-0.12942
0.37822	0.66132
0.88825	0.10015
0.19971	-0.56305
-0.87136	-0.00188
-0.71835	0.40625
-0.28482	0.17668
-0.05531	-1.68539
0.63323	1.14597
0.58223	-0.25695
0.76074	-0.30797
1.09226	0.50828
0.78624	0.63582
-0.53984	0.63582
-0.92237	1.37554
-0.31033	-0.20594
0.68424	-0.58856
0.60773	-0.92016
-0.20832	1.19699
-0.38683	-0.56305
0.04670	-0.18043
0.58223	0.27871
0.42922	0.76336
0.22521	0.38074
-0.10631	1.27351
-0.13181	-1.02219
-0.13181	0.22769
0.07220	2.26831
-0.00431	-2.83324
0.40372	-1.30277
0.48022	-0.25695
0.58223	0.61031
0.32721	1.04394
-0.48884	1.12046
-0.15732	1.27351
0.14870	0.63582
-0.36133	-0.63957
0.58223	-0.58856
0.73524	-0.74160
0.65874	0.76336
0.14870	-0.15492
-0.08081	-1.12422
-0.08081	1.42656
0.07220	0.89089
0.35272	-0.33348
0.35272	0.55929
-0.05531	0.43176
-0.23382	-0.23145
0.02119	0.25320
-0.28482	-0.71609
-0.28482	-0.23145
0.30171	0.07465
0.50573	1.27351
1.16877	0.76336
0.32721	-0.35899
0.27621	-0.25695
-0.18282	0.66132
0.19971	0.17668
-0.23382	1.14597
0.19971	0.04914
0.17421	-2.98628
-0.36133	-1.02219
-0.51434	1.63062
0.30171	1.83468
0.73524	-0.84363
0.83725	0.66132
0.42922	0.63582
0.25071	0.71234
0.55673	1.12046
-0.00431	0.04914
-0.15732	-0.76711
0.04670	-2.90976
-0.48884	0.86539
-0.38683	0.61031
-0.31033	1.17148
0.30171	0.91640
0.53123	0.02363
0.53123	-1.12422
0.63323	0.25320
0.09770	0.22769
0.12320	0.71234
0.60773	-0.30797
0.14870	0.89089
0.22521	-0.35899
-0.28482	0.15117
-0.79486	0.61031
-0.36133	0.71234
-0.08081	-1.32828
0.32721	0.35523
0.78624	0.55929
0.88825	0.32972
0.78624	0.25320
0.32721	0.25320
0.04670	0.78886
-0.15732	1.12046
0.04670	0.10015
0.14870	-3.16484
-0.33583	-0.84363
-0.92237	1.12046
-0.10631	1.24800
0.27621	0.48277
0.07220	0.43176
0.76074	1.14597
0.45472	0.07465
-0.08081	-2.98628
0.25071	-0.20594
0.42922	1.27351
0.45472	0.71234
0.19971	0.25320
-0.43783	0.91640
0.09770	-0.56305
0.14870	-0.35899
-0.05531	0.89089
0.22521	-0.25695
0.12320	-0.02739
0.12320	0.63582
0.55673	-0.05289
0.40372	-0.18043
0.30171	0.30422
-0.36133	0.15117
0.19971	0.15117
0.09770	0.07465
-0.20832	0.32972
-0.08081	0.35523
0.58223	0.17668
0.48022	-0.18043
0.25071	0.30422
0.22521	1.19699
-0.25932	-1.65988
0.12320	-2.27207
0.07220	0.04914
-1.71292	1.06945
-0.61635	1.55410
1.14327	2.29382
1.75531	0.86539
1.39828	0.04914
0.99026	-0.07840
0.60773	-0.05289
0.12320	-0.35899
-0.02981	-0.71609
-0.36133	0.20219
-0.46334	0.38074
-0.89686	0.45726
-0.59084	-0.58856
0.12320	0.04914
-0.08081	0.53379
0.50573	-0.43551
0.27621	0.45726
0.53123	-0.20594
0.12320	0.20219
0.07220	1.22250
0.32721	0.45726
0.35272	-0.81812
-0.41233	-0.25695
-0.08081	-1.96597
0.86275	0.45726
0.93925	1.96222
0.32721	1.80917
0.17421	1.42656
0.40372	-0.18043
0.50573	0.04914
-0.00431	0.63582
-0.64185	-1.14973
-0.69285	-0.56305
-0.00431	-0.25695
0.35272	0.04914
-0.13181	0.12566
0.42922	0.38074
0.27621	0.07465
-0.51434	0.07465
-0.00431	0.66132
0.09770	-0.66508
0.83725	-0.43551
0.58223	-0.12942
0.42922	0.61031
0.02119	1.27351
-0.00431	1.24800
0.65874	-0.30797
0.40372	-1.20074
-0.25932	0.71234
-0.66735	0.35523
-0.28482	0.30422
0.25071	1.55410
0.27621	-0.71609
0.02119	0.07465
0.73524	0.48277
0.81175	-0.92016
0.40372	0.07465
-0.23382	0.30422
-0.61635	-0.15492
-0.46334	0.81437
-0.71835	0.68683
0.76074	-0.33348
0.78624	-0.86914
1.01576	1.04394
0.88825	0.27871
0.58223	-0.18043
0.25071	0.27871
0.17421	-0.41000
0.12320	-1.27726
-0.64185	-0.30797
-0.48884	-0.38449
-0.53984	1.42656
-0.10631	1.45206
0.35272	1.29902
0.32721	0.55929
0.83725	0.86539
0.88825	0.15117
0.37822	-0.25695
-0.08081	-0.89465
-0.56534	-0.56305
-0.46334	-0.53754
0.19971	0.50828
0.68424	-0.02739
0.81175	-0.25695
0.58223	0.68683
-0.13181	0.30422
-0.25932	0.30422
0.63323	0.38074
0.02119	0.50828
-0.56534	-1.27726
-0.33583	-0.02739
-0.25932	0.71234
-0.10631	0.30422
0.48022	-1.22625
0.60773	1.68163
0.68424	0.78886
0.60773	1.12046
0.32721	0.53379
0.65874	0.12566
0.30171	0.15117
0.02119	0.83988
-0.66735	-0.56305
-0.56534	-1.17523
0.12320	0.48277
-0.28482	-1.78742
-0.08081	-0.38449
0.37822	0.35523
0.81175	0.61031
1.55129	1.98773
-0.10631	1.32453
-0.46334	0.35523
-0.25932	-0.79262
-0.76936	-2.04250
0.48022	-1.20074
0.63323	0.86539
0.53123	1.32453
0.58223	1.65613
0.37822	1.01843
-0.13181	0.38074
-0.61635	0.10015
-0.48884	-0.84363
0.17421	-0.46102
0.48022	-0.07840
0.40372	0.04914
0.53123	0.38074
0.12320	0.04914
0.02119	0.04914
-0.23382	0.58480
0.04670	-0.46102
0.32721	0.22769
0.45472	0.15117
0.27621	0.50828
0.12320	0.73785
0.42922	-0.20594
-0.00431	-0.76711
-0.28482	-1.14973
0.04670	0.63582
0.30171	0.73785
-0.48884	0.78886
-0.59084	1.12046
0.65874	-0.02739
0.70974	0.35523
0.88825	-0.05289
0.55673	-0.66508
-0.10631	-0.25695
0.22521	0.73785
0.19971	0.71234
-0.05531	0.32972
-0.02981	0.32972
-0.28482	-1.45582
-0.08081	0.22769
0.25071	-0.15492
0.09770	0.20219
-0.00431	0.32972
-0.38683	0.78886
0.42922	-0.10391
0.65874	0.12566
0.70974	0.02363
-0.02981	-0.56305
-1.45790	0.27871
-0.51434	0.91640
1.09226	0.38074
1.01576	0.02363
0.88825	0.73785
0.53123	0.50828
-0.00431	0.27871
-0.28482	0.04914
0.09770	-0.66508
0.45472	-0.38449
0.02119	0.30422
-0.38683	0.45726
0.02119	0.20219
0.35272	0.22769
0.73524	-0.33348
0.68424	-0.48652
-0.28482	0.48277
-0.92237	0.63582
0.17421	-0.05289
0.32721	0.58480
0.63323	-0.69059
0.40372	0.43176
0.22521	0.71234
0.04670	0.20219
-0.38683	0.25320
0.63323	-0.30797
0.09770	0.35523
-0.69285	1.24800
-0.59084	-0.46102
0.42922	0.02363
0.27621	0.10015
0.88825	0.61031
0.78624	-0.63957
0.45472	-0.71609
-0.20832	0.66132
-0.25932	0.76336
0.12320	0.48277
0.37822	0.15117
0.09770	-0.46102
0.25071	0.12566
0.37822	0.45726
0.48022	-1.02219
0.17421	0.02363
-0.28482	0.32972
-0.66735	0.58480
0.37822	1.27351
0.22521	0.71234
-0.18282	0.38074
0.25071	-0.51203
0.35272	-0.05289
0.70974	-0.28246
0.68424	-0.53754
-0.08081	0.76336
-0.53984	0.17668
-0.13181	0.66132
0.96476	0.17668
-0.61635	0.45726
-0.38683	-0.79262
0.76074	0.20219
0.78624	-0.07840
0.48022	0.12566
0.40372	-0.15492
-0.13181	1.06945
-0.00431	-0.46102
-0.23382	-0.63957
-0.08081	-0.48652
0.50573	0.55929
0.27621	1.09496
0.37822	0.78886
0.22521	0.99292
-0.82036	-0.71609
-0.56534	-0.25695
0.88825	0.10015
0.78624	0.25320
0.53123	-0.00188
-0.18282	0.63582
-0.94787	-0.07840
-0.02981	0.53379
0.55673	0.32972
0.30171	1.17148
0.63323	-1.83844
0.48022	-0.97117
-0.00431	0.71234
0.63323	0.25320
0.42922	0.73785
-1.61091	0.89089
-0.56534	0.50828
0.40372	-0.79262
0.83725	-1.17523
0.83725	0.55929
0.48022	0.91640
0.27621	0.86539
-0.08081	0.38074
-0.84586	0.35523
0.25071	-0.10391
0.58223	-0.69059
0.48022	0.27871
0.37822	0.53379
-0.23382	-1.55785
-0.25932	0.04914
-0.25932	1.12046
-0.23382	0.73785
0.19971	0.91640
0.93925	-0.05289
0.99026	0.50828
0.63323	-0.18043
-0.10631	0.02363
-0.89686	0.30422
-0.18282	-0.81812
0.14870	-0.30797
0.65874	0.58480
0.65874	-0.46102
0.35272	0.38074
0.37822	0.43176
-0.20832	0.17668
0.22521	0.12566
-0.28482	-0.00188
-0.66735	0.71234
-0.10631	-1.17523
0.19971	0.48277
0.25071	0.15117
0.68424	-0.35899
0.70974	0.61031
1.04126	0.50828
0.22521	0.27871
-0.94787	0.61031
-0.89686	0.20219
-0.13181	-0.10391
0.78624	0.10015
0.73524	-0.12942
0.81175	-0.25695
0.45472	0.12566
0.07220	0.27871
0.04670	0.30422
-0.18282	-0.23145
0.02119	-1.07320
-0.05531	0.15117
-0.18282	0.76336
0.25071	-0.43551
0.12320	1.06945
-0.13181	1.55410
-0.23382	-0.46102
0.45472	-0.58856
0.37822	-0.00188
0.30171	0.35523
-0.36133	1.32453
-0.69285	0.15117
0.96476	0.25320
0.88825	0.12566
0.78624	0.02363
0.63323	-0.00188
0.22521	0.15117
-0.08081	-0.00188
-0.18282	-0.66508
-0.28482	-1.07320
-0.13181	0.81437
0.53123	-0.00188
-0.08081	0.94191
-1.33039	-0.20594
0.12320	0.22769
0.22521	1.60511
0.60773	-0.18043
0.14870	-0.10391
0.48022	-0.97117
0.55673	0.55929
-0.18282	0.89089
0.25071	0.27871
0.40372	0.58480
0.40372	0.55929
-0.00431	0.17668
0.22521	0.02363
-0.00431	-0.33348
-0.51434	-0.15492
-0.13181	-0.07840
0.22521	0.20219
0.07220	-0.46102
0.07220	0.40625
0.02119	0.40625
0.76074	0.22769
0.60773	0.07465
0.12320	0.15117
-0.48884	-0.35899
-0.31033	0.81437
0.45472	0.86539
0.55673	0.83988
0.25071	-1.27726
0.07220	-0.46102
0.19971	1.40105
0.58223	0.86539
-0.00431	0.63582
-0.13181	0.17668
-0.05531	-0.18043
-0.43783	-0.30797
-0.08081	-0.63957
0.07220	0.55929
0.63323	0.35523
0.78624	-0.30797
0.58223	-1.27726
0.76074	-0.28246
-1.12638	1.45206
-0.74385	-2.11902
0.70974	0.63582
0.50573	0.43176
-0.08081	1.19699
-0.53984	1.47757
0.07220	1.06945
0.17421	0.07465
0.99026	0.10015
0.93925	-0.30797
0.65874	-0.07840
0.35272	0.04914
0.09770	0.68683
-0.13181	-1.25176
-0.38683	-0.07840
-0.28482	-0.89465
-0.36133	0.55929
-0.33583	0.50828
-0.28482	0.43176
0.27621	0.73785
0.40372	0.22769
0.65874	-0.46102
0.60773	0.61031
0.40372	0.17668
-0.10631	-1.14973
0.07220	0.76336
0.09770	0.48277
0.09770	0.58480
0.37822	-0.23145
0.48022	0.20219
0.48022	0.04914
0.14870	-0.25695
-0.43783	0.53379
-0.64185	0.66132
0.68424	-0.18043
0.65874	0.32972
0.09770	0.48277
-0.56534	0.04914
0.09770	0.02363
0.35272	-0.18043
-0.02981	0.32972
0.48022	-0.10391
0.17421	-0.41000
0.45472	-0.86914
0.25071	0.86539
0.22521	0.53379
0.02119	0.73785
-0.20832	0.25320
-0.31033	1.17148
0.04670	0.17668
-0.36133	-1.27726
0.35272	-2.22105
0.70974	0.43176
0.30171	1.24800
0.07220	1.32453
0.04670	0.86539
0.22521	0.58480
0.32721	0.40625
0.27621	0.10015
0.19971	-0.28246
0.09770	0.55929
0.19971	-0.74160
0.07220	-0.30797
-0.66735	-0.58856
-0.18282	-0.97117
0.17421	0.20219
0.30171	0.66132
0.42922	1.96222
0.53123	0.53379
0.30171	-0.10391
-0.02981	1.01843
-0.18282	0.10015
0.40372	0.86539
0.27621	-1.96597
0.35272	-2.32308
0.30171	0.12566
0.04670	1.68163
0.42922	1.32453
-0.79486	0.38074
-0.61635	-0.56305
-0.51434	0.66132
0.76074	1.04394
0.78624	0.40625
0.60773	-0.81812
0.73524	-0.81812
0.35272	1.12046
0.02119	-0.05289
0.07220	0.17668
-0.02981	0.43176
-0.25932	-0.12942
-0.28482	0.12566
0.09770	0.55929
0.12320	-0.53754
0.22521	-0.48652
0.50573	0.66132
0.14870	1.09496
0.30171	-1.07320
-0.23382	0.27871
0.12320	0.20219
0.40372	1.14597
0.14870	0.32972
0.04670	-0.38449
-0.38683	-0.20594
0.76074	0.35523
0.58223	-0.41000
0.65874	0.86539
-0.10631	1.55410
-0.20832	-0.15492
-0.08081	0.10015
0.32721	0.15117
0.27621	-0.30797
0.17421	-0.99668
0.07220	-0.23145
0.04670	0.20219
-0.48884	0.48277
0.22521	0.35523
0.14870	0.15117
0.48022	0.40625
0.50573	0.53379
-0.41233	-1.14973
-0.97337	0.99292
-0.38683	1.68163
0.19971	-1.45582
0.88825	-1.53234
0.88825	-0.20594
0.93925	1.37554
0.68424	0.71234
0.27621	0.43176
-0.38683	0.48277
-0.66735	0.45726
0.14870	0.45726
0.45472	0.04914
0.27621	-0.48652
-0.76936	0.04914
-0.53984	0.15117
0.27621	0.12566
0.76074	-1.45582
0.63323	-0.35899
0.42922	0.76336
-0.13181	1.01843
-0.15732	0.45726
0.27621	0.86539
0.42922	-0.51203
0.53123	0.38074
0.27621	0.38074
-0.05531	-0.94566
-0.94787	-0.66508
-0.61635	-0.05289
0.55673	1.17148
0.55673	0.81437
0.42922	0.76336
1.11776	0.45726
0.63323	-0.07840
0.55673	0.02363
0.37822	0.17668
-1.04987	0.30422
-0.87136	-0.20594
0.32721	-0.00188
0.68424	-0.07840
0.35272	-0.07840
0.32721	-0.20594
0.02119	0.50828
-0.05531	0.04914
0.35272	-0.18043
0.35272	-0.41000
-0.10631	0.61031
0.12320	0.35523
0.12320	0.30422
-0.23382	0.50828
0.17421	1.04394
0.19971	-0.74160
0.48022	0.78886
0.65874	0.50828
0.02119	-0.61406
0.14870	-0.86914
-0.20832	0.68683
-0.31033	0.40625
0.27621	0.02363
0.73524	0.89089
0.45472	0.76336
-0.76936	-0.35899
0.12320	-0.38449
0.32721	0.22769
0.86275	0.73785
0.88825	0.86539
-1.10088	-0.25695
0.12320	-1.68539
0.32721	0.04914
0.53123	-0.12942
0.04670	1.09496
0.04670	1.17148
0.25071	0.43176
0.50573	-1.22625
0.14870	-0.58856
0.35272	1.06945
-0.08081	0.43176
-0.61635	0.89089
-0.43783	0.53379
0.02119	0.27871
0.63323	-0.33348
0.50573	-0.43551
0.40372	0.96742
0.53123	0.04914
0.14870	-0.76711
-0.08081	0.27871
0.14870	0.20219
-0.20832	-0.05289
-0.38683	0.63582
0.02119	-0.25695
0.32721	0.40625
0.53123	0.04914
0.93925	-0.30797
0.19971	0.15117
-0.10631	0.89089
0.35272	0.94191
0.14870	0.22769
0.07220	-0.51203
0.12320	-0.41000
0.02119	-0.12942
0.22521	0.96742
0.09770	0.76336
0.32721	0.02363
0.22521	-0.25695
0.37822	-0.97117
-0.59084	0.25320
-1.68742	0.73785
-0.53984	0.43176
1.06676	-0.07840
0.76074	-0.02739
0.45472	0.12566
0.93925	-0.10391
0.48022	0.12566
0.65874	0.58480
0.25071	0.53379
0.40372	0.35523
0.22521	0.17668
0.09770	-0.10391
0.04670	-0.00188
-0.20832	0.04914
-0.33583	0.17668
-0.20832	-0.38449
-0.20832	-0.23145
-0.02981	0.50828
0.02119	1.17148
-0.36133	0.81437
0.55673	0.58480
0.17421	-1.20074
0.65874	-0.15492
0.58223	0.20219
0.63323	0.76336
0.37822	-0.51203
-1.22839	0.73785
-0.13181	0.83988
0.60773	-0.12942
1.14327	-0.94566
0.99026	-0.10391
-0.10631	0.40625
0.07220	0.35523
-0.00431	0.38074
-0.25932	0.35523
-0.82036	0.94191
-0.02981	-0.69059
0.53123	0.40625
0.63323	-0.41000
0.32721	-0.84363
0.58223	0.50828
-0.38683	2.19179
-0.99887	0.25320
1.42379	-0.10391
-0.61635	0.04914
-1.86593	-0.05289
-0.82036	0.45726
0.68424	0.22769
1.32178	-0.15492
1.37278	-0.00188
0.78624	-0.79262
0.73524	0.10015
0.42922	0.40625
0.32721	0.17668
0.25071	0.63582
-0.10631	-0.46102
-0.05531	0.35523
-0.23382	-0.10391
-2.52897	2.01323
-1.30489	1.37554
0.68424	-0.18043
0.60773	-1.12422
1.27078	-0.15492
1.11776	0.04914
0.78624	0.86539
0.73524	-0.02739
0.07220	0.55929
0.07220	-0.41000
0.12320	-0.02739
-0.94787	-0.99668
-0.89686	-1.17523
0.58223	0.22769
0.65874	1.32453
0.63323	0.71234
0.68424	1.45206
1.01576	0.35523
0.12320	0.66132
-0.92237	0.07465
-1.10088	-0.94566
-1.27939	-0.66508
0.02119	-0.25695
0.96476	0.58480
0.93925	0.45726
0.81175	1.40105
1.21977	0.25320
0.96476	-2.50164
0.86275	-1.04770
-0.51434	0.81437
-0.36133	1.17148
-0.33583	0.76336
0.07220	0.55929
0.32721	0.76336
0.12320	0.63582
-0.18282	-0.76711
-0.79486	-0.05289
-0.33583	0.10015
0.27621	0.40625
0.60773	-0.86914
-0.02981	0.53379
0.02119	-0.15492
0.55673	-0.00188
0.88825	0.55929
0.65874	-0.07840
0.76074	0.61031
-0.02981	0.55929
-0.28482	-0.33348
-0.15732	0.12566
-0.08081	0.17668
-0.10631	0.27871
0.68424	-0.33348
0.07220	0.68683
-0.82036	0.63582
0.04670	-0.30797
0.19971	-0.97117
0.63323	-0.41000
0.99026	0.71234
0.45472	1.42656
-0.28482	-0.18043
0.12320	-0.43551
-1.33039	-0.84363
-1.48340	0.58480
0.19971	0.89089
1.44929	1.12046
1.37278	1.19699
1.34728	0.22769
0.35272	-0.07840
0.04670	-0.53754
-0.02981	-0.02739
-0.36133	-0.15492
-0.99887	-0.30797
-0.00431	-0.35899
0.27621	0.25320
0.40372	0.66132
0.40372	-0.07840
-0.05531	0.22769
-0.48884	-0.84363
0.14870	-0.25695
0.58223	0.81437
0.55673	1.17148
-0.25932	0.38074
-0.25932	0.22769
0.65874	-0.51203
0.48022	1.06945
0.53123	-0.33348
0.58223	-1.07320
0.42922	-0.07840
-1.10088	1.35003
-0.76936	0.50828
0.30171	1.04394
0.42922	-0.99668
0.55673	-0.51203
0.48022	0.02363
0.70974	0.68683
0.55673	0.20219
-0.79486	0.07465
-0.66735	0.10015
-0.51434	-0.12942
0.35272	0.17668
0.78624	-0.66508
-0.08081	-0.71609
0.81175	0.55929
0.65874	0.73785
0.02119	0.55929
-0.18282	0.55929
0.35272	0.38074
0.17421	0.15117
0.07220	-0.41000
0.35272	0.15117
0.22521	1.06945
0.25071	0.35523
0.19971	-0.10391
-0.53984	0.38074
-0.33583	-0.02739
-0.10631	-2.32308
-0.23382	-0.66508
0.04670	0.73785
0.83725	0.89089
0.96476	1.14597
0.22521	0.55929
0.04670	0.91640
0.14870	0.15117
0.14870	-0.23145
0.45472	0.45726
0.76074	-0.25695
-0.28482	-1.02219
-0.43783	-0.63957
0.63323	0.53379
0.32721	0.10015
0.02119	1.35003
0.14870	-0.46102
-0.08081	-0.12942
0.37822	0.71234
-0.28482	-0.38449
0.07220	0.58480
0.27621	0.15117
-0.00431	0.76336
-0.20832	0.10015
0.12320	-0.92016
0.55673	0.20219
0.07220	0.15117
-0.28482	0.15117
0.32721	0.15117
0.37822	0.68683
0.50573	0.17668
0.55673	-0.10391
0.12320	0.15117
0.19971	0.35523
-0.02981	-0.28246
-0.15732	0.22769
-0.61635	0.58480
-0.20832	0.53379
0.68424	-1.45582
0.53123	0.20219
0.27621	0.73785
0.02119	0.35523
-0.53984	0.78886
-0.56534	-0.35899
0.58223	0.48277
0.73524	-0.02739
1.29628	-0.41000
0.58223	0.43176
0.42922	0.15117
0.19971	0.27871
0.19971	-0.81812
-0.13181	0.76336
-0.43783	0.04914
-1.10088	0.25320
-0.23382	0.10015
0.30171	0.35523
0.45472	0.20219
0.32721	-0.41000
0.02119	-0.05289
0.32721	0.58480
0.53123	0.40625
0.37822	-0.07840
0.53123	-0.18043
0.25071	0.45726
-0.38683	0.89089
-0.48884	-0.56305
0.02119	0.12566
0.14870	0.07465
0.45472	0.10015
0.63323	0.32972
0.50573	-0.51203
-0.10631	0.38074
-0.31033	0.89089
0.37822	0.61031
-0.20832	0.12566
-0.08081	-0.02739
0.60773	-0.69059
0.81175	-1.48133
0.48022	1.12046
0.27621	0.58480
-0.10631	-0.05289
-0.33583	0.40625
-0.64185	-2.11902
-0.25932	0.81437
0.12320	0.58480
0.35272	0.96742
-0.56534	0.99292
-0.28482	0.10015
0.42922	-0.00188
0.88825	0.12566
1.24527	0.35523
0.48022	0.35523
1.39828	0.17668
0.35272	-0.15492
-0.59084	-0.41000
-2.24845	0.02363
-0.84586	0.04914
0.76074	0.27871
1.01576	0.15117
1.19427	0.02363
0.73524	0.10015
-0.08081	-0.02739
-0.66735	0.17668
-0.02981	-0.07840
0.63323	0.43176
-0.69285	0.99292
-1.30489	1.04394
-0.76936	-1.43031
0.83725	0.22769
1.52579	0.50828
0.70974	0.83988
0.12320	-0.28246
0.63323	-0.46102
0.40372	0.12566
0.14870	0.45726
-0.02981	0.63582
-0.38683	0.04914
-0.08081	-0.51203
0.76074	0.35523
-0.56534	0.04914
-0.76936	0.94191
0.48022	0.43176
1.60230	-0.15492
1.83181	0.22769
-0.31033	0.73785
-1.91693	-0.35899
-2.96250	-1.60887
-0.10631	-1.04770
1.09226	0.50828
1.90832	0.68683
2.06133	0.40625
1.42379	1.01843
0.91375	0.96742
0.70974	0.35523
0.42922	-0.79262
-2.14644	0.32972
-2.35046	-0.12942
-0.13181	0.89089
0.63323	0.04914
0.45472	1.42656
-0.61635	-1.37929
0.68424	-0.97117
0.22521	0.32972
-0.00431	0.48277
1.04126	0.68683
1.16877	0.22769
-0.28482	1.06945
0.25071	0.38074
0.55673	-0.10391
0.50573	-1.30277
-0.79486	1.12046
-1.30489	-0.20594
0.17421	-0.33348
0.12320	-1.14973
0.58223	0.30422
0.48022	1.19699
0.81175	0.43176
0.68424	0.35523
0.32721	0.38074
0.07220	-0.46102
-0.02981	0.12566
-0.69285	0.25320
-0.94787	-0.05289
0.55673	0.40625
0.88825	0.30422
0.88825	-0.00188
0.73524	0.66132
0.55673	0.20219
-0.08081	-0.43551
-0.89686	0.45726
-0.64185	0.30422
0.27621	-0.51203
0.48022	-0.25695
-0.13181	-0.00188
-0.56534	-0.15492
0.25071	0.61031
0.53123	1.12046
1.04126	0.22769
0.63323	0.86539
0.32721	0.53379
-0.25932	-0.35899
-0.94787	-0.48652
0.27621	0.71234
0.53123	0.40625
0.35272	-0.15492
-0.08081	-1.12422
0.88825	-0.10391
0.99026	0.45726
-0.02981	0.71234
-0.18282	0.22769
-0.31033	0.89089
0.19971	-0.66508
-0.59084	-0.10391
-0.10631	0.35523
0.53123	0.91640
0.42922	-0.30797
0.48022	-0.20594
0.73524	0.02363
0.32721	0.10015
0.12320	0.48277
-0.97337	0.50828
-0.59084	0.55929
0.04670	-0.02739
0.35272	1.35003
0.63323	-1.55785
0.53123	-0.25695
0.09770	-0.00188
-0.48884	0.10015
-0.18282	0.15117
0.63323	0.68683
0.65874	0.55929
0.50573	0.43176
0.32721	0.40625
0.27621	0.43176
0.45472	-0.18043
-0.89686	0.22769
-0.25932	0.04914
-0.79486	-0.25695
0.17421	-1.12422
0.70974	0.04914
0.70974	0.30422
0.60773	0.25320
0.27621	0.43176
0.25071	1.27351
-0.02981	0.55929
0.04670	-0.15492
-0.74385	-0.30797
-0.18282	0.30422
0.58223	0.66132
-0.08081	0.45726
0.22521	-0.02739
1.37278	0.12566
1.11776	-0.35899
-1.33039	0.04914
-0.87136	0.04914
0.60773	0.20219
0.99026	0.15117
0.45472	-0.10391
0.25071	-0.07840
0.32721	0.35523
0.40372	-0.28246
0.35272	0.22769
-0.53984	0.63582
-1.07538	1.17148
-0.69285	0.35523
-0.08081	-1.88945
0.60773	-0.25695
0.76074	1.22250
0.78624	-0.07840
0.40372	-0.46102
0.04670	0.50828
-0.00431	1.12046
-0.00431	0.81437
0.30171	0.66132
0.45472	0.83988
-0.10631	-0.61406
-0.69285	-0.94566
-0.23382	-0.30797
0.32721	0.30422
0.63323	0.20219
0.99026	-0.25695
0.93925	0.86539
-0.02981	0.17668
-0.51434	0.45726
-0.89686	-1.35379
-0.46334	-1.50683
0.09770	0.94191
0.93925	0.83988
0.83725	0.38074
0.14870	0.81437
0.37822	1.35003
0.02119	0.73785
-0.41233	-0.18043
0.25071	-0.28246
0.12320	-0.07840
-0.18282	0.15117
0.02119	-0.92016
0.22521	-0.12942
0.27621	0.43176
0.99026	0.45726
-0.36133	0.25320
-1.63641	0.04914
-0.59084	-0.43551
0.45472	0.30422
0.73524	-0.10391
0.91375	0.12566
0.81175	1.04394
0.93925	0.76336
-0.00431	0.25320
-0.13181	0.83988
-0.94787	-0.05289
-0.94787	-1.12422
0.32721	-0.53754
0.78624	-0.00188
0.83725	0.86539
0.60773	0.76336
0.45472	0.35523
0.35272	-0.51203
0.02119	-0.00188
-0.36133	0.58480
-0.82036	0.20219
-1.02437	0.73785
0.55673	-0.71609
0.88825	-0.15492
0.73524	0.35523
0.19971	-0.05289
-0.15732	0.61031
0.14870	0.71234
0.76074	0.35523
0.53123	-0.18043
-0.05531	0.15117
-0.84586	0.17668
-0.38683	-0.18043
0.35272	0.07465
0.50573	-0.30797
0.37822	-0.18043
0.37822	0.04914
0.35272	0.27871
0.02119	0.27871
0.17421	0.17668
-0.10631	0.83988
0.91375	0.73785
0.04670	0.45726
-0.79486	-0.00188
-1.50890	-0.38449
-0.02981	0.40625
1.09226	0.35523
1.34728	-0.35899
1.01576	-0.63957
0.42922	0.96742
-0.10631	-0.00188
-0.82036	0.43176
-0.59084	0.99292
0.32721	-0.76711
0.68424	-0.28246
0.60773	0.15117
0.32721	0.40625
0.27621	0.25320
0.53123	0.04914
-0.02981	0.45726
-0.87136	0.35523
-0.53984	0.53379
0.14870	-1.53234
0.09770	-0.46102
0.25071	0.76336
0.45472	1.19699
0.45472	0.40625
0.35272	0.43176
0.73524	0.48277
0.04670	0.76336
-0.74385	-0.00188
-0.84586	-0.89465
-0.51434	-0.35899
0.88825	0.27871
0.60773	-0.05289
1.11776	0.10015
0.19971	0.94191
0.32721	0.55929
-0.10631	-0.46102
-0.13181	-0.79262
0.19971	-0.02739
0.19971	0.38074
0.32721	0.76336
-0.05531	0.45726
-0.10631	0.35523
-0.28482	1.06945
-0.20832	-0.25695
0.22521	-0.38449
0.17421	0.78886
0.02119	-0.41000
0.48022	0.17668
0.07220	-0.15492
-0.00431	0.27871
0.68424	-0.35899
-0.43783	0.02363
-0.71835	0.30422
0.73524	0.63582
0.93925	0.71234
0.73524	-0.35899
0.91375	-0.46102
0.76074	0.15117
-0.18282	0.63582
-1.35589	0.35523
-1.30489	-0.35899
-0.05531	0.73785
0.96476	-0.02739
1.21977	-0.33348
0.93925	-0.43551
0.17421	0.68683
0.40372	0.40625
0.17421	1.12046
-0.51434	0.68683
-0.97337	0.02363
-1.10088	-0.10391
0.17421	-0.28246
0.65874	-0.23145
0.93925	0.27871
0.96476	0.38074
-0.08081	-0.10391
-0.79486	0.10015
0.45472	-0.35899
0.37822	-0.33348
0.42922	0.27871
0.48022	0.86539
0.48022	0.35523
0.25071	0.20219
-0.43783	0.38074
-1.27939	0.04914
-0.28482	-0.79262
0.37822	-0.10391
0.70974	0.86539
0.73524	1.42656
0.63323	-0.00188
0.32721	-0.12942
-0.05531	0.10015
0.02119	0.10015
-0.10631	0.15117
0.25071	0.45726
-0.41233	-1.04770
0.42922	-0.74160
0.17421	-0.10391
0.12320	0.35523
0.02119	1.12046
-0.18282	0.94191
-0.20832	0.58480
-0.02981	0.32972
1.09226	0.45726
0.70974	0.30422
0.14870	0.07465
0.58223	0.04914
0.68424	-0.46102
-0.00431	-0.46102
-0.18282	0.10015
-0.10631	0.15117
-0.69285	0.04914
-0.76936	0.99292
0.63323	-0.30797
0.93925	0.68683
0.70974	-0.71609
-0.02981	-0.89465
-0.33583	0.53379
0.27621	-0.02739
0.42922	0.94191
0.32721	0.53379
0.22521	0.83988
-0.13181	0.96742
0.73524	0.66132
-0.08081	-0.86914
-1.25389	-0.76711
-1.07538	0.25320
0.60773	-0.00188
1.27078	0.40625
1.11776	0.07465
1.09226	-0.10391
0.12320	-0.25695
-1.30489	0.35523
0.02119	0.89089
0.37822	-0.46102
0.45472	0.12566
0.60773	0.45726
0.27621	0.12566
0.12320	-0.25695
-0.79486	0.55929
-0.28482	-0.35899
-0.10631	0.35523
0.55673	0.55929
1.06676	0.38074
0.50573	-0.56305
-0.97337	0.40625
-0.46334	0.02363
-0.02981	0.15117
0.45472	0.81437
-0.05531	0.68683
0.48022	-0.25695
1.44929	-1.35379
0.96476	0.55929
0.02119	1.80917
-0.61635	-0.94566
-0.69285	-0.66508
0.37822	-0.61406
0.12320	1.04394
-0.18282	1.14597
-1.10088	0.22769
-0.36133	0.35523
1.29628	0.10015
1.11776	0.25320
-0.18282	0.25320
0.58223	-0.05289
0.83725	-0.10391
-0.31033	-0.30797
0.60773	0.73785
-0.82036	-0.76711
-0.69285	-0.46102
0.25071	0.58480
0.83725	0.66132
0.14870	-0.28246
-1.22839	0.86539
0.12320	-0.33348
1.14327	-0.23145
0.78624	-0.10391
0.04670	0.91640
0.17421	0.66132
-0.51434	0.48277
-0.13181	-0.05289
0.58223	0.32972
0.60773	-0.20594
0.32721	-0.38449
0.27621	0.07465
0.22521	0.12566
0.68424	0.78886
0.48022	-0.30797
-0.69285	-0.81812
-2.40146	1.40105
-1.53441	0.45726
-0.69285	-0.15492
1.32178	0.10015
1.85731	0.30422
1.70430	0.10015
0.99026	0.17668
0.19971	0.15117
-0.00431	-0.76711
0.17421	0.35523
0.12320	0.71234
0.32721	-0.18043
0.12320	-1.09871
-1.12638	-0.48652
-0.56534	0.38074
-0.36133	0.94191
-0.51434	0.22769
0.32721	0.43176
0.48022	0.96742
0.99026	0.48277
0.93925	-0.05289
0.91375	-0.43551
-0.76936	0.07465
-2.63097	-0.30797
-0.53984	0.78886
1.34728	-0.10391
1.72980	-0.28246
0.48022	1.14597
0.37822	-0.18043
0.70974	0.10015
0.65874	-0.05289
-0.28482	0.04914
-0.08081	0.22769
-0.23382	0.81437
0.40372	1.24800
-0.08081	-0.12942
-0.28482	-2.01699
0.32721	-0.07840
-0.76936	0.83988
-1.50890	1.55410
0.60773	-0.61406
0.73524	-0.51203
-0.28482	0.53379
1.06676	0.78886
0.35272	-0.10391
0.42922	-0.43551
0.19971	0.30422
0.68424	0.68683
-0.08081	0.15117
-0.51434	0.38074
-0.00431	0.10015
0.32721	-0.05289
0.22521	-0.05289
0.48022	-0.05289
0.55673	-0.81812
-0.41233	0.86539
-1.10088	0.76336
-0.00431	-0.25695
0.68424	0.17668
0.65874	-0.18043
-0.56534	0.83988
