0.19971	0.35523
0.12320	0.07465
0.12320	0.12566
0.09770	0.20219
0.14870	0.15117
0.14870	0.12566
0.22521	0.07465
0.22521	0.27871
0.17421	0.27871
0.17421	0.20219
0.09770	0.17668
0.14870	0.17668
0.12320	0.15117
0.14870	0.02363
0.22521	0.04914
0.17421	0.10015
0.14870	0.22769
0.04670	0.20219
0.12320	0.15117
0.14870	0.10015
0.19971	0.10015
0.12320	0.04914
0.07220	0.17668
0.17421	0.25320
0.22521	0.22769
0.14870	0.20219
0.09770	0.20219
0.14870	0.10015
0.22521	0.10015
0.22521	0.07465
0.17421	0.02363
0.07220	0.12566
0.07220	0.38074
0.22521	0.17668
0.12320	0.15117
0.09770	0.15117
0.14870	0.07465
0.19971	0.10015
0.17421	0.20219
0.12320	0.12566
0.09770	0.12566
0.17421	0.10015
0.19971	0.15117
0.22521	0.20219
0.12320	0.20219
0.14870	0.12566
0.07220	0.22769
0.14870	0.27871
0.22521	0.15117
0.22521	0.10015
0.14870	0.07465
0.07220	0.12566
0.14870	0.17668
0.22521	0.15117
0.12320	0.10015
0.07220	0.12566
0.14870	0.25320
0.19971	0.27871
0.12320	0.17668
0.09770	0.07465
0.14870	0.10015
0.25071	0.10015
0.17421	0.10015
0.07220	0.15117
0.12320	0.22769
0.22521	0.10015
0.14870	0.17668
0.09770	0.22769
0.12320	0.15117
0.12320	0.07465
0.07220	0.15117
0.17421	0.22769
0.14870	0.22769
0.17421	0.17668
0.22521	0.17668
0.12320	0.04914
0.07220	0.02363
0.19971	0.20219
0.22521	0.15117
0.22521	0.10015
0.07220	0.17668
0.17421	0.20219
0.22521	0.50828
0.12320	0.20219
0.07220	-0.07840
0.22521	-0.02739
0.19971	-0.00188
0.09770	0.02363
0.07220	0.15117
0.14870	0.25320
0.12320	0.22769
0.14870	0.12566
0.07220	0.15117
0.19971	0.20219
0.19971	0.22769
0.17421	0.15117
0.09770	0.17668
0.09770	0.07465
0.14870	0.15117
0.22521	0.22769
0.14870	0.20219
0.07220	0.04914
0.14870	0.10015
0.19971	0.15117
0.12320	0.12566
0.07220	0.12566
0.07220	0.02363
0.12320	0.20219
0.22521	0.30422
0.12320	0.15117
0.09770	-0.00188
0.12320	0.20219
0.19971	0.30422
0.17421	0.07465
0.09770	0.02363
0.14870	0.12566
0.22521	0.22769
0.17421	0.17668
0.09770	0.12566
0.14870	0.12566
0.19971	0.20219
0.22521	0.15117
0.09770	0.10015
0.07220	0.17668
0.19971	0.15117
0.12320	0.10015
0.07220	0.17668
0.19971	0.25320
0.22521	0.15117
0.14870	0.02363
0.09770	0.04914
0.17421	0.12566
0.22521	0.12566
0.14870	0.17668
0.12320	0.15117
0.07220	0.15117
0.22521	0.25320
0.19971	0.35523
0.14870	-0.00188
0.09770	0.02363
0.17421	0.15117
0.12320	0.07465
0.07220	0.15117
0.14870	0.25320
0.14870	0.17668
0.12320	0.17668
0.07220	0.25320
0.14870	0.12566
0.14870	0.07465
0.09770	0.15117
0.14870	0.22769
0.17421	0.20219
0.14870	0.27871
0.07220	0.17668
0.19971	-0.00188
0.14870	0.07465
0.09770	0.20219
0.14870	0.04914
0.22521	0.02363
0.09770	0.25320
0.14870	0.25320
0.19971	0.04914
0.12320	0.15117
0.14870	0.20219
0.22521	0.07465
0.14870	0.15117
0.14870	0.20219
0.19971	0.17668
0.14870	0.10015
0.07220	0.12566
0.17421	0.15117
0.22521	0.10015
0.14870	0.17668
0.12320	0.20219
0.19971	0.07465
0.14870	0.17668
0.09770	0.22769
0.17421	0.15117
0.17421	0.15117
0.14870	0.22769
0.22521	0.07465
0.07220	0.12566
0.14870	0.04914
0.19971	0.04914
0.04670	0.15117
0.09770	0.20219
0.19971	0.25320
0.09770	0.12566
0.14870	0.12566
0.12320	0.04914
0.07220	0.20219
0.14870	0.15117
0.12320	0.07465
0.09770	0.15117
0.14870	0.15117
0.19971	0.10015
0.07220	0.17668
0.14870	0.20219
0.22521	0.20219
0.17421	0.30422
0.09770	0.10015
0.22521	0.10015
0.17421	-0.00188
0.07220	0.12566
0.19971	0.12566
0.12320	0.25320
0.07220	0.20219
0.22521	0.04914
0.12320	0.15117
0.07220	0.10015
0.17421	0.04914
0.14870	0.20219
0.22521	0.27871
0.14870	0.20219
0.09770	0.15117
0.17421	0.22769
0.12320	0.10015
0.17421	0.17668
0.09770	0.17668
0.22521	0.10015
0.12320	0.04914
0.09770	0.15117
0.19971	0.20219
0.14870	0.12566
0.09770	0.10015
0.14870	0.25320
0.22521	0.17668
0.12320	0.15117
0.14870	0.15117
0.22521	0.07465
0.14870	0.17668
0.12320	0.17668
0.19971	0.17668
0.12320	0.17668
0.07220	0.04914
0.14870	0.07465
0.22521	0.02363
0.07220	0.15117
0.12320	0.30422
0.22521	0.12566
0.09770	0.12566
0.14870	0.12566
0.22521	0.07465
0.17421	0.12566
0.14870	0.20219
0.22521	0.17668
0.17421	0.10015
0.14870	0.15117
0.22521	0.22769
0.12320	0.15117
0.09770	0.10015
0.12320	0.10015
0.22521	0.17668
0.17421	0.20219
0.09770	0.22769
0.17421	0.10015
0.22521	0.07465
0.22521	0.17668
0.12320	0.20219
0.09770	0.30422
0.07220	0.10015
0.14870	0.10015
0.22521	0.10015
0.22521	0.15117
0.14870	0.10015
0.07220	0.22769
0.14870	0.17668
0.22521	0.15117
0.14870	0.15117
0.17421	0.20219
0.09770	0.12566
0.14870	0.12566
0.17421	0.04914
0.17421	0.15117
0.14870	0.20219
0.07220	0.20219
0.09770	0.15117
0.17421	0.27871
0.22521	0.38074
0.14870	0.15117
0.07220	-0.00188
0.09770	-0.02739
0.12320	0.10015
0.17421	0.20219
0.17421	0.32972
0.14870	0.07465
0.09770	0.10015
0.19971	0.20219
0.17421	0.17668
0.12320	0.17668
0.07220	0.12566
0.14870	0.22769
0.22521	0.15117
0.09770	0.07465
0.14870	0.15117
0.22521	0.20219
0.14870	0.15117
0.07220	0.15117
0.14870	0.22769
0.17421	0.12566
0.09770	0.04914
0.14870	0.20219
0.22521	0.15117
0.14870	0.04914
0.14870	0.15117
0.19971	0.25320
0.14870	0.15117
0.07220	0.10015
0.14870	0.10015
0.19971	0.15117
0.14870	0.12566
0.04670	0.20219
0.17421	0.32972
0.22521	0.12566
0.14870	-0.00188
0.14870	-0.00188
0.22521	0.15117
0.17421	0.15117
0.07220	0.12566
0.14870	0.17668
0.19971	0.25320
0.17421	0.15117
0.07220	0.15117
0.14870	0.20219
0.19971	0.22769
0.14870	0.17668
0.04670	0.04914
0.14870	0.04914
0.19971	0.30422
0.14870	0.25320
0.14870	0.20219
0.14870	0.15117
0.07220	-0.05289
0.17421	0.12566
0.22521	0.17668
0.12320	0.15117
0.07220	0.15117
0.14870	0.10015
0.17421	0.17668
0.17421	0.30422
0.17421	0.22769
0.09770	0.20219
0.07220	0.15117
0.14870	0.10015
0.22521	0.20219
0.22521	0.12566
0.09770	0.07465
0.14870	0.12566
0.22521	0.17668
0.12320	0.22769
0.09770	0.15117
0.14870	0.04914
0.14870	0.07465
0.19971	0.10015
0.14870	0.12566
0.07220	0.15117
0.14870	0.07465
0.19971	0.20219
0.22521	0.30422
0.22521	0.25320
0.14870	0.10015
0.09770	0.02363
0.17421	0.10015
0.22521	0.15117
0.12320	0.35523
0.14870	0.27871
0.07220	0.07465
0.12320	0.02363
0.19971	0.02363
0.12320	0.17668
0.04670	0.04914
0.12320	0.27871
0.14870	0.30422
0.22521	0.07465
0.09770	0.10015
0.14870	0.25320
0.22521	0.17668
0.22521	0.12566
0.22521	0.12566
0.17421	0.12566
0.07220	0.15117
0.14870	0.20219
0.12320	0.27871
0.14870	0.20219
0.09770	0.02363
0.14870	0.07465
0.22521	0.17668
0.12320	0.20219
0.04670	0.10015
0.14870	0.15117
0.19971	0.15117
0.12320	0.07465
0.07220	0.22769
0.22521	0.15117
0.22521	0.17668
0.09770	0.20219
0.14870	0.12566
0.14870	0.07465
0.09770	0.17668
0.12320	0.15117
0.12320	0.12566
0.04670	0.15117
0.14870	0.22769
0.14870	0.12566
0.07220	0.07465
0.14870	0.30422
0.19971	0.22769
0.14870	0.12566
0.19971	0.10015
0.19971	-0.00188
0.14870	0.07465
0.07220	0.32972
0.19971	0.15117
0.17421	0.07465
0.17421	-0.02739
0.22521	0.04914
0.07220	0.20219
0.19971	0.32972
0.12320	0.20219
0.22521	0.12566
0.14870	0.02363
0.14870	0.17668
0.19971	0.45726
0.12320	0.04914
0.07220	0.04914
0.19971	0.15117
0.17421	0.22769
0.09770	0.07465
0.14870	0.22769
0.19971	0.17668
0.14870	0.07465
0.14870	0.12566
0.22521	0.15117
0.14870	0.04914
0.07220	0.10015
0.19971	0.15117
0.14870	0.07465
0.07220	0.22769
0.19971	0.12566
0.14870	0.17668
0.07220	0.07465
0.22521	0.15117
0.07220	0.12566
0.22521	0.07465
0.12320	0.20219
0.17421	0.20219
0.14870	0.15117
0.12320	0.07465
0.22521	0.12566
0.12320	0.20219
0.09770	0.12566
0.14870	0.20219
0.19971	0.04914
0.14870	-0.02739
0.07220	0.15117
0.14870	0.15117
0.14870	0.10015
0.07220	0.20219
0.14870	0.17668
0.22521	0.10015
0.09770	0.17668
0.14870	0.38074
0.12320	0.10015
0.07220	0.04914
0.14870	0.15117
0.14870	0.10015
0.12320	0.04914
0.12320	0.12566
0.19971	0.30422
0.17421	0.27871
0.09770	0.02363
0.22521	0.10015
0.09770	0.20219
0.17421	0.12566
0.17421	0.12566
0.12320	0.20219
0.19971	0.17668
0.09770	0.17668
0.14870	0.10015
0.12320	0.12566
0.07220	0.25320
0.22521	0.22769
0.12320	0.25320
0.14870	0.15117
0.19971	0.10015
0.09770	0.15117
0.19971	0.15117
0.14870	0.10015
0.09770	0.10015
0.22521	-0.00188
0.12320	0.15117
0.12320	0.12566
0.19971	0.07465
0.07220	0.22769
0.14870	0.40625
0.09770	0.17668
0.14870	0.00000
0.12320	0.00000
0.12320	0.00000
0.19971	0.00000
0.09770	0.04914
0.12320	0.10015
0.19971	0.17668
0.12320	0.10015
0.07220	0.17668
0.14870	0.25320
0.14870	0.15117
0.07220	0.17668
0.14870	0.22769
0.14870	0.12566
0.17421	0.12566
0.19971	0.40625
0.09770	0.04914
0.22521	0.07465
0.12320	0.04914
0.14870	0.30422
0.17421	0.12566
0.17421	-0.05289
0.14870	0.04914
0.14870	0.07465
0.14870	0.15117
0.09770	0.15117
0.19971	0.30422
0.07220	0.17668
0.17421	0.17668
0.22521	0.15117
0.09770	0.20219
0.12320	0.25320
0.14870	0.20219
0.07220	0.17668
0.25071	0.25320
0.14870	0.12566
0.07220	0.02363
0.12320	0.15117
0.19971	0.22769
0.09770	0.04914
0.07220	-0.02739
0.14870	0.07465
0.22521	0.20219
0.14870	0.30422
0.07220	0.12566
0.12320	0.12566
0.22521	0.15117
0.14870	0.15117
0.07220	0.07465
0.12320	0.15117
0.19971	0.17668
0.22521	0.12566
0.12320	0.07465
0.12320	0.15117
0.12320	0.22769
0.14870	0.17668
0.12320	0.07465
0.14870	0.10015
0.19971	0.22769
0.14870	0.25320
0.07220	0.07465
0.14870	-0.00188
0.19971	0.04914
0.19971	0.22769
0.12320	0.12566
0.07220	0.07465
0.12320	0.15117
0.22521	0.20219
0.17421	0.15117
0.09770	0.30422
0.14870	0.17668
0.19971	0.04914
0.14870	0.20219
0.14870	0.17668
0.04670	0.02363
0.22521	0.07465
0.14870	0.12566
0.12320	0.15117
0.19971	0.22769
0.14870	0.10015
0.12320	0.22769
0.19971	0.15117
0.09770	0.07465
0.14870	0.17668
0.17421	0.25320
0.19971	0.17668
0.07220	0.04914
0.14870	0.30422
0.22521	0.25320
0.14870	-0.00188
0.09770	0.04914
0.22521	0.10015
0.09770	0.10015
0.14870	0.15117
0.12320	0.22769
0.07220	0.15117
0.17421	0.22769
0.12320	0.22769
0.07220	-0.00188
0.22521	0.15117
0.09770	0.12566
0.12320	0.12566
0.12320	0.15117
0.14870	0.07465
0.19971	0.22769
0.07220	0.10015
0.14870	0.20219
0.14870	0.15117
0.09770	0.04914
0.22521	0.25320
0.14870	0.12566
0.12320	0.20219
0.14870	0.43176
0.09770	0.27871
0.22521	0.07465
0.12320	-0.00188
0.07220	0.07465
0.19971	0.10015
0.07220	0.12566
0.14870	0.12566
0.14870	0.07465
0.17421	0.15117
0.14870	0.22769
0.09770	0.40625
0.14870	0.22769
0.17421	0.02363
0.14870	0.02363
0.19971	0.04914
0.09770	-0.00188
0.14870	0.22769
0.09770	0.12566
0.14870	0.15117
0.12320	0.27871
0.14870	0.15117
0.12320	0.17668
0.04670	0.12566
0.19971	0.25320
0.07220	0.12566
0.17421	0.07465
0.17421	0.07465
0.09770	0.12566
0.22521	0.15117
0.14870	0.12566
0.14870	0.27871
0.22521	0.15117
0.07220	0.12566
0.14870	0.22769
0.19971	0.15117
0.12320	0.07465
0.07220	-0.33348
0.19971	0.12566
0.09770	0.25320
0.12320	0.04914
0.19971	0.07465
0.04670	0.81437
0.17421	0.58480
0.27621	-0.38449
0.14870	-0.05289
0.07220	0.76336
0.19971	0.35523
0.22521	-0.25695
0.07220	-0.30797
0.12320	-1.48133
0.04670	-0.48652
-0.15732	0.73785
0.04670	1.93671
0.17421	0.78886
0.53123	-0.15492
0.70974	-1.07320
0.25071	-0.07840
0.02119	1.17148
0.04670	0.32972
-0.08081	-0.58856
-0.02981	0.78886
0.42922	1.91120
0.53123	-0.86914
0.32721	0.22769
-0.05531	0.15117
-0.53984	-1.83844
-0.76936	-0.43551
0.27621	2.88050
0.73524	-1.96597
0.73524	-4.05761
0.73524	-2.11902
0.65874	5.12518
0.25071	3.00804
-0.56534	-2.45062
-0.05531	1.80917
0.37822	-0.46102
-1.76392	-3.21585
-0.84586	2.49788
-1.17738	3.64573
-0.36133	-0.86914
1.88281	4.18139
2.34184	-0.12942
1.80631	-1.58336
0.45472	-6.32780
-0.02981	-1.04770
-0.84586	-0.69059
-2.80949	1.52859
1.24527	2.49788
0.35272	1.57960
-0.02981	1.98773
1.24527	3.05905
1.27078	-1.53234
0.53123	-8.64900
0.58223	-2.57816
-0.64185	2.65093
-0.18282	2.42136
0.63323	3.77327
0.27621	0.04914
0.14870	0.66132
-1.86593	1.47757
-3.49803	1.14597
-1.48340	-1.71090
-0.69285	1.96222
1.75531	-0.89465
3.05589	-3.08831
1.32178	-3.57296
1.57679	1.70714
1.93382	2.42136
0.63323	-1.20074
-1.89143	-5.61358
1.14327	3.00804
0.68424	3.08456
-0.99887	0.20219
-1.68742	1.06945
-1.45790	0.53379
0.81175	-2.57816
1.85731	1.68163
-0.89686	0.17668
-0.89686	3.21210
1.11776	-0.76711
1.19427	-0.86914
1.11776	1.80917
0.48022	-3.08831
-2.88599	1.91120
0.83725	1.80917
-0.74385	-1.45582
-0.76936	-3.03730
0.91375	0.78886
1.21977	1.01843
1.06676	-0.28246
0.83725	1.01843
0.83725	2.06425
0.22521	0.99292
-0.33583	-1.35379
-0.66735	-0.12942
-0.13181	1.29902
-0.74385	-0.76711
0.04670	-1.53234
0.63323	1.35003
0.58223	1.55410
0.37822	0.07465
-0.31033	-4.59327
-2.22295	-2.42511
-0.76936	1.40105
1.37278	1.65613
1.60230	1.93671
1.98482	3.23761
1.80631	-0.00188
0.48022	-1.40480
-2.55447	-0.10391
-1.53441	0.76336
-1.94243	1.47757
0.93925	0.99292
1.16877	-3.41992
1.44929	-1.20074
1.04126	0.40625
0.68424	2.34484
0.50573	1.06945
-0.05531	0.66132
-1.43240	-2.32308
-1.12638	-1.58336
-0.05531	-4.59327
-0.02981	0.73785
0.55673	2.26831
0.81175	2.82948
0.40372	1.98773
0.32721	0.91640
-0.18282	0.94191
-0.64185	-3.03730
-0.89686	-0.20594
0.65874	1.17148
0.58223	-0.81812
0.25071	-1.14973
0.17421	0.04914
0.81175	0.45726
1.24527	0.27871
1.85731	0.55929
0.70974	0.35523
-1.81492	0.17668
-2.42696	0.76336
-0.99887	-1.22625
0.78624	-0.00188
1.19427	0.66132
0.83725	-0.38449
0.55673	-0.05289
0.45472	0.71234
0.22521	1.93671
-0.10631	-0.07840
1.01576	0.20219
-1.17738	-0.23145
-1.63641	-1.53234
-0.20832	0.12566
-0.28482	-0.38449
0.86275	-2.75671
0.53123	1.06945
0.83725	2.21730
0.93925	3.05905
0.09770	1.75816
0.14870	0.25320
0.22521	0.76336
0.53123	-0.51203
0.70974	-0.20594
-0.13181	-1.20074
-0.99887	-0.10391
-0.38683	0.53379
0.02119	-2.29757
0.70974	0.25320
0.63323	-4.36370
-0.87136	-0.10391
-0.89686	1.09496
0.91375	1.73265
0.78624	1.22250
0.37822	1.37554
0.70974	1.42656
0.60773	2.03874
0.12320	1.29902
0.02119	-0.97117
0.12320	0.50828
0.02119	-3.98109
-0.02981	0.73785
0.02119	2.26831
0.07220	-0.79262
-0.20832	-0.66508
-0.25932	0.89089
-0.20832	-0.05289
-0.00431	-0.56305
-0.00431	0.15117
0.35272	1.01843
-0.13181	0.78886
0.09770	0.04914
0.88825	-0.12942
0.14870	0.63582
0.76074	0.15117
1.01576	-1.99148
0.83725	-0.99668
0.09770	1.17148
-0.15732	-0.69059
-0.20832	0.40625
-0.28482	0.50828
-0.41233	0.94191
-0.18282	2.31933
-0.28482	1.27351
-0.02981	-2.24656
0.55673	-0.86914
0.40372	0.32972
0.73524	0.86539
-0.20832	0.71234
-0.28482	0.73785
0.27621	-0.51203
0.48022	-0.46102
0.60773	-0.69059
-0.00431	1.60511
-0.41233	0.25320
0.19971	-1.12422
0.37822	0.17668
0.58223	-0.18043
0.42922	0.61031
-0.05531	-0.02739
-0.18282	0.68683
-0.20832	0.94191
-0.05531	0.53379
-0.13181	1.47757
0.07220	-0.79262
0.73524	-0.10391
0.48022	1.19699
-0.15732	0.96742
-0.51434	-6.02170
-0.33583	-0.05289
0.42922	0.73785
0.63323	1.65613
0.58223	0.89089
0.42922	0.10015
0.32721	1.37554
0.30171	1.17148
0.50573	0.89089
-0.31033	-0.86914
-0.71835	-1.81293
-0.74385	-0.15492
-0.18282	0.35523
0.55673	1.01843
0.02119	0.27871
0.48022	0.66132
1.29628	0.27871
0.19971	0.61031
-0.08081	-0.20594
0.12320	-0.66508
-0.61635	-0.25695
-0.38683	0.76336
0.60773	-0.71609
0.68424	0.40625
0.58223	1.45206
0.50573	-1.53234
0.42922	-1.86394
0.14870	0.55929
-0.36133	1.86019
-1.15188	3.11007
-1.20288	-2.60367
-0.13181	-1.99148
0.58223	2.72745
0.70974	-0.71609
0.50573	0.61031
0.55673	2.47238
0.50573	0.38074
0.37822	-0.18043
0.27621	0.58480
0.09770	-0.15492
0.12320	-1.14973
0.04670	-0.15492
-0.05531	0.99292
0.02119	0.17668
0.12320	-0.89465
0.02119	-2.01699
-0.25932	0.66132
-0.41233	0.40625
-0.00431	-1.37929
1.01576	-0.10391
0.48022	1.63062
0.22521	1.68163
-0.53984	0.81437
0.45472	0.83988
-0.43783	0.83988
0.55673	0.32972
1.06676	0.12566
0.60773	-0.20594
0.30171	0.12566
-1.40690	-0.15492
0.17421	-1.17523
0.83725	-1.71090
0.60773	1.78367
0.40372	-0.05289
0.22521	-0.63957
-0.33583	0.61031
-0.56534	0.63582
-0.02981	0.81437
0.02119	0.68683
-0.00431	0.35523
-0.18282	-2.39961
-0.28482	0.25320
0.04670	1.37554
0.53123	1.86019
0.65874	1.17148
0.42922	0.30422
0.35272	1.17148
0.25071	-0.35899
0.22521	-1.09871
0.02119	-1.63437
-0.15732	0.02363
-0.15732	-0.00188
0.25071	0.27871
-0.00431	0.38074
-0.20832	0.53379
0.45472	0.50828
0.91375	0.10015
0.42922	1.22250
-0.33583	-0.63957
0.14870	-0.89465
-0.20832	0.76336
-0.00431	1.17148
0.40372	1.04394
0.78624	0.02363
-0.00431	-0.58856
0.50573	-1.35379
0.53123	-0.12942
0.48022	0.76336
0.07220	0.02363
-0.89686	0.61031
-0.31033	-0.58856
0.07220	0.89089
0.55673	1.14597
0.17421	-1.81293
-0.48884	0.32972
0.12320	1.70714
0.40372	-0.86914
0.53123	-0.15492
0.40372	0.94191
0.37822	1.32453
0.17421	0.10015
0.04670	-0.25695
-0.02981	0.53379
0.22521	-0.86914
-0.00431	-0.15492
-0.10631	0.07465
0.37822	-0.15492
0.19971	-0.20594
0.25071	0.53379
0.02119	0.30422
-0.08081	1.19699
-0.13181	-0.28246
0.48022	-1.22625
0.50573	-0.46102
0.02119	1.70714
-0.02981	1.17148
-0.02981	0.99292
0.09770	-0.02739
0.40372	-1.45582
0.32721	-0.15492
0.50573	0.35523
0.58223	-0.35899
0.12320	0.63582
-0.02981	0.71234
-1.10088	-1.35379
-0.25932	-1.37929
0.22521	0.91640
0.60773	1.42656
0.68424	1.70714
-0.10631	0.02363
-0.46334	-0.71609
0.37822	-0.38449
-0.08081	1.19699
-0.66735	0.73785
0.81175	0.20219
0.91375	-1.25176
0.22521	0.66132
0.19971	-0.20594
0.37822	0.10015
0.32721	0.32972
-0.13181	-0.15492
0.02119	-0.58856
0.02119	0.55929
-0.15732	1.01843
0.35272	0.45726
0.12320	-0.71609
-0.56534	0.10015
-0.76936	0.68683
0.22521	0.94191
0.68424	-0.76711
0.88825	-0.18043
0.70974	0.45726
-0.05531	2.21730
-0.69285	-1.50683
0.32721	-0.07840
0.81175	0.25320
0.35272	0.89089
0.09770	1.37554
-0.64185	0.35523
0.12320	-0.35899
0.07220	-0.10391
0.63323	-0.35899
-0.38683	-0.02739
-0.08081	-0.07840
0.50573	-0.28246
0.60773	-0.20594
0.73524	0.43176
-0.15732	0.30422
-1.04987	0.35523
0.27621	0.35523
0.53123	0.99292
-0.05531	0.27871
0.07220	-0.92016
0.73524	-0.25695
0.32721	-0.38449
-0.23382	0.58480
-0.20832	-0.94566
0.17421	1.52859
0.55673	3.84979
0.22521	-0.07840
-0.02981	-2.11902
0.12320	-1.30277
0.12320	-0.71609
-0.02981	0.78886
-0.43783	0.71234
-0.02981	0.99292
0.40372	0.45726
0.19971	-0.84363
0.63323	-1.25176
0.32721	0.73785
0.17421	1.09496
0.09770	1.09496
-0.00431	-0.07840
-0.13181	-1.43031
0.19971	-1.37929
0.30171	0.50828
-0.10631	0.45726
0.32721	1.19699
0.65874	0.55929
0.14870	-0.35899
-0.69285	0.63582
-0.02981	-0.30797
0.04670	0.35523
0.37822	-0.25695
0.40372	-0.38449
0.19971	0.63582
0.53123	0.38074
0.02119	0.43176
0.25071	0.02363
0.30171	0.22769
0.12320	0.32972
-0.00431	0.35523
-0.41233	-0.23145
-0.33583	-0.66508
-0.00431	0.38074
0.53123	-0.43551
0.07220	0.76336
-0.33583	0.43176
0.53123	-0.05289
0.30171	1.01843
0.65874	0.35523
0.58223	0.35523
0.35272	0.63582
0.37822	-0.53754
-0.28482	-1.68539
-0.18282	0.55929
0.19971	0.63582
0.40372	0.63582
-0.10631	0.66132
0.22521	1.22250
0.27621	-0.51203
0.22521	-0.15492
0.22521	-0.94566
0.07220	-0.05289
0.19971	-0.18043
0.14870	-0.05289
-0.28482	0.73785
-0.13181	0.71234
-0.05531	0.63582
0.04670	-0.30797
0.30171	0.10015
0.35272	0.20219
0.68424	-0.00188
0.30171	0.66132
0.25071	0.48277
0.48022	-0.18043
0.42922	-0.56305
-0.82036	0.43176
-0.97337	-0.23145
0.27621	-0.25695
0.63323	-0.02739
0.83725	0.71234
0.50573	0.63582
0.19971	-0.61406
-0.28482	0.50828
0.19971	0.71234
0.53123	0.50828
0.53123	-0.25695
-1.02437	1.12046
-0.92237	-0.28246
0.02119	-1.07320
0.45472	0.89089
0.40372	0.15117
0.50573	0.17668
0.40372	0.02363
0.60773	-0.84363
0.55673	-0.12942
0.22521	1.57960
0.22521	-0.25695
-0.41233	-1.48133
-0.48884	1.37554
-0.08081	0.78886
0.32721	0.81437
0.32721	-2.09351
0.35272	1.04394
0.53123	0.68683
0.09770	0.78886
0.12320	0.83988
-0.08081	-0.63957
0.09770	0.32972
-0.02981	-0.23145
0.12320	0.40625
0.22521	-0.02739
0.30171	-0.71609
-0.33583	-0.66508
0.42922	-0.18043
0.63323	1.14597
0.65874	0.76336
0.25071	0.25320
-0.13181	0.73785
-0.05531	0.66132
0.42922	1.17148
0.02119	0.43176
-0.61635	-2.90976
-0.10631	-1.81293
-0.20832	0.35523
-0.69285	0.94191
0.88825	0.55929
0.70974	1.17148
0.70974	0.71234
0.17421	0.99292
0.14870	0.12566
0.02119	0.68683
-0.36133	-1.40480
-0.48884	-0.41000
0.55673	0.89089
0.65874	-0.92016
0.63323	-0.61406
0.63323	0.55929
-0.23382	0.45726
-0.82036	0.45726
-0.28482	1.47757
0.12320	-0.35899
0.78624	0.35523
0.40372	-1.02219
0.17421	0.53379
0.30171	0.53379
0.22521	-0.56305
-0.48884	0.53379
-0.13181	0.43176
0.37822	0.78886
0.04670	0.07465
-0.02981	-0.69059
0.55673	-0.43551
0.35272	0.10015
0.30171	0.50828
0.27621	0.94191
0.19971	0.63582
0.37822	0.55929
0.32721	0.43176
0.37822	-1.14973
-0.31033	-1.45582
-0.28482	0.66132
-0.20832	1.17148
-0.18282	-0.23145
0.68424	0.17668
0.42922	-1.07320
0.68424	0.86539
-0.31033	1.06945
-0.31033	0.55929
-0.13181	0.71234
0.14870	0.73785
0.32721	-0.41000
0.42922	-1.30277
0.53123	-0.69059
0.19971	-0.07840
0.32721	0.71234
0.78624	0.55929
0.40372	1.09496
-1.02437	0.30422
-1.27939	-0.58856
0.12320	-0.15492
0.63323	-0.23145
0.99026	0.58480
0.73524	-0.43551
0.42922	0.83988
0.37822	0.81437
-0.31033	0.81437
-0.56534	0.40625
-0.41233	0.27871
0.07220	-0.76711
0.65874	-0.28246
0.22521	-0.23145
0.25071	-0.35899
-0.25932	0.17668
-0.05531	-0.97117
0.25071	0.71234
0.50573	1.17148
0.68424	0.73785
0.37822	0.45726
-0.43783	-0.15492
0.45472	0.35523
0.19971	0.50828
0.17421	-0.38449
0.14870	-0.56305
0.09770	0.91640
0.04670	0.55929
0.25071	-0.69059
-0.28482	-0.18043
-0.05531	0.10015
0.91375	0.32972
0.55673	-0.02739
0.42922	-0.02739
-0.08081	0.58480
-0.25932	1.57960
-0.38683	0.66132
-0.38683	-0.94566
0.73524	-2.19554
0.76074	0.30422
0.53123	1.29902
0.02119	1.12046
0.27621	1.09496
0.02119	0.71234
0.04670	-1.17523
-0.13181	-1.04770
0.09770	-0.10391
-0.33583	0.17668
0.14870	-0.35899
0.48022	0.73785
0.53123	0.71234
0.32721	0.15117
0.48022	1.04394
0.32721	0.04914
0.48022	-0.48652
-0.43783	-0.81812
-1.45790	0.55929
0.17421	0.40625
0.58223	0.15117
0.70974	0.35523
0.04670	1.19699
-0.25932	-0.71609
0.37822	-1.32828
0.78624	0.17668
0.27621	1.06945
-0.05531	1.09496
0.14870	0.17668
0.17421	-1.71090
0.22521	-0.71609
0.12320	0.27871
0.17421	1.88570
0.22521	1.17148
0.02119	0.78886
0.50573	0.25320
-0.46334	0.53379
0.04670	-0.23145
0.07220	-2.55265
-0.05531	0.04914
-0.18282	0.94191
0.60773	0.86539
0.48022	-0.20594
0.02119	-0.30797
0.50573	-1.12422
0.45472	0.30422
0.12320	0.73785
-0.10631	0.86539
0.09770	0.32972
0.09770	-0.15492
0.32721	0.89089
0.45472	0.43176
0.07220	-0.23145
-0.20832	-0.25695
-0.36133	-0.33348
-0.31033	-0.30797
0.73524	0.07465
0.40372	0.86539
0.17421	1.01843
0.35272	0.25320
0.37822	-0.07840
0.19971	0.25320
-0.15732	-0.81812
-0.02981	0.50828
0.19971	0.81437
0.22521	-0.02739
-0.08081	-1.43031
0.09770	0.27871
0.53123	0.63582
0.22521	1.14597
-0.66735	0.66132
-0.74385	-0.07840
0.73524	1.17148
0.17421	-1.09871
-0.08081	-1.02219
0.42922	0.61031
0.78624	0.10015
0.40372	0.99292
0.30171	0.43176
0.09770	-0.28246
-0.05531	-0.00188
-0.31033	-0.02739
0.25071	0.30422
0.17421	0.71234
-0.33583	-0.89465
0.32721	0.48277
0.42922	1.12046
0.35272	0.55929
0.35272	-0.48652
0.22521	-1.09871
-0.66735	0.04914
-0.61635	0.78886
0.48022	1.17148
0.68424	1.14597
0.25071	-0.46102
0.12320	-0.94566
0.14870	-0.25695
-0.31033	1.27351
0.07220	-0.10391
0.45472	0.04914
0.50573	0.12566
0.55673	-0.35899
0.32721	0.50828
-0.89686	0.71234
0.17421	1.24800
0.30171	-0.43551
0.22521	-1.27726
0.17421	-0.35899
0.42922	1.63062
0.60773	0.22769
0.19971	-0.66508
-0.13181	0.43176
-0.33583	0.15117
-0.66735	-0.25695
0.53123	0.50828
0.53123	0.55929
-0.00431	0.17668
-0.08081	0.76336
-0.23382	0.58480
0.48022	-0.66508
0.81175	-0.97117
0.60773	-0.51203
0.02119	0.61031
0.17421	0.38074
-0.10631	0.81437
-0.25932	0.61031
0.04670	-0.51203
0.22521	0.40625
-0.00431	0.38074
0.30171	0.76336
0.17421	0.53379
-0.20832	-0.15492
0.35272	-1.07320
0.07220	0.12566
-0.46334	-1.30277
0.37822	-0.35899
0.22521	1.12046
0.22521	1.27351
0.73524	0.53379
0.32721	0.53379
0.37822	1.19699
0.07220	-0.18043
0.50573	-0.48652
-0.31033	0.07465
-0.25932	-0.18043
0.07220	0.20219
-0.08081	0.17668
0.07220	-0.23145
0.14870	-0.23145
0.73524	0.25320
0.55673	0.38074
0.50573	-0.10391
-0.92237	0.25320
-1.10088	0.15117
0.32721	0.10015
0.65874	0.38074
0.60773	0.45726
-0.00431	0.50828
-0.05531	-0.43551
0.37822	0.27871
1.01576	0.50828
0.86275	0.45726
0.40372	-0.41000
-0.82036	-0.25695
-1.02437	0.17668
0.04670	0.45726
0.30171	0.45726
0.37822	-0.74160
0.22521	-0.20594
0.22521	0.94191
0.07220	0.55929
0.17421	-0.66508
0.19971	-1.09871
0.30171	0.91640
0.19971	0.66132
0.17421	-0.58856
0.02119	1.12046
-0.31033	1.27351
-0.25932	0.25320
0.12320	-0.86914
0.63323	-1.35379
0.63323	0.55929
-0.18282	1.06945
-0.64185	0.55929
0.40372	-0.05289
0.58223	0.27871
0.58223	-0.10391
0.37822	-0.25695
0.27621	-0.46102
-0.18282	0.66132
-0.25932	0.96742
0.42922	-0.71609
0.42922	-1.25176
0.02119	-0.33348
-0.25932	0.66132
-0.00431	1.06945
0.02119	0.86539
0.53123	0.86539
-0.13181	0.43176
-0.53984	-0.30797
0.19971	-0.05289
0.37822	-0.05289
0.32721	-0.38449
0.27621	-0.41000
-0.10631	-0.07840
0.68424	1.45206
0.83725	0.48277
-0.00431	0.15117
-1.22839	-0.28246
-0.10631	0.04914
0.58223	-0.46102
0.48022	-0.12942
0.30171	0.17668
0.14870	0.38074
0.40372	0.53379
0.40372	0.30422
0.09770	0.91640
-0.41233	-1.20074
0.22521	-0.94566
0.17421	0.78886
0.27621	0.53379
0.35272	-0.23145
0.12320	0.76336
0.12320	0.68683
0.02119	0.15117
-0.10631	0.48277
0.22521	0.86539
0.14870	-0.12942
0.09770	-0.41000
-0.74385	-0.30797
0.32721	0.04914
0.53123	-0.00188
0.37822	0.91640
0.22521	-0.76711
0.25071	-0.84363
0.42922	0.04914
-0.31033	0.86539
-0.18282	0.66132
0.19971	0.17668
0.50573	0.27871
0.42922	0.07465
0.42922	0.55929
0.30171	0.73785
-0.00431	-0.02739
-0.23382	-1.17523
-0.20832	1.14597
-0.36133	-0.33348
-0.13181	-0.76711
0.45472	0.04914
0.55673	1.06945
0.48022	0.35523
0.12320	0.86539
-0.20832	-0.10391
0.37822	0.10015
0.12320	-0.99668
-0.02981	0.25320
0.25071	0.61031
0.40372	0.43176
0.45472	-0.05289
0.07220	0.25320
-0.31033	0.58480
0.02119	0.58480
-0.38683	0.38074
0.40372	-0.05289
0.37822	0.02363
0.25071	0.25320
0.40372	-0.63957
0.37822	-0.66508
-0.00431	-0.07840
-0.18282	0.15117
-0.13181	0.27871
0.35272	0.38074
0.19971	0.78886
0.40372	-0.58856
-0.31033	0.25320
-0.13181	0.73785
0.12320	0.45726
0.48022	0.25320
0.73524	-0.74160
0.07220	0.48277
0.58223	0.55929
0.09770	0.07465
-1.33039	-0.20594
-0.48884	0.40625
0.65874	0.25320
1.16877	-0.43551
1.14327	0.53379
0.53123	0.02363
0.02119	-0.33348
-0.74385	0.40625
-0.87136	0.15117
0.30171	0.02363
0.63323	0.10015
0.42922	0.58480
0.37822	0.04914
0.37822	0.32972
0.02119	0.32972
-0.84586	-0.51203
-0.33583	0.45726
0.19971	-0.05289
0.32721	0.50828
0.42922	-0.15492
0.37822	0.22769
0.17421	-0.12942
0.30171	0.83988
0.30171	1.19699
0.27621	0.12566
0.07220	-1.43031
0.35272	-0.12942
0.09770	0.50828
-0.28482	-0.07840
-0.28482	0.07465
0.14870	0.55929
0.55673	-0.02739
0.40372	-0.00188
-0.08081	1.22250
-0.18282	1.06945
-0.61635	0.66132
0.32721	-0.23145
0.68424	-1.09871
0.55673	-1.55785
0.35272	0.48277
-0.02981	0.40625
0.37822	0.99292
0.53123	1.29902
-0.20832	-0.86914
-0.08081	0.02363
0.09770	0.89089
0.32721	-0.58856
-0.48884	-0.30797
0.53123	0.50828
0.02119	0.53379
-0.18282	0.15117
-0.43783	0.43176
0.58223	0.10015
0.73524	-0.30797
1.04126	-0.66508
0.58223	0.91640
0.30171	-0.12942
-0.02981	-0.46102
0.04670	0.35523
-0.00431	0.94191
-0.48884	1.57960
-0.33583	-0.10391
0.07220	0.32972
0.09770	-0.15492
0.30171	-0.99668
0.37822	-0.05289
0.37822	0.86539
0.53123	0.38074
0.30171	0.35523
0.07220	0.30422
-0.48884	-0.05289
-0.36133	0.04914
-0.05531	-0.20594
0.78624	-0.41000
0.81175	0.55929
0.53123	-0.56305
0.32721	0.07465
-0.05531	0.27871
-0.48884	0.15117
-0.48884	0.45726
0.27621	0.25320
0.42922	0.22769
0.50573	0.25320
0.14870	0.25320
-0.00431	-0.20594
0.30171	1.04394
0.40372	0.96742
0.55673	-0.69059
0.02119	-0.66508
0.07220	0.78886
-0.20832	0.25320
-0.18282	0.17668
0.19971	0.50828
0.09770	0.30422
-0.08081	-0.20594
-0.00431	-0.00188
0.17421	0.10015
0.32721	-0.10391
0.76074	0.20219
0.14870	0.04914
-0.41233	-0.61406
-0.31033	0.04914
0.55673	0.63582
0.81175	-0.07840
0.32721	0.66132
-0.15732	0.43176
0.22521	0.20219
0.73524	0.61031
1.11776	1.42656
-0.25932	0.07465
-0.48884	-0.89465
-0.48884	-0.86914
-0.10631	0.40625
0.35272	0.04914
-0.02981	0.48277
0.37822	0.94191
0.17421	-0.61406
-0.33583	-0.28246
0.25071	0.10015
0.70974	0.76336
0.32721	-0.02739
0.09770	0.30422
0.09770	0.43176
-0.10631	1.55410
0.27621	1.12046
0.27621	-2.14453
0.58223	-1.50683
-0.56534	0.61031
-0.56534	0.40625
0.55673	0.45726
0.65874	0.50828
0.73524	0.12566
-0.02981	0.25320
-0.08081	-0.00188
-0.02981	0.35523
-0.10631	0.25320
0.14870	-0.15492
0.25071	0.53379
-0.00431	0.53379
0.02119	-0.56305
0.07220	-0.02739
-0.31033	0.30422
0.37822	-0.18043
0.83725	0.53379
0.60773	0.04914
0.42922	1.06945
-0.43783	0.20219
-0.13181	-0.33348
-0.25932	-0.00188
0.37822	-0.18043
-0.13181	0.50828
-0.46334	0.50828
0.35272	-0.02739
0.48022	-0.43551
0.60773	-0.00188
0.58223	-0.10391
0.70974	-0.18043
-0.23382	0.04914
-0.69285	1.37554
-0.33583	0.68683
0.07220	-0.15492
0.04670	0.15117
0.32721	-0.43551
0.50573	0.15117
0.58223	0.35523
0.37822	-0.23145
0.17421	0.25320
-0.08081	-0.00188
0.04670	-0.00188
0.27621	0.38074
0.09770	0.68683
-0.08081	-0.28246
-0.33583	-0.81812
-0.08081	0.15117
0.07220	1.12046
0.68424	-0.25695
0.42922	0.25320
0.37822	0.25320
0.30171	0.89089
0.12320	0.30422
-0.00431	0.25320
-0.15732	-0.51203
0.04670	-0.63957
0.30171	0.04914
0.04670	0.55929
0.27621	0.27871
-0.02981	-0.56305
-0.13181	0.30422
0.19971	-0.18043
0.32721	-0.02739
0.02119	0.27871
-0.10631	0.73785
0.60773	0.38074
0.68424	0.32972
0.70974	0.12566
0.42922	-0.25695
-0.05531	0.15117
-0.48884	-0.30797
-0.02981	1.01843
-0.31033	0.17668
-0.02981	-0.33348
0.17421	-0.18043
0.42922	0.45726
0.19971	0.25320
0.42922	0.38074
0.12320	0.71234
0.04670	-0.53754
-0.18282	-0.51203
0.17421	-0.38449
0.12320	0.40625
-0.18282	-0.18043
0.30171	0.55929
0.63323	1.06945
0.48022	-0.05289
0.07220	-0.33348
-0.10631	0.45726
-0.05531	0.32972
0.35272	0.04914
0.30171	0.35523
0.19971	0.40625
0.14870	0.12566
-0.00431	-1.27726
-0.18282	0.17668
0.04670	0.53379
0.45472	0.99292
0.30171	-0.15492
0.22521	0.66132
0.02119	0.30422
-0.18282	-0.28246
0.17421	-1.07320
0.07220	-0.41000
0.32721	0.58480
0.02119	1.14597
0.19971	0.81437
0.45472	-0.07840
0.22521	-0.81812
0.27621	0.04914
0.19971	0.02363
0.40372	0.61031
0.14870	0.76336
-0.15732	-0.12942
0.09770	0.38074
-0.23382	-0.48652
0.27621	0.20219
0.27621	0.35523
0.30171	0.55929
0.02119	-0.89465
-0.64185	-0.02739
0.12320	-0.51203
0.32721	1.55410
0.55673	0.76336
0.55673	0.04914
0.53123	0.22769
0.25071	0.25320
-0.02981	-0.61406
-0.36133	-0.41000
-0.10631	-0.86914
0.32721	0.91640
0.32721	0.91640
0.22521	0.76336
0.25071	0.43176
0.25071	-0.12942
0.02119	0.20219
-0.61635	-0.43551
0.12320	0.07465
0.27621	0.58480
0.48022	0.30422
0.40372	-0.15492
0.07220	-0.33348
-0.05531	-0.66508
0.32721	-0.00188
0.14870	0.20219
0.42922	0.76336
0.40372	0.71234
-0.10631	-0.02739
-0.10631	0.30422
0.02119	-0.41000
-0.31033	0.63582
0.19971	0.40625
0.25071	0.04914
0.50573	0.15117
0.63323	0.25320
0.32721	0.22769
0.04670	0.43176
0.02119	0.27871
0.07220	-0.35899
-0.36133	-0.69059
-0.10631	0.38074
0.30171	0.48277
0.09770	-0.33348
-0.28482	-0.69059
0.32721	0.94191
0.22521	0.04914
-0.00431	0.53379
0.48022	1.04394
0.45472	0.83988
-0.10631	0.32972
0.40372	-1.76191
0.37822	-0.25695
0.27621	0.68683
0.09770	-0.20594
0.12320	0.25320
0.35272	1.17148
-0.15732	1.12046
-0.10631	-0.12942
0.02119	-0.86914
-0.18282	0.12566
0.37822	0.91640
0.14870	-0.15492
0.27621	-0.20594
0.12320	-0.23145
0.30171	0.76336
0.25071	0.20219
0.17421	-0.35899
0.22521	-0.20594
0.07220	0.40625
-0.59084	0.10015
-0.18282	0.07465
0.37822	0.22769
0.60773	0.55929
0.55673	0.38074
-0.08081	0.02363
0.14870	-0.30797
0.30171	-0.15492
0.12320	0.10015
0.19971	0.17668
0.42922	0.91640
0.09770	1.04394
0.12320	0.10015
-0.51434	-1.30277
-1.78942	1.17148
0.19971	0.68683
0.63323	-0.43551
1.04126	-0.99668
0.91375	0.96742
0.60773	0.17668
0.35272	-0.58856
0.14870	0.20219
-0.08081	0.20219
-0.46334	0.25320
-0.25932	0.22769
0.07220	0.89089
0.22521	0.71234
0.22521	0.25320
0.30171	0.35523
-0.00431	-1.99148
-0.05531	-1.20074
-0.13181	0.71234
0.25071	0.73785
0.53123	0.61031
0.48022	0.96742
0.35272	0.55929
-0.05531	0.04914
-0.10631	0.12566
-0.41233	-0.30797
0.42922	-0.61406
0.73524	0.91640
-0.00431	0.58480
-0.08081	-1.12422
0.55673	-0.46102
0.02119	0.89089
0.19971	0.15117
0.22521	0.45726
-0.00431	0.45726
0.22521	0.17668
0.35272	-0.07840
0.32721	0.48277
0.14870	0.53379
-0.18282	-0.35899
-0.51434	-0.05289
-0.05531	-0.33348
0.07220	0.71234
0.45472	0.68683
0.53123	-0.20594
0.48022	-0.48652
0.12320	-0.43551
0.04670	1.37554
0.12320	0.35523
0.07220	-0.25695
-0.20832	-0.56305
0.30171	0.40625
0.37822	0.50828
0.09770	-0.81812
0.25071	0.89089
0.30171	0.22769
0.09770	-0.35899
0.04670	0.27871
-0.00431	0.53379
0.22521	-0.00188
0.32721	-0.23145
0.22521	0.20219
0.14870	0.76336
-0.46334	0.50828
-1.02437	0.20219
0.17421	0.17668
0.40372	-0.38449
0.68424	-0.51203
0.53123	0.53379
0.40372	-0.18043
0.35272	0.76336
0.37822	0.15117
0.22521	-0.30797
0.02119	-0.25695
-0.00431	0.17668
-0.23382	0.40625
-0.13181	0.38074
0.09770	-0.07840
-0.08081	-0.25695
-0.02981	-0.61406
0.25071	0.55929
0.17421	0.76336
0.32721	0.78886
0.17421	-0.02739
0.63323	0.27871
0.37822	0.32972
0.09770	0.86539
-1.10088	-1.12422
-0.97337	0.20219
0.63323	0.30422
0.93925	0.35523
0.96476	0.10015
0.78624	-0.05289
0.60773	-0.07840
0.14870	-0.12942
-0.02981	0.43176
-0.08081	0.38074
-0.61635	-0.51203
-0.28482	0.48277
-0.15732	0.73785
-0.13181	-0.41000
0.40372	-1.37929
0.50573	-0.18043
0.50573	1.06945
0.40372	1.14597
0.30171	0.66132
-0.10631	0.73785
0.02119	0.02363
0.12320	-0.61406
-0.02981	0.48277
0.09770	0.55929
0.25071	-1.53234
0.30171	-0.58856
0.12320	-0.00188
0.19971	0.76336
-0.00431	1.19699
-0.02981	-0.30797
-0.08081	-0.58856
-0.00431	0.35523
0.55673	0.53379
0.53123	-0.12942
0.40372	0.15117
0.09770	0.50828
-0.66735	0.25320
-0.53984	-0.02739
0.42922	-0.02739
0.45472	0.17668
0.50573	0.40625
0.32721	0.61031
0.07220	0.40625
0.30171	-0.71609
0.37822	-1.14973
0.19971	0.71234
-0.31033	0.91640
-0.71835	-0.23145
-0.13181	0.10015
0.27621	0.89089
0.58223	-0.10391
0.55673	0.32972
0.32721	0.53379
0.07220	1.01843
0.09770	-0.79262
-0.02981	-0.74160
0.19971	0.50828
0.04670	0.66132
-0.15732	0.71234
-0.05531	-0.07840
0.02119	-0.84363
0.02119	-0.51203
0.50573	-0.23145
0.78624	0.86539
0.14870	1.22250
0.12320	0.86539
0.07220	-0.33348
0.19971	-1.09871
0.12320	-0.10391
-0.13181	0.27871
-0.56534	0.30422
0.60773	0.63582
0.83725	0.20219
0.22521	0.30422
-0.08081	-0.02739
0.02119	0.48277
0.17421	0.61031
0.12320	-0.23145
0.09770	-0.48652
0.27621	0.35523
-0.05531	-0.12942
-0.20832	0.73785
0.22521	0.55929
0.45472	0.25320
0.42922	0.20219
-0.02981	-1.09871
-0.02981	0.35523
0.04670	0.12566
0.12320	0.50828
0.25071	0.58480
0.14870	0.38074
0.22521	-0.20594
0.17421	-0.58856
0.12320	-0.00188
-0.00431	0.89089
0.25071	-0.05289
0.22521	0.45726
0.30171	0.15117
0.14870	0.25320
0.12320	0.32972
0.04670	0.32972
0.27621	0.12566
-0.05531	0.35523
-0.02981	-0.35899
-0.20832	-0.28246
0.27621	0.43176
0.50573	0.17668
0.22521	0.04914
-0.08081	-0.05289
-0.00431	-0.02739
-0.00431	0.15117
0.22521	-0.10391
0.12320	0.32972
-0.00431	0.38074
0.68424	0.50828
0.22521	-0.18043
-0.15732	-0.05289
-0.15732	0.94191
0.17421	1.09496
0.27621	-0.61406
0.50573	-0.71609
0.63323	0.25320
0.45472	-0.63957
-0.18282	0.55929
-0.33583	0.20219
-0.41233	0.68683
0.02119	0.55929
0.40372	0.43176
0.42922	0.27871
0.37822	-0.74160
0.02119	0.68683
0.02119	0.94191
-0.18282	-0.15492
-0.05531	-1.37929
0.19971	0.07465
0.42922	-0.15492
0.17421	0.25320
0.55673	0.55929
0.30171	0.30422
0.09770	-0.20594
0.14870	0.15117
0.22521	0.71234
0.19971	0.40625
-0.18282	-0.35899
-0.56534	0.96742
-0.02981	0.38074
0.45472	-0.05289
0.48022	-0.15492
0.53123	0.12566
0.30171	-0.10391
0.02119	-0.38449
-0.02981	0.43176
-0.00431	0.81437
-0.08081	0.04914
0.12320	-0.02739
0.19971	0.63582
0.02119	-0.48652
0.27621	0.58480
0.30171	-0.41000
0.42922	-0.07840
0.32721	0.07465
-0.18282	0.12566
0.09770	0.66132
0.09770	1.14597
0.17421	0.81437
0.42922	-0.86914
0.19971	-0.46102
0.14870	1.01843
0.27621	0.20219
0.12320	-0.15492
-0.28482	0.12566
-0.05531	-0.25695
-0.08081	0.53379
0.07220	0.43176
0.09770	0.12566
0.17421	-0.97117
0.42922	0.50828
0.27621	0.68683
0.30171	-0.10391
0.02119	0.07465
0.19971	0.10015
-0.41233	-0.05289
-0.59084	0.40625
0.25071	0.17668
0.60773	0.35523
0.68424	0.50828
0.70974	-0.05289
0.53123	-0.07840
0.42922	0.48277
0.12320	0.04914
-0.08081	0.04914
-0.10631	0.32972
-0.02981	0.12566
-0.02981	0.12566
0.19971	0.40625
-0.23382	-0.23145
-0.00431	-1.17523
0.14870	0.22769
-0.02981	0.35523
-0.05531	0.43176
0.35272	0.15117
0.53123	0.81437
0.17421	-0.07840
0.09770	-0.18043
0.35272	-0.76711
-0.02981	0.81437
-0.41233	1.04394
0.32721	0.63582
0.83725	-0.05289
0.53123	-0.05289
0.58223	0.12566
-0.10631	0.63582
-0.46334	0.50828
0.25071	-0.56305
0.07220	-0.61406
0.32721	0.50828
0.07220	0.20219
0.17421	0.15117
-0.20832	-0.23145
-0.10631	-0.25695
0.25071	0.12566
0.17421	0.02363
0.19971	0.91640
-0.10631	0.55929
-0.05531	0.86539
0.19971	0.12566
0.22521	-0.33348
0.22521	-0.35899
0.25071	0.25320
0.37822	0.30422
0.58223	-0.15492
0.35272	0.48277
-0.15732	0.45726
-0.33583	-1.78742
-0.15732	0.73785
0.12320	0.45726
0.42922	0.86539
0.42922	0.99292
0.17421	0.38074
0.22521	-0.15492
0.12320	-0.89465
0.09770	-0.00188
-0.08081	0.78886
-0.18282	0.50828
0.27621	0.30422
0.17421	-0.43551
0.35272	0.15117
0.27621	-0.00188
-0.00431	-0.25695
-0.33583	0.10015
-0.00431	-0.00188
0.30171	0.45726
-0.08081	0.50828
0.02119	0.17668
0.65874	-0.38449
0.55673	0.12566
0.55673	0.45726
0.50573	1.14597
0.37822	0.76336
0.02119	-1.25176
-0.18282	-0.25695
-0.10631	0.15117
0.02119	-0.05289
-0.05531	1.06945
-0.02981	0.43176
-0.41233	0.22769
0.17421	-0.00188
0.17421	0.04914
0.02119	-0.25695
0.48022	-0.38449
0.73524	0.32972
0.73524	0.50828
-0.94787	-0.10391
-0.92237	-0.43551
0.55673	0.55929
0.50573	0.55929
0.50573	0.83988
0.73524	0.63582
0.50573	-1.32828
0.37822	-0.38449
0.14870	0.04914
-0.08081	0.78886
-0.05531	0.15117
0.04670	-0.12942
-0.33583	-0.18043
-0.08081	0.66132
0.07220	0.99292
-0.08081	1.22250
0.04670	-0.61406
0.14870	-0.61406
0.30171	-0.10391
0.42922	0.40625
0.32721	0.02363
0.22521	0.71234
-0.05531	-0.41000
-0.18282	-0.38449
0.32721	-0.10391
0.32721	0.22769
0.40372	0.02363
0.45472	0.12566
-0.08081	1.06945
-0.10631	0.02363
0.17421	-0.00188
0.73524	0.53379
0.50573	0.63582
0.19971	-0.46102
-0.33583	-1.17523
-0.51434	0.55929
-0.00431	0.68683
0.27621	-0.48652
0.40372	0.53379
0.32721	0.71234
-0.02981	0.68683
-0.10631	0.20219
0.55673	-0.00188
0.12320	0.20219
0.27621	-0.05289
0.09770	-0.20594
0.22521	-0.46102
0.07220	-0.12942
-0.05531	0.68683
0.02119	0.94191
0.27621	-0.10391
0.04670	-0.28246
0.07220	-0.05289
0.35272	0.02363
0.14870	0.15117
0.40372	0.58480
0.19971	0.71234
0.09770	-0.07840
-0.00431	0.17668
0.27621	0.12566
0.25071	0.02363
0.45472	0.30422
-0.38683	-0.30797
-0.25932	0.50828
0.30171	-0.74160
0.30171	0.63582
-0.38683	-0.30797
0.68424	-0.02739
0.50573	0.04914
-0.18282	0.86539
-0.02981	0.58480
0.02119	0.48277
0.48022	0.10015
0.37822	-0.10391
0.19971	0.17668
0.25071	-0.23145
0.32721	-0.58856
0.48022	-0.07840
-0.25932	1.06945
-0.33583	0.30422
0.22521	0.50828
0.27621	0.86539
0.17421	0.86539
-0.18282	-0.86914
0.02119	-0.79262
0.12320	1.27351
0.02119	-0.58856
0.37822	-0.43551
-0.00431	0.35523
0.04670	0.30422
0.25071	0.30422
0.30171	-0.46102
0.14870	0.22769
-0.08081	0.15117
0.14870	-0.41000
0.70974	0.50828
0.63323	0.02363
0.48022	0.02363
-0.64185	0.25320
-1.15188	1.06945
-0.18282	-0.00188
0.70974	-0.00188
0.78624	-0.28246
0.78624	0.10015
0.55673	0.83988
0.35272	0.58480
-0.08081	-0.15492
-0.00431	-0.48652
-0.20832	0.43176
-0.13181	0.73785
0.30171	-0.20594
-0.10631	0.02363
0.09770	0.20219
-0.13181	-0.15492
-0.20832	0.20219
-0.10631	-0.15492
0.27621	0.17668
0.91375	-0.12942
0.55673	0.45726
0.27621	-0.18043
0.45472	0.68683
0.32721	0.71234
-0.08081	-0.30797
0.17421	-0.10391
-0.13181	-0.15492
-0.10631	-0.07840
0.27621	0.20219
0.19971	0.30422
-0.05531	0.50828
0.12320	0.50828
0.25071	0.38074
0.22521	0.83988
-0.23382	-0.12942
-0.48884	-0.00188
0.22521	0.10015
0.40372	-0.61406
0.55673	0.04914
0.42922	-0.38449
-0.15732	-0.23145
0.19971	0.63582
0.17421	0.38074
0.27621	-0.66508
0.42922	0.27871
0.09770	0.71234
-0.08081	0.48277
-0.13181	0.27871
0.02119	-0.02739
0.32721	0.43176
0.25071	0.22769
0.17421	-0.05289
-0.00431	0.15117
0.19971	-0.23145
0.22521	0.58480
0.25071	0.68683
-0.00431	-0.58856
0.04670	-0.12942
0.12320	0.04914
0.37822	0.61031
0.07220	-0.46102
0.09770	-0.84363
-0.28482	0.45726
-0.48884	0.83988
0.07220	0.27871
0.63323	-0.00188
0.30171	0.22769
0.58223	0.10015
0.58223	0.40625
0.53123	0.30422
0.27621	0.89089
-0.05531	0.35523
-0.08081	-0.25695
0.02119	-0.00188
0.09770	-0.05289
-0.15732	0.22769
-0.05531	0.04914
-0.05531	-0.76711
0.42922	0.30422
0.09770	-0.38449
0.02119	0.10015
0.17421	0.94191
0.25071	0.66132
0.17421	0.22769
0.27621	0.48277
0.14870	0.35523
-0.13181	-0.00188
-0.13181	-0.41000
0.27621	-0.18043
0.50573	0.43176
0.30171	0.32972
0.19971	0.12566
0.27621	0.86539
0.09770	-0.33348
-0.18282	-1.17523
-0.20832	-0.20594
0.35272	0.43176
0.68424	0.96742
0.63323	0.35523
0.50573	0.27871
-0.36133	-0.20594
-0.99887	0.55929
-0.00431	0.17668
0.07220	0.07465
0.42922	-0.18043
0.37822	0.27871
0.35272	0.43176
0.32721	0.02363
0.25071	0.55929
-0.20832	0.12566
-0.02981	-0.00188
0.14870	0.02363
0.14870	0.04914
0.30171	0.30422
0.22521	0.71234
-0.51434	-0.56305
-0.38683	0.22769
0.17421	-1.04770
0.53123	-0.81812
0.63323	0.45726
0.63323	1.04394
0.48022	0.40625
0.25071	1.83468
0.02119	0.96742
-0.23382	-0.15492
-0.02981	-1.73640
-0.05531	-0.48652
-0.00431	0.66132
0.50573	0.96742
0.40372	0.20219
-0.13181	0.04914
-0.36133	0.30422
-0.05531	-0.30797
0.19971	-1.32828
0.40372	0.32972
0.35272	0.96742
-0.10631	0.38074
-0.33583	0.30422
0.70974	0.22769
0.78624	-0.46102
0.32721	0.17668
0.27621	0.50828
0.14870	0.55929
0.17421	1.42656
0.12320	-0.66508
-0.00431	-0.81812
0.12320	-0.53754
0.14870	0.96742
-0.05531	0.58480
-0.25932	0.40625
-0.23382	0.55929
0.14870	0.22769
0.12320	-1.09871
0.17421	-0.30797
0.04670	0.22769
0.19971	0.50828
0.07220	0.81437
0.27621	0.04914
0.55673	-0.41000
0.35272	0.78886
