0.22521	0.22769
0.12320	0.22769
0.09770	0.22769
0.17421	0.04914
0.12320	0.10015
0.17421	0.17668
0.14870	0.20219
0.14870	0.12566
0.09770	0.07465
0.09770	0.04914
0.09770	0.15117
0.12320	0.20219
0.22521	0.20219
0.22521	0.20219
0.22521	0.17668
0.17421	0.12566
0.14870	0.07465
0.12320	0.07465
0.09770	0.04914
0.09770	0.12566
0.07220	0.15117
0.17421	0.20219
0.22521	0.15117
0.22521	0.15117
0.17421	0.20219
0.17421	0.15117
0.12320	0.15117
0.09770	0.02363
0.12320	0.07465
0.17421	0.15117
0.07220	0.15117
0.14870	0.20219
0.12320	0.22769
0.17421	0.20219
0.19971	0.12566
0.22521	0.15117
0.19971	0.15117
0.14870	0.04914
0.07220	0.04914
0.17421	0.17668
0.17421	0.30422
0.17421	0.15117
0.14870	0.20219
0.12320	0.15117
0.04670	0.02363
0.12320	-0.00188
0.14870	0.04914
0.25071	0.12566
0.22521	0.20219
0.19971	0.17668
0.14870	0.10015
0.12320	0.15117
0.09770	0.17668
0.12320	0.17668
0.14870	0.22769
0.17421	0.20219
0.17421	0.10015
0.12320	0.10015
0.07220	0.25320
0.12320	0.15117
0.19971	0.04914
0.19971	0.12566
0.17421	0.07465
0.07220	0.12566
0.14870	0.15117
0.14870	0.25320
0.12320	0.17668
0.07220	0.04914
0.14870	0.04914
0.25071	0.17668
0.12320	0.20219
0.12320	0.10015
0.19971	0.20219
0.07220	0.15117
0.12320	0.17668
0.14870	0.17668
0.07220	0.07465
0.12320	0.22769
0.14870	0.17668
0.07220	0.15117
0.14870	0.15117
0.22521	0.20219
0.09770	0.04914
0.14870	0.07465
0.25071	0.15117
0.14870	0.10015
0.07220	0.15117
0.14870	0.25320
0.14870	0.12566
0.07220	0.17668
0.14870	0.17668
0.22521	0.25320
0.12320	0.15117
0.07220	0.10015
0.12320	0.10015
0.12320	0.20219
0.19971	0.17668
0.17421	0.17668
0.09770	0.07465
0.22521	0.15117
0.12320	0.20219
0.09770	0.15117
0.14870	0.07465
0.22521	0.17668
0.22521	0.35523
0.12320	0.25320
0.07220	-0.00188
0.12320	0.15117
0.14870	0.07465
0.07220	0.02363
0.14870	0.22769
0.22521	0.27871
0.12320	0.15117
0.17421	0.07465
0.09770	0.15117
0.12320	0.22769
0.14870	0.15117
0.17421	0.10015
0.09770	0.07465
0.07220	0.17668
0.14870	0.20219
0.17421	0.22769
0.19971	0.15117
0.14870	0.04914
0.04670	0.15117
0.17421	0.12566
0.22521	0.22769
0.22521	0.15117
0.12320	0.04914
0.09770	0.04914
0.12320	0.20219
0.17421	0.17668
0.19971	0.20219
0.22521	0.10015
0.12320	0.15117
0.12320	0.15117
0.07220	0.07465
0.09770	0.02363
0.12320	0.07465
0.12320	0.15117
0.17421	0.15117
0.14870	0.15117
0.22521	0.25320
0.22521	0.25320
0.14870	0.22769
0.17421	0.15117
0.04670	0.15117
0.09770	0.04914
0.07220	0.04914
0.14870	0.15117
0.14870	0.12566
0.12320	0.20219
0.14870	0.20219
0.14870	0.20219
0.12320	0.15117
0.07220	0.12566
0.09770	0.04914
0.14870	0.12566
0.22521	0.20219
0.19971	0.15117
0.14870	0.04914
0.07220	0.12566
0.07220	0.17668
0.14870	0.20219
0.14870	0.17668
0.12320	0.12566
0.07220	0.10015
0.14870	0.04914
0.14870	0.27871
0.19971	0.32972
0.17421	0.12566
0.12320	0.04914
0.12320	0.04914
0.12320	0.12566
0.22521	0.22769
0.22521	0.15117
0.14870	0.20219
0.14870	0.10015
0.09770	0.12566
0.17421	0.17668
0.22521	0.20219
0.14870	0.15117
0.09770	0.12566
0.09770	0.10015
0.12320	0.10015
0.22521	0.10015
0.19971	0.20219
0.12320	0.25320
0.12320	0.15117
0.14870	0.07465
0.14870	0.10015
0.07220	0.17668
0.09770	0.15117
0.14870	0.17668
0.17421	0.22769
0.22521	0.15117
0.17421	0.15117
0.09770	0.04914
0.09770	0.07465
0.12320	0.12566
0.22521	0.15117
0.19971	0.20219
0.12320	0.22769
0.19971	0.20219
0.07220	0.04914
0.07220	0.07465
0.14870	0.07465
0.14870	0.17668
0.19971	0.12566
0.22521	0.17668
0.14870	0.17668
0.07220	0.15117
0.04670	0.07465
0.09770	0.17668
0.12320	0.35523
0.22521	0.15117
0.14870	0.02363
0.09770	0.04914
0.14870	0.17668
0.17421	0.12566
0.14870	0.10015
0.07220	0.07465
0.17421	0.12566
0.19971	0.15117
0.14870	0.15117
0.07220	0.12566
0.14870	0.15117
0.22521	0.15117
0.14870	0.20219
0.14870	0.15117
0.07220	0.10015
0.12320	0.10015
0.22521	0.20219
0.14870	0.15117
0.04670	0.10015
0.07220	0.12566
0.14870	0.22769
0.22521	0.15117
0.12320	0.10015
0.12320	0.07465
0.14870	0.10015
0.14870	0.22769
0.14870	0.22769
0.19971	0.17668
0.12320	0.07465
0.09770	0.04914
0.17421	0.17668
0.19971	0.27871
0.19971	0.17668
0.22521	0.07465
0.12320	0.04914
0.07220	0.10015
0.09770	0.15117
0.12320	0.25320
0.22521	0.22769
0.22521	0.20219
0.22521	0.15117
0.14870	0.04914
0.04670	0.07465
0.14870	0.10015
0.17421	0.15117
0.22521	0.17668
0.19971	0.25320
0.22521	0.20219
0.22521	0.12566
0.17421	0.10015
0.07220	0.10015
0.14870	0.15117
0.14870	0.10015
0.19971	0.17668
0.14870	0.15117
0.17421	0.17668
0.07220	0.10015
0.14870	0.12566
0.12320	0.27871
0.12320	0.35523
0.22521	0.10015
0.14870	-0.00188
0.07220	0.10015
0.17421	0.15117
0.17421	0.20219
0.17421	0.15117
0.12320	0.15117
0.07220	0.07465
0.14870	0.07465
0.14870	0.15117
0.19971	0.20219
0.17421	0.32972
0.17421	0.25320
0.07220	-0.00188
0.14870	0.02363
0.14870	0.12566
0.22521	0.17668
0.22521	0.20219
0.12320	0.15117
0.04670	0.10015
0.14870	0.15117
0.22521	0.22769
0.07220	0.15117
0.14870	0.15117
0.22521	0.15117
0.14870	0.25320
0.17421	0.15117
0.14870	0.10015
0.22521	0.20219
0.12320	0.10015
0.04670	0.07465
0.17421	0.25320
0.14870	0.15117
0.14870	0.10015
0.22521	0.20219
0.12320	0.20219
0.14870	0.15117
0.17421	0.20219
0.22521	0.15117
0.14870	0.10015
0.07220	0.17668
0.04670	0.17668
0.09770	0.07465
0.25071	0.10015
0.22521	0.20219
0.14870	0.20219
0.07220	0.12566
0.14870	0.10015
0.22521	0.15117
0.17421	0.15117
0.07220	0.15117
0.09770	0.22769
0.14870	0.15117
0.19971	0.10015
0.12320	0.04914
0.07220	0.12566
0.12320	0.25320
0.22521	0.22769
0.14870	0.12566
0.07220	0.22769
0.17421	0.22769
0.22521	0.20219
0.12320	0.02363
0.14870	0.10015
0.22521	0.17668
0.12320	0.15117
0.07220	0.10015
0.14870	0.17668
0.14870	0.20219
0.22521	0.22769
0.14870	0.15117
0.12320	0.07465
0.09770	0.12566
0.14870	0.17668
0.22521	0.22769
0.17421	0.12566
0.17421	0.10015
0.07220	0.12566
0.17421	0.07465
0.22521	0.20219
0.22521	0.10015
0.17421	0.10015
0.07220	0.07465
0.07220	0.15117
0.14870	0.20219
0.17421	0.25320
0.07220	0.27871
0.12320	0.04914
0.17421	0.12566
0.22521	0.30422
0.14870	0.07465
0.07220	0.04914
0.07220	-0.00188
0.14870	0.15117
0.17421	0.20219
0.12320	0.17668
0.09770	0.15117
0.07220	0.07465
0.14870	0.17668
0.14870	0.17668
0.22521	0.27871
0.14870	0.12566
0.12320	0.07465
0.07220	0.04914
0.14870	0.10015
0.14870	0.15117
0.22521	0.25320
0.14870	0.10015
0.09770	0.10015
0.12320	0.15117
0.12320	0.15117
0.12320	0.22769
0.25071	0.12566
0.17421	0.10015
0.09770	0.04914
0.07220	0.20219
0.14870	0.38074
0.22521	0.22769
0.17421	0.02363
0.12320	-0.00188
0.07220	0.04914
0.09770	0.10015
0.14870	0.17668
0.14870	0.27871
0.14870	0.22769
0.19971	0.22769
0.19971	0.15117
0.12320	0.17668
0.14870	0.10015
0.09770	0.07465
0.12320	0.15117
0.19971	0.20219
0.14870	0.17668
0.09770	0.22769
0.07220	0.04914
0.14870	0.10015
0.19971	0.22769
0.14870	0.15117
0.09770	0.12566
0.07220	0.10015
0.12320	0.12566
0.22521	0.15117
0.19971	0.17668
0.17421	0.15117
0.07220	0.07465
0.09770	0.15117
0.12320	0.20219
0.22521	0.20219
0.22521	0.15117
0.12320	0.15117
0.14870	0.12566
0.04670	0.07465
0.12320	0.15117
0.14870	0.22769
0.17421	0.27871
0.14870	0.25320
0.19971	0.07465
0.17421	0.07465
0.07220	0.10015
0.07220	0.12566
0.07220	0.25320
0.09770	0.15117
0.17421	0.15117
0.22521	0.15117
0.19971	0.12566
0.12320	0.07465
0.14870	0.07465
0.12320	0.07465
0.17421	0.27871
0.14870	0.25320
0.19971	0.17668
0.25071	0.15117
0.14870	0.10015
0.09770	0.15117
0.17421	0.17668
0.12320	0.17668
0.19971	0.12566
0.14870	0.07465
0.09770	0.10015
0.19971	0.12566
0.14870	0.20219
0.22521	0.15117
0.14870	0.15117
0.14870	0.07465
0.09770	0.15117
0.09770	0.15117
0.19971	0.22769
0.22521	0.12566
0.14870	0.04914
0.07220	0.15117
0.14870	0.22769
0.22521	0.15117
0.17421	0.07465
0.07220	0.15117
0.14870	0.10015
0.14870	0.20219
0.17421	0.10015
0.12320	0.12566
0.09770	0.22769
0.14870	0.17668
0.22521	0.12566
0.12320	0.15117
0.09770	0.02363
0.12320	0.15117
0.14870	0.12566
0.12320	0.02363
0.12320	0.12566
0.22521	0.25320
0.17421	0.17668
0.14870	0.07465
0.09770	0.10015
0.07220	0.20219
0.14870	0.22769
0.22521	0.12566
0.14870	0.12566
0.09770	0.12566
0.14870	0.20219
0.25071	0.12566
0.12320	0.12566
0.07220	0.12566
0.17421	0.04914
0.19971	0.17668
0.12320	0.17668
0.17421	0.17668
0.22521	0.17668
0.07220	0.10015
0.14870	0.12566
0.22521	0.25320
0.09770	0.12566
0.07220	0.22769
0.19971	0.15117
0.09770	0.04914
0.14870	0.12566
0.14870	0.15117
0.09770	0.07465
0.19971	0.20219
0.14870	0.22769
0.09770	0.22769
0.22521	0.20219
0.17421	0.07465
0.07220	0.10015
0.22521	0.15117
0.07220	0.10015
0.14870	0.15117
0.19971	0.20219
0.12320	0.15117
0.07220	0.10015
0.22521	0.17668
0.17421	0.22769
0.07220	0.15117
0.14870	0.10015
0.19971	0.15117
0.22521	0.20219
0.09770	0.20219
0.17421	0.15117
0.12320	0.17668
0.19971	0.10015
0.12320	0.12566
0.07220	0.25320
0.12320	0.12566
0.22521	0.15117
0.12320	0.15117
0.09770	0.10015
0.12320	0.20219
0.22521	0.20219
0.12320	0.10015
0.09770	0.10015
0.12320	0.12566
0.14870	0.30422
0.22521	0.25320
0.14870	0.04914
0.17421	0.04914
0.09770	0.10015
0.07220	0.12566
0.17421	0.17668
0.19971	0.20219
0.12320	0.10015
0.09770	0.02363
0.14870	0.15117
0.22521	0.25320
0.09770	0.12566
0.07220	0.12566
0.14870	0.22769
0.22521	0.17668
0.14870	0.15117
0.14870	0.10015
0.09770	0.22769
0.14870	0.25320
0.22521	0.17668
0.17421	0.12566
0.17421	0.10015
0.07220	0.02363
0.14870	0.12566
0.22521	0.12566
0.22521	0.22769
0.12320	0.27871
0.07220	0.20219
0.14870	0.07465
0.22521	0.17668
0.17421	0.20219
0.07220	0.04914
0.09770	0.04914
0.17421	0.20219
0.19971	0.20219
0.09770	0.10015
0.07220	0.10015
0.14870	0.17668
0.22521	0.17668
0.17421	0.15117
0.04670	0.07465
0.14870	0.12566
0.19971	0.20219
0.14870	0.20219
0.12320	0.15117
0.07220	0.10015
0.14870	0.10015
0.14870	0.17668
0.14870	0.17668
0.12320	0.22769
0.14870	0.17668
0.22521	0.15117
0.19971	0.12566
0.12320	0.12566
0.14870	0.04914
0.09770	0.10015
0.17421	0.10015
0.12320	0.17668
0.22521	0.22769
0.22521	0.15117
0.12320	0.12566
0.09770	0.04914
0.09770	0.17668
0.17421	0.15117
0.12320	0.22769
0.22521	0.35523
0.19971	0.25320
0.14870	0.10015
0.17421	0.02363
0.14870	0.04914
0.07220	0.10015
0.14870	0.22769
0.17421	0.20219
0.22521	0.22769
0.19971	0.12566
0.09770	0.10015
0.07220	0.10015
0.14870	0.25320
0.17421	0.32972
0.22521	0.12566
0.12320	0.04914
0.09770	0.10015
0.07220	0.15117
0.12320	0.17668
0.22521	0.10015
0.17421	0.04914
0.07220	0.20219
0.12320	0.27871
0.12320	0.20219
0.19971	0.04914
0.22521	0.12566
0.14870	0.15117
0.07220	0.17668
0.12320	0.17668
0.22521	0.20219
0.09770	0.12566
0.12320	0.10015
0.25071	0.20219
0.17421	0.10015
0.07220	0.04914
0.22521	-0.02739
0.14870	0.20219
0.07220	0.12566
0.14870	0.17668
0.19971	0.35523
0.17421	0.22769
0.17421	0.04914
0.07220	0.10015
0.22521	0.17668
0.19971	0.20219
0.12320	0.07465
0.07220	-0.02739
0.12320	0.04914
0.19971	0.27871
0.17421	0.25320
0.12320	0.22769
0.14870	0.20219
0.04670	0.12566
0.09770	0.15117
0.17421	0.22769
0.14870	0.27871
0.22521	0.12566
0.14870	0.15117
0.09770	-0.05289
0.09770	0.10015
0.17421	0.27871
0.22521	-0.00188
0.19971	0.35523
0.19971	0.12566
0.19971	0.10015
0.07220	0.15117
0.07220	0.10015
0.12320	0.17668
0.12320	0.22769
0.17421	0.22769
0.22521	0.12566
0.14870	0.07465
0.09770	0.02363
0.12320	0.12566
0.19971	0.20219
0.12320	0.17668
0.09770	0.12566
0.09770	0.12566
0.12320	0.30422
0.22521	0.22769
0.12320	-0.12942
0.07220	0.17668
0.14870	0.12566
0.14870	0.20219
0.14870	0.22769
0.17421	0.17668
0.09770	0.10015
0.17421	0.17668
0.14870	0.12566
0.19971	0.20219
0.12320	0.17668
0.12320	0.15117
0.07220	0.07465
0.09770	0.12566
0.14870	0.07465
0.22521	0.15117
0.14870	0.20219
0.17421	0.20219
0.07220	0.20219
0.17421	0.15117
0.22521	0.07465
0.19971	0.15117
0.14870	0.12566
0.14870	0.17668
0.07220	0.22769
0.12320	0.15117
0.22521	0.07465
0.12320	0.07465
0.07220	-0.10391
0.17421	-0.02739
0.22521	0.45726
0.12320	0.30422
0.09770	0.15117
0.12320	0.22769
0.19971	0.45726
0.14870	-0.20594
0.07220	-0.02739
0.22521	0.10015
0.14870	0.71234
0.07220	0.10015
0.17421	0.07465
0.22521	0.15117
0.09770	0.12566
0.14870	0.07465
0.19971	-0.02739
0.19971	0.10015
0.12320	0.27871
0.07220	0.17668
0.12320	0.07465
0.22521	-0.00188
0.14870	0.02363
0.07220	0.10015
0.14870	0.32972
0.17421	0.38074
0.17421	0.04914
0.07220	0.30422
0.09770	0.58480
0.17421	-0.18043
0.19971	0.04914
0.12320	-0.05289
0.07220	0.25320
0.12320	0.30422
0.14870	0.15117
0.12320	0.17668
0.09770	0.12566
0.17421	0.10015
0.22521	0.17668
0.19971	0.12566
0.17421	0.04914
0.14870	0.15117
0.22521	0.25320
0.14870	-0.02739
0.02119	-0.02739
0.04670	0.25320
0.25071	0.25320
0.14870	-0.23145
-0.00431	-0.25695
0.32721	0.35523
0.35272	0.66132
0.22521	0.30422
0.14870	0.53379
0.12320	0.17668
0.04670	0.27871
0.04670	0.78886
0.12320	0.99292
-0.02981	-1.83844
-0.02981	-2.75671
0.12320	-0.51203
0.30171	1.19699
0.30171	1.42656
0.22521	1.52859
0.27621	1.01843
0.12320	0.45726
0.19971	-1.78742
0.22521	0.40625
0.30171	0.15117
0.30171	-0.66508
-0.08081	0.17668
-0.28482	0.27871
-0.48884	0.89089
0.22521	0.55929
0.32721	0.15117
0.50573	-0.12942
0.30171	-0.10391
0.22521	-0.84363
0.07220	0.30422
0.12320	1.80917
0.50573	1.96222
0.68424	-1.09871
0.14870	0.61031
0.02119	-1.71090
-0.59084	0.07465
-0.36133	-1.22625
0.50573	-0.12942
0.32721	1.27351
0.50573	1.40105
0.35272	0.07465
-0.05531	-2.11902
-1.38139	-0.58856
-0.59084	1.80917
0.53123	1.55410
0.96476	2.88050
1.09226	-0.66508
0.50573	-0.07840
-0.51434	-2.42511
0.37822	-2.83324
0.81175	-1.83844
0.93925	2.21730
0.70974	3.59471
-1.12638	8.64525
-1.91693	-5.66460
-0.18282	-2.85874
-0.15732	-0.35899
-0.05531	0.15117
0.27621	-0.02739
1.14327	2.47238
0.88825	1.27351
1.90832	1.27351
1.50029	-4.36370
1.55129	-1.55785
-1.91693	-0.10391
-3.85505	2.24281
-0.89686	3.23761
0.99026	4.15589
1.16877	-2.75671
1.57679	-2.22105
0.91375	-1.68539
-0.53984	0.35523
-0.28482	-2.14453
0.02119	-0.74160
0.32721	2.67644
-0.20832	0.89089
-1.10088	0.86539
-1.25389	1.55410
0.50573	-1.09871
0.35272	0.91640
0.22521	-1.20074
1.29628	1.93671
0.53123	-0.12942
0.32721	2.85499
-0.08081	-2.50164
-0.48884	-5.10343
1.04126	-0.38449
1.27078	-0.18043
-0.20832	3.28862
-0.76936	1.32453
-0.08081	0.91640
1.04126	2.39585
0.12320	1.80917
0.27621	0.17668
-0.10631	-0.66508
-0.46334	-1.12422
1.04126	0.61031
0.76074	-0.66508
-1.48340	-5.30749
-2.09544	2.08976
-1.45790	-0.28246
0.02119	-3.21585
-0.79486	-1.99148
0.60773	2.52339
1.34728	1.63062
1.95932	3.41616
2.54586	2.39585
1.88281	0.35523
1.24527	4.10487
0.45472	-1.17523
-0.36133	-2.62918
-1.40690	-0.43551
-1.33039	-1.43031
-0.61635	-0.23145
-0.05531	0.07465
-0.08081	0.73785
0.07220	-0.35899
0.27621	1.45206
0.42922	0.55929
0.27621	-2.37410
0.27621	-0.58856
0.04670	1.29902
0.02119	2.19179
-0.05531	-2.09351
0.02119	-0.05289
0.35272	0.43176
0.73524	1.98773
0.73524	1.86019
0.02119	0.61031
-0.38683	-4.72081
0.09770	1.80917
0.22521	-0.58856
0.22521	-1.14973
0.35272	1.68163
0.48022	4.64053
0.22521	0.25320
0.02119	-0.58856
0.04670	0.15117
0.73524	-2.39961
0.58223	-2.42511
-0.53984	1.06945
-1.53441	0.55929
-1.20288	-0.66508
-0.02981	0.35523
0.50573	0.81437
0.73524	-0.07840
1.24527	-0.18043
1.98482	2.03874
0.02119	-0.51203
0.09770	-2.01699
0.22521	0.61031
0.07220	-0.15492
-0.71835	1.01843
-0.05531	0.71234
0.40372	-0.48652
0.22521	2.49788
-0.00431	-2.83324
-0.02981	-0.30797
-0.51434	0.25320
-0.05531	0.10015
-0.00431	2.19179
0.19971	1.73265
0.32721	2.16628
0.83725	-1.40480
0.93925	-2.96078
1.09226	0.20219
-0.46334	-0.18043
-1.17738	1.78367
-0.33583	1.88570
0.25071	-1.32828
-0.53984	-3.93007
-0.05531	-0.84363
0.17421	0.15117
0.78624	1.50308
1.57679	1.50308
1.24527	2.21730
1.19427	1.42656
0.93925	-1.73640
-0.15732	1.65613
-1.15188	-2.93527
-0.76936	-0.00188
-0.84586	0.22769
-0.36133	0.68683
0.02119	2.88050
0.37822	-2.29757
0.40372	-0.33348
0.17421	0.27871
0.27621	0.27871
0.42922	1.78367
0.42922	-1.04770
0.60773	-0.25695
-0.23382	1.27351
-0.33583	0.86539
0.09770	-0.43551
0.37822	-4.28718
0.42922	0.02363
-0.00431	0.96742
0.09770	0.40625
0.17421	2.49788
0.07220	2.14077
-0.10631	2.24281
-0.00431	-2.55265
0.04670	-1.07320
0.50573	-0.38449
0.78624	-0.30797
0.93925	0.43176
0.60773	0.35523
-0.15732	1.01843
-0.13181	0.20219
0.22521	1.80917
-0.02981	-1.96597
-0.64185	-1.12422
-0.23382	0.17668
-0.00431	1.83468
-1.20288	0.91640
-0.59084	-0.53754
0.83725	-1.53234
0.73524	1.19699
1.39828	0.17668
0.30171	-0.33348
-0.74385	-0.66508
-0.64185	0.12566
0.09770	2.31933
0.88825	0.66132
0.37822	1.19699
0.30171	-0.97117
0.58223	-1.78742
0.65874	-1.25176
0.48022	1.12046
0.14870	1.04394
-0.28482	1.80917
0.37822	0.71234
-0.99887	-1.63437
-0.41233	-1.78742
-0.20832	1.19699
0.30171	1.24800
0.12320	-0.23145
0.17421	-1.12422
0.32721	0.48277
0.65874	1.19699
0.30171	0.07465
-0.15732	-1.07320
-0.02981	-0.79262
0.42922	0.38074
-0.43783	0.53379
0.32721	1.47757
0.76074	0.68683
0.91375	1.50308
0.91375	-1.32828
0.70974	-0.38449
-0.38683	0.91640
-0.71835	0.20219
-0.51434	-1.17523
-0.28482	-0.51203
0.32721	0.89089
-0.56534	1.52859
-0.41233	-0.07840
0.35272	-5.17995
0.88825	1.45206
1.70430	3.16108
-0.02981	0.53379
-0.53984	-0.15492
0.76074	0.91640
0.30171	0.22769
0.60773	0.43176
0.09770	0.81437
-0.48884	0.55929
-0.48884	0.32972
-0.31033	-0.92016
0.32721	-0.07840
0.81175	-0.74160
0.53123	-0.53754
0.48022	0.76336
0.02119	-0.97117
0.30171	-0.69059
0.32721	-1.25176
0.17421	-0.76711
-0.23382	1.86019
-0.43783	1.52859
-0.48884	1.24800
-0.18282	1.75816
-0.31033	1.19699
0.58223	-1.04770
0.40372	-0.25695
0.27621	-0.84363
0.91375	-0.79262
0.53123	-0.30797
0.83725	-0.05289
-0.56534	1.24800
-1.53441	1.57960
-0.41233	-0.76711
0.78624	-0.35899
1.01576	0.22769
0.73524	0.66132
0.53123	-0.61406
0.09770	0.66132
-0.18282	-1.12422
-0.00431	-0.84363
0.19971	1.65613
-0.00431	2.26831
-0.66735	-0.46102
-0.05531	-2.01699
0.53123	0.04914
-0.13181	0.02363
-0.43783	1.47757
-0.53984	0.50828
0.30171	1.32453
0.93925	0.76336
0.73524	-2.68019
0.50573	-0.66508
0.42922	1.93671
0.27621	-1.86394
0.12320	0.35523
0.32721	-0.15492
-0.05531	1.93671
-1.04987	1.37554
-0.59084	-2.09351
0.30171	-1.45582
0.37822	1.04394
0.42922	1.93671
0.27621	0.91640
0.35272	0.50828
0.17421	-0.41000
0.40372	-0.46102
0.48022	0.96742
0.55673	-0.28246
-0.53984	-0.10391
-0.76936	0.53379
0.14870	-0.10391
-0.59084	-0.66508
-0.15732	-0.12942
0.93925	1.45206
1.04126	1.17148
0.63323	-2.96078
0.35272	-0.10391
-0.10631	2.14077
-0.38683	0.73785
-0.02981	-2.34859
0.96476	1.60511
-0.15732	1.63062
0.04670	-0.15492
-0.25932	1.04394
-0.02981	0.96742
0.32721	0.63582
0.55673	0.66132
0.42922	-3.44542
0.30171	-0.56305
-0.18282	0.68683
-0.43783	1.63062
-0.92237	2.08976
0.19971	-1.20074
0.93925	-1.94047
0.83725	-0.18043
0.35272	1.17148
-0.10631	1.42656
0.25071	0.86539
0.32721	-0.00188
0.50573	0.17668
0.22521	0.86539
0.25071	0.43176
-0.28482	-0.63957
-0.08081	-0.84363
-0.10631	0.55929
0.02119	-0.33348
-0.00431	0.38074
-0.18282	-1.35379
0.04670	0.40625
0.42922	1.01843
0.53123	0.40625
0.42922	1.17148
0.53123	-0.97117
0.42922	0.53379
0.09770	0.32972
-0.38683	0.43176
-0.33583	0.55929
0.42922	-0.25695
-0.36133	-1.20074
-0.71835	0.53379
0.58223	1.14597
1.01576	0.96742
0.58223	-2.73121
0.65874	-1.60887
0.42922	1.12046
-0.18282	1.52859
-0.74385	1.27351
-0.46334	-1.78742
0.35272	-0.81812
0.12320	0.66132
0.17421	1.37554
0.25071	0.86539
0.53123	1.12046
-0.05531	0.40625
-0.18282	-0.63957
0.25071	-0.33348
0.27621	0.58480
0.22521	-1.07320
0.17421	-0.25695
-0.13181	0.32972
-0.05531	0.96742
0.60773	-1.27726
0.40372	0.61031
-0.10631	1.63062
-0.38683	-2.80773
-0.71835	-0.99668
0.25071	1.47757
0.19971	-0.76711
0.60773	1.37554
0.60773	1.98773
0.55673	0.94191
0.60773	0.20219
0.22521	1.14597
0.09770	0.58480
-0.33583	-0.63957
-0.31033	0.02363
-0.08081	-0.28246
0.09770	-0.86914
0.17421	-0.66508
0.32721	0.40625
0.25071	0.07465
0.19971	-0.43551
-0.28482	0.25320
0.22521	-0.97117
-0.25932	0.99292
0.70974	1.17148
0.25071	0.71234
0.45472	0.61031
0.96476	-0.51203
0.93925	-1.58336
0.32721	-0.07840
0.09770	-0.25695
-0.97337	1.27351
-1.38139	1.35003
-0.00431	0.96742
0.76074	-0.86914
0.78624	-1.12422
0.07220	-0.33348
-0.05531	1.91120
0.40372	1.80917
0.22521	-1.17523
0.27621	-3.62398
-0.48884	0.76336
-0.28482	1.57960
0.14870	1.57960
0.48022	0.10015
0.48022	-1.07320
0.42922	-0.18043
0.02119	2.88050
0.53123	-0.99668
0.42922	-1.50683
-0.43783	-0.05289
-1.50890	0.32972
-1.27939	1.29902
0.99026	1.50308
1.32178	-0.92016
1.21977	-1.07320
0.45472	1.09496
0.30171	0.86539
0.40372	0.40625
-0.10631	-1.09871
0.02119	0.73785
-0.05531	0.61031
-0.20832	1.98773
-0.10631	-1.88945
-0.48884	-2.17003
-0.99887	-0.63957
-0.15732	0.94191
1.04126	0.30422
0.68424	0.99292
0.60773	1.57960
0.37822	1.45206
0.32721	-0.10391
0.37822	0.25320
-0.53984	-0.66508
-0.41233	-0.15492
0.19971	-0.84363
0.27621	0.89089
0.19971	0.38074
0.30171	-0.53754
0.60773	0.30422
0.12320	0.43176
0.17421	0.20219
-0.31033	-0.25695
-0.28482	0.25320
-0.02981	0.63582
0.17421	1.63062
0.32721	-0.92016
0.12320	-2.17003
0.04670	0.83988
0.60773	1.63062
0.55673	0.94191
0.12320	-0.12942
-0.10631	0.45726
-0.43783	0.96742
0.07220	-0.53754
0.12320	-1.96597
0.22521	0.25320
0.25071	1.57960
0.53123	-0.38449
0.35272	0.04914
0.37822	-1.58336
-0.10631	1.40105
-0.13181	1.14597
0.19971	-1.37929
0.32721	0.78886
-0.36133	-0.00188
-0.59084	1.65613
0.07220	1.04394
0.91375	0.76336
0.09770	0.32972
0.12320	-1.09871
0.68424	-0.74160
-0.33583	0.91640
0.09770	1.19699
-0.08081	-0.51203
0.40372	-0.18043
0.73524	-0.58856
0.27621	0.43176
0.40372	0.58480
0.27621	0.20219
0.27621	0.45726
0.12320	1.06945
-0.41233	0.04914
-0.13181	-0.23145
0.02119	-1.04770
-0.41233	-2.80773
-0.31033	0.63582
0.32721	1.42656
0.32721	3.21210
0.32721	0.58480
0.32721	-2.52714
0.27621	0.22769
0.17421	1.14597
0.40372	-0.46102
0.17421	0.66132
0.04670	1.19699
0.12320	-1.27726
0.48022	0.22769
0.42922	0.58480
-0.25932	0.04914
-0.00431	0.45726
-0.20832	0.12566
-0.02981	-1.58336
-0.46334	-0.56305
-0.18282	-1.60887
0.76074	0.78886
0.86275	1.57960
0.73524	1.40105
0.58223	-1.09871
0.35272	0.86539
0.04670	0.55929
-0.02981	0.45726
-0.00431	0.27871
-0.00431	0.83988
0.07220	0.81437
-0.02981	-0.23145
0.02119	0.40625
0.07220	0.43176
0.02119	-1.40480
-0.97337	-1.27726
-1.15188	-0.02739
0.45472	1.06945
0.88825	0.04914
0.76074	0.78886
0.91375	-0.97117
0.96476	-0.35899
0.32721	0.96742
-0.20832	1.17148
0.12320	0.99292
-0.02981	1.04394
-0.31033	-1.25176
0.09770	-1.99148
0.07220	0.68683
0.40372	0.27871
0.32721	-0.30797
0.25071	0.45726
0.12320	0.94191
-0.56534	0.94191
-0.10631	1.73265
0.22521	-2.14453
0.32721	0.32972
0.32721	-1.14973
0.27621	0.86539
0.22521	0.83988
0.22521	2.14077
0.30171	-1.32828
-0.20832	-2.09351
-0.25932	-2.78222
-0.23382	1.01843
0.27621	2.08976
-0.08081	1.68163
0.25071	0.12566
1.01576	0.55929
0.65874	0.66132
0.68424	0.30422
0.32721	-0.00188
-0.08081	-0.25695
-0.25932	-0.33348
-0.05531	-0.05289
-0.10631	0.48277
-0.23382	-2.19554
0.17421	0.12566
0.17421	0.10015
0.27621	0.55929
0.37822	1.14597
0.19971	2.67644
0.25071	-0.56305
-0.59084	-4.74632
-0.64185	-0.25695
0.19971	1.01843
0.17421	2.34484
0.53123	1.75816
0.65874	-0.51203
0.63323	3.31413
0.73524	-0.63957
0.60773	-1.78742
0.14870	0.76336
-0.00431	-0.33348
-0.13181	-1.53234
-0.46334	1.17148
-0.51434	-0.23145
-0.25932	-0.28246
0.25071	-0.58856
0.83725	0.91640
-0.41233	0.45726
-0.51434	-1.58336
-0.08081	0.66132
0.88825	1.32453
0.73524	0.66132
0.35272	0.30422
-0.51434	0.63582
-0.05531	0.07465
0.45472	-0.46102
0.81175	0.55929
0.88825	-0.56305
0.73524	-0.58856
-0.61635	-0.58856
-1.43240	1.29902
0.09770	1.17148
0.37822	0.50828
0.42922	-1.07320
0.55673	0.40625
0.37822	-0.81812
-0.02981	0.45726
-0.05531	1.22250
0.02119	0.58480
0.07220	-1.20074
0.30171	0.10015
0.25071	1.80917
-0.51434	-1.14973
-0.38683	-0.61406
0.35272	0.20219
0.73524	1.04394
0.07220	-1.55785
-0.84586	-0.58856
-0.00431	-0.10391
0.60773	1.68163
0.93925	1.83468
0.99026	1.06945
0.70974	0.02363
0.27621	0.66132
-0.00431	-0.35899
-0.71835	-2.24656
-0.48884	0.15117
-0.20832	0.35523
-0.00431	-0.86914
0.25071	-0.81812
0.02119	0.55929
0.32721	0.83988
0.32721	0.89089
0.37822	0.86539
0.32721	0.50828
0.07220	0.10015
0.02119	0.58480
0.09770	-2.68019
0.04670	-0.43551
0.02119	1.45206
0.12320	0.76336
0.17421	0.35523
0.53123	-0.15492
0.30171	0.38074
0.19971	0.50828
-0.23382	0.02363
-0.64185	0.45726
0.50573	-0.18043
0.63323	0.17668
1.01576	0.58480
0.07220	-2.17003
-0.89686	-0.84363
-0.51434	0.20219
0.63323	-0.12942
0.32721	2.11527
0.19971	0.66132
0.27621	1.42656
0.37822	1.45206
0.32721	-0.84363
-0.10631	-0.12942
-0.13181	0.27871
0.02119	-2.22105
0.37822	-1.53234
0.12320	0.81437
0.17421	0.99292
-0.08081	1.37554
-0.66735	0.89089
0.63323	0.02363
-0.28482	0.27871
0.76074	-0.05289
1.06676	0.10015
0.50573	-0.71609
-0.71835	0.04914
-0.56534	0.22769
0.35272	0.20219
0.50573	0.76336
0.60773	-0.02739
0.60773	-0.15492
0.37822	0.68683
0.27621	0.02363
-0.08081	-0.38449
-0.02981	0.17668
-0.08081	0.73785
-0.76936	1.63062
-0.10631	0.71234
0.14870	-3.29238
0.45472	-0.56305
0.42922	1.32453
0.19971	1.04394
0.07220	0.48277
-0.00431	0.99292
-0.23382	0.50828
0.19971	0.55929
0.73524	0.20219
0.53123	-0.94566
0.30171	-0.20594
0.12320	-0.38449
0.02119	-0.02739
0.12320	-0.05289
0.27621	1.37554
0.17421	-1.73640
0.04670	-0.38449
-0.02981	0.73785
-0.08081	1.22250
-0.00431	-0.25695
0.30171	0.10015
0.37822	1.42656
0.27621	0.25320
0.19971	-0.89465
-0.38683	-0.43551
-0.71835	1.04394
-0.69285	0.38074
0.37822	0.55929
1.09226	1.27351
0.99026	0.27871
0.91375	-1.30277
0.45472	-0.02739
-0.23382	-0.30797
-0.31033	-0.15492
-0.31033	0.04914
-0.15732	-0.30797
0.27621	-0.00188
0.19971	0.35523
0.12320	-0.05289
0.68424	0.55929
-0.28482	0.99292
-0.25932	0.10015
0.04670	-0.89465
0.19971	0.89089
0.09770	1.80917
0.55673	-0.18043
0.48022	-1.22625
0.14870	-0.79262
-0.23382	0.22769
-0.69285	0.73785
-0.13181	0.45726
0.32721	0.68683
0.30171	0.94191
1.60230	0.76336
0.88825	0.32972
0.14870	0.04914
-0.79486	0.12566
-0.13181	-0.05289
0.45472	-0.71609
0.63323	-0.58856
0.32721	-0.02739
-0.31033	0.53379
-0.69285	-0.30797
-0.41233	-1.17523
0.19971	-0.00188
0.42922	0.50828
0.53123	1.27351
0.37822	0.86539
-0.15732	0.66132
-0.15732	1.22250
0.04670	-1.68539
0.07220	-2.32308
0.63323	0.55929
0.50573	1.09496
0.07220	1.47757
-0.15732	1.09496
0.19971	-1.20074
0.07220	0.43176
0.63323	0.45726
0.58223	1.19699
0.58223	1.14597
-0.38683	-0.35899
-0.25932	-1.40480
0.02119	-0.33348
0.19971	-0.33348
-0.00431	-0.10391
-0.41233	-0.51203
0.12320	0.66132
0.99026	0.71234
0.12320	-0.00188
0.40372	0.04914
0.22521	0.50828
-0.20832	0.12566
-0.02981	0.40625
0.22521	-0.12942
0.17421	-0.07840
0.12320	0.91640
-0.02981	0.94191
0.07220	-0.33348
0.37822	-0.43551
0.37822	0.10015
0.40372	-0.10391
0.19971	0.27871
-0.02981	0.76336
-0.36133	0.35523
-0.08081	-0.15492
-0.05531	0.35523
-0.02981	-0.86914
0.42922	-0.07840
0.42922	0.48277
0.48022	-0.02739
0.42922	0.12566
0.32721	-0.58856
0.25071	1.73265
0.32721	0.04914
0.07220	-0.92016
-0.18282	0.27871
-0.92237	1.40105
-0.94787	0.45726
0.35272	-1.71090
0.76074	-0.53754
0.78624	1.06945
0.65874	1.47757
0.32721	-0.15492
0.04670	-0.46102
-0.00431	0.40625
0.12320	0.40625
0.30171	0.17668
-0.28482	1.14597
-0.56534	-0.07840
0.35272	-1.20074
0.22521	-1.73640
0.45472	0.43176
0.14870	1.37554
0.22521	1.45206
0.37822	1.12046
0.30171	-1.58336
-0.18282	-0.46102
-0.13181	0.32972
-0.48884	0.45726
0.32721	0.78886
0.45472	-0.20594
0.37822	1.09496
0.17421	0.32972
0.09770	0.02363
0.09770	-1.22625
0.09770	-0.05289
0.19971	-0.28246
0.17421	0.43176
0.17421	0.83988
0.14870	0.66132
-0.33583	0.86539
0.07220	-0.10391
0.45472	-0.94566
0.37822	-0.15492
0.48022	0.73785
-0.18282	0.10015
-0.38683	-0.51203
0.07220	1.19699
0.53123	-1.27726
0.42922	0.25320
0.07220	0.94191
0.14870	0.58480
0.35272	-1.27726
-0.33583	0.96742
0.32721	1.37554
0.32721	-0.79262
0.30171	0.17668
0.27621	0.53379
0.02119	0.27871
-0.18282	0.89089
0.02119	0.07465
-0.02981	0.07465
0.37822	0.20219
0.30171	-0.38449
0.25071	-0.43551
-0.02981	-0.69059
-0.36133	-0.33348
0.12320	0.38074
0.63323	0.27871
0.63323	0.50828
-0.10631	0.91640
0.12320	0.27871
0.48022	0.12566
0.40372	-0.25695
-0.36133	0.02363
-0.08081	0.55929
-0.46334	-0.76711
0.30171	-0.38449
0.68424	1.37554
0.58223	-0.00188
0.53123	-0.35899
0.45472	0.66132
-0.15732	0.55929
-0.00431	0.40625
-0.02981	0.58480
-0.33583	0.10015
-0.08081	-1.48133
0.17421	-0.81812
0.19971	0.96742
0.30171	1.17148
0.09770	0.10015
0.17421	0.83988
0.19971	-0.00188
-0.20832	-0.46102
0.12320	-0.02739
0.42922	0.25320
0.35272	-0.18043
0.48022	0.32972
-0.02981	0.04914
-0.28482	0.32972
0.32721	0.15117
0.25071	0.02363
0.32721	-0.38449
0.14870	0.38074
-0.10631	0.55929
0.07220	1.29902
0.04670	-1.30277
-0.00431	-1.09871
0.22521	0.63582
0.09770	1.32453
0.17421	1.19699
0.42922	-0.23145
0.25071	-1.35379
-0.00431	0.55929
-0.08081	0.83988
-0.41233	0.81437
0.32721	0.25320
0.58223	-0.12942
0.37822	-0.35899
0.22521	0.43176
0.37822	-0.30797
0.30171	-1.02219
0.02119	1.06945
-0.18282	1.04394
-0.28482	-1.22625
-0.31033	-1.12422
-0.28482	0.45726
0.53123	0.96742
0.65874	0.63582
0.45472	0.35523
0.42922	1.17148
0.37822	0.15117
0.17421	0.40625
0.17421	-0.25695
-0.08081	-0.28246
-0.66735	-0.25695
-0.05531	0.32972
0.14870	0.91640
0.42922	0.81437
0.30171	-0.05289
0.09770	-0.38449
0.40372	-0.41000
0.02119	0.17668
0.42922	-0.69059
0.53123	1.17148
0.45472	1.29902
0.09770	-0.61406
0.09770	-0.79262
-0.02981	1.01843
-0.08081	-1.14973
-0.13181	-1.68539
-0.20832	1.45206
-0.02981	1.12046
0.02119	0.45726
0.32721	0.48277
0.30171	0.43176
0.60773	0.81437
0.32721	0.45726
0.22521	0.22769
-0.20832	-0.79262
-0.51434	-0.56305
-0.13181	-0.07840
0.58223	0.02363
0.76074	0.22769
0.73524	0.10015
0.55673	0.50828
0.40372	0.76336
-0.02981	-0.30797
-1.33039	-0.35899
-0.23382	0.61031
0.48022	-1.37929
0.30171	-1.30277
0.32721	1.17148
0.14870	1.55410
0.42922	0.91640
0.37822	1.19699
0.22521	1.01843
0.04670	0.58480
-0.23382	-1.07320
-0.10631	-0.07840
0.19971	0.02363
0.37822	-1.17523
-0.05531	0.02363
-0.00431	0.27871
-0.02981	-0.66508
0.63323	-0.25695
0.42922	0.61031
0.27621	0.61031
0.32721	0.66132
0.60773	0.50828
0.25071	0.89089
0.14870	1.24800
-0.28482	0.30422
-0.13181	-4.72081
-0.79486	-0.74160
-0.31033	1.12046
0.30171	1.35003
0.88825	0.81437
0.88825	0.38074
0.42922	0.86539
0.12320	0.53379
0.19971	0.27871
-0.00431	0.43176
-0.10631	-0.79262
-0.02981	-0.79262
0.02119	-0.38449
0.27621	0.22769
0.07220	0.63582
-0.00431	0.35523
0.07220	0.12566
0.14870	0.91640
0.45472	0.12566
-0.46334	-0.41000
-0.59084	-2.62918
-0.23382	-0.23145
0.76074	0.76336
0.93925	1.91120
0.88825	1.63062
0.60773	1.14597
0.55673	0.27871
0.30171	0.50828
-0.36133	0.04914
-0.08081	-0.76711
-0.05531	-0.56305
-0.18282	0.15117
-0.18282	0.10015
-0.05531	-0.20594
0.25071	0.02363
0.12320	-0.02739
0.17421	0.04914
0.25071	0.04914
0.30171	0.15117
0.32721	-0.25695
-0.31033	0.25320
-0.05531	0.86539
0.22521	0.04914
-0.48884	-0.41000
-0.20832	1.37554
0.53123	-0.00188
1.04126	-0.07840
0.83725	0.45726
0.58223	0.38074
0.25071	-1.02219
0.04670	-1.17523
-0.18282	0.78886
-0.18282	0.96742
0.04670	1.60511
0.07220	0.89089
-0.00431	0.30422
0.09770	-0.53754
0.12320	-0.58856
0.22521	0.50828
0.42922	-1.04770
-0.10631	-0.07840
-0.41233	0.17668
-0.71835	-0.46102
-0.18282	0.76336
0.45472	0.55929
1.01576	-1.27726
0.81175	-0.41000
0.70974	0.35523
0.14870	1.24800
-0.56534	0.35523
0.35272	0.10015
0.45472	-0.25695
0.32721	0.40625
0.19971	0.55929
-0.15732	0.73785
-0.08081	0.63582
0.22521	0.04914
0.32721	0.38074
0.09770	-0.00188
0.12320	-0.25695
0.02119	-0.25695
-0.05531	-0.63957
0.02119	0.10015
-0.28482	0.45726
-0.18282	-0.35899
0.22521	0.22769
0.70974	0.45726
0.22521	0.53379
-0.13181	-0.20594
0.50573	-0.25695
0.63323	0.66132
0.63323	0.71234
0.45472	-0.48652
-0.25932	-0.51203
-0.36133	-0.41000
-0.31033	0.63582
-0.61635	0.61031
0.17421	0.86539
0.53123	0.38074
0.53123	0.61031
0.48022	0.22769
0.37822	0.89089
0.35272	-0.15492
-0.13181	-1.02219
-0.36133	0.45726
-0.41233	0.04914
0.09770	-1.22625
0.19971	-0.30797
0.53123	0.27871
0.58223	0.55929
0.22521	0.27871
0.25071	-0.00188
0.02119	0.32972
-0.10631	-0.00188
-0.05531	0.43176
-0.18282	0.83988
-0.28482	-1.04770
0.22521	0.12566
0.86275	0.35523
0.73524	0.55929
0.50573	0.45726
-0.15732	-0.25695
-0.20832	-0.51203
0.22521	0.55929
0.50573	1.35003
0.37822	1.04394
-0.02981	0.83988
-0.76936	0.02363
-0.66735	-0.94566
0.22521	-1.40480
0.65874	-0.00188
0.65874	0.91640
0.40372	1.29902
-0.08081	-0.15492
-0.02981	-0.56305
0.09770	-0.23145
0.12320	-0.12942
0.04670	0.32972
0.37822	0.50828
0.17421	-0.02739
0.14870	0.07465
0.04670	0.50828
0.32721	0.30422
0.40372	0.35523
-0.23382	0.02363
-0.00431	0.68683
0.09770	-0.02739
0.42922	-1.55785
0.19971	-1.07320
0.07220	0.96742
-0.36133	1.73265
0.32721	0.50828
0.30171	0.27871
0.22521	0.27871
0.09770	0.30422
0.27621	0.45726
0.35272	-0.46102
0.32721	-0.51203
0.09770	0.22769
0.19971	0.32972
-0.41233	-0.43551
-0.41233	-0.51203
0.07220	0.04914
0.22521	0.71234
0.65874	0.73785
0.17421	0.66132
0.17421	0.40625
0.48022	0.73785
0.04670	-0.00188
-0.00431	-0.07840
-0.28482	-1.30277
-0.10631	-0.97117
0.19971	0.81437
0.65874	0.94191
0.53123	0.48277
0.09770	0.83988
-0.23382	1.04394
0.19971	-0.71609
0.35272	-0.05289
0.42922	-0.00188
0.25071	0.66132
-0.18282	0.63582
-0.36133	-0.86914
-0.13181	-0.51203
0.30171	-0.20594
0.70974	0.71234
0.42922	0.04914
0.37822	0.17668
0.27621	0.45726
-0.53984	0.20219
-0.69285	0.38074
0.37822	0.58480
0.35272	-0.20594
0.27621	-0.81812
0.35272	0.38074
0.32721	0.40625
0.27621	1.12046
0.30171	-1.22625
0.30171	-0.02739
0.22521	0.45726
-0.02981	0.83988
-0.15732	1.24800
-0.28482	0.38074
0.22521	-1.07320
0.04670	-0.20594
0.02119	0.35523
0.32721	0.20219
0.40372	0.30422
0.32721	0.89089
0.07220	0.48277
-0.00431	-0.81812
0.30171	-0.10391
0.35272	-0.20594
0.32721	0.04914
-0.33583	0.45726
-0.33583	0.12566
-0.18282	0.27871
0.37822	-1.35379
0.65874	0.27871
1.04126	0.73785
0.25071	0.76336
-0.02981	1.12046
0.12320	0.61031
-0.56534	0.43176
-0.38683	-0.86914
0.48022	-0.56305
0.48022	-0.33348
0.48022	0.50828
0.14870	-0.05289
-0.31033	0.15117
-0.00431	1.40105
0.09770	-0.25695
0.12320	-1.96597
0.35272	0.22769
0.55673	1.12046
0.35272	-0.00188
0.22521	-0.25695
-0.56534	1.12046
-0.79486	0.38074
0.12320	-0.05289
0.70974	0.40625
0.73524	0.10015
0.37822	0.17668
0.25071	0.32972
0.19971	-0.20594
0.25071	0.10015
0.09770	0.61031
-0.10631	0.02363
-0.13181	-0.86914
0.12320	0.17668
0.17421	0.48277
0.02119	0.32972
0.17421	0.76336
0.12320	0.86539
-0.08081	-1.25176
0.19971	-2.06800
0.42922	0.32972
0.35272	1.22250
0.40372	1.14597
0.14870	0.83988
-0.02981	0.68683
0.17421	0.71234
0.14870	0.07465
-0.18282	-0.48652
-0.13181	-0.30797
0.07220	-0.00188
0.42922	0.30422
0.55673	0.10015
0.42922	-0.69059
0.30171	0.04914
0.19971	0.25320
-0.43783	0.55929
0.12320	0.07465
-0.13181	0.04914
0.02119	0.40625
0.09770	0.83988
0.22521	-1.02219
0.48022	-0.51203
0.32721	-0.18043
0.30171	1.42656
-0.02981	1.04394
0.07220	0.71234
0.27621	0.55929
0.12320	-1.09871
0.19971	-0.30797
-0.13181	0.15117
0.12320	0.68683
0.27621	0.30422
0.22521	0.27871
0.25071	0.20219
-0.00431	0.15117
-0.15732	0.04914
-0.20832	0.02363
0.42922	-0.56305
0.63323	0.10015
0.12320	-0.12942
-0.02981	0.76336
-0.61635	0.12566
-0.79486	0.25320
0.48022	-0.53754
1.01576	-0.99668
0.88825	1.29902
0.63323	1.27351
0.37822	0.76336
0.19971	-0.84363
0.17421	-0.00188
-0.00431	0.22769
-0.23382	-0.10391
-0.28482	0.45726
-0.28482	1.06945
-0.05531	0.73785
0.02119	-1.94047
0.17421	-0.25695
0.35272	0.02363
0.27621	0.12566
0.32721	0.40625
0.22521	0.53379
0.27621	0.55929
0.12320	0.12566
-0.13181	0.20219
0.12320	0.45726
0.27621	-0.66508
0.30171	-0.02739
0.40372	-0.07840
0.30171	0.17668
0.32721	0.48277
0.27621	0.20219
0.04670	0.86539
-0.05531	1.22250
0.02119	-0.12942
-0.48884	0.22769
-0.18282	-2.47613
0.63323	-0.28246
0.17421	1.06945
0.02119	0.71234
0.09770	0.91640
0.58223	0.66132
0.37822	0.30422
0.12320	0.55929
0.14870	0.45726
-0.02981	-0.71609
0.14870	-1.35379
0.12320	-0.81812
0.09770	0.20219
-0.10631	0.81437
0.02119	0.86539
0.22521	0.15117
0.22521	0.30422
0.32721	0.48277
-0.08081	-0.07840
-0.15732	-0.25695
0.35272	0.89089
0.42922	0.15117
0.22521	0.25320
0.22521	0.76336
0.04670	-0.56305
-0.05531	-1.99148
0.32721	-0.56305
0.19971	0.81437
0.09770	1.04394
0.09770	0.63582
-0.05531	0.86539
-0.00431	0.07465
-0.08081	0.22769
0.17421	0.32972
0.19971	0.35523
0.22521	0.10015
0.17421	-0.35899
0.22521	-0.33348
0.19971	0.25320
0.32721	0.78886
0.35272	-0.53754
0.14870	-0.71609
0.02119	-0.97117
-0.08081	0.58480
-0.28482	0.89089
0.35272	0.76336
0.22521	0.78886
-0.13181	0.45726
0.17421	0.91640
0.60773	1.96222
0.42922	-0.46102
0.63323	-2.45062
0.07220	-0.71609
-0.46334	0.40625
-0.18282	0.71234
0.07220	0.96742
0.04670	0.55929
0.32721	0.38074
0.30171	-0.30797
0.19971	0.55929
0.17421	-0.46102
0.12320	-0.18043
0.09770	0.15117
0.27621	0.35523
0.22521	0.35523
0.12320	-0.02739
0.09770	0.17668
0.19971	0.45726
0.14870	0.61031
0.02119	-0.18043
-0.05531	-0.51203
-0.00431	-0.56305
0.42922	0.71234
0.30171	0.89089
-0.15732	-0.02739
0.04670	0.04914
0.53123	-0.38449
0.42922	-0.05289
0.53123	0.76336
0.50573	0.38074
0.12320	0.78886
-0.66735	0.45726
-0.36133	-0.23145
0.22521	0.07465
0.14870	-0.12942
0.63323	0.61031
0.17421	0.27871
0.02119	-0.51203
0.25071	-0.00188
0.19971	-0.33348
-0.00431	-1.17523
-0.15732	0.15117
-0.05531	0.25320
0.32721	0.91640
0.25071	0.94191
0.42922	1.04394
-0.05531	0.66132
0.14870	-0.97117
0.42922	-0.74160
0.45472	0.15117
0.45472	0.68683
0.35272	0.73785
-0.13181	-0.81812
-0.48884	-0.79262
-1.22839	1.01843
-0.38683	0.96742
1.01576	0.53379
0.91375	0.43176
0.73524	0.02363
0.50573	0.04914
0.27621	0.02363
0.35272	-0.10391
0.19971	-0.30797
0.12320	-0.07840
-0.10631	1.09496
-0.87136	-0.71609
-0.71835	-1.73640
0.63323	-0.46102
0.37822	0.10015
0.14870	1.32453
-0.25932	0.99292
-0.08081	1.06945
0.48022	0.50828
0.93925	0.25320
0.81175	0.40625
0.60773	-0.07840
0.32721	-0.15492
-0.00431	-0.20594
-0.13181	-0.15492
-0.08081	0.43176
-0.05531	0.22769
0.17421	1.75816
0.07220	-0.05289
0.04670	-3.11382
-1.10088	-2.45062
-1.25389	1.42656
0.27621	1.57960
0.78624	1.60511
0.88825	1.27351
0.88825	0.78886
0.76074	0.35523
0.48022	-0.10391
0.50573	0.25320
0.30171	-0.51203
-0.08081	-0.99668
-0.89686	-1.04770
-1.61091	-0.07840
0.17421	0.55929
0.60773	0.50828
0.50573	0.50828
0.93925	0.66132
0.58223	0.27871
0.42922	-0.02739
0.32721	0.15117
0.30171	0.86539
0.12320	-0.46102
-0.02981	0.66132
-0.00431	0.45726
-0.15732	-0.46102
-0.20832	-0.35899
-0.00431	0.48277
0.12320	-0.63957
0.12320	-0.07840
0.14870	0.86539
-0.18282	0.81437
-0.02981	0.91640
0.53123	0.89089
0.40372	0.32972
0.48022	-0.07840
0.42922	-0.00188
0.42922	0.12566
0.22521	-0.81812
0.17421	-1.02219
0.22521	-0.28246
-0.08081	0.45726
-0.82036	0.55929
-0.08081	-0.76711
0.50573	-0.02739
0.37822	0.45726
0.04670	1.24800
0.09770	1.22250
0.58223	0.63582
0.37822	0.20219
0.35272	-0.00188
0.42922	-0.18043
0.17421	0.73785
-0.53984	-0.63957
-0.48884	-1.22625
-0.48884	-0.38449
-0.15732	0.40625
0.58223	-0.18043
0.78624	1.14597
0.60773	1.04394
0.30171	0.10015
0.30171	0.25320
0.32721	-0.00188
0.14870	-0.92016
0.07220	0.22769
-0.18282	0.63582
-0.23382	0.38074
-0.10631	0.27871
-0.31033	-0.89465
0.12320	0.15117
0.07220	0.43176
0.63323	0.02363
0.50573	0.22769
0.42922	0.58480
0.25071	0.53379
0.27621	0.94191
0.04670	-0.28246
-0.20832	-2.09351
-0.00431	0.78886
-0.13181	-0.12942
0.25071	0.43176
0.35272	0.99292
0.42922	0.45726
0.42922	0.43176
-0.08081	0.50828
-0.92237	-0.33348
-0.41233	-0.79262
0.63323	-0.02739
0.76074	0.35523
0.86275	0.66132
0.42922	0.04914
0.19971	-0.28246
-0.48884	-0.10391
-0.53984	0.17668
0.07220	0.20219
0.60773	-0.07840
0.53123	1.01843
0.35272	0.63582
-0.28482	0.04914
0.17421	0.30422
0.30171	0.71234
0.35272	-0.99668
0.12320	-0.41000
0.07220	-1.09871
-0.13181	0.25320
-0.10631	0.76336
-0.10631	1.14597
0.17421	1.01843
0.42922	0.86539
0.50573	0.12566
0.30171	0.15117
0.07220	-0.71609
-0.00431	-0.84363
0.02119	0.04914
0.32721	0.58480
-0.05531	0.73785
-0.23382	-0.53754
0.25071	0.07465
0.22521	0.25320
0.22521	-0.92016
0.14870	0.10015
0.32721	1.22250
0.42922	0.99292
0.32721	0.45726
0.09770	0.15117
-0.05531	0.35523
-0.20832	0.50828
-0.05531	0.43176
0.37822	-1.04770
0.45472	-0.71609
0.32721	0.50828
0.17421	-0.12942
0.07220	-0.25695
0.17421	0.45726
0.02119	0.86539
0.25071	0.20219
0.07220	0.53379
-0.05531	0.02363
-0.59084	0.25320
-0.28482	0.20219
0.37822	0.30422
0.70974	0.50828
0.30171	-0.46102
0.40372	-0.63957
0.40372	0.73785
0.30171	0.04914
0.22521	-0.63957
0.19971	0.66132
0.14870	1.37554
-0.25932	-0.61406
-0.46334	-0.56305
-0.31033	0.12566
0.19971	0.86539
0.40372	0.50828
0.37822	0.76336
0.27621	0.32972
0.19971	-0.25695
0.27621	-0.20594
0.14870	0.61031
0.04670	-0.02739
-0.38683	-0.92016
0.09770	-0.07840
0.30171	-0.30797
0.37822	0.02363
0.53123	1.17148
0.30171	1.65613
-0.00431	-0.41000
-0.10631	-2.04250
-0.13181	-0.30797
0.12320	0.96742
0.09770	1.14597
0.37822	0.83988
0.48022	1.12046
0.35272	-0.05289
0.02119	-0.71609
0.09770	0.50828
0.27621	0.22769
-0.02981	0.40625
-0.28482	-0.51203
0.07220	-0.05289
-0.05531	-0.25695
0.48022	0.96742
0.50573	0.55929
-0.18282	-0.74160
-0.51434	-0.46102
0.14870	0.48277
0.32721	0.22769
0.35272	-0.71609
0.55673	0.68683
0.53123	0.35523
0.40372	0.53379
0.25071	0.48277
0.04670	0.94191
-0.18282	0.07465
0.04670	0.53379
0.07220	-0.05289
-0.20832	-0.56305
-0.20832	-0.81812
-0.00431	-0.18043
0.25071	-0.10391
0.60773	1.37554
0.48022	1.45206
0.40372	-0.66508
-0.41233	-0.05289
-0.05531	0.38074
0.14870	0.73785
-0.00431	0.58480
0.50573	0.25320
0.48022	-1.32828
0.45472	-0.00188
0.45472	0.30422
0.09770	0.04914
-0.00431	0.58480
-0.28482	0.30422
-0.51434	-0.38449
0.22521	-1.30277
0.25071	0.38074
0.22521	0.48277
0.40372	0.81437
0.35272	0.58480
0.14870	0.40625
0.22521	0.43176
0.25071	0.25320
-0.05531	-0.05289
-0.36133	-0.02739
0.12320	0.25320
0.30171	-0.07840
0.27621	0.07465
0.25071	0.17668
0.30171	0.27871
0.30171	-0.86914
0.02119	-0.23145
0.04670	1.52859
0.19971	-0.25695
-0.53984	-0.69059
-0.23382	0.22769
0.17421	0.68683
0.60773	0.76336
0.63323	0.25320
0.42922	-0.23145
0.09770	0.58480
-0.31033	0.27871
0.35272	-0.74160
0.02119	-0.35899
0.22521	0.91640
