0.14870	0.22769
0.12320	0.12566
0.12320	0.07465
0.22521	0.12566
0.14870	0.25320
0.07220	0.10015
0.14870	0.04914
0.19971	0.12566
0.14870	0.20219
0.07220	0.15117
0.12320	0.07465
0.22521	0.15117
0.17421	0.25320
0.09770	0.12566
0.14870	0.10015
0.22521	0.22769
0.17421	0.15117
0.09770	0.04914
0.22521	0.15117
0.12320	0.20219
0.09770	0.07465
0.14870	0.15117
0.19971	0.17668
0.09770	0.15117
0.17421	0.07465
0.22521	0.15117
0.09770	0.15117
0.07220	0.15117
0.12320	0.15117
0.14870	0.20219
0.04670	0.15117
0.14870	0.15117
0.25071	0.15117
0.09770	0.04914
0.14870	0.15117
0.17421	0.15117
0.09770	0.15117
0.12320	0.15117
0.12320	0.20219
0.09770	0.15117
0.14870	0.07465
0.19971	0.15117
0.12320	0.22769
0.09770	0.07465
0.14870	0.17668
0.22521	0.25320
0.12320	0.04914
0.14870	0.15117
0.17421	0.15117
0.09770	0.07465
0.14870	0.20219
0.12320	0.12566
0.14870	0.22769
0.22521	0.10015
0.09770	0.22769
0.19971	0.07465
0.04670	0.15117
0.22521	0.15117
0.12320	0.12566
0.12320	0.15117
0.14870	0.04914
0.12320	0.20219
0.17421	0.17668
0.07220	0.12566
0.14870	0.17668
0.17421	0.17668
0.07220	0.04914
0.19971	0.22769
0.12320	0.15117
0.07220	0.10015
0.12320	0.15117
0.19971	0.17668
0.17421	0.10015
0.17421	0.20219
0.12320	0.15117
0.09770	0.04914
0.14870	0.15117
0.12320	0.17668
0.09770	0.07465
0.22521	0.12566
0.14870	0.15117
0.07220	0.07465
0.14870	0.12566
0.14870	0.25320
0.09770	0.12566
0.12320	0.10015
0.19971	0.15117
0.07220	0.22769
0.14870	0.12566
0.14870	0.04914
0.22521	0.15117
0.14870	0.22769
0.07220	0.15117
0.07220	0.07465
0.14870	0.15117
0.17421	0.12566
0.17421	0.17668
0.12320	0.10015
0.19971	0.15117
0.17421	0.22769
0.14870	0.07465
0.14870	0.07465
0.22521	0.22769
0.14870	0.10015
0.04670	0.15117
0.14870	0.17668
0.17421	0.04914
0.09770	0.15117
0.14870	0.15117
0.14870	0.12566
0.09770	0.10015
0.19971	0.17668
0.14870	0.15117
0.07220	0.15117
0.22521	0.17668
0.14870	0.12566
0.14870	0.12566
0.17421	0.12566
0.09770	0.12566
0.12320	0.12566
0.14870	0.12566
0.14870	0.22769
0.22521	0.15117
0.17421	0.15117
0.12320	0.25320
0.14870	0.12566
0.07220	0.17668
0.22521	0.20219
0.14870	0.10015
0.07220	0.12566
0.25071	0.15117
0.14870	0.10015
0.09770	0.15117
0.12320	0.25320
0.12320	0.20219
0.07220	0.10015
0.12320	0.12566
0.19971	0.22769
0.17421	0.15117
0.09770	-0.00188
0.17421	0.12566
0.14870	0.15117
0.02119	0.12566
0.14870	0.20219
0.19971	0.25320
0.14870	0.20219
0.07220	0.04914
0.14870	0.15117
0.12320	0.07465
0.09770	0.07465
0.14870	0.15117
0.17421	0.15117
0.09770	0.07465
0.14870	0.15117
0.12320	0.25320
0.07220	0.10015
0.12320	0.20219
0.14870	0.15117
0.07220	0.07465
0.12320	0.15117
0.17421	0.15117
0.17421	0.15117
0.09770	0.07465
0.14870	0.20219
0.22521	0.15117
0.09770	0.10015
0.14870	0.15117
0.17421	0.22769
0.14870	0.04914
0.04670	0.15117
0.22521	0.20219
0.12320	0.15117
0.09770	0.12566
0.17421	0.15117
0.17421	0.25320
0.12320	0.15117
0.07220	0.04914
0.14870	0.17668
0.17421	0.17668
0.09770	0.12566
0.14870	0.12566
0.22521	0.17668
0.17421	0.20219
0.09770	0.07465
0.14870	0.15117
0.12320	0.20219
0.07220	0.10015
0.14870	0.15117
0.22521	0.22769
0.17421	0.15117
0.12320	0.04914
0.14870	0.15117
0.17421	0.25320
0.12320	0.07465
0.12320	0.15117
0.22521	0.20219
0.12320	0.07465
0.07220	0.04914
0.12320	0.17668
0.19971	0.15117
0.14870	0.12566
0.14870	0.20219
0.12320	0.22769
0.12320	0.15117
0.09770	0.07465
0.14870	0.22769
0.14870	0.17668
0.07220	0.04914
0.14870	0.12566
0.22521	0.02363
0.09770	0.04914
0.12320	0.32972
0.17421	0.22769
0.09770	0.12566
0.14870	0.22769
0.22521	0.15117
0.07220	0.12566
0.14870	0.17668
0.19971	0.10015
0.09770	0.07465
0.14870	0.17668
0.14870	0.15117
0.12320	0.07465
0.17421	0.15117
0.19971	0.15117
0.12320	0.07465
0.14870	0.17668
0.17421	0.17668
0.14870	0.04914
0.09770	0.22769
0.22521	0.17668
0.09770	0.07465
0.14870	0.22769
0.25071	0.15117
0.04670	0.10015
0.12320	0.22769
0.22521	0.10015
0.12320	0.10015
0.14870	0.04914
0.17421	0.15117
0.09770	0.15117
0.12320	0.12566
0.22521	0.17668
0.14870	0.17668
0.09770	0.10015
0.14870	0.02363
0.19971	0.12566
0.17421	0.25320
0.12320	0.27871
0.12320	0.25320
0.22521	0.12566
0.14870	0.15117
0.09770	0.22769
0.09770	0.10015
0.22521	0.02363
0.22521	0.15117
0.14870	-0.02739
0.14870	0.20219
0.12320	0.17668
0.19971	0.12566
0.07220	0.10015
0.22521	0.22769
0.12320	0.12566
0.09770	0.20219
0.22521	0.22769
0.07220	0.10015
0.14870	0.12566
0.22521	0.17668
0.07220	0.10015
0.09770	0.17668
0.14870	0.17668
0.12320	0.07465
0.17421	0.10015
0.12320	0.15117
0.07220	0.17668
0.22521	0.27871
0.14870	0.15117
0.14870	0.17668
0.12320	-0.00188
0.12320	0.20219
0.19971	0.10015
0.09770	0.17668
0.14870	0.22769
0.17421	0.12566
0.07220	0.15117
0.17421	0.17668
0.14870	0.15117
0.09770	0.12566
0.19971	0.12566
0.12320	0.20219
0.12320	0.15117
0.12320	0.10015
0.14870	0.20219
0.22521	0.12566
0.14870	-0.20594
0.12320	0.12566
0.22521	0.10015
0.12320	0.27871
0.14870	0.27871
0.22521	0.20219
0.17421	0.10015
0.14870	0.17668
0.19971	0.15117
0.14870	0.07465
0.12320	0.12566
0.22521	0.12566
0.07220	0.04914
0.22521	0.20219
0.14870	0.12566
0.14870	0.12566
0.22521	0.10015
0.14870	-0.20594
0.07220	0.17668
0.19971	0.22769
0.12320	0.30422
0.14870	0.27871
0.17421	0.15117
0.09770	0.17668
0.17421	0.20219
0.14870	0.12566
0.09770	0.04914
0.19971	0.12566
0.22521	0.12566
0.07220	0.10015
0.17421	0.10015
0.17421	0.25320
0.17421	0.10015
0.12320	0.10015
0.19971	0.20219
0.12320	0.15117
0.14870	0.12566
0.14870	0.15117
0.22521	0.17668
0.17421	0.17668
0.07220	0.10015
0.12320	0.10015
0.17421	0.25320
0.09770	0.15117
0.17421	0.10015
0.22521	0.12566
0.12320	0.17668
0.07220	0.10015
0.14870	0.15117
0.22521	0.22769
0.07220	0.04914
0.17421	-0.00188
0.19971	0.20219
0.14870	0.17668
0.14870	0.20219
0.19971	0.17668
0.19971	0.12566
0.14870	0.15117
0.19971	0.25320
0.17421	0.07465
0.07220	0.15117
0.22521	0.12566
0.12320	0.04914
0.14870	0.22769
0.22521	0.12566
0.07220	0.12566
0.14870	0.12566
0.12320	0.07465
0.09770	0.17668
0.19971	0.25320
0.14870	0.10015
0.09770	0.20219
0.22521	0.22769
0.22521	0.15117
0.09770	0.07465
0.22521	-0.05289
0.14870	0.25320
0.12320	0.22769
0.12320	0.15117
0.14870	0.25320
0.07220	0.15117
0.12320	0.10015
0.19971	0.15117
0.17421	0.20219
0.07220	0.12566
0.17421	0.04914
0.19971	0.15117
0.14870	0.25320
0.09770	0.12566
0.09770	0.07465
0.17421	0.10015
0.14870	0.15117
0.14870	0.15117
0.09770	0.15117
0.22521	0.10015
0.14870	0.15117
0.14870	0.30422
0.07220	0.02363
0.09770	-0.10391
0.14870	0.20219
0.19971	0.25320
0.12320	0.25320
0.12320	0.20219
0.14870	0.25320
0.12320	0.04914
0.19971	0.12566
0.22521	0.02363
0.12320	0.15117
0.09770	0.12566
0.14870	0.22769
0.19971	0.15117
0.09770	0.07465
0.14870	0.15117
0.19971	0.15117
0.17421	0.07465
0.14870	0.12566
0.22521	0.12566
0.12320	0.07465
0.09770	0.15117
0.22521	0.15117
0.12320	0.12566
0.07220	0.10015
0.22521	0.15117
0.17421	0.15117
0.14870	0.12566
0.22521	0.25320
0.12320	0.17668
0.17421	0.15117
0.19971	0.12566
0.09770	-0.05289
0.14870	0.02363
0.22521	0.32972
0.07220	0.25320
0.14870	0.22769
0.22521	0.30422
0.09770	0.15117
0.14870	0.12566
0.14870	0.22769
0.07220	0.10015
0.17421	0.12566
0.19971	0.17668
0.07220	0.04914
0.12320	0.12566
0.19971	0.25320
0.17421	0.15117
0.09770	0.15117
0.14870	0.17668
0.17421	0.15117
0.07220	0.12566
0.14870	0.15117
0.19971	0.20219
0.14870	0.10015
0.07220	0.15117
0.22521	0.20219
0.14870	0.07465
0.09770	0.12566
0.22521	0.25320
0.14870	0.12566
0.07220	0.15117
0.22521	-0.02739
0.12320	0.10015
0.14870	0.20219
0.19971	0.20219
0.09770	0.20219
0.22521	0.22769
0.14870	0.15117
0.07220	0.10015
0.22521	0.22769
0.14870	0.15117
0.09770	0.04914
0.12320	0.17668
0.19971	0.12566
0.12320	0.10015
0.14870	0.15117
0.14870	0.20219
0.09770	0.15117
0.14870	0.15117
0.14870	0.20219
0.09770	0.15117
0.14870	0.12566
0.17421	0.25320
0.17421	0.10015
0.09770	0.10015
0.19971	0.12566
0.14870	0.10015
0.07220	0.12566
0.22521	0.17668
0.17421	0.17668
0.07220	0.15117
0.14870	0.10015
0.19971	0.15117
0.12320	0.15117
0.07220	0.04914
0.12320	0.15117
0.14870	0.12566
0.09770	0.12566
0.19971	0.17668
0.14870	0.15117
0.07220	0.15117
0.12320	0.15117
0.09770	0.07465
0.14870	0.25320
0.14870	0.17668
0.07220	0.00000
0.22521	0.00000
0.14870	0.00000
0.07220	0.07465
0.19971	0.20219
0.22521	0.12566
0.09770	0.15117
0.14870	0.22769
0.14870	0.10015
0.09770	0.15117
0.12320	0.15117
0.07220	0.12566
0.12320	0.20219
0.14870	0.10015
0.14870	0.15117
0.22521	0.15117
0.09770	0.10015
0.17421	0.20219
0.19971	0.15117
0.09770	0.12566
0.14870	0.22769
0.12320	0.10015
0.07220	0.12566
0.22521	0.15117
0.07220	0.10015
0.17421	0.15117
0.14870	0.07465
0.07220	0.15117
0.12320	0.22769
0.19971	0.12566
0.12320	0.07465
0.14870	0.15117
0.22521	0.20219
0.14870	0.15117
0.14870	0.07465
0.09770	0.17668
0.22521	0.15117
0.14870	0.10015
0.09770	0.04914
0.12320	0.02363
0.22521	0.32972
0.14870	0.25320
0.09770	0.12566
0.12320	0.15117
0.25071	0.15117
0.09770	0.04914
0.14870	0.12566
0.14870	0.17668
0.07220	0.10015
0.12320	0.17668
0.19971	0.22769
0.12320	0.15117
0.17421	0.10015
0.22521	0.12566
0.12320	0.15117
0.09770	0.12566
0.22521	0.12566
0.12320	0.15117
0.07220	0.15117
0.14870	0.20219
0.19971	0.15117
0.12320	0.04914
0.09770	0.17668
0.14870	0.20219
0.22521	0.22769
0.14870	0.17668
0.12320	0.04914
0.07220	0.17668
0.17421	0.22769
0.22521	0.22769
0.17421	0.22769
0.07220	0.10015
0.17421	0.15117
0.12320	0.10015
0.12320	0.07465
0.14870	0.15117
0.22521	0.15117
0.14870	0.07465
0.09770	0.15117
0.17421	0.25320
0.19971	0.20219
0.07220	0.10015
0.17421	0.12566
0.19971	0.22769
0.17421	0.20219
0.17421	0.15117
0.17421	0.10015
0.14870	-0.05289
0.17421	0.02363
0.19971	0.30422
0.14870	0.25320
0.07220	0.20219
0.14870	0.17668
0.22521	0.17668
0.17421	0.04914
0.04670	0.12566
0.14870	0.20219
0.22521	0.15117
0.09770	0.07465
0.14870	0.15117
0.25071	0.20219
0.14870	0.15117
0.09770	0.04914
0.14870	0.12566
0.19971	0.15117
0.12320	0.12566
0.07220	0.04914
0.14870	0.12566
0.14870	0.22769
0.07220	0.12566
0.14870	0.20219
0.22521	0.22769
0.09770	0.10015
0.14870	0.04914
0.19971	0.17668
0.14870	0.27871
0.17421	0.10015
0.09770	0.07465
0.14870	0.12566
0.12320	0.25320
0.14870	0.10015
0.04670	0.15117
0.14870	0.17668
0.19971	0.20219
0.14870	0.17668
0.14870	0.15117
0.07220	0.07465
0.09770	0.15117
0.14870	0.20219
0.19971	0.22769
0.19971	0.15117
0.14870	0.15117
0.09770	0.10015
0.07220	0.20219
0.17421	0.17668
0.22521	0.20219
0.12320	0.07465
0.07220	0.15117
0.14870	0.17668
0.19971	0.20219
0.12320	0.20219
0.07220	0.04914
0.14870	0.17668
0.22521	0.07465
0.14870	-0.07840
0.07220	0.12566
0.14870	0.32972
0.19971	0.22769
0.12320	0.15117
0.09770	0.17668
0.14870	0.35523
0.19971	0.25320
0.12320	0.40625
0.09770	-0.33348
0.14870	-0.51203
0.22521	-0.23145
0.14870	-0.20594
0.07220	0.78886
0.14870	0.86539
0.22521	0.76336
0.12320	0.17668
0.14870	0.20219
0.22521	0.25320
0.17421	0.12566
0.07220	-0.58856
0.19971	-0.84363
0.19971	0.10015
0.12320	0.55929
0.02119	0.86539
0.17421	0.45726
0.22521	-0.33348
0.12320	-0.41000
0.04670	-0.18043
0.02119	0.45726
0.12320	0.86539
0.32721	1.32453
0.22521	-0.48652
0.30171	-1.27726
0.25071	0.04914
0.14870	0.22769
-0.00431	-1.55785
0.04670	2.47238
0.04670	2.39585
0.22521	-0.51203
0.19971	-1.78742
0.09770	-0.25695
0.35272	2.95702
0.19971	1.04394
0.07220	-1.02219
0.42922	-1.81293
0.17421	2.80397
-0.13181	1.80917
0.19971	-2.93527
0.09770	-5.38401
0.07220	-1.40480
-0.10631	-1.68539
-0.05531	5.89041
-0.08081	4.64053
0.86275	3.46718
0.37822	1.98773
-0.46334	-4.08312
-0.08081	-1.22625
0.55673	1.65613
0.53123	1.57960
0.02119	-3.62398
0.40372	2.57441
-0.00431	-6.42983
-0.02981	-3.64948
0.65874	-0.05289
0.86275	3.84979
0.09770	6.75768
-1.86593	-0.25695
-2.68198	-5.66460
0.73524	2.03874
0.17421	1.32453
0.14870	1.75816
0.68424	1.35003
1.88281	1.27351
2.39285	2.75296
0.63323	-4.33819
1.83181	2.57441
0.14870	-0.74160
-1.22839	0.63582
-1.50890	-2.19554
-2.52897	-4.26167
-1.30489	-2.70570
0.99026	1.22250
2.69887	4.43647
1.75531	3.05905
1.16877	1.01843
0.02119	-1.32828
-0.18282	-0.38449
-0.64185	-1.50683
-0.00431	2.77847
2.01032	0.66132
1.72980	-2.47613
-1.61091	-2.62918
-7.55279	-1.07320
-5.28315	0.35523
0.32721	-0.33348
3.18340	1.06945
4.07596	1.29902
3.79544	1.60511
1.14327	3.46718
1.32178	0.25320
0.22521	-3.03730
0.60773	1.35003
-1.45790	0.25320
-0.38683	-0.05289
-0.99887	1.47757
-0.15732	0.45726
0.17421	0.12566
0.22521	-0.48652
1.11776	-0.99668
-0.94787	-0.46102
-2.78398	-0.58856
0.25071	0.48277
1.04126	0.30422
1.24527	0.38074
0.35272	-1.07320
0.83725	-2.93527
0.09770	-0.94566
-0.36133	2.98253
0.68424	1.40105
0.76074	0.48277
0.55673	0.07465
-0.31033	1.78367
-1.43240	3.26312
-0.31033	2.90601
0.53123	-3.31788
0.30171	-2.14453
0.19971	0.53379
0.55673	-1.96597
1.19427	2.08976
1.57679	1.04394
-0.02981	1.06945
-3.72755	0.17668
-3.09000	-1.14973
0.68424	-2.34859
1.85731	0.78886
2.01032	0.43176
1.42379	2.39585
1.24527	1.70714
0.68424	-4.56776
-0.23382	2.72745
-0.18282	-3.03730
-0.02981	-1.17523
1.21977	0.61031
-1.71292	2.19179
-0.38683	1.78367
-0.13181	1.37554
-0.71835	0.68683
-0.10631	0.45726
0.22521	0.04914
0.22521	-0.94566
0.99026	-0.00188
0.65874	-0.66508
0.58223	-0.48652
-0.02981	-0.79262
0.58223	-0.02739
0.04670	1.68163
-1.20288	0.25320
-0.15732	-1.71090
0.99026	0.35523
1.21977	0.40625
0.86275	0.48277
0.32721	2.62542
0.07220	1.50308
-0.43783	-1.14973
-0.94787	-3.62398
-0.46334	0.15117
0.45472	0.96742
0.48022	1.78367
0.53123	1.45206
0.40372	-0.46102
0.55673	2.08976
0.60773	1.78367
0.81175	-3.75152
-0.79486	-0.86914
-2.09544	-0.46102
-0.31033	0.78886
0.45472	0.53379
-0.02981	0.96742
-1.61091	1.96222
0.86275	-0.92016
2.01032	-3.16484
1.57679	-1.78742
0.91375	1.98773
0.53123	1.88570
0.27621	0.22769
0.17421	-1.20074
0.02119	0.02363
-0.46334	1.17148
-1.25389	2.06425
-0.56534	-0.79262
0.09770	-0.97117
0.02119	0.15117
-0.51434	-1.32828
0.50573	1.01843
0.42922	0.45726
-0.82036	0.63582
0.55673	0.40625
1.14327	-0.30797
1.78081	0.86539
1.70430	3.82429
-0.48884	-0.99668
-2.12094	-5.48604
-1.10088	-3.87905
0.19971	0.04914
0.73524	2.34484
1.09226	2.19179
0.81175	2.11527
0.83725	1.65613
0.42922	1.27351
-0.05531	0.68683
-0.02981	0.73785
-0.05531	-0.81812
-0.08081	-1.02219
0.22521	0.25320
0.35272	1.55410
-1.40690	-2.01699
-3.14101	-3.98109
-0.51434	-4.08312
1.06676	0.91640
2.26534	1.93671
0.50573	2.85499
-0.92237	1.24800
1.29628	2.59991
0.76074	-0.61406
-0.36133	1.96222
0.91375	-0.05289
0.93925	-0.84363
0.32721	0.73785
0.27621	0.22769
0.19971	-0.33348
-0.28482	-0.51203
-0.10631	-0.23145
-0.25932	-1.71090
-0.46334	-0.10391
-0.53984	0.35523
-0.08081	0.04914
0.04670	0.61031
-0.08081	0.20219
0.40372	0.30422
0.14870	0.22769
0.04670	3.49268
0.07220	1.52859
0.37822	-2.37410
0.76074	-4.79733
0.42922	-1.53234
0.53123	0.68683
0.19971	3.90081
0.32721	4.30893
0.09770	-1.17523
0.70974	0.61031
-2.27395	2.67644
-0.79486	-0.76711
1.11776	-0.58856
1.55129	-2.19554
1.06676	-1.12422
1.24527	1.29902
0.76074	0.96742
0.09770	-0.25695
-1.81492	0.02363
-1.22839	-1.78742
1.19427	0.15117
-0.20832	-0.02739
-2.17195	-0.46102
-0.56534	0.32972
1.98482	0.45726
1.93382	0.43176
1.55129	-0.35899
0.45472	0.78886
0.22521	0.53379
0.27621	1.65613
-0.15732	1.32453
-0.25932	0.35523
-0.31033	-0.23145
-0.79486	-5.38401
-0.87136	-0.43551
-0.13181	1.78367
0.30171	2.42136
0.12320	1.78367
-0.10631	3.00804
0.53123	-2.14453
0.55673	-1.20074
0.53123	1.14597
0.53123	0.48277
0.53123	-0.51203
1.11776	-2.29757
-0.18282	-0.43551
0.19971	1.75816
0.81175	0.89089
-0.64185	-0.12942
-2.45246	0.53379
-1.40690	0.12566
1.19427	-0.23145
1.11776	0.17668
1.85731	2.19179
0.27621	0.55929
0.63323	-2.83324
-0.00431	-3.29238
-0.74385	1.01843
0.27621	2.29382
0.93925	2.03874
0.81175	1.57960
0.04670	0.96742
-0.28482	0.27871
-0.10631	0.04914
-0.38683	0.17668
-0.10631	-0.43551
-0.13181	-1.73640
0.07220	-1.20074
-0.33583	-0.20594
-0.46334	-0.23145
0.12320	0.78886
0.53123	0.32972
0.35272	0.96742
0.30171	-0.15492
0.68424	-0.66508
0.32721	1.06945
0.68424	0.73785
0.04670	-0.53754
0.27621	0.68683
0.22521	2.29382
0.22521	2.37034
0.02119	-2.57816
0.12320	-3.36890
0.37822	-0.53754
0.55673	1.19699
-0.02981	1.75816
-1.48340	1.83468
-1.78942	-0.25695
0.12320	-0.56305
1.04126	0.81437
0.32721	0.99292
0.58223	-1.04770
1.70430	-1.07320
0.63323	0.48277
1.34728	0.71234
0.17421	-0.48652
-0.05531	0.07465
0.04670	0.58480
-0.05531	0.58480
0.12320	0.45726
0.02119	-0.35899
-1.02437	0.71234
-1.27939	0.17668
-0.13181	-1.88945
-0.15732	-0.46102
-0.31033	0.71234
0.96476	1.17148
0.73524	1.50308
0.91375	-0.43551
0.83725	0.07465
0.65874	0.12566
0.40372	1.01843
0.48022	0.15117
0.25071	-0.92016
-0.00431	2.19179
-1.10088	-0.20594
-1.15188	-3.49644
0.32721	-0.58856
0.73524	0.81437
1.04126	1.06945
0.19971	2.03874
-0.33583	1.19699
-0.18282	0.38074
-0.08081	-0.71609
0.45472	-0.76711
0.63323	0.10015
0.60773	-0.23145
-0.10631	0.02363
-0.10631	0.15117
-0.08081	0.63582
-0.23382	-0.18043
0.32721	-1.02219
0.53123	0.55929
0.25071	1.32453
0.60773	-0.48652
0.04670	-0.53754
0.07220	-2.29757
-0.43783	0.55929
0.12320	1.98773
0.19971	2.21730
-0.15732	-2.14453
0.09770	0.61031
-0.41233	0.76336
-0.36133	0.76336
0.04670	-0.38449
1.14327	0.63582
0.83725	0.50828
0.70974	0.32972
0.68424	0.15117
0.25071	-0.10391
-0.23382	-0.92016
-0.33583	-0.43551
-0.59084	-0.56305
-0.28482	0.55929
-0.10631	-1.02219
0.50573	1.37554
0.22521	-1.14973
-0.02981	0.45726
-0.41233	1.63062
0.27621	-0.15492
0.63323	-0.20594
0.14870	0.43176
-0.28482	1.57960
0.48022	2.82948
0.96476	-1.20074
0.35272	-3.11382
-0.28482	0.10015
0.32721	0.43176
0.25071	1.24800
0.37822	-0.48652
0.53123	1.47757
0.09770	0.68683
-0.23382	-0.92016
-2.09544	-0.05289
-0.56534	0.43176
0.12320	0.32972
0.42922	0.55929
1.04126	0.17668
1.24527	-0.05289
0.93925	0.50828
0.53123	-0.76711
0.30171	0.40625
0.09770	-0.99668
-0.23382	-0.46102
-0.02981	0.35523
-0.74385	1.32453
-0.23382	-0.12942
-0.25932	0.20219
0.50573	0.35523
0.40372	0.35523
-0.18282	1.29902
-1.17738	0.73785
0.70974	-1.99148
1.21977	0.02363
0.68424	1.98773
0.12320	0.45726
0.55673	0.38074
0.53123	0.71234
0.60773	-0.48652
0.17421	-2.01699
-0.53984	0.63582
-1.02437	0.15117
0.02119	0.10015
0.53123	0.30422
0.27621	0.35523
-0.18282	-1.14973
-0.13181	-1.30277
-0.20832	1.50308
0.42922	1.75816
0.58223	1.55410
0.55673	0.30422
1.16877	-0.41000
0.12320	0.45726
-0.02981	-0.79262
0.04670	0.38074
0.12320	1.47757
-0.20832	0.10015
-0.28482	-1.04770
0.02119	-0.38449
-0.41233	-2.19554
-0.51434	-1.58336
0.32721	1.06945
-0.10631	1.50308
0.04670	1.24800
1.42379	1.24800
1.14327	0.63582
1.67880	0.32972
-0.51434	0.55929
-0.36133	0.15117
0.37822	-0.76711
0.65874	-1.63437
0.22521	-0.56305
-1.89143	-0.38449
-2.35046	1.37554
0.42922	0.99292
0.88825	0.99292
0.93925	0.99292
0.99026	-0.15492
0.58223	-0.00188
0.37822	-2.29757
0.17421	0.02363
-0.13181	1.35003
-0.28482	0.07465
-0.31033	-0.61406
0.60773	0.96742
0.27621	0.91640
-0.05531	0.66132
0.19971	0.40625
0.19971	0.10015
0.12320	-0.28246
-0.25932	-0.18043
-0.00431	0.99292
0.27621	0.30422
0.65874	-1.35379
0.35272	-2.04250
0.99026	1.29902
0.07220	0.35523
-1.86593	-0.58856
-0.97337	1.37554
1.11776	0.71234
1.04126	-0.69059
0.93925	0.27871
0.63323	1.42656
-0.02981	0.81437
-0.28482	0.17668
-0.25932	1.01843
0.19971	-0.48652
0.22521	-0.48652
-0.25932	0.30422
-0.28482	0.96742
0.19971	-0.63957
0.40372	-2.37410
0.45472	-0.02739
-0.10631	0.22769
-0.99887	-0.53754
-1.15188	0.48277
0.99026	1.19699
0.70974	0.86539
0.63323	0.02363
0.50573	0.68683
0.53123	0.53379
0.53123	0.61031
0.68424	0.43176
0.25071	-0.56305
-0.41233	-0.30797
-0.56534	-0.41000
-0.66735	0.30422
0.07220	0.58480
0.35272	0.61031
0.19971	-0.81812
0.17421	0.43176
0.30171	0.30422
0.63323	-1.04770
0.32721	0.63582
0.12320	0.10015
0.12320	-0.05289
-0.41233	0.94191
-0.15732	1.29902
-0.10631	0.96742
0.02119	0.76336
0.65874	0.17668
0.88825	0.53379
-0.08081	-2.62918
0.14870	0.55929
0.35272	-0.84363
0.60773	-0.66508
0.19971	0.43176
-0.02981	0.66132
-0.05531	1.14597
-0.18282	0.76336
0.22521	0.76336
-0.08081	-0.46102
0.14870	0.86539
0.19971	-0.43551
0.25071	-0.25695
0.45472	0.40625
0.32721	-0.61406
1.32178	-0.38449
-0.13181	-0.25695
-0.94787	0.32972
-0.59084	0.63582
-0.08081	0.89089
0.40372	0.55929
0.76074	0.81437
0.55673	-0.10391
0.55673	-0.35899
1.16877	-0.48652
0.63323	0.35523
-0.33583	0.12566
-0.76936	-0.46102
0.27621	0.15117
0.19971	0.12566
0.09770	0.55929
0.27621	0.53379
0.42922	0.38074
-0.00431	0.02363
-0.76936	0.20219
-0.56534	1.14597
0.35272	-0.15492
0.42922	-2.55265
0.68424	-1.27726
0.30171	1.75816
0.17421	1.50308
-0.28482	0.58480
-0.25932	-0.05289
0.32721	0.81437
0.65874	0.71234
0.55673	-0.58856
-0.05531	0.04914
0.12320	0.45726
0.30171	0.55929
0.30171	0.50828
0.02119	-0.38449
0.17421	-0.71609
0.35272	-2.90976
0.17421	0.27871
0.12320	1.68163
-0.31033	0.07465
0.27621	1.04394
-0.79486	0.78886
-0.53984	-0.00188
0.12320	0.20219
-0.25932	0.32972
0.91375	0.32972
0.91375	0.17668
0.81175	0.07465
0.63323	-0.79262
0.48022	0.76336
0.63323	0.04914
-0.20832	-0.10391
-0.71835	-0.94566
-1.43240	-0.20594
-0.10631	-0.05289
0.73524	0.66132
0.93925	0.30422
0.81175	1.40105
0.09770	0.71234
0.12320	0.20219
0.27621	-0.00188
0.12320	-0.10391
-0.33583	-0.92016
-0.10631	0.81437
0.19971	0.71234
0.37822	-0.18043
-0.28482	0.91640
-0.64185	1.50308
-0.05531	-0.48652
0.27621	-1.32828
0.25071	-1.07320
0.53123	0.02363
0.96476	0.89089
0.73524	0.96742
0.45472	0.63582
-0.00431	-0.38449
-0.18282	-1.32828
-0.33583	-0.79262
0.09770	1.14597
0.35272	1.19699
0.37822	0.73785
-0.02981	0.22769
-0.48884	0.53379
0.32721	0.32972
0.58223	-0.53754
0.42922	-0.33348
0.55673	-0.30797
-1.15188	-0.02739
-1.10088	0.71234
0.73524	0.35523
0.40372	-0.74160
0.99026	-1.12422
0.04670	0.43176
0.42922	0.17668
0.25071	0.17668
0.27621	1.27351
0.35272	0.76336
0.07220	0.66132
0.35272	0.55929
0.07220	0.48277
-0.28482	-1.60887
-0.13181	-0.02739
-0.05531	0.12566
0.22521	0.61031
0.27621	0.66132
0.14870	-0.61406
0.17421	-1.53234
0.27621	0.17668
0.14870	1.17148
-0.20832	1.45206
0.09770	1.37554
0.40372	-0.18043
0.02119	-0.92016
0.37822	-1.53234
0.27621	1.17148
0.30171	-0.41000
0.40372	-0.53754
0.22521	0.25320
-0.41233	1.14597
-0.38683	0.86539
0.35272	0.66132
0.55673	0.73785
0.27621	0.17668
0.25071	0.38074
0.07220	0.71234
0.02119	-1.81293
0.25071	-0.92016
0.37822	-0.69059
0.07220	0.43176
-0.92237	0.91640
-0.82036	1.32453
0.68424	0.10015
0.02119	-0.61406
0.42922	0.45726
0.83725	0.63582
0.76074	0.04914
0.19971	0.15117
-0.53984	0.17668
-0.36133	0.38074
0.32721	0.04914
0.53123	0.10015
0.12320	-0.56305
0.12320	0.17668
-0.05531	0.15117
-0.00431	0.10015
0.17421	0.53379
0.17421	0.66132
0.09770	0.73785
0.12320	-1.07320
-0.02981	-0.58856
0.12320	0.48277
0.27621	0.66132
0.07220	-0.38449
0.27621	0.71234
0.63323	1.14597
0.27621	0.04914
-0.10631	0.63582
-0.10631	0.30422
0.35272	-3.90456
0.40372	0.12566
-0.13181	0.96742
-0.20832	0.86539
0.17421	1.55410
0.07220	0.55929
0.73524	0.04914
0.63323	-0.10391
0.37822	-0.05289
-0.87136	-0.25695
-0.99887	-0.71609
-0.28482	-0.18043
0.35272	0.20219
1.01576	0.45726
1.16877	0.43176
1.06676	0.45726
0.65874	0.63582
-0.61635	-0.41000
-1.17738	-0.02739
-0.28482	0.17668
-0.02981	0.20219
-0.15732	0.30422
-0.02981	0.78886
0.19971	-0.35899
0.58223	-0.43551
0.63323	-0.58856
0.22521	1.19699
0.25071	1.42656
-0.00431	-0.20594
0.14870	-1.58336
0.09770	0.22769
0.17421	0.45726
-0.33583	-0.00188
-0.41233	0.45726
0.27621	1.22250
0.22521	-0.63957
0.42922	1.45206
0.63323	0.20219
0.12320	0.30422
0.02119	-0.79262
0.22521	-0.99668
0.30171	-0.41000
0.12320	-0.25695
0.04670	0.20219
0.48022	0.91640
-0.13181	1.06945
-0.23382	-0.05289
-0.38683	-0.51203
0.02119	0.38074
0.83725	1.17148
0.27621	-0.10391
0.04670	0.02363
0.48022	0.35523
0.58223	0.10015
0.58223	0.17668
0.35272	0.25320
-0.82036	0.12566
0.22521	-0.05289
0.37822	-0.05289
-0.02981	-0.02739
-0.23382	0.38074
0.48022	-0.76711
0.63323	0.10015
0.50573	0.40625
-0.41233	1.70714
-0.51434	-0.58856
-0.59084	-1.40480
0.22521	0.89089
0.73524	0.78886
0.93925	0.73785
0.35272	1.80917
0.17421	-1.17523
0.19971	0.02363
0.07220	-0.23145
-0.28482	0.22769
-0.08081	0.63582
0.27621	0.71234
0.53123	0.55929
0.27621	-0.76711
-0.33583	-0.79262
-0.23382	-0.41000
0.32721	0.99292
0.02119	-0.18043
0.12320	0.04914
0.58223	0.50828
0.50573	0.63582
0.30171	-0.46102
0.09770	0.22769
-0.18282	0.61031
0.22521	0.61031
-0.46334	0.12566
-0.41233	-0.10391
0.19971	0.25320
0.07220	0.27871
0.27621	-0.41000
0.68424	0.76336
0.32721	0.32972
0.09770	0.35523
0.14870	-0.74160
0.09770	-0.41000
0.68424	0.61031
-0.18282	0.45726
0.17421	0.07465
-0.18282	-0.00188
-0.13181	0.27871
-0.53984	0.32972
-0.13181	0.30422
0.55673	0.66132
0.83725	-1.48133
0.60773	-0.02739
0.58223	1.06945
-0.08081	0.89089
-0.46334	0.66132
-0.38683	-0.94566
-0.46334	0.22769
0.55673	0.53379
0.78624	0.27871
0.88825	0.25320
0.68424	-0.18043
-0.10631	0.15117
-0.31033	-0.51203
-0.56534	-0.79262
-0.00431	1.78367
0.48022	0.35523
0.37822	-1.94047
-0.28482	-1.37929
0.04670	1.24800
0.40372	1.40105
0.30171	0.83988
0.42922	1.06945
0.12320	0.68683
0.07220	0.66132
0.22521	-1.37929
0.32721	-1.09871
-0.08081	0.25320
-0.53984	1.04394
0.04670	0.25320
0.32721	-0.20594
0.25071	0.15117
0.32721	0.22769
0.25071	0.27871
0.09770	0.17668
0.12320	0.58480
-0.02981	-1.25176
0.19971	-0.46102
0.09770	0.02363
-0.48884	0.96742
0.02119	0.78886
0.37822	1.09496
0.70974	0.40625
0.65874	0.04914
0.81175	-0.86914
0.09770	-0.20594
-0.18282	0.15117
-0.28482	0.68683
0.68424	0.73785
-0.64185	0.76336
-0.15732	-0.15492
0.27621	-1.68539
0.12320	-0.15492
0.14870	1.17148
0.27621	0.43176
-0.13181	-0.30797
-0.08081	0.86539
0.19971	-0.20594
0.58223	-0.79262
0.40372	0.07465
-0.20832	0.25320
-0.38683	0.66132
0.14870	1.06945
0.63323	-0.38449
0.32721	0.27871
0.07220	0.55929
0.14870	-0.35899
0.42922	-0.15492
0.02119	0.94191
0.50573	0.15117
-0.08081	-0.53754
-0.13181	0.43176
-0.23382	0.22769
-0.31033	0.68683
0.22521	-0.20594
0.19971	-0.10391
0.27621	-0.02739
0.93925	0.20219
0.70974	0.86539
0.65874	-0.43551
-0.76936	-0.86914
-0.53984	0.43176
-0.69285	0.55929
0.25071	0.45726
0.63323	0.27871
0.55673	0.55929
0.73524	0.35523
0.63323	-0.66508
0.58223	-0.63957
0.30171	-0.07840
-0.20832	-0.18043
-0.33583	1.04394
-0.31033	0.91640
-0.43783	0.89089
-0.13181	0.04914
-0.10631	-0.41000
0.91375	-0.05289
0.19971	1.01843
0.27621	-0.86914
0.35272	-0.18043
0.42922	0.78886
0.35272	0.63582
0.19971	-0.58856
-0.36133	-0.56305
-0.31033	0.38074
0.25071	0.68683
0.32721	0.71234
0.17421	-0.05289
0.32721	-0.02739
-0.05531	0.30422
0.12320	-1.14973
0.48022	0.96742
0.25071	-0.00188
0.32721	0.10015
0.25071	-0.43551
0.25071	0.81437
0.04670	1.01843
-0.08081	0.50828
0.07220	-0.07840
-0.02981	0.25320
-0.08081	0.07465
-0.18282	0.40625
-0.02981	-1.37929
0.30171	0.12566
0.19971	0.35523
0.30171	-0.00188
0.50573	0.07465
0.63323	0.48277
-0.25932	0.45726
-0.00431	0.02363
0.30171	0.30422
0.32721	-0.48652
0.19971	0.17668
-0.20832	0.43176
0.22521	0.53379
-0.00431	0.45726
-0.02981	0.30422
0.22521	0.58480
0.48022	-0.35899
0.19971	-0.76711
-0.02981	-0.25695
-0.31033	0.15117
0.42922	0.86539
0.53123	0.55929
0.50573	0.40625
-0.20832	0.45726
-0.38683	-0.28246
0.07220	-0.28246
0.45472	0.27871
0.50573	0.35523
0.45472	0.12566
-0.20832	0.38074
-0.31033	0.73785
0.09770	-0.92016
0.37822	0.17668
-0.46334	0.53379
-0.18282	-0.48652
0.70974	-0.71609
0.53123	-0.43551
0.53123	0.81437
0.25071	1.80917
0.27621	0.86539
0.09770	-1.14973
-0.71835	-0.84363
-0.43783	0.27871
0.53123	0.27871
0.81175	1.01843
0.53123	0.15117
-0.08081	0.68683
0.09770	0.45726
0.88825	0.22769
-0.00431	-0.18043
-0.23382	0.15117
-0.28482	-0.66508
-0.23382	-0.23145
0.04670	0.07465
0.48022	0.35523
0.37822	0.38074
0.27621	-1.07320
0.17421	0.15117
0.14870	1.22250
0.04670	0.10015
0.25071	-0.02739
0.42922	0.30422
-0.20832	0.63582
-0.28482	0.25320
0.40372	-0.86914
0.30171	0.99292
0.22521	0.66132
-0.00431	-0.18043
-0.10631	-1.50683
0.37822	0.30422
0.37822	0.35523
0.48022	0.89089
0.07220	0.89089
0.17421	-1.07320
0.17421	-0.15492
-0.31033	1.01843
0.07220	0.55929
0.42922	-0.23145
0.42922	-0.58856
0.09770	0.38074
-0.53984	0.17668
-0.69285	0.35523
0.60773	0.43176
0.58223	0.25320
0.42922	0.78886
0.19971	0.20219
-0.10631	-1.22625
-0.25932	-0.86914
0.25071	-0.79262
0.60773	1.45206
0.30171	0.27871
0.45472	0.68683
0.42922	0.78886
0.37822	-0.43551
0.12320	1.12046
0.09770	-0.05289
0.19971	-0.48652
-0.00431	-0.48652
-0.18282	0.86539
-0.69285	0.07465
-0.87136	-0.56305
0.09770	0.71234
0.27621	0.58480
0.58223	0.32972
0.58223	-0.30797
0.37822	0.22769
0.40372	0.40625
0.27621	0.45726
0.32721	-0.05289
0.14870	-1.20074
0.17421	-0.25695
0.02119	1.01843
-0.18282	1.40105
0.09770	-0.46102
0.19971	-1.48133
-0.02981	-1.09871
0.02119	1.06945
-0.38683	1.24800
-0.20832	0.07465
0.63323	0.99292
0.83725	1.68163
0.68424	0.61031
0.42922	0.15117
0.32721	-0.15492
0.09770	-0.10391
-0.08081	-0.20594
-0.00431	-0.63957
0.09770	-1.17523
-0.20832	-0.07840
-0.48884	0.32972
-0.00431	-0.23145
0.09770	0.83988
0.14870	0.53379
0.30171	0.63582
0.14870	-0.18043
0.32721	-0.48652
0.73524	0.76336
0.25071	0.76336
-0.79486	-0.61406
-1.02437	-0.89465
0.45472	0.94191
1.29628	1.01843
0.81175	-0.25695
0.40372	0.15117
0.07220	0.02363
0.14870	0.45726
0.37822	0.17668
-0.05531	0.53379
0.19971	0.38074
0.07220	-0.48652
-0.71835	-1.25176
-0.53984	0.40625
0.19971	0.53379
0.70974	0.35523
0.32721	0.20219
0.27621	0.63582
0.25071	0.07465
-0.33583	0.07465
-0.18282	1.04394
0.22521	-1.22625
0.30171	-0.71609
0.58223	0.45726
0.55673	0.40625
0.14870	1.75816
0.22521	0.35523
-0.05531	-0.15492
-0.13181	0.32972
0.12320	0.35523
-0.23382	0.02363
-0.00431	-0.56305
-0.10631	-0.99668
0.22521	0.27871
0.53123	0.96742
0.60773	0.32972
-0.00431	-0.05289
0.58223	0.27871
0.22521	0.53379
0.22521	-0.05289
0.19971	0.22769
0.02119	0.43176
-0.41233	-0.18043
0.45472	-0.25695
0.02119	0.22769
-0.20832	0.71234
0.07220	0.12566
0.37822	-0.30797
0.53123	0.25320
0.30171	0.32972
0.22521	0.25320
-0.00431	-0.38449
0.22521	-0.20594
0.12320	0.45726
-0.28482	0.94191
0.07220	-0.23145
0.25071	0.30422
0.30171	1.04394
0.14870	-0.30797
0.04670	0.17668
0.25071	0.32972
0.42922	-0.35899
0.58223	0.27871
0.68424	0.27871
-0.28482	0.27871
-0.56534	-0.23145
-0.38683	-0.25695
-0.13181	-0.12942
0.60773	0.40625
0.22521	0.96742
0.68424	0.78886
0.14870	-1.17523
0.19971	-1.12422
0.60773	-0.33348
0.53123	0.81437
0.37822	1.17148
0.12320	1.98773
0.04670	0.61031
-0.48884	-0.71609
-0.43783	-0.71609
-0.48884	0.73785
0.02119	0.71234
0.07220	-0.69059
0.50573	-0.86914
0.55673	0.66132
0.60773	1.09496
0.58223	0.63582
0.30171	-0.51203
-0.13181	-0.38449
-1.02437	-0.58856
-0.18282	0.17668
-0.28482	0.20219
0.78624	0.32972
0.73524	0.55929
0.83725	0.50828
0.58223	-0.20594
0.32721	0.30422
0.17421	0.50828
-0.18282	-0.46102
-0.25932	0.25320
-0.15732	-0.63957
0.09770	0.76336
0.07220	0.61031
0.27621	-0.25695
0.14870	0.43176
0.02119	0.53379
0.32721	0.35523
0.37822	0.68683
0.17421	0.02363
0.09770	-0.35899
0.14870	0.40625
0.35272	-0.20594
0.48022	-0.33348
0.35272	-0.25695
-0.51434	0.48277
-0.82036	-0.28246
-0.48884	-0.33348
0.17421	0.22769
0.68424	0.30422
1.09226	0.53379
0.68424	0.96742
0.17421	0.35523
0.78624	-0.12942
0.35272	0.17668
-0.10631	0.45726
-0.48884	-0.35899
0.09770	0.94191
-0.31033	0.58480
-0.08081	-1.88945
0.19971	-1.22625
-0.18282	1.17148
0.30171	0.94191
0.02119	-0.58856
-0.08081	0.22769
0.22521	0.83988
0.37822	0.38074
0.27621	0.10015
0.17421	1.06945
0.48022	0.32972
0.27621	-0.66508
0.25071	-0.51203
-0.20832	0.58480
-0.28482	-0.00188
0.40372	-0.05289
0.55673	0.15117
0.25071	0.17668
-0.33583	-0.00188
0.27621	0.10015
0.12320	0.20219
0.17421	0.50828
0.48022	0.45726
0.37822	0.10015
0.17421	0.07465
-0.43783	-0.15492
-0.28482	0.73785
-0.02981	0.25320
0.32721	-0.10391
0.22521	-0.61406
0.19971	0.40625
0.32721	0.17668
0.42922	0.40625
-0.02981	0.38074
-0.36133	-0.38449
0.12320	-0.25695
0.40372	0.53379
0.07220	0.43176
0.25071	0.27871
0.83725	0.07465
-0.43783	0.43176
-1.50890	-0.15492
-0.89686	0.17668
0.76074	0.48277
1.04126	0.25320
1.32178	-0.10391
1.01576	-0.10391
0.45472	-0.00188
-0.33583	-0.30797
-0.51434	0.91640
-0.08081	-0.18043
0.25071	-0.81812
0.22521	-0.02739
0.12320	0.99292
0.19971	0.96742
-0.48884	0.96742
-0.51434	-0.00188
0.17421	-0.07840
0.22521	-0.71609
0.27621	0.35523
0.12320	-0.15492
0.37822	0.40625
0.40372	0.48277
0.25071	0.83988
0.02119	0.07465
0.27621	-0.28246
0.14870	-0.18043
0.12320	0.15117
0.37822	-0.25695
-0.08081	0.02363
0.02119	0.25320
0.35272	0.25320
0.27621	0.81437
-0.61635	-0.05289
0.19971	-0.51203
0.30171	0.27871
0.42922	-0.10391
-0.05531	0.35523
0.19971	0.73785
-0.05531	0.25320
0.27621	0.40625
0.58223	0.76336
0.19971	-0.48652
0.32721	-0.38449
0.32721	0.12566
-0.05531	0.40625
0.07220	0.78886
0.09770	-0.63957
-0.43783	-1.65988
-0.13181	1.57960
0.22521	0.81437
0.27621	-0.35899
0.45472	-0.02739
0.50573	0.76336
0.30171	0.86539
0.02119	0.53379
-0.76936	-0.43551
-0.43783	-0.51203
0.65874	-1.02219
0.63323	0.58480
0.37822	0.73785
0.27621	0.30422
0.02119	0.27871
-0.02981	0.12566
0.30171	0.15117
-0.13181	0.12566
0.42922	-0.25695
0.55673	0.12566
0.35272	0.32972
0.22521	0.30422
0.17421	-0.25695
0.07220	0.20219
-0.20832	-0.25695
-0.18282	0.76336
-0.00431	0.07465
-0.18282	0.27871
0.07220	0.30422
0.30171	0.63582
0.04670	0.43176
0.27621	-0.02739
0.40372	-0.61406
0.30171	-0.71609
-0.28482	0.96742
-0.87136	0.45726
0.70974	0.10015
0.76074	0.40625
0.78624	0.30422
0.53123	0.35523
0.40372	0.20219
0.12320	-0.00188
0.27621	0.25320
-0.10631	0.10015
-0.10631	-0.56305
-0.05531	-0.69059
-0.28482	0.17668
-0.33583	-0.02739
-0.02981	0.48277
0.17421	0.32972
0.30171	1.32453
0.14870	-0.28246
0.12320	-0.92016
0.19971	-0.10391
0.14870	1.06945
0.14870	0.96742
0.58223	-0.18043
0.37822	0.17668
0.37822	0.38074
0.32721	0.25320
0.14870	0.83988
0.02119	-0.28246
0.37822	0.02363
-0.08081	0.15117
-0.31033	-0.41000
0.12320	-0.61406
0.07220	-0.69059
-0.00431	0.58480
-0.18282	1.04394
0.40372	0.78886
-0.08081	0.35523
0.50573	0.15117
0.32721	0.12566
0.50573	-0.05289
0.42922	-0.02739
0.35272	-0.15492
-0.13181	0.12566
-0.13181	0.07465
0.27621	0.66132
-0.08081	0.15117
-0.00431	-0.76711
0.09770	-0.66508
0.25071	0.35523
0.07220	0.43176
-0.00431	0.76336
0.30171	0.45726
-0.41233	0.50828
0.07220	0.27871
0.70974	0.38074
0.40372	0.58480
0.22521	-1.53234
0.35272	-0.05289
0.55673	1.06945
-0.05531	0.32972
-0.61635	-0.58856
-0.25932	-0.41000
0.35272	0.38074
0.53123	-0.23145
0.32721	0.15117
0.35272	1.27351
0.45472	0.58480
0.07220	0.04914
-0.28482	0.15117
-0.23382	-0.05289
-0.00431	-0.12942
0.14870	-0.25695
0.32721	-0.05289
0.32721	0.10015
0.17421	0.32972
0.22521	0.35523
0.12320	0.10015
0.35272	-0.00188
0.32721	-0.28246
-0.18282	-0.28246
-0.33583	0.55929
0.02119	0.99292
0.53123	0.73785
0.55673	-0.33348
0.14870	0.04914
-0.05531	0.35523
0.25071	-0.10391
-0.33583	0.55929
0.09770	0.48277
0.68424	-0.05289
0.55673	0.27871
0.58223	0.50828
0.50573	-0.56305
0.30171	-1.76191
-0.41233	-0.30797
-0.66735	0.07465
-0.46334	0.38074
0.22521	0.96742
0.58223	1.12046
0.65874	0.76336
-0.33583	0.32972
-0.84586	0.20219
0.50573	-0.07840
0.60773	0.27871
0.70974	0.25320
0.27621	0.07465
0.12320	0.12566
0.32721	-0.28246
-0.02981	-0.86914
-0.00431	-0.38449
0.40372	-0.61406
0.32721	-0.12942
-0.10631	1.37554
0.07220	0.83988
0.04670	0.71234
0.53123	1.06945
0.32721	-0.51203
-0.05531	-0.81812
-0.20832	0.81437
-0.15732	0.76336
-0.41233	0.43176
-0.00431	-0.48652
0.48022	-0.81812
0.86275	-0.33348
0.76074	0.17668
0.45472	0.53379
-0.38683	0.53379
0.09770	0.55929
0.25071	0.30422
-0.00431	0.02363
0.02119	0.02363
0.32721	0.43176
-0.05531	0.27871
0.12320	-0.25695
0.22521	0.20219
-0.00431	-0.74160
0.32721	-0.33348
0.07220	-0.35899
0.27621	0.68683
0.25071	0.99292
0.04670	0.38074
0.37822	0.15117
-0.00431	0.91640
-0.08081	0.68683
0.40372	0.32972
0.17421	-1.91496
-0.69285	-1.14973
0.12320	0.66132
0.42922	0.63582
0.14870	0.30422
0.17421	0.04914
0.42922	0.17668
0.58223	0.89089
0.50573	1.37554
0.37822	0.22769
0.35272	-0.61406
0.25071	0.07465
-0.20832	0.43176
-0.76936	0.66132
0.04670	0.17668
0.02119	-1.09871
0.12320	-0.33348
-0.00431	-0.12942
0.22521	0.02363
0.45472	0.25320
0.45472	0.17668
0.30171	-0.02739
0.02119	1.12046
-0.08081	0.71234
0.02119	0.68683
-0.15732	-0.84363
0.19971	-0.25695
0.35272	-0.66508
0.55673	0.48277
0.25071	0.94191
-0.33583	0.76336
0.30171	0.43176
0.07220	0.27871
-0.20832	-0.02739
0.12320	-0.35899
0.32721	-0.02739
0.42922	0.48277
0.25071	-0.53754
0.19971	-0.35899
0.09770	-0.18043
0.45472	-0.18043
0.25071	0.45726
-0.08081	0.55929
0.12320	0.45726
0.27621	0.43176
0.12320	0.22769
0.19971	0.22769
-0.36133	0.10015
-0.33583	-0.23145
0.17421	0.38074
0.04670	0.48277
0.65874	-0.46102
0.70974	-0.58856
0.32721	0.61031
0.32721	0.35523
-0.64185	-0.30797
-0.82036	-0.71609
0.42922	0.61031
0.37822	0.76336
0.50573	0.71234
0.78624	0.43176
0.70974	0.50828
-0.05531	-0.92016
-0.51434	0.55929
-0.64185	0.17668
0.12320	-0.84363
0.35272	0.58480
0.42922	0.17668
0.37822	0.48277
0.14870	0.17668
0.12320	1.09496
0.19971	-0.23145
0.17421	-1.55785
-0.00431	0.38074
0.04670	0.27871
0.14870	-0.38449
0.12320	0.61031
0.25071	0.81437
0.32721	0.53379
0.30171	-0.15492
0.02119	0.04914
-0.56534	0.35523
-0.64185	0.25320
0.25071	-0.05289
0.50573	0.15117
0.96476	0.04914
0.73524	0.43176
0.32721	0.81437
0.14870	-1.40480
0.35272	-0.48652
-0.41233	0.73785
-0.05531	0.55929
0.40372	0.17668
0.68424	1.12046
0.30171	0.38074
0.02119	0.10015
-0.05531	-0.33348
0.53123	0.53379
-0.48884	-0.38449
-0.23382	-0.15492
-0.02981	0.10015
0.12320	0.22769
-0.00431	-0.05289
0.27621	-0.53754
0.40372	0.07465
0.42922	0.76336
0.37822	1.04394
0.22521	0.32972
0.22521	0.43176
0.12320	-0.25695
-0.23382	-0.02739
0.17421	0.25320
0.19971	0.27871
0.40372	0.25320
0.22521	0.02363
0.50573	-0.25695
-0.28482	-0.15492
-0.59084	0.61031
0.30171	-0.48652
0.42922	-0.07840
0.63323	0.58480
0.14870	-1.04770
-0.08081	0.10015
-0.08081	0.61031
0.07220	0.78886
0.37822	0.12566
0.32721	0.25320
0.12320	0.38074
0.17421	0.35523
0.27621	-0.48652
-0.02981	-0.07840
0.07220	0.53379
0.09770	-0.38449
-0.08081	0.20219
0.12320	0.15117
-0.00431	-0.05289
-0.10631	-0.76711
0.25071	0.96742
0.12320	0.53379
0.40372	0.66132
0.30171	0.12566
0.04670	-0.33348
0.40372	0.17668
-0.23382	0.25320
-1.04987	-0.05289
0.22521	-0.02739
0.86275	0.15117
0.91375	0.76336
0.93925	-0.35899
0.68424	0.55929
0.27621	0.43176
-0.18282	-0.05289
-0.51434	-0.02739
-0.20832	0.25320
-0.23382	-1.37929
0.32721	-1.30277
0.27621	0.58480
0.37822	1.09496
0.04670	1.24800
0.07220	0.81437
0.12320	0.76336
0.12320	0.35523
0.14870	0.58480
0.07220	-0.69059
-0.05531	-0.30797
0.42922	0.25320
0.14870	-0.10391
0.35272	-0.81812
0.19971	0.50828
0.19971	0.27871
0.25071	0.27871
0.25071	0.40625
-0.08081	0.76336
-0.15732	0.20219
-0.13181	0.10015
0.02119	-0.05289
0.50573	0.12566
0.04670	0.04914
0.07220	-0.48652
0.65874	-0.69059
0.37822	0.83988
0.25071	0.89089
0.17421	-0.41000
-0.00431	-0.86914
0.07220	0.96742
-0.05531	1.12046
-0.08081	0.53379
0.17421	0.45726
0.35272	0.58480
0.37822	0.27871
-0.02981	-0.43551
-0.46334	-0.23145
-0.20832	-0.30797
0.30171	-0.15492
0.45472	0.22769
0.68424	0.12566
0.32721	0.20219
-0.15732	0.81437
0.12320	0.55929
0.22521	-0.58856
0.09770	-1.48133
0.14870	0.04914
0.48022	1.12046
0.48022	0.63582
-0.10631	0.32972
-0.13181	0.73785
-0.02981	0.58480
-0.05531	0.35523
0.22521	-1.43031
0.37822	0.89089
0.02119	-0.66508
-0.02981	0.17668
0.53123	-0.25695
0.42922	0.58480
0.14870	0.50828
0.27621	0.10015
-0.41233	0.71234
-0.38683	0.50828
0.42922	0.40625
0.40372	0.12566
0.48022	-0.28246
0.40372	-0.71609
0.42922	0.22769
-0.41233	0.35523
-0.28482	0.10015
0.35272	-0.33348
0.30171	-0.56305
-1.25389	0.04914
-0.20832	0.58480
0.55673	0.27871
0.73524	0.66132
0.76074	0.45726
0.68424	-0.05289
0.32721	-0.00188
0.19971	0.30422
0.17421	0.22769
-0.18282	1.27351
-0.05531	0.53379
-0.10631	-0.86914
-0.13181	-0.46102
0.02119	0.43176
0.07220	-0.30797
-0.05531	-1.14973
0.09770	0.38074
0.14870	0.83988
0.48022	0.50828
0.19971	0.30422
0.09770	0.55929
0.32721	0.17668
0.22521	0.22769
0.60773	0.07465
0.58223	-0.81812
0.37822	0.02363
0.09770	0.27871
-0.41233	0.22769
-0.23382	0.40625
-0.76936	-0.10391
-0.61635	0.17668
-0.00431	0.04914
0.83725	0.40625
0.96476	0.04914
0.68424	0.66132
0.53123	0.96742
0.25071	0.30422
0.22521	-0.33348
0.27621	-1.22625
-0.02981	0.30422
0.04670	0.35523
-0.18282	-0.74160
-0.25932	0.12566
-0.15732	1.68163
-0.08081	0.71234
0.04670	-0.25695
0.02119	-0.43551
-0.02981	0.35523
-0.28482	-0.56305
0.32721	0.15117
1.19427	0.71234
0.63323	-0.20594
0.53123	0.63582
0.42922	-0.05289
0.35272	0.68683
0.30171	0.17668
-0.53984	-0.05289
-0.64185	-0.48652
0.30171	0.55929
0.40372	0.50828
0.42922	-1.20074
0.04670	-0.25695
-0.08081	0.04914
-0.53984	0.63582
0.35272	0.55929
0.12320	0.48277
0.14870	0.66132
0.09770	0.40625
0.53123	-0.00188
0.63323	0.68683
0.60773	0.25320
0.12320	0.40625
-0.53984	-0.30797
0.27621	-1.45582
0.12320	-0.89465
-0.08081	0.50828
0.09770	0.27871
0.19971	1.24800
0.09770	1.27351
0.45472	0.53379
0.09770	-0.38449
-0.10631	-0.23145
-0.71835	0.04914
-0.15732	-0.48652
0.42922	-1.09871
0.35272	0.35523
0.12320	0.96742
0.42922	0.94191
0.37822	0.68683
0.50573	0.25320
0.25071	-0.07840
0.30171	-0.05289
0.12320	0.38074
-0.05531	-0.07840
0.07220	0.68683
0.02119	-1.04770
0.30171	-0.53754
0.17421	-0.46102
0.17421	0.78886
-0.25932	-0.23145
-0.82036	0.96742
-0.53984	0.99292
0.25071	0.66132
0.88825	0.20219
0.78624	-0.94566
0.73524	0.10015
0.42922	1.32453
0.14870	-0.10391
0.32721	-0.43551
-0.56534	-0.61406
-0.51434	0.25320
0.27621	0.83988
0.65874	-0.05289
0.48022	0.73785
0.17421	0.35523
-0.15732	-0.38449
0.04670	-0.28246
0.32721	-0.25695
-0.13181	0.12566
0.27621	0.71234
0.17421	0.17668
0.35272	-0.18043
0.12320	0.22769
-0.59084	0.12566
-0.00431	0.58480
0.25071	0.76336
0.42922	-0.15492
0.50573	-1.43031
0.63323	0.50828
0.07220	0.71234
-0.31033	1.27351
-0.13181	0.45726
0.22521	-0.69059
-0.46334	0.17668
0.17421	-0.41000
0.76074	-1.14973
-0.05531	1.40105
-0.23382	0.94191
0.17421	-0.02739
0.32721	0.45726
0.58223	0.27871
0.45472	-0.10391
0.45472	-0.84363
0.73524	-0.18043
0.40372	-0.10391
-0.25932	2.24281
-1.71292	-1.04770
-1.33039	-2.80773
0.58223	0.04914
0.55673	1.45206
0.27621	1.83468
0.50573	1.19699
0.32721	0.38074
