0.12320	0.35523
0.19971	0.10015
0.04670	0.12566
0.14870	0.07465
0.14870	0.02363
0.07220	0.20219
0.14870	0.17668
0.12320	0.20219
0.07220	0.04914
0.19971	-0.00188
0.07220	0.17668
0.14870	0.17668
0.17421	0.38074
0.09770	0.27871
0.19971	0.04914
0.09770	-0.20594
0.12320	0.15117
0.12320	0.30422
0.07220	0.25320
0.14870	0.25320
0.14870	0.30422
0.07220	0.04914
0.22521	-0.30797
0.09770	0.10015
0.22521	0.15117
0.04670	0.22769
0.22521	0.22769
0.12320	0.27871
0.17421	0.07465
0.14870	0.17668
0.14870	0.04914
0.22521	0.17668
0.09770	0.32972
0.25071	0.15117
0.14870	0.07465
0.12320	0.04914
0.19971	0.07465
0.09770	0.10015
0.17421	0.12566
0.14870	0.22769
0.07220	0.15117
0.17421	0.27871
0.07220	0.17668
0.22521	0.10015
0.12320	0.20219
0.14870	0.20219
0.14870	0.17668
0.07220	0.25320
0.25071	0.22769
0.17421	0.20219
0.14870	-0.38449
0.12320	-0.15492
0.12320	0.35523
0.12320	0.45726
0.25071	0.45726
0.14870	0.25320
0.14870	0.22769
0.19971	0.20219
0.12320	0.25320
0.12320	0.10015
0.19971	-0.05289
0.09770	0.10015
0.17421	0.04914
0.22521	0.10015
0.07220	0.17668
0.12320	0.07465
0.12320	0.10015
0.09770	0.20219
0.22521	0.10015
0.14870	0.22769
0.12320	0.20219
0.22521	0.15117
0.04670	0.17668
0.19971	0.15117
0.17421	0.12566
0.07220	0.30422
0.22521	0.22769
0.14870	0.15117
0.07220	0.12566
0.22521	-0.02739
0.09770	0.32972
0.14870	-0.12942
0.19971	-0.00188
0.04670	0.35523
0.14870	0.04914
0.22521	-0.51203
0.14870	0.25320
0.17421	0.55929
0.22521	0.35523
0.17421	0.40625
0.14870	0.17668
0.19971	0.02363
0.17421	0.10015
0.17421	0.15117
0.22521	-0.00188
0.09770	0.12566
0.19971	-0.00188
0.12320	-0.05289
0.12320	0.15117
0.19971	0.04914
0.07220	0.30422
0.12320	0.25320
0.14870	0.22769
0.14870	0.25320
0.22521	0.12566
0.09770	0.17668
0.12320	0.15117
0.19971	0.12566
0.09770	0.12566
0.14870	0.20219
0.17421	0.20219
0.12320	0.15117
0.04670	0.12566
0.14870	0.22769
0.17421	0.25320
0.19971	0.25320
0.14870	-0.12942
0.09770	-0.38449
0.14870	0.15117
0.12320	0.43176
0.12320	0.43176
0.09770	0.30422
0.17421	0.02363
0.14870	0.07465
0.19971	0.25320
0.14870	0.15117
0.12320	0.22769
0.09770	0.22769
0.19971	0.15117
0.12320	0.07465
0.12320	0.10015
0.22521	0.15117
0.22521	0.07465
0.14870	0.04914
0.09770	0.32972
0.14870	0.15117
0.22521	0.07465
0.12320	-0.00188
0.14870	0.07465
0.19971	0.32972
0.14870	0.25320
0.14870	0.43176
0.09770	-0.05289
0.19971	0.04914
0.07220	0.25320
0.14870	-0.12942
0.22521	0.25320
0.09770	0.30422
0.12320	0.17668
0.17421	0.17668
0.14870	0.15117
0.17421	0.22769
0.12320	0.43176
0.12320	-0.30797
0.12320	-0.07840
0.14870	0.04914
0.19971	-0.05289
0.07220	0.25320
0.14870	0.40625
0.25071	0.20219
0.09770	0.10015
0.14870	0.20219
0.22521	0.15117
0.14870	0.10015
0.07220	0.15117
0.12320	0.20219
0.12320	0.15117
0.07220	0.15117
0.12320	0.04914
0.19971	0.22769
0.14870	0.22769
0.12320	0.04914
0.09770	0.17668
0.14870	0.32972
0.22521	0.20219
0.07220	-0.00188
0.17421	0.20219
0.25071	0.25320
0.12320	0.10015
0.07220	0.07465
0.14870	0.12566
0.19971	0.07465
0.12320	0.25320
0.12320	-0.05289
0.12320	0.02363
0.14870	0.22769
0.19971	0.20219
0.07220	0.30422
0.14870	0.43176
0.14870	0.25320
0.09770	0.10015
0.07220	-0.18043
0.14870	-0.35899
0.17421	-0.02739
0.07220	0.35523
0.07220	0.58480
0.14870	0.45726
0.19971	0.17668
0.14870	-0.18043
0.12320	0.15117
0.19971	0.32972
0.22521	0.17668
0.14870	0.10015
0.09770	0.04914
0.19971	0.20219
0.19971	0.22769
0.12320	0.07465
0.07220	-0.15492
0.14870	-0.18043
0.22521	0.17668
0.14870	0.25320
0.09770	0.45726
0.12320	0.40625
0.22521	0.32972
0.09770	0.25320
0.07220	0.12566
0.14870	0.15117
0.14870	0.10015
0.22521	-0.18043
0.04670	0.10015
0.14870	0.10015
0.12320	0.17668
0.22521	0.02363
0.17421	0.12566
0.07220	0.22769
0.12320	0.22769
0.19971	0.30422
0.14870	0.25320
0.09770	-0.10391
0.14870	0.20219
0.22521	0.25320
0.09770	-0.05289
0.09770	0.12566
0.22521	0.40625
0.14870	0.25320
0.07220	-0.00188
0.17421	0.10015
0.22521	0.27871
0.14870	0.20219
0.07220	0.02363
0.12320	-0.02739
0.14870	0.07465
0.07220	0.10015
0.14870	0.22769
0.19971	0.25320
0.19971	0.22769
0.12320	0.12566
0.09770	0.15117
0.12320	0.17668
0.19971	0.10015
0.12320	0.07465
0.07220	0.27871
0.14870	0.04914
0.22521	-0.00188
0.07220	0.20219
0.22521	-0.05289
0.12320	0.25320
0.07220	0.20219
0.19971	0.20219
0.09770	0.22769
0.12320	0.10015
0.17421	0.43176
0.07220	0.35523
0.12320	-0.48652
0.22521	-0.23145
0.14870	0.22769
0.12320	0.61031
0.22521	0.40625
0.04670	0.27871
0.14870	0.15117
0.22521	0.07465
0.12320	0.02363
0.14870	0.07465
0.25071	0.15117
0.12320	0.15117
0.04670	0.10015
0.14870	0.04914
0.22521	0.27871
0.07220	0.04914
0.09770	-0.10391
0.14870	0.20219
0.19971	0.30422
0.09770	0.25320
0.12320	0.15117
0.19971	0.17668
0.19971	0.12566
0.12320	0.12566
0.07220	0.30422
0.14870	0.27871
0.17421	0.35523
0.22521	-0.25695
0.12320	0.04914
0.09770	0.27871
0.14870	0.22769
0.22521	-0.33348
0.12320	0.22769
0.07220	0.45726
0.14870	0.27871
0.22521	0.07465
0.14870	-0.15492
0.12320	0.25320
0.07220	0.35523
0.14870	0.22769
0.22521	0.22769
0.07220	0.10015
0.14870	0.12566
0.22521	0.10015
0.19971	0.10015
0.12320	-0.05289
0.07220	-0.07840
0.17421	0.20219
0.19971	0.17668
0.22521	0.07465
0.12320	0.25320
0.09770	0.27871
0.14870	0.22769
0.22521	0.22769
0.12320	0.17668
0.04670	0.32972
0.22521	0.30422
0.12320	-0.46102
0.07220	-0.20594
0.19971	0.30422
0.14870	0.40625
0.09770	0.32972
0.22521	0.20219
0.07220	0.20219
0.12320	0.17668
0.14870	0.10015
0.09770	-0.12942
0.22521	-0.05289
0.17421	0.04914
0.07220	0.20219
0.12320	0.17668
0.27621	0.12566
0.12320	0.17668
0.17421	0.35523
0.14870	0.25320
0.19971	0.20219
0.09770	-0.00188
0.19971	-0.00188
0.07220	0.35523
0.17421	0.10015
0.22521	-0.20594
0.07220	0.17668
0.14870	0.07465
0.14870	0.25320
0.12320	0.35523
0.22521	0.38074
0.14870	0.30422
0.14870	0.30422
0.07220	0.25320
0.17421	-0.02739
0.09770	-0.28246
0.19971	0.10015
0.07220	0.04914
0.19971	0.25320
0.17421	0.25320
0.14870	0.27871
0.19971	0.17668
0.09770	-0.05289
0.19971	0.20219
0.09770	0.10015
0.22521	0.15117
0.12320	-0.05289
0.19971	-0.18043
0.14870	0.17668
0.14870	0.32972
0.14870	0.45726
0.09770	0.22769
0.22521	0.20219
0.17421	0.30422
0.12320	-0.05289
0.12320	0.07465
0.07220	-0.12942
0.19971	0.22769
0.12320	0.27871
0.14870	-0.35899
0.19971	0.27871
0.09770	0.27871
0.17421	0.22769
0.12320	0.30422
0.07220	0.15117
0.17421	0.17668
0.09770	0.10015
0.14870	-0.15492
0.12320	0.20219
0.12320	0.17668
0.22521	0.22769
0.14870	0.30422
0.17421	-0.15492
0.22521	0.22769
0.04670	0.22769
0.19971	0.10015
0.14870	0.50828
0.17421	0.15117
0.22521	-0.25695
0.07220	0.12566
0.12320	-0.20594
0.19971	0.12566
0.07220	0.32972
0.12320	0.27871
0.17421	0.25320
0.14870	0.10015
0.22521	0.20219
0.04670	0.10015
0.22521	-0.00188
0.12320	0.07465
0.17421	0.30422
0.17421	0.15117
0.07220	-0.00188
0.14870	0.20219
0.22521	0.40625
0.17421	0.20219
0.07220	-1.17523
0.12320	0.02363
0.19971	0.38074
0.12320	0.55929
0.09770	0.53379
0.14870	0.53379
0.17421	0.30422
0.17421	0.10015
0.17421	0.04914
0.22521	0.20219
0.12320	0.10015
0.07220	-0.15492
0.14870	0.15117
0.12320	0.15117
0.22521	0.17668
0.07220	0.30422
0.14870	0.04914
0.22521	-0.43551
0.19971	0.27871
0.14870	0.38074
0.19971	0.15117
0.17421	0.22769
0.19971	0.17668
0.12320	0.27871
0.14870	0.27871
0.14870	-0.05289
0.19971	-0.00188
0.12320	0.20219
0.07220	0.25320
0.19971	0.15117
0.14870	-0.07840
0.09770	0.20219
0.22521	0.35523
0.14870	0.25320
0.09770	0.27871
0.22521	0.12566
0.12320	-0.25695
0.07220	-0.05289
0.22521	0.25320
0.07220	0.43176
0.14870	-0.05289
0.14870	-0.00188
0.07220	0.25320
0.14870	0.25320
0.22521	0.30422
0.07220	0.25320
0.14870	0.17668
0.17421	0.10015
0.07220	0.17668
0.12320	0.07465
0.12320	-0.30797
0.09770	0.12566
0.22521	0.25320
0.17421	0.30422
0.14870	0.10015
0.07220	0.15117
0.14870	0.12566
0.19971	0.17668
0.12320	0.25320
0.12320	0.20219
0.12320	0.17668
0.17421	0.07465
0.22521	0.15117
0.14870	0.15117
0.12320	0.02363
0.09770	0.02363
0.17421	0.15117
0.19971	0.25320
0.17421	0.25320
0.09770	0.35523
0.12320	0.43176
0.25071	0.04914
0.12320	-0.41000
0.07220	-1.12422
0.12320	0.38074
0.22521	0.63582
0.12320	0.53379
0.14870	0.45726
0.19971	0.40625
0.14870	0.15117
0.17421	0.12566
0.07220	0.04914
0.19971	0.00000
0.17421	0.00000
0.09770	0.00000
0.14870	0.00000
0.22521	0.04914
0.09770	0.04914
0.19971	0.15117
0.14870	0.04914
0.14870	0.35523
0.22521	0.15117
0.12320	-0.12942
0.14870	0.20219
0.17421	-0.07840
0.07220	0.10015
0.14870	0.30422
0.17421	0.17668
0.07220	0.38074
0.22521	0.35523
0.04670	0.15117
0.14870	0.25320
0.22521	0.15117
0.09770	0.04914
0.14870	0.20219
0.22521	0.12566
0.14870	-0.05289
0.09770	0.17668
0.22521	0.12566
0.09770	0.10015
0.12320	0.02363
0.22521	0.15117
0.14870	0.12566
0.09770	0.04914
0.12320	0.22769
0.19971	0.30422
0.14870	0.20219
0.07220	0.22769
0.14870	0.15117
0.22521	-0.07840
0.22521	0.30422
0.07220	0.30422
0.12320	0.17668
0.19971	-0.07840
0.12320	-0.05289
0.12320	0.30422
0.14870	0.25320
0.14870	0.25320
0.04670	0.10015
0.14870	0.12566
0.22521	0.15117
0.09770	0.07465
0.14870	0.12566
0.19971	0.20219
0.12320	0.12566
0.04670	0.04914
0.14870	-0.00188
0.22521	0.35523
0.14870	0.17668
0.14870	0.04914
0.17421	0.20219
0.19971	0.25320
0.12320	0.04914
0.09770	0.04914
0.14870	0.10015
0.14870	0.32972
0.14870	0.25320
0.07220	0.10015
0.19971	0.15117
0.14870	0.22769
0.09770	0.07465
0.12320	0.15117
0.19971	0.20219
0.09770	0.07465
0.14870	0.12566
0.14870	0.25320
0.07220	0.15117
0.17421	-0.10391
0.22521	0.02363
0.09770	0.10015
0.12320	0.25320
0.19971	0.30422
0.07220	0.22769
0.14870	0.15117
0.19971	0.17668
0.12320	0.15117
0.17421	0.20219
0.12320	0.15117
0.07220	0.02363
0.19971	0.15117
0.09770	0.04914
0.14870	0.17668
0.14870	-0.02739
0.17421	0.07465
0.17421	0.35523
0.07220	0.12566
0.14870	0.20219
0.25071	0.25320
0.07220	0.17668
0.12320	-0.10391
0.19971	0.27871
0.12320	0.25320
0.14870	0.02363
0.22521	0.35523
0.17421	0.30422
0.07220	0.25320
0.14870	0.20219
0.22521	0.04914
0.07220	0.02363
0.14870	0.10015
0.22521	0.07465
0.17421	0.15117
0.12320	0.12566
0.19971	0.12566
0.17421	0.17668
0.14870	0.02363
0.19971	0.15117
0.17421	0.07465
0.09770	0.04914
0.22521	0.27871
0.14870	0.17668
0.17421	0.15117
0.14870	0.20219
0.17421	0.25320
0.07220	0.17668
0.14870	0.15117
0.19971	0.17668
0.17421	0.07465
0.12320	0.15117
0.17421	0.10015
0.07220	0.04914
0.12320	0.15117
0.22521	0.12566
0.12320	0.15117
0.07220	0.15117
0.19971	0.35523
0.17421	0.30422
0.09770	-0.05289
0.14870	-0.20594
0.09770	-0.18043
0.19971	0.61031
0.12320	-0.07840
0.12320	-0.58856
0.14870	-0.02739
0.09770	0.73785
0.17421	0.91640
0.14870	0.71234
0.14870	0.25320
0.25071	0.17668
0.12320	-0.23145
0.07220	0.22769
0.12320	0.83988
0.02119	0.22769
0.14870	-0.05289
0.17421	-2.29757
0.12320	-0.84363
0.25071	0.25320
0.40372	1.14597
-0.05531	1.35003
-0.02981	-0.35899
0.19971	-1.55785
0.12320	0.55929
0.32721	1.47757
0.07220	2.01323
-0.02981	1.88570
0.53123	0.71234
0.70974	-0.35899
0.42922	-0.38449
-0.61635	0.94191
-0.74385	-4.13413
0.22521	-5.66460
0.58223	-1.96597
0.73524	3.69675
0.17421	3.36515
-0.66735	2.65093
-0.51434	3.72225
-1.43240	-0.25695
-0.64185	-0.12942
1.32178	-0.48652
1.85731	0.17668
1.78081	-3.21585
1.55129	0.45726
1.19427	4.79358
0.35272	-0.00188
0.04670	-7.62869
-0.69285	-3.08831
-2.01894	-2.80773
-2.86049	-0.38449
-0.48884	5.91592
-0.28482	5.15069
1.52579	0.43176
0.83725	-1.04770
-0.99887	2.54890
-0.02981	1.70714
1.70430	-2.52714
2.72437	-3.64948
1.32178	2.62542
-0.53984	-2.24656
-1.94243	5.53330
1.42379	2.59991
0.37822	-6.99100
-2.12094	-7.32260
0.63323	2.08976
-0.74385	0.40625
-0.41233	3.44167
2.54586	4.79358
2.34184	2.16628
0.68424	0.66132
-2.04444	-0.07840
-1.20288	-0.05289
1.52579	-0.15492
-1.15188	1.75816
0.14870	-4.36370
0.53123	-2.01699
-0.51434	-2.19554
-0.02981	-0.71609
1.34728	-1.09871
0.63323	6.14549
-3.80405	-2.70570
-2.78398	-8.24088
1.72980	1.63062
2.59686	1.75816
3.05589	5.12518
2.08683	4.23241
1.09226	4.02835
-0.00431	-0.23145
-0.59084	-1.32828
-1.55991	0.25320
-0.71835	2.70194
-1.15188	-4.92487
-1.68742	-7.37362
-0.84586	0.53379
0.81175	0.68683
1.29628	2.65093
1.55129	2.34484
1.44929	2.47238
1.24527	0.71234
0.32721	2.72745
-2.52897	-2.75671
-0.69285	-7.16955
0.12320	-4.10862
0.60773	2.06425
-0.10631	3.08456
0.35272	3.21210
0.68424	2.75296
-0.02981	1.80917
0.88825	-1.20074
0.68424	0.61031
0.37822	0.68683
-0.33583	-0.58856
-0.38683	2.19179
-0.18282	-1.40480
0.04670	-3.70050
0.60773	-2.78222
0.30171	1.01843
-0.15732	-2.14453
-0.38683	1.14597
0.22521	3.31413
0.17421	0.99292
0.53123	2.44687
0.50573	2.39585
0.45472	0.32972
-0.31033	0.50828
-0.61635	-9.15916
-0.61635	-0.35899
0.65874	2.21730
1.27078	0.55929
-0.36133	1.14597
-0.48884	3.82429
-0.28482	4.28343
0.55673	-3.34339
1.75531	-0.76711
0.96476	0.38074
-2.55447	-1.40480
-1.10088	-1.09871
1.29628	0.32972
1.11776	0.66132
1.24527	-0.12942
0.83725	0.71234
0.22521	0.04914
0.12320	-0.56305
0.04670	0.50828
-0.48884	0.78886
-0.69285	0.91640
-0.23382	0.48277
-0.00431	-1.20074
-0.23382	-0.43551
-0.61635	-1.32828
-0.08081	2.90601
0.35272	1.73265
0.73524	-0.07840
0.78624	-2.29757
0.68424	-3.85355
0.40372	1.65613
0.32721	2.62542
0.22521	0.76336
-0.28482	1.96222
-0.48884	-3.08831
0.12320	2.16628
0.65874	1.96222
0.53123	1.04394
0.78624	-1.73640
0.63323	-0.41000
-0.69285	0.53379
-0.84586	0.76336
-0.74385	-3.11382
-0.66735	-4.13413
0.07220	1.37554
1.11776	1.35003
1.06676	1.45206
-0.05531	1.98773
-0.02981	1.01843
1.04126	1.80917
0.40372	-0.20594
-0.05531	-2.45062
0.30171	-3.34339
-0.41233	0.68683
0.12320	0.83988
0.14870	1.09496
0.27621	1.68163
0.27621	0.04914
-0.20832	0.27871
-0.56534	1.57960
0.27621	0.86539
0.27621	-5.17995
0.02119	0.73785
0.07220	-1.86394
0.30171	1.40105
0.76074	1.14597
0.22521	1.42656
-1.02437	2.44687
0.63323	2.26831
0.65874	1.22250
0.45472	-2.60367
0.04670	-0.58856
0.14870	-2.83324
0.22521	-0.46102
0.63323	0.71234
0.63323	0.83988
0.19971	2.82948
-0.61635	3.08456
-1.10088	-2.93527
-0.92237	-7.04202
0.50573	-0.76711
1.32178	2.06425
0.96476	2.57441
0.78624	2.93151
-1.48340	2.24281
0.53123	0.78886
0.50573	0.38074
0.42922	0.12566
0.04670	-0.53754
0.22521	-0.28246
-0.74385	-1.48133
-0.66735	-0.66508
1.11776	-0.97117
0.83725	0.15117
0.48022	0.76336
0.35272	3.36515
-0.08081	-4.23616
-0.46334	-4.15964
-1.27939	1.50308
0.27621	1.78367
0.70974	1.96222
0.78624	1.75816
0.65874	1.60511
0.42922	0.45726
0.07220	-1.63437
0.02119	0.27871
-0.10631	0.27871
-0.05531	-0.48652
-0.08081	0.55929
-0.00431	-0.99668
0.22521	0.66132
0.22521	-3.52195
0.53123	-0.61406
0.35272	0.55929
-0.31033	2.85499
-0.53984	1.93671
0.04670	0.58480
0.19971	1.98773
0.14870	-0.94566
0.37822	-2.93527
1.44929	-1.12422
1.60230	1.29902
0.76074	2.08976
-0.94787	3.18659
-2.22295	-3.52195
-1.02437	-0.46102
0.09770	1.47757
0.78624	-2.04250
1.21977	1.52859
1.04126	-1.09871
0.42922	-1.12422
0.45472	1.75816
0.27621	1.45206
0.19971	1.37554
-0.64185	-0.05289
-0.94787	0.76336
-0.00431	-1.58336
-0.08081	0.45726
0.35272	-0.02739
0.27621	1.50308
0.02119	-2.80773
0.32721	0.38074
0.09770	0.76336
-0.79486	-1.07320
0.12320	0.04914
0.50573	0.38074
0.76074	-0.46102
0.68424	0.71234
1.06676	0.07465
0.22521	2.39585
-0.28482	0.17668
-0.31033	-1.27726
-0.08081	-0.51203
-0.08081	0.55929
0.32721	-0.69059
1.34728	0.58480
0.17421	0.99292
0.27621	0.40625
-0.05531	0.27871
-1.68742	-0.20594
0.14870	1.80917
0.30171	0.96742
-0.46334	-2.78222
0.22521	-1.48133
1.11776	1.70714
0.99026	-0.12942
0.86275	-0.23145
-0.02981	0.40625
-0.13181	1.04394
0.19971	0.04914
-0.00431	1.96222
-0.08081	0.40625
-0.56534	-1.86394
-0.87136	-0.43551
0.22521	1.75816
0.42922	-0.84363
0.40372	-0.05289
0.65874	0.78886
0.65874	0.15117
0.60773	0.53379
0.50573	-0.76711
-0.00431	0.53379
-1.04987	0.15117
-0.64185	0.68683
-0.05531	-1.07320
0.60773	1.86019
0.68424	-0.94566
0.42922	0.48277
-0.18282	0.76336
0.14870	-1.09871
0.25071	0.35523
0.53123	-0.97117
0.19971	0.20219
-0.05531	1.19699
0.12320	0.20219
0.09770	-0.66508
0.58223	0.99292
0.19971	0.91640
-0.64185	0.89089
-1.55991	-0.92016
-0.79486	-0.56305
0.70974	-0.05289
1.14327	0.30422
1.24527	0.10015
1.04126	-0.18043
0.37822	0.17668
0.30171	0.27871
0.07220	0.35523
0.48022	-1.17523
-1.12638	0.10015
-0.48884	-1.09871
0.12320	0.12566
-0.18282	1.29902
0.02119	2.03874
0.45472	0.76336
0.73524	0.96742
0.68424	0.53379
0.58223	-1.50683
0.45472	-1.45582
0.09770	-0.02739
-0.20832	-0.07840
0.04670	1.35003
-0.36133	1.42656
-0.48884	-1.04770
-0.20832	-1.48133
0.63323	-0.46102
0.60773	1.12046
0.17421	0.15117
0.19971	0.10015
0.30171	0.94191
0.45472	0.20219
0.22521	0.30422
0.04670	-0.15492
-0.66735	0.55929
-0.36133	0.04914
0.02119	0.32972
0.55673	-0.12942
0.83725	1.42656
0.48022	-1.35379
0.35272	-1.65988
0.42922	-0.51203
0.35272	1.50308
-0.92237	0.30422
-1.48340	0.76336
0.14870	1.27351
0.55673	1.37554
0.55673	-0.10391
0.86275	-0.66508
0.60773	-0.51203
0.53123	0.25320
0.27621	0.53379
0.25071	0.20219
0.12320	0.02363
-0.20832	0.50828
-0.28482	0.86539
-0.99887	-1.40480
-0.76936	-1.48133
0.53123	-0.48652
1.04126	1.24800
1.06676	0.71234
0.42922	0.22769
-0.33583	0.63582
-0.89686	-0.46102
-1.10088	0.04914
-0.61635	1.52859
1.34728	0.10015
1.90832	-1.50683
1.16877	-0.12942
0.73524	0.55929
0.40372	1.55410
0.14870	1.32453
0.07220	0.50828
-0.28482	0.50828
-0.56534	-0.51203
-1.30489	-0.97117
-0.31033	0.50828
0.45472	-2.17003
0.22521	1.17148
0.27621	-0.43551
0.37822	-0.97117
0.27621	1.60511
0.55673	1.22250
0.53123	1.12046
-0.08081	0.76336
-0.20832	0.15117
0.12320	0.22769
0.22521	0.02363
0.35272	-2.45062
0.22521	-1.25176
0.63323	1.37554
0.40372	0.02363
-0.28482	0.35523
0.88825	1.70714
-0.20832	-0.58856
-0.28482	0.04914
-0.64185	-1.58336
-0.48884	-0.76711
0.07220	1.47757
0.86275	2.03874
1.34728	1.12046
0.27621	-0.10391
0.25071	0.35523
0.42922	0.86539
0.09770	0.96742
-0.13181	0.38074
-0.15732	-1.37929
0.07220	-2.09351
0.12320	0.38074
-0.02981	-0.25695
-0.13181	1.17148
-1.04987	-0.15492
0.37822	-2.29757
0.63323	1.96222
0.22521	-0.18043
0.12320	-0.46102
0.40372	1.73265
0.73524	-0.25695
0.30171	0.32972
0.73524	1.78367
0.14870	0.04914
-1.27939	-2.01699
-0.74385	1.86019
0.32721	-1.53234
0.58223	-0.05289
1.24527	1.06945
1.29628	0.83988
0.40372	0.35523
-1.30489	0.40625
0.12320	-1.27726
-0.31033	-1.07320
0.09770	0.55929
0.32721	0.94191
0.55673	-1.73640
0.50573	0.86539
0.14870	1.91120
-0.08081	-0.35899
0.14870	0.07465
-0.00431	-0.63957
0.09770	0.30422
-0.02981	-2.32308
-0.18282	-0.56305
0.14870	2.52339
0.27621	1.78367
0.27621	0.38074
-0.31033	0.22769
-0.15732	0.10015
0.22521	0.25320
0.76074	0.55929
0.50573	1.01843
0.53123	-0.10391
0.40372	-4.08312
0.37822	-3.59847
-0.10631	1.37554
-0.97337	1.24800
0.19971	0.73785
0.45472	0.99292
0.22521	1.06945
0.17421	0.83988
0.42922	1.24800
0.09770	-0.10391
0.27621	-0.81812
0.02119	-1.12422
0.07220	0.22769
0.42922	0.76336
0.42922	0.17668
0.50573	-0.71609
-1.04987	0.17668
-0.92237	0.10015
0.30171	0.91640
0.42922	1.17148
0.32721	0.40625
0.86275	-0.56305
-0.15732	-1.09871
-0.15732	-0.35899
0.65874	0.81437
0.27621	0.81437
0.02119	1.24800
0.09770	-0.00188
-0.05531	0.89089
-0.28482	0.10015
0.07220	-0.30797
0.93925	1.55410
0.65874	-1.68539
0.53123	-0.86914
0.17421	1.06945
-0.13181	1.06945
-0.18282	0.96742
-0.18282	-0.02739
-0.00431	-0.53754
-0.28482	1.14597
-0.20832	-0.58856
0.27621	-0.76711
0.27621	-0.25695
0.53123	0.86539
0.53123	0.40625
0.19971	-0.28246
0.30171	0.10015
0.07220	0.66132
0.09770	1.22250
-0.20832	0.66132
-0.13181	0.78886
0.48022	-1.78742
0.45472	-0.69059
0.22521	-0.25695
-0.23382	-0.86914
-0.38683	0.94191
-0.87136	1.27351
0.40372	0.35523
1.14327	0.48277
0.53123	0.27871
0.19971	-0.51203
-0.31033	0.71234
0.19971	0.66132
0.30171	-1.17523
0.58223	0.71234
0.40372	0.58480
-0.33583	0.43176
-0.28482	0.22769
0.22521	-0.20594
0.40372	0.45726
0.63323	1.65613
0.73524	-0.99668
0.27621	-2.60367
-1.86593	-2.80773
-2.35046	0.76336
-0.64185	1.17148
1.27078	2.57441
1.60230	0.86539
1.55129	1.37554
1.19427	0.55929
0.40372	0.04914
-0.00431	-0.43551
0.12320	-0.00188
-0.23382	-0.18043
-0.08081	0.99292
-0.28482	0.15117
-0.10631	-1.99148
0.12320	1.22250
-0.08081	-0.46102
-0.25932	-0.58856
0.14870	0.07465
0.32721	0.55929
0.68424	1.35003
0.14870	-0.28246
-0.08081	0.76336
0.02119	1.19699
-0.15732	0.71234
0.12320	1.04394
0.42922	-1.73640
0.73524	-0.92016
-0.08081	0.35523
0.12320	0.61031
0.25071	0.81437
0.81175	0.55929
0.17421	0.02363
-0.46334	-0.12942
0.12320	-0.28246
0.09770	0.10015
-0.02981	0.32972
-0.92237	0.45726
-0.15732	-2.75671
1.04126	0.35523
0.78624	0.63582
0.60773	0.83988
0.12320	0.45726
0.19971	0.17668
0.37822	0.45726
0.25071	1.68163
-0.05531	-0.76711
-0.69285	-0.84363
-0.61635	-0.07840
0.19971	0.66132
0.37822	1.45206
-0.10631	0.45726
0.45472	-0.15492
0.60773	0.68683
0.32721	0.40625
0.50573	-1.76191
0.17421	-3.06281
-0.15732	0.73785
-0.20832	0.89089
0.17421	1.01843
0.37822	0.73785
0.25071	0.76336
0.35272	0.91640
0.40372	-0.25695
-0.13181	-0.48652
-0.23382	-0.51203
0.35272	0.35523
0.27621	0.61031
-0.05531	-0.30797
-0.18282	-0.12942
0.22521	0.32972
0.55673	0.22769
0.45472	-0.61406
0.19971	0.04914
0.09770	1.17148
-0.08081	2.08976
-0.18282	-1.78742
0.63323	-0.18043
-0.08081	-1.94047
0.30171	0.55929
-0.02981	1.14597
-0.89686	0.76336
-0.08081	1.70714
0.45472	0.15117
0.86275	-0.71609
0.76074	1.55410
0.63323	-0.05289
0.04670	-2.32308
-0.43783	-0.71609
0.45472	0.73785
0.30171	1.70714
0.32721	0.07465
0.09770	0.30422
-0.00431	0.50828
-0.00431	0.10015
-0.59084	0.15117
-0.53984	-1.76191
0.27621	-0.02739
0.45472	0.53379
0.50573	-1.07320
0.40372	0.48277
-0.02981	1.37554
0.02119	1.17148
0.19971	0.32972
0.22521	0.50828
0.22521	0.43176
0.14870	0.55929
0.19971	-0.69059
0.35272	-0.28246
0.37822	-0.86914
0.12320	1.01843
-0.13181	-1.02219
-0.71835	-0.00188
-0.69285	0.71234
0.30171	0.35523
1.09226	1.55410
-0.02981	1.42656
0.45472	-1.60887
0.37822	-1.53234
1.19427	0.35523
0.83725	0.20219
-0.28482	-0.30797
-0.46334	1.32453
-0.18282	1.57960
0.14870	1.27351
0.27621	1.24800
0.37822	-2.04250
0.19971	-1.53234
-0.28482	0.15117
-0.10631	1.83468
-0.15732	-0.15492
0.17421	0.40625
0.42922	-0.12942
0.27621	-0.86914
0.17421	0.30422
0.55673	1.09496
-0.46334	0.15117
-0.87136	-3.57296
0.40372	-1.20074
0.73524	1.29902
0.70974	1.88570
0.14870	1.45206
0.19971	1.37554
0.22521	0.38074
-0.18282	-0.35899
0.14870	-0.05289
-0.08081	-0.43551
0.45472	0.20219
0.35272	0.04914
0.17421	0.32972
-0.00431	-0.00188
0.12320	-0.28246
0.19971	-0.20594
0.25071	-2.14453
-0.05531	-0.02739
0.53123	0.15117
-0.33583	1.47757
-0.53984	1.65613
-0.10631	1.04394
0.50573	-0.12942
0.86275	-0.89465
-0.56534	-0.41000
-1.15188	0.35523
0.88825	1.40105
0.73524	-0.56305
0.83725	0.73785
0.86275	0.68683
0.60773	0.04914
0.37822	-2.88425
0.25071	-0.56305
-0.74385	-0.30797
-0.36133	0.83988
-0.00431	2.08976
0.09770	0.96742
0.53123	2.16628
0.17421	1.17148
-0.15732	-0.94566
0.14870	-1.27726
0.09770	-0.79262
0.30171	0.22769
0.14870	0.22769
-0.13181	0.40625
0.19971	0.27871
0.37822	0.73785
0.22521	0.22769
-0.10631	0.53379
-0.08081	-1.40480
0.30171	-0.38449
0.40372	1.12046
0.63323	0.15117
0.19971	-1.07320
-0.10631	-1.04770
-0.08081	1.09496
0.30171	0.83988
0.25071	0.48277
0.12320	2.14077
0.12320	-0.20594
0.19971	1.14597
0.19971	1.17148
0.07220	-2.50164
-0.51434	0.71234
-0.79486	-1.07320
0.30171	0.17668
0.58223	0.45726
0.73524	-0.25695
0.40372	0.25320
-0.02981	0.40625
-0.79486	-0.43551
-1.30489	0.43176
0.78624	0.71234
1.04126	-0.35899
1.01576	1.32453
0.81175	-2.62918
0.55673	-0.38449
0.17421	0.38074
-0.10631	1.19699
-0.00431	1.65613
-0.53984	0.96742
-0.13181	-2.24656
-0.28482	0.30422
-0.69285	1.55410
-0.08081	0.81437
0.55673	-0.15492
1.11776	-1.35379
0.22521	-1.65988
-0.61635	0.61031
0.14870	1.04394
0.63323	1.75816
0.73524	0.96742
0.99026	-0.35899
0.14870	0.07465
-0.33583	1.14597
-0.69285	0.86539
-0.69285	-1.96597
0.42922	0.45726
0.70974	0.48277
0.58223	-1.48133
0.22521	-0.74160
0.09770	0.96742
-0.02981	0.73785
0.40372	0.76336
0.53123	1.93671
0.07220	0.68683
-0.20832	-1.55785
-0.41233	-0.81812
-1.10088	0.86539
0.42922	0.12566
0.76074	0.25320
0.45472	-0.10391
0.58223	0.32972
0.19971	0.96742
-0.41233	0.76336
0.07220	1.68163
0.68424	-4.31269
0.12320	-1.48133
0.12320	-0.48652
0.27621	1.78367
-0.13181	1.35003
0.19971	1.27351
-0.00431	1.63062
-0.20832	-2.22105
-0.08081	1.78367
0.19971	0.10015
0.17421	-1.65988
-0.15732	-0.97117
-0.48884	0.63582
0.27621	-0.15492
0.68424	-0.38449
0.65874	0.73785
0.63323	1.27351
0.22521	1.91120
-0.10631	-1.48133
-0.00431	-1.20074
0.12320	0.35523
0.40372	0.48277
0.45472	0.22769
-0.41233	0.53379
-0.59084	-0.20594
0.70974	0.25320
0.68424	0.58480
-0.13181	0.45726
-0.20832	0.45726
0.19971	0.71234
0.19971	-0.51203
0.12320	-1.63437
0.30171	-0.15492
0.60773	1.19699
0.70974	0.76336
0.19971	-0.02739
-0.38683	-0.71609
0.07220	0.91640
-0.00431	0.66132
0.25071	-0.25695
-0.10631	0.15117
-0.05531	1.22250
0.17421	-0.23145
0.45472	-0.97117
0.40372	0.63582
-0.38683	0.12566
-0.28482	0.15117
0.17421	0.10015
0.55673	0.48277
0.70974	-2.85874
0.48022	0.63582
0.07220	1.73265
0.30171	0.27871
0.22521	0.12566
0.27621	0.55929
-0.05531	0.68683
0.07220	0.50828
0.12320	0.96742
-0.23382	-0.15492
0.07220	-1.12422
0.14870	0.30422
-0.61635	-1.32828
-0.79486	-2.06800
0.50573	0.99292
1.16877	1.96222
1.09226	1.37554
0.42922	-0.97117
0.27621	-0.25695
0.12320	0.17668
-0.08081	0.66132
-0.08081	0.48277
-0.48884	0.35523
0.02119	0.35523
0.22521	-0.18043
0.45472	-0.41000
0.22521	-1.88945
0.40372	0.76336
0.12320	0.40625
-0.13181	0.96742
0.12320	0.53379
-0.20832	-0.00188
-0.51434	1.19699
0.65874	0.63582
0.58223	-1.40480
0.53123	-0.00188
0.48022	0.17668
0.40372	0.45726
0.12320	0.94191
0.12320	-1.27726
0.12320	-1.07320
-0.02981	0.32972
-0.53984	0.20219
-0.53984	1.09496
0.42922	1.24800
0.42922	-0.20594
0.19971	-3.77702
0.07220	0.48277
0.25071	1.22250
-0.00431	1.04394
0.42922	1.01843
0.37822	1.32453
0.17421	0.73785
0.12320	-0.48652
-0.15732	-0.79262
0.48022	0.04914
0.17421	0.38074
0.02119	0.35523
0.17421	0.10015
0.30171	1.40105
-0.15732	-1.76191
-0.89686	-4.28718
-0.74385	-0.38449
0.48022	1.40105
0.86275	1.83468
1.21977	1.29902
0.93925	1.96222
0.55673	-0.15492
-0.15732	-1.83844
-0.89686	0.38074
-0.05531	0.78886
-0.48884	0.68683
-0.05531	0.76336
0.50573	0.22769
0.48022	-0.02739
0.55673	0.04914
0.37822	0.12566
0.19971	-1.50683
0.12320	0.43176
-0.15732	-0.18043
-0.02981	-2.27207
0.07220	1.06945
0.19971	1.35003
0.12320	1.47757
-0.25932	0.38074
0.09770	-0.30797
0.07220	-0.99668
0.37822	-0.15492
0.53123	0.35523
0.45472	0.63582
0.50573	0.43176
0.14870	-0.02739
0.19971	0.53379
-0.00431	0.83988
0.48022	0.17668
-0.87136	-0.81812
-0.87136	-1.58336
0.30171	-0.25695
0.48022	0.91640
0.63323	1.75816
0.37822	-0.46102
0.65874	-0.58856
0.70974	0.32972
0.42922	0.20219
0.53123	0.53379
-0.71835	0.32972
-0.28482	0.73785
0.30171	-0.51203
0.45472	-0.43551
-0.46334	-0.63957
-0.97337	0.02363
-0.51434	1.35003
0.78624	0.53379
0.76074	-0.38449
0.60773	0.20219
0.53123	0.50828
0.42922	0.55929
0.27621	0.22769
-0.00431	0.58480
-0.43783	0.58480
-0.13181	0.15117
0.17421	-0.89465
0.07220	-1.63437
0.02119	1.06945
0.27621	-0.05289
0.37822	0.48277
0.32721	0.27871
0.27621	0.43176
-0.00431	-0.23145
-0.38683	-0.25695
0.22521	0.94191
0.32721	0.66132
0.25071	0.20219
0.22521	-0.41000
0.07220	-0.10391
0.58223	0.40625
-0.13181	-0.69059
0.09770	-0.25695
-0.41233	1.70714
-0.36133	1.93671
0.76074	0.32972
0.68424	-2.04250
0.48022	-2.50164
0.37822	0.32972
0.17421	1.68163
0.81175	0.89089
-0.56534	0.66132
-0.51434	0.86539
-0.08081	1.12046
-0.43783	0.53379
0.30171	-0.12942
0.83725	-0.66508
0.30171	-1.94047
0.14870	-0.15492
0.63323	1.06945
0.07220	0.25320
0.25071	0.07465
-0.02981	-0.23145
-0.18282	-0.07840
-0.05531	1.57960
-0.13181	0.94191
0.30171	0.83988
0.68424	-2.19554
0.53123	-0.51203
0.09770	-1.07320
-0.15732	1.19699
-0.18282	1.45206
-0.00431	0.76336
0.14870	0.81437
0.04670	0.89089
0.02119	0.43176
0.02119	-0.23145
0.63323	-0.10391
0.40372	-1.73640
0.14870	-1.48133
0.09770	0.86539
-0.76936	-0.05289
-0.36133	0.89089
0.60773	0.99292
0.68424	1.12046
0.81175	1.19699
0.81175	-0.05289
0.22521	0.89089
-0.71835	-1.94047
-1.02437	-0.35899
0.12320	-1.12422
0.65874	0.10015
0.68424	1.12046
0.30171	0.71234
0.02119	0.38074
0.14870	0.86539
-0.08081	0.40625
0.04670	-0.41000
0.19971	0.30422
0.48022	-0.23145
0.32721	-0.00188
-0.61635	-0.84363
-0.46334	0.86539
0.76074	0.15117
0.42922	0.45726
0.30171	0.38074
0.25071	-1.48133
0.32721	-0.00188
0.22521	0.12566
0.12320	1.75816
0.09770	-0.00188
-0.08081	-0.71609
-0.08081	0.76336
-0.10631	1.14597
0.27621	0.55929
-0.15732	0.07465
0.02119	-0.07840
0.45472	0.35523
0.37822	-0.63957
-0.02981	-1.09871
-0.23382	-2.04250
-0.48884	0.50828
0.73524	1.42656
0.63323	1.65613
0.37822	0.40625
0.45472	0.04914
0.35272	0.30422
0.17421	-0.02739
0.35272	0.17668
-0.18282	-0.35899
-0.38683	0.55929
-0.28482	0.35523
-0.48884	-2.04250
0.17421	-2.09351
0.40372	1.04394
0.27621	1.68163
-0.05531	1.19699
0.07220	-0.07840
0.32721	1.22250
0.60773	0.38074
0.68424	-0.84363
0.25071	0.53379
-0.48884	0.68683
-0.41233	-0.05289
0.35272	-0.20594
0.68424	-0.25695
0.53123	-0.51203
0.37822	0.15117
0.09770	0.78886
0.04670	0.15117
0.04670	0.43176
0.19971	-0.41000
-0.33583	0.86539
-0.38683	0.07465
-0.08081	0.50828
0.30171	-0.71609
0.50573	-0.97117
0.09770	0.38074
0.07220	-0.02739
-0.02981	1.04394
0.02119	0.78886
0.55673	-0.23145
0.55673	0.12566
0.45472	0.10015
-0.13181	0.30422
-0.00431	0.02363
0.40372	0.53379
0.27621	-0.18043
-0.10631	-0.00188
-0.10631	0.89089
-0.23382	-0.05289
-0.10631	-0.84363
0.42922	0.58480
0.55673	0.48277
-0.00431	-1.07320
-0.28482	-0.02739
0.19971	1.17148
0.30171	0.91640
0.30171	-1.45582
0.25071	0.78886
0.25071	0.63582
0.12320	-1.02219
0.17421	0.25320
0.12320	0.61031
0.09770	0.04914
0.14870	0.86539
-0.18282	0.07465
-0.13181	0.83988
0.19971	1.32453
0.42922	0.04914
0.19971	-0.81812
0.50573	0.76336
0.60773	-0.79262
0.45472	-0.56305
0.14870	0.73785
-0.53984	-0.46102
-1.02437	-0.35899
0.63323	0.15117
0.58223	0.48277
0.42922	0.04914
0.53123	-0.35899
0.68424	0.89089
-0.08081	-0.00188
-0.51434	0.07465
-0.38683	0.81437
0.32721	0.50828
0.91375	1.24800
0.02119	-0.28246
-0.28482	-1.86394
-0.79486	-0.07840
-0.28482	0.71234
0.78624	0.91640
1.27078	0.50828
0.73524	0.07465
0.25071	0.35523
0.12320	0.07465
0.22521	0.66132
0.25071	-1.17523
-0.48884	-0.07840
-0.38683	0.17668
-0.05531	0.73785
0.22521	-1.60887
0.19971	0.53379
0.27621	0.30422
0.32721	0.71234
-0.10631	1.45206
0.02119	-0.56305
0.45472	-1.86394
0.14870	0.53379
-0.33583	1.86019
-0.28482	-0.07840
0.42922	0.10015
0.78624	0.68683
0.27621	0.68683
0.22521	0.22769
0.42922	0.15117
0.04670	0.04914
0.27621	0.35523
0.30171	-1.37929
-0.56534	-1.73640
0.02119	0.63582
0.45472	0.45726
0.35272	-0.33348
0.09770	1.17148
-0.00431	0.91640
0.09770	0.53379
-0.23382	0.20219
-0.31033	-0.25695
0.40372	-0.58856
0.19971	0.02363
0.42922	0.73785
-0.25932	0.94191
-0.10631	-1.04770
1.16877	-0.51203
0.32721	0.66132
-0.15732	0.53379
0.09770	1.06945
0.32721	0.30422
0.35272	0.30422
0.37822	0.02363
0.25071	-0.05289
0.27621	-0.35899
0.32721	0.71234
0.09770	0.04914
-0.05531	-0.38449
0.04670	-0.30797
-0.48884	0.30422
-0.53984	0.02363
0.22521	0.50828
0.68424	0.43176
0.19971	0.71234
0.25071	0.50828
0.27621	0.76336
-0.02981	-0.66508
0.02119	-1.83844
-0.38683	-0.92016
-0.59084	0.83988
0.60773	1.27351
0.83725	1.37554
0.93925	0.94191
0.91375	0.02363
0.27621	-0.20594
-0.05531	1.86019
-0.31033	-1.02219
-0.31033	-1.73640
0.07220	-0.69059
0.30171	0.38074
0.04670	0.78886
-0.61635	0.50828
0.02119	0.27871
0.14870	0.27871
-0.23382	0.63582
0.27621	-0.79262
0.73524	0.55929
0.42922	-0.92016
0.19971	0.32972
0.27621	1.57960
0.37822	0.43176
0.60773	-0.58856
0.12320	0.43176
-0.25932	-0.00188
-0.25932	0.15117
-0.18282	0.55929
0.22521	-0.71609
0.42922	0.35523
0.22521	0.25320
0.30171	0.48277
0.40372	0.20219
-0.48884	0.04914
-0.46334	-0.92016
0.12320	0.63582
0.48022	1.12046
-0.79486	-0.18043
0.63323	-0.12942
0.76074	0.50828
0.88825	0.73785
0.65874	-0.51203
0.19971	-0.35899
0.17421	0.76336
-0.10631	0.48277
-0.13181	0.35523
-0.13181	0.12566
-0.23382	0.20219
-0.10631	0.17668
-0.13181	-0.35899
-0.15732	-0.61406
0.14870	-0.46102
0.63323	0.76336
0.60773	1.09496
0.73524	-0.51203
0.37822	-0.20594
-0.28482	1.70714
-0.23382	-0.86914
0.17421	-1.35379
0.09770	0.25320
0.27621	1.17148
0.35272	0.55929
0.12320	0.73785
0.37822	0.76336
0.30171	0.35523
-0.08081	0.48277
-0.02981	0.35523
0.02119	-0.66508
0.02119	-0.97117
0.42922	-0.58856
0.07220	0.38074
0.37822	-0.18043
0.30171	-0.41000
0.07220	0.99292
0.19971	1.14597
-0.08081	0.32972
0.12320	0.45726
-0.23382	-0.12942
0.19971	-0.81812
0.30171	0.27871
0.30171	-0.38449
0.25071	0.53379
0.14870	0.96742
-0.00431	0.43176
-0.10631	0.12566
0.42922	-0.92016
-0.10631	0.35523
-0.05531	0.66132
0.37822	-0.35899
0.40372	0.40625
0.27621	0.20219
-0.08081	-0.25695
-0.61635	-0.07840
0.09770	0.83988
0.42922	0.20219
0.70974	0.71234
0.22521	-0.56305
0.35272	-1.04770
-0.05531	-0.33348
0.50573	0.89089
0.09770	1.42656
-0.69285	0.99292
-0.00431	0.40625
0.32721	-0.28246
0.17421	0.15117
0.53123	0.53379
0.27621	-1.83844
0.27621	-0.28246
0.19971	-1.07320
0.07220	0.07465
0.09770	0.99292
-0.10631	0.25320
0.12320	0.81437
0.14870	2.26831
0.40372	0.96742
0.30171	-2.83324
-0.18282	-2.39961
-0.02981	1.29902
-1.15188	1.37554
0.37822	1.32453
0.81175	0.61031
0.88825	0.27871
0.81175	0.50828
0.58223	0.32972
0.25071	-0.20594
0.17421	-0.20594
-0.00431	-0.89465
-0.15732	0.78886
-0.18282	-0.61406
-0.25932	-1.09871
0.12320	0.40625
0.27621	-0.28246
-0.08081	0.78886
-0.66735	0.94191
-0.10631	0.02363
0.37822	0.61031
0.58223	1.75816
0.76074	-0.69059
0.91375	-0.25695
0.30171	0.04914
-0.25932	0.12566
-0.28482	0.38074
-0.08081	0.61031
0.32721	-0.61406
0.58223	-0.25695
0.55673	0.02363
0.42922	0.43176
0.12320	0.04914
-0.48884	0.35523
-0.33583	1.06945
0.42922	0.48277
0.32721	-0.63957
-0.56534	-0.23145
-0.36133	-0.00188
0.17421	-0.33348
0.58223	0.15117
0.60773	0.48277
0.40372	0.43176
0.53123	0.73785
-0.13181	0.55929
0.19971	0.76336
-0.51434	-0.56305
-0.84586	-1.32828
-0.56534	-0.35899
0.65874	0.45726
1.21977	0.35523
1.14327	-0.00188
0.76074	0.43176
0.40372	0.66132
0.07220	0.78886
-0.36133	-0.30797
-0.43783	-0.15492
-0.08081	0.86539
-0.10631	0.78886
0.02119	0.10015
0.14870	-2.52714
0.14870	0.78886
0.27621	0.55929
0.02119	0.81437
0.17421	0.22769
0.32721	0.17668
-0.00431	-0.00188
0.07220	-0.02739
-0.23382	0.10015
-0.13181	0.10015
0.70974	0.02363
0.83725	-0.15492
0.35272	0.38074
0.68424	0.35523
0.32721	-0.63957
0.07220	0.27871
0.02119	0.58480
-0.08081	-0.25695
0.07220	0.20219
-0.87136	0.61031
-0.89686	-0.18043
0.68424	-1.07320
0.73524	1.04394
0.83725	0.32972
-0.00431	1.24800
-1.55991	-0.35899
-0.76936	-0.30797
0.50573	0.81437
1.04126	0.12566
1.04126	0.50828
0.83725	0.58480
0.63323	-0.25695
0.27621	-0.41000
-0.08081	-0.18043
-0.20832	0.48277
-0.48884	0.61031
-0.36133	0.02363
0.17421	-0.99668
0.50573	-0.38449
-0.05531	0.89089
-0.38683	0.30422
0.07220	-0.07840
0.19971	0.15117
-0.08081	0.12566
0.30171	0.38074
0.58223	1.04394
0.53123	-0.05289
0.73524	0.73785
0.25071	0.76336
0.37822	0.20219
-0.31033	-0.25695
0.02119	-0.23145
-0.38683	-0.07840
-0.15732	0.38074
0.27621	0.32972
0.58223	-1.53234
0.37822	-0.92016
-0.41233	0.04914
-0.43783	0.10015
0.32721	0.99292
1.04126	1.22250
0.96476	0.40625
0.83725	0.96742
-1.15188	-0.20594
-2.12094	0.15117
0.42922	-0.69059
0.81175	0.45726
0.63323	-0.69059
0.83725	1.35003
0.50573	0.04914
0.32721	0.63582
0.09770	-0.23145
0.07220	0.12566
-0.20832	-0.69059
-0.92237	0.25320
-0.69285	0.32972
0.48022	0.48277
0.65874	0.15117
0.48022	0.12566
0.22521	0.07465
0.09770	0.55929
0.30171	0.45726
0.30171	0.43176
0.19971	-1.12422
0.07220	0.02363
0.02119	0.12566
0.12320	0.04914
-0.00431	-1.14973
-0.02981	0.15117
0.19971	1.70714
0.22521	1.75816
-0.25932	-0.58856
0.12320	-0.61406
0.45472	0.73785
0.60773	0.27871
0.42922	0.10015
-0.46334	0.12566
-0.28482	0.15117
-0.43783	-0.51203
0.04670	0.25320
0.32721	-0.30797
0.91375	0.07465
0.96476	-0.02739
0.55673	0.63582
0.25071	0.61031
0.12320	-0.00188
0.12320	0.27871
-0.05531	0.17668
-0.51434	0.73785
-1.20288	-0.46102
-0.71835	0.17668
0.53123	0.15117
0.70974	-0.12942
0.68424	0.48277
0.76074	-0.46102
0.32721	-1.43031
-0.46334	-0.38449
0.22521	0.81437
0.25071	1.42656
0.35272	0.94191
0.53123	0.58480
-0.10631	0.48277
-0.13181	0.10015
-0.18282	-0.15492
-0.10631	-0.84363
0.27621	-1.07320
0.35272	0.63582
0.53123	0.94191
0.40372	0.10015
0.27621	-0.05289
0.35272	0.61031
0.04670	-0.71609
-0.00431	0.20219
-0.13181	-0.35899
-0.10631	0.30422
0.09770	0.48277
0.17421	0.27871
0.09770	0.25320
0.12320	-0.25695
0.70974	0.63582
-0.02981	1.17148
-0.87136	-0.05289
-0.13181	0.17668
0.55673	-1.94047
0.55673	0.04914
0.09770	0.30422
0.17421	0.81437
0.78624	0.86539
0.53123	0.76336
0.27621	0.02363
0.35272	0.61031
0.02119	-0.15492
-0.28482	-0.02739
-0.74385	0.30422
0.04670	-0.69059
0.09770	-0.66508
0.40372	0.12566
0.30171	0.96742
0.45472	-0.61406
0.25071	1.09496
0.27621	0.68683
0.17421	-0.33348
0.04670	-1.14973
-0.59084	0.43176
-0.69285	1.12046
0.32721	0.27871
0.53123	-1.02219
0.53123	0.35523
0.55673	0.76336
0.50573	0.83988
0.19971	0.22769
0.02119	0.63582
-0.05531	-0.02739
0.25071	0.10015
-0.00431	-0.12942
0.07220	-1.02219
-0.05531	-0.69059
-0.36133	-1.35379
0.22521	0.50828
0.25071	1.01843
0.40372	1.37554
0.50573	0.99292
0.45472	0.53379
0.48022	0.68683
0.14870	0.35523
-0.48884	-0.23145
-0.79486	-0.41000
-0.13181	-0.46102
0.42922	0.02363
0.60773	-0.20594
-0.13181	0.45726
0.12320	0.17668
0.45472	-0.15492
0.65874	-0.58856
0.58223	1.01843
0.45472	0.86539
0.14870	0.40625
0.17421	-0.10391
-0.46334	-0.25695
-0.53984	0.07465
-0.08081	0.12566
0.27621	0.91640
0.35272	0.43176
0.50573	-0.56305
0.70974	-1.55785
0.70974	0.15117
-0.82036	-0.25695
-1.40690	0.68683
-0.97337	0.81437
0.45472	0.27871
1.24527	0.76336
0.99026	0.89089
0.55673	-0.05289
0.40372	0.25320
0.12320	-0.30797
0.14870	-0.28246
-0.00431	0.61031
0.09770	0.04914
0.07220	-0.05289
0.04670	-0.35899
0.07220	0.81437
0.25071	0.32972
0.17421	0.40625
0.04670	-0.02739
-0.25932	-0.74160
-0.10631	0.35523
0.22521	-0.56305
0.27621	0.83988
0.17421	-0.58856
-0.00431	1.22250
-0.00431	0.35523
0.40372	0.38074
0.27621	0.55929
0.35272	0.81437
0.25071	0.17668
0.02119	-0.35899
0.35272	-0.05289
0.14870	0.04914
-0.05531	-0.23145
0.27621	-0.23145
-0.08081	-0.63957
-0.31033	0.17668
-0.02981	-0.02739
0.40372	0.71234
0.27621	0.73785
0.42922	-0.25695
0.53123	0.48277
0.17421	-0.30797
-0.31033	0.32972
0.04670	0.76336
0.12320	0.91640
-0.18282	0.94191
0.19971	0.04914
0.02119	-0.81812
-0.18282	-1.30277
0.65874	0.22769
0.88825	0.76336
0.73524	1.01843
0.35272	0.73785
0.12320	0.66132
-0.08081	-0.56305
0.07220	0.20219
-0.00431	-1.02219
-0.43783	-0.63957
-0.31033	0.02363
-0.51434	0.58480
-0.13181	-0.63957
0.37822	0.71234
0.50573	0.12566
0.55673	0.45726
0.30171	1.09496
0.40372	0.86539
0.25071	0.89089
-0.05531	-0.76711
0.30171	-0.18043
0.02119	0.22769
-0.20832	0.58480
0.40372	-0.53754
0.60773	-1.02219
0.07220	0.25320
-0.28482	-0.23145
-0.74385	0.04914
-0.00431	0.55929
0.22521	1.09496
0.91375	0.30422
0.83725	-0.05289
0.76074	-0.18043
-0.25932	-0.63957
-0.43783	0.22769
-0.00431	1.06945
-0.02981	0.76336
0.17421	-0.25695
0.50573	0.15117
0.27621	-0.15492
0.42922	0.07465
0.40372	0.22769
-1.10088	0.61031
-0.25932	-0.69059
0.35272	-0.86914
0.42922	0.76336
0.53123	0.68683
0.53123	0.45726
0.30171	0.40625
0.09770	-0.25695
-0.13181	0.66132
0.17421	0.61031
0.02119	-0.99668
-0.00431	0.40625
0.04670	0.25320
0.25071	0.40625
0.22521	-0.23145
0.17421	-0.76711
0.09770	0.45726
0.17421	0.50828
0.12320	0.27871
0.22521	-0.33348
0.19971	0.48277
-0.00431	0.73785
0.35272	-0.66508
0.09770	-0.56305
0.32721	1.50308
-0.43783	1.17148
-1.25389	-1.60887
0.02119	0.43176
0.48022	0.38074
0.99026	0.55929
1.11776	0.04914
0.88825	0.43176
0.68424	-0.35899
0.35272	-0.20594
-0.08081	0.15117
-0.28482	0.15117
-0.20832	0.10015
-0.38683	-0.51203
-0.94787	0.04914
-0.94787	-0.15492
0.14870	0.04914
0.63323	0.63582
0.73524	0.83988
0.68424	-0.18043
0.58223	0.04914
0.30171	0.04914
0.35272	0.45726
0.27621	0.63582
-0.05531	0.02363
-0.18282	-0.10391
-0.00431	0.66132
0.04670	0.07465
0.25071	0.30422
0.42922	-0.05289
0.30171	-0.94566
-0.23382	-1.20074
-0.69285	0.73785
-0.46334	0.99292
0.50573	1.75816
0.93925	0.86539
0.55673	0.22769
0.48022	-0.69059
-0.41233	-0.10391
-0.00431	-0.56305
0.30171	-0.43551
0.73524	0.76336
0.65874	0.76336
0.09770	0.68683
-1.30489	0.27871
-0.10631	-0.41000
0.35272	-0.35899
0.73524	0.63582
0.53123	-0.33348
0.58223	-0.15492
0.02119	0.20219
-0.00431	-0.20594
-0.10631	0.50828
-0.08081	0.63582
-0.10631	1.27351
0.19971	0.53379
0.37822	-0.46102
0.19971	0.38074
0.04670	-0.20594
-0.36133	-0.20594
0.25071	0.12566
0.19971	0.55929
0.53123	0.38074
0.32721	-0.76711
0.35272	-0.71609
0.14870	0.38074
-0.13181	1.27351
-0.23382	-0.07840
-0.18282	-0.53754
-0.08081	0.53379
0.73524	0.15117
0.30171	0.20219
0.35272	1.40105
0.83725	-0.86914
0.42922	-0.84363
0.02119	-0.76711
-0.36133	1.19699
-0.48884	0.63582
0.30171	0.81437
0.42922	0.22769
0.40372	0.71234
0.22521	0.27871
0.14870	0.10015
0.17421	-0.58856
-0.18282	-0.38449
-0.79486	0.12566
0.07220	0.25320
0.37822	-0.05289
0.37822	0.32972
0.45472	0.38074
0.48022	-0.38449
0.22521	0.12566
0.27621	-1.04770
-0.25932	0.45726
-0.46334	-0.48652
0.88825	0.76336
0.19971	0.53379
-0.23382	0.30422
0.12320	-0.00188
0.30171	1.22250
0.40372	1.17148
0.50573	0.20219
0.68424	-0.07840
0.30171	-0.58856
-0.13181	-0.43551
-0.18282	-0.12942
-0.53984	-0.10391
0.12320	0.71234
0.40372	0.66132
-0.00431	-0.23145
-0.05531	0.30422
0.14870	0.45726
0.07220	-0.23145
0.30171	0.73785
0.14870	0.04914
0.27621	-0.05289
0.25071	-0.23145
-0.18282	-0.20594
0.19971	-0.76711
0.60773	0.76336
0.50573	-0.48652
0.48022	0.07465
-0.23382	0.53379
-0.33583	1.29902
-0.31033	0.68683
0.32721	-0.46102
0.63323	0.35523
0.40372	-0.56305
0.22521	-0.30797
0.19971	0.38074
0.12320	0.22769
0.04670	0.89089
-0.05531	0.43176
-0.33583	-0.79262
-0.33583	0.99292
-0.13181	-0.10391
-0.00431	-0.35899
0.40372	-0.35899
0.68424	0.04914
0.30171	0.15117
0.12320	0.53379
0.45472	0.71234
0.63323	0.73785
0.50573	0.61031
0.12320	-0.05289
0.27621	-0.51203
0.02119	-0.12942
-0.79486	0.27871
-0.69285	0.63582
0.04670	-0.30797
0.12320	-0.07840
0.48022	-0.05289
0.50573	-0.02739
0.63323	0.30422
