0.12320	0.20219
0.17421	0.10015
0.14870	0.15117
0.14870	0.12566
0.22521	0.30422
0.09770	0.12566
0.17421	0.15117
0.07220	0.15117
0.19971	0.07465
0.17421	0.07465
0.14870	0.20219
0.22521	0.20219
0.07220	0.15117
0.12320	0.07465
0.14870	0.32972
0.19971	0.17668
0.17421	0.04914
0.09770	0.20219
0.19971	0.12566
0.12320	0.12566
0.09770	0.30422
0.25071	0.20219
0.14870	0.02363
0.14870	0.04914
0.22521	0.27871
0.12320	0.15117
0.04670	0.02363
0.12320	0.12566
0.22521	0.15117
0.19971	0.20219
0.14870	0.15117
0.14870	0.10015
0.22521	0.12566
0.19971	0.25320
0.14870	0.10015
0.09770	0.10015
0.14870	0.12566
0.22521	0.07465
0.04670	0.15117
0.14870	0.17668
0.14870	0.12566
0.07220	0.22769
0.14870	0.15117
0.14870	0.07465
0.07220	0.15117
0.19971	0.17668
0.19971	0.07465
0.14870	0.12566
0.12320	0.15117
0.22521	0.12566
0.09770	0.15117
0.12320	0.07465
0.14870	0.20219
0.22521	0.22769
0.14870	0.17668
0.07220	0.15117
0.07220	0.10015
0.12320	0.20219
0.14870	0.12566
0.09770	0.07465
0.14870	0.30422
0.22521	0.27871
0.25071	0.07465
0.14870	0.10015
0.14870	0.04914
0.19971	0.15117
0.17421	0.20219
0.09770	0.12566
0.09770	0.12566
0.14870	0.25320
0.22521	0.20219
0.14870	0.12566
0.17421	0.04914
0.09770	0.12566
0.17421	0.30422
0.22521	0.15117
0.14870	0.02363
0.12320	0.15117
0.22521	0.12566
0.12320	0.10015
0.07220	0.17668
0.19971	0.20219
0.17421	0.15117
0.09770	0.25320
0.19971	0.12566
0.12320	0.07465
0.07220	0.12566
0.12320	0.17668
0.14870	0.17668
0.07220	0.07465
0.12320	0.15117
0.22521	0.22769
0.14870	0.07465
0.12320	0.12566
0.17421	0.22769
0.14870	0.12566
0.09770	0.07465
0.14870	0.12566
0.22521	0.15117
0.17421	0.17668
0.07220	0.17668
0.14870	0.22769
0.14870	0.15117
0.07220	0.10015
0.14870	0.20219
0.22521	0.15117
0.14870	0.10015
0.14870	0.12566
0.19971	0.10015
0.14870	0.10015
0.07220	0.15117
0.22521	0.15117
0.14870	0.10015
0.09770	0.32972
0.22521	0.17668
0.14870	-0.00188
0.07220	0.20219
0.22521	0.07465
0.14870	0.17668
0.09770	0.15117
0.12320	0.20219
0.22521	0.25320
0.04670	0.12566
0.14870	0.17668
0.14870	0.10015
0.12320	0.10015
0.14870	0.22769
0.19971	0.17668
0.14870	0.10015
0.09770	0.10015
0.12320	0.17668
0.19971	0.22769
0.17421	0.15117
0.12320	0.10015
0.12320	0.15117
0.22521	0.22769
0.12320	0.07465
0.09770	0.12566
0.14870	0.12566
0.14870	0.07465
0.09770	0.17668
0.17421	0.15117
0.19971	0.10015
0.09770	0.10015
0.14870	0.12566
0.17421	0.07465
0.12320	0.20219
0.12320	0.15117
0.19971	0.07465
0.14870	0.25320
0.17421	0.15117
0.22521	0.15117
0.07220	0.22769
0.19971	0.04914
0.12320	0.22769
0.07220	0.27871
0.14870	0.10015
0.14870	0.07465
0.09770	0.15117
0.19971	0.15117
0.22521	0.10015
0.07220	0.15117
0.14870	0.25320
0.22521	0.15117
0.09770	0.10015
0.12320	0.07465
0.22521	0.20219
0.12320	0.15117
0.07220	0.17668
0.12320	0.27871
0.22521	0.17668
0.19971	0.10015
0.07220	0.07465
0.07220	0.25320
0.17421	0.22769
0.14870	0.04914
0.07220	0.07465
0.14870	0.17668
0.17421	0.22769
0.09770	0.15117
0.12320	0.20219
0.22521	0.15117
0.12320	0.22769
0.07220	0.15117
0.04670	0.15117
0.14870	0.27871
0.25071	0.12566
0.12320	0.02363
0.09770	0.10015
0.14870	0.22769
0.19971	0.15117
0.14870	0.07465
0.09770	0.10015
0.12320	0.15117
0.22521	0.25320
0.14870	0.10015
0.09770	0.07465
0.14870	0.22769
0.17421	0.07465
0.22521	0.10015
0.14870	0.12566
0.14870	0.30422
0.09770	0.20219
0.14870	0.10015
0.14870	0.04914
0.22521	0.15117
0.22521	0.22769
0.12320	0.22769
0.07220	0.15117
0.14870	0.12566
0.19971	0.17668
0.19971	0.17668
0.14870	0.22769
0.07220	0.25320
0.12320	0.15117
0.17421	0.07465
0.22521	0.07465
0.12320	0.20219
0.09770	0.17668
0.07220	0.02363
0.14870	0.15117
0.22521	0.12566
0.14870	0.22769
0.12320	0.12566
0.09770	0.04914
0.22521	0.30422
0.22521	0.32972
0.12320	0.07465
0.07220	-0.00188
0.14870	0.07465
0.19971	0.15117
0.14870	0.04914
0.09770	0.12566
0.22521	0.17668
0.12320	0.12566
0.07220	0.20219
0.12320	0.22769
0.14870	0.12566
0.14870	0.10015
0.09770	0.15117
0.14870	0.15117
0.19971	0.30422
0.14870	0.25320
0.04670	0.10015
0.17421	-0.02739
0.17421	-0.02739
0.19971	0.10015
0.17421	0.15117
0.07220	0.17668
0.09770	0.17668
0.14870	0.15117
0.19971	0.20219
0.22521	0.20219
0.14870	0.12566
0.07220	0.07465
0.14870	0.10015
0.14870	0.22769
0.22521	0.12566
0.12320	0.04914
0.14870	0.15117
0.12320	0.22769
0.14870	0.17668
0.14870	0.10015
0.17421	0.17668
0.19971	0.12566
0.12320	0.22769
0.07220	0.12566
0.12320	0.04914
0.22521	0.07465
0.17421	0.30422
0.14870	0.17668
0.07220	0.02363
0.12320	0.12566
0.14870	0.15117
0.14870	0.17668
0.07220	0.15117
0.14870	0.12566
0.19971	0.12566
0.09770	0.25320
0.14870	0.17668
0.19971	0.17668
0.17421	0.25320
0.14870	0.10015
0.12320	0.12566
0.09770	0.15117
0.22521	0.15117
0.09770	0.12566
0.14870	0.17668
0.14870	0.20219
0.14870	0.04914
0.12320	0.12566
0.07220	0.12566
0.22521	0.10015
0.09770	0.17668
0.14870	0.12566
0.22521	0.12566
0.09770	0.20219
0.12320	0.12566
0.14870	0.07465
0.09770	0.20219
0.14870	0.15117
0.14870	0.15117
0.07220	0.22769
0.22521	0.15117
0.14870	0.20219
0.17421	0.17668
0.22521	0.12566
0.14870	0.27871
0.19971	0.10015
0.19971	-0.00188
0.07220	0.15117
0.17421	0.20219
0.19971	0.22769
0.07220	0.17668
0.14870	0.02363
0.22521	0.15117
0.14870	0.20219
0.09770	0.12566
0.12320	0.04914
0.14870	0.07465
0.19971	0.22769
0.14870	0.15117
0.12320	0.07465
0.07220	0.10015
0.14870	0.35523
0.22521	0.25320
0.12320	0.02363
0.09770	-0.02739
0.17421	0.25320
0.19971	0.10015
0.12320	0.07465
0.14870	0.15117
0.22521	0.15117
0.12320	0.17668
0.17421	0.25320
0.22521	0.15117
0.07220	0.15117
0.14870	0.20219
0.19971	0.20219
0.07220	0.10015
0.14870	0.12566
0.22521	0.20219
0.14870	0.07465
0.07220	0.10015
0.19971	0.25320
0.12320	0.15117
0.07220	0.04914
0.17421	0.17668
0.22521	0.10015
0.17421	0.04914
0.14870	0.12566
0.22521	0.22769
0.14870	0.25320
0.04670	0.15117
0.22521	0.25320
0.14870	0.12566
0.09770	0.10015
0.14870	0.15117
0.19971	0.17668
0.09770	0.25320
0.14870	0.27871
0.22521	0.12566
0.14870	0.17668
0.07220	0.15117
0.22521	0.02363
0.14870	0.17668
0.07220	0.12566
0.14870	0.04914
0.19971	0.22769
0.14870	0.17668
0.07220	0.04914
0.09770	0.15117
0.14870	0.17668
0.19971	0.22769
0.12320	0.17668
0.07220	0.12566
0.19971	0.22769
0.14870	0.17668
0.09770	0.12566
0.12320	0.12566
0.22521	0.22769
0.17421	0.22769
0.09770	0.15117
0.12320	0.12566
0.22521	0.17668
0.14870	0.20219
0.09770	0.15117
0.09770	0.10015
0.14870	0.10015
0.22521	0.17668
0.22521	0.20219
0.12320	0.25320
0.09770	0.15117
0.09770	0.12566
0.14870	0.10015
0.22521	0.17668
0.22521	0.10015
0.14870	0.25320
0.17421	0.12566
0.07220	0.04914
0.22521	0.07465
0.17421	0.30422
0.09770	0.15117
0.07220	-0.02739
0.12320	0.15117
0.22521	0.22769
0.12320	0.12566
0.07220	0.12566
0.14870	0.07465
0.22521	0.25320
0.22521	0.40625
0.09770	0.07465
0.14870	-0.02739
0.14870	0.04914
0.19971	0.12566
0.17421	0.25320
0.09770	0.20219
0.07220	0.10015
0.14870	0.04914
0.17421	0.17668
0.22521	0.22769
0.07220	0.25320
0.09770	0.15117
0.14870	0.12566
0.19971	0.17668
0.14870	0.12566
0.07220	0.04914
0.07220	0.15117
0.17421	0.25320
0.19971	0.15117
0.12320	0.15117
0.07220	0.07465
0.14870	0.12566
0.19971	0.17668
0.14870	0.22769
0.17421	0.17668
0.09770	0.15117
0.14870	0.12566
0.17421	0.15117
0.17421	0.10015
0.19971	0.17668
0.22521	0.04914
0.14870	0.15117
0.14870	0.20219
0.09770	0.25320
0.14870	0.12566
0.25071	0.04914
0.14870	0.12566
0.14870	0.20219
0.09770	0.10015
0.07220	0.02363
0.14870	0.10015
0.22521	0.25320
0.19971	0.17668
0.17421	0.17668
0.04670	0.15117
0.14870	0.15117
0.12320	0.04914
0.22521	0.15117
0.14870	0.27871
0.14870	0.30422
0.07220	0.20219
0.07220	-0.00188
0.12320	0.07465
0.12320	0.20219
0.22521	0.17668
0.14870	0.12566
0.09770	0.15117
0.14870	0.10015
0.22521	0.12566
0.22521	0.22769
0.09770	0.15117
0.07220	0.10015
0.12320	0.17668
0.19971	0.22769
0.14870	0.17668
0.09770	0.10015
0.14870	0.17668
0.22521	0.15117
0.14870	0.12566
0.07220	0.07465
0.14870	0.12566
0.14870	0.17668
0.19971	0.22769
0.14870	0.25320
0.17421	0.22769
0.14870	0.12566
0.14870	0.10015
0.22521	0.22769
0.12320	0.20219
0.09770	0.12566
0.07220	0.10015
0.09770	0.10015
0.12320	0.25320
0.17421	0.22769
0.14870	0.15117
0.07220	0.00000
0.07220	0.00000
0.12320	0.00000
0.19971	0.00000
0.17421	0.02363
0.09770	0.12566
0.12320	0.07465
0.17421	0.17668
0.22521	0.15117
0.14870	0.17668
0.14870	0.04914
0.14870	0.25320
0.22521	0.48277
0.12320	0.17668
0.07220	-0.05289
0.14870	-0.00188
0.22521	0.02363
0.19971	0.20219
0.12320	0.15117
0.04670	0.10015
0.09770	0.07465
0.14870	0.17668
0.19971	0.20219
0.22521	0.17668
0.17421	0.15117
0.17421	0.12566
0.07220	0.10015
0.12320	0.12566
0.22521	0.15117
0.22521	0.17668
0.14870	0.15117
0.02119	0.15117
0.07220	0.10015
0.07220	0.17668
0.14870	0.15117
0.22521	0.15117
0.07220	0.02363
0.17421	0.20219
0.19971	0.20219
0.12320	0.15117
0.09770	0.04914
0.19971	0.22769
0.17421	0.15117
0.07220	0.15117
0.12320	0.15117
0.19971	0.17668
0.14870	0.12566
0.07220	0.15117
0.14870	0.27871
0.14870	0.17668
0.09770	0.07465
0.19971	0.10015
0.12320	0.15117
0.14870	0.15117
0.22521	0.15117
0.14870	0.07465
0.14870	0.15117
0.19971	0.15117
0.14870	0.04914
0.14870	0.43176
0.22521	0.32972
0.04670	0.04914
0.12320	0.15117
0.19971	0.04914
0.04670	-0.00188
0.17421	0.02363
0.17421	0.10015
0.07220	0.07465
0.22521	0.15117
0.14870	0.17668
0.12320	0.17668
0.22521	0.20219
0.07220	0.20219
0.19971	0.25320
0.09770	0.10015
0.14870	0.17668
0.14870	0.07465
0.09770	0.17668
0.17421	0.15117
0.14870	0.02363
0.12320	0.20219
0.19971	0.12566
0.09770	0.15117
0.17421	0.22769
0.14870	0.12566
0.07220	0.17668
0.17421	0.27871
0.09770	0.02363
0.09770	0.07465
0.25071	0.20219
0.14870	0.10015
0.09770	0.17668
0.19971	0.15117
0.07220	0.15117
0.14870	0.17668
0.14870	0.15117
0.09770	0.15117
0.14870	0.15117
0.14870	0.12566
0.14870	0.22769
0.19971	0.17668
0.12320	0.15117
0.14870	0.25320
0.22521	0.15117
0.09770	0.07465
0.14870	0.17668
0.14870	0.04914
0.12320	0.20219
0.12320	0.10015
0.12320	0.10015
0.19971	0.20219
0.14870	0.10015
0.09770	0.27871
0.19971	0.20219
0.14870	0.12566
0.07220	0.07465
0.25071	0.12566
0.12320	0.07465
0.17421	0.07465
0.19971	0.20219
0.12320	0.15117
0.12320	0.20219
0.22521	0.15117
0.09770	0.15117
0.14870	0.25320
0.17421	0.10015
0.07220	0.12566
0.22521	0.12566
0.07220	0.07465
0.14870	0.20219
0.14870	0.17668
0.07220	0.15117
0.19971	0.15117
0.07220	0.10015
0.14870	0.15117
0.14870	0.20219
0.14870	0.12566
0.14870	0.27871
0.09770	0.10015
0.22521	0.20219
0.09770	0.10015
0.22521	0.32972
0.14870	0.02363
0.14870	0.07465
0.12320	0.38074
0.09770	0.17668
0.19971	0.20219
0.09770	-0.56305
0.22521	-0.43551
0.07220	0.40625
0.12320	0.71234
0.14870	0.55929
0.07220	0.04914
0.22521	0.20219
0.12320	0.04914
0.14870	0.20219
0.14870	0.45726
0.09770	0.27871
0.19971	-0.00188
0.19971	-0.63957
0.07220	0.63582
0.25071	1.14597
0.19971	-1.30277
0.04670	-1.20074
-0.02981	-0.23145
0.07220	0.07465
0.14870	1.57960
0.12320	0.71234
0.55673	-0.86914
0.42922	0.78886
0.22521	2.29382
0.04670	3.84979
0.27621	-0.56305
0.32721	-1.27726
0.04670	-6.37881
-0.36133	-0.07840
-0.00431	-0.23145
0.02119	3.44167
0.14870	2.47238
0.07220	0.12566
0.63323	0.32972
-0.00431	-2.83324
0.09770	1.01843
0.42922	3.56921
0.40372	-1.14973
0.42922	-2.39961
0.32721	-3.31788
-0.48884	-2.65468
0.02119	2.21730
0.12320	3.21210
0.27621	1.55410
0.63323	3.00804
0.76074	1.75816
-0.20832	-0.99668
-1.10088	-2.68019
-2.35046	-3.90456
0.09770	0.02363
1.16877	2.14077
-0.43783	-4.00659
1.14327	2.98253
1.24527	1.98773
0.73524	2.65093
0.68424	-1.73640
-0.20832	2.90601
0.99026	0.73785
0.35272	-4.54226
-0.71835	-4.74632
0.07220	2.77847
-1.96793	-2.42511
-0.13181	-2.42511
2.26534	4.71706
0.93925	2.70194
0.88825	3.00804
0.53123	0.58480
-0.31033	2.16628
-0.97337	-2.09351
0.53123	-4.05761
-1.71292	-1.35379
-1.04987	-1.63437
-0.64185	-2.22105
-2.22295	0.50828
0.19971	2.88050
1.80631	1.29902
3.08139	2.29382
2.97938	1.75816
2.06133	-0.41000
-0.41233	1.73265
0.02119	2.08976
-0.59084	-7.60318
-1.78942	-3.90456
-2.80949	-0.07840
0.73524	1.14597
1.21977	1.22250
3.31091	1.88570
-2.32496	8.92583
-5.58916	-1.73640
-2.63097	-4.79733
1.88281	-2.29757
4.10146	-1.02219
4.25447	1.73265
2.97938	4.46198
1.42379	1.96222
0.30171	2.37034
-1.30489	-1.73640
-1.48340	0.12566
-1.76392	-0.69059
-0.79486	2.34484
0.55673	-5.38401
-1.17738	0.43176
-2.42696	-2.70570
-1.73842	0.66132
-0.92237	2.67644
1.34728	0.45726
0.68424	1.06945
0.32721	-2.34859
1.62780	-3.72601
2.92838	6.91072
2.21434	-3.11382
1.34728	3.23761
0.55673	-0.74160
-0.46334	1.52859
-0.61635	0.63582
-0.59084	0.96742
-0.69285	0.78886
-0.66735	-0.00188
-0.43783	0.04914
-0.33583	-0.41000
-0.25932	0.22769
-0.18282	0.53379
0.22521	-6.25127
0.45472	-1.20074
0.93925	-1.68539
0.09770	3.84979
-0.92237	3.82429
-1.10088	1.80917
1.24527	-4.33819
1.72980	-2.32308
0.48022	0.38074
-0.89686	3.59471
-0.18282	1.32453
0.53123	-0.35899
1.72980	2.80397
0.42922	1.96222
0.32721	0.89089
-1.68742	-1.83844
-0.82036	-1.30277
0.86275	-1.88945
1.19427	0.25320
0.09770	0.40625
0.42922	0.45726
0.40372	0.22769
0.25071	0.17668
-0.15732	1.47757
-2.01894	-1.83844
-1.12638	1.63062
0.60773	-2.04250
0.70974	-2.78222
0.32721	-2.80773
0.25071	1.37554
0.53123	3.23761
0.45472	1.88570
0.50573	1.88570
0.53123	1.42656
0.32721	1.19699
0.09770	1.55410
0.07220	-0.38449
0.19971	0.89089
-0.18282	-2.75671
-0.08081	-0.10391
-0.25932	0.30422
0.07220	-0.86914
0.12320	-6.58288
0.93925	1.17148
0.35272	0.63582
0.19971	1.45206
-1.22839	3.87530
-2.17195	0.48277
1.39828	-1.99148
1.14327	-0.20594
1.11776	1.35003
0.93925	1.04394
0.88825	0.71234
1.21977	0.76336
0.02119	0.25320
0.22521	0.27871
-1.91693	0.83988
-0.28482	-3.59847
0.04670	-2.34859
-0.23382	0.43176
0.09770	1.57960
0.50573	1.65613
0.65874	1.27351
0.99026	2.01323
0.83725	-0.76711
0.60773	-1.12422
-1.73842	1.14597
-2.60547	-0.81812
0.02119	-2.85874
0.58223	1.17148
1.21977	-1.63437
1.39828	1.57960
0.99026	1.98773
0.65874	0.96742
0.04670	1.68163
-0.36133	-1.58336
-0.48884	1.27351
0.09770	-0.76711
-0.00431	1.75816
-0.59084	-6.60838
-0.48884	-2.14453
-0.05531	2.62542
0.04670	3.26312
1.09226	0.89089
0.96476	-0.12942
0.35272	0.83988
-1.33039	0.91640
-0.18282	-1.02219
0.50573	1.37554
0.81175	0.35523
0.48022	0.32972
0.68424	-0.20594
0.88825	-0.05289
0.48022	0.96742
-1.04987	-0.53754
-1.45790	-3.72601
-0.43783	-1.91496
-0.76936	0.63582
0.78624	1.35003
1.29628	0.81437
1.27078	1.24800
0.93925	1.24800
0.32721	-0.56305
0.60773	2.80397
-0.61635	1.63062
-0.31033	1.12046
-0.00431	-8.64900
0.27621	-1.07320
0.12320	1.57960
0.83725	3.26312
-0.99887	2.37034
-1.15188	1.35003
0.81175	-0.15492
-0.13181	-2.01699
0.99026	-0.10391
0.68424	0.68683
1.04126	1.52859
0.91375	1.09496
0.09770	-0.10391
-1.07538	-0.94566
-1.22839	-0.20594
0.22521	-0.46102
-0.15732	-3.08831
-0.20832	0.94191
1.29628	1.68163
1.39828	1.35003
0.42922	-1.76191
0.22521	1.19699
0.19971	0.81437
0.04670	1.40105
0.12320	-0.69059
-0.51434	0.43176
-0.31033	0.86539
-0.23382	0.78886
0.27621	-0.10391
0.63323	-1.71090
0.40372	0.99292
-0.13181	-1.30277
-0.74385	0.53379
-0.51434	2.14077
-0.00431	-5.63909
0.63323	1.57960
0.96476	-0.51203
0.83725	-0.25695
0.81175	3.21210
0.81175	3.87530
-0.48884	-2.34859
-0.15732	0.17668
-0.05531	1.50308
0.14870	0.71234
0.02119	0.55929
0.63323	-3.01179
0.32721	1.32453
0.35272	0.10015
0.48022	-1.30277
-0.13181	-1.40480
-0.66735	0.27871
-0.28482	1.68163
0.12320	1.37554
0.25071	-0.10391
0.19971	-0.00188
-0.28482	-0.18043
-0.61635	0.35523
0.53123	-0.02739
0.93925	-0.69059
1.65330	0.04914
0.99026	-0.10391
-0.46334	5.22721
-1.22839	-4.10862
0.32721	-1.07320
0.07220	0.94191
-0.38683	1.17148
0.14870	-0.92016
0.37822	2.44687
1.09226	1.63062
0.40372	-1.37929
0.30171	4.92112
0.91375	-3.36890
0.42922	0.22769
-0.18282	0.50828
-0.48884	-3.54745
-1.20288	-0.10391
-0.46334	0.07465
0.25071	0.25320
0.50573	0.04914
0.42922	0.07465
0.35272	5.07416
0.22521	3.33964
0.35272	-0.30797
0.04670	0.12566
-0.18282	0.53379
0.30171	0.53379
0.25071	-1.30277
0.42922	-2.70570
-0.02981	-4.69530
0.12320	0.02363
0.70974	1.40105
0.83725	-1.43031
1.75531	1.32453
-0.38683	0.66132
-3.37052	1.01843
-2.32496	2.37034
0.63323	2.24281
1.52579	-2.78222
1.55129	-0.25695
1.62780	0.04914
1.21977	0.48277
0.96476	-2.04250
-0.48884	1.55410
-0.84586	-2.29757
-0.66735	1.32453
-0.02981	0.99292
1.09226	0.94191
-0.43783	1.24800
0.14870	2.03874
-1.61091	-1.58336
0.45472	-0.35899
1.24527	0.32972
0.53123	-0.25695
0.35272	-3.41992
0.17421	-0.61406
-0.02981	2.80397
-0.28482	0.02363
0.70974	0.43176
0.50573	-0.76711
-0.10631	-2.11902
0.12320	4.00284
0.48022	2.11527
0.14870	0.25320
0.50573	-1.94047
-0.36133	1.27351
0.02119	1.60511
-0.82036	1.09496
0.02119	0.32972
0.73524	-0.07840
0.76074	0.25320
0.81175	-2.68019
0.48022	-7.93479
0.07220	0.25320
-0.43783	2.31933
0.78624	2.11527
0.42922	1.93671
0.22521	2.47238
-1.66191	0.86539
-2.32496	-3.85355
0.42922	-1.37929
0.60773	0.83988
1.39828	2.24281
0.88825	0.76336
0.65874	-2.65468
1.42379	1.22250
0.45472	1.12046
0.42922	2.19179
-0.00431	-1.86394
-0.48884	-0.18043
-0.38683	0.53379
-0.08081	-1.40480
-0.79486	1.52859
0.19971	0.27871
0.58223	-0.43551
0.19971	0.17668
0.19971	3.03355
0.50573	-4.84835
0.04670	1.98773
-1.17738	0.35523
-0.92237	0.86539
0.42922	3.92632
0.86275	-0.33348
1.01576	-5.05241
0.81175	-0.28246
0.55673	2.08976
0.19971	-0.53754
0.37822	0.15117
-0.41233	-0.43551
-0.97337	0.78886
0.07220	0.86539
-0.25932	1.42656
0.48022	0.86539
0.76074	-0.97117
0.32721	-2.62918
-0.46334	-0.15492
-0.31033	0.91640
0.40372	0.96742
0.42922	1.01843
0.50573	0.89089
0.70974	-0.23145
0.91375	0.94191
-0.48884	-0.30797
-1.10088	0.35523
-0.64185	-1.43031
-0.02981	-0.51203
1.32178	1.27351
0.02119	-0.66508
-0.51434	-0.43551
-0.08081	3.44167
0.35272	-1.96597
1.16877	-0.76711
1.04126	-0.12942
0.42922	1.83468
-0.89686	2.95702
-1.45790	-0.99668
-1.33039	-0.76711
0.73524	0.38074
1.34728	0.63582
1.34728	-0.25695
0.93925	0.07465
0.40372	-1.32828
-0.38683	1.37554
-0.18282	-4.79733
-0.00431	1.01843
-0.15732	1.93671
-0.08081	2.11527
0.04670	1.60511
0.12320	-2.42511
0.45472	1.19699
0.22521	-1.27726
-0.48884	3.51819
-0.61635	-1.07320
-0.59084	-2.39961
0.53123	0.48277
1.39828	1.01843
0.96476	0.66132
0.37822	-0.05289
-0.48884	-0.07840
-0.94787	0.96742
0.32721	0.04914
0.50573	-1.25176
-0.18282	-0.30797
0.04670	-1.04770
0.58223	0.66132
0.65874	0.04914
0.53123	0.96742
0.42922	1.37554
0.12320	1.29902
-0.64185	-1.32828
-0.23382	1.98773
-0.10631	-0.66508
0.17421	-1.48133
-0.92237	0.22769
-0.59084	0.96742
0.32721	-1.02219
0.99026	0.91640
1.04126	-1.04770
0.68424	1.47757
0.07220	-0.97117
0.22521	1.12046
0.30171	0.83988
0.73524	0.94191
-0.48884	0.71234
-0.89686	0.50828
-0.36133	-1.12422
0.63323	1.42656
0.83725	-1.45582
0.35272	-0.46102
0.40372	0.02363
0.07220	1.12046
-0.23382	-0.51203
-0.00431	0.50828
0.58223	0.12566
0.55673	-0.28246
0.12320	0.73785
-1.40690	-3.13933
-0.79486	0.63582
0.70974	2.01323
0.96476	2.21730
1.06676	0.86539
0.83725	-2.29757
0.60773	1.12046
-0.25932	1.40105
-0.23382	0.17668
-0.79486	0.66132
-0.69285	-0.00188
-1.10088	-0.20594
0.88825	0.30422
1.16877	-0.41000
0.83725	-1.02219
0.81175	-1.32828
0.32721	0.99292
0.32721	0.73785
0.02119	0.58480
-0.28482	-1.02219
-0.46334	-0.53754
-0.23382	0.66132
0.12320	0.02363
0.27621	0.50828
-0.82036	-0.69059
-0.18282	2.29382
1.09226	1.17148
1.21977	2.14077
1.06676	-0.33348
-1.20288	-0.33348
-1.50890	0.68683
0.19971	-0.89465
1.09226	-1.65988
1.24527	0.53379
0.65874	-0.43551
0.09770	0.27871
0.02119	1.80917
-0.13181	1.55410
0.07220	-2.37410
-0.02981	-0.25695
-0.48884	0.91640
0.27621	-0.48652
0.40372	0.81437
0.58223	-0.76711
-0.48884	0.78886
-0.33583	1.12046
-0.10631	0.35523
0.48022	0.40625
0.63323	-0.86914
0.35272	0.55929
-0.25932	0.55929
-0.64185	1.27351
0.37822	-1.78742
0.45472	0.35523
0.53123	-0.58856
0.91375	0.76336
0.76074	-2.68019
0.17421	1.37554
-0.23382	1.42656
-0.64185	1.22250
-0.25932	1.88570
0.22521	0.35523
0.07220	-2.37410
0.25071	-0.81812
0.14870	-1.07320
0.19971	-2.70570
0.37822	1.65613
0.09770	2.49788
0.09770	1.60511
0.32721	-1.07320
0.02119	0.78886
0.25071	1.42656
0.32721	-0.38449
0.17421	-0.18043
-1.45790	-0.81812
-1.45790	-0.56305
0.53123	0.43176
1.04126	-0.20594
1.29628	-0.30797
1.04126	0.83988
0.96476	-0.46102
-0.20832	1.47757
-1.22839	-0.63957
-0.87136	-0.25695
0.45472	-0.76711
0.73524	0.89089
0.73524	0.99292
0.42922	-0.20594
0.02119	-0.35899
-0.02981	0.07465
0.12320	2.21730
0.04670	-0.23145
-0.28482	-1.65988
-0.10631	1.35003
0.25071	-1.25176
0.30171	1.22250
-0.79486	-1.04770
-0.20832	2.31933
0.50573	-1.04770
1.09226	1.06945
0.81175	-0.92016
0.70974	-0.46102
0.14870	-0.38449
-0.02981	1.27351
0.35272	1.45206
-0.15732	-0.41000
-0.51434	-2.75671
-0.71835	-0.25695
0.12320	0.66132
0.35272	0.63582
0.25071	1.12046
0.50573	1.75816
0.37822	0.20219
-0.02981	0.40625
0.02119	0.15117
-0.02981	-0.10391
0.17421	0.38074
0.19971	-1.78742
0.22521	0.07465
0.22521	2.29382
0.58223	-1.07320
0.07220	-2.19554
-0.48884	-0.84363
0.02119	0.99292
0.40372	0.40625
-0.76936	2.72745
0.42922	-0.92016
0.35272	-1.27726
0.40372	0.86539
0.73524	2.16628
0.63323	-1.48133
0.35272	1.14597
0.35272	0.04914
0.02119	1.06945
-0.28482	-0.05289
-0.89686	-0.94566
-1.15188	0.63582
-0.31033	-0.66508
-0.20832	-0.35899
0.19971	-0.69059
1.34728	-1.86394
0.83725	1.86019
0.91375	0.96742
1.04126	1.73265
-0.02981	1.04394
-0.25932	1.22250
-0.48884	0.07465
-0.05531	-1.30277
0.27621	-0.71609
0.04670	0.25320
-0.10631	-0.48652
0.19971	0.27871
0.04670	0.50828
0.27621	0.91640
0.35272	-3.19035
0.09770	0.63582
-0.41233	0.81437
-0.99887	0.10015
-0.56534	2.34484
0.63323	-0.86914
1.04126	-0.23145
1.06676	1.75816
0.73524	1.75816
-0.13181	-1.17523
-0.15732	-1.65988
0.45472	1.27351
0.86275	1.19699
-0.18282	-0.35899
-0.89686	0.12566
-0.02981	-0.86914
0.04670	-2.83324
0.55673	0.02363
0.07220	2.19179
-1.07538	-1.55785
0.17421	1.32453
0.68424	2.06425
0.37822	0.43176
-0.15732	0.63582
0.32721	-0.02739
0.63323	-0.15492
0.63323	0.83988
0.22521	-0.38449
-0.33583	2.49788
-0.66735	-1.22625
-0.48884	-2.85874
0.27621	-0.46102
0.55673	2.21730
0.76074	-1.88945
0.73524	0.96742
-0.13181	-3.24136
-0.61635	1.32453
-0.00431	1.68163
0.40372	1.80917
1.42379	2.49788
-0.02981	0.10015
-0.02981	-0.66508
0.02119	0.15117
0.45472	-0.00188
0.12320	0.53379
0.04670	0.30422
-0.48884	1.42656
0.27621	-3.34339
0.27621	-6.22577
0.32721	0.73785
0.30171	1.70714
0.22521	2.70194
0.12320	2.47238
-0.08081	-0.18043
0.32721	0.89089
0.07220	-0.35899
0.37822	-1.30277
0.09770	0.48277
-1.10088	0.91640
-0.94787	0.76336
1.06676	0.66132
0.60773	0.04914
-0.05531	-0.46102
0.60773	0.15117
0.37822	1.91120
0.78624	-0.69059
0.32721	-1.50683
0.53123	-2.39961
-0.00431	0.25320
-0.69285	1.06945
-0.53984	1.68163
-0.33583	1.80917
0.60773	0.10015
0.63323	0.35523
0.37822	0.32972
0.04670	0.02363
-0.05531	-0.18043
0.02119	-2.96078
0.50573	0.94191
0.30171	1.98773
0.25071	0.20219
-0.18282	0.22769
-0.31033	1.60511
0.22521	0.27871
0.35272	-0.51203
-0.18282	-1.55785
0.25071	-2.27207
0.12320	0.15117
0.83725	0.91640
0.19971	1.50308
0.37822	0.48277
0.07220	-0.53754
-0.33583	2.49788
0.32721	0.04914
-0.28482	-0.71609
0.53123	-2.09351
0.63323	0.17668
-0.00431	2.24281
-0.20832	1.17148
0.30171	-1.07320
0.37822	0.61031
0.04670	0.61031
0.12320	0.25320
0.02119	0.58480
0.35272	-0.74160
-0.43783	-1.83844
-0.38683	1.68163
0.14870	-1.09871
-0.38683	-1.35379
0.27621	-0.35899
0.45472	1.60511
1.14327	-0.30797
0.81175	1.91120
-0.15732	0.71234
-0.66735	1.17148
0.14870	0.86539
0.81175	-0.56305
0.68424	-0.74160
0.55673	0.68683
0.07220	0.83988
-0.56534	-3.03730
-0.61635	0.48277
-0.05531	0.61031
-0.28482	0.04914
0.37822	-0.18043
0.65874	0.66132
0.91375	0.61031
-0.89686	-0.30797
0.50573	1.32453
0.60773	0.78886
0.63323	-1.86394
-0.18282	-0.97117
-0.00431	0.58480
0.30171	-0.46102
0.22521	2.31933
0.37822	0.22769
0.14870	1.06945
-0.25932	0.12566
-0.10631	0.15117
0.12320	-0.35899
-0.13181	-0.46102
-0.38683	0.55929
0.09770	0.58480
-0.41233	0.86539
0.42922	0.27871
0.58223	0.02363
0.73524	-0.10391
0.83725	-0.07840
0.96476	-0.23145
-0.25932	-0.56305
-2.09544	-0.28246
0.07220	-1.12422
0.53123	-0.25695
0.55673	0.76336
0.48022	1.01843
0.81175	1.47757
0.42922	1.06945
-0.23382	0.25320
-0.28482	-0.99668
0.09770	-1.12422
0.14870	0.78886
-0.15732	-0.00188
0.27621	1.19699
0.55673	-0.99668
0.02119	2.06425
-0.36133	-2.55265
-0.18282	0.99292
-0.53984	0.81437
0.53123	-1.37929
0.53123	0.32972
0.27621	1.50308
0.58223	1.14597
0.91375	-0.18043
0.60773	0.63582
0.19971	0.43176
-0.48884	-0.12942
-0.74385	-1.14973
-0.00431	0.38074
0.27621	-0.41000
0.55673	-0.58856
0.32721	-0.51203
0.42922	0.35523
-0.38683	-0.30797
-0.51434	0.17668
-1.12638	2.39585
0.09770	0.43176
1.11776	-0.15492
1.11776	0.48277
1.01576	0.86539
0.14870	0.96742
0.93925	-1.58336
-0.59084	-4.46573
0.19971	2.01323
0.19971	1.45206
-0.18282	0.12566
-0.20832	1.37554
0.07220	0.53379
0.19971	1.70714
0.35272	2.80397
-0.23382	-5.07792
-0.20832	-3.03730
-0.00431	1.86019
0.22521	-0.66508
0.25071	0.94191
0.50573	0.20219
0.37822	2.59991
0.02119	-0.56305
0.40372	0.07465
0.07220	0.15117
-0.02981	0.55929
0.32721	0.53379
0.32721	0.45726
-0.18282	0.30422
-0.13181	-1.20074
0.53123	-2.14453
0.45472	0.55929
0.60773	1.47757
-0.56534	-0.00188
-0.76936	-1.55785
0.73524	-0.15492
-0.38683	1.73265
-0.02981	3.18659
0.09770	-0.05289
0.73524	-0.56305
0.86275	-1.37929
0.19971	0.86539
-0.13181	1.24800
-0.13181	1.60511
0.30171	-0.41000
0.25071	0.55929
0.07220	-1.76191
0.02119	-0.18043
-0.02981	-0.63957
0.22521	2.08976
0.14870	-0.79262
0.45472	-0.51203
0.50573	-0.28246
0.40372	-2.19554
0.37822	-0.46102
-0.18282	2.52339
0.27621	0.20219
-0.41233	2.14077
-0.33583	1.73265
-0.97337	-1.17523
-0.08081	-0.86914
0.83725	-0.76711
0.68424	-0.30797
1.37278	0.32972
0.27621	1.17148
0.07220	-0.69059
0.07220	-0.58856
0.25071	-1.20074
0.22521	0.15117
-0.31033	1.86019
-0.15732	2.14077
0.12320	-0.51203
-0.10631	-1.30277
0.81175	0.71234
0.37822	-0.20594
0.60773	0.38074
-0.51434	0.96742
-0.41233	0.35523
0.35272	2.49788
-0.48884	0.55929
0.42922	-3.49644
0.04670	-4.54226
-0.15732	-0.71609
-0.56534	2.14077
0.22521	2.03874
1.14327	2.47238
1.16877	1.98773
0.81175	1.83468
0.70974	-2.09351
0.30171	-2.68019
-0.48884	-2.57816
-0.25932	1.40105
-1.07538	3.49268
-1.10088	0.12566
0.55673	-0.07840
0.19971	1.47757
0.50573	0.17668
0.55673	-2.14453
0.60773	-0.33348
0.53123	-0.05289
0.09770	1.78367
-0.18282	1.78367
-0.36133	-2.27207
0.30171	-2.47613
0.81175	-0.84363
0.42922	1.35003
-0.59084	0.07465
-2.73298	1.70714
0.14870	1.14597
1.42379	-0.18043
1.72980	0.20219
-0.15732	1.06945
0.25071	-0.56305
0.78624	0.63582
0.91375	-0.56305
0.53123	-0.15492
0.22521	-0.00188
-0.05531	-0.18043
-0.00431	-0.00188
-0.31033	0.02363
-0.25932	0.15117
-0.33583	-0.10391
-0.31033	1.04394
0.09770	-0.56305
-0.08081	-1.76191
-0.10631	-0.12942
0.63323	0.99292
0.76074	1.12046
0.19971	0.02363
0.07220	1.55410
0.42922	3.03355
0.53123	0.73785
0.42922	-3.13933
0.09770	-3.41992
0.88825	1.22250
-0.25932	1.60511
-1.27939	0.86539
-0.51434	0.12566
0.27621	1.65613
0.48022	-0.18043
0.96476	-2.27207
0.63323	-0.12942
0.30171	0.02363
-0.66735	0.96742
-0.28482	1.37554
0.50573	0.63582
0.60773	0.02363
0.32721	0.15117
0.17421	0.38074
0.30171	0.66132
0.07220	-1.35379
-0.00431	0.68683
0.19971	0.45726
-0.08081	-0.05289
0.07220	0.35523
-0.41233	0.32972
-0.36133	-0.84363
0.14870	-0.28246
0.50573	1.47757
0.17421	1.27351
-0.53984	-2.90976
-0.08081	-0.05289
0.88825	1.88570
0.55673	-0.58856
0.76074	-1.53234
1.01576	1.01843
0.73524	1.47757
-0.18282	0.38074
-0.82036	0.86539
-0.38683	-0.99668
0.14870	-0.38449
0.35272	1.24800
0.53123	-0.86914
0.17421	0.17668
-0.56534	-0.46102
-0.69285	1.60511
0.30171	-2.98628
0.30171	1.17148
0.60773	-0.05289
0.19971	-0.05289
0.37822	0.61031
-0.66735	0.38074
-0.18282	-0.41000
0.42922	0.96742
0.32721	-0.15492
-0.13181	-0.23145
0.78624	0.45726
0.88825	1.17148
0.65874	-0.86914
-0.48884	0.25320
-1.20288	-0.20594
-0.33583	-0.48652
0.76074	-0.43551
1.29628	0.12566
0.73524	0.58480
0.14870	1.45206
-0.38683	1.22250
-0.25932	-1.22625
0.42922	0.89089
-0.00431	-0.92016
-0.64185	1.42656
-0.20832	-0.30797
0.55673	0.48277
0.83725	-1.83844
0.70974	0.94191
0.53123	0.25320
-0.10631	0.10015
0.25071	0.96742
-0.48884	0.20219
0.04670	0.30422
0.07220	0.58480
-0.08081	0.68683
0.27621	-0.23145
0.19971	-1.32828
0.12320	-1.60887
0.48022	0.27871
0.32721	0.61031
0.30171	1.09496
0.50573	0.17668
0.27621	1.04394
0.07220	1.35003
-0.08081	-1.83844
-0.00431	-2.34859
-0.05531	1.17148
0.12320	1.35003
0.40372	0.35523
0.35272	0.12566
0.17421	2.77847
0.27621	1.93671
-0.18282	-1.12422
-1.20288	-4.33819
-1.33039	0.55929
0.91375	1.35003
1.44929	-0.71609
0.91375	1.88570
0.70974	-0.33348
0.65874	0.50828
-0.38683	-1.45582
-0.10631	1.12046
0.19971	0.81437
0.88825	1.01843
-0.23382	0.22769
-0.18282	-1.27726
0.09770	0.58480
0.02119	0.04914
-0.08081	-0.61406
-0.13181	0.17668
-0.76936	0.07465
-0.41233	-0.00188
0.76074	0.58480
0.86275	0.50828
0.68424	0.83988
0.42922	0.22769
-0.05531	-0.51203
-0.48884	-1.14973
0.83725	-0.97117
0.50573	0.89089
0.22521	1.55410
-0.13181	2.03874
-0.05531	-0.15492
0.25071	-0.12942
0.30171	-1.25176
0.42922	-0.15492
0.09770	0.89089
-0.31033	0.40625
-0.82036	0.89089
-0.82036	1.22250
-0.20832	-2.83324
0.88825	-0.05289
1.24527	-1.30277
0.96476	1.06945
0.27621	-0.56305
-0.71835	-1.35379
0.12320	1.09496
0.93925	1.40105
0.25071	1.47757
-0.13181	1.01843
-0.23382	0.38074
0.30171	-0.23145
0.22521	0.25320
-0.36133	-0.89465
0.35272	0.12566
0.30171	0.25320
0.60773	-1.07320
0.60773	-0.05289
-0.08081	0.50828
-1.71292	-0.05289
-1.53441	-0.23145
0.63323	0.58480
1.52579	1.06945
1.57679	1.27351
-0.05531	-0.43551
-0.23382	-2.39961
-0.05531	-0.28246
-0.15732	1.22250
0.53123	1.57960
0.55673	2.75296
0.60773	1.24800
0.27621	-2.96078
-0.02981	-1.27726
-0.64185	0.66132
-0.46334	0.45726
0.02119	0.81437
0.40372	0.63582
0.27621	0.53379
0.35272	0.38074
0.25071	-0.92016
0.17421	1.22250
0.09770	-1.02219
0.17421	0.58480
0.12320	-0.00188
-0.15732	-1.45582
0.07220	-1.04770
0.19971	0.20219
0.32721	1.27351
0.58223	1.73265
0.22521	1.22250
-0.23382	-1.99148
-0.48884	-1.73640
0.02119	0.78886
0.86275	1.06945
0.45472	0.58480
-0.56534	0.66132
0.50573	1.57960
0.60773	1.12046
0.93925	0.25320
-0.23382	0.02363
-0.97337	-0.46102
-0.23382	-1.04770
0.12320	0.32972
0.99026	1.93671
-0.46334	-0.89465
0.53123	-4.54226
-0.23382	-0.97117
0.32721	1.65613
0.83725	1.32453
0.50573	1.19699
-0.46334	2.31933
0.02119	0.25320
0.48022	-0.69059
0.07220	0.76336
-0.48884	-1.48133
0.19971	-0.20594
0.42922	0.89089
0.48022	1.09496
0.58223	-0.28246
0.63323	1.01843
-0.92237	-2.47613
-1.61091	-0.15492
0.07220	0.81437
0.50573	-1.20074
0.53123	1.45206
1.21977	0.96742
0.68424	1.73265
0.42922	-0.30797
0.45472	-2.29757
0.42922	0.15117
-0.53984	0.45726
-0.33583	1.19699
0.02119	0.38074
0.17421	-0.35899
0.53123	-0.48652
-0.71835	-1.96597
0.48022	1.52859
0.45472	0.04914
0.50573	0.71234
0.50573	-0.00188
-0.59084	0.91640
-0.28482	0.76336
-0.00431	-1.09871
0.45472	-0.66508
0.45472	0.73785
0.65874	0.27871
0.60773	1.32453
0.70974	0.45726
-0.05531	0.25320
0.02119	-0.46102
-0.05531	0.73785
0.22521	-0.74160
-0.05531	-1.86394
-0.66735	-1.07320
-0.28482	1.91120
0.12320	1.75816
0.53123	-2.22105
0.86275	-0.00188
0.50573	1.75816
0.17421	-0.20594
-0.10631	1.37554
-0.53984	1.57960
0.04670	0.07465
0.07220	0.53379
0.42922	-0.25695
0.83725	-1.02219
0.02119	-0.35899
0.37822	0.55929
0.70974	0.32972
0.12320	-0.43551
-0.61635	-1.55785
-0.38683	0.02363
-0.59084	-0.28246
0.25071	1.09496
0.83725	1.04394
0.53123	0.45726
0.63323	1.09496
0.55673	0.83988
0.02119	0.07465
-0.92237	0.66132
-0.87136	0.43176
0.50573	-1.53234
0.68424	-0.63957
0.73524	-0.05289
0.86275	0.22769
0.30171	0.66132
-0.97337	1.96222
-0.48884	-1.60887
0.04670	0.32972
0.45472	2.19179
0.50573	-3.77702
0.48022	-0.86914
0.68424	1.27351
0.76074	1.19699
0.42922	1.32453
-0.33583	0.02363
-2.04444	0.02363
-0.71835	0.81437
0.42922	-0.02739
1.04126	0.32972
0.93925	0.73785
0.91375	-0.35899
0.25071	-0.76711
-0.36133	-0.74160
0.04670	0.81437
0.22521	0.17668
0.22521	0.02363
-0.02981	0.68683
-0.25932	1.52859
0.04670	-2.24656
0.22521	0.12566
-0.13181	0.40625
-0.05531	0.86539
0.45472	0.91640
0.32721	0.68683
0.42922	-0.46102
0.17421	0.43176
-0.59084	-0.20594
0.17421	-0.41000
0.55673	-0.18043
0.02119	1.24800
0.30171	0.02363
0.40372	0.73785
0.50573	-1.83844
0.09770	-0.58856
-0.33583	0.81437
0.04670	0.81437
0.42922	-0.86914
0.27621	0.02363
-0.25932	1.14597
-0.69285	0.40625
-0.41233	0.32972
0.19971	1.12046
0.58223	1.68163
0.91375	-1.07320
0.70974	-0.46102
0.48022	-2.62918
0.07220	0.83988
0.04670	0.83988
0.07220	0.83988
-0.13181	-0.30797
-0.51434	0.53379
-0.33583	1.22250
-0.05531	-0.25695
0.09770	-1.50683
0.60773	0.25320
0.22521	0.91640
0.17421	0.04914
0.48022	-0.46102
0.42922	0.02363
0.25071	0.81437
0.32721	0.66132
0.09770	0.40625
0.12320	0.94191
-0.05531	0.83988
0.17421	2.03874
0.73524	-3.24136
0.07220	-3.31788
-1.22839	-0.69059
-1.55991	1.45206
0.32721	1.80917
0.55673	1.50308
1.55129	1.27351
1.42379	0.99292
1.06676	1.27351
0.96476	-0.38449
0.76074	-0.05289
-0.23382	-0.56305
-1.25389	0.45726
-1.86593	0.30422
-1.73842	-3.47093
0.76074	-4.10862
1.55129	1.22250
0.55673	2.19179
0.27621	2.11527
0.83725	2.14077
0.55673	1.22250
0.45472	0.76336
0.17421	0.55929
-0.15732	-0.18043
-0.33583	-1.22625
-0.28482	-1.25176
0.02119	0.43176
0.09770	0.66132
0.07220	-0.86914
0.55673	-0.05289
-0.38683	0.71234
-0.46334	1.68163
0.22521	-2.37410
0.32721	-0.43551
0.93925	-1.40480
0.63323	1.80917
0.45472	1.12046
0.32721	1.86019
0.09770	1.65613
-0.08081	-1.02219
-0.36133	1.14597
0.22521	0.91640
-0.02981	-0.48652
0.40372	0.99292
-0.43783	-0.20594
-0.31033	-0.30797
0.68424	-0.51203
0.93925	-0.86914
0.88825	-0.69059
-1.07538	-0.00188
-0.10631	0.53379
0.35272	0.89089
0.12320	1.52859
0.53123	-0.12942
0.19971	-2.75671
0.45472	0.91640
0.58223	1.12046
0.17421	0.94191
-0.92237	1.80917
-0.69285	-0.48652
0.14870	-2.27207
0.32721	0.12566
0.63323	1.42656
0.53123	0.78886
-0.41233	0.53379
0.27621	1.06945
0.30171	0.25320
0.63323	-0.48652
-0.25932	-2.55265
0.17421	-1.35379
0.60773	0.61031
0.83725	1.57960
-0.31033	0.96742
-0.20832	0.48277
0.91375	1.19699
1.04126	0.50828
-0.36133	-1.02219
-1.04987	0.76336
0.27621	0.25320
0.37822	-1.09871
0.07220	-0.56305
-0.18282	-0.76711
0.40372	1.17148
0.73524	-0.07840
-0.36133	-0.38449
-0.71835	0.53379
-0.82036	0.53379
1.34728	0.15117
1.01576	0.96742
0.48022	0.76336
0.40372	-0.15492
0.14870	0.50828
0.65874	-0.51203
-0.94787	-0.30797
-1.10088	-0.30797
1.09226	0.35523
0.32721	-0.05289
0.22521	0.76336
0.91375	0.50828
0.58223	-0.84363
0.12320	0.68683
-0.48884	0.12566
-0.92237	1.32453
-0.15732	-0.97117
1.27078	0.96742
0.50573	-0.61406
-0.08081	-1.07320
0.19971	0.78886
0.02119	0.78886
0.22521	0.99292
0.50573	0.35523
-0.74385	-1.27726
-0.53984	-0.71609
0.14870	0.12566
0.83725	0.50828
0.53123	1.73265
0.32721	-1.58336
0.27621	0.40625
0.40372	0.10015
0.63323	0.89089
0.65874	0.10015
0.02119	-0.35899
-1.61091	-0.07840
-1.63641	-0.33348
0.55673	0.86539
1.32178	0.38074
0.88825	-0.41000
0.65874	-0.20594
0.55673	0.22769
0.40372	0.58480
0.12320	0.30422
-0.25932	0.30422
0.25071	1.55410
-0.41233	-1.02219
-1.53441	-1.07320
-0.71835	-1.32828
0.12320	0.78886
0.68424	1.37554
1.04126	0.76336
1.09226	0.53379
0.86275	0.02363
0.02119	-0.25695
-0.05531	0.48277
0.22521	0.43176
-0.02981	-0.41000
-0.08081	-2.68019
-0.25932	1.12046
0.02119	1.35003
0.19971	-0.56305
0.30171	0.71234
0.27621	1.68163
0.07220	0.25320
0.55673	-0.97117
-0.13181	-0.76711
0.48022	1.45206
0.02119	-0.28246
-0.61635	-0.00188
-0.00431	0.86539
0.68424	0.81437
1.01576	0.45726
0.86275	0.12566
0.73524	-0.33348
-0.28482	0.04914
-1.04987	0.63582
0.78624	-0.43551
-0.33583	-2.39961
-1.33039	-0.33348
0.09770	0.94191
0.22521	1.86019
1.04126	0.50828
1.04126	-1.07320
0.68424	-0.00188
0.50573	0.35523
-0.38683	-0.20594
-0.08081	0.07465
0.19971	1.73265
-0.15732	2.24281
-0.08081	0.10015
0.09770	-1.88945
-0.08081	-0.10391
-0.08081	-0.07840
0.48022	0.43176
0.68424	0.38074
0.40372	0.04914
-0.08081	0.17668
-0.74385	1.42656
0.22521	2.49788
0.17421	-3.19035
0.27621	-4.41472
0.91375	-1.91496
0.70974	1.83468
0.58223	2.47238
-0.64185	1.78367
0.17421	1.88570
0.07220	0.48277
0.09770	0.25320
0.04670	-0.33348
0.14870	-0.28246
0.25071	0.32972
0.07220	-0.38449
0.07220	0.22769
0.22521	-0.12942
-0.00431	-0.66508
0.04670	-0.25695
-0.00431	0.58480
0.30171	0.45726
-0.46334	0.63582
-0.71835	-1.17523
0.63323	0.10015
1.11776	-1.12422
0.73524	2.37034
0.96476	0.35523
0.88825	-0.15492
-1.38139	-1.27726
-1.45790	0.45726
0.12320	1.12046
1.55129	0.99292
-0.02981	0.61031
-0.08081	0.48277
0.45472	1.24800
0.55673	-0.56305
0.40372	-0.38449
0.12320	0.07465
0.17421	-0.53754
0.04670	-1.04770
-0.05531	-0.07840
-0.36133	0.45726
-0.46334	0.53379
0.02119	2.14077
0.32721	0.02363
0.25071	-3.80253
-0.43783	-1.22625
0.09770	1.06945
0.37822	1.42656
0.63323	1.40105
0.60773	1.32453
0.65874	1.47757
0.50573	-0.18043
0.22521	-0.18043
-0.64185	-0.46102
-0.64185	-0.25695
0.09770	-0.00188
0.32721	0.38074
0.40372	-0.23145
0.04670	-0.05289
0.07220	0.58480
0.58223	-0.48652
0.14870	-1.25176
0.22521	0.63582
0.19971	-0.15492
0.14870	0.71234
0.40372	0.78886
-0.00431	1.57960
0.09770	0.45726
-0.97337	-0.46102
-0.31033	-2.32308
0.50573	0.43176
0.65874	0.55929
0.58223	0.86539
0.27621	0.73785
0.60773	0.94191
-0.20832	-0.84363
-0.02981	-0.10391
0.22521	0.30422
-0.13181	0.17668
-0.00431	0.76336
0.70974	0.50828
0.22521	1.12046
0.50573	-2.11902
0.37822	-3.59847
-0.33583	-1.37929
-0.71835	2.01323
-0.33583	1.88570
0.27621	0.66132
0.63323	1.86019
0.63323	1.22250
0.27621	-1.20074
0.30171	0.15117
0.17421	0.25320
0.27621	0.30422
0.12320	-0.35899
0.17421	0.30422
0.12320	0.83988
-0.13181	1.17148
-0.74385	-1.68539
-0.00431	-2.60367
0.58223	-1.83844
-0.51434	1.35003
-0.46334	1.78367
0.93925	1.47757
0.40372	0.32972
-0.20832	0.02363
0.53123	-0.02739
0.88825	0.63582
0.30171	-0.58856
-0.25932	-0.10391
0.45472	0.66132
0.27621	0.81437
0.04670	0.10015
-0.59084	0.04914
0.37822	-0.71609
0.55673	0.43176
0.30171	0.15117
-0.89686	-0.10391
-1.17738	0.96742
0.19971	-0.81812
0.78624	-1.09871
0.99026	-2.11902
0.58223	1.65613
0.02119	2.08976
0.25071	1.78367
0.22521	-0.30797
0.22521	0.20219
-0.23382	0.38074
-0.25932	1.01843
0.40372	1.19699
-0.08081	-2.04250
-0.18282	-1.71090
0.60773	-0.38449
0.76074	-0.05289
-0.28482	0.55929
0.45472	1.55410
-0.02981	0.22769
0.65874	0.10015
0.12320	0.40625
-0.64185	0.25320
-0.59084	0.02363
0.22521	-0.00188
0.04670	0.10015
0.48022	0.10015
0.70974	-0.00188
0.78624	0.45726
0.60773	0.22769
0.25071	0.30422
-0.28482	0.76336
-0.89686	-0.18043
0.09770	0.40625
-0.31033	-0.20594
0.12320	-1.45582
0.40372	-0.51203
0.35272	0.83988
0.60773	0.20219
0.40372	-0.15492
-0.02981	1.17148
-0.99887	0.35523
0.22521	0.35523
0.63323	0.86539
0.63323	0.48277
0.27621	0.96742
0.27621	0.45726
0.14870	-0.81812
0.09770	-0.07840
0.58223	-0.18043
0.27621	-0.56305
-0.53984	0.63582
-0.94787	-0.05289
-0.99887	1.60511
0.37822	-4.05761
0.68424	-2.01699
-0.02981	-0.18043
0.96476	2.49788
0.42922	2.80397
0.96476	2.62542
0.22521	0.38074
0.88825	0.53379
-0.02981	-0.18043
-1.20288	0.20219
-0.28482	-0.94566
0.73524	-0.00188
0.37822	-0.05289
0.04670	0.20219
-0.36133	0.50828
0.07220	-0.86914
0.25071	-0.86914
0.81175	-1.14973
0.37822	0.53379
-0.53984	0.89089
0.04670	1.19699
0.07220	0.76336
0.70974	2.34484
0.78624	-2.14453
0.14870	-0.51203
-0.53984	-0.92016
-1.76392	0.96742
0.37822	0.30422
1.09226	1.57960
1.09226	0.50828
1.11776	0.94191
0.83725	-0.02739
0.53123	0.32972
-0.00431	0.43176
-1.81492	-0.84363
-0.51434	-0.28246
-0.25932	0.15117
-0.38683	0.38074
0.73524	-0.76711
0.99026	0.50828
0.70974	0.32972
0.37822	0.40625
0.19971	0.12566
-0.05531	-0.07840
-0.13181	0.25320
0.07220	0.35523
-0.00431	0.63582
0.02119	0.73785
0.07220	-0.71609
-0.10631	-1.63437
0.09770	-0.35899
0.09770	0.35523
0.17421	0.81437
0.50573	0.45726
0.96476	0.55929
0.30171	-0.35899
-1.35589	1.14597
0.14870	0.99292
-0.53984	0.30422
0.14870	-0.12942
1.34728	0.02363
0.83725	0.30422
0.12320	-0.33348
0.45472	-0.00188
0.76074	-0.66508
0.02119	-0.05289
-0.33583	-0.69059
-0.02981	0.25320
0.17421	1.37554
-0.38683	0.58480
-1.53441	-0.51203
-0.66735	-1.63437
0.50573	0.76336
0.55673	-0.05289
0.78624	0.94191
0.50573	1.12046
0.37822	2.39585
0.19971	0.81437
0.02119	0.12566
0.27621	-1.81293
0.12320	-0.97117
-0.15732	-0.86914
0.17421	0.53379
0.81175	1.40105
-0.48884	0.78886
-1.33039	0.58480
0.60773	0.15117
0.73524	0.12566
0.48022	-0.05289
0.37822	-0.63957
0.17421	-0.74160
0.68424	-0.07840
0.12320	0.45726
-0.79486	-0.07840
-0.13181	-1.99148
0.32721	1.19699
0.70974	0.50828
0.42922	0.10015
-1.12638	0.04914
0.09770	0.81437
0.35272	1.37554
0.53123	0.10015
0.30171	-0.05289
0.14870	-0.51203
0.19971	0.07465
-0.15732	1.32453
-0.13181	0.40625
-0.05531	0.25320
0.14870	-0.20594
0.50573	0.02363
0.83725	0.81437
0.32721	-1.14973
-0.31033	0.38074
-0.18282	-0.86914
0.35272	-0.74160
-0.89686	-0.51203
-0.15732	0.12566
0.88825	0.07465
1.01576	2.95702
0.91375	-0.46102
0.35272	-0.48652
-0.51434	0.58480
-0.33583	1.09496
0.17421	0.53379
0.04670	2.03874
0.40372	0.48277
0.35272	-3.54745
0.22521	-0.61406
-0.20832	0.55929
-0.31033	0.45726
-0.02981	0.22769
0.32721	0.89089
0.14870	0.76336
-0.53984	-0.63957
0.81175	-2.22105
-0.08081	-0.53754
-1.40690	1.12046
-0.99887	1.17148
0.86275	0.22769
1.62780	0.68683
1.75531	0.07465
1.16877	-0.05289
0.76074	-0.20594
-0.74385	0.78886
-0.89686	0.63582
0.19971	1.19699
0.22521	-2.24656
-0.18282	-0.35899
-0.61635	-0.07840
-0.18282	0.94191
0.58223	0.53379
0.68424	1.12046
0.35272	0.04914
0.19971	-0.41000
-0.08081	-0.58856
-0.84586	1.22250
-0.38683	0.40625
0.35272	-1.53234
0.48022	0.20219
0.40372	1.68163
0.55673	0.12566
0.37822	-1.30277
0.37822	-0.48652
0.32721	1.12046
0.17421	0.25320
0.17421	-0.56305
-0.33583	1.86019
-0.84586	1.14597
-0.18282	-2.83324
-0.15732	-0.97117
0.76074	-0.25695
0.68424	0.66132
0.63323	1.04394
0.45472	1.68163
0.09770	1.14597
0.19971	0.45726
0.09770	-0.23145
0.04670	-1.12422
-0.94787	0.35523
-1.20288	-0.18043
0.22521	0.43176
1.09226	0.40625
0.76074	0.35523
0.45472	-0.18043
0.50573	0.30422
0.37822	-0.05289
0.30171	0.10015
0.35272	-0.76711
0.55673	-0.25695
-0.43783	2.08976
-2.32496	-0.02739
-0.56534	0.61031
0.32721	-2.09351
0.04670	-0.25695
0.88825	-0.35899
0.68424	1.04394
