0.09770	0.20219
0.12320	0.15117
0.22521	0.10015
0.12320	0.15117
0.07220	0.27871
0.12320	0.20219
0.22521	-0.00188
0.17421	0.10015
0.09770	0.17668
0.12320	0.12566
0.19971	0.15117
0.19971	0.15117
0.22521	0.12566
0.12320	0.07465
0.07220	0.17668
0.14870	0.20219
0.14870	0.15117
0.22521	0.12566
0.14870	0.15117
0.09770	0.20219
0.14870	0.17668
0.22521	0.04914
0.17421	0.15117
0.07220	0.15117
0.14870	0.07465
0.19971	0.15117
0.14870	0.17668
0.12320	0.20219
0.14870	0.22769
0.14870	0.15117
0.19971	0.10015
0.14870	0.17668
0.07220	0.25320
0.22521	0.15117
0.14870	0.02363
0.07220	0.25320
0.14870	0.35523
0.14870	-0.05289
0.27621	-0.07840
0.09770	0.10015
0.17421	0.04914
0.17421	0.15117
0.14870	0.15117
0.07220	0.15117
0.19971	0.17668
0.17421	0.25320
0.09770	0.15117
0.22521	0.15117
0.17421	0.27871
0.07220	0.15117
0.17421	0.07465
0.22521	0.25320
0.14870	0.15117
0.14870	0.02363
0.14870	0.07465
0.07220	0.15117
0.09770	0.07465
0.17421	0.22769
0.09770	0.15117
0.22521	0.12566
0.12320	0.25320
0.12320	0.15117
0.22521	0.15117
0.09770	0.20219
0.14870	0.10015
0.12320	0.17668
0.07220	0.12566
0.22521	0.07465
0.14870	0.20219
0.14870	0.07465
0.14870	0.20219
0.07220	0.15117
0.22521	0.12566
0.12320	0.25320
0.09770	0.04914
0.22521	0.12566
0.09770	0.17668
0.25071	0.15117
0.14870	0.22769
0.14870	0.10015
0.17421	0.22769
0.14870	0.10015
0.22521	0.15117
0.07220	0.10015
0.22521	0.15117
0.12320	0.22769
0.14870	0.04914
0.12320	0.15117
0.07220	0.15117
0.14870	0.17668
0.17421	0.20219
0.14870	0.10015
0.12320	0.25320
0.07220	0.17668
0.14870	0.12566
0.12320	0.17668
0.17421	0.15117
0.22521	0.12566
0.09770	0.25320
0.14870	0.20219
0.22521	0.45726
0.17421	0.27871
0.09770	-0.05289
0.12320	0.04914
0.17421	0.10015
0.07220	0.10015
0.12320	0.04914
0.22521	0.17668
0.09770	0.15117
0.12320	0.17668
0.12320	0.25320
0.09770	0.20219
0.14870	0.15117
0.22521	0.15117
0.07220	0.12566
0.14870	0.15117
0.19971	0.15117
0.07220	0.20219
0.14870	0.15117
0.25071	0.10015
0.14870	0.17668
0.12320	0.22769
0.12320	0.10015
0.19971	-0.00188
0.14870	0.04914
0.07220	0.15117
0.14870	0.22769
0.22521	0.15117
0.14870	0.25320
0.09770	0.20219
0.14870	0.02363
0.17421	0.12566
0.12320	0.17668
0.12320	0.12566
0.19971	0.10015
0.12320	0.15117
0.09770	0.22769
0.22521	0.07465
0.12320	0.17668
0.09770	0.22769
0.14870	0.17668
0.22521	0.12566
0.17421	0.12566
0.14870	0.25320
0.07220	0.30422
0.14870	0.07465
0.22521	0.04914
0.12320	0.15117
0.07220	0.17668
0.14870	0.15117
0.22521	0.12566
0.14870	0.10015
0.12320	0.15117
0.09770	0.10015
0.14870	0.12566
0.22521	0.10015
0.14870	0.15117
0.09770	0.22769
0.12320	0.17668
0.19971	0.12566
0.19971	0.15117
0.14870	0.22769
0.09770	0.20219
0.12320	0.15117
0.19971	0.07465
0.19971	0.15117
0.09770	0.22769
0.07220	0.12566
0.12320	0.04914
0.22521	0.15117
0.14870	0.20219
0.09770	0.15117
0.14870	0.10015
0.14870	0.15117
0.09770	0.15117
0.17421	0.02363
0.17421	0.22769
0.09770	0.12566
0.17421	0.12566
0.22521	0.22769
0.07220	0.15117
0.14870	0.15117
0.14870	0.25320
0.17421	0.20219
0.12320	0.15117
0.22521	0.07465
0.12320	0.12566
0.04670	0.17668
0.14870	0.12566
0.19971	0.15117
0.14870	0.17668
0.07220	0.20219
0.22521	0.10015
0.12320	0.12566
0.09770	0.22769
0.22521	0.12566
0.14870	0.12566
0.14870	0.02363
0.22521	0.15117
0.07220	0.15117
0.14870	0.15117
0.12320	0.17668
0.12320	0.17668
0.22521	0.32972
0.09770	0.15117
0.14870	-0.00188
0.14870	0.04914
0.07220	0.10015
0.22521	0.12566
0.12320	0.22769
0.12320	0.10015
0.14870	0.22769
0.09770	0.10015
0.19971	0.25320
0.04670	0.10015
0.22521	0.12566
0.09770	0.17668
0.17421	0.07465
0.14870	0.15117
0.09770	0.15117
0.22521	0.15117
0.12320	0.17668
0.09770	0.12566
0.12320	0.20219
0.22521	0.20219
0.07220	0.04914
0.14870	0.12566
0.17421	0.17668
0.07220	0.15117
0.14870	0.15117
0.19971	0.10015
0.07220	0.17668
0.14870	0.20219
0.14870	0.15117
0.22521	0.10015
0.14870	0.12566
0.07220	0.12566
0.07220	0.20219
0.22521	0.17668
0.22521	0.10015
0.14870	0.17668
0.09770	0.20219
0.14870	0.15117
0.22521	0.04914
0.12320	0.20219
0.17421	0.17668
0.22521	-0.00188
0.22521	0.04914
0.14870	0.12566
0.04670	0.15117
0.19971	0.25320
0.19971	0.15117
0.19971	0.02363
0.07220	0.15117
0.12320	0.20219
0.22521	0.10015
0.19971	0.04914
0.09770	0.20219
0.12320	0.40625
0.14870	0.04914
0.19971	0.04914
0.12320	0.04914
0.04670	0.15117
0.09770	0.17668
0.12320	0.12566
0.12320	0.22769
0.17421	0.17668
0.17421	0.10015
0.17421	0.22769
0.07220	0.17668
0.22521	0.15117
0.09770	0.22769
0.14870	0.12566
0.22521	0.20219
0.07220	0.15117
0.22521	0.02363
0.14870	0.17668
0.17421	0.07465
0.17421	0.10015
0.14870	0.15117
0.12320	0.15117
0.14870	0.27871
0.14870	0.10015
0.22521	0.22769
0.09770	0.10015
0.25071	0.15117
0.07220	0.15117
0.14870	0.04914
0.14870	0.22769
0.09770	0.12566
0.22521	0.15117
0.09770	0.22769
0.14870	0.15117
0.22521	0.17668
0.07220	0.22769
0.12320	0.15117
0.22521	0.17668
0.09770	0.17668
0.12320	0.10015
0.12320	0.04914
0.09770	0.15117
0.14870	0.15117
0.19971	0.07465
0.07220	0.20219
0.12320	0.15117
0.19971	0.12566
0.12320	0.20219
0.12320	0.17668
0.22521	0.17668
0.09770	0.22769
0.12320	0.10015
0.22521	0.15117
0.09770	0.22769
0.14870	0.15117
0.22521	0.15117
0.09770	0.17668
0.12320	0.04914
0.25071	0.17668
0.07220	0.10015
0.22521	0.15117
0.14870	0.12566
0.14870	0.10015
0.17421	0.15117
0.12320	0.22769
0.14870	0.27871
0.14870	0.15117
0.12320	-0.00188
0.22521	0.10015
0.12320	0.12566
0.07220	0.15117
0.12320	0.25320
0.17421	0.15117
0.22521	0.25320
0.07220	0.15117
0.22521	0.15117
0.14870	0.20219
0.12320	0.10015
0.19971	0.22769
0.07220	0.17668
0.19971	0.15117
0.14870	0.22769
0.14870	0.04914
0.19971	0.22769
0.07220	0.04914
0.25071	0.12566
0.09770	0.17668
0.17421	0.07465
0.07220	0.10015
0.14870	0.15117
0.19971	0.25320
0.09770	0.10015
0.22521	0.15117
0.17421	0.22769
0.04670	0.10015
0.17421	0.17668
0.14870	0.22769
0.07220	0.15117
0.17421	0.10015
0.09770	0.25320
0.14870	0.12566
0.19971	0.17668
0.09770	0.22769
0.17421	0.07465
0.12320	0.15117
0.09770	0.15117
0.17421	0.04914
0.12320	0.17668
0.07220	0.15117
0.14870	0.10015
0.17421	0.20219
0.04670	0.15117
0.19971	0.07465
0.12320	0.20219
0.17421	0.15117
0.19971	0.10015
0.14870	0.15117
0.09770	0.17668
0.17421	0.15117
0.25071	0.12566
0.14870	0.15117
0.07220	0.17668
0.14870	0.17668
0.22521	0.30422
0.14870	0.25320
0.09770	0.10015
0.14870	0.07465
0.19971	0.15117
0.17421	0.17668
0.14870	0.15117
0.09770	0.10015
0.19971	-0.00188
0.17421	0.12566
0.07220	0.20219
0.14870	0.12566
0.14870	0.15117
0.04670	0.20219
0.19971	0.22769
0.12320	0.22769
0.17421	0.22769
0.22521	0.10015
0.12320	0.15117
0.07220	0.15117
0.19971	0.07465
0.22521	0.20219
0.07220	0.02363
0.14870	0.12566
0.12320	0.12566
0.12320	0.07465
0.22521	0.15117
0.07220	0.07465
0.25071	0.22769
0.09770	0.10015
0.22521	0.20219
0.07220	0.15117
0.22521	0.15117
0.14870	0.20219
0.14870	0.15117
0.22521	0.17668
0.09770	0.10015
0.22521	0.22769
0.07220	0.17668
0.12320	0.22769
0.17421	-0.00188
0.17421	0.10015
0.14870	0.12566
0.14870	0.17668
0.17421	0.10015
0.09770	0.12566
0.22521	0.17668
0.09770	0.12566
0.17421	0.30422
0.12320	0.17668
0.14870	0.10015
0.12320	0.12566
0.14870	0.12566
0.22521	0.20219
0.07220	0.10015
0.14870	0.10015
0.14870	0.10015
0.17421	0.22769
0.09770	0.40625
0.12320	0.10015
0.17421	0.07465
0.07220	0.10015
0.22521	0.15117
0.09770	0.15117
0.22521	0.10015
0.07220	0.07465
0.22521	0.22769
0.07220	0.10015
0.19971	0.22769
0.09770	0.12566
0.14870	0.25320
0.14870	0.07465
0.14870	0.15117
0.17421	0.10015
0.12320	0.15117
0.19971	0.20219
0.07220	0.02363
0.17421	0.25320
0.12320	0.15117
0.17421	0.15117
0.14870	0.15117
0.09770	0.15117
0.17421	0.07465
0.14870	0.25320
0.09770	0.22769
0.14870	0.10015
0.22521	0.15117
0.09770	0.15117
0.12320	0.15117
0.22521	0.10015
0.17421	0.10015
0.04670	0.22769
0.14870	0.17668
0.17421	0.04914
0.17421	0.12566
0.12320	0.10015
0.12320	0.22769
0.22521	0.20219
0.14870	0.07465
0.12320	0.17668
0.07220	0.22769
0.14870	0.22769
0.22521	0.15117
0.17421	0.04914
0.09770	0.07465
0.12320	0.15117
0.14870	0.15117
0.22521	0.10015
0.02119	0.17668
0.17421	0.15117
0.22521	0.12566
0.14870	0.32972
0.07220	0.20219
0.12320	0.02363
0.22521	-0.05289
0.09770	0.12566
0.09770	0.00000
0.19971	0.00000
0.12320	0.25320
0.12320	0.12566
0.12320	0.20219
0.22521	0.20219
0.12320	0.22769
0.17421	0.17668
0.19971	0.25320
0.14870	0.15117
0.14870	0.12566
0.22521	0.22769
0.07220	0.12566
0.17421	0.07465
0.22521	0.20219
0.07220	0.07465
0.17421	0.15117
0.19971	0.20219
0.12320	0.20219
0.09770	0.04914
0.14870	0.10015
0.19971	0.15117
0.09770	0.15117
0.12320	0.17668
0.22521	0.25320
0.07220	0.15117
0.14870	0.15117
0.14870	0.12566
0.09770	0.07465
0.14870	0.25320
0.22521	0.12566
0.14870	0.04914
0.17421	0.15117
0.22521	0.15117
0.14870	0.12566
0.14870	0.15117
0.19971	0.22769
0.12320	0.15117
0.07220	0.07465
0.12320	0.15117
0.22521	0.15117
0.19971	0.20219
0.12320	0.12566
0.09770	0.10015
0.14870	0.15117
0.22521	0.12566
0.12320	0.04914
0.12320	0.12566
0.22521	0.20219
0.14870	0.12566
0.09770	0.17668
0.14870	0.25320
0.14870	0.12566
0.07220	0.12566
0.19971	0.32972
0.14870	0.10015
0.14870	0.17668
0.19971	0.17668
0.09770	0.12566
0.14870	0.17668
0.14870	0.04914
0.09770	0.15117
0.22521	0.15117
0.14870	0.12566
0.14870	0.17668
0.19971	0.15117
0.09770	0.15117
0.22521	0.20219
0.17421	0.04914
0.17421	0.22769
0.14870	0.10015
0.07220	0.15117
0.22521	0.17668
0.07220	0.15117
0.22521	0.22769
0.14870	0.15117
0.14870	0.12566
0.22521	0.12566
0.09770	0.10015
0.17421	0.20219
0.12320	0.07465
0.14870	0.15117
0.14870	0.12566
0.07220	0.12566
0.19971	0.15117
0.17421	0.07465
0.19971	0.22769
0.17421	0.10015
0.14870	0.22769
0.22521	0.12566
0.07220	0.12566
0.25071	0.17668
0.09770	0.12566
0.14870	0.15117
0.12320	0.17668
0.14870	0.17668
0.19971	0.15117
0.07220	0.15117
0.12320	0.22769
0.22521	0.12566
0.07220	0.15117
0.14870	0.20219
0.14870	0.15117
0.07220	0.17668
0.22521	0.30422
0.12320	0.15117
0.07220	0.10015
0.25071	0.12566
0.07220	0.04914
0.12320	0.12566
0.14870	0.10015
0.19971	0.17668
0.22521	0.35523
0.09770	0.04914
0.17421	0.07465
0.17421	0.10015
0.12320	0.17668
0.22521	0.25320
0.09770	0.10015
0.17421	0.25320
0.12320	0.10015
0.09770	0.17668
0.19971	0.12566
0.14870	0.10015
0.14870	0.25320
0.22521	0.15117
0.12320	0.10015
0.19971	0.25320
0.14870	0.10015
0.12320	0.04914
0.22521	0.04914
0.14870	0.10015
0.12320	0.22769
0.12320	0.12566
0.14870	0.22769
0.17421	0.07465
0.14870	0.22769
0.14870	0.12566
0.22521	0.20219
0.14870	0.10015
0.14870	0.22769
0.12320	0.12566
0.19971	0.17668
0.07220	0.15117
0.22521	0.15117
0.17421	0.10015
0.12320	0.20219
0.12320	0.22769
0.14870	0.22769
0.14870	0.02363
0.12320	-0.25695
0.22521	-0.35899
0.12320	0.32972
0.19971	0.40625
0.07220	0.58480
0.17421	0.68683
0.19971	0.43176
0.19971	-0.02739
0.22521	0.15117
0.22521	0.12566
0.12320	-0.23145
0.07220	-1.07320
-0.00431	-0.74160
0.12320	0.61031
0.09770	1.37554
0.27621	1.91120
0.25071	-0.79262
0.19971	-0.30797
0.32721	-1.04770
0.22521	0.48277
-0.00431	0.30422
0.04670	0.96742
0.12320	-0.18043
0.12320	-0.38449
0.14870	0.35523
-0.02981	0.55929
0.19971	0.83988
0.42922	2.11527
0.50573	1.73265
0.30171	-1.55785
-0.28482	-3.57296
0.30171	-1.60887
0.53123	2.14077
0.45472	1.63062
0.04670	-0.30797
-0.64185	-1.48133
-0.02981	1.80917
-0.43783	1.37554
0.12320	0.12566
0.02119	-0.74160
-0.13181	-1.35379
0.53123	-1.88945
1.04126	1.88570
0.42922	2.14077
0.68424	-1.25176
0.42922	0.17668
-0.38683	2.26831
0.02119	1.57960
0.17421	0.81437
-0.92237	3.64573
-0.89686	1.50308
0.07220	-7.65420
0.96476	-5.38401
0.12320	-0.74160
0.88825	-2.78222
0.50573	4.53850
-0.33583	2.11527
-0.31033	1.09496
-1.84042	3.54370
0.27621	3.51819
1.78081	2.06425
2.11233	0.07465
1.75531	-0.74160
0.27621	-4.54226
-0.36133	-3.01179
-1.40690	1.50308
-1.73842	1.52859
-0.36133	-0.25695
0.93925	0.58480
0.70974	0.53379
-0.64185	-0.46102
-0.38683	-2.85874
-0.74385	0.48277
-1.81492	1.19699
1.65330	-0.33348
3.33641	1.01843
1.24527	4.56401
-0.02981	-1.32828
-1.10088	-2.90976
-1.73842	-0.86914
0.27621	0.89089
-0.92237	1.96222
0.60773	-3.72601
2.23984	2.26831
1.90832	2.95702
1.16877	-0.41000
0.76074	3.21210
0.14870	-1.88945
-0.48884	-0.46102
-1.04987	0.66132
-0.87136	1.40105
-0.61635	-2.70570
-0.13181	-0.02739
-0.18282	-0.35899
-0.28482	0.83988
-0.08081	-1.58336
-0.23382	0.04914
1.52579	0.45726
1.29628	-0.02739
-0.05531	-0.74160
-1.91693	3.00804
-0.92237	-1.53234
0.55673	-2.50164
1.47479	0.45726
1.57679	2.49788
1.32178	1.57960
1.06676	2.62542
0.53123	1.60511
0.04670	-0.00188
-0.41233	-2.22105
-0.20832	1.88570
-0.48884	-3.82804
-0.08081	-0.10391
-0.08081	2.19179
-0.79486	-1.07320
-1.89143	-1.40480
-0.94787	0.22769
0.17421	0.73785
0.70974	1.50308
1.14327	1.22250
1.14327	0.20219
1.39828	1.06945
1.34728	0.58480
-0.25932	-0.12942
-0.74385	-2.22105
0.02119	1.14597
0.45472	-0.35899
0.27621	-1.78742
0.40372	-2.09351
-0.10631	0.20219
-0.36133	2.34484
-0.00431	2.24281
0.19971	2.08976
0.53123	0.63582
0.35272	0.10015
-0.56534	0.04914
-1.15188	0.86539
-0.33583	-2.37410
0.48022	0.07465
0.68424	0.38074
0.73524	-0.66508
0.60773	-0.15492
0.53123	0.55929
0.30171	0.04914
-0.05531	0.96742
-0.20832	0.20219
-0.92237	0.83988
0.42922	0.38074
0.53123	0.43176
0.48022	-1.50683
0.45472	-4.13413
0.50573	-0.07840
0.42922	2.70194
-0.74385	1.88570
-1.07538	0.58480
0.07220	1.29902
0.12320	1.96222
0.73524	-1.65988
0.60773	0.32972
0.63323	0.45726
0.48022	-0.89465
0.65874	-2.09351
1.04126	1.86019
-0.02981	-0.20594
-1.10088	-0.18043
-2.12094	1.22250
0.48022	0.94191
-0.10631	-0.28246
0.02119	1.01843
1.50029	-1.40480
1.44929	-0.61406
0.86275	-0.23145
-0.56534	0.20219
-1.40690	-0.30797
0.09770	1.68163
1.06676	0.66132
0.58223	0.50828
0.53123	0.63582
0.37822	-0.12942
0.12320	-1.55785
-0.05531	0.32972
-0.08081	0.07465
-0.20832	-1.37929
-0.25932	0.96742
-0.10631	0.48277
-0.08081	1.04394
-0.00431	-0.66508
-0.10631	1.19699
0.27621	0.99292
0.63323	-0.71609
0.70974	-3.70050
0.37822	1.27351
0.27621	1.70714
-0.38683	3.74776
-0.43783	-2.06800
0.09770	-3.08831
0.48022	-0.30797
0.65874	2.54890
1.04126	1.50308
-0.10631	0.71234
-0.33583	1.06945
-0.38683	-0.66508
0.14870	0.38074
0.32721	-0.25695
0.53123	-1.48133
0.96476	-1.45582
-0.08081	0.76336
-0.92237	0.02363
-0.46334	0.63582
0.40372	0.96742
0.32721	0.17668
-0.28482	0.96742
-0.08081	-0.18043
0.53123	-0.61406
0.48022	0.22769
0.19971	-0.58856
-0.13181	1.06945
0.32721	1.93671
0.76074	-0.10391
0.32721	-3.67499
-0.74385	-0.53754
-0.43783	2.06425
0.30171	-0.53754
0.40372	1.12046
0.58223	0.45726
0.30171	0.83988
0.27621	1.06945
0.45472	-0.53754
-0.08081	0.17668
-0.10631	-0.30797
0.22521	-0.20594
0.09770	-1.32828
0.35272	0.94191
-0.08081	1.09496
0.02119	1.19699
-0.13181	-1.53234
-0.76936	-0.94566
0.37822	0.10015
0.25071	0.61031
0.76074	1.01843
0.55673	-0.25695
0.55673	0.20219
0.30171	-0.33348
0.09770	0.55929
-0.15732	0.10015
0.19971	0.30422
-0.08081	0.17668
-0.10631	1.32453
0.25071	1.04394
0.14870	-1.32828
0.30171	-1.02219
-0.05531	1.17148
0.02119	1.14597
0.22521	-0.20594
0.25071	-3.52195
0.07220	1.06945
0.81175	1.24800
0.50573	1.78367
-0.59084	0.02363
-0.71835	0.15117
0.14870	1.19699
0.81175	-0.10391
0.55673	-2.78222
-0.05531	-0.05289
-0.08081	1.47757
0.25071	0.02363
0.40372	-0.23145
0.22521	0.38074
-0.71835	0.96742
-0.28482	0.94191
0.35272	-0.35899
0.81175	-0.30797
0.32721	-0.18043
-0.69285	0.66132
0.58223	0.15117
0.65874	-0.25695
0.48022	0.17668
0.40372	-0.33348
-0.43783	1.04394
-0.46334	-2.09351
-0.46334	-1.02219
0.48022	1.06945
0.48022	1.96222
0.50573	0.58480
0.32721	0.50828
0.35272	0.86539
0.04670	0.30422
-0.36133	-0.41000
-0.20832	0.17668
-0.08081	-0.30797
-0.53984	-0.84363
0.32721	0.27871
0.17421	0.04914
0.68424	-0.25695
0.86275	-0.41000
0.53123	1.06945
0.17421	0.45726
-0.13181	-0.99668
0.12320	1.22250
0.40372	0.71234
0.25071	0.10015
0.07220	0.12566
-0.56534	0.63582
-0.28482	-0.02739
0.42922	0.15117
0.50573	0.73785
0.30171	1.86019
0.42922	-0.30797
-0.08081	-2.75671
0.50573	-1.99148
-0.46334	1.12046
-0.71835	1.60511
-0.20832	-0.58856
-0.59084	0.96742
0.76074	-0.86914
1.06676	1.60511
0.68424	1.09496
-0.13181	0.17668
0.32721	1.55410
0.99026	-0.43551
-0.13181	-1.91496
-0.23382	-0.15492
0.12320	-0.30797
0.78624	0.61031
0.35272	0.43176
-1.12638	0.25320
-0.51434	0.66132
0.50573	0.53379
0.76074	0.04914
0.73524	0.35523
0.09770	0.61031
-0.10631	-0.07840
-0.48884	-1.22625
0.07220	1.27351
0.50573	-0.18043
0.42922	-2.32308
0.09770	-0.86914
0.25071	-0.46102
-0.08081	1.57960
0.14870	2.26831
-0.13181	1.83468
0.02119	0.15117
0.55673	-0.46102
0.86275	-0.97117
-0.05531	1.27351
-1.25389	0.45726
-0.02981	-0.46102
0.48022	-0.30797
0.55673	-0.05289
0.58223	0.58480
0.04670	-0.33348
-0.51434	-1.12422
0.19971	-1.88945
0.96476	0.15117
0.17421	1.12046
0.35272	1.57960
0.19971	1.29902
0.25071	-0.97117
0.40372	0.32972
0.32721	0.25320
-0.18282	-0.00188
-0.84586	0.27871
-0.79486	1.37554
0.07220	0.96742
0.42922	-1.07320
0.83725	0.27871
0.93925	0.58480
0.70974	-2.32308
-0.36133	-0.05289
-0.20832	0.32972
0.53123	1.60511
0.50573	1.27351
-0.76936	-0.56305
-0.76936	-0.07840
0.42922	1.37554
0.83725	-1.02219
0.76074	-1.32828
0.48022	0.07465
0.27621	0.86539
0.25071	0.99292
0.22521	0.81437
0.27621	0.78886
-1.10088	-0.56305
-0.69285	-0.76711
0.58223	-0.15492
0.63323	0.45726
-0.00431	0.25320
-0.00431	-0.66508
0.53123	0.27871
0.48022	0.78886
-0.15732	-0.48652
-1.17738	0.40625
-0.41233	0.07465
0.76074	-0.18043
0.65874	1.55410
1.04126	0.83988
0.78624	0.50828
0.14870	-0.97117
0.19971	-1.07320
-0.08081	0.43176
-0.25932	0.38074
-0.28482	0.32972
-0.20832	0.22769
-0.08081	-0.00188
-0.13181	0.25320
0.02119	0.35523
0.17421	-0.23145
0.35272	-0.76711
0.32721	0.76336
0.53123	-0.10391
0.48022	-0.02739
0.45472	-0.61406
0.09770	-0.69059
-0.38683	1.55410
-0.48884	1.60511
0.19971	-0.25695
0.48022	0.48277
0.48022	1.01843
0.14870	-0.35899
-0.38683	0.20219
0.14870	0.15117
0.53123	-0.20594
0.68424	-0.18043
0.42922	-0.05289
0.17421	-0.05289
-0.08081	0.04914
-0.10631	0.10015
-0.23382	-0.30797
-0.46334	-0.30797
-0.20832	0.43176
0.17421	0.66132
0.32721	0.71234
0.48022	0.35523
0.63323	-0.66508
0.48022	-2.01699
0.07220	0.94191
-0.61635	0.66132
-0.15732	1.27351
0.50573	0.66132
0.48022	-0.07840
0.22521	0.40625
0.45472	1.24800
0.22521	-0.97117
0.22521	0.58480
0.45472	-0.35899
0.07220	-1.04770
-0.51434	0.50828
-0.28482	-0.07840
-0.15732	0.40625
-1.15188	0.38074
0.35272	0.71234
0.88825	0.02363
1.14327	0.02363
0.96476	-0.00188
0.45472	0.25320
0.07220	-0.12942
0.17421	0.58480
0.02119	-2.32308
0.14870	-0.28246
-0.02981	0.96742
-0.05531	1.01843
0.02119	0.91640
-0.10631	0.86539
0.09770	0.94191
0.12320	-0.28246
0.27621	-0.48652
-0.43783	-0.66508
-0.79486	0.10015
-0.13181	-0.05289
0.50573	0.83988
0.70974	0.25320
1.32178	0.02363
0.65874	0.04914
0.14870	-0.79262
0.53123	-0.58856
0.17421	0.83988
-0.56534	0.20219
-0.20832	-0.10391
0.32721	0.91640
0.37822	0.76336
0.19971	0.66132
-0.23382	-0.84363
0.04670	0.43176
0.17421	1.17148
0.25071	-0.79262
0.42922	-1.12422
-1.10088	-0.25695
-0.46334	0.63582
0.37822	1.04394
0.81175	0.66132
0.83725	0.30422
0.73524	0.02363
0.63323	-0.25695
0.55673	0.55929
-0.51434	-0.15492
-0.74385	-0.53754
0.02119	-0.58856
-0.46334	0.15117
-0.33583	0.61031
0.40372	0.32972
0.70974	0.45726
0.60773	0.96742
0.22521	0.58480
0.37822	-1.25176
-0.20832	-1.22625
-0.18282	0.48277
-0.05531	0.53379
0.12320	0.53379
0.63323	0.81437
0.37822	0.55929
-0.36133	-0.58856
-0.38683	-1.20074
0.07220	0.78886
0.63323	0.48277
0.02119	0.86539
0.30171	-0.00188
0.30171	0.71234
0.50573	0.15117
-0.00431	-1.20074
-0.56534	0.30422
-0.05531	0.10015
0.30171	-0.51203
0.68424	0.12566
0.63323	0.61031
0.17421	1.37554
-0.02981	0.27871
0.32721	-1.83844
0.78624	-1.91496
-1.38139	0.63582
-2.32496	1.04394
0.42922	1.24800
1.01576	1.14597
1.06676	0.78886
1.14327	-0.12942
0.88825	0.32972
0.53123	0.02363
-0.18282	-0.38449
-0.38683	0.04914
-0.79486	0.20219
0.07220	-0.18043
0.22521	-0.25695
0.27621	-0.38449
0.02119	0.35523
0.35272	0.27871
0.09770	0.02363
0.12320	-0.63957
0.55673	0.07465
0.09770	1.78367
0.04670	0.48277
0.14870	-0.00188
0.07220	-0.51203
0.19971	0.83988
0.53123	0.15117
0.12320	-0.28246
0.37822	-0.33348
-0.25932	-0.25695
-1.38139	1.45206
0.04670	0.50828
0.42922	0.02363
0.40372	-1.07320
0.93925	-0.07840
0.76074	-0.15492
0.73524	1.29902
0.50573	-0.48652
-0.05531	0.32972
-0.15732	0.43176
-0.08081	0.71234
-0.08081	1.06945
-0.13181	-1.22625
-0.18282	-0.66508
-0.08081	0.61031
0.35272	0.96742
0.35272	0.07465
0.19971	-1.20074
-0.64185	0.50828
-0.25932	0.76336
0.45472	0.22769
0.83725	0.63582
0.78624	-0.30797
0.68424	-0.46102
-0.48884	-0.07840
0.12320	0.20219
-0.48884	0.15117
0.42922	-0.02739
0.02119	0.68683
0.32721	0.07465
0.48022	0.83988
0.07220	0.58480
0.53123	-0.07840
0.42922	-1.25176
0.14870	0.45726
-0.10631	1.37554
0.02119	0.86539
-0.10631	0.43176
0.02119	0.02363
-0.28482	-0.18043
-0.28482	-0.48652
0.22521	-0.25695
0.32721	0.50828
-0.46334	-1.07320
-0.13181	0.25320
0.32721	0.66132
0.19971	0.43176
0.96476	-0.33348
0.45472	0.45726
0.60773	0.45726
0.22521	-0.23145
0.12320	0.38074
0.04670	0.48277
0.07220	0.50828
0.14870	0.10015
0.27621	-0.61406
0.12320	-0.23145
-0.08081	-0.07840
-0.82036	0.83988
0.04670	-0.33348
0.45472	0.55929
0.42922	0.99292
-1.10088	0.10015
0.17421	-0.10391
0.81175	0.45726
0.70974	-0.92016
0.63323	-0.07840
0.42922	0.71234
-0.10631	0.50828
-0.25932	0.35523
-0.18282	0.15117
0.07220	0.10015
0.55673	0.02363
0.25071	0.38074
0.09770	-0.07840
0.09770	-0.20594
-0.36133	-0.00188
-0.02981	-0.12942
0.37822	0.78886
0.42922	0.15117
0.60773	-0.99668
0.70974	0.25320
0.02119	0.91640
0.04670	0.25320
0.37822	1.35003
0.07220	-0.18043
-0.13181	-0.86914
0.02119	0.32972
-1.50890	0.96742
-0.20832	0.04914
0.91375	-0.02739
1.11776	0.40625
0.91375	-0.25695
0.30171	0.02363
0.09770	0.22769
0.14870	0.10015
0.07220	0.53379
-0.61635	0.12566
0.50573	-0.33348
0.04670	-0.12942
-0.10631	-1.73640
-0.00431	-0.00188
0.30171	0.96742
0.35272	1.12046
0.17421	1.14597
0.04670	1.06945
-0.20832	0.10015
0.12320	-0.12942
0.30171	-0.15492
0.25071	-0.92016
0.32721	-0.46102
0.50573	0.38074
0.32721	1.01843
0.37822	0.32972
-0.15732	0.20219
-0.79486	0.04914
0.19971	-0.05289
0.30171	0.10015
0.68424	-0.23145
0.40372	-0.69059
-0.08081	0.40625
-0.51434	0.35523
-0.18282	0.35523
0.58223	1.35003
0.48022	0.61031
0.22521	0.50828
-0.66735	-0.94566
0.12320	-0.15492
0.60773	-0.46102
0.48022	0.27871
0.37822	0.45726
0.42922	0.45726
-0.10631	0.38074
-0.53984	0.27871
0.04670	0.22769
0.40372	-0.25695
0.19971	-0.30797
-0.10631	0.43176
0.22521	-0.30797
0.42922	-0.00188
0.22521	0.43176
0.07220	0.50828
0.17421	0.35523
0.09770	0.32972
0.09770	0.66132
-0.00431	0.61031
0.09770	-0.46102
-0.08081	0.45726
0.04670	-0.25695
0.12320	-1.32828
0.37822	-0.48652
0.40372	0.55929
0.22521	1.06945
0.25071	0.63582
0.22521	0.63582
0.25071	-0.61406
0.32721	-0.05289
0.22521	1.60511
-0.05531	-0.33348
-0.51434	0.04914
-0.46334	-1.27726
0.14870	1.09496
0.02119	-0.53754
0.35272	-0.89465
0.12320	0.35523
0.35272	0.35523
0.91375	1.14597
0.53123	1.19699
0.37822	0.76336
0.32721	0.35523
0.09770	-0.05289
-0.00431	-0.33348
-0.00431	-0.94566
0.19971	-0.18043
-0.00431	0.25320
-1.40690	-0.10391
-0.41233	-0.12942
0.17421	0.45726
0.50573	0.40625
0.53123	0.22769
0.53123	0.12566
0.96476	-0.10391
0.65874	0.12566
-0.46334	1.27351
0.48022	0.17668
0.07220	0.17668
0.09770	0.25320
0.12320	-0.35899
0.14870	0.27871
0.09770	0.86539
0.07220	0.35523
0.12320	-0.38449
0.32721	-1.27726
-0.15732	-0.10391
-0.64185	0.99292
0.40372	0.45726
0.30171	0.04914
0.30171	0.55929
0.63323	0.07465
0.68424	0.66132
0.17421	0.48277
-0.13181	-0.86914
-0.23382	-0.92016
-0.13181	0.83988
0.25071	1.32453
0.17421	-0.30797
-0.00431	0.48277
0.22521	-1.35379
0.35272	-0.28246
0.09770	1.17148
0.07220	0.40625
-0.08081	0.96742
-0.02981	0.55929
0.17421	0.40625
0.35272	-0.48652
-0.02981	-0.53754
0.42922	0.07465
0.32721	0.02363
0.27621	-0.10391
0.25071	-0.00188
0.12320	0.25320
0.55673	0.20219
-0.31033	0.61031
-0.31033	0.25320
-0.33583	-0.46102
0.09770	0.43176
-0.08081	0.38074
-0.10631	0.43176
1.16877	-0.15492
0.63323	0.15117
-0.10631	0.63582
0.07220	-0.00188
0.58223	0.15117
0.42922	0.20219
0.22521	0.53379
0.19971	-0.53754
-0.28482	-1.43031
-0.74385	-0.05289
0.17421	0.48277
0.14870	1.29902
0.37822	0.94191
0.42922	0.55929
0.27621	-0.69059
0.12320	0.10015
0.04670	0.61031
-0.79486	-0.00188
0.25071	-0.10391
0.50573	0.20219
0.30171	0.04914
0.09770	0.10015
0.42922	-0.12942
0.27621	-0.12942
0.25071	-0.02739
0.27621	0.04914
0.30171	2.16628
0.22521	-0.53754
-0.43783	-3.36890
-0.38683	-0.56305
0.22521	1.45206
0.02119	1.70714
-0.08081	1.37554
0.55673	1.06945
0.32721	0.61031
0.42922	-0.23145
0.42922	0.30422
0.12320	-0.63957
0.12320	-1.07320
0.09770	-0.33348
0.12320	0.43176
0.22521	0.12566
0.22521	0.81437
0.14870	0.17668
0.07220	0.35523
-0.02981	0.61031
-0.28482	-0.35899
0.27621	-0.58856
0.22521	-0.30797
0.12320	0.30422
0.14870	0.22769
0.27621	0.45726
0.27621	0.66132
0.12320	0.76336
0.02119	-0.58856
-0.13181	-0.66508
-0.25932	0.27871
0.22521	0.35523
0.42922	0.20219
0.70974	-0.23145
0.68424	0.96742
0.65874	0.76336
-0.28482	0.12566
-0.79486	0.38074
0.02119	-0.20594
0.12320	0.25320
0.17421	-0.35899
0.50573	-0.51203
0.68424	-0.00188
0.83725	0.22769
-0.43783	0.07465
-1.35589	0.50828
-0.23382	-0.58856
0.42922	0.76336
0.68424	0.71234
0.68424	0.10015
0.70974	0.04914
0.78624	-0.86914
0.48022	0.96742
-0.97337	-0.18043
-1.10088	-0.05289
-0.51434	0.71234
0.42922	0.30422
0.73524	-0.81812
0.65874	0.94191
0.55673	-0.00188
0.60773	0.48277
-0.02981	-0.76711
-0.28482	0.53379
-0.41233	-0.07840
-0.00431	0.15117
0.30171	0.15117
0.25071	0.20219
0.37822	0.27871
0.32721	0.58480
0.30171	-0.23145
0.14870	0.02363
-0.25932	0.61031
0.17421	0.15117
0.19971	0.02363
0.14870	-0.71609
0.27621	-0.41000
0.25071	0.50828
0.19971	1.55410
0.14870	-0.84363
0.22521	0.02363
0.17421	0.32972
-0.23382	0.89089
-0.10631	1.73265
0.02119	-0.81812
0.37822	-1.86394
0.17421	-0.46102
0.42922	0.91640
0.35272	0.76336
0.25071	0.22769
0.17421	0.81437
-0.02981	0.38074
0.25071	0.04914
0.22521	-0.18043
-0.08081	-0.05289
-0.53984	0.20219
-0.71835	0.40625
0.19971	-0.92016
0.88825	-0.25695
0.60773	0.83988
0.50573	0.38074
0.70974	0.55929
0.19971	0.15117
-0.13181	0.04914
-0.05531	0.35523
0.19971	-0.12942
0.22521	1.09496
0.04670	-0.53754
-0.18282	-1.12422
0.17421	-0.51203
0.42922	1.37554
0.19971	0.76336
-0.08081	0.71234
-0.61635	0.61031
-0.53984	0.40625
0.37822	-0.58856
0.63323	-0.15492
0.25071	-0.05289
0.68424	1.14597
0.09770	-0.25695
0.27621	-0.33348
0.68424	0.02363
0.12320	-0.43551
-0.28482	0.32972
0.09770	0.40625
0.76074	0.02363
0.68424	-0.51203
-0.10631	-0.15492
-0.48884	0.25320
-0.84586	0.55929
-0.10631	1.17148
-0.46334	0.53379
0.60773	0.38074
0.83725	-0.25695
0.68424	-0.23145
0.42922	-0.12942
0.42922	0.48277
0.27621	0.45726
0.25071	-0.18043
-0.38683	-0.10391
-0.41233	-0.05289
-0.13181	-0.10391
0.07220	0.63582
0.14870	-0.15492
0.19971	0.53379
0.42922	0.30422
0.25071	0.63582
-0.33583	0.43176
-0.13181	0.27871
0.55673	-1.50683
0.53123	-0.46102
0.37822	0.50828
0.19971	-0.07840
0.25071	1.12046
0.32721	1.01843
-0.71835	-0.89465
-1.04987	-0.66508
0.68424	0.38074
0.55673	0.91640
0.78624	0.96742
0.48022	1.24800
0.12320	-0.43551
-0.20832	-0.38449
-0.36133	0.17668
0.07220	0.20219
0.17421	-0.30797
0.32721	-0.10391
0.22521	-0.38449
0.30171	0.15117
0.04670	0.20219
-0.66735	0.15117
0.04670	0.04914
0.22521	-0.18043
0.63323	0.40625
0.86275	0.83988
0.22521	-0.23145
-0.15732	-0.00188
-0.18282	0.76336
-0.59084	0.76336
-0.05531	-0.25695
0.53123	-0.97117
0.78624	0.15117
0.68424	0.86539
0.27621	1.17148
0.09770	-0.12942
0.02119	-0.51203
-0.43783	-0.25695
-0.36133	0.10015
0.07220	1.37554
0.55673	0.27871
0.55673	-0.10391
0.53123	-0.58856
0.37822	0.07465
0.12320	0.22769
-0.31033	0.07465
-1.02437	0.25320
-0.89686	0.15117
0.42922	-0.41000
0.83725	0.27871
0.96476	0.07465
0.14870	0.55929
0.07220	-1.04770
0.50573	0.15117
0.09770	-0.05289
0.09770	0.86539
0.32721	1.01843
0.35272	0.86539
0.04670	0.35523
-0.31033	0.15117
-0.94787	0.91640
-0.66735	-0.05289
0.32721	-1.53234
0.63323	-0.07840
0.70974	-0.07840
0.63323	-0.18043
0.40372	0.22769
0.32721	0.71234
0.02119	-0.05289
0.09770	0.61031
0.02119	-0.05289
-0.18282	-0.20594
0.04670	0.53379
0.17421	0.15117
0.09770	0.12566
0.14870	0.22769
0.12320	0.38074
0.17421	0.30422
0.32721	-0.25695
0.73524	-0.66508
-0.31033	0.30422
-0.46334	0.66132
0.22521	0.25320
0.42922	0.45726
0.02119	0.15117
0.32721	-0.02739
0.53123	0.20219
0.42922	0.40625
0.07220	0.43176
-0.48884	-0.41000
0.02119	-0.79262
0.35272	0.35523
0.19971	0.73785
0.17421	0.61031
0.32721	0.27871
0.40372	-0.69059
0.27621	0.12566
-0.87136	-0.12942
-0.53984	0.04914
0.25071	0.81437
0.30171	-0.07840
0.40372	-0.05289
0.81175	-0.46102
0.63323	0.76336
-0.74385	0.66132
0.09770	0.50828
0.68424	0.71234
0.09770	-0.07840
0.19971	-0.63957
0.40372	-0.41000
0.48022	0.66132
0.27621	0.15117
0.25071	0.02363
-0.05531	0.53379
-0.13181	0.27871
-0.41233	0.30422
0.04670	-0.07840
0.14870	-0.43551
0.14870	-0.35899
0.22521	1.24800
0.19971	0.78886
-0.08081	-1.32828
0.07220	-0.84363
-0.05531	0.61031
0.45472	0.63582
0.65874	0.96742
0.73524	0.96742
0.09770	0.53379
-0.05531	-0.28246
-0.69285	0.12566
0.04670	0.27871
0.60773	-0.38449
0.42922	-0.58856
0.37822	0.35523
0.27621	0.25320
0.27621	-0.94566
0.35272	0.76336
-0.38683	1.17148
-0.46334	-0.46102
-0.05531	-0.30797
0.27621	0.61031
0.48022	-0.48652
0.19971	0.35523
0.19971	-0.15492
-0.18282	0.50828
-0.46334	0.73785
0.22521	0.35523
0.70974	0.07465
0.96476	0.25320
0.42922	-0.76711
0.09770	0.10015
0.04670	0.55929
-0.05531	-0.00188
-0.02981	-0.07840
0.02119	0.35523
0.19971	0.15117
0.22521	0.27871
0.02119	0.76336
0.09770	-0.28246
0.37822	-0.10391
-0.00431	-0.20594
0.02119	0.73785
0.42922	-0.12942
-0.15732	-0.02739
-0.02981	0.20219
-0.53984	0.35523
0.19971	0.22769
0.88825	0.68683
0.48022	0.61031
0.30171	0.22769
0.55673	-0.38449
0.32721	-0.46102
0.17421	-1.07320
-0.33583	0.40625
-0.25932	-0.23145
0.32721	0.55929
-0.08081	1.01843
-0.15732	0.71234
0.30171	0.99292
0.14870	0.63582
0.14870	0.43176
0.19971	-0.84363
0.19971	-0.51203
0.22521	-0.51203
-0.41233	0.07465
0.02119	-0.48652
0.32721	0.66132
-0.25932	0.27871
0.78624	0.76336
0.96476	0.12566
0.60773	0.07465
0.50573	-0.15492
-0.15732	0.20219
0.17421	-0.20594
-1.15188	0.20219
-1.25389	-0.51203
0.42922	1.06945
0.81175	-0.10391
0.88825	-0.02739
0.88825	0.96742
0.50573	0.53379
-0.10631	1.04394
-0.69285	-1.22625
-0.25932	-0.86914
-0.15732	0.38074
0.22521	0.27871
0.40372	0.53379
-0.00431	-0.41000
0.40372	0.76336
0.37822	0.20219
0.32721	0.45726
0.17421	-0.00188
0.25071	-0.66508
0.14870	-0.02739
0.02119	0.12566
0.07220	0.53379
0.27621	0.91640
-0.05531	0.45726
0.02119	-0.84363
-0.15732	-1.04770
0.17421	0.55929
-0.08081	0.78886
0.25071	0.20219
0.35272	0.30422
0.37822	-0.12942
0.19971	0.32972
0.09770	-0.20594
0.19971	0.04914
-0.28482	0.25320
0.42922	0.68683
0.09770	0.27871
0.22521	0.32972
0.42922	0.27871
0.22521	0.12566
0.58223	0.35523
0.35272	-0.56305
-0.18282	-0.43551
-0.08081	0.17668
0.12320	0.48277
-0.05531	-0.30797
-0.28482	-0.30797
-0.38683	-0.00188
-0.28482	1.45206
0.45472	0.61031
0.22521	-0.38449
0.35272	-0.10391
0.65874	-0.15492
0.32721	0.07465
0.35272	0.48277
0.53123	-0.10391
0.17421	0.45726
-0.02981	0.38074
-0.10631	-0.15492
-0.23382	-0.30797
0.35272	0.30422
0.55673	0.71234
-0.46334	-0.00188
-0.18282	-0.07840
0.45472	0.12566
0.70974	-0.18043
0.63323	-1.17523
0.17421	0.12566
-1.02437	1.09496
-0.76936	0.71234
-0.41233	0.35523
0.60773	-0.12942
1.04126	0.40625
0.73524	0.07465
0.45472	0.20219
0.07220	-0.05289
0.27621	0.07465
0.02119	0.53379
-0.00431	-0.28246
0.02119	-0.20594
-0.10631	-0.46102
0.19971	-0.69059
0.02119	0.89089
-0.25932	0.38074
0.09770	0.30422
0.19971	1.27351
0.37822	0.71234
0.32721	-0.28246
0.09770	0.04914
-0.13181	0.55929
-0.15732	-0.20594
0.45472	-0.02739
0.63323	-0.66508
0.19971	-0.58856
0.27621	0.45726
0.02119	1.17148
-0.53984	0.99292
0.19971	-0.18043
0.70974	-0.00188
0.63323	0.22769
0.25071	-0.15492
-0.13181	-0.00188
-0.18282	0.83988
0.37822	0.35523
-0.31033	-1.02219
0.32721	0.22769
0.12320	0.32972
-0.05531	0.17668
-0.25932	-0.56305
0.07220	0.58480
0.78624	0.89089
0.30171	0.45726
-0.69285	-0.00188
0.12320	0.35523
-0.08081	0.12566
0.30171	-0.00188
0.42922	-0.10391
0.40372	-0.18043
0.60773	0.40625
0.53123	0.48277
0.40372	0.32972
0.30171	0.48277
-0.28482	-0.61406
-0.76936	0.61031
-0.15732	-0.56305
0.30171	-0.84363
0.22521	-0.15492
0.17421	0.40625
0.40372	0.76336
0.42922	0.25320
0.17421	0.20219
0.40372	0.63582
0.07220	0.66132
-0.69285	0.04914
-0.02981	-0.63957
0.27621	1.17148
0.45472	-0.10391
0.30171	-0.84363
0.19971	-0.46102
0.07220	0.66132
0.35272	0.86539
0.45472	-0.05289
0.14870	0.61031
0.04670	0.43176
0.17421	0.20219
0.02119	0.12566
0.07220	-0.05289
0.30171	-0.05289
0.27621	-0.02739
0.30171	-0.69059
-0.36133	-0.18043
-1.38139	0.89089
0.04670	1.29902
0.93925	-0.97117
0.93925	-1.27726
0.63323	-0.25695
0.19971	1.45206
0.25071	1.17148
0.17421	0.15117
0.14870	0.15117
-0.15732	0.32972
0.12320	0.25320
-0.18282	0.04914
-0.28482	0.17668
0.65874	0.12566
0.45472	-0.20594
0.32721	0.48277
0.22521	-0.25695
-0.18282	0.38074
0.17421	0.07465
-0.02981	-0.10391
0.30171	-0.10391
0.27621	-0.76711
0.14870	-0.18043
0.27621	0.73785
0.04670	0.32972
0.12320	0.32972
0.14870	1.12046
0.07220	0.66132
-0.02981	-0.41000
-0.48884	-0.61406
0.40372	-0.48652
0.70974	0.76336
0.35272	0.73785
0.04670	-0.12942
-0.56534	0.22769
-0.38683	-0.25695
0.55673	0.55929
1.09226	2.14077
0.60773	0.04914
-0.18282	0.04914
-0.08081	0.04914
0.63323	-0.38449
0.12320	-0.56305
-0.05531	0.17668
-0.28482	0.10015
0.12320	0.04914
0.12320	0.27871
0.22521	0.35523
0.35272	-0.46102
0.42922	0.04914
0.25071	0.15117
-0.51434	0.02363
0.02119	0.22769
0.12320	0.94191
-0.02981	1.06945
0.02119	-0.46102
0.35272	-0.43551
0.73524	-0.00188
0.25071	0.32972
0.25071	-0.10391
-0.15732	0.25320
-0.20832	1.27351
0.63323	0.78886
0.27621	-0.33348
0.02119	-0.79262
0.07220	-0.86914
0.35272	0.94191
0.09770	0.17668
0.12320	-0.05289
0.09770	0.17668
0.02119	0.32972
0.04670	0.25320
-0.20832	0.15117
0.14870	0.04914
0.55673	0.66132
0.53123	0.10015
-0.15732	-0.76711
-0.20832	-0.66508
0.07220	-0.15492
-0.08081	0.81437
0.37822	0.10015
0.32721	0.30422
0.17421	0.76336
0.37822	0.78886
0.81175	0.89089
0.32721	0.30422
-0.36133	0.12566
0.17421	-0.07840
0.25071	-0.56305
0.07220	0.02363
0.14870	-1.02219
0.07220	-0.53754
0.04670	-0.10391
0.19971	0.20219
-0.13181	0.86539
-0.10631	0.91640
0.37822	0.76336
0.12320	0.48277
0.02119	0.55929
-0.00431	-0.69059
-0.15732	0.12566
0.37822	-0.66508
0.63323	-0.38449
0.32721	0.15117
0.32721	0.55929
0.27621	0.10015
0.27621	0.30422
0.19971	0.35523
0.30171	0.38074
0.04670	0.32972
0.14870	-0.00188
-0.38683	-0.28246
-1.02437	0.76336
-0.02981	0.30422
0.53123	-0.28246
0.73524	-0.33348
0.58223	0.35523
0.55673	0.30422
0.37822	0.55929
0.30171	-0.10391
-0.00431	-0.86914
-0.10631	-0.00188
-0.92237	1.09496
-0.92237	0.81437
0.30171	0.07465
0.63323	-0.48652
1.01576	-0.97117
0.65874	0.68683
0.58223	0.86539
0.27621	-0.25695
0.02119	0.43176
-0.18282	0.17668
-0.25932	0.99292
-0.05531	0.53379
-0.02981	0.43176
-0.41233	0.07465
0.07220	-0.66508
0.63323	-0.00188
0.42922	-0.23145
0.17421	0.04914
0.35272	0.02363
0.42922	-0.15492
0.07220	0.76336
-0.25932	0.25320
0.09770	-0.89465
0.32721	0.66132
-0.23382	1.32453
-0.08081	-0.46102
0.37822	-0.56305
0.45472	-0.58856
0.35272	1.78367
0.30171	0.66132
0.63323	-0.18043
0.14870	-0.25695
0.48022	-0.07840
0.09770	0.58480
-1.10088	0.61031
-1.17738	0.76336
0.12320	0.43176
0.60773	-0.15492
0.83725	-0.30797
1.01576	-0.12942
0.65874	-0.25695
0.19971	-0.53754
-0.18282	-0.10391
-0.08081	0.15117
0.12320	0.38074
0.07220	0.30422
0.02119	0.50828
-0.05531	0.02363
0.04670	-0.30797
-0.00431	0.55929
-0.05531	-0.58856
0.04670	-0.18043
0.04670	0.07465
0.32721	1.04394
0.50573	1.29902
0.42922	1.12046
0.27621	0.30422
0.25071	-0.41000
0.04670	-0.05289
0.32721	-0.10391
0.32721	-0.56305
-0.00431	-0.25695
-0.46334	-0.33348
-0.18282	0.48277
0.40372	0.20219
0.68424	0.71234
0.04670	-0.33348
-0.97337	-0.38449
-0.20832	0.73785
0.27621	0.61031
0.32721	0.78886
0.42922	-0.12942
0.65874	0.02363
0.63323	-0.46102
0.40372	0.12566
0.22521	0.43176
0.12320	0.68683
0.02119	-0.38449
-0.15732	-0.28246
-0.51434	0.71234
-0.15732	-0.02739
0.35272	0.81437
0.27621	0.55929
0.12320	-0.56305
0.17421	-0.61406
0.14870	0.27871
0.22521	0.61031
0.32721	1.14597
0.32721	0.07465
0.12320	-1.96597
0.19971	-0.35899
-0.38683	0.81437
-0.20832	0.20219
0.32721	1.17148
0.68424	1.57960
0.48022	0.07465
-0.20832	0.32972
-0.15732	-0.48652
0.37822	0.07465
0.25071	-0.51203
0.19971	0.12566
0.12320	0.15117
0.19971	0.25320
0.30171	0.45726
0.30171	-0.23145
-0.10631	-0.02739
-0.71835	-0.48652
-0.08081	0.25320
-0.18282	0.22769
0.68424	0.07465
0.60773	0.81437
0.50573	1.06945
0.19971	-0.05289
-0.15732	-0.43551
-0.10631	-0.56305
0.02119	-0.05289
0.19971	0.45726
0.30171	0.73785
0.04670	0.91640
0.35272	0.35523
0.65874	0.07465
0.48022	0.15117
-0.02981	-0.71609
-0.76936	-0.25695
-0.02981	-0.43551
0.42922	-0.53754
0.32721	0.96742
-0.02981	0.48277
0.14870	-0.12942
0.42922	0.58480
0.19971	-0.00188
0.22521	-0.10391
0.04670	-0.69059
0.12320	0.66132
0.09770	0.55929
0.07220	0.66132
0.27621	0.43176
0.04670	-0.02739
0.30171	0.27871
0.19971	0.02363
-0.08081	-0.99668
0.02119	-0.71609
0.32721	1.01843
0.30171	0.53379
0.07220	0.40625
0.27621	0.35523
0.12320	0.99292
0.27621	0.61031
0.37822	-1.27726
-0.05531	-0.35899
0.02119	0.07465
0.22521	-0.00188
0.35272	0.35523
0.53123	0.61031
0.19971	0.43176
-0.20832	0.78886
0.07220	-0.38449
-0.46334	-1.76191
0.09770	0.12566
0.40372	0.99292
-0.23382	0.96742
0.07220	0.15117
0.63323	0.02363
0.68424	0.04914
0.19971	0.43176
-0.00431	0.27871
-0.00431	-0.74160
-0.15732	-0.25695
0.14870	0.27871
0.22521	-0.00188
0.42922	0.43176
0.07220	0.45726
0.02119	0.48277
-0.00431	0.45726
0.19971	0.12566
0.19971	0.02363
-0.33583	-0.58856
-0.00431	-0.35899
0.17421	0.45726
0.25071	0.53379
0.45472	0.35523
0.58223	0.58480
0.48022	0.25320
0.19971	-1.07320
-0.00431	-0.05289
-0.00431	0.30422
-0.00431	0.53379
0.09770	0.43176
0.35272	0.55929
0.35272	0.38074
-0.00431	0.12566
-0.18282	-0.18043
0.14870	0.20219
-0.02981	-0.38449
0.22521	-0.35899
0.50573	0.04914
0.19971	0.22769
-0.38683	0.04914
-0.33583	0.25320
0.09770	0.48277
0.68424	0.22769
0.70974	0.71234
0.53123	0.40625
-0.31033	0.15117
0.12320	0.15117
0.17421	0.30422
-0.10631	-0.25695
0.17421	-0.25695
0.02119	0.63582
0.02119	0.30422
0.12320	-0.48652
0.30171	-0.18043
-0.15732	-0.02739
0.09770	-0.61406
0.60773	0.73785
0.42922	0.43176
0.37822	0.91640
0.30171	0.20219
0.07220	0.10015
0.09770	0.48277
-0.08081	0.15117
-0.33583	-0.23145
-0.33583	0.43176
0.32721	-0.07840
0.50573	0.12566
0.35272	-0.94566
-0.02981	-0.20594
-0.05531	0.96742
0.07220	1.12046
-0.31033	0.61031
0.53123	-0.12942
0.65874	-0.10391
0.63323	0.27871
0.48022	0.20219
0.27621	0.15117
0.12320	-0.38449
-0.20832	0.17668
-0.02981	0.66132
-0.23382	-0.28246
-0.23382	-0.18043
0.17421	0.27871
0.45472	0.66132
0.42922	0.55929
0.02119	0.17668
-0.25932	0.17668
-0.18282	-0.20594
0.19971	-0.15492
0.37822	0.20219
0.53123	0.07465
0.45472	0.02363
0.30171	1.06945
0.07220	-0.18043
-0.05531	0.22769
0.17421	-0.25695
0.09770	-0.30797
0.14870	0.27871
-0.00431	0.68683
0.30171	0.22769
0.35272	0.15117
0.30171	0.20219
-0.10631	0.17668
0.07220	-0.05289
0.45472	0.15117
0.27621	0.04914
-0.33583	0.40625
-0.36133	0.07465
0.12320	0.15117
0.22521	-0.02739
0.48022	0.07465
0.58223	-0.46102
0.45472	0.53379
0.17421	1.04394
-0.05531	0.22769
-0.25932	0.45726
-0.02981	-0.25695
0.27621	0.04914
0.32721	0.04914
0.19971	0.12566
0.12320	-0.61406
0.25071	-0.15492
0.04670	1.01843
0.02119	0.53379
-0.00431	-0.15492
0.14870	0.43176
0.32721	-0.79262
0.37822	0.53379
0.02119	0.15117
-0.02981	-0.05289
0.14870	-0.35899
0.14870	0.35523
-0.05531	0.45726
-0.61635	0.27871
-0.56534	0.30422
0.65874	0.40625
0.99026	0.27871
0.48022	0.20219
0.40372	0.04914
0.37822	-0.02739
0.42922	0.50828
-0.00431	-0.28246
-0.20832	-0.76711
-0.31033	0.22769
-0.15732	0.38074
0.25071	0.02363
0.25071	0.12566
0.40372	0.58480
0.27621	0.68683
0.22521	0.02363
-0.00431	0.40625
-0.00431	-0.10391
-0.08081	-0.05289
-0.33583	0.02363
0.22521	-0.61406
0.63323	0.89089
0.76074	0.89089
0.60773	-0.15492
0.25071	-0.25695
-0.31033	-0.28246
-0.43783	0.66132
0.09770	0.32972
0.19971	0.04914
0.40372	0.38074
0.48022	0.38074
-0.05531	0.12566
0.17421	-0.12942
-0.13181	0.30422
0.09770	-0.18043
0.09770	-0.41000
0.02119	-0.15492
0.22521	0.15117
0.58223	0.66132
0.25071	0.40625
0.14870	0.27871
0.04670	0.25320
0.04670	0.04914
0.32721	0.10015
0.19971	0.07465
-0.25932	0.12566
0.35272	0.25320
0.25071	0.12566
0.14870	-0.35899
-0.15732	0.07465
-0.28482	0.63582
0.40372	0.27871
0.30171	-0.20594
0.42922	0.15117
0.22521	-0.25695
0.04670	0.81437
-0.10631	-0.53754
0.09770	0.55929
0.22521	0.66132
0.35272	0.17668
0.12320	0.86539
-0.05531	0.91640
-0.00431	-0.41000
0.50573	0.10015
0.50573	-0.53754
0.22521	-0.35899
0.27621	-0.43551
-0.10631	0.58480
-0.74385	0.53379
-0.56534	0.61031
0.30171	0.32972
0.70974	-0.18043
0.70974	0.63582
0.65874	-0.41000
0.48022	0.27871
-0.08081	-0.28246
0.02119	-0.46102
0.07220	0.58480
0.19971	0.63582
0.09770	0.40625
-0.23382	0.45726
-0.10631	-0.15492
0.14870	0.35523
0.12320	-0.07840
-0.05531	0.40625
0.12320	-0.76711
0.22521	-0.38449
0.27621	0.12566
0.40372	0.71234
0.25071	0.73785
0.30171	-0.25695
0.09770	0.38074
0.32721	0.55929
0.17421	0.71234
-0.76936	-0.02739
-0.99887	-0.25695
0.63323	0.07465
1.06676	0.45726
0.83725	0.32972
0.65874	0.10015
0.37822	-0.74160
-0.38683	0.25320
0.07220	0.15117
-0.08081	0.35523
-0.05531	0.66132
-0.08081	0.15117
0.07220	-0.66508
-0.02981	-0.05289
0.09770	0.35523
-0.20832	0.48277
0.02119	-0.25695
-0.23382	0.07465
0.32721	0.50828
0.53123	0.78886
0.76074	0.45726
0.63323	0.25320
-0.00431	0.15117
-0.51434	-0.30797
-0.25932	0.15117
0.45472	-0.02739
0.48022	0.15117
0.42922	-0.20594
0.37822	0.10015
0.07220	0.22769
-0.15732	0.50828
-0.23382	-0.71609
0.04670	0.50828
-0.48884	0.61031
0.30171	0.15117
0.32721	-1.35379
0.37822	-1.07320
0.37822	2.08976
0.22521	1.06945
0.09770	0.89089
0.07220	0.15117
