0.12320	0.22769
0.09770	0.07465
0.14870	0.04914
0.19971	0.17668
0.14870	0.12566
0.07220	0.22769
0.14870	0.15117
0.22521	0.10015
0.12320	0.17668
0.09770	0.22769
0.09770	0.15117
0.14870	0.12566
0.22521	0.25320
0.22521	0.12566
0.14870	0.12566
0.09770	0.15117
0.12320	0.10015
0.22521	0.22769
0.12320	0.17668
0.14870	0.04914
0.22521	0.12566
0.12320	0.22769
0.07220	0.22769
0.14870	0.20219
0.22521	0.17668
0.04670	0.07465
0.14870	0.20219
0.12320	0.38074
0.09770	0.17668
0.17421	0.12566
0.19971	-0.07840
0.17421	-0.18043
0.07220	0.07465
0.09770	0.07465
0.14870	0.22769
0.22521	0.35523
0.12320	0.30422
0.07220	0.22769
0.12320	0.38074
0.22521	0.22769
0.14870	0.15117
0.14870	0.20219
0.19971	0.07465
0.17421	-0.20594
0.09770	0.15117
0.12320	-0.00188
0.19971	0.12566
0.07220	0.27871
0.12320	0.38074
0.22521	0.25320
0.14870	0.15117
0.07220	0.30422
0.14870	0.17668
0.19971	0.07465
0.12320	0.07465
0.07220	0.15117
0.22521	0.10015
0.22521	0.10015
0.14870	0.27871
0.14870	0.07465
0.19971	0.07465
0.07220	0.25320
0.14870	0.22769
0.22521	0.10015
0.09770	0.15117
0.14870	0.25320
0.25071	0.17668
0.12320	0.12566
0.07220	0.17668
0.14870	0.20219
0.17421	-0.10391
0.14870	0.25320
0.07220	0.20219
0.22521	0.12566
0.17421	0.22769
0.07220	0.12566
0.12320	0.22769
0.22521	0.10015
0.07220	0.15117
0.12320	0.04914
0.22521	0.15117
0.14870	0.22769
0.17421	0.15117
0.22521	0.15117
0.07220	0.12566
0.07220	0.15117
0.17421	0.04914
0.14870	0.07465
0.09770	0.25320
0.12320	0.22769
0.22521	0.12566
0.12320	0.27871
0.14870	0.15117
0.17421	0.10015
0.12320	0.17668
0.07220	0.30422
0.14870	0.17668
0.22521	0.12566
0.07220	0.20219
0.17421	0.15117
0.19971	0.02363
0.09770	0.17668
0.12320	0.15117
0.22521	0.12566
0.07220	0.15117
0.12320	-0.05289
0.12320	0.04914
0.19971	0.12566
0.14870	0.35523
0.17421	0.22769
0.22521	0.20219
0.14870	0.04914
0.14870	0.15117
0.19971	0.17668
0.07220	0.22769
0.19971	0.04914
0.12320	0.12566
0.12320	0.22769
0.22521	0.02363
0.14870	0.10015
0.07220	0.12566
0.19971	0.10015
0.14870	0.20219
0.07220	0.10015
0.14870	0.15117
0.12320	0.32972
0.07220	0.07465
0.19971	0.04914
0.12320	0.17668
0.07220	0.10015
0.22521	0.30422
0.14870	0.10015
0.09770	0.07465
0.19971	0.15117
0.17421	0.15117
0.14870	0.22769
0.17421	0.17668
0.12320	0.25320
0.17421	0.25320
0.12320	0.15117
0.09770	0.20219
0.27621	0.22769
0.14870	0.02363
0.07220	0.07465
0.22521	0.04914
0.12320	-0.02739
0.19971	0.15117
0.17421	0.17668
0.12320	0.10015
0.19971	0.12566
0.07220	0.17668
0.12320	0.04914
0.14870	0.04914
0.07220	0.35523
0.22521	0.30422
0.19971	-0.05289
0.12320	0.15117
0.17421	-0.02739
0.25071	0.22769
0.17421	0.55929
0.07220	0.25320
0.22521	0.15117
0.17421	0.20219
0.14870	0.10015
0.19971	-0.07840
0.14870	0.32972
0.09770	0.15117
0.22521	0.07465
0.19971	0.10015
0.07220	0.15117
0.12320	0.22769
0.22521	0.07465
0.09770	0.10015
0.14870	0.25320
0.14870	0.25320
0.07220	0.25320
0.12320	0.25320
0.22521	0.12566
0.07220	-0.15492
0.14870	0.35523
0.22521	0.32972
0.22521	0.20219
0.12320	0.22769
0.09770	0.22769
0.22521	-0.30797
0.12320	0.04914
0.07220	0.30422
0.14870	0.22769
0.19971	0.17668
0.09770	0.25320
0.14870	0.20219
0.17421	0.07465
0.12320	0.25320
0.09770	0.17668
0.14870	0.07465
0.19971	0.20219
0.09770	-0.15492
0.14870	0.10015
0.12320	0.17668
0.09770	0.07465
0.14870	0.22769
0.17421	0.15117
0.17421	0.20219
0.14870	0.25320
0.17421	0.07465
0.12320	0.15117
0.19971	0.27871
0.09770	-0.02739
0.14870	0.22769
0.14870	0.27871
0.07220	-0.12942
0.19971	0.15117
0.17421	0.17668
0.14870	0.17668
0.25071	0.15117
0.09770	0.15117
0.19971	0.40625
0.17421	0.10015
0.07220	-0.05289
0.19971	-0.38449
0.09770	0.30422
0.12320	0.48277
0.14870	0.30422
0.07220	-0.02739
0.22521	0.10015
0.14870	0.12566
0.09770	0.07465
0.19971	0.22769
0.14870	0.20219
0.14870	-0.02739
0.22521	0.15117
0.07220	0.12566
0.07220	0.25320
0.17421	0.25320
0.12320	0.20219
0.04670	0.25320
0.22521	0.10015
0.07220	0.15117
0.12320	0.17668
0.17421	0.30422
0.07220	0.10015
0.22521	-0.07840
0.02119	0.02363
0.19971	0.17668
0.07220	0.27871
0.14870	0.17668
0.14870	0.25320
0.17421	0.17668
0.22521	0.25320
0.07220	0.17668
0.22521	-0.05289
0.12320	-0.15492
0.22521	0.17668
0.14870	0.27871
0.14870	0.32972
0.22521	0.27871
0.07220	0.20219
0.19971	0.10015
0.09770	0.15117
0.14870	0.15117
0.14870	-0.20594
0.04670	0.22769
0.12320	0.35523
0.22521	0.15117
0.12320	-0.00188
0.12320	0.25320
0.14870	-0.00188
0.22521	0.04914
0.17421	0.27871
0.09770	0.32972
0.12320	0.20219
0.17421	0.22769
0.09770	0.10015
0.12320	0.20219
0.19971	0.07465
0.09770	0.04914
0.14870	-0.05289
0.22521	0.10015
0.12320	0.32972
0.14870	0.15117
0.19971	0.07465
0.07220	0.12566
0.17421	0.04914
0.22521	0.22769
0.07220	0.07465
0.07220	0.10015
0.19971	0.22769
0.09770	0.15117
0.14870	0.35523
0.12320	0.22769
0.09770	0.20219
0.22521	0.17668
0.12320	0.15117
0.14870	0.12566
0.14870	0.10015
0.09770	0.20219
0.25071	0.10015
0.09770	0.20219
0.22521	-0.30797
0.14870	0.17668
0.14870	0.22769
0.12320	0.25320
0.14870	0.38074
0.19971	0.02363
0.07220	-0.00188
0.22521	-0.10391
0.12320	0.17668
0.14870	0.35523
0.19971	0.30422
0.07220	0.17668
0.12320	0.15117
0.12320	0.15117
0.14870	0.07465
0.19971	0.15117
0.09770	0.04914
0.12320	0.15117
0.17421	0.10015
0.09770	0.12566
0.14870	0.22769
0.12320	0.20219
0.07220	0.07465
0.12320	0.22769
0.17421	0.25320
0.14870	0.10015
0.19971	0.07465
0.07220	0.15117
0.14870	0.02363
0.22521	0.17668
0.09770	0.25320
0.12320	0.30422
0.17421	0.22769
0.07220	0.22769
0.12320	0.10015
0.12320	0.07465
0.09770	0.12566
0.17421	0.22769
0.25071	0.07465
0.12320	0.27871
0.09770	0.25320
0.14870	0.25320
0.19971	-0.43551
0.07220	0.17668
0.12320	0.30422
0.22521	0.17668
0.07220	0.15117
0.07220	0.10015
0.27621	0.04914
0.22521	0.12566
0.19971	0.12566
0.14870	0.17668
0.19971	0.25320
0.12320	0.25320
0.07220	0.20219
0.17421	0.12566
0.19971	0.22769
0.12320	0.17668
0.07220	0.04914
0.17421	0.15117
0.22521	0.22769
0.14870	0.10015
0.14870	0.17668
0.07220	0.15117
0.14870	0.12566
0.22521	0.10015
0.17421	0.04914
0.12320	-0.05289
0.22521	0.40625
0.07220	0.25320
0.14870	0.04914
0.19971	0.20219
0.14870	0.10015
0.09770	0.17668
0.19971	0.30422
0.14870	0.02363
0.14870	0.17668
0.22521	0.15117
0.07220	0.07465
0.12320	0.15117
0.14870	0.22769
0.14870	0.15117
0.14870	0.10015
0.09770	0.12566
0.22521	0.12566
0.14870	0.15117
0.07220	0.15117
0.14870	0.12566
0.19971	0.15117
0.14870	0.30422
0.07220	0.38074
0.14870	-0.05289
0.12320	-0.69059
0.12320	-0.15492
0.07220	0.38074
0.14870	0.53379
0.14870	0.53379
0.19971	0.38074
0.12320	0.07465
0.09770	-0.10391
0.17421	0.20219
0.14870	0.25320
0.14870	0.10015
0.07220	0.02363
0.12320	0.02363
0.12320	0.12566
0.17421	0.17668
0.12320	0.20219
0.09770	0.17668
0.17421	0.15117
0.19971	0.15117
0.22521	0.17668
0.12320	0.10015
0.09770	0.17668
0.17421	0.15117
0.22521	0.07465
0.12320	0.27871
0.09770	-0.05289
0.09770	0.12566
0.14870	0.32972
0.09770	0.15117
0.14870	0.22769
0.19971	-0.00188
0.14870	0.10015
0.14870	0.25320
0.17421	0.15117
0.07220	0.04914
0.19971	0.20219
0.09770	0.02363
0.17421	0.22769
0.14870	0.20219
0.09770	0.04914
0.19971	0.22769
0.12320	0.02363
0.07220	-0.25695
0.22521	0.27871
0.09770	0.48277
0.14870	0.30422
0.14870	0.02363
0.04670	0.07465
0.22521	0.20219
0.07220	0.12566
0.14870	0.15117
0.17421	0.10015
0.09770	0.12566
0.14870	0.22769
0.12320	0.12566
0.09770	0.25320
0.14870	0.20219
0.17421	0.20219
0.14870	0.25320
0.22521	0.02363
0.04670	0.17668
0.19971	0.25320
0.14870	-0.05289
0.09770	0.17668
0.17421	0.04914
0.09770	0.27871
0.22521	0.12566
0.12320	-0.05289
0.09770	-0.05289
0.14870	0.27871
0.14870	0.43176
0.12320	0.43176
0.14870	0.20219
0.19971	0.10015
0.12320	0.04914
0.17421	0.10015
0.19971	0.02363
0.14870	0.04914
0.12320	0.04914
0.22521	0.12566
0.17421	0.20219
0.09770	0.15117
0.12320	0.10015
0.14870	0.25320
0.12320	0.22769
0.12320	0.12566
0.22521	0.15117
0.07220	0.12566
0.22521	0.25320
0.17421	0.22769
0.14870	0.02363
0.22521	0.22769
0.09770	0.12566
0.12320	0.04914
0.12320	0.07465
0.09770	0.07465
0.22521	0.12566
0.14870	0.17668
0.09770	0.12566
0.22521	0.30422
0.17421	0.20219
0.07220	0.15117
0.19971	0.00000
0.07220	0.00000
0.12320	0.00000
0.19971	0.00000
0.17421	0.00000
0.19971	0.00000
0.14870	0.00000
0.14870	0.00000
0.19971	0.15117
0.09770	0.10015
0.17421	0.15117
0.14870	0.12566
0.07220	0.04914
0.14870	0.20219
0.22521	0.15117
0.14870	0.04914
0.14870	0.15117
0.12320	0.20219
0.14870	0.02363
0.12320	0.04914
0.19971	0.25320
0.07220	0.04914
0.17421	0.43176
0.22521	-0.02739
0.07220	-0.05289
0.12320	0.20219
0.14870	0.04914
0.09770	0.30422
0.25071	0.32972
0.14870	0.12566
0.04670	0.12566
0.19971	0.07465
0.14870	0.04914
0.14870	0.25320
0.19971	0.15117
0.12320	0.02363
0.17421	0.07465
0.22521	0.10015
0.12320	-0.02739
0.07220	0.15117
0.19971	0.22769
0.12320	0.27871
0.22521	0.04914
0.12320	0.15117
0.17421	0.25320
0.19971	0.25320
0.04670	0.07465
0.12320	0.12566
0.17421	0.07465
0.17421	0.04914
0.09770	0.15117
0.14870	0.22769
0.17421	0.20219
0.07220	0.15117
0.14870	0.15117
0.17421	0.17668
0.22521	0.15117
0.07220	0.10015
0.19971	0.15117
0.22521	0.20219
0.14870	0.17668
0.14870	0.04914
0.19971	0.25320
0.12320	0.15117
0.07220	0.04914
0.17421	0.07465
0.19971	0.12566
0.17421	0.30422
0.09770	0.20219
0.14870	0.22769
0.22521	0.12566
0.07220	0.20219
0.17421	0.10015
0.19971	0.10015
0.17421	0.15117
0.09770	-0.02739
0.14870	0.12566
0.14870	0.50828
0.07220	0.30422
0.14870	0.20219
0.19971	0.04914
0.14870	0.04914
0.07220	-0.07840
0.17421	-0.02739
0.19971	0.38074
0.12320	0.22769
0.09770	0.15117
0.14870	0.25320
0.19971	0.38074
0.14870	0.07465
0.07220	-0.02739
0.14870	-0.07840
0.22521	-0.00188
0.22521	0.32972
0.04670	0.15117
0.09770	0.17668
0.17421	0.25320
0.14870	0.10015
0.09770	0.15117
0.22521	0.20219
0.14870	0.04914
0.07220	0.15117
0.14870	0.22769
0.22521	0.15117
0.14870	0.15117
0.07220	0.12566
0.14870	0.10015
0.14870	0.15117
0.07220	0.15117
0.14870	0.22769
0.14870	-0.00188
0.12320	0.22769
0.22521	0.10015
0.07220	0.20219
0.22521	0.22769
0.09770	0.17668
0.17421	0.02363
0.14870	0.22769
0.07220	-0.15492
0.17421	0.15117
0.17421	0.30422
0.14870	0.25320
0.09770	0.12566
0.14870	0.17668
0.19971	0.17668
0.09770	0.15117
0.17421	0.12566
0.14870	0.15117
0.14870	0.10015
0.14870	0.22769
0.07220	0.15117
0.14870	0.04914
0.19971	0.22769
0.17421	0.15117
0.09770	0.04914
0.07220	0.17668
0.14870	0.25320
0.19971	0.15117
0.14870	0.22769
0.09770	0.02363
0.09770	0.10015
0.14870	0.17668
0.22521	0.17668
0.14870	0.10015
0.09770	0.15117
0.22521	0.15117
0.14870	0.22769
0.09770	0.25320
0.07220	0.07465
0.17421	0.02363
0.19971	0.20219
0.12320	0.40625
0.07220	0.07465
0.14870	-0.07840
0.22521	-0.07840
0.17421	0.10015
0.07220	0.27871
0.12320	0.17668
0.25071	0.30422
0.12320	0.10015
0.09770	0.04914
0.17421	0.22769
0.22521	-0.25695
0.12320	0.35523
0.12320	0.35523
0.07220	0.35523
0.14870	0.25320
0.25071	0.38074
0.09770	0.10015
0.14870	0.10015
0.25071	-0.92016
0.09770	-0.30797
0.12320	1.35003
0.19971	0.20219
0.22521	0.63582
0.19971	0.10015
0.14870	-0.10391
-0.00431	-1.27726
0.12320	-0.12942
0.14870	0.17668
0.02119	0.53379
0.19971	1.27351
0.27621	0.07465
0.25071	-0.61406
0.14870	0.63582
0.35272	1.32453
0.04670	1.06945
-0.05531	0.76336
0.14870	-2.80773
0.04670	0.55929
0.12320	-0.71609
0.45472	0.10015
0.50573	-0.28246
0.25071	2.57441
-0.64185	2.77847
-1.04987	-5.69010
0.32721	-0.71609
0.83725	0.12566
0.53123	1.63062
0.68424	2.67644
0.12320	0.15117
-0.25932	0.43176
-0.59084	1.22250
0.22521	0.35523
0.27621	-1.68539
1.09226	1.14597
0.37822	0.81437
-0.00431	-4.61878
-0.20832	-6.86346
-0.41233	0.40625
-1.35589	6.75768
0.45472	3.00804
1.93382	2.98253
0.19971	2.06425
0.45472	-1.12422
0.32721	-1.17523
-1.66191	-3.52195
-1.86593	-2.73121
0.09770	0.20219
1.50029	4.10487
2.03582	4.43647
0.55673	-2.14453
-1.45790	5.32924
1.34728	-2.73121
1.04126	0.32972
0.12320	-10.28150
-0.31033	-2.19554
-0.18282	2.08976
0.32721	4.79358
-0.08081	3.64573
-0.41233	4.23241
-0.71835	1.57960
0.88825	0.83988
1.47479	-9.28670
-2.01894	-5.07792
-1.25389	-0.89465
1.75531	2.80397
0.68424	4.66604
2.06133	2.01323
1.06676	1.14597
-1.81492	1.70714
-0.97337	1.75816
0.32721	1.32453
0.12320	-1.07320
-0.74385	-5.02690
-0.36133	-4.97589
1.70430	-0.66508
0.65874	1.91120
0.81175	4.00284
0.58223	0.40625
0.45472	-0.92016
-0.08081	-0.58856
-0.92237	1.09496
-3.26852	0.04914
-1.68742	3.26312
1.57679	-1.02219
1.55129	-1.60887
0.93925	-0.58856
1.52579	3.05905
2.26534	2.08976
1.09226	1.14597
-0.20832	2.57441
-1.55991	-0.69059
-0.79486	-6.73592
-0.08081	-2.98628
0.60773	-0.30797
-0.87136	0.78886
-1.66191	0.73785
0.50573	1.52859
0.93925	1.88570
0.91375	1.22250
0.32721	0.43176
0.04670	-0.15492
-0.61635	0.27871
0.30171	1.17148
0.76074	-0.35899
1.16877	-2.75671
0.32721	-1.43031
-0.61635	0.81437
0.09770	1.47757
0.09770	-2.11902
-0.15732	1.68163
-0.25932	1.12046
-0.10631	-0.43551
0.14870	3.00804
0.32721	-1.63437
0.91375	-1.48133
0.02119	1.88570
-0.99887	2.59991
0.22521	-0.12942
1.19427	-1.88945
0.86275	1.40105
0.86275	3.87530
-0.13181	-2.14453
-0.28482	-7.04202
-1.27939	-1.43031
-1.02437	3.39065
0.73524	2.98253
0.78624	-1.68539
0.65874	-1.96597
0.60773	2.67644
0.76074	-0.84363
0.30171	5.22721
0.83725	-1.25176
0.37822	-2.24656
-2.37596	-4.15964
-3.44703	3.41616
-0.43783	1.55410
0.99026	-1.78742
1.11776	0.89089
2.26534	2.14077
1.65330	2.42136
1.14327	-0.53754
0.14870	-1.50683
-0.31033	0.91640
0.07220	0.76336
-0.08081	-0.43551
0.12320	-1.99148
-0.53984	2.08976
-0.71835	-0.05289
-0.31033	-0.18043
-0.00431	-5.10343
-0.08081	-0.28246
0.40372	1.83468
0.50573	1.60511
0.58223	1.01843
0.48022	1.22250
0.50573	0.96742
0.04670	-0.33348
-0.92237	0.55929
-0.89686	1.78367
0.53123	-0.35899
1.24527	-3.67499
0.76074	-1.53234
0.32721	0.76336
0.53123	4.05386
1.04126	3.77327
1.67880	-3.80253
0.88825	-3.24136
-0.38683	-0.63957
-1.91693	2.06425
-2.32496	-4.08312
-0.43783	-0.00188
1.42379	2.08976
0.48022	3.46718
-1.02437	3.72225
0.53123	1.73265
0.53123	-0.18043
1.01576	0.78886
1.11776	0.45726
0.73524	-1.73640
0.37822	-4.15964
0.42922	-4.41472
0.27621	-0.25695
-0.33583	2.08976
-0.56534	0.71234
-0.25932	-0.07840
-0.15732	1.06945
-0.00431	0.61031
0.27621	0.66132
0.35272	0.45726
-0.10631	-0.18043
-0.36133	0.68683
-0.05531	0.48277
0.55673	-1.17523
0.14870	0.50828
0.55673	-1.76191
0.27621	0.81437
0.09770	2.70194
0.93925	0.10015
0.40372	-1.22625
0.63323	-3.41992
-1.84042	-0.92016
-0.94787	1.63062
0.65874	3.62022
1.09226	1.78367
1.34728	1.60511
1.04126	-1.35379
0.30171	-0.23145
0.09770	-0.86914
-1.07538	2.65093
-0.87136	-1.86394
0.04670	0.50828
0.07220	-6.83795
0.09770	1.04394
0.17421	2.08976
0.30171	2.54890
0.17421	1.55410
-0.23382	-0.07840
-0.20832	0.53379
0.53123	0.02363
-0.61635	-1.83844
0.12320	-1.65988
0.32721	1.01843
0.96476	2.29382
1.04126	-0.41000
0.73524	-2.32308
0.32721	1.01843
-0.23382	1.63062
-0.99887	-1.02219
-0.33583	1.70714
0.17421	-1.50683
0.63323	0.40625
0.48022	1.50308
0.68424	0.53379
0.60773	0.27871
0.32721	-0.33348
-0.20832	0.55929
-0.64185	1.17148
-0.18282	-0.00188
0.73524	-2.68019
0.14870	-0.20594
-1.63641	1.06945
-0.61635	1.09496
0.99026	-2.39961
1.34728	0.04914
1.16877	0.86539
0.60773	1.37554
0.53123	0.83988
0.04670	1.01843
-0.92237	-0.02739
-0.41233	-2.68019
-0.20832	-0.00188
-0.46334	-0.18043
0.04670	1.52859
0.30171	1.68163
0.68424	-0.48652
1.19427	0.02363
0.53123	3.77327
-0.48884	-0.61406
-1.17738	-3.72601
0.07220	-4.66979
0.40372	0.83988
0.99026	2.19179
0.42922	3.08456
0.37822	1.75816
0.27621	2.47238
-0.10631	-0.15492
-0.41233	-1.17523
-0.08081	0.30422
0.19971	0.38074
-0.02981	-3.06281
-0.94787	-1.27726
0.04670	0.63582
0.68424	-0.25695
0.86275	0.02363
0.96476	0.86539
0.93925	1.52859
-0.08081	1.70714
-0.18282	-0.92016
-0.69285	-1.83844
-0.18282	2.67644
0.12320	-0.51203
0.32721	-2.62918
-1.10088	0.94191
-0.05531	0.91640
0.88825	2.29382
0.53123	0.17668
0.86275	0.40625
0.88825	-0.76711
0.50573	-0.92016
0.14870	0.07465
-0.08081	1.50308
0.22521	-0.38449
-0.92237	-0.35899
-2.45246	2.59991
0.12320	-2.24656
0.76074	-0.41000
0.93925	-1.73640
0.88825	0.20219
0.12320	0.81437
0.30171	2.01323
0.63323	0.73785
0.27621	-0.25695
0.40372	0.99292
-0.53984	2.19179
-1.07538	-1.30277
0.27621	-1.94047
0.45472	-1.76191
0.30171	1.40105
0.30171	0.48277
0.14870	-2.14453
0.07220	0.61031
0.93925	0.50828
0.25071	2.03874
0.27621	1.73265
0.27621	1.01843
0.14870	0.55929
-0.38683	1.17148
-0.28482	-2.96078
0.42922	-0.92016
0.19971	0.96742
-0.00431	0.53379
0.09770	4.41096
-0.48884	-3.39441
-0.18282	-6.55737
-0.23382	-0.69059
0.78624	1.47757
0.91375	3.00804
0.50573	2.54890
0.78624	1.42656
0.65874	0.83988
0.19971	0.04914
-0.41233	-0.02739
-0.08081	-0.23145
-0.31033	0.48277
-0.13181	-2.57816
-0.05531	-1.14973
0.22521	0.45726
-0.38683	1.32453
-0.23382	0.63582
0.68424	-0.20594
0.60773	0.45726
0.09770	0.10015
0.68424	0.53379
-0.13181	0.30422
0.30171	-1.60887
-0.25932	-0.79262
-0.13181	-0.84363
0.32721	2.88050
0.70974	-1.58336
-0.15732	-0.15492
-0.23382	2.06425
-0.33583	1.45206
0.32721	0.48277
0.91375	0.73785
0.73524	1.14597
0.53123	3.39065
0.35272	-7.50115
0.68424	-4.03210
-0.18282	0.15117
-2.42696	1.50308
-0.92237	2.14077
0.12320	1.55410
0.42922	0.66132
0.91375	0.89089
0.70974	0.20219
1.06676	0.40625
0.68424	-0.69059
0.65874	-0.15492
0.07220	-1.65988
-0.18282	-0.71609
-0.53984	1.22250
-0.33583	0.40625
-0.23382	-1.83844
0.07220	1.68163
0.14870	3.49268
-0.43783	-0.97117
-0.48884	-2.80773
0.53123	0.25320
1.01576	0.68683
0.96476	0.15117
-0.00431	2.39585
0.42922	1.01843
0.83725	0.02363
0.83725	1.09496
-1.20288	-0.25695
-3.03900	-1.02219
-0.18282	1.19699
0.86275	-1.07320
1.57679	-1.86394
1.65330	0.94191
2.31634	-1.48133
1.32178	-2.75671
0.02119	-0.10391
-2.22295	1.06945
-0.99887	2.47238
-0.36133	2.57441
-0.84586	1.73265
-1.10088	0.86539
0.53123	0.30422
1.42379	-1.68539
1.93382	-0.20594
1.70430	-0.53754
1.44929	-1.37929
-1.50890	0.53379
-2.22295	-0.25695
-0.79486	0.50828
0.86275	0.61031
1.42379	1.12046
0.02119	0.04914
-1.91693	-0.97117
0.68424	-3.19035
0.70974	-1.09871
1.24527	2.26831
1.83181	0.61031
1.88281	4.41096
-0.48884	-0.66508
-3.37052	0.38074
-1.12638	0.12566
-0.33583	0.20219
0.58223	-0.35899
1.57679	-0.81812
1.42379	1.17148
1.09226	-0.10391
1.01576	-1.27726
-0.00431	2.65093
-1.04987	1.06945
-1.76392	-0.89465
-0.92237	-3.11382
0.30171	-0.18043
0.55673	-0.02739
0.14870	2.34484
0.76074	0.71234
0.91375	-0.79262
0.60773	1.42656
0.04670	0.12566
-0.33583	-0.18043
-0.38683	0.55929
-0.13181	0.76336
0.63323	0.91640
0.48022	0.48277
0.09770	-0.05289
0.32721	0.50828
0.27621	-0.35899
0.14870	-0.76711
0.12320	-2.60367
0.09770	2.08976
-0.66735	0.12566
-0.74385	1.68163
0.83725	0.71234
0.96476	-4.33819
0.58223	0.55929
0.73524	0.25320
0.53123	-1.09871
0.02119	2.01323
-0.59084	1.57960
-0.20832	2.85499
-0.59084	0.53379
-0.79486	-1.81293
0.45472	-0.53754
0.91375	0.71234
0.68424	0.91640
1.37278	1.80917
1.01576	-1.58336
0.37822	-4.74632
-2.47797	-0.33348
-3.49803	0.35523
0.02119	1.88570
1.14327	1.01843
1.47479	1.91120
1.52579	-0.05289
1.37278	-0.38449
0.93925	1.04394
0.32721	0.45726
0.17421	-1.30277
-0.28482	0.32972
-0.84586	1.01843
-1.35589	-3.36890
-0.59084	0.40625
0.37822	0.48277
-0.92237	2.26831
0.63323	1.35003
1.19427	1.17148
1.14327	1.40105
0.96476	0.50828
-0.79486	0.71234
-0.89686	-3.29238
1.47479	-3.24136
0.17421	0.22769
-0.36133	0.78886
-0.13181	1.09496
0.25071	0.96742
0.83725	2.88050
0.60773	0.68683
-0.15732	-6.22577
-0.66735	-1.43031
0.48022	2.14077
0.32721	1.01843
0.14870	0.04914
0.07220	1.35003
0.27621	0.61031
0.35272	1.17148
0.60773	1.17148
-0.05531	0.58480
-0.38683	0.15117
-0.38683	-2.11902
-0.56534	-1.09871
-0.41233	-0.63957
0.30171	-0.66508
0.76074	-0.15492
0.88825	3.87530
0.70974	-0.10391
0.65874	-0.35899
0.07220	0.81437
0.27621	-0.35899
0.35272	1.68163
-0.46334	-0.94566
-1.12638	-1.22625
-0.05531	-0.53754
0.17421	-0.84363
0.45472	1.65613
0.25071	1.75816
0.22521	0.15117
0.65874	-3.52195
-0.25932	-0.02739
-0.59084	1.17148
-0.51434	1.88570
0.68424	1.29902
0.60773	0.73785
0.19971	0.55929
0.12320	0.71234
0.22521	-3.52195
0.70974	0.12566
0.68424	-1.07320
0.58223	0.27871
0.48022	0.22769
-0.82036	1.06945
-1.38139	-0.71609
-0.00431	0.91640
0.12320	0.45726
0.60773	0.91640
1.16877	0.35523
1.24527	1.12046
-0.51434	-0.12942
-3.42153	-0.61406
-0.00431	-1.07320
1.14327	0.48277
1.52579	1.01843
1.42379	0.81437
1.09226	-0.41000
0.37822	-0.25695
0.35272	0.89089
-0.43783	2.31933
-0.97337	-2.68019
-0.43783	-3.67499
-0.10631	0.35523
-0.48884	0.76336
0.14870	1.52859
0.30171	1.80917
0.63323	1.40105
0.45472	2.01323
0.63323	-1.35379
0.40372	-3.06281
0.19971	1.29902
0.48022	1.52859
0.17421	-0.84363
-0.08081	0.71234
-1.12638	1.75816
-1.17738	-0.61406
0.81175	-0.30797
0.50573	-0.15492
0.99026	-2.14453
0.73524	1.22250
0.07220	0.55929
0.22521	0.76336
0.60773	0.63582
0.63323	0.53379
0.45472	-0.35899
-2.45246	-0.79262
-2.14644	0.15117
1.01576	-0.89465
1.29628	-0.20594
1.11776	1.68163
0.81175	2.26831
0.73524	-3.24136
0.83725	-2.27207
-0.41233	-1.02219
-1.84042	1.24800
-1.25389	3.00804
0.76074	2.08976
0.63323	1.75816
0.40372	0.58480
0.78624	0.22769
0.81175	-0.30797
0.40372	-0.46102
1.01576	-0.58856
-0.08081	-0.20594
-0.69285	-0.89465
-0.82036	-0.76711
0.27621	0.55929
0.35272	-0.07840
0.40372	0.81437
0.12320	-1.58336
0.17421	-2.39961
-0.15732	0.45726
0.48022	1.57960
0.48022	2.57441
0.45472	0.58480
-0.76936	0.96742
-0.25932	1.80917
0.22521	-3.11382
0.27621	0.48277
0.12320	0.58480
0.48022	0.45726
0.55673	0.07465
0.12320	0.81437
0.73524	-0.00188
0.45472	-0.56305
-0.20832	-0.48652
-0.94787	-0.18043
-0.79486	1.01843
-0.10631	-1.60887
0.68424	-3.70050
1.01576	0.50828
0.78624	1.57960
0.42922	-0.86914
-0.20832	2.57441
-2.73298	2.39585
-0.20832	2.31933
1.14327	0.32972
1.50029	-0.58856
1.34728	0.89089
0.81175	-0.76711
-1.25389	1.55410
-1.45790	-0.81812
0.58223	-4.36370
0.91375	-1.09871
1.19427	-0.43551
0.32721	2.01323
-0.05531	1.37554
-0.61635	2.16628
-1.38139	1.80917
0.42922	0.04914
0.73524	-0.30797
0.83725	-0.84363
0.63323	1.78367
0.27621	-3.41992
-0.08081	0.15117
0.27621	-0.35899
-0.00431	1.45206
-0.25932	2.01323
0.14870	-1.63437
0.58223	-2.01699
-0.48884	2.34484
-1.71292	0.15117
-0.43783	0.20219
0.50573	0.99292
1.55129	1.47757
1.27078	-0.10391
0.96476	0.61031
0.55673	-0.43551
0.02119	-0.33348
-0.02981	0.48277
-0.36133	0.38074
-0.08081	-0.56305
-0.02981	1.12046
-1.38139	0.12566
-0.05531	-2.62918
0.45472	-2.29757
-0.00431	0.20219
-0.59084	2.98253
0.07220	1.37554
0.96476	0.68683
0.42922	0.73785
0.93925	-0.99668
0.53123	1.42656
0.45472	1.19699
-0.20832	-0.97117
0.09770	-0.12942
0.17421	0.73785
-0.18282	-0.53754
0.55673	2.16628
0.30171	-3.13933
-0.15732	-2.11902
-0.84586	-0.79262
-0.28482	-1.07320
0.35272	2.34484
0.30171	1.96222
-0.56534	0.55929
0.27621	2.39585
0.88825	1.06945
0.53123	-0.46102
-0.05531	-1.99148
-0.61635	0.10015
0.30171	0.02363
0.37822	1.35003
0.55673	2.14077
1.04126	-0.15492
-0.97337	-2.42511
-2.37596	-1.94047
0.25071	1.32453
1.44929	0.04914
1.24527	1.93671
0.45472	0.30422
-0.00431	0.63582
0.40372	-1.04770
0.53123	-0.07840
-0.02981	0.76336
0.09770	0.04914
-0.05531	-1.14973
0.04670	1.52859
0.07220	-0.76711
-0.59084	-0.74160
-0.38683	1.04394
-0.33583	-2.42511
-0.15732	1.22250
0.48022	1.40105
0.81175	0.86539
1.14327	0.35523
-0.13181	0.63582
-0.48884	0.78886
0.37822	-0.61406
1.37278	-1.58336
0.63323	-0.41000
-1.50890	0.45726
0.02119	0.76336
1.29628	-0.38449
0.88825	0.38074
0.48022	1.40105
-1.40690	2.49788
-0.66735	-3.06281
0.42922	-2.62918
0.70974	-0.48652
0.37822	1.78367
0.37822	3.95182
0.14870	0.35523
-0.15732	-1.55785
-0.28482	-0.63957
-0.43783	0.38074
-0.36133	2.03874
0.22521	0.35523
0.37822	-0.43551
0.86275	0.25320
0.68424	0.07465
0.65874	1.47757
-0.08081	-0.58856
-0.69285	-1.71090
0.27621	-3.39441
0.14870	1.88570
0.17421	1.98773
0.19971	0.04914
-0.02981	1.09496
0.30171	1.75816
0.30171	-5.10343
0.32721	0.02363
-0.74385	2.08976
-0.00431	1.86019
0.53123	1.75816
0.93925	2.59991
1.39828	-0.76711
0.30171	-1.63437
-0.51434	-2.09351
-1.40690	0.27871
-0.41233	0.20219
0.42922	0.40625
1.24527	1.35003
1.34728	0.94191
0.78624	-2.88425
-1.48340	-1.27726
-1.84042	1.06945
-0.25932	0.86539
0.83725	0.96742
1.04126	0.61031
0.35272	0.22769
0.73524	0.10015
0.53123	0.73785
0.17421	0.48277
0.42922	0.43176
-0.41233	0.89089
-0.25932	-0.99668
-0.43783	-2.50164
0.32721	-0.86914
0.88825	2.11527
-0.43783	-1.43031
-0.69285	-0.25695
0.19971	2.03874
0.32721	0.76336
0.78624	1.47757
0.91375	0.35523
1.06676	-0.05289
-0.00431	0.02363
-0.56534	1.93671
-0.33583	-1.63437
0.14870	-2.24656
0.09770	1.47757
-0.20832	1.29902
-0.20832	0.04914
0.53123	1.12046
0.91375	0.76336
0.12320	-2.04250
0.19971	-3.11382
-0.10631	0.61031
0.27621	1.17148
0.09770	1.42656
-0.02981	0.53379
-0.79486	0.86539
-1.53441	1.22250
0.25071	1.19699
0.73524	-2.01699
1.67880	0.86539
1.27078	-1.91496
0.83725	0.32972
0.42922	-0.23145
0.02119	-0.69059
0.22521	2.26831
0.30171	0.22769
-0.15732	-0.05289
-1.17738	1.27351
-1.50890	1.17148
-0.25932	0.89089
-0.05531	-1.35379
0.42922	-1.96597
1.01576	-0.61406
0.70974	0.96742
0.60773	1.70714
0.37822	1.93671
0.30171	0.55929
0.88825	-0.35899
-0.08081	-0.61406
-0.10631	-0.02739
-2.40146	-1.78742
-1.02437	-0.41000
1.11776	0.78886
1.50029	0.55929
1.39828	-0.15492
1.39828	1.78367
1.24527	0.25320
0.25071	-1.20074
-1.61091	-0.30797
-1.68742	1.27351
-1.22839	1.45206
0.65874	0.20219
0.96476	-0.18043
1.37278	1.47757
0.55673	1.50308
0.04670	-4.69530
0.30171	-2.09351
0.22521	0.76336
-0.66735	1.27351
-0.10631	2.03874
0.48022	2.29382
0.81175	1.55410
0.48022	-1.17523
-2.73298	0.32972
-1.55991	0.43176
1.11776	-0.25695
1.57679	-1.65988
1.47479	0.73785
1.09226	-1.53234
0.48022	-0.05289
0.32721	0.55929
0.27621	-0.18043
-0.66735	-0.18043
-0.51434	0.04914
-0.33583	1.06945
-0.59084	0.99292
-0.18282	-0.15492
0.02119	0.07465
0.55673	2.44687
0.17421	0.76336
0.45472	-1.55785
0.50573	-0.48652
0.37822	2.52339
0.63323	1.37554
0.88825	-3.57296
-0.74385	-2.60367
-1.94243	1.42656
0.73524	1.27351
0.91375	0.86539
0.91375	0.15117
0.02119	1.14597
0.02119	-1.02219
0.40372	-1.40480
0.32721	0.04914
-0.10631	1.75816
0.09770	0.45726
-0.08081	0.04914
-0.36133	-0.56305
-0.76936	0.94191
0.53123	-0.18043
0.68424	-1.30277
0.25071	-0.53754
0.42922	0.22769
0.27621	0.63582
0.07220	1.04394
-0.08081	1.98773
-0.02981	1.63062
0.37822	-1.88945
0.68424	-3.98109
0.76074	0.35523
0.50573	2.14077
-0.18282	1.88570
-0.56534	-0.66508
-1.10088	-2.29757
-0.84586	0.66132
0.53123	1.93671
1.24527	1.12046
0.81175	1.19699
-0.46334	-0.15492
-0.69285	-0.12942
-0.28482	-0.69059
0.22521	-0.20594
0.99026	-0.28246
0.73524	-0.61406
0.48022	0.20219
0.32721	0.63582
0.32721	0.07465
0.02119	-0.79262
-0.28482	0.78886
-0.25932	0.04914
0.25071	-0.63957
0.35272	0.15117
-0.18282	1.50308
-1.40690	0.94191
-0.59084	-3.24136
0.63323	-0.18043
0.63323	1.35003
0.86275	1.27351
0.63323	1.06945
0.25071	1.27351
0.42922	0.71234
0.32721	-0.61406
0.19971	-1.17523
-0.33583	-0.20594
-0.36133	0.86539
-0.25932	0.35523
0.40372	-2.96078
0.81175	-1.68539
0.53123	0.55929
0.22521	1.91120
0.17421	1.04394
0.09770	0.20219
0.12320	0.45726
-1.02437	-0.20594
-0.08081	-0.02739
0.40372	0.35523
0.27621	0.50828
0.48022	0.38074
0.12320	0.48277
0.22521	0.10015
0.25071	-0.30797
0.42922	0.30422
-0.13181	0.07465
0.32721	-0.48652
-0.18282	-0.48652
-0.18282	0.76336
0.02119	1.47757
-0.02981	-0.97117
0.83725	-3.67499
0.83725	0.63582
0.48022	1.12046
0.12320	2.77847
0.02119	0.58480
0.12320	-0.97117
0.02119	0.58480
-0.08081	0.76336
-0.10631	0.81437
-0.10631	0.66132
0.02119	0.61031
0.35272	-0.86914
0.25071	0.02363
-0.18282	-0.38449
-0.20832	-0.81812
0.53123	-2.19554
0.42922	0.35523
-0.10631	0.96742
-0.25932	0.83988
0.58223	0.66132
0.53123	0.94191
0.12320	1.27351
0.55673	-0.48652
0.58223	-1.68539
0.70974	0.78886
-0.51434	-0.63957
-0.69285	0.12566
0.42922	0.78886
0.58223	0.12566
-0.08081	0.73785
-0.94787	-0.35899
-0.10631	0.02363
0.17421	-0.20594
-0.00431	0.30422
0.73524	0.86539
0.50573	0.73785
0.65874	0.45726
0.35272	0.45726
-0.31033	-0.00188
-0.10631	-0.69059
0.02119	-0.23145
0.53123	-0.94566
0.40372	0.83988
-0.18282	0.48277
0.22521	-0.05289
-0.15732	-1.76191
0.42922	0.48277
0.60773	-0.30797
0.37822	1.17148
0.07220	1.57960
0.04670	2.57441
0.32721	-0.56305
0.63323	-0.69059
-0.51434	-0.51203
-1.27939	0.10015
-0.79486	0.25320
0.58223	0.17668
0.93925	1.12046
0.42922	1.37554
0.32721	-4.28718
0.27621	-0.69059
0.09770	0.96742
0.99026	-1.04770
0.63323	0.61031
0.27621	1.42656
-0.36133	0.86539
-0.00431	1.27351
-0.61635	1.32453
-1.61091	0.38074
0.27621	-2.62918
0.78624	-1.99148
0.99026	1.63062
1.01576	2.26831
0.37822	-1.04770
0.14870	0.99292
-0.43783	-1.35379
-1.02437	-3.29238
0.37822	2.03874
0.93925	0.55929
0.55673	0.63582
-0.02981	0.96742
-0.31033	0.68683
0.02119	0.58480
0.53123	0.15117
0.58223	-0.05289
0.32721	-0.12942
0.02119	-0.35899
-0.02981	-0.20594
0.58223	0.38074
0.63323	-1.09871
-2.42696	-0.56305
-1.61091	1.09496
0.53123	0.20219
1.11776	0.20219
1.52579	1.40105
1.27078	1.52859
0.55673	-0.99668
0.07220	-0.71609
0.50573	-2.27207
0.17421	1.86019
-0.38683	1.60511
-0.94787	-0.48652
-0.13181	-1.04770
-0.02981	0.91640
0.42922	0.99292
0.58223	1.04394
0.63323	1.01843
-0.66735	-0.63957
-1.45790	-2.24656
0.30171	1.47757
1.01576	-1.40480
0.48022	-0.76711
0.55673	-0.99668
0.83725	0.53379
0.42922	1.86019
0.25071	0.76336
0.07220	1.29902
-0.23382	0.89089
-0.05531	0.94191
0.17421	-0.30797
0.22521	-0.51203
0.14870	-1.32828
0.30171	-0.18043
-0.08081	0.15117
-0.10631	-0.92016
-0.02981	1.06945
0.09770	0.94191
0.30171	0.50828
0.07220	-1.60887
0.14870	0.61031
-0.36133	0.94191
-1.15188	0.73785
0.09770	1.01843
0.91375	-0.81812
1.11776	0.12566
0.81175	0.61031
1.37278	0.68683
0.83725	0.17668
-0.56534	-0.97117
-2.35046	-0.07840
-0.18282	-0.89465
0.63323	-0.86914
1.04126	1.27351
0.96476	1.17148
0.25071	-0.99668
-0.08081	2.31933
-0.25932	0.53379
-0.08081	-3.70050
0.27621	-0.15492
0.14870	1.37554
-0.64185	2.03874
-1.25389	0.83988
0.17421	0.43176
1.04126	0.89089
0.88825	-0.07840
0.48022	-1.02219
-0.10631	-1.45582
0.19971	-0.15492
0.25071	0.04914
-0.10631	-0.71609
0.19971	0.94191
1.37278	-0.28246
-0.31033	-0.46102
0.37822	0.15117
0.04670	0.27871
0.25071	0.83988
-0.13181	0.15117
0.09770	0.94191
-0.15732	0.15117
0.07220	0.83988
-0.08081	-2.45062
0.50573	0.78886
0.40372	1.24800
0.42922	1.04394
0.09770	1.86019
0.02119	0.68683
-0.79486	-2.29757
-0.46334	-2.32308
0.35272	-0.15492
0.86275	0.91640
0.86275	-0.56305
0.40372	0.35523
0.55673	0.96742
0.53123	1.52859
0.07220	0.61031
0.12320	-0.74160
-0.97337	-0.84363
-1.91693	-1.78742
-0.08081	0.76336
1.37278	1.22250
1.14327	0.71234
0.73524	1.78367
0.53123	-0.12942
0.35272	0.45726
0.27621	0.58480
0.09770	-1.17523
-0.41233	-2.80773
-0.02981	0.12566
-1.35589	2.03874
-0.66735	2.24281
0.17421	-3.85355
0.76074	0.76336
0.91375	2.34484
1.01576	1.86019
1.09226	-1.78742
-0.23382	-2.17003
-1.25389	0.86539
-0.05531	1.37554
-0.18282	1.09496
0.35272	0.07465
0.73524	0.78886
0.73524	-0.15492
0.73524	0.43176
0.42922	-1.94047
-0.02981	1.86019
-0.28482	-0.86914
0.14870	-1.02219
-0.10631	1.01843
-0.00431	1.32453
-0.08081	0.20219
-0.05531	-0.61406
-0.15732	-1.58336
-0.10631	1.17148
-0.48884	-0.05289
0.55673	-0.46102
0.68424	1.12046
0.50573	1.01843
0.70974	0.99292
0.14870	0.66132
0.68424	1.63062
0.32721	0.27871
-0.28482	-3.21585
-0.71835	-2.52714
-0.71835	-1.27726
-0.02981	1.55410
0.63323	1.17148
0.45472	1.42656
0.09770	2.19179
0.55673	-0.10391
0.35272	-0.79262
0.12320	0.27871
-0.46334	0.12566
0.25071	-0.63957
-0.69285	0.15117
-0.13181	-0.35899
0.68424	0.25320
0.60773	0.58480
0.30171	-0.28246
-0.13181	-0.61406
0.35272	-0.99668
0.60773	1.68163
0.40372	0.48277
0.09770	0.96742
0.09770	0.22769
0.17421	-0.69059
0.42922	0.53379
0.37822	0.61031
-0.64185	0.96742
-0.99887	0.40625
-0.56534	-0.20594
0.09770	-2.55265
0.81175	0.07465
1.75531	0.40625
0.68424	1.40105
0.25071	0.99292
-0.38683	-0.41000
-0.92237	-0.38449
-0.76936	-0.02739
1.16877	0.96742
1.09226	-1.30277
1.11776	-0.30797
0.63323	0.35523
0.45472	0.43176
-0.02981	0.66132
-0.33583	2.26831
-0.36133	1.55410
-1.10088	-0.81812
-0.89686	-1.20074
0.45472	-1.04770
0.53123	0.02363
0.53123	0.78886
0.45472	0.96742
0.40372	0.81437
0.63323	1.37554
0.22521	-0.20594
-0.23382	-1.12422
-0.51434	-1.02219
-0.66735	-0.92016
0.12320	-0.05289
1.11776	0.91640
0.70974	1.17148
0.65874	0.40625
-0.38683	0.89089
-0.02981	1.14597
0.32721	-0.79262
0.40372	-1.04770
0.53123	0.35523
-0.05531	0.81437
-0.28482	1.27351
-0.05531	0.22769
0.60773	-1.83844
-0.25932	-0.86914
-0.23382	1.32453
-0.00431	0.55929
-0.00431	1.60511
0.63323	0.45726
0.37822	-2.11902
-0.23382	1.01843
0.09770	1.06945
0.37822	-0.23145
0.37822	1.40105
0.19971	-0.74160
0.35272	0.12566
-0.10631	1.40105
-0.15732	-1.22625
-0.18282	-1.53234
-0.00431	-0.41000
0.22521	1.42656
0.45472	1.32453
0.88825	0.17668
0.86275	-2.11902
0.86275	-0.81812
-0.38683	1.40105
-0.69285	1.37554
-0.64185	1.47757
0.07220	0.58480
0.68424	-0.56305
0.09770	0.78886
0.32721	-1.02219
0.07220	-1.07320
0.09770	1.17148
0.40372	0.15117
0.48022	0.63582
0.50573	0.61031
0.07220	-1.99148
-0.48884	-0.05289
-0.23382	0.53379
-0.08081	0.86539
0.22521	0.86539
0.30171	0.40625
0.53123	0.17668
0.19971	0.91640
-0.10631	-0.30797
0.30171	-0.79262
0.68424	-0.86914
0.07220	0.58480
0.14870	0.68683
0.22521	0.17668
0.73524	0.12566
-0.61635	0.78886
-0.79486	1.78367
-0.10631	-1.04770
0.12320	-2.60367
0.58223	0.22769
0.68424	0.48277
0.53123	0.53379
0.48022	0.83988
0.12320	1.65613
0.19971	1.14597
-0.10631	-0.07840
0.09770	-0.43551
0.12320	-0.15492
0.12320	-0.53754
-0.13181	0.61031
-0.53984	-0.38449
-0.10631	-1.45582
0.30171	0.40625
0.60773	-0.20594
0.78624	-0.28246
0.60773	1.37554
-0.61635	1.50308
-0.99887	-0.02739
0.09770	-2.45062
1.21977	0.76336
0.83725	1.40105
-0.18282	0.45726
-0.02981	0.20219
0.02119	-0.10391
0.35272	0.94191
0.40372	0.07465
0.32721	-0.48652
0.25071	0.35523
-0.00431	-1.22625
-0.05531	-1.20074
0.09770	-1.07320
-0.02981	1.27351
-0.33583	0.32972
-0.23382	0.89089
0.19971	1.32453
0.65874	0.83988
0.02119	-0.33348
-0.48884	-0.79262
-0.02981	0.94191
-0.00431	0.07465
0.63323	-0.51203
0.73524	-0.23145
0.42922	0.55929
0.86275	1.42656
0.55673	1.04394
-0.08081	-0.76711
-0.71835	-0.00188
-0.92237	1.06945
-0.46334	0.10015
0.58223	-1.09871
0.76074	-2.29757
0.93925	0.76336
0.58223	0.76336
-0.08081	1.19699
-0.15732	1.27351
-0.25932	0.30422
-0.38683	0.40625
-0.56534	-1.68539
0.22521	-0.86914
0.76074	-0.35899
0.76074	0.78886
0.53123	1.17148
-0.10631	1.12046
0.17421	0.63582
0.02119	-1.07320
0.27621	0.66132
-0.33583	0.86539
-0.13181	-0.33348
0.07220	0.96742
-0.02981	-2.19554
0.63323	-1.14973
1.39828	-0.56305
-0.25932	1.52859
-0.74385	1.52859
0.02119	1.73265
0.48022	0.15117
0.99026	-0.71609
0.50573	-0.61406
0.32721	0.68683
0.07220	0.27871
-0.15732	0.30422
-0.20832	0.17668
-0.28482	0.50828
-0.59084	0.22769
0.22521	-0.61406
0.58223	-1.22625
0.48022	0.43176
-0.00431	-1.48133
-0.92237	-0.53754
-0.31033	1.45206
0.58223	1.24800
0.50573	0.94191
0.50573	1.04394
0.45472	1.88570
0.37822	0.02363
0.42922	-3.57296
-0.33583	-0.15492
0.07220	1.22250
0.07220	0.45726
0.53123	0.78886
0.14870	1.65613
0.12320	-0.35899
0.35272	-1.68539
0.42922	0.81437
-0.02981	0.04914
-0.69285	0.04914
-1.33039	0.10015
0.25071	-1.12422
0.96476	1.27351
0.88825	1.04394
0.76074	1.22250
0.53123	-0.74160
0.14870	-0.35899
-0.28482	-0.56305
-0.15732	0.96742
0.25071	0.04914
0.50573	-0.69059
-0.18282	-0.74160
-0.02981	0.25320
-0.02981	0.55929
0.35272	0.27871
0.22521	1.24800
-0.05531	-0.51203
0.07220	0.32972
-0.05531	0.02363
0.04670	0.32972
0.22521	0.71234
0.55673	0.50828
0.40372	0.10015
0.37822	-0.05289
-0.18282	-0.15492
0.02119	0.45726
0.12320	1.55410
0.07220	-0.69059
0.17421	-3.62398
0.27621	-0.43551
-0.20832	-0.33348
-0.51434	0.61031
-0.23382	0.99292
0.76074	1.57960
0.73524	1.04394
0.55673	0.55929
0.09770	0.35523
0.14870	-0.76711
0.19971	-0.61406
0.37822	1.22250
0.04670	0.15117
-0.31033	0.68683
-0.10631	-0.28246
0.09770	-0.97117
-0.05531	-0.66508
0.04670	1.06945
0.27621	0.02363
0.27621	-0.07840
0.12320	-0.12942
-0.00431	-0.00188
-1.02437	0.94191
0.32721	-0.05289
1.75531	-0.33348
0.37822	1.65613
0.53123	0.99292
0.53123	-1.17523
0.42922	-0.20594
-0.05531	0.78886
-0.33583	0.94191
-0.59084	-2.37410
-0.33583	-0.33348
0.30171	1.27351
0.37822	0.02363
0.42922	-0.02739
0.12320	0.17668
-0.10631	-0.18043
0.22521	1.04394
0.04670	0.30422
0.40372	-0.20594
-0.08081	1.37554
-0.33583	-0.00188
0.02119	-0.33348
0.63323	-0.63957
0.40372	0.30422
-0.25932	1.80917
0.37822	0.94191
0.35272	-1.88945
0.48022	-3.34339
-0.08081	-0.35899
-0.33583	1.04394
-0.08081	2.42136
-0.31033	-0.76711
0.42922	0.86539
0.83725	1.12046
0.30171	0.04914
-0.36133	0.07465
0.09770	-0.58856
0.27621	0.50828
1.09226	0.30422
-0.02981	0.02363
-0.10631	0.04914
0.09770	0.30422
-0.59084	-0.86914
0.12320	0.02363
0.37822	-0.46102
-0.41233	0.50828
-0.74385	0.45726
0.65874	1.73265
0.99026	-2.45062
1.24527	-1.35379
-0.38683	-0.10391
-0.18282	1.50308
0.63323	1.50308
0.68424	1.37554
0.55673	1.06945
0.73524	0.86539
-0.61635	1.14597
-1.43240	-1.25176
-0.38683	-4.23616
0.22521	-0.30797
0.35272	1.27351
0.63323	1.32453
0.58223	1.17148
0.42922	0.22769
0.48022	-0.89465
0.48022	0.66132
-1.30489	-0.76711
-0.15732	-0.07840
0.22521	1.75816
0.73524	-0.30797
0.37822	-0.66508
0.37822	-0.46102
0.53123	0.68683
0.27621	0.71234
0.27621	0.30422
0.12320	0.10015
-0.51434	0.53379
-0.43783	0.81437
0.19971	-0.92016
0.55673	0.35523
0.02119	0.22769
-0.61635	0.30422
0.35272	-1.32828
0.96476	0.10015
1.52579	2.26831
-0.31033	1.12046
-0.92237	-1.71090
0.40372	-2.22105
0.63323	1.70714
0.53123	0.91640
0.42922	1.88570
0.30171	1.86019
-0.59084	-0.28246
-0.28482	-0.66508
0.02119	-0.15492
0.04670	-0.53754
0.27621	-0.30797
0.17421	-0.56305
0.07220	0.32972
-0.20832	-0.20594
-0.25932	0.15117
0.12320	0.48277
0.50573	0.61031
0.40372	1.37554
0.35272	0.25320
-0.00431	-1.27726
0.07220	-0.92016
0.27621	0.40625
0.53123	0.96742
-0.10631	0.66132
-0.31033	0.10015
0.19971	0.17668
0.37822	-0.25695
0.22521	-0.99668
0.19971	0.81437
0.04670	0.76336
-0.13181	1.01843
0.48022	0.96742
0.40372	-1.88945
-0.51434	-0.46102
0.37822	-0.35899
0.40372	1.45206
-0.00431	1.14597
-0.64185	-0.92016
-0.53984	0.02363
1.11776	0.15117
0.58223	0.32972
0.50573	-0.41000
-0.08081	0.94191
-0.59084	0.96742
-0.53984	-1.73640
0.58223	-2.42511
0.63323	0.55929
0.65874	1.32453
0.53123	0.53379
0.14870	1.57960
0.19971	0.71234
-0.08081	-0.69059
-0.13181	-0.12942
-0.36133	-0.41000
-0.38683	1.17148
0.35272	0.20219
0.40372	-0.10391
0.09770	0.15117
0.60773	0.81437
0.48022	0.68683
-0.25932	-1.60887
-0.02981	-0.63957
0.07220	-0.00188
0.27621	-0.00188
0.53123	-0.66508
0.60773	0.66132
-0.69285	0.91640
-0.28482	-0.23145
0.70974	-0.15492
0.78624	0.63582
0.60773	-0.15492
0.17421	1.32453
-0.02981	0.50828
0.19971	0.12566
-0.10631	0.48277
-0.08081	0.04914
-0.41233	0.20219
0.02119	-0.58856
-0.02981	1.14597
-0.18282	-0.69059
-0.46334	-1.60887
0.35272	-1.63437
0.37822	1.42656
0.35272	1.14597
0.96476	-0.61406
0.42922	0.96742
-0.08081	0.25320
-0.20832	-0.46102
-0.23382	0.99292
0.48022	0.68683
0.48022	0.86539
0.42922	-0.07840
0.22521	-0.05289
0.12320	0.10015
0.32721	-0.86914
-0.18282	-0.81812
-0.61635	0.73785
-0.33583	0.78886
-0.38683	1.37554
0.02119	-0.18043
0.32721	-1.45582
0.68424	-1.68539
0.81175	-0.05289
0.78624	1.52859
0.91375	2.70194
0.78624	0.22769
-0.94787	-2.80773
-1.12638	0.12566
-1.04987	1.17148
0.42922	1.45206
1.01576	0.76336
0.99026	0.38074
0.91375	-0.25695
0.53123	0.40625
0.19971	-0.81812
0.07220	-2.04250
-0.25932	0.43176
-0.66735	0.71234
-0.79486	1.80917
0.04670	1.40105
0.70974	-3.06281
0.19971	-1.68539
0.14870	0.73785
0.19971	2.29382
0.73524	1.88570
0.63323	0.50828
0.09770	-2.70570
-0.46334	-2.01699
-0.59084	2.26831
0.22521	1.93671
0.68424	0.86539
0.40372	0.96742
0.02119	0.55929
0.58223	-0.66508
0.40372	-0.18043
0.07220	-0.33348
-0.64185	-0.79262
-0.28482	-0.12942
0.45472	-0.10391
0.58223	-0.89465
0.14870	0.32972
-0.20832	0.45726
-0.25932	-0.25695
0.40372	0.66132
0.55673	1.24800
-0.08081	0.73785
-0.15732	-0.05289
0.22521	-0.86914
0.32721	-0.15492
0.17421	1.24800
0.32721	0.27871
0.32721	0.15117
0.12320	0.15117
0.19971	0.63582
0.14870	0.43176
0.32721	0.76336
-0.10631	0.35523
-0.08081	-1.12422
-0.20832	-1.73640
0.22521	0.38074
-0.38683	0.53379
0.45472	0.27871
0.68424	0.07465
0.70974	0.35523
0.70974	0.83988
0.22521	0.58480
-0.38683	0.55929
0.12320	-0.92016
-0.48884	-1.71090
-1.71292	-2.39961
0.12320	2.14077
0.96476	2.06425
1.21977	1.45206
0.96476	-0.28246
0.65874	0.78886
0.32721	0.76336
0.02119	0.07465
0.04670	0.66132
0.02119	1.12046
-0.61635	-1.53234
-0.15732	-2.24656
-0.18282	-1.86394
-0.84586	0.07465
-0.38683	1.32453
0.53123	1.52859
1.09226	0.86539
0.65874	0.07465
0.60773	-0.05289
0.17421	1.19699
-0.13181	-1.22625
0.07220	-0.92016
-0.18282	1.14597
-0.05531	-0.30797
0.37822	1.70714
0.27621	-0.23145
0.30171	-0.10391
0.70974	0.17668
0.32721	-0.23145
-0.41233	0.10015
-0.02981	0.43176
0.07220	0.99292
0.07220	-1.12422
0.14870	0.15117
-0.20832	0.38074
0.12320	0.38074
0.09770	0.02363
0.37822	0.43176
0.53123	1.22250
-0.10631	-1.76191
-0.05531	-2.50164
-0.05531	1.19699
-0.10631	0.76336
-0.33583	0.40625
0.63323	0.50828
0.70974	0.53379
0.48022	1.50308
0.27621	-0.84363
-0.13181	-0.94566
0.25071	1.55410
0.14870	-1.88945
0.14870	-0.69059
-0.28482	1.35003
-0.41233	1.09496
0.53123	-0.28246
0.09770	1.63062
-0.13181	-0.69059
0.42922	-1.76191
0.73524	0.50828
0.55673	1.24800
0.37822	0.96742
-1.20288	0.35523
-0.87136	0.94191
0.53123	0.55929
0.65874	-0.48652
0.48022	-0.51203
0.48022	0.10015
-0.08081	-0.84363
-0.41233	-0.51203
0.17421	-1.68539
0.60773	0.61031
0.07220	1.35003
0.35272	0.45726
0.07220	0.89089
-0.13181	0.10015
-0.05531	0.61031
0.53123	0.71234
0.35272	0.40625
0.14870	0.27871
-0.20832	0.15117
-0.28482	0.12566
-0.56534	-1.17523
-0.10631	-0.74160
-0.02981	1.19699
-0.15732	0.71234
1.14327	-0.46102
1.29628	-0.66508
0.68424	1.37554
0.55673	0.22769
0.02119	-0.76711
-0.56534	0.73785
-0.38683	0.25320
0.12320	0.02363
-0.02981	0.12566
0.50573	0.40625
0.63323	-0.56305
0.45472	1.37554
-0.33583	1.32453
-0.56534	-1.96597
0.04670	0.50828
0.32721	0.43176
0.37822	1.37554
0.37822	-0.10391
0.19971	0.66132
0.19971	0.89089
0.02119	-1.37929
0.17421	-2.29757
0.14870	-0.20594
0.04670	0.94191
0.07220	0.96742
0.19971	1.06945
-0.08081	0.53379
0.12320	0.22769
0.42922	-1.37929
