0.12320	0.20219
0.07220	0.20219
0.17421	0.20219
0.22521	0.10015
0.14870	0.15117
0.09770	0.12566
0.12320	0.20219
0.25071	0.12566
0.17421	0.02363
0.07220	0.15117
0.14870	0.20219
0.19971	0.20219
0.19971	0.07465
0.22521	0.10015
0.07220	0.12566
0.14870	0.22769
0.22521	0.12566
0.14870	0.15117
0.12320	0.12566
0.07220	0.22769
0.14870	0.07465
0.22521	0.17668
0.17421	0.27871
0.09770	0.20219
0.17421	0.07465
0.22521	0.15117
0.14870	0.12566
0.04670	0.12566
0.14870	0.07465
0.14870	0.12566
0.07220	0.10015
0.14870	0.20219
0.19971	0.20219
0.17421	0.12566
0.14870	0.17668
0.14870	0.25320
0.09770	0.10015
0.22521	0.04914
0.12320	0.12566
0.09770	0.12566
0.12320	0.12566
0.22521	0.20219
0.14870	0.22769
0.07220	0.10015
0.14870	0.20219
0.19971	0.10015
0.07220	0.07465
0.17421	0.20219
0.12320	0.17668
0.09770	0.15117
0.17421	0.12566
0.14870	0.02363
0.09770	0.07465
0.19971	0.17668
0.07220	0.07465
0.17421	0.20219
0.12320	0.15117
0.09770	0.15117
0.12320	0.27871
0.14870	0.07465
0.12320	0.15117
0.22521	0.17668
0.14870	0.07465
0.14870	0.20219
0.22521	0.17668
0.09770	0.04914
0.04670	0.15117
0.19971	0.10015
0.17421	0.20219
0.12320	0.22769
0.19971	0.22769
0.09770	0.07465
0.22521	0.22769
0.12320	0.15117
0.17421	0.12566
0.22521	0.17668
0.17421	0.15117
0.14870	0.32972
0.19971	0.07465
0.17421	-0.00188
0.17421	0.12566
0.22521	0.12566
0.14870	0.10015
0.12320	0.22769
0.14870	0.15117
0.09770	0.17668
0.19971	0.32972
0.14870	0.10015
0.12320	0.10015
0.22521	0.32972
0.12320	0.07465
0.09770	0.17668
0.22521	0.15117
0.12320	0.04914
0.12320	0.15117
0.19971	0.10015
0.04670	0.17668
0.22521	0.17668
0.14870	0.15117
0.14870	0.15117
0.22521	0.17668
0.14870	0.12566
0.14870	0.15117
0.14870	0.22769
0.07220	0.04914
0.19971	0.22769
0.04670	0.10015
0.19971	0.17668
0.09770	0.07465
0.14870	0.17668
0.12320	0.12566
0.22521	0.12566
0.09770	0.25320
0.19971	0.17668
0.09770	0.10015
0.12320	0.20219
0.22521	0.04914
0.12320	0.17668
0.09770	0.12566
0.12320	0.15117
0.04670	0.30422
0.22521	0.12566
0.14870	0.17668
0.12320	0.20219
0.22521	0.15117
0.09770	0.12566
0.14870	0.17668
0.12320	0.12566
0.07220	0.12566
0.19971	0.20219
0.14870	0.04914
0.14870	0.20219
0.12320	0.25320
0.07220	0.12566
0.12320	0.20219
0.12320	0.12566
0.07220	0.04914
0.14870	0.15117
0.14870	0.10015
0.07220	0.17668
0.12320	0.35523
0.14870	0.22769
0.07220	0.15117
0.19971	0.22769
0.14870	0.10015
0.09770	0.04914
0.12320	0.10015
0.12320	0.15117
0.07220	0.27871
0.17421	0.10015
0.22521	-0.00188
0.04670	0.10015
0.19971	0.22769
0.12320	0.15117
0.09770	0.12566
0.22521	0.25320
0.12320	0.20219
0.12320	0.02363
0.22521	0.12566
0.12320	0.15117
0.07220	0.22769
0.19971	0.22769
0.14870	0.15117
0.14870	0.17668
0.22521	0.07465
0.14870	0.27871
0.14870	0.12566
0.22521	-0.05289
0.17421	0.15117
0.07220	0.22769
0.14870	0.17668
0.19971	0.10015
0.12320	0.17668
0.12320	0.15117
0.14870	0.22769
0.22521	0.12566
0.19971	0.04914
0.14870	0.07465
0.09770	0.12566
0.14870	0.25320
0.22521	0.15117
0.14870	0.17668
0.09770	0.27871
0.17421	0.17668
0.22521	0.07465
0.14870	0.12566
0.07220	0.10015
0.12320	0.17668
0.14870	0.12566
0.22521	0.07465
0.12320	0.17668
0.07220	0.22769
0.14870	0.10015
0.22521	0.17668
0.17421	0.30422
0.12320	0.20219
0.19971	0.07465
0.14870	0.04914
0.14870	0.10015
0.22521	0.20219
0.12320	0.17668
0.07220	0.10015
0.22521	0.22769
0.14870	0.22769
0.09770	0.15117
0.14870	0.04914
0.22521	0.15117
0.14870	-0.02739
0.09770	0.15117
0.12320	0.17668
0.14870	0.10015
0.12320	0.43176
0.22521	0.30422
0.12320	0.20219
0.14870	0.04914
0.14870	0.04914
0.09770	0.15117
0.22521	0.10015
0.17421	0.04914
0.14870	0.22769
0.17421	0.17668
0.07220	0.17668
0.14870	0.15117
0.12320	0.15117
0.09770	0.10015
0.14870	0.12566
0.22521	0.20219
0.14870	0.04914
0.12320	0.12566
0.22521	0.22769
0.14870	0.27871
0.07220	0.20219
0.22521	0.10015
0.12320	0.10015
0.09770	0.04914
0.14870	0.17668
0.19971	0.15117
0.14870	0.07465
0.09770	0.15117
0.14870	0.15117
0.14870	0.04914
0.22521	0.12566
0.09770	0.30422
0.07220	0.15117
0.14870	0.17668
0.12320	0.04914
0.07220	0.02363
0.14870	0.10015
0.14870	0.22769
0.14870	0.12566
0.14870	0.15117
0.22521	0.20219
0.12320	0.10015
0.12320	0.15117
0.12320	0.22769
0.07220	0.22769
0.14870	0.12566
0.19971	0.10015
0.12320	0.20219
0.07220	0.17668
0.19971	0.10015
0.22521	-0.02739
0.09770	0.12566
0.12320	0.27871
0.14870	0.20219
0.19971	0.20219
0.14870	0.10015
0.04670	0.15117
0.14870	0.20219
0.19971	0.17668
0.19971	0.15117
0.04670	0.15117
0.14870	0.07465
0.19971	0.12566
0.14870	0.22769
0.07220	0.15117
0.12320	0.04914
0.14870	0.12566
0.09770	0.22769
0.14870	0.22769
0.22521	0.12566
0.12320	-0.05289
0.14870	0.22769
0.14870	0.30422
0.22521	0.10015
0.14870	0.02363
0.04670	0.10015
0.14870	0.17668
0.19971	0.30422
0.25071	0.20219
0.12320	0.12566
0.07220	0.12566
0.14870	0.07465
0.14870	0.25320
0.22521	0.20219
0.12320	-0.00188
0.12320	0.10015
0.07220	0.15117
0.12320	0.12566
0.25071	0.10015
0.19971	0.17668
0.12320	0.15117
0.09770	0.15117
0.19971	0.27871
0.14870	0.15117
0.09770	0.17668
0.04670	0.15117
0.14870	0.04914
0.22521	0.17668
0.14870	0.25320
0.14870	0.22769
0.22521	0.07465
0.17421	0.12566
0.09770	0.04914
0.14870	0.12566
0.19971	0.12566
0.17421	0.22769
0.09770	0.10015
0.14870	0.15117
0.22521	0.15117
0.12320	0.22769
0.07220	0.15117
0.14870	0.17668
0.14870	0.25320
0.09770	0.07465
0.07220	-0.15492
0.12320	0.20219
0.12320	0.27871
0.09770	0.17668
0.12320	0.10015
0.12320	0.27871
0.09770	0.25320
0.14870	0.17668
0.22521	0.07465
0.09770	0.12566
0.07220	0.17668
0.22521	0.12566
0.12320	0.07465
0.14870	0.17668
0.07220	0.25320
0.17421	0.15117
0.22521	-0.00188
0.14870	0.10015
0.07220	0.25320
0.14870	0.25320
0.19971	0.22769
0.12320	0.12566
0.07220	0.15117
0.14870	0.04914
0.22521	0.02363
0.22521	0.10015
0.14870	0.15117
0.09770	0.10015
0.22521	0.17668
0.14870	0.20219
0.14870	0.15117
0.17421	0.02363
0.14870	0.15117
0.09770	0.25320
0.22521	0.10015
0.14870	0.20219
0.17421	0.22769
0.09770	0.27871
0.22521	0.04914
0.12320	0.04914
0.12320	-0.05289
0.09770	0.02363
0.14870	0.32972
0.22521	0.22769
0.14870	0.20219
0.09770	0.22769
0.17421	0.15117
0.12320	0.10015
0.19971	0.15117
0.07220	0.10015
0.12320	0.10015
0.19971	0.15117
0.14870	0.07465
0.07220	0.17668
0.19971	0.15117
0.17421	0.20219
0.07220	0.22769
0.17421	0.15117
0.12320	-0.00188
0.14870	0.07465
0.19971	0.17668
0.04670	0.22769
0.12320	0.27871
0.22521	0.20219
0.04670	0.15117
0.14870	0.15117
0.14870	0.15117
0.09770	0.22769
0.14870	0.15117
0.22521	0.04914
0.09770	0.12566
0.07220	0.30422
0.12320	0.12566
0.17421	0.07465
0.17421	0.07465
0.09770	0.25320
0.14870	0.15117
0.19971	0.12566
0.14870	0.10015
0.09770	0.15117
0.14870	0.17668
0.17421	0.20219
0.12320	0.15117
0.09770	0.12566
0.14870	0.20219
0.14870	0.15117
0.19971	0.15117
0.14870	0.17668
0.17421	0.04914
0.09770	0.02363
0.09770	0.17668
0.17421	0.10015
0.14870	0.25320
0.09770	0.25320
0.14870	0.12566
0.19971	0.10015
0.14870	0.20219
0.09770	0.15117
0.25071	0.15117
0.12320	0.22769
0.07220	0.15117
0.14870	0.12566
0.25071	0.20219
0.12320	0.12566
0.14870	0.10015
0.14870	-0.00188
0.17421	0.22769
0.14870	0.17668
0.22521	0.17668
0.19971	0.17668
0.07220	0.17668
0.17421	0.15117
0.22521	0.17668
0.12320	0.10015
0.09770	0.15117
0.19971	0.17668
0.07220	0.12566
0.14870	0.27871
0.22521	0.15117
0.07220	-0.07840
0.17421	0.10015
0.19971	0.04914
0.07220	0.22769
0.14870	0.12566
0.14870	0.30422
0.12320	0.17668
0.19971	0.17668
0.09770	0.20219
0.22521	0.07465
0.07220	0.17668
0.25071	0.12566
0.12320	0.10015
0.12320	0.15117
0.19971	0.12566
0.09770	0.12566
0.17421	0.15117
0.14870	0.07465
0.12320	0.22769
0.22521	0.15117
0.09770	0.15117
0.22521	0.20219
0.14870	0.12566
0.12320	0.07465
0.17421	0.25320
0.12320	0.27871
0.14870	0.27871
0.14870	0.20219
0.14870	-0.00188
0.12320	-0.15492
0.22521	0.32972
0.12320	0.30422
0.07220	0.15117
0.12320	0.17668
0.17421	0.15117
0.09770	0.17668
0.17421	0.20219
0.22521	0.15117
0.09770	0.07465
0.12320	0.12566
0.22521	0.20219
0.14870	-0.02739
0.07220	0.12566
0.22521	0.02363
0.07220	0.10015
0.14870	0.43176
0.14870	0.32972
0.04670	0.04914
0.17421	0.15117
0.14870	0.07465
0.09770	0.00000
0.22521	0.00000
0.12320	0.00000
0.14870	0.00000
0.22521	0.00000
0.12320	0.00000
0.14870	0.15117
0.19971	0.17668
0.17421	0.15117
0.14870	0.10015
0.22521	0.15117
0.12320	0.22769
0.07220	0.10015
0.14870	0.20219
0.19971	0.15117
0.17421	0.07465
0.14870	0.15117
0.19971	0.12566
0.14870	0.04914
0.09770	0.10015
0.22521	0.20219
0.14870	0.10015
0.09770	0.22769
0.14870	0.22769
0.22521	0.15117
0.14870	0.07465
0.09770	0.15117
0.14870	0.22769
0.12320	0.12566
0.09770	0.10015
0.14870	0.12566
0.14870	0.02363
0.14870	0.25320
0.12320	0.17668
0.14870	0.15117
0.22521	0.25320
0.17421	0.25320
0.07220	0.12566
0.14870	0.10015
0.22521	0.20219
0.17421	0.20219
0.09770	0.12566
0.07220	0.15117
0.14870	0.17668
0.22521	0.20219
0.14870	0.12566
0.09770	0.12566
0.12320	0.25320
0.17421	0.15117
0.09770	0.12566
0.19971	0.10015
0.12320	0.22769
0.12320	0.10015
0.19971	0.15117
0.09770	0.10015
0.14870	0.15117
0.17421	0.25320
0.17421	0.15117
0.12320	0.10015
0.14870	0.10015
0.25071	0.25320
0.09770	0.12566
0.19971	0.17668
0.14870	0.04914
0.07220	0.04914
0.22521	0.07465
0.09770	0.27871
0.25071	0.27871
0.14870	0.15117
0.14870	0.15117
0.22521	0.10015
0.12320	0.07465
0.17421	0.17668
0.14870	0.17668
0.09770	0.20219
0.17421	0.20219
0.12320	0.12566
0.07220	0.12566
0.14870	0.20219
0.19971	-0.00188
0.17421	-0.07840
0.07220	0.22769
0.19971	0.22769
0.22521	0.25320
0.14870	0.12566
0.14870	0.10015
0.22521	0.30422
0.14870	0.17668
0.09770	0.12566
0.09770	0.07465
0.19971	0.10015
0.25071	0.20219
0.14870	0.15117
0.14870	0.07465
0.19971	0.22769
0.14870	0.20219
0.12320	0.15117
0.12320	0.22769
0.22521	0.10015
0.09770	0.02363
0.14870	0.20219
0.22521	0.32972
0.17421	0.07465
0.12320	0.15117
0.14870	0.17668
0.07220	0.17668
0.12320	0.15117
0.17421	0.22769
0.07220	0.10015
0.12320	0.12566
0.19971	0.20219
0.14870	0.15117
0.17421	0.15117
0.14870	0.22769
0.07220	0.10015
0.22521	0.27871
0.14870	0.04914
0.07220	0.15117
0.19971	0.15117
0.07220	0.02363
0.22521	0.22769
0.14870	0.15117
0.07220	0.20219
0.19971	0.32972
0.14870	0.10015
0.07220	-0.00188
0.14870	0.15117
0.14870	0.10015
0.19971	0.15117
0.12320	-0.07840
0.09770	0.20219
0.19971	0.25320
0.07220	0.15117
0.22521	0.30422
0.17421	0.27871
0.14870	0.25320
0.14870	0.15117
0.12320	-0.48652
0.17421	-0.38449
0.22521	0.53379
0.14870	0.32972
0.09770	0.04914
0.22521	0.30422
0.14870	0.43176
0.12320	0.53379
0.17421	0.89089
0.22521	-0.00188
0.12320	-1.12422
0.12320	-0.92016
0.19971	0.63582
0.14870	0.89089
0.19971	-0.86914
0.04670	0.86539
0.12320	0.04914
0.22521	0.30422
0.12320	1.57960
-0.08081	1.04394
0.17421	-1.02219
0.19971	-0.94566
-0.00431	-1.60887
0.30171	-0.23145
0.30171	0.43176
0.22521	1.19699
0.30171	1.65613
0.14870	0.55929
0.04670	-1.76191
0.04670	-1.58336
-0.41233	1.83468
-0.15732	2.47238
0.30171	2.85499
0.53123	2.26831
0.53123	-3.41992
0.12320	-3.36890
-0.00431	0.45726
0.17421	-0.28246
0.17421	2.26831
0.35272	0.07465
0.73524	-2.65468
-0.43783	1.68163
-0.18282	1.45206
0.35272	-0.25695
-1.40690	-4.31269
-0.00431	0.27871
1.11776	2.03874
0.88825	-0.94566
-0.02981	-0.97117
0.25071	2.72745
0.88825	3.74776
0.45472	-2.50164
0.25071	2.49788
-0.10631	5.71186
-1.02437	-3.82804
-0.05531	-1.32828
-1.02437	-7.42463
0.53123	-0.56305
0.91375	-1.20074
1.19427	0.78886
0.65874	6.09448
-0.00431	4.18139
-0.31033	1.96222
-0.33583	-3.67499
1.09226	-0.84363
0.55673	-2.19554
-0.41233	0.83988
0.76074	2.08976
-1.45790	-1.58336
-0.87136	-4.28718
0.37822	4.33444
-0.51434	-0.12942
-1.99343	-1.35379
1.14327	-1.81293
1.83181	0.45726
2.34184	4.30893
2.01032	4.56401
-0.05531	-5.76663
-0.43783	1.80917
-0.08081	-6.12374
-0.02981	0.27871
-0.51434	3.64573
-0.53984	2.21730
0.09770	3.79878
0.65874	-1.83844
-1.63641	0.20219
-0.23382	-5.58807
0.12320	1.45206
0.53123	1.04394
2.01032	0.68683
0.91375	0.94191
0.14870	1.37554
0.42922	1.55410
-0.66735	-1.17523
-0.53984	-6.37881
0.60773	0.66132
0.78624	0.61031
0.88825	1.35003
-0.02981	2.49788
-0.74385	-0.18043
-0.74385	0.50828
-0.61635	0.40625
0.22521	-2.68019
0.42922	-0.89465
0.50573	0.94191
0.53123	2.29382
0.37822	-0.94566
0.37822	0.89089
0.42922	0.12566
0.07220	1.50308
0.04670	-1.40480
-0.08081	3.11007
-0.20832	-0.02739
0.42922	-0.86914
0.19971	-1.07320
-0.84586	0.94191
0.12320	0.89089
0.63323	1.32453
0.68424	-0.71609
0.73524	0.53379
0.68424	-0.76711
0.25071	0.43176
0.02119	-0.07840
-0.46334	0.22769
-0.33583	-1.78742
0.22521	0.10015
0.09770	0.55929
0.22521	0.89089
0.30171	-0.18043
0.04670	-2.39961
-0.43783	1.47757
0.02119	-1.30277
0.60773	0.61031
0.17421	0.89089
-0.18282	1.47757
0.07220	1.65613
1.04126	2.26831
-1.10088	-0.12942
-1.07538	-1.86394
1.34728	-1.45582
1.32178	-1.99148
1.24527	0.96742
0.83725	1.19699
0.42922	2.72745
0.19971	0.55929
0.63323	-0.66508
-0.02981	1.22250
-0.71835	-2.39961
-1.04987	-0.02739
-0.23382	2.14077
-0.31033	-4.95038
-0.25932	-0.48652
0.04670	0.99292
0.14870	2.90601
0.30171	2.59991
0.35272	-0.53754
0.42922	0.04914
0.40372	0.40625
0.27621	-0.69059
0.50573	0.66132
0.50573	0.40625
0.42922	-0.74160
0.42922	-0.12942
-0.00431	0.30422
-0.08081	0.02363
-0.84586	0.04914
-0.71835	-0.46102
0.40372	0.30422
0.63323	0.20219
0.70974	-1.09871
0.83725	0.02363
0.76074	1.32453
0.32721	-0.33348
0.07220	0.02363
-0.02981	0.89089
-0.05531	2.31933
0.30171	0.81437
-0.64185	-3.08831
-0.99887	-0.30797
-0.15732	0.10015
-0.41233	0.76336
0.37822	0.15117
0.93925	0.45726
1.21977	0.30422
0.12320	1.47757
-1.12638	1.01843
-1.12638	-0.46102
1.19427	0.04914
1.21977	-0.05289
0.86275	-0.56305
0.60773	-0.18043
0.32721	1.42656
-0.08081	-0.33348
-0.02981	-1.25176
-0.23382	-6.63389
-0.28482	-1.83844
-0.02981	2.29382
-0.00431	3.67124
0.12320	2.59991
0.04670	1.52859
0.02119	-3.19035
-0.15732	0.07465
0.60773	0.53379
0.42922	1.50308
0.78624	1.04394
-0.10631	1.17148
-1.45790	-0.46102
-0.48884	-0.48652
0.58223	-0.00188
1.01576	-2.88425
1.01576	-0.97117
0.81175	1.40105
0.96476	1.65613
0.32721	-0.53754
-0.18282	0.66132
-0.15732	-0.12942
-0.51434	0.73785
-1.07538	1.68163
-0.61635	-0.35899
0.45472	-0.56305
0.63323	-0.15492
0.68424	-0.28246
0.65874	0.66132
0.35272	0.66132
-0.02981	0.38074
-0.48884	0.43176
-0.59084	-0.02739
0.04670	0.25320
0.22521	0.12566
0.35272	-1.63437
0.30171	0.86539
0.32721	0.45726
0.37822	0.99292
0.48022	2.77847
-0.28482	-3.01179
0.04670	-3.11382
0.04670	0.12566
0.04670	0.15117
0.40372	2.14077
0.17421	1.80917
0.70974	1.12046
0.63323	-0.92016
-0.15732	0.96742
-0.94787	-2.96078
-0.25932	-0.02739
0.12320	0.66132
0.12320	0.04914
0.30171	0.50828
0.86275	1.52859
0.50573	1.60511
-1.02437	-1.20074
0.30171	0.53379
0.37822	-0.79262
0.14870	-1.14973
-0.43783	0.89089
0.45472	-0.89465
0.42922	-0.86914
0.53123	0.55929
0.58223	1.04394
0.35272	0.12566
-0.08081	0.55929
0.02119	1.93671
-0.10631	0.30422
-0.25932	0.45726
-0.51434	-2.06800
-0.51434	-1.94047
0.04670	0.38074
0.25071	1.22250
0.63323	1.65613
0.55673	-1.40480
0.55673	-0.71609
-0.18282	2.67644
-0.64185	-1.48133
0.60773	0.53379
0.63323	0.35523
0.58223	-0.20594
0.32721	0.89089
0.40372	1.09496
0.42922	-0.41000
0.07220	-2.75671
-0.61635	0.94191
-1.30489	0.86539
-0.08081	0.66132
0.48022	-0.92016
0.14870	0.89089
0.81175	-0.41000
0.07220	-0.76711
0.86275	0.96742
0.60773	0.71234
-0.13181	-0.15492
-0.56534	-0.41000
-0.02981	-0.48652
0.45472	1.09496
0.32721	0.96742
0.09770	0.63582
0.42922	-0.53754
0.50573	-0.30797
-0.00431	-1.45582
-0.41233	0.63582
-0.61635	0.58480
0.02119	0.45726
-0.00431	2.08976
0.17421	0.73785
0.70974	-3.31788
0.68424	0.55929
0.42922	0.10015
0.35272	-0.15492
0.30171	1.37554
-0.36133	-0.30797
-0.02981	0.17668
0.14870	2.90601
0.02119	-1.45582
0.40372	-3.41992
0.17421	1.55410
0.12320	1.27351
0.07220	-0.10391
-0.15732	0.63582
-0.08081	-0.02739
0.02119	-0.51203
0.48022	1.29902
0.60773	0.25320
-0.13181	0.53379
-0.64185	0.32972
0.42922	0.22769
0.65874	0.40625
0.81175	-0.89465
0.83725	-0.28246
0.83725	0.58480
-1.20288	-0.10391
-0.59084	0.15117
-0.56534	1.29902
-1.25389	1.35003
0.35272	-1.04770
1.34728	-1.60887
1.21977	0.40625
0.91375	1.42656
0.63323	1.06945
-0.41233	-0.94566
-0.10631	0.48277
-0.00431	-0.30797
-0.08081	0.40625
0.04670	0.76336
0.12320	0.43176
0.14870	0.99292
0.22521	-0.33348
0.04670	-1.40480
-0.10631	1.14597
-0.48884	0.68683
-0.56534	-0.51203
0.55673	-3.54745
0.73524	0.25320
0.63323	2.65093
0.60773	1.32453
0.40372	0.38074
0.60773	-0.25695
0.17421	-0.02739
0.70974	0.27871
0.76074	0.96742
-1.94243	-0.18043
-2.50347	0.76336
-1.07538	-1.91496
1.47479	0.76336
1.60230	0.83988
1.62780	0.71234
1.27078	-1.07320
0.42922	-0.18043
-0.00431	0.55929
-0.28482	0.50828
-0.28482	0.71234
-0.13181	0.22769
-0.05531	0.38074
0.32721	0.50828
0.09770	0.12566
0.12320	1.93671
0.14870	-0.18043
-0.08081	-2.98628
-0.38683	-4.36370
-0.92237	0.73785
0.27621	2.47238
0.65874	0.89089
0.63323	0.71234
0.60773	0.99292
0.58223	1.37554
0.58223	0.68683
0.60773	0.89089
-0.13181	0.66132
-0.61635	-0.86914
-0.15732	-0.66508
0.14870	-0.23145
-0.02981	0.02363
0.14870	1.45206
0.65874	1.17148
0.55673	-2.55265
0.96476	-3.39441
-0.84586	-1.32828
-1.27939	1.57960
0.12320	2.70194
0.09770	1.37554
0.99026	1.22250
1.01576	0.86539
0.78624	0.83988
0.55673	0.15117
0.19971	-0.58856
-0.53984	0.38074
-0.79486	-0.30797
-0.38683	-1.04770
0.35272	0.20219
0.58223	0.07465
0.58223	0.38074
-0.18282	-0.25695
-0.53984	-1.20074
0.32721	0.17668
0.42922	0.38074
0.42922	1.32453
0.27621	0.91640
-0.53984	-0.25695
-0.28482	-0.61406
0.09770	-0.89465
0.76074	0.86539
0.35272	-0.18043
0.60773	1.24800
0.55673	0.25320
0.22521	0.58480
-0.13181	1.12046
-0.41233	-0.76711
-0.23382	0.02363
0.45472	-0.53754
0.58223	-0.05289
0.73524	0.25320
-0.51434	0.63582
-1.50890	-0.92016
-0.36133	-0.61406
0.42922	1.04394
0.81175	-0.05289
0.78624	0.94191
0.42922	-1.02219
0.22521	-0.05289
0.32721	0.45726
0.22521	2.14077
0.17421	1.35003
0.04670	-2.19554
-0.15732	-1.73640
-0.25932	1.06945
0.14870	-1.73640
0.07220	0.48277
-0.38683	1.27351
0.42922	0.76336
0.73524	0.66132
0.12320	0.81437
0.50573	0.35523
-0.28482	0.02363
-0.82036	0.22769
0.70974	-0.12942
0.19971	-0.48652
0.02119	-0.05289
0.25071	0.38074
0.73524	-0.28246
0.73524	-0.61406
0.32721	0.17668
-0.48884	0.83988
-0.28482	-0.76711
0.27621	0.35523
0.22521	-0.89465
0.37822	1.63062
0.02119	1.55410
-0.08081	0.50828
0.02119	-2.55265
-0.18282	0.04914
0.32721	1.06945
0.22521	-0.97117
0.22521	1.52859
0.53123	1.57960
0.17421	-0.92016
-0.25932	-0.02739
0.30171	1.06945
-0.18282	-0.66508
0.35272	0.53379
0.60773	1.09496
0.30171	-0.05289
0.22521	-0.05289
0.22521	0.38074
0.27621	-1.04770
-0.00431	-2.09351
-0.31033	-0.23145
-0.00431	1.09496
0.14870	0.20219
0.19971	0.68683
0.19971	1.45206
0.50573	1.42656
0.42922	-0.41000
-0.61635	-1.04770
-0.71835	0.25320
0.12320	0.35523
0.30171	0.40625
0.17421	1.55410
0.50573	-0.07840
0.73524	-1.76191
0.50573	0.58480
0.32721	0.27871
-0.20832	0.27871
-0.53984	0.40625
-0.33583	-0.35899
0.25071	-0.23145
0.60773	-0.84363
0.96476	1.12046
0.48022	1.12046
0.25071	-1.20074
0.12320	0.55929
0.19971	0.40625
-0.41233	0.83988
-0.10631	0.73785
-0.20832	0.10015
-0.08081	-0.92016
-0.31033	2.42136
0.02119	-0.46102
0.25071	-2.78222
0.93925	0.38074
0.35272	1.35003
-0.08081	1.14597
-0.23382	0.94191
-0.10631	0.04914
0.73524	1.35003
0.63323	-1.40480
0.63323	0.55929
0.30171	-0.66508
-0.13181	-0.20594
-0.43783	0.35523
-0.69285	-0.12942
0.14870	1.65613
0.19971	-3.01179
0.55673	-1.60887
0.73524	0.48277
0.25071	1.57960
0.02119	3.28862
-0.15732	1.37554
-0.23382	-0.76711
0.37822	-0.53754
0.50573	0.38074
0.09770	-0.15492
0.12320	0.91640
-0.20832	0.71234
-0.10631	0.04914
0.53123	-0.56305
0.50573	0.12566
0.09770	-0.63957
-0.25932	1.40105
0.25071	-0.00188
0.07220	-1.55785
-0.79486	-1.04770
0.55673	1.29902
0.91375	-0.56305
0.88825	-0.35899
-0.00431	0.73785
-0.38683	0.50828
0.68424	0.83988
-0.05531	1.86019
0.12320	0.66132
-0.10631	0.10015
0.04670	-0.61406
-0.05531	-0.33348
0.09770	1.06945
0.17421	0.35523
0.12320	-0.63957
0.27621	-1.68539
0.19971	2.16628
0.27621	0.43176
0.12320	-1.17523
0.27621	-2.60367
-0.20832	0.63582
0.30171	3.00804
0.32721	0.73785
0.12320	-0.71609
0.04670	0.25320
0.09770	0.55929
0.22521	0.10015
-0.23382	0.10015
0.55673	0.04914
0.48022	1.68163
-0.31033	-0.20594
-0.20832	-2.01699
-0.00431	-1.32828
0.53123	1.12046
0.60773	1.01843
0.30171	0.40625
-0.08081	0.22769
-0.05531	0.20219
-0.10631	1.45206
-0.51434	-0.43551
0.17421	-0.46102
0.93925	1.01843
0.96476	0.35523
0.73524	-1.81293
-1.02437	-0.58856
-1.10088	1.35003
0.14870	0.45726
0.45472	-0.00188
0.58223	-0.05289
0.14870	-0.69059
0.53123	1.86019
0.14870	0.58480
0.22521	-0.25695
0.04670	-0.86914
-0.08081	1.14597
-0.46334	-0.18043
0.27621	0.12566
0.32721	-1.25176
0.37822	0.50828
0.42922	1.01843
0.17421	0.86539
-0.36133	0.63582
-0.05531	0.32972
0.25071	0.76336
0.30171	-0.61406
-0.23382	-0.35899
-0.05531	-1.20074
0.68424	-2.09351
0.60773	0.76336
0.35272	1.14597
-0.02981	0.61031
-0.25932	0.71234
-0.28482	-0.41000
0.45472	1.45206
0.19971	0.55929
0.70974	1.06945
0.42922	0.50828
0.02119	-0.58856
-0.13181	-0.28246
-0.64185	-0.84363
0.04670	0.20219
0.58223	0.10015
0.37822	0.04914
0.07220	1.50308
0.42922	1.19699
0.30171	-0.25695
0.12320	-4.74632
0.30171	0.30422
-0.23382	1.70714
0.14870	1.22250
-0.08081	1.14597
0.07220	0.78886
0.02119	0.76336
0.30171	1.09496
0.37822	-0.00188
0.25071	-1.58336
0.25071	-1.20074
0.12320	0.04914
0.37822	1.96222
0.22521	-0.51203
-0.20832	0.12566
-0.05531	-0.53754
-0.20832	-1.65988
0.07220	-1.04770
0.14870	1.45206
0.30171	1.60511
0.42922	0.91640
0.65874	0.45726
0.68424	1.22250
0.55673	0.04914
-0.02981	0.35523
0.14870	-0.30797
-0.48884	-0.25695
-0.05531	-0.92016
0.12320	0.71234
-0.18282	0.15117
0.32721	-1.45582
0.04670	0.38074
0.25071	0.81437
-0.00431	0.86539
0.22521	0.83988
0.40372	-1.04770
0.30171	-0.86914
0.17421	0.53379
0.04670	0.32972
-0.53984	0.40625
0.27621	1.17148
0.40372	0.96742
0.27621	1.12046
0.17421	1.19699
0.32721	-1.78742
0.37822	0.30422
0.25071	-1.22625
0.63323	-0.05289
0.22521	0.48277
-0.13181	0.17668
-0.94787	0.02363
-1.20288	-1.17523
0.27621	-1.27726
0.81175	1.35003
0.76074	1.27351
0.58223	1.29902
0.53123	0.55929
0.02119	-0.38449
-0.02981	0.35523
0.07220	-0.76711
-0.08081	0.27871
0.25071	0.15117
0.14870	0.55929
-0.18282	0.20219
0.02119	0.15117
0.14870	0.25320
0.07220	0.38074
0.37822	-0.63957
0.42922	-0.41000
0.14870	0.53379
0.12320	-0.25695
0.02119	-0.25695
0.07220	0.45726
0.19971	-0.35899
0.22521	0.81437
0.27621	0.86539
0.40372	0.63582
0.37822	0.55929
-0.08081	0.30422
-0.59084	0.10015
-0.13181	-1.50683
0.19971	0.61031
0.42922	0.25320
0.35272	-2.09351
0.27621	0.15117
0.27621	1.52859
0.19971	-0.30797
0.17421	0.71234
0.12320	1.27351
0.09770	-0.33348
0.45472	-0.81812
0.19971	-0.00188
-0.05531	-0.00188
-0.41233	-0.53754
-0.79486	1.37554
0.32721	-0.66508
0.53123	1.37554
0.83725	1.27351
-0.53984	-0.00188
0.09770	0.27871
0.83725	-1.17523
0.86275	0.61031
0.91375	-1.63437
0.32721	0.58480
0.25071	1.52859
-0.08081	0.83988
0.19971	0.71234
-0.31033	0.53379
-0.89686	-0.66508
-0.51434	-0.97117
0.45472	-0.02739
0.19971	0.38074
-0.10631	0.10015
0.12320	0.40625
-0.13181	0.81437
0.30171	1.14597
0.81175	-0.74160
0.86275	1.04394
0.65874	-2.06800
0.40372	-0.51203
-0.20832	1.22250
0.07220	1.73265
-0.59084	-0.07840
-0.53984	-0.30797
0.42922	0.96742
0.35272	-0.97117
0.45472	0.04914
0.32721	0.15117
-0.02981	0.25320
0.17421	0.38074
0.14870	0.89089
0.27621	0.17668
0.32721	0.66132
-0.00431	-0.25695
-0.25932	0.10015
-0.08081	0.55929
0.25071	0.43176
0.35272	-0.25695
0.40372	-0.53754
0.50573	-1.22625
0.19971	0.27871
-0.36133	1.29902
-0.33583	-0.46102
-0.05531	-0.84363
0.30171	0.12566
0.22521	1.37554
0.35272	1.19699
-0.00431	-0.15492
0.50573	0.30422
0.73524	0.15117
0.70974	-1.04770
-0.02981	1.04394
0.14870	1.29902
-0.89686	0.15117
-0.79486	1.63062
0.09770	-1.58336
0.53123	-2.75671
0.83725	-0.07840
0.02119	1.27351
0.35272	0.07465
0.63323	0.73785
0.48022	-0.28246
0.40372	0.17668
0.09770	0.89089
-0.28482	1.01843
-0.20832	-0.84363
0.09770	-1.86394
-0.00431	0.27871
-0.31033	1.45206
-0.48884	0.20219
0.02119	0.81437
0.58223	-0.18043
0.40372	0.04914
0.55673	0.25320
0.32721	1.98773
0.04670	-1.55785
0.45472	0.66132
-0.00431	-1.60887
-0.20832	0.22769
0.22521	0.53379
0.22521	1.60511
0.53123	0.83988
0.27621	-1.35379
-0.20832	-1.12422
-1.17738	1.01843
-1.58541	2.14077
0.40372	-0.10391
0.86275	-2.04250
0.88825	-1.53234
0.96476	0.27871
0.86275	1.22250
0.53123	1.32453
0.19971	1.45206
-0.51434	0.04914
-0.38683	-0.53754
-0.05531	-0.51203
0.30171	-0.12942
0.22521	-0.63957
0.25071	0.91640
0.14870	0.73785
0.14870	0.45726
-0.46334	0.53379
-0.25932	-0.25695
0.14870	-2.80773
0.70974	0.53379
0.35272	0.94191
0.35272	1.22250
0.04670	-0.02739
0.07220	0.53379
0.65874	-0.18043
0.30171	0.10015
0.02119	-0.38449
-0.53984	1.68163
-0.69285	-1.27726
-0.08081	-0.20594
0.50573	0.66132
0.88825	1.80917
0.53123	0.12566
0.55673	-0.46102
0.37822	-1.94047
-0.00431	-0.43551
0.02119	1.04394
-0.53984	0.73785
-0.28482	1.29902
0.19971	0.83988
0.19971	-2.11902
0.04670	0.68683
0.35272	0.55929
0.50573	0.35523
0.17421	1.14597
-0.87136	-0.51203
0.27621	-0.25695
0.22521	-1.96597
0.22521	-0.02739
0.37822	1.24800
0.35272	0.73785
0.63323	0.35523
-0.08081	0.27871
-0.18282	0.07465
-0.66735	0.20219
0.25071	0.32972
0.27621	0.10015
0.68424	0.76336
0.68424	0.71234
0.25071	-0.20594
0.30171	-0.76711
0.07220	-2.52714
0.04670	1.14597
-0.00431	0.40625
0.09770	0.17668
-0.51434	2.34484
0.02119	-2.06800
0.04670	0.22769
0.22521	1.60511
-0.02981	0.58480
0.17421	0.15117
0.12320	-0.00188
0.76074	0.58480
0.42922	0.10015
0.45472	0.55929
0.42922	0.40625
-0.15732	0.50828
-0.71835	-0.02739
0.25071	0.04914
0.19971	-0.99668
0.37822	-1.40480
0.37822	-0.28246
-0.05531	0.12566
0.22521	0.63582
0.35272	0.38074
0.22521	1.29902
0.02119	0.40625
-0.13181	-0.18043
0.07220	-0.28246
-0.20832	1.04394
-0.20832	0.89089
-0.15732	0.20219
0.70974	-0.46102
0.83725	0.32972
0.30171	0.12566
0.55673	0.35523
0.32721	0.07465
0.37822	-0.23145
-0.38683	-0.35899
-0.38683	-0.10391
-0.15732	-0.30797
-0.10631	0.38074
0.42922	0.91640
0.42922	-1.35379
0.19971	-1.40480
0.53123	0.78886
0.40372	2.14077
0.07220	0.02363
0.12320	0.76336
-0.23382	-0.10391
-0.00431	-0.00188
-0.28482	-0.00188
-0.31033	0.73785
0.19971	-0.69059
0.50573	0.20219
0.55673	0.22769
0.35272	-0.79262
0.12320	0.66132
0.30171	-0.43551
0.32721	0.17668
-0.23382	-0.51203
-0.28482	1.55410
-0.05531	-0.71609
-0.05531	-1.20074
-0.43783	0.66132
0.02119	1.27351
0.42922	0.43176
0.70974	0.45726
0.73524	0.38074
0.60773	-0.10391
0.27621	0.81437
0.04670	0.12566
-0.61635	-0.28246
-0.56534	-0.58856
0.42922	0.76336
0.14870	0.12566
0.09770	0.17668
-0.08081	0.10015
0.42922	-0.38449
0.02119	0.58480
0.09770	-0.07840
0.27621	-0.23145
0.22521	0.15117
0.70974	-0.10391
0.50573	0.63582
0.30171	1.17148
-0.38683	-0.43551
-0.33583	0.99292
0.27621	-0.58856
0.22521	-1.04770
-0.18282	0.43176
-0.28482	0.15117
-0.28482	1.17148
0.25071	1.04394
0.86275	1.14597
0.65874	-0.58856
0.50573	-0.33348
0.35272	0.61031
0.17421	-0.28246
0.09770	-1.43031
0.07220	-0.46102
-0.33583	0.68683
-0.41233	1.01843
-0.05531	0.12566
0.14870	1.37554
0.17421	-0.84363
0.27621	-0.81812
0.50573	-0.02739
0.02119	0.76336
-0.15732	2.14077
0.53123	-0.79262
-0.05531	-0.79262
-0.15732	-0.30797
0.60773	0.73785
0.50573	1.09496
0.37822	1.19699
-0.31033	-0.25695
-0.25932	-0.58856
-0.69285	-0.86914
0.48022	0.81437
0.86275	0.27871
0.70974	0.17668
0.70974	0.25320
-0.15732	0.50828
0.09770	-0.23145
-0.08081	1.06945
0.12320	-0.10391
-0.13181	-1.07320
-0.25932	0.58480
-0.00431	0.30422
0.40372	-1.04770
0.17421	-0.58856
-0.64185	0.35523
-0.48884	-0.84363
0.22521	1.88570
0.63323	1.22250
0.83725	0.73785
0.81175	-0.61406
0.50573	-0.46102
0.17421	0.78886
-0.02981	0.55929
-0.53984	1.22250
-0.43783	0.30422
0.48022	-0.63957
0.32721	-2.24656
0.35272	-0.15492
0.32721	0.43176
-0.31033	-0.15492
-0.20832	0.94191
0.25071	-0.25695
0.40372	-0.33348
0.12320	1.01843
0.58223	1.57960
0.53123	0.96742
-0.00431	0.78886
-0.48884	-1.40480
-0.41233	-2.39961
0.14870	-0.30797
0.83725	1.57960
0.42922	1.22250
0.30171	0.91640
-0.00431	0.25320
-1.02437	1.12046
0.04670	0.32972
0.58223	-0.53754
0.30171	-1.27726
-0.05531	-0.61406
0.53123	-0.20594
0.45472	0.71234
0.40372	0.71234
0.02119	0.17668
-0.53984	0.17668
-0.41233	0.55929
0.30171	-0.23145
0.32721	0.12566
0.35272	1.40105
0.40372	0.17668
0.35272	-0.35899
0.45472	-2.93527
0.12320	-0.58856
-0.46334	0.04914
-0.89686	1.22250
-0.53984	1.06945
0.91375	0.94191
0.93925	1.88570
0.53123	0.12566
0.19971	0.53379
-0.10631	-0.51203
-0.13181	-0.46102
0.27621	-0.02739
0.81175	-0.53754
-0.13181	0.38074
-0.23382	1.27351
-0.28482	0.48277
0.32721	-0.05289
0.58223	-2.85874
0.55673	-0.94566
0.35272	1.22250
0.30171	1.12046
-0.05531	0.53379
0.02119	-0.15492
-0.51434	0.15117
-0.05531	0.94191
0.25071	0.96742
0.22521	0.68683
0.65874	-0.51203
0.12320	-0.43551
-0.25932	0.99292
-0.82036	-0.58856
0.04670	0.27871
0.37822	0.10015
0.35272	-0.20594
1.09226	-0.20594
1.37278	-0.41000
-0.00431	-0.05289
-0.31033	0.58480
-0.02981	0.81437
0.12320	0.68683
-0.05531	0.94191
-0.46334	-0.92016
0.17421	0.35523
0.42922	-1.73640
0.12320	0.43176
0.04670	0.86539
0.17421	1.55410
0.17421	-0.46102
0.12320	-0.74160
0.19971	0.43176
0.22521	0.94191
-0.71835	-0.63957
0.22521	-0.35899
0.12320	1.65613
0.58223	0.38074
0.37822	0.66132
0.25071	-1.99148
0.40372	0.63582
0.32721	-0.05289
0.48022	0.55929
0.12320	0.27871
-0.08081	0.04914
-0.05531	0.55929
0.12320	-0.38449
0.27621	1.78367
0.04670	-1.07320
-0.46334	-0.66508
0.07220	-0.30797
0.12320	-0.10391
0.32721	0.20219
-0.28482	2.16628
-0.08081	0.99292
0.30171	-0.51203
0.30171	-0.41000
0.37822	0.81437
0.99026	0.55929
0.53123	-0.20594
0.42922	-0.53754
-0.28482	0.32972
-0.31033	-0.00188
0.42922	0.22769
0.25071	0.17668
0.12320	0.43176
0.02119	-1.22625
-0.05531	-0.48652
0.14870	0.32972
-0.48884	0.63582
0.27621	1.42656
0.12320	1.45206
0.30171	-1.43031
0.37822	-0.30797
0.58223	0.55929
0.37822	0.76336
-0.02981	-0.81812
-0.43783	0.63582
-0.66735	0.55929
0.17421	0.68683
0.83725	0.63582
0.88825	0.15117
0.76074	-1.45582
-0.15732	0.43176
-0.84586	0.89089
0.19971	0.40625
0.14870	-1.78742
0.55673	-1.55785
0.42922	1.35003
-0.10631	0.94191
-0.43783	-1.58336
0.37822	0.68683
0.30171	1.17148
0.60773	1.19699
0.37822	0.12566
0.12320	1.75816
-0.10631	-0.53754
-0.66735	-2.83324
0.30171	-0.79262
0.32721	1.24800
0.50573	0.22769
0.12320	0.40625
-0.53984	0.12566
0.27621	0.86539
0.76074	0.40625
0.63323	-0.43551
-0.92237	0.76336
-1.07538	-0.28246
0.81175	-0.20594
0.70974	-0.23145
0.50573	0.58480
0.19971	-0.66508
0.09770	0.38074
0.40372	-0.00188
0.22521	1.09496
0.09770	-0.25695
-0.20832	-0.00188
-0.18282	-0.66508
-0.43783	1.17148
-0.36133	0.78886
0.63323	-0.79262
0.58223	0.48277
0.50573	1.68163
0.22521	-1.07320
-0.10631	-0.33348
0.04670	0.02363
0.12320	-0.53754
0.32721	0.27871
0.42922	1.40105
-0.36133	-0.86914
-0.64185	0.45726
-0.00431	0.43176
0.65874	1.01843
0.60773	0.07465
0.83725	0.15117
0.37822	-1.50683
-0.20832	-1.37929
-0.51434	0.94191
-0.20832	1.63062
0.40372	1.73265
0.48022	-0.10391
0.30171	0.17668
0.14870	-1.04770
-0.05531	0.81437
-0.18282	0.15117
0.50573	0.68683
0.07220	0.43176
-0.05531	-2.39961
0.22521	0.20219
0.42922	-0.58856
0.42922	1.22250
0.12320	-0.02739
0.22521	1.06945
-0.10631	0.81437
-0.00431	-0.05289
-0.05531	0.32972
-0.10631	-0.69059
0.37822	0.71234
0.14870	-0.18043
0.32721	-0.20594
0.27621	-0.69059
0.30171	0.96742
0.07220	0.38074
0.22521	0.83988
0.14870	-0.33348
0.22521	1.04394
0.04670	-0.28246
0.14870	-1.14973
0.25071	2.21730
0.25071	-1.27726
0.17421	-0.69059
-0.13181	0.76336
0.04670	0.35523
-0.23382	0.35523
-0.18282	-0.10391
0.27621	0.86539
0.19971	1.27351
0.73524	1.47757
0.76074	-0.07840
0.63323	-0.97117
-0.02981	-0.12942
-0.28482	-0.84363
-1.22839	-0.05289
-0.82036	-0.02739
0.12320	1.14597
1.11776	-0.00188
0.99026	-0.53754
1.14327	0.22769
0.76074	0.63582
0.45472	0.20219
0.09770	-0.02739
-0.20832	0.94191
-0.15732	0.35523
-0.56534	-0.18043
-0.59084	-0.12942
-0.05531	-0.12942
0.30171	0.04914
0.37822	-0.18043
0.07220	0.48277
0.27621	1.19699
0.37822	0.45726
0.50573	-0.35899
0.19971	-0.74160
0.12320	1.14597
-0.48884	-0.38449
0.09770	-0.46102
0.22521	1.27351
0.40372	-0.15492
0.63323	1.47757
0.42922	0.30422
0.70974	-1.86394
0.17421	-2.80773
-0.48884	1.04394
-1.22839	1.42656
-1.10088	0.86539
0.99026	1.57960
1.60230	1.14597
0.45472	-1.27726
-0.28482	-0.07840
0.35272	0.04914
0.37822	0.02363
0.35272	-0.69059
0.32721	0.40625
-0.28482	0.45726
-0.46334	1.19699
0.07220	-0.92016
0.37822	0.07465
-0.05531	-0.58856
0.04670	0.35523
-0.56534	-0.41000
-0.43783	0.91640
-0.00431	1.32453
0.76074	-0.25695
1.16877	-0.89465
0.83725	1.32453
0.25071	-0.15492
0.14870	1.27351
-0.48884	-1.88945
-0.64185	-0.51203
0.35272	0.27871
0.48022	1.19699
0.19971	1.93671
0.19971	1.19699
0.50573	-1.94047
-0.38683	-1.71090
0.02119	-0.46102
0.37822	0.83988
0.35272	-0.30797
0.19971	0.25320
-0.28482	0.10015
-0.28482	1.70714
0.25071	0.25320
0.25071	0.58480
0.32721	1.04394
0.12320	0.61031
-0.05531	-0.53754
0.12320	-0.15492
0.45472	0.96742
0.32721	-1.17523
-0.10631	-1.07320
-0.53984	-1.40480
-0.00431	0.58480
-0.13181	0.91640
0.37822	0.86539
0.68424	0.50828
0.42922	0.96742
0.70974	0.02363
0.42922	0.12566
0.07220	0.27871
0.25071	-0.35899
-0.08081	0.63582
-0.23382	-1.09871
-0.23382	-0.23145
0.02119	1.17148
0.07220	2.01323
0.32721	0.55929
-0.00431	-0.99668
0.09770	-2.52714
0.19971	0.10015
0.32721	0.78886
0.30171	0.40625
0.12320	0.22769
-0.13181	1.55410
0.12320	0.38074
0.19971	0.15117
0.42922	-0.74160
0.32721	-0.25695
0.07220	1.12046
-0.02981	-0.00188
0.32721	0.40625
0.30171	0.86539
0.40372	-0.28246
-0.10631	0.91640
-0.23382	-0.23145
-0.15732	-0.23145
0.40372	-0.38449
0.27621	-0.74160
0.37822	0.99292
0.25071	0.17668
-0.43783	0.02363
-0.08081	0.35523
0.14870	0.32972
0.86275	0.25320
0.12320	0.32972
-0.13181	0.43176
0.32721	-0.10391
0.42922	-0.25695
0.42922	0.50828
-0.46334	0.38074
0.04670	-0.63957
0.32721	0.61031
0.32721	-0.46102
-0.05531	-0.86914
-0.43783	-1.02219
0.19971	0.43176
0.22521	2.26831
-0.08081	0.81437
0.12320	2.67644
0.55673	-1.58336
0.65874	-0.30797
0.17421	-1.88945
-0.13181	0.35523
0.12320	0.22769
0.30171	1.57960
0.14870	0.10015
0.02119	-0.02739
-0.31033	1.37554
0.32721	-1.35379
0.25071	-0.28246
0.19971	1.83468
0.12320	-0.05289
0.07220	-1.68539
0.07220	-0.00188
0.48022	0.17668
0.58223	1.01843
0.68424	1.06945
0.25071	0.55929
-1.15188	-1.27726
-1.17738	-0.76711
0.63323	0.66132
0.68424	0.83988
0.53123	-0.02739
0.12320	-0.10391
-0.08081	-0.58856
0.17421	0.68683
0.55673	0.83988
0.45472	0.50828
0.37822	-0.48652
-0.89686	-0.35899
-0.20832	-0.18043
0.40372	-0.33348
0.25071	0.48277
0.60773	0.55929
0.50573	0.89089
0.48022	0.55929
-0.79486	1.24800
-0.69285	-0.41000
0.09770	-0.48652
0.65874	-0.69059
0.86275	0.45726
0.30171	-1.17523
-0.13181	-0.43551
0.22521	1.04394
0.09770	0.91640
0.48022	0.99292
0.32721	1.27351
0.40372	1.37554
-0.20832	0.66132
-0.41233	-1.81293
-0.36133	-0.51203
0.09770	-0.61406
0.19971	-0.35899
0.42922	0.71234
0.40372	0.10015
0.35272	0.55929
0.53123	0.22769
0.02119	0.43176
-0.20832	-0.63957
-0.59084	-0.35899
0.14870	0.32972
0.27621	1.06945
0.60773	-0.74160
0.42922	1.27351
0.32721	0.91640
0.12320	-1.96597
-0.02981	-0.86914
-0.00431	0.86539
-0.10631	0.30422
0.09770	0.99292
0.09770	1.45206
0.27621	-0.10391
0.58223	-0.18043
0.48022	1.27351
0.17421	0.35523
-0.15732	-0.38449
0.09770	-2.57816
0.07220	-0.12942
-0.13181	0.04914
0.04670	1.98773
0.07220	0.76336
0.04670	0.15117
-0.10631	0.53379
0.12320	-0.51203
0.27621	-0.28246
0.60773	-0.20594
0.37822	-0.63957
0.14870	1.50308
0.35272	1.17148
-0.13181	0.94191
-0.43783	-0.81812
0.02119	-0.56305
0.32721	-3.62398
0.30171	0.86539
0.42922	2.54890
0.81175	-0.00188
0.68424	0.45726
-0.28482	1.78367
-0.87136	-0.10391
-0.28482	-0.76711
0.22521	-0.02739
0.12320	0.02363
0.42922	0.66132
0.45472	0.35523
0.55673	0.91640
0.37822	-0.69059
0.19971	0.17668
-0.41233	0.35523
-0.46334	-0.58856
0.25071	-1.83844
0.25071	0.53379
0.40372	0.63582
0.32721	-0.35899
0.22521	-0.51203
0.12320	1.63062
0.12320	0.83988
0.02119	0.58480
-0.31033	1.98773
-0.25932	-0.02739
0.40372	-2.42511
0.22521	-0.20594
0.53123	-0.38449
0.12320	-0.66508
0.48022	0.89089
0.63323	1.24800
0.73524	1.12046
-0.25932	0.83988
-0.74385	0.35523
-1.10088	0.07465
-0.48884	-0.46102
0.63323	-0.35899
0.86275	-1.09871
0.88825	0.53379
0.65874	-0.05289
0.30171	-0.30797
0.09770	0.55929
0.02119	1.70714
0.19971	0.15117
-0.05531	-0.30797
-0.31033	-1.71090
-0.43783	1.47757
0.02119	0.91640
-0.05531	-0.74160
0.22521	0.02363
0.68424	0.04914
0.58223	1.42656
0.45472	-0.05289
-0.59084	-0.86914
-0.38683	-0.23145
0.19971	-0.10391
0.88825	0.27871
0.76074	1.04394
0.58223	0.91640
0.17421	0.12566
-0.46334	0.38074
0.07220	0.10015
0.40372	-0.41000
0.32721	-0.92016
-0.02981	0.27871
-0.20832	-0.51203
-0.10631	2.85499
-0.56534	-2.27207
0.14870	-1.88945
0.42922	-1.78742
0.30171	1.57960
0.58223	2.52339
0.30171	1.78367
0.50573	0.68683
0.63323	0.91640
0.53123	0.76336
0.14870	0.40625
-0.28482	-0.66508
-0.79486	-1.07320
-0.36133	-1.48133
0.27621	-0.15492
0.37822	0.45726
0.35272	-0.10391
0.30171	0.83988
0.19971	0.15117
0.12320	-0.51203
0.07220	0.38074
0.14870	1.01843
0.02119	-0.61406
0.30171	-0.02739
0.02119	1.50308
0.22521	-0.48652
0.40372	0.12566
-0.31033	-0.15492
0.09770	-0.25695
0.30171	1.78367
0.37822	-0.38449
0.55673	1.27351
0.65874	0.10015
0.19971	-0.63957
-0.10631	-0.30797
-0.25932	-0.61406
0.09770	1.45206
0.42922	1.57960
0.32721	-0.35899
-0.08081	-3.19035
-0.15732	0.83988
-0.33583	0.25320
-0.46334	0.96742
0.42922	0.66132
0.53123	-0.05289
0.73524	0.02363
0.58223	0.38074
0.12320	0.63582
-0.02981	-0.46102
-0.33583	0.25320
-0.43783	-0.61406
0.35272	0.48277
0.86275	0.04914
0.91375	1.24800
0.48022	1.47757
-0.99887	-0.35899
0.02119	-1.78742
0.35272	-0.43551
0.14870	0.53379
0.17421	1.24800
0.25071	0.76336
0.42922	0.50828
0.45472	-0.63957
0.22521	-0.43551
-0.13181	0.73785
-1.22839	0.17668
-0.25932	-0.33348
0.60773	0.86539
1.06676	-1.07320
0.50573	0.63582
0.42922	-0.35899
0.04670	-0.61406
-0.00431	0.76336
0.09770	0.89089
0.25071	-0.12942
0.14870	1.14597
-0.05531	0.73785
-0.28482	-0.10391
-0.36133	1.57960
-0.15732	-2.85874
0.32721	0.32972
0.48022	0.99292
0.37822	0.04914
0.45472	1.04394
0.17421	-0.00188
0.30171	0.04914
0.50573	-0.25695
-0.18282	0.25320
-0.76936	0.61031
0.35272	-0.15492
0.48022	-0.41000
0.53123	0.04914
0.27621	0.25320
0.07220	0.55929
0.19971	-0.25695
0.37822	0.27871
-0.08081	-0.20594
-1.20288	-0.35899
-1.25389	0.25320
-0.43783	-0.02739
0.88825	0.89089
1.27078	1.04394
1.24527	0.76336
0.78624	0.81437
0.45472	-0.07840
0.50573	-1.12422
0.09770	1.80917
-0.28482	0.38074
-0.43783	-1.37929
-0.51434	-2.57816
0.25071	0.81437
-0.05531	0.12566
-0.18282	1.04394
-0.08081	0.22769
0.32721	0.96742
0.48022	0.48277
0.50573	0.48277
0.45472	-1.32828
0.30171	-0.02739
0.37822	0.07465
0.22521	-0.30797
0.17421	-0.38449
-0.20832	0.10015
0.02119	0.76336
0.19971	0.35523
0.09770	0.63582
-0.10631	0.02363
-0.02981	0.10015
0.07220	0.71234
0.42922	0.81437
0.37822	0.02363
0.32721	0.25320
0.76074	-1.12422
0.63323	0.27871
-0.33583	0.02363
-0.84586	0.12566
-0.53984	-0.71609
0.53123	0.15117
0.68424	0.04914
0.65874	1.17148
0.25071	0.27871
0.27621	0.66132
0.40372	0.61031
-0.15732	-0.07840
-0.15732	-0.97117
-0.23382	-1.27726
-0.08081	0.40625
-0.23382	1.27351
0.42922	1.27351
0.45472	1.22250
0.45472	-0.15492
0.12320	-1.76191
0.12320	0.63582
-0.10631	1.09496
0.25071	-0.25695
0.22521	0.25320
0.30171	-1.60887
0.30171	-0.76711
-0.48884	0.66132
-0.10631	0.73785
0.60773	0.25320
0.93925	0.32972
0.19971	-0.20594
-0.08081	0.20219
-0.79486	0.25320
-0.33583	0.35523
0.30171	0.07465
0.48022	0.89089
0.99026	0.22769
0.37822	0.86539
-0.15732	-0.48652
-0.10631	0.22769
-0.41233	-1.71090
0.30171	-0.30797
0.37822	0.43176
0.78624	0.76336
0.14870	0.96742
-0.33583	0.22769
0.27621	-0.38449
0.48022	-0.10391
-0.08081	0.86539
-0.02981	-0.18043
-0.08081	0.22769
-0.15732	0.81437
-0.13181	-1.14973
-0.02981	0.12566
0.83725	-1.02219
1.04126	0.58480
0.22521	0.86539
-0.48884	0.07465
-0.84586	1.40105
0.17421	0.22769
0.42922	0.02363
0.55673	-0.00188
0.53123	-0.89465
0.40372	1.04394
0.40372	1.06945
0.25071	0.15117
-0.20832	-1.81293
-0.31033	-2.22105
-0.41233	0.04914
-0.15732	1.45206
0.09770	1.04394
0.07220	1.73265
0.19971	-1.25176
0.35272	-0.30797
0.22521	0.66132
0.22521	0.61031
0.22521	0.58480
0.17421	-0.43551
-0.23382	0.68683
-0.38683	-0.38449
0.63323	0.68683
0.40372	-0.25695
0.35272	-1.48133
0.17421	-0.48652
-0.31033	0.94191
0.40372	1.32453
-0.00431	-0.28246
0.32721	0.27871
0.53123	0.04914
0.42922	0.55929
0.40372	-0.10391
0.07220	0.43176
-0.02981	0.35523
0.02119	0.15117
-0.31033	0.17668
-0.18282	0.15117
-0.46334	0.32972
0.09770	0.55929
0.63323	-0.46102
0.70974	-0.35899
0.58223	-0.99668
-0.02981	1.63062
-0.64185	0.53379
-0.20832	0.12566
0.22521	0.35523
0.58223	-1.17523
0.55673	-1.27726
0.63323	0.38074
-0.13181	-0.02739
-0.53984	-0.38449
-0.02981	0.73785
0.12320	1.32453
0.37822	1.65613
0.30171	-0.99668
0.32721	0.45726
0.17421	1.14597
0.25071	0.89089
0.12320	-0.28246
0.04670	-0.48652
-0.02981	0.15117
0.50573	-0.63957
0.30171	-0.61406
0.07220	0.25320
-1.43240	0.48277
-1.53441	-0.66508
0.65874	0.96742
1.01576	-0.58856
1.06676	-2.19554
1.06676	1.17148
-0.28482	1.17148
-0.05531	1.24800
0.53123	0.91640
0.40372	0.89089
0.40372	-0.23145
-0.18282	0.10015
-0.18282	-0.02739
0.14870	0.35523
-0.10631	-0.69059
-0.25932	-0.07840
0.14870	-1.78742
0.35272	1.01843
-0.05531	0.96742
0.17421	1.55410
-0.15732	-0.05289
-0.36133	-1.27726
0.12320	-0.76711
0.12320	0.45726
0.93925	-0.25695
0.93925	0.91640
0.53123	1.70714
-0.08081	0.43176
-0.05531	-1.27726
0.09770	0.15117
0.17421	0.45726
0.25071	0.43176
0.07220	-0.02739
-0.23382	0.10015
-0.00431	-2.04250
-0.51434	0.25320
-0.05531	1.29902
0.58223	1.04394
0.73524	0.91640
0.14870	0.35523
-0.05531	-0.15492
-0.41233	0.04914
-0.28482	0.58480
0.45472	-0.58856
0.93925	-1.20074
0.88825	-0.61406
0.70974	-0.30797
-0.08081	-0.18043
-0.53984	1.12046
0.32721	1.01843
0.27621	0.81437
-0.23382	0.32972
-0.64185	0.25320
0.37822	0.78886
0.40372	1.04394
0.45472	0.04914
0.35272	-0.46102
-0.08081	-0.76711
-0.10631	-1.12422
0.07220	-0.56305
0.37822	0.32972
