0.12320	0.20219
0.12320	0.15117
0.27621	0.15117
0.14870	0.22769
0.07220	0.22769
-0.15732	0.07465
0.09770	0.27871
0.70974	0.25320
-0.10631	0.10015
-0.18282	-0.00188
0.09770	0.15117
0.22521	0.12566
0.09770	0.07465
0.17421	0.20219
0.17421	0.22769
0.07220	0.07465
0.22521	0.25320
0.22521	0.15117
0.09770	0.04914
0.02119	0.17668
0.14870	0.20219
0.19971	0.12566
0.12320	0.07465
0.14870	0.15117
0.17421	0.20219
0.07220	0.20219
0.17421	-0.00188
0.22521	0.07465
0.14870	0.22769
0.09770	0.17668
0.19971	0.10015
0.22521	0.17668
0.07220	0.22769
0.19971	0.15117
0.19971	0.07465
0.22521	0.17668
0.17421	0.20219
0.07220	0.04914
0.12320	0.15117
0.22521	0.22769
0.12320	0.10015
0.09770	0.12566
0.14870	0.15117
0.14870	0.20219
0.12320	0.17668
0.19971	0.17668
0.12320	0.10015
0.09770	0.12566
0.14870	0.10015
0.14870	0.15117
0.04670	0.25320
0.12320	0.17668
0.02119	0.10015
0.40372	0.15117
0.17421	0.12566
0.14870	0.04914
0.02119	0.15117
0.07220	0.25320
0.04670	0.15117
0.09770	0.04914
0.25071	0.15117
0.19971	0.20219
0.17421	0.07465
0.17421	0.17668
0.22521	0.25320
0.14870	0.15117
0.09770	0.10015
0.14870	0.17668
0.22521	0.10015
0.04670	0.20219
0.14870	0.10015
0.14870	0.12566
0.19971	0.17668
0.09770	0.17668
0.14870	0.15117
0.22521	0.15117
0.12320	0.15117
0.07220	0.10015
0.12320	0.15117
0.07220	0.25320
0.17421	0.17668
0.25071	0.15117
0.19971	0.17668
0.07220	0.12566
0.09770	0.02363
0.07220	0.22769
0.22521	0.15117
0.17421	0.10015
0.12320	0.20219
0.14870	0.07465
0.17421	0.10015
0.04670	0.20219
0.14870	0.12566
0.22521	0.04914
0.09770	0.17668
0.14870	0.20219
0.12320	0.15117
0.09770	0.10015
0.19971	0.15117
0.12320	0.10015
0.14870	0.12566
0.22521	0.15117
0.12320	0.15117
0.09770	0.17668
0.12320	0.12566
0.17421	0.04914
0.14870	0.12566
0.07220	0.17668
0.22521	0.22769
0.12320	0.12566
0.09770	0.15117
0.09770	0.35523
0.14870	0.20219
0.22521	0.02363
0.12320	-0.00188
0.09770	0.10015
0.14870	0.20219
0.12320	0.10015
0.19971	0.20219
0.12320	0.17668
0.17421	0.10015
0.09770	0.10015
0.12320	0.15117
0.02119	0.07465
0.45472	0.15117
0.25071	0.22769
0.07220	0.10015
-0.00431	0.15117
0.12320	0.22769
-0.00431	0.12566
0.07220	0.15117
0.30171	0.22769
0.25071	0.07465
0.04670	0.22769
0.12320	0.15117
0.25071	0.12566
0.14870	0.20219
-0.48884	0.15117
0.63323	0.04914
-0.10631	0.15117
0.09770	0.17668
0.50573	0.12566
0.07220	0.15117
0.12320	0.12566
0.25071	0.22769
0.02119	0.15117
0.14870	0.15117
0.22521	0.20219
0.07220	0.15117
0.14870	0.04914
0.19971	0.10015
0.12320	0.12566
0.07220	0.12566
0.02119	0.25320
0.32721	0.22769
0.27621	0.12566
0.04670	0.07465
0.07220	0.20219
0.14870	0.04914
0.12320	-0.02739
0.17421	0.04914
0.25071	0.25320
0.17421	0.30422
0.19971	0.15117
0.19971	0.15117
0.07220	0.45726
0.14870	-0.00188
0.14870	0.02363
0.09770	0.22769
0.12320	0.15117
0.14870	0.02363
0.12320	0.02363
0.07220	0.17668
0.14870	0.30422
0.22521	0.25320
0.19971	0.15117
0.19971	0.15117
0.09770	0.20219
0.14870	0.07465
0.22521	0.12566
0.12320	0.20219
0.14870	0.04914
0.22521	0.07465
0.19971	0.15117
0.17421	0.17668
0.09770	0.20219
0.12320	0.15117
0.12320	-0.02739
0.07220	0.17668
0.09770	0.27871
0.14870	0.20219
0.12320	0.15117
0.12320	0.20219
0.14870	0.22769
0.12320	0.04914
0.09770	0.17668
0.22521	0.17668
0.14870	0.12566
0.12320	0.17668
0.19971	0.22769
0.17421	0.17668
0.19971	0.10015
0.19971	0.12566
0.12320	0.22769
0.07220	0.12566
0.12320	0.10015
0.19971	0.20219
0.12320	0.17668
0.14870	0.04914
0.14870	0.22769
0.22521	0.15117
0.09770	0.15117
0.14870	0.15117
0.19971	0.17668
0.17421	0.02363
0.09770	0.15117
0.14870	0.20219
0.19971	0.15117
0.07220	0.25320
0.12320	0.53379
0.22521	0.27871
0.07220	-0.07840
0.17421	-0.12942
0.14870	-0.41000
0.09770	-0.05289
0.14870	0.40625
0.22521	0.45726
0.12320	0.38074
0.09770	0.40625
0.09770	0.20219
0.19971	0.04914
0.12320	0.04914
0.14870	-0.00188
0.19971	0.07465
0.12320	0.10015
0.14870	0.07465
0.22521	0.02363
0.12320	0.20219
0.14870	0.12566
0.14870	0.10015
0.09770	0.22769
0.14870	0.15117
0.12320	0.15117
0.04670	0.22769
0.19971	0.20219
0.12320	0.10015
0.14870	0.20219
0.19971	0.25320
0.14870	0.10015
0.09770	0.10015
0.22521	0.17668
0.14870	0.22769
0.07220	0.15117
0.14870	-0.05289
0.22521	0.10015
0.14870	0.30422
0.07220	0.17668
0.12320	0.15117
0.14870	0.15117
0.07220	0.20219
0.09770	0.07465
0.17421	0.12566
0.14870	0.20219
0.07220	-0.02739
0.14870	0.10015
0.22521	0.22769
0.19971	0.22769
0.07220	0.12566
0.14870	0.17668
0.19971	0.25320
0.12320	0.10015
0.07220	0.02363
0.14870	0.10015
0.22521	0.20219
0.09770	0.10015
0.07220	0.15117
0.14870	0.25320
0.12320	0.35523
0.09770	0.20219
0.12320	0.12566
0.25071	0.04914
0.17421	-0.00188
0.07220	0.10015
0.14870	0.15117
0.25071	0.15117
0.07220	0.12566
0.14870	0.22769
0.22521	0.30422
0.17421	0.15117
0.17421	0.12566
0.22521	0.12566
0.04670	0.25320
0.22521	0.07465
0.27621	0.04914
0.02119	0.17668
-0.05531	-0.07840
0.12320	0.15117
0.50573	0.35523
0.40372	0.30422
-0.02981	-0.00188
0.04670	0.02363
0.07220	0.15117
0.07220	0.35523
0.09770	0.07465
0.12320	0.07465
0.22521	0.20219
0.14870	0.20219
0.17421	0.10015
0.25071	0.17668
0.12320	0.17668
0.12320	-0.00188
0.27621	0.12566
0.12320	0.12566
0.02119	0.25320
0.09770	0.10015
0.17421	0.12566
0.22521	0.25320
0.12320	0.20219
0.09770	0.10015
0.12320	0.12566
0.17421	0.17668
0.07220	0.10015
0.14870	0.10015
0.19971	0.20219
0.14870	0.12566
0.12320	0.07465
0.22521	0.15117
0.14870	0.20219
0.09770	0.17668
0.14870	0.10015
0.19971	0.22769
0.14870	0.12566
0.09770	-0.02739
0.14870	0.12566
0.22521	0.32972
0.17421	0.30422
0.07220	-0.10391
0.12320	0.20219
0.19971	0.35523
0.14870	0.02363
0.09770	0.12566
0.22521	0.17668
0.17421	0.20219
0.09770	0.17668
0.14870	0.02363
0.22521	0.15117
0.17421	0.04914
0.07220	0.22769
0.17421	0.27871
0.14870	0.15117
0.09770	0.10015
0.22521	0.12566
0.14870	0.10015
0.07220	0.15117
0.14870	0.04914
0.19971	0.10015
0.07220	0.25320
0.14870	0.15117
0.14870	0.07465
0.22521	0.10015
0.12320	0.12566
0.07220	0.30422
0.22521	0.10015
0.22521	0.22769
0.12320	0.15117
0.09770	0.04914
0.19971	0.15117
0.12320	0.20219
0.09770	0.15117
0.14870	0.07465
0.22521	0.12566
0.12320	0.12566
0.09770	0.10015
0.22521	0.12566
0.14870	0.17668
0.09770	0.10015
0.14870	0.10015
0.19971	0.15117
0.12320	0.22769
0.14870	-0.07840
0.22521	0.17668
0.12320	0.25320
0.09770	0.10015
0.12320	0.20219
0.22521	0.40625
0.12320	0.10015
0.07220	0.04914
0.14870	0.12566
0.17421	0.20219
0.09770	-0.05289
0.12320	-0.05289
0.22521	0.15117
0.17421	0.22769
0.09770	0.17668
0.12320	0.10015
0.22521	0.22769
0.12320	0.17668
0.07220	0.10015
0.17421	0.15117
0.14870	0.22769
0.07220	-0.15492
0.17421	0.17668
0.14870	0.25320
0.09770	0.20219
0.14870	0.20219
0.19971	0.20219
0.14870	0.35523
0.07220	0.27871
0.17421	-0.18043
0.22521	-0.07840
0.12320	0.17668
0.17421	0.15117
0.19971	0.25320
0.14870	0.17668
0.07220	0.04914
0.14870	0.15117
0.22521	0.17668
0.14870	0.15117
0.07220	0.17668
0.02119	0.15117
0.22521	0.07465
0.14870	-0.10391
0.12320	0.22769
0.22521	0.20219
0.12320	0.04914
0.14870	0.20219
0.22521	0.17668
0.07220	0.12566
0.19971	0.07465
0.17421	0.12566
0.07220	0.17668
0.14870	0.20219
0.25071	0.07465
0.12320	0.10015
0.07220	0.04914
0.14870	0.02363
0.19971	0.07465
0.12320	0.22769
0.09770	0.27871
0.14870	0.15117
0.14870	0.02363
0.27621	-0.00188
0.09770	0.38074
0.14870	0.35523
0.22521	0.15117
0.14870	0.02363
0.12320	0.04914
0.12320	0.17668
0.22521	0.10015
0.22521	0.04914
0.12320	0.32972
0.09770	0.07465
0.14870	0.15117
0.17421	0.22769
0.14870	0.10015
0.09770	0.17668
0.14870	0.22769
0.17421	0.22769
0.12320	0.10015
0.12320	0.12566
0.19971	0.30422
0.22521	0.17668
0.09770	0.10015
0.14870	0.02363
0.22521	0.12566
0.14870	0.20219
0.17421	0.10015
0.07220	0.20219
0.14870	0.17668
0.14870	0.25320
0.22521	0.22769
0.17421	0.07465
0.12320	0.02363
0.09770	0.12566
0.17421	0.17668
0.22521	0.12566
0.14870	0.02363
0.09770	0.07465
0.14870	0.35523
0.14870	0.38074
0.14870	0.15117
0.09770	-0.02739
0.17421	-0.15492
0.22521	0.25320
0.17421	0.32972
0.09770	0.20219
0.09770	0.17668
0.17421	0.25320
0.22521	0.12566
0.19971	0.07465
0.12320	0.00000
0.09770	0.00000
0.14870	0.00000
0.22521	0.00000
0.12320	0.00000
0.09770	0.00000
0.14870	0.00000
0.14870	0.00000
0.19971	0.00000
0.22521	0.00000
0.14870	0.25320
0.09770	0.10015
0.14870	-0.00188
0.14870	0.07465
0.22521	0.02363
0.12320	0.04914
0.09770	0.04914
0.17421	0.27871
0.22521	0.27871
0.22521	0.20219
0.09770	0.15117
0.09770	0.12566
0.19971	-0.07840
0.12320	0.15117
0.09770	0.27871
0.12320	0.22769
0.22521	0.07465
0.14870	0.15117
0.04670	0.25320
0.22521	0.35523
0.14870	0.12566
0.07220	-0.07840
0.22521	-0.02739
0.17421	0.17668
0.12320	0.04914
0.14870	0.12566
0.12320	0.12566
0.09770	-0.10391
0.14870	0.15117
0.12320	0.35523
0.12320	0.20219
0.19971	0.30422
0.14870	0.07465
0.12320	0.07465
0.19971	0.12566
0.07220	0.20219
0.12320	0.25320
0.14870	0.20219
0.07220	0.07465
0.17421	0.17668
0.09770	0.12566
0.14870	0.10015
0.14870	0.10015
0.17421	0.02363
0.25071	0.15117
0.07220	0.04914
0.19971	0.15117
0.14870	0.15117
0.07220	0.12566
0.19971	0.15117
0.12320	0.15117
0.09770	0.12566
0.14870	0.12566
0.19971	0.04914
0.07220	-0.02739
0.12320	0.27871
0.17421	0.32972
0.09770	0.35523
0.17421	0.25320
0.19971	0.15117
0.04670	-0.07840
0.12320	0.12566
0.12320	0.25320
0.07220	0.04914
0.17421	0.12566
0.22521	0.25320
0.17421	0.17668
0.12320	0.07465
0.19971	0.22769
0.22521	0.12566
0.07220	0.10015
0.14870	0.20219
0.12320	0.12566
0.09770	0.17668
0.14870	0.22769
0.17421	0.04914
0.09770	0.20219
0.14870	0.12566
0.14870	0.25320
0.09770	0.10015
0.14870	0.10015
0.12320	0.25320
0.07220	0.10015
0.12320	0.12566
0.19971	0.15117
0.07220	0.12566
0.17421	0.15117
0.19971	0.22769
0.07220	0.10015
0.07220	0.15117
0.22521	0.20219
0.09770	0.12566
0.19971	0.15117
0.14870	0.25320
0.07220	0.04914
0.14870	0.17668
0.22521	0.25320
0.17421	0.25320
0.07220	0.15117
0.12320	0.07465
0.22521	0.10015
0.12320	-0.07840
0.09770	0.10015
0.12320	0.25320
0.19971	0.20219
0.09770	0.30422
0.14870	0.22769
0.14870	0.10015
0.09770	0.10015
0.12320	0.15117
0.17421	0.10015
0.12320	0.30422
0.22521	0.17668
0.14870	0.02363
0.07220	0.04914
0.22521	0.12566
0.09770	0.10015
0.12320	0.15117
0.19971	0.25320
0.07220	0.17668
0.14870	0.12566
0.14870	0.15117
0.09770	0.10015
0.12320	-0.10391
0.14870	0.25320
0.14870	0.10015
0.14870	0.38074
0.22521	0.35523
0.07220	0.20219
0.14870	0.17668
0.14870	0.17668
0.07220	-0.02739
0.17421	0.02363
0.19971	0.04914
0.07220	0.02363
0.14870	0.17668
0.22521	0.17668
0.14870	0.12566
0.07220	0.17668
0.19971	0.25320
0.14870	0.12566
0.07220	-0.05289
0.19971	-0.00188
0.12320	0.45726
0.17421	0.25320
0.09770	0.07465
0.14870	0.04914
0.22521	0.17668
0.12320	0.32972
0.09770	0.10015
0.17421	0.12566
0.22521	0.15117
0.14870	0.15117
0.12320	0.17668
0.19971	0.12566
0.14870	0.15117
0.09770	0.12566
0.14870	0.12566
0.12320	0.20219
0.19971	0.10015
0.17421	0.10015
0.07220	0.15117
0.12320	0.27871
0.22521	0.27871
0.14870	0.07465
0.07220	0.10015
0.12320	0.12566
0.22521	-0.23145
0.17421	0.20219
0.07220	0.35523
0.14870	0.35523
0.14870	0.30422
0.19971	0.10015
0.14870	-0.00188
0.12320	0.07465
0.12320	0.22769
0.14870	0.27871
0.22521	0.10015
0.12320	-0.00188
0.09770	-0.20594
0.14870	0.04914
0.22521	0.40625
0.17421	0.35523
0.04670	0.22769
0.14870	0.20219
0.22521	0.22769
0.12320	0.15117
0.04670	-0.02739
0.22521	0.27871
0.14870	0.15117
0.14870	-0.05289
0.07220	0.40625
0.14870	0.07465
0.19971	-0.15492
0.12320	-0.35899
0.14870	0.15117
0.19971	1.09496
0.09770	0.71234
0.02119	-0.38449
0.09770	0.58480
0.09770	-0.30797
0.02119	-0.61406
0.27621	-0.69059
0.30171	-0.00188
0.04670	0.45726
0.22521	0.61031
0.04670	0.22769
0.12320	2.21730
0.22521	0.76336
0.14870	-0.76711
0.17421	-1.48133
-0.20832	0.99292
0.04670	0.15117
0.22521	-3.49644
0.19971	1.98773
0.12320	3.49268
-0.02981	1.19699
0.22521	-1.50683
0.40372	-0.48652
0.63323	0.99292
0.73524	1.50308
0.65874	2.39585
-0.43783	0.22769
-0.97337	-1.27726
-0.43783	-10.02642
-0.25932	-3.52195
0.42922	1.14597
0.70974	3.74776
0.86275	5.91592
0.53123	2.52339
0.86275	0.66132
-0.10631	-0.81812
-1.38139	-0.99668
-1.35589	2.26831
-0.23382	7.90552
0.04670	-7.67971
0.63323	-13.34243
0.02119	-0.30797
-1.04987	3.21210
1.65330	4.94663
2.57136	6.04346
2.64786	3.31413
1.16877	5.22721
-0.48884	-4.00659
-0.56534	-7.62869
-2.98800	-3.36890
-3.62554	2.62542
-1.38139	-1.25176
-0.13181	-0.15492
1.50029	1.37554
3.59142	2.70194
3.61693	-0.63957
0.83725	0.73785
-1.38139	2.11527
-0.94787	1.06945
-0.00431	-0.12942
1.01576	0.30422
1.14327	0.30422
-1.15188	-0.66508
-0.33583	-5.97069
-0.43783	1.73265
-0.00431	-2.78222
-2.24845	2.03874
-1.84042	3.26312
0.42922	1.17148
0.76074	0.25320
0.88825	2.37034
2.69887	-0.69059
0.68424	-2.85874
-1.15188	1.04394
0.55673	1.42656
1.98482	0.63582
1.67880	0.50828
1.09226	-0.18043
0.88825	1.91120
-1.61091	-4.87386
-3.19201	-0.99668
-1.50890	-0.48652
-1.40690	1.98773
-1.61091	3.11007
1.34728	-0.33348
2.49485	-3.70050
1.78081	1.12046
1.16877	1.57960
1.32178	1.78367
0.17421	1.98773
-0.64185	2.31933
-1.10088	-1.43031
-0.48884	-3.03730
0.17421	-2.65468
-0.87136	2.39585
-0.56534	-3.29238
0.86275	0.61031
0.86275	-0.81812
0.07220	2.47238
-0.94787	2.01323
1.01576	1.78367
0.93925	0.91640
0.48022	1.06945
-0.13181	1.78367
-0.13181	-2.85874
0.19971	-4.77183
0.91375	0.22769
0.02119	-0.18043
0.02119	0.63582
0.50573	3.00804
0.12320	1.17148
-0.20832	-3.41992
-0.66735	-0.12942
-0.05531	2.03874
0.60773	1.60511
0.55673	-0.07840
0.68424	0.17668
-0.25932	-0.18043
-3.11551	0.71234
0.02119	0.76336
1.16877	1.09496
0.76074	-1.96597
-0.89686	-4.74632
-0.38683	-0.69059
2.11233	1.83468
1.47479	3.56921
1.29628	1.78367
0.76074	0.27871
0.12320	-1.83844
0.02119	-0.10391
-0.23382	1.52859
-0.08081	-0.56305
-0.28482	-0.33348
-0.33583	2.39585
-0.38683	-0.86914
-0.41233	-1.04770
-0.23382	0.43176
-0.15732	-1.04770
-0.10631	-0.30797
-0.05531	-0.81812
0.27621	1.12046
0.30171	1.68163
0.40372	-0.05289
0.53123	-0.33348
0.63323	1.09496
0.48022	2.14077
0.53123	-3.41992
1.34728	-0.79262
1.95932	0.15117
1.24527	1.27351
-2.93700	1.83468
-6.02269	2.14077
0.25071	-0.20594
2.31634	-1.91496
2.23984	-0.23145
1.80631	0.96742
1.47479	0.73785
0.37822	0.27871
-0.53984	0.15117
0.14870	-0.18043
0.12320	0.81437
0.27621	-0.81812
-0.00431	-0.76711
-0.46334	-1.58336
-0.69285	-0.20594
-0.74385	1.35003
-0.43783	0.10015
0.12320	-0.69059
0.32721	0.48277
0.37822	1.50308
0.22521	0.38074
0.17421	0.07465
0.37822	1.37554
0.37822	-0.43551
0.58223	-0.05289
0.42922	0.86539
0.35272	-0.41000
0.27621	1.47757
0.32721	-2.06800
0.50573	3.21210
0.19971	-1.02219
-0.71835	-5.91967
-0.94787	-0.69059
0.07220	1.47757
0.30171	3.21210
0.63323	2.42136
0.42922	1.32453
0.32721	0.25320
0.07220	0.43176
0.55673	-0.71609
1.06676	-1.09871
0.30171	-1.14973
-0.87136	-1.68539
-2.83499	-0.00188
-0.08081	0.22769
1.42379	0.71234
1.42379	0.43176
0.09770	0.12566
0.40372	0.45726
0.81175	0.17668
0.93925	-0.05289
-1.38139	0.55929
-1.96793	1.29902
0.78624	0.12566
1.14327	-0.15492
1.14327	0.22769
0.86275	1.86019
0.19971	-1.73640
-0.48884	-2.45062
-0.13181	2.01323
-0.05531	1.65613
-0.00431	0.35523
-0.08081	1.24800
0.02119	-0.35899
0.14870	-0.23145
0.02119	-0.46102
0.14870	-0.66508
0.22521	0.71234
0.22521	-0.79262
0.19971	-1.40480
0.30171	1.22250
0.30171	2.57441
0.35272	-3.31788
0.17421	-1.20074
0.27621	1.40105
0.04670	1.83468
0.12320	1.09496
-0.41233	-0.71609
-0.00431	0.94191
0.86275	0.78886
0.63323	-0.33348
-0.02981	-1.02219
0.09770	0.48277
-0.25932	0.58480
-0.33583	0.27871
0.42922	0.15117
0.40372	0.40625
1.11776	0.63582
-0.48884	-0.33348
-0.79486	-0.79262
0.73524	-1.99148
0.70974	-0.76711
0.53123	1.06945
-1.15188	1.32453
-0.66735	0.27871
0.30171	1.35003
0.45472	1.04394
0.68424	2.24281
0.63323	1.57960
0.07220	-3.59847
-0.02981	-2.88425
0.07220	0.66132
0.12320	1.37554
0.07220	1.88570
0.17421	2.11527
0.25071	0.86539
0.02119	-3.59847
0.09770	0.25320
0.14870	-0.00188
0.19971	0.58480
0.19971	-0.15492
0.22521	0.78886
0.37822	0.25320
0.45472	-0.05289
0.30171	-0.18043
-0.69285	0.17668
-0.46334	-0.38449
0.17421	0.94191
0.32721	-0.61406
1.14327	-0.61406
0.19971	-0.28246
0.32721	0.40625
0.40372	1.01843
-0.10631	0.96742
0.40372	1.14597
-0.28482	0.96742
0.25071	-0.76711
-0.05531	0.40625
0.63323	-0.58856
0.78624	-0.66508
0.35272	-0.30797
-0.08081	0.58480
-0.28482	0.35523
-1.33039	-0.07840
-0.66735	0.10015
0.55673	0.12566
0.45472	1.09496
0.93925	0.55929
0.73524	0.10015
0.37822	0.30422
0.48022	-0.20594
0.27621	0.07465
0.17421	0.43176
-0.20832	-0.20594
-1.17738	0.55929
-0.71835	-2.39961
0.42922	-2.11902
0.60773	0.17668
0.53123	1.78367
0.42922	2.16628
0.53123	2.85499
0.45472	1.06945
0.25071	-1.32828
-0.08081	-2.96078
-0.18282	0.71234
-0.10631	-0.05289
0.12320	1.78367
0.63323	1.45206
0.14870	0.48277
-0.38683	-1.07320
-0.43783	0.10015
0.17421	-0.92016
0.53123	-0.76711
0.12320	0.38074
-0.15732	0.04914
0.07220	-0.58856
0.45472	0.22769
0.42922	1.14597
0.53123	0.07465
0.42922	-0.15492
-0.08081	0.76336
-0.48884	0.25320
0.35272	-0.05289
0.35272	0.12566
-0.05531	0.53379
-1.10088	0.45726
-0.25932	-0.35899
0.32721	0.02363
0.76074	-0.05289
0.42922	0.81437
0.55673	0.32972
0.32721	0.81437
-0.02981	0.76336
0.30171	-3.72601
0.78624	-2.42511
-0.66735	1.19699
-1.35589	1.68163
0.50573	1.57960
0.86275	1.09496
0.70974	1.09496
0.65874	0.73785
0.48022	0.20219
-0.28482	-0.02739
-0.38683	-0.35899
-0.13181	0.20219
0.40372	0.04914
0.40372	-0.63957
-0.05531	-2.19554
-0.10631	-1.45582
0.30171	1.91120
0.73524	0.25320
0.32721	0.25320
0.73524	0.25320
-1.22839	-1.07320
0.53123	-0.02739
-0.43783	0.68683
-1.04987	1.01843
-0.33583	0.99292
0.83725	0.86539
0.48022	0.86539
1.34728	0.81437
1.62780	0.27871
0.07220	-0.02739
-0.92237	-0.28246
1.06676	-0.61406
1.11776	-0.53754
1.34728	0.02363
-0.25932	-0.00188
-2.04444	-0.43551
-1.55991	-0.20594
-0.76936	-0.84363
0.88825	0.02363
1.11776	0.38074
0.14870	-0.48652
-0.36133	-0.15492
0.37822	1.09496
0.83725	-0.76711
0.30171	2.21730
-0.48884	2.14077
-0.59084	1.63062
0.19971	0.50828
0.58223	0.83988
0.60773	-2.24656
0.42922	-2.39961
0.68424	-0.25695
-0.02981	0.38074
-0.10631	0.96742
-0.66735	0.78886
-0.00431	-0.41000
0.32721	-1.86394
0.73524	-0.48652
1.21977	0.76336
0.68424	0.30422
-1.63641	0.99292
-2.06994	0.55929
0.14870	0.68683
0.76074	0.04914
1.21977	0.32972
1.11776	0.40625
0.91375	0.40625
0.12320	-0.10391
-0.08081	0.30422
-0.94787	0.43176
-0.41233	-0.18043
0.19971	0.48277
0.68424	-1.37929
0.99026	0.91640
-0.10631	0.45726
-1.91693	-1.35379
-1.12638	0.73785
1.29628	-0.30797
0.88825	-0.18043
0.68424	0.02363
-0.10631	0.89089
0.93925	1.40105
0.83725	1.75816
0.42922	1.37554
-0.61635	-0.48652
-0.82036	-0.46102
0.09770	-0.46102
0.30171	0.35523
0.42922	1.60511
0.53123	-0.51203
0.30171	-2.62918
0.12320	-0.66508
-0.28482	0.78886
-0.23382	0.38074
0.25071	0.55929
0.14870	0.07465
0.19971	-0.63957
0.50573	1.57960
-0.31033	0.73785
-0.43783	-0.86914
0.12320	-0.58856
-0.10631	-0.02739
0.96476	1.52859
0.35272	0.66132
0.42922	0.27871
0.65874	1.45206
0.88825	0.55929
0.04670	-1.25176
-0.46334	-0.56305
0.07220	-1.20074
-0.33583	-0.33348
-0.56534	1.70714
-0.13181	0.48277
0.07220	0.83988
0.14870	-0.33348
0.53123	-0.99668
1.06676	-0.66508
0.50573	-0.30797
0.48022	1.24800
-1.40690	1.73265
-0.94787	0.81437
0.30171	-0.07840
0.30171	0.35523
0.73524	-1.99148
0.81175	0.53379
0.53123	0.22769
0.25071	0.40625
0.37822	0.10015
0.07220	1.32453
0.40372	0.81437
-0.53984	-3.21585
-1.04987	0.38074
-0.08081	-0.25695
0.22521	-0.89465
0.22521	1.27351
0.09770	1.37554
0.19971	1.50308
0.76074	1.06945
0.55673	0.81437
0.73524	-0.23145
-1.20288	-0.99668
-0.69285	-0.23145
-0.15732	0.12566
0.70974	0.04914
0.83725	-0.05289
1.06676	0.07465
0.42922	0.22769
0.25071	0.10015
0.42922	-0.69059
-0.18282	0.27871
-0.28482	0.91640
-0.10631	0.43176
-0.00431	-0.25695
-0.02981	0.20219
-0.05531	-0.02739
-0.43783	-0.28246
-0.61635	1.06945
0.48022	-0.23145
0.83725	0.12566
0.78624	1.14597
0.42922	0.99292
0.27621	0.63582
-0.00431	0.12566
-0.41233	0.10015
0.42922	-0.66508
0.30171	0.61031
0.27621	0.50828
0.07220	-0.94566
0.14870	-1.27726
-0.10631	-2.70570
0.02119	1.45206
0.37822	0.71234
0.99026	1.17148
-0.10631	0.63582
-0.10631	0.78886
-0.46334	0.55929
0.12320	0.22769
0.70974	0.40625
0.42922	0.02363
-0.71835	-0.43551
-0.08081	-0.41000
0.27621	-0.12942
0.32721	-0.07840
0.40372	0.86539
0.30171	0.58480
0.19971	-0.66508
0.02119	-0.15492
0.02119	0.30422
0.53123	0.78886
0.65874	-0.35899
0.58223	1.40105
0.04670	0.43176
-0.53984	-0.15492
-1.12638	-1.32828
-0.13181	0.35523
0.53123	0.73785
0.68424	0.66132
0.40372	0.50828
0.48022	0.20219
0.09770	0.22769
0.17421	0.99292
0.19971	-0.43551
-0.02981	-1.07320
0.02119	-0.81812
-0.82036	0.25320
-0.69285	0.96742
0.73524	0.66132
0.81175	-0.79262
0.73524	-1.71090
0.58223	1.09496
0.27621	0.32972
0.19971	-0.05289
0.09770	1.37554
-0.18282	1.22250
-0.02981	0.71234
-0.02981	0.55929
0.14870	0.17668
-0.13181	-0.10391
-0.28482	0.10015
0.91375	-0.56305
0.19971	-0.28246
-0.74385	-0.00188
0.53123	-1.48133
-0.76936	0.15117
0.12320	0.15117
0.58223	-0.05289
0.65874	-0.58856
0.96476	1.09496
0.96476	1.88570
0.60773	0.30422
-0.31033	0.45726
-0.87136	0.45726
-0.08081	0.58480
-0.18282	-1.04770
0.14870	0.32972
0.19971	0.35523
0.19971	-0.46102
0.09770	-0.41000
0.35272	-0.15492
0.12320	-0.61406
-0.05531	-0.00188
-0.41233	0.22769
-0.41233	0.27871
0.32721	1.14597
1.14327	0.55929
0.91375	0.61031
-0.38683	0.66132
-1.43240	-0.79262
-0.51434	-1.45582
0.76074	0.55929
0.88825	0.71234
1.04126	0.55929
0.42922	-0.41000
0.48022	-1.07320
0.25071	0.99292
0.07220	1.17148
-0.13181	-0.18043
-0.08081	1.80917
0.42922	1.27351
0.37822	-1.35379
-1.15188	-1.68539
-2.55447	-1.07320
-0.48884	-0.56305
0.81175	1.29902
1.39828	0.91640
1.37278	1.06945
0.83725	1.32453
0.65874	0.89089
0.30171	-1.86394
0.14870	-0.51203
-0.02981	0.71234
-0.18282	0.12566
-0.20832	-0.48652
-0.18282	0.27871
-0.08081	0.22769
0.32721	0.30422
0.07220	0.25320
-0.18282	0.17668
0.40372	0.27871
0.30171	0.32972
-0.15732	0.10015
0.53123	0.55929
0.25071	0.55929
0.22521	-0.25695
-0.41233	-1.63437
0.14870	-2.09351
0.19971	0.63582
0.83725	2.70194
1.09226	1.29902
0.78624	-1.09871
0.17421	0.55929
-0.28482	0.35523
0.02119	0.38074
-0.08081	0.89089
0.19971	0.55929
-0.28482	-0.05289
-0.31033	-1.17523
-0.15732	-0.30797
0.07220	0.48277
0.07220	0.63582
0.07220	-0.61406
0.25071	0.22769
0.37822	0.63582
0.48022	0.53379
0.27621	-0.38449
-0.25932	-0.94566
0.32721	-0.25695
-0.56534	1.42656
0.35272	0.27871
0.63323	0.63582
0.96476	-0.20594
0.88825	-0.69059
0.55673	0.55929
0.12320	1.06945
-0.31033	-0.07840
-0.23382	0.40625
0.14870	0.40625
-0.28482	0.78886
-0.74385	0.35523
-0.89686	-0.53754
0.19971	-1.43031
0.73524	-0.69059
0.63323	0.63582
0.63323	1.04394
0.32721	0.83988
-0.20832	0.53379
0.07220	-0.18043
0.22521	0.02363
0.42922	-0.41000
-0.10631	-0.58856
0.09770	0.73785
0.30171	0.66132
0.42922	-0.46102
0.53123	-0.38449
-0.05531	1.01843
-0.18282	-0.43551
-0.00431	0.35523
-0.33583	0.25320
-0.25932	-0.02739
0.25071	0.35523
0.58223	-0.15492
1.21977	0.35523
-0.38683	1.27351
-0.15732	0.27871
0.27621	-0.28246
0.86275	-0.41000
0.63323	1.22250
0.04670	-1.96597
-0.28482	-2.22105
-1.68742	0.53379
-0.61635	1.40105
0.81175	1.73265
0.78624	0.96742
0.78624	0.68683
0.60773	0.07465
0.65874	0.76336
-0.00431	-1.35379
-0.38683	-2.39961
-0.25932	0.50828
0.14870	0.55929
0.30171	0.48277
0.35272	-0.23145
0.22521	-0.43551
-0.02981	1.12046
0.07220	1.04394
0.09770	-0.35899
0.12320	0.76336
0.07220	0.17668
0.12320	0.66132
0.09770	-0.48652
-0.28482	-0.89465
-0.25932	0.61031
0.63323	0.25320
0.76074	0.32972
0.17421	0.40625
0.37822	0.30422
0.22521	-0.02739
-0.51434	0.35523
0.32721	0.25320
0.68424	-1.68539
0.78624	-0.48652
0.53123	0.53379
-0.05531	0.40625
-0.69285	1.17148
-0.25932	-0.48652
-1.53441	0.27871
0.09770	0.66132
1.29628	0.66132
0.65874	0.43176
-0.56534	0.25320
-0.08081	-1.48133
0.68424	0.07465
1.06676	-0.97117
0.25071	1.68163
-0.10631	-0.20594
-0.94787	0.53379
0.09770	1.29902
0.86275	-0.74160
0.83725	-0.56305
0.68424	0.81437
0.55673	0.02363
-0.41233	-0.15492
-1.17738	-0.58856
0.22521	-0.25695
-0.31033	0.66132
-0.13181	0.48277
0.37822	1.47757
0.37822	-0.53754
-0.02981	0.15117
-0.46334	0.63582
0.32721	-1.30277
1.09226	-0.02739
0.37822	0.04914
0.07220	0.22769
0.12320	1.73265
0.63323	0.45726
0.73524	-0.58856
0.58223	-0.99668
-0.28482	-1.04770
0.02119	0.12566
0.19971	1.80917
0.30171	2.14077
-0.36133	-0.69059
-0.43783	-0.41000
-0.31033	-2.06800
-0.43783	1.01843
0.93925	1.24800
0.83725	0.15117
-0.41233	0.63582
-1.02437	0.27871
0.19971	-1.55785
0.02119	-0.35899
1.42379	1.78367
0.96476	-0.48652
1.29628	0.71234
0.68424	0.76336
-0.33583	-0.56305
-1.15188	-0.99668
-0.43783	0.43176
0.42922	0.22769
0.76074	-1.20074
0.88825	-1.14973
0.04670	1.50308
-0.36133	1.73265
-0.10631	0.89089
-0.31033	-0.15492
-0.41233	0.12566
-0.48884	-0.12942
0.04670	-0.23145
0.58223	1.22250
0.63323	0.66132
0.50573	-0.76711
0.40372	-0.74160
0.40372	0.20219
-0.08081	0.32972
-0.15732	0.68683
0.25071	0.12566
0.42922	0.15117
0.63323	-1.14973
0.27621	-0.02739
-0.71835	0.17668
-0.48884	-0.35899
-0.48884	0.55929
0.78624	0.83988
0.83725	0.25320
0.68424	0.76336
0.45472	0.17668
-0.69285	0.02363
0.70974	0.27871
1.09226	0.43176
0.37822	0.48277
-0.18282	-0.92016
-0.46334	-0.48652
0.42922	-0.15492
0.65874	1.17148
-0.25932	-0.25695
0.14870	0.55929
0.07220	0.12566
-0.20832	-0.18043
0.35272	0.50828
0.17421	1.17148
0.09770	-0.66508
0.45472	-0.66508
0.09770	0.10015
1.09226	0.63582
-0.76936	0.55929
-1.73842	-0.30797
-0.00431	-0.86914
0.68424	0.50828
1.29628	-0.23145
1.52579	1.06945
0.99026	1.45206
-1.68742	0.83988
-0.66735	0.02363
0.19971	-0.86914
0.73524	0.53379
0.86275	0.35523
0.58223	-0.10391
0.35272	-0.56305
0.09770	-0.18043
-0.18282	0.22769
-0.00431	0.73785
-0.10631	0.45726
-0.02981	0.04914
-0.18282	0.10015
0.17421	1.37554
-0.00431	-0.38449
-0.84586	-3.13933
-0.46334	-0.28246
0.60773	0.40625
1.34728	2.34484
1.01576	0.58480
0.12320	0.55929
-0.89686	0.68683
-0.59084	0.12566
0.04670	0.10015
1.01576	0.07465
1.27078	0.35523
0.32721	-0.00188
-0.10631	0.76336
0.25071	0.81437
0.09770	-2.27207
0.17421	-0.97117
0.14870	0.58480
-0.43783	-0.20594
-0.69285	0.22769
-0.74385	0.76336
-0.10631	0.55929
0.60773	-0.05289
0.50573	0.58480
0.17421	0.45726
0.42922	0.55929
0.83725	0.55929
0.68424	-0.76711
0.53123	-1.27726
-0.89686	-0.15492
-1.10088	0.53379
0.48022	1.37554
0.63323	0.83988
0.14870	0.35523
0.48022	0.45726
0.37822	-0.02739
-0.08081	-0.35899
0.40372	-0.28246
0.45472	-1.20074
0.32721	0.35523
0.02119	0.61031
-0.56534	0.76336
-0.33583	0.58480
-0.02981	0.17668
0.12320	1.04394
0.35272	0.63582
0.40372	0.07465
0.63323	-0.30797
0.40372	-1.53234
-0.00431	-0.46102
-0.53984	0.58480
-0.53984	1.22250
1.04126	-1.12422
0.42922	-0.81812
0.53123	1.14597
-0.23382	2.16628
0.22521	1.68163
-0.05531	0.15117
0.25071	-0.92016
0.12320	-0.71609
-0.13181	-0.48652
-0.33583	-0.10391
0.32721	0.04914
0.35272	0.55929
0.25071	0.40625
0.60773	0.04914
0.60773	-0.00188
0.40372	0.25320
0.25071	0.17668
0.12320	-0.10391
-0.00431	0.50828
-0.10631	-0.10391
-0.31033	0.40625
-0.18282	0.61031
-0.43783	0.76336
-0.13181	-0.97117
0.42922	0.17668
0.22521	-1.43031
0.19971	-0.97117
0.83725	1.70714
1.06676	-0.02739
-0.46334	1.24800
-1.30489	0.02363
-0.64185	0.40625
0.53123	0.99292
0.78624	0.20219
0.91375	-0.41000
0.50573	-0.63957
0.60773	0.07465
0.65874	0.43176
-0.13181	0.25320
-0.28482	1.12046
-0.31033	2.49788
0.02119	-2.68019
0.17421	-3.08831
0.19971	-0.66508
0.07220	1.47757
-0.18282	1.04394
0.19971	0.94191
0.63323	0.86539
0.91375	0.50828
0.58223	0.32972
-3.47253	0.15117
-1.48340	-0.18043
0.96476	-0.12942
1.34728	0.17668
1.39828	0.15117
1.72980	-0.00188
1.37278	-0.15492
-0.13181	0.17668
-0.41233	0.30422
-0.08081	-0.76711
-0.15732	0.86539
-0.23382	0.50828
0.35272	0.07465
0.25071	0.17668
-0.08081	-0.07840
-0.02981	0.40625
-0.31033	1.17148
-0.18282	0.71234
0.22521	-1.88945
0.22521	0.22769
0.40372	-0.41000
0.25071	0.50828
0.09770	0.63582
0.04670	0.25320
0.37822	0.55929
0.60773	0.15117
0.27621	-0.10391
-0.59084	0.76336
-0.61635	0.61031
0.27621	-0.07840
0.70974	-0.71609
0.58223	0.61031
0.35272	0.15117
0.48022	-0.56305
-0.43783	-0.28246
0.19971	0.91640
0.30171	0.48277
0.27621	-0.63957
0.19971	-0.69059
0.40372	0.02363
0.40372	0.20219
-0.66735	0.55929
-0.74385	1.17148
-0.08081	1.27351
-0.23382	0.91640
0.48022	-1.12422
-0.48884	-0.56305
-0.08081	-0.20594
1.42379	0.32972
0.99026	0.27871
0.65874	0.22769
-0.20832	0.66132
-0.82036	-0.05289
0.25071	-0.10391
0.63323	-0.97117
0.53123	0.71234
0.09770	0.12566
-0.25932	1.37554
0.25071	1.04394
-0.18282	-1.30277
-0.48884	-1.07320
-0.20832	-0.43551
0.30171	0.45726
0.32721	0.83988
0.48022	0.45726
0.32721	0.50828
0.19971	0.22769
0.25071	0.53379
-0.05531	0.61031
0.25071	-0.28246
-0.66735	0.25320
-0.48884	-1.83844
0.55673	-0.89465
0.73524	0.76336
0.42922	0.38074
0.25071	0.63582
-0.18282	1.32453
1.21977	0.25320
0.04670	0.27871
-1.38139	-0.12942
-0.38683	-0.41000
0.22521	-0.05289
0.70974	1.04394
0.88825	0.91640
0.81175	-1.81293
0.63323	-2.70570
0.19971	0.96742
-0.23382	1.19699
-0.15732	0.76336
-0.28482	0.89089
-0.23382	0.48277
-0.28482	1.37554
0.04670	0.55929
-0.02981	-0.10391
0.27621	-3.36890
0.63323	-0.71609
0.45472	1.63062
-0.00431	1.01843
-0.13181	0.81437
0.02119	0.81437
0.09770	0.91640
0.55673	0.55929
0.63323	-0.38449
0.50573	-1.65988
-0.31033	-0.81812
-0.33583	-0.51203
-0.43783	0.96742
-0.13181	0.91640
0.83725	0.58480
0.88825	-0.02739
0.93925	0.12566
-0.05531	0.10015
-0.41233	0.12566
-0.38683	-0.05289
-0.33583	0.53379
-0.66735	-0.07840
0.48022	0.04914
0.73524	0.30422
0.65874	-0.69059
0.12320	-0.30797
0.17421	0.40625
0.09770	1.17148
0.14870	1.35003
0.04670	0.94191
-0.23382	0.35523
-0.66735	-0.99668
-0.23382	-0.74160
0.76074	-0.35899
0.37822	-0.46102
0.76074	0.35523
0.30171	1.09496
0.14870	1.29902
-0.48884	0.04914
-0.36133	-0.25695
0.27621	1.40105
0.63323	-0.66508
0.42922	-0.15492
0.45472	-0.35899
0.60773	0.35523
0.12320	-0.46102
-1.45790	-0.10391
0.04670	0.40625
0.76074	-0.25695
0.83725	0.35523
0.63323	0.63582
0.07220	0.58480
0.12320	-0.00188
0.12320	0.78886
-0.02981	0.35523
0.19971	0.17668
-0.33583	-0.10391
-1.04987	-0.12942
-0.10631	0.20219
0.40372	0.78886
0.58223	1.32453
0.55673	-0.66508
0.42922	-1.68539
0.27621	-0.66508
0.63323	-0.30797
0.68424	0.45726
0.76074	1.14597
-1.07538	0.73785
-2.09544	1.22250
0.14870	-0.46102
1.06676	-0.12942
0.81175	0.22769
0.78624	-0.02739
0.78624	-0.46102
-0.38683	-1.37929
0.02119	0.50828
-0.56534	0.66132
0.22521	1.17148
0.48022	1.01843
0.63323	-0.05289
0.17421	-0.25695
-0.46334	-0.48652
-0.31033	1.24800
0.58223	0.12566
0.19971	0.43176
-0.48884	-0.51203
0.35272	-0.51203
-0.15732	0.02363
-0.38683	-0.05289
0.65874	-0.35899
0.32721	-0.43551
0.14870	0.58480
0.27621	0.20219
0.55673	1.35003
0.83725	1.37554
0.22521	0.20219
0.40372	-0.46102
-0.92237	-0.35899
-1.22839	-0.41000
-1.12638	0.53379
0.73524	0.68683
0.99026	1.57960
0.83725	-0.92016
1.14327	-1.58336
-0.20832	-0.86914
-1.04987	1.06945
0.27621	0.99292
0.53123	1.93671
0.42922	-0.94566
-0.10631	-1.63437
-0.53984	0.07465
0.88825	0.61031
0.35272	0.50828
0.12320	0.04914
0.22521	-0.35899
0.27621	0.48277
-0.00431	0.43176
-0.79486	0.17668
-0.33583	1.01843
0.81175	0.91640
0.12320	-0.00188
0.58223	-0.41000
-0.41233	-0.07840
-2.01894	0.04914
-0.23382	-1.09871
1.75531	0.76336
0.19971	-1.48133
0.83725	-0.41000
1.75531	2.29382
0.76074	1.96222
-0.15732	-0.20594
-0.25932	-0.58856
0.27621	-0.48652
-0.08081	0.40625
-0.61635	0.45726
-1.40690	0.50828
-0.28482	-0.18043
-0.08081	0.86539
0.48022	0.20219
1.01576	0.43176
1.32178	-0.69059
1.29628	-2.65468
-0.74385	0.10015
-1.25389	1.68163
-0.79486	1.01843
1.06676	0.25320
1.83181	1.24800
-0.08081	1.73265
-3.57454	-1.68539
0.35272	-2.60367
1.75531	-0.81812
2.06133	0.96742
1.67880	1.29902
0.96476	1.12046
0.86275	0.91640
-0.28482	0.04914
-0.08081	0.48277
-1.10088	0.43176
-1.68742	-0.25695
-0.25932	-0.41000
0.22521	-0.99668
0.19971	0.30422
0.25071	0.30422
0.14870	1.35003
-0.23382	-0.66508
-0.00431	-0.18043
0.45472	0.45726
0.91375	0.30422
1.04126	-1.27726
0.83725	0.63582
-1.04987	1.63062
-0.25932	0.89089
-0.08081	0.15117
0.76074	-0.20594
0.60773	-1.37929
0.91375	0.61031
-0.08081	1.04394
-0.18282	0.04914
0.09770	0.66132
0.04670	-0.41000
0.73524	-0.53754
1.14327	0.43176
-0.53984	0.12566
-0.53984	-0.58856
-0.28482	0.99292
0.32721	-0.10391
0.25071	-0.41000
0.04670	0.35523
0.12320	0.25320
0.09770	0.35523
0.32721	0.17668
0.09770	-0.15492
-0.41233	0.38074
0.48022	2.14077
0.22521	-0.58856
0.42922	-0.53754
0.02119	-0.92016
0.68424	-0.02739
0.42922	0.38074
-1.25389	1.04394
-0.28482	0.96742
1.44929	0.73785
0.81175	0.38074
-0.00431	-0.74160
-0.15732	-0.51203
-0.00431	-1.09871
0.35272	-0.18043
0.70974	0.71234
0.40372	1.04394
0.04670	-0.38449
-0.00431	0.48277
-0.02981	0.91640
-1.10088	0.86539
-1.04987	-0.10391
0.30171	-0.07840
0.65874	-1.45582
0.63323	0.83988
0.27621	0.58480
0.25071	-0.02739
0.22521	1.01843
0.48022	0.32972
0.27621	-0.84363
0.12320	-0.97117
-0.48884	-0.86914
-0.36133	0.02363
-0.20832	0.78886
0.09770	1.17148
0.99026	1.04394
1.21977	0.68683
0.70974	0.10015
-0.28482	0.25320
-0.92237	-0.46102
-0.13181	-0.10391
-0.46334	0.66132
0.55673	-0.10391
0.88825	-1.40480
0.48022	0.30422
0.45472	1.57960
0.42922	0.53379
0.12320	-0.05289
0.04670	-0.92016
-0.10631	-0.46102
0.12320	0.61031
-0.13181	0.58480
-0.25932	0.15117
0.07220	1.04394
-1.04987	0.35523
0.30171	-0.35899
0.76074	0.17668
0.96476	-1.20074
0.83725	-0.30797
0.09770	0.61031
-1.02437	1.12046
-0.00431	0.81437
-0.48884	0.78886
-0.23382	0.78886
0.48022	0.32972
0.91375	-0.58856
1.27078	-0.97117
0.96476	-0.05289
0.65874	0.68683
0.22521	-1.27726
0.04670	-0.05289
-0.23382	0.30422
-0.56534	0.22769
-0.51434	0.86539
-0.71835	0.48277
0.09770	-0.12942
-0.56534	0.48277
0.14870	0.22769
0.60773	-0.71609
0.50573	0.53379
0.86275	0.76336
0.14870	0.83988
-0.10631	0.32972
-0.38683	-0.84363
0.12320	-0.94566
1.06676	0.32972
1.19427	0.10015
-0.25932	0.15117
-1.45790	0.30422
0.76074	0.45726
0.81175	0.58480
0.70974	1.35003
-0.46334	0.12566
-0.99887	-0.15492
0.14870	-0.18043
0.55673	0.17668
0.50573	0.76336
0.65874	-1.76191
0.40372	-2.09351
-0.20832	0.83988
-0.69285	1.27351
-0.69285	1.04394
0.09770	-0.18043
0.42922	0.17668
0.40372	0.22769
0.32721	0.45726
0.02119	0.53379
-0.00431	0.61031
0.32721	0.61031
0.48022	-1.71090
0.40372	-1.14973
0.09770	-0.69059
-0.28482	1.45206
0.22521	0.45726
0.37822	1.12046
0.55673	0.48277
0.17421	0.86539
0.17421	-1.50683
-0.38683	-0.86914
-0.05531	0.22769
0.04670	1.22250
0.19971	0.78886
0.42922	0.48277
0.35272	0.25320
0.02119	-0.02739
0.48022	-0.05289
0.53123	-0.18043
0.22521	-0.05289
-0.51434	0.15117
0.12320	0.40625
0.40372	-0.12942
0.22521	-0.58856
-0.18282	0.32972
0.09770	0.58480
-0.56534	0.40625
-0.33583	-0.46102
-0.43783	0.43176
-0.00431	-0.43551
1.55129	-0.28246
1.95932	0.12566
0.25071	1.50308
-2.01894	0.58480
-0.02981	0.43176
0.78624	0.07465
1.04126	0.38074
0.53123	-0.86914
0.55673	-0.12942
0.14870	0.45726
-0.13181	0.89089
-0.15732	0.96742
0.02119	-0.66508
0.07220	-1.65988
-0.10631	-0.02739
-0.36133	0.94191
-0.23382	-2.09351
0.22521	1.19699
0.40372	1.17148
0.22521	1.55410
0.17421	0.83988
0.19971	-0.43551
0.45472	-1.32828
0.45472	-0.23145
0.35272	0.76336
0.32721	0.45726
0.22521	0.27871
0.27621	0.48277
0.22521	-0.53754
-0.92237	-0.12942
-1.20288	0.55929
-0.18282	1.78367
0.50573	-1.99148
1.62780	-2.34859
0.30171	1.04394
-0.61635	2.26831
0.50573	-1.30277
1.14327	0.22769
0.83725	1.35003
0.25071	0.81437
-0.13181	0.91640
-0.20832	0.81437
-0.13181	-0.51203
0.19971	-0.51203
0.02119	-1.02219
-0.46334	-0.86914
-1.20288	1.57960
-0.51434	-1.50683
0.53123	-0.92016
0.02119	1.52859
1.04126	0.48277
0.65874	-0.05289
-0.15732	-1.53234
0.12320	0.96742
0.09770	3.21210
0.65874	0.30422
0.86275	0.04914
0.73524	0.53379
0.50573	0.35523
-0.33583	0.71234
-0.56534	0.07465
0.27621	-0.81812
-0.05531	0.22769
-0.89686	-0.07840
-0.69285	0.40625
1.14327	0.76336
0.60773	-2.57816
-0.33583	-0.58856
0.07220	0.12566
0.37822	0.61031
0.30171	0.76336
0.37822	-0.02739
0.22521	-0.41000
0.25071	0.81437
0.35272	1.86019
0.22521	0.17668
0.32721	-0.76711
0.07220	0.07465
-0.05531	-0.00188
-0.33583	0.71234
-0.18282	0.83988
-0.38683	-0.25695
0.48022	0.10015
0.88825	-0.38449
0.63323	-0.05289
0.07220	0.35523
-0.13181	1.09496
-0.61635	0.25320
-0.23382	-0.23145
0.14870	0.50828
0.19971	0.94191
0.76074	-0.12942
0.73524	-1.58336
0.48022	1.63062
0.30171	1.14597
0.02119	-2.01699
0.02119	-1.71090
-0.13181	0.27871
-0.28482	-0.38449
-0.08081	-0.05289
-0.15732	3.21210
-0.46334	1.78367
0.45472	0.10015
0.50573	-0.46102
0.55673	-0.46102
0.48022	-0.12942
0.40372	0.86539
0.12320	0.96742
0.04670	0.61031
0.30171	0.61031
0.30171	-0.46102
-0.59084	-1.20074
0.25071	-1.96597
0.40372	-0.92016
0.35272	0.83988
-0.00431	0.89089
-0.36133	0.32972
-1.45790	-0.07840
0.07220	0.43176
0.32721	0.96742
0.22521	0.91640
0.91375	0.45726
1.09226	-0.51203
0.96476	-0.76711
0.78624	0.12566
0.40372	0.55929
-0.10631	0.78886
0.19971	0.96742
0.22521	-0.89465
-0.66735	-1.09871
-0.94787	0.02363
-1.73842	0.55929
-0.74385	1.12046
0.19971	2.62542
1.09226	1.27351
0.81175	-2.27207
0.30171	-5.15444
0.73524	1.47757
0.93925	0.86539
0.83725	0.10015
-0.18282	2.57441
-0.48884	0.45726
-0.13181	1.70714
0.02119	0.35523
0.53123	-0.48652
0.17421	-0.43551
-0.10631	-0.41000
0.40372	-0.18043
-0.08081	-0.18043
0.07220	0.25320
0.02119	0.35523
0.40372	-0.92016
0.55673	-0.76711
0.40372	0.07465
-0.00431	0.45726
0.17421	0.76336
-0.33583	0.43176
0.12320	0.58480
0.17421	0.61031
-0.13181	0.30422
1.11776	0.17668
0.53123	-1.02219
-1.38139	-0.15492
-0.74385	1.12046
0.96476	1.19699
1.04126	0.78886
1.19427	-0.15492
1.06676	0.12566
0.37822	-1.53234
-0.89686	-0.63957
-1.33039	1.19699
0.19971	0.76336
0.42922	-1.99148
0.07220	-0.07840
-0.05531	1.80917
0.42922	0.55929
0.48022	0.83988
0.25071	0.68683
0.32721	0.76336
0.42922	-0.66508
0.40372	-0.38449
-1.25389	0.12566
-0.43783	0.55929
0.42922	0.73785
-0.02981	-0.46102
0.30171	-0.61406
0.58223	-0.48652
0.65874	-0.23145
0.63323	-1.27726
0.27621	1.19699
0.19971	1.37554
0.42922	0.83988
0.12320	1.93671
-0.87136	1.19699
-0.99887	-0.79262
0.14870	-2.06800
1.09226	-0.46102
0.68424	-0.23145
-0.92237	0.94191
-0.25932	0.55929
0.83725	0.07465
0.78624	0.96742
0.60773	0.55929
-0.15732	-0.15492
-0.10631	-0.66508
-0.31033	0.32972
0.22521	-0.51203
-0.10631	-0.84363
0.32721	0.43176
0.63323	0.71234
0.48022	0.96742
0.19971	0.81437
0.14870	0.10015
0.58223	-0.74160
-0.79486	-0.66508
-1.02437	-1.45582
0.02119	0.55929
0.78624	1.86019
0.65874	1.73265
0.42922	-0.20594
0.02119	-0.66508
0.35272	-0.07840
0.27621	0.48277
0.22521	0.83988
0.07220	0.55929
-0.00431	0.17668
-0.00431	0.12566
0.02119	-0.48652
0.35272	-1.09871
-0.00431	-0.02739
-0.20832	-0.10391
-0.08081	-0.07840
-0.33583	0.61031
0.42922	0.07465
0.55673	0.27871
0.63323	0.20219
0.58223	0.04914
0.40372	-0.74160
0.12320	-0.05289
-0.13181	0.63582
0.17421	1.14597
0.22521	1.27351
0.07220	1.35003
-0.08081	0.15117
0.12320	-1.43031
-0.15732	-0.71609
0.27621	-0.94566
0.63323	0.30422
0.09770	0.04914
-1.61091	1.12046
-0.66735	0.89089
0.32721	-0.15492
0.96476	-0.15492
1.21977	-0.02739
1.01576	0.55929
0.73524	0.61031
0.63323	0.53379
0.35272	-2.52714
-0.18282	0.20219
-0.28482	0.38074
-0.33583	0.17668
-0.08081	0.58480
-0.23382	0.71234
0.09770	0.55929
0.27621	0.10015
0.04670	1.06945
-0.41233	0.22769
-0.02981	-1.25176
0.30171	-2.04250
0.65874	0.61031
0.63323	1.40105
0.48022	1.09496
0.50573	0.15117
0.35272	0.43176
0.09770	0.50828
0.02119	-0.38449
-0.10631	0.04914
-0.41233	-0.18043
-0.00431	-0.10391
-0.02981	-1.12422
0.25071	0.15117
0.22521	0.86539
0.70974	1.19699
0.37822	0.58480
0.12320	1.37554
-0.69285	-0.20594
-0.18282	-1.83844
0.27621	0.25320
0.50573	0.76336
0.73524	-1.73640
0.53123	-0.38449
0.22521	1.24800
0.78624	1.47757
0.65874	1.88570
-1.22839	0.78886
-1.66191	-0.69059
-0.94787	-0.92016
0.53123	-1.17523
0.86275	0.35523
0.19971	0.96742
0.22521	1.52859
1.21977	0.96742
0.93925	-2.22105
0.58223	-1.04770
-0.20832	0.25320
-0.23382	0.22769
0.12320	0.40625
0.09770	2.29382
0.07220	2.75296
0.04670	-1.30277
0.09770	-3.21585
-0.66735	-2.85874
-0.66735	1.27351
0.30171	2.77847
0.17421	1.47757
0.32721	0.58480
0.76074	0.81437
0.50573	-0.46102
0.27621	-1.22625
0.17421	-0.97117
0.12320	0.27871
0.22521	0.45726
0.35272	0.55929
0.35272	0.63582
0.22521	-0.00188
-0.08081	-0.56305
-0.71835	-0.35899
-0.64185	0.27871
-0.13181	0.48277
0.42922	0.78886
0.50573	0.89089
0.40372	-0.07840
0.60773	0.04914
0.42922	0.30422
0.02119	-1.12422
0.63323	-0.46102
0.22521	0.38074
-0.61635	0.94191
-0.38683	0.53379
-0.41233	0.63582
0.17421	0.43176
0.91375	-0.30797
0.70974	-0.30797
0.30171	0.53379
-0.18282	-0.33348
-0.05531	-0.43551
0.04670	0.55929
0.32721	0.40625
0.22521	0.32972
0.12320	-0.05289
0.09770	-0.00188
0.25071	-0.61406
0.17421	0.25320
0.09770	0.20219
-0.10631	0.68683
0.07220	0.43176
0.22521	0.35523
0.07220	-0.25695
-0.00431	0.27871
0.17421	0.96742
0.27621	-0.30797
0.27621	0.07465
0.22521	0.07465
0.25071	0.48277
0.37822	-1.04770
0.27621	-1.30277
0.25071	-0.38449
-0.02981	0.27871
-0.25932	0.96742
-0.46334	1.80917
0.25071	1.63062
0.68424	-0.28246
0.48022	-0.35899
0.48022	-0.00188
-0.18282	0.17668
-0.36133	0.32972
0.27621	0.25320
0.27621	0.17668
0.14870	-0.76711
0.68424	-0.61406
0.35272	0.10015
0.32721	0.25320
0.37822	0.91640
0.17421	1.70714
-0.10631	0.25320
-0.33583	-2.39961
-0.38683	-1.65988
0.17421	-0.61406
-0.08081	2.19179
-0.15732	1.98773
0.30171	0.45726
0.35272	1.32453
0.35272	0.15117
-0.56534	-0.15492
-0.00431	-1.55785
0.68424	-0.18043
0.68424	0.38074
0.48022	1.27351
0.63323	0.86539
0.37822	0.04914
0.25071	-3.11382
-0.64185	-0.02739
-0.69285	-0.56305
0.12320	0.96742
0.22521	1.42656
0.65874	1.04394
0.37822	0.25320
0.17421	-0.02739
0.30171	0.07465
0.32721	0.12566
-0.02981	0.30422
-1.61091	0.25320
0.22521	-0.43551
0.70974	-0.00188
1.09226	-0.00188
0.81175	-0.86914
0.09770	0.99292
-0.61635	0.78886
-0.61635	-0.05289
-0.33583	0.30422
0.73524	-0.41000
0.53123	0.61031
0.40372	0.53379
0.55673	1.37554
0.42922	1.09496
0.37822	-0.51203
-0.13181	-1.91496
-0.38683	-1.88945
-0.76936	-0.51203
0.30171	0.40625
0.58223	1.86019
-0.00431	2.34484
-0.69285	2.14077
-0.61635	0.53379
0.63323	-1.68539
0.93925	-1.37929
0.91375	-0.28246
0.65874	-0.33348
0.58223	0.76336
