0.14870	-0.23145
0.22521	-0.97117
0.19971	-0.00188
0.12320	0.48277
0.04670	0.61031
0.14870	0.53379
0.22521	0.35523
0.12320	0.20219
0.17421	0.10015
0.04670	0.15117
0.12320	0.10015
0.22521	-0.07840
0.14870	-0.00188
0.09770	0.07465
0.14870	0.12566
0.22521	0.17668
0.19971	0.04914
0.12320	0.04914
0.07220	0.15117
0.12320	0.35523
0.19971	0.27871
0.17421	0.17668
0.07220	0.25320
0.12320	0.25320
0.22521	0.15117
0.12320	0.04914
0.14870	0.10015
0.22521	0.25320
0.17421	0.22769
0.14870	0.07465
0.07220	0.07465
0.17421	0.10015
0.14870	0.25320
0.12320	0.12566
0.17421	-0.41000
0.17421	0.25320
0.12320	0.27871
0.09770	0.25320
0.07220	-0.07840
0.14870	0.43176
0.22521	0.30422
0.14870	0.35523
0.12320	0.22769
0.07220	0.07465
0.17421	0.02363
0.22521	0.10015
0.22521	-0.12942
0.07220	0.02363
0.07220	0.15117
0.12320	0.20219
0.22521	0.17668
0.14870	0.20219
0.14870	0.17668
0.09770	0.07465
0.14870	0.15117
0.22521	0.27871
0.17421	0.15117
0.12320	0.48277
0.09770	0.25320
0.17421	-0.48652
0.22521	-0.35899
0.12320	-0.30797
0.09770	0.43176
0.12320	0.66132
0.14870	0.32972
0.19971	0.68683
0.19971	0.43176
0.14870	0.25320
0.17421	0.07465
0.12320	-0.00188
0.14870	-0.05289
0.22521	-0.00188
0.14870	-0.00188
0.09770	-0.05289
0.07220	-0.00188
0.14870	0.07465
0.14870	0.17668
0.19971	0.17668
0.14870	0.17668
0.17421	0.20219
0.25071	0.20219
0.17421	0.04914
0.12320	0.22769
0.22521	0.32972
0.19971	0.25320
0.12320	0.10015
0.14870	0.12566
0.19971	0.22769
0.14870	0.04914
0.14870	0.15117
0.22521	0.17668
0.12320	0.07465
0.14870	0.10015
0.22521	0.20219
0.17421	0.12566
0.14870	0.02363
0.19971	-0.10391
0.17421	0.15117
0.07220	0.32972
0.14870	0.20219
0.22521	0.27871
0.12320	0.20219
0.14870	0.22769
0.19971	0.30422
0.07220	0.15117
0.14870	0.15117
0.19971	0.12566
0.04670	0.10015
0.14870	0.10015
0.25071	0.27871
0.12320	0.22769
0.07220	0.12566
0.17421	0.27871
0.12320	0.20219
0.07220	-0.10391
0.17421	-0.76711
0.19971	0.12566
0.14870	0.30422
0.12320	0.55929
0.22521	0.71234
0.14870	0.45726
0.09770	0.20219
0.17421	0.12566
0.22521	0.04914
0.09770	0.04914
0.17421	0.15117
0.19971	0.10015
0.07220	-0.07840
0.14870	-0.38449
0.17421	0.20219
0.07220	0.25320
0.14870	0.27871
0.25071	0.27871
0.07220	0.22769
0.14870	0.17668
0.19971	0.20219
0.17421	0.04914
0.02119	0.07465
0.12320	0.25320
0.14870	0.07465
0.07220	0.15117
0.22521	0.17668
0.12320	0.04914
0.07220	0.15117
-0.02981	0.17668
0.27621	0.22769
0.45472	0.17668
0.17421	0.04914
-0.00431	0.17668
0.07220	0.15117
0.12320	-0.10391
0.14870	0.25320
0.07220	0.25320
0.09770	0.27871
0.17421	0.17668
0.27621	0.04914
0.12320	0.02363
0.12320	0.07465
0.09770	0.22769
0.09770	0.32972
0.17421	-0.02739
0.19971	0.25320
0.14870	0.10015
0.04670	-0.05289
0.12320	0.07465
0.22521	0.32972
0.22521	0.32972
0.12320	0.20219
0.09770	-0.02739
0.12320	0.20219
0.17421	0.27871
0.22521	0.12566
0.14870	0.02363
0.07220	-0.35899
0.17421	0.27871
0.19971	0.35523
0.12320	0.35523
0.14870	0.22769
0.09770	0.07465
0.12320	0.15117
0.22521	0.25320
0.19971	0.15117
0.07220	0.10015
0.09770	0.15117
0.17421	0.12566
0.12320	-0.00188
0.12320	0.07465
0.17421	0.22769
0.12320	0.20219
0.07220	0.17668
0.09770	0.12566
0.14870	0.25320
0.22521	0.22769
0.12320	0.15117
0.07220	0.15117
0.14870	0.20219
0.19971	0.22769
0.19971	0.12566
0.14870	0.04914
0.07220	0.07465
0.09770	0.15117
0.19971	0.17668
0.17421	0.15117
0.12320	0.07465
0.14870	0.17668
0.19971	0.17668
0.17421	0.02363
0.14870	0.15117
0.19971	0.30422
0.17421	0.30422
0.12320	0.10015
0.14870	-0.07840
0.17421	0.12566
0.17421	0.02363
0.12320	0.04914
0.19971	0.22769
0.17421	0.27871
0.22521	0.35523
0.14870	0.43176
0.12320	0.30422
0.22521	-0.12942
0.09770	-0.25695
0.14870	-0.05289
0.17421	0.07465
0.14870	0.40625
0.12320	0.20219
0.12320	0.20219
0.22521	0.20219
0.12320	0.10015
0.17421	0.20219
0.19971	0.12566
0.14870	0.02363
0.14870	0.10015
0.22521	0.20219
0.22521	0.12566
0.14870	0.04914
0.14870	0.20219
0.17421	0.15117
0.14870	0.10015
0.12320	0.25320
0.17421	0.25320
0.12320	0.27871
0.07220	0.15117
0.14870	0.22769
0.22521	-0.38449
0.22521	0.04914
0.17421	0.12566
0.09770	0.43176
0.12320	0.40625
0.12320	0.25320
0.07220	0.27871
0.09770	-0.46102
0.25071	0.15117
0.12320	0.10015
0.04670	0.12566
0.14870	0.27871
0.25071	0.35523
0.14870	0.04914
0.07220	0.12566
0.14870	0.25320
0.22521	0.20219
0.14870	-0.00188
0.07220	-0.25695
0.14870	-0.02739
0.22521	0.35523
0.14870	0.20219
0.07220	0.07465
0.12320	0.15117
0.12320	0.30422
0.09770	0.20219
0.12320	0.20219
0.22521	0.20219
0.14870	0.17668
0.12320	0.12566
0.09770	-0.25695
0.22521	0.22769
0.19971	0.35523
0.07220	0.30422
0.04670	0.15117
0.19971	0.12566
0.12320	0.12566
0.09770	0.07465
0.14870	0.04914
0.17421	0.22769
0.14870	0.15117
0.17421	-0.02739
0.25071	0.25320
0.12320	0.22769
0.07220	0.15117
0.09770	0.07465
0.14870	0.20219
0.19971	0.20219
0.09770	0.15117
0.12320	0.07465
0.22521	-0.23145
0.12320	0.20219
0.09770	0.40625
0.17421	0.38074
0.22521	0.25320
0.22521	0.20219
0.12320	0.15117
0.12320	0.02363
0.09770	0.15117
0.09770	-0.07840
0.14870	0.32972
0.19971	0.45726
0.22521	-0.02739
0.12320	0.15117
0.07220	-0.10391
0.14870	0.12566
0.14870	0.32972
0.19971	0.25320
0.14870	0.25320
0.09770	0.22769
0.07220	0.15117
0.09770	0.12566
0.17421	0.15117
0.12320	0.15117
0.19971	0.12566
0.09770	0.17668
0.09770	-0.02739
0.14870	0.04914
0.22521	0.27871
0.19971	0.25320
0.14870	0.25320
0.09770	0.12566
0.09770	0.17668
0.14870	0.32972
0.22521	0.25320
0.09770	0.04914
0.07220	0.15117
0.12320	0.15117
0.14870	0.15117
0.19971	-0.07840
0.14870	0.27871
0.07220	0.10015
0.19971	0.02363
0.12320	0.40625
0.07220	0.30422
0.12320	-0.00188
0.19971	0.10015
0.17421	0.17668
0.09770	0.15117
0.14870	-0.02739
0.19971	0.20219
0.14870	0.15117
0.09770	0.15117
0.12320	0.10015
0.14870	0.22769
0.09770	0.25320
0.14870	0.15117
0.25071	-0.00188
0.12320	0.17668
0.07220	0.07465
0.17421	0.20219
0.09770	0.20219
0.09770	0.02363
0.14870	0.35523
0.14870	0.32972
0.07220	-0.05289
0.22521	0.15117
0.07220	0.07465
0.14870	0.15117
0.14870	0.15117
0.14870	0.15117
0.22521	0.15117
0.14870	0.12566
0.09770	0.12566
0.14870	0.20219
0.12320	0.02363
0.07220	0.35523
0.12320	0.35523
0.25071	0.22769
0.07220	0.07465
0.14870	0.17668
0.14870	0.15117
0.09770	0.04914
0.14870	0.17668
0.22521	0.12566
0.12320	-0.10391
0.19971	-0.05289
0.07220	0.07465
0.19971	0.38074
0.12320	0.25320
0.14870	0.22769
0.12320	0.25320
0.09770	0.10015
0.12320	0.12566
0.14870	0.25320
0.07220	-0.02739
0.17421	0.02363
0.19971	0.15117
0.07220	0.15117
0.17421	0.15117
0.14870	0.22769
0.12320	0.07465
0.22521	0.17668
0.14870	0.12566
0.14870	0.04914
0.17421	0.12566
0.12320	0.27871
0.14870	0.15117
0.22521	-0.02739
0.07220	0.12566
0.19971	0.22769
0.12320	0.30422
0.09770	0.17668
0.22521	0.20219
0.17421	0.27871
0.17421	0.10015
0.07220	0.10015
0.14870	-0.46102
0.19971	0.27871
0.12320	0.40625
0.07220	0.35523
0.22521	0.04914
0.19971	-0.00188
0.04670	0.10015
0.14870	0.25320
0.19971	0.27871
0.22521	0.22769
0.14870	0.12566
0.07220	0.15117
0.14870	0.10015
0.22521	-0.00188
0.14870	-0.07840
0.07220	0.17668
0.09770	0.04914
0.12320	0.22769
0.17421	0.25320
0.19971	0.25320
0.14870	0.17668
0.07220	-0.10391
0.22521	0.30422
0.17421	0.25320
0.04670	0.07465
0.17421	0.22769
0.19971	0.15117
0.09770	0.15117
0.17421	0.22769
0.19971	0.12566
0.09770	0.10015
0.12320	0.30422
0.14870	0.35523
0.09770	0.04914
0.07220	-0.18043
0.22521	0.15117
0.22521	0.02363
0.09770	0.02363
0.14870	0.25320
0.22521	0.25320
0.12320	-0.18043
0.07220	0.20219
0.19971	0.30422
0.17421	0.35523
0.09770	0.35523
0.14870	0.12566
0.17421	0.10015
0.12320	0.17668
0.12320	-0.07840
0.07220	0.10015
0.14870	0.04914
0.22521	0.22769
0.25071	0.15117
0.14870	0.02363
0.09770	0.10015
0.12320	0.20219
0.22521	0.22769
0.22521	0.20219
0.14870	0.15117
0.12320	0.15117
0.12320	0.25320
0.22521	0.17668
0.12320	0.15117
0.14870	0.10015
0.12320	0.07465
0.09770	0.10015
0.12320	0.15117
0.19971	0.17668
0.22521	0.20219
0.17421	-0.02739
0.07220	0.02363
0.07220	-0.05289
0.17421	0.40625
0.17421	0.45726
0.14870	0.22769
0.04670	0.20219
0.07220	0.25320
0.17421	-0.10391
0.19971	0.15117
0.17421	0.17668
0.17421	0.10015
0.09770	0.07465
0.12320	0.25320
0.17421	-0.20594
0.07220	-0.05289
0.17421	0.20219
0.19971	0.38074
0.12320	0.25320
0.07220	0.25320
0.14870	0.27871
0.22521	0.02363
0.14870	0.10015
0.09770	0.20219
0.14870	0.12566
0.14870	-0.15492
0.09770	0.10015
0.07220	0.40625
0.19971	0.22769
0.12320	0.15117
0.07220	0.20219
0.14870	0.25320
0.22521	-0.05289
0.14870	-0.05289
0.07220	0.20219
0.22521	0.27871
0.14870	0.30422
0.12320	0.15117
0.14870	0.12566
0.25071	0.17668
0.12320	0.15117
0.12320	0.15117
0.14870	0.25320
0.19971	0.15117
0.09770	0.10015
0.09770	0.12566
0.19971	0.25320
0.12320	0.12566
0.09770	-0.12942
0.22521	0.32972
0.12320	0.20219
0.07220	0.12566
0.14870	0.17668
0.22521	0.25320
0.09770	0.30422
0.04670	0.12566
0.17421	0.12566
0.19971	-0.58856
0.17421	-0.05289
0.14870	0.50828
0.12320	0.17668
0.04670	0.30422
0.09770	0.32972
0.14870	0.30422
0.12320	0.30422
0.09770	0.17668
0.17421	0.02363
0.22521	0.15117
0.17421	0.10015
0.07220	-0.35899
0.17421	-0.02739
0.22521	0.35523
0.12320	0.30422
0.09770	0.30422
0.17421	0.25320
0.19971	0.22769
0.12320	0.15117
0.09770	0.10015
0.12320	0.04914
0.17421	0.25320
0.17421	0.22769
0.09770	0.04914
0.14870	0.02363
0.14870	0.10015
0.22521	0.20219
0.12320	0.15117
0.14870	0.15117
0.09770	0.04914
0.14870	0.12566
0.14870	0.20219
0.22521	0.25320
0.12320	0.20219
0.14870	0.15117
0.14870	0.12566
0.22521	0.12566
0.14870	-0.15492
0.09770	0.12566
0.12320	0.30422
0.22521	0.17668
0.07220	0.22769
0.14870	0.20219
0.19971	0.12566
0.14870	0.07465
0.12320	0.15117
0.22521	0.20219
0.12320	0.07465
0.09770	0.15117
0.14870	0.20219
0.17421	0.12566
0.14870	-0.12942
0.07220	-0.46102
0.12320	0.45726
0.22521	0.48277
0.14870	0.43176
0.09770	0.27871
0.12320	0.15117
0.14870	0.12566
0.19971	0.15117
0.12320	0.12566
0.07220	-0.00188
0.14870	0.07465
0.14870	0.12566
0.25071	0.15117
0.12320	0.20219
0.12320	0.07465
0.09770	0.04914
0.14870	0.30422
0.19971	0.12566
0.22521	0.07465
0.12320	0.12566
0.14870	0.20219
0.07220	0.20219
0.14870	0.10015
0.22521	0.12566
0.22521	0.12566
0.17421	0.07465
0.12320	0.15117
0.12320	0.15117
0.14870	0.22769
0.19971	0.25320
0.14870	0.20219
0.14870	0.04914
0.14870	0.15117
0.22521	0.10015
0.14870	0.07465
0.09770	0.12566
0.12320	0.17668
0.19971	0.22769
0.17421	0.12566
0.07220	0.15117
0.09770	0.04914
0.12320	-0.02739
0.22521	0.30422
0.19971	0.20219
0.12320	0.17668
0.09770	-0.10391
0.14870	0.15117
0.12320	0.32972
0.22521	0.27871
0.17421	0.35523
0.17421	0.32972
0.07220	0.02363
0.14870	-0.74160
0.19971	0.02363
0.19971	0.86539
0.17421	0.40625
0.09770	-0.07840
0.14870	-0.25695
0.19971	-0.25695
0.12320	1.29902
0.09770	0.35523
0.07220	-0.61406
0.14870	-1.37929
0.22521	1.27351
0.14870	1.37554
0.04670	1.78367
0.22521	-2.19554
0.19971	-3.34339
0.27621	0.38074
0.17421	0.12566
0.19971	2.85499
-0.33583	2.59991
-0.46334	1.42656
0.22521	-3.13933
0.65874	-1.58336
0.42922	-0.61406
0.25071	4.87010
0.40372	0.30422
0.42922	-2.19554
0.12320	-2.45062
0.27621	-2.29757
-0.05531	-0.53754
-0.13181	3.62022
-0.08081	3.41616
0.37822	1.88570
-0.08081	1.14597
0.27621	2.75296
0.07220	3.44167
-0.82036	0.48277
-0.28482	-10.10295
1.09226	-5.97069
0.70974	0.66132
0.93925	-2.85874
0.14870	-4.59327
-0.38683	5.17620
-2.17195	6.60463
0.32721	8.26263
2.13783	7.95654
1.55129	-3.85355
-0.18282	-11.60790
-2.52897	-5.71561
-0.66735	4.33444
0.65874	6.22201
1.95932	1.47757
1.52579	-1.91496
0.68424	-3.03730
0.86275	2.75296
0.60773	4.10487
0.17421	0.40625
0.45472	-1.04770
-0.69285	2.62542
-2.52897	-2.60367
-3.09000	-0.46102
-3.29402	-6.09823
-1.48340	-11.63341
1.67880	2.19179
3.66793	3.51819
2.74987	5.83940
1.14327	5.71186
1.52579	2.29382
4.73900	0.07465
0.19971	1.83468
-4.26308	-1.91496
-5.38515	-3.01179
-0.05531	-2.52714
1.90832	-2.29757
2.08683	1.52859
0.99026	2.42136
1.16877	3.03355
0.53123	2.01323
-0.79486	-0.12942
-0.53984	0.43176
-0.87136	-4.38921
-0.15732	-2.17003
-0.13181	-0.28246
0.32721	0.15117
0.50573	2.03874
0.70974	3.36515
0.86275	2.90601
-0.61635	-2.80773
-1.20288	-1.25176
-3.06450	1.19699
-1.73842	-0.97117
2.16333	2.31933
1.42379	-1.30277
0.70974	-0.43551
2.57136	0.89089
2.52035	1.55410
1.75531	0.96742
0.55673	0.43176
-0.15732	0.25320
-0.59084	0.10015
-0.69285	0.27871
-0.69285	-1.02219
-0.82036	-2.52714
-0.56534	-2.47613
-0.36133	1.22250
-0.38683	1.47757
-0.25932	0.63582
-0.38683	0.63582
0.32721	0.91640
0.60773	0.91640
0.93925	1.27351
0.83725	1.42656
0.50573	2.06425
0.37822	-3.31788
-0.10631	-5.56257
0.04670	-4.64429
-1.04987	1.06945
0.32721	4.69155
0.63323	4.38546
0.58223	-0.74160
0.83725	-2.37410
0.78624	1.47757
-0.89686	1.75816
0.04670	1.50308
0.42922	-0.99668
0.30171	-1.27726
0.25071	0.53379
0.55673	-0.05289
0.25071	0.15117
0.02119	-2.19554
-0.92237	-0.56305
0.12320	-0.76711
0.27621	-1.53234
0.58223	0.58480
0.09770	1.45206
-0.74385	2.06425
-1.40690	1.65613
0.30171	1.37554
1.04126	1.14597
1.37278	0.63582
0.81175	-0.92016
0.48022	-0.69059
-0.02981	-1.88945
-0.43783	0.83988
-0.13181	-0.28246
0.17421	-0.41000
0.07220	1.06945
0.14870	0.68683
0.19971	0.48277
0.17421	0.27871
0.32721	0.38074
0.53123	0.63582
0.37822	1.29902
-0.23382	-2.11902
0.17421	-2.09351
-0.76936	2.62542
-0.28482	-1.65988
-0.31033	-4.26167
0.19971	-1.27726
0.32721	2.19179
-0.10631	2.44687
0.60773	1.57960
0.76074	1.88570
1.06676	1.35003
0.70974	-0.05289
0.35272	-0.10391
0.02119	0.38074
0.96476	-0.10391
-0.28482	-2.32308
-0.43783	-2.39961
-0.74385	-1.58336
-0.36133	1.01843
0.07220	1.96222
0.17421	0.35523
0.17421	-1.81293
0.19971	-0.46102
0.17421	1.88570
0.14870	-0.05289
0.14870	1.45206
0.04670	2.14077
0.22521	0.32972
0.35272	-0.35899
0.53123	0.07465
0.27621	-0.38449
0.58223	0.78886
0.53123	-0.79262
-0.38683	-1.14973
-0.08081	0.25320
0.17421	1.17148
0.73524	0.63582
0.32721	-1.12422
-1.04987	-1.27726
-1.61091	-0.25695
0.25071	1.27351
1.06676	1.12046
0.93925	0.10015
0.60773	-0.81812
0.40372	-0.02739
0.50573	-0.18043
0.42922	0.96742
0.30171	1.88570
0.14870	1.40105
-0.33583	-0.58856
-0.48884	-0.46102
-0.15732	-1.45582
-0.00431	-0.25695
-0.08081	-0.15492
0.22521	0.76336
0.14870	1.50308
0.09770	0.63582
0.09770	0.50828
0.17421	0.02363
0.07220	-0.61406
0.32721	3.00804
0.50573	-3.67499
0.22521	-5.38401
0.27621	1.68163
0.04670	2.21730
0.27621	0.27871
0.22521	1.32453
0.14870	1.75816
0.07220	0.45726
0.30171	1.12046
0.19971	-0.38449
0.12320	-2.14453
-0.18282	-0.15492
-0.15732	0.50828
0.42922	1.27351
0.40372	0.81437
-0.00431	0.07465
-0.00431	0.02363
-0.00431	-1.30277
-0.20832	0.07465
-0.79486	0.43176
-0.08081	0.25320
0.81175	0.25320
0.73524	0.17668
0.70974	-0.92016
0.63323	0.38074
0.58223	0.58480
0.19971	0.53379
0.19971	0.15117
-0.33583	1.47757
-0.31033	1.91120
-0.15732	-2.11902
-0.28482	-2.80773
-0.00431	-0.38449
-0.02981	-2.73121
0.35272	1.45206
0.53123	1.88570
0.09770	1.96222
-0.89686	1.01843
-0.15732	1.78367
0.86275	0.17668
0.76074	0.94191
0.76074	0.76336
-0.00431	-2.19554
-0.41233	0.27871
0.07220	-1.04770
0.30171	-2.88425
0.48022	0.10015
0.68424	0.48277
0.30171	1.70714
0.07220	-0.84363
-0.82036	-1.25176
-1.20288	-0.10391
0.35272	1.29902
0.76074	1.78367
0.73524	1.37554
0.50573	0.91640
-0.00431	0.43176
0.32721	-0.41000
0.53123	-0.15492
0.19971	-0.20594
0.32721	-0.48652
-0.20832	-0.23145
-0.51434	0.27871
-0.71835	-0.41000
0.25071	0.66132
0.70974	1.68163
0.55673	0.94191
0.19971	-2.32308
-0.00431	-1.99148
-0.10631	0.22769
-0.00431	0.35523
-0.31033	1.47757
0.50573	0.17668
0.53123	1.83468
0.40372	0.81437
0.42922	0.32972
0.19971	-0.38449
0.12320	-1.14973
-0.28482	0.55929
-0.08081	1.01843
0.09770	0.12566
0.19971	-1.83844
0.14870	2.14077
0.37822	-0.79262
-0.08081	-1.91496
-1.10088	-1.22625
0.14870	1.45206
0.53123	1.55410
0.86275	1.24800
0.40372	-0.63957
0.73524	1.12046
0.37822	0.66132
0.32721	0.10015
-0.43783	-0.10391
-0.56534	-0.38449
-0.02981	-0.79262
0.37822	0.86539
0.50573	1.55410
0.58223	-2.11902
0.73524	-2.04250
0.19971	0.76336
-0.74385	1.04394
-0.53984	2.19179
-0.38683	0.76336
-0.79486	-1.37929
0.37822	0.73785
1.06676	1.27351
1.09226	-0.61406
0.88825	0.20219
0.68424	0.32972
0.37822	-0.20594
0.17421	0.40625
-0.20832	1.60511
-0.28482	0.02363
-0.41233	-2.60367
-0.92237	-0.61406
-0.66735	0.66132
0.48022	0.40625
0.48022	0.86539
0.50573	0.48277
0.50573	0.07465
0.32721	-0.48652
-0.00431	-0.61406
0.07220	-0.56305
0.02119	0.94191
0.02119	-0.12942
0.27621	-0.38449
0.35272	1.22250
0.12320	1.17148
0.02119	2.59991
0.42922	2.16628
0.02119	-2.32308
0.02119	-1.60887
0.12320	-0.89465
0.35272	-0.81812
0.19971	0.63582
-0.05531	1.12046
-0.15732	1.14597
0.12320	0.76336
0.42922	0.55929
0.30171	-0.07840
0.58223	-0.15492
-0.10631	-0.76711
-0.99887	-0.00188
-0.53984	-0.20594
0.45472	0.94191
0.96476	0.25320
0.83725	-1.35379
0.81175	-1.07320
0.53123	1.75816
-0.10631	0.43176
-0.38683	-0.05289
-0.23382	-0.15492
-0.33583	1.37554
0.27621	1.65613
0.48022	-0.71609
0.12320	-0.33348
-0.15732	0.17668
0.14870	-2.45062
-0.36133	0.81437
0.48022	1.50308
0.58223	1.45206
0.60773	-0.35899
0.12320	1.01843
-0.13181	0.12566
-0.15732	-1.71090
0.07220	-0.86914
-0.05531	0.25320
0.35272	0.12566
0.68424	0.66132
0.55673	1.27351
0.22521	0.22769
0.04670	0.04914
0.04670	-2.47613
-0.10631	0.55929
-0.31033	1.06945
-0.31033	-0.48652
0.14870	1.22250
0.68424	1.04394
0.63323	1.55410
0.27621	-0.92016
-0.31033	-0.81812
0.35272	-0.84363
0.40372	0.86539
-0.18282	-0.43551
-0.53984	0.35523
0.25071	1.01843
0.40372	0.63582
0.48022	0.40625
0.42922	0.10015
0.32721	0.15117
0.22521	0.04914
0.17421	-1.27726
-0.08081	-1.17523
-0.00431	1.24800
0.07220	-0.05289
0.22521	0.58480
-0.05531	0.38074
0.22521	1.63062
-0.00431	0.55929
0.02119	-0.43551
0.48022	0.83988
1.24527	-1.07320
-0.61635	-0.99668
-2.65648	0.10015
-0.79486	0.40625
1.34728	0.32972
1.70430	1.17148
1.42379	1.17148
0.99026	0.30422
0.65874	0.25320
0.32721	-0.12942
-0.10631	0.07465
-0.25932	-0.38449
-0.28482	-0.63957
-0.23382	0.96742
-0.31033	0.45726
-0.13181	-0.89465
-0.15732	-1.81293
-0.10631	1.14597
0.12320	0.81437
0.30171	0.99292
0.19971	0.83988
-0.25932	-2.90976
-0.41233	-0.86914
0.58223	0.55929
0.93925	0.25320
0.65874	2.49788
0.30171	1.80917
-0.00431	0.25320
-0.18282	-0.00188
0.30171	0.83988
0.17421	0.02363
0.53123	-0.02739
0.30171	-0.53754
0.30171	0.02363
0.09770	-0.81812
0.12320	-0.53754
0.07220	-0.41000
-0.36133	0.04914
-0.36133	0.43176
-0.23382	0.96742
0.12320	0.22769
0.04670	-1.94047
0.02119	-1.65988
0.27621	0.66132
0.17421	2.95702
0.02119	1.35003
0.04670	0.04914
0.27621	-0.07840
0.45472	-0.48652
0.78624	1.01843
0.65874	0.50828
0.32721	0.76336
0.32721	1.19699
0.04670	-0.28246
-0.13181	-3.19035
0.12320	-0.97117
-0.46334	0.17668
-0.05531	1.22250
0.27621	1.14597
0.30171	0.99292
0.55673	0.22769
0.45472	-0.35899
-0.56534	-2.11902
-1.10088	-0.07840
-0.41233	0.61031
0.04670	1.04394
0.78624	0.40625
0.99026	0.35523
0.83725	-0.15492
0.83725	0.76336
0.40372	0.25320
-0.02981	1.37554
0.02119	-1.30277
-0.25932	-0.12942
-0.00431	0.20219
-0.74385	1.75816
-0.18282	0.27871
0.02119	-2.14453
0.32721	-1.86394
0.58223	0.53379
0.37822	1.17148
0.58223	1.78367
0.27621	0.20219
0.09770	-0.38449
-0.08081	1.32453
0.07220	1.75816
0.09770	-1.12422
0.09770	-1.88945
0.19971	0.07465
-0.31033	0.38074
-0.20832	-1.02219
0.60773	0.15117
0.37822	1.40105
-0.15732	0.99292
-0.02981	0.53379
0.19971	0.83988
0.53123	-0.05289
0.53123	-0.15492
0.30171	-0.66508
0.07220	-0.10391
-0.28482	0.17668
-0.33583	-1.27726
0.14870	0.76336
0.48022	0.76336
0.45472	-0.63957
0.22521	0.10015
-0.05531	0.58480
-0.13181	0.45726
-0.00431	0.76336
-0.10631	0.94191
0.02119	0.30422
0.45472	-0.25695
0.53123	0.66132
0.22521	0.10015
-0.69285	-1.71090
-0.84586	-1.20074
0.65874	-1.14973
0.65874	1.70714
0.68424	1.35003
0.68424	-0.43551
0.27621	0.81437
0.53123	0.66132
-0.15732	0.17668
-0.74385	-0.38449
0.04670	0.15117
-0.02981	0.04914
0.32721	0.50828
0.27621	0.50828
0.30171	1.01843
0.07220	0.15117
-0.02981	-4.23616
0.27621	-0.25695
0.19971	0.86539
0.07220	1.06945
0.32721	1.98773
0.12320	1.40105
0.17421	-0.51203
-0.48884	-1.43031
-0.15732	0.73785
0.37822	0.35523
0.37822	-1.02219
0.58223	1.24800
0.40372	0.32972
-0.08081	0.63582
-0.02981	0.53379
0.09770	0.17668
0.32721	0.20219
-0.20832	0.61031
0.14870	-0.63957
0.25071	-1.04770
0.30171	-0.97117
0.45472	0.43176
0.32721	-0.18043
-0.20832	0.45726
-0.51434	1.01843
0.07220	-0.15492
0.32721	-0.00188
0.19971	0.50828
0.53123	0.30422
0.04670	0.66132
-0.18282	-0.35899
0.22521	0.63582
0.22521	-0.41000
0.07220	0.27871
0.40372	0.68683
0.19971	-0.18043
-0.18282	0.25320
0.22521	0.55929
0.17421	-0.10391
0.04670	0.17668
0.17421	0.55929
0.12320	0.45726
0.19971	-0.15492
0.02119	-0.66508
-0.18282	0.83988
0.42922	0.12566
0.48022	-1.25176
0.17421	0.02363
0.32721	0.25320
0.14870	0.27871
0.07220	0.20219
0.30171	0.78886
0.02119	-0.00188
-0.31033	-0.43551
0.09770	0.76336
0.53123	-0.02739
0.19971	1.12046
0.14870	-1.81293
-0.02981	-1.71090
0.19971	0.99292
0.25071	1.96222
0.09770	1.37554
0.27621	1.60511
0.12320	0.63582
0.12320	0.10015
0.02119	-0.46102
0.32721	-0.46102
0.30171	-0.56305
0.22521	-0.81812
-0.10631	-0.23145
0.07220	0.25320
0.14870	0.68683
0.14870	0.20219
0.48022	0.10015
0.04670	-0.86914
-0.00431	0.02363
-0.10631	-0.92016
-0.10631	0.89089
-0.23382	1.32453
0.07220	0.32972
0.63323	0.35523
0.78624	2.06425
0.73524	0.86539
0.55673	0.04914
0.14870	-2.65468
0.07220	-0.51203
-0.48884	0.89089
-0.69285	0.35523
0.22521	0.76336
0.32721	0.71234
-0.20832	-0.18043
0.14870	-1.20074
0.37822	-0.51203
0.50573	0.12566
0.27621	0.53379
-0.05531	0.50828
0.25071	1.65613
0.17421	0.30422
0.12320	-0.56305
0.22521	-1.86394
0.42922	-0.41000
0.45472	1.19699
-0.15732	1.35003
-0.51434	1.17148
-0.20832	0.96742
0.48022	0.27871
0.40372	0.35523
0.37822	-1.20074
0.48022	-1.17523
0.12320	0.10015
-0.10631	0.40625
-0.28482	0.53379
0.32721	0.30422
0.12320	0.48277
0.07220	0.17668
-0.33583	-0.15492
-0.13181	1.83468
0.42922	-1.91496
0.48022	-1.04770
0.63323	-0.15492
0.32721	1.42656
0.32721	-0.18043
0.48022	0.10015
0.14870	0.83988
-0.71835	1.47757
-0.10631	0.68683
0.19971	-1.22625
0.27621	0.10015
0.25071	-0.99668
0.17421	1.37554
-0.00431	0.86539
-0.33583	0.61031
-0.31033	-0.97117
0.42922	0.89089
0.32721	-0.43551
0.19971	0.04914
0.42922	-0.25695
0.40372	0.61031
0.25071	0.55929
0.19971	0.48277
0.12320	-0.07840
0.04670	0.02363
0.30171	-0.63957
0.25071	0.07465
0.07220	0.15117
-0.79486	-0.43551
0.02119	-0.02739
0.22521	-0.00188
0.45472	-0.02739
0.60773	0.91640
0.35272	1.35003
0.53123	0.68683
-0.13181	-1.30277
0.14870	0.20219
0.04670	0.35523
0.02119	-0.20594
0.02119	0.86539
0.65874	0.35523
0.12320	-0.69059
-0.02981	-0.25695
-0.00431	-0.25695
0.22521	0.86539
0.27621	1.17148
0.25071	-0.00188
0.09770	-0.81812
0.22521	0.55929
0.22521	0.40625
0.17421	0.02363
-0.28482	-0.99668
0.02119	0.58480
0.37822	-0.02739
0.37822	-0.79262
0.14870	0.61031
0.12320	1.65613
0.17421	0.35523
0.12320	-0.20594
0.22521	-0.35899
0.07220	0.15117
-0.18282	-0.25695
0.04670	0.48277
0.22521	0.78886
0.35272	1.27351
0.32721	0.66132
0.02119	-1.78742
0.07220	-0.20594
0.22521	-0.38449
0.12320	0.53379
0.09770	0.61031
0.25071	0.40625
0.14870	-0.46102
0.09770	0.45726
0.09770	0.02363
0.02119	0.04914
-0.10631	0.43176
0.22521	-0.58856
0.48022	0.02363
0.35272	1.06945
-0.28482	0.30422
-0.28482	0.68683
0.37822	-0.12942
0.65874	-0.35899
0.35272	0.38074
0.25071	0.81437
0.25071	1.04394
-0.10631	-1.73640
-0.33583	-2.01699
-0.28482	-1.14973
-0.20832	1.98773
0.45472	1.12046
0.73524	0.89089
0.48022	0.50828
0.19971	0.04914
0.45472	-0.15492
0.02119	-0.00188
-0.28482	-0.12942
-0.02981	0.20219
-0.02981	0.40625
0.02119	0.53379
0.32721	0.58480
0.19971	-0.61406
0.04670	0.53379
0.02119	1.19699
0.50573	-1.43031
0.53123	-2.27207
-0.05531	-1.27726
-1.10088	1.45206
-0.61635	1.04394
0.53123	1.91120
0.91375	1.55410
1.11776	1.06945
0.91375	0.53379
0.50573	-1.45582
-0.48884	-0.86914
-0.41233	0.20219
0.37822	0.30422
-0.15732	0.25320
-0.41233	-0.20594
0.07220	0.38074
0.32721	-0.23145
0.07220	0.48277
0.14870	0.50828
-0.08081	-0.46102
0.02119	-1.25176
0.35272	-1.40480
0.65874	1.04394
0.42922	0.99292
0.19971	1.65613
0.17421	1.45206
0.17421	-0.35899
0.04670	-0.51203
-0.38683	-1.50683
-0.02981	0.22769
0.37822	0.50828
0.30171	0.96742
-0.13181	0.20219
0.19971	1.19699
0.42922	0.02363
0.37822	-0.66508
0.12320	-0.23145
0.12320	0.15117
0.02119	0.12566
0.27621	0.04914
0.17421	0.58480
0.02119	0.22769
0.02119	-0.69059
0.32721	-1.14973
0.22521	0.55929
0.17421	0.55929
-0.08081	0.12566
0.02119	0.58480
-0.00431	0.81437
0.09770	0.48277
0.22521	0.12566
0.17421	-0.63957
-0.20832	-0.46102
0.32721	-0.56305
0.53123	0.86539
0.22521	0.40625
0.17421	0.38074
0.22521	0.89089
0.27621	1.17148
0.27621	0.04914
0.09770	-0.00188
-0.46334	-1.04770
-0.08081	0.02363
0.30171	0.04914
0.19971	-0.48652
0.22521	0.30422
-0.20832	0.27871
-0.13181	-0.66508
0.40372	0.83988
0.40372	-0.07840
0.35272	1.01843
0.58223	0.86539
0.50573	-0.28246
0.40372	-0.35899
-0.97337	0.40625
-1.02437	0.55929
0.27621	0.71234
0.58223	-0.74160
0.65874	-0.56305
0.48022	0.89089
0.27621	0.38074
0.32721	-0.38449
0.17421	-0.86914
-0.13181	0.43176
-0.10631	0.94191
0.19971	0.27871
0.27621	0.15117
0.27621	0.10015
0.12320	-0.41000
-0.08081	1.19699
0.02119	0.30422
0.04670	-0.58856
0.53123	-0.23145
0.32721	0.35523
-0.00431	0.76336
-0.33583	0.43176
0.14870	0.22769
0.14870	-0.89465
0.53123	-0.23145
0.48022	-0.15492
-0.05531	0.78886
-0.05531	0.17668
0.53123	1.19699
0.55673	0.50828
0.37822	-0.56305
0.30171	-0.33348
0.02119	0.17668
-0.05531	0.43176
-0.02981	0.30422
-0.18282	0.68683
-0.00431	0.15117
0.12320	-1.07320
0.07220	-0.30797
0.07220	0.27871
-0.00431	0.02363
0.04670	1.47757
0.22521	0.15117
0.27621	0.32972
0.40372	-0.79262
0.53123	0.76336
0.19971	-0.41000
0.12320	0.27871
-0.08081	0.63582
0.07220	0.63582
0.25071	0.35523
-0.02981	-0.81812
-0.05531	0.45726
0.25071	0.35523
0.07220	-0.63957
0.27621	-0.38449
0.42922	0.55929
0.04670	0.63582
-0.08081	0.20219
-0.05531	-1.17523
0.27621	0.15117
0.12320	0.91640
0.35272	0.02363
0.35272	0.12566
-0.87136	0.66132
-0.38683	0.63582
0.45472	0.55929
0.76074	0.22769
0.60773	-0.84363
0.37822	0.83988
-0.00431	-0.69059
-0.28482	-0.33348
-0.00431	0.30422
0.07220	0.58480
0.14870	0.58480
0.45472	-1.12422
0.32721	-1.07320
0.35272	0.35523
-0.10631	0.43176
-0.23382	0.55929
-0.20832	0.63582
-0.10631	1.40105
0.35272	0.38074
0.53123	-0.10391
0.60773	0.17668
0.17421	0.61031
0.02119	0.27871
0.12320	-0.02739
-0.05531	-1.27726
-0.36133	0.27871
0.35272	0.63582
0.50573	-0.43551
0.45472	0.02363
0.30171	0.17668
0.04670	0.78886
0.14870	0.89089
-0.13181	-0.20594
-0.28482	-0.89465
-0.00431	0.43176
0.37822	1.29902
0.22521	0.04914
0.17421	0.63582
0.22521	-0.69059
0.32721	-0.05289
0.30171	0.38074
-0.23382	0.61031
-0.02981	0.07465
-0.02981	0.50828
-0.53984	0.76336
0.04670	-1.02219
0.76074	-0.63957
0.78624	-0.25695
0.70974	0.66132
0.12320	0.61031
-0.05531	0.20219
-0.28482	0.27871
-0.02981	-0.41000
0.27621	-0.12942
0.25071	1.06945
0.14870	0.32972
0.07220	0.30422
0.22521	-0.10391
0.22521	-0.05289
0.02119	0.10015
0.53123	0.43176
0.02119	-1.20074
-0.46334	-1.09871
-0.43783	1.35003
0.40372	1.17148
0.35272	0.35523
0.35272	0.07465
0.30171	0.68683
0.19971	0.43176
0.22521	0.04914
0.32721	-1.14973
0.32721	-0.10391
0.12320	0.96742
-0.08081	0.15117
-0.23382	-0.25695
0.09770	0.73785
0.25071	0.91640
0.09770	-0.69059
-0.18282	-0.66508
0.02119	0.43176
0.58223	0.27871
0.65874	0.22769
0.07220	-0.66508
-0.48884	0.55929
0.25071	0.58480
0.45472	0.73785
0.37822	-1.07320
0.25071	-0.02739
0.37822	0.83988
0.40372	0.20219
-0.05531	0.40625
-0.41233	0.04914
-0.00431	0.12566
0.27621	-1.04770
0.07220	-0.20594
-0.00431	0.78886
0.14870	1.04394
0.17421	0.61031
0.04670	-0.25695
0.02119	0.53379
0.02119	0.17668
0.04670	-0.02739
0.09770	-0.15492
0.09770	0.15117
0.12320	0.04914
0.40372	0.04914
0.53123	-0.99668
0.30171	-0.43551
0.09770	1.27351
-0.13181	0.94191
-0.36133	1.01843
-0.05531	-0.86914
0.32721	-1.37929
0.42922	0.55929
0.42922	0.83988
0.53123	0.96742
0.09770	0.68683
-0.23382	0.63582
-0.31033	-0.25695
-0.18282	-0.33348
0.45472	-0.79262
0.42922	0.20219
-0.00431	0.30422
0.25071	0.45726
0.35272	-0.38449
0.14870	-0.15492
-0.02981	0.63582
0.14870	0.66132
-0.13181	0.10015
0.04670	-0.61406
0.48022	0.73785
0.22521	0.22769
0.07220	0.66132
0.19971	-0.56305
0.30171	-0.46102
-0.20832	0.35523
-0.23382	0.22769
-0.02981	-0.48652
0.17421	1.04394
0.25071	1.19699
0.45472	0.78886
0.78624	0.89089
0.60773	-0.53754
0.32721	-0.66508
-0.61635	0.04914
-0.92237	-0.18043
-0.05531	0.02363
0.32721	0.15117
0.55673	0.20219
0.78624	-0.89465
0.42922	-0.41000
0.35272	0.83988
0.14870	0.38074
-0.13181	0.40625
-0.25932	0.17668
0.02119	1.37554
0.14870	-0.33348
-0.02981	0.17668
-0.13181	-0.35899
0.12320	0.02363
0.30171	0.43176
-0.23382	0.38074
0.09770	0.25320
0.42922	-0.10391
0.53123	-0.43551
0.58223	-0.10391
0.37822	0.53379
0.37822	0.38074
0.19971	-0.12942
-0.28482	0.63582
-0.15732	0.81437
-0.08081	-1.78742
-1.02437	-0.43551
-0.05531	0.40625
0.60773	0.96742
0.73524	0.73785
0.78624	0.27871
0.42922	0.15117
0.48022	0.35523
0.17421	0.35523
-0.10631	-0.33348
0.02119	-0.02739
0.02119	-0.53754
-0.08081	-0.51203
-0.66735	-0.61406
-0.02981	0.48277
0.02119	0.10015
-0.28482	0.89089
0.40372	1.27351
0.83725	1.65613
0.68424	-0.28246
0.40372	-0.66508
0.30171	-0.66508
0.02119	0.91640
-0.08081	0.25320
0.22521	0.25320
-0.23382	0.25320
0.04670	0.15117
0.07220	0.30422
0.25071	-0.05289
0.27621	-0.28246
0.35272	-0.35899
0.19971	0.58480
-0.02981	0.38074
0.09770	-0.05289
0.32721	0.25320
0.22521	0.32972
0.12320	0.35523
-0.23382	-1.27726
-0.59084	-0.33348
0.12320	0.99292
0.65874	0.48277
0.58223	0.15117
0.53123	0.10015
0.53123	0.45726
0.48022	1.14597
-0.51434	-0.69059
-1.02437	-1.40480
-0.59084	0.89089
0.37822	0.78886
0.53123	1.52859
0.78624	0.68683
0.76074	-0.20594
0.35272	-0.58856
-0.08081	-0.46102
0.02119	-0.56305
0.19971	0.10015
0.09770	0.20219
0.12320	-0.10391
0.19971	0.38074
-0.00431	0.61031
-0.56534	-0.41000
-0.08081	0.50828
0.04670	-0.20594
0.04670	-0.28246
0.48022	0.81437
0.55673	0.35523
0.17421	0.15117
0.32721	0.07465
0.19971	0.81437
0.32721	0.58480
0.12320	-0.76711
0.12320	-0.61406
0.02119	0.53379
0.14870	0.71234
-0.31033	-0.63957
0.14870	0.17668
0.68424	0.30422
0.37822	0.43176
0.37822	0.53379
0.12320	-0.05289
0.04670	0.02363
-0.28482	0.32972
0.32721	0.30422
-0.13181	0.15117
-0.38683	-0.18043
0.53123	0.22769
0.55673	0.43176
0.25071	-0.71609
0.42922	-0.30797
0.19971	1.17148
-0.31033	-0.10391
-0.23382	-0.02739
0.27621	0.55929
0.27621	0.30422
0.25071	-0.30797
0.35272	-0.43551
0.07220	0.91640
-0.18282	1.04394
0.02119	-0.53754
0.09770	-0.18043
0.19971	1.27351
0.17421	0.58480
0.12320	-0.61406
0.45472	-0.12942
0.32721	0.89089
0.19971	-0.20594
0.12320	-0.33348
0.25071	-2.55265
-0.13181	0.43176
0.12320	0.99292
0.17421	0.68683
0.22521	0.53379
-0.05531	0.63582
0.04670	0.50828
-0.28482	0.30422
-0.02981	0.12566
0.70974	-0.46102
0.86275	0.10015
0.27621	-0.02739
-0.23382	-0.15492
-0.00431	-0.05289
0.14870	0.38074
0.30171	0.55929
0.32721	-0.15492
0.32721	-0.05289
0.14870	0.53379
-0.25932	0.50828
-0.08081	0.22769
0.09770	0.32972
0.02119	0.66132
-0.41233	-0.05289
0.30171	-0.81812
0.40372	-0.07840
0.32721	-0.69059
0.37822	0.94191
0.37822	0.96742
-0.31033	1.14597
-0.13181	0.22769
0.04670	-0.33348
0.40372	-0.30797
0.42922	-0.10391
0.50573	0.04914
0.42922	0.58480
0.12320	0.40625
-0.00431	-0.07840
0.02119	0.81437
-0.00431	0.20219
0.14870	-1.83844
0.04670	-1.27726
-0.05531	0.35523
0.02119	0.81437
0.12320	1.06945
0.37822	0.61031
0.22521	0.35523
0.19971	0.32972
0.04670	0.94191
-0.46334	0.30422
-0.08081	-0.07840
0.50573	-0.92016
0.68424	-0.69059
0.60773	-0.33348
0.12320	0.38074
0.17421	0.96742
0.19971	0.63582
0.04670	0.53379
0.14870	-0.25695
0.14870	0.25320
-0.41233	-0.02739
-0.10631	-0.28246
0.19971	0.78886
0.07220	1.32453
0.30171	-0.07840
0.40372	-0.99668
0.25071	-0.23145
0.17421	-0.74160
-0.02981	0.91640
0.35272	0.73785
0.40372	0.43176
0.14870	0.04914
-0.10631	0.25320
-0.38683	0.81437
-0.18282	-0.30797
-0.20832	0.32972
0.60773	0.20219
0.48022	-0.05289
0.19971	0.71234
0.30171	-0.76711
0.55673	-1.58336
0.17421	0.45726
-0.05531	0.66132
-0.18282	0.43176
0.12320	0.73785
0.35272	0.96742
0.19971	0.66132
0.07220	-0.07840
-0.00431	-0.38449
0.09770	-0.53754
0.02119	-0.56305
0.17421	0.32972
0.22521	0.07465
0.27621	-0.69059
-0.08081	0.68683
-0.31033	1.27351
-0.48884	0.78886
-0.08081	0.55929
0.68424	0.81437
0.91375	0.25320
1.01576	-0.35899
0.50573	0.32972
-0.33583	-0.28246
-0.41233	-0.12942
0.48022	-0.74160
0.19971	-0.38449
0.04670	0.07465
0.09770	0.10015
0.27621	0.30422
0.27621	0.40625
-0.05531	1.22250
-0.13181	-0.25695
-0.41233	-1.50683
-0.05531	0.30422
0.27621	0.55929
0.40372	1.06945
0.32721	-0.00188
0.25071	0.86539
0.35272	1.70714
0.22521	0.55929
0.07220	-1.76191
-0.00431	-1.32828
0.30171	-0.12942
0.30171	-0.00188
-0.18282	0.58480
-0.69285	1.14597
-0.18282	0.27871
0.68424	-0.10391
0.68424	0.02363
0.63323	0.25320
0.53123	0.35523
0.32721	-0.05289
0.14870	-0.43551
-0.15732	-0.46102
-0.31033	0.40625
-0.10631	0.45726
-0.15732	0.40625
0.22521	-0.05289
0.35272	0.50828
0.32721	0.35523
0.37822	0.45726
0.40372	0.04914
-0.05531	-0.10391
-0.41233	0.32972
-0.74385	1.55410
-0.25932	-0.56305
0.53123	-0.89465
0.93925	-0.30797
0.42922	0.22769
0.53123	1.09496
0.53123	-0.15492
0.40372	0.04914
0.09770	0.63582
0.04670	0.86539
-0.97337	0.81437
-0.79486	-0.76711
0.53123	-0.92016
0.60773	-0.30797
0.40372	0.30422
0.19971	0.76336
0.12320	0.20219
0.19971	0.40625
0.14870	0.35523
0.07220	0.53379
-0.10631	0.35523
0.27621	-0.15492
-0.08081	-0.07840
0.19971	-0.33348
0.17421	-0.46102
0.14870	0.71234
0.40372	0.10015
0.25071	0.50828
-0.08081	-0.00188
-0.25932	-1.43031
0.27621	-0.00188
0.50573	1.29902
0.40372	1.63062
0.65874	-0.51203
0.22521	0.30422
-0.38683	-0.69059
-0.25932	-0.28246
-0.10631	0.68683
0.27621	0.15117
0.37822	0.32972
0.32721	0.02363
0.30171	0.20219
0.17421	1.63062
-0.33583	-0.35899
-0.28482	0.25320
-0.18282	0.22769
0.22521	-0.23145
0.42922	-0.58856
0.32721	-0.07840
0.22521	-0.00188
0.37822	0.20219
0.07220	0.45726
0.48022	0.58480
0.37822	-0.07840
0.22521	-1.12422
0.07220	0.30422
-0.10631	0.38074
0.12320	1.09496
-0.00431	0.73785
0.04670	0.48277
0.09770	0.96742
0.04670	-0.00188
0.14870	-1.48133
0.27621	-2.24656
0.07220	0.83988
0.27621	1.96222
0.27621	0.78886
0.32721	-0.23145
-0.20832	-0.10391
-0.48884	0.48277
0.12320	1.09496
0.48022	-0.92016
0.27621	-1.40480
0.22521	-0.10391
0.12320	0.38074
0.60773	1.04394
0.32721	0.94191
0.30171	0.35523
0.22521	-0.02739
0.09770	0.07465
-0.71835	0.15117
-0.56534	0.07465
0.32721	-0.35899
0.35272	-0.53754
1.04126	-0.97117
0.99026	-0.41000
0.37822	1.01843
-0.02981	1.14597
-0.05531	0.89089
-0.05531	0.68683
-0.10631	0.15117
0.07220	-0.15492
-0.23382	0.96742
-0.13181	0.63582
-0.05531	0.30422
0.30171	-1.45582
0.22521	-1.27726
0.22521	0.10015
0.22521	0.81437
0.32721	0.43176
0.25071	0.76336
0.48022	-0.53754
0.04670	-0.58856
-0.08081	1.29902
0.14870	0.96742
0.27621	0.22769
0.37822	0.27871
0.48022	-0.41000
0.12320	0.02363
-0.02981	-0.05289
0.02119	0.48277
-0.20832	0.25320
-0.36133	-0.43551
0.50573	-0.35899
0.70974	0.04914
0.37822	-0.51203
-0.38683	0.53379
-0.33583	0.63582
0.22521	0.07465
0.32721	0.63582
0.48022	0.58480
0.22521	0.04914
0.19971	0.17668
0.22521	0.61031
0.12320	0.50828
-0.13181	-0.58856
0.07220	-0.89465
0.09770	-0.28246
0.12320	-0.33348
0.12320	0.73785
0.35272	1.68163
0.19971	-0.00188
-0.15732	-0.46102
-0.10631	-0.10391
0.37822	0.66132
0.40372	0.04914
0.30171	0.15117
-0.10631	-0.76711
-0.41233	0.10015
0.42922	0.53379
0.32721	0.89089
0.40372	0.40625
0.53123	1.19699
0.32721	-0.35899
-0.02981	-0.46102
-0.28482	-0.15492
-0.00431	1.09496
0.32721	-0.99668
0.22521	-1.60887
0.53123	1.83468
-0.33583	-0.28246
-0.28482	0.96742
0.02119	0.66132
0.42922	-0.56305
0.22521	-0.41000
0.42922	0.38074
0.30171	0.12566
-0.08081	0.17668
-0.51434	0.55929
0.02119	0.76336
0.81175	-0.07840
0.53123	0.53379
0.37822	0.04914
0.17421	-0.05289
0.09770	-0.00188
-0.28482	0.17668
0.25071	-0.02739
0.27621	-0.71609
0.14870	0.12566
0.19971	0.17668
-0.13181	0.20219
-0.20832	0.10015
-0.08081	0.22769
0.02119	0.02363
0.32721	0.04914
0.22521	0.66132
-0.00431	1.09496
0.32721	0.83988
0.40372	-0.41000
0.07220	-1.40480
0.17421	0.15117
0.30171	0.76336
0.27621	-0.86914
0.12320	-0.23145
0.17421	1.32453
-0.20832	1.27351
-0.08081	-0.33348
0.07220	-0.05289
0.40372	0.40625
0.37822	0.66132
0.48022	0.04914
0.48022	-0.33348
-0.08081	-0.20594
0.02119	0.35523
-0.00431	0.17668
0.04670	-0.12942
0.22521	-0.00188
0.02119	-0.46102
0.04670	0.63582
0.12320	0.12566
-0.13181	-0.10391
0.17421	-0.35899
-0.02981	-0.25695
0.30171	0.66132
0.53123	0.68683
0.17421	-0.12942
0.22521	0.89089
0.53123	0.43176
0.17421	-0.10391
0.04670	0.53379
-0.08081	0.89089
-0.15732	-0.05289
0.04670	0.61031
0.17421	-0.23145
-0.00431	-0.56305
0.19971	0.63582
0.30171	-0.30797
0.22521	-1.58336
-0.10631	-0.30797
0.19971	0.50828
0.40372	0.48277
0.14870	0.53379
0.22521	0.38074
0.25071	0.53379
0.12320	0.25320
-0.25932	0.27871
-0.02981	0.04914
0.35272	-0.25695
0.04670	-0.94566
0.30171	0.61031
0.27621	0.63582
0.19971	0.66132
0.09770	0.45726
0.19971	0.10015
0.25071	0.12566
0.12320	0.07465
0.17421	-0.10391
-0.10631	-0.10391
0.02119	-0.18043
-0.00431	0.99292
0.55673	-0.15492
-0.38683	1.45206
-0.28482	-1.68539
0.50573	-1.76191
0.60773	0.89089
0.65874	0.96742
0.37822	0.53379
0.07220	0.45726
-0.18282	0.55929
-0.08081	0.04914
0.30171	0.22769
0.27621	0.12566
0.30171	0.04914
-0.25932	-0.84363
-0.20832	0.25320
0.02119	-0.38449
0.09770	-0.46102
0.17421	-0.28246
0.60773	0.94191
0.45472	1.24800
0.07220	0.63582
0.25071	0.96742
0.35272	-0.05289
0.22521	-0.89465
-0.08081	0.22769
-0.08081	0.30422
-0.13181	-0.25695
0.19971	0.15117
0.27621	0.15117
-0.05531	0.25320
-0.36133	0.32972
0.60773	0.25320
0.22521	1.12046
0.30171	-0.74160
0.27621	-0.20594
0.37822	0.17668
0.42922	-0.02739
0.07220	-0.51203
-0.82036	0.43176
-0.69285	0.66132
0.30171	0.32972
0.32721	0.10015
0.55673	0.12566
0.45472	0.81437
0.50573	-0.07840
0.19971	-0.63957
-0.10631	-0.15492
-0.05531	0.86539
0.09770	0.32972
0.12320	1.01843
0.35272	0.04914
0.19971	-0.61406
0.02119	-1.20074
-0.18282	0.71234
-0.46334	0.43176
-0.23382	0.25320
-0.08081	0.40625
0.37822	-0.07840
0.63323	0.45726
0.70974	0.68683
0.48022	0.10015
0.19971	-0.66508
0.02119	-0.10391
-0.25932	1.17148
0.12320	-0.63957
0.19971	0.22769
0.04670	0.27871
0.14870	0.58480
0.30171	0.40625
0.14870	0.02363
0.02119	-0.25695
0.02119	0.27871
-0.00431	0.10015
0.04670	-0.35899
-0.02981	-0.12942
0.50573	0.38074
0.37822	0.25320
0.35272	0.40625
-0.10631	0.25320
-0.05531	0.66132
0.09770	0.07465
-0.02981	-0.00188
0.37822	0.25320
0.32721	0.96742
0.04670	-1.35379
0.48022	-0.20594
0.22521	0.43176
0.25071	1.65613
0.22521	-0.81812
0.07220	-0.05289
0.14870	0.58480
0.07220	0.20219
-0.08081	-0.15492
-0.08081	0.66132
-0.00431	0.07465
-0.08081	-0.46102
0.35272	0.76336
0.35272	1.24800
-0.02981	-0.15492
-0.05531	-0.41000
0.09770	-0.53754
0.07220	-0.10391
0.35272	0.07465
0.30171	-0.00188
0.30171	0.40625
0.53123	0.63582
0.32721	0.53379
-0.13181	-0.05289
-0.61635	0.20219
0.30171	-0.66508
0.45472	-0.76711
0.30171	1.06945
0.02119	0.81437
-0.53984	0.22769
-0.05531	0.02363
0.42922	0.25320
0.45472	-0.35899
0.35272	-0.20594
0.42922	0.27871
0.30171	0.86539
-0.00431	0.45726
-0.05531	0.17668
-0.13181	0.43176
-0.13181	-0.69059
0.12320	-0.18043
0.17421	0.43176
0.32721	-0.15492
0.12320	-0.48652
-0.00431	0.04914
0.35272	0.58480
0.53123	0.66132
0.32721	0.40625
0.17421	0.45726
-0.28482	0.20219
-0.28482	-0.05289
-0.13181	0.76336
0.35272	-1.30277
0.40372	0.20219
0.42922	0.71234
0.30171	1.12046
-0.02981	-0.46102
0.30171	0.38074
0.35272	0.25320
0.09770	-0.33348
0.17421	0.53379
-0.15732	0.68683
-0.05531	-0.10391
0.12320	-0.51203
0.02119	-0.23145
0.02119	0.71234
0.17421	0.32972
0.45472	0.40625
0.19971	-0.61406
0.30171	-0.81812
0.12320	-0.05289
-0.13181	0.83988
0.02119	-0.58856
0.32721	0.22769
0.42922	0.02363
0.50573	0.63582
0.55673	1.12046
-0.28482	0.99292
-0.99887	0.20219
-0.02981	-1.37929
0.53123	-0.18043
0.58223	0.25320
0.22521	0.55929
0.25071	0.89089
0.40372	-0.58856
0.30171	-0.25695
0.22521	-0.25695
-0.05531	0.99292
-0.13181	0.30422
0.07220	0.91640
0.07220	0.25320
0.27621	-0.18043
-0.05531	-1.02219
-0.18282	-0.12942
-0.02981	0.43176
0.48022	-0.28246
0.55673	0.73785
0.25071	0.48277
0.12320	-0.20594
0.25071	-1.14973
0.04670	0.45726
0.09770	0.53379
0.17421	0.96742
0.12320	0.99292
0.09770	0.50828
-0.10631	-1.27726
0.17421	-0.97117
0.25071	0.71234
0.40372	1.52859
0.40372	0.22769
0.25071	-0.51203
0.12320	-0.38449
0.14870	0.35523
0.22521	0.71234
0.25071	0.17668
-0.43783	0.25320
-0.99887	-0.18043
0.35272	0.20219
0.81175	0.25320
0.48022	-0.53754
0.58223	0.20219
0.14870	0.12566
-0.28482	0.20219
0.02119	0.17668
0.19971	0.53379
0.35272	-0.02739
0.30171	0.66132
0.22521	-0.58856
0.19971	0.53379
0.19971	0.40625
0.22521	-0.10391
-0.13181	0.27871
-0.13181	0.76336
0.02119	0.25320
0.22521	-0.38449
0.09770	-0.43551
0.12320	-0.81812
-0.02981	-1.17523
0.14870	0.50828
0.12320	1.24800
0.32721	1.60511
-0.00431	0.86539
0.53123	0.43176
0.53123	0.27871
0.30171	0.15117
0.19971	-0.15492
0.35272	-0.18043
0.30171	0.48277
0.02119	0.02363
-0.08081	-1.07320
-0.46334	-0.58856
-0.33583	-0.48652
0.09770	0.15117
0.30171	0.27871
0.22521	0.35523
0.14870	0.58480
0.35272	0.48277
0.37822	0.53379
0.09770	0.10015
0.07220	-0.15492
0.35272	0.22769
0.25071	0.76336
0.12320	0.89089
0.04670	0.63582
0.42922	-1.12422
-0.08081	-1.20074
-0.38683	-0.30797
-0.15732	1.09496
0.04670	0.89089
0.17421	1.06945
0.68424	0.38074
0.45472	-0.07840
0.42922	-0.07840
-0.00431	-0.33348
0.19971	0.04914
0.32721	0.10015
0.17421	0.22769
0.17421	0.07465
-0.18282	0.04914
0.07220	0.61031
-0.23382	-0.23145
0.32721	0.27871
0.17421	-0.33348
-0.02981	0.45726
0.40372	0.83988
0.04670	-1.09871
-0.00431	-0.79262
0.27621	0.30422
0.37822	1.37554
0.04670	0.71234
0.32721	0.71234
0.25071	-0.15492
0.22521	0.25320
-0.02981	-0.25695
0.09770	-0.46102
0.02119	0.71234
0.19971	0.48277
0.12320	0.12566
0.12320	1.09496
0.14870	-0.23145
0.14870	-0.10391
-0.00431	-0.12942
-0.20832	-1.02219
0.19971	-0.15492
0.48022	0.04914
0.27621	1.65613
