0.12320	0.30422
0.09770	0.10015
-0.05531	0.02363
0.32721	-0.25695
0.42922	0.30422
0.09770	0.25320
0.09770	0.15117
-0.02981	0.22769
0.07220	0.25320
0.25071	0.10015
0.35272	0.15117
0.09770	0.25320
0.07220	0.15117
0.07220	-0.05289
0.19971	0.15117
0.14870	0.25320
-0.00431	0.15117
0.25071	0.15117
0.32721	0.17668
0.27621	0.22769
0.07220	0.20219
0.07220	0.12566
0.07220	0.02363
0.19971	0.12566
0.19971	0.25320
0.12320	0.04914
0.09770	0.17668
0.14870	0.10015
-0.08081	0.02363
0.22521	0.22769
0.53123	0.25320
0.32721	0.25320
0.07220	0.22769
0.04670	0.15117
-0.10631	0.15117
-0.10631	0.07465
0.22521	0.10015
0.35272	-0.07840
0.22521	0.15117
0.14870	0.32972
0.07220	0.25320
0.02119	0.12566
0.30171	0.15117
0.22521	0.15117
0.09770	0.20219
0.14870	0.15117
0.14870	-0.05289
0.22521	0.25320
0.12320	0.12566
0.07220	0.04914
0.14870	-0.02739
0.22521	0.04914
0.14870	0.25320
0.07220	0.32972
0.17421	0.04914
0.19971	0.17668
0.12320	0.32972
0.07220	0.25320
0.12320	0.10015
0.14870	0.15117
0.12320	0.22769
0.14870	0.15117
0.12320	0.02363
0.12320	0.04914
0.25071	0.15117
0.14870	0.17668
0.07220	0.20219
0.12320	0.15117
-0.00431	0.07465
0.14870	0.25320
0.37822	0.15117
0.19971	0.12566
0.09770	0.12566
0.09770	0.20219
0.14870	0.15117
0.14870	0.15117
0.09770	0.15117
0.14870	0.15117
0.19971	0.27871
0.14870	0.12566
0.12320	0.12566
0.32721	0.07465
0.09770	-0.00188
0.09770	-0.18043
0.22521	0.25320
0.07220	0.17668
0.07220	0.22769
0.12320	0.25320
0.09770	0.12566
0.17421	0.12566
0.37822	0.12566
0.27621	0.04914
-0.08081	0.12566
0.07220	-0.05289
0.14870	0.32972
0.12320	0.25320
0.12320	0.15117
0.14870	0.17668
0.22521	0.22769
0.12320	0.07465
0.09770	0.07465
0.22521	0.15117
0.17421	0.25320
0.07220	0.15117
0.17421	0.10015
0.14870	0.15117
0.17421	0.15117
0.04670	-0.05289
0.12320	0.17668
0.17421	0.30422
0.12320	0.25320
0.04670	0.10015
0.12320	0.07465
0.22521	-0.33348
0.14870	0.15117
0.17421	0.25320
0.19971	0.25320
0.14870	0.17668
0.14870	0.22769
0.19971	0.20219
0.14870	0.12566
0.17421	0.15117
0.17421	-0.00188
0.12320	-0.25695
0.04670	0.17668
0.22521	0.30422
0.14870	0.22769
0.12320	0.25320
0.17421	0.15117
0.09770	0.15117
0.22521	0.20219
0.17421	0.10015
0.14870	0.10015
0.17421	0.10015
0.14870	0.15117
0.07220	0.07465
0.19971	0.12566
0.22521	0.25320
0.14870	0.15117
0.07220	0.20219
0.19971	0.17668
0.17421	0.25320
0.09770	0.15117
0.12320	-0.02739
0.22521	0.20219
0.14870	0.27871
0.09770	0.10015
0.19971	0.20219
0.14870	0.17668
0.07220	-0.18043
0.12320	0.32972
0.19971	0.32972
0.12320	0.12566
0.07220	0.10015
0.14870	0.12566
0.25071	0.35523
0.22521	0.20219
0.07220	0.15117
0.14870	0.12566
0.19971	0.10015
0.14870	0.10015
0.07220	0.07465
0.14870	-0.07840
0.22521	0.15117
0.19971	0.25320
0.12320	0.40625
0.09770	0.15117
0.17421	0.04914
0.09770	0.07465
0.09770	0.02363
0.12320	0.30422
0.19971	0.25320
0.25071	0.25320
0.14870	0.17668
0.07220	0.17668
0.14870	0.15117
0.17421	0.07465
0.19971	0.15117
0.12320	0.10015
0.09770	0.10015
0.09770	0.04914
0.12320	0.25320
0.14870	0.22769
0.09770	0.22769
0.09770	0.10015
0.19971	0.02363
0.22521	0.25320
0.12320	0.30422
0.07220	0.22769
0.07220	0.04914
0.17421	0.25320
0.22521	0.20219
0.07220	0.04914
0.07220	-0.05289
0.12320	0.12566
0.22521	0.30422
0.12320	0.17668
0.07220	0.10015
0.17421	0.15117
0.19971	0.10015
0.12320	0.17668
0.04670	0.10015
0.14870	0.15117
0.25071	0.20219
0.27621	0.27871
0.12320	-0.05289
0.14870	0.04914
0.22521	0.12566
0.19971	0.15117
0.14870	0.20219
0.02119	0.38074
0.14870	0.30422
0.17421	0.15117
0.17421	0.04914
0.12320	0.15117
0.04670	0.15117
0.09770	0.07465
0.17421	-0.20594
0.22521	0.07465
0.14870	0.25320
0.12320	0.25320
0.07220	0.17668
0.17421	0.12566
0.19971	0.15117
0.19971	0.22769
0.07220	0.12566
0.14870	0.15117
0.17421	0.15117
0.12320	0.22769
0.07220	0.12566
0.12320	0.15117
0.22521	0.20219
0.14870	0.12566
0.09770	0.07465
0.19971	0.20219
0.17421	0.20219
0.07220	0.15117
0.14870	0.10015
0.19971	0.22769
0.22521	0.27871
0.12320	0.30422
0.09770	-0.07840
0.14870	-0.46102
0.12320	0.15117
0.22521	0.50828
0.17421	0.32972
0.09770	0.10015
0.12320	0.25320
0.09770	0.20219
0.14870	0.15117
0.14870	0.22769
0.12320	0.15117
0.19971	0.07465
0.27621	-0.00188
0.22521	0.07465
0.17421	0.07465
0.09770	0.22769
0.09770	0.12566
0.12320	0.10015
0.22521	0.07465
0.12320	0.15117
0.04670	0.20219
0.12320	0.25320
0.14870	0.15117
0.22521	0.12566
0.12320	0.20219
0.09770	0.30422
0.09770	0.22769
0.14870	0.15117
0.22521	0.12566
0.22521	0.10015
0.14870	0.04914
0.12320	0.15117
0.09770	-0.02739
0.09770	0.25320
0.12320	0.20219
0.14870	0.27871
0.19971	0.04914
0.19971	0.04914
0.14870	0.20219
0.12320	0.20219
0.07220	0.20219
0.12320	0.17668
0.12320	0.17668
0.12320	0.04914
0.14870	0.02363
0.17421	0.12566
0.09770	0.15117
0.09770	0.20219
0.09770	0.25320
0.14870	0.20219
0.17421	0.15117
0.22521	0.22769
0.19971	0.07465
0.14870	-0.00188
0.04670	0.02363
0.04670	0.04914
0.17421	0.40625
0.22521	0.35523
0.19971	-0.05289
0.04670	0.10015
0.17421	0.10015
0.19971	0.38074
0.12320	0.25320
0.07220	0.12566
0.14870	0.10015
0.19971	0.15117
0.14870	0.04914
0.14870	0.07465
0.14870	0.12566
0.17421	0.15117
0.09770	0.04914
0.14870	0.12566
0.09770	0.15117
0.07220	0.17668
0.09770	0.15117
0.22521	0.38074
0.14870	0.25320
0.09770	0.02363
0.17421	-0.02739
0.17421	0.15117
0.12320	0.07465
0.09770	0.17668
0.12320	0.22769
0.14870	0.17668
0.07220	0.17668
0.22521	0.25320
0.14870	0.10015
0.14870	0.15117
0.19971	0.22769
0.14870	0.10015
0.12320	0.10015
0.14870	0.12566
0.22521	0.12566
0.17421	0.10015
0.14870	0.12566
0.19971	0.22769
0.12320	0.22769
0.09770	0.25320
0.14870	0.27871
0.12320	-0.25695
0.07220	-0.15492
0.14870	-0.07840
0.14870	0.32972
0.12320	0.20219
0.19971	0.43176
0.19971	0.30422
0.17421	0.25320
0.12320	0.20219
0.19971	0.20219
0.07220	0.12566
0.12320	-0.00188
0.19971	0.04914
0.12320	0.12566
0.12320	0.12566
0.09770	0.04914
0.17421	0.15117
0.19971	0.22769
0.12320	0.20219
0.09770	0.10015
0.22521	0.25320
0.14870	0.20219
0.07220	0.07465
0.17421	0.07465
0.22521	0.20219
0.17421	0.20219
0.09770	-0.00188
0.22521	0.22769
0.12320	0.27871
0.17421	0.25320
0.19971	0.20219
0.12320	0.12566
0.14870	0.02363
0.22521	0.12566
0.12320	-0.00188
0.09770	0.12566
0.14870	0.20219
0.12320	0.20219
0.09770	0.10015
0.12320	0.22769
0.22521	0.25320
0.14870	0.10015
0.07220	0.10015
0.14870	0.10015
0.19971	0.22769
0.14870	0.17668
0.04670	0.22769
0.14870	0.10015
0.22521	0.04914
0.17421	0.04914
0.02119	0.04914
0.14870	0.27871
0.12320	0.32972
0.09770	0.20219
0.14870	0.07465
0.19971	0.15117
0.14870	0.20219
0.09770	0.17668
0.14870	0.12566
0.19971	0.15117
0.12320	0.22769
0.07220	0.15117
0.14870	0.02363
0.14870	0.20219
0.07220	0.15117
0.17421	0.22769
0.19971	0.02363
0.14870	-0.07840
0.12320	0.17668
0.07220	0.15117
0.19971	0.27871
0.14870	0.22769
0.12320	0.02363
0.09770	0.17668
0.22521	0.32972
0.17421	0.40625
0.12320	0.02363
0.14870	0.15117
0.17421	0.10015
0.14870	-0.02739
0.12320	0.10015
0.19971	0.17668
0.12320	0.15117
0.07220	0.10015
0.14870	0.20219
0.19971	0.15117
0.09770	0.17668
0.12320	0.02363
0.22521	0.17668
0.14870	0.30422
0.07220	0.10015
0.14870	0.12566
0.17421	0.10015
0.12320	0.20219
0.07220	0.15117
0.17421	0.17668
0.22521	0.20219
0.14870	0.17668
0.09770	0.12566
0.22521	0.12566
0.14870	0.12566
0.09770	0.04914
0.14870	0.12566
0.14870	-0.02739
0.07220	0.17668
0.14870	0.17668
0.17421	0.17668
0.07220	0.20219
0.14870	0.12566
0.19971	0.25320
0.12320	0.15117
0.12320	0.04914
0.17421	0.04914
0.14870	0.15117
0.07220	0.25320
0.14870	0.10015
0.22521	0.20219
0.14870	0.22769
0.12320	0.17668
0.12320	0.07465
0.12320	0.07465
0.22521	0.20219
0.12320	0.02363
0.07220	0.12566
0.14870	0.12566
0.19971	0.27871
0.19971	0.30422
0.07220	0.20219
0.14870	0.07465
0.22521	-0.07840
0.14870	0.15117
0.14870	0.17668
0.09770	0.17668
0.22521	0.22769
0.17421	0.12566
0.12320	0.17668
0.07220	0.17668
0.14870	0.10015
0.19971	0.10015
0.12320	0.17668
0.12320	0.12566
0.12320	0.04914
0.19971	0.07465
0.12320	0.15117
0.14870	0.07465
0.14870	0.07465
0.22521	0.10015
0.12320	0.43176
0.07220	0.25320
0.14870	0.25320
0.22521	0.25320
0.17421	0.15117
0.12320	-0.00188
0.14870	0.10015
0.19971	0.15117
0.12320	0.12566
0.07220	0.04914
0.14870	0.00000
0.22521	0.00000
0.07220	0.00000
0.14870	0.12566
0.25071	0.20219
0.14870	0.07465
0.07220	0.17668
0.14870	0.20219
0.19971	0.12566
0.07220	0.15117
0.22521	0.35523
0.12320	0.15117
0.07220	0.07465
0.22521	0.04914
0.17421	0.12566
0.14870	0.27871
0.22521	0.15117
0.04670	0.12566
0.19971	0.17668
0.17421	0.10015
0.12320	0.15117
0.17421	-0.18043
0.07220	0.12566
0.12320	0.30422
0.14870	0.35523
0.07220	0.20219
0.14870	0.15117
0.22521	0.20219
0.14870	0.12566
0.12320	0.07465
0.22521	0.20219
0.14870	0.12566
0.09770	0.10015
0.25071	0.17668
0.14870	-0.05289
0.07220	0.15117
0.14870	0.15117
0.19971	0.22769
0.12320	0.25320
0.09770	0.22769
0.17421	0.15117
0.22521	0.15117
0.12320	0.12566
0.07220	0.07465
0.12320	0.15117
0.22521	0.15117
0.17421	0.07465
0.09770	0.04914
0.14870	0.12566
0.22521	0.22769
0.12320	0.20219
0.09770	0.20219
0.17421	0.15117
0.19971	0.17668
0.12320	0.02363
0.07220	0.12566
0.14870	0.22769
0.12320	0.25320
0.19971	0.15117
0.22521	0.15117
0.09770	0.10015
0.14870	0.04914
0.14870	0.10015
0.22521	0.20219
0.12320	0.15117
0.09770	0.12566
0.14870	0.12566
0.19971	0.25320
0.14870	0.15117
0.09770	0.15117
0.09770	0.15117
0.12320	0.17668
0.14870	0.17668
0.14870	0.20219
0.22521	0.12566
0.14870	0.07465
0.02119	0.17668
0.12320	0.25320
0.19971	0.17668
0.22521	0.22769
0.14870	0.15117
0.09770	0.02363
0.14870	0.04914
0.22521	-0.05289
0.12320	0.35523
0.12320	0.38074
0.12320	0.22769
0.09770	0.17668
0.12320	-0.07840
0.22521	-0.02739
0.14870	0.35523
0.12320	0.27871
0.17421	0.25320
0.22521	0.12566
0.12320	-0.00188
0.19971	0.15117
0.12320	0.17668
0.07220	0.15117
0.14870	0.10015
0.19971	0.12566
0.14870	-0.02739
0.09770	0.12566
0.19971	0.25320
0.14870	0.12566
0.09770	0.20219
0.14870	0.27871
0.17421	0.15117
0.17421	0.04914
0.09770	0.12566
0.14870	0.20219
0.14870	0.12566
0.07220	0.25320
0.17421	0.27871
0.12320	0.15117
0.14870	0.15117
0.25071	0.25320
0.14870	0.10015
0.17421	0.17668
0.22521	0.10015
0.09770	0.04914
0.14870	0.04914
0.14870	0.30422
0.12320	-0.02739
0.17421	0.25320
0.14870	-0.10391
0.19971	-0.07840
0.25071	0.48277
0.14870	0.40625
0.09770	0.27871
0.14870	0.12566
0.19971	0.07465
0.22521	0.45726
0.14870	-0.23145
0.12320	-0.00188
0.27621	0.45726
0.17421	0.27871
0.14870	0.10015
0.09770	0.17668
0.09770	-0.00188
0.02119	-0.00188
0.27621	-0.56305
0.27621	-0.18043
0.12320	1.45206
0.07220	0.53379
0.09770	-0.28246
0.14870	-0.25695
0.27621	-1.37929
0.19971	-0.89465
0.07220	0.35523
0.07220	2.65093
0.09770	2.29382
0.25071	-0.33348
0.27621	-3.77702
-0.15732	-3.26687
-0.76936	1.50308
-0.46334	2.90601
0.81175	3.33964
0.32721	2.31933
0.86275	-1.45582
0.93925	0.55929
0.81175	0.61031
0.32721	0.40625
0.02119	-0.18043
0.14870	-3.57296
0.30171	-1.76191
-0.48884	0.40625
-0.71835	-1.63437
-0.23382	-4.97589
-0.31033	2.08976
-0.28482	1.45206
-0.76936	0.25320
-0.89686	2.19179
0.65874	6.88521
1.42379	0.35523
1.14327	-0.69059
-0.08081	-3.31788
0.12320	0.32972
0.99026	0.12566
1.65330	1.32453
1.14327	1.57960
-0.08081	0.73785
-5.02813	-0.30797
-2.19745	3.28862
1.72980	-0.92016
2.52035	-2.70570
2.21434	-5.86866
1.39828	-4.05761
-0.08081	-0.56305
-1.53441	1.52859
-0.28482	3.46718
-0.33583	5.32924
-0.25932	2.26831
0.76074	-3.16484
-0.69285	0.53379
-1.45790	-3.01179
-0.20832	2.16628
0.60773	3.26312
1.93382	2.70194
0.96476	3.31413
0.35272	-2.04250
0.17421	-3.95558
0.73524	-4.84835
-0.15732	-0.92016
0.22521	0.78886
1.32178	1.68163
1.27078	1.73265
1.09226	2.77847
-1.40690	2.88050
-3.80405	-0.35899
-2.60547	-5.30749
-1.27939	1.09496
-0.43783	-4.03210
1.29628	-0.25695
2.39285	-0.99668
2.39285	2.11527
2.82638	4.23241
1.85731	2.49788
0.78624	-0.12942
0.14870	0.61031
-0.25932	-0.79262
-0.61635	0.55929
-0.56534	-0.58856
-0.53984	0.25320
0.09770	-0.20594
-0.31033	0.45726
-3.09000	0.10015
-2.65648	-2.62918
0.09770	-0.35899
1.60230	1.17148
1.70430	-0.02739
1.72980	-1.12422
1.24527	0.89089
0.76074	0.43176
0.27621	-1.88945
0.19971	-0.86914
-0.05531	3.41616
0.22521	1.22250
0.73524	-3.21585
-0.05531	-0.66508
-0.76936	0.73785
-2.73298	2.54890
-1.45790	1.47757
2.26534	3.05905
1.70430	-0.07840
1.06676	-5.48604
-1.43240	-0.94566
-1.07538	-0.41000
0.83725	3.21210
1.72980	3.31413
1.27078	-0.58856
0.91375	-0.46102
0.63323	1.57960
-0.02981	0.55929
-0.61635	-1.71090
-0.84586	-2.42511
-0.28482	-0.79262
-0.23382	-0.76711
-0.10631	-2.34859
-0.25932	1.60511
-0.13181	2.39585
-0.18282	1.75816
0.22521	2.42136
0.81175	-1.53234
0.86275	-0.33348
0.37822	1.19699
-0.13181	0.91640
-0.48884	-2.70570
0.12320	-1.25176
0.48022	-1.07320
0.81175	0.61031
0.63323	0.99292
0.58223	1.80917
-0.69285	0.78886
-1.20288	0.55929
0.40372	-0.02739
0.81175	0.66132
0.09770	0.12566
-0.20832	2.42136
0.93925	-5.56257
0.88825	-2.96078
0.30171	1.50308
-0.56534	1.63062
-0.89686	2.67644
0.12320	-0.43551
0.22521	-0.79262
-0.08081	1.45206
0.68424	1.80917
0.68424	-3.08831
0.42922	0.81437
-0.33583	1.37554
-0.82036	0.22769
-0.28482	-0.43551
-0.28482	1.96222
0.30171	-1.12422
1.11776	-0.25695
0.91375	-0.30797
0.32721	-0.41000
0.12320	-1.17523
0.25071	1.22250
0.07220	1.12046
-0.28482	-0.66508
0.09770	-0.86914
-0.05531	-0.15492
-0.00431	1.45206
-0.51434	0.58480
0.07220	-0.30797
0.50573	0.81437
0.30171	0.61031
0.12320	0.45726
-0.25932	0.30422
0.22521	-0.05289
0.17421	-0.46102
0.55673	0.17668
0.93925	-0.07840
0.35272	0.04914
-0.51434	0.22769
-0.08081	0.38074
0.17421	1.06945
0.83725	-0.51203
1.16877	-1.07320
0.63323	0.04914
-1.17738	1.27351
-0.33583	-2.62918
0.40372	-1.71090
-0.05531	2.95702
-0.13181	1.98773
-0.00431	2.82948
0.50573	-1.73640
0.40372	-0.53754
0.27621	-0.05289
-0.10631	2.21730
-0.02981	1.93671
0.12320	-0.79262
0.02119	-2.70570
0.19971	-1.12422
0.09770	0.35523
0.37822	1.04394
0.35272	1.83468
0.22521	-2.75671
-0.23382	-2.24656
0.30171	-0.25695
0.45472	1.40105
-0.05531	1.88570
-0.74385	1.17148
-0.82036	0.15117
1.04126	-0.69059
1.32178	0.71234
0.53123	0.58480
0.27621	0.53379
0.42922	0.32972
0.86275	-0.53754
-0.18282	-0.05289
-0.23382	-0.00188
-1.07538	0.02363
-1.10088	0.07465
-0.13181	-0.02739
0.40372	0.81437
1.14327	-0.48652
0.81175	0.58480
0.42922	1.17148
0.02119	-0.51203
-0.20832	-0.99668
0.37822	-1.88945
0.25071	0.10015
0.17421	0.32972
-0.23382	3.08456
-0.05531	-0.48652
-0.46334	-1.12422
-0.25932	0.48277
-0.33583	1.63062
0.48022	0.78886
0.68424	-1.40480
0.55673	-0.38449
0.40372	1.52859
0.17421	-0.10391
0.50573	-1.02219
0.37822	0.30422
0.32721	0.86539
-0.13181	1.06945
-0.10631	-0.18043
-0.05531	-0.18043
-0.00431	-1.71090
-0.23382	-0.61406
-0.48884	-1.17523
-0.18282	0.55929
-0.08081	0.78886
0.78624	1.42656
1.04126	1.29902
0.99026	0.66132
0.63323	-0.02739
0.55673	0.15117
-0.28482	-0.56305
-0.18282	0.48277
-0.76936	-0.15492
-0.18282	0.38074
0.60773	-0.00188
0.35272	-0.63957
0.32721	-0.63957
-0.13181	0.07465
-0.13181	0.99292
0.12320	-2.19554
0.60773	1.19699
-0.66735	0.89089
-0.38683	1.98773
0.27621	1.09496
0.32721	0.58480
0.73524	-1.07320
0.55673	-1.27726
0.53123	0.22769
0.37822	1.52859
0.12320	0.25320
-0.13181	-1.12422
-0.38683	-2.52714
-0.48884	0.55929
0.32721	0.94191
0.42922	1.35003
0.30171	1.40105
0.02119	0.61031
-0.51434	-1.22625
0.25071	-0.61406
0.63323	-0.35899
0.55673	0.38074
0.50573	0.50828
-0.51434	0.32972
-0.28482	0.99292
0.25071	0.38074
0.45472	-1.45582
0.70974	-1.60887
0.30171	0.20219
-0.18282	0.96742
0.02119	1.75816
-0.08081	1.93671
0.42922	-0.41000
0.45472	-0.71609
0.50573	-0.05289
0.09770	0.53379
-0.36133	-2.17003
-0.69285	0.10015
0.02119	0.91640
0.12320	1.50308
0.09770	1.40105
0.12320	0.45726
0.63323	-1.43031
0.68424	0.12566
0.73524	-0.07840
0.63323	-0.35899
0.42922	-0.02739
0.14870	0.12566
-0.13181	0.15117
-0.02981	0.55929
-0.28482	0.35523
-0.51434	-0.05289
-1.20288	1.73265
0.09770	0.66132
0.42922	-1.53234
0.63323	-1.83844
0.58223	-0.58856
0.25071	-0.71609
0.50573	1.60511
0.60773	2.16628
-0.23382	0.45726
-0.79486	0.76336
0.07220	0.73785
-0.43783	-0.56305
0.58223	0.07465
0.35272	0.27871
0.42922	-0.33348
0.48022	-0.35899
0.42922	0.04914
0.30171	0.04914
0.22521	-0.86914
-0.05531	-0.71609
-0.43783	0.86539
-0.08081	2.47238
-0.25932	0.20219
-0.15732	-1.40480
0.09770	-3.13933
0.22521	0.71234
-0.20832	0.91640
0.42922	2.85499
0.42922	2.01323
0.60773	-2.60367
0.53123	-1.94047
0.14870	0.71234
0.02119	2.57441
0.30171	1.09496
0.32721	0.53379
0.53123	0.04914
0.35272	-0.20594
0.09770	-0.48652
-0.59084	-0.51203
-0.66735	0.45726
-0.51434	-0.12942
-0.02981	-0.74160
0.63323	-0.33348
0.68424	-0.46102
0.48022	1.42656
0.09770	0.22769
0.09770	-1.78742
-0.13181	-0.25695
0.04670	1.50308
0.60773	1.17148
0.48022	1.63062
0.25071	1.37554
-0.08081	-0.56305
-0.59084	-0.61406
-0.38683	-1.17523
0.48022	1.98773
0.70974	-0.18043
0.81175	0.15117
0.37822	-0.15492
0.07220	-0.43551
-0.08081	0.20219
-0.31033	0.40625
-0.13181	0.02363
-0.18282	0.25320
0.27621	0.53379
0.35272	-0.58856
0.14870	-0.92016
0.17421	1.09496
0.27621	0.25320
0.25071	-0.81812
-0.13181	-0.51203
-0.20832	1.04394
0.40372	1.19699
0.45472	0.12566
0.12320	-0.58856
0.17421	-0.05289
-0.23382	0.40625
0.14870	-0.33348
0.30171	1.63062
0.12320	0.02363
-0.05531	-0.56305
0.35272	0.63582
0.37822	0.50828
0.27621	-0.02739
0.12320	0.61031
0.09770	-0.28246
-0.18282	-2.90976
-0.25932	0.04914
0.27621	0.89089
0.53123	-0.05289
0.42922	0.45726
0.32721	0.91640
0.07220	0.58480
-0.10631	-0.23145
-0.25932	0.25320
-0.53984	0.04914
0.53123	0.32972
0.81175	0.76336
0.35272	-0.10391
-0.08081	-1.07320
-0.08081	-0.12942
0.19971	0.55929
-0.02981	-0.66508
-0.08081	-0.05289
0.35272	0.07465
0.30171	0.53379
0.45472	1.24800
-0.05531	0.30422
-0.10631	0.71234
0.04670	0.27871
0.09770	0.63582
0.12320	-2.47613
-0.08081	-0.12942
-0.00431	0.43176
-0.23382	1.17148
-0.00431	0.40625
0.37822	0.68683
0.25071	0.53379
0.35272	-0.74160
0.42922	-0.84363
0.32721	-0.05289
0.19971	0.25320
-0.10631	-0.84363
0.12320	-0.18043
0.37822	1.17148
0.25071	1.04394
0.04670	0.76336
-0.00431	0.32972
0.14870	-0.28246
0.42922	-0.07840
0.30171	0.04914
0.37822	0.71234
0.09770	0.30422
-0.38683	0.27871
-0.53984	-0.23145
-0.25932	-0.07840
0.55673	0.30422
0.35272	0.20219
-1.10088	-0.25695
0.19971	0.10015
1.21977	1.32453
1.19427	-2.06800
0.55673	0.10015
0.42922	0.66132
0.32721	0.68683
0.14870	1.14597
-0.20832	0.61031
-0.28482	-0.74160
-0.41233	-0.41000
-0.28482	0.43176
-0.08081	0.40625
0.19971	-0.25695
0.40372	1.29902
0.07220	0.07465
0.14870	0.48277
0.25071	0.40625
0.27621	-1.81293
0.37822	0.25320
0.30171	-0.30797
0.14870	1.19699
0.14870	1.50308
-0.08081	0.86539
0.04670	-0.05289
0.42922	-1.25176
0.40372	-1.86394
-0.20832	1.27351
-0.13181	0.63582
-0.25932	0.53379
0.32721	-0.41000
0.63323	0.30422
0.50573	0.78886
0.60773	0.89089
-0.10631	-0.43551
0.04670	-0.25695
0.02119	-0.15492
0.17421	0.50828
-0.31033	0.96742
-0.08081	-0.43551
0.42922	-0.53754
0.30171	0.61031
0.14870	0.40625
0.07220	0.20219
-0.38683	0.38074
-0.00431	-0.18043
0.68424	0.68683
0.83725	-0.33348
0.09770	0.15117
-0.74385	0.94191
-0.84586	-0.10391
0.32721	-0.86914
0.70974	0.86539
0.58223	-0.41000
0.53123	-1.17523
0.32721	0.35523
0.27621	1.17148
0.42922	1.17148
0.04670	1.17148
-0.02981	-0.07840
-0.08081	-0.23145
-0.02981	-0.81812
-0.15732	-0.30797
0.04670	0.86539
0.22521	0.43176
0.17421	-0.71609
0.32721	0.48277
0.40372	0.12566
0.42922	-2.78222
0.02119	2.34484
-0.61635	1.96222
-0.94787	-0.66508
-0.20832	0.40625
0.88825	0.40625
0.58223	-0.28246
0.45472	0.91640
0.99026	-0.33348
0.93925	0.63582
0.45472	0.17668
0.30171	-0.15492
0.32721	-0.18043
-0.02981	0.17668
-0.18282	-0.05289
-0.59084	-0.38449
-0.69285	-0.41000
-0.18282	-0.00188
-0.08081	-0.38449
0.48022	1.29902
0.32721	0.91640
0.17421	-0.25695
-0.38683	0.66132
-0.13181	-0.48652
0.48022	0.04914
0.45472	1.01843
0.53123	1.55410
0.70974	1.55410
0.68424	-1.37929
0.48022	-1.25176
-0.02981	0.20219
-0.41233	0.04914
0.02119	-1.22625
0.35272	0.10015
0.07220	0.83988
-0.59084	0.55929
-0.36133	0.53379
0.25071	0.81437
0.22521	0.02363
0.19971	0.10015
0.60773	-1.32828
0.48022	-0.33348
-0.00431	1.35003
-0.08081	0.48277
-0.10631	-0.35899
0.25071	-0.12942
0.45472	0.48277
0.45472	0.12566
0.37822	-0.05289
-0.08081	0.20219
0.12320	-0.10391
0.04670	0.55929
0.02119	-0.00188
0.22521	1.04394
0.09770	-0.58856
0.12320	-0.07840
-0.48884	-0.23145
-0.36133	0.73785
0.19971	0.04914
0.63323	0.86539
0.70974	1.27351
0.48022	0.30422
0.55673	-1.78742
-0.10631	-0.61406
-0.23382	1.01843
-0.08081	0.91640
-0.00431	0.20219
-0.36133	0.12566
0.04670	-0.46102
0.65874	0.78886
0.55673	-0.46102
0.78624	-0.81812
0.27621	-1.12422
-0.15732	0.71234
-0.38683	1.52859
-0.18282	0.96742
0.22521	0.35523
0.19971	0.27871
0.35272	-0.38449
0.19971	0.20219
0.35272	-1.07320
0.07220	-1.02219
-0.02981	0.96742
-0.23382	1.35003
0.14870	0.45726
-0.18282	0.20219
0.32721	0.25320
0.32721	0.07465
0.14870	-0.02739
0.25071	-0.41000
0.14870	-0.58856
0.65874	0.32972
-0.31033	0.83988
-0.76936	0.38074
0.12320	-0.12942
0.22521	-0.28246
0.73524	0.68683
0.55673	0.58480
0.27621	0.02363
0.55673	-0.25695
0.42922	-0.74160
0.07220	0.66132
0.09770	-0.05289
-0.23382	-0.15492
0.09770	0.38074
0.25071	0.27871
-0.20832	0.81437
-0.48884	0.45726
-0.33583	0.96742
0.27621	-1.40480
0.50573	-0.25695
0.37822	-0.05289
0.02119	0.86539
0.07220	0.07465
0.27621	0.12566
0.32721	0.27871
0.30171	0.12566
-0.02981	-0.94566
0.27621	0.35523
0.35272	-0.35899
0.07220	1.29902
-0.00431	1.12046
0.12320	0.58480
0.32721	-0.05289
0.14870	0.55929
-0.05531	0.04914
0.27621	-0.58856
0.04670	-0.05289
0.14870	-0.28246
0.17421	0.07465
0.19971	-0.23145
-0.20832	0.25320
0.02119	0.48277
0.50573	-1.14973
-0.28482	-0.25695
-0.48884	1.70714
0.58223	1.09496
0.19971	-0.15492
-0.02981	-0.94566
0.60773	1.29902
0.50573	0.63582
0.32721	0.02363
0.25071	-1.99148
0.19971	0.55929
-0.10631	1.09496
-0.02981	0.81437
0.02119	0.53379
-0.10631	-0.79262
-0.28482	-0.00188
-0.66735	0.73785
-0.08081	0.27871
0.73524	-0.63957
0.78624	-0.48652
0.58223	0.61031
0.42922	0.68683
0.02119	-0.25695
-0.20832	-0.51203
0.30171	0.20219
0.27621	0.50828
0.17421	0.25320
-0.36133	0.40625
-0.41233	0.53379
0.40372	-0.41000
0.25071	0.55929
0.27621	0.07465
0.09770	-1.17523
0.60773	0.32972
0.55673	0.61031
0.02119	0.73785
-0.31033	0.38074
-0.76936	0.15117
-0.33583	0.20219
0.30171	0.17668
0.63323	0.15117
0.76074	-2.17003
0.65874	0.04914
0.02119	0.32972
-0.08081	1.40105
0.30171	0.99292
0.17421	0.17668
0.35272	0.68683
0.12320	0.53379
-0.10631	-0.33348
0.45472	-0.48652
0.02119	-0.05289
-0.69285	0.32972
0.19971	0.81437
0.25071	-0.35899
0.53123	-2.09351
0.58223	0.76336
0.58223	0.55929
-0.36133	-0.86914
-1.27939	0.07465
-0.56534	0.58480
0.63323	1.91120
1.11776	1.14597
0.91375	0.04914
0.40372	0.02363
0.12320	-0.12942
0.22521	0.17668
0.12320	0.38074
-0.10631	-0.25695
-0.36133	-0.38449
-0.08081	0.12566
-0.02981	-0.20594
0.17421	0.50828
0.25071	0.63582
0.37822	-0.28246
0.35272	-0.43551
-0.23382	0.12566
-0.05531	0.78886
0.30171	-0.12942
0.04670	-0.15492
0.55673	0.66132
0.17421	0.17668
0.09770	0.91640
0.19971	1.17148
0.12320	-1.20074
0.25071	-0.15492
0.17421	0.02363
-0.08081	-0.35899
0.02119	0.96742
-0.02981	1.04394
0.35272	0.35523
0.12320	-0.00188
0.50573	-0.35899
-0.23382	-0.12942
-0.66735	-0.35899
-0.08081	0.81437
0.32721	0.22769
0.58223	-0.28246
0.86275	-1.68539
0.78624	-0.12942
-0.15732	0.83988
-0.48884	0.81437
0.27621	0.81437
0.30171	0.58480
0.35272	0.58480
0.35272	0.30422
-0.02981	-0.00188
0.02119	0.15117
0.09770	-1.25176
0.12320	0.53379
-0.31033	0.83988
-0.66735	-0.61406
0.27621	-2.11902
0.60773	1.09496
0.40372	1.55410
0.14870	1.17148
-0.08081	0.50828
0.09770	0.15117
0.40372	-0.53754
0.35272	-0.94566
0.42922	-0.12942
0.30171	0.86539
0.17421	0.96742
0.02119	-0.10391
-0.02981	-0.10391
0.19971	0.27871
0.35272	0.94191
-0.25932	0.10015
-0.76936	-1.02219
-0.36133	-1.09871
0.25071	-0.41000
0.48022	0.81437
0.40372	1.29902
0.50573	1.32453
0.63323	0.32972
0.53123	0.04914
0.48022	0.43176
0.50573	-0.86914
-0.05531	0.27871
-0.33583	-1.09871
-0.43783	-0.12942
-0.61635	0.48277
0.04670	0.63582
0.68424	0.76336
0.32721	1.32453
0.22521	-0.28246
0.02119	-0.02739
-0.05531	0.55929
0.30171	-0.66508
-0.02981	-0.23145
-0.05531	0.27871
0.09770	0.20219
0.48022	0.45726
0.35272	0.25320
0.32721	-0.41000
0.19971	-0.94566
0.04670	-0.05289
0.12320	1.17148
0.12320	0.99292
-0.00431	0.53379
-0.00431	0.43176
-0.15732	0.25320
0.07220	0.22769
0.37822	0.07465
0.25071	-0.25695
0.32721	-0.71609
0.14870	0.10015
0.22521	0.15117
0.17421	0.35523
0.50573	1.01843
-0.08081	0.61031
-0.36133	0.04914
-0.00431	-0.00188
0.19971	-1.48133
0.68424	-1.07320
0.22521	1.01843
0.02119	0.61031
-0.02981	0.61031
0.32721	0.66132
0.14870	0.04914
-0.00431	0.63582
-0.08081	-0.48652
0.02119	0.02363
0.27621	0.17668
0.40372	-0.28246
0.17421	0.61031
-0.05531	0.73785
-0.02981	0.50828
0.25071	-0.46102
0.02119	0.53379
0.37822	-0.30797
0.37822	-0.92016
0.30171	-0.00188
0.32721	0.89089
-0.46334	0.66132
-0.15732	1.57960
0.32721	1.65613
-0.05531	-0.33348
-0.36133	-2.90976
0.02119	-1.86394
0.48022	0.04914
0.73524	1.32453
0.63323	0.76336
0.25071	0.50828
-0.20832	0.50828
0.27621	0.35523
0.09770	0.40625
0.25071	0.76336
0.27621	0.53379
0.02119	-1.17523
-0.20832	-1.63437
-0.56534	-0.63957
-0.25932	1.42656
0.30171	1.40105
0.32721	-0.10391
0.30171	-0.12942
0.40372	0.32972
0.30171	-0.05289
0.17421	0.10015
0.19971	0.45726
0.22521	-0.10391
0.17421	-0.02739
0.02119	-0.41000
-0.00431	0.48277
-0.05531	0.48277
-0.23382	-0.05289
0.25071	0.04914
0.42922	0.55929
0.22521	0.55929
0.55673	0.35523
-0.05531	0.22769
-0.13181	0.43176
-0.23382	0.45726
0.09770	-1.60887
0.73524	-0.92016
0.42922	0.71234
0.27621	0.63582
0.40372	0.99292
0.63323	-0.46102
0.07220	-1.22625
-0.28482	0.40625
-0.48884	0.99292
-0.20832	0.73785
0.14870	-0.53754
0.27621	0.30422
0.02119	0.45726
-0.02981	0.32972
0.30171	0.53379
0.45472	0.53379
0.40372	-0.38449
0.07220	-0.30797
0.22521	-0.18043
0.32721	0.32972
0.02119	0.04914
-0.15732	0.35523
-0.33583	0.61031
0.25071	0.22769
0.35272	-0.41000
0.22521	-0.18043
0.17421	0.45726
0.32721	-0.28246
0.27621	-0.25695
0.35272	0.78886
0.22521	-0.20594
-0.02981	-0.99668
0.04670	1.06945
-0.08081	1.17148
-0.15732	0.45726
0.37822	0.91640
0.55673	0.30422
0.14870	-0.25695
0.09770	-0.23145
0.09770	-0.25695
0.40372	-0.00188
0.12320	-0.56305
-0.10631	0.15117
0.12320	0.50828
0.27621	0.02363
0.12320	0.53379
0.22521	-0.10391
-0.36133	-0.25695
-0.53984	0.35523
0.19971	0.35523
0.32721	-0.66508
0.81175	0.48277
0.60773	1.24800
0.22521	-0.69059
-0.02981	-1.25176
0.07220	0.38074
-0.05531	1.52859
0.12320	1.06945
-0.05531	-0.10391
-0.02981	0.25320
0.07220	-0.41000
-0.05531	-0.35899
0.37822	0.66132
0.58223	0.38074
0.30171	-0.02739
-0.00431	0.12566
0.09770	0.53379
0.17421	-0.76711
0.22521	-0.43551
0.04670	-1.07320
0.12320	0.12566
0.02119	0.71234
-0.31033	0.83988
-0.05531	0.76336
0.30171	0.53379
0.63323	0.45726
0.14870	0.61031
-0.08081	-0.63957
0.12320	-0.92016
0.42922	0.43176
0.19971	0.43176
0.09770	0.12566
0.14870	0.15117
-0.00431	-0.53754
0.22521	0.94191
0.25071	0.43176
0.07220	-0.46102
0.19971	-0.12942
0.37822	0.71234
0.27621	0.27871
0.04670	0.61031
0.19971	0.76336
-0.08081	0.32972
-0.43783	0.61031
0.19971	-1.55785
0.58223	-0.86914
0.32721	0.04914
0.19971	0.50828
0.19971	0.38074
0.42922	-0.10391
-0.59084	0.50828
-0.82036	0.76336
0.12320	1.09496
0.42922	-0.02739
0.58223	-0.51203
0.78624	-0.41000
0.53123	-0.18043
0.40372	-0.33348
0.12320	-0.18043
0.02119	1.29902
-0.15732	0.96742
-0.15732	0.58480
0.04670	-0.05289
0.25071	0.10015
0.30171	-0.33348
0.02119	-0.97117
0.12320	-0.38449
0.09770	1.06945
0.02119	1.09496
0.07220	-0.28246
0.19971	1.04394
0.14870	0.22769
-0.02981	0.15117
0.07220	0.30422
0.17421	-1.37929
0.32721	0.10015
0.45472	0.63582
0.35272	-0.02739
0.07220	-0.69059
-0.31033	0.73785
-0.56534	0.83988
0.40372	0.71234
0.78624	0.45726
0.12320	-0.35899
-0.10631	-0.63957
-0.00431	-0.48652
0.25071	0.73785
0.48022	0.10015
0.35272	0.53379
-0.08081	-0.05289
-0.08081	0.55929
0.45472	1.06945
0.09770	0.04914
-0.05531	-0.02739
0.02119	0.04914
0.02119	-0.02739
0.40372	-0.07840
0.45472	0.22769
0.12320	-0.18043
0.19971	0.27871
-0.28482	0.63582
-0.43783	-0.15492
-0.05531	-0.38449
0.53123	0.58480
0.50573	0.76336
0.32721	0.53379
0.37822	-0.46102
0.32721	-0.05289
0.04670	0.15117
-0.20832	0.91640
0.17421	-0.02739
0.22521	-0.30797
0.25071	-1.50683
-0.15732	-0.51203
-0.15732	0.66132
0.17421	0.66132
0.48022	1.80917
0.42922	0.94191
0.50573	-0.25695
0.14870	0.58480
-0.71835	0.66132
0.04670	-0.43551
0.30171	-0.28246
0.42922	0.66132
0.42922	-0.07840
-0.00431	-1.27726
0.32721	-1.17523
0.40372	1.01843
0.40372	0.22769
0.12320	-0.25695
-0.08081	1.50308
-0.36133	0.43176
-0.53984	-0.35899
0.25071	0.25320
0.70974	0.35523
0.63323	0.53379
0.32721	0.07465
0.14870	-0.41000
-0.02981	-0.28246
0.04670	0.48277
0.07220	0.25320
-0.43783	0.32972
-0.28482	0.40625
0.37822	-0.02739
0.50573	0.91640
0.45472	-0.05289
0.70974	-0.33348
0.35272	0.02363
0.17421	0.12566
-0.51434	0.15117
0.22521	0.02363
-0.13181	0.50828
-0.33583	0.32972
0.32721	-0.12942
0.58223	0.10015
0.35272	0.45726
0.22521	-0.10391
0.09770	-0.12942
-0.00431	-0.92016
0.27621	-0.41000
0.07220	0.68683
0.25071	1.52859
-0.13181	0.45726
-0.00431	0.45726
0.12320	-0.07840
0.22521	-0.05289
0.25071	0.30422
0.30171	0.12566
0.04670	0.40625
-0.13181	-0.33348
-0.18282	-0.28246
0.07220	-1.02219
0.37822	-0.69059
0.40372	0.17668
0.48022	0.15117
0.48022	0.58480
0.30171	0.68683
0.19971	1.29902
-0.13181	0.83988
-0.31033	0.76336
-0.02981	0.15117
0.19971	-0.02739
0.30171	0.10015
0.40372	-0.07840
0.25071	-0.41000
0.09770	-0.33348
0.30171	-0.46102
-0.08081	0.35523
-0.02981	-0.23145
-0.25932	0.15117
-0.97337	-0.28246
0.02119	0.73785
0.65874	0.20219
0.88825	0.48277
0.53123	0.40625
0.32721	0.02363
-0.00431	0.30422
0.17421	0.91640
0.40372	0.48277
0.17421	0.25320
-0.00431	-0.12942
-0.08081	-0.12942
-0.05531	-0.18043
-0.13181	-0.10391
-0.05531	-0.35899
0.19971	0.48277
0.22521	0.25320
0.14870	0.76336
0.68424	-0.71609
-0.33583	-0.53754
-0.31033	-0.56305
-0.08081	0.78886
0.19971	0.66132
0.42922	0.66132
0.35272	0.58480
0.78624	0.35523
0.40372	-0.53754
0.73524	0.50828
0.07220	0.50828
-0.10631	-0.12942
-0.33583	0.10015
-0.53984	0.35523
0.27621	-0.10391
0.32721	0.22769
0.37822	-0.10391
0.14870	0.30422
0.07220	0.15117
0.19971	0.02363
0.22521	0.53379
0.07220	0.25320
0.09770	-0.53754
-0.28482	-0.69059
-0.28482	0.50828
0.04670	0.38074
-0.28482	-0.66508
0.19971	0.81437
0.88825	1.27351
0.73524	0.50828
0.50573	0.78886
0.32721	-0.61406
0.22521	-0.18043
0.22521	0.38074
-0.00431	0.15117
-0.10631	0.32972
-0.10631	0.04914
0.02119	-0.20594
-0.00431	-0.00188
0.17421	-0.15492
0.19971	-0.07840
0.09770	0.53379
-0.28482	-0.20594
0.27621	1.01843
0.32721	0.27871
0.27621	-0.43551
0.04670	-0.61406
0.04670	-0.12942
0.14870	0.66132
0.02119	0.45726
0.30171	0.32972
0.91375	1.17148
0.22521	0.35523
-0.43783	0.22769
-0.00431	-0.18043
0.58223	-1.43031
0.63323	-0.25695
0.30171	0.10015
0.12320	1.32453
0.04670	0.58480
-0.20832	0.25320
0.07220	0.55929
-0.33583	-0.43551
-0.28482	-0.20594
0.32721	-0.56305
0.55673	0.63582
0.27621	0.30422
0.14870	0.22769
-0.02981	0.30422
-0.10631	0.45726
-0.08081	-0.35899
0.22521	0.22769
0.27621	0.66132
0.58223	0.40625
0.17421	-0.71609
0.48022	-0.30797
0.25071	-0.79262
0.22521	0.58480
0.09770	0.68683
-0.02981	0.27871
-0.31033	-0.05289
0.17421	0.12566
0.14870	1.22250
0.45472	0.40625
0.25071	0.02363
0.22521	0.04914
0.37822	-0.25695
-0.18282	0.58480
-0.13181	0.02363
0.30171	-0.05289
0.09770	0.68683
0.12320	0.02363
0.19971	-0.15492
0.19971	-0.25695
0.09770	0.40625
-0.00431	0.17668
0.32721	0.12566
0.32721	0.81437
0.32721	0.07465
-0.08081	-0.92016
-0.20832	-0.23145
0.09770	1.32453
-0.13181	-0.10391
0.14870	-0.30797
0.55673	0.43176
0.40372	0.76336
0.40372	0.45726
0.30171	0.04914
-0.18282	-0.41000
-0.02981	0.32972
-0.02981	0.25320
0.14870	0.07465
-0.18282	-0.20594
0.04670	-0.07840
0.37822	0.96742
0.50573	0.53379
0.40372	-1.37929
0.32721	-0.56305
0.07220	0.32972
0.14870	0.89089
0.22521	1.50308
-0.05531	0.22769
0.32721	0.25320
-0.25932	-1.09871
-0.59084	0.30422
-0.25932	0.45726
0.32721	0.10015
0.53123	0.10015
0.83725	0.53379
0.70974	0.30422
0.19971	0.50828
-0.82036	-0.58856
0.19971	-0.35899
0.32721	0.15117
0.53123	0.25320
0.22521	-0.00188
0.55673	0.15117
0.17421	-0.05289
0.02119	-0.05289
-0.10631	-0.35899
-0.10631	1.35003
-0.46334	-0.66508
-0.13181	0.43176
0.27621	0.02363
0.40372	1.12046
0.45472	0.68683
0.17421	0.58480
0.12320	0.76336
-0.00431	-0.35899
0.19971	-0.02739
0.30171	-0.18043
0.32721	-0.69059
0.07220	-0.30797
0.12320	0.40625
0.32721	0.35523
0.07220	-0.12942
0.12320	0.22769
0.09770	0.07465
-0.15732	-0.07840
0.04670	0.63582
0.17421	0.35523
-0.79486	0.32972
-0.33583	0.20219
0.70974	0.22769
0.93925	-0.61406
0.68424	-1.04770
0.42922	0.04914
-0.00431	0.91640
0.25071	0.66132
-0.08081	0.63582
0.02119	1.19699
0.17421	0.02363
-0.33583	1.19699
-0.33583	-1.07320
0.30171	0.04914
0.70974	-1.04770
0.40372	0.40625
-0.00431	0.83988
-0.00431	0.04914
0.09770	-0.56305
0.09770	-0.81812
-0.38683	0.17668
0.37822	0.78886
0.50573	0.94191
0.60773	0.58480
0.45472	0.81437
0.32721	-1.88945
-0.20832	-0.63957
-0.00431	0.63582
0.22521	1.09496
0.12320	1.04394
0.07220	0.78886
0.22521	-0.89465
-0.00431	-0.63957
0.35272	0.07465
-0.20832	0.58480
-0.10631	0.78886
0.37822	-0.15492
0.35272	-0.48652
0.32721	0.38074
0.48022	-0.18043
0.48022	0.32972
0.19971	0.02363
-0.41233	0.63582
-0.25932	0.66132
0.02119	-0.43551
0.12320	-0.30797
0.27621	-0.00188
0.40372	0.96742
0.40372	1.47757
0.12320	-0.74160
-0.33583	-0.05289
0.04670	-1.43031
0.50573	-0.18043
0.37822	0.94191
0.22521	0.55929
0.04670	0.53379
-0.02981	0.50828
0.07220	0.20219
0.12320	0.07465
0.07220	0.40625
0.12320	0.15117
0.32721	-0.86914
0.27621	-0.97117
0.45472	0.76336
-0.13181	0.53379
-0.10631	-0.92016
-0.20832	0.45726
-0.15732	1.63062
0.27621	0.38074
0.48022	-1.20074
0.55673	0.48277
0.37822	0.35523
0.14870	0.61031
-0.41233	0.53379
-0.28482	0.43176
0.65874	-0.58856
0.83725	0.35523
0.35272	0.02363
-0.08081	0.35523
0.30171	0.78886
0.17421	-1.07320
0.07220	-1.09871
-0.38683	0.27871
-0.28482	0.32972
0.14870	0.25320
0.17421	-0.05289
0.37822	0.38074
0.35272	0.86539
0.22521	0.76336
0.30171	0.27871
0.32721	-0.61406
0.32721	-0.76711
0.07220	0.66132
-0.05531	0.99292
0.19971	0.83988
-0.20832	0.04914
0.02119	-0.48652
0.14870	-0.61406
0.40372	-0.28246
0.32721	0.78886
0.27621	0.50828
0.02119	-0.10391
0.27621	0.30422
0.14870	0.45726
0.22521	0.15117
0.17421	0.55929
0.07220	0.25320
-0.05531	-0.25695
-0.00431	-1.25176
0.30171	0.66132
0.12320	0.45726
-0.28482	0.96742
-0.08081	-0.15492
0.32721	-0.94566
0.27621	0.15117
-0.02981	-0.05289
0.35272	0.50828
0.55673	0.25320
0.45472	0.35523
0.42922	0.07465
0.12320	0.27871
-0.02981	0.35523
0.02119	0.35523
-0.10631	0.35523
-0.00431	-0.56305
0.09770	-1.17523
-0.23382	-0.18043
-0.02981	0.68683
0.25071	0.81437
0.14870	1.17148
0.27621	0.55929
0.42922	-0.35899
0.30171	-0.30797
0.17421	0.15117
0.17421	0.48277
0.22521	0.32972
0.14870	0.22769
0.19971	-0.12942
0.04670	-0.12942
-0.13181	-0.35899
-0.10631	0.22769
0.12320	0.38074
0.50573	0.32972
0.48022	-1.73640
0.27621	0.91640
-0.87136	0.50828
-1.02437	0.86539
0.60773	1.09496
0.65874	0.61031
0.83725	-0.05289
0.63323	-0.66508
0.50573	0.89089
0.45472	-0.51203
0.14870	-0.46102
-0.13181	0.53379
-0.10631	0.15117
-0.10631	0.07465
0.02119	0.35523
-0.08081	-0.00188
-0.23382	-0.38449
-0.15732	0.22769
0.27621	0.38074
0.19971	0.10015
0.12320	1.12046
0.32721	0.55929
0.14870	-0.53754
0.60773	0.20219
0.40372	0.40625
0.17421	-1.27726
0.17421	-0.63957
-0.00431	-0.18043
-0.10631	1.04394
0.42922	1.12046
0.37822	0.83988
0.19971	0.04914
0.04670	0.35523
-0.18282	-0.56305
-0.61635	-0.74160
-0.15732	-0.61406
0.37822	0.94191
0.86275	0.76336
0.73524	0.53379
0.45472	0.43176
0.07220	-0.38449
0.12320	0.07465
0.12320	0.89089
-0.08081	-0.15492
0.12320	-0.07840
-0.08081	0.53379
-0.08081	-0.02739
-0.08081	-0.92016
0.09770	-0.94566
0.02119	0.48277
-0.02981	0.78886
0.63323	0.83988
0.19971	0.15117
-0.20832	0.66132
0.25071	0.40625
0.48022	-0.61406
0.53123	0.50828
0.58223	0.30422
0.40372	0.25320
0.27621	-0.86914
-0.08081	0.22769
-0.10631	0.38074
-0.00431	0.43176
-0.20832	0.55929
-0.13181	-0.07840
0.22521	0.22769
0.09770	0.40625
0.25071	-0.07840
0.02119	0.30422
-0.02981	-1.09871
-0.20832	0.17668
-0.46334	0.15117
0.32721	0.22769
0.73524	0.45726
0.96476	0.40625
0.78624	0.45726
0.53123	0.81437
0.22521	-0.35899
-0.02981	0.02363
-0.51434	-0.15492
-0.33583	0.02363
-0.10631	-0.28246
0.12320	0.32972
0.30171	0.30422
0.32721	0.83988
0.25071	-0.43551
0.04670	-0.28246
0.30171	0.50828
0.30171	0.38074
-0.00431	0.73785
-0.48884	0.55929
-0.05531	0.25320
0.32721	-0.41000
0.32721	-0.35899
0.04670	0.15117
0.65874	-0.23145
0.32721	-1.30277
0.04670	-0.18043
-0.15732	0.48277
0.25071	1.37554
0.22521	0.78886
0.58223	0.66132
-0.23382	0.02363
-0.23382	0.63582
-0.00431	0.20219
0.09770	-0.81812
0.22521	-1.04770
0.09770	-0.00188
0.32721	0.20219
0.48022	0.15117
0.42922	0.66132
0.12320	0.48277
-0.00431	0.15117
0.04670	0.10015
-0.08081	0.50828
-0.23382	-0.05289
0.17421	-0.63957
0.14870	0.48277
0.27621	-0.05289
0.17421	0.35523
0.32721	0.15117
0.63323	0.02363
0.48022	0.78886
-0.08081	0.17668
-0.02981	0.20219
-0.15732	-0.38449
0.32721	-0.46102
0.42922	-0.10391
0.07220	0.96742
-0.46334	0.48277
-0.08081	-0.38449
0.14870	0.63582
0.42922	0.50828
0.45472	0.20219
0.42922	0.30422
0.45472	-0.28246
0.22521	-0.51203
0.09770	-0.92016
-0.08081	0.68683
0.02119	0.61031
-0.33583	0.40625
-0.28482	0.53379
0.25071	-0.02739
0.45472	0.12566
0.55673	0.30422
0.30171	-0.23145
0.09770	0.32972
-0.28482	-0.30797
0.07220	0.38074
0.27621	-0.15492
0.25071	-0.46102
-0.08081	0.55929
-0.13181	1.01843
0.53123	1.04394
0.48022	-0.56305
0.22521	-0.81812
0.02119	-0.28246
0.30171	0.61031
0.09770	0.55929
-0.00431	0.66132
-0.05531	0.48277
-0.25932	0.02363
0.09770	0.27871
0.42922	0.30422
0.50573	0.61031
0.35272	-0.94566
-0.00431	-0.48652
0.32721	-0.15492
0.14870	0.89089
-0.00431	-0.10391
0.22521	-0.35899
0.22521	0.73785
0.14870	0.61031
0.22521	-0.10391
-0.31033	0.02363
0.04670	0.32972
0.32721	0.38074
0.14870	-0.46102
0.50573	0.04914
-0.66735	0.30422
-0.25932	0.15117
0.73524	0.20219
0.73524	-0.12942
0.88825	0.58480
0.35272	0.71234
-0.20832	0.35523
-0.23382	-0.71609
-0.74385	-0.20594
-0.05531	-0.23145
0.60773	0.35523
0.58223	0.07465
0.32721	-0.00188
0.27621	0.76336
0.25071	0.32972
0.12320	0.10015
-0.02981	0.17668
-0.15732	0.40625
-0.08081	0.99292
0.12320	-0.10391
0.27621	-1.35379
0.35272	-0.43551
0.17421	0.73785
0.07220	0.04914
0.12320	0.61031
0.22521	0.40625
0.17421	0.91640
0.12320	0.27871
0.17421	0.02363
0.12320	-0.38449
0.22521	-0.51203
0.25071	-0.23145
0.12320	0.20219
-0.02981	0.38074
-0.28482	0.20219
0.25071	0.50828
0.40372	0.66132
0.78624	0.50828
0.25071	-0.12942
0.19971	-0.38449
0.04670	0.12566
0.12320	-0.46102
0.09770	0.38074
-0.38683	0.40625
-0.38683	0.30422
0.53123	0.48277
0.19971	0.45726
0.22521	-2.11902
0.14870	-0.58856
-0.25932	0.81437
0.27621	0.96742
0.65874	1.14597
0.55673	0.50828
0.30171	0.07465
0.45472	1.01843
0.27621	-0.12942
-0.08081	-0.56305
0.02119	0.27871
0.09770	-0.20594
0.04670	-0.79262
0.04670	-0.46102
0.07220	0.48277
-0.13181	-0.10391
-0.08081	0.48277
0.25071	1.06945
0.09770	0.35523
0.19971	-0.74160
0.25071	0.30422
0.40372	0.91640
0.02119	0.27871
0.14870	-0.07840
0.09770	-0.76711
0.32721	-0.58856
0.35272	0.89089
0.53123	0.43176
0.09770	0.55929
-0.25932	0.17668
-0.18282	0.99292
0.25071	-0.25695
0.09770	-0.92016
0.50573	0.35523
0.65874	0.43176
0.14870	0.25320
-0.46334	-0.23145
0.12320	-0.05289
-0.02981	0.30422
-0.05531	0.66132
0.30171	-0.05289
0.12320	-0.51203
0.27621	0.04914
0.40372	0.40625
0.19971	0.94191
0.07220	0.48277
-0.00431	-0.10391
0.12320	-0.46102
0.17421	0.63582
-0.05531	-0.00188
-0.00431	0.12566
0.09770	-0.05289
0.19971	-0.15492
-0.15732	-0.20594
0.32721	0.63582
0.58223	0.81437
0.55673	0.48277
0.32721	0.81437
0.12320	0.15117
-0.02981	-1.27726
-0.08081	-1.04770
0.12320	0.27871
-0.36133	-0.20594
0.04670	1.17148
0.40372	1.78367
0.22521	0.45726
-0.18282	0.66132
0.17421	0.22769
0.63323	0.12566
0.65874	-0.41000
-0.15732	-0.74160
-0.10631	-0.43551
-0.28482	0.22769
0.07220	-0.23145
0.42922	0.38074
0.35272	0.12566
-0.08081	0.58480
0.17421	0.45726
0.32721	0.12566
0.19971	-0.10391
0.07220	0.35523
-0.13181	0.10015
-0.31033	0.55929
0.14870	0.66132
0.40372	-0.92016
0.60773	-0.76711
0.48022	0.25320
0.17421	1.37554
0.07220	0.35523
0.17421	0.04914
-0.15732	0.15117
-0.10631	0.48277
0.12320	0.71234
0.35272	-0.10391
0.48022	0.02363
0.07220	0.17668
-0.41233	0.55929
-0.20832	0.10015
0.32721	-0.43551
0.25071	-0.05289
0.40372	0.38074
0.19971	0.58480
0.25071	-1.04770
0.12320	-0.41000
0.37822	-0.05289
0.17421	0.71234
0.04670	0.50828
0.14870	0.61031
0.22521	0.45726
0.12320	0.22769
-0.08081	-0.23145
-0.02981	0.15117
0.32721	-0.20594
0.30171	0.15117
0.02119	0.66132
-0.41233	0.17668
-0.13181	0.35523
0.32721	0.76336
0.37822	0.73785
0.27621	0.40625
0.37822	-0.97117
0.76074	-1.30277
-0.33583	0.20219
-0.38683	-0.05289
0.40372	0.61031
0.42922	0.38074
0.30171	0.35523
0.19971	0.27871
0.09770	0.22769
-0.00431	0.38074
-0.08081	-0.58856
0.19971	-0.20594
0.22521	0.43176
0.22521	-0.18043
0.14870	0.04914
-0.08081	0.91640
-0.18282	0.58480
-0.13181	-0.43551
-0.02981	-0.41000
0.63323	0.55929
0.58223	0.73785
0.30171	0.38074
0.35272	0.30422
0.32721	-0.30797
0.09770	-0.12942
0.02119	0.86539
-0.02981	-0.00188
-0.02981	0.50828
0.12320	-0.05289
0.09770	-0.05289
-0.10631	-0.46102
0.22521	-1.35379
0.42922	0.27871
0.30171	0.58480
-0.36133	0.50828
-0.10631	0.55929
0.32721	0.55929
0.50573	-0.38449
0.32721	0.10015
0.22521	0.63582
0.27621	-0.10391
0.09770	-0.05289
-0.02981	0.40625
0.27621	0.35523
0.14870	-0.05289
0.22521	0.12566
-0.00431	0.89089
0.22521	0.15117
0.07220	-0.05289
-0.02981	-0.58856
0.17421	-0.20594
0.17421	0.10015
0.27621	0.32972
0.25071	0.35523
0.22521	-0.02739
0.12320	0.30422
-0.23382	0.45726
-0.10631	0.20219
0.42922	0.25320
0.19971	-0.05289
0.25071	-0.30797
0.27621	-0.10391
0.32721	0.91640
0.40372	0.27871
0.04670	-0.12942
-0.33583	-0.00188
0.12320	-0.12942
0.25071	0.35523
0.17421	0.63582
-0.10631	0.55929
0.27621	0.27871
