-0.20832	0.22769
-0.05531	0.15117
0.07220	0.15117
0.12320	0.02363
0.22521	0.15117
0.25071	0.12566
0.25071	0.15117
0.35272	0.20219
0.17421	0.07465
0.25071	0.20219
0.19971	0.12566
0.09770	0.17668
0.19971	0.25320
0.04670	0.10015
0.09770	0.15117
0.14870	0.25320
0.04670	-0.00188
0.07220	0.12566
0.14870	0.20219
0.07220	0.15117
0.12320	0.15117
0.22521	0.30422
0.19971	0.22769
0.14870	0.20219
0.22521	0.20219
0.17421	0.10015
0.19971	0.12566
0.22521	0.22769
0.12320	0.10015
0.14870	0.10015
0.19971	0.17668
0.17421	0.10015
0.09770	0.12566
0.14870	0.17668
0.22521	0.15117
0.12320	0.15117
0.09770	0.17668
0.12320	0.25320
0.14870	0.15117
0.07220	0.10015
0.14870	0.17668
0.17421	0.20219
0.09770	0.10015
0.12320	0.17668
0.22521	0.25320
0.09770	0.04914
0.14870	0.17668
0.22521	0.25320
0.14870	0.07465
0.17421	0.15117
0.22521	0.30422
0.12320	0.02363
0.07220	0.02363
0.17421	0.10015
0.19971	0.20219
0.17421	0.25320
0.09770	0.20219
0.09770	0.12566
0.22521	0.20219
0.12320	0.04914
0.09770	0.04914
0.14870	0.25320
0.22521	0.20219
0.12320	0.15117
0.09770	0.10015
0.22521	0.20219
0.14870	0.10015
0.07220	0.15117
0.12320	0.17668
0.14870	0.12566
0.09770	0.20219
0.19971	0.20219
0.17421	0.15117
0.14870	0.07465
0.19971	0.17668
0.07220	0.17668
0.14870	0.20219
0.14870	0.07465
0.04670	0.02363
0.14870	0.10015
0.17421	0.10015
0.17421	0.04914
0.22521	0.17668
0.07220	0.15117
0.22521	0.27871
0.14870	0.17668
0.14870	0.17668
0.22521	0.17668
0.14870	0.15117
0.07220	0.04914
0.19971	0.12566
0.17421	0.25320
0.04670	0.15117
0.12320	0.04914
0.19971	0.15117
0.09770	0.10015
0.12320	0.17668
0.19971	0.27871
0.14870	0.17668
0.17421	0.20219
0.22521	0.15117
0.14870	0.12566
0.17421	0.15117
0.19971	0.27871
0.09770	0.15117
0.14870	0.12566
0.12320	0.10015
0.09770	0.15117
0.14870	0.17668
0.14870	0.07465
0.12320	-0.00188
0.14870	0.12566
0.22521	0.15117
0.07220	0.10015
0.22521	0.15117
0.17421	0.15117
0.07220	0.10015
0.14870	0.25320
0.22521	0.20219
0.09770	0.10015
0.07220	0.17668
0.12320	0.15117
0.22521	0.17668
0.09770	0.10015
0.14870	0.22769
0.22521	0.20219
0.07220	0.07465
0.14870	0.22769
0.19971	0.07465
0.12320	0.15117
0.19971	0.15117
0.22521	0.10015
0.07220	0.07465
0.14870	0.25320
0.12320	0.15117
0.09770	0.22769
0.22521	0.20219
0.12320	0.15117
0.09770	0.10015
0.14870	0.27871
0.22521	0.22769
0.17421	0.17668
0.09770	0.07465
0.17421	0.07465
0.12320	0.02363
0.07220	0.10015
0.19971	0.22769
0.12320	0.10015
0.14870	0.20219
0.19971	0.20219
0.09770	0.12566
0.09770	0.17668
0.22521	0.25320
0.17421	0.15117
0.09770	0.12566
0.09770	0.12566
0.22521	0.17668
0.14870	0.10015
0.14870	0.17668
-0.13181	0.15117
0.12320	0.02363
0.45472	0.12566
0.14870	0.17668
-0.00431	0.15117
0.02119	0.12566
0.17421	0.10015
0.12320	0.20219
0.07220	0.10015
0.17421	0.17668
0.22521	0.30422
0.17421	0.15117
0.09770	0.07465
0.19971	0.15117
0.22521	0.20219
0.12320	0.12566
0.09770	0.07465
0.14870	0.15117
0.14870	0.10015
0.30171	0.07465
0.07220	0.22769
-0.15732	0.25320
0.02119	-0.02739
0.27621	0.04914
0.25071	0.17668
0.12320	0.20219
0.12320	0.25320
0.14870	0.25320
0.22521	0.10015
0.14870	0.10015
0.14870	-0.00188
0.19971	0.22769
0.14870	0.25320
0.07220	0.07465
0.07220	0.04914
0.14870	0.17668
0.19971	0.30422
0.19971	0.25320
0.14870	0.02363
0.07220	0.07465
0.17421	0.10015
0.19971	0.10015
0.14870	0.17668
0.09770	0.15117
0.12320	0.17668
0.22521	0.22769
0.19971	0.04914
0.07220	0.02363
0.17421	0.20219
0.17421	0.15117
0.22521	0.22769
0.14870	0.15117
0.07220	0.10015
0.07220	0.12566
0.12320	0.15117
0.19971	0.10015
0.14870	0.10015
0.09770	0.10015
0.07220	0.17668
0.14870	0.20219
0.19971	0.30422
0.14870	0.20219
0.12320	0.04914
0.09770	0.04914
0.12320	0.15117
0.22521	0.20219
0.17421	0.15117
0.09770	0.12566
0.17421	0.15117
0.25071	0.25320
0.12320	0.10015
0.09770	0.12566
0.14870	0.15117
0.22521	0.17668
0.09770	0.07465
0.14870	0.07465
0.22521	0.22769
0.12320	0.12566
0.07220	0.15117
0.17421	0.17668
0.22521	0.20219
0.12320	0.15117
0.09770	0.07465
0.17421	0.04914
0.19971	0.12566
0.14870	0.22769
0.14870	0.12566
0.07220	0.20219
0.12320	0.17668
0.19971	0.12566
0.17421	0.10015
0.07220	0.15117
0.14870	0.22769
0.12320	0.12566
0.09770	0.07465
0.14870	0.15117
0.12320	0.12566
0.09770	0.20219
0.12320	0.22769
0.19971	0.22769
0.12320	-0.02739
0.09770	0.04914
0.14870	0.20219
0.17421	0.10015
0.12320	-0.15492
0.09770	0.27871
0.14870	0.32972
0.22521	0.35523
0.14870	0.22769
0.07220	0.07465
0.19971	0.22769
0.22521	0.10015
0.14870	-0.00188
0.14870	0.04914
0.14870	0.17668
0.09770	0.07465
0.17421	0.12566
0.19971	0.20219
0.14870	0.12566
0.07220	0.20219
0.17421	0.30422
0.22521	0.17668
0.19971	0.07465
0.09770	-0.02739
0.14870	0.15117
0.14870	0.20219
0.19971	0.15117
0.09770	0.10015
0.14870	0.25320
0.22521	0.15117
0.12320	0.17668
0.07220	0.12566
0.12320	0.17668
0.17421	0.25320
0.22521	0.17668
0.17421	0.10015
0.07220	0.02363
0.07220	0.10015
0.14870	0.22769
0.17421	0.17668
0.12320	-0.02739
0.07220	0.12566
0.17421	0.20219
0.19971	0.10015
0.12320	-0.00188
0.09770	0.35523
0.14870	0.30422
0.25071	0.25320
0.12320	0.15117
0.07220	0.04914
0.12320	-0.05289
0.22521	0.12566
0.14870	0.22769
0.09770	0.17668
0.14870	0.17668
0.22521	0.22769
0.12320	0.15117
0.07220	0.10015
0.14870	0.12566
0.19971	0.17668
0.14870	0.20219
0.07220	0.20219
0.17421	0.07465
0.22521	0.22769
0.19971	0.20219
0.12320	0.07465
0.07220	0.12566
0.14870	0.20219
0.25071	0.22769
0.22521	0.07465
0.19971	0.04914
0.09770	0.15117
0.12320	0.17668
0.22521	0.32972
0.14870	0.32972
0.12320	0.12566
0.14870	0.07465
0.19971	0.17668
0.22521	0.12566
0.14870	0.07465
0.07220	0.12566
0.12320	0.20219
0.25071	0.15117
0.17421	0.15117
0.12320	0.07465
0.14870	0.15117
0.19971	0.15117
0.12320	0.25320
0.09770	0.07465
0.14870	0.15117
0.19971	0.25320
0.14870	0.10015
0.09770	-0.05289
0.22521	0.17668
0.17421	0.15117
0.14870	0.12566
0.07220	0.15117
0.14870	0.20219
0.22521	0.17668
0.14870	0.17668
0.09770	0.10015
0.14870	0.27871
0.19971	0.25320
0.17421	0.02363
0.07220	0.04914
0.25071	0.17668
0.14870	0.12566
0.14870	0.12566
0.07220	0.17668
0.12320	0.27871
0.22521	0.04914
0.14870	0.02363
0.12320	0.07465
0.22521	0.15117
0.14870	0.27871
0.07220	0.12566
0.14870	0.25320
0.22521	0.12566
0.14870	0.02363
0.07220	0.22769
0.12320	0.20219
0.17421	0.12566
0.07220	0.15117
0.14870	0.10015
0.14870	0.10015
0.14870	0.12566
0.22521	0.02363
0.12320	0.12566
0.14870	0.17668
0.19971	0.45726
0.12320	0.04914
0.09770	0.15117
0.14870	0.25320
0.19971	0.15117
0.12320	0.10015
0.07220	0.04914
0.07220	0.15117
0.17421	0.20219
0.12320	0.15117
0.07220	0.17668
0.17421	0.22769
0.19971	0.12566
0.19971	-0.00188
0.17421	0.07465
0.17421	0.27871
0.14870	0.15117
0.09770	0.22769
0.17421	0.20219
0.22521	-0.05289
0.14870	0.10015
0.07220	0.22769
0.19971	0.20219
0.19971	0.10015
0.07220	0.15117
0.12320	0.15117
0.22521	0.07465
0.12320	0.22769
0.07220	0.02363
0.14870	0.12566
0.14870	0.15117
0.22521	0.30422
0.14870	0.17668
0.07220	0.04914
0.12320	0.02363
0.19971	0.20219
0.17421	0.10015
0.14870	0.22769
0.19971	0.25320
0.12320	0.12566
0.09770	0.12566
0.09770	0.15117
0.22521	0.25320
0.12320	0.15117
0.07220	0.10015
0.14870	0.12566
0.22521	0.25320
0.12320	0.15117
0.09770	-0.00188
0.12320	0.02363
0.19971	0.04914
0.04670	0.22769
0.17421	0.20219
0.22521	0.20219
0.12320	0.20219
0.12320	0.04914
0.19971	0.07465
0.14870	0.32972
0.09770	0.20219
0.19971	0.17668
0.17421	0.10015
0.14870	-0.00188
0.22521	0.12566
0.07220	0.10015
0.17421	0.22769
0.19971	0.17668
0.12320	0.10015
0.09770	0.02363
0.14870	0.07465
0.19971	0.10015
0.22521	0.27871
0.14870	0.22769
0.07220	0.12566
0.09770	0.15117
0.17421	0.20219
0.17421	0.17668
0.12320	0.07465
0.07220	0.15117
0.12320	0.15117
0.22521	0.12566
0.09770	0.17668
0.14870	0.15117
0.22521	0.15117
0.12320	-0.02739
0.07220	0.15117
0.14870	0.25320
0.19971	0.22769
0.17421	0.12566
0.09770	-0.07840
0.19971	0.10015
0.19971	0.17668
0.09770	0.32972
0.14870	0.25320
0.22521	0.17668
0.07220	0.10015
0.14870	0.12566
0.12320	0.15117
0.19971	0.04914
0.09770	0.10015
0.14870	0.27871
0.22521	0.17668
0.17421	0.04914
0.09770	0.10015
0.22521	0.25320
0.12320	0.10015
0.09770	0.15117
0.12320	0.20219
0.19971	0.17668
0.17421	0.17668
0.14870	0.10015
0.07220	0.15117
0.09770	0.10015
0.14870	0.25320
0.12320	0.38074
0.19971	0.17668
0.14870	-0.02739
0.14870	0.10015
0.09770	-0.05289
0.17421	0.27871
0.22521	0.35523
0.22521	0.04914
0.12320	0.02363
0.14870	0.04914
0.04670	0.12566
0.22521	0.20219
0.19971	0.20219
0.17421	0.10015
0.09770	0.04914
0.12320	0.17668
0.12320	0.20219
0.22521	0.15117
0.22521	0.25320
0.14870	0.17668
0.04670	0.02363
0.14870	0.10015
0.22521	0.20219
0.19971	0.20219
0.09770	0.15117
0.14870	0.15117
0.22521	0.17668
0.12320	0.07465
0.07220	-0.00188
0.07220	0.10015
0.14870	0.17668
0.22521	0.20219
0.12320	0.04914
0.09770	0.04914
0.17421	0.10015
0.14870	0.32972
0.22521	0.25320
0.22521	0.20219
0.12320	0.12566
0.07220	0.17668
0.07220	0.17668
0.09770	-0.10391
0.12320	0.20219
0.17421	0.22769
0.14870	0.25320
0.07220	0.07465
0.09770	0.10015
0.14870	-0.00188
0.25071	0.20219
0.12320	0.22769
0.17421	0.15117
0.07220	0.17668
0.17421	0.22769
0.22521	0.22769
0.19971	0.15117
0.14870	0.07465
0.09770	0.07465
0.09770	0.15117
0.17421	0.22769
0.14870	0.25320
0.22521	0.12566
0.14870	0.02363
0.14870	0.15117
0.19971	0.15117
0.09770	0.12566
0.09770	0.04914
0.14870	0.20219
0.22521	0.22769
0.14870	0.15117
0.09770	0.10015
0.14870	0.15117
0.19971	0.15117
0.19971	0.17668
0.12320	0.15117
0.09770	0.15117
0.09770	0.10015
0.14870	0.15117
0.14870	0.27871
0.12320	0.15117
0.09770	0.15117
0.22521	0.17668
0.14870	0.12566
0.09770	-0.02739
0.14870	0.12566
0.19971	0.17668
0.12320	0.22769
0.14870	0.17668
0.09770	0.04914
0.12320	0.04914
0.17421	0.15117
0.09770	0.12566
0.17421	0.22769
0.22521	0.20219
0.17421	0.17668
0.12320	0.17668
0.17421	0.04914
0.07220	0.04914
0.07220	0.15117
0.22521	0.22769
0.22521	0.10015
0.12320	0.04914
0.17421	0.17668
0.19971	0.30422
0.14870	0.20219
0.09770	0.10015
0.12320	0.12566
0.22521	0.17668
0.22521	0.17668
0.14870	0.10015
0.09770	0.12566
0.12320	0.27871
0.22521	0.20219
0.19971	0.10015
0.14870	-0.20594
0.07220	0.10015
0.14870	0.30422
0.22521	0.38074
0.17421	0.25320
0.12320	0.04914
0.09770	0.10015
0.09770	0.17668
0.22521	0.17668
0.17421	0.10015
0.09770	0.10015
0.14870	0.25320
0.22521	0.25320
0.12320	0.17668
0.07220	-0.02739
0.14870	0.04914
0.22521	0.38074
0.12320	0.27871
0.09770	-0.00188
0.22521	-0.07840
0.09770	-0.23145
0.07220	0.25320
0.12320	0.55929
0.22521	0.32972
0.12320	0.20219
0.07220	0.15117
0.14870	0.32972
0.22521	0.27871
0.14870	-0.23145
0.09770	0.45726
0.12320	0.50828
0.22521	-0.74160
0.19971	-0.00188
0.09770	0.30422
0.12320	0.53379
0.17421	-1.27726
0.12320	0.55929
0.04670	0.63582
0.17421	-0.20594
0.19971	1.37554
0.19971	0.96742
0.22521	-1.53234
0.22521	-0.10391
-0.05531	-1.96597
0.09770	1.09496
0.22521	-0.07840
0.17421	2.03874
-0.18282	1.98773
0.14870	1.14597
0.45472	3.08456
0.60773	-2.70570
0.12320	0.40625
0.12320	-3.01179
0.04670	-1.53234
0.19971	-0.84363
0.27621	-2.17003
-0.05531	-1.50683
-0.13181	2.98253
-0.08081	1.27351
-0.15732	2.57441
-0.13181	2.54890
0.53123	2.90601
1.27078	0.91640
0.93925	-0.97117
0.27621	-3.85355
-0.43783	-1.48133
-0.13181	-2.45062
-0.05531	2.34484
-0.25932	-4.97589
-1.33039	-1.40480
-0.56534	0.10015
0.99026	6.68115
0.93925	6.80869
0.14870	-4.64429
-0.87136	-1.07320
-0.15732	-2.70570
1.04126	5.78838
1.57679	0.66132
1.88281	-2.60367
1.75531	-4.87386
0.42922	2.54890
-1.07538	4.13038
-1.22839	1.65613
-2.06994	3.54370
-0.53984	-2.29757
1.42379	2.77847
1.47479	-1.68539
0.45472	-0.48652
-1.25389	-2.85874
-0.99887	-6.32780
0.93925	-0.92016
1.16877	4.76807
-0.41233	6.27303
0.53123	-1.04770
-1.94243	-7.57768
-3.24301	-1.14973
1.75531	2.72745
2.39285	0.86539
0.17421	5.09967
-0.20832	4.38546
0.91375	-3.36890
1.85731	-1.53234
1.80631	1.86019
0.91375	-2.19554
0.42922	0.91640
-1.30489	0.04914
-0.84586	-0.46102
-0.89686	0.43176
-1.68742	0.66132
-1.12638	-1.83844
-0.66735	1.86019
-0.87136	-1.07320
-0.46334	0.78886
0.55673	0.83988
1.62780	-2.78222
1.24527	0.66132
1.09226	3.97733
1.34728	-5.20546
1.75531	-3.01179
1.04126	3.82429
0.42922	5.81389
0.48022	-5.33300
-0.69285	-2.96078
-0.69285	2.70194
-1.27939	0.61031
-1.43240	2.54890
-0.20832	0.83988
0.32721	0.40625
0.42922	0.25320
0.40372	-0.69059
0.42922	-0.00188
0.32721	-2.45062
0.19971	-2.01699
0.17421	1.70714
0.12320	0.07465
0.12320	-4.49124
0.12320	-0.69059
-0.02981	-1.50683
0.25071	1.88570
0.17421	2.70194
0.14870	2.93151
0.37822	0.76336
0.37822	2.42136
0.40372	0.68683
0.14870	1.12046
-0.08081	4.18139
0.14870	-4.05761
1.04126	-1.76191
-0.02981	-1.48133
-0.33583	-0.12942
-2.83499	-0.41000
-0.43783	1.70714
0.30171	2.44687
0.99026	0.35523
1.19427	-3.64948
1.60230	-0.25695
1.42379	2.52339
0.99026	2.72745
0.22521	-1.35379
0.53123	0.15117
-0.46334	0.81437
-1.63641	1.50308
-1.15188	-2.73121
0.14870	-1.07320
-0.23382	-1.32828
-2.47797	1.32453
-0.28482	2.11527
1.42379	0.22769
1.70430	0.04914
1.39828	0.53379
1.27078	0.55929
0.93925	1.55410
0.27621	-1.02219
-0.08081	-0.46102
-0.20832	-0.56305
-0.46334	1.32453
-0.51434	-1.58336
-0.20832	-2.09351
-0.13181	2.49788
-0.20832	-1.94047
0.09770	1.40105
0.04670	2.24281
0.68424	-0.56305
0.27621	2.31933
0.07220	-0.69059
0.42922	-3.41992
-1.35589	2.34484
0.63323	1.91120
1.37278	-2.39961
1.04126	-3.29238
0.12320	0.50828
0.14870	-1.02219
0.04670	1.37554
-0.23382	1.91120
-0.05531	2.14077
-0.23382	1.19699
0.76074	1.29902
0.91375	-0.12942
0.40372	0.63582
-0.05531	-0.79262
-0.33583	1.57960
0.12320	-6.78694
-0.08081	0.20219
-0.15732	0.43176
0.27621	-0.79262
-0.13181	1.04394
0.14870	1.35003
0.32721	1.04394
0.19971	1.45206
0.17421	1.57960
-0.28482	-2.09351
0.27621	-2.32308
0.32721	-2.22105
0.32721	2.39585
0.09770	2.62542
0.14870	-0.07840
0.27621	-1.78742
0.30171	4.25792
0.40372	-1.86394
0.45472	0.55929
0.37822	0.32972
-1.76392	-0.76711
-1.71292	0.61031
1.04126	1.68163
0.81175	-0.46102
0.65874	-2.24656
-0.10631	0.91640
-0.08081	0.40625
0.96476	-0.89465
0.55673	0.66132
0.63323	-0.07840
0.58223	-0.02739
0.22521	1.86019
-0.31033	1.19699
-0.74385	1.06945
-1.40690	0.94191
-1.55991	-1.91496
-0.05531	-0.41000
0.76074	-1.37929
1.37278	0.86539
1.27078	-2.27207
0.99026	0.94191
0.78624	0.53379
0.25071	1.17148
-0.08081	2.24281
-1.76392	-1.12422
-1.10088	1.73265
0.19971	-2.22105
0.42922	0.20219
0.76074	0.15117
0.63323	0.20219
0.37822	-1.40480
0.25071	0.61031
0.27621	1.17148
0.45472	1.73265
-0.18282	0.71234
-0.69285	0.91640
0.12320	-1.99148
0.40372	-1.22625
0.40372	-1.02219
-0.02981	1.06945
0.22521	-0.43551
0.32721	2.49788
0.02119	1.80917
0.12320	-1.25176
0.09770	1.47757
0.45472	1.88570
0.96476	-2.62918
0.22521	-2.01699
-0.59084	0.43176
0.22521	0.43176
-0.08081	0.45726
0.09770	1.06945
0.53123	2.75296
0.60773	-3.62398
0.27621	0.20219
-0.89686	-2.65468
-1.40690	-0.28246
-0.05531	2.44687
0.76074	3.00804
0.70974	0.63582
0.86275	-4.84835
0.27621	3.49268
-0.15732	0.12566
-0.43783	-0.94566
-0.10631	-0.23145
0.68424	2.24281
0.27621	0.78886
0.04670	-0.10391
0.12320	-0.97117
0.12320	-0.92016
0.09770	1.91120
0.07220	0.45726
0.12320	-0.89465
0.19971	-1.73640
0.27621	0.04914
-0.48884	0.58480
-0.74385	0.96742
0.22521	1.60511
0.91375	-0.51203
0.76074	-0.81812
0.09770	0.17668
-0.08081	-0.94566
0.07220	1.17148
0.17421	0.45726
1.01576	0.20219
-0.20832	0.66132
0.65874	1.80917
0.30171	0.10015
0.40372	-3.21585
0.25071	-1.35379
0.32721	1.83468
-0.33583	0.35523
0.12320	-1.58336
-1.04987	0.17668
-0.25932	2.16628
0.73524	1.29902
0.53123	1.12046
0.70974	1.35003
0.60773	1.12046
0.17421	-2.19554
-0.38683	-3.75152
-0.00431	-0.66508
0.19971	2.21730
-0.28482	1.12046
0.04670	0.04914
0.58223	0.35523
0.63323	0.55929
0.42922	0.45726
0.27621	-2.42511
-0.10631	2.01323
-0.38683	-4.56776
-0.02981	-0.23145
0.42922	2.08976
-0.43783	2.26831
0.02119	1.04394
0.73524	0.94191
0.53123	1.35003
0.42922	-0.97117
0.48022	-2.50164
0.53123	-3.11382
-0.02981	1.19699
-0.99887	1.65613
-0.89686	0.96742
-0.00431	0.68683
0.04670	0.25320
0.19971	0.30422
1.16877	-1.04770
1.21977	0.73785
0.83725	-0.07840
0.09770	0.35523
-0.48884	-3.19035
-0.08081	-1.04770
0.19971	0.40625
-0.41233	1.42656
-0.82036	1.73265
0.09770	1.50308
0.45472	1.09496
0.12320	1.98773
0.37822	-2.83324
0.73524	-2.11902
0.50573	-0.38449
0.32721	0.63582
-0.71835	1.27351
0.04670	-0.30797
-0.10631	0.35523
0.27621	2.19179
0.30171	-0.56305
0.50573	0.86539
0.27621	-1.30277
0.09770	0.78886
0.04670	1.55410
0.32721	-0.94566
0.22521	-1.58336
0.04670	0.78886
-0.38683	0.04914
-0.20832	-0.63957
0.30171	0.91640
0.22521	0.76336
0.30171	0.27871
0.17421	0.45726
0.25071	0.45726
0.27621	0.61031
0.42922	0.66132
-0.10631	-1.09871
-0.23382	-2.32308
-0.38683	0.76336
0.25071	2.19179
0.09770	-1.45582
0.14870	1.40105
0.12320	-0.74160
0.88825	3.11007
1.21977	-0.00188
0.27621	-2.80773
-0.59084	-1.48133
-0.02981	1.12046
0.12320	-0.15492
0.27621	1.29902
0.22521	0.78886
-0.18282	2.39585
-0.46334	2.75296
-0.13181	-2.24656
-0.13181	-4.54226
0.60773	-1.09871
0.63323	1.73265
0.50573	2.29382
-0.02981	2.75296
-1.22839	-2.29757
0.04670	-1.53234
0.17421	-0.46102
0.32721	-1.12422
0.70974	1.63062
0.86275	1.55410
0.45472	1.29902
0.42922	0.91640
0.32721	1.06945
0.19971	-1.68539
0.07220	-0.58856
-0.74385	0.35523
-0.46334	-1.43031
0.25071	-0.35899
0.32721	0.15117
0.48022	-0.66508
0.12320	0.45726
0.09770	0.55929
0.04670	1.47757
0.76074	0.96742
-0.18282	0.35523
-0.02981	-0.38449
-0.05531	1.73265
-0.13181	-0.69059
0.65874	-1.27726
0.50573	0.86539
0.60773	-0.12942
0.25071	-0.15492
-0.08081	1.14597
0.42922	0.66132
0.22521	-1.22625
-0.36133	0.76336
-0.23382	2.47238
-0.82036	-1.20074
0.30171	-1.83844
0.45472	-0.46102
0.12320	2.03874
0.40372	1.65613
0.45472	-1.68539
0.48022	0.17668
0.68424	-0.15492
0.58223	0.45726
-0.10631	3.08456
-0.48884	-3.31788
-1.04987	-0.41000
-0.69285	0.63582
0.37822	1.12046
0.73524	0.35523
0.14870	1.09496
0.76074	0.71234
0.48022	-0.35899
1.29628	-2.39961
-0.43783	-0.76711
0.04670	0.83988
0.07220	0.94191
0.04670	2.01323
0.02119	-0.48652
0.02119	-0.58856
0.12320	0.63582
0.35272	1.70714
0.27621	-1.17523
0.30171	-2.93527
0.50573	0.35523
-0.18282	1.50308
-0.69285	-0.35899
-0.92237	-1.48133
0.17421	0.30422
0.73524	1.35003
1.06676	2.77847
0.76074	0.66132
0.09770	-1.91496
0.40372	-0.02739
-0.20832	-0.20594
-0.71835	0.58480
-0.56534	1.01843
0.68424	1.24800
0.60773	-0.58856
0.32721	0.73785
0.19971	0.53379
0.32721	-2.19554
0.12320	0.10015
0.55673	0.94191
-0.46334	0.04914
-0.61635	0.17668
0.14870	-0.05289
0.37822	0.15117
0.17421	-0.71609
0.12320	-1.17523
0.37822	0.58480
0.63323	-0.61406
0.60773	2.34484
0.68424	1.42656
0.35272	1.65613
-0.71835	0.73785
-0.89686	0.20219
-0.00431	0.99292
0.45472	1.09496
0.09770	-2.45062
0.37822	-0.66508
0.42922	-0.89465
0.37822	-1.50683
0.09770	0.66132
0.32721	1.63062
-0.05531	-0.69059
0.27621	0.55929
0.30171	0.68683
-0.02981	3.95182
-0.51434	-3.44542
0.14870	-0.46102
0.25071	0.04914
0.73524	0.17668
0.65874	-0.86914
-0.10631	2.08976
-0.02981	1.55410
0.42922	1.17148
0.09770	0.66132
-0.13181	0.27871
0.37822	0.86539
0.25071	-0.46102
0.27621	-0.12942
-0.64185	-1.94047
-1.02437	-2.14453
-0.13181	-0.99668
0.02119	0.96742
0.93925	1.27351
1.14327	1.50308
0.76074	-1.83844
0.48022	0.68683
0.22521	-0.48652
-0.41233	0.43176
-0.10631	0.55929
-0.25932	-0.84363
0.09770	0.96742
0.45472	1.32453
-0.10631	0.15117
-0.05531	0.38074
0.63323	0.20219
0.73524	1.12046
0.09770	1.17148
-1.12638	-1.32828
-0.41233	-1.25176
0.42922	-1.14973
0.63323	0.53379
0.83725	-0.23145
0.48022	0.68683
-0.28482	-0.05289
-0.13181	1.17148
-0.08081	0.20219
0.78624	0.68683
0.40372	-0.76711
0.22521	0.45726
0.27621	1.88570
0.25071	-1.73640
0.12320	-2.78222
0.04670	-0.38449
-0.28482	1.52859
0.04670	-0.18043
0.12320	1.09496
-0.51434	0.94191
-0.18282	0.94191
0.22521	0.27871
0.45472	-0.58856
0.42922	0.17668
0.42922	1.01843
0.07220	-0.00188
0.19971	-0.92016
-0.02981	-2.57816
0.22521	0.68683
-0.00431	0.81437
0.22521	1.19699
0.09770	0.86539
0.27621	0.15117
-0.18282	2.21730
-0.41233	-2.90976
-0.05531	-2.52714
0.19971	-2.80773
0.48022	2.24281
0.68424	2.80397
0.78624	2.39585
0.30171	1.63062
0.04670	0.38074
-0.79486	0.73785
-1.35589	-0.43551
-0.15732	-0.89465
0.73524	-0.35899
1.19427	-0.56305
0.81175	-0.20594
0.12320	0.81437
-0.15732	0.86539
-0.05531	-2.62918
-0.10631	-2.29757
0.02119	-0.61406
0.42922	1.60511
0.32721	1.68163
0.14870	2.11527
0.07220	2.31933
-0.02981	-0.79262
-0.08081	-0.89465
0.17421	-0.63957
0.37822	0.12566
0.48022	-0.35899
0.19971	1.47757
0.12320	1.01843
0.02119	-2.19554
-0.13181	1.22250
0.40372	0.27871
0.32721	-0.33348
-0.15732	0.02363
-0.00431	-0.15492
0.09770	0.96742
-0.00431	-0.33348
0.07220	0.71234
0.48022	-0.25695
0.19971	-0.48652
0.37822	1.12046
0.96476	-0.84363
0.19971	1.19699
-0.13181	0.68683
-0.13181	-1.04770
-0.43783	0.27871
-0.08081	0.02363
0.50573	0.58480
0.60773	-0.15492
-0.05531	-0.28246
-1.12638	0.58480
-0.56534	1.75816
0.86275	2.08976
1.14327	-2.42511
0.53123	-1.35379
0.30171	-0.20594
-0.05531	-2.75671
-0.69285	1.98773
0.37822	1.88570
0.58223	1.17148
0.63323	1.40105
0.58223	1.68163
-0.08081	-1.04770
-0.13181	-1.88945
-0.10631	-0.33348
0.40372	0.48277
-0.05531	0.66132
-0.97337	1.24800
0.63323	-1.37929
0.19971	-0.51203
-0.18282	-0.51203
0.17421	0.20219
0.42922	0.50828
0.37822	1.65613
0.40372	1.60511
0.42922	-1.12422
0.60773	2.24281
0.14870	-3.98109
0.17421	-0.30797
0.17421	2.80397
0.17421	1.78367
-0.46334	-2.17003
-0.61635	-0.56305
0.30171	0.63582
-0.25932	0.50828
0.37822	0.89089
0.70974	1.17148
0.63323	1.19699
0.48022	-1.07320
0.30171	0.22769
0.02119	-1.14973
-0.00431	-0.71609
0.42922	-0.10391
0.30171	0.43176
-0.28482	1.06945
-0.23382	0.48277
-0.28482	0.10015
-0.31033	-0.33348
0.30171	-0.48652
0.42922	-0.61406
0.40372	1.06945
0.42922	0.68683
0.19971	-1.17523
0.35272	1.12046
0.22521	0.25320
0.32721	-0.25695
-0.02981	1.98773
-0.18282	-0.69059
-0.31033	0.40625
-0.31033	0.25320
-0.48884	0.50828
0.09770	-0.94566
0.73524	-1.58336
0.86275	0.66132
0.65874	-0.56305
0.73524	1.45206
0.07220	1.60511
-0.13181	-0.00188
-0.08081	0.66132
0.09770	-0.05289
-0.00431	-0.71609
0.02119	0.07465
0.07220	0.20219
0.25071	0.10015
0.09770	0.04914
0.02119	0.07465
-0.00431	0.71234
0.19971	-0.58856
0.19971	-0.15492
0.09770	-2.06800
0.09770	0.12566
0.14870	0.96742
0.55673	0.86539
0.45472	0.86539
0.12320	0.91640
-0.23382	0.66132
0.25071	0.15117
0.40372	0.12566
0.17421	0.20219
-0.46334	-0.10391
-0.41233	-0.71609
0.02119	0.48277
0.63323	0.48277
0.65874	-2.14453
0.60773	0.45726
0.60773	0.45726
0.27621	0.30422
-0.13181	0.86539
-0.05531	0.50828
-0.05531	1.01843
-0.08081	0.96742
0.02119	1.80917
0.12320	-0.94566
-0.13181	0.50828
0.17421	-4.79733
-0.02981	-0.46102
0.32721	0.89089
0.12320	1.06945
0.19971	2.49788
0.19971	1.93671
0.27621	0.89089
0.40372	0.02363
0.17421	-0.05289
0.63323	-0.99668
0.65874	-0.76711
0.48022	-0.28246
-1.35589	-0.56305
-2.22295	-0.56305
0.50573	1.19699
1.27078	0.22769
1.29628	-0.99668
0.91375	-1.40480
0.30171	-0.48652
0.30171	1.37554
-1.17738	0.96742
-0.31033	1.50308
0.48022	1.09496
0.30171	-0.92016
0.42922	-0.71609
0.22521	1.19699
0.07220	0.63582
0.12320	0.25320
-0.28482	0.38074
-0.00431	0.30422
0.40372	-1.91496
0.19971	0.71234
0.14870	0.48277
0.22521	-0.43551
0.17421	-1.88945
-0.05531	-0.41000
0.25071	1.27351
0.48022	1.06945
0.53123	1.78367
0.42922	0.66132
0.32721	-1.40480
0.07220	0.86539
-0.46334	-0.10391
0.04670	0.25320
0.25071	-1.68539
0.04670	0.94191
0.12320	-1.60887
-0.05531	-0.33348
0.19971	2.08976
0.22521	-0.10391
0.07220	1.68163
0.27621	0.20219
0.17421	1.24800
0.19971	-0.25695
0.40372	-0.66508
-0.02981	-1.35379
0.32721	-0.02739
0.27621	0.76336
0.30171	-0.41000
-0.82036	1.04394
0.12320	0.04914
0.99026	0.50828
0.63323	0.66132
-0.41233	-0.00188
-0.79486	-2.17003
0.04670	-0.25695
-0.05531	-0.71609
0.50573	0.99292
0.37822	1.40105
0.40372	1.50308
0.42922	2.44687
0.42922	-0.76711
0.27621	-0.48652
-0.02981	0.10015
-0.48884	-0.18043
-0.36133	-0.10391
-0.20832	-0.20594
0.09770	1.29902
0.45472	-0.94566
0.53123	-1.30277
0.40372	-0.23145
0.32721	1.37554
-0.23382	1.47757
-0.31033	-1.22625
0.42922	0.30422
0.30171	0.50828
0.58223	0.89089
0.32721	0.12566
-0.05531	0.32972
-0.41233	1.52859
0.27621	0.22769
0.17421	-0.97117
1.06676	-0.99668
-0.20832	-0.66508
-0.20832	0.63582
-1.02437	0.76336
-0.31033	1.70714
0.99026	-0.76711
0.83725	-0.79262
0.50573	-0.35899
0.45472	-0.61406
0.45472	0.45726
0.30171	0.86539
0.02119	0.94191
-0.23382	1.60511
-1.15188	2.14077
-0.20832	0.25320
0.37822	-5.71561
0.63323	-1.73640
0.68424	1.12046
0.37822	1.73265
-0.48884	1.93671
-0.23382	1.24800
0.30171	0.86539
0.76074	0.35523
0.35272	0.15117
0.09770	-0.56305
-0.23382	-0.81812
-0.05531	0.63582
0.35272	0.27871
0.45472	-2.19554
0.32721	-0.71609
-0.02981	0.78886
0.12320	0.15117
0.07220	1.01843
-0.08081	0.66132
-0.51434	1.96222
-0.08081	1.06945
0.27621	-2.06800
0.50573	-5.10343
0.55673	1.55410
0.07220	1.98773
0.53123	1.70714
0.35272	1.17148
-0.20832	1.04394
0.19971	0.27871
0.58223	-0.58856
0.09770	-0.20594
-0.59084	-0.02739
0.04670	-0.61406
0.32721	-0.71609
0.45472	0.81437
0.65874	0.68683
-0.76936	-2.09351
-0.69285	-2.29757
0.35272	-0.30797
0.68424	1.73265
0.73524	1.80917
0.60773	0.83988
0.42922	1.75816
0.09770	1.24800
-0.18282	-1.20074
-0.33583	0.04914
-0.76936	0.45726
0.07220	0.12566
0.48022	-0.28246
0.27621	-1.20074
0.32721	-0.35899
0.50573	0.68683
0.37822	0.25320
0.50573	0.58480
0.17421	1.24800
-0.56534	0.83988
0.02119	-1.43031
0.02119	-0.05289
-0.00431	-0.84363
0.19971	0.40625
0.60773	-1.14973
0.55673	1.75816
-0.23382	-0.84363
-0.20832	1.55410
0.22521	1.19699
0.37822	-0.18043
0.30171	1.57960
0.02119	-1.83844
0.09770	-2.85874
0.25071	0.50828
0.22521	1.35003
-0.02981	1.12046
0.09770	1.06945
0.17421	2.95702
0.04670	-1.65988
0.12320	-1.07320
0.27621	-2.52714
0.96476	1.29902
-0.08081	1.12046
-0.13181	0.78886
-0.05531	-1.35379
-0.33583	0.76336
0.42922	0.35523
0.09770	1.50308
-0.08081	-0.46102
0.25071	-0.23145
0.55673	0.55929
0.58223	-0.00188
0.37822	-0.46102
0.37822	-0.23145
-0.25932	1.14597
0.19971	-1.20074
0.02119	-0.43551
0.09770	-0.33348
-0.15732	1.42656
-0.38683	-0.00188
0.25071	1.98773
0.30171	0.20219
0.42922	0.30422
0.17421	-0.74160
-0.02981	-1.17523
-0.15732	-0.10391
-0.13181	1.17148
0.42922	1.01843
0.45472	1.06945
0.37822	1.45206
0.02119	-0.48652
0.09770	-4.10862
0.35272	0.10015
0.17421	0.96742
0.12320	1.96222
0.04670	0.20219
0.09770	-0.41000
-0.05531	-2.19554
0.32721	1.45206
0.48022	1.29902
0.53123	-0.97117
0.45472	0.45726
-0.15732	0.04914
-1.33039	0.48277
0.02119	-0.30797
0.48022	0.50828
0.76074	0.89089
0.73524	0.76336
0.37822	0.63582
0.27621	2.01323
0.12320	-1.55785
-0.08081	-0.23145
0.12320	-3.80253
-0.20832	-0.84363
-0.23382	-0.15492
0.37822	1.65613
0.50573	2.31933
0.22521	2.21730
-0.08081	-0.51203
-0.25932	0.48277
0.35272	-0.61406
0.48022	-0.07840
0.40372	0.35523
0.35272	0.20219
0.37822	0.10015
-0.41233	-0.20594
-0.92237	0.50828
0.37822	0.96742
0.55673	-0.48652
0.42922	-1.71090
0.27621	-2.60367
0.50573	0.86539
0.22521	1.88570
-0.15732	1.14597
0.17421	0.07465
0.14870	0.30422
0.19971	0.35523
-0.05531	-0.07840
-0.20832	0.55929
-0.18282	0.99292
0.40372	0.99292
0.83725	0.55929
0.48022	-0.10391
-0.53984	0.32972
0.40372	-0.51203
0.63323	-0.12942
0.76074	0.04914
1.06676	-0.51203
-0.31033	-0.10391
-1.55991	-0.86914
-1.07538	0.35523
0.60773	1.68163
0.53123	0.50828
0.60773	0.35523
0.37822	1.65613
0.27621	-4.00659
0.45472	0.27871
0.32721	-1.81293
0.12320	2.95702
-0.13181	2.19179
0.02119	2.06425
-0.15732	1.70714
-0.05531	-0.56305
0.12320	0.10015
0.19971	0.30422
0.09770	-0.02739
0.02119	-1.37929
0.22521	-0.43551
0.25071	-0.00188
0.68424	0.20219
-0.05531	-0.76711
0.02119	-3.26687
0.02119	0.71234
-0.18282	1.63062
0.63323	2.08976
1.06676	-0.30797
0.04670	0.07465
-0.38683	1.57960
-0.82036	0.66132
0.58223	-0.46102
0.65874	-0.20594
0.37822	0.43176
0.70974	0.27871
0.60773	0.22769
0.07220	-0.23145
-0.05531	0.15117
-0.36133	0.45726
-0.41233	0.43176
0.09770	-1.99148
0.35272	-0.94566
0.14870	0.50828
0.09770	0.55929
-0.38683	1.55410
-0.38683	1.45206
-0.05531	0.32972
0.14870	-2.19554
0.81175	-1.68539
0.76074	-1.48133
0.63323	3.56921
0.45472	1.68163
0.19971	0.96742
-0.51434	-1.99148
-0.05531	0.58480
0.14870	1.75816
0.30171	-0.23145
0.32721	0.73785
0.48022	0.32972
-0.10631	0.12566
-0.38683	-0.97117
-0.15732	1.68163
-0.25932	-2.04250
0.30171	-0.63957
0.81175	-0.81812
0.55673	1.04394
0.12320	-0.25695
0.35272	0.25320
0.27621	1.93671
-0.20832	-1.50683
-0.59084	-2.04250
-0.13181	1.57960
0.19971	2.06425
-0.05531	1.73265
0.27621	0.83988
0.70974	0.86539
0.65874	-2.04250
0.45472	-1.60887
-0.08081	0.66132
-0.02981	-0.15492
0.32721	1.37554
0.09770	0.25320
0.09770	0.40625
-0.08081	0.61031
-0.00431	0.50828
-0.20832	-0.76711
0.17421	-1.40480
0.25071	-0.00188
0.07220	0.12566
0.09770	-0.00188
0.35272	2.77847
0.12320	-0.48652
0.42922	-0.33348
0.07220	-1.88945
0.17421	0.40625
-0.23382	2.39585
-0.20832	0.86539
0.32721	-0.76711
0.48022	1.47757
0.42922	1.17148
0.27621	-2.52714
0.04670	-3.82804
0.37822	1.70714
0.19971	1.98773
-0.02981	2.08976
-0.13181	-1.12422
-0.23382	0.32972
0.14870	1.01843
0.17421	1.73265
0.19971	-1.94047
0.68424	-0.71609
0.22521	-0.15492
0.32721	0.66132
0.12320	-0.18043
0.07220	-0.25695
-0.00431	0.55929
-0.13181	0.35523
-0.28482	-0.12942
-0.36133	-0.74160
0.63323	-0.35899
-0.08081	0.81437
-0.08081	1.63062
0.76074	-1.02219
0.76074	0.55929
0.76074	-0.10391
-0.05531	1.27351
-0.13181	1.55410
-0.18282	1.17148
-0.05531	-1.78742
0.27621	-0.86914
0.22521	1.86019
0.09770	-1.02219
-0.18282	-1.27726
-0.15732	-0.05289
0.48022	1.24800
0.50573	0.35523
0.19971	0.43176
-0.79486	-2.62918
-0.08081	0.99292
0.17421	1.91120
0.17421	0.40625
0.53123	0.32972
0.58223	-0.92016
0.30171	-0.18043
-0.18282	1.78367
-0.28482	-0.05289
-0.08081	-0.46102
0.48022	-0.61406
0.45472	-2.32308
0.73524	0.50828
0.53123	1.57960
0.04670	1.57960
0.07220	1.29902
-0.05531	1.40105
-0.18282	-1.71090
-0.08081	0.17668
-0.25932	0.32972
-0.13181	-0.81812
0.48022	-0.94566
-0.69285	-0.48652
0.48022	0.86539
0.76074	-0.76711
0.55673	0.17668
0.27621	0.91640
0.35272	0.89089
-0.05531	0.07465
0.30171	1.55410
0.17421	-0.35899
0.32721	0.27871
0.35272	-0.35899
0.32721	-1.02219
-0.33583	0.15117
-0.53984	-0.15492
-0.10631	1.96222
-0.28482	2.11527
0.19971	-0.05289
0.35272	-1.12422
0.50573	0.58480
0.19971	-0.79262
0.22521	0.02363
0.25071	-0.23145
0.32721	-1.53234
-0.00431	1.04394
-0.31033	1.29902
0.42922	0.78886
0.30171	-0.66508
0.27621	0.71234
0.27621	0.83988
0.35272	-1.17523
-0.05531	-0.07840
0.04670	-0.33348
0.27621	0.76336
0.22521	0.35523
0.27621	0.73785
0.04670	0.55929
-1.22839	-0.38449
-0.20832	0.45726
0.55673	0.76336
0.50573	-0.35899
0.63323	-0.56305
0.32721	-0.02739
0.04670	-1.20074
0.35272	0.55929
0.19971	1.06945
-0.05531	0.38074
0.07220	0.20219
0.04670	0.27871
0.04670	0.43176
-0.08081	0.15117
0.14870	-0.20594
0.19971	-0.79262
0.25071	0.73785
0.04670	1.86019
0.12320	-0.35899
0.27621	0.12566
0.22521	-3.34339
0.09770	-1.04770
-0.20832	-0.30797
-0.00431	1.93671
0.48022	1.70714
0.30171	1.65613
0.25071	-0.05289
0.32721	-0.30797
0.27621	1.45206
0.32721	0.17668
0.07220	-0.33348
0.09770	-0.18043
-0.13181	0.53379
-0.23382	-0.48652
0.07220	-1.37929
0.32721	-1.02219
0.04670	-0.02739
0.09770	0.89089
0.04670	0.76336
0.02119	-0.48652
0.35272	-0.25695
0.63323	1.55410
0.58223	0.61031
0.30171	-0.33348
0.27621	1.09496
-0.38683	0.55929
-0.61635	-0.76711
-0.56534	-0.69059
0.58223	1.01843
0.83725	0.17668
0.86275	0.61031
0.45472	0.55929
0.27621	-0.15492
0.02119	-0.18043
0.07220	1.63062
-0.18282	-1.09871
-0.25932	-0.74160
-0.25932	-0.46102
-0.18282	0.04914
0.04670	-0.15492
0.30171	0.99292
0.48022	0.15117
0.50573	0.27871
0.37822	0.45726
0.32721	-0.99668
0.27621	0.38074
-0.13181	2.52339
-0.48884	-0.46102
0.30171	-1.53234
0.45472	0.53379
0.45472	0.73785
0.40372	1.70714
0.30171	0.55929
-0.02981	-0.61406
-0.18282	-0.66508
-0.31033	1.01843
0.09770	-1.45582
-0.28482	-0.53754
0.32721	-0.58856
0.68424	0.32972
0.35272	0.71234
0.35272	0.50828
0.30171	0.43176
0.37822	0.66132
0.04670	0.45726
-0.18282	0.86539
-0.05531	-0.38449
0.02119	-0.74160
0.35272	0.35523
0.32721	-1.94047
0.04670	-0.38449
0.14870	1.04394
-0.00431	1.35003
0.12320	0.73785
-0.00431	0.35523
-0.00431	0.58480
0.32721	1.32453
0.35272	2.16628
0.14870	-2.70570
0.07220	-2.60367
-0.18282	-0.53754
0.09770	1.17148
0.40372	2.21730
0.22521	-0.15492
0.60773	1.45206
0.37822	0.83988
0.04670	-0.05289
-0.66735	-1.91496
-0.02981	-0.15492
0.22521	0.61031
0.04670	0.76336
0.30171	0.48277
0.42922	0.43176
0.50573	0.12566
0.60773	-0.10391
0.25071	-0.92016
0.17421	0.17668
0.22521	0.53379
-0.00431	0.02363
-0.41233	0.94191
-0.15732	-0.35899
-0.23382	-0.30797
0.17421	0.43176
0.53123	-0.48652
0.27621	1.37554
0.09770	1.68163
-0.10631	-1.27726
0.19971	-2.14453
0.45472	-0.05289
0.32721	1.52859
0.22521	2.06425
0.02119	0.45726
-0.00431	-0.07840
0.19971	0.27871
0.25071	1.75816
0.04670	0.66132
0.19971	-2.17003
0.50573	-2.60367
-0.28482	-0.79262
-0.76936	1.24800
-0.51434	0.96742
0.70974	1.88570
0.81175	0.58480
0.68424	-0.86914
0.70974	-1.17523
0.45472	0.27871
0.37822	1.09496
-0.23382	0.48277
-0.84586	0.55929
-0.46334	-0.18043
0.17421	0.32972
0.50573	-0.20594
0.70974	-0.07840
-0.46334	0.04914
-0.69285	0.10015
0.07220	0.53379
0.63323	0.32972
0.73524	0.04914
0.50573	0.12566
0.55673	0.38074
-0.15732	0.20219
0.25071	0.20219
0.30171	0.68683
0.17421	0.27871
-0.23382	-1.25176
-0.48884	0.40625
-0.36133	0.78886
0.22521	0.83988
0.12320	-0.20594
0.25071	-1.35379
0.48022	-1.09871
0.50573	1.65613
0.27621	2.29382
0.25071	0.38074
0.30171	-2.29757
0.27621	0.66132
0.02119	0.04914
0.09770	1.68163
0.09770	2.16628
0.14870	-3.41992
0.04670	-1.07320
-0.33583	1.06945
-0.33583	-0.15492
0.17421	-0.20594
0.02119	0.86539
0.40372	1.96222
0.37822	-0.81812
0.42922	-0.15492
0.53123	0.99292
0.32721	1.63062
0.07220	1.22250
-0.41233	-3.01179
0.25071	-3.77702
0.09770	0.40625
-0.02981	1.65613
0.37822	1.55410
0.58223	1.01843
0.40372	-0.10391
-0.28482	0.43176
-0.02981	0.43176
0.22521	0.15117
-0.18282	-0.02739
0.19971	0.15117
0.32721	0.53379
0.12320	-1.12422
0.04670	-0.12942
0.35272	-0.07840
0.68424	0.30422
0.12320	1.06945
-0.41233	-0.58856
-1.10088	-0.56305
0.02119	0.35523
0.73524	0.35523
0.19971	1.65613
0.63323	0.73785
0.86275	-1.40480
0.53123	-0.46102
0.19971	1.04394
0.12320	-0.41000
0.07220	-1.78742
-0.41233	1.06945
-0.48884	1.68163
-0.46334	0.89089
-0.13181	0.17668
0.25071	0.30422
0.53123	0.78886
0.53123	0.12566
0.32721	0.30422
0.04670	-0.46102
0.22521	-1.20074
0.35272	-1.09871
0.12320	0.07465
-0.20832	0.68683
-0.23382	0.43176
0.12320	0.86539
0.40372	0.25320
0.48022	-1.09871
0.42922	-0.56305
0.40372	1.68163
0.12320	1.75816
0.14870	-1.17523
-0.20832	-0.07840
-0.48884	0.86539
-0.48884	1.68163
0.09770	-0.51203
0.73524	0.66132
0.68424	-0.30797
0.35272	0.43176
0.48022	-0.71609
0.32721	0.04914
-0.13181	0.55929
0.02119	-0.15492
0.12320	0.81437
-0.00431	-0.10391
0.02119	-0.76711
-0.41233	-0.63957
-0.43783	0.27871
0.37822	0.40625
0.53123	0.53379
0.22521	0.04914
0.48022	0.45726
0.40372	1.24800
0.45472	1.65613
0.22521	-1.50683
0.30171	-2.88425
-0.53984	0.55929
-0.46334	1.78367
0.02119	-0.61406
0.35272	1.50308
0.50573	0.76336
0.58223	1.24800
0.19971	0.30422
-0.15732	0.15117
0.32721	0.20219
0.14870	-0.15492
-0.20832	0.12566
0.40372	-0.30797
0.27621	-0.25695
-0.20832	-0.56305
-0.23382	-0.25695
0.63323	-0.58856
-0.36133	-0.56305
0.42922	0.94191
0.65874	0.94191
0.35272	0.48277
0.07220	0.17668
0.27621	-0.28246
0.35272	0.73785
0.19971	1.57960
0.27621	-0.02739
0.09770	-0.97117
0.02119	0.63582
-0.33583	1.04394
-0.48884	0.48277
-0.08081	-0.10391
0.25071	-0.46102
0.02119	0.38074
0.12320	-0.86914
0.50573	-0.00188
0.70974	0.35523
0.70974	0.15117
0.30171	0.78886
-0.15732	0.53379
-0.48884	-0.76711
0.14870	-0.92016
0.42922	1.70714
0.63323	0.81437
0.68424	-1.43031
-0.05531	-0.43551
-0.38683	0.63582
-0.08081	0.83988
0.07220	-1.07320
0.19971	-1.48133
0.40372	0.89089
0.22521	0.86539
0.17421	1.24800
0.07220	1.01843
-0.05531	0.30422
0.25071	0.15117
0.25071	0.20219
-0.00431	-0.99668
-0.41233	0.10015
0.32721	-0.30797
0.42922	-0.18043
0.53123	-0.00188
0.55673	0.63582
-0.18282	0.76336
-0.33583	-0.76711
-0.02981	-0.43551
0.22521	0.50828
0.50573	0.45726
0.65874	0.40625
0.22521	0.40625
-0.10631	0.45726
-0.00431	0.45726
-0.43783	0.45726
0.12320	-0.23145
0.58223	0.48277
0.48022	-2.19554
0.37822	-1.37929
-0.25932	1.04394
-0.15732	1.88570
0.30171	0.17668
0.30171	0.58480
0.30171	1.22250
0.02119	0.58480
-0.02981	-0.25695
-0.08081	0.48277
-0.00431	0.22769
0.09770	1.37554
0.35272	-0.63957
0.22521	-2.70570
0.12320	-2.34859
0.32721	0.89089
0.27621	1.06945
0.04670	1.96222
0.07220	0.30422
0.35272	0.27871
0.02119	0.30422
0.09770	1.27351
0.04670	0.12566
-0.02981	-1.58336
0.37822	0.66132
0.32721	-0.10391
0.30171	0.20219
0.14870	0.10015
-0.18282	0.55929
-0.10631	0.12566
0.32721	0.58480
-0.48884	-0.56305
0.17421	0.53379
0.48022	0.43176
0.12320	0.07465
0.02119	0.22769
0.40372	-0.00188
0.81175	0.38074
0.50573	0.17668
0.37822	0.17668
-0.18282	-0.12942
-0.51434	-0.92016
0.12320	0.81437
0.27621	1.14597
0.12320	-1.40480
0.22521	0.17668
-0.13181	0.45726
-0.13181	1.04394
0.04670	-0.15492
0.32721	-0.05289
0.30171	0.71234
0.40372	-0.00188
0.53123	-0.71609
0.12320	-0.28246
0.07220	0.99292
0.02119	0.94191
0.07220	-0.20594
0.14870	0.32972
-0.46334	0.25320
-0.92237	-0.33348
0.30171	0.22769
1.09226	-0.05289
0.53123	0.02363
0.53123	0.32972
0.73524	0.07465
0.14870	0.25320
-0.33583	0.35523
-0.23382	-0.58856
-0.08081	-0.58856
0.25071	-0.35899
0.04670	0.83988
0.02119	1.37554
0.12320	-0.74160
-0.02981	0.50828
0.17421	-0.81812
0.45472	1.06945
0.25071	1.01843
0.27621	0.55929
0.17421	-0.02739
-0.02981	0.32972
0.09770	-0.25695
0.35272	-0.99668
0.22521	-1.25176
0.19971	0.68683
0.27621	1.06945
0.02119	0.61031
0.09770	-0.18043
-0.08081	0.96742
0.02119	0.66132
0.32721	-0.15492
0.30171	0.25320
0.55673	-0.89465
0.40372	-1.17523
0.04670	0.53379
-1.15188	-0.48652
-0.74385	0.45726
0.30171	0.76336
0.73524	0.73785
0.96476	0.68683
0.60773	0.40625
0.30171	0.35523
0.27621	-0.02739
0.12320	-0.18043
0.14870	-0.25695
-0.18282	0.22769
-0.25932	0.07465
0.17421	-0.12942
-0.41233	0.61031
-0.23382	-0.30797
-0.20832	-0.46102
-0.33583	0.30422
0.50573	0.30422
0.83725	0.94191
0.93925	-0.00188
0.12320	-0.18043
0.25071	0.53379
0.32721	-0.02739
0.17421	0.81437
0.48022	-0.23145
0.14870	0.32972
-0.23382	0.96742
-1.20288	-0.66508
-0.56534	0.15117
0.63323	0.20219
0.88825	0.15117
0.73524	0.10015
0.37822	-0.38449
-0.23382	0.12566
0.09770	0.10015
-0.08081	0.35523
0.19971	-0.41000
0.17421	-0.48652
0.25071	0.55929
0.40372	0.99292
-0.18282	0.96742
-0.18282	-0.76711
-0.00431	-0.66508
0.40372	-0.30797
0.48022	0.20219
0.17421	0.81437
0.12320	0.32972
-0.13181	0.99292
-0.25932	1.98773
-0.23382	-0.53754
0.55673	-0.99668
0.60773	0.10015
-0.02981	0.76336
-0.08081	0.27871
0.30171	-0.30797
0.09770	0.10015
0.22521	-0.38449
-0.08081	1.14597
0.12320	-0.25695
0.55673	-1.07320
0.73524	0.30422
0.48022	0.32972
0.12320	0.55929
0.22521	-0.05289
-0.28482	0.61031
-0.38683	-0.10391
-0.38683	-0.35899
0.07220	-0.79262
0.19971	0.35523
0.32721	0.91640
0.22521	0.94191
0.22521	0.40625
0.19971	1.09496
-0.08081	-1.17523
0.02119	-0.97117
0.07220	-1.30277
0.45472	0.81437
0.50573	1.40105
0.25071	0.53379
0.27621	1.17148
0.12320	0.58480
-0.10631	-0.23145
-0.38683	-1.17523
0.40372	-0.30797
0.86275	0.20219
0.50573	1.57960
-0.28482	-0.18043
-0.51434	0.71234
0.02119	0.40625
0.40372	-1.22625
0.63323	-0.99668
0.12320	0.20219
-0.31033	0.25320
0.09770	0.58480
0.37822	0.71234
0.14870	0.81437
0.30171	0.25320
0.14870	0.35523
-0.08081	-0.20594
-0.08081	0.96742
-0.59084	-1.27726
0.53123	0.30422
0.68424	-0.92016
0.50573	1.27351
0.40372	0.61031
0.09770	-0.02739
-0.10631	0.20219
0.14870	-0.23145
0.09770	0.35523
0.14870	0.15117
0.14870	0.48277
0.12320	0.66132
0.19971	0.07465
0.27621	-0.66508
0.22521	-0.30797
-0.00431	0.58480
-0.64185	1.01843
-0.82036	0.38074
0.25071	0.63582
0.81175	-0.86914
0.88825	-0.07840
0.45472	0.73785
0.12320	0.02363
0.07220	-0.38449
0.19971	0.27871
-0.10631	-0.20594
-0.13181	0.22769
0.32721	1.22250
0.12320	0.40625
0.17421	-0.46102
0.48022	0.22769
0.40372	1.32453
0.14870	-0.41000
-0.15732	-0.07840
-0.28482	-1.43031
-0.41233	-0.97117
0.14870	0.48277
0.27621	1.04394
0.37822	0.94191
0.32721	0.73785
0.09770	0.58480
0.30171	0.17668
0.32721	0.91640
0.32721	-0.15492
-0.20832	-0.69059
-0.25932	-0.10391
0.32721	-0.20594
0.35272	0.27871
0.22521	-0.00188
0.09770	0.38074
0.04670	-1.09871
0.30171	0.48277
0.42922	-0.02739
0.42922	-0.18043
0.04670	0.35523
0.02119	0.81437
-0.13181	0.99292
0.09770	0.30422
0.22521	-0.18043
0.25071	0.48277
0.14870	0.27871
0.27621	0.02363
0.17421	-0.05289
0.02119	0.48277
-0.00431	0.25320
-0.18282	-0.56305
0.04670	-1.20074
0.45472	-0.18043
0.65874	0.48277
0.12320	1.01843
-0.15732	1.37554
0.07220	-0.38449
-0.28482	-0.48652
0.63323	-0.35899
-0.02981	2.24281
-0.10631	0.40625
0.55673	-0.81812
0.53123	-0.51203
0.32721	1.17148
0.37822	0.55929
0.19971	-0.66508
0.19971	-0.43551
-0.10631	0.35523
-0.13181	0.66132
0.09770	0.15117
0.19971	-1.40480
0.04670	0.58480
0.09770	0.76336
0.04670	0.27871
-0.10631	1.52859
0.45472	-2.52714
0.22521	0.83988
0.09770	-0.07840
0.17421	0.99292
-0.31033	0.25320
0.53123	-0.28246
0.55673	0.43176
0.45472	0.61031
0.02119	0.55929
-0.18282	-1.81293
-0.08081	0.27871
-0.15732	0.38074
0.32721	0.78886
0.55673	1.22250
0.55673	-0.12942
0.22521	-2.09351
-0.02981	0.12566
0.25071	0.10015
-0.28482	1.17148
-0.97337	0.32972
-0.15732	-0.15492
0.70974	-0.79262
0.63323	0.66132
0.40372	1.14597
0.17421	-0.35899
-0.33583	1.32453
-0.08081	-0.79262
0.70974	-1.60887
0.58223	0.55929
0.07220	0.94191
-0.08081	0.61031
0.25071	-0.00188
0.19971	0.20219
0.19971	0.15117
0.14870	0.61031
0.07220	-0.35899
0.07220	1.29902
0.04670	0.63582
-0.00431	-1.86394
-0.13181	-1.60887
0.12320	-1.27726
0.30171	1.63062
0.14870	1.47757
0.14870	0.99292
0.35272	0.68683
0.42922	0.86539
0.73524	0.07465
0.37822	0.38074
-0.36133	-0.28246
-1.86593	-0.25695
-0.31033	0.15117
1.01576	0.07465
0.63323	0.10015
0.81175	-0.07840
0.58223	0.15117
0.53123	-0.20594
0.42922	0.66132
-0.15732	0.15117
-0.00431	-0.07840
-0.20832	-0.94566
-0.18282	1.24800
-0.15732	0.35523
0.22521	-0.12942
