0.19971	0.32972
0.07220	0.25320
-0.05531	-0.28246
0.17421	0.04914
0.37822	0.04914
0.30171	0.32972
0.09770	0.02363
0.07220	-0.30797
-0.08081	0.25320
0.32721	0.48277
0.12320	0.81437
0.32721	0.32972
-0.28482	-0.25695
0.02119	-0.30797
0.48022	0.04914
0.25071	0.32972
0.27621	0.27871
-0.00431	-0.23145
0.09770	-0.00188
-0.00431	0.30422
0.14870	0.61031
0.12320	0.32972
-0.08081	-0.15492
0.17421	0.15117
0.42922	-0.00188
0.22521	0.32972
0.22521	0.10015
-0.05531	-0.20594
0.12320	0.27871
0.37822	0.35523
-0.00431	0.63582
0.07220	0.20219
-0.02981	-0.28246
0.07220	-0.02739
0.37822	0.02363
0.19971	0.32972
0.22521	0.20219
-0.00431	-0.10391
0.07220	0.07465
0.30171	0.25320
0.04670	0.53379
0.09770	0.10015
0.12320	-0.33348
0.14870	-0.05289
0.42922	0.04914
0.07220	0.48277
0.19971	0.38074
-0.00431	-0.20594
0.09770	-0.00188
0.22521	0.35523
0.14870	0.68683
0.04670	0.15117
-0.05531	-0.35899
0.12320	-0.18043
0.40372	0.15117
0.22521	0.73785
0.12320	0.58480
0.02119	-0.25695
0.07220	-0.20594
0.32721	-0.02739
0.25071	0.58480
-0.02981	0.43176
0.02119	-0.43551
0.12320	-0.10391
0.35272	-0.20594
0.27621	0.43176
0.17421	0.55929
-0.00431	-0.15492
0.02119	0.15117
0.30171	0.45726
0.14870	0.55929
0.07220	0.10015
0.02119	-0.35899
0.07220	0.04914
0.42922	0.22769
0.17421	0.20219
0.04670	0.27871
0.12320	-0.25695
0.12320	0.22769
0.27621	0.27871
0.17421	0.30422
0.04670	0.27871
-0.15732	-0.30797
0.63323	0.04914
0.22521	-0.00188
0.14870	0.40625
0.17421	0.30422
0.14870	-0.23145
-0.20832	0.22769
0.30171	0.45726
0.19971	0.61031
0.12320	0.04914
-0.02981	-0.46102
0.12320	-0.20594
0.35272	-0.07840
0.60773	0.45726
0.07220	0.73785
-0.13181	0.30422
-0.00431	0.12566
0.25071	0.27871
0.14870	0.25320
0.12320	-0.02739
-0.13181	-0.51203
0.32721	-0.05289
0.32721	-0.05289
0.27621	0.15117
0.07220	0.35523
-0.02981	0.04914
0.14870	0.22769
0.25071	0.40625
0.19971	0.45726
0.07220	0.22769
0.07220	-0.25695
0.12320	0.17668
0.35272	0.10015
0.19971	0.35523
0.19971	0.22769
-0.02981	-0.41000
-0.00431	-0.20594
0.37822	0.25320
0.09770	0.55929
0.22521	0.55929
-0.13181	-0.28246
0.27621	0.04914
0.32721	-0.05289
0.42922	0.45726
0.02119	0.22769
-0.10631	-0.25695
0.12320	0.04914
0.30171	0.27871
0.27621	0.45726
0.07220	0.15117
-0.02981	-0.30797
0.09770	0.07465
0.35272	0.10015
0.30171	0.45726
0.14870	0.25320
-0.13181	-0.25695
-0.00431	0.17668
0.30171	0.30422
0.32721	0.50828
0.02119	0.07465
-0.00431	-0.41000
0.17421	0.30422
0.42922	0.35523
0.27621	0.55929
0.09770	-0.00188
-0.00431	-0.53754
0.02119	-0.02739
0.27621	0.30422
0.17421	0.32972
0.09770	-0.05289
-0.05531	-0.33348
0.17421	0.61031
0.40372	0.45726
0.17421	0.25320
0.25071	-0.20594
-0.10631	-0.38449
0.12320	0.20219
0.22521	0.48277
0.30171	0.61031
0.07220	0.32972
0.02119	-0.10391
0.02119	-0.12942
0.48022	-0.07840
0.30171	0.04914
0.09770	0.32972
-0.28482	-0.18043
0.25071	0.15117
0.48022	0.30422
0.19971	0.55929
0.07220	0.40625
0.04670	-0.30797
0.19971	-0.15492
0.35272	0.04914
-0.00431	0.22769
0.19971	0.25320
0.17421	-0.05289
0.04670	0.15117
0.30171	0.32972
0.45472	0.35523
0.07220	0.15117
-0.13181	-0.23145
0.09770	0.02363
0.35272	0.07465
0.17421	0.35523
0.09770	0.27871
0.09770	-0.25695
-0.00431	-0.00188
0.32721	0.45726
0.19971	0.76336
0.07220	0.20219
-0.00431	-0.53754
0.14870	-0.05289
0.73524	0.17668
-0.00431	0.12566
0.19971	0.22769
-0.02981	-0.33348
0.12320	-0.00188
0.37822	0.35523
0.22521	0.86539
0.12320	0.25320
-0.08081	-0.43551
0.17421	-0.35899
0.37822	0.10015
0.09770	0.12566
0.25071	0.45726
0.04670	0.25320
0.04670	0.25320
0.35272	0.30422
0.09770	0.61031
0.22521	0.07465
-0.08081	-0.43551
0.14870	-0.18043
0.32721	0.15117
0.25071	0.32972
0.22521	0.35523
-0.08081	-0.23145
0.09770	0.07465
0.35272	0.15117
0.35272	0.55929
0.17421	0.15117
-0.18282	-0.18043
0.17421	-0.05289
0.32721	0.12566
0.32721	0.30422
0.17421	0.22769
-0.10631	-0.15492
0.45472	0.12566
0.27621	0.32972
-0.05531	0.43176
0.22521	0.38074
-0.43783	-0.28246
0.32721	-0.18043
0.42922	-0.25695
0.37822	0.32972
0.14870	0.50828
0.45472	0.30422
-0.38683	-0.12942
0.30171	-0.15492
0.22521	0.22769
0.12320	0.45726
0.12320	-0.10391
0.04670	-0.18043
0.40372	-0.02739
0.22521	0.10015
0.30171	0.32972
0.02119	0.02363
-0.02981	0.02363
0.32721	0.27871
0.07220	0.45726
0.04670	0.48277
-0.02981	-0.20594
0.19971	-0.20594
0.50573	0.04914
-0.00431	0.43176
0.27621	0.20219
0.07220	-0.15492
0.07220	0.10015
0.32721	0.22769
0.14870	0.43176
0.12320	0.10015
0.17421	-0.20594
0.35272	-0.10391
0.25071	0.02363
0.09770	0.20219
0.22521	0.35523
-0.05531	-0.02739
0.27621	0.07465
0.04670	0.20219
0.04670	0.32972
-0.00431	0.43176
-0.08081	-0.28246
0.07220	0.04914
0.53123	-0.02739
0.37822	0.10015
0.22521	0.20219
-0.00431	-0.10391
0.22521	0.22769
0.25071	0.35523
0.12320	0.83988
0.07220	0.25320
-0.02981	-0.28246
0.22521	-0.25695
0.30171	0.04914
0.19971	0.04914
0.19971	0.04914
0.07220	-0.18043
0.02119	0.12566
0.19971	0.25320
0.07220	0.15117
0.12320	0.58480
-0.02981	-0.05289
0.19971	0.10015
0.37822	-0.20594
0.25071	0.02363
0.27621	0.27871
-0.00431	-0.05289
0.17421	0.17668
0.07220	0.50828
0.22521	0.66132
-0.00431	0.15117
0.32721	-0.07840
0.07220	-0.05289
0.32721	-0.05289
0.30171	0.02363
0.30171	0.10015
0.17421	-0.15492
-0.31033	0.07465
0.40372	0.32972
0.12320	0.45726
0.25071	0.15117
-0.00431	-0.25695
0.12320	0.12566
0.32721	0.25320
0.14870	0.20219
0.40372	0.12566
-0.10631	-0.07840
-0.56534	0.07465
0.17421	0.35523
0.27621	0.58480
0.22521	0.12566
0.07220	-0.28246
0.22521	0.02363
0.32721	0.07465
0.37822	0.40625
0.22521	0.12566
0.09770	-0.51203
0.07220	-0.20594
0.17421	0.27871
0.22521	0.68683
0.02119	0.40625
0.04670	-0.05289
0.07220	0.15117
0.40372	-0.05289
0.27621	0.30422
0.17421	0.15117
0.12320	-0.15492
0.02119	-0.12942
0.17421	0.32972
0.14870	0.48277
-0.00431	0.30422
0.04670	-0.00188
0.12320	-0.02739
0.37822	-0.20594
0.42922	0.25320
0.19971	0.25320
-0.10631	-0.18043
0.14870	-0.05289
0.27621	0.17668
0.14870	0.53379
-0.00431	0.30422
-0.00431	-0.23145
0.58223	-0.02739
-0.00431	0.04914
0.40372	0.32972
0.32721	0.30422
0.07220	-0.10391
-0.02981	0.25320
0.19971	0.32972
0.07220	0.35523
-0.18282	0.02363
0.68424	-0.12942
-0.33583	-0.05289
0.09770	0.07465
0.02119	0.10015
0.32721	0.38074
0.60773	0.10015
0.07220	0.22769
0.14870	0.45726
0.25071	0.17668
0.17421	-0.15492
-0.08081	-0.38449
0.09770	0.04914
0.19971	0.15117
0.19971	0.35523
0.14870	-0.02739
0.07220	0.12566
-0.00431	0.27871
0.19971	0.53379
0.22521	0.35523
0.07220	0.07465
0.07220	-0.23145
0.09770	-0.10391
0.45472	0.02363
-0.02981	0.02363
0.04670	-0.00188
0.22521	0.20219
0.12320	0.15117
0.35272	0.38074
0.09770	0.43176
0.12320	0.45726
0.02119	-0.15492
0.27621	-0.02739
0.37822	-0.18043
0.30171	0.17668
-0.00431	0.20219
0.02119	0.10015
0.22521	0.04914
-0.08081	0.35523
0.17421	0.25320
0.17421	0.04914
-0.00431	-0.35899
0.22521	0.12566
0.22521	0.07465
0.22521	0.20219
0.27621	0.45726
0.09770	0.15117
0.07220	0.25320
0.27621	-0.18043
0.25071	0.55929
0.04670	0.22769
-0.00431	-0.28246
0.12320	-0.25695
0.40372	-0.28246
0.22521	0.30422
0.17421	0.55929
0.12320	0.15117
-0.02981	0.02363
0.09770	0.07465
0.12320	0.22769
0.22521	0.04914
0.07220	-0.07840
0.19971	0.10015
0.37822	0.15117
0.19971	-0.02739
0.14870	0.15117
-0.02981	0.04914
0.04670	0.25320
0.17421	0.30422
0.14870	0.35523
0.09770	0.35523
0.19971	-0.05289
0.04670	-0.25695
0.32721	0.17668
0.30171	0.25320
0.22521	0.30422
0.09770	0.07465
0.32721	-0.02739
0.02119	0.25320
0.40372	0.40625
-0.31033	0.25320
0.02119	-0.20594
0.30171	-0.18043
0.32721	0.10015
0.14870	0.30422
0.22521	0.20219
-0.28482	0.04914
0.12320	0.17668
0.88825	0.25320
0.35272	0.25320
-0.97337	0.15117
0.14870	-0.41000
0.32721	0.20219
0.53123	0.30422
0.42922	0.04914
0.27621	0.02363
0.17421	0.15117
0.04670	0.32972
0.12320	0.38074
0.12320	0.30422
0.02119	0.07465
0.04670	-0.18043
0.04670	-0.28246
0.32721	0.07465
0.09770	0.38074
0.17421	0.35523
0.09770	-0.07840
-0.02981	0.04914
0.19971	0.50828
0.12320	0.32972
0.22521	-0.02739
0.09770	-0.25695
0.17421	0.04914
0.22521	-0.02739
0.25071	0.17668
0.30171	0.20219
0.02119	0.20219
0.02119	0.10015
0.22521	0.50828
0.14870	0.45726
0.12320	0.27871
0.02119	-0.10391
0.17421	-0.23145
0.32721	0.04914
0.17421	-0.07840
-0.08081	0.10015
0.19971	0.10015
0.22521	0.15117
-0.08081	0.40625
0.09770	0.32972
0.22521	0.38074
0.02119	-0.15492
0.27621	-0.12942
0.35272	-0.15492
0.63323	0.17668
-0.28482	0.38074
-0.05531	0.22769
0.04670	0.00000
0.12320	0.00000
0.42922	-0.07840
0.12320	0.10015
0.12320	0.78886
0.14870	0.58480
0.27621	0.04914
0.27621	-0.41000
0.17421	-0.02739
0.07220	0.15117
-0.02981	0.27871
0.19971	0.07465
0.17421	-0.15492
0.17421	0.32972
-0.05531	0.30422
0.14870	0.15117
0.25071	0.04914
0.27621	-0.10391
0.27621	-0.00188
-0.00431	0.12566
0.12320	0.43176
0.04670	0.15117
0.22521	0.10015
0.17421	0.07465
-0.05531	0.45726
0.19971	0.43176
0.27621	0.04914
0.22521	-0.10391
0.14870	-0.02739
0.14870	0.17668
0.02119	0.12566
0.19971	0.02363
0.40372	-0.02739
0.07220	0.15117
-0.00431	0.40625
0.09770	0.20219
-0.36133	-0.02739
1.04126	-0.15492
0.12320	-0.07840
-0.59084	0.20219
0.22521	0.22769
0.22521	0.20219
0.50573	0.38074
-0.20832	0.12566
0.02119	0.15117
0.14870	0.10015
0.25071	-0.00188
0.40372	-0.02739
0.30171	0.25320
0.12320	0.25320
0.12320	0.25320
0.14870	0.10015
0.27621	-0.05289
0.07220	0.35523
0.07220	0.81437
-0.02981	0.30422
0.27621	-0.33348
0.19971	-0.48652
0.37822	-0.05289
0.09770	-0.12942
-0.05531	0.53379
-0.08081	0.25320
0.22521	0.27871
0.04670	0.20219
0.02119	0.30422
0.09770	0.15117
0.32721	0.25320
0.91375	-0.15492
-0.10631	0.02363
0.04670	0.02363
0.25071	0.35523
0.07220	0.02363
0.30171	0.17668
0.09770	0.17668
-0.18282	0.43176
-0.05531	0.04914
0.27621	0.07465
0.32721	-0.15492
0.07220	0.04914
0.45472	0.12566
-0.02981	0.45726
0.12320	-0.05289
0.30171	0.02363
-0.02981	0.17668
0.19971	0.35523
0.14870	0.38074
0.04670	0.10015
-0.05531	-0.07840
-0.84586	-0.15492
0.22521	0.12566
0.17421	-0.02739
0.35272	0.20219
0.27621	0.20219
0.22521	0.53379
0.09770	0.32972
0.22521	0.30422
0.14870	-0.18043
0.19971	-0.38449
0.12320	0.02363
0.02119	0.27871
0.09770	0.32972
-0.02981	0.20219
0.12320	-0.05289
0.22521	0.25320
0.02119	0.12566
0.17421	0.22769
0.12320	-0.15492
0.37822	0.04914
0.22521	0.22769
0.12320	0.32972
0.12320	0.45726
-0.05531	0.35523
0.09770	-0.20594
0.02119	-0.28246
0.42922	0.27871
-0.31033	0.45726
0.12320	0.10015
0.32721	-0.02739
0.32721	-0.10391
0.04670	0.15117
-0.02981	0.04914
-0.00431	0.32972
0.35272	0.38074
0.42922	0.45726
0.04670	0.30422
-0.18282	0.12566
0.12320	-0.07840
0.30171	-0.38449
0.14870	-0.12942
0.22521	0.22769
0.25071	0.35523
0.17421	0.30422
0.22521	-0.02739
0.09770	0.32972
-0.08081	0.10015
0.12320	0.50828
0.12320	0.38074
0.32721	-0.05289
0.14870	-0.43551
0.22521	-0.12942
-0.02981	0.40625
0.09770	0.38074
0.27621	0.22769
0.12320	0.20219
0.02119	0.27871
0.02119	0.45726
0.12320	0.17668
0.35272	-0.28246
0.07220	-0.05289
0.19971	-0.00188
0.37822	0.15117
-0.20832	0.22769
0.27621	0.07465
0.09770	0.25320
0.35272	0.61031
0.14870	0.35523
0.04670	-0.10391
0.25071	-0.20594
0.27621	-0.10391
0.32721	-0.05289
-0.08081	0.32972
0.40372	0.61031
0.09770	0.12566
0.12320	0.22769
0.07220	0.22769
0.32721	0.48277
0.12320	0.04914
0.58223	-0.25695
-0.02981	-0.02739
0.09770	0.04914
-0.08081	0.40625
0.50573	0.27871
0.04670	0.02363
0.37822	0.22769
-0.25932	0.15117
-0.05531	0.15117
0.19971	0.32972
0.48022	0.04914
0.12320	0.12566
0.17421	-0.00188
0.35272	0.40625
0.02119	0.25320
0.37822	0.27871
0.02119	0.07465
0.09770	0.20219
-0.10631	0.35523
0.32721	0.15117
0.27621	-0.05289
0.19971	0.02363
0.14870	0.20219
0.02119	0.25320
-0.00431	0.22769
0.25071	-0.25695
0.25071	0.10015
0.17421	0.45726
0.12320	0.30422
0.25071	0.35523
0.22521	-0.15492
0.17421	-0.02739
0.25071	-0.02739
-0.20832	0.35523
-0.05531	0.45726
0.19971	-0.00188
0.22521	0.30422
0.30171	0.32972
0.22521	0.32972
0.09770	0.17668
0.37822	-0.18043
0.30171	-0.12942
0.19971	0.20219
-0.33583	0.30422
-0.02981	0.40625
0.22521	-0.05289
0.35272	0.20219
0.48022	0.32972
0.35272	0.32972
0.17421	0.07465
0.83725	-0.35899
-0.08081	-0.15492
0.12320	0.32972
-0.05531	0.53379
0.14870	0.10015
0.19971	-0.38449
0.09770	0.35523
0.02119	0.32972
0.02119	0.61031
0.22521	0.25320
0.19971	-0.25695
0.09770	0.07465
0.17421	0.02363
0.19971	0.30422
0.04670	0.20219
0.19971	0.07465
0.17421	0.15117
0.04670	0.20219
0.07220	0.45726
0.17421	0.04914
0.25071	-0.38449
0.19971	-0.12942
0.25071	0.27871
-0.02981	0.45726
0.02119	0.45726
0.40372	0.07465
0.09770	0.12566
0.14870	0.40625
-0.02981	0.38074
0.07220	0.22769
0.32721	-0.25695
0.12320	-0.10391
0.17421	0.12566
-0.23382	0.53379
-0.20832	0.25320
0.35272	-0.12942
0.40372	0.15117
-0.23382	0.45726
-0.13181	0.55929
0.22521	0.12566
0.27621	-0.20594
0.42922	-0.10391
0.27621	-0.18043
0.02119	0.32972
-0.28482	0.17668
0.19971	0.27871
0.19971	0.53379
0.32721	0.25320
-0.02981	0.32972
0.14870	-0.00188
0.32721	-0.15492
0.14870	-0.12942
0.22521	-0.20594
0.04670	0.40625
0.02119	0.63582
0.30171	0.17668
0.09770	0.20219
0.12320	0.15117
0.04670	0.38074
0.17421	0.12566
0.32721	-0.23145
0.14870	0.15117
0.19971	-0.12942
-0.13181	0.38074
0.09770	0.45726
0.19971	-0.07840
0.12320	0.40625
-0.02981	0.30422
0.22521	0.55929
0.48022	0.22769
-0.08081	-0.20594
0.07220	-0.33348
0.04670	-0.00188
0.07220	0.45726
0.22521	0.45726
0.86275	-0.15492
-0.69285	0.07465
-0.10631	0.22769
0.02119	0.58480
0.09770	0.27871
0.70974	-0.18043
0.48022	0.04914
0.22521	0.02363
0.02119	0.20219
-0.25932	0.20219
0.35272	-0.00188
0.12320	0.20219
0.19971	0.30422
-0.02981	0.30422
0.14870	0.50828
0.19971	0.07465
0.30171	0.17668
0.12320	-0.23145
-0.02981	0.15117
-0.02981	0.61031
0.27621	-0.12942
0.14870	0.07465
0.27621	0.22769
-0.43783	0.25320
0.12320	0.25320
0.37822	-0.07840
0.22521	-0.15492
0.19971	-0.05289
-0.00431	0.50828
-0.00431	0.63582
0.25071	-0.05289
0.17421	0.10015
0.04670	0.32972
0.12320	0.48277
0.09770	0.32972
0.27621	-0.23145
0.19971	0.04914
0.12320	-0.00188
0.02119	0.35523
-0.05531	0.12566
0.45472	-0.05289
0.07220	0.32972
-0.05531	0.10015
0.32721	0.30422
-0.02981	0.15117
0.55673	-0.02739
0.55673	0.07465
-0.74385	0.12566
-0.02981	0.53379
0.02119	0.43176
0.48022	0.02363
0.45472	0.02363
0.17421	0.30422
-0.10631	0.48277
0.17421	0.17668
0.17421	-0.30797
0.32721	0.04914
0.68424	-0.05289
-0.23382	0.48277
-0.13181	0.38074
0.35272	0.15117
0.12320	-0.07840
0.04670	0.45726
0.04670	0.45726
0.14870	0.27871
0.32721	-0.58856
0.19971	-0.30797
0.07220	-0.15492
-0.00431	0.45726
-0.10631	0.61031
0.32721	0.20219
0.04670	0.35523
0.22521	0.48277
0.07220	0.43176
0.19971	0.04914
0.32721	-0.12942
0.19971	-0.12942
0.12320	0.07465
-0.18282	0.50828
-0.05531	0.58480
0.32721	0.17668
0.04670	0.20219
0.45472	0.10015
0.04670	0.27871
0.17421	-0.02739
0.14870	-0.28246
0.25071	-0.02739
0.12320	-0.05289
-0.02981	0.53379
-0.15732	0.45726
0.37822	-0.02739
-0.10631	0.22769
-0.51434	0.32972
0.30171	0.55929
-0.10631	0.17668
0.37822	-0.43551
0.40372	0.07465
0.14870	-0.12942
-0.08081	0.58480
0.12320	0.50828
0.14870	-0.02739
0.19971	-0.05289
0.09770	0.17668
0.12320	0.63582
0.09770	-0.00188
0.37822	0.17668
0.19971	0.15117
0.12320	-0.07840
0.04670	0.17668
-0.10631	0.10015
0.37822	-0.07840
0.07220	0.43176
0.04670	0.53379
0.04670	0.45726
0.09770	0.04914
0.32721	-0.35899
0.14870	0.02363
0.22521	0.22769
-0.08081	0.55929
-0.00431	0.32972
0.35272	-0.43551
0.19971	0.35523
-0.08081	0.40625
-0.05531	0.55929
0.19971	0.38074
0.37822	-0.20594
0.30171	0.12566
-0.05531	-0.15492
-0.00431	0.22769
-0.02981	0.27871
0.48022	-0.28246
0.19971	0.25320
0.17421	0.45726
-0.38683	0.45726
0.07220	0.22769
0.22521	-0.35899
0.70974	-0.02739
0.12320	-0.10391
-0.18282	0.68683
0.27621	0.35523
-0.41233	-0.07840
0.19971	0.25320
-0.00431	0.20219
0.09770	0.40625
0.14870	0.22769
0.70974	-0.25695
0.12320	-0.00188
0.19971	-0.02739
-0.08081	0.30422
0.02119	0.53379
0.17421	-0.00188
0.22521	0.40625
0.02119	0.38074
0.04670	0.35523
0.02119	0.04914
0.35272	-0.28246
0.17421	0.04914
0.09770	0.15117
-0.02981	0.38074
0.02119	0.25320
0.25071	-0.25695
0.19971	0.17668
0.07220	0.32972
-0.00431	0.68683
0.12320	0.20219
0.37822	-0.23145
0.25071	0.04914
0.14870	0.07465
-0.08081	0.25320
-0.15732	0.20219
0.42922	-0.15492
0.17421	0.20219
0.14870	0.43176
0.32721	0.55929
-0.23382	0.35523
0.32721	-0.35899
0.27621	-0.10391
0.27621	-0.00188
-0.00431	0.35523
0.14870	0.45726
0.19971	-0.20594
0.37822	0.25320
-0.15732	0.20219
-0.05531	0.66132
0.09770	0.25320
0.48022	-0.20594
0.78624	0.10015
-0.31033	0.04914
-0.13181	0.32972
-0.02981	0.10015
0.35272	-0.15492
0.14870	0.04914
0.02119	0.32972
0.12320	0.63582
0.07220	0.63582
0.48022	0.04914
0.07220	-0.12942
0.17421	-0.02739
-0.10631	0.12566
-0.02981	0.27871
0.30171	-0.00188
0.22521	0.04914
0.09770	0.25320
-0.10631	0.63582
0.17421	0.25320
0.35272	-0.51203
0.27621	-0.07840
0.17421	-0.02739
0.02119	0.50828
-0.15732	0.58480
0.12320	-0.07840
0.25071	0.10015
0.04670	0.25320
0.22521	0.71234
0.07220	0.25320
0.27621	-0.35899
0.32721	-0.12942
1.11776	-0.02739
-0.36133	0.35523
-1.40690	0.48277
0.42922	-0.20594
-0.00431	0.10015
0.25071	0.43176
0.70974	0.48277
0.40372	0.43176
0.45472	-0.30797
0.27621	-0.05289
0.17421	-0.15492
-0.10631	0.02363
-0.02981	0.50828
0.37822	0.20219
-0.28482	0.22769
0.12320	0.25320
0.02119	0.35523
-0.05531	0.10015
0.45472	0.04914
0.32721	0.25320
0.32721	0.22769
-0.23382	0.12566
-0.13181	0.15117
0.32721	-0.25695
0.09770	-0.10391
0.17421	0.10015
0.04670	0.38074
0.09770	0.43176
0.48022	-0.05289
0.19971	0.04914
0.17421	0.20219
-0.05531	0.40625
-0.02981	0.32972
0.27621	-0.05289
0.22521	0.30422
0.04670	0.32972
0.07220	0.71234
0.37822	0.35523
0.32721	-0.43551
0.17421	0.04914
0.12320	0.02363
-0.15732	0.20219
0.14870	0.30422
-0.18282	-0.28246
0.53123	0.22769
-0.13181	0.40625
0.12320	0.22769
0.22521	0.30422
0.42922	-0.25695
0.12320	0.04914
0.53123	0.17668
-0.10631	0.38074
-0.48884	0.53379
0.19971	0.04914
0.32721	0.02363
0.25071	0.25320
0.22521	0.40625
0.17421	0.17668
0.40372	-0.46102
0.22521	0.07465
0.22521	0.04914
-0.05531	0.40625
-0.00431	0.35523
0.19971	-0.05289
0.22521	0.30422
0.02119	0.43176
0.02119	0.22769
-0.00431	0.12566
0.37822	-0.33348
0.22521	0.10015
0.19971	-0.10391
-0.02981	0.48277
0.02119	0.30422
0.35272	-0.15492
0.12320	0.12566
0.07220	0.15117
0.02119	0.58480
-0.02981	0.45726
0.42922	-0.18043
0.14870	-0.25695
0.27621	0.10015
0.04670	0.38074
0.04670	0.32972
0.30171	-0.18043
0.07220	0.25320
0.12320	0.38074
0.27621	0.48277
-0.10631	-0.02739
0.17421	-0.41000
0.42922	0.20219
0.40372	0.20219
-0.02981	0.45726
0.02119	0.25320
-0.15732	-0.28246
0.88825	0.04914
-0.38683	0.25320
0.04670	0.61031
0.12320	0.25320
0.22521	-0.25695
0.17421	-0.00188
0.30171	-0.23145
0.02119	0.30422
0.12320	0.61031
0.32721	-0.10391
0.22521	0.04914
0.02119	0.58480
0.02119	0.81437
0.04670	0.27871
0.45472	-0.30797
0.14870	-0.33348
0.12320	-0.10391
-0.02981	0.30422
-0.02981	0.25320
0.27621	-0.05289
0.27621	0.20219
0.02119	0.35523
-0.08081	0.50828
0.14870	0.32972
0.53123	-0.23145
0.14870	-0.05289
0.25071	-0.10391
-0.10631	0.43176
0.09770	0.43176
0.32721	-0.05289
0.22521	-0.02739
0.07220	0.38074
-0.28482	0.50828
0.32721	0.20219
0.40372	-0.48652
0.17421	-0.12942
0.32721	0.12566
0.12320	0.43176
-0.23382	0.27871
0.32721	-0.20594
0.22521	0.10015
0.27621	0.55929
-0.00431	0.73785
0.14870	0.40625
0.22521	-0.66508
0.17421	-0.30797
0.19971	0.15117
-0.20832	0.61031
0.35272	0.43176
-0.18282	-0.30797
0.17421	0.04914
0.14870	0.20219
0.07220	0.53379
0.19971	0.43176
0.37822	-0.25695
0.22521	-0.10391
0.14870	0.15117
0.02119	0.40625
0.02119	0.20219
0.35272	-0.23145
0.25071	0.12566
-0.05531	0.22769
-0.05531	0.68683
0.09770	0.30422
0.48022	-0.38449
0.22521	-0.12942
0.14870	-0.10391
0.12320	0.45726
-0.20832	0.58480
0.25071	0.12566
0.02119	-0.23145
0.30171	0.02363
-0.00431	0.50828
0.32721	0.30422
0.40372	-0.25695
0.32721	0.12566
0.04670	0.15117
-0.18282	0.53379
-0.13181	0.38074
0.50573	-0.28246
0.14870	-0.15492
0.14870	0.40625
-0.02981	0.76336
0.09770	0.32972
0.45472	-0.63957
0.35272	-0.30797
0.07220	0.10015
0.09770	0.50828
0.07220	0.15117
0.19971	-0.30797
0.25071	0.17668
-0.00431	0.38074
-0.10631	0.63582
0.14870	0.35523
0.30171	-0.33348
0.32721	-0.00188
0.45472	-0.12942
-0.13181	0.38074
-0.00431	0.40625
0.76074	0.02363
-0.46334	0.15117
0.09770	0.32972
-0.20832	0.55929
-0.13181	0.20219
0.58223	-0.28246
0.45472	-0.00188
0.53123	0.20219
-0.10631	0.25320
-0.08081	0.12566
0.27621	-0.35899
0.14870	0.07465
0.12320	0.38074
-0.10631	0.58480
0.12320	0.48277
0.27621	-0.18043
0.14870	-0.05289
0.12320	-0.41000
-0.08081	0.25320
0.04670	0.45726
0.30171	-0.12942
0.17421	0.22769
0.14870	0.20219
-0.00431	0.63582
0.17421	0.07465
0.42922	-0.12942
0.19971	-0.00188
0.14870	-0.10391
-0.02981	0.20219
0.12320	0.48277
0.42922	-0.02739
-0.08081	0.12566
0.04670	0.15117
-0.08081	0.45726
0.30171	0.20219
0.35272	-0.46102
0.32721	-0.25695
0.04670	0.32972
0.27621	0.81437
-0.10631	0.25320
0.50573	-0.18043
-0.28482	-0.20594
0.19971	0.15117
-0.18282	0.61031
0.12320	0.12566
0.55673	-0.23145
0.04670	-0.07840
0.02119	0.10015
0.09770	0.43176
-0.02981	0.45726
0.37822	-0.02739
0.19971	0.02363
0.14870	0.48277
0.04670	0.55929
0.07220	0.38074
0.53123	-0.46102
0.25071	-0.28246
0.30171	-0.25695
0.12320	0.12566
-0.02981	0.40625
0.27621	0.07465
0.12320	0.25320
-0.08081	0.27871
-0.08081	0.30422
0.30171	-0.02739
-0.02981	-0.12942
0.22521	0.22769
0.50573	0.17668
-0.10631	0.38074
-0.46334	0.32972
0.25071	-0.28246
0.25071	0.15117
0.17421	0.30422
0.14870	0.35523
0.22521	0.30422
0.32721	-0.02739
0.19971	-0.15492
0.25071	-0.02739
-0.08081	0.02363
-0.08081	0.20219
0.40372	0.04914
0.02119	0.20219
0.17421	0.40625
-0.10631	0.53379
0.12320	0.22769
0.48022	-0.25695
0.17421	-0.00188
0.07220	-0.02739
0.09770	0.20219
0.04670	0.10015
0.37822	-0.07840
0.27621	0.20219
0.09770	0.15117
-0.23382	0.78886
0.25071	0.15117
0.53123	-0.28246
0.32721	-0.15492
0.04670	-0.10391
0.09770	0.45726
-0.02981	0.48277
0.32721	-0.25695
0.14870	-0.10391
-0.05531	0.32972
-0.08081	0.61031
0.19971	0.12566
0.32721	-0.48652
0.25071	-0.02739
0.07220	0.15117
0.12320	0.25320
0.22521	0.35523
0.25071	-0.00188
0.22521	0.02363
0.17421	0.27871
-0.02981	0.53379
0.25071	0.40625
0.40372	-0.35899
0.12320	-0.10391
0.14870	-0.10391
0.02119	0.27871
0.17421	0.40625
0.17421	-0.18043
0.09770	0.10015
0.07220	0.25320
0.19971	0.48277
0.19971	0.30422
0.35272	-0.41000
0.07220	-0.02739
0.48022	0.02363
-0.18282	0.30422
0.02119	0.32972
0.25071	-0.10391
0.22521	0.10015
0.32721	0.43176
-0.18282	0.55929
0.12320	0.12566
0.17421	-0.43551
0.19971	-0.15492
0.40372	-0.05289
0.19971	0.55929
0.22521	0.32972
0.27621	0.02363
0.22521	0.12566
-0.00431	0.20219
0.02119	0.27871
0.07220	-0.05289
0.35272	-0.15492
0.19971	0.22769
0.07220	-0.00188
0.07220	0.50828
-0.00431	0.12566
0.40372	-0.20594
0.19971	-0.00188
-0.02981	0.40625
0.02119	0.48277
0.27621	0.25320
0.30171	-0.20594
0.22521	0.02363
0.12320	0.04914
0.19971	0.10015
-0.02981	0.17668
0.27621	-0.10391
0.07220	0.10015
0.12320	0.32972
-0.05531	0.35523
0.32721	0.35523
0.68424	-0.20594
-0.18282	-0.10391
0.09770	0.12566
0.22521	0.38074
0.02119	0.10015
0.63323	-0.30797
0.09770	0.30422
-0.05531	0.32972
0.09770	0.53379
0.22521	0.07465
0.42922	-0.20594
0.27621	0.02363
0.12320	0.15117
-0.00431	0.02363
0.07220	0.07465
0.17421	0.12566
0.22521	0.53379
-0.02981	0.63582
0.04670	0.38074
0.09770	-0.28246
0.45472	-0.58856
0.19971	-0.38449
0.25071	0.10015
0.02119	0.35523
0.09770	0.45726
0.17421	-0.05289
0.22521	0.04914
0.09770	0.45726
-0.08081	0.50828
0.30171	0.35523
0.02119	-0.41000
0.40372	-0.10391
0.14870	-0.12942
0.22521	0.43176
0.07220	0.15117
0.07220	-0.12942
0.40372	-0.12942
0.22521	0.43176
-0.28482	0.71234
0.27621	0.25320
0.99026	-0.23145
-0.02981	-0.05289
0.30171	0.12566
-0.08081	0.17668
-0.00431	0.20219
0.25071	-0.15492
0.27621	0.07465
-0.41233	0.25320
0.32721	0.32972
0.12320	0.20219
0.12320	-0.02739
0.32721	0.02363
0.19971	-0.00188
0.12320	0.07465
0.12320	0.22769
0.32721	0.40625
0.22521	0.17668
-0.00431	0.27871
-0.02981	0.35523
0.04670	0.22769
0.40372	-0.41000
0.17421	-0.28246
0.25071	-0.12942
-0.02981	-0.05289
0.17421	0.38074
0.22521	0.22769
0.25071	0.30422
0.07220	0.27871
0.14870	0.22769
-0.13181	0.45726
0.27621	-0.02739
0.35272	0.15117
0.32721	-0.00188
-0.08081	0.12566
-0.00431	0.04914
0.19971	-0.07840
0.32721	0.04914
0.04670	0.30422
0.02119	0.48277
-0.02981	0.12566
0.45472	-0.07840
0.27621	-0.12942
0.19971	0.02363
-0.05531	0.20219
0.17421	0.25320
0.40372	-0.00188
-0.10631	0.15117
0.17421	0.43176
-0.05531	0.25320
0.25071	0.35523
0.32721	-0.23145
0.96476	0.04914
-0.59084	-0.02739
-0.23382	0.20219
0.17421	0.38074
0.27621	-0.07840
0.35272	0.07465
0.04670	0.15117
0.04670	0.55929
0.17421	0.10015
0.35272	-0.30797
0.17421	-0.25695
0.27621	0.45726
-0.05531	0.25320
0.02119	0.35523
0.22521	-0.12942
0.22521	-0.05289
0.02119	0.10015
-0.00431	0.78886
0.07220	0.35523
0.30171	-0.20594
0.32721	-0.25695
0.17421	0.12566
0.12320	0.12566
0.02119	0.15117
0.19971	-0.02739
0.27621	-0.00188
-0.10631	0.27871
-0.02981	0.32972
0.32721	0.17668
0.14870	-0.07840
0.42922	0.02363
0.30171	-0.02739
0.02119	0.25320
0.48022	0.22769
0.19971	0.12566
0.02119	0.10015
0.40372	0.17668
0.42922	0.45726
-1.12638	0.25320
0.09770	-0.23145
0.42922	-0.43551
0.32721	0.15117
-0.00431	0.32972
0.22521	0.55929
0.58223	-0.20594
-0.61635	0.04914
-0.08081	0.17668
0.19971	0.25320
0.17421	0.12566
0.42922	-0.02739
0.12320	0.17668
0.17421	0.32972
-0.10631	-0.05289
0.09770	0.10015
0.14870	0.22769
0.22521	0.27871
0.02119	-0.12942
0.07220	0.20219
0.07220	0.25320
0.35272	-0.25695
0.19971	-0.15492
0.25071	0.40625
0.09770	0.38074
0.12320	0.25320
0.12320	-0.05289
0.22521	0.02363
0.09770	0.20219
0.07220	0.38074
0.14870	0.12566
0.35272	-0.15492
0.32721	-0.00188
0.12320	-0.00188
0.09770	0.32972
-0.02981	0.38074
0.27621	0.07465
-0.05531	-0.23145
0.12320	0.22769
0.02119	0.27871
0.30171	0.20219
0.30171	-0.15492
0.27621	-0.02739
0.17421	0.04914
0.27621	0.12566
0.19971	0.22769
0.04670	-0.07840
0.22521	0.10015
-0.00431	0.20219
-0.02981	0.53379
0.14870	0.32972
0.55673	0.02363
0.22521	-0.10391
-0.28482	0.15117
0.27621	0.22769
0.12320	0.30422
0.02119	-0.33348
0.12320	-0.20594
0.04670	0.22769
0.07220	0.35523
0.22521	0.43176
0.37822	-0.25695
0.35272	0.04914
0.14870	0.10015
0.12320	0.20219
0.02119	0.48277
0.12320	-0.00188
0.14870	-0.28246
0.07220	-0.02739
0.02119	0.66132
-0.02981	0.55929
0.32721	0.15117
0.42922	-0.18043
-0.38683	-0.20594
0.07220	0.12566
0.07220	0.17668
0.32721	-0.00188
0.55673	0.04914
0.32721	0.43176
-0.61635	0.22769
-0.05531	0.22769
0.35272	-0.25695
0.40372	-0.12942
0.32721	0.20219
0.30171	0.30422
0.12320	0.45726
0.09770	0.02363
0.12320	0.02363
0.09770	0.20219
-0.02981	0.25320
0.32721	0.04914
-0.08081	-0.07840
0.25071	0.17668
0.14870	-0.05289
0.17421	0.07465
0.22521	0.32972
0.17421	0.15117
0.27621	-0.02739
0.09770	0.12566
0.02119	0.38074
0.14870	0.20219
0.32721	-0.10391
0.35272	0.10015
0.07220	0.10015
0.12320	0.10015
-0.00431	0.25320
0.30171	0.22769
0.12320	-0.00188
-0.10631	0.35523
-0.00431	0.43176
0.70974	0.10015
0.02119	-0.18043
0.17421	-0.23145
0.25071	0.10015
0.22521	0.17668
0.09770	0.27871
0.27621	-0.02739
0.07220	-0.10391
0.02119	0.10015
0.09770	0.40625
0.17421	0.38074
0.19971	0.10015
0.22521	0.02363
0.17421	-0.02739
0.09770	0.17668
0.12320	0.10015
0.12320	0.22769
0.32721	0.10015
-0.00431	0.10015
-0.15732	0.30422
-0.05531	0.22769
0.40372	0.04914
0.30171	-0.05289
0.60773	-0.05289
-0.00431	0.04914
-0.08081	0.12566
0.32721	0.25320
0.27621	0.12566
-0.66735	0.27871
0.27621	0.35523
0.40372	0.22769
0.22521	-0.07840
0.37822	-0.12942
0.19971	-0.15492
0.19971	0.20219
0.02119	0.35523
0.22521	0.22769
0.19971	-0.10391
0.09770	0.50828
-0.02981	0.73785
0.17421	0.66132
0.17421	-0.35899
0.53123	-0.56305
-0.31033	-0.28246
0.04670	0.15117
-0.18282	0.38074
0.17421	0.27871
0.22521	-0.20594
0.22521	0.10015
0.07220	0.45726
0.19971	0.35523
0.22521	-0.20594
0.37822	0.15117
0.17421	0.17668
0.09770	0.32972
-0.00431	0.27871
0.19971	0.25320
0.12320	0.04914
0.17421	0.27871
0.12320	0.02363
0.17421	0.17668
0.12320	-0.05289
0.14870	-0.05289
0.09770	0.10015
0.35272	0.22769
-0.02981	0.27871
0.42922	-0.02739
0.12320	-0.05289
-0.28482	0.30422
0.17421	0.40625
0.40372	0.38074
-0.15732	0.17668
0.37822	-0.18043
0.35272	-0.07840
0.19971	0.10015
0.07220	0.25320
0.42922	0.15117
-0.02981	0.12566
0.19971	0.50828
-0.05531	0.66132
0.09770	0.35523
0.19971	-0.46102
0.30171	-0.25695
0.12320	0.10015
0.14870	0.45726
0.09770	-0.10391
0.17421	0.04914
0.07220	0.04914
0.04670	0.35523
0.17421	0.35523
0.14870	0.38074
0.32721	-0.05289
0.27621	-0.12942
0.27621	-0.07840
0.07220	0.25320
0.07220	0.38074
0.04670	0.30422
0.27621	0.07465
0.02119	0.27871
0.09770	0.30422
0.04670	0.22769
0.19971	-0.18043
0.30171	-0.02739
0.17421	-0.02739
0.12320	0.20219
0.07220	-0.02739
0.14870	0.12566
0.14870	0.02363
0.27621	0.48277
-0.59084	0.40625
0.12320	0.32972
0.27621	-0.05289
0.83725	-0.20594
0.27621	0.10015
-0.46334	-0.02739
-0.10631	0.50828
0.12320	0.45726
0.63323	0.17668
0.22521	0.04914
-0.00431	0.04914
0.30171	0.17668
0.37822	-0.07840
0.17421	-0.00188
0.07220	0.10015
0.12320	0.04914
0.12320	0.25320
0.09770	0.04914
0.22521	0.25320
0.12320	0.27871
-0.05531	0.27871
0.12320	0.40625
0.14870	0.30422
0.35272	-0.18043
0.12320	-0.28246
0.12320	-0.23145
-0.10631	0.22769
0.12320	0.12566
0.22521	-0.00188
0.12320	0.40625
0.07220	0.32972
0.09770	0.17668
0.22521	0.07465
0.27621	0.15117
0.22521	0.17668
0.19971	0.17668
0.09770	0.27871
-0.31033	0.22769
0.53123	0.12566
0.09770	-0.10391
0.02119	0.07465
0.42922	0.22769
0.02119	0.25320
0.37822	0.12566
1.39828	0.04914
-0.61635	0.17668
-1.71292	0.12566
-0.13181	0.35523
0.27621	-0.07840
0.58223	0.30422
0.42922	0.30422
0.32721	0.35523
0.32721	0.04914
0.42922	-0.25695
0.22521	-0.02739
0.04670	0.04914
-0.08081	0.32972
0.07220	0.32972
0.14870	0.10015
0.07220	0.10015
-0.10631	0.40625
0.04670	0.86539
0.19971	-0.23145
0.27621	-0.28246
0.27621	0.02363
0.04670	0.07465
0.12320	0.30422
0.09770	-0.00188
0.27621	-0.07840
0.14870	0.35523
0.12320	0.38074
0.09770	0.30422
0.19971	-0.12942
0.35272	-0.30797
0.25071	0.17668
0.04670	0.17668
-0.05531	0.58480
0.12320	0.32972
0.27621	0.04914
0.14870	0.22769
-0.10631	0.20219
0.12320	0.38074
0.32721	-0.05289
0.22521	-0.15492
0.30171	0.02363
0.02119	0.15117
-0.15732	0.27871
0.22521	0.15117
-0.33583	0.04914
0.63323	0.15117
-0.48884	0.40625
0.19971	0.32972
0.07220	0.15117
0.53123	-0.28246
0.50573	-0.05289
-0.00431	0.15117
0.04670	0.43176
0.09770	0.20219
-0.20832	-0.02739
0.19971	0.30422
0.07220	0.32972
0.04670	0.32972
0.04670	-0.00188
0.50573	0.04914
0.09770	0.35523
0.25071	0.22769
0.07220	0.20219
0.02119	0.20219
0.22521	-0.15492
0.07220	-0.20594
0.14870	0.22769
-0.00431	0.45726
0.27621	0.32972
0.22521	-0.02739
0.22521	-0.15492
0.25071	0.07465
-0.00431	0.38074
-0.00431	0.50828
0.14870	-0.02739
0.25071	0.10015
0.14870	0.30422
0.02119	0.45726
0.09770	0.32972
0.35272	-0.10391
0.30171	-0.15492
0.02119	-0.05289
0.09770	0.40625
0.07220	0.07465
0.22521	-0.25695
0.14870	0.17668
0.17421	0.48277
0.30171	0.55929
0.19971	0.07465
0.12320	-0.28246
-0.02981	0.02363
0.30171	0.17668
-0.25932	0.30422
0.25071	0.30422
0.12320	-0.02739
0.32721	0.35523
0.30171	0.48277
-0.59084	0.32972
0.25071	0.15117
0.45472	-0.10391
0.35272	0.10015
0.12320	0.04914
-0.08081	0.04914
-0.00431	0.15117
0.14870	0.22769
0.40372	-0.05289
-0.13181	0.38074
0.22521	0.30422
-0.15732	0.20219
-0.18282	-0.02739
0.14870	0.12566
0.27621	0.04914
-0.02981	0.12566
0.09770	0.17668
0.19971	0.07465
0.25071	0.35523
0.12320	0.40625
0.07220	0.35523
0.12320	0.04914
0.09770	-0.02739
0.22521	0.02363
0.07220	-0.05289
0.04670	0.32972
0.07220	0.22769
0.30171	-0.18043
0.12320	-0.02739
0.14870	0.43176
-0.08081	0.53379
0.27621	0.38074
0.30171	-0.25695
0.22521	-0.00188
0.12320	-0.02739
-0.02981	0.30422
0.14870	0.32972
-0.00431	0.02363
0.02119	0.10015
0.14870	0.30422
-0.13181	0.38074
0.07220	0.30422
0.37822	0.02363
0.32721	-0.00188
0.12320	0.10015
-0.20832	0.32972
0.09770	0.22769
0.32721	-0.02739
0.17421	0.30422
0.25071	0.22769
-0.08081	0.35523
0.09770	-0.10391
0.37822	-0.28246
0.27621	-0.02739
0.12320	0.30422
0.09770	0.58480
-0.02981	0.48277
0.22521	0.17668
0.09770	0.07465
0.04670	0.15117
0.02119	0.22769
0.14870	0.02363
0.40372	-0.20594
0.12320	-0.07840
0.02119	-0.05289
0.02119	0.35523
0.09770	0.50828
0.32721	0.02363
0.12320	-0.05289
0.04670	0.30422
0.04670	0.45726
0.14870	0.48277
0.32721	-0.05289
0.25071	0.12566
0.12320	0.22769
0.12320	0.27871
0.02119	0.40625
0.09770	0.02363
-0.08081	0.04914
0.22521	0.12566
0.22521	0.07465
0.32721	0.22769
0.30171	-0.18043
0.27621	0.17668
-0.48884	0.07465
0.22521	0.30422
-0.38683	0.27871
0.50573	-0.07840
-0.08081	0.27871
0.22521	0.35523
-0.08081	0.35523
0.22521	0.10015
0.37822	-0.35899
0.40372	0.07465
0.17421	0.12566
-0.10631	0.55929
0.27621	0.20219
0.30171	0.12566
-0.02981	0.45726
0.02119	0.55929
0.02119	0.50828
0.09770	-0.15492
0.37822	-0.20594
0.14870	-0.46102
0.25071	-0.07840
-0.08081	0.15117
0.14870	0.55929
0.22521	0.02363
0.22521	0.27871
-0.10631	0.12566
-0.02981	0.66132
0.17421	0.43176
0.42922	-0.12942
0.32721	-0.00188
0.17421	0.20219
-0.02981	0.38074
0.02119	0.35523
0.22521	-0.07840
0.32721	-0.00188
-0.00431	0.25320
0.02119	0.43176
0.09770	0.15117
0.50573	-0.25695
0.12320	-0.10391
0.04670	0.22769
0.27621	0.32972
0.63323	0.35523
0.19971	-0.07840
-0.92237	0.22769
0.09770	0.45726
-0.18282	0.38074
0.68424	0.38074
0.12320	-0.25695
0.37822	-0.00188
0.30171	0.04914
0.32721	0.58480
-0.05531	0.30422
0.53123	-0.23145
-0.08081	-0.15492
0.02119	0.66132
-0.00431	0.55929
0.09770	0.48277
0.32721	-0.69059
0.30171	0.02363
0.12320	0.20219
-0.08081	0.48277
0.04670	0.38074
0.25071	0.07465
0.25071	-0.07840
-0.02981	-0.02739
0.14870	0.25320
-0.00431	0.48277
0.32721	0.17668
0.30171	-0.18043
0.07220	0.04914
-0.00431	0.63582
0.12320	0.32972
0.25071	-0.33348
0.17421	0.20219
0.19971	0.32972
-0.00431	0.40625
0.19971	0.43176
0.35272	-0.23145
0.04670	0.04914
0.27621	0.02363
0.19971	0.45726
-0.23382	0.22769
0.25071	-0.12942
0.12320	0.12566
0.37822	0.35523
-0.00431	0.35523
0.68424	0.15117
-0.18282	-0.05289
-0.05531	0.10015
0.17421	-0.12942
0.14870	0.07465
0.14870	0.25320
0.55673	-0.05289
0.14870	0.30422
0.04670	0.55929
-0.25932	0.55929
0.17421	0.10015
0.50573	-0.23145
0.32721	0.15117
0.35272	0.27871
-0.02981	0.30422
-0.00431	0.53379
0.17421	-0.33348
0.04670	0.04914
0.02119	0.32972
0.02119	0.07465
0.09770	0.38074
0.32721	-0.23145
0.17421	-0.00188
0.09770	-0.23145
0.07220	0.66132
-0.08081	0.50828
0.27621	0.07465
0.14870	0.17668
0.07220	0.30422
0.07220	0.35523
0.09770	0.25320
0.37822	-0.20594
0.27621	0.02363
-0.00431	0.07465
-0.02981	0.38074
0.09770	0.15117
0.32721	-0.15492
0.22521	-0.02739
0.02119	0.32972
-0.18282	0.83988
-0.08081	0.45726
0.53123	-0.38449
0.35272	-0.15492
0.19971	-0.07840
0.02119	0.32972
0.14870	0.38074
0.12320	0.07465
0.09770	0.15117
-0.10631	0.35523
0.04670	0.35523
0.40372	0.32972
0.22521	-0.18043
0.35272	0.02363
0.32721	0.04914
-0.31033	0.22769
-0.08081	0.48277
0.88825	-0.20594
-0.46334	0.12566
0.22521	0.30422
-0.36133	0.38074
0.12320	0.43176
0.50573	-0.20594
0.45472	0.07465
0.32721	0.02363
0.07220	0.15117
0.07220	0.38074
0.32721	0.15117
0.04670	-0.07840
0.12320	0.30422
-0.08081	0.15117
0.09770	0.35523
0.27621	0.55929
0.22521	0.04914
0.14870	-0.33348
-0.02981	0.22769
-0.02981	0.53379
0.19971	-0.10391
0.22521	0.22769
0.02119	0.30422
-0.05531	0.45726
0.09770	0.32972
0.45472	-0.33348
0.12320	0.02363
0.17421	0.04914
-0.05531	0.38074
0.04670	0.50828
0.45472	-0.05289
-0.15732	0.04914
0.02119	0.27871
0.02119	0.48277
0.19971	0.15117
0.45472	-0.20594
0.50573	0.02363
-0.08081	-0.05289
-0.31033	0.45726
0.02119	0.43176
0.27621	-0.07840
0.14870	0.22769
0.07220	0.32972
0.09770	0.48277
0.60773	0.27871
0.37822	-0.35899
0.25071	0.02363
-0.31033	-0.15492
0.17421	0.22769
0.02119	0.48277
0.45472	-0.05289
0.30171	0.32972
0.19971	0.43176
-0.08081	0.61031
-0.08081	0.04914
0.50573	-0.46102
0.30171	0.04914
0.17421	0.25320
0.02119	0.61031
-0.08081	0.10015
0.30171	-0.23145
0.09770	0.12566
0.04670	0.22769
-0.08081	0.40625
0.12320	0.38074
0.42922	-0.20594
0.19971	-0.07840
0.14870	0.25320
0.02119	0.53379
0.04670	0.45726
0.42922	-0.23145
0.07220	0.15117
0.04670	0.35523
-0.05531	0.50828
0.19971	0.17668
0.50573	-0.25695
-0.38683	-0.20594
0.22521	0.04914
0.19971	0.35523
0.12320	0.35523
0.32721	-0.02739
0.09770	0.15117
-0.05531	0.27871
-0.15732	0.40625
0.09770	0.43176
0.30171	-0.18043
0.35272	0.02363
0.02119	0.04914
-0.02981	0.35523
0.04670	0.50828
0.27621	-0.23145
0.25071	0.07465
0.04670	0.32972
0.04670	0.55929
0.07220	-0.10391
0.35272	-0.58856
0.27621	0.48277
0.19971	0.63582
0.02119	0.71234
-0.10631	-0.20594
0.30171	-0.48652
0.04670	-0.35899
0.12320	0.38074
-0.08081	0.71234
0.12320	0.35523
0.40372	-0.30797
0.19971	0.04914
0.17421	0.22769
-0.00431	0.45726
-0.00431	0.40625
0.27621	0.04914
0.19971	0.17668
0.09770	0.63582
-0.00431	0.20219
-0.05531	0.02363
0.63323	-0.46102
0.32721	0.04914
-0.36133	0.02363
-0.13181	0.43176
0.14870	0.35523
0.60773	-0.07840
0.17421	0.15117
0.14870	0.32972
0.09770	0.55929
-0.08081	0.32972
0.22521	-0.38449
0.17421	-0.05289
0.12320	-0.05289
0.27621	0.45726
-0.79486	0.22769
0.32721	-0.05289
0.19971	0.30422
0.12320	0.35523
0.04670	0.58480
0.14870	0.15117
0.63323	-0.30797
-0.23382	-0.02739
0.40372	0.32972
0.17421	0.43176
0.02119	0.04914
0.42922	0.04914
0.19971	0.15117
0.04670	0.40625
-0.05531	0.53379
-0.02981	-0.12942
0.40372	-0.02739
0.19971	-0.12942
0.17421	-0.15492
-0.02981	0.07465
-0.08081	0.58480
0.35272	0.10015
0.12320	0.27871
0.04670	0.38074
0.07220	0.48277
0.07220	0.30422
0.37822	0.02363
0.19971	-0.02739
0.19971	-0.05289
0.04670	0.22769
0.09770	0.10015
0.17421	-0.00188
0.02119	0.04914
0.12320	0.15117
0.17421	0.45726
0.22521	0.20219
0.19971	-0.20594
0.19971	-0.02739
0.32721	0.04914
-0.20832	0.32972
-0.10631	0.27871
0.40372	-0.05289
0.07220	0.10015
0.42922	0.25320
-0.00431	0.58480
0.07220	0.45726
-0.20832	-0.43551
0.30171	-0.28246
0.09770	0.12566
0.17421	0.63582
0.30171	0.55929
0.04670	-0.33348
-0.00431	-0.07840
0.27621	0.20219
0.22521	0.66132
0.04670	0.10015
0.50573	-0.18043
0.19971	0.02363
0.27621	0.30422
-0.08081	0.45726
-0.02981	0.12566
0.27621	-0.33348
0.12320	0.10015
0.04670	0.38074
-0.08081	0.76336
0.09770	0.27871
0.48022	-0.12942
0.22521	-0.25695
0.19971	0.02363
0.02119	0.15117
0.02119	0.38074
0.35272	0.07465
0.12320	0.10015
-0.00431	0.27871
-0.13181	0.53379
0.25071	0.38074
0.32721	-0.28246
0.17421	-0.07840
0.12320	-0.02739
0.07220	0.40625
0.07220	0.30422
0.40372	-0.00188
0.48022	-0.07840
0.19971	0.35523
-0.89686	0.43176
0.04670	0.27871
0.55673	-0.25695
0.17421	-0.05289
0.19971	0.10015
0.12320	0.30422
0.04670	0.38074
0.30171	-0.25695
0.19971	0.17668
-0.05531	0.35523
-0.36133	0.45726
0.70974	0.27871
-0.02981	-0.61406
0.55673	-0.02739
0.17421	0.43176
-0.18282	0.58480
0.12320	0.35523
0.32721	-0.28246
0.30171	0.17668
-0.00431	0.02363
0.14870	0.40625
0.02119	0.20219
0.32721	-0.38449
0.17421	-0.20594
0.17421	0.07465
0.02119	0.63582
-0.18282	0.38074
0.32721	-0.05289
0.22521	0.17668
0.09770	0.32972
-0.05531	0.45726
0.22521	0.17668
0.37822	-0.30797
0.22521	0.07465
0.22521	0.07465
0.07220	0.30422
0.02119	0.25320
0.35272	-0.18043
0.19971	0.17668
0.02119	0.35523
-0.18282	0.43176
0.32721	0.10015
0.27621	-0.33348
0.17421	0.02363
0.25071	0.43176
-0.18282	0.02363
0.09770	0.22769
0.48022	-0.15492
-0.18282	0.22769
0.32721	0.30422
-0.00431	0.76336
0.32721	0.40625
0.25071	-0.23145
0.22521	-0.28246
0.22521	-0.18043
0.07220	0.35523
-0.13181	0.45726
0.27621	-0.12942
0.27621	0.25320
-0.13181	0.04914
0.12320	0.30422
0.12320	0.27871
0.48022	-0.23145
0.12320	0.15117
0.22521	0.07465
-0.10631	0.30422
0.17421	0.20219
0.22521	-0.23145
0.14870	0.02363
-0.00431	0.35523
0.02119	0.86539
0.07220	0.61031
0.48022	-0.18043
0.12320	-0.07840
0.14870	-0.02739
-0.02981	0.22769
-0.00431	0.20219
0.53123	-0.30797
-0.13181	0.10015
0.30171	0.25320
-0.08081	0.35523
0.22521	0.15117
0.58223	-0.10391
0.27621	0.02363
0.86275	0.17668
-0.87136	0.27871
-0.23382	0.35523
0.27621	-0.18043
0.04670	0.25320
0.32721	0.22769
0.17421	0.58480
0.32721	0.12566
0.19971	-0.51203
-0.10631	0.04914
0.04670	0.55929
-0.02981	0.35523
0.25071	0.15117
0.48022	-0.41000
0.22521	0.20219
-0.53984	0.27871
-0.02981	0.43176
0.40372	-0.10391
0.22521	-0.35899
0.32721	0.17668
0.32721	0.20219
0.04670	0.45726
0.12320	0.76336
0.27621	-0.35899
0.12320	-0.10391
0.07220	0.02363
-0.13181	0.50828
0.12320	0.35523
0.37822	-0.18043
0.27621	0.04914
0.09770	0.27871
-0.08081	0.58480
0.02119	0.53379
0.22521	-0.48652
0.27621	-0.15492
-0.00431	0.10015
0.12320	0.32972
0.14870	0.25320
0.30171	-0.28246
0.27621	0.15117
0.14870	0.15117
0.14870	0.35523
-0.02981	0.10015
0.45472	-0.15492
-0.23382	0.15117
0.53123	0.43176
0.09770	0.48277
-0.33583	0.12566
0.83725	-0.35899
-0.00431	-0.07840
0.14870	0.10015
0.07220	0.45726
0.19971	0.43176
0.12320	-0.10391
0.02119	-0.12942
-0.10631	0.38074
0.14870	0.55929
0.45472	0.48277
0.68424	-0.15492
-0.53984	-0.23145
0.35272	-0.30797
-0.18282	0.25320
0.12320	0.32972
0.42922	-0.07840
0.19971	0.22769
0.04670	0.22769
-0.08081	0.25320
0.07220	0.38074
0.40372	0.12566
0.19971	-0.00188
0.14870	-0.02739
0.04670	0.25320
-0.10631	0.27871
0.35272	-0.10391
0.19971	-0.05289
0.17421	0.17668
0.02119	0.53379
0.09770	0.48277
0.35272	-0.25695
0.19971	-0.02739
0.17421	0.10015
0.12320	0.38074
0.02119	0.27871
0.40372	-0.10391
0.17421	-0.00188
0.07220	0.27871
-0.02981	0.45726
0.19971	0.32972
0.37822	-0.35899
0.14870	0.07465
0.12320	-0.00188
0.02119	0.35523
0.12320	0.15117
0.35272	-0.12942
-0.08081	-0.02739
0.12320	0.45726
0.04670	0.61031
0.32721	0.10015
0.50573	-0.30797
0.12320	0.22769
0.32721	0.15117
-0.13181	0.35523
-0.13181	0.10015
0.32721	-0.18043
0.32721	0.04914
-0.00431	0.17668
0.25071	0.30422
-0.23382	-0.02739
0.17421	-0.20594
0.32721	0.40625
0.22521	0.45726
0.04670	0.17668
0.09770	-0.00188
0.50573	-0.41000
0.19971	0.15117
0.14870	0.40625
-0.08081	0.63582
0.04670	0.27871
0.30171	-0.35899
0.22521	-0.02739
0.14870	-0.05289
0.02119	0.20219
0.02119	0.22769
0.53123	-0.10391
0.42922	-0.05289
-0.25932	0.38074
-0.53984	0.25320
0.27621	0.17668
0.42922	-0.25695
0.22521	0.12566
0.22521	0.04914
0.22521	0.40625
0.17421	0.38074
0.30171	-0.15492
0.25071	0.07465
0.32721	0.32972
-0.64185	0.55929
0.19971	0.12566
0.65874	-0.25695
0.12320	-0.12942
0.30171	0.07465
0.12320	-0.02739
0.19971	0.27871
0.48022	-0.00188
-0.08081	0.35523
-0.15732	0.38074
-0.05531	0.27871
0.17421	-0.05289
0.35272	-0.28246
0.37822	0.04914
-0.00431	0.27871
0.12320	0.43176
0.17421	0.55929
0.19971	-0.07840
0.27621	-0.25695
0.19971	0.02363
-0.08081	0.25320
0.14870	0.10015
0.40372	-0.12942
0.17421	0.10015
0.25071	0.15117
-0.05531	0.32972
0.12320	0.48277
0.22521	-0.15492
0.09770	0.10015
0.14870	0.40625
0.22521	0.40625
0.02119	0.12566
0.27621	-0.58856
0.40372	0.02363
0.22521	0.04914
0.02119	0.38074
0.17421	0.22769
0.09770	-0.05289
0.32721	0.22769
-0.02981	0.15117
0.12320	0.40625
0.19971	-0.00188
0.63323	-0.30797
0.63323	0.10015
-0.82036	0.07465
-0.31033	0.48277
0.12320	0.22769
0.73524	-0.10391
0.14870	0.25320
0.12320	0.15117
0.17421	0.40625
0.04670	0.15117
0.50573	-0.18043
0.22521	-0.25695
-0.20832	0.32972
0.02119	0.22769
-0.08081	0.27871
0.48022	-0.10391
0.14870	0.15117
0.22521	-0.00188
0.04670	0.38074
0.22521	0.61031
0.42922	-0.18043
0.22521	0.17668
0.19971	-0.18043
-0.08081	0.35523
0.04670	-0.15492
0.22521	-0.18043
0.07220	-0.10391
0.14870	0.38074
-0.02981	0.50828
0.22521	0.45726
0.35272	-0.07840
0.25071	-0.00188
0.14870	0.12566
0.07220	0.32972
0.09770	0.25320
0.25071	-0.12942
0.17421	-0.00188
-0.00431	0.07465
0.09770	0.43176
0.14870	-0.00188
0.32721	-0.10391
0.14870	-0.05289
0.27621	0.15117
-0.02981	0.32972
0.27621	0.25320
0.30171	-0.10391
0.35272	0.20219
-0.23382	0.12566
0.37822	0.38074
0.02119	0.15117
0.42922	-0.15492
0.81175	-0.07840
-0.89686	0.15117
-0.05531	0.30422
0.17421	0.25320
0.30171	-0.15492
0.22521	0.20219
-0.00431	0.17668
0.35272	0.50828
-0.00431	-0.05289
0.48022	-0.05289
0.35272	-0.02739
0.22521	0.25320
0.14870	0.15117
0.04670	0.07465
0.27621	-0.15492
0.19971	0.17668
0.02119	0.35523
0.07220	0.17668
0.02119	-0.05289
0.32721	-0.33348
0.22521	-0.15492
0.07220	0.17668
0.12320	0.40625
0.02119	0.43176
0.30171	0.12566
0.25071	0.02363
0.12320	0.32972
0.02119	0.50828
0.02119	0.10015
0.42922	-0.28246
0.27621	-0.20594
0.17421	0.12566
0.25071	0.30422
0.02119	0.22769
0.07220	-0.10391
0.22521	0.04914
0.04670	0.30422
0.14870	0.43176
0.37822	0.15117
0.07220	-0.18043
-0.23382	-0.10391
0.35272	0.12566
0.27621	0.45726
0.09770	0.25320
0.37822	-0.00188
0.02119	0.02363
-0.10631	0.32972
0.02119	0.55929
0.12320	0.07465
0.45472	-0.28246
0.17421	-0.18043
0.27621	0.04914
0.12320	0.20219
-0.08081	0.38074
0.17421	-0.05289
0.27621	-0.18043
0.07220	0.22769
0.02119	1.04394
0.17421	0.22769
0.40372	-0.53754
0.17421	0.04914
0.27621	-0.18043
0.02119	-0.07840
0.09770	0.22769
0.22521	0.12566
0.02119	0.10015
0.09770	0.40625
0.02119	0.48277
0.04670	0.22769
0.40372	0.07465
0.19971	-0.00188
0.22521	-0.00188
0.07220	-0.00188
0.07220	0.22769
0.32721	-0.10391
0.12320	0.02363
0.12320	0.12566
0.17421	0.35523
0.02119	0.25320
-0.31033	-0.18043
0.27621	0.07465
0.58223	0.15117
-0.59084	0.32972
-0.18282	0.32972
0.68424	-0.15492
0.12320	0.07465
0.68424	0.30422
-0.66735	0.48277
-0.02981	0.35523
0.22521	-0.18043
1.11776	-0.02739
-0.38683	-0.18043
-0.05531	0.55929
-0.08081	0.25320
0.35272	-0.35899
0.55673	-0.00188
-0.13181	0.66132
0.02119	0.68683
0.14870	0.10015
0.27621	-0.33348
0.32721	-0.10391
0.22521	-0.15492
-0.05531	0.58480
0.04670	0.40625
0.22521	-0.15492
0.25071	-0.18043
0.14870	-0.02739
-0.00431	0.20219
0.04670	0.30422
0.32721	0.10015
0.32721	0.15117
0.22521	0.02363
0.07220	-0.00188
0.12320	0.17668
0.14870	0.10015
0.25071	0.15117
-0.10631	0.15117
0.04670	0.45726
0.17421	0.22769
0.50573	-0.18043
0.14870	-0.05289
-0.05531	0.22769
0.12320	0.32972
0.19971	0.12566
0.35272	-0.15492
0.27621	0.12566
0.40372	0.17668
-0.10631	0.30422
-0.51434	0.25320
0.12320	-0.23145
0.63323	0.07465
0.07220	0.02363
0.35272	0.45726
0.02119	0.25320
0.27621	0.15117
0.27621	0.04914
0.12320	0.35523
-0.00431	0.43176
0.12320	0.30422
0.32721	-0.07840
0.09770	-0.51203
0.14870	-0.05289
0.04670	0.27871
0.17421	0.40625
0.27621	-0.00188
0.22521	0.07465
0.12320	0.32972
0.07220	0.55929
0.09770	0.32972
0.32721	-0.07840
0.37822	-0.25695
0.12320	-0.10391
0.14870	0.30422
0.07220	0.50828
0.19971	-0.28246
0.22521	-0.15492
-0.02981	0.20219
0.07220	0.27871
-0.13181	0.30422
0.40372	-0.02739
0.30171	0.22769
0.27621	-0.20594
0.04670	0.12566
0.02119	0.17668
0.27621	0.10015
0.09770	0.04914
0.07220	0.35523
-0.00431	0.45726
0.14870	0.35523
0.42922	0.04914
0.35272	-0.30797
0.09770	-0.05289
0.07220	0.07465
-0.08081	0.10015
0.17421	0.10015
0.19971	0.07465
0.37822	0.35523
-0.08081	0.30422
-0.61635	0.35523
0.32721	-0.10391
0.60773	-0.18043
0.30171	-0.05289
0.27621	0.25320
-0.25932	0.32972
0.30171	0.02363
0.32721	0.02363
0.09770	0.25320
0.12320	0.35523
0.09770	0.15117
0.22521	-0.02739
0.19971	0.12566
0.02119	0.25320
0.07220	0.32972
-0.00431	0.02363
0.17421	-0.46102
0.14870	0.02363
-0.02981	0.30422
0.09770	0.30422
0.17421	0.48277
0.30171	-0.07840
0.42922	-0.02739
0.42922	-0.05289
-0.00431	0.30422
0.12320	0.55929
-0.10631	-0.05289
0.58223	-0.10391
-0.33583	0.32972
-0.10631	0.55929
0.30171	0.20219
0.27621	-0.10391
0.32721	-0.20594
0.07220	-0.02739
0.14870	0.32972
0.07220	0.22769
0.25071	0.04914
0.17421	-0.12942
-0.02981	0.20219
0.32721	0.48277
-0.08081	0.22769
0.12320	0.02363
0.30171	-0.12942
0.27621	0.12566
0.09770	0.22769
-0.28482	0.27871
0.30171	0.04914
-0.05531	-0.10391
0.04670	0.30422
0.12320	0.55929
0.19971	0.30422
0.50573	-0.23145
0.27621	-0.30797
0.19971	0.30422
0.07220	0.45726
0.25071	0.25320
0.27621	-0.07840
-0.33583	-0.25695
0.14870	-0.02739
0.12320	0.35523
0.17421	0.66132
0.32721	0.20219
0.25071	-0.05289
0.27621	-0.12942
-0.02981	-0.02739
0.09770	0.45726
0.22521	0.17668
0.12320	-0.28246
0.12320	0.10015
0.02119	0.40625
0.12320	0.53379
0.35272	0.07465
0.35272	-0.00188
0.02119	0.17668
0.07220	0.10015
0.04670	0.25320
0.17421	0.35523
0.27621	-0.18043
0.02119	0.15117
-0.13181	0.27871
0.07220	0.30422
0.40372	-0.00188
0.35272	-0.23145
0.40372	-0.05289
0.37822	0.15117
0.09770	0.35523
-0.38683	0.20219
0.58223	-0.05289
0.42922	0.25320
-0.13181	0.35523
0.04670	0.12566
0.42922	-0.12942
0.99026	-0.05289
0.22521	0.25320
0.02119	-0.00188
-0.05531	0.30422
0.02119	-0.07840
0.25071	-0.07840
0.04670	0.63582
-0.05531	0.96742
0.09770	0.40625
0.27621	-0.56305
0.37822	-0.46102
0.19971	0.04914
-0.00431	0.40625
0.02119	0.17668
0.12320	0.15117
0.19971	-0.30797
0.07220	0.30422
0.04670	0.40625
0.04670	0.15117
0.22521	0.22769
0.30171	-0.15492
0.22521	0.04914
0.19971	0.32972
0.02119	0.35523
0.17421	0.15117
0.14870	-0.00188
0.09770	0.27871
0.09770	0.32972
0.22521	0.40625
0.22521	0.04914
0.32721	-0.10391
0.40372	-0.00188
-0.18282	0.04914
0.14870	0.30422
0.22521	0.10015
0.32721	-0.10391
0.32721	0.15117
-0.02981	0.32972
0.27621	0.45726
0.04670	0.02363
0.60773	0.25320
0.22521	-0.25695
0.07220	-0.02739
0.17421	0.20219
0.09770	0.15117
0.07220	0.12566
0.25071	0.27871
0.02119	0.45726
0.22521	0.38074
0.35272	-0.07840
0.40372	-0.28246
0.42922	0.30422
0.02119	0.27871
0.14870	0.25320
-0.15732	0.10015
0.19971	-0.30797
0.14870	0.10015
0.02119	0.35523
-0.02981	0.35523
0.27621	0.20219
0.30171	-0.15492
0.14870	-0.15492
0.14870	0.04914
-0.02981	0.10015
0.22521	0.15117
0.25071	0.22769
0.17421	0.40625
-0.00431	0.27871
0.17421	0.25320
0.19971	0.10015
0.40372	-0.23145
0.14870	0.10015
-0.08081	0.22769
-0.02981	0.35523
0.17421	0.12566
0.30171	0.04914
0.07220	0.22769
-0.02981	0.40625
0.07220	0.38074
0.27621	-0.15492
0.19971	-0.35899
0.35272	-0.00188
0.04670	0.07465
0.02119	0.53379
0.17421	0.30422
0.30171	0.04914
0.09770	0.27871
0.12320	0.30422
-0.13181	0.30422
0.30171	0.02363
0.32721	-0.20594
0.42922	-0.02739
-0.05531	-0.05289
-0.05531	0.22769
0.25071	0.20219
0.27621	-0.10391
0.09770	0.17668
0.14870	0.86539
-0.13181	0.48277
0.25071	0.15117
0.19971	-0.41000
0.27621	-0.05289
0.14870	0.07465
-0.15732	0.50828
0.22521	0.32972
0.78624	-0.28246
-0.74385	0.17668
-0.10631	0.35523
0.07220	0.35523
0.42922	-0.02739
0.40372	-0.02739
0.22521	0.17668
0.19971	-0.10391
0.02119	0.02363
0.07220	0.17668
0.22521	0.10015
0.12320	0.40625
-0.00431	0.45726
0.07220	0.25320
0.19971	0.10015
0.30171	-0.25695
0.27621	0.17668
0.09770	0.15117
