0.25071	0.48277
0.14870	0.35523
0.14870	0.63582
0.17421	0.76336
0.04670	-0.76711
0.09770	-0.84363
0.09770	-0.35899
0.07220	0.17668
0.04670	0.86539
0.09770	0.76336
0.12320	0.55929
0.12320	-0.02739
0.17421	-0.71609
0.12320	0.48277
0.12320	0.35523
0.14870	0.55929
0.04670	0.25320
0.17421	-0.46102
0.30171	0.32972
0.25071	0.02363
0.12320	-1.37929
0.04670	0.40625
0.07220	0.61031
0.14870	0.76336
0.09770	0.32972
0.22521	0.25320
0.14870	0.22769
0.17421	0.25320
0.17421	0.12566
0.17421	-0.25695
0.22521	-0.00188
0.12320	0.02363
0.12320	-0.07840
0.09770	0.12566
0.17421	0.25320
0.12320	0.25320
0.14870	0.22769
0.12320	0.07465
0.07220	0.10015
0.07220	-0.05289
0.14870	0.40625
0.17421	0.40625
0.17421	0.02363
0.22521	-0.18043
0.22521	0.45726
0.17421	0.45726
0.09770	0.32972
0.04670	0.22769
0.07220	0.38074
0.09770	-0.20594
0.09770	-0.58856
0.22521	-0.30797
0.19971	0.45726
0.17421	0.55929
0.12320	0.07465
0.12320	0.22769
0.12320	0.27871
0.12320	0.22769
0.22521	0.27871
0.14870	0.10015
0.14870	0.25320
0.14870	0.04914
0.04670	0.20219
0.12320	0.04914
0.07220	-0.02739
0.14870	0.25320
0.17421	0.07465
0.17421	-0.41000
0.14870	0.20219
0.12320	0.40625
0.19971	0.30422
0.14870	0.40625
0.22521	0.40625
0.19971	0.30422
0.19971	0.22769
0.27621	-0.46102
0.22521	0.25320
0.22521	0.25320
0.27621	0.17668
0.22521	0.22769
0.19971	0.20219
0.17421	0.25320
0.14870	0.30422
0.19971	0.22769
0.19971	-0.05289
0.12320	0.12566
0.12320	-0.28246
0.12320	0.15117
0.12320	0.15117
0.07220	0.20219
0.09770	0.27871
0.09770	0.25320
0.09770	0.15117
0.14870	0.22769
0.22521	-0.05289
0.22521	0.50828
0.19971	0.63582
0.17421	0.10015
0.17421	0.02363
0.09770	-0.15492
0.07220	-0.66508
0.04670	-0.00188
0.12320	0.50828
0.14870	0.55929
0.12320	0.38074
0.17421	0.45726
0.25071	0.17668
0.19971	-0.07840
0.19971	0.20219
0.17421	0.68683
0.17421	-0.43551
0.19971	-0.41000
0.12320	0.30422
0.14870	0.30422
0.14870	0.38074
0.17421	0.40625
0.09770	0.38074
0.09770	0.22769
0.12320	-0.18043
0.17421	-0.63957
0.14870	0.43176
0.09770	0.10015
0.07220	0.27871
0.07220	0.40625
0.12320	0.40625
0.17421	0.30422
0.17421	0.43176
0.17421	0.04914
0.12320	-0.00188
0.12320	0.02363
0.07220	-0.28246
0.14870	-0.02739
0.14870	0.35523
0.17421	0.35523
0.14870	-0.05289
0.12320	0.02363
0.09770	-0.05289
0.09770	0.04914
0.12320	0.48277
0.22521	0.38074
0.25071	0.25320
0.17421	0.25320
0.12320	-0.58856
0.12320	0.15117
0.09770	0.48277
0.09770	0.30422
0.14870	0.20219
0.19971	0.17668
0.27621	0.35523
0.12320	0.10015
0.12320	0.10015
0.09770	0.43176
0.09770	0.17668
0.12320	-0.05289
0.07220	0.07465
0.22521	-0.84363
0.19971	-0.61406
0.19971	0.94191
0.19971	0.73785
0.17421	0.45726
0.09770	0.32972
0.12320	0.27871
0.17421	0.20219
0.14870	0.22769
0.25071	0.12566
0.22521	0.12566
0.17421	0.10015
0.14870	0.15117
0.07220	0.10015
0.07220	-0.25695
0.17421	-0.25695
0.12320	0.15117
0.19971	0.17668
0.17421	0.15117
0.12320	0.12566
0.12320	0.25320
0.04670	0.30422
0.17421	0.30422
0.19971	0.30422
0.25071	0.35523
0.19971	0.12566
0.14870	0.07465
0.17421	0.30422
0.12320	0.02363
0.09770	-0.15492
0.17421	-0.00188
0.12320	0.30422
0.22521	0.27871
0.19971	-0.46102
0.19971	0.73785
0.12320	0.32972
0.14870	-0.41000
0.14870	0.30422
0.12320	0.35523
0.07220	0.50828
0.14870	0.12566
0.14870	-0.15492
0.17421	0.32972
0.22521	0.20219
0.09770	0.02363
0.07220	0.04914
0.04670	0.10015
0.17421	0.07465
0.12320	0.15117
0.12320	0.22769
0.09770	0.22769
0.22521	0.10015
0.22521	0.17668
0.14870	0.15117
0.14870	0.15117
0.17421	-0.07840
0.02119	-0.05289
0.07220	-0.05289
0.07220	0.12566
0.17421	0.35523
0.19971	0.50828
0.22521	0.22769
0.22521	0.20219
0.12320	0.12566
0.09770	0.04914
0.07220	0.07465
0.04670	-0.10391
0.17421	0.32972
0.14870	0.22769
0.19971	0.32972
0.22521	0.25320
0.14870	0.30422
0.12320	-0.33348
0.12320	-1.04770
0.12320	0.12566
0.07220	0.55929
0.02119	0.45726
0.17421	0.55929
0.14870	0.55929
0.17421	0.25320
0.14870	-0.28246
0.17421	0.25320
0.22521	0.22769
0.14870	0.20219
0.14870	0.17668
0.14870	0.04914
0.04670	0.02363
0.09770	0.07465
0.14870	0.10015
0.12320	0.20219
0.07220	0.02363
0.07220	-0.07840
0.04670	0.15117
0.07220	0.17668
0.12320	0.27871
0.12320	0.22769
0.19971	0.22769
0.17421	0.15117
0.19971	0.22769
0.12320	0.04914
0.07220	0.07465
0.17421	0.15117
0.22521	0.30422
0.19971	0.25320
0.14870	0.38074
0.09770	0.04914
0.17421	-0.20594
0.09770	-0.18043
0.14870	0.07465
0.22521	0.38074
0.22521	0.22769
0.14870	-0.10391
0.07220	-0.02739
0.09770	0.27871
0.12320	0.40625
0.12320	0.22769
0.22521	0.35523
0.19971	0.30422
0.12320	0.22769
0.14870	0.07465
0.09770	0.04914
0.07220	0.02363
0.07220	-0.05289
0.09770	0.22769
0.09770	0.35523
0.07220	-0.05289
0.07220	-0.38449
0.09770	0.22769
0.07220	0.27871
0.07220	0.32972
0.07220	0.38074
0.04670	0.15117
0.07220	0.32972
0.07220	0.07465
0.09770	-0.46102
0.07220	0.02363
0.09770	-0.25695
0.12320	0.61031
0.19971	0.53379
0.12320	0.48277
0.12320	0.07465
0.22521	0.04914
0.22521	0.10015
0.22521	0.22769
0.19971	0.20219
0.07220	0.17668
0.12320	0.17668
0.14870	0.20219
0.12320	-0.07840
0.07220	-0.25695
0.17421	0.12566
0.14870	0.30422
0.14870	0.20219
0.14870	0.04914
0.07220	-0.02739
0.09770	0.25320
0.04670	0.30422
0.04670	0.25320
0.07220	0.12566
0.07220	0.17668
0.07220	-0.18043
0.07220	0.07465
0.09770	-0.05289
0.14870	0.15117
0.04670	0.27871
0.04670	0.17668
0.12320	0.12566
0.14870	0.20219
0.17421	0.04914
0.19971	0.12566
0.19971	0.25320
0.22521	0.04914
0.25071	-0.00188
0.22521	0.04914
0.17421	0.27871
0.14870	0.20219
0.19971	0.25320
0.17421	0.15117
0.22521	0.22769
0.14870	0.32972
0.14870	0.22769
0.12320	0.02363
0.17421	-0.10391
0.19971	0.45726
0.25071	0.07465
0.22521	-0.12942
0.22521	0.53379
0.19971	0.38074
0.19971	0.27871
0.19971	0.10015
0.22521	0.12566
0.19971	0.43176
0.19971	0.17668
0.19971	0.10015
0.22521	-0.12942
0.12320	-0.02739
0.19971	0.12566
0.22521	0.38074
0.22521	0.53379
0.22521	-0.02739
0.14870	-0.71609
0.14870	0.22769
0.14870	0.40625
0.09770	0.43176
0.07220	-0.05289
0.12320	0.22769
0.12320	0.04914
0.14870	0.30422
0.17421	0.27871
0.17421	0.15117
0.12320	0.02363
0.12320	0.04914
0.09770	0.12566
0.14870	0.07465
0.22521	0.25320
0.22521	0.02363
0.17421	0.15117
0.17421	0.15117
0.17421	0.20219
0.12320	0.15117
0.09770	0.22769
0.04670	0.15117
0.09770	0.15117
0.12320	-0.12942
0.07220	-0.23145
0.12320	0.35523
0.19971	0.20219
0.19971	0.25320
0.19971	0.35523
0.19971	0.22769
0.14870	0.17668
0.17421	0.04914
0.12320	0.15117
0.17421	0.12566
0.17421	0.07465
0.17421	0.12566
0.04670	0.22769
0.07220	-0.00188
0.07220	0.15117
0.07220	0.17668
0.12320	0.04914
0.14870	0.02363
0.09770	0.30422
0.12320	0.10015
0.12320	0.02363
0.25071	0.32972
0.22521	0.25320
0.19971	0.17668
0.12320	0.22769
0.17421	0.27871
0.17421	0.12566
0.17421	0.20219
0.14870	0.20219
0.14870	0.02363
0.09770	0.12566
0.09770	-0.05289
0.04670	-0.12942
0.07220	-0.61406
0.14870	0.48277
0.14870	0.40625
0.14870	0.04914
0.22521	0.43176
0.25071	0.53379
0.14870	0.38074
0.12320	0.22769
0.07220	0.04914
0.07220	0.25320
0.12320	-0.02739
0.14870	-0.00188
0.12320	0.02363
0.12320	0.15117
0.22521	0.10015
0.25071	-0.00188
0.22521	0.15117
0.17421	0.27871
0.19971	0.30422
0.12320	0.27871
0.09770	-0.02739
0.09770	-0.48652
0.14870	0.25320
0.14870	0.50828
0.25071	0.43176
0.14870	0.25320
0.22521	0.04914
0.17421	-0.05289
0.12320	0.40625
0.19971	0.20219
0.22521	0.38074
0.14870	0.32972
0.14870	0.20219
0.14870	0.15117
0.14870	0.15117
0.09770	-0.05289
0.14870	-0.00188
0.12320	0.10015
0.14870	0.12566
0.22521	0.15117
0.12320	0.22769
0.17421	0.04914
0.09770	0.12566
0.14870	0.32972
0.14870	0.32972
0.22521	0.12566
0.12320	-0.28246
0.12320	-0.07840
0.12320	0.32972
0.04670	0.40625
0.09770	0.43176
0.09770	0.30422
0.17421	0.02363
0.14870	0.20219
0.12320	0.25320
0.14870	0.02363
0.17421	-0.71609
0.17421	0.17668
0.22521	0.35523
0.12320	0.17668
0.14870	0.15117
0.07220	0.20219
0.12320	0.17668
0.14870	0.17668
0.14870	0.22769
0.14870	0.22769
0.22521	0.17668
0.12320	0.10015
0.19971	0.12566
0.22521	0.25320
0.14870	0.22769
0.14870	0.22769
0.17421	0.17668
0.09770	0.04914
0.12320	0.02363
0.17421	0.32972
0.07220	0.15117
0.14870	0.02363
0.12320	0.15117
0.12320	0.17668
0.12320	0.15117
0.12320	0.12566
0.14870	0.25320
0.17421	0.35523
0.09770	0.12566
0.19971	0.12566
0.14870	0.20219
0.14870	0.00000
0.09770	0.15117
0.07220	0.07465
0.07220	-0.00188
0.07220	0.10015
0.07220	0.17668
0.12320	0.15117
0.02119	-0.02739
0.09770	0.17668
0.17421	0.17668
0.14870	0.20219
0.12320	0.25320
0.12320	0.15117
0.12320	0.04914
0.19971	0.15117
0.19971	0.15117
0.22521	0.15117
0.22521	0.25320
0.22521	0.35523
0.19971	0.12566
0.22521	-0.15492
0.19971	0.20219
0.19971	0.07465
0.25071	-0.12942
0.19971	0.45726
0.22521	0.61031
0.12320	0.38074
0.14870	0.25320
0.12320	0.27871
0.14870	0.04914
0.22521	-0.05289
0.22521	0.15117
0.22521	0.04914
0.17421	0.07465
0.12320	0.38074
0.12320	-0.07840
0.14870	-0.56305
0.22521	0.25320
0.19971	0.38074
0.12320	0.45726
0.09770	0.20219
0.02119	-0.43551
0.07220	0.15117
0.14870	0.25320
0.22521	0.27871
0.22521	0.20219
0.14870	0.27871
0.14870	0.17668
0.22521	0.20219
0.14870	0.25320
0.12320	0.15117
0.17421	0.07465
0.12320	0.30422
0.09770	0.32972
0.07220	-0.05289
0.07220	-0.38449
0.07220	0.22769
0.12320	0.32972
0.14870	0.22769
0.12320	0.43176
0.14870	0.50828
0.19971	0.12566
0.19971	-0.05289
0.19971	-0.35899
0.14870	0.20219
0.17421	0.40625
0.09770	0.50828
0.14870	0.45726
0.12320	0.25320
0.14870	-0.02739
0.12320	0.02363
0.14870	0.15117
0.12320	0.38074
0.09770	0.15117
0.07220	0.15117
0.09770	0.20219
0.07220	0.12566
0.12320	0.04914
0.12320	-0.00188
0.12320	0.32972
0.17421	0.12566
0.17421	0.07465
0.22521	0.07465
0.17421	0.20219
0.09770	0.32972
0.07220	0.17668
0.17421	0.10015
0.22521	0.04914
0.19971	0.20219
0.17421	0.30422
0.12320	0.10015
0.14870	0.17668
0.02119	0.15117
0.07220	0.15117
0.17421	-0.56305
0.17421	0.07465
0.14870	-0.00188
0.22521	0.38074
0.14870	0.53379
0.14870	0.35523
0.09770	0.35523
0.12320	0.25320
0.12320	0.12566
0.19971	0.07465
0.17421	-0.20594
0.22521	-0.30797
0.17421	-0.12942
0.12320	0.50828
0.14870	0.38074
0.07220	0.17668
0.12320	0.20219
0.19971	0.30422
0.19971	0.04914
0.22521	0.15117
0.19971	0.25320
0.12320	-0.02739
0.09770	-0.07840
0.09770	0.12566
0.17421	0.04914
0.17421	0.25320
0.25071	0.40625
0.14870	0.10015
0.09770	0.15117
0.14870	0.04914
0.14870	0.15117
0.09770	0.20219
0.09770	0.02363
0.07220	0.07465
0.12320	0.20219
0.12320	0.35523
0.12320	0.25320
0.22521	-0.25695
0.14870	-0.12942
0.12320	0.35523
0.14870	0.30422
0.17421	0.25320
0.12320	0.55929
0.12320	0.76336
0.12320	-0.33348
0.12320	-1.20074
0.09770	-0.86914
0.04670	-0.05289
0.04670	1.09496
0.07220	0.96742
0.02119	1.27351
0.09770	0.48277
0.25071	-0.18043
0.27621	-1.17523
0.19971	1.29902
-0.36133	0.91640
-0.25932	1.27351
0.30171	-2.27207
0.35272	-5.07792
-0.08081	0.32972
-0.20832	0.81437
0.30171	1.37554
0.42922	4.51299
0.65874	5.73737
0.22521	-4.13413
-0.00431	-9.38873
0.48022	3.33964
0.25071	2.62542
-0.38683	1.37554
-1.12638	0.30422
0.73524	-1.12422
-0.20832	-3.98109
-0.87136	3.51819
1.21977	-2.32308
2.11233	-0.05289
-0.43783	6.34955
-0.13181	-2.27207
1.90832	2.70194
0.30171	-3.57296
-5.38515	6.70666
-0.97337	-4.69530
1.29628	1.04394
2.69887	1.22250
1.27078	2.75296
1.70430	-11.68442
2.39285	-5.84315
0.32721	3.31413
0.30171	15.09871
1.52579	1.14597
-4.62010	-9.08263
-5.69117	-5.05241
-0.82036	-1.07320
1.72980	2.06425
1.21977	8.18611
1.83181	4.38546
1.88281	1.14597
1.06676	-4.23616
0.32721	0.17668
-0.36133	-0.41000
-0.94787	-0.99668
-0.69285	-5.71561
-0.46334	-6.63389
-0.36133	2.39585
-0.08081	8.95134
0.25071	2.47238
0.83725	-8.41943
0.83725	-0.51203
0.58223	1.19699
-0.41233	0.71234
-0.02981	3.08456
-0.28482	2.26831
0.60773	0.04914
-0.15732	0.32972
-0.41233	6.78318
0.88825	-15.76567
0.88825	-0.02739
0.99026	-0.12942
0.45472	1.06945
0.30171	4.53850
0.30171	-0.51203
0.12320	3.23761
0.19971	-3.75152
-0.66735	-4.05761
-0.94787	1.88570
-1.15188	3.41616
0.02119	-1.88945
0.50573	0.50828
1.14327	2.72745
-0.94787	3.36515
0.22521	-2.88425
0.78624	-1.35379
0.81175	-0.23145
0.35272	1.52859
0.14870	3.82429
0.45472	3.90081
0.17421	-5.51155
-0.25932	-5.94518
-0.13181	-4.00659
-0.05531	1.70714
0.86275	3.51819
0.96476	0.38074
0.35272	3.77327
0.70974	4.02835
-1.30489	2.39585
-2.35046	-9.46525
-0.71835	5.12518
1.98482	-9.72033
0.32721	0.96742
0.58223	-6.88897
1.34728	3.08456
1.11776	4.79358
0.60773	2.80397
0.12320	0.71234
-0.15732	2.57441
-0.23382	5.07416
-0.38683	-0.79262
-0.38683	-9.18467
-0.56534	-6.88897
-0.10631	0.94191
0.04670	4.15589
0.04670	4.13038
-1.35589	1.73265
-1.04987	-1.48133
0.83725	-1.78742
0.48022	-2.45062
0.86275	0.53379
1.24527	2.90601
0.63323	6.65564
-0.00431	-6.93998
0.32721	-5.30749
-0.28482	-1.60887
0.40372	1.32453
0.63323	2.26831
0.50573	2.26831
0.35272	2.65093
0.14870	-1.17523
0.99026	0.91640
1.09226	2.93151
-1.38139	3.64573
-2.14644	-6.30229
-1.48340	-4.56776
0.78624	-0.84363
0.65874	1.12046
0.78624	1.06945
1.24527	1.78367
1.29628	2.72745
0.81175	1.78367
-0.20832	-0.92016
-0.36133	1.40105
0.02119	1.45206
-0.02981	0.89089
0.04670	-8.01131
-0.61635	2.19179
-0.64185	-2.14453
0.25071	-2.27207
0.68424	1.17148
0.53123	1.37554
0.35272	4.66604
0.25071	0.66132
0.27621	3.08456
0.04670	0.63582
0.07220	-0.74160
-0.05531	-2.11902
0.19971	-1.12422
0.37822	-0.74160
-0.53984	2.11527
-0.41233	1.86019
0.30171	1.50308
-0.05531	0.35523
0.55673	0.27871
0.55673	-0.05289
0.68424	-0.46102
0.45472	-1.68539
-0.15732	-0.71609
0.27621	-0.30797
0.40372	1.83468
-0.48884	-4.84835
-0.74385	2.42136
0.35272	2.03874
-0.51434	2.75296
-0.41233	-6.73592
0.53123	-4.13413
1.09226	5.53330
0.73524	2.90601
0.55673	-5.56257
0.25071	1.91120
-0.05531	3.28862
0.09770	0.55929
-0.51434	0.55929
-0.23382	7.95654
0.14870	-7.73072
0.14870	-3.93007
0.04670	4.07936
0.17421	4.07936
0.40372	-4.33819
0.14870	-3.77702
-0.00431	-0.66508
0.02119	0.12566
0.12320	2.90601
0.32721	1.47757
0.55673	0.32972
0.48022	2.31933
0.19971	-0.84363
-0.84586	-0.66508
0.19971	-0.86914
1.01576	0.25320
0.27621	2.95702
-0.99887	-8.08783
-0.59084	-1.09871
0.70974	3.90081
1.01576	3.41616
0.02119	2.65093
-0.13181	-3.67499
-0.51434	-0.41000
1.01576	2.39585
0.99026	3.67124
1.01576	1.04394
0.02119	2.49788
-1.33039	-4.56776
-0.15732	-0.89465
0.32721	3.26312
-0.02981	0.86539
-0.23382	-3.82804
0.02119	-2.11902
-0.08081	-0.81812
0.22521	1.63062
0.27621	2.93151
0.63323	2.14077
0.70974	-6.76143
-0.08081	-5.99620
-0.84586	4.05386
-0.18282	2.16628
0.48022	3.46718
0.73524	0.99292
0.76074	0.35523
0.25071	2.08976
-0.00431	3.67124
0.32721	-3.16484
0.04670	1.96222
0.35272	-6.63389
-0.10631	-7.32260
-0.33583	1.04394
-0.15732	2.80397
-0.41233	2.88050
0.14870	1.78367
0.14870	1.83468
0.58223	0.48277
-0.00431	1.19699
0.35272	-0.35899
-0.00431	0.07465
0.81175	1.45206
1.37278	3.64573
-0.02981	-9.46525
-1.15188	-5.35850
-1.61091	-0.23145
-0.51434	0.53379
0.17421	2.19179
1.14327	-0.41000
1.11776	0.17668
0.63323	1.45206
-0.00431	1.42656
0.22521	2.39585
0.19971	1.80917
-0.15732	0.99292
-0.28482	3.00804
0.02119	-1.58336
-0.46334	-2.19554
-0.51434	0.96742
-0.25932	0.86539
0.12320	-3.70050
0.25071	-1.45582
0.25071	-6.50635
0.42922	5.20170
0.42922	-0.69059
0.12320	-2.17003
0.42922	-3.31788
0.12320	1.60511
-0.20832	3.33964
-0.43783	3.72225
0.22521	3.28862
0.58223	1.96222
0.81175	0.38074
0.55673	0.58480
0.37822	-0.23145
-0.46334	-1.09871
0.22521	-0.94566
0.25071	-0.33348
0.53123	-0.30797
-0.76936	-3.95558
-0.61635	-1.53234
0.42922	3.00804
0.40372	0.73785
0.58223	-2.11902
0.45472	-0.05289
0.63323	-0.05289
0.42922	0.76336
0.04670	4.43647
0.32721	5.71186
0.04670	-7.27159
-1.12638	1.86019
-0.89686	3.13558
0.53123	-7.27159
0.30171	0.73785
0.35272	3.23761
0.60773	1.35003
0.53123	0.86539
0.40372	0.96742
0.12320	2.42136
-0.10631	-2.57816
0.14870	-0.63957
0.30171	-1.48133
0.14870	0.55929
0.02119	0.43176
0.14870	-0.20594
0.22521	-2.65468
0.12320	0.43176
-0.25932	0.91640
0.04670	0.91640
0.25071	0.45726
0.19971	1.09496
-0.28482	0.76336
-0.28482	-1.35379
0.42922	-0.61406
0.70974	-0.63957
0.60773	0.20219
0.45472	1.78367
0.65874	2.95702
0.07220	0.89089
-0.89686	-0.92016
-0.79486	0.99292
-0.23382	3.13558
0.73524	-2.01699
0.68424	-0.02739
0.60773	1.47757
0.70974	-0.76711
0.25071	-3.54745
-0.23382	-2.52714
-0.31033	-0.84363
0.27621	2.85499
0.48022	-1.22625
0.17421	1.09496
0.19971	1.65613
-0.08081	0.63582
-2.06994	-0.33348
-0.46334	0.86539
1.19427	2.31933
1.52579	2.31933
1.52579	-7.52666
0.07220	-0.76711
-0.25932	2.90601
0.14870	0.96742
0.22521	2.67644
0.17421	0.48277
0.12320	-2.19554
-0.05531	-1.17523
-0.00431	-1.65988
0.09770	0.63582
0.07220	2.80397
0.22521	4.58952
0.25071	-3.47093
0.02119	0.07465
-0.00431	3.21210
0.25071	-1.99148
-0.10631	-3.67499
0.02119	0.38074
0.14870	0.61031
0.40372	2.42136
0.55673	1.60511
0.30171	-0.02739
0.37822	0.58480
0.35272	1.78367
0.17421	-4.74632
-0.51434	0.17668
-0.46334	-0.28246
0.14870	0.63582
0.42922	1.06945
0.70974	0.45726
0.48022	-0.30797
0.35272	-4.21066
-0.23382	4.05386
-0.00431	-0.18043
0.78624	-3.90456
-0.84586	1.19699
-1.22839	1.80917
-0.51434	0.78886
0.32721	2.72745
0.93925	4.48749
0.73524	-5.94518
0.99026	0.96742
-0.28482	0.38074
-1.50890	1.52859
-0.33583	-3.67499
0.88825	-0.38449
0.76074	-0.56305
0.53123	1.27351
0.40372	1.57960
0.27621	0.04914
0.07220	2.62542
0.32721	4.10487
0.40372	-2.68019
-0.48884	-4.79733
-0.99887	-0.69059
-0.48884	-3.11382
0.32721	0.73785
0.25071	2.37034
0.32721	3.03355
0.76074	1.96222
0.32721	-3.72601
0.07220	-0.46102
-0.18282	1.17148
0.30171	-0.81812
0.32721	1.04394
0.12320	1.88570
0.32721	-0.97117
0.48022	2.72745
-0.08081	-1.71090
-0.20832	-1.20074
0.30171	0.91640
0.17421	1.06945
-0.43783	1.06945
-0.02981	-1.04770
0.09770	-3.80253
0.93925	2.75296
0.53123	-3.62398
-0.46334	-0.43551
0.32721	1.57960
0.42922	2.01323
-0.08081	-0.76711
0.04670	2.34484
0.35272	3.59471
0.42922	2.59991
0.19971	-0.94566
-0.23382	-2.73121
-0.15732	0.66132
0.09770	-1.27726
0.19971	-0.05289
-0.02981	0.50828
-0.33583	0.94191
0.22521	-0.71609
0.42922	0.61031
0.22521	-0.05289
0.19971	-0.97117
-0.02981	-2.60367
0.35272	-0.38449
-0.13181	1.24800
0.17421	3.31413
0.32721	1.86019
0.58223	3.00804
1.04126	1.45206
0.83725	-6.91448
-1.04987	-0.05289
-2.17195	2.59991
0.22521	-7.29709
0.70974	1.37554
1.06676	2.67644
0.70974	0.91640
0.35272	2.85499
0.30171	1.19699
0.14870	1.24800
0.25071	0.91640
-0.38683	0.04914
-0.66735	0.12566
0.27621	-3.75152
0.30171	0.10015
0.14870	-1.37929
0.35272	-0.56305
0.37822	-0.38449
0.07220	1.09496
-0.23382	-0.61406
0.14870	1.37554
-0.08081	4.18139
-0.00431	-1.65988
0.25071	-4.10862
0.37822	2.77847
0.19971	-0.63957
0.04670	-0.28246
0.14870	-0.43551
-0.20832	4.79358
0.17421	0.91640
0.02119	1.09496
0.32721	0.89089
0.25071	0.86539
0.19971	0.94191
0.40372	1.19699
-0.00431	-0.92016
-0.51434	-1.22625
-0.31033	-2.98628
-0.92237	-2.27207
0.63323	0.94191
0.68424	-0.46102
0.30171	-1.71090
-0.08081	1.47757
0.12320	2.26831
0.83725	2.49788
0.63323	2.39585
-0.13181	-1.45582
-0.00431	-1.43031
0.14870	2.72745
-0.08081	2.03874
-0.05531	-5.17995
-0.02981	-1.99148
0.19971	-0.00188
0.19971	1.22250
0.30171	1.32453
0.27621	2.24281
0.27621	1.86019
0.25071	-1.53234
0.04670	-3.13933
0.32721	0.55929
0.19971	-6.83795
-0.38683	-0.63957
-0.10631	3.31413
0.12320	2.88050
0.83725	3.51819
0.53123	5.78838
0.30171	-3.87905
0.12320	-0.76711
0.58223	-2.11902
0.45472	-5.25647
-0.79486	1.19699
-0.05531	1.80917
-0.13181	0.58480
0.45472	1.57960
0.48022	1.27351
0.40372	0.96742
0.14870	0.76336
0.22521	-0.18043
0.07220	-3.90456
-0.02981	-0.94566
-0.46334	0.94191
-0.61635	0.48277
-0.08081	0.45726
0.83725	0.86539
0.91375	1.68163
0.27621	0.76336
-0.23382	-0.76711
-0.64185	-0.51203
0.32721	0.55929
1.24527	2.67644
0.50573	2.57441
-0.69285	-5.20546
-0.48884	-5.84315
0.78624	1.09496
0.76074	2.85499
0.37822	3.49268
0.32721	2.75296
0.19971	0.91640
0.12320	-0.71609
-0.02981	2.52339
-0.25932	2.65093
-0.38683	-6.48085
0.02119	-4.08312
0.12320	-0.23145
0.30171	0.04914
0.37822	3.95182
0.14870	0.22769
0.02119	0.10015
0.17421	1.96222
0.45472	-4.89936
0.22521	-0.92016
0.48022	1.68163
0.30171	3.77327
0.42922	-2.70570
0.27621	1.29902
0.04670	0.48277
0.04670	1.93671
0.22521	2.08976
0.25071	-1.37929
-0.05531	-1.40480
-0.23382	0.76336
-0.08081	1.70714
-0.02981	2.90601
0.50573	-3.39441
0.37822	-3.03730
0.19971	0.35523
0.45472	-1.81293
0.37822	1.65613
-0.46334	2.26831
0.32721	2.29382
0.53123	0.66132
0.53123	-0.12942
0.81175	-1.58336
0.45472	2.08976
0.14870	0.83988
-1.07538	-3.16484
-0.28482	-0.66508
-0.08081	1.57960
0.53123	2.80397
0.58223	0.40625
0.04670	-2.39961
-0.02981	0.76336
0.58223	0.45726
0.53123	-2.45062
0.53123	0.66132
0.02119	0.71234
-0.00431	0.89089
-0.08081	1.86019
0.17421	0.78886
0.14870	-0.33348
0.09770	0.66132
0.12320	-1.07320
0.25071	-0.69059
0.32721	0.25320
0.45472	-0.46102
-0.02981	-0.94566
-0.84586	1.27351
0.02119	0.96742
0.12320	4.13038
0.48022	2.44687
0.32721	-10.12845
0.48022	-0.66508
0.14870	1.65613
0.02119	1.88570
-0.02981	2.57441
0.55673	2.29382
-0.00431	0.71234
0.32721	1.91120
0.30171	1.37554
0.22521	-3.01179
0.07220	-1.40480
-0.31033	-0.84363
-0.43783	0.76336
-0.05531	0.04914
0.14870	-0.00188
0.35272	0.89089
0.42922	0.50828
0.68424	1.29902
0.48022	-1.60887
-0.13181	-1.20074
0.02119	2.14077
-0.53984	0.15117
0.17421	-0.35899
0.42922	-3.16484
0.73524	1.27351
0.73524	1.57960
-0.10631	0.30422
-0.38683	2.14077
0.09770	2.77847
0.17421	-2.11902
0.17421	-0.71609
0.12320	0.48277
-0.13181	0.15117
-0.33583	0.86539
0.30171	1.96222
0.35272	-0.79262
0.32721	-3.21585
0.14870	0.40625
0.19971	0.58480
-0.48884	0.20219
-0.10631	-0.71609
0.35272	0.81437
0.53123	2.08976
0.60773	-0.07840
0.48022	0.20219
0.09770	0.53379
-0.18282	-4.05761
0.42922	-0.28246
-0.18282	0.02363
-0.02981	1.68163
0.09770	4.58952
0.42922	-0.97117
0.60773	0.76336
0.40372	2.26831
0.55673	-0.66508
-0.02981	0.04914
-0.36133	-2.09351
-0.10631	0.40625
0.19971	0.71234
0.40372	2.21730
0.32721	1.52859
0.30171	-0.69059
0.07220	-3.93007
0.32721	-0.56305
0.02119	0.25320
0.02119	-1.37929
0.30171	2.24281
0.55673	1.29902
-0.10631	-1.63437
-0.18282	2.26831
0.12320	0.53379
0.32721	-0.07840
0.19971	-0.15492
0.02119	-0.15492
0.37822	-0.76711
0.37822	0.73785
0.07220	0.63582
0.12320	1.14597
0.32721	1.04394
0.37822	3.31413
-0.10631	-3.36890
-0.20832	-1.60887
-0.28482	-2.19554
-0.33583	-0.46102
0.32721	1.75816
-0.08081	0.76336
0.45472	0.86539
0.68424	1.06945
0.37822	0.99292
-0.02981	1.14597
0.40372	0.99292
0.40372	0.61031
0.14870	-1.25176
-0.08081	-0.76711
0.02119	-0.12942
-0.33583	1.19699
-0.82036	-0.07840
0.12320	-1.04770
0.04670	-6.30229
0.93925	0.73785
0.50573	2.59991
0.45472	2.85499
0.48022	1.52859
0.42922	2.88050
0.09770	1.80917
-0.25932	-2.17003
0.04670	-0.15492
-0.00431	-1.55785
-0.25932	1.35003
-0.25932	1.83468
0.32721	2.42136
0.50573	-1.53234
0.48022	-4.64429
-0.00431	-2.80773
-0.08081	1.78367
-0.08081	2.80397
0.55673	-0.63957
0.27621	2.21730
0.14870	1.55410
0.19971	-2.55265
0.60773	0.27871
0.14870	0.73785
-0.31033	0.68683
-0.51434	0.15117
0.42922	0.32972
0.50573	0.27871
0.50573	-1.40480
0.32721	-0.86914
0.25071	0.02363
0.02119	1.93671
0.14870	2.49788
-0.08081	2.57441
-0.43783	-9.26119
0.27621	-1.07320
0.27621	1.40105
0.22521	2.03874
0.12320	2.44687
-0.08081	2.80397
-0.53984	2.03874
-0.15732	0.66132
0.45472	-1.35379
0.78624	-1.94047
0.58223	-1.20074
0.42922	0.50828
0.07220	-0.10391
-0.48884	0.04914
0.17421	1.04394
0.58223	1.14597
-0.10631	0.71234
0.07220	2.34484
0.22521	-3.62398
0.12320	-0.46102
-0.18282	-5.28198
0.25071	-0.00188
0.17421	2.47238
-0.92237	1.55410
-0.05531	2.11527
0.40372	2.37034
0.35272	1.68163
0.65874	1.29902
0.32721	-4.15964
0.17421	1.47757
-0.05531	-2.62918
0.02119	-2.14453
0.40372	-0.35899
0.02119	2.01323
0.30171	2.16628
0.12320	1.68163
0.32721	0.96742
0.25071	1.96222
0.35272	-2.93527
0.22521	-2.14453
-0.69285	0.25320
-0.20832	-1.02219
0.27621	1.22250
0.32721	-0.41000
-0.28482	2.77847
0.37822	-1.86394
1.21977	0.43176
0.04670	-2.62918
-0.48884	1.04394
-0.71835	0.27871
0.68424	0.71234
0.65874	1.93671
0.09770	0.10015
0.30171	3.72225
0.45472	-3.39441
-0.02981	-2.75671
0.07220	-0.51203
0.12320	0.22769
-0.02981	1.19699
0.22521	1.32453
0.07220	1.32453
-0.08081	-0.61406
0.09770	-0.00188
0.17421	1.29902
0.14870	0.58480
0.07220	1.12046
0.45472	-0.12942
0.53123	-0.66508
0.04670	0.53379
-0.61635	-5.91967
-0.02981	-1.27726
0.12320	1.04394
0.58223	1.96222
0.55673	2.44687
0.45472	1.06945
0.25071	-2.78222
0.02119	0.40625
-0.05531	-1.02219
0.09770	0.53379
0.09770	0.07465
0.02119	1.57960
0.30171	0.50828
-0.15732	1.55410
0.35272	2.37034
0.45472	0.83988
0.17421	-4.61878
-0.23382	-3.59847
-0.08081	0.63582
0.22521	1.47757
0.22521	1.93671
0.22521	1.04394
0.12320	-0.02739
0.12320	-0.15492
0.19971	0.66132
0.17421	1.75816
0.30171	1.14597
0.04670	-0.92016
-0.05531	0.83988
-0.08081	-1.22625
0.14870	-0.38449
0.22521	0.15117
0.32721	0.61031
0.27621	0.32972
0.25071	-0.15492
0.17421	-0.25695
0.07220	1.52859
0.02119	1.55410
0.22521	-3.77702
0.27621	-1.88945
-0.02981	1.42656
-0.38683	2.90601
-0.23382	1.09496
0.55673	-1.81293
0.53123	0.32972
0.19971	0.17668
-0.28482	2.54890
0.63323	-2.70570
0.27621	0.76336
0.12320	1.86019
0.17421	-0.46102
0.25071	-0.74160
0.09770	-0.28246
0.02119	0.96742
0.09770	-0.10391
0.12320	0.66132
0.19971	3.08456
0.14870	-5.17995
0.07220	0.30422
-0.23382	-0.25695
-0.18282	1.29902
0.25071	1.01843
0.27621	1.06945
0.37822	0.58480
0.40372	0.91640
0.19971	0.68683
0.14870	-0.86914
0.14870	0.76336
0.19971	-2.98628
0.19971	1.17148
0.25071	-2.19554
-0.00431	-0.81812
0.04670	2.16628
0.25071	2.19179
-0.23382	-0.25695
-0.84586	-0.15492
-0.23382	-1.32828
0.76074	0.91640
0.68424	0.94191
0.50573	-0.15492
0.70974	0.10015
0.63323	0.58480
0.27621	-0.25695
-0.41233	1.47757
-0.13181	-0.15492
0.02119	0.71234
-0.20832	1.12046
0.04670	2.37034
0.40372	-2.88425
0.45472	-0.10391
0.27621	-3.52195
-0.02981	1.04394
-0.76936	-0.76711
0.02119	1.78367
0.17421	1.14597
0.48022	1.37554
0.25071	2.29382
0.48022	1.35003
0.17421	-2.29757
-0.18282	-2.01699
-0.15732	-1.12422
0.22521	-0.79262
0.04670	-0.43551
-0.13181	1.68163
0.40372	3.21210
0.42922	0.99292
0.40372	-1.32828
0.32721	-4.33819
-0.23382	0.30422
-0.53984	1.96222
-0.28482	1.37554
0.02119	-1.25176
0.68424	0.45726
0.45472	-0.02739
0.32721	1.04394
0.32721	-0.15492
-0.13181	-2.39961
-0.43783	0.20219
0.50573	0.66132
0.68424	0.40625
0.48022	1.88570
0.22521	3.00804
-0.13181	1.06945
0.09770	-2.24656
0.14870	-2.73121
0.02119	-5.07792
0.07220	-3.72601
0.19971	2.65093
0.09770	2.37034
-0.13181	2.24281
0.12320	2.62542
0.27621	2.95702
0.04670	-0.53754
0.14870	-0.63957
0.12320	0.81437
0.32721	-2.34859
-0.08081	-3.54745
0.35272	0.68683
0.09770	1.06945
0.02119	-0.07840
0.09770	1.19699
0.07220	-1.09871
0.19971	0.73785
0.30171	0.58480
0.68424	1.27351
0.07220	-1.40480
-1.25389	0.45726
-0.82036	0.53379
0.88825	0.22769
0.63323	0.22769
0.17421	0.04914
-0.20832	0.89089
0.53123	1.19699
0.78624	0.20219
0.73524	-0.69059
-0.23382	-2.24656
-0.61635	0.76336
-0.79486	2.57441
0.32721	1.19699
0.63323	-2.75671
0.58223	-5.71561
-0.00431	1.40105
0.19971	3.13558
-0.00431	2.70194
-0.28482	-1.25176
0.35272	0.07465
0.48022	1.78367
0.02119	3.11007
-0.87136	-3.31788
0.19971	0.02363
0.50573	0.35523
-0.13181	0.15117
-0.61635	2.01323
0.48022	-1.83844
0.93925	-4.74632
-0.02981	-0.86914
0.27621	0.91640
0.42922	1.47757
0.09770	-0.35899
-0.18282	0.61031
-0.02981	1.86019
0.22521	2.82948
0.91375	1.37554
0.70974	-6.78694
-1.61091	0.55929
-0.48884	0.99292
0.17421	1.47757
-1.04987	1.22250
0.55673	-0.58856
1.01576	0.61031
0.93925	0.02363
0.86275	0.43176
0.60773	0.76336
-0.05531	0.78886
-0.02981	-1.07320
-0.28482	0.63582
-0.00431	0.20219
0.04670	-0.02739
0.12320	-4.66979
-0.15732	0.53379
0.07220	0.58480
0.09770	-0.74160
0.09770	2.59991
0.07220	5.15069
0.22521	0.15117
0.09770	2.01323
0.02119	0.78886
-0.10631	-0.05289
0.93925	-2.42511
0.55673	-1.07320
-0.13181	0.02363
-0.20832	-0.25695
0.48022	0.76336
0.68424	-0.86914
0.09770	1.17148
0.48022	0.68683
-0.00431	-3.29238
-0.46334	1.01843
0.42922	-4.49124
0.22521	2.03874
-0.20832	2.26831
0.35272	0.48277
0.40372	0.99292
0.12320	0.25320
-0.38683	2.14077
-0.13181	0.91640
0.30171	0.94191
0.19971	-2.09351
0.19971	-2.01699
0.12320	-0.07840
0.27621	0.07465
0.63323	1.19699
-0.15732	-2.22105
-0.48884	1.55410
-0.28482	-0.89465
0.65874	0.43176
0.60773	0.02363
0.58223	4.64053
0.50573	-8.34291
0.12320	0.81437
0.12320	2.21730
0.25071	2.47238
-0.13181	-0.35899
-0.08081	0.81437
-0.23382	1.75816
-0.13181	-0.12942
0.58223	0.30422
-0.23382	-0.46102
-0.38683	1.70714
0.09770	-5.66460
0.96476	0.68683
0.42922	0.48277
0.30171	-0.02739
0.25071	-0.86914
0.04670	1.14597
0.14870	1.35003
0.12320	-0.02739
0.09770	-0.69059
-0.56534	0.20219
-0.13181	0.81437
0.45472	0.83988
0.60773	0.50828
0.45472	0.17668
0.14870	0.58480
-0.20832	1.19699
-0.18282	1.29902
0.48022	0.25320
0.17421	-0.84363
-0.08081	-4.49124
0.22521	1.98773
0.50573	-0.10391
0.40372	-3.11382
-0.28482	0.78886
-0.43783	1.37554
0.07220	2.44687
0.19971	4.38546
0.17421	-2.96078
0.32721	1.06945
0.55673	1.93671
0.73524	0.81437
0.25071	-2.32308
-0.94787	-0.97117
-0.10631	-0.56305
0.37822	0.43176
0.45472	-0.66508
0.14870	-0.28246
0.22521	0.53379
0.30171	0.43176
0.19971	1.60511
0.12320	2.90601
-0.08081	-3.49644
-0.10631	-0.99668
-0.08081	1.98773
0.19971	-2.45062
0.30171	-1.73640
0.22521	1.40105
0.37822	2.39585
0.32721	2.95702
-0.18282	0.96742
-0.89686	-1.22625
0.50573	1.29902
0.53123	0.76336
0.09770	0.40625
-0.18282	0.78886
0.73524	-0.71609
0.42922	-0.43551
-0.05531	-0.53754
0.19971	0.10015
0.35272	-0.66508
0.12320	1.68163
0.12320	-1.86394
-0.64185	0.30422
0.09770	-3.52195
0.19971	-2.32308
0.04670	2.24281
0.09770	2.21730
0.14870	2.11527
0.17421	1.70714
0.35272	1.01843
0.30171	0.96742
0.12320	0.66132
-0.00431	1.24800
0.02119	-1.53234
0.09770	-5.66460
0.09770	-0.38449
0.32721	0.45726
0.27621	0.63582
0.14870	0.94191
0.09770	0.17668
0.14870	1.52859
0.09770	0.53379
0.04670	-0.71609
0.07220	0.48277
0.19971	0.15117
0.25071	0.86539
0.12320	-0.53754
0.09770	-0.15492
0.22521	-0.28246
0.19971	0.15117
0.37822	0.10015
0.30171	-0.10391
-0.05531	0.61031
-0.53984	0.63582
0.35272	1.45206
0.53123	0.35523
0.48022	-3.03730
0.32721	-0.69059
0.07220	0.73785
0.09770	1.70714
0.07220	0.17668
-0.10631	1.04394
0.14870	1.52859
0.37822	-1.40480
0.17421	0.35523
-0.08081	0.66132
-0.28482	1.04394
0.45472	-1.58336
-0.08081	-0.12942
-0.36133	0.91640
0.37822	-1.12422
0.37822	0.58480
0.14870	0.25320
0.07220	0.15117
0.22521	0.81437
0.35272	3.77327
0.19971	-1.88945
-0.08081	-5.33300
-0.15732	0.50828
0.09770	0.94191
0.17421	1.42656
0.02119	2.88050
-0.00431	1.52859
0.04670	0.35523
0.25071	0.25320
0.55673	-1.22625
0.42922	-1.27726
0.17421	-0.35899
0.19971	1.27351
-0.15732	0.43176
-0.28482	0.48277
-0.31033	1.01843
0.12320	0.86539
0.58223	-0.10391
0.35272	-1.09871
0.53123	0.96742
0.27621	-3.49644
-0.13181	-0.76711
0.19971	3.51819
0.04670	0.96742
-0.20832	-3.36890
-0.59084	1.55410
0.27621	-2.98628
0.37822	1.91120
0.40372	2.03874
0.35272	0.66132
0.17421	0.68683
0.30171	0.78886
0.27621	1.57960
0.17421	0.96742
-0.13181	0.71234
-0.18282	-0.66508
0.02119	-1.30277
0.48022	-1.09871
0.22521	-2.73121
-0.28482	-1.60887
-0.38683	-1.25176
0.53123	2.06425
0.48022	3.00804
0.53123	2.82948
0.58223	-1.43031
0.42922	-0.89465
-0.48884	0.55929
-0.13181	1.22250
0.60773	1.09496
-0.15732	0.45726
-0.05531	1.32453
-0.00431	-0.00188
0.27621	0.45726
0.22521	0.20219
0.14870	-1.32828
0.27621	-2.32308
0.14870	-2.29757
0.19971	0.27871
-0.02981	1.60511
-0.18282	2.24281
-0.15732	0.02363
0.32721	-0.05289
-0.00431	-3.01179
-0.13181	-0.74160
0.45472	1.52859
0.40372	1.80917
0.35272	1.68163
0.14870	2.77847
0.42922	0.58480
0.25071	-0.84363
0.07220	-0.58856
-1.58541	0.53379
-0.43783	-0.46102
0.93925	-2.60367
0.81175	-1.04770
0.55673	-0.53754
0.35272	0.78886
0.09770	0.81437
0.09770	1.73265
0.17421	1.35003
0.25071	-2.09351
0.14870	-0.10391
0.12320	-0.43551
-0.02981	1.86019
-0.20832	0.25320
-0.10631	0.50828
0.17421	0.35523
0.27621	0.32972
0.32721	-0.38449
0.19971	0.10015
-0.05531	0.38074
-0.05531	0.12566
0.32721	1.01843
0.45472	-1.04770
0.19971	-2.42511
0.14870	-0.05289
0.19971	2.98253
0.19971	-2.96078
0.27621	-0.12942
0.40372	-0.53754
-0.15732	0.86539
-0.82036	1.29902
-0.23382	1.47757
0.45472	-2.55265
0.63323	0.17668
0.17421	2.85499
-0.46334	2.67644
0.68424	-1.58336
0.22521	-3.29238
0.02119	0.15117
0.17421	0.86539
0.42922	0.94191
0.17421	0.32972
-0.02981	0.32972
-0.18282	-0.76711
-0.08081	-0.63957
-0.02981	1.45206
0.32721	-0.61406
0.22521	0.22769
-0.02981	0.04914
-0.56534	0.02363
-0.05531	-1.91496
0.32721	-2.11902
-0.15732	1.19699
0.63323	1.91120
0.40372	-0.05289
0.68424	0.96742
-0.08081	1.29902
-1.20288	2.26831
0.09770	0.50828
0.78624	-5.02690
0.68424	-0.10391
0.09770	0.45726
-0.53984	1.91120
0.17421	0.96742
0.12320	2.67644
0.09770	-2.39961
0.19971	-1.86394
0.40372	1.78367
0.17421	1.37554
-0.00431	-3.19035
0.14870	0.91640
0.12320	0.96742
0.04670	0.89089
0.02119	0.58480
0.07220	-1.25176
-0.28482	0.32972
0.40372	0.02363
0.22521	-0.30797
0.35272	0.17668
0.32721	0.63582
0.42922	0.76336
0.53123	0.63582
-0.23382	-0.05289
-0.38683	0.10015
0.32721	1.27351
0.19971	0.55929
-0.08081	-1.30277
0.55673	-1.53234
0.37822	-0.35899
-0.36133	-0.69059
0.02119	0.68683
0.12320	0.32972
-0.05531	1.22250
-0.18282	1.32453
0.60773	0.55929
0.53123	0.15117
0.73524	0.96742
0.63323	0.58480
0.45472	0.71234
-0.31033	-0.07840
-0.02981	-4.13413
0.04670	-0.25695
0.27621	3.77327
0.32721	-3.19035
0.02119	-2.19554
-0.82036	1.50308
-0.18282	0.78886
0.45472	2.08976
0.60773	3.08456
0.76074	1.63062
0.07220	0.40625
-0.51434	-0.89465
-0.71835	-1.02219
0.30171	0.83988
0.76074	0.53379
0.63323	0.86539
0.53123	-0.53754
0.50573	-2.14453
0.17421	-0.07840
-0.33583	0.32972
-0.00431	-1.35379
-0.36133	0.94191
-0.08081	1.17148
0.37822	1.24800
0.42922	0.20219
0.07220	0.40625
0.02119	-0.41000
0.25071	-0.02739
0.27621	0.63582
-0.20832	1.06945
-0.28482	0.40625
0.45472	-0.76711
0.58223	-0.51203
0.27621	0.76336
-0.08081	0.55929
-0.00431	-1.02219
0.19971	-1.12422
0.45472	0.55929
0.53123	0.04914
0.48022	0.63582
0.12320	0.68683
0.02119	1.52859
0.22521	0.40625
-0.05531	0.38074
0.09770	0.55929
0.32721	1.70714
-0.56534	-0.35899
-0.08081	-3.90456
0.32721	-0.28246
0.48022	1.12046
0.35272	-0.15492
0.09770	-0.71609
0.37822	0.73785
0.30171	1.78367
-0.20832	1.40105
-0.08081	1.78367
-0.00431	1.37554
0.17421	-1.04770
0.40372	-1.37929
0.12320	-1.09871
-0.15732	-0.07840
0.40372	-1.53234
0.53123	-0.05289
0.27621	1.09496
-0.00431	0.89089
0.35272	-0.35899
0.14870	0.02363
-0.28482	1.04394
-0.13181	-0.56305
0.22521	-0.86914
0.27621	1.06945
-0.31033	-0.12942
0.22521	0.38074
0.04670	1.35003
0.27621	0.63582
0.53123	0.89089
0.02119	1.22250
0.30171	1.24800
0.35272	-2.34859
-0.00431	0.63582
-0.31033	0.43176
-0.08081	-2.52714
0.19971	0.17668
0.14870	0.83988
0.40372	1.93671
0.65874	1.27351
0.68424	-0.23145
0.19971	-0.35899
-0.23382	-1.32828
-0.23382	-1.45582
-0.33583	-0.86914
0.53123	0.99292
0.19971	-0.07840
0.19971	3.03355
0.19971	3.62022
0.17421	-0.69059
0.32721	-0.07840
0.12320	0.48277
-0.10631	-0.66508
-0.08081	0.61031
-0.02981	-0.07840
-0.23382	0.02363
0.58223	-1.17523
0.35272	0.20219
-0.48884	0.17668
-0.41233	0.38074
0.55673	0.48277
0.40372	2.88050
0.63323	-0.48652
0.09770	-6.25127
-0.05531	-1.43031
-0.51434	-0.43551
0.19971	1.57960
0.40372	2.08976
0.30171	2.44687
-0.02981	2.49788
0.02119	0.04914
0.07220	0.45726
0.14870	0.35523
-0.08081	-0.33348
-0.56534	-0.97117
0.14870	-1.27726
0.48022	-0.18043
0.25071	0.25320
0.48022	0.53379
-0.10631	0.48277
-0.43783	2.95702
-0.15732	-2.75671
0.60773	-2.52714
0.42922	-2.93527
0.27621	-0.20594
0.09770	3.33964
-0.28482	-0.00188
0.27621	1.57960
0.17421	3.21210
0.17421	-0.18043
0.27621	-0.05289
0.14870	1.68163
-0.05531	1.40105
0.14870	-1.58336
0.12320	-0.84363
0.25071	-0.69059
0.35272	-0.02739
-0.08081	-0.79262
-0.36133	-1.71090
0.12320	-0.69059
-0.00431	-0.15492
0.12320	1.17148
0.32721	1.14597
0.22521	1.14597
0.35272	1.32453
0.30171	1.47757
0.19971	-3.72601
0.07220	-0.07840
-0.10631	-0.05289
0.14870	0.61031
0.12320	0.91640
-0.13181	0.73785
-0.13181	-0.30797
-0.08081	1.06945
0.22521	2.01323
0.48022	-2.88425
0.35272	-0.33348
0.12320	-0.61406
0.12320	-0.20594
0.02119	0.76336
-0.05531	1.42656
0.14870	0.48277
0.22521	0.45726
0.12320	1.14597
0.30171	-2.37410
0.02119	-0.99668
0.17421	0.55929
-0.15732	0.04914
-0.33583	2.06425
0.27621	0.38074
0.35272	0.66132
0.27621	-0.74160
0.09770	-0.30797
0.17421	0.91640
0.14870	-1.22625
-0.05531	-0.41000
0.19971	0.91640
0.14870	0.32972
0.09770	-0.28246
0.25071	-0.33348
0.07220	0.02363
-0.20832	1.57960
0.09770	0.32972
0.35272	0.32972
0.48022	3.03355
0.40372	-1.86394
0.17421	-1.02219
0.02119	0.45726
-0.20832	-1.07320
0.04670	1.37554
0.25071	0.40625
0.17421	-0.51203
-0.08081	1.37554
0.14870	0.86539
0.22521	-1.27726
0.40372	-1.02219
0.09770	1.22250
0.22521	0.12566
0.45472	0.96742
0.27621	0.66132
-0.28482	0.76336
-0.36133	0.25320
0.48022	-0.38449
0.40372	-0.15492
0.30171	-1.40480
0.17421	0.53379
0.42922	1.37554
0.37822	-0.86914
-0.08081	-0.23145
-0.66735	0.20219
-0.00431	0.89089
0.53123	0.45726
0.42922	0.81437
0.22521	0.12566
0.25071	0.71234
0.25071	0.43176
0.32721	-0.00188
0.30171	-0.25695
0.17421	0.68683
0.12320	0.81437
0.12320	-1.12422
0.17421	0.73785
0.14870	-1.53234
0.25071	-3.11382
-0.15732	1.40105
-0.41233	0.07465
-0.08081	-0.86914
0.19971	1.65613
0.25071	2.08976
0.42922	1.24800
0.35272	1.27351
0.30171	-0.46102
0.19971	-0.35899
0.19971	0.12566
0.07220	-0.20594
0.09770	-0.23145
0.19971	0.61031
0.14870	1.04394
0.19971	-1.14973
0.22521	-0.46102
0.09770	-0.25695
0.07220	-0.66508
0.19971	-0.25695
0.17421	0.81437
0.07220	0.96742
0.25071	0.61031
0.22521	1.04394
0.22521	0.61031
0.30171	0.45726
0.02119	0.12566
-0.23382	1.70714
0.19971	-3.06281
0.83725	-1.45582
0.12320	-3.41992
-0.28482	-0.20594
-0.69285	2.24281
0.19971	3.03355
0.50573	2.06425
0.50573	0.76336
0.86275	0.66132
0.58223	0.71234
-0.08081	0.55929
-0.69285	-0.25695
0.07220	0.02363
0.42922	-1.91496
0.30171	-1.60887
0.27621	-2.62918
-0.28482	-0.30797
-0.02981	1.01843
-0.05531	0.55929
0.27621	1.52859
0.30171	3.26312
0.40372	1.57960
0.27621	-0.89465
0.09770	-1.32828
-0.18282	-0.63957
-0.33583	0.48277
0.12320	1.24800
0.32721	1.32453
0.65874	0.63582
0.53123	0.63582
-0.15732	0.68683
-0.00431	-4.95038
0.14870	-0.25695
-0.00431	0.04914
-0.15732	0.81437
0.02119	-0.20594
0.07220	0.76336
0.22521	1.57960
0.25071	0.86539
0.27621	-0.35899
0.07220	-1.78742
-0.00431	-0.56305
-0.15732	1.37554
0.30171	0.55929
0.14870	1.78367
0.27621	-0.23145
0.48022	-0.71609
0.50573	-0.74160
0.14870	-0.00188
0.17421	-0.02739
-0.00431	1.68163
-0.20832	1.80917
0.02119	2.52339
0.25071	-3.57296
0.12320	-0.89465
0.30171	-0.58856
0.53123	0.15117
0.55673	1.29902
0.14870	1.14597
-0.08081	0.15117
-0.15732	-0.94566
0.02119	-0.05289
0.12320	0.63582
-0.18282	-0.84363
0.07220	-1.48133
0.25071	0.43176
0.25071	1.70714
0.12320	1.35003
0.07220	-2.70570
0.35272	1.45206
0.32721	1.06945
0.32721	0.40625
0.32721	0.89089
-0.15732	-2.88425
0.04670	-0.15492
-0.33583	0.86539
-0.43783	2.14077
0.53123	-1.50683
0.50573	0.66132
0.55673	0.45726
0.37822	0.22769
0.17421	-0.66508
0.09770	0.96742
0.04670	-0.43551
-0.41233	-0.28246
0.22521	0.78886
0.14870	1.37554
0.22521	-1.71090
0.27621	-0.41000
0.09770	-0.92016
0.07220	-0.79262
0.14870	1.32453
0.14870	1.37554
0.14870	1.19699
0.32721	0.83988
0.35272	0.15117
0.40372	0.35523
-0.08081	1.37554
-0.43783	-0.38449
0.22521	-0.05289
0.48022	0.17668
0.07220	-2.11902
-0.28482	-0.00188
0.22521	0.17668
0.58223	-0.71609
0.40372	1.57960
0.45472	0.17668
0.07220	0.73785
-0.64185	1.24800
-0.13181	0.38074
0.65874	1.24800
0.65874	0.55929
-0.15732	1.14597
0.14870	-4.74632
-0.10631	-2.57816
-0.38683	0.55929
-0.02981	0.32972
0.45472	2.82948
0.55673	2.75296
0.53123	1.12046
0.17421	1.09496
-0.20832	-0.86914
0.04670	-1.25176
0.19971	-0.38449
0.22521	1.42656
0.02119	0.07465
0.02119	0.12566
-0.08081	-0.94566
-0.74385	-2.42511
-0.76936	-0.41000
0.68424	1.01843
1.09226	1.37554
0.35272	-0.25695
0.60773	0.76336
0.63323	1.29902
-0.10631	0.94191
-0.53984	0.22769
-0.61635	0.53379
-0.00431	-1.22625
0.86275	-1.68539
0.63323	0.25320
0.32721	1.45206
0.25071	1.96222
0.27621	1.68163
0.32721	0.25320
-0.53984	-3.31788
-0.33583	-1.27726
0.04670	-0.35899
0.25071	0.96742
0.12320	2.98253
0.30171	0.86539
0.32721	-0.51203
0.14870	0.25320
0.14870	0.20219
0.48022	0.25320
-0.00431	0.45726
0.48022	0.12566
0.35272	0.20219
-0.10631	-0.97117
-0.31033	0.35523
0.09770	0.32972
0.25071	0.35523
0.73524	0.50828
0.48022	0.02363
0.04670	0.10015
0.40372	-0.20594
0.73524	0.76336
0.19971	0.22769
-0.36133	0.76336
-0.15732	0.40625
-0.10631	1.68163
0.17421	-1.20074
-0.02981	-2.37410
0.09770	0.07465
-0.05531	0.76336
0.30171	1.37554
-0.10631	1.27351
-0.23382	0.45726
0.30171	-0.35899
0.37822	-0.38449
0.50573	-0.71609
0.25071	0.35523
-0.05531	1.24800
-0.66735	-0.18043
0.22521	-0.69059
0.68424	-0.10391
0.65874	1.35003
0.30171	-0.46102
-0.25932	-0.66508
-0.02981	0.55929
0.25071	0.78886
0.68424	-0.46102
0.14870	0.30422
-0.33583	2.29382
-0.13181	2.75296
0.17421	-6.93998
0.30171	-0.92016
0.14870	2.01323
0.50573	-0.81812
0.12320	1.37554
-0.31033	0.68683
-0.74385	2.16628
0.07220	1.04394
0.53123	0.76336
0.35272	-3.24136
0.35272	0.91640
0.27621	0.99292
0.12320	-0.66508
0.14870	-0.48652
0.12320	-0.61406
0.17421	1.75816
0.04670	-0.15492
-0.08081	-2.50164
0.09770	0.07465
-0.00431	0.53379
0.09770	1.98773
0.22521	-0.02739
0.35272	0.27871
0.48022	0.66132
0.04670	1.32453
-0.61635	-0.28246
-0.33583	0.58480
0.68424	-0.20594
0.83725	-0.97117
0.60773	0.25320
0.45472	0.53379
0.40372	0.27871
0.40372	-0.25695
-0.46334	0.40625
-0.51434	0.25320
0.22521	-0.43551
0.07220	-0.07840
-0.28482	0.81437
0.17421	2.65093
0.53123	0.40625
0.30171	-4.69530
0.27621	0.99292
-0.00431	-2.60367
-0.15732	-0.79262
-0.05531	0.61031
0.09770	2.29382
0.07220	1.27351
0.12320	1.68163
0.27621	0.12566
0.17421	0.53379
-0.08081	1.14597
0.09770	0.58480
-0.23382	0.02363
-0.10631	-0.56305
-0.00431	-3.98109
0.63323	-0.35899
0.55673	1.68163
0.14870	-0.74160
0.02119	-2.96078
0.30171	1.06945
-0.00431	1.98773
0.22521	1.68163
0.19971	1.01843
0.27621	-1.78742
0.32721	-0.15492
0.14870	0.40625
0.02119	0.58480
-0.48884	1.32453
0.19971	0.63582
