0.19971	0.20219
0.12320	0.22769
0.09770	0.17668
0.14870	0.50828
0.09770	-0.12942
0.12320	-1.32828
0.12320	-0.00188
0.17421	0.45726
0.09770	1.06945
0.17421	0.78886
0.22521	0.50828
0.25071	0.17668
0.02119	-0.00188
0.12320	-0.02739
0.12320	0.12566
0.12320	0.04914
0.25071	0.07465
0.12320	0.10015
0.09770	0.04914
0.12320	-0.00188
0.19971	-1.02219
0.09770	0.68683
0.04670	0.45726
0.14870	0.15117
0.27621	0.15117
0.27621	-0.79262
0.14870	0.55929
0.04670	0.30422
0.14870	-0.48652
0.22521	0.55929
0.12320	0.27871
0.14870	0.89089
0.09770	0.55929
0.17421	0.32972
0.25071	0.12566
0.14870	-0.05289
0.22521	-0.02739
0.12320	-0.15492
0.14870	-0.23145
0.19971	-0.25695
0.09770	-0.15492
0.09770	0.10015
0.02119	-0.02739
0.09770	0.20219
0.12320	0.40625
0.09770	0.35523
0.09770	-0.20594
0.09770	-0.61406
0.04670	0.27871
0.17421	0.66132
0.19971	0.83988
0.19971	0.68683
0.12320	0.10015
0.09770	0.15117
0.14870	0.20219
0.14870	0.35523
0.17421	-0.10391
0.14870	-0.15492
0.09770	-0.07840
0.22521	0.32972
0.22521	-0.43551
0.22521	-1.09871
0.09770	0.68683
0.12320	1.01843
0.22521	0.58480
0.02119	-0.05289
0.07220	-0.43551
0.09770	0.48277
0.12320	0.53379
0.17421	0.35523
0.17421	0.20219
0.12320	-0.41000
0.17421	0.17668
0.22521	-0.00188
0.19971	0.10015
0.17421	-0.00188
0.04670	0.40625
0.12320	-0.15492
0.17421	0.12566
0.14870	-0.05289
0.14870	0.07465
0.22521	0.12566
0.14870	0.27871
0.14870	0.40625
0.09770	0.12566
0.12320	0.15117
0.07220	-0.15492
0.17421	-0.35899
0.19971	0.83988
0.22521	0.45726
0.17421	0.22769
0.14870	-0.71609
0.19971	0.20219
0.19971	0.61031
0.22521	0.50828
0.17421	-0.69059
0.12320	-0.02739
0.02119	0.48277
0.09770	0.38074
0.22521	0.22769
0.09770	0.15117
0.19971	0.10015
0.12320	-0.02739
0.14870	-0.10391
0.17421	0.17668
0.07220	0.07465
0.12320	0.12566
0.12320	0.17668
0.27621	0.12566
0.27621	-0.12942
0.04670	0.35523
0.07220	0.40625
0.02119	0.20219
0.14870	0.35523
0.25071	0.27871
0.17421	-0.84363
0.17421	0.61031
0.07220	-0.00188
0.19971	-0.35899
0.14870	0.91640
0.27621	1.09496
0.07220	0.63582
0.04670	-0.20594
0.04670	-0.07840
0.17421	-0.76711
0.19971	0.30422
0.12320	0.38074
0.09770	0.38074
0.14870	0.22769
0.27621	0.38074
0.22521	0.12566
0.09770	0.12566
0.09770	0.30422
0.14870	0.04914
0.14870	-0.25695
0.04670	-0.79262
0.07220	-0.35899
0.07220	0.12566
0.07220	0.22769
0.09770	0.71234
0.07220	0.55929
0.07220	0.40625
0.07220	0.20219
0.09770	-1.48133
0.07220	0.43176
0.14870	0.55929
0.09770	0.66132
0.14870	0.40625
0.09770	0.71234
0.07220	0.61031
0.04670	-0.81812
0.07220	-1.78742
0.07220	0.50828
0.09770	0.17668
0.12320	0.55929
0.07220	0.40625
0.14870	0.50828
0.14870	0.10015
0.07220	0.10015
0.12320	-0.86914
0.09770	0.25320
0.04670	0.71234
0.07220	0.53379
0.17421	-0.00188
0.17421	0.25320
0.19971	0.10015
0.22521	0.10015
0.19971	0.22769
0.14870	-0.00188
0.14870	0.10015
0.17421	0.12566
0.14870	0.27871
0.12320	-0.00188
0.12320	-0.10391
0.12320	0.17668
0.07220	-1.07320
0.09770	0.38074
0.04670	0.76336
0.07220	0.63582
0.07220	0.02363
0.09770	-0.30797
0.02119	0.91640
0.04670	0.17668
0.14870	-1.27726
0.19971	0.30422
0.12320	0.55929
0.22521	0.61031
0.09770	0.55929
0.12320	0.38074
0.17421	0.55929
0.19971	-0.33348
0.12320	-0.25695
0.14870	0.27871
0.22521	-0.69059
0.22521	-0.15492
0.22521	0.76336
0.17421	0.68683
0.09770	0.38074
0.14870	0.32972
0.19971	-0.07840
0.14870	0.35523
0.12320	0.30422
0.14870	0.12566
0.25071	0.15117
0.22521	0.15117
0.30171	0.04914
0.25071	0.17668
0.17421	0.32972
0.19971	0.17668
0.12320	-0.15492
0.12320	0.07465
0.14870	0.10015
0.09770	-0.15492
0.12320	0.27871
0.14870	-0.63957
0.17421	0.71234
0.12320	0.66132
0.22521	0.38074
0.22521	0.02363
0.19971	0.25320
0.32721	0.50828
0.04670	0.55929
0.09770	-0.30797
0.19971	-0.33348
0.25071	-0.35899
0.27621	-0.41000
0.19971	0.38074
0.22521	0.68683
0.14870	0.73785
0.14870	0.32972
0.14870	0.20219
0.17421	0.27871
0.09770	0.15117
0.04670	-0.05289
0.07220	-0.02739
0.12320	0.04914
0.09770	0.04914
0.14870	0.07465
0.22521	0.10015
0.25071	0.43176
0.19971	0.22769
0.12320	-0.15492
0.07220	-0.20594
0.09770	0.48277
0.17421	0.25320
0.12320	0.25320
0.19971	-0.20594
0.12320	0.99292
0.12320	-0.23145
0.04670	-1.63437
0.09770	0.71234
0.12320	0.99292
0.19971	0.99292
0.14870	0.81437
0.14870	0.45726
0.12320	0.20219
0.14870	-0.99668
0.14870	-0.69059
0.14870	0.43176
0.09770	0.53379
0.07220	0.43176
0.07220	0.17668
0.14870	-0.05289
0.22521	0.10015
0.22521	-0.02739
0.17421	-0.05289
0.14870	0.10015
0.02119	0.22769
0.09770	0.53379
0.17421	0.32972
0.17421	-0.38449
0.14870	-0.05289
0.09770	-0.43551
0.19971	0.63582
0.25071	0.68683
0.22521	0.63582
0.12320	0.40625
0.14870	0.20219
0.25071	0.12566
0.14870	0.40625
0.14870	0.55929
0.02119	-0.43551
-0.02981	-0.20594
0.12320	-0.58856
0.22521	-0.20594
0.14870	-0.61406
0.14870	0.35523
0.04670	-0.38449
0.09770	1.14597
0.17421	1.06945
0.17421	0.58480
0.19971	0.81437
0.19971	0.53379
0.17421	-0.89465
0.17421	0.10015
0.07220	0.40625
0.12320	0.32972
0.09770	0.12566
0.12320	0.04914
0.22521	-0.25695
0.22521	-0.18043
0.14870	0.48277
0.04670	0.25320
0.04670	-0.81812
0.14870	-0.02739
0.19971	-0.20594
0.22521	0.12566
0.12320	1.09496
0.07220	0.96742
0.12320	0.10015
0.09770	-0.66508
0.17421	0.53379
0.22521	0.48277
0.19971	0.38074
0.14870	0.30422
0.07220	0.27871
0.09770	0.02363
0.09770	-0.12942
0.17421	0.10015
0.27621	0.12566
0.22521	0.15117
0.19971	-0.20594
0.09770	-0.51203
0.17421	0.10015
0.09770	0.27871
0.07220	0.32972
0.12320	0.30422
0.19971	0.30422
0.14870	0.30422
0.17421	0.40625
0.09770	0.04914
0.12320	-0.07840
0.12320	0.27871
0.22521	0.22769
0.19971	0.35523
0.14870	0.35523
0.12320	0.43176
0.14870	0.38074
0.22521	0.30422
0.12320	0.53379
0.12320	-0.84363
0.12320	-1.71090
0.12320	0.38074
0.07220	0.25320
0.12320	0.73785
0.14870	0.66132
0.14870	0.27871
0.12320	-0.07840
0.14870	0.38074
0.12320	0.35523
0.02119	0.58480
0.04670	1.06945
-0.02981	0.07465
0.07220	-2.14453
0.14870	-1.32828
0.14870	0.76336
0.14870	1.01843
0.12320	0.81437
0.17421	-0.05289
0.22521	-0.05289
0.22521	0.55929
0.17421	0.55929
0.12320	0.25320
0.17421	-0.18043
0.25071	0.30422
0.17421	0.30422
0.07220	0.17668
0.12320	-0.07840
0.09770	0.04914
0.22521	-0.61406
0.17421	0.32972
0.14870	0.35523
0.09770	0.30422
0.07220	0.12566
0.14870	0.10015
0.14870	0.12566
0.19971	0.15117
0.12320	0.50828
0.09770	0.32972
0.12320	-0.71609
0.07220	0.25320
0.14870	0.78886
0.09770	-0.25695
0.22521	0.27871
0.25071	0.55929
0.17421	0.61031
0.14870	0.12566
0.14870	-0.58856
0.02119	-1.32828
0.14870	0.76336
0.02119	0.71234
0.12320	0.48277
0.17421	0.71234
0.22521	0.48277
0.22521	0.35523
0.19971	-0.23145
0.09770	-0.12942
0.14870	-0.63957
0.14870	0.43176
0.12320	-0.30797
0.07220	-0.84363
0.14870	0.58480
0.12320	0.73785
0.12320	0.58480
0.25071	0.58480
0.09770	0.61031
0.07220	0.35523
0.07220	0.32972
0.12320	-0.51203
0.17421	0.15117
0.12320	-1.22625
0.19971	0.55929
0.14870	-0.02739
0.17421	-0.28246
0.25071	0.30422
0.17421	0.63582
0.12320	0.76336
0.12320	0.43176
0.07220	0.40625
0.12320	0.20219
0.12320	-0.02739
0.09770	-0.05289
0.12320	0.04914
0.19971	0.07465
0.27621	-0.12942
0.19971	-0.58856
0.09770	0.38074
0.04670	0.48277
0.04670	0.27871
0.12320	0.30422
0.12320	0.10015
0.14870	0.53379
0.14870	0.38074
0.22521	0.48277
0.25071	0.45726
0.22521	-0.86914
0.22521	-0.25695
0.12320	-0.33348
0.14870	-0.12942
0.12320	0.63582
0.12320	0.40625
0.14870	0.61031
0.12320	0.30422
0.14870	0.20219
0.17421	0.35523
0.12320	0.25320
0.09770	0.68683
0.04670	-0.20594
0.12320	-0.28246
0.12320	-0.46102
0.17421	-2.85874
0.17421	0.55929
0.17421	1.32453
0.22521	1.35003
0.25071	0.94191
0.25071	0.66132
0.19971	0.66132
0.12320	0.17668
0.12320	0.12566
0.12320	-0.10391
0.09770	-0.15492
0.25071	-0.00188
0.14870	-0.15492
0.30171	0.02363
0.14870	-0.07840
0.12320	0.15117
0.22521	0.22769
0.17421	-0.00188
0.09770	0.35523
0.14870	-0.25695
0.09770	-0.10391
0.12320	0.25320
0.02119	0.43176
0.07220	0.38074
0.22521	0.40625
0.14870	0.30422
0.07220	0.25320
-0.05531	0.02363
0.48022	0.12566
0.30171	0.20219
0.12320	-0.00188
-0.13181	0.10015
-0.02981	0.30422
0.30171	0.04914
0.42922	0.02363
0.17421	0.10015
-0.02981	0.38074
-0.15732	-0.18043
-0.08081	-0.94566
0.37822	0.15117
0.22521	0.53379
0.04670	0.89089
-0.02981	0.94191
0.19971	0.89089
0.17421	0.00000
0.32721	0.00000
0.14870	0.00000
0.17421	0.00000
0.22521	0.00000
0.14870	0.00000
0.22521	0.12566
0.07220	-0.51203
0.04670	-0.61406
0.07220	-3.06281
0.04670	0.27871
0.09770	1.37554
0.22521	1.70714
0.12320	1.47757
0.12320	0.96742
0.09770	0.32972
0.09770	0.07465
0.12320	-0.02739
0.14870	-0.25695
0.30171	-1.27726
0.22521	0.04914
0.22521	0.22769
0.09770	-0.02739
-0.25932	-0.07840
0.07220	0.12566
0.48022	0.27871
0.45472	0.25320
-0.15732	0.07465
0.58223	0.15117
0.19971	0.25320
-0.00431	0.15117
-0.46334	0.40625
-0.08081	0.43176
-0.76936	0.53379
1.72980	0.22769
0.88825	-0.71609
-0.10631	0.15117
-0.66735	0.76336
0.65874	0.83988
0.09770	-0.05289
0.09770	-0.86914
-0.76936	0.68683
1.14327	0.38074
1.04126	0.27871
0.68424	-0.46102
-0.02981	-0.00188
-0.31033	0.96742
-0.18282	1.19699
-0.18282	1.35003
-1.33039	1.60511
-0.89686	-6.35331
-0.00431	-5.48604
0.30171	1.83468
0.86275	2.95702
1.29628	2.19179
0.58223	2.82948
1.42379	1.78367
0.93925	5.09967
0.83725	0.94191
0.07220	1.12046
-0.38683	-6.42983
-0.94787	-4.41472
-0.79486	-7.27159
-0.51434	2.21730
0.42922	4.99764
0.40372	5.58432
-0.08081	-5.15444
0.25071	3.44167
0.76074	1.50308
1.11776	1.98773
0.22521	6.65564
-1.33039	-3.54745
0.02119	1.75816
0.22521	-15.33203
-0.23382	-0.30797
0.73524	1.52859
0.22521	3.41616
-0.53984	3.74776
1.14327	3.97733
1.83181	6.57912
-0.66735	2.59991
-1.68742	-1.17523
0.50573	-8.62350
0.58223	-8.92959
1.24527	-2.06800
-0.61635	4.79358
-0.92237	4.99764
0.30171	4.41096
0.86275	-2.32308
0.50573	-4.38921
0.76074	5.45678
0.55673	1.91120
-0.02981	3.16108
-0.36133	-1.17523
-0.38683	-2.39961
0.30171	-5.66460
-0.08081	2.39585
-1.15188	0.89089
0.50573	-5.56257
0.17421	2.62542
0.07220	1.73265
0.55673	-1.04770
0.22521	1.57960
0.22521	-1.09871
0.70974	8.90033
0.48022	3.00804
-0.84586	-12.90880
-1.25389	-3.21585
-0.33583	0.55929
1.27078	-0.51203
1.04126	2.90601
0.04670	1.50308
-0.13181	2.21730
1.04126	2.90601
1.01576	5.91592
0.17421	-5.89417
-0.31033	-5.25647
0.35272	-0.41000
-0.36133	4.94663
-0.02981	7.29334
-0.13181	-8.39393
0.37822	-5.25647
-0.05531	0.02363
0.09770	2.62542
0.07220	2.54890
0.25071	4.25792
0.32721	1.68163
0.53123	0.73785
0.02119	5.38026
-0.41233	-7.19506
-0.59084	0.15117
0.35272	-2.80773
0.48022	-0.35899
0.58223	1.06945
0.58223	2.34484
0.22521	-6.40432
-0.00431	0.15117
0.88825	1.19699
-0.69285	2.75296
0.73524	0.58480
1.50029	5.86491
0.07220	2.06425
-2.01894	-4.74632
-1.48340	-6.96549
0.58223	0.38074
0.32721	3.64573
-0.05531	1.37554
1.11776	-3.49644
1.06676	3.67124
0.86275	1.45206
0.48022	2.44687
0.04670	-2.27207
-0.25932	-0.84363
-0.36133	-0.86914
-0.00431	-1.68539
0.07220	0.10015
-0.08081	-0.05289
-0.31033	3.54370
-0.25932	1.57960
0.02119	-0.07840
0.17421	0.73785
0.48022	2.06425
0.55673	1.80917
0.22521	-4.36370
-0.00431	-1.22625
0.60773	-1.48133
-0.31033	-3.95558
0.04670	-5.86866
-0.36133	1.63062
0.19971	2.95702
0.45472	5.04866
0.81175	10.45630
1.24527	-7.24608
0.35272	-5.63909
-0.28482	1.06945
0.14870	2.01323
-0.64185	-1.48133
-0.69285	1.17148
-0.51434	2.57441
0.14870	0.30422
0.83725	-0.81812
0.63323	-1.07320
0.55673	0.78886
0.45472	0.45726
0.25071	-2.34859
0.14870	5.43127
0.17421	2.39585
0.04670	-4.41472
-0.18282	-0.25695
-0.02981	-4.49124
-0.43783	-2.19554
-0.18282	3.49268
-0.28482	6.57912
0.27621	-1.22625
0.42922	5.12518
0.86275	-1.58336
0.83725	1.55410
-0.33583	-3.44542
-0.69285	-2.09351
0.19971	-1.35379
0.27621	1.35003
0.58223	4.25792
0.93925	-1.02219
0.22521	1.37554
0.07220	4.35995
-0.36133	4.66604
0.07220	-16.86250
-0.08081	-4.26167
-0.48884	0.78886
0.04670	0.55929
0.63323	2.52339
0.88825	3.82429
0.88825	1.50308
0.37822	-0.81812
-0.46334	4.13038
-0.38683	1.22250
-0.51434	-5.35850
-0.25932	1.91120
-0.25932	-0.33348
0.88825	0.20219
0.93925	-0.05289
0.42922	-0.33348
0.37822	0.02363
0.17421	1.01843
0.32721	3.00804
0.30171	-2.42511
-0.97337	-3.47093
0.02119	0.25320
-0.61635	3.74776
0.27621	-1.94047
0.02119	-2.45062
0.12320	-0.56305
0.22521	2.75296
0.55673	-0.10391
0.32721	2.95702
0.17421	-1.88945
-0.13181	2.70194
-0.08081	3.69675
0.42922	-6.09823
-0.38683	7.24232
0.14870	-6.86346
0.50573	-1.04770
0.45472	1.14597
0.19971	2.01323
-0.38683	1.24800
0.53123	0.61031
0.70974	-2.34859
0.25071	0.94191
-0.76936	-0.35899
-0.92237	-1.02219
-0.20832	-1.14973
0.55673	3.36515
0.78624	2.47238
0.63323	-3.16484
0.60773	-1.20074
-0.25932	-7.22057
-0.71835	2.47238
0.22521	2.54890
0.32721	0.25320
-0.05531	5.60983
0.12320	-3.34339
0.09770	1.27351
0.73524	4.33444
0.60773	3.16108
0.17421	-0.38449
-0.33583	-7.06752
-0.43783	-0.02739
0.30171	-2.62918
0.17421	1.68163
0.45472	4.02835
0.88825	0.89089
1.24527	8.26263
-0.00431	-4.87386
-3.03900	-0.56305
-1.81492	-7.24608
1.34728	-1.55785
1.67880	1.04394
1.37278	3.39065
0.88825	3.54370
0.73524	2.01323
0.42922	1.68163
0.27621	1.14597
0.17421	1.50308
-0.10631	-0.30797
-0.10631	-5.61358
-0.74385	-1.09871
-0.64185	-0.05289
-0.48884	-2.90976
0.63323	7.88002
0.35272	7.14029
-0.76936	-9.43974
0.09770	-4.49124
0.65874	0.45726
0.32721	2.88050
0.60773	3.49268
1.01576	4.97213
0.73524	6.06897
0.35272	-5.51155
-0.02981	-2.29757
-0.23382	0.48277
-0.08081	1.04394
0.14870	-3.39441
0.48022	-0.12942
-0.02981	1.22250
-1.10088	3.46718
-0.48884	1.52859
0.60773	-2.62918
0.91375	-6.53186
0.86275	-3.34339
-0.08081	3.46718
-0.56534	1.86019
0.40372	-0.94566
0.19971	-0.05289
-0.33583	3.00804
0.55673	2.49788
-0.02981	1.09496
-0.53984	-1.02219
0.45472	0.32972
0.81175	-2.19554
0.27621	-0.81812
-0.53984	1.91120
0.22521	-0.71609
0.63323	2.49788
0.30171	6.40057
0.19971	-14.00563
0.19971	-5.76663
-0.48884	-0.35899
-0.56534	-0.25695
0.32721	4.64053
0.68424	5.55881
0.27621	2.54890
0.30171	3.36515
0.07220	2.16628
-0.10631	1.52859
-0.25932	-1.45582
-0.02981	-2.11902
0.30171	1.01843
0.42922	-1.37929
0.12320	-3.87905
0.22521	-2.37410
0.12320	0.15117
0.14870	-0.07840
0.32721	2.59991
0.02119	4.92112
0.55673	-2.01699
-0.23382	4.07936
-1.02437	-7.52666
-0.25932	-0.61406
0.32721	2.21730
-0.08081	-1.68539
-0.99887	3.00804
1.37278	1.29902
1.75531	4.94663
0.37822	-2.83324
0.63323	1.52859
0.17421	1.27351
0.04670	0.58480
-0.13181	-1.88945
-0.48884	-3.47093
0.37822	-2.01699
0.88825	1.01843
1.14327	-1.99148
-0.23382	4.46198
-0.94787	-0.48652
1.19427	2.59991
-0.13181	1.27351
-0.76936	-1.22625
0.91375	-6.30229
1.06676	-2.55265
-0.48884	3.18659
-0.18282	3.56921
-0.18282	0.15117
0.30171	-3.03730
0.17421	3.54370
0.19971	-0.30797
0.55673	2.52339
0.48022	-1.02219
-0.51434	3.08456
-0.53984	-3.52195
-0.08081	-1.07320
0.30171	0.78886
0.76074	-1.71090
0.48022	2.37034
-0.08081	2.44687
0.22521	2.26831
-0.53984	-2.42511
-0.31033	-4.10862
0.17421	-2.80773
0.88825	0.53379
0.50573	3.23761
0.35272	2.47238
0.42922	-1.71090
0.73524	2.47238
0.50573	4.99764
-0.02981	1.78367
-1.43240	-4.44022
-0.71835	-0.84363
0.81175	-2.73121
0.42922	4.87010
0.22521	-1.99148
0.53123	-4.38921
-0.08081	-0.02739
-0.89686	2.26831
-0.61635	1.75816
0.76074	2.24281
1.80631	0.96742
0.63323	-1.48133
-0.79486	1.27351
-0.00431	1.22250
0.53123	1.12046
0.78624	-2.39961
0.25071	-1.04770
-0.97337	-4.64429
0.19971	-1.14973
-0.08081	0.48277
-0.79486	6.52811
-0.20832	0.73785
0.02119	-0.99668
1.37278	3.05905
1.14327	0.07465
0.12320	3.11007
-0.36133	0.02363
-0.20832	-2.04250
-0.00431	-1.32828
0.37822	0.58480
0.48022	-3.01179
0.63323	1.68163
0.35272	-3.52195
-0.28482	-6.25127
-0.10631	1.22250
-0.13181	0.91640
0.35272	3.95182
0.14870	0.68683
-0.53984	3.72225
-0.23382	0.71234
0.14870	-0.81812
0.27621	3.18659
0.83725	0.27871
1.09226	-2.90976
-0.13181	-2.19554
-2.01894	0.17668
-0.94787	0.83988
1.24527	2.21730
0.91375	3.00804
0.76074	-7.09303
1.24527	-2.24656
0.35272	1.17148
0.65874	4.05386
0.42922	0.30422
-0.97337	3.03355
-1.38139	-2.50164
0.04670	-4.00659
0.70974	4.53850
0.58223	-1.68539
0.35272	0.99292
0.30171	0.76336
0.02119	3.95182
0.42922	3.97733
0.48022	-6.07272
-0.76936	-3.52195
-0.87136	0.12566
0.12320	1.78367
0.48022	0.12566
0.70974	0.96742
0.30171	1.68163
0.48022	-0.05289
1.34728	0.12566
-0.59084	-2.22105
-1.30489	0.35523
-1.10088	1.78367
0.27621	-6.58288
1.19427	4.46198
0.53123	8.21162
-1.30489	-6.02170
-0.20832	-5.91967
1.06676	-1.04770
0.63323	1.06945
-0.08081	3.77327
-0.76936	3.21210
0.35272	2.19179
0.63323	1.12046
0.32721	0.91640
-0.38683	0.61031
-1.45790	-0.56305
0.02119	-2.70570
0.76074	-1.04770
0.99026	-0.28246
0.63323	-0.66508
0.32721	-0.30797
0.02119	2.70194
0.35272	3.95182
0.35272	-6.35331
-0.02981	-7.57768
-0.51434	-0.43551
-0.43783	2.70194
0.07220	2.08976
0.53123	1.96222
0.35272	3.64573
0.09770	3.33964
0.19971	-1.60887
0.42922	-0.69059
0.48022	-1.07320
0.19971	1.24800
0.04670	-0.89465
0.22521	-0.20594
0.22521	-0.74160
-0.10631	0.45726
-0.10631	-2.04250
0.12320	-0.28246
0.35272	1.88570
-0.00431	-0.30797
0.09770	-1.17523
0.45472	0.15117
0.42922	-0.35899
0.07220	0.83988
0.09770	1.40105
0.25071	3.11007
0.58223	2.34484
1.16877	-0.07840
0.17421	-1.73640
-0.94787	-8.16436
-2.60547	0.96742
-0.13181	1.96222
1.44929	-0.79262
1.55129	2.37034
1.57679	2.90601
1.24527	1.63062
0.58223	0.91640
0.12320	1.55410
-0.23382	3.13558
0.07220	-1.22625
-0.43783	-5.25647
-0.61635	0.48277
-0.48884	-1.09871
-0.10631	-2.96078
0.12320	-0.74160
0.17421	1.93671
0.27621	2.06425
0.25071	4.18139
0.27621	0.43176
0.09770	0.12566
0.07220	-4.82284
0.40372	0.27871
0.17421	3.51819
0.17421	3.49268
0.25071	1.01843
0.42922	-1.81293
0.50573	0.40625
-0.00431	-0.20594
-0.10631	-1.76191
-0.08081	0.86539
0.32721	1.09496
0.25071	-0.71609
-0.02981	-0.61406
0.22521	1.37554
0.12320	-1.68539
-0.48884	-2.83324
-0.08081	-0.48652
0.32721	0.43176
0.50573	1.86019
-0.43783	2.90601
-0.41233	4.33444
1.14327	-4.95038
0.83725	0.25320
0.35272	-0.25695
0.50573	0.12566
0.60773	-0.63957
-0.36133	0.25320
0.30171	2.34484
-0.79486	2.54890
0.30171	-1.78742
0.40372	-2.85874
0.32721	-2.98628
-0.18282	0.66132
-0.08081	1.47757
-0.51434	1.22250
0.25071	0.30422
0.32721	-0.94566
0.07220	3.77327
-1.10088	0.81437
0.91375	-1.94047
1.14327	-0.30797
1.11776	2.03874
0.88825	2.80397
-0.15732	-2.24656
-0.99887	-5.56257
0.09770	-3.03730
0.32721	0.96742
-0.08081	1.65613
0.35272	2.67644
0.25071	3.31413
0.12320	2.42136
0.14870	0.55929
0.17421	1.32453
0.40372	-1.96597
-0.25932	-4.21066
-1.22839	0.81437
0.35272	2.54890
0.60773	-0.76711
0.55673	-2.65468
0.02119	-0.18043
0.91375	2.77847
0.99026	-1.86394
0.48022	-0.12942
0.30171	2.90601
0.93925	2.26831
-0.59084	-3.82804
-1.20288	1.14597
-0.48884	0.15117
0.12320	2.01323
0.58223	-0.35899
0.48022	-0.33348
0.35272	-0.58856
0.35272	1.27351
0.58223	1.40105
-0.18282	-0.58856
-0.20832	0.94191
-0.56534	-4.54226
-0.36133	0.43176
-0.59084	1.12046
0.37822	1.04394
0.96476	0.86539
1.04126	0.76336
1.34728	-1.25176
-0.13181	2.49788
-1.61091	-0.61406
0.73524	-1.99148
0.25071	0.43176
-0.33583	0.83988
0.48022	-0.38449
1.09226	1.06945
-0.28482	-0.43551
0.09770	0.66132
0.04670	-1.17523
0.17421	-1.14973
0.09770	0.10015
0.12320	4.28343
-0.13181	-0.92016
-0.13181	0.10015
-0.36133	0.17668
-1.40690	1.63062
0.07220	1.27351
1.06676	0.71234
0.55673	0.04914
-0.02981	-1.37929
0.32721	-1.07320
0.12320	2.34484
0.19971	-0.43551
0.48022	-2.50164
0.27621	-2.75671
0.19971	0.02363
0.32721	0.99292
0.40372	0.78886
-0.05531	2.88050
0.09770	3.18659
-0.38683	0.50828
-0.20832	-2.83324
-0.23382	0.86539
-0.43783	-6.50635
0.32721	3.79878
1.19427	0.53379
0.19971	0.17668
0.37822	0.68683
-1.48340	1.17148
-0.69285	1.04394
0.17421	0.76336
1.06676	1.09496
0.99026	-0.12942
0.42922	-0.02739
0.93925	0.22769
0.65874	-0.63957
-0.59084	-2.60367
-0.71835	4.28343
-0.05531	-2.90976
0.42922	-3.57296
0.19971	-0.71609
-0.02981	0.45726
0.12320	3.97733
0.22521	-1.63437
0.09770	0.81437
0.07220	0.71234
0.45472	1.24800
0.65874	2.14077
-0.43783	-0.51203
-0.05531	0.66132
0.63323	0.10015
0.60773	-5.56257
-0.84586	-0.86914
-0.97337	1.06945
-0.25932	2.14077
0.88825	1.52859
1.16877	-0.28246
0.68424	0.38074
0.68424	0.96742
0.55673	-0.58856
-0.00431	-1.63437
-0.08081	-1.37929
-0.00431	1.32453
-0.31033	0.04914
-0.79486	2.08976
-0.71835	0.81437
0.25071	-0.20594
0.48022	-0.46102
0.65874	-3.82804
0.73524	-0.99668
0.60773	0.76336
-0.00431	1.93671
-0.79486	4.05386
-0.43783	0.43176
0.37822	-0.99668
0.45472	-0.18043
0.12320	-2.14453
0.02119	1.27351
0.09770	1.63062
0.22521	-1.27726
0.09770	-2.68019
0.19971	0.27871
-0.05531	-2.39961
-0.23382	0.43176
0.37822	1.91120
0.19971	2.47238
0.19971	2.19179
0.12320	1.47757
-0.25932	-1.58336
-0.02981	-1.30277
0.42922	2.39585
0.30171	-0.15492
0.09770	-0.69059
0.02119	-4.87386
0.40372	0.83988
0.42922	-1.09871
-0.48884	-0.02739
-0.87136	1.52859
-0.00431	-1.88945
1.09226	-0.46102
0.70974	1.65613
-0.74385	0.55929
-0.46334	1.40105
1.04126	-2.34859
1.29628	2.16628
0.68424	1.65613
0.09770	1.96222
0.19971	-0.12942
-0.05531	-1.37929
-0.02981	0.45726
-0.08081	1.35003
0.07220	0.63582
0.12320	0.78886
0.25071	-2.70570
0.07220	-1.04770
-0.59084	-3.87905
-0.56534	-0.43551
0.04670	1.75816
0.04670	2.01323
0.45472	1.93671
0.70974	-0.61406
0.55673	1.75816
0.25071	2.24281
-0.00431	0.22769
0.12320	-2.27207
0.07220	0.50828
-0.02981	1.96222
0.48022	-2.42511
0.19971	-1.73640
-0.28482	-0.53754
-0.18282	0.25320
-0.00431	0.50828
0.14870	1.73265
0.19971	0.96742
0.50573	-1.94047
0.30171	-1.25176
-0.02981	-0.20594
-0.08081	2.54890
0.12320	-0.35899
0.22521	2.01323
0.02119	2.26831
0.30171	-1.86394
0.32721	1.40105
-0.20832	-2.47613
-0.74385	0.76336
-0.02981	-1.48133
0.81175	-0.33348
0.27621	-0.86914
0.12320	1.27351
0.78624	1.55410
0.53123	0.50828
0.02119	-2.42511
0.12320	1.09496
0.27621	1.88570
-0.18282	-3.11382
-0.33583	-0.07840
0.50573	-0.81812
0.12320	0.71234
0.02119	1.65613
-0.43783	-1.17523
0.02119	1.17148
0.37822	0.25320
0.42922	1.19699
0.32721	-0.84363
0.27621	0.07465
0.19971	1.55410
0.19971	1.17148
0.14870	0.32972
0.25071	-1.09871
0.19971	3.67124
0.53123	2.39585
0.17421	-8.18986
-0.36133	-0.66508
-0.53984	0.76336
0.02119	-0.35899
0.32721	-0.76711
0.14870	0.73785
0.35272	1.50308
0.35272	3.00804
0.45472	4.07936
0.27621	-1.48133
0.14870	-1.40480
0.22521	-1.22625
0.12320	-0.53754
-0.13181	-0.28246
-0.31033	2.42136
-0.20832	2.72745
0.53123	-3.80253
0.53123	-1.94047
0.83725	-0.23145
-0.13181	1.06945
-0.31033	0.15117
0.07220	1.12046
0.53123	1.73265
0.22521	3.74776
0.22521	-0.02739
0.48022	-2.52714
-0.10631	-2.60367
-0.18282	-5.10343
-0.59084	2.06425
0.07220	2.16628
0.30171	1.93671
0.30171	2.49788
0.37822	2.49788
0.50573	0.10015
0.25071	-0.43551
0.09770	0.22769
0.12320	-0.41000
0.14870	-1.68539
0.12320	0.76336
0.02119	-0.25695
0.09770	-1.17523
-0.15732	-6.58288
0.04670	-0.33348
0.30171	2.14077
0.22521	1.96222
0.22521	4.05386
0.07220	3.21210
0.07220	-4.31269
0.02119	2.19179
-0.15732	-2.09351
0.73524	0.73785
0.60773	-0.92016
-0.02981	0.68683
-0.79486	2.44687
-0.08081	-2.62918
0.32721	1.83468
0.60773	-1.53234
0.58223	-2.17003
0.14870	0.32972
-0.23382	0.94191
-0.08081	0.76336
-0.10631	-0.61406
0.30171	-0.05289
0.45472	1.32453
0.42922	2.19179
-0.36133	-2.06800
-1.20288	-0.46102
0.12320	-0.33348
0.17421	0.50828
0.32721	1.40105
0.50573	-0.58856
0.32721	0.48277
0.37822	-0.23145
0.22521	0.68683
-0.08081	-0.41000
0.09770	0.58480
0.32721	-0.53754
0.27621	0.71234
0.22521	0.45726
0.09770	-0.61406
0.04670	-0.10391
0.07220	0.10015
-0.02981	1.86019
0.22521	2.06425
0.19971	0.63582
0.22521	-2.42511
0.04670	-9.03162
0.12320	-0.18043
0.07220	0.78886
0.07220	2.14077
0.09770	3.00804
0.04670	2.14077
0.12320	1.65613
0.27621	0.55929
0.25071	1.83468
0.04670	-0.10391
0.30171	-7.39912
0.07220	0.61031
0.50573	0.30422
-0.28482	1.96222
-0.89686	0.27871
-0.05531	-0.56305
0.53123	0.55929
0.93925	1.22250
0.58223	0.61031
-0.02981	0.94191
0.42922	0.94191
0.68424	0.78886
0.42922	1.60511
-0.13181	1.04394
-0.64185	-5.94518
-0.51434	-3.95558
-0.02981	1.65613
0.27621	0.35523
0.42922	0.76336
0.27621	2.31933
0.14870	2.42136
0.22521	1.57960
0.40372	0.58480
0.07220	-0.56305
-0.46334	0.50828
-0.36133	2.01323
0.40372	-0.81812
0.32721	-2.29757
0.25071	-1.30277
0.14870	-1.40480
0.22521	0.22769
0.63323	1.93671
0.73524	0.63582
0.48022	-0.79262
-0.08081	0.81437
-0.08081	-0.35899
0.19971	1.01843
0.22521	0.91640
0.09770	1.42656
0.12320	1.91120
-0.05531	2.31933
0.02119	-6.42983
-0.08081	-1.48133
-0.00431	0.15117
-0.10631	-0.02739
-0.08081	0.58480
0.50573	0.48277
0.07220	-3.13933
0.02119	0.40625
0.02119	1.86019
0.42922	1.88570
0.50573	2.90601
0.48022	-0.25695
0.35272	-0.66508
0.19971	0.02363
0.12320	0.22769
0.25071	2.34484
0.19971	-0.56305
-0.08081	0.55929
-0.69285	-5.48604
-0.20832	-1.60887
0.09770	0.48277
0.32721	0.32972
0.25071	1.65613
0.37822	3.26312
0.32721	-2.06800
0.14870	-3.47093
0.81175	1.09496
0.76074	2.03874
-0.05531	2.88050
-0.69285	1.37554
-0.48884	1.09496
-0.18282	-1.04770
0.48022	0.22769
0.76074	0.83988
0.48022	1.88570
0.27621	-4.03210
0.25071	-4.38921
0.25071	-0.25695
0.12320	2.42136
-0.05531	-2.62918
0.04670	-0.41000
0.04670	1.01843
0.07220	0.45726
-0.10631	1.45206
-0.08081	1.50308
0.25071	2.21730
0.19971	0.55929
0.09770	0.86539
-0.20832	-0.69059
-0.18282	-1.25176
0.65874	-1.94047
0.58223	-1.91496
0.55673	1.42656
0.22521	0.73785
0.27621	1.98773
0.32721	1.91120
0.19971	-0.28246
-0.20832	0.99292
-0.64185	-2.47613
-0.41233	0.53379
0.27621	-4.87386
0.53123	0.83988
0.50573	1.17148
0.27621	0.96742
0.07220	1.86019
-0.05531	3.18659
0.07220	-2.93527
0.25071	-1.55785
0.14870	-0.58856
0.07220	0.27871
0.02119	1.68163
0.07220	0.04914
-0.10631	1.09496
0.07220	2.14077
0.02119	-4.28718
0.04670	-1.35379
0.50573	-1.88945
0.53123	1.88570
0.12320	-0.00188
0.22521	2.03874
0.19971	2.88050
0.40372	0.96742
0.17421	-2.34859
-0.23382	-1.68539
0.19971	0.66132
-0.61635	0.35523
-0.36133	-5.71561
0.58223	1.57960
0.65874	1.83468
0.55673	2.98253
0.37822	-1.58336
0.22521	0.63582
0.07220	0.53379
0.09770	-0.89465
0.17421	0.27871
0.07220	-0.10391
-0.20832	0.76336
-0.43783	3.36515
-0.10631	-3.34339
0.50573	-2.62918
0.55673	-2.50164
0.50573	-0.92016
0.14870	2.62542
0.17421	2.47238
0.14870	1.06945
0.12320	1.09496
0.04670	1.78367
0.04670	-0.51203
-0.02981	0.53379
0.02119	0.68683
0.14870	0.27871
0.32721	-0.33348
0.27621	-0.02739
0.02119	-2.62918
-0.20832	1.75816
-0.25932	-0.76711
0.02119	-0.69059
0.53123	-0.10391
0.45472	1.06945
0.45472	1.12046
0.12320	1.42656
-0.08081	0.50828
0.14870	-2.45062
0.50573	0.07465
0.25071	1.24800
-0.23382	0.81437
0.12320	0.63582
0.07220	0.02363
0.53123	-0.30797
0.17421	3.41616
-0.15732	0.71234
-0.15732	-3.21585
0.22521	-7.06752
0.45472	0.91640
0.25071	0.91640
-0.18282	1.91120
0.07220	2.14077
0.17421	3.90081
0.17421	-0.35899
0.12320	-3.19035
0.22521	-1.25176
0.27621	-0.23145
0.17421	1.32453
0.17421	1.78367
-0.13181	2.26831
-0.31033	-3.24136
0.27621	-0.10391
0.42922	0.68683
0.55673	0.48277
0.48022	-0.00188
0.35272	0.22769
-0.18282	0.17668
-0.28482	0.15117
0.12320	-0.30797
0.22521	-2.98628
-0.10631	1.45206
0.22521	1.37554
0.37822	-0.51203
0.53123	-0.53754
0.42922	-0.30797
-0.05531	1.78367
-0.48884	1.17148
-0.31033	2.08976
0.07220	-0.76711
0.37822	-2.06800
0.45472	-2.29757
0.63323	1.35003
0.35272	-0.46102
0.09770	0.55929
0.02119	1.86019
0.19971	-0.51203
0.19971	3.00804
0.14870	1.57960
-0.00431	-3.39441
0.14870	-2.88425
0.32721	-0.94566
0.07220	1.83468
-0.33583	0.73785
-0.33583	0.81437
0.22521	1.78367
0.48022	0.99292
0.60773	0.89089
0.22521	-0.94566
-0.05531	-2.01699
0.30171	0.73785
-0.28482	0.02363
0.14870	-2.60367
0.30171	0.76336
0.27621	-0.79262
0.02119	4.41096
0.22521	-0.28246
0.09770	-6.02170
0.07220	-0.56305
0.17421	0.99292
0.25071	1.24800
-0.05531	2.52339
0.04670	1.80917
0.14870	0.94191
0.32721	0.55929
0.35272	0.04914
0.30171	-0.10391
-0.20832	0.22769
-0.28482	0.35523
0.09770	-2.68019
0.27621	-1.40480
-0.13181	0.32972
-0.15732	-0.33348
0.63323	-0.35899
0.68424	0.20219
0.32721	4.23241
0.02119	-0.38449
0.27621	-0.81812
0.30171	-2.09351
0.22521	-0.58856
0.09770	1.47757
0.12320	3.69675
0.35272	-0.15492
-0.02981	0.58480
-0.66735	1.50308
0.04670	1.47757
0.35272	-5.30749
0.50573	0.27871
0.35272	0.25320
0.30171	0.38074
0.42922	0.81437
0.12320	-0.56305
0.19971	0.35523
0.09770	0.55929
-0.00431	-0.07840
0.09770	0.71234
0.35272	0.50828
0.27621	1.04394
-0.08081	0.63582
-0.59084	-4.23616
0.19971	-0.15492
0.48022	2.49788
0.27621	-1.12422
0.02119	0.07465
0.07220	1.75816
0.42922	1.09496
0.53123	1.42656
0.17421	1.47757
0.25071	2.29382
0.17421	-4.95038
-0.15732	-0.02739
-0.02981	1.45206
0.27621	-2.06800
0.04670	-1.86394
-0.31033	0.99292
-0.05531	2.90601
0.02119	2.82948
0.48022	0.22769
0.53123	0.32972
0.53123	-1.65988
0.02119	0.81437
-0.28482	2.31933
-0.15732	-3.13933
0.19971	-3.08831
0.45472	2.47238
0.32721	2.03874
0.27621	-0.38449
0.30171	-0.20594
0.12320	-0.28246
0.12320	0.25320
-0.00431	2.34484
-0.02981	0.32972
-0.13181	-4.44022
-0.10631	-2.47613
0.30171	1.35003
0.53123	1.91120
0.32721	1.29902
0.22521	1.01843
-0.08081	2.26831
-0.02981	0.76336
0.30171	-3.11382
0.35272	0.71234
0.22521	-0.51203
0.30171	0.81437
-0.15732	0.12566
0.12320	1.17148
0.30171	-1.17523
0.14870	-1.40480
0.17421	0.83988
-0.15732	1.35003
-0.05531	0.12566
0.12320	0.71234
0.37822	-0.56305
0.12320	1.47757
0.17421	-1.88945
0.12320	-0.81812
-0.00431	1.70714
0.37822	0.50828
0.30171	0.15117
0.32721	0.40625
-0.69285	-0.97117
-0.23382	0.32972
0.27621	1.04394
0.65874	-0.20594
0.60773	-0.10391
0.35272	-1.12422
0.27621	1.57960
0.32721	1.37554
0.19971	0.43176
0.07220	0.15117
-0.00431	-1.17523
-0.08081	0.17668
0.07220	-0.12942
-0.02981	-2.29757
-0.00431	-0.12942
0.09770	2.42136
0.12320	0.04914
0.35272	1.24800
0.27621	0.25320
0.40372	-0.86914
0.35272	0.45726
0.22521	-0.00188
0.14870	0.45726
-0.13181	0.76336
0.07220	1.24800
0.27621	0.48277
0.30171	-0.33348
0.14870	-0.15492
0.07220	2.39585
0.02119	2.42136
0.14870	-4.49124
0.17421	-3.08831
0.07220	-0.79262
0.22521	1.04394
0.19971	1.27351
0.12320	1.57960
0.12320	1.73265
-0.00431	1.37554
-0.08081	1.35003
0.04670	-0.12942
0.07220	0.12566
0.12320	1.55410
0.22521	-2.60367
0.09770	-1.60887
0.09770	0.32972
-0.05531	0.38074
-0.18282	0.40625
0.30171	1.52859
0.32721	-0.38449
0.22521	0.96742
0.17421	1.55410
0.17421	-0.12942
0.07220	-2.09351
-0.00431	0.66132
-0.31033	-5.38401
0.04670	1.27351
0.27621	1.24800
0.25071	0.71234
0.12320	1.55410
-0.02981	1.35003
0.25071	2.44687
0.12320	-4.31269
0.02119	-1.04770
0.14870	0.40625
0.30171	0.63582
0.37822	0.66132
0.12320	0.66132
0.22521	0.76336
0.25071	0.71234
0.17421	1.27351
0.27621	-0.63957
0.12320	-0.07840
0.19971	-1.09871
-0.53984	0.04914
-0.28482	0.38074
0.17421	0.12566
0.48022	-0.48652
0.60773	0.15117
0.37822	0.45726
0.07220	1.35003
0.25071	-0.25695
0.30171	-0.25695
0.19971	0.40625
0.14870	1.29902
0.04670	1.70714
-0.02981	0.61031
0.07220	-4.74632
0.09770	-0.20594
-0.05531	1.04394
0.19971	0.83988
0.14870	1.19699
0.07220	1.91120
-0.28482	3.23761
0.12320	-2.75671
0.27621	-6.02170
0.17421	0.66132
0.12320	0.94191
0.37822	1.75816
0.19971	1.45206
0.07220	0.07465
0.25071	1.19699
0.27621	-0.51203
0.35272	-3.90456
0.32721	0.68683
0.02119	0.15117
-0.00431	1.12046
0.09770	1.98773
0.25071	-0.02739
0.22521	0.22769
0.14870	0.35523
0.07220	0.15117
0.17421	1.27351
0.19971	0.63582
0.19971	-4.31269
0.27621	-0.46102
-0.13181	-1.37929
-0.13181	1.32453
0.12320	2.72745
0.40372	0.99292
-0.00431	-0.71609
0.02119	-0.10391
-0.05531	0.83988
0.35272	0.68683
0.63323	1.83468
0.32721	0.86539
0.17421	1.42656
0.17421	-1.63437
0.17421	-0.05289
0.27621	0.27871
-0.20832	-0.05289
-0.10631	0.35523
-0.00431	0.55929
0.14870	1.93671
0.22521	1.40105
0.19971	-4.38921
0.09770	-1.20074
0.12320	0.15117
-0.08081	0.40625
-0.05531	-1.50683
0.32721	1.88570
0.27621	1.68163
0.22521	1.63062
0.48022	-0.23145
-0.05531	-0.53754
-0.02981	-0.48652
-0.18282	0.78886
0.07220	0.78886
0.42922	1.17148
0.48022	1.04394
0.35272	-3.11382
0.17421	-0.46102
0.19971	1.04394
0.17421	2.11527
0.07220	0.53379
0.04670	1.68163
0.17421	2.08976
0.12320	-8.75103
0.07220	-2.27207
-0.02981	0.53379
-0.10631	1.40105
-0.00431	2.67644
0.25071	3.26312
0.37822	0.86539
0.42922	-0.66508
0.32721	0.61031
0.17421	0.35523
0.17421	-0.05289
0.07220	-0.10391
0.12320	0.22769
0.14870	0.04914
0.27621	-0.61406
0.17421	-0.12942
0.17421	-0.97117
-0.43783	1.35003
-0.15732	-2.75671
0.32721	-1.07320
0.55673	0.55929
0.53123	1.24800
0.25071	1.35003
-0.00431	0.91640
0.27621	0.78886
0.27621	0.66132
0.25071	0.40625
0.14870	0.07465
0.14870	-0.38449
0.07220	1.01843
0.09770	1.93671
0.17421	-1.76191
0.09770	-0.76711
0.02119	1.06945
0.07220	3.03355
0.12320	-4.21066
0.22521	-2.55265
0.17421	-1.91496
0.19971	1.52859
0.19971	2.75296
0.14870	2.16628
0.17421	1.42656
0.09770	1.06945
0.04670	0.63582
0.12320	0.58480
0.14870	1.83468
0.17421	-0.97117
0.17421	-5.25647
0.14870	0.43176
0.14870	0.17668
0.19971	0.27871
0.22521	0.66132
0.12320	0.83988
0.19971	0.55929
0.12320	0.25320
0.12320	0.10015
0.09770	-0.18043
0.22521	0.48277
0.12320	1.78367
0.07220	-0.89465
0.04670	-1.20074
0.09770	-0.58856
0.09770	-0.05289
0.07220	-0.12942
0.17421	-1.58336
0.27621	0.91640
0.22521	0.81437
0.22521	1.70714
0.30171	1.93671
0.22521	0.99292
0.25071	-0.69059
0.17421	0.50828
0.07220	0.12566
0.04670	-0.25695
0.04670	0.07465
0.09770	0.15117
0.14870	-0.10391
0.12320	0.99292
0.17421	-5.38401
0.02119	-0.71609
-0.10631	1.17148
0.35272	3.23761
0.37822	-0.53754
0.27621	2.34484
0.14870	0.38074
0.17421	-0.86914
0.19971	0.35523
-0.00431	0.94191
0.04670	1.22250
0.19971	0.35523
0.09770	-3.75152
0.07220	1.35003
-0.05531	0.25320
0.02119	0.04914
0.22521	1.88570
0.27621	1.98773
0.17421	-5.91967
0.12320	-0.51203
0.17421	1.35003
0.27621	1.63062
0.12320	0.50828
0.19971	-0.71609
0.09770	-0.07840
0.19971	0.76336
0.12320	0.43176
0.02119	1.06945
0.07220	0.22769
0.17421	1.55410
0.09770	0.32972
0.07220	-3.21585
0.02119	-0.23145
0.19971	0.81437
0.35272	0.94191
0.19971	0.89089
0.19971	0.78886
0.14870	1.14597
0.12320	1.04394
0.12320	-1.50683
0.17421	-0.58856
0.14870	0.22769
0.14870	0.99292
0.09770	2.42136
0.19971	0.73785
0.14870	-4.41472
-0.02981	0.96742
0.04670	-3.44542
0.04670	0.68683
0.19971	2.03874
0.27621	1.98773
0.14870	2.90601
0.19971	1.29902
0.17421	1.17148
0.17421	1.88570
0.12320	0.45726
0.04670	-5.07792
0.02119	-1.43031
-0.33583	-0.20594
-0.20832	-0.00188
0.37822	-0.02739
0.32721	0.25320
0.27621	1.75816
0.27621	1.09496
0.07220	-2.32308
-0.05531	0.17668
-0.05531	0.89089
0.02119	-0.66508
0.07220	-1.22625
0.09770	1.47757
0.12320	2.14077
0.14870	-3.34339
0.04670	1.01843
-0.31033	2.29382
-0.38683	0.50828
0.22521	1.42656
0.45472	-3.44542
0.27621	0.22769
0.17421	0.71234
0.19971	1.96222
0.17421	-1.45582
0.17421	-0.05289
0.07220	0.27871
-0.02981	-0.00188
0.07220	-0.89465
0.04670	-0.05289
0.02119	-0.18043
0.09770	-0.92016
-0.02981	0.63582
0.07220	0.27871
0.09770	-0.18043
0.14870	0.63582
0.14870	0.61031
0.19971	0.25320
0.14870	0.10015
0.07220	0.40625
0.12320	0.40625
0.14870	0.48277
0.25071	0.91640
0.22521	-0.48652
0.14870	-1.25176
0.17421	-0.58856
0.12320	0.66132
0.04670	1.47757
0.09770	0.43176
0.02119	-2.45062
0.02119	0.40625
0.22521	1.55410
0.17421	-0.81812
0.09770	-0.35899
0.17421	1.57960
0.27621	1.52859
0.14870	-0.56305
0.25071	0.04914
0.22521	-1.76191
0.14870	0.50828
0.17421	1.17148
0.12320	1.96222
0.02119	1.19699
-0.31033	1.01843
0.12320	-0.35899
0.45472	-4.79733
0.40372	0.61031
0.42922	0.43176
0.22521	1.17148
0.19971	1.50308
0.17421	-0.05289
0.17421	0.73785
0.14870	0.89089
0.12320	0.58480
0.09770	-4.44022
0.04670	-1.96597
-0.02981	0.73785
0.12320	0.63582
0.32721	1.70714
0.32721	1.37554
0.22521	0.91640
0.30171	0.99292
0.14870	0.38074
0.17421	-1.81293
0.09770	0.58480
0.09770	0.71234
0.09770	-0.61406
0.04670	-0.51203
0.07220	-0.00188
0.12320	-0.12942
0.14870	0.02363
0.19971	-0.10391
0.09770	0.61031
0.12320	0.78886
0.19971	0.63582
0.19971	0.78886
0.22521	-1.07320
0.30171	-0.86914
0.25071	-2.01699
0.25071	2.62542
0.25071	0.45726
0.30171	0.40625
0.22521	-0.15492
0.14870	-0.07840
0.12320	0.71234
0.12320	0.94191
0.09770	0.76336
0.07220	1.40105
0.04670	0.81437
0.14870	-0.46102
0.07220	-3.36890
0.07220	0.15117
0.09770	-0.35899
0.12320	0.96742
0.32721	0.86539
0.27621	0.99292
0.19971	0.61031
-0.05531	1.24800
0.27621	0.20219
0.40372	-1.14973
0.14870	-1.60887
-0.00431	0.35523
-0.13181	0.86539
-0.00431	-0.07840
0.25071	0.86539
0.32721	-1.22625
0.22521	-0.51203
0.25071	0.91640
0.19971	0.27871
0.09770	0.68683
0.02119	1.01843
0.09770	-0.30797
0.22521	0.50828
0.07220	0.94191
0.17421	-0.18043
0.25071	-0.15492
0.02119	0.02363
0.19971	-0.20594
0.19971	0.40625
0.22521	0.22769
0.27621	0.53379
0.12320	-0.63957
0.14870	0.07465
0.17421	0.78886
0.12320	-2.01699
-0.00431	1.37554
-0.18282	0.20219
0.02119	-1.99148
0.19971	1.91120
0.32721	0.96742
0.30171	0.76336
0.32721	0.45726
0.30171	0.02363
0.42922	0.63582
0.25071	0.73785
-0.02981	-0.12942
-0.28482	-1.30277
-0.20832	-0.86914
0.22521	0.25320
0.22521	0.27871
0.17421	-0.38449
0.14870	-0.05289
0.14870	0.94191
0.17421	1.35003
0.19971	-0.41000
0.17421	-2.17003
0.14870	0.45726
0.12320	0.76336
-0.00431	1.29902
0.12320	2.16628
0.25071	1.04394
0.45472	-1.58336
0.40372	-1.73640
0.27621	0.86539
0.17421	0.78886
0.07220	0.61031
-0.05531	0.02363
0.17421	1.35003
0.19971	0.45726
-0.02981	-2.80773
0.17421	1.22250
0.30171	-0.79262
0.12320	-0.99668
0.07220	0.10015
0.22521	0.10015
0.35272	1.22250
0.19971	1.68163
-0.08081	1.47757
-0.33583	0.17668
0.09770	-1.65988
0.17421	0.04914
0.35272	0.96742
0.32721	0.50828
0.35272	-1.68539
0.09770	0.43176
0.14870	0.48277
0.02119	0.20219
0.07220	0.12566
0.14870	-0.00188
0.09770	0.91640
0.14870	0.71234
0.12320	-0.10391
0.19971	-1.25176
0.17421	0.61031
0.12320	-1.94047
0.12320	-1.37929
-0.00431	0.86539
0.04670	1.68163
0.17421	1.88570
0.40372	1.52859
0.25071	1.37554
0.17421	0.91640
-0.02981	-0.89465
0.17421	-0.71609
0.19971	-0.38449
0.30171	-0.07840
0.22521	0.25320
0.27621	0.30422
0.19971	-2.11902
0.17421	-0.46102
-0.05531	1.06945
-0.25932	0.86539
-0.13181	1.19699
0.17421	0.43176
0.19971	0.25320
0.07220	-0.69059
0.30171	-1.68539
0.07220	-3.13933
-0.08081	1.42656
-0.08081	1.24800
0.30171	2.01323
0.32721	1.75816
0.30171	1.22250
0.22521	0.81437
0.19971	-1.32828
0.17421	-2.22105
0.12320	-0.33348
0.04670	0.61031
0.09770	0.86539
0.14870	0.71234
-0.02981	0.86539
-0.02981	-0.05289
-0.05531	-0.76711
-0.02981	-2.57816
0.09770	-0.89465
0.12320	1.91120
0.19971	2.03874
0.22521	-1.09871
0.32721	0.55929
0.32721	-0.23145
0.25071	0.30422
0.22521	0.07465
0.27621	0.43176
0.22521	0.96742
0.32721	0.86539
0.14870	-1.40480
0.19971	-1.25176
0.30171	0.73785
0.07220	-0.35899
-0.48884	0.96742
-0.48884	0.99292
0.09770	0.38074
0.42922	1.06945
0.45472	0.25320
0.32721	-1.07320
0.32721	-0.89465
0.25071	0.96742
0.25071	0.96742
0.17421	0.43176
0.27621	-0.94566
0.09770	0.55929
0.09770	0.32972
-0.08081	0.35523
0.09770	0.50828
0.14870	-0.92016
0.25071	0.50828
0.14870	0.94191
0.37822	1.47757
0.22521	-0.51203
0.12320	-1.02219
0.19971	-0.97117
0.30171	0.94191
0.17421	0.94191
0.07220	-0.51203
0.12320	-1.30277
0.14870	1.37554
0.19971	1.60511
0.22521	-0.28246
0.02119	-0.79262
-0.38683	1.98773
-0.23382	-0.84363
0.42922	1.29902
0.40372	0.78886
0.17421	-0.51203
0.22521	-0.30797
0.30171	-0.00188
0.30171	-0.23145
0.27621	-0.02739
0.19971	0.73785
-0.00431	-0.97117
-0.02981	-0.25695
-0.10631	-0.07840
-0.28482	0.25320
0.12320	0.45726
0.32721	0.55929
0.35272	0.43176
0.35272	0.58480
0.32721	0.53379
0.07220	0.25320
-0.36133	-0.02739
-0.08081	-0.38449
0.32721	1.17148
0.48022	0.53379
0.37822	-2.73121
0.19971	-1.78742
0.17421	1.40105
0.14870	1.70714
-0.02981	0.94191
0.02119	1.27351
0.12320	1.52859
0.12320	-0.35899
0.12320	0.30422
0.19971	0.27871
0.30171	-1.35379
0.22521	-0.71609
0.17421	-0.33348
0.12320	-0.05289
0.04670	0.91640
0.04670	0.07465
0.04670	0.25320
0.02119	-0.28246
0.12320	-0.41000
0.02119	0.63582
0.19971	-1.83844
0.25071	0.20219
0.22521	1.29902
0.35272	-0.23145
0.07220	1.37554
0.22521	0.53379
0.35272	-0.05289
0.17421	-0.00188
0.19971	1.80917
0.35272	-4.44022
0.22521	0.32972
-0.13181	1.37554
-0.64185	-0.69059
-0.18282	1.24800
0.30171	1.09496
0.37822	0.76336
0.37822	0.30422
0.42922	0.02363
0.27621	-0.07840
0.19971	-0.20594
0.17421	-0.35899
0.07220	-0.15492
0.07220	0.25320
0.12320	-0.99668
-0.02981	-0.56305
-0.10631	0.35523
0.17421	2.16628
0.22521	0.99292
0.19971	-0.23145
0.04670	-4.92487
0.09770	-0.23145
0.09770	1.50308
0.14870	1.88570
0.27621	1.78367
0.30171	0.02363
0.22521	1.42656
0.14870	1.06945
0.09770	-0.84363
0.09770	-0.63957
0.14870	0.86539
0.12320	-2.09351
0.09770	0.55929
-0.00431	0.63582
0.07220	0.55929
0.22521	0.10015
-0.10631	0.83988
0.02119	1.09496
0.25071	-1.83844
0.32721	0.63582
0.22521	-3.85355
0.07220	0.53379
0.02119	1.42656
0.25071	1.22250
0.22521	0.96742
0.17421	0.91640
-0.10631	0.68683
-0.10631	0.22769
0.12320	-0.89465
0.14870	0.10015
0.04670	-0.25695
0.45472	-0.74160
0.32721	1.57960
0.27621	1.73265
0.25071	-2.04250
0.07220	-3.21585
0.04670	0.50828
0.07220	1.12046
-0.05531	1.29902
0.14870	1.24800
0.14870	1.22250
0.22521	0.48277
0.22521	-1.09871
0.17421	0.25320
0.22521	0.15117
0.19971	0.58480
0.07220	0.48277
0.14870	-0.07840
0.07220	-1.81293
0.22521	-0.89465
0.12320	0.22769
0.17421	0.40625
0.09770	0.99292
0.14870	1.52859
0.27621	0.96742
0.14870	-1.50683
-0.05531	-0.25695
0.19971	1.19699
0.40372	-0.05289
0.27621	-4.36370
-0.00431	0.81437
-0.00431	1.19699
0.09770	1.47757
0.09770	1.22250
0.02119	2.08976
-0.00431	-0.28246
0.35272	-0.53754
0.30171	0.48277
0.19971	-0.07840
0.12320	-0.51203
0.14870	-0.53754
0.09770	0.45726
-0.05531	0.91640
0.17421	-0.05289
0.09770	0.12566
0.22521	-0.02739
0.25071	0.58480
0.30171	-0.10391
0.14870	0.76336
0.04670	1.06945
-0.05531	-0.69059
-0.08081	-4.41472
0.50573	0.43176
0.27621	0.04914
0.09770	1.93671
-0.41233	1.80917
-0.02981	1.19699
0.53123	-0.43551
0.35272	0.71234
0.45472	-0.20594
0.19971	-2.17003
0.12320	0.50828
0.07220	0.27871
0.07220	1.09496
0.09770	0.22769
0.17421	1.24800
0.25071	-0.81812
0.07220	-1.88945
0.02119	-0.61406
-0.00431	0.35523
0.07220	0.68683
0.14870	1.19699
0.30171	0.61031
0.25071	-0.92016
0.25071	0.43176
0.02119	-0.25695
0.02119	-4.31269
-0.15732	1.52859
0.27621	1.42656
0.32721	1.75816
0.30171	1.01843
0.37822	-0.25695
0.32721	0.27871
0.17421	0.66132
0.02119	-0.20594
0.07220	-0.05289
0.17421	0.43176
