0.14870	-0.46102
0.40372	-0.20594
0.22521	0.20219
0.19971	0.55929
0.02119	0.40625
0.09770	0.25320
0.17421	0.10015
0.17421	-0.00188
0.17421	0.30422
0.09770	0.15117
0.09770	-0.00188
0.22521	0.04914
0.19971	0.02363
0.19971	0.02363
0.09770	0.35523
0.02119	0.35523
0.12320	0.10015
0.09770	-0.02739
0.07220	0.27871
0.07220	0.04914
0.04670	-0.25695
0.17421	0.04914
0.12320	0.38074
0.09770	0.43176
0.14870	0.10015
0.02119	-0.05289
0.17421	-0.02739
0.09770	0.22769
0.17421	0.25320
0.12320	-0.07840
0.25071	0.04914
0.22521	0.35523
0.27621	0.45726
0.22521	0.38074
0.14870	0.04914
0.22521	0.15117
0.22521	0.15117
0.22521	0.25320
0.19971	0.35523
0.12320	-0.07840
0.22521	0.20219
0.19971	0.20219
0.22521	0.22769
0.22521	0.32972
0.25071	0.25320
0.14870	0.07465
0.22521	0.15117
0.17421	0.15117
0.25071	0.15117
0.19971	0.27871
0.25071	0.40625
0.25071	0.15117
0.17421	-0.28246
0.17421	-0.25695
0.22521	0.12566
0.22521	0.68683
0.19971	0.63582
0.14870	0.55929
0.04670	0.15117
0.09770	-0.05289
0.12320	0.15117
0.14870	0.10015
0.12320	0.10015
0.17421	0.15117
0.19971	0.30422
0.22521	0.25320
0.17421	-0.05289
0.22521	-0.00188
0.22521	0.17668
0.09770	0.32972
0.12320	0.32972
0.14870	0.17668
0.12320	-0.86914
0.07220	-0.10391
0.19971	-0.20594
0.07220	0.48277
0.12320	0.50828
0.17421	0.50828
0.04670	0.12566
0.14870	-0.12942
0.14870	-0.00188
0.17421	0.27871
0.07220	0.02363
0.12320	0.07465
0.19971	0.07465
0.14870	-0.05289
0.14870	-0.02739
0.12320	-0.25695
0.19971	0.04914
0.17421	0.17668
0.07220	0.25320
0.07220	0.12566
0.07220	0.04914
0.02119	0.07465
0.02119	0.15117
0.04670	0.10015
0.09770	0.10015
0.14870	0.15117
0.14870	0.35523
0.17421	0.32972
0.14870	0.07465
0.07220	-0.05289
0.12320	-0.38449
0.12320	0.22769
0.09770	0.27871
0.09770	0.20219
0.14870	0.17668
0.17421	0.20219
0.17421	0.35523
0.14870	0.12566
0.12320	0.20219
0.14870	0.12566
0.07220	0.10015
0.04670	-0.12942
0.12320	0.10015
0.19971	0.17668
0.22521	-0.15492
0.14870	-0.20594
0.09770	0.45726
0.17421	0.27871
0.14870	0.48277
0.09770	0.43176
0.09770	0.15117
0.09770	0.07465
0.12320	0.15117
0.02119	-0.10391
0.09770	-0.20594
0.04670	0.02363
0.19971	0.04914
0.07220	0.35523
0.17421	0.25320
0.17421	0.12566
0.17421	0.10015
0.14870	-0.10391
0.14870	-0.15492
0.22521	0.22769
0.14870	0.63582
0.14870	0.53379
0.19971	0.32972
0.14870	0.02363
0.14870	0.12566
0.17421	0.22769
0.12320	0.15117
0.09770	0.12566
0.12320	-0.18043
0.09770	0.45726
0.17421	0.07465
0.09770	-0.28246
0.19971	-0.28246
0.12320	0.68683
0.19971	0.61031
0.14870	-0.12942
0.12320	0.35523
0.12320	0.20219
0.09770	0.17668
0.12320	0.04914
0.17421	0.15117
0.22521	0.15117
0.19971	0.17668
0.12320	-0.05289
0.07220	0.10015
0.14870	0.17668
0.04670	0.12566
0.09770	-0.25695
0.27621	0.12566
0.12320	0.30422
0.17421	0.30422
0.12320	0.12566
0.19971	0.17668
0.04670	0.55929
0.14870	0.30422
0.19971	0.07465
0.14870	-0.05289
0.12320	-0.46102
0.17421	-0.00188
0.19971	0.50828
0.22521	0.55929
0.22521	0.55929
0.14870	0.50828
0.14870	-0.00188
0.17421	-0.18043
0.12320	-0.12942
0.02119	0.32972
0.17421	0.15117
0.17421	0.04914
0.14870	0.04914
0.17421	0.35523
0.17421	0.02363
0.22521	0.02363
0.19971	0.25320
0.07220	0.40625
0.09770	0.20219
0.09770	0.32972
0.17421	-0.07840
0.14870	0.10015
0.12320	0.12566
0.25071	0.15117
0.07220	0.35523
0.14870	0.04914
0.12320	-0.23145
0.17421	0.12566
0.07220	0.12566
0.12320	0.38074
0.09770	0.20219
0.17421	0.20219
0.12320	0.25320
0.14870	0.20219
0.09770	0.32972
0.02119	0.10015
0.17421	0.04914
0.12320	0.20219
0.22521	0.20219
0.14870	-0.02739
0.12320	0.17668
0.14870	0.48277
0.17421	0.04914
0.17421	0.20219
0.17421	-0.18043
0.09770	0.27871
0.07220	0.12566
0.14870	-0.05289
0.12320	-0.46102
0.19971	0.30422
0.22521	0.55929
0.12320	0.76336
0.04670	0.63582
-0.00431	-0.18043
0.19971	-0.38449
0.19971	-0.46102
0.22521	0.22769
0.22521	0.32972
0.12320	0.43176
0.22521	0.15117
-0.02981	-0.20594
0.12320	0.10015
0.07220	0.43176
0.17421	0.38074
0.12320	0.15117
0.09770	-0.18043
0.27621	-0.15492
0.25071	0.17668
0.17421	0.27871
0.17421	0.27871
0.07220	0.40625
0.04670	-0.02739
-0.00431	-0.18043
0.22521	-0.05289
0.22521	0.35523
0.19971	0.45726
0.27621	0.02363
0.09770	0.27871
0.09770	0.12566
0.12320	0.20219
0.17421	-0.02739
0.14870	0.15117
0.14870	0.25320
0.07220	0.32972
0.07220	0.73785
0.14870	-0.15492
0.25071	-0.99668
0.12320	-1.22625
0.09770	0.35523
0.07220	0.63582
0.14870	0.45726
0.27621	0.96742
0.12320	0.86539
0.19971	0.53379
0.09770	0.32972
0.12320	-0.05289
0.09770	0.02363
0.17421	-0.02739
0.19971	-0.35899
0.14870	-0.25695
0.14870	-0.00188
0.12320	-0.18043
-0.00431	-0.05289
0.17421	0.17668
0.19971	0.35523
0.22521	0.27871
0.12320	0.25320
0.07220	0.30422
0.14870	0.27871
0.19971	0.15117
0.22521	0.10015
0.19971	0.25320
0.14870	0.38074
0.12320	0.45726
0.09770	0.20219
0.09770	-0.23145
0.17421	-0.23145
0.12320	0.25320
0.19971	0.15117
0.14870	0.35523
0.09770	0.07465
0.09770	0.22769
0.12320	-0.23145
0.12320	-0.48652
0.07220	-0.15492
0.17421	0.40625
0.04670	0.53379
0.12320	0.30422
0.17421	0.27871
0.12320	0.45726
0.14870	0.30422
0.12320	0.10015
0.14870	-0.05289
0.14870	0.30422
0.14870	0.04914
0.25071	0.10015
0.17421	0.15117
0.22521	0.04914
0.17421	0.15117
0.25071	0.22769
0.19971	0.50828
0.12320	0.55929
0.14870	0.48277
0.27621	0.07465
0.14870	-1.12422
0.25071	-0.15492
0.14870	0.32972
0.12320	0.68683
0.14870	0.58480
0.17421	0.50828
0.22521	0.20219
0.14870	-0.05289
0.14870	0.25320
0.14870	0.22769
0.12320	0.15117
0.02119	0.20219
0.09770	-0.00188
0.07220	-0.20594
0.07220	-0.25695
0.12320	0.17668
0.17421	0.30422
0.22521	0.35523
0.17421	0.35523
0.12320	0.45726
0.09770	0.22769
0.02119	-0.02739
0.09770	-0.25695
0.17421	0.07465
0.14870	0.25320
0.19971	0.32972
0.27621	0.04914
0.12320	0.45726
0.09770	0.38074
0.19971	0.12566
0.09770	0.30422
0.12320	-0.15492
0.17421	0.12566
0.12320	0.15117
0.22521	0.04914
0.14870	0.22769
0.14870	0.25320
-0.00431	0.15117
0.04670	0.02363
0.22521	-0.28246
0.22521	-0.10391
0.22521	0.10015
0.17421	0.73785
0.12320	0.50828
0.04670	0.32972
0.07220	0.04914
0.17421	-0.15492
0.12320	0.22769
0.25071	0.17668
0.25071	0.27871
0.14870	0.15117
0.17421	-0.05289
0.09770	0.10015
0.17421	-0.25695
0.12320	0.22769
0.09770	0.17668
0.12320	0.25320
0.04670	0.10015
0.12320	0.20219
0.22521	0.12566
0.14870	-0.02739
0.12320	-0.00188
0.17421	0.94191
0.14870	0.45726
0.12320	0.04914
0.07220	0.40625
0.14870	0.10015
0.14870	0.10015
0.09770	-0.00188
0.22521	0.04914
0.17421	0.15117
0.12320	0.02363
0.17421	-0.02739
0.14870	0.25320
0.14870	0.22769
0.09770	0.10015
0.02119	-0.43551
0.14870	0.25320
0.14870	0.35523
0.17421	0.04914
0.27621	0.43176
0.12320	0.30422
0.14870	0.04914
0.17421	-0.10391
0.14870	0.10015
0.19971	0.02363
0.22521	0.04914
0.14870	0.66132
0.09770	0.63582
0.12320	0.35523
0.12320	0.12566
0.12320	0.04914
0.12320	-0.18043
0.14870	-0.20594
0.09770	0.02363
0.12320	0.15117
0.17421	0.30422
-0.02981	0.27871
-0.00431	0.02363
0.14870	-0.61406
0.12320	0.07465
0.12320	0.35523
0.09770	0.38074
0.09770	0.43176
0.19971	0.25320
0.17421	0.30422
0.30171	0.15117
0.22521	0.04914
0.17421	-0.02739
0.17421	0.04914
0.17421	0.04914
0.12320	-0.10391
0.04670	-0.10391
0.14870	0.15117
0.19971	0.20219
0.19971	0.17668
0.12320	0.27871
0.14870	0.20219
0.04670	0.15117
0.17421	0.15117
0.25071	0.55929
0.25071	0.38074
0.12320	0.15117
0.07220	-0.15492
0.09770	-0.20594
0.09770	0.35523
0.19971	0.35523
0.14870	0.27871
0.14870	0.07465
0.09770	-0.15492
0.14870	0.02363
0.30171	0.43176
0.17421	0.48277
0.09770	-0.25695
0.07220	-0.05289
0.14870	0.22769
0.09770	0.32972
0.12320	0.30422
0.17421	0.43176
0.17421	-0.35899
0.25071	-0.43551
0.19971	0.61031
0.02119	0.48277
0.09770	0.25320
0.09770	-0.10391
0.07220	0.30422
0.17421	0.17668
0.12320	0.12566
0.17421	0.07465
0.14870	0.10015
0.19971	0.04914
0.22521	0.17668
0.07220	0.30422
0.12320	0.07465
0.12320	0.25320
0.14870	0.38074
0.14870	0.12566
0.14870	-0.43551
0.12320	0.35523
0.09770	0.22769
0.12320	0.22769
0.19971	0.30422
0.19971	0.25320
0.17421	0.20219
0.04670	0.10015
0.07220	0.07465
0.14870	0.20219
0.12320	0.10015
0.22521	0.04914
0.17421	0.10015
0.25071	0.38074
0.22521	0.15117
0.09770	0.25320
0.12320	-0.00188
0.04670	0.25320
0.12320	0.15117
0.07220	0.25320
0.17421	0.10015
0.04670	-0.07840
0.07220	-0.15492
0.14870	0.07465
0.22521	0.43176
0.09770	0.71234
0.19971	0.43176
0.19971	-0.33348
0.12320	-0.02739
0.14870	0.17668
0.17421	0.22769
0.14870	0.07465
0.07220	0.15117
0.07220	-0.61406
0.12320	0.15117
0.19971	0.58480
0.19971	0.50828
0.25071	0.61031
0.14870	0.25320
0.12320	-0.43551
0.12320	-0.02739
0.14870	0.35523
0.07220	-0.00188
0.07220	-0.07840
0.14870	-0.61406
0.07220	0.35523
0.12320	0.35523
0.19971	0.35523
0.22521	0.53379
0.22521	0.25320
0.12320	-0.18043
0.07220	0.10015
0.04670	0.17668
0.14870	0.17668
0.22521	0.35523
0.17421	0.61031
0.19971	-0.48652
0.22521	-1.02219
0.17421	0.35523
0.12320	0.50828
0.14870	0.53379
0.17421	0.38074
0.17421	0.53379
0.14870	0.22769
0.04670	0.04914
0.04670	-0.12942
0.09770	-0.07840
0.12320	0.25320
0.17421	0.32972
0.17421	-0.12942
0.04670	0.07465
0.14870	0.20219
0.14870	0.07465
0.09770	0.32972
0.22521	0.17668
0.19971	0.30422
0.22521	0.02363
0.27621	-0.25695
0.17421	-0.58856
0.27621	0.55929
0.22521	0.61031
0.12320	0.40625
0.22521	0.45726
0.25071	0.40625
0.27621	-0.10391
0.09770	0.27871
0.12320	0.27871
0.22521	0.07465
0.12320	0.20219
0.09770	0.04914
0.07220	-0.15492
0.17421	0.35523
0.19971	0.10015
0.25071	-0.30797
0.25071	-0.28246
0.17421	-0.05289
0.17421	0.45726
0.12320	0.38074
0.12320	0.45726
0.17421	0.45726
0.19971	0.25320
0.19971	0.04914
0.14870	0.25320
0.19971	0.12566
0.14870	-0.00188
0.14870	0.04914
0.19971	0.15117
0.22521	0.07465
0.25071	0.17668
0.25071	0.12566
0.12320	0.17668
0.12320	0.25320
0.14870	0.15117
0.09770	-0.05289
0.17421	0.02363
0.07220	0.30422
0.09770	0.32972
0.12320	0.12566
0.12320	0.25320
0.22521	0.17668
0.19971	0.04914
0.19971	0.30422
-0.00431	0.15117
0.14870	0.04914
0.04670	0.17668
0.14870	0.27871
0.45472	0.45726
0.32721	-0.18043
0.17421	0.35523
-0.02981	0.38074
-0.00431	0.53379
0.04670	0.10015
0.14870	-0.00188
0.12320	0.17668
0.14870	0.38074
0.07220	-0.30797
0.02119	-0.05289
0.55673	0.38074
0.48022	0.30422
0.37822	-0.18043
0.07220	-0.38449
-0.05531	0.48277
-0.15732	0.68683
0.07220	0.48277
0.09770	0.61031
0.19971	0.38074
0.07220	0.22769
0.35272	0.12566
0.40372	-0.15492
0.12320	-0.15492
0.09770	-0.10391
0.07220	0.17668
0.09770	0.15117
0.14870	0.22769
0.12320	0.40625
0.12320	0.10015
0.12320	-0.07840
0.12320	0.27871
0.17421	0.17668
0.17421	0.15117
0.19971	-0.18043
0.09770	0.45726
-0.00431	0.43176
0.07220	0.15117
0.53123	0.17668
0.30171	0.48277
0.12320	0.32972
-0.00431	0.27871
0.02119	-0.05289
0.04670	-0.02739
0.14870	0.02363
0.12320	-0.02739
0.17421	0.04914
0.09770	-0.07840
0.35272	-0.15492
0.32721	0.81437
-0.08081	0.81437
0.17421	0.43176
0.17421	-0.05289
0.19971	-2.04250
-0.02981	-0.02739
0.09770	0.71234
0.12320	0.83988
0.09770	0.63582
0.12320	0.55929
0.22521	0.43176
0.30171	0.22769
0.19971	0.15117
0.04670	0.02363
0.09770	-0.10391
0.12320	-0.07840
-0.51434	0.15117
0.88825	0.02363
0.50573	-0.18043
-0.66735	0.02363
-0.74385	0.12566
1.11776	0.15117
1.14327	0.10015
-0.99887	0.22769
0.50573	0.25320
0.07220	0.40625
0.55673	-0.25695
0.07220	0.81437
-0.51434	1.06945
-1.02437	0.96742
-0.31033	-0.38449
0.32721	-0.69059
0.53123	-0.76711
0.60773	-0.76711
0.99026	-0.94566
1.09226	1.35003
0.53123	3.72225
-0.20832	1.88570
-1.30489	-2.24656
-1.58541	0.27871
0.09770	2.65093
0.58223	-5.63909
1.16877	-0.84363
1.16877	0.66132
1.37278	4.56401
1.16877	4.10487
0.53123	-0.35899
0.07220	-3.01179
-0.56534	-4.10862
-1.50890	-4.36370
-1.43240	2.39585
-1.53441	10.17571
1.16877	2.01323
2.08683	-10.10295
1.32178	2.80397
0.02119	5.32924
0.37822	-1.99148
0.60773	-0.30797
0.42922	2.26831
0.02119	2.57441
-0.33583	3.46718
0.50573	-3.67499
0.32721	-4.44022
-0.20832	4.13038
-0.53984	1.91120
-0.23382	-12.50067
1.47479	-8.11334
-4.16107	-1.04770
-4.28858	3.26312
0.81175	8.92583
3.64243	4.53850
1.85731	3.41616
2.67337	1.37554
2.95388	-4.87386
1.47479	-1.43031
-0.02981	4.76807
-0.33583	7.95654
-0.28482	-8.72553
-0.82036	0.71234
-1.04987	-6.30229
-1.20288	-5.28198
-1.99343	0.58480
-0.28482	1.17148
0.07220	6.01795
0.40372	5.04866
0.63323	-2.52714
0.65874	-1.65988
0.50573	3.90081
0.50573	-0.74160
0.19971	-3.67499
0.14870	2.90601
0.17421	2.16628
0.40372	-13.01083
0.48022	-6.91448
-0.38683	0.10015
-0.25932	1.80917
-0.69285	4.25792
0.32721	6.63014
1.44929	1.63062
0.83725	3.00804
-1.38139	-1.78742
-1.30489	-1.81293
0.76074	0.68683
1.78081	3.21210
0.70974	2.08976
-0.84586	1.78367
0.83725	-8.26639
0.22521	4.07936
0.81175	-9.82236
0.40372	-0.46102
0.45472	1.65613
-0.13181	3.13558
-1.48340	3.26312
-0.20832	-0.58856
0.45472	2.49788
0.30171	1.65613
-0.00431	-1.99148
0.25071	-5.84315
0.42922	-1.81293
-0.08081	2.14077
-0.92237	2.65093
0.19971	2.49788
0.53123	-0.02739
0.02119	-2.01699
0.55673	-0.69059
0.65874	2.82948
0.53123	5.50780
0.88825	-2.85874
0.65874	-4.46573
1.06676	1.52859
-1.27939	-5.99620
-0.94787	-1.27726
-0.53984	0.04914
0.04670	0.99292
-0.51434	5.22721
-0.25932	3.11007
0.60773	0.02363
1.19427	0.99292
0.99026	-2.96078
0.42922	0.43176
0.32721	-0.25695
-0.38683	1.91120
-0.66735	5.22721
0.19971	-5.40952
-0.00431	-2.06800
0.07220	0.76336
0.22521	0.91640
0.19971	1.29902
0.12320	-5.89417
0.50573	1.14597
0.48022	1.70714
-0.41233	1.06945
-0.51434	2.01323
-0.97337	0.15117
0.45472	0.96742
1.47479	2.03874
0.99026	-0.46102
-0.74385	-2.80773
0.12320	-1.76191
0.58223	-1.68539
0.40372	4.48749
1.09226	2.06425
-0.43783	1.06945
-0.64185	-1.50683
0.27621	4.58952
0.32721	-3.19035
0.27621	-1.32828
0.35272	3.79878
0.09770	-5.81764
-0.76936	-3.11382
0.04670	3.16108
0.55673	2.52339
-0.28482	1.75816
-0.38683	0.76336
0.37822	2.80397
0.32721	-0.56305
0.42922	0.07465
0.32721	-0.61406
0.37822	-0.23145
0.09770	-1.43031
0.22521	0.40625
0.22521	-0.33348
0.25071	-1.65988
0.07220	-1.45582
-0.28482	-0.12942
-0.05531	-0.43551
-0.53984	2.80397
0.30171	5.68635
0.22521	-1.86394
0.42922	1.55410
0.02119	-7.16955
0.14870	0.63582
0.50573	-0.84363
0.53123	2.59991
-0.05531	1.96222
0.17421	3.33964
-0.05531	7.01275
0.48022	-9.33771
0.22521	-5.17995
-0.28482	-1.25176
-0.13181	2.98253
0.17421	2.29382
-0.00431	2.24281
-0.33583	-0.28246
0.14870	1.86019
0.32721	-0.51203
0.35272	-2.27207
0.42922	-1.40480
0.32721	-0.61406
-0.13181	0.25320
0.32721	2.80397
0.70974	3.00804
0.55673	-1.65988
0.22521	-10.51107
0.27621	1.22250
0.30171	2.59991
0.07220	3.33964
-0.10631	2.67644
-0.02981	2.98253
-0.02981	3.97733
0.45472	1.42656
0.35272	-2.65468
-1.20288	-3.95558
-0.38683	-1.37929
0.35272	0.89089
0.88825	0.61031
0.65874	0.55929
0.76074	1.35003
-0.08081	-0.07840
-0.56534	1.83468
-0.10631	-1.60887
0.58223	-3.06281
0.73524	0.35523
0.73524	0.32972
0.40372	2.37034
-0.69285	-0.89465
-0.02981	0.81437
0.17421	1.70714
-0.33583	3.95182
0.30171	0.71234
0.22521	-6.68491
0.32721	6.37506
0.12320	-6.73592
0.45472	-2.47613
0.14870	2.80397
-0.02981	1.09496
-0.08081	1.01843
0.07220	3.49268
0.25071	1.37554
-0.36133	-2.42511
0.27621	2.59991
0.35272	2.88050
0.60773	-4.87386
0.37822	-4.21066
-0.53984	0.48277
-0.36133	0.76336
0.07220	-0.10391
0.25071	0.30422
0.65874	3.72225
0.58223	1.37554
0.02119	0.30422
0.22521	2.03874
0.53123	-0.74160
0.09770	0.96742
-0.00431	-0.86914
-0.64185	-0.81812
-0.28482	-0.05289
0.65874	0.76336
0.42922	2.42136
-0.02981	-2.70570
0.53123	1.78367
0.07220	-1.88945
0.17421	3.11007
-0.79486	0.89089
0.76074	-3.21585
1.21977	-10.74064
-0.31033	1.98773
-0.76936	4.56401
-0.23382	3.69675
0.99026	2.26831
0.53123	4.66604
0.25071	2.70194
0.70974	-1.09871
0.17421	0.50828
-0.69285	2.19179
-0.20832	-3.39441
0.19971	-9.43974
0.14870	-1.02219
0.12320	1.45206
0.02119	2.26831
0.14870	6.47709
0.25071	-4.41472
0.02119	-3.57296
0.17421	1.17148
0.14870	-0.46102
0.30171	2.57441
0.30171	2.57441
-0.48884	0.99292
0.32721	3.59471
0.09770	-1.53234
0.32721	-0.89465
-0.10631	4.02835
-0.02981	-5.56257
0.68424	-4.51675
0.73524	-3.49644
-0.43783	1.80917
-0.23382	2.62542
0.30171	1.70714
0.09770	1.57960
-0.66735	1.17148
0.09770	0.45726
0.91375	-0.15492
0.68424	-1.17523
0.45472	2.80397
0.32721	-1.40480
-0.05531	0.43176
-0.13181	-3.85355
-0.56534	0.48277
-0.43783	-1.27726
0.02119	1.29902
0.27621	3.56921
0.35272	5.83940
0.35272	-12.16907
-0.28482	-0.23145
0.19971	1.14597
-0.00431	0.96742
0.53123	2.06425
0.58223	3.69675
0.63323	4.10487
0.30171	1.86019
0.25071	-1.58336
0.35272	0.07465
-0.69285	0.81437
-0.25932	0.04914
0.53123	-3.16484
0.50573	-3.19035
-0.53984	-0.66508
0.09770	-0.53754
0.58223	2.42136
0.32721	3.87530
-0.05531	-8.36842
0.27621	4.10487
0.22521	-2.29757
0.50573	-1.48133
-0.15732	1.17148
-0.15732	1.78367
0.22521	3.00804
0.17421	3.72225
0.07220	-2.29757
-0.10631	-2.47613
-0.28482	0.12566
0.12320	1.78367
0.32721	-0.05289
0.81175	-3.16484
0.93925	1.14597
0.07220	0.04914
-0.69285	0.99292
0.37822	-4.77183
0.02119	-0.30797
-1.07538	2.01323
0.17421	1.35003
0.55673	2.34484
0.48022	5.12518
0.60773	-0.56305
0.55673	-4.10862
-0.38683	-1.88945
0.12320	2.62542
-0.23382	-0.89465
0.09770	-1.09871
0.04670	0.38074
-0.94787	1.65613
-0.05531	4.81909
0.65874	1.06945
0.93925	-8.26639
0.58223	-1.86394
0.45472	0.48277
0.22521	1.63062
0.53123	2.26831
-0.33583	0.53379
0.19971	1.12046
-0.08081	0.38074
-0.15732	0.12566
-0.08081	0.12566
-0.64185	-1.07320
0.09770	2.14077
0.93925	-2.09351
0.50573	-1.32828
0.60773	-1.48133
-0.38683	1.65613
-0.05531	0.22769
0.19971	0.22769
0.60773	3.13558
0.50573	2.65093
0.55673	-0.05289
-0.69285	0.53379
-0.46334	2.01323
-0.02981	-7.55217
0.50573	-0.12942
0.07220	0.55929
0.12320	1.78367
0.53123	2.39585
0.04670	1.40105
0.22521	0.35523
0.12320	-0.43551
0.27621	0.55929
0.30171	-0.23145
-0.13181	-1.02219
-0.66735	0.94191
0.22521	-5.99620
0.37822	-1.32828
0.02119	2.16628
0.02119	2.98253
0.48022	2.24281
0.42922	1.80917
0.27621	0.86539
0.22521	-0.63957
0.12320	-0.97117
0.09770	2.21730
0.63323	-1.43031
0.07220	-4.64429
0.27621	2.08976
-0.28482	0.20219
-0.69285	-1.07320
-0.36133	0.35523
0.58223	1.57960
0.73524	1.83468
1.34728	1.98773
0.60773	0.40625
-1.40690	-0.05289
-0.74385	-2.85874
0.78624	-0.20594
0.88825	1.55410
0.53123	1.32453
-0.08081	-0.48652
0.19971	0.48277
0.14870	-4.03210
0.27621	-2.45062
0.12320	1.73265
-0.61635	2.39585
-0.43783	3.21210
0.30171	-3.82804
0.42922	0.91640
0.70974	-0.79262
0.14870	2.16628
-0.64185	2.39585
-0.92237	-0.61406
0.58223	-0.18043
0.55673	0.96742
0.63323	1.12046
1.01576	1.09496
0.12320	-1.60887
-0.64185	-0.20594
0.04670	-3.47093
0.30171	-0.10391
0.27621	1.73265
0.09770	1.78367
-0.00431	0.43176
0.32721	2.08976
0.35272	-6.12374
-0.13181	2.62542
-0.13181	-1.71090
-0.69285	1.27351
-0.46334	2.21730
0.22521	-3.06281
0.53123	-0.76711
0.60773	1.35003
0.19971	1.86019
0.42922	0.15117
-0.10631	0.30422
0.27621	0.76336
0.40372	2.47238
0.22521	0.22769
-0.33583	-2.65468
0.04670	-1.50683
0.83725	1.80917
0.30171	-1.48133
-1.50890	-1.50683
-0.74385	-0.18043
0.07220	-0.35899
0.91375	3.49268
0.78624	4.79358
0.63323	-3.70050
0.83725	-2.14453
0.58223	-0.94566
0.37822	1.57960
-0.18282	1.98773
-1.50890	0.45726
-0.13181	4.05386
0.30171	-4.46573
0.42922	-1.07320
0.27621	1.01843
-0.23382	-0.35899
-0.10631	0.86539
0.45472	1.52859
0.32721	-3.26687
0.19971	-1.09871
0.22521	-3.95558
0.09770	1.17148
0.12320	2.80397
0.12320	1.88570
0.25071	3.90081
0.07220	-6.71041
0.07220	0.89089
0.12320	-2.01699
0.30171	0.86539
-0.10631	1.52859
-0.51434	1.42656
0.12320	0.66132
0.58223	0.35523
0.55673	0.22769
-0.25932	-0.33348
-0.05531	-0.48652
0.30171	0.55929
0.78624	3.08456
0.70974	-4.10862
0.04670	-3.08831
0.07220	-1.88945
0.12320	0.27871
0.35272	1.47757
-0.18282	2.24281
0.09770	0.45726
0.02119	3.16108
-0.10631	2.31933
-1.04987	0.68683
0.04670	-4.61878
0.63323	-5.10343
0.63323	1.75816
0.63323	2.67644
0.55673	0.99292
0.32721	0.94191
0.17421	-0.56305
0.07220	0.22769
0.17421	2.67644
0.04670	-2.70570
0.02119	0.07465
-0.08081	1.52859
-0.02981	1.78367
0.25071	1.83468
0.27621	-2.93527
-0.08081	-2.62918
-0.10631	-0.89465
-0.13181	1.19699
0.19971	1.98773
0.02119	1.65613
-0.18282	-1.04770
0.60773	-0.18043
1.06676	-0.48652
0.83725	1.24800
-0.02981	1.86019
0.37822	1.22250
-0.28482	3.31413
-0.33583	-1.48133
-0.25932	-4.18515
0.17421	-3.03730
0.81175	-0.12942
0.27621	1.32453
0.42922	3.21210
0.40372	2.90601
-0.00431	-2.34859
-0.28482	0.45726
-0.10631	-0.33348
0.25071	-1.27726
0.12320	0.15117
-0.13181	0.76336
0.48022	1.01843
-0.02981	0.76336
0.04670	0.94191
0.27621	1.80917
0.50573	-0.74160
0.42922	1.14597
0.35272	-0.89465
0.30171	-2.22105
0.14870	-1.71090
0.02119	0.45726
0.04670	0.61031
0.02119	1.96222
0.12320	2.06425
0.04670	2.57441
0.09770	-1.65988
0.12320	-0.74160
0.37822	-1.17523
-0.10631	1.45206
-0.41233	0.32972
0.02119	0.99292
0.53123	1.60511
0.53123	-2.09351
0.25071	2.52339
0.45472	-3.19035
0.50573	-2.32308
-0.51434	0.25320
-0.36133	0.99292
0.25071	2.65093
-0.59084	2.52339
0.70974	-2.80773
0.42922	-0.79262
0.48022	-2.93527
0.55673	0.17668
0.45472	1.65613
-0.02981	1.98773
-0.41233	1.86019
-0.38683	0.43176
0.19971	0.04914
0.14870	0.61031
0.30171	2.42136
0.76074	-2.45062
0.19971	-3.08831
-0.33583	-0.66508
-0.87136	3.67124
0.35272	-0.41000
0.63323	-0.74160
0.55673	-3.52195
0.40372	-2.78222
0.37822	2.95702
0.32721	2.80397
0.17421	1.88570
0.12320	2.67644
0.22521	1.37554
0.19971	0.27871
0.02119	-0.41000
-0.31033	0.66132
0.12320	-0.89465
0.12320	-0.35899
-0.02981	-0.99668
0.14870	-2.98628
-0.20832	-1.43031
-0.18282	-0.84363
0.53123	1.88570
0.50573	1.14597
0.48022	-0.25695
0.48022	1.55410
-0.71835	0.02363
-0.61635	0.78886
0.73524	2.90601
0.96476	-1.55785
-0.33583	0.55929
0.02119	0.68683
0.53123	-0.61406
0.32721	-1.14973
-0.18282	0.71234
0.12320	0.83988
0.22521	-1.94047
0.27621	0.20219
0.27621	0.73785
0.12320	-0.12942
0.07220	5.07416
0.04670	-2.19554
0.02119	-5.84315
0.12320	0.91640
0.07220	1.63062
0.09770	2.90601
0.09770	1.19699
-0.05531	2.52339
0.37822	-1.37929
0.17421	-1.88945
0.30171	-0.43551
0.25071	-0.81812
0.12320	0.73785
0.22521	0.61031
0.27621	-0.38449
0.09770	-0.89465
-0.66735	0.38074
-0.46334	0.48277
-0.05531	0.53379
0.17421	2.14077
0.88825	-0.66508
0.78624	-2.19554
0.19971	-0.66508
0.22521	0.30422
-0.00431	1.29902
0.09770	1.42656
0.09770	0.27871
0.17421	0.96742
0.02119	1.75816
0.22521	1.12046
-0.18282	-1.14973
-0.18282	-7.70522
-0.00431	1.75816
0.07220	-2.88425
0.19971	1.47757
-0.08081	2.31933
0.22521	2.70194
0.35272	2.08976
0.32721	1.98773
0.27621	2.16628
0.22521	-2.83324
0.22521	-1.22625
0.32721	1.78367
0.40372	-1.04770
0.22521	-0.69059
-0.00431	-1.25176
-0.08081	-2.50164
-0.02981	-0.56305
0.12320	1.04394
0.19971	0.48277
0.55673	1.63062
0.35272	1.60511
-0.18282	0.73785
-0.20832	0.71234
-0.02981	-2.45062
0.30171	1.78367
0.27621	-0.10391
0.14870	0.68683
0.17421	0.71234
0.12320	4.25792
0.48022	-4.05761
0.25071	-5.07792
-0.28482	-1.99148
-0.76936	0.45726
-0.25932	1.96222
0.63323	2.49788
0.48022	1.86019
0.42922	1.86019
0.30171	2.01323
0.32721	1.17148
0.07220	-0.12942
-0.76936	-2.60367
0.48022	-3.70050
0.83725	-0.46102
0.65874	0.43176
0.02119	1.22250
-0.25932	0.07465
-0.82036	0.63582
0.50573	1.98773
-0.08081	-1.32828
0.04670	1.40105
1.55129	1.29902
0.91375	0.43176
-0.36133	-0.33348
-1.45790	-0.35899
-1.07538	-1.17523
0.04670	-0.84363
0.45472	-0.02739
0.07220	-0.38449
0.09770	3.79878
-0.05531	2.82948
0.83725	-3.75152
0.78624	-1.60887
0.73524	1.17148
0.30171	2.08976
0.19971	3.28862
0.22521	-3.31788
-0.20832	2.54890
-0.02981	1.47757
0.02119	-3.93007
0.09770	-1.35379
0.09770	-0.76711
0.02119	-0.46102
-0.08081	1.22250
-0.05531	1.12046
0.09770	0.22769
0.19971	0.27871
-0.00431	0.38074
0.04670	0.38074
0.19971	-0.53754
0.07220	0.50828
-0.15732	-0.28246
0.25071	-1.37929
0.27621	-0.84363
0.37822	-0.00188
0.27621	2.39585
0.40372	1.68163
0.25071	-0.81812
0.14870	-0.86914
0.09770	-0.86914
0.02119	1.45206
0.14870	1.78367
0.02119	-3.01179
-0.20832	2.14077
-0.02981	5.27823
0.19971	-2.04250
0.27621	-3.77702
0.09770	-1.32828
0.19971	0.76336
0.14870	1.29902
0.35272	1.83468
0.04670	1.96222
0.09770	1.52859
0.09770	-0.33348
0.09770	-2.29757
0.30171	-0.56305
0.22521	-0.89465
0.22521	0.40625
0.37822	1.29902
0.17421	-0.05289
-0.20832	-3.52195
-0.41233	-0.43551
-0.00431	1.29902
0.50573	1.65613
0.40372	1.24800
0.37822	-0.05289
0.17421	-1.37929
0.02119	-0.43551
0.02119	2.11527
-0.02981	2.24281
0.25071	-2.04250
0.14870	-0.84363
0.19971	0.50828
0.12320	1.47757
0.22521	1.40105
0.22521	0.27871
0.27621	0.96742
0.25071	-2.11902
-0.00431	1.98773
-0.18282	-0.23145
0.09770	-1.40480
0.19971	0.32972
0.40372	0.94191
0.19971	-0.51203
0.35272	0.07465
0.32721	-1.14973
0.17421	0.83988
0.09770	0.20219
0.30171	2.03874
0.12320	0.40625
-0.20832	-0.71609
-0.48884	-0.86914
-0.33583	0.20219
0.32721	-1.17523
0.73524	0.32972
0.50573	0.76336
0.35272	0.78886
0.27621	0.91640
0.22521	0.32972
0.12320	-0.10391
0.19971	-4.13413
-0.08081	1.01843
-0.08081	-0.30797
-0.10631	-0.89465
0.25071	2.16628
0.32721	2.82948
0.12320	0.32972
-0.02981	-0.58856
0.27621	-0.92016
0.42922	1.01843
0.32721	2.49788
0.07220	-3.72601
0.12320	0.63582
0.04670	0.25320
0.27621	-1.37929
0.42922	0.22769
-0.20832	1.01843
-0.36133	1.93671
0.04670	1.27351
0.32721	0.71234
0.35272	0.48277
0.48022	-0.02739
0.37822	-0.30797
0.04670	-0.41000
0.07220	0.30422
0.09770	0.66132
0.14870	-2.90976
0.14870	-1.63437
0.09770	0.53379
0.09770	-0.07840
-0.02981	0.32972
0.19971	1.78367
0.25071	1.06945
0.02119	-0.18043
0.22521	0.94191
0.07220	0.43176
0.25071	0.71234
0.27621	0.30422
0.02119	-0.15492
0.17421	1.09496
0.09770	2.19179
0.17421	-2.39961
0.32721	-3.16484
-0.00431	-2.45062
0.22521	0.61031
0.14870	1.24800
0.12320	2.01323
0.19971	1.06945
0.19971	-2.09351
0.25071	1.19699
-0.05531	1.12046
0.02119	0.02363
-0.13181	1.50308
0.12320	1.98773
0.25071	-1.40480
0.25071	-1.07320
0.25071	-3.41992
0.12320	-1.71090
-0.00431	1.65613
0.19971	1.78367
0.12320	1.68163
0.17421	2.65093
0.27621	2.52339
0.09770	-3.44542
-0.13181	-0.30797
0.30171	-1.71090
0.35272	-0.76711
0.32721	0.78886
0.35272	2.59991
-0.02981	-1.81293
-0.28482	0.04914
-0.00431	0.78886
0.35272	1.06945
0.40372	-0.69059
0.45472	-1.50683
0.12320	-0.25695
-0.00431	0.55929
0.14870	2.01323
0.14870	1.29902
0.25071	0.91640
0.12320	-1.86394
0.25071	0.30422
0.09770	0.50828
-0.33583	0.35523
-0.00431	-0.41000
0.19971	-0.25695
0.22521	-1.09871
0.14870	0.78886
0.22521	-0.35899
0.45472	-1.37929
0.25071	-0.48652
0.30171	1.17148
0.19971	0.76336
-0.00431	1.52859
0.22521	1.42656
0.09770	2.19179
0.04670	3.03355
0.04670	-8.39393
0.27621	-1.73640
0.27621	0.17668
-0.05531	1.57960
-0.05531	1.98773
0.12320	1.75816
0.30171	-1.32828
0.25071	0.40625
0.30171	0.15117
0.02119	1.24800
0.17421	2.34484
0.14870	-1.27726
-0.02981	-1.27726
-0.20832	-1.20074
0.27621	0.89089
0.35272	0.04914
0.25071	-1.17523
0.14870	-1.94047
0.27621	2.34484
0.02119	0.32972
0.14870	-0.53754
-0.02981	-0.74160
0.04670	1.42656
-0.05531	1.55410
0.14870	1.35003
0.12320	0.91640
0.17421	1.17148
0.30171	1.04394
0.45472	-1.35379
0.12320	0.25320
0.09770	1.04394
0.19971	-0.81812
0.35272	-3.36890
0.32721	-1.68539
-0.02981	-0.53754
-0.08081	1.57960
0.14870	1.70714
0.22521	1.93671
0.19971	-1.73640
0.02119	-2.39961
-0.02981	0.17668
0.02119	2.98253
0.14870	1.37554
0.22521	0.02363
0.22521	0.40625
0.27621	0.99292
0.27621	1.55410
0.30171	1.42656
0.12320	1.70714
0.02119	-4.23616
-0.13181	-1.20074
0.04670	0.83988
0.14870	0.50828
0.22521	-2.17003
0.32721	-1.40480
0.45472	0.27871
0.30171	1.88570
0.37822	1.42656
0.37822	0.86539
-0.00431	0.99292
-0.36133	0.71234
-0.02981	0.78886
0.50573	0.55929
0.45472	0.30422
0.30171	-0.35899
0.42922	-0.05289
0.19971	-4.69530
0.25071	0.27871
0.17421	1.35003
0.12320	2.24281
0.17421	0.94191
0.14870	-1.58336
0.27621	-0.10391
0.09770	-0.28246
-0.08081	0.55929
-0.08081	-2.73121
0.09770	2.29382
0.30171	0.89089
0.19971	0.30422
-0.08081	-0.02739
-0.25932	0.48277
0.02119	0.45726
0.40372	0.30422
0.30171	0.12566
0.32721	-0.18043
0.32721	-1.20074
0.25071	-0.30797
0.14870	0.94191
0.17421	0.35523
0.04670	1.06945
-0.13181	0.48277
-0.36133	0.63582
0.35272	-0.51203
0.32721	-2.01699
0.07220	-2.47613
0.35272	-0.99668
0.37822	2.03874
0.25071	2.77847
0.07220	2.72745
0.09770	2.08976
-0.08081	0.66132
-0.23382	-0.12942
-0.00431	-0.35899
0.17421	-0.30797
0.17421	0.35523
0.14870	-0.41000
0.30171	-0.94566
0.14870	-0.76711
0.17421	0.32972
0.04670	2.47238
0.04670	0.10015
0.12320	-4.97589
0.04670	-1.60887
0.12320	0.22769
0.02119	-0.76711
-0.05531	2.57441
0.19971	-1.48133
0.22521	0.83988
0.17421	2.80397
0.07220	0.94191
0.27621	0.86539
0.22521	1.47757
-0.23382	1.24800
-0.38683	-0.61406
0.07220	-1.25176
0.48022	-0.66508
0.45472	-1.37929
0.45472	-0.12942
0.50573	0.32972
0.17421	-0.46102
0.27621	-0.61406
0.19971	1.24800
0.19971	1.04394
-0.00431	-0.94566
-0.00431	0.10015
0.12320	0.43176
-0.08081	-2.34859
0.02119	0.35523
-0.02981	0.38074
0.07220	2.03874
0.55673	1.96222
0.30171	-0.25695
0.32721	0.07465
0.37822	-0.15492
0.27621	-0.15492
-0.18282	0.43176
0.07220	-0.10391
0.09770	0.22769
0.37822	0.55929
0.37822	3.08456
0.09770	1.91120
-0.31033	-5.20546
0.02119	-3.03730
0.45472	0.55929
-0.05531	-2.68019
0.32721	-0.56305
0.14870	1.22250
0.19971	2.16628
0.14870	2.98253
0.02119	2.72745
0.09770	0.45726
0.07220	0.04914
0.09770	1.86019
0.25071	-2.65468
0.30171	-0.66508
0.09770	0.38074
0.27621	2.34484
0.37822	-1.32828
0.32721	-4.51675
0.19971	-0.10391
-0.20832	2.16628
0.12320	0.50828
0.27621	-0.46102
0.09770	0.94191
0.12320	1.37554
0.30171	1.09496
0.37822	0.78886
0.40372	0.15117
0.63323	0.89089
0.30171	-1.32828
-0.48884	0.17668
-0.84586	1.17148
0.02119	0.89089
0.45472	-1.81293
0.55673	-4.38921
0.35272	1.78367
0.22521	-0.51203
-0.05531	-0.23145
0.30171	2.90601
0.09770	-0.66508
0.48022	-0.53754
0.14870	0.96742
-0.08081	1.06945
0.30171	1.40105
0.12320	2.54890
-0.00431	1.91120
0.07220	-2.96078
0.22521	-2.01699
0.32721	0.50828
0.22521	1.14597
0.07220	1.24800
0.25071	-0.41000
0.35272	-1.60887
0.30171	-1.22625
0.19971	-2.19554
0.12320	1.37554
0.14870	1.78367
0.25071	1.24800
0.07220	0.66132
-0.02981	-0.51203
0.04670	1.19699
0.19971	0.86539
0.04670	0.66132
-0.46334	0.40625
0.14870	-0.23145
0.55673	0.86539
0.55673	-1.22625
0.32721	-2.50164
-0.18282	-1.55785
-0.18282	-0.48652
0.17421	0.96742
0.14870	1.96222
0.30171	1.45206
0.35272	-0.23145
0.32721	-1.88945
0.12320	0.89089
0.27621	2.80397
0.17421	0.86539
0.07220	-5.15444
-0.18282	-1.43031
-0.08081	1.01843
0.07220	1.06945
0.09770	1.98773
-0.13181	2.80397
0.27621	1.65613
0.42922	-0.56305
0.22521	0.73785
0.22521	-2.11902
0.30171	-1.71090
0.12320	0.50828
0.14870	-0.02739
0.09770	1.19699
0.07220	0.20219
-0.05531	-0.69059
0.04670	-0.53754
0.19971	0.38074
0.22521	1.83468
-0.13181	-2.90976
-0.43783	-1.25176
0.19971	-1.86394
0.32721	1.06945
0.22521	3.08456
0.42922	2.59991
0.27621	1.65613
0.19971	1.14597
0.12320	1.04394
0.02119	-1.07320
0.04670	-0.76711
0.12320	-0.79262
0.02119	0.25320
0.04670	-0.07840
-0.00431	-0.38449
-0.10631	0.68683
-0.13181	0.58480
0.30171	-2.93527
-0.05531	-0.28246
0.14870	0.55929
0.07220	1.55410
0.22521	-1.68539
0.37822	1.57960
0.53123	0.38074
0.53123	1.40105
0.17421	-5.40952
0.25071	1.45206
0.22521	1.40105
0.35272	1.24800
0.14870	3.87530
-0.46334	-0.76711
-0.33583	0.66132
0.12320	-0.46102
0.19971	-0.51203
0.14870	-0.07840
0.07220	0.10015
0.07220	0.04914
0.02119	1.93671
0.30171	1.27351
0.17421	-3.52195
0.22521	0.43176
0.32721	0.50828
0.07220	0.48277
0.17421	-4.10862
0.35272	-2.52714
0.19971	1.68163
0.25071	2.19179
0.30171	2.16628
0.19971	0.76336
0.02119	1.35003
-0.53984	0.81437
0.09770	0.15117
0.19971	0.22769
0.22521	0.40625
0.22521	0.81437
0.35272	-2.88425
0.55673	-1.55785
-0.00431	-1.09871
-0.15732	0.07465
0.04670	1.55410
0.07220	0.55929
0.07220	1.93671
0.22521	-3.26687
0.32721	-1.65988
0.19971	1.52859
-0.05531	1.63062
-0.38683	1.96222
0.19971	1.63062
0.42922	-0.35899
0.27621	-0.05289
0.30171	-0.51203
0.22521	1.04394
0.12320	0.63582
0.17421	-0.20594
0.30171	-1.99148
0.17421	-0.23145
0.12320	0.43176
0.19971	1.06945
0.17421	0.48277
0.09770	0.02363
0.09770	-0.51203
0.07220	-0.38449
0.12320	0.94191
0.09770	0.58480
0.09770	0.83988
0.32721	0.50828
0.07220	0.22769
-0.10631	-0.07840
0.17421	-0.10391
0.14870	-0.00188
0.35272	0.53379
0.17421	0.66132
0.09770	-0.20594
0.02119	-0.99668
0.22521	-1.40480
0.07220	-1.63437
0.22521	1.17148
0.12320	0.07465
0.07220	-0.51203
0.14870	2.21730
0.17421	1.50308
0.09770	0.43176
0.14870	0.73785
0.30171	2.06425
-0.00431	-2.04250
-0.00431	-0.38449
0.17421	-0.18043
0.40372	0.66132
0.45472	-0.00188
0.25071	1.01843
0.02119	0.89089
-0.05531	-2.14453
0.27621	1.04394
0.32721	-0.25695
0.55673	-4.21066
0.40372	1.80917
-0.15732	0.40625
-0.18282	-0.28246
0.25071	2.49788
0.42922	1.88570
0.32721	-0.86914
0.37822	-0.51203
0.37822	1.80917
0.17421	1.19699
0.04670	0.83988
0.12320	0.35523
0.12320	-1.48133
-0.02981	-0.30797
0.17421	-0.35899
0.25071	0.27871
0.19971	0.58480
0.27621	0.27871
0.19971	-3.41992
0.14870	0.25320
0.17421	0.35523
0.12320	0.53379
0.09770	0.45726
0.04670	1.17148
0.14870	3.92632
0.12320	-0.94566
0.12320	-2.06800
0.22521	-1.83844
0.04670	-0.89465
0.04670	1.70714
0.22521	2.49788
0.14870	-0.81812
0.17421	-0.74160
0.17421	1.24800
0.12320	0.30422
-0.00431	0.96742
0.09770	-0.10391
0.09770	1.17148
0.22521	1.86019
0.12320	0.45726
0.22521	-1.22625
-0.25932	0.63582
-0.18282	-5.81764
0.17421	-0.07840
0.27621	1.98773
0.25071	1.73265
-0.08081	-5.46054
0.02119	1.24800
0.42922	0.99292
0.42922	1.42656
0.27621	0.86539
0.17421	1.09496
0.12320	1.09496
-0.02981	1.37554
-0.02981	0.81437
0.02119	-2.29757
0.14870	1.68163
0.12320	0.10015
-0.10631	-3.34339
0.12320	-0.41000
0.17421	-0.10391
0.19971	0.66132
0.32721	-0.18043
0.25071	1.60511
0.30171	1.17148
0.19971	1.01843
0.12320	-1.37929
0.25071	0.71234
0.19971	0.53379
-0.00431	2.11527
0.02119	-0.07840
0.02119	-2.85874
0.04670	-2.65468
0.19971	0.12566
0.22521	1.73265
0.25071	2.31933
0.09770	1.83468
0.19971	1.24800
0.09770	1.68163
0.09770	1.50308
0.19971	-0.86914
0.04670	-1.99148
0.17421	-0.43551
0.17421	-2.34859
0.14870	-1.99148
0.17421	1.78367
-0.15732	-0.89465
0.02119	-0.15492
0.07220	5.12518
0.19971	3.67124
0.40372	-2.04250
0.32721	-7.88377
0.19971	-6.68491
0.12320	1.96222
0.09770	4.64053
0.09770	4.66604
-0.00431	3.72225
0.04670	4.18139
0.09770	1.91120
0.14870	0.71234
0.32721	-2.96078
0.30171	-14.23520
0.07220	-2.83324
0.09770	2.49788
0.19971	4.46198
0.07220	4.30893
0.12320	4.23241
0.14870	2.75296
0.07220	-0.07840
0.02119	1.29902
0.07220	2.21730
0.32721	-3.11382
0.14870	-8.70002
0.19971	-4.61878
0.19971	-0.25695
0.07220	0.73785
0.12320	3.08456
0.19971	3.08456
0.17421	3.13558
0.09770	1.29902
0.14870	0.63582
0.12320	0.40625
0.25071	-1.02219
-0.20832	-1.25176
0.04670	-0.35899
0.22521	1.01843
0.27621	1.12046
0.27621	2.54890
0.30171	-0.25695
0.25071	-0.46102
0.25071	-0.20594
0.37822	-6.73592
0.19971	-3.26687
0.02119	1.37554
-0.25932	4.79358
-0.25932	-0.53754
-0.43783	3.59471
0.19971	2.75296
0.63323	0.25320
0.60773	0.40625
0.37822	1.27351
0.37822	-1.12422
0.27621	-3.70050
0.09770	1.45206
-0.28482	-0.97117
-0.08081	0.73785
0.07220	-1.22625
0.07220	-0.51203
0.12320	0.81437
0.17421	1.09496
0.17421	2.31933
0.32721	-2.04250
0.19971	-1.76191
0.19971	0.73785
0.02119	-2.04250
0.09770	1.27351
0.17421	3.36515
0.19971	-0.92016
0.12320	0.61031
0.14870	0.38074
0.07220	0.22769
0.45472	1.45206
-0.08081	0.71234
0.14870	1.27351
0.17421	2.59991
0.02119	2.24281
0.19971	-1.04770
0.35272	-7.78174
0.14870	-1.43031
0.07220	-6.71041
0.30171	-2.06800
0.17421	3.77327
0.02119	5.04866
-0.38683	3.39065
-0.10631	3.51819
0.42922	1.29902
0.63323	0.15117
0.42922	-0.53754
0.22521	-1.91496
0.25071	-0.63957
0.02119	1.45206
0.09770	0.12566
-0.02981	-0.38449
0.02119	-2.50164
0.04670	-1.65988
0.04670	0.20219
0.25071	0.22769
0.12320	0.73785
0.09770	0.68683
0.17421	0.66132
0.09770	0.38074
0.30171	0.55929
0.14870	0.32972
0.17421	1.70714
0.22521	0.38074
0.12320	0.32972
0.02119	-1.78742
0.14870	2.82948
-0.00431	-0.94566
0.12320	-3.06281
0.19971	-2.06800
0.25071	0.22769
0.14870	-0.10391
0.22521	4.58952
0.22521	-0.05289
0.19971	-1.73640
0.22521	0.40625
0.12320	3.95182
0.12320	-1.14973
0.07220	1.27351
-0.02981	3.11007
0.09770	-4.33819
0.07220	-1.58336
0.09770	0.58480
0.32721	-0.76711
0.25071	0.78886
0.22521	1.63062
0.12320	-0.61406
0.07220	0.99292
0.22521	1.88570
0.12320	-0.46102
0.19971	-0.41000
0.22521	-0.10391
0.22521	1.78367
-0.08081	-1.22625
-0.08081	-2.98628
0.35272	-2.70570
0.12320	-3.64948
-0.15732	1.50308
0.37822	2.65093
0.17421	2.67644
-0.23382	2.90601
-0.08081	1.93671
0.45472	0.22769
0.42922	0.10015
0.37822	0.45726
-0.08081	0.71234
-0.00431	-2.06800
-0.10631	-2.22105
-0.02981	-0.86914
0.09770	0.30422
0.17421	-0.71609
0.02119	0.68683
0.04670	0.40625
0.12320	1.37554
0.19971	-2.96078
0.19971	0.48277
0.19971	2.16628
0.22521	-0.02739
0.25071	1.45206
0.17421	2.26831
0.22521	-6.99100
0.19971	1.52859
0.19971	-0.02739
0.19971	0.94191
0.17421	2.44687
0.19971	2.06425
0.12320	2.80397
0.19971	-0.74160
0.32721	-2.06800
0.14870	-1.63437
0.30171	-0.25695
0.19971	-0.00188
0.22521	0.66132
0.04670	1.09496
0.14870	1.35003
-0.08081	0.55929
0.17421	2.21730
0.19971	-2.24656
0.30171	-0.56305
0.22521	-1.14973
-0.05531	-1.27726
-0.00431	0.63582
0.45472	0.94191
0.22521	2.31933
-0.10631	-0.46102
0.17421	-1.63437
0.22521	-0.33348
0.09770	-1.91496
0.19971	1.78367
0.14870	1.40105
0.14870	2.31933
0.22521	3.08456
0.17421	-3.06281
0.12320	0.02363
0.07220	-0.46102
0.19971	1.55410
0.32721	1.24800
0.22521	0.66132
0.22521	2.67644
0.27621	2.54890
0.32721	-2.93527
0.12320	-5.23097
0.14870	-2.11902
0.22521	0.86539
0.07220	0.86539
-0.00431	1.12046
0.09770	1.37554
0.12320	1.63062
0.04670	1.22250
0.12320	0.81437
0.42922	0.10015
0.48022	0.22769
0.32721	-1.17523
0.02119	1.24800
-0.53984	1.83468
0.09770	-3.59847
0.50573	-1.88945
0.19971	-0.84363
0.22521	-0.30797
0.12320	1.78367
0.19971	3.51819
-0.18282	2.95702
0.02119	-4.28718
0.19971	-2.34859
0.35272	-3.64948
0.02119	1.17148
0.30171	6.27303
0.30171	-1.14973
0.22521	1.75816
0.09770	0.63582
0.09770	0.91640
0.12320	0.04914
0.12320	-1.73640
0.12320	0.07465
-0.00431	0.22769
0.14870	1.14597
0.22521	-0.41000
0.22521	0.22769
0.02119	-1.91496
0.14870	-1.63437
0.27621	0.30422
0.17421	0.96742
-0.02981	0.76336
0.12320	1.68163
0.17421	-0.28246
0.07220	-1.27726
0.09770	-0.89465
0.12320	0.86539
0.12320	0.73785
0.19971	-0.00188
0.09770	1.06945
-0.18282	0.07465
-0.74385	0.20219
0.09770	0.22769
0.32721	0.45726
0.48022	1.35003
0.53123	0.48277
0.27621	-1.68539
-0.08081	-0.89465
0.09770	-0.25695
0.22521	-1.53234
0.12320	1.35003
0.12320	0.99292
0.12320	-0.46102
0.14870	1.93671
0.22521	2.08976
0.07220	-2.73121
0.17421	-3.11382
-0.13181	1.83468
-0.15732	3.39065
0.25071	-0.05289
0.32721	1.27351
0.22521	-1.63437
0.25071	-0.20594
0.19971	0.25320
0.14870	1.04394
0.19971	1.73265
0.22521	0.20219
0.09770	-1.30277
0.07220	0.86539
0.09770	-0.25695
0.09770	-0.30797
0.12320	-1.83844
0.09770	-2.32308
0.17421	-0.92016
0.14870	0.66132
-0.25932	1.42656
0.22521	1.45206
0.27621	1.68163
0.25071	2.52339
0.22521	0.73785
0.19971	-3.19035
0.25071	-1.09871
0.12320	0.25320
0.22521	1.52859
-0.28482	0.81437
0.07220	1.06945
0.12320	-2.57816
0.12320	-0.66508
0.09770	0.12566
0.14870	0.68683
0.14870	2.14077
0.32721	2.21730
0.30171	-0.79262
0.14870	-1.09871
0.35272	0.40625
0.55673	-0.51203
0.04670	-0.51203
-0.66735	0.63582
-0.56534	-3.70050
0.02119	-0.51203
0.63323	1.73265
0.35272	1.68163
0.48022	1.32453
0.37822	2.39585
0.30171	0.66132
0.12320	1.65613
0.09770	-1.53234
0.09770	-2.09351
0.02119	-3.16484
0.07220	0.66132
0.02119	1.37554
0.07220	1.09496
0.12320	-1.12422
0.14870	1.09496
0.17421	0.48277
0.14870	0.94191
0.14870	0.22769
0.17421	-2.17003
0.19971	-0.00188
0.09770	-0.89465
0.04670	1.06945
0.35272	0.81437
-0.05531	1.06945
0.07220	0.99292
0.32721	1.70714
0.32721	0.30422
0.22521	-0.48652
0.09770	0.96742
0.09770	1.06945
0.22521	-2.78222
0.30171	-3.11382
0.12320	0.20219
0.09770	1.19699
0.12320	1.57960
0.14870	1.50308
0.02119	2.47238
0.12320	0.71234
0.19971	-4.74632
0.27621	-2.96078
0.22521	1.27351
0.07220	1.47757
0.04670	1.68163
0.14870	1.65613
0.27621	1.91120
-0.10631	-0.84363
-0.31033	1.12046
0.40372	0.48277
0.58223	-2.09351
0.30171	-0.86914
0.27621	-0.79262
0.07220	0.10015
-0.18282	0.81437
-0.13181	0.66132
0.14870	0.61031
0.25071	-0.07840
0.19971	0.25320
0.32721	1.96222
0.12320	-1.73640
0.07220	0.61031
-0.00431	-1.65988
-0.20832	-0.02739
0.30171	-0.35899
0.32721	2.90601
0.22521	0.55929
0.30171	0.68683
0.14870	-2.75671
0.14870	0.86539
0.12320	0.66132
-0.00431	1.24800
0.17421	2.95702
0.19971	0.55929
0.27621	-3.75152
0.27621	-1.37929
0.14870	0.25320
0.09770	1.12046
0.02119	1.96222
0.07220	1.80917
0.19971	-0.97117
-0.00431	-0.15492
0.02119	-0.58856
0.22521	-0.35899
0.42922	-0.71609
0.40372	-0.79262
0.02119	0.91640
-0.36133	0.40625
-0.10631	-2.04250
0.42922	0.76336
0.63323	1.29902
0.42922	0.50828
0.14870	-0.15492
-0.05531	0.04914
-0.08081	1.27351
-0.23382	0.66132
0.12320	-1.99148
0.32721	1.47757
0.27621	2.24281
0.12320	-1.27726
0.07220	-0.84363
0.25071	-0.07840
0.30171	1.63062
0.09770	-0.53754
-0.00431	-0.00188
0.04670	1.55410
0.02119	0.25320
0.09770	2.16628
-0.08081	-2.52714
0.02119	-2.22105
-0.31033	1.19699
-0.13181	0.25320
0.63323	-0.99668
0.37822	0.86539
0.12320	1.42656
0.32721	1.29902
-0.28482	1.63062
0.07220	0.48277
0.14870	-1.60887
0.22521	-0.23145
0.19971	-0.07840
0.14870	0.71234
0.04670	0.48277
0.02119	-1.40480
0.07220	0.45726
0.02119	-1.37929
-0.08081	-0.25695
0.02119	0.45726
0.22521	-0.58856
0.19971	0.40625
-0.00431	1.17148
0.19971	1.17148
0.19971	0.17668
0.27621	1.80917
0.17421	0.22769
0.09770	-0.84363
0.27621	-0.25695
0.22521	0.53379
0.12320	-0.51203
0.07220	-1.55785
0.14870	0.20219
0.12320	1.17148
0.07220	1.06945
0.07220	-0.28246
0.02119	0.96742
0.30171	1.22250
0.12320	-1.94047
-0.08081	-0.97117
-0.00431	0.91640
0.09770	-0.25695
0.17421	-1.02219
-0.13181	-0.38449
0.19971	1.12046
0.30171	2.19179
0.35272	-0.94566
0.32721	0.50828
0.27621	1.19699
0.09770	0.30422
0.02119	0.22769
0.17421	1.17148
0.09770	0.63582
0.07220	-1.60887
0.14870	-0.18043
0.12320	0.10015
0.07220	-0.76711
0.07220	0.17668
0.09770	0.27871
0.22521	0.30422
0.14870	0.45726
0.19971	0.35523
