0.22521	0.48277
0.19971	-0.07840
0.14870	-0.94566
0.17421	0.04914
0.14870	0.61031
0.09770	0.76336
0.04670	0.55929
0.07220	0.22769
0.12320	-0.02739
0.09770	-0.18043
0.12320	0.35523
0.14870	0.04914
0.17421	-0.10391
0.17421	0.43176
0.14870	0.35523
0.14870	-0.00188
0.12320	-0.61406
0.12320	0.30422
0.14870	0.32972
0.19971	0.10015
0.14870	0.45726
0.19971	0.27871
0.22521	0.25320
0.14870	0.10015
0.14870	0.07465
0.07220	0.12566
0.12320	0.04914
0.02119	-0.15492
0.09770	0.15117
0.12320	0.35523
0.17421	0.35523
0.17421	0.22769
0.12320	0.27871
0.12320	0.22769
0.19971	0.22769
0.19971	0.04914
0.19971	-0.00188
0.09770	0.07465
0.14870	0.10015
0.12320	0.15117
0.09770	0.10015
0.07220	0.22769
0.04670	0.17668
0.14870	0.20219
0.17421	0.15117
0.12320	0.17668
0.17421	0.30422
0.14870	0.10015
0.22521	0.15117
0.17421	0.25320
0.22521	0.40625
0.19971	-0.12942
0.12320	-0.25695
0.14870	0.30422
0.07220	0.30422
0.12320	-0.05289
0.30171	0.40625
0.22521	0.40625
0.12320	0.53379
0.17421	-0.05289
0.07220	-0.30797
0.14870	0.38074
0.12320	0.25320
0.12320	0.25320
0.19971	-0.02739
0.12320	-0.38449
0.14870	0.35523
0.17421	0.15117
0.17421	0.38074
0.17421	0.07465
0.14870	0.27871
0.14870	-0.00188
0.07220	-0.38449
0.12320	0.27871
0.30171	0.35523
0.17421	0.27871
0.09770	0.32972
0.04670	0.45726
0.14870	0.20219
0.14870	0.07465
0.22521	0.07465
0.07220	0.12566
-0.00431	-0.10391
0.12320	-0.12942
0.22521	0.22769
0.09770	0.30422
0.04670	0.25320
0.17421	0.12566
0.14870	0.10015
0.22521	0.04914
0.14870	0.20219
0.02119	0.58480
0.12320	0.15117
0.19971	-0.86914
0.22521	-0.30797
0.17421	0.45726
0.09770	0.48277
0.12320	0.63582
0.19971	0.61031
0.17421	0.48277
0.17421	0.35523
0.09770	0.38074
0.12320	0.07465
0.19971	-0.43551
0.19971	-0.56305
0.14870	0.04914
0.07220	0.22769
0.12320	0.20219
0.19971	0.30422
0.22521	0.04914
0.22521	0.15117
0.12320	0.15117
0.02119	0.17668
0.07220	0.40625
0.19971	0.17668
0.25071	-0.00188
0.19971	-0.07840
0.12320	0.15117
0.14870	0.15117
0.17421	0.15117
0.07220	0.22769
0.07220	0.25320
0.07220	-0.15492
0.09770	0.04914
0.07220	0.25320
0.07220	0.25320
0.09770	0.20219
0.17421	0.22769
0.12320	0.12566
0.14870	0.04914
0.12320	0.15117
0.12320	0.15117
0.17421	-0.05289
0.17421	0.17668
0.25071	0.10015
0.17421	0.25320
0.14870	0.35523
0.17421	0.20219
0.22521	0.17668
0.22521	0.22769
0.14870	-0.02739
0.07220	-0.51203
0.12320	0.10015
0.07220	0.45726
0.12320	0.40625
0.12320	0.48277
0.17421	0.15117
0.12320	0.07465
0.04670	-0.46102
0.14870	0.30422
0.22521	0.45726
0.25071	0.25320
0.17421	0.10015
0.04670	-0.07840
0.12320	0.15117
0.17421	0.15117
0.14870	0.15117
0.12320	0.20219
0.12320	0.15117
0.22521	0.20219
0.19971	-0.00188
0.09770	0.07465
0.07220	0.04914
0.09770	-0.23145
0.07220	0.07465
0.12320	0.07465
0.22521	0.35523
0.25071	0.25320
0.12320	0.40625
0.09770	0.22769
0.17421	0.15117
0.25071	0.17668
0.14870	0.07465
0.09770	0.07465
0.12320	0.15117
0.22521	0.25320
0.12320	-0.02739
0.07220	0.02363
0.12320	0.20219
0.14870	0.17668
0.14870	0.07465
0.12320	-0.10391
0.07220	0.30422
0.17421	0.45726
0.22521	0.22769
0.19971	-0.15492
0.12320	0.07465
0.12320	0.12566
0.12320	0.04914
0.09770	0.07465
0.09770	0.25320
0.07220	0.45726
0.09770	0.43176
0.14870	-0.07840
0.25071	-0.89465
0.12320	-0.10391
0.14870	0.50828
0.22521	0.50828
0.22521	0.53379
0.22521	0.12566
0.19971	0.27871
0.12320	0.15117
0.14870	0.20219
0.12320	0.30422
0.17421	0.20219
0.17421	-0.00188
0.12320	-0.05289
0.04670	0.12566
0.12320	0.04914
0.12320	0.07465
0.07220	-0.15492
0.12320	-0.10391
0.17421	0.32972
0.17421	0.32972
0.22521	0.27871
0.19971	0.32972
0.17421	0.20219
0.12320	0.40625
0.12320	0.22769
0.12320	0.02363
0.14870	0.12566
0.09770	0.17668
0.12320	0.20219
0.14870	0.07465
0.22521	0.02363
0.19971	0.02363
0.14870	0.04914
0.12320	0.25320
0.12320	0.15117
0.09770	0.15117
0.09770	-0.00188
0.07220	0.12566
0.14870	0.07465
0.17421	0.27871
0.19971	0.27871
0.22521	0.32972
0.19971	0.17668
0.17421	0.04914
0.17421	-0.00188
0.19971	0.07465
0.12320	0.22769
0.19971	0.15117
0.12320	0.25320
0.17421	0.10015
0.12320	0.07465
0.14870	0.32972
0.09770	0.02363
0.07220	0.17668
0.09770	0.22769
0.14870	0.40625
0.12320	-0.23145
0.12320	-0.05289
0.27621	0.27871
0.17421	0.07465
0.17421	0.25320
0.17421	0.27871
0.12320	0.20219
0.12320	0.30422
0.12320	0.17668
0.12320	0.27871
0.12320	0.17668
0.27621	-0.00188
0.14870	0.04914
0.14870	0.10015
0.12320	0.10015
0.14870	0.20219
0.12320	0.20219
0.17421	0.02363
0.17421	0.12566
0.19971	-0.02739
0.12320	0.17668
0.07220	0.35523
0.12320	0.25320
0.12320	0.20219
0.17421	0.15117
0.14870	0.20219
0.22521	0.10015
0.22521	0.17668
0.12320	0.12566
0.17421	-0.25695
0.12320	-0.07840
0.09770	0.43176
0.09770	0.38074
0.12320	0.38074
0.12320	0.20219
0.19971	0.25320
0.17421	0.02363
0.17421	-0.02739
0.14870	-0.23145
0.22521	0.07465
0.19971	0.12566
0.02119	0.50828
0.09770	0.22769
0.12320	-0.02739
0.17421	0.22769
0.22521	0.22769
0.19971	0.12566
0.14870	-0.07840
0.09770	0.30422
0.14870	0.17668
0.17421	0.25320
0.19971	0.20219
0.12320	0.04914
0.12320	0.04914
0.14870	0.02363
0.12320	0.15117
0.09770	0.15117
0.09770	0.15117
0.09770	0.15117
0.12320	0.04914
0.12320	0.10015
0.12320	0.15117
0.17421	0.15117
0.22521	0.22769
0.17421	0.22769
0.12320	0.20219
0.14870	0.04914
0.12320	0.17668
0.19971	0.27871
0.14870	0.20219
0.07220	0.22769
0.14870	0.20219
0.25071	-0.35899
0.14870	0.15117
0.07220	0.25320
0.12320	0.45726
0.12320	0.30422
0.22521	0.04914
0.19971	-0.66508
0.12320	0.04914
0.09770	0.40625
0.17421	0.27871
0.19971	0.48277
0.17421	0.25320
0.07220	-0.15492
0.12320	0.12566
0.19971	0.17668
0.22521	0.22769
0.22521	0.20219
0.09770	-0.02739
0.07220	0.15117
0.07220	0.15117
0.09770	0.27871
0.14870	0.35523
0.19971	0.30422
0.22521	0.15117
0.17421	-0.28246
0.14870	-0.51203
0.12320	0.22769
0.09770	0.40625
0.07220	0.63582
0.07220	0.02363
0.12320	0.43176
0.19971	0.10015
0.14870	-0.05289
0.12320	0.30422
0.09770	0.30422
0.12320	0.12566
0.17421	0.10015
0.19971	0.12566
0.09770	0.20219
0.12320	-0.00188
0.07220	-0.23145
0.12320	0.07465
0.17421	0.17668
0.12320	0.32972
0.19971	0.45726
0.14870	0.22769
0.14870	0.22769
0.09770	0.61031
0.12320	0.04914
0.12320	-0.92016
0.12320	-0.07840
0.14870	0.43176
0.25071	0.53379
0.19971	0.43176
0.12320	0.10015
0.12320	0.22769
0.07220	0.32972
0.12320	0.22769
0.07220	0.07465
0.12320	-0.05289
0.19971	-0.00188
0.19971	-0.02739
0.12320	0.02363
0.14870	0.15117
0.09770	-0.05289
0.07220	0.17668
0.09770	0.27871
0.22521	-0.05289
0.25071	-0.18043
0.17421	0.43176
0.09770	0.61031
0.04670	-0.35899
0.07220	0.40625
0.14870	0.48277
0.17421	0.48277
0.12320	0.25320
0.12320	0.02363
0.07220	0.25320
0.09770	-0.25695
0.09770	-0.05289
0.17421	0.12566
0.25071	0.38074
0.14870	0.10015
0.12320	0.17668
0.07220	0.25320
0.07220	0.20219
0.12320	0.25320
0.19971	-0.30797
0.22521	-0.18043
0.12320	0.20219
0.04670	0.27871
0.12320	0.32972
0.12320	0.30422
0.09770	0.27871
0.17421	0.20219
0.14870	0.25320
0.17421	0.20219
0.14870	-0.05289
0.17421	0.04914
0.04670	0.15117
0.09770	0.02363
0.07220	0.40625
0.07220	-0.20594
0.09770	-0.07840
0.09770	0.38074
0.14870	0.10015
0.17421	0.32972
0.22521	0.32972
0.12320	0.35523
0.07220	0.35523
0.07220	0.10015
0.14870	0.38074
0.25071	0.30422
0.14870	0.45726
0.04670	-0.56305
0.09770	-1.40480
0.22521	-0.00188
0.22521	-0.18043
0.14870	0.96742
0.09770	0.78886
0.12320	0.71234
0.17421	0.45726
0.12320	0.32972
0.04670	0.22769
0.07220	0.17668
0.14870	-0.23145
0.25071	-0.25695
0.25071	0.20219
0.19971	0.02363
0.14870	-0.05289
0.07220	-0.00188
0.14870	-0.07840
0.19971	0.04914
0.17421	0.30422
0.09770	0.30422
0.02119	0.43176
0.12320	0.32972
0.14870	0.07465
0.12320	0.17668
0.27621	0.30422
0.17421	0.22769
0.14870	0.10015
0.09770	0.10015
0.14870	0.22769
0.09770	0.25320
0.22521	-0.12942
0.09770	0.35523
0.12320	0.10015
0.19971	-0.41000
0.22521	0.17668
0.12320	0.45726
0.17421	0.53379
0.02119	0.25320
0.09770	0.40625
0.12320	0.35523
0.25071	-0.33348
0.14870	-0.66508
0.04670	-0.51203
0.14870	0.50828
0.17421	0.38074
0.14870	0.45726
0.17421	0.38074
0.12320	0.25320
0.17421	0.20219
0.17421	0.63582
0.12320	0.15117
0.12320	-0.61406
0.04670	-0.53754
0.14870	-0.20594
0.19971	0.12566
0.17421	0.32972
0.12320	0.53379
0.12320	0.43176
0.14870	0.58480
0.25071	0.00000
0.14870	0.00000
0.12320	0.00000
0.12320	0.00000
0.17421	0.35523
0.12320	0.25320
0.19971	0.10015
0.12320	0.04914
0.09770	0.20219
0.12320	0.27871
0.19971	-0.15492
0.12320	0.04914
0.12320	-0.02739
0.07220	-0.12942
0.19971	-0.63957
0.17421	0.12566
0.14870	0.45726
0.14870	0.48277
0.07220	0.48277
0.12320	0.35523
0.09770	0.30422
0.22521	0.35523
0.19971	-0.05289
0.14870	-0.05289
0.12320	-0.07840
0.04670	0.15117
0.07220	0.20219
0.09770	0.02363
0.09770	-0.05289
0.17421	-0.86914
0.09770	0.30422
0.09770	0.66132
0.12320	0.43176
0.19971	0.45726
0.25071	0.25320
0.19971	0.02363
0.09770	0.30422
0.07220	0.30422
0.12320	0.91640
0.22521	0.71234
0.27621	-2.01699
0.12320	-1.50683
0.12320	0.53379
0.12320	0.38074
0.22521	0.55929
0.22521	0.76336
0.12320	2.14077
0.12320	1.09496
0.09770	1.35003
0.17421	-2.04250
0.14870	-2.29757
0.17421	-0.20594
0.14870	0.04914
0.09770	1.17148
0.09770	0.63582
0.09770	0.91640
0.22521	0.73785
0.14870	0.53379
0.14870	0.04914
0.12320	-0.05289
0.12320	-0.41000
0.25071	0.25320
0.09770	-0.15492
0.09770	-0.05289
0.17421	-1.40480
0.25071	-0.69059
0.17421	0.48277
0.02119	0.48277
0.12320	0.73785
0.22521	0.58480
0.19971	0.45726
0.14870	0.27871
0.07220	0.40625
0.12320	0.30422
0.22521	0.35523
0.25071	0.20219
0.12320	0.12566
0.07220	-0.00188
0.12320	-0.02739
0.19971	0.02363
0.12320	-0.05289
0.12320	0.02363
0.07220	0.04914
0.22521	0.22769
0.17421	0.25320
0.17421	0.30422
0.09770	0.10015
0.14870	0.15117
0.19971	0.17668
0.12320	0.38074
0.19971	0.27871
0.14870	-0.25695
0.12320	-0.07840
0.07220	-0.12942
0.12320	-0.79262
0.19971	0.73785
0.17421	0.76336
0.07220	0.38074
0.12320	0.32972
0.09770	0.76336
0.19971	-0.00188
0.14870	-0.43551
0.12320	0.32972
0.17421	0.25320
0.17421	0.25320
0.22521	0.20219
0.09770	0.04914
0.12320	-0.10391
0.09770	-0.07840
0.09770	-0.46102
0.22521	-0.20594
0.22521	0.30422
0.09770	0.04914
0.17421	0.25320
0.22521	0.45726
0.17421	0.66132
0.04670	-0.15492
0.04670	-0.46102
0.09770	0.32972
0.22521	0.30422
0.14870	0.35523
0.14870	0.43176
0.09770	0.30422
0.17421	0.38074
0.25071	0.27871
0.19971	0.07465
0.17421	-0.15492
0.14870	-0.00188
0.09770	0.04914
0.04670	0.20219
0.04670	0.12566
0.22521	-0.02739
0.40372	0.02363
0.25071	0.17668
0.02119	0.10015
-0.08081	0.40625
-0.13181	0.30422
0.32721	0.07465
0.04670	0.22769
0.04670	0.15117
0.17421	-0.02739
0.25071	0.15117
0.14870	0.12566
-0.13181	0.22769
0.53123	-0.05289
0.50573	-0.00188
0.65874	0.30422
0.37822	0.27871
0.17421	0.15117
-0.20832	0.15117
-0.18282	0.22769
0.02119	-0.46102
-0.00431	0.35523
0.12320	0.30422
-0.38683	0.10015
0.45472	0.20219
0.48022	0.07465
0.45472	0.10015
0.02119	0.22769
0.07220	0.22769
0.22521	0.10015
0.04670	0.12566
0.19971	-0.00188
0.12320	0.43176
-0.31033	0.35523
0.27621	1.12046
0.09770	0.55929
0.78624	-1.96597
0.40372	-3.31788
0.19971	0.83988
-0.05531	0.99292
-0.59084	1.09496
-0.15732	3.26312
0.68424	-2.01699
0.42922	0.99292
0.07220	3.82429
-0.13181	-0.79262
0.09770	-1.55785
-0.31033	-5.61358
0.14870	-1.68539
-0.48884	-1.30277
1.24527	1.52859
0.55673	6.37506
0.09770	-0.41000
0.22521	-1.99148
0.53123	2.82948
-3.01350	8.59423
-2.27395	-4.15964
0.53123	-10.05193
1.50029	-3.11382
3.18340	7.34435
3.61693	-0.43551
1.16877	2.95702
-0.82036	-8.82756
-1.84042	0.02363
-1.04987	6.52811
0.12320	7.11478
1.27078	-4.46573
0.09770	1.09496
-3.72755	4.64053
-2.19745	-1.40480
-0.69285	-9.74584
1.21977	3.33964
2.03582	-0.02739
1.21977	0.15117
1.29628	3.72225
0.70974	-1.99148
2.62236	0.81437
1.14327	6.60463
-0.05531	-3.59847
-2.80949	-2.34859
-1.20288	-0.74160
0.35272	2.34484
0.78624	2.19179
-0.08081	3.18659
-0.10631	0.25320
0.17421	-0.58856
0.12320	3.87530
0.32721	-5.10343
-0.05531	-3.80253
0.02119	-1.04770
0.04670	3.72225
0.09770	10.45630
0.40372	-7.85826
0.42922	3.21210
0.02119	-4.15964
-0.02981	-1.76191
-0.05531	0.66132
0.42922	3.05905
0.60773	5.07416
0.35272	-4.79733
0.02119	-3.08831
-0.08081	0.45726
0.07220	6.63014
0.65874	-0.25695
0.63323	-4.21066
-0.23382	1.78367
-0.64185	3.74776
0.32721	-1.25176
-0.00431	1.04394
-0.53984	-0.71609
0.04670	1.32453
0.50573	-2.85874
1.04126	7.03826
-0.71835	-7.93479
-0.31033	-2.93527
0.14870	-0.02739
0.63323	0.48277
-0.13181	6.73217
0.42922	-2.55265
-0.38683	-2.09351
-2.83499	2.14077
-1.15188	-2.14453
1.16877	-2.11902
1.78081	-0.00188
1.50029	2.39585
1.11776	1.73265
0.58223	1.57960
0.53123	0.63582
-0.31033	-4.92487
-0.59084	5.35475
-0.25932	0.61031
-0.15732	-3.59847
-0.25932	2.39585
-0.43783	1.73265
1.24527	7.95654
1.75531	-4.38921
-1.71292	3.18659
-2.88599	-9.00611
0.04670	-6.09823
1.65330	2.88050
0.68424	1.32453
0.53123	0.12566
0.73524	1.37554
0.63323	5.07416
0.53123	3.92632
0.30171	-9.10814
0.19971	-3.34339
-0.08081	0.07465
-0.20832	0.43176
-1.20288	3.69675
-0.08081	-0.28246
-0.08081	-0.56305
-0.15732	1.98773
0.09770	1.37554
-0.20832	0.12566
0.07220	0.04914
0.32721	1.98773
0.37822	3.18659
0.83725	-7.57768
0.22521	-2.22105
0.60773	0.04914
0.42922	3.33964
0.70974	4.64053
0.42922	-4.82284
0.19971	0.04914
0.22521	-1.53234
-0.61635	3.44167
-0.76936	4.33444
0.30171	-6.93998
-0.13181	-6.14924
0.02119	3.08456
0.02119	2.21730
0.86275	3.00804
0.27621	5.32924
0.53123	-1.60887
0.48022	-2.19554
0.32721	2.34484
0.02119	3.72225
0.42922	-3.19035
0.17421	-8.52146
-0.00431	0.53379
0.12320	0.71234
0.17421	1.22250
-0.36133	0.91640
0.02119	3.36515
0.27621	2.98253
0.35272	-0.56305
0.30171	-1.40480
0.19971	-0.12942
0.30171	1.32453
0.19971	-1.73640
0.25071	-0.89465
0.42922	-4.23616
-0.43783	2.11527
-0.00431	0.35523
0.19971	-0.92016
1.04126	1.75816
-0.82036	2.47238
-1.81492	3.59471
0.40372	-0.99668
1.50029	1.93671
1.21977	-2.65468
0.65874	-3.11382
0.45472	-1.45582
0.12320	1.70714
0.30171	5.63534
0.09770	0.58480
0.32721	-3.44542
-1.10088	-2.80773
-1.17738	0.25320
-0.08081	3.05905
0.50573	0.50828
0.42922	0.43176
0.42922	1.06945
0.32721	1.27351
0.32721	2.16628
0.37822	-0.20594
0.35272	-5.53706
0.22521	-0.69059
0.25071	1.06945
-0.23382	-1.02219
-0.59084	2.44687
-0.51434	4.94663
0.60773	-2.98628
0.63323	-1.40480
0.40372	1.57960
0.19971	0.55929
0.81175	3.33964
0.86275	-2.14453
-0.61635	-2.62918
-1.40690	-2.85874
-0.66735	-0.43551
0.76074	2.85499
0.68424	3.39065
0.63323	1.12046
0.22521	1.75816
0.35272	-0.46102
0.40372	-0.10391
0.09770	1.32453
-0.00431	2.21730
-0.69285	-6.27678
-0.25932	2.03874
0.32721	0.58480
0.22521	-1.48133
0.04670	-4.31269
-0.31033	0.43176
0.19971	0.71234
0.53123	2.44687
0.68424	2.80397
0.60773	0.58480
0.30171	2.52339
0.25071	0.73785
-0.02981	-5.58807
-0.18282	-2.42511
0.09770	3.77327
0.14870	6.68115
0.07220	-2.17003
0.12320	-5.35850
0.02119	-3.47093
-0.15732	1.14597
-0.13181	-2.62918
0.42922	3.69675
0.17421	3.74776
-0.13181	-1.91496
0.42922	1.40105
0.17421	0.66132
0.12320	-1.27726
0.58223	1.57960
0.63323	1.37554
0.58223	-0.23145
0.53123	-1.09871
-0.00431	-0.02739
-0.25932	-1.76191
-0.66735	-0.25695
0.27621	-0.05289
-0.10631	6.29854
0.07220	0.12566
0.27621	-11.27630
0.09770	0.53379
0.25071	0.99292
-0.23382	0.83988
0.30171	3.72225
0.12320	5.55881
0.37822	-2.11902
0.35272	-2.85874
0.40372	-1.04770
0.30171	3.26312
0.30171	1.45206
0.40372	2.03874
-0.00431	0.68683
-0.31033	2.08976
-0.33583	-7.09303
0.12320	0.53379
0.53123	0.63582
0.48022	-0.33348
-0.59084	1.75816
-0.31033	-0.84363
0.37822	-1.12422
0.68424	1.52859
0.40372	1.78367
0.37822	3.51819
-0.02981	1.60511
-0.46334	1.73265
0.04670	-1.43031
0.73524	-10.53658
0.07220	-2.73121
0.09770	2.44687
0.02119	3.41616
0.19971	3.00804
0.37822	2.37034
0.14870	1.19699
-0.46334	2.77847
0.14870	0.63582
-0.08081	-2.39961
0.07220	-1.88945
0.65874	-2.68019
0.25071	0.96742
-0.10631	2.16628
0.04670	1.32453
0.17421	-8.36842
0.12320	-1.12422
-0.05531	2.08976
0.76074	3.87530
-0.20832	1.70714
-0.82036	4.20690
-0.00431	-0.00188
0.76074	-0.28246
0.58223	-0.53754
0.50573	-0.56305
0.32721	2.19179
0.76074	-0.53754
0.60773	0.78886
-1.02437	1.27351
-1.30489	-2.80773
-0.20832	-1.91496
-0.08081	-8.62350
0.68424	0.76336
0.37822	3.23761
0.45472	3.95182
0.45472	0.30422
0.12320	-3.31788
0.40372	1.96222
0.02119	2.16628
-0.05531	1.47757
-0.00431	1.09496
0.22521	1.17148
0.04670	-2.80773
0.09770	0.25320
0.40372	-0.23145
0.27621	-1.32828
0.02119	-0.12942
-0.02981	-3.77702
0.09770	2.95702
0.19971	1.04394
0.07220	-1.96597
-0.41233	-0.07840
-0.28482	2.47238
1.04126	1.17148
0.48022	0.68683
0.12320	1.27351
-0.02981	4.30893
0.30171	4.99764
0.02119	-11.02122
0.35272	-9.08263
0.12320	-2.29757
0.02119	2.39585
-0.23382	2.47238
-0.69285	3.67124
0.02119	3.49268
0.93925	2.16628
0.45472	1.88570
0.73524	-0.79262
1.21977	-0.84363
-0.59084	2.44687
-1.30489	-2.93527
-2.22295	-0.43551
-0.05531	-8.49596
1.14327	-2.39961
1.01576	3.11007
1.55129	3.87530
1.14327	4.38546
0.53123	-4.36370
-0.20832	6.17100
-0.00431	-0.89465
0.55673	-6.48085
-1.55991	1.50308
-0.28482	3.90081
-0.41233	-0.28246
0.37822	0.12566
-0.08081	1.09496
0.48022	-2.01699
0.65874	-0.30797
-0.87136	4.69155
0.50573	0.30422
1.39828	0.32972
-0.48884	-3.59847
-1.81492	1.22250
1.32178	-2.57816
0.83725	-1.53234
1.52579	0.94191
0.60773	3.95182
-1.48340	-2.11902
0.83725	0.17668
0.12320	0.71234
-2.24845	0.63582
-1.76392	-0.23145
1.04126	2.80397
1.14327	-0.30797
1.75531	0.30422
-0.05531	-0.48652
0.35272	0.02363
0.12320	2.80397
0.30171	0.02363
0.60773	-2.68019
-1.84042	1.06945
-1.63641	-0.84363
-0.28482	-1.63437
0.91375	-0.63957
0.83725	1.47757
0.63323	1.06945
0.32721	4.25792
0.09770	-0.18043
-0.13181	-5.30749
-0.25932	-0.99668
0.42922	2.85499
0.53123	3.41616
0.53123	1.57960
0.63323	3.95182
0.22521	-10.53658
-0.61635	-2.60367
-0.64185	-0.51203
0.40372	2.67644
0.73524	3.90081
0.50573	2.88050
0.30171	2.47238
-0.05531	1.73265
0.32721	-0.58856
0.12320	-1.12422
-0.38683	-0.76711
-0.51434	-1.37929
0.27621	-1.58336
-0.02981	-0.10391
0.27621	-0.07840
0.88825	0.30422
-0.36133	-1.20074
0.19971	0.35523
0.73524	-0.05289
1.67880	-0.12942
-2.88599	3.79878
-1.81492	-0.05289
1.04126	-3.26687
1.47479	-0.10391
0.99026	2.34484
0.78624	-0.92016
0.65874	0.96742
0.50573	2.29382
-0.36133	1.83468
-0.82036	-1.81293
-0.08081	-0.05289
0.17421	-0.30797
0.12320	1.78367
-0.15732	0.04914
0.02119	1.68163
0.04670	-2.90976
-0.02981	-0.28246
0.45472	-1.50683
0.60773	2.42136
-0.20832	-1.68539
-0.71835	-2.57816
0.02119	1.98773
0.32721	0.91640
0.53123	2.70194
0.42922	-0.33348
0.30171	0.99292
0.53123	0.20219
0.55673	-0.46102
0.35272	-0.12942
0.37822	-0.94566
-1.76392	1.52859
0.07220	-1.99148
0.50573	0.38074
0.30171	-4.23616
-0.13181	0.81437
0.35272	1.96222
0.40372	2.19179
0.27621	1.65613
0.53123	0.96742
-0.31033	1.09496
-0.99887	0.40625
-0.02981	-1.22625
-0.31033	-1.37929
0.68424	-1.20074
0.40372	0.78886
0.32721	1.47757
0.37822	1.40105
0.48022	-1.78742
0.17421	-1.04770
0.40372	-0.76711
-0.38683	1.63062
-0.33583	1.57960
0.02119	0.86539
0.65874	-0.89465
0.58223	1.98773
-0.28482	2.67644
-0.64185	2.80397
0.17421	-3.95558
-0.18282	-0.69059
0.70974	4.18139
0.63323	-2.11902
0.63323	0.12566
0.30171	-0.15492
-0.23382	0.89089
-0.00431	-4.44022
0.58223	-0.05289
0.27621	2.19179
-0.82036	3.90081
-0.56534	-5.53706
0.45472	1.80917
0.70974	0.66132
0.68424	0.89089
0.19971	1.32453
0.35272	-0.02739
-0.46334	0.99292
0.19971	-1.35379
-0.00431	-0.71609
0.22521	2.16628
-0.08081	-1.63437
0.04670	-0.48652
-0.00431	-0.07840
0.22521	0.76336
0.30171	0.27871
0.40372	2.37034
0.14870	2.29382
0.25071	0.43176
0.27621	-2.19554
0.25071	-5.35850
0.04670	1.63062
-0.33583	4.43647
0.07220	2.70194
0.42922	-4.56776
0.12320	-1.71090
-0.18282	0.63582
-0.69285	1.29902
0.86275	2.24281
0.60773	3.36515
-0.05531	1.47757
0.19971	-2.34859
0.14870	-1.32828
0.09770	0.68683
-0.00431	0.15117
-0.13181	-1.12422
0.32721	-1.22625
0.30171	-1.04770
-0.05531	-0.15492
-0.13181	0.94191
0.02119	1.22250
0.53123	1.35003
0.53123	-0.56305
-0.13181	1.14597
-0.10631	-2.98628
-0.10631	-0.61406
-0.31033	1.12046
0.25071	1.09496
0.70974	2.01323
0.35272	-2.37410
0.45472	-0.43551
0.12320	-1.45582
-0.15732	-1.73640
-0.31033	1.91120
0.45472	3.11007
0.48022	0.17668
-0.18282	-0.41000
0.12320	0.83988
0.02119	1.14597
0.25071	0.86539
0.25071	0.96742
0.19971	-1.07320
0.19971	-6.02170
0.02119	-0.05289
0.07220	1.55410
0.17421	1.42656
0.04670	1.45206
0.30171	0.25320
-0.13181	-0.97117
0.53123	0.61031
0.32721	1.70714
-0.56534	-2.78222
-0.74385	-0.05289
0.50573	0.76336
0.63323	1.63062
0.32721	0.63582
0.27621	-2.73121
0.14870	-0.81812
0.09770	0.81437
0.32721	-0.38449
0.81175	-0.33348
0.25071	2.72745
-0.97337	2.59991
-0.20832	-3.03730
0.14870	-0.35899
0.48022	0.53379
0.17421	1.68163
0.14870	0.27871
0.37822	0.99292
0.19971	1.88570
0.14870	-1.14973
0.09770	-0.46102
0.14870	-0.25695
0.22521	0.96742
0.17421	0.86539
0.04670	0.89089
-0.02981	-3.34339
-0.05531	-0.58856
0.02119	-4.33819
0.27621	-0.53754
-0.00431	5.02315
-0.13181	2.34484
0.40372	-3.85355
0.63323	1.60511
0.48022	1.27351
0.37822	0.81437
0.35272	1.22250
0.27621	0.96742
0.14870	2.62542
0.14870	0.81437
0.19971	-0.89465
-0.20832	0.30422
-0.20832	-2.09351
0.22521	-3.11382
0.12320	-1.12422
0.07220	-0.81812
0.04670	1.04394
-0.25932	2.88050
0.17421	2.26831
0.83725	-1.53234
0.65874	-2.01699
0.45472	-0.69059
0.58223	5.12518
-0.15732	3.54370
-0.61635	-7.16955
-0.53984	-0.92016
0.45472	4.00284
0.37822	-2.80773
0.40372	-1.17523
0.30171	1.55410
0.14870	2.19179
0.12320	1.78367
0.27621	0.76336
0.02119	-1.12422
-0.20832	1.86019
0.04670	4.84460
0.22521	-3.57296
0.32721	-6.60838
0.12320	-3.36890
0.09770	0.12566
0.22521	1.35003
0.17421	2.08976
0.27621	1.78367
0.22521	1.98773
0.22521	0.78886
0.07220	1.75816
0.12320	3.03355
0.25071	-2.90976
0.25071	-1.65988
0.32721	1.52859
0.12320	-2.65468
-0.15732	-3.47093
-0.48884	-1.48133
0.12320	2.39585
0.32721	2.65093
0.40372	1.63062
0.55673	0.55929
0.50573	-0.28246
0.19971	0.91640
-0.05531	1.29902
0.37822	-0.58856
0.32721	0.30422
-0.53984	0.12566
-0.53984	-3.31788
0.25071	-2.22105
0.48022	1.37554
0.30171	1.70714
0.19971	1.29902
0.30171	-0.38449
0.19971	0.86539
0.14870	1.47757
0.09770	-0.20594
0.09770	1.70714
0.12320	1.75816
0.02119	2.75296
0.12320	-7.42463
0.04670	-5.05241
0.14870	-2.29757
0.25071	2.77847
0.14870	4.10487
0.22521	1.52859
0.17421	1.12046
0.17421	2.37034
0.25071	-0.18043
0.12320	-0.07840
0.19971	0.27871
0.27621	-0.48652
0.40372	0.91640
-0.00431	-0.23145
-0.15732	-1.48133
-0.10631	0.04914
-0.02981	-3.80253
-0.10631	-4.13413
-0.02981	1.68163
0.53123	1.86019
0.53123	2.16628
0.27621	1.83468
0.42922	1.93671
0.48022	2.16628
-0.05531	3.69675
-0.23382	0.07465
0.02119	-9.05713
0.14870	-2.93527
-0.00431	1.37554
0.09770	1.27351
0.25071	2.52339
0.25071	3.51819
0.25071	-1.27726
0.17421	-0.30797
0.12320	0.10015
0.17421	2.16628
0.27621	4.25792
0.14870	-0.41000
0.02119	-3.77702
-0.02981	-3.39441
-0.00431	-0.41000
0.12320	1.86019
0.14870	2.39585
0.22521	1.47757
0.35272	0.17668
0.30171	-0.28246
0.32721	-6.02170
0.04670	-1.17523
-0.13181	2.57441
-0.46334	5.04866
-0.61635	-2.88425
0.45472	-1.25176
0.48022	1.86019
0.60773	1.14597
0.83725	0.12566
0.55673	0.25320
-0.38683	0.04914
-0.15732	-0.51203
0.32721	-0.10391
0.19971	0.43176
-0.18282	-0.46102
0.19971	0.61031
0.19971	-0.00188
0.02119	-0.69059
-0.15732	-1.35379
0.19971	-0.76711
0.22521	0.68683
0.12320	-0.07840
0.30171	2.37034
0.25071	-3.21585
-0.25932	1.50308
0.02119	4.33444
0.35272	-0.99668
0.42922	2.98253
0.27621	0.02363
0.19971	1.63062
0.19971	0.61031
0.19971	-1.91496
0.17421	-2.50164
0.04670	-0.20594
0.17421	0.76336
0.12320	2.08976
-0.18282	-1.20074
-0.48884	-2.50164
0.12320	1.60511
0.27621	-2.17003
0.19971	1.22250
0.48022	1.83468
0.30171	1.91120
0.17421	2.21730
0.12320	1.27351
0.19971	0.78886
0.22521	2.14077
0.09770	-5.43503
-0.10631	-2.32308
0.04670	-3.75152
0.09770	2.03874
0.14870	-0.07840
0.14870	1.78367
0.12320	1.68163
0.09770	-0.15492
0.73524	1.70714
0.42922	0.50828
-0.56534	-0.56305
-0.46334	-0.00188
0.40372	1.73265
0.25071	3.26312
0.53123	-4.64429
0.42922	-2.73121
0.42922	-0.02739
0.25071	-1.07320
0.17421	4.38546
0.25071	-1.53234
0.04670	-0.48652
-0.20832	0.78886
0.02119	2.59991
0.12320	-0.66508
0.02119	0.38074
0.02119	3.26312
0.04670	-0.51203
0.14870	-2.90976
0.14870	-0.48652
0.17421	0.35523
0.25071	0.53379
0.12320	0.66132
0.17421	0.43176
0.27621	0.91640
0.19971	0.81437
0.12320	0.22769
0.42922	-1.86394
0.53123	-0.33348
-0.05531	1.98773
-0.64185	-1.27726
0.25071	-3.93007
0.35272	0.94191
0.09770	2.70194
-0.08081	0.15117
0.25071	-0.81812
0.17421	1.91120
0.37822	2.39585
0.09770	0.58480
0.09770	-0.28246
0.17421	2.42136
0.27621	0.48277
0.32721	-2.09351
-0.15732	-4.36370
0.22521	-0.07840
0.02119	0.12566
0.12320	1.06945
0.07220	0.71234
0.02119	1.01843
0.12320	2.16628
0.17421	2.39585
0.32721	0.89089
0.17421	-2.11902
-0.15732	-6.17475
-0.25932	0.17668
0.40372	0.12566
0.30171	0.04914
0.14870	0.40625
0.50573	0.07465
0.48022	1.63062
0.35272	2.03874
0.12320	1.14597
-0.15732	2.70194
-0.18282	-0.81812
-0.43783	-0.76711
0.32721	-0.61406
0.40372	-0.15492
0.30171	0.07465
0.27621	0.15117
0.32721	-2.24656
0.19971	0.81437
-0.08081	1.22250
-0.05531	2.80397
0.04670	0.32972
0.12320	-5.63909
-0.08081	0.15117
-0.02981	1.37554
0.22521	2.90601
0.17421	0.22769
0.17421	2.24281
-0.05531	0.30422
0.35272	-1.22625
0.22521	-1.88945
0.14870	1.22250
-0.02981	0.45726
0.22521	0.02363
0.22521	0.22769
0.22521	1.98773
0.09770	1.22250
0.12320	-1.07320
0.07220	-3.47093
0.25071	-2.47613
0.04670	-0.48652
-0.05531	1.37554
0.22521	1.01843
0.30171	1.50308
0.17421	0.91640
0.22521	2.65093
0.40372	2.88050
0.04670	-2.70570
-0.10631	-2.47613
-0.46334	-1.78742
0.45472	-0.05289
0.48022	0.94191
0.27621	2.72745
0.32721	3.54370
0.22521	-2.06800
0.22521	-2.96078
0.14870	-0.94566
-0.33583	-0.07840
-0.02981	0.12566
0.30171	1.42656
0.17421	0.55929
-0.08081	0.86539
0.35272	0.63582
0.19971	0.61031
0.25071	0.53379
0.32721	-0.18043
0.12320	-1.27726
-0.13181	-2.32308
-0.13181	1.06945
-0.02981	0.58480
0.25071	1.98773
0.32721	0.04914
0.17421	-1.60887
0.30171	-1.50683
0.27621	0.04914
0.37822	3.00804
-0.23382	2.65093
-0.56534	-5.58807
0.55673	-1.83844
-0.00431	1.93671
0.12320	3.31413
0.25071	0.45726
0.40372	1.65613
0.53123	0.99292
0.22521	0.55929
-0.31033	-0.12942
-0.05531	0.99292
0.45472	-3.26687
0.25071	-3.41992
0.42922	-0.56305
0.27621	1.01843
-0.20832	0.86539
-0.13181	0.12566
-0.23382	0.91640
0.25071	0.38074
0.30171	1.12046
0.22521	-1.40480
0.07220	-0.18043
0.02119	-0.05289
0.22521	0.68683
0.30171	0.99292
0.25071	1.27351
0.30171	0.53379
0.25071	0.02363
0.09770	-1.58336
-0.13181	1.57960
-0.13181	0.43176
-0.18282	-1.27726
0.30171	-0.94566
0.42922	1.04394
0.17421	1.96222
0.22521	-2.37410
0.12320	1.27351
0.02119	-3.70050
0.35272	-2.22105
0.30171	2.06425
0.35272	2.82948
0.27621	-0.07840
-0.02981	1.29902
0.19971	0.83988
-0.00431	1.63062
0.09770	0.78886
0.09770	0.02363
0.04670	-1.58336
0.19971	0.30422
0.19971	-0.28246
0.04670	-2.32308
0.12320	0.17668
0.12320	1.35003
0.27621	0.20219
0.09770	0.25320
0.12320	-1.55785
0.14870	-3.01179
0.17421	-1.55785
0.17421	2.67644
0.22521	4.87010
0.19971	-1.02219
0.14870	0.30422
0.09770	1.06945
0.25071	2.80397
0.17421	0.53379
0.07220	-1.88945
0.09770	0.25320
-0.02981	-2.70570
0.19971	0.96742
0.25071	0.58480
0.37822	0.45726
0.09770	1.86019
0.12320	-1.65988
0.09770	-1.04770
-0.05531	-3.77702
0.09770	0.66132
-0.18282	1.45206
0.30171	1.73265
0.30171	1.80917
0.25071	1.80917
0.22521	1.42656
0.30171	-0.89465
0.22521	-0.46102
0.25071	-2.14453
-0.33583	-0.18043
-0.33583	0.73785
0.32721	1.24800
0.35272	-0.12942
0.14870	-1.53234
0.12320	0.15117
0.09770	0.15117
0.12320	1.35003
0.12320	1.80917
0.25071	0.02363
0.17421	-0.97117
0.12320	-0.23145
0.07220	1.09496
0.17421	-1.14973
-0.28482	-2.85874
0.07220	1.12046
0.22521	1.47757
0.48022	2.62542
0.42922	1.78367
0.30171	1.96222
0.22521	0.81437
0.09770	1.06945
0.09770	-2.50164
0.04670	-0.12942
0.22521	-2.01699
0.22521	-1.50683
-0.28482	0.10015
-0.18282	1.24800
0.17421	-1.53234
0.30171	-2.01699
0.27621	-0.10391
0.22521	1.47757
0.19971	1.40105
0.27621	1.22250
0.25071	1.68163
0.12320	0.78886
0.22521	1.93671
0.22521	-0.23145
-0.02981	-1.58336
-0.48884	-1.02219
-0.74385	-0.84363
0.17421	0.02363
0.32721	0.61031
0.35272	1.73265
0.78624	0.10015
0.73524	-1.14973
0.40372	1.04394
0.25071	0.63582
0.12320	-2.01699
0.04670	-1.65988
-0.02981	0.02363
-0.18282	1.83468
-0.10631	2.34484
-0.13181	1.29902
0.14870	-1.60887
0.14870	-0.23145
0.25071	-0.86914
0.17421	0.73785
0.09770	-0.53754
0.19971	3.39065
0.12320	-7.75623
0.14870	-0.35899
0.12320	1.42656
0.22521	2.29382
0.27621	1.86019
0.07220	1.32453
0.19971	0.20219
0.25071	0.94191
0.27621	-0.25695
0.22521	-0.07840
0.07220	-0.35899
0.07220	-0.63957
0.12320	-0.66508
0.19971	-0.71609
0.12320	-1.68539
0.19971	1.52859
0.19971	1.98773
0.17421	-2.06800
0.12320	0.83988
0.07220	-0.07840
0.32721	0.27871
0.22521	1.45206
-0.20832	1.78367
-0.61635	1.12046
-0.08081	-2.14453
0.53123	-0.12942
0.45472	0.78886
0.32721	2.80397
0.48022	-1.17523
0.02119	-1.68539
0.22521	-0.69059
0.12320	0.96742
0.02119	1.12046
-0.08081	0.32972
0.07220	1.63062
0.17421	2.54890
0.07220	-1.96597
0.07220	-4.77183
0.09770	-1.02219
0.07220	0.73785
0.19971	1.60511
0.19971	1.17148
0.32721	0.91640
0.22521	1.47757
0.12320	-1.55785
-0.13181	0.43176
-0.13181	0.76336
0.19971	0.89089
0.19971	1.06945
0.27621	0.38074
0.17421	-0.61406
0.30171	-0.66508
0.30171	-0.28246
0.22521	-0.97117
-0.05531	0.20219
-0.02981	0.50828
0.14870	0.17668
0.22521	1.24800
0.32721	1.45206
0.35272	2.29382
-0.10631	-1.63437
0.04670	-6.09823
0.04670	-0.10391
0.19971	1.42656
-0.02981	2.49788
0.17421	1.12046
0.42922	0.20219
0.25071	1.78367
0.32721	2.59991
0.14870	1.88570
0.07220	-6.48085
-0.33583	-1.65988
0.19971	1.65613
-0.00431	1.68163
0.12320	-0.71609
0.32721	1.06945
0.32721	1.17148
0.25071	1.17148
0.25071	-0.18043
0.19971	-1.32828
0.32721	0.96742
0.12320	0.15117
-0.23382	0.20219
-0.08081	-0.66508
0.17421	-1.91496
0.17421	-0.66508
0.17421	0.25320
0.12320	1.78367
0.19971	2.06425
0.25071	0.02363
0.25071	0.04914
0.12320	0.86539
-0.05531	-0.28246
0.12320	-0.81812
0.27621	0.83988
0.19971	0.20219
0.04670	0.50828
0.17421	0.04914
0.17421	0.73785
0.12320	1.78367
0.09770	0.02363
0.09770	-0.56305
-0.00431	-0.41000
0.22521	-4.08312
0.25071	-0.00188
0.04670	0.78886
0.27621	0.96742
0.30171	1.42656
0.32721	1.52859
0.37822	1.14597
0.09770	0.45726
-0.02981	-0.02739
0.04670	0.20219
0.27621	1.27351
0.04670	-1.09871
-0.36133	-2.70570
0.09770	-0.48652
0.37822	-0.33348
0.14870	0.99292
0.22521	0.27871
0.25071	0.38074
0.02119	-0.63957
0.19971	-0.46102
-0.02981	0.71234
0.17421	2.19179
0.25071	1.60511
0.19971	1.27351
0.14870	-2.50164
0.12320	-0.51203
0.17421	-1.65988
0.02119	1.45206
-0.02981	-0.10391
0.27621	1.19699
0.25071	1.45206
0.17421	-1.09871
0.17421	0.07465
0.27621	-0.61406
0.30171	0.94191
0.07220	0.55929
0.07220	2.01323
0.04670	0.96742
-0.08081	-1.65988
-0.08081	-4.08312
-0.20832	-2.47613
0.22521	0.55929
0.55673	1.86019
0.32721	1.98773
0.12320	2.29382
0.25071	0.15117
0.19971	-1.40480
0.14870	0.07465
0.22521	0.15117
0.14870	0.73785
-0.00431	2.01323
-0.18282	3.69675
0.30171	-0.07840
0.14870	-3.06281
0.22521	-8.18986
0.42922	-1.22625
-0.23382	1.45206
0.07220	1.32453
0.09770	2.80397
0.12320	3.21210
0.30171	2.59991
0.12320	1.27351
0.04670	0.53379
0.22521	-0.43551
0.25071	1.17148
0.14870	-2.80773
0.25071	-1.22625
0.19971	1.47757
-0.18282	0.07465
-0.41233	-1.99148
0.02119	-0.30797
0.45472	-0.94566
0.50573	0.32972
0.42922	-0.23145
0.22521	1.78367
0.45472	1.17148
0.40372	2.26831
-0.05531	2.42136
-0.51434	-2.42511
0.02119	0.50828
0.27621	-1.17523
0.25071	0.78886
0.19971	1.04394
0.09770	-0.89465
0.27621	0.25320
0.02119	1.17148
-0.02981	1.78367
-0.13181	-0.53754
0.35272	-5.58807
0.40372	-0.86914
0.04670	0.94191
-0.02981	1.35003
0.22521	1.80917
0.55673	1.75816
0.35272	-0.81812
0.14870	-3.29238
-0.05531	-0.28246
-0.18282	1.52859
0.17421	1.55410
0.17421	1.93671
0.19971	1.55410
0.17421	1.80917
0.02119	-1.96597
0.12320	0.43176
0.19971	0.10015
0.17421	-1.73640
0.07220	0.48277
-0.02981	0.35523
-0.13181	0.35523
-0.00431	0.78886
0.32721	0.73785
0.25071	-3.26687
0.32721	0.81437
0.35272	1.63062
0.12320	-0.28246
0.09770	-1.60887
0.07220	-1.86394
0.07220	0.15117
-0.48884	1.91120
-0.20832	1.86019
0.68424	0.66132
0.48022	-0.61406
0.30171	0.73785
0.09770	0.45726
0.09770	0.71234
0.07220	0.83988
0.09770	-0.94566
0.19971	0.50828
0.17421	-4.05761
0.17421	-0.48652
0.02119	0.76336
0.12320	2.06425
0.17421	1.70714
0.14870	-0.48652
0.14870	-0.86914
0.27621	0.27871
0.17421	-1.65988
0.02119	0.17668
-0.10631	0.81437
0.19971	2.14077
0.32721	0.45726
0.02119	0.15117
0.22521	-0.35899
0.42922	-0.66508
0.25071	0.02363
0.17421	0.25320
-0.02981	-0.12942
0.07220	-0.48652
0.37822	1.37554
0.17421	-2.27207
0.14870	0.63582
0.12320	1.65613
-0.18282	2.39585
-0.08081	0.20219
0.07220	0.17668
0.25071	-1.94047
0.14870	-1.68539
0.27621	0.99292
0.25071	0.76336
0.30171	-0.89465
0.17421	-0.79262
-0.08081	0.86539
0.30171	1.47757
0.32721	1.01843
0.27621	-0.30797
0.14870	0.43176
-0.20832	1.37554
0.35272	-0.38449
0.25071	-0.74160
0.17421	-2.52714
-0.02981	-0.92016
0.09770	0.76336
0.07220	1.27351
0.07220	-0.07840
0.19971	0.76336
0.14870	1.65613
0.02119	1.17148
0.14870	-1.04770
0.14870	0.45726
0.09770	-1.60887
0.22521	-2.27207
0.22521	-0.38449
-0.02981	0.78886
0.02119	1.12046
0.27621	1.70714
0.27621	1.04394
0.09770	-0.63957
0.19971	0.76336
0.40372	0.96742
0.19971	0.40625
-0.08081	-1.04770
0.19971	-0.43551
0.04670	0.07465
0.19971	0.17668
0.17421	0.43176
0.30171	0.55929
0.27621	0.71234
0.12320	0.55929
0.17421	-4.13413
0.12320	1.04394
-0.00431	1.70714
0.14870	-1.68539
0.12320	0.35523
0.12320	0.83988
0.19971	1.19699
0.32721	1.37554
0.12320	1.32453
0.09770	-0.51203
0.19971	-1.02219
0.19971	1.78367
0.04670	-2.37410
0.22521	-0.46102
0.45472	-0.46102
0.14870	-0.71609
-0.25932	0.94191
-0.08081	1.04394
0.32721	1.19699
0.30171	0.73785
0.32721	0.45726
0.35272	0.83988
0.30171	0.83988
0.25071	-0.86914
0.12320	-1.88945
0.07220	-0.33348
0.12320	-0.05289
0.07220	1.32453
-0.28482	1.01843
0.04670	-1.35379
0.25071	0.78886
0.22521	0.66132
0.19971	-1.55785
0.04670	-0.99668
0.07220	0.78886
0.14870	1.17148
0.35272	0.15117
0.37822	0.55929
0.12320	1.19699
0.27621	0.22769
-0.10631	0.27871
0.02119	0.61031
0.14870	0.78886
0.12320	-0.35899
0.19971	-2.57816
0.42922	-2.19554
0.45472	-0.69059
0.27621	1.75816
0.09770	1.65613
-0.33583	1.17148
0.02119	1.09496
0.17421	0.91640
0.19971	0.89089
0.14870	0.94191
0.22521	-0.10391
0.07220	-1.04770
0.02119	-4.10862
0.22521	-1.07320
-0.00431	1.04394
0.19971	1.37554
-0.20832	0.78886
0.27621	1.17148
0.32721	0.73785
0.42922	0.45726
0.42922	3.33964
0.30171	0.71234
0.14870	-3.34339
-0.02981	-3.21585
-0.13181	1.37554
-0.02981	1.32453
0.07220	0.30422
0.17421	0.55929
0.19971	-0.28246
0.35272	-2.70570
0.12320	0.45726
-0.31033	-0.15492
-0.10631	2.31933
0.37822	0.25320
0.37822	0.50828
0.37822	0.40625
0.19971	1.65613
0.14870	-0.41000
0.12320	-1.73640
0.07220	-0.41000
0.12320	0.58480
-0.08081	1.37554
0.22521	1.06945
0.19971	1.29902
0.04670	-0.02739
0.25071	-6.22577
0.22521	1.73265
0.22521	1.93671
0.27621	0.45726
0.07220	-2.22105
0.14870	-1.43031
-0.23382	0.35523
0.02119	2.03874
0.09770	1.47757
0.17421	1.65613
0.32721	1.78367
0.25071	1.06945
0.30171	-0.66508
0.12320	-0.84363
0.04670	-0.43551
0.04670	-0.58856
0.12320	0.61031
0.14870	-0.79262
0.12320	0.25320
0.19971	-0.07840
0.19971	-0.66508
0.30171	-0.02739
-0.15732	-0.51203
-0.20832	0.73785
0.22521	0.66132
0.27621	-0.15492
0.25071	0.12566
0.32721	1.32453
0.22521	0.55929
0.14870	-1.02219
0.09770	-0.05289
0.14870	0.91640
-0.05531	-0.05289
0.07220	0.81437
-0.00431	-2.42511
-0.08081	-0.25695
-0.02981	1.40105
0.07220	1.55410
0.19971	-0.25695
0.22521	0.58480
0.19971	1.06945
0.19971	0.94191
0.09770	0.22769
0.12320	-1.07320
0.12320	-2.50164
-0.05531	0.20219
-0.05531	0.45726
0.32721	0.25320
0.35272	0.15117
0.27621	0.32972
0.02119	0.91640
0.17421	1.32453
0.14870	-0.23145
0.19971	-0.92016
-0.00431	1.01843
-0.02981	-2.37410
0.02119	1.12046
-0.36133	-0.58856
0.35272	0.53379
0.50573	1.19699
0.32721	1.98773
0.50573	0.10015
0.27621	-1.99148
0.07220	-1.55785
0.19971	1.27351
0.17421	0.89089
-0.10631	0.96742
0.07220	1.04394
0.02119	-2.50164
0.02119	0.22769
0.12320	0.10015
0.25071	0.22769
0.02119	-0.07840
0.14870	0.68683
0.30171	0.15117
0.35272	-0.02739
0.22521	-0.46102
0.25071	-0.41000
0.07220	-0.33348
-0.00431	-0.51203
-0.33583	0.73785
0.25071	1.24800
0.40372	-0.30797
0.45472	1.98773
0.27621	1.88570
0.17421	-0.10391
0.22521	-1.09871
0.27621	-1.17523
0.19971	1.06945
0.14870	0.43176
0.12320	0.76336
0.04670	-0.07840
0.02119	-0.43551
0.07220	0.07465
0.19971	0.35523
-0.00431	0.61031
-0.20832	-0.43551
0.09770	0.35523
0.32721	-0.12942
0.07220	-0.56305
0.30171	-1.37929
0.25071	0.55929
0.30171	1.06945
0.12320	0.94191
0.25071	-0.53754
-0.28482	-0.20594
0.27621	1.47757
-0.20832	3.00804
0.09770	-0.61406
0.32721	-1.30277
0.40372	0.17668
0.42922	0.71234
0.40372	0.45726
0.22521	0.02363
0.12320	-0.46102
-0.08081	0.76336
0.07220	-0.25695
0.04670	1.01843
0.09770	1.17148
0.04670	-4.59327
0.02119	-1.20074
0.17421	0.04914
0.14870	0.81437
0.19971	1.55410
0.17421	2.37034
0.09770	1.47757
-0.23382	-0.07840
0.07220	0.17668
0.37822	0.50828
0.40372	0.27871
0.27621	-0.74160
0.27621	0.25320
0.19971	-0.56305
-0.02981	0.83988
0.17421	0.71234
0.25071	-1.07320
0.22521	-0.53754
0.25071	0.45726
0.12320	-0.10391
0.12320	0.17668
-0.02981	0.83988
-0.23382	-0.38449
-0.33583	-0.35899
0.07220	0.25320
0.55673	1.47757
0.35272	1.06945
0.25071	1.83468
0.35272	-1.73640
0.22521	-0.99668
0.14870	-0.97117
-0.05531	1.12046
0.12320	0.61031
0.37822	0.12566
0.22521	0.55929
-0.10631	0.40625
-0.08081	0.55929
0.07220	1.32453
0.22521	-0.56305
0.25071	-3.06281
0.22521	-0.56305
0.17421	0.27871
0.04670	0.91640
0.27621	-0.02739
0.14870	0.94191
0.17421	0.48277
0.27621	0.63582
0.04670	0.66132
-0.08081	0.91640
-0.08081	0.58480
0.27621	-0.69059
0.35272	-2.45062
0.27621	-0.86914
0.25071	0.68683
0.22521	1.35003
-0.02981	1.68163
0.02119	0.45726
0.09770	-0.25695
0.09770	-1.35379
0.12320	0.58480
0.19971	-0.15492
0.35272	0.45726
-0.18282	-0.30797
0.14870	0.50828
0.12320	0.58480
0.19971	0.48277
0.22521	-1.02219
0.07220	0.86539
0.09770	0.27871
-0.05531	1.04394
0.12320	-0.81812
0.19971	-0.05289
0.14870	0.68683
0.12320	0.66132
0.12320	1.22250
0.02119	-0.53754
0.09770	-0.99668
-0.02981	-0.18043
0.25071	0.68683
0.19971	0.83988
-0.02981	0.61031
0.09770	-0.58856
-0.02981	-1.02219
-0.10631	0.81437
0.45472	1.01843
0.58223	0.86539
0.50573	-1.55785
0.17421	-0.20594
0.12320	-2.80773
-0.59084	0.43176
-0.10631	1.75816
0.42922	1.14597
0.42922	-2.29757
0.32721	0.35523
0.17421	2.37034
0.17421	1.57960
0.04670	-1.02219
0.17421	0.58480
0.12320	-0.33348
-0.00431	-0.76711
-0.05531	0.50828
-0.05531	0.02363
0.25071	1.09496
0.30171	1.40105
0.32721	-0.61406
0.14870	-2.93527
0.12320	-0.97117
0.19971	0.55929
0.22521	-0.58856
0.48022	1.19699
-0.08081	0.96742
0.17421	2.11527
-0.05531	-0.53754
0.30171	-0.76711
-0.28482	-1.14973
0.22521	-0.58856
0.37822	2.11527
0.45472	0.66132
0.22521	0.17668
0.04670	0.53379
0.09770	0.17668
-0.08081	0.55929
0.02119	0.30422
0.12320	-0.38449
0.19971	-1.50683
0.14870	-0.05289
0.17421	0.91640
0.22521	0.96742
0.25071	-1.48133
0.22521	-0.35899
-0.08081	0.83988
0.32721	1.32453
0.19971	0.22769
0.07220	-1.27726
-0.18282	0.99292
0.02119	-0.58856
0.40372	0.91640
0.32721	-1.37929
0.19971	-0.53754
0.17421	1.50308
0.17421	2.08976
0.27621	0.35523
0.17421	0.96742
-0.00431	1.37554
-0.05531	1.19699
0.07220	-4.66979
-0.41233	0.45726
-0.02981	0.86539
0.27621	0.35523
0.40372	-1.02219
0.50573	0.25320
0.27621	0.81437
0.09770	0.43176
0.07220	-0.02739
0.12320	0.73785
0.09770	0.50828
0.09770	-0.53754
-0.23382	-0.94566
0.32721	-0.30797
0.27621	0.71234
0.27621	0.15117
0.14870	0.40625
0.17421	-1.20074
0.17421	0.48277
-0.02981	0.81437
-0.00431	0.96742
0.04670	0.68683
0.25071	1.09496
0.25071	1.29902
0.22521	0.53379
0.07220	-2.60367
0.22521	-0.43551
0.04670	0.45726
-0.13181	0.86539
0.19971	0.43176
-0.02981	-0.79262
0.48022	-0.23145
0.53123	-1.48133
0.42922	1.01843
0.27621	0.73785
0.09770	0.32972
0.02119	0.38074
-0.05531	0.76336
0.02119	-0.20594
0.12320	-0.97117
0.02119	-0.84363
0.04670	-1.35379
-0.02981	1.04394
0.12320	1.45206
0.14870	1.70714
0.19971	1.19699
0.14870	1.45206
0.42922	0.55929
-0.05531	-2.19554
0.14870	-0.53754
0.25071	0.40625
0.22521	-0.99668
0.22521	0.04914
0.37822	0.78886
0.17421	0.43176
-0.33583	-0.20594
0.19971	-0.12942
0.35272	0.55929
-0.10631	0.73785
-0.13181	0.32972
0.50573	-1.04770
0.50573	-0.66508
0.42922	0.55929
0.22521	1.32453
0.17421	1.70714
0.12320	0.86539
0.04670	-0.15492
0.04670	-0.07840
-0.00431	-0.71609
-0.13181	-1.60887
-0.05531	0.17668
0.12320	1.86019
-0.02981	-0.41000
0.30171	0.78886
0.30171	0.04914
0.30171	0.45726
0.30171	0.40625
0.19971	0.27871
0.17421	1.45206
0.22521	1.06945
0.09770	-0.66508
-0.53984	-0.86914
0.27621	-0.61406
0.35272	-0.46102
0.25071	-0.15492
0.22521	0.27871
0.22521	0.66132
0.30171	0.12566
0.22521	0.91640
0.04670	2.34484
0.02119	-2.11902
-0.00431	-3.31788
-0.13181	0.53379
0.35272	0.66132
0.12320	1.47757
0.07220	1.29902
0.27621	0.78886
0.22521	0.45726
0.09770	0.35523
0.17421	0.99292
0.12320	-0.28246
-0.05531	-0.92016
-0.23382	0.10015
0.12320	0.66132
0.45472	0.22769
0.40372	-1.78742
0.17421	-0.10391
-0.02981	0.55929
0.09770	-2.34859
0.17421	1.14597
0.19971	2.44687
-0.13181	0.53379
0.32721	-2.50164
0.37822	1.45206
0.22521	1.01843
0.12320	-0.30797
0.32721	0.61031
0.27621	1.27351
0.40372	0.45726
-0.18282	0.86539
0.02119	-0.86914
-0.08081	-0.12942
0.19971	-0.61406
0.17421	-0.66508
0.27621	0.43176
0.02119	0.63582
0.25071	0.45726
0.25071	-0.07840
0.14870	-0.69059
0.32721	0.91640
0.07220	0.17668
0.19971	1.27351
0.12320	3.36515
-0.18282	-0.15492
-0.69285	-10.15396
0.40372	-1.81293
0.78624	2.39585
0.65874	1.96222
0.48022	2.26831
0.04670	2.57441
-0.33583	1.40105
-0.00431	1.40105
0.14870	-0.02739
0.22521	-1.30277
0.19971	0.38074
0.12320	0.35523
0.07220	0.04914
0.14870	-0.41000
-0.00431	-0.46102
0.02119	-0.63957
0.02119	-0.15492
-0.02981	-0.07840
0.04670	-0.41000
0.14870	-0.33348
0.37822	0.43176
