0.22521	0.35523
0.22521	0.22769
0.22521	0.10015
0.22521	-0.02739
0.12320	-0.07840
0.19971	-0.12942
0.22521	-0.07840
0.19971	0.30422
0.07220	0.45726
0.09770	0.15117
0.12320	-1.55785
0.09770	-0.07840
0.12320	0.58480
0.07220	0.73785
0.02119	0.78886
0.09770	0.78886
0.17421	0.32972
0.14870	-0.99668
0.14870	-0.02739
0.17421	-0.05289
0.17421	0.30422
0.14870	0.17668
0.17421	0.50828
0.12320	0.17668
0.04670	-0.02739
0.02119	0.63582
0.07220	0.55929
0.09770	-0.00188
0.07220	-2.29757
0.07220	-0.25695
0.07220	-0.53754
0.14870	0.83988
0.12320	0.99292
0.12320	0.66132
0.12320	0.20219
0.12320	0.40625
0.12320	0.38074
0.30171	0.15117
0.22521	-0.15492
0.09770	-0.05289
0.37822	0.10015
-0.20832	0.07465
0.04670	0.02363
0.32721	0.02363
0.17421	-0.02739
0.12320	0.07465
0.14870	0.25320
0.14870	0.22769
0.19971	0.04914
0.17421	0.10015
0.14870	0.43176
0.17421	0.48277
0.14870	0.02363
0.14870	-0.15492
0.07220	-0.00188
0.09770	0.02363
0.07220	0.15117
0.07220	0.17668
0.07220	0.27871
0.14870	0.50828
0.14870	0.35523
0.12320	-0.99668
0.22521	-0.38449
0.17421	-0.25695
0.22521	0.53379
0.22521	0.71234
0.17421	0.45726
0.25071	0.35523
0.12320	0.22769
0.12320	0.15117
0.07220	0.12566
0.12320	0.07465
0.12320	-0.12942
0.19971	-0.10391
0.12320	0.22769
0.12320	0.61031
0.07220	-0.23145
0.19971	-0.43551
0.22521	0.22769
0.25071	0.20219
0.25071	0.22769
0.19971	0.35523
0.12320	0.38074
0.14870	0.20219
0.07220	-0.00188
0.02119	-0.33348
0.09770	0.25320
0.17421	0.27871
0.12320	0.25320
0.19971	0.10015
0.22521	0.15117
0.19971	0.17668
0.17421	0.15117
0.19971	0.32972
0.17421	0.02363
0.12320	0.25320
0.17421	0.35523
0.17421	0.20219
0.14870	0.40625
0.17421	0.07465
0.12320	0.20219
0.17421	0.27871
0.07220	0.04914
0.07220	-1.09871
0.12320	-0.25695
-0.02981	0.40625
0.07220	0.81437
0.17421	0.76336
0.25071	-0.63957
0.17421	-0.12942
0.22521	0.73785
0.14870	0.55929
0.14870	-0.02739
0.09770	0.04914
0.04670	-0.28246
0.07220	0.50828
0.09770	0.58480
0.07220	-0.76711
0.09770	0.73785
0.09770	0.32972
0.17421	0.73785
0.12320	-0.05289
0.14870	-0.00188
0.14870	-1.12422
0.19971	0.15117
0.22521	0.30422
0.22521	0.22769
0.19971	0.43176
0.17421	0.45726
0.12320	0.48277
0.14870	-0.76711
0.07220	-0.07840
0.04670	0.55929
0.04670	0.38074
0.12320	0.17668
0.12320	0.25320
0.14870	0.35523
0.22521	0.25320
0.22521	-0.02739
0.19971	0.48277
0.12320	-0.71609
0.12320	0.07465
0.09770	0.55929
0.12320	0.40625
0.14870	-0.28246
0.19971	-0.15492
0.14870	-0.05289
0.12320	0.63582
0.12320	0.58480
0.12320	-0.28246
0.17421	0.73785
0.14870	0.78886
0.17421	-0.84363
0.17421	-0.25695
0.17421	-0.20594
0.17421	-0.07840
0.19971	0.58480
0.14870	0.20219
0.14870	0.43176
0.09770	0.35523
0.12320	0.35523
0.19971	0.40625
0.14870	-0.25695
0.07220	-0.15492
0.04670	-0.66508
0.07220	0.25320
0.02119	0.50828
0.09770	0.15117
-0.00431	-0.99668
0.04670	0.22769
0.22521	0.43176
0.17421	0.35523
0.07220	0.50828
0.02119	0.30422
0.04670	0.27871
0.12320	0.12566
0.09770	0.10015
0.12320	-0.07840
0.12320	-0.35899
0.17421	0.04914
0.14870	0.15117
0.12320	0.15117
0.09770	0.07465
0.14870	0.17668
0.12320	0.27871
0.14870	-0.58856
0.12320	0.22769
0.12320	0.07465
0.17421	0.17668
0.17421	1.12046
0.12320	-0.05289
0.09770	0.02363
0.07220	-0.58856
0.14870	0.15117
0.07220	0.38074
0.12320	0.50828
0.14870	0.32972
0.22521	0.07465
0.22521	-0.28246
0.17421	0.20219
0.07220	0.25320
0.09770	0.17668
0.17421	0.15117
0.17421	0.25320
0.14870	0.17668
0.19971	0.07465
0.25071	0.27871
0.12320	0.35523
0.12320	0.66132
0.17421	0.53379
0.25071	-0.15492
0.19971	-0.89465
0.14870	-0.69059
0.17421	0.66132
0.19971	1.12046
0.12320	1.45206
0.22521	0.15117
0.27621	-0.92016
0.25071	-1.63437
0.22521	0.66132
0.19971	1.32453
0.19971	1.12046
0.17421	0.68683
0.12320	0.38074
0.17421	0.20219
0.12320	-0.43551
0.12320	-0.00188
0.19971	-0.00188
0.12320	0.22769
0.09770	0.32972
0.09770	-0.53754
0.19971	0.20219
0.17421	0.17668
0.14870	0.10015
0.12320	-0.02739
0.12320	0.15117
0.14870	0.35523
0.17421	0.43176
0.17421	0.48277
0.19971	0.35523
0.12320	0.20219
0.12320	0.27871
0.07220	0.32972
0.04670	-0.25695
0.02119	0.43176
0.02119	-0.41000
0.25071	0.20219
0.12320	0.40625
0.07220	0.32972
-0.00431	0.27871
0.02119	0.12566
0.12320	0.53379
0.12320	-0.02739
0.12320	0.25320
0.14870	-0.89465
0.17421	-1.81293
0.19971	0.17668
0.17421	0.63582
0.19971	0.86539
0.25071	1.42656
0.22521	0.66132
0.27621	-0.76711
0.09770	-0.89465
0.14870	-0.00188
0.09770	0.61031
0.09770	0.35523
0.12320	0.83988
0.12320	1.24800
0.22521	-0.05289
0.17421	-1.04770
0.19971	0.17668
0.25071	0.38074
0.19971	0.55929
0.19971	-0.30797
0.22521	0.04914
0.25071	0.73785
0.14870	0.38074
0.12320	0.17668
0.22521	0.27871
0.22521	0.07465
0.27621	0.02363
0.22521	0.07465
0.14870	0.27871
0.22521	0.10015
0.19971	-0.00188
0.19971	0.17668
0.12320	0.43176
0.09770	0.50828
0.07220	-0.46102
0.09770	-0.86914
0.09770	0.53379
0.17421	0.40625
0.12320	0.68683
0.19971	0.55929
0.14870	-0.56305
0.12320	0.68683
0.14870	-0.15492
0.14870	-0.63957
0.07220	0.35523
0.02119	0.48277
0.12320	0.15117
0.17421	0.15117
0.14870	0.81437
0.19971	0.76336
0.19971	-0.18043
0.14870	-0.35899
0.19971	0.15117
0.22521	-0.10391
0.12320	0.15117
0.14870	-1.45582
0.09770	0.32972
0.12320	0.50828
0.04670	0.83988
0.14870	0.55929
0.14870	0.35523
0.22521	0.22769
0.22521	0.15117
0.12320	0.15117
0.14870	0.15117
0.12320	0.02363
0.09770	-0.07840
0.12320	0.12566
0.12320	0.73785
0.12320	-0.89465
0.09770	-1.17523
0.12320	0.48277
0.14870	0.91640
0.22521	0.55929
0.25071	0.94191
0.12320	0.45726
0.17421	0.63582
0.12320	-1.35379
0.09770	0.27871
0.07220	0.71234
0.09770	0.55929
0.22521	0.25320
0.22521	0.10015
0.12320	0.07465
0.17421	-0.00188
0.07220	-0.05289
0.07220	-0.25695
0.19971	0.07465
0.12320	0.15117
0.09770	0.04914
0.17421	0.20219
0.22521	0.17668
0.17421	0.20219
0.07220	0.45726
0.09770	0.20219
0.19971	0.45726
0.17421	-1.27726
0.12320	0.07465
0.12320	0.73785
0.12320	0.66132
0.12320	0.48277
0.17421	0.35523
0.17421	-0.46102
0.14870	0.35523
0.14870	0.10015
0.17421	0.35523
0.17421	-0.71609
0.17421	0.40625
0.07220	0.35523
0.07220	0.07465
0.14870	0.30422
0.12320	0.35523
0.17421	0.20219
0.14870	0.10015
0.14870	0.58480
0.02119	1.14597
0.04670	-2.11902
0.12320	-2.19554
0.12320	0.94191
0.19971	1.04394
0.19971	0.83988
0.19971	0.66132
0.19971	0.53379
0.19971	0.27871
0.17421	0.20219
0.07220	0.20219
0.07220	0.30422
0.12320	-0.25695
0.09770	-0.53754
0.07220	-0.12942
0.09770	0.45726
0.19971	0.45726
0.22521	0.22769
0.27621	-0.35899
0.19971	0.15117
0.17421	0.40625
0.17421	0.32972
0.09770	0.20219
0.09770	0.32972
0.09770	0.15117
0.09770	0.10015
0.07220	-0.43551
0.04670	0.12566
0.04670	0.40625
0.12320	0.55929
0.14870	0.35523
0.14870	-0.86914
0.14870	-0.63957
0.17421	0.63582
0.12320	0.48277
0.09770	0.50828
0.09770	0.55929
0.12320	0.22769
0.07220	-0.46102
0.09770	-0.28246
0.12320	0.45726
0.09770	1.57960
0.12320	0.07465
0.12320	-1.83844
0.22521	-0.99668
0.14870	0.30422
0.19971	0.76336
0.22521	0.73785
0.19971	0.81437
0.22521	0.27871
0.17421	0.15117
0.22521	0.04914
0.27621	0.04914
0.17421	0.15117
0.17421	-0.07840
0.22521	0.15117
0.22521	-0.35899
0.22521	0.04914
0.22521	0.48277
0.12320	0.27871
0.17421	-1.20074
0.17421	0.58480
0.17421	0.66132
0.12320	0.48277
0.09770	0.38074
0.12320	0.30422
0.12320	0.27871
0.19971	0.15117
0.17421	0.12566
0.14870	-0.41000
0.19971	0.07465
0.17421	0.15117
0.17421	0.61031
0.14870	0.30422
0.19971	-0.41000
-0.00431	0.20219
0.02119	-0.10391
0.14870	-1.12422
0.17421	-0.05289
0.12320	1.12046
0.09770	0.81437
0.12320	0.68683
0.07220	-0.46102
0.09770	0.38074
0.07220	0.35523
0.12320	0.10015
0.12320	-0.00188
0.07220	-0.02739
0.17421	-0.66508
0.14870	-0.28246
0.14870	-0.12942
0.12320	0.22769
0.09770	0.35523
0.12320	0.30422
0.09770	-0.25695
0.12320	0.53379
0.19971	0.30422
0.19971	0.25320
0.25071	0.53379
0.19971	0.55929
0.12320	0.83988
0.17421	-0.38449
0.22521	-1.07320
0.25071	-0.86914
0.22521	0.73785
0.22521	0.66132
0.25071	0.71234
0.22521	0.43176
0.07220	0.32972
0.32721	0.15117
0.27621	0.22769
0.19971	0.15117
0.14870	-0.15492
0.19971	-0.20594
0.22521	0.32972
0.14870	0.30422
0.17421	0.10015
0.09770	0.04914
0.12320	0.43176
0.14870	0.81437
0.19971	-1.17523
0.17421	0.40625
0.12320	0.50828
0.14870	-0.43551
0.12320	0.50828
0.02119	0.66132
0.02119	0.22769
0.07220	0.32972
0.07220	-0.12942
0.17421	0.71234
0.12320	0.32972
0.12320	-0.23145
0.19971	-0.02739
0.19971	-0.25695
0.17421	-0.10391
0.12320	-1.04770
0.14870	0.38074
0.07220	0.66132
0.07220	0.89089
0.09770	0.61031
0.09770	0.38074
0.12320	0.12566
0.12320	0.02363
0.09770	-0.97117
0.07220	0.45726
0.07220	-0.10391
0.07220	-0.15492
0.04670	0.20219
0.09770	0.45726
0.12320	0.96742
0.07220	-0.23145
0.12320	-1.94047
0.12320	-0.74160
0.12320	0.78886
0.09770	0.86539
0.14870	0.89089
0.25071	0.91640
0.22521	0.55929
0.22521	0.22769
0.17421	0.07465
0.17421	-0.07840
0.22521	-0.28246
0.19971	-0.18043
0.17421	0.15117
0.07220	0.02363
0.12320	0.17668
0.14870	0.96742
0.12320	-0.89465
0.12320	-0.58856
0.09770	-0.46102
0.09770	0.35523
0.09770	0.81437
0.09770	0.71234
0.04670	0.50828
0.07220	0.30422
0.04670	0.22769
0.17421	-0.05289
0.17421	0.25320
0.17421	-0.00188
0.22521	0.94191
0.22521	-0.25695
0.17421	-0.74160
0.22521	-0.20594
0.19971	0.40625
0.14870	0.40625
0.14870	0.22769
0.14870	0.22769
0.17421	0.10015
0.14870	0.25320
0.12320	0.32972
0.12320	0.43176
0.09770	-1.02219
0.09770	-0.25695
0.09770	0.32972
0.07220	0.40625
0.07220	0.32972
0.04670	0.15117
0.07220	0.45726
0.09770	0.30422
0.12320	-0.00188
0.12320	0.15117
0.09770	0.25320
0.04670	-0.35899
0.07220	-0.71609
0.12320	0.22769
0.12320	0.02363
0.12320	0.30422
0.14870	0.58480
0.12320	0.73785
0.22521	0.58480
0.22521	-0.71609
0.25071	0.07465
0.22521	0.55929
0.19971	0.58480
0.19971	0.32972
0.17421	0.94191
0.22521	-2.17003
0.27621	0.02363
0.14870	1.17148
0.17421	0.25320
0.17421	-0.61406
0.09770	-0.15492
0.07220	0.66132
0.04670	-0.00188
0.14870	0.38074
0.09770	0.83988
0.14870	-0.05289
0.19971	-0.30797
0.22521	0.48277
0.22521	0.15117
0.22521	0.17668
0.25071	0.53379
0.14870	0.17668
0.17421	0.04914
0.12320	-0.00188
0.12320	-0.00188
0.12320	0.04914
0.07220	0.15117
0.07220	0.17668
0.07220	0.30422
0.09770	-0.02739
0.09770	-0.99668
0.09770	-0.02739
0.09770	1.19699
0.02119	-0.07840
0.02119	0.40625
0.09770	0.55929
0.19971	0.91640
0.14870	-0.28246
0.14870	-0.43551
0.17421	0.27871
0.14870	0.40625
0.19971	0.40625
0.17421	0.22769
0.19971	0.10015
0.14870	-0.02739
0.17421	-0.05289
0.25071	-0.63957
0.22521	-0.41000
0.25071	0.61031
0.19971	0.71234
0.22521	0.20219
0.14870	0.43176
0.14870	0.17668
0.14870	0.27871
0.04670	0.20219
0.09770	0.12566
0.04670	-0.56305
0.07220	0.32972
0.09770	0.38074
0.09770	0.40625
0.09770	0.40625
0.09770	-0.56305
0.07220	-0.41000
0.09770	0.22769
0.12320	0.38074
0.14870	0.45726
0.14870	0.40625
0.17421	0.38074
0.12320	0.30422
0.19971	0.30422
0.30171	0.12566
0.17421	-0.05289
0.02119	-0.25695
0.22521	0.10015
0.22521	0.07465
0.25071	0.35523
0.22521	0.45726
0.14870	0.35523
0.12320	0.32972
0.12320	0.30422
0.25071	0.43176
0.27621	0.02363
0.22521	-0.07840
0.19971	0.22769
0.22521	0.45726
0.14870	0.96742
0.04670	-0.48652
-0.00431	-1.17523
1.67880	0.35523
-1.55991	0.63582
-0.51434	1.12046
1.29628	1.40105
0.55673	0.10015
0.40372	-3.64948
0.17421	0.96742
-0.10631	2.14077
-0.23382	1.17148
-0.05531	-1.07320
0.07220	0.07465
0.22521	1.63062
0.27621	-2.98628
-0.00431	0.55929
0.50573	2.47238
0.93925	-1.88945
0.73524	-0.69059
0.25071	1.55410
-0.99887	4.46198
-1.04987	-6.73592
0.07220	-0.10391
-0.38683	1.29902
0.22521	-1.17523
1.16877	-0.92016
1.34728	4.20690
1.19427	2.49788
0.53123	-2.75671
0.50573	-0.30797
-0.38683	4.74256
-0.64185	0.66132
-0.56534	-7.70522
0.14870	-0.25695
-0.53984	-2.93527
-0.36133	5.22721
0.96476	0.50828
-0.36133	-0.07840
-0.41233	0.17668
0.88825	-3.75152
0.63323	2.49788
1.32178	0.17668
0.45472	3.51819
-0.99887	2.26831
-0.92237	1.40105
-0.59084	-6.53186
0.48022	0.02363
1.04126	8.79830
-0.28482	-10.15396
0.17421	2.14077
1.01576	-1.63437
0.37822	-3.67499
0.09770	-0.51203
0.35272	6.98725
0.99026	-2.39961
0.09770	0.10015
-1.40690	7.16580
-0.69285	0.27871
0.30171	-9.51627
0.60773	-5.58807
0.55673	2.03874
0.37822	2.03874
0.50573	4.41096
0.25071	6.45158
-0.13181	-2.55265
-0.08081	-5.28198
-0.59084	-3.93007
-0.48884	2.34484
0.12320	5.15069
0.12320	0.58480
0.09770	-2.37410
0.22521	2.11527
0.68424	-2.29757
0.73524	-2.55265
0.27621	9.84411
0.50573	-8.13885
0.30171	-0.33348
0.09770	1.35003
0.25071	4.41096
0.53123	0.89089
0.14870	4.30893
-0.25932	-1.27726
-0.69285	-5.25647
-0.76936	2.62542
0.09770	-0.81812
0.78624	0.89089
0.68424	-1.37929
0.70974	-2.19554
0.58223	11.11950
0.55673	-9.18467
-0.18282	-2.73121
-0.18282	0.81437
0.12320	1.65613
-0.28482	2.90601
-0.31033	-1.32828
-0.23382	0.66132
-0.10631	2.19179
-0.31033	0.63582
0.12320	-4.00659
0.50573	-0.38449
0.76074	0.12566
0.93925	1.88570
0.93925	-1.78742
0.65874	3.77327
-0.18282	-3.11382
-0.41233	1.45206
-0.05531	-5.71561
-0.46334	-0.84363
-0.53984	0.73785
0.35272	2.57441
0.32721	3.21210
0.19971	3.05905
0.25071	3.23761
0.14870	1.32453
0.27621	0.40625
0.68424	1.83468
0.30171	-2.14453
-0.79486	-2.11902
-0.38683	-0.81812
0.12320	-2.06800
0.27621	0.25320
0.48022	-0.18043
0.48022	0.63582
0.45472	2.34484
0.53123	1.47757
0.50573	-6.14924
-0.08081	1.96222
-0.48884	-6.53186
-1.71292	2.82948
-0.97337	1.68163
0.48022	3.49268
0.63323	4.02835
0.68424	-1.91496
0.70974	1.78367
0.68424	0.17668
0.40372	1.27351
-0.20832	-0.30797
-0.18282	-2.24656
0.12320	-1.55785
0.07220	-0.46102
0.04670	-0.35899
0.07220	1.37554
0.12320	1.42656
0.12320	-2.70570
0.22521	-2.09351
0.17421	1.86019
0.25071	4.28343
0.27621	-2.93527
0.14870	0.50828
0.17421	-1.68539
0.02119	0.86539
-0.05531	0.35523
0.22521	7.36986
0.42922	3.00804
0.55673	-9.28670
0.40372	-2.34859
0.32721	1.40105
0.25071	1.93671
0.19971	1.96222
0.04670	1.27351
0.14870	2.82948
-0.13181	1.60511
-0.10631	-0.89465
-0.05531	0.02363
-0.23382	0.68683
-0.64185	-4.77183
-0.00431	-2.62918
0.73524	-0.10391
0.83725	1.40105
0.27621	-1.07320
0.42922	2.67644
0.37822	6.65564
-0.25932	0.17668
-0.43783	-22.62725
-0.79486	3.05905
0.78624	3.05905
1.01576	4.13038
1.04126	4.71706
0.70974	0.86539
0.37822	1.12046
0.12320	0.53379
-0.10631	1.96222
-0.08081	1.45206
-0.23382	-5.05241
-0.05531	-1.07320
-0.28482	-0.46102
-0.41233	0.63582
-0.15732	-0.18043
-0.05531	0.61031
0.12320	3.05905
0.40372	-0.89465
0.45472	-8.24088
0.35272	3.51819
0.42922	-4.10862
0.53123	4.99764
0.42922	3.56921
0.37822	-3.95558
0.17421	-1.88945
-0.05531	-0.18043
-1.86593	2.80397
-0.87136	1.37554
1.11776	4.15589
1.14327	1.70714
1.04126	-0.20594
0.99026	-0.15492
0.42922	-0.18043
0.07220	-0.25695
-0.36133	0.48277
-0.46334	-0.12942
-0.33583	-3.01179
-0.13181	-5.28198
-0.25932	-0.10391
0.12320	2.24281
0.35272	-0.23145
0.35272	3.62022
0.50573	0.83988
0.12320	0.71234
-0.43783	-4.28718
-0.74385	1.14597
0.14870	1.45206
0.12320	3.41616
0.40372	-3.85355
0.50573	-3.29238
0.63323	1.42656
0.55673	-1.94047
0.32721	1.65613
0.14870	2.34484
0.09770	5.43127
0.14870	-2.32308
0.17421	0.38074
0.25071	4.30893
-0.08081	-10.58759
-0.79486	-0.15492
-0.64185	0.71234
0.55673	1.01843
0.65874	0.45726
0.48022	0.81437
0.55673	1.37554
0.50573	-0.58856
0.32721	0.78886
-0.51434	1.96222
-0.10631	-4.92487
0.02119	-1.65988
-0.08081	1.50308
0.58223	-0.05289
0.25071	0.55929
0.32721	1.35003
0.83725	3.51819
0.63323	1.68163
-0.41233	-3.31788
-1.15188	3.26312
-0.33583	-5.76663
-0.05531	0.81437
0.68424	2.54890
1.14327	0.76336
0.22521	2.75296
0.17421	1.86019
0.35272	0.30422
0.19971	-3.21585
0.14870	-2.04250
0.07220	-0.15492
-0.00431	5.50780
0.02119	3.79878
-0.05531	-11.37833
-0.00431	-0.33348
0.02119	-2.24656
0.07220	5.78838
0.27621	-1.02219
0.27621	2.39585
0.30171	3.59471
0.25071	-0.35899
-0.10631	-4.69530
0.02119	1.78367
0.58223	-1.88945
0.50573	1.19699
0.40372	2.85499
-0.28482	1.17148
0.19971	0.04914
0.35272	-0.15492
0.37822	-0.18043
0.35272	-0.25695
0.17421	-1.14973
0.22521	2.82948
-0.74385	-0.38449
-0.84586	-3.44542
-0.05531	-1.35379
0.04670	-2.52714
0.55673	-0.12942
0.78624	0.25320
0.70974	2.62542
0.68424	-2.32308
0.42922	4.66604
0.02119	2.77847
-0.51434	-1.07320
-1.07538	1.12046
-0.08081	-0.30797
0.55673	-0.41000
0.58223	0.99292
0.48022	1.22250
0.50573	-1.88945
0.27621	0.66132
-0.25932	0.99292
-0.13181	-3.85355
0.22521	-2.68019
0.14870	5.53330
0.04670	-2.60367
-0.28482	-0.76711
-0.08081	-4.10862
0.42922	2.21730
0.42922	2.11527
0.37822	1.96222
0.19971	3.18659
0.25071	4.13038
0.02119	-3.21585
0.40372	-2.88425
0.37822	-1.86394
0.07220	-3.49644
-0.18282	1.09496
-0.59084	1.06945
-0.05531	0.32972
0.60773	2.70194
0.48022	0.27871
0.35272	0.27871
0.14870	0.02363
0.48022	-0.02739
0.22521	3.28862
0.12320	-4.84835
-0.38683	-0.33348
-0.76936	-3.93007
0.53123	0.35523
0.86275	0.71234
-0.18282	3.44167
0.04670	-0.25695
0.70974	1.17148
0.42922	0.27871
0.07220	-4.13413
-0.69285	3.64573
-0.00431	-0.69059
0.30171	3.87530
0.27621	-4.28718
0.19971	1.52859
0.25071	3.92632
0.22521	1.68163
0.12320	-5.74112
0.22521	0.83988
0.12320	3.05905
-0.05531	2.14077
-0.00431	-4.69530
0.07220	-2.01699
0.22521	-1.63437
0.22521	0.25320
0.25071	-2.80773
0.22521	2.54890
0.25071	2.49788
0.30171	0.78886
0.45472	0.99292
0.37822	-1.30277
-0.38683	-2.14453
-0.53984	0.38074
0.09770	0.50828
0.32721	2.47238
0.40372	1.14597
0.48022	2.70194
0.96476	1.93671
0.53123	-3.72601
-0.15732	-2.78222
-0.87136	-1.17523
-0.51434	0.73785
0.76074	1.60511
0.86275	1.73265
0.70974	3.79878
0.63323	-4.84835
0.32721	0.04914
0.12320	-1.53234
-0.13181	1.86019
0.09770	-2.70570
-0.10631	2.49788
-0.69285	0.53379
-0.28482	3.62022
0.09770	-0.41000
0.30171	2.75296
0.53123	1.09496
0.40372	0.15117
0.42922	-1.71090
0.30171	-5.51155
0.40372	-1.86394
0.14870	0.71234
0.04670	0.07465
-0.13181	2.54890
0.22521	2.37034
0.30171	1.60511
0.17421	-1.78742
0.27621	-0.46102
-0.20832	0.76336
-0.18282	0.55929
0.07220	-1.94047
-0.08081	0.48277
-0.05531	1.01843
0.58223	-0.33348
0.40372	-0.99668
0.17421	-0.43551
0.22521	0.68683
0.50573	-0.07840
0.35272	2.34484
0.12320	0.30422
0.17421	3.31413
0.02119	-5.51155
-0.13181	-1.76191
-0.02981	1.60511
-0.00431	-1.81293
-0.10631	2.72745
0.27621	4.56401
0.12320	1.68163
0.02119	-2.09351
0.09770	-1.99148
0.40372	-0.25695
0.45472	-0.41000
0.32721	-1.27726
0.02119	1.47757
-0.08081	2.88050
0.07220	-2.65468
0.09770	-0.76711
-0.08081	-0.35899
-0.56534	0.25320
0.32721	0.73785
0.76074	-0.10391
0.60773	0.66132
0.48022	2.29382
0.32721	-0.30797
0.17421	-2.37410
0.12320	2.70194
0.12320	0.12566
0.07220	-8.01131
-0.02981	-0.84363
-0.13181	2.06425
-0.13181	3.23761
-0.20832	3.54370
-0.31033	1.86019
0.17421	-4.44022
-0.05531	1.37554
0.27621	0.96742
0.42922	1.17148
0.55673	0.04914
0.50573	0.25320
0.53123	-1.07320
0.25071	-2.01699
-0.15732	-0.05289
-0.33583	0.04914
0.09770	-1.81293
0.27621	1.14597
0.37822	1.04394
0.32721	2.29382
0.25071	1.73265
0.04670	-3.72601
-0.53984	3.00804
-0.33583	-2.93527
-0.20832	-1.40480
0.14870	1.45206
0.40372	2.08976
0.48022	4.30893
0.32721	-0.51203
0.32721	-0.20594
0.27621	-2.45062
0.17421	0.76336
-0.20832	-1.50683
-0.31033	-0.12942
0.37822	3.05905
0.25071	-0.12942
0.63323	-1.94047
0.45472	-2.96078
0.25071	2.93151
-0.18282	-1.27726
0.09770	1.35003
-0.08081	0.83988
0.09770	2.34484
0.37822	4.92112
0.42922	-7.09303
0.25071	-0.61406
0.07220	-3.72601
0.14870	-1.02219
0.30171	2.90601
0.17421	1.98773
0.02119	-0.63957
0.17421	0.58480
0.30171	2.14077
-0.33583	1.78367
-0.10631	-2.22105
0.53123	0.86539
0.02119	-1.35379
0.02119	-0.43551
0.25071	4.35995
0.65874	-4.31269
0.76074	-2.70570
0.27621	-1.40480
0.45472	-3.24136
0.07220	2.72745
0.12320	3.28862
-0.38683	1.96222
0.19971	1.19699
-0.43783	-0.81812
-0.00431	1.14597
0.22521	0.68683
0.17421	0.45726
0.12320	0.81437
0.12320	-2.75671
0.53123	0.58480
0.19971	0.12566
0.14870	0.94191
-0.20832	0.55929
-0.05531	-2.09351
0.07220	0.48277
0.12320	-3.85355
0.07220	5.27823
0.09770	-0.28246
0.25071	-1.81293
0.19971	-4.74632
0.25071	1.70714
0.45472	1.86019
-0.00431	2.57441
-0.28482	2.67644
-0.41233	3.26312
0.22521	0.73785
0.50573	0.35523
0.58223	-0.81812
0.60773	-1.22625
0.53123	-1.17523
-0.46334	-0.12942
-0.15732	0.53379
0.02119	1.73265
0.22521	-4.95038
0.30171	1.42656
0.35272	2.26831
0.22521	-3.21585
-0.00431	0.38074
0.04670	1.01843
-0.02981	5.30373
-0.10631	-5.30749
0.12320	-0.23145
0.07220	0.71234
0.40372	0.89089
0.32721	0.58480
0.17421	1.40105
-0.20832	1.50308
-0.38683	0.99292
0.53123	0.45726
0.91375	-0.25695
0.40372	-1.55785
-0.59084	0.38074
-0.79486	-4.23616
0.19971	-0.61406
0.65874	0.66132
0.68424	1.60511
0.35272	0.22769
0.32721	1.09496
0.25071	-1.73640
0.19971	-1.09871
0.14870	1.96222
-0.43783	2.80397
-0.20832	-2.65468
-0.51434	-0.76711
-0.13181	2.08976
0.50573	-3.13933
0.60773	1.45206
0.55673	1.04394
-0.00431	4.66604
-0.00431	-5.15444
0.07220	-1.58336
0.45472	1.86019
0.22521	2.14077
0.35272	0.83988
0.25071	1.70714
0.12320	-2.52714
-0.08081	0.66132
-0.25932	-3.49644
0.27621	2.77847
0.04670	0.50828
0.40372	-0.05289
0.12320	1.98773
0.02119	1.68163
-0.08081	0.35523
-0.02981	-1.40480
-0.25932	-1.27726
0.12320	1.24800
0.22521	1.65613
0.58223	1.27351
0.53123	-5.66460
0.55673	-0.71609
0.35272	1.68163
0.17421	-0.18043
-0.41233	-0.25695
-0.08081	1.45206
0.40372	1.01843
0.32721	4.79358
0.35272	-2.37410
-0.69285	0.66132
-0.15732	-1.58336
0.12320	-0.35899
0.27621	0.66132
0.14870	-0.33348
0.09770	0.43176
-0.00431	-0.02739
0.32721	0.94191
0.25071	2.01323
0.30171	3.51819
0.19971	-2.42511
-0.08081	-3.49644
0.07220	-1.60887
0.55673	1.22250
0.30171	0.48277
-0.13181	2.72745
-0.46334	0.83988
-0.25932	1.65613
-0.25932	-0.48652
0.42922	-0.05289
0.32721	-0.43551
0.73524	1.19699
0.48022	0.40625
0.37822	-3.21585
0.22521	1.40105
0.35272	-0.02739
0.32721	-2.73121
-0.33583	2.11527
-1.10088	0.04914
-0.33583	0.32972
0.40372	1.04394
0.55673	1.80917
0.25071	4.58952
0.37822	1.63062
0.30171	-12.80677
0.09770	-0.05289
0.32721	1.09496
0.19971	2.37034
0.09770	1.91120
-0.20832	1.17148
0.02119	0.55929
0.12320	2.03874
0.42922	0.58480
-0.00431	-0.97117
-0.08081	-4.18515
0.40372	0.02363
0.68424	0.15117
0.25071	0.22769
0.09770	0.76336
-0.18282	0.20219
0.14870	-0.15492
0.25071	0.96742
-0.08081	0.27871
0.07220	-1.73640
0.19971	2.14077
0.09770	1.93671
0.07220	-5.76663
0.04670	1.78367
0.09770	2.88050
0.02119	-2.65468
0.14870	2.37034
0.30171	0.17668
-0.05531	-0.76711
0.09770	0.20219
0.60773	1.17148
0.63323	1.73265
-0.41233	1.45206
-0.46334	-0.94566
0.09770	2.42136
0.58223	-0.38449
0.32721	-2.52714
0.45472	-0.38449
0.37822	-0.18043
0.45472	1.68163
0.32721	-1.50683
0.30171	1.78367
0.17421	3.51819
0.07220	-4.95038
-0.08081	0.81437
0.12320	-0.10391
-0.10631	0.25320
-0.51434	1.40105
-0.23382	1.01843
0.14870	0.81437
0.09770	4.30893
0.09770	-7.62869
0.58223	-1.58336
0.73524	0.48277
0.63323	1.96222
0.53123	2.67644
0.19971	2.70194
-0.15732	1.83468
-0.33583	-0.94566
-0.43783	0.50828
0.32721	-0.35899
0.50573	-1.27726
0.12320	-2.09351
0.09770	0.76336
0.45472	-0.86914
0.76074	2.24281
-0.97337	-4.23616
-0.13181	0.17668
0.17421	-3.90456
0.32721	0.68683
0.50573	1.88570
0.53123	1.93671
0.30171	1.88570
-0.00431	0.99292
-0.18282	1.83468
0.25071	-0.00188
0.35272	0.96742
0.17421	-0.33348
0.14870	-2.06800
0.02119	-0.23145
-0.02981	0.12566
0.04670	0.43176
0.17421	1.06945
0.17421	-0.56305
0.50573	1.88570
-0.18282	-2.73121
-0.66735	0.07465
0.25071	-0.28246
0.60773	1.57960
0.63323	2.59991
0.35272	0.76336
0.25071	-0.74160
0.17421	-1.78742
-0.00431	0.50828
-0.02981	-0.35899
-0.20832	0.86539
-0.02981	0.81437
0.19971	1.04394
0.17421	0.17668
0.14870	0.32972
-0.02981	1.73265
0.07220	-4.49124
0.37822	0.35523
0.22521	-1.07320
0.32721	0.50828
0.32721	2.54890
0.12320	-3.06281
0.30171	3.11007
0.02119	-3.98109
0.30171	0.43176
-0.00431	-2.01699
-0.02981	-0.20594
-0.20832	1.57960
0.19971	2.65093
0.73524	3.16108
0.42922	1.55410
0.32721	0.86539
-0.38683	-1.02219
0.27621	-2.62918
0.42922	-0.66508
0.04670	-2.29757
0.12320	0.50828
0.25071	1.17148
0.22521	0.76336
0.42922	3.36515
0.32721	2.26831
-0.46334	-5.12893
-0.05531	-1.65988
0.07220	0.07465
0.17421	1.29902
0.07220	1.57960
0.17421	3.11007
0.22521	-1.27726
-0.02981	-2.62918
-0.33583	1.22250
0.09770	0.58480
0.14870	-1.35379
0.30171	-0.74160
0.19971	1.47757
0.17421	1.70714
0.12320	1.75816
0.25071	-4.69530
0.09770	-0.76711
-0.05531	1.37554
0.02119	0.53379
0.04670	1.88570
0.12320	0.63582
0.22521	-4.36370
0.02119	1.78367
-0.08081	0.40625
0.27621	1.86019
0.04670	-0.69059
0.09770	0.53379
-0.89686	-0.48652
0.19971	2.65093
0.19971	0.27871
-0.00431	-0.79262
0.14870	-3.11382
0.73524	1.12046
0.63323	-4.49124
0.60773	0.73785
0.27621	2.65093
0.02119	1.37554
-0.08081	2.90601
0.02119	0.91640
-0.20832	-1.48133
-0.31033	-0.69059
-0.00431	-0.58856
-0.00431	1.32453
-0.05531	5.04866
0.22521	-6.02170
0.27621	-0.94566
0.32721	0.83988
0.12320	-0.63957
-0.28482	-5.58807
0.14870	1.57960
0.55673	2.19179
0.48022	1.63062
0.17421	4.46198
0.30171	-1.30277
0.88825	-4.41472
0.73524	-2.01699
-0.02981	1.42656
-1.91693	3.21210
-0.46334	0.35523
0.65874	0.76336
0.81175	-1.27726
0.63323	1.88570
0.45472	-1.20074
0.22521	0.02363
-0.05531	-0.63957
0.19971	-0.28246
0.09770	0.58480
0.25071	1.17148
-0.00431	0.99292
0.04670	-0.46102
0.35272	0.04914
0.07220	-1.07320
0.04670	1.01843
-0.25932	0.66132
-0.15732	2.29382
0.19971	-3.67499
-0.13181	0.07465
-0.18282	-0.99668
0.35272	-2.24656
0.40372	6.47709
0.32721	2.19179
0.30171	-3.95558
0.27621	-0.02739
0.17421	1.32453
0.02119	1.68163
0.09770	4.48749
-0.56534	-3.54745
-0.48884	-3.64948
0.32721	-0.58856
0.37822	0.61031
0.32721	1.32453
0.32721	2.21730
0.42922	1.55410
-0.59084	-5.48604
-0.13181	-1.94047
0.58223	2.31933
0.30171	0.63582
0.58223	1.04394
0.48022	1.42656
0.14870	-1.07320
-0.33583	0.30422
-0.31033	1.29902
0.04670	0.35523
0.19971	1.78367
0.60773	1.17148
0.58223	-2.32308
0.53123	-0.30797
0.07220	0.07465
-0.05531	-0.02739
0.37822	1.35003
0.02119	1.29902
-0.43783	-3.98109
0.12320	-2.29757
0.55673	3.31413
0.63323	-3.13933
0.55673	-0.18043
0.63323	2.34484
0.70974	4.07936
-0.99887	-2.11902
-0.89686	-0.71609
0.19971	5.60983
0.40372	0.04914
0.07220	-2.14453
0.48022	0.91640
0.42922	-0.25695
0.37822	0.27871
0.35272	-3.93007
0.27621	1.12046
0.12320	-0.18043
-0.00431	0.17668
-0.02981	0.94191
-0.08081	0.04914
0.27621	-0.53754
0.19971	1.06945
-0.28482	1.98773
-0.15732	0.81437
0.12320	-0.15492
0.22521	-2.85874
0.04670	-1.22625
0.48022	0.63582
0.53123	-5.10343
0.37822	1.06945
-0.02981	3.39065
-0.08081	4.41096
0.25071	-0.28246
0.63323	3.51819
0.35272	0.50828
0.30171	0.99292
0.35272	1.47757
0.09770	-0.86914
-0.15732	-1.48133
-0.84586	-1.68539
-0.13181	0.15117
0.27621	-1.35379
0.19971	-1.07320
0.32721	0.22769
0.32721	0.78886
-0.25932	1.01843
0.09770	-1.53234
0.22521	1.17148
0.22521	0.48277
0.07220	2.49788
0.48022	-1.40480
-0.59084	-0.33348
-0.00431	-2.45062
0.48022	2.49788
0.12320	0.15117
0.53123	0.78886
0.48022	0.04914
0.14870	0.71234
0.02119	1.24800
0.22521	1.24800
-0.00431	0.50828
-0.23382	-2.01699
0.14870	5.81389
0.17421	-8.18986
-0.10631	-4.44022
-0.33583	0.73785
0.12320	2.31933
0.32721	1.73265
0.40372	-0.07840
0.17421	2.16628
-0.02981	3.41616
0.07220	-0.79262
-0.00431	0.15117
0.35272	1.17148
0.53123	-0.10391
0.53123	-0.97117
-0.51434	-0.84363
-0.02981	-1.07320
0.40372	0.53379
0.48022	0.30422
0.25071	1.06945
0.32721	-2.04250
0.37822	-1.35379
0.17421	0.32972
-0.00431	4.51299
-1.30489	-5.23097
-0.05531	-0.69059
0.53123	3.16108
0.60773	1.09496
0.65874	0.91640
-0.10631	-0.18043
-0.48884	1.52859
0.22521	0.10015
0.55673	0.71234
0.25071	2.08976
0.30171	0.91640
0.12320	-1.27726
0.07220	-2.90976
-0.23382	-2.14453
-0.13181	-0.51203
0.32721	1.80917
-0.25932	2.01323
0.07220	1.42656
0.42922	-2.29757
-0.05531	1.57960
-0.05531	0.27871
0.50573	0.91640
0.42922	1.32453
0.45472	0.27871
0.07220	0.68683
0.42922	-5.00139
0.42922	-1.17523
-0.08081	-0.28246
-1.66191	2.59991
0.12320	2.52339
0.68424	1.98773
0.68424	0.96742
0.65874	0.71234
0.48022	1.17148
0.32721	-1.35379
0.32721	0.48277
0.09770	2.59991
-0.00431	-7.24608
-0.13181	-3.57296
-0.00431	-0.18043
-0.23382	-1.25176
0.12320	1.78367
0.37822	3.03355
0.40372	2.82948
0.07220	1.22250
-0.18282	1.60511
-0.05531	1.40105
-0.36133	-1.73640
0.30171	-1.35379
0.73524	-0.18043
0.78624	-0.51203
0.32721	0.71234
-0.10631	1.88570
-0.31033	-2.27207
0.32721	-0.46102
0.02119	-0.74160
0.17421	-1.96597
0.09770	1.91120
0.22521	3.31413
0.12320	-0.23145
0.42922	-2.29757
0.35272	0.30422
-0.02981	3.67124
-0.69285	0.50828
-0.00431	-0.07840
0.30171	-2.11902
0.30171	-0.81812
0.32721	-0.28246
0.19971	1.42656
0.02119	1.27351
0.12320	0.86539
0.25071	0.40625
0.48022	0.04914
0.48022	0.04914
0.02119	-0.28246
-0.33583	-3.26687
-0.23382	0.38074
0.17421	0.71234
0.04670	2.11527
-0.20832	-2.19554
0.42922	1.35003
0.65874	-3.70050
0.60773	1.09496
0.42922	-1.58336
-0.02981	0.71234
-0.36133	2.77847
-0.02981	0.55929
-0.18282	2.31933
0.12320	1.98773
0.50573	1.83468
0.25071	0.04914
0.35272	-1.27726
0.32721	-1.50683
0.19971	-1.43031
0.02119	1.98773
-0.20832	2.08976
-0.51434	-1.48133
0.40372	-1.53234
0.55673	-0.02739
0.53123	-0.48652
0.45472	2.01323
0.35272	2.57441
0.37822	0.53379
0.35272	-0.92016
0.32721	-5.58807
-0.69285	1.47757
-0.43783	1.32453
-0.48884	1.04394
0.40372	1.19699
0.93925	0.61031
0.55673	1.09496
0.37822	-0.15492
0.42922	1.12046
-0.31033	-0.58856
-0.08081	-2.96078
0.19971	-0.74160
0.12320	0.89089
0.22521	0.48277
0.19971	0.12566
0.09770	2.19179
0.27621	2.93151
0.30171	-1.81293
0.02119	-0.63957
-0.02981	-1.09871
0.65874	-0.92016
0.14870	2.90601
0.22521	-4.92487
-0.76936	1.70714
0.35272	2.88050
0.63323	1.83468
0.30171	1.32453
0.32721	-1.22625
0.17421	1.14597
0.04670	1.27351
0.32721	-0.86914
0.12320	-4.08312
0.22521	0.96742
-0.59084	-0.99668
-0.76936	0.25320
0.07220	1.06945
0.42922	1.91120
0.48022	-0.02739
0.50573	-1.35379
0.48022	0.53379
0.27621	0.04914
-0.15732	-2.73121
-0.18282	2.37034
-0.25932	1.14597
0.35272	1.86019
0.63323	0.53379
0.42922	-0.66508
0.48022	2.70194
0.35272	-3.82804
0.02119	0.76336
-0.46334	0.86539
0.02119	-0.94566
0.42922	-0.02739
0.17421	1.40105
0.12320	0.10015
-0.02981	-3.77702
0.07220	-0.00188
0.07220	3.62022
-0.18282	-2.06800
-0.00431	-4.21066
0.37822	2.49788
-0.46334	-0.23145
0.55673	-0.74160
0.78624	1.52859
0.53123	2.19179
0.37822	1.57960
0.42922	0.35523
-0.10631	-0.23145
-0.36133	-0.51203
-0.02981	2.39585
0.22521	1.60511
0.14870	-4.72081
0.19971	-1.88945
-0.33583	1.14597
-0.13181	0.96742
0.53123	-4.46573
0.53123	1.12046
0.30171	2.75296
0.12320	-0.28246
-0.13181	1.45206
0.02119	0.86539
-0.08081	1.01843
0.27621	1.73265
0.35272	0.35523
0.25071	-1.30277
0.12320	1.09496
-0.08081	-2.75671
0.37822	-1.32828
-0.38683	-0.28246
-0.76936	1.04394
0.22521	0.12566
0.63323	0.40625
0.91375	0.27871
0.81175	-0.46102
-0.18282	-1.07320
-0.79486	-1.83844
0.04670	1.06945
0.48022	0.25320
0.48022	2.59991
0.42922	2.34484
0.25071	-0.15492
0.53123	-0.61406
0.02119	0.71234
-0.25932	0.73785
-0.18282	0.78886
0.02119	0.99292
0.07220	-4.84835
0.22521	0.22769
0.22521	1.37554
0.12320	0.38074
0.17421	0.78886
0.22521	2.85499
0.04670	-3.36890
0.27621	-1.60887
0.22521	-1.27726
0.19971	-2.42511
0.02119	0.02363
0.32721	3.00804
0.42922	3.08456
0.37822	0.32972
0.17421	1.04394
0.27621	3.00804
-0.28482	-0.15492
-0.10631	-0.86914
0.25071	-1.32828
0.25071	0.35523
0.73524	-0.23145
-0.25932	-1.22625
-0.46334	-1.65988
0.32721	-0.05289
0.42922	1.14597
0.58223	3.82429
0.50573	-1.68539
-0.48884	-1.53234
0.25071	-0.56305
0.53123	3.18659
0.40372	-5.66460
-0.13181	0.91640
-0.08081	2.44687
-0.28482	0.55929
-0.13181	1.50308
0.14870	0.63582
0.14870	0.61031
-0.02981	-1.53234
0.17421	-0.41000
0.32721	0.94191
0.42922	-0.46102
0.14870	0.40625
-0.53984	-2.96078
0.02119	-1.40480
0.32721	0.99292
0.55673	0.96742
0.42922	1.47757
0.25071	1.96222
0.45472	1.37554
0.14870	-1.43031
-0.00431	-1.02219
0.02119	1.70714
0.14870	-3.21585
0.22521	-0.66508
0.55673	0.61031
0.45472	2.57441
0.12320	1.22250
-0.08081	0.89089
0.30171	-0.15492
0.25071	-1.12422
0.07220	2.95702
-0.08081	-0.10391
-0.13181	-2.73121
0.32721	2.08976
0.27621	-0.02739
0.27621	-1.88945
0.12320	-1.37929
0.12320	1.35003
-0.79486	2.42136
0.22521	1.37554
0.60773	-0.76711
0.53123	0.58480
0.37822	1.14597
0.53123	-0.99668
-0.25932	-0.81812
-0.38683	-1.91496
0.19971	-0.38449
0.48022	1.24800
0.25071	0.66132
-0.00431	-0.35899
-0.20832	0.53379
0.09770	1.09496
0.32721	1.04394
0.32721	0.27871
0.25071	1.35003
0.02119	-1.43031
0.07220	-0.69059
0.19971	-1.58336
0.27621	0.45726
0.12320	1.65613
0.17421	-0.00188
0.17421	0.17668
0.32721	2.37034
0.14870	0.30422
0.19971	0.53379
0.19971	-0.71609
0.02119	0.15117
0.07220	-1.94047
0.35272	1.06945
0.35272	0.76336
0.32721	-0.71609
0.22521	1.01843
0.12320	0.07465
0.14870	-1.83844
0.09770	1.17148
0.25071	0.89089
0.22521	1.12046
0.07220	0.99292
-0.08081	-1.14973
-0.43783	-3.21585
0.42922	0.50828
0.53123	2.01323
0.27621	1.98773
0.12320	-2.04250
-0.18282	-0.12942
0.14870	0.53379
0.37822	0.30422
0.30171	0.76336
0.25071	2.85499
0.19971	1.78367
0.14870	-4.59327
0.14870	-1.48133
0.02119	0.78886
0.04670	1.17148
0.02119	1.55410
0.04670	-1.37929
0.02119	2.11527
0.12320	3.84979
0.19971	-5.74112
0.04670	-2.98628
0.22521	-2.14453
0.22521	1.40105
-0.25932	1.98773
-0.36133	2.08976
0.37822	1.63062
0.35272	-0.07840
0.32721	-0.05289
0.40372	1.27351
0.17421	-1.04770
0.30171	-0.00188
0.58223	-0.20594
0.12320	0.35523
-0.28482	0.43176
-0.33583	1.65613
0.27621	-1.73640
0.22521	-0.10391
0.14870	1.06945
0.32721	2.03874
0.09770	-2.75671
0.02119	-0.25695
-0.13181	-0.66508
0.27621	-2.29757
0.35272	1.42656
0.37822	1.06945
0.19971	3.92632
-0.99887	1.57960
-0.15732	-0.61406
0.58223	-1.14973
0.50573	-0.35899
0.53123	0.45726
0.48022	0.40625
0.60773	2.11527
0.55673	-1.12422
-0.48884	-1.14973
-0.41233	0.10015
0.12320	-2.55265
0.09770	-0.53754
0.35272	1.37554
0.58223	1.55410
0.37822	-0.00188
0.32721	-0.58856
0.27621	-0.15492
0.19971	1.63062
-0.15732	1.06945
-0.97337	-0.48652
-0.33583	-0.48652
0.30171	-1.73640
0.55673	1.17148
0.65874	2.62542
0.50573	0.04914
0.42922	0.45726
-0.10631	-1.68539
-0.31033	0.86539
0.22521	0.68683
-0.02981	-3.26687
0.19971	-0.20594
0.19971	1.73265
-0.08081	0.94191
-0.41233	-1.91496
0.14870	0.83988
0.30171	-0.07840
0.22521	0.53379
0.09770	-0.33348
-0.08081	0.63582
0.12320	1.14597
0.37822	-0.15492
0.14870	-0.28246
0.04670	-0.43551
0.22521	0.71234
0.50573	1.80917
-0.46334	-1.30277
0.12320	-0.07840
0.25071	0.66132
0.42922	0.55929
0.02119	-0.15492
-0.23382	0.83988
0.48022	0.61031
0.32721	-0.63957
0.48022	-0.23145
0.53123	0.55929
-0.05531	-2.37410
-0.43783	-0.86914
0.19971	0.81437
0.25071	1.83468
0.09770	2.62542
0.02119	-0.99668
-0.08081	-1.37929
0.09770	-1.71090
0.50573	-1.96597
0.22521	1.63062
0.14870	1.80917
-0.28482	1.70714
-0.28482	2.85499
0.37822	-0.89465
0.27621	-0.18043
0.17421	0.78886
0.32721	0.96742
0.40372	-2.93527
0.32721	1.40105
0.37822	2.01323
0.07220	-6.42983
0.02119	-2.06800
-0.10631	1.52859
0.12320	0.48277
-0.28482	1.60511
-0.46334	1.91120
0.14870	1.93671
0.19971	2.08976
0.30171	-0.89465
-0.48884	0.17668
-0.51434	1.37554
0.78624	-2.04250
0.83725	-1.07320
0.58223	-2.90976
0.48022	0.89089
-0.18282	1.17148
-0.08081	-0.66508
0.25071	1.17148
0.12320	-0.10391
0.40372	-0.15492
-0.36133	0.48277
-0.18282	-1.17523
0.02119	3.18659
0.22521	-2.93527
0.22521	0.35523
0.30171	0.66132
0.22521	0.83988
0.22521	2.01323
0.04670	-0.18043
-0.08081	-0.15492
0.37822	0.94191
-0.10631	0.32972
-0.28482	1.93671
0.17421	-4.54226
0.63323	-0.84363
0.42922	1.50308
0.22521	3.56921
-0.10631	-4.87386
-0.13181	-1.35379
0.32721	-0.51203
0.42922	0.91640
0.27621	1.19699
0.02119	1.78367
0.02119	1.88570
0.14870	0.96742
0.30171	1.73265
0.53123	1.42656
-0.87136	-1.86394
-0.28482	-0.56305
0.30171	-0.56305
0.25071	-1.71090
0.55673	0.07465
0.17421	0.53379
0.42922	-1.12422
0.48022	1.60511
0.40372	-0.28246
0.27621	0.15117
-0.28482	1.14597
-0.08081	1.14597
-0.10631	0.66132
0.25071	-0.74160
0.09770	2.31933
0.09770	0.30422
0.17421	-2.62918
0.50573	-1.45582
0.63323	0.32972
-0.08081	0.96742
0.07220	1.14597
0.22521	1.09496
-0.00431	0.66132
-0.46334	3.54370
-0.20832	-2.06800
0.60773	2.75296
0.73524	-4.97589
0.19971	-5.07792
-0.48884	0.66132
0.17421	2.19179
0.17421	2.88050
0.25071	-1.04770
0.22521	1.80917
-0.08081	0.71234
-0.05531	0.10015
-0.13181	0.27871
0.22521	-1.20074
0.37822	-1.17523
0.35272	1.68163
-0.74385	3.67124
-0.48884	-5.20546
-0.36133	0.22769
0.37822	-2.22105
0.60773	0.81437
0.86275	0.63582
0.78624	1.45206
0.70974	1.17148
0.53123	1.40105
-0.59084	2.08976
-0.51434	0.20219
0.22521	-0.71609
0.30171	-1.02219
0.12320	-1.12422
0.09770	2.08976
0.19971	4.23241
-0.38683	-6.12374
-0.00431	-5.99620
0.27621	-0.25695
0.12320	1.47757
0.02119	-0.05289
0.48022	3.05905
0.32721	2.93151
0.30171	-1.50683
0.58223	1.68163
-0.13181	1.12046
-0.20832	-0.56305
0.42922	-0.53754
0.45472	1.45206
0.22521	-0.43551
-0.43783	0.96742
0.32721	-1.37929
0.70974	0.30422
0.22521	-0.30797
-0.23382	-2.24656
0.32721	0.22769
-0.08081	2.16628
0.12320	3.00804
-0.00431	-0.20594
0.19971	-6.63389
0.35272	-0.10391
0.40372	2.82948
0.27621	0.17668
0.02119	4.18139
-0.59084	-2.09351
0.14870	2.62542
0.12320	2.82948
0.22521	-1.09871
-0.64185	-1.73640
0.17421	0.71234
0.68424	0.15117
0.76074	1.32453
0.14870	1.14597
0.12320	-1.63437
0.55673	0.25320
0.37822	0.20219
-0.79486	0.17668
-0.28482	-0.23145
0.48022	0.32972
0.53123	0.63582
0.30171	0.53379
-0.00431	-0.97117
0.12320	-0.97117
0.22521	1.01843
0.19971	1.06945
0.09770	-0.15492
-0.02981	-1.91496
-0.00431	-1.58336
-0.15732	1.42656
0.25071	2.52339
0.09770	1.50308
0.32721	3.03355
0.02119	-4.89936
0.42922	0.30422
0.25071	0.12566
0.37822	0.58480
0.27621	1.27351
0.09770	2.01323
0.37822	1.17148
0.14870	-1.32828
-0.00431	-0.18043
0.14870	0.40625
0.22521	-4.33819
0.25071	-1.07320
0.22521	-0.86914
0.17421	0.10015
-0.92237	1.04394
-0.33583	1.14597
0.68424	1.42656
-0.20832	0.86539
0.48022	-0.56305
0.12320	-2.47613
0.22521	-0.05289
0.55673	1.37554
0.37822	0.91640
0.19971	1.22250
0.22521	2.49788
-0.00431	-3.39441
0.04670	-0.35899
-0.18282	1.06945
-0.15732	1.98773
-0.08081	-1.43031
0.14870	-1.65988
0.25071	0.35523
0.30171	0.96742
0.35272	0.73785
0.17421	1.12046
-0.15732	-0.12942
0.42922	1.57960
0.35272	-0.05289
0.09770	-2.17003
-0.13181	-1.63437
0.42922	0.81437
0.30171	0.38074
-0.18282	-0.02739
0.12320	3.26312
0.37822	0.99292
0.30171	-1.48133
-0.23382	0.43176
0.19971	1.29902
-0.46334	-2.34859
-0.36133	1.40105
0.60773	0.30422
0.53123	1.47757
0.53123	-1.60887
0.02119	-0.28246
0.09770	0.66132
0.09770	0.38074
0.19971	1.04394
0.22521	4.10487
0.42922	-0.07840
0.30171	-1.81293
-0.31033	-4.59327
-1.12638	0.12566
-0.08081	2.70194
0.48022	0.53379
0.40372	5.25272
0.32721	1.88570
0.73524	-1.94047
0.60773	-1.27726
0.32721	-0.63957
0.14870	1.17148
0.12320	0.81437
-0.05531	1.12046
0.02119	-0.69059
-0.08081	-1.04770
-0.05531	-0.07840
0.02119	1.52859
0.35272	2.14077
0.14870	-4.84835
0.04670	-1.14973
0.37822	0.83988
-0.99887	0.43176
-0.82036	1.86019
0.68424	2.72745
0.93925	0.25320
0.65874	-2.70570
0.68424	1.27351
0.60773	0.10015
0.42922	0.71234
-0.05531	2.75296
-0.28482	-2.06800
-0.10631	0.07465
-0.02981	-1.07320
-0.00431	1.88570
-0.02981	-4.82284
0.12320	0.25320
0.14870	0.81437
0.12320	2.44687
0.25071	1.78367
-0.23382	0.76336
0.25071	1.73265
0.32721	-1.09871
0.30171	-0.28246
0.25071	-1.04770
0.32721	0.15117
0.37822	1.65613
0.25071	0.61031
0.35272	-1.14973
-0.23382	0.30422
-0.05531	-0.20594
-0.31033	-1.58336
0.19971	-0.63957
0.53123	0.50828
0.14870	1.73265
-0.28482	0.22769
0.63323	0.38074
0.68424	1.35003
0.70974	2.01323
0.19971	-0.56305
-0.46334	-0.53754
-0.28482	-3.95558
0.02119	0.10015
0.17421	1.52859
0.19971	2.59991
0.37822	3.39065
0.27621	0.53379
0.22521	-2.73121
-0.99887	-3.98109
-0.99887	-0.38449
0.53123	1.70714
0.83725	1.29902
0.60773	1.24800
0.53123	1.19699
0.35272	0.12566
0.53123	0.22769
0.04670	0.17668
0.17421	-0.92016
0.07220	-0.74160
-0.48884	1.47757
-1.35589	-0.00188
0.19971	-2.93527
1.09226	-1.45582
1.06676	1.40105
-0.15732	1.45206
-1.22839	1.40105
-0.51434	0.94191
1.21977	1.19699
1.32178	-0.51203
0.99026	0.50828
0.40372	1.98773
-0.56534	-2.06800
0.22521	-2.17003
0.22521	-0.48652
0.02119	-0.23145
0.04670	1.32453
-0.18282	1.57960
-0.23382	1.19699
0.25071	1.55410
0.14870	1.65613
-0.51434	-3.11382
0.25071	0.22769
0.48022	-0.76711
0.50573	-2.90976
0.58223	-1.78742
0.35272	1.04394
-0.25932	2.42136
-0.79486	3.11007
-0.31033	-0.15492
0.37822	-1.53234
0.63323	1.42656
0.63323	1.35003
0.58223	0.68683
0.04670	-0.69059
0.12320	-2.50164
-0.20832	-2.17003
-0.33583	2.16628
0.14870	-0.10391
0.25071	1.63062
0.22521	3.00804
0.14870	0.12566
-0.05531	-2.85874
-0.05531	-4.56776
-0.08081	0.76336
0.32721	2.08976
0.35272	2.57441
0.27621	1.93671
0.22521	-3.13933
0.17421	0.86539
-0.02981	0.83988
-1.02437	-0.97117
0.48022	0.71234
0.63323	-0.00188
0.42922	0.50828
-0.08081	1.50308
-0.13181	1.70714
0.25071	-1.68539
0.73524	-6.17475
-0.10631	-1.71090
-0.56534	0.58480
0.27621	1.68163
0.48022	1.73265
0.58223	1.80917
0.55673	1.63062
-0.38683	0.96742
-1.17738	0.55929
0.12320	-0.05289
0.27621	-1.86394
0.53123	0.43176
0.55673	2.77847
0.22521	-6.71041
0.40372	0.76336
-0.33583	2.21730
0.17421	0.10015
0.45472	-1.76191
0.12320	2.67644
0.19971	-2.32308
0.35272	-1.48133
0.37822	0.89089
-0.15732	1.09496
0.02119	2.75296
0.27621	0.76336
0.25071	0.15117
0.22521	0.40625
0.22521	1.27351
0.12320	1.06945
-0.08081	-1.37929
-0.18282	-0.10391
0.04670	-0.46102
0.37822	0.15117
0.04670	1.29902
0.12320	-2.01699
-0.23382	-1.35379
0.30171	-0.23145
0.60773	0.10015
0.27621	0.32972
0.17421	1.98773
0.12320	1.78367
0.32721	1.37554
0.30171	0.35523
0.32721	2.03874
-0.13181	-0.10391
-0.13181	-8.06232
0.30171	1.68163
0.40372	2.37034
0.55673	-3.06281
-0.51434	1.35003
-0.99887	2.49788
0.30171	3.54370
0.88825	-0.38449
0.86275	-1.12422
0.30171	-1.40480
0.12320	0.55929
0.48022	0.02363
0.42922	1.73265
0.19971	1.75816
0.22521	-4.33819
0.30171	1.09496
-0.15732	0.50828
-0.59084	0.96742
-0.23382	0.63582
0.42922	0.25320
0.22521	-1.58336
0.07220	0.04914
0.17421	-1.12422
0.27621	0.25320
0.30171	0.15117
0.17421	0.76336
-0.00431	0.86539
-0.53984	0.58480
-0.71835	0.89089
0.45472	2.57441
0.88825	-1.71090
0.65874	-0.97117
-0.08081	-1.83844
0.35272	-0.66508
0.86275	0.99292
0.60773	1.60511
0.22521	1.57960
-1.81492	2.75296
-0.38683	2.95702
0.60773	-4.44022
0.86275	-1.53234
0.25071	-3.82804
-0.05531	1.57960
0.70974	1.27351
0.17421	0.91640
