0.07220	0.25320
0.12320	-0.05289
0.14870	0.10015
0.19971	-0.46102
0.19971	-0.63957
0.07220	-0.00188
0.27621	0.30422
0.17421	0.76336
0.09770	0.86539
0.14870	0.61031
0.12320	0.50828
0.12320	0.17668
0.22521	0.17668
0.22521	0.04914
0.22521	-1.76191
0.14870	-0.28246
0.17421	0.61031
0.17421	0.61031
0.07220	0.76336
-0.02981	1.17148
0.12320	0.48277
0.17421	-0.10391
0.27621	-0.35899
0.27621	-0.69059
0.09770	0.43176
0.12320	0.55929
0.12320	0.30422
0.09770	0.04914
0.17421	0.10015
0.07220	-0.05289
0.25071	-0.38449
0.22521	-0.20594
0.25071	0.20219
0.17421	0.38074
0.12320	0.43176
0.09770	0.27871
0.02119	0.10015
0.07220	0.35523
0.07220	0.22769
0.02119	-0.07840
0.19971	-0.25695
0.19971	0.35523
0.17421	0.76336
0.09770	0.35523
0.22521	-0.25695
0.25071	-0.58856
0.17421	-0.15492
0.19971	0.89089
0.19971	0.17668
0.09770	-0.41000
-0.00431	0.45726
0.12320	0.22769
0.22521	0.40625
0.19971	0.25320
0.19971	0.22769
0.17421	0.45726
0.04670	0.20219
0.22521	0.04914
0.07220	-0.02739
0.07220	-0.30797
0.14870	-0.18043
0.17421	0.30422
0.12320	0.35523
0.12320	-0.07840
0.17421	0.04914
0.14870	-0.07840
0.12320	-0.48652
0.07220	0.99292
0.12320	0.04914
0.09770	0.10015
0.14870	0.20219
0.12320	0.40625
0.25071	0.66132
0.32721	0.22769
0.22521	0.73785
0.19971	0.10015
0.09770	-0.25695
0.09770	-0.23145
0.19971	-0.05289
0.09770	0.35523
0.09770	0.48277
0.04670	0.10015
0.14870	-0.10391
0.17421	-0.58856
0.19971	0.30422
0.27621	0.43176
0.19971	0.50828
0.17421	0.38074
-0.08081	-0.12942
0.14870	-0.35899
0.12320	0.12566
0.14870	0.53379
0.09770	0.22769
0.32721	-0.10391
0.19971	0.45726
0.12320	0.25320
0.19971	0.15117
0.14870	0.04914
0.12320	-0.20594
0.02119	0.55929
0.14870	0.35523
0.04670	-1.55785
0.17421	-0.07840
0.14870	0.66132
0.17421	1.55410
0.17421	1.24800
0.09770	0.50828
-0.00431	-1.14973
0.25071	-1.20074
0.22521	0.83988
0.25071	0.94191
0.17421	0.38074
0.02119	0.02363
0.12320	0.25320
0.09770	0.43176
0.12320	-0.02739
0.22521	0.38074
0.14870	-0.30797
0.09770	-1.14973
-0.00431	-0.92016
0.14870	0.04914
0.14870	0.45726
0.22521	1.01843
0.19971	0.81437
0.14870	0.71234
0.07220	0.32972
0.09770	-0.15492
0.17421	0.07465
0.19971	0.15117
0.09770	0.02363
0.19971	0.27871
0.19971	0.02363
0.14870	0.10015
0.19971	0.04914
0.12320	0.04914
-0.00431	0.04914
0.09770	0.22769
0.14870	0.68683
0.22521	0.04914
0.04670	-0.86914
0.17421	0.43176
0.25071	0.71234
0.19971	0.10015
0.09770	0.43176
0.12320	0.27871
0.07220	0.30422
0.04670	0.02363
0.12320	-0.02739
0.12320	0.27871
-0.00431	0.15117
0.04670	0.10015
0.07220	-0.00188
0.12320	-0.20594
0.12320	0.12566
0.09770	0.71234
0.07220	0.40625
0.09770	-1.25176
0.07220	-0.51203
0.19971	-1.88945
-0.02981	0.63582
0.02119	1.42656
0.07220	1.17148
0.14870	0.99292
0.17421	0.58480
0.12320	0.32972
0.09770	0.32972
0.12320	-0.07840
0.12320	-0.05289
0.14870	-0.30797
0.04670	-0.30797
0.09770	-0.05289
0.14870	-0.10391
0.19971	0.10015
0.19971	0.10015
0.19971	0.12566
0.07220	-0.66508
0.14870	-0.15492
0.04670	1.24800
0.09770	0.32972
-0.00431	0.30422
0.14870	-0.12942
0.22521	0.35523
0.12320	0.53379
0.17421	-0.48652
0.12320	0.02363
0.19971	0.50828
0.19971	0.68683
0.22521	0.53379
0.25071	0.10015
0.12320	0.10015
0.12320	0.17668
0.17421	0.10015
0.12320	-0.00188
0.27621	-0.15492
0.09770	-0.12942
0.07220	-0.05289
0.07220	0.04914
0.04670	0.27871
0.27621	0.04914
0.19971	0.35523
0.09770	0.20219
0.17421	0.12566
0.12320	0.27871
0.25071	0.27871
0.22521	-0.81812
0.22521	0.22769
0.30171	0.66132
0.12320	0.71234
0.12320	0.53379
0.14870	0.50828
0.07220	0.50828
0.12320	0.50828
0.19971	-0.18043
0.17421	-2.75671
0.07220	-0.20594
0.19971	0.89089
0.22521	1.24800
0.07220	0.86539
0.09770	0.22769
0.12320	0.17668
0.09770	0.10015
0.12320	0.10015
0.14870	0.07465
0.04670	0.12566
0.14870	-0.28246
-0.00431	-1.78742
0.09770	-0.12942
0.02119	0.73785
0.09770	0.71234
0.07220	-0.10391
0.14870	-0.02739
0.22521	0.02363
0.14870	0.45726
0.14870	0.55929
0.14870	0.48277
0.27621	0.25320
0.12320	0.35523
0.12320	-0.12942
0.12320	-0.66508
0.12320	0.22769
0.17421	0.61031
0.04670	0.32972
0.09770	0.12566
0.19971	0.12566
0.17421	0.12566
0.07220	-0.02739
0.14870	-0.15492
0.17421	-0.05289
0.09770	-0.02739
0.07220	0.20219
0.07220	0.17668
0.07220	0.10015
0.02119	0.40625
0.12320	0.17668
0.12320	-0.51203
0.17421	0.40625
0.12320	-0.41000
0.02119	0.63582
0.07220	0.73785
0.09770	-0.58856
0.04670	-0.97117
0.14870	0.32972
0.17421	0.73785
0.12320	0.53379
0.14870	0.86539
0.09770	0.55929
0.22521	-1.04770
0.12320	0.45726
0.19971	-0.05289
0.17421	-0.76711
0.07220	0.50828
0.12320	-0.20594
0.14870	0.10015
0.22521	0.07465
0.22521	0.35523
0.12320	0.17668
0.22521	0.40625
0.14870	0.40625
0.14870	0.25320
0.07220	-0.05289
0.07220	0.10015
0.07220	0.04914
0.07220	0.17668
0.09770	0.25320
0.17421	0.27871
0.07220	-0.00188
0.09770	-0.02739
0.09770	0.07465
0.12320	0.22769
0.07220	0.12566
0.12320	0.10015
0.04670	0.02363
0.02119	0.04914
0.09770	-0.28246
0.09770	-0.00188
0.14870	0.22769
0.17421	0.35523
0.12320	0.12566
0.12320	0.20219
0.22521	0.15117
0.12320	0.27871
0.22521	0.15117
0.19971	-0.18043
0.17421	-0.25695
0.19971	0.40625
0.17421	0.40625
0.17421	-0.10391
0.12320	0.32972
0.17421	-0.48652
0.22521	0.22769
0.14870	0.48277
0.17421	0.22769
0.04670	-0.20594
0.09770	0.61031
0.12320	0.58480
0.12320	-0.12942
0.19971	0.07465
0.14870	-1.27726
0.12320	-0.07840
0.17421	1.32453
0.09770	1.27351
0.17421	0.32972
0.12320	-1.55785
0.19971	0.27871
0.12320	0.73785
0.25071	0.53379
0.22521	0.35523
0.22521	-0.15492
0.25071	-0.15492
0.22521	-0.02739
0.14870	0.25320
0.19971	-0.12942
0.12320	0.12566
0.19971	0.30422
0.19971	-0.00188
0.22521	0.15117
0.19971	0.22769
0.19971	-0.28246
0.22521	0.17668
0.22521	0.30422
0.14870	0.53379
0.14870	0.32972
0.14870	0.10015
0.07220	0.30422
0.09770	-0.58856
0.09770	0.27871
0.07220	0.25320
0.07220	0.53379
0.09770	0.48277
0.09770	-0.00188
0.04670	-1.30277
0.09770	0.25320
0.04670	0.04914
0.09770	0.43176
0.02119	0.50828
0.07220	0.25320
0.12320	0.30422
0.07220	0.32972
0.09770	0.32972
0.07220	-0.51203
0.07220	-0.86914
0.09770	0.04914
0.12320	0.32972
0.04670	-0.10391
0.12320	0.35523
0.12320	0.27871
0.17421	0.10015
0.12320	0.45726
0.12320	0.55929
0.14870	0.20219
0.12320	-0.10391
0.14870	-0.28246
0.12320	-0.02739
0.09770	-0.33348
0.14870	-0.79262
0.14870	0.53379
0.19971	0.55929
0.09770	0.73785
0.09770	0.40625
0.12320	0.30422
0.12320	-1.09871
0.17421	-0.43551
0.14870	1.04394
0.22521	1.09496
0.17421	-0.10391
0.14870	0.55929
0.19971	0.38074
0.17421	-0.35899
0.19971	-0.12942
0.22521	0.53379
0.19971	0.10015
0.17421	0.02363
0.14870	0.17668
0.17421	0.25320
0.17421	0.22769
0.12320	0.10015
0.14870	0.17668
0.19971	-0.18043
0.09770	0.17668
0.07220	0.15117
0.04670	0.04914
0.09770	0.20219
0.04670	0.22769
0.09770	0.45726
0.07220	0.30422
0.14870	-0.97117
0.14870	-0.25695
0.17421	0.55929
0.14870	0.55929
0.02119	0.53379
0.09770	0.63582
0.12320	0.43176
0.14870	0.43176
0.12320	0.43176
0.12320	-0.84363
0.07220	-1.12422
0.04670	0.63582
0.22521	0.04914
0.17421	-0.30797
0.19971	0.15117
0.09770	0.86539
0.12320	0.66132
0.09770	0.35523
0.19971	0.22769
0.17421	0.20219
0.17421	0.25320
0.27621	-0.10391
0.22521	0.17668
0.19971	0.17668
0.09770	-0.25695
0.14870	-0.56305
0.12320	0.15117
0.07220	0.20219
0.22521	0.12566
0.14870	0.22769
0.22521	0.15117
0.14870	0.38074
0.09770	0.53379
0.07220	0.45726
0.12320	0.25320
0.17421	0.15117
0.17421	-0.46102
0.17421	0.17668
0.12320	0.27871
0.17421	0.35523
0.19971	0.27871
0.22521	0.10015
0.14870	-0.00188
0.12320	-0.25695
0.02119	0.17668
0.12320	0.20219
0.22521	0.10015
0.14870	0.20219
0.12320	0.12566
0.12320	0.12566
0.14870	-0.02739
0.25071	0.20219
0.12320	0.22769
0.17421	0.35523
0.14870	0.45726
0.04670	-0.35899
0.07220	-0.89465
0.09770	0.63582
0.09770	0.66132
0.12320	0.68683
0.09770	0.22769
0.12320	0.15117
0.12320	-0.61406
0.09770	-0.43551
0.09770	0.22769
0.09770	0.53379
0.12320	0.48277
0.22521	0.50828
0.22521	0.48277
0.22521	0.17668
0.17421	0.07465
0.12320	-0.10391
0.14870	0.07465
0.14870	0.17668
0.09770	0.04914
0.12320	0.10015
0.07220	0.02363
0.17421	0.02363
0.17421	0.22769
0.22521	0.20219
0.22521	0.15117
0.22521	0.32972
0.12320	-0.00188
0.17421	0.76336
0.12320	-0.28246
0.12320	-0.25695
0.14870	-0.18043
0.12320	0.25320
0.12320	0.73785
0.12320	0.40625
0.14870	0.22769
0.12320	-0.10391
0.09770	0.15117
0.14870	0.07465
0.12320	0.07465
0.09770	0.07465
0.14870	0.02363
0.25071	0.12566
0.22521	0.22769
0.12320	0.20219
0.14870	-0.28246
0.12320	-0.10391
0.12320	0.43176
0.17421	0.32972
0.25071	0.20219
0.17421	0.10015
0.17421	0.40625
0.19971	0.25320
0.19971	-0.30797
0.04670	0.02363
0.04670	0.43176
0.09770	0.55929
0.12320	0.55929
0.14870	0.35523
0.17421	-0.05289
0.09770	-0.12942
0.14870	-0.10391
0.09770	0.35523
0.12320	0.15117
0.07220	-0.00188
0.09770	0.04914
0.12320	0.07465
0.19971	0.20219
0.22521	0.25320
0.09770	0.22769
0.09770	-0.10391
0.09770	-0.00188
0.12320	0.07465
0.17421	0.25320
0.22521	0.40625
0.22521	0.40625
0.09770	0.30422
0.12320	0.30422
0.09770	-0.76711
0.19971	0.17668
0.09770	0.27871
0.17421	0.45726
0.07220	0.04914
0.12320	0.20219
0.17421	0.22769
0.14870	0.55929
0.17421	0.32972
0.12320	0.25320
0.12320	-0.35899
0.17421	-1.63437
0.22521	0.48277
0.12320	0.78886
0.12320	0.73785
0.09770	0.45726
0.12320	0.25320
0.22521	-0.00188
0.19971	-0.23145
0.14870	0.10015
0.04670	0.25320
0.02119	-0.10391
0.07220	-0.00188
0.14870	0.38074
0.19971	0.35523
0.22521	0.15117
0.27621	-0.07840
0.12320	-0.07840
0.04670	0.45726
0.09770	0.27871
0.09770	0.20219
0.17421	-0.07840
0.17421	0.22769
0.14870	0.07465
0.17421	0.10015
0.22521	-0.07840
0.12320	0.35523
0.17421	0.22769
0.14870	0.17668
0.17421	0.15117
0.17421	0.17668
0.14870	0.17668
0.07220	0.15117
0.09770	-0.05289
0.12320	0.30422
0.17421	0.04914
0.17421	0.27871
0.19971	0.12566
0.14870	-0.25695
0.12320	0.43176
0.04670	-0.46102
0.14870	0.04914
0.17421	0.32972
0.25071	0.58480
0.12320	0.53379
0.12320	0.38074
0.07220	0.15117
0.14870	-0.02739
0.17421	-0.10391
0.14870	-0.00188
0.12320	-0.00188
0.17421	0.15117
0.19971	0.15117
0.19971	0.17668
0.17421	0.35523
0.12320	-0.07840
0.17421	0.35523
0.12320	-0.12942
0.22521	-0.15492
0.14870	0.30422
0.07220	0.50828
0.04670	0.45726
0.09770	0.12566
0.09770	0.12566
0.17421	0.32972
0.14870	0.07465
0.12320	0.17668
0.17421	0.12566
0.12320	-0.63957
0.19971	-0.02739
0.14870	0.22769
0.09770	0.07465
0.02119	0.12566
0.17421	0.30422
0.02119	0.27871
-0.00431	0.22769
0.14870	-0.12942
0.12320	0.32972
-0.48884	0.22769
0.63323	0.04914
0.35272	-0.15492
1.37278	0.30422
0.14870	0.40625
-1.68742	0.27871
0.22521	0.25320
1.09226	0.22769
0.55673	0.27871
0.58223	0.27871
-0.97337	0.17668
0.30171	-0.05289
0.19971	0.02363
0.35272	0.02363
-0.84586	0.25320
-0.46334	-0.00188
-2.37596	0.30422
2.57136	0.25320
0.32721	-0.02739
1.01576	0.27871
0.40372	0.35523
0.35272	-0.25695
-0.20832	0.04914
0.32721	0.58480
-0.79486	0.48277
1.39828	0.12566
0.32721	-0.20594
0.81175	-0.28246
-0.31033	0.15117
-0.48884	0.20219
-2.63097	-0.15492
-0.08081	0.12566
2.18883	0.76336
0.12320	0.58480
2.21434	-0.25695
0.42922	0.35523
0.60773	0.68683
-0.18282	0.53379
-0.79486	0.15117
-2.60547	-0.46102
1.21977	-3.36890
1.88281	-1.37929
0.27621	1.60511
0.91375	5.89041
0.12320	6.78318
-0.66735	-3.16484
-3.42153	-5.17995
-1.07538	-4.46573
0.42922	-3.62398
1.57679	1.96222
1.57679	3.79878
2.06133	3.84979
2.41835	7.14029
2.03582	-4.49124
-1.30489	-3.67499
-3.37052	-3.36890
-1.71292	7.72697
-3.01350	-8.26639
-0.23382	-3.34339
2.08683	-0.43551
2.52035	4.30893
2.29084	5.76287
1.16877	4.92112
0.70974	-8.39393
-0.82036	0.25320
-0.76936	3.56921
-0.13181	1.55410
0.37822	5.35475
-0.02981	-2.88425
-1.53441	-6.32780
-0.10631	-2.55265
-0.18282	1.70714
-2.42696	5.30373
-1.84042	6.91072
1.85731	-3.29238
1.90832	-9.08263
0.35272	1.29902
1.24527	1.57960
0.27621	3.59471
1.11776	1.70714
1.04126	3.49268
0.68424	2.19179
0.27621	5.99244
0.07220	-2.50164
-0.25932	-10.07744
-0.23382	-5.46054
-0.99887	4.43647
-0.43783	3.74776
-0.28482	-0.51203
0.07220	0.96742
0.12320	1.50308
1.14327	3.49268
0.07220	0.86539
-1.02437	3.41616
-0.18282	0.91640
0.88825	-3.24136
0.40372	4.79358
-0.48884	-12.78126
0.35272	-1.45582
0.99026	1.04394
-0.28482	3.41616
0.45472	3.92632
0.99026	-3.67499
0.65874	0.68683
0.53123	2.75296
0.58223	0.66132
0.45472	0.68683
0.42922	-0.69059
-1.33039	3.95182
-1.30489	1.78367
-2.32496	-3.64948
0.22521	-3.29238
0.30171	0.55929
0.99026	1.32453
0.48022	0.12566
0.81175	1.22250
0.63323	2.85499
0.63323	5.99244
0.25071	-3.39441
0.40372	-10.66412
0.68424	-3.01179
0.42922	4.69155
-1.89143	0.86539
-1.48340	0.78886
-0.18282	3.41616
0.99026	-3.77702
0.25071	2.77847
0.91375	3.59471
1.14327	3.82429
1.09226	-2.01699
0.70974	-4.10862
0.30171	-1.68539
-0.02981	-3.01179
-0.25932	3.23761
-0.43783	4.71706
-0.28482	-2.52714
-0.18282	-0.05289
-0.43783	0.86539
-0.10631	-4.59327
0.02119	0.96742
0.27621	4.61503
0.40372	-5.86866
0.09770	0.86539
0.30171	1.75816
0.86275	2.75296
0.76074	0.50828
0.04670	1.98773
-1.33039	-0.43551
-0.36133	0.40625
-0.69285	-2.55265
0.30171	-2.57816
1.04126	-3.87905
1.04126	1.70714
0.76074	0.53379
0.55673	3.03355
0.78624	2.47238
0.70974	0.55929
-0.56534	2.03874
-0.69285	1.32453
-0.00431	-3.62398
0.27621	6.37506
0.27621	-6.73592
0.09770	-0.86914
-0.61635	-5.86866
-0.69285	1.78367
-0.18282	4.18139
-0.08081	3.46718
0.63323	3.77327
0.76074	-6.35331
0.86275	-1.14973
0.70974	2.90601
0.19971	3.18659
-0.18282	2.06425
-0.18282	2.08976
-0.02981	-0.46102
0.30171	-0.48652
0.27621	-0.58856
0.12320	2.31933
0.09770	0.50828
0.63323	-3.87905
0.25071	-1.88945
-0.74385	-0.23145
-0.64185	2.85499
-0.18282	-4.66979
0.14870	3.87530
0.27621	-0.25695
0.70974	-1.27726
1.11776	1.78367
0.91375	2.11527
1.16877	2.37034
0.53123	-0.02739
-0.15732	0.96742
-1.22839	4.41096
-0.46334	-3.03730
-0.08081	-1.91496
-0.08081	-1.37929
0.45472	-0.07840
0.48022	1.35003
0.02119	0.07465
0.17421	2.98253
0.35272	-3.21585
0.09770	-0.18043
0.09770	-0.18043
0.04670	-3.06281
-0.02981	0.27871
-0.02981	2.44687
0.07220	3.95182
0.14870	-2.29757
0.19971	5.09967
0.37822	-0.23145
0.12320	-3.16484
-0.20832	0.48277
-0.02981	-3.90456
-0.08081	-3.82804
0.22521	2.03874
0.48022	2.34484
0.12320	4.64053
-0.00431	2.42136
-0.69285	-4.56776
-0.05531	-4.95038
0.55673	0.76336
0.73524	2.42136
0.42922	1.27351
-0.02981	0.76336
0.07220	-0.53754
0.17421	0.63582
0.35272	1.83468
-0.18282	-0.02739
0.09770	-1.53234
0.30171	-2.62918
-0.05531	0.04914
0.02119	0.76336
-0.10631	3.18659
0.30171	3.13558
-1.96793	-0.58856
-0.28482	-1.53234
0.91375	-1.20074
1.06676	0.58480
1.09226	1.55410
0.68424	-0.84363
-0.00431	-0.69059
0.07220	2.75296
0.09770	2.82948
0.04670	-1.71090
-0.20832	-6.09823
-0.08081	-0.69059
0.02119	1.91120
-0.51434	0.38074
-0.46334	5.83940
0.12320	5.96694
0.19971	-13.82708
0.25071	-4.15964
0.27621	-2.17003
0.30171	1.19699
0.32721	3.23761
0.48022	4.35995
0.27621	3.16108
-0.33583	-1.88945
-0.79486	0.76336
0.37822	1.40105
0.50573	-1.14973
0.60773	-1.12422
0.17421	-3.03730
0.25071	-1.27726
-0.38683	-1.43031
-0.08081	1.04394
-0.20832	0.50828
0.53123	-0.18043
0.60773	0.25320
0.32721	0.04914
-0.00431	0.48277
0.14870	2.31933
0.14870	-1.86394
-0.43783	0.55929
0.19971	0.48277
0.07220	0.99292
0.68424	3.18659
0.30171	-2.29757
-0.10631	2.49788
0.30171	0.15117
-0.48884	-5.10343
-0.15732	-2.32308
0.14870	-4.49124
0.60773	3.41616
0.37822	2.95702
0.12320	4.51299
0.14870	3.00804
0.09770	-0.51203
0.09770	3.51819
0.14870	-1.27726
0.22521	-3.16484
0.30171	-2.52714
-0.18282	0.38074
-0.28482	1.88570
-0.10631	-0.18043
0.02119	-0.99668
-0.02981	-2.29757
0.68424	3.16108
0.73524	-0.76711
0.04670	0.63582
-0.64185	-0.74160
0.14870	0.50828
0.40372	2.11527
0.35272	3.21210
0.22521	-1.12422
0.63323	-0.86914
0.48022	0.53379
-0.18282	0.17668
-0.76936	-1.14973
-0.02981	3.36515
0.22521	-0.41000
0.45472	-5.25647
0.42922	-0.48652
0.07220	0.25320
0.07220	1.98773
-0.13181	1.04394
0.65874	-1.65988
-0.41233	0.20219
-0.28482	1.06945
-0.18282	1.45206
0.65874	1.63062
0.83725	2.75296
0.40372	-6.07272
0.14870	0.73785
0.12320	-1.48133
0.07220	1.50308
-0.05531	1.68163
-0.00431	0.78886
-0.15732	1.80917
-0.41233	1.42656
0.14870	1.52859
0.07220	-0.86914
0.42922	-0.02739
0.42922	0.22769
-0.15732	-3.19035
0.12320	0.27871
0.27621	0.66132
0.22521	-6.58288
0.37822	0.38074
0.42922	3.64573
0.35272	-0.30797
0.42922	-3.24136
-0.02981	-0.05289
-0.36133	-3.95558
-0.08081	2.21730
0.12320	7.82900
0.07220	5.20170
0.32721	1.78367
0.37822	-0.89465
-0.02981	1.55410
-0.00431	-8.75103
-0.46334	-1.78742
0.17421	1.57960
0.53123	5.40576
0.50573	-10.10295
0.30171	-0.69059
0.73524	6.09448
0.63323	2.70194
0.14870	-0.53754
-0.61635	0.15117
-0.28482	1.17148
-0.02981	4.05386
0.53123	-0.71609
0.25071	-4.87386
0.22521	-1.99148
-0.00431	1.98773
0.12320	-0.10391
-0.31033	4.07936
0.14870	2.31933
0.19971	-1.27726
0.48022	-0.56305
0.40372	-5.69010
0.22521	1.01843
0.02119	2.93151
-0.31033	-2.22105
-0.33583	-1.22625
0.32721	2.34484
0.02119	0.40625
0.45472	4.97213
0.14870	3.36515
0.50573	-6.27678
0.37822	-2.04250
0.48022	-1.35379
0.02119	1.80917
-0.02981	-0.99668
0.09770	0.12566
-0.23382	-2.24656
-0.28482	0.73785
-0.38683	1.83468
0.40372	2.26831
0.70974	2.42136
0.78624	-1.78742
0.19971	0.50828
-0.18282	-0.30797
-0.25932	-1.73640
0.12320	-0.46102
0.60773	1.29902
0.14870	1.93671
0.07220	-0.05289
0.50573	-1.78742
0.17421	-3.75152
-0.10631	-1.17523
-0.33583	3.31413
-0.23382	-2.65468
0.48022	-1.12422
0.32721	2.11527
0.12320	6.09448
0.02119	5.40576
0.40372	-8.57248
0.17421	-2.45062
0.17421	1.86019
0.14870	-1.35379
0.04670	1.35003
0.04670	0.35523
0.25071	3.28862
0.32721	0.07465
0.14870	-5.46054
-0.41233	-1.53234
0.02119	-1.17523
0.40372	1.65613
0.55673	1.52859
0.09770	3.00804
-0.00431	4.20690
0.02119	-4.69530
0.45472	-0.43551
0.53123	-1.43031
0.27621	-1.43031
-0.05531	0.45726
-0.08081	3.72225
0.19971	-0.25695
0.04670	0.66132
0.32721	1.37554
0.58223	-2.27207
-0.48884	-4.74632
-0.08081	1.37554
0.55673	0.83988
0.63323	1.60511
0.45472	2.14077
0.19971	1.68163
0.07220	-0.81812
-0.20832	-2.14453
0.04670	-1.68539
0.07220	1.06945
0.12320	-0.20594
0.27621	2.03874
0.27621	1.57960
0.17421	1.73265
0.32721	2.88050
0.27621	1.24800
0.12320	-4.89936
-0.20832	-2.47613
-0.36133	-0.10391
-0.15732	1.12046
0.14870	-2.27207
0.27621	1.04394
0.45472	1.55410
0.96476	4.13038
0.68424	3.05905
-0.05531	1.17148
-0.53984	-2.45062
0.17421	-1.17523
0.27621	-0.58856
0.14870	1.19699
0.32721	3.59471
0.22521	-2.27207
0.22521	-6.09823
0.09770	-0.41000
-0.15732	1.52859
-0.05531	1.65613
-0.36133	0.38074
-0.10631	0.66132
-0.53984	1.68163
0.37822	1.73265
0.37822	1.06945
0.42922	-5.02690
0.32721	1.55410
0.58223	-1.45582
-0.08081	4.13038
0.32721	2.44687
0.48022	-2.17003
-0.00431	-3.21585
-0.33583	0.86539
0.07220	4.53850
0.37822	0.76336
0.27621	-3.03730
0.19971	-1.17523
0.37822	1.01843
0.12320	0.66132
-0.23382	-0.05289
-0.59084	1.04394
-0.08081	1.83468
0.12320	-0.02739
0.37822	1.78367
0.37822	3.87530
0.55673	-1.35379
0.14870	-10.12845
0.14870	-0.66508
0.81175	1.65613
0.19971	3.79878
-0.89686	1.70714
-0.13181	-1.09871
0.40372	0.25320
0.37822	0.91640
0.63323	1.45206
0.55673	2.37034
0.32721	0.73785
-0.08081	-0.97117
0.19971	-1.43031
-0.38683	-0.35899
0.19971	-2.06800
0.07220	-0.46102
0.09770	0.30422
-0.05531	0.48277
0.35272	2.65093
0.50573	4.76807
-0.25932	-2.37410
-0.20832	-7.78174
0.42922	-0.94566
0.60773	1.98773
0.48022	3.41616
0.02119	1.96222
-0.59084	-0.41000
-0.20832	4.15589
0.27621	-5.12893
0.48022	0.81437
0.35272	0.99292
0.40372	2.54890
0.17421	0.53379
0.42922	-5.07792
-0.02981	1.73265
-0.20832	0.83988
-0.38683	-1.53234
0.19971	0.40625
0.37822	-0.15492
0.27621	1.50308
0.27621	0.27871
0.22521	-0.02739
0.02119	-0.74160
0.07220	0.58480
0.14870	1.75816
-0.08081	-8.08783
-0.00431	0.25320
-0.20832	2.82948
0.09770	4.02835
0.25071	2.24281
-0.13181	-1.76191
0.04670	-5.79214
0.65874	0.45726
0.35272	1.45206
0.27621	2.19179
-0.10631	3.18659
-0.23382	2.26831
0.40372	-2.62918
0.30171	-2.60367
0.53123	1.73265
0.19971	0.40625
-0.28482	0.66132
0.07220	1.04394
0.37822	1.06945
0.12320	0.48277
0.12320	2.31933
0.27621	-0.46102
0.12320	-4.69530
-0.08081	-2.29757
0.45472	-1.04770
0.12320	1.68163
-0.46334	1.04394
-0.53984	1.63062
0.35272	4.79358
0.68424	-3.44542
0.58223	0.17668
0.27621	1.19699
0.42922	-0.10391
0.30171	0.81437
-0.05531	2.54890
-0.02981	-1.30277
-0.05531	-2.47613
0.22521	-0.69059
0.07220	2.11527
0.07220	1.78367
-0.13181	-3.67499
0.09770	-1.22625
0.25071	0.40625
0.14870	1.14597
0.27621	1.32453
0.35272	1.17148
0.17421	1.32453
-0.00431	-0.05289
-0.18282	-1.45582
-0.43783	-3.26687
-0.74385	-0.05289
0.81175	1.22250
0.22521	1.32453
0.17421	1.24800
0.14870	0.99292
0.53123	1.37554
0.53123	-1.45582
0.25071	0.91640
0.22521	1.42656
0.22521	-1.22625
-0.23382	1.14597
-0.00431	-1.65988
0.14870	-3.77702
0.12320	1.45206
0.02119	1.17148
-0.05531	0.15117
0.12320	0.91640
-0.02981	1.98773
0.22521	1.29902
0.27621	1.68163
0.35272	1.55410
0.25071	-1.63437
0.35272	-1.65988
0.30171	-1.50683
0.19971	2.54890
0.09770	2.44687
0.04670	-3.75152
-0.05531	-3.52195
-0.48884	-1.91496
0.12320	2.47238
0.27621	2.29382
0.60773	-1.65988
0.27621	0.63582
0.12320	0.68683
0.25071	1.40105
0.30171	2.14077
0.25071	3.08456
-0.20832	-4.49124
-0.46334	-1.32828
-0.00431	-0.41000
0.17421	1.98773
0.27621	1.50308
0.27621	-1.78742
0.32721	0.81437
0.37822	1.80917
0.22521	1.14597
0.14870	0.81437
0.02119	-0.66508
-0.25932	-4.74632
-0.53984	-2.19554
0.30171	-0.63957
0.45472	1.04394
0.27621	2.26831
0.35272	2.47238
0.25071	2.39585
0.32721	0.89089
0.27621	1.17148
0.04670	2.08976
0.14870	-0.69059
0.07220	-5.48604
-0.00431	-0.51203
-0.38683	0.94191
-0.25932	0.63582
0.37822	1.17148
0.42922	0.99292
0.53123	-1.30277
0.25071	0.12566
0.14870	0.86539
0.07220	2.57441
0.27621	-2.19554
0.12320	-7.37362
-0.28482	-0.86914
-0.13181	3.69675
-0.25932	4.15589
0.35272	1.42656
0.55673	1.55410
0.53123	2.90601
0.40372	2.77847
0.35272	-4.36370
0.27621	-1.73640
0.22521	3.74776
0.17421	0.43176
0.07220	-2.50164
0.14870	-10.84267
0.25071	2.14077
-0.02981	2.98253
-0.08081	9.10439
-0.15732	-3.39441
0.48022	-2.85874
0.42922	-0.46102
-0.08081	0.48277
0.07220	1.86019
0.35272	2.95702
0.40372	0.71234
0.40372	-0.30797
0.27621	0.25320
0.25071	0.25320
0.12320	-0.38449
-0.25932	-1.60887
-0.02981	-0.38449
-0.28482	1.75816
0.19971	-4.08312
0.27621	-4.08312
0.14870	-0.71609
0.37822	2.57441
0.53123	2.34484
0.37822	2.16628
0.17421	1.50308
0.17421	0.89089
0.22521	0.76336
0.02119	1.75816
-0.13181	3.11007
-0.23382	2.24281
0.22521	-5.69010
0.35272	-5.35850
0.27621	-0.28246
-0.15732	1.37554
0.04670	1.75816
0.07220	1.91120
0.37822	1.57960
0.35272	0.81437
0.50573	2.98253
0.60773	1.42656
0.30171	0.25320
0.45472	-1.53234
0.07220	-4.26167
-0.05531	-4.18515
-0.05531	1.86019
0.09770	2.26831
0.02119	-1.22625
0.12320	2.19179
0.09770	2.82948
0.30171	0.53379
0.32721	-5.74112
0.07220	-0.30797
0.22521	1.47757
0.07220	-0.46102
0.09770	0.35523
0.22521	1.80917
0.22521	1.22250
0.22521	1.57960
0.09770	1.29902
0.09770	-1.88945
0.12320	0.15117
-0.18282	1.12046
0.09770	-1.53234
0.02119	-1.65988
0.35272	-1.07320
-0.25932	-5.46054
0.02119	0.04914
0.30171	1.93671
0.65874	4.43647
0.27621	0.35523
0.22521	1.78367
0.37822	1.29902
0.22521	1.78367
0.32721	-3.11382
0.30171	0.40625
-0.20832	-0.74160
-0.53984	2.06425
-0.33583	2.57441
0.07220	-3.67499
0.35272	-7.45014
0.45472	-2.11902
0.30171	2.08976
0.17421	1.98773
0.25071	2.49788
0.27621	1.73265
0.09770	0.96742
0.07220	1.50308
0.12320	2.57441
0.19971	-3.34339
-0.02981	-0.41000
0.19971	1.83468
0.55673	-0.30797
0.09770	-5.38401
-0.31033	0.12566
-0.18282	-1.60887
0.32721	0.48277
0.40372	-0.05289
0.45472	2.42136
0.37822	3.11007
0.12320	2.24281
0.09770	0.12566
0.02119	2.03874
0.19971	-2.60367
0.17421	-0.33348
-0.13181	0.20219
0.17421	0.07465
0.12320	-0.35899
0.17421	-2.22105
0.12320	2.14077
0.14870	-2.52714
0.07220	-2.83324
0.04670	0.63582
0.17421	3.41616
0.17421	0.61031
0.30171	-0.05289
0.50573	-0.15492
0.55673	1.27351
-0.05531	1.91120
-0.53984	-0.56305
-0.51434	0.83988
-0.08081	3.31413
0.50573	-3.08831
0.55673	-3.13933
0.60773	-2.70570
0.19971	-0.53754
0.12320	2.70194
0.35272	-0.86914
0.12320	4.46198
0.12320	-1.96597
-0.10631	-1.17523
-0.10631	0.32972
0.12320	3.64573
0.17421	-1.53234
0.09770	-1.45582
-0.13181	0.53379
0.25071	0.27871
0.22521	0.50828
-0.00431	2.72745
0.35272	0.86539
0.35272	-0.69059
0.32721	0.53379
0.30171	-2.19554
-0.02981	-0.48652
-0.20832	1.80917
-0.41233	2.06425
0.22521	-3.49644
0.45472	-2.32308
0.42922	0.22769
0.35272	0.43176
0.27621	5.30373
0.35272	0.94191
0.12320	-2.57816
0.02119	-2.85874
0.04670	0.66132
0.04670	1.17148
0.07220	1.06945
0.07220	2.03874
-0.25932	1.27351
-0.02981	2.39585
0.12320	0.43176
0.02119	-0.94566
0.09770	-1.58336
0.42922	2.03874
0.53123	-2.52714
0.37822	-4.69530
0.30171	-2.24656
0.09770	1.93671
0.09770	2.70194
0.17421	3.05905
0.37822	2.39585
0.32721	1.70714
0.02119	-0.23145
-0.51434	-4.05761
-0.33583	0.53379
0.35272	-0.92016
0.48022	0.02363
0.37822	2.59991
0.27621	0.53379
0.14870	-1.32828
-0.08081	-1.17523
0.12320	0.32972
0.07220	1.45206
0.07220	0.68683
0.17421	0.55929
0.22521	-3.77702
0.12320	3.31413
0.09770	-1.81293
0.30171	-1.04770
0.37822	2.03874
0.22521	-0.58856
-0.15732	2.08976
-0.31033	0.17668
-0.38683	0.68683
0.42922	-0.46102
0.58223	0.27871
0.50573	-0.20594
0.17421	2.21730
0.19971	2.90601
0.22521	-3.80253
0.25071	-3.64948
0.42922	-4.28718
0.32721	2.90601
0.12320	0.89089
-0.51434	1.73265
-0.61635	0.96742
0.22521	0.96742
0.53123	1.14597
0.53123	1.70714
0.12320	1.57960
0.25071	-1.91496
0.17421	0.25320
0.22521	0.58480
0.12320	-0.12942
-0.00431	0.78886
0.14870	-0.86914
0.22521	-1.63437
0.12320	1.06945
0.17421	3.77327
0.25071	1.14597
0.19971	-7.98580
-0.08081	-2.90976
-0.15732	-0.20594
0.04670	2.72745
0.12320	1.88570
0.22521	2.95702
0.22521	2.29382
0.27621	1.86019
0.40372	3.00804
0.42922	1.52859
0.30171	-4.54226
0.12320	-2.39961
0.09770	-1.91496
0.04670	1.50308
0.14870	2.90601
-0.15732	-0.00188
0.04670	-7.88377
-0.25932	3.31413
0.02119	1.04394
0.40372	0.81437
0.45472	-1.09871
0.14870	-6.86346
-0.10631	0.83988
-0.05531	2.31933
0.27621	4.79358
0.45472	2.90601
0.35272	2.88050
0.25071	0.71234
0.04670	-2.60367
0.22521	3.92632
0.17421	-0.48652
0.07220	-8.34291
0.04670	-6.37881
-0.13181	3.11007
-0.13181	2.57441
0.09770	-1.40480
0.30171	0.68683
0.63323	2.34484
0.27621	2.34484
-0.23382	2.14077
0.19971	1.17148
0.22521	-1.32828
0.35272	2.01323
-0.08081	1.27351
0.19971	-1.99148
0.50573	-0.51203
0.30171	-2.47613
0.04670	-0.43551
-0.05531	1.93671
-0.08081	-2.68019
0.02119	1.32453
0.12320	0.45726
0.35272	4.02835
0.32721	-2.52714
0.19971	-2.98628
-0.00431	2.06425
-0.15732	2.85499
0.02119	3.31413
0.25071	-2.70570
0.37822	3.36515
0.42922	-1.14973
0.32721	-0.10391
-0.00431	1.29902
-0.20832	1.42656
-0.02981	-5.23097
0.27621	-3.75152
0.48022	0.25320
0.35272	3.72225
0.37822	0.66132
0.37822	0.61031
0.27621	0.55929
-0.13181	3.11007
-0.08081	-6.86346
-0.13181	-0.61406
0.30171	0.91640
0.25071	1.40105
-0.08081	2.03874
0.12320	3.26312
0.35272	3.56921
0.37822	-4.21066
0.07220	-0.00188
0.22521	-0.81812
0.12320	-0.53754
0.09770	0.61031
-0.08081	0.27871
-0.13181	-0.74160
0.17421	0.35523
0.22521	1.06945
0.27621	0.55929
0.22521	-0.76711
0.30171	-1.91496
0.27621	1.57960
0.17421	1.24800
-0.02981	0.45726
0.17421	1.04394
0.42922	-1.22625
0.22521	0.94191
0.25071	1.22250
-0.41233	-0.94566
-0.36133	-2.45062
-0.15732	0.48277
0.42922	-4.87386
0.42922	1.78367
0.48022	3.23761
0.48022	2.52339
0.37822	1.78367
0.25071	1.09496
0.07220	1.19699
-0.02981	0.25320
0.07220	-2.47613
0.07220	-0.18043
-0.05531	1.68163
-0.15732	0.04914
0.22521	-4.46573
0.04670	-3.39441
0.02119	-2.29757
0.22521	1.73265
0.04670	1.14597
0.17421	2.24281
0.14870	2.39585
0.25071	1.47757
0.30171	2.52339
0.25071	0.35523
0.32721	-0.35899
0.37822	0.02363
0.32721	0.68683
0.17421	2.01323
0.09770	-1.45582
0.14870	-0.51203
0.14870	-4.23616
-0.02981	-5.53706
-0.08081	1.27351
-0.25932	2.77847
0.02119	2.75296
0.50573	2.37034
0.40372	1.68163
0.22521	0.81437
0.19971	0.35523
0.27621	0.02363
0.19971	-0.56305
0.19971	-0.89465
-0.05531	-0.41000
-0.10631	-0.63957
-0.41233	-0.66508
0.02119	0.78886
0.35272	-0.79262
0.22521	0.83988
0.27621	-0.97117
0.22521	0.27871
0.22521	1.09496
0.12320	0.99292
0.17421	0.73785
0.17421	0.91640
0.02119	2.06425
0.35272	3.49268
0.37822	-3.01179
0.12320	-5.86866
-0.08081	-2.70570
-0.02981	2.01323
0.09770	2.19179
0.25071	2.44687
0.25071	2.34484
0.22521	2.31933
-0.15732	-2.34859
-0.13181	1.01843
0.30171	0.66132
0.42922	-1.88945
0.40372	-4.64429
0.25071	0.50828
-0.10631	2.67644
-0.00431	1.73265
-0.00431	-0.38449
0.30171	0.17668
0.04670	-3.64948
0.12320	-0.86914
0.07220	2.03874
0.17421	0.40625
0.22521	-1.86394
0.17421	0.40625
0.19971	1.22250
0.32721	5.35475
0.42922	-0.25695
0.09770	-1.35379
-0.23382	-0.92016
-0.18282	-3.06281
0.32721	-1.58336
0.35272	1.98773
0.50573	0.35523
0.02119	2.01323
0.40372	3.21210
0.27621	-2.93527
0.14870	0.86539
-0.25932	0.83988
-0.13181	-0.28246
0.30171	-0.48652
0.12320	0.17668
0.09770	0.12566
0.12320	-0.02739
0.25071	-0.35899
-0.00431	-1.58336
0.07220	-0.86914
0.19971	2.54890
0.09770	0.45726
0.14870	-0.07840
0.19971	0.15117
0.04670	0.83988
0.14870	1.88570
0.17421	-2.32308
0.17421	-3.36890
0.09770	0.61031
0.17421	1.75816
0.17421	1.57960
0.22521	2.24281
0.27621	0.40625
0.19971	-1.27726
0.12320	0.48277
-0.36133	2.57441
0.02119	2.90601
0.19971	-0.86914
0.37822	-8.57248
0.22521	0.17668
0.09770	1.98773
0.12320	2.01323
0.22521	1.73265
-0.05531	1.17148
0.07220	0.61031
0.09770	0.55929
0.40372	0.73785
0.19971	-1.78742
0.22521	-0.53754
0.27621	0.91640
0.22521	1.01843
0.12320	-4.23616
-0.13181	-0.51203
-0.02981	0.61031
0.19971	-0.35899
0.42922	1.80917
0.09770	0.35523
0.22521	-0.12942
0.27621	1.47757
0.22521	0.17668
0.12320	0.86539
0.09770	1.86019
0.12320	4.13038
0.25071	-2.29757
0.19971	-6.07272
0.30171	-1.07320
-0.13181	0.53379
-0.20832	1.68163
-0.05531	1.68163
0.40372	0.76336
0.53123	1.19699
0.32721	2.77847
0.07220	0.38074
-0.13181	-3.77702
0.32721	-2.14453
0.32721	-0.84363
0.19971	0.89089
0.07220	1.42656
0.02119	0.73785
0.09770	-0.38449
0.14870	0.61031
0.02119	0.61031
0.12320	1.78367
0.19971	-0.76711
-0.02981	0.68683
0.04670	-3.21585
0.12320	0.32972
0.19971	0.50828
0.12320	0.73785
0.27621	0.50828
0.09770	0.94191
0.50573	0.40625
0.50573	1.63062
0.37822	1.47757
-0.18282	0.73785
-0.23382	-4.56776
0.14870	-8.70002
0.17421	0.30422
0.17421	4.23241
0.17421	3.67124
0.07220	0.96742
0.27621	0.76336
0.25071	0.63582
0.30171	0.66132
0.02119	0.58480
0.14870	1.09496
0.04670	-0.12942
0.04670	0.71234
0.12320	-4.26167
0.12320	-3.19035
0.14870	0.12566
-0.08081	0.99292
0.07220	1.06945
0.53123	0.91640
0.32721	1.40105
0.27621	1.24800
0.22521	1.17148
0.12320	-2.90976
-0.02981	-1.78742
0.09770	0.58480
0.09770	1.27351
0.17421	1.01843
-0.00431	0.89089
-0.23382	2.44687
-0.13181	0.04914
-0.13181	-4.54226
0.63323	0.89089
0.30171	1.47757
0.27621	0.63582
0.17421	-2.80773
0.12320	0.02363
0.32721	1.55410
0.19971	-1.96597
0.12320	-1.30277
-0.02981	0.12566
0.02119	1.45206
0.02119	1.04394
0.19971	1.19699
0.17421	1.06945
0.19971	1.78367
0.19971	-2.50164
0.09770	-1.32828
-0.10631	1.29902
-0.10631	-2.22105
0.17421	-0.38449
0.25071	-0.05289
0.14870	2.34484
0.19971	2.77847
0.42922	-3.85355
0.40372	-1.43031
0.22521	0.81437
0.09770	1.01843
0.02119	2.01323
-0.20832	0.43176
0.02119	0.27871
0.17421	0.40625
0.12320	0.94191
0.37822	0.15117
0.55673	1.01843
0.07220	1.35003
0.14870	-4.05761
-0.02981	-0.48652
-0.08081	-6.02170
-0.00431	-1.53234
0.27621	2.03874
0.22521	3.36515
0.25071	2.24281
0.09770	-0.51203
0.27621	1.50308
0.35272	1.40105
0.04670	-0.43551
0.17421	0.35523
0.04670	-0.02739
0.12320	0.32972
0.17421	2.70194
0.45472	5.30373
0.35272	-3.85355
0.17421	-8.18986
0.09770	-2.45062
-0.13181	1.68163
-0.23382	2.62542
0.30171	2.62542
0.45472	2.49788
0.35272	3.23761
0.12320	1.04394
-0.18282	-2.29757
-0.02981	1.12046
0.27621	3.39065
0.45472	-5.76663
0.25071	-1.58336
0.07220	-0.76711
0.17421	-0.86914
-0.20832	0.17668
-0.20832	2.01323
0.02119	2.06425
0.30171	1.63062
0.53123	0.96742
0.37822	0.40625
0.27621	0.22769
0.04670	0.22769
0.02119	-0.25695
0.19971	-1.81293
0.25071	-0.48652
0.04670	3.69675
-0.00431	-3.39441
-0.02981	-1.78742
0.12320	-1.17523
-0.08081	0.94191
0.04670	1.37554
0.22521	1.60511
0.25071	0.66132
0.25071	0.10015
0.32721	0.66132
0.19971	0.96742
0.17421	0.68683
0.14870	0.30422
0.25071	2.37034
0.40372	-2.27207
0.27621	-7.37362
-0.25932	-1.04770
-0.59084	0.55929
-0.00431	1.65613
0.35272	2.59991
0.42922	2.42136
0.30171	2.52339
0.04670	1.55410
0.30171	-0.38449
0.27621	-0.30797
0.25071	-1.30277
0.17421	-0.81812
0.17421	0.78886
0.19971	-3.90456
0.07220	-1.17523
0.12320	-0.41000
-0.18282	1.78367
-0.13181	1.32453
0.17421	1.68163
0.53123	1.68163
0.37822	0.50828
0.04670	-1.96597
0.02119	0.48277
0.22521	1.83468
0.37822	-0.61406
0.32721	-1.94047
0.02119	-0.74160
-0.08081	0.48277
0.17421	0.91640
0.17421	0.45726
-0.00431	0.96742
0.25071	0.63582
0.27621	1.06945
0.19971	-0.18043
0.25071	-3.75152
0.27621	-0.25695
0.14870	2.29382
-0.00431	2.93151
-0.18282	-1.07320
0.04670	-0.69059
0.25071	1.01843
0.32721	-0.56305
0.19971	3.28862
0.30171	-3.47093
-0.10631	-0.43551
-0.10631	0.22769
-0.20832	1.47757
0.27621	0.45726
0.58223	0.66132
0.40372	-0.05289
0.27621	-1.07320
0.09770	-2.11902
0.04670	1.01843
0.12320	1.40105
-0.00431	1.29902
-0.10631	0.68683
0.12320	-0.25695
0.17421	-0.74160
0.07220	-0.18043
-0.00431	0.48277
0.09770	0.99292
0.25071	0.50828
0.30171	-0.35899
0.40372	-0.33348
0.35272	0.89089
0.14870	2.14077
0.25071	-3.21585
0.14870	1.01843
-0.15732	-0.66508
-0.13181	0.10015
-0.10631	0.96742
0.32721	1.60511
0.02119	-2.17003
0.32721	-2.57816
0.32721	0.96742
0.22521	2.34484
0.22521	2.29382
0.17421	0.91640
0.14870	0.71234
0.12320	-0.28246
0.12320	0.63582
0.14870	2.19179
0.19971	-0.81812
0.09770	-3.24136
-0.18282	-1.40480
-0.36133	1.63062
0.09770	0.78886
0.45472	-2.50164
0.42922	-2.37410
0.32721	-0.05289
0.32721	1.78367
0.25071	2.19179
0.17421	1.55410
0.12320	0.53379
0.19971	-0.05289
-0.00431	2.06425
-0.02981	-0.10391
-0.23382	-0.89465
-0.00431	-0.76711
0.35272	-0.15492
0.27621	0.43176
0.17421	0.78886
0.14870	0.45726
0.35272	0.76336
0.22521	-0.69059
0.19971	2.26831
0.32721	-3.75152
0.40372	-2.47613
0.25071	0.76336
-0.15732	0.43176
-0.10631	0.48277
-0.13181	0.73785
0.09770	1.22250
0.19971	1.37554
0.40372	1.40105
0.37822	0.94191
0.12320	0.55929
0.07220	0.40625
0.19971	0.07465
0.02119	-0.97117
-0.02981	0.86539
0.12320	3.74776
0.48022	-4.92487
0.48022	-3.26687
0.14870	-5.00139
-0.43783	-1.53234
0.04670	2.57441
0.37822	3.36515
0.45472	2.52339
0.22521	2.80397
0.17421	1.70714
-0.05531	0.50828
0.07220	0.43176
0.14870	-0.05289
0.19971	-0.56305
0.14870	-0.71609
0.09770	-0.84363
0.17421	-0.74160
0.12320	-0.53754
0.12320	-0.46102
0.12320	-0.53754
-0.08081	-0.02739
-0.05531	0.43176
0.37822	-0.71609
0.42922	1.93671
0.02119	5.83940
-0.18282	1.37554
-0.18282	-6.91448
0.19971	-6.48085
-0.23382	-3.62398
0.02119	3.79878
0.53123	4.25792
0.30171	1.78367
0.45472	2.90601
0.30171	2.26831
0.25071	1.32453
0.12320	0.40625
0.02119	-0.25695
-0.05531	-0.79262
-0.05531	-1.12422
-0.05531	-1.17523
-0.00431	-1.07320
0.04670	-0.86914
0.02119	-0.69059
0.04670	-0.46102
0.22521	-0.15492
0.17421	0.07465
0.25071	0.43176
0.27621	0.40625
0.27621	0.48277
0.22521	0.48277
0.12320	-0.07840
0.12320	0.07465
0.22521	2.93151
0.32721	4.00284
0.22521	1.04394
-0.05531	-6.76143
-0.33583	-5.61358
-0.02981	-0.74160
0.14870	3.08456
0.02119	3.84979
-0.28482	2.77847
-0.38683	-0.15492
0.70974	0.10015
1.14327	0.22769
0.78624	0.45726
0.48022	0.66132
0.17421	0.12566
0.09770	-0.15492
-0.08081	-0.41000
-0.15732	-0.74160
-0.23382	-0.84363
-0.18282	-0.69059
-0.08081	-0.46102
0.09770	-0.18043
0.12320	-0.15492
0.04670	0.10015
0.17421	1.04394
0.22521	0.45726
0.22521	-0.41000
0.27621	-0.18043
0.17421	1.35003
0.32721	1.65613
0.19971	-0.28246
0.14870	0.32972
-0.00431	-1.53234
0.12320	0.15117
0.14870	0.94191
0.40372	1.57960
0.22521	1.52859
0.37822	1.24800
0.37822	-3.36890
0.19971	-1.02219
-0.51434	0.17668
-0.59084	-2.42511
-0.31033	1.86019
0.55673	2.65093
0.42922	0.55929
0.35272	0.91640
0.30171	-0.84363
0.42922	0.89089
0.09770	0.32972
-0.10631	-1.76191
0.09770	-0.61406
0.14870	1.47757
0.12320	0.86539
0.12320	-1.48133
-0.02981	-0.28246
0.02119	0.55929
0.25071	1.06945
0.22521	-0.97117
0.25071	0.76336
0.27621	0.35523
0.17421	-0.10391
-0.00431	1.73265
0.27621	1.12046
0.22521	0.66132
0.14870	-0.35899
0.12320	-0.63957
0.17421	-1.94047
0.35272	0.89089
0.22521	0.35523
0.14870	0.25320
0.07220	1.86019
0.07220	0.35523
0.09770	-3.72601
0.07220	0.38074
-0.18282	1.17148
-0.43783	-1.43031
0.25071	1.29902
0.63323	2.49788
0.50573	2.85499
0.40372	-0.02739
0.22521	-3.52195
0.02119	-0.76711
-0.08081	0.43176
0.12320	0.96742
0.14870	0.66132
0.22521	0.43176
0.12320	1.40105
-0.20832	2.21730
-0.15732	-2.01699
0.25071	-2.11902
0.04670	-1.35379
-0.00431	-0.41000
0.17421	0.43176
0.27621	0.40625
0.30171	1.12046
0.14870	0.32972
-0.10631	0.58480
0.07220	0.71234
0.22521	0.83988
0.32721	-0.20594
0.37822	0.27871
0.14870	0.96742
0.12320	-0.07840
-0.05531	-2.37410
0.25071	-0.84363
0.45472	-0.02739
-0.02981	1.45206
0.12320	1.50308
0.12320	1.27351
0.14870	2.67644
0.27621	-2.42511
0.12320	-1.07320
-0.05531	1.27351
-0.02981	0.17668
0.07220	-1.07320
0.02119	1.50308
-0.10631	-0.97117
0.02119	-0.00188
0.25071	-0.18043
0.25071	-0.25695
0.40372	1.04394
0.40372	-0.20594
0.32721	0.58480
0.35272	1.32453
0.17421	0.38074
0.22521	1.32453
0.07220	0.07465
0.02119	-0.00188
-0.18282	-1.32828
0.12320	0.99292
0.27621	-0.94566
0.22521	0.43176
0.04670	0.25320
0.22521	-0.43551
0.27621	0.99292
0.19971	1.37554
0.17421	-2.90976
0.30171	-0.79262
0.14870	0.86539
0.04670	1.06945
0.12320	-0.05289
0.17421	0.91640
0.22521	2.39585
0.27621	1.98773
0.19971	-2.24656
0.22521	-2.09351
0.30171	-1.32828
0.25071	-0.35899
0.17421	2.03874
0.14870	1.70714
0.32721	-0.58856
0.22521	1.24800
0.17421	-0.25695
-0.13181	0.94191
0.12320	0.02363
0.14870	-0.58856
0.09770	0.10015
0.42922	-0.35899
0.45472	-2.52714
0.04670	-0.07840
-0.31033	0.30422
-0.08081	1.37554
0.17421	1.55410
0.45472	-0.23145
0.27621	-1.22625
0.25071	-0.35899
0.25071	1.09496
0.27621	0.43176
0.07220	-1.27726
0.04670	-1.17523
0.02119	1.40105
0.12320	1.68163
0.07220	2.70194
-0.05531	-3.52195
0.12320	0.55929
0.12320	1.80917
0.25071	1.09496
0.25071	-0.18043
0.17421	-4.59327
0.04670	1.32453
0.12320	1.32453
0.19971	-0.35899
0.27621	-0.38449
0.25071	-1.71090
0.12320	1.55410
-0.08081	2.49788
-0.08081	0.76336
0.32721	0.10015
0.40372	0.02363
0.40372	-0.38449
-0.00431	-0.81812
-0.31033	0.61031
0.30171	0.58480
0.32721	-0.89465
0.19971	0.07465
0.19971	-0.05289
0.35272	-0.07840
0.19971	0.45726
0.09770	1.88570
-0.20832	-0.51203
-0.31033	-0.25695
-0.25932	-2.09351
0.14870	0.32972
0.12320	1.50308
0.42922	-0.00188
0.37822	-0.66508
0.35272	-2.65468
0.40372	0.89089
0.22521	2.24281
0.12320	0.04914
0.27621	0.53379
0.17421	1.12046
-0.13181	2.49788
-0.51434	1.17148
-0.23382	-0.10391
0.42922	-3.24136
0.50573	-0.05289
0.35272	1.35003
0.25071	1.91120
-0.08081	0.20219
0.02119	-1.40480
0.32721	-4.59327
0.27621	-2.32308
0.19971	0.99292
0.22521	1.55410
0.17421	1.93671
0.25071	1.96222
0.27621	0.61031
0.02119	0.99292
0.07220	1.40105
-0.02981	0.96742
-0.05531	-0.41000
0.14870	0.07465
0.17421	-2.45062
-0.10631	-0.53754
0.22521	-0.18043
0.40372	0.17668
0.09770	0.17668
-0.33583	0.22769
0.22521	0.50828
0.65874	0.96742
0.55673	1.73265
0.19971	0.40625
-0.13181	-3.41992
0.02119	-1.71090
0.12320	2.03874
0.27621	1.19699
0.30171	0.30422
0.22521	0.83988
-0.00431	-0.25695
-0.36133	0.96742
-0.23382	0.40625
0.25071	0.27871
0.40372	0.89089
0.55673	-0.81812
0.35272	-1.20074
0.07220	-0.51203
-0.46334	-0.43551
-0.23382	1.45206
0.42922	1.14597
0.83725	1.45206
0.27621	-0.56305
0.04670	-0.58856
-0.20832	-3.49644
0.09770	0.96742
0.32721	-0.28246
-0.05531	0.68683
0.14870	0.43176
0.32721	1.29902
0.35272	1.29902
0.17421	1.35003
0.02119	0.71234
0.04670	-0.46102
-0.00431	0.68683
0.07220	-2.50164
0.14870	-0.48652
0.12320	0.58480
0.14870	1.06945
0.07220	-0.51203
-0.13181	-0.58856
0.27621	0.04914
0.30171	0.71234
0.37822	0.99292
0.32721	0.96742
0.32721	0.71234
0.12320	-0.46102
-0.00431	0.32972
0.09770	0.17668
0.17421	0.61031
0.17421	-1.07320
0.04670	-0.81812
-0.20832	0.71234
-0.10631	0.22769
0.40372	0.17668
0.48022	-0.46102
0.14870	1.24800
0.02119	0.35523
0.30171	-0.43551
0.27621	-0.33348
0.02119	1.14597
0.02119	0.53379
0.37822	-0.46102
0.30171	-0.28246
0.17421	0.68683
-0.08081	1.55410
0.17421	1.29902
0.19971	-2.06800
0.09770	-4.41472
-0.15732	-0.10391
0.09770	0.83988
0.32721	2.49788
0.35272	3.16108
0.19971	-2.55265
0.22521	0.17668
0.17421	0.02363
0.19971	-0.46102
-0.05531	0.58480
0.14870	1.27351
0.12320	1.47757
0.04670	0.91640
0.12320	-0.20594
0.19971	-0.25695
0.17421	-0.12942
0.17421	-1.63437
0.19971	0.07465
0.22521	0.50828
0.22521	-0.84363
0.14870	0.76336
0.02119	-2.73121
0.17421	0.12566
0.12320	0.25320
0.09770	1.65613
0.04670	1.96222
0.02119	1.14597
0.17421	0.50828
0.22521	0.61031
0.37822	0.10015
0.25071	-0.07840
0.17421	-0.28246
0.25071	0.43176
0.25071	0.61031
0.09770	-0.71609
-0.13181	-0.56305
-0.43783	-1.35379
-0.28482	-0.53754
0.27621	0.35523
0.40372	2.06425
0.48022	1.19699
0.35272	-2.01699
0.25071	-1.73640
0.14870	1.01843
0.12320	2.21730
0.17421	1.93671
-0.02981	0.99292
0.04670	-0.81812
-0.00431	-3.44542
-0.02981	1.68163
0.12320	-1.07320
-0.02981	0.83988
0.14870	0.96742
0.32721	0.73785
0.32721	0.86539
0.22521	1.96222
0.04670	-0.10391
0.25071	-4.38921
0.19971	-0.66508
0.09770	0.07465
0.09770	0.50828
0.17421	-0.99668
0.25071	0.91640
0.25071	-0.43551
-0.08081	-0.48652
-0.00431	0.50828
0.27621	0.30422
0.07220	0.32972
-0.23382	1.37554
0.14870	0.76336
0.42922	1.47757
0.42922	0.81437
0.37822	-0.66508
0.02119	0.32972
0.07220	-1.12422
0.09770	-1.27726
0.07220	0.10015
0.07220	1.60511
0.22521	0.25320
0.12320	-3.11382
0.14870	-0.15492
0.04670	0.15117
0.17421	0.91640
0.22521	0.48277
0.04670	1.42656
0.12320	0.86539
0.19971	-1.40480
0.19971	-0.84363
-0.00431	-1.83844
0.22521	0.20219
0.32721	2.06425
0.02119	1.86019
0.09770	0.15117
0.42922	0.86539
0.37822	1.52859
0.14870	1.22250
0.07220	0.15117
0.12320	-0.02739
0.09770	-0.92016
-0.00431	-0.12942
-0.25932	-1.37929
-0.00431	-0.33348
0.30171	0.86539
