0.04670	0.48277
0.02119	-0.76711
0.12320	0.53379
0.04670	-1.12422
0.14870	-1.96597
0.17421	0.55929
0.14870	0.53379
0.14870	1.27351
0.17421	0.71234
0.22521	0.43176
0.22521	-0.41000
0.09770	0.48277
0.07220	0.94191
0.14870	-0.23145
0.30171	0.61031
0.14870	0.58480
0.07220	-1.09871
0.04670	-0.07840
0.19971	0.27871
0.22521	0.15117
0.22521	0.10015
0.19971	0.25320
0.19971	0.32972
0.17421	0.17668
0.14870	-0.10391
0.12320	0.38074
0.19971	0.15117
0.19971	0.12566
0.09770	-0.18043
0.14870	0.55929
0.14870	0.61031
0.12320	-0.33348
0.19971	-0.25695
0.09770	0.04914
0.09770	0.76336
0.14870	0.25320
0.14870	0.30422
0.09770	0.53379
0.12320	0.15117
0.12320	-0.12942
0.07220	0.04914
0.12320	0.17668
0.19971	-0.10391
0.12320	0.15117
0.17421	-0.05289
0.22521	-0.38449
0.17421	0.20219
0.17421	0.30422
0.25071	0.25320
0.14870	0.30422
0.07220	0.17668
0.02119	0.17668
0.12320	0.96742
0.04670	-0.46102
0.09770	-0.46102
0.22521	-0.74160
0.17421	-2.14453
0.19971	1.37554
0.12320	1.24800
0.09770	1.75816
0.09770	1.01843
0.12320	0.38074
0.25071	-1.17523
0.17421	0.68683
0.02119	-0.00188
0.40372	-0.18043
0.32721	0.04914
0.25071	0.45726
0.12320	0.30422
0.17421	0.35523
0.12320	-1.22625
0.12320	-0.02739
0.22521	0.25320
0.14870	0.45726
0.17421	0.35523
0.19971	0.17668
0.09770	0.38074
0.12320	0.27871
0.09770	0.25320
0.14870	-0.48652
-0.02981	0.12566
0.04670	0.20219
0.14870	-0.05289
0.07220	0.15117
0.53123	0.20219
-0.23382	0.15117
-0.02981	0.27871
0.48022	0.38074
0.32721	0.12566
0.17421	0.25320
0.14870	0.55929
0.12320	-0.38449
0.19971	-0.76711
0.12320	0.68683
0.14870	-0.20594
0.19971	0.40625
0.07220	-0.89465
0.12320	-0.30797
0.14870	-0.53754
0.09770	1.65613
0.09770	2.01323
0.12320	-0.84363
0.22521	-1.71090
0.17421	0.78886
0.19971	0.94191
0.17421	0.81437
0.12320	0.45726
0.25071	0.43176
0.14870	0.38074
0.12320	-0.12942
0.09770	-0.56305
0.12320	-1.17523
0.19971	0.68683
0.17421	-1.20074
0.14870	0.63582
0.14870	-0.05289
0.25071	0.15117
0.42922	0.73785
0.12320	0.53379
0.07220	0.58480
0.04670	0.55929
0.22521	-0.02739
0.25071	0.25320
0.12320	0.04914
0.19971	-0.18043
0.22521	-0.07840
0.12320	0.35523
0.22521	0.17668
0.30171	0.07465
-0.23382	0.27871
0.14870	0.68683
0.32721	-1.09871
0.14870	-0.48652
0.09770	0.22769
0.09770	1.09496
0.17421	0.58480
0.07220	-1.27726
0.07220	-0.05289
0.14870	0.71234
0.14870	0.63582
0.22521	0.61031
0.19971	0.91640
0.12320	-2.01699
-0.00431	0.10015
0.04670	0.81437
0.04670	-0.07840
0.07220	1.24800
0.30171	-0.35899
0.22521	0.55929
0.14870	-0.43551
0.12320	-0.07840
0.07220	0.50828
0.07220	0.25320
0.07220	0.15117
0.22521	0.32972
0.14870	0.38074
0.19971	0.35523
0.25071	0.17668
0.09770	-0.12942
0.19971	-0.48652
0.19971	0.17668
0.14870	0.32972
0.17421	0.17668
0.12320	0.27871
0.09770	0.02363
0.12320	0.32972
0.14870	0.35523
0.22521	0.30422
0.04670	0.63582
0.12320	0.76336
0.12320	0.45726
0.09770	-2.19554
0.14870	-1.94047
0.12320	1.27351
0.19971	0.73785
0.12320	2.24281
0.17421	-1.17523
0.17421	0.02363
0.07220	1.14597
0.19971	0.94191
0.27621	-1.55785
0.19971	0.38074
0.19971	0.63582
0.19971	0.48277
0.22521	0.66132
0.22521	-1.14973
0.19971	0.32972
0.19971	0.15117
0.14870	0.02363
0.04670	-0.05289
0.09770	-0.00188
0.09770	0.04914
0.09770	0.12566
0.07220	-0.02739
0.17421	0.12566
0.02119	0.38074
0.12320	0.81437
0.19971	0.20219
0.12320	-0.05289
0.14870	0.02363
0.19971	-0.30797
0.12320	0.04914
0.12320	0.32972
0.12320	0.25320
0.17421	0.15117
0.04670	0.63582
0.07220	0.58480
0.19971	-0.56305
0.07220	-0.18043
0.14870	-0.66508
0.02119	0.63582
0.09770	0.45726
0.17421	0.91640
0.14870	-0.23145
0.12320	-0.79262
0.22521	-1.32828
0.19971	0.73785
0.14870	1.50308
0.19971	-0.51203
0.09770	-0.15492
0.17421	1.47757
0.22521	1.24800
0.22521	-1.99148
0.19971	0.40625
0.19971	0.32972
0.14870	0.27871
0.12320	0.38074
0.14870	-0.30797
0.12320	0.12566
0.19971	0.07465
-0.00431	0.53379
0.07220	0.02363
0.19971	-0.25695
0.12320	0.20219
0.14870	0.99292
0.14870	-0.20594
0.07220	0.04914
0.14870	-0.43551
0.17421	-0.35899
0.07220	0.76336
0.19971	0.76336
0.14870	0.68683
0.17421	0.35523
0.09770	0.38074
0.17421	0.15117
0.09770	0.02363
0.14870	0.25320
0.17421	0.32972
0.17421	-0.86914
0.22521	-0.46102
0.04670	0.10015
0.19971	0.35523
0.14870	0.71234
0.14870	0.96742
0.07220	-0.02739
0.09770	-2.24656
0.07220	0.76336
0.07220	0.58480
0.12320	1.52859
0.09770	0.68683
-0.00431	0.30422
0.09770	-0.28246
0.14870	0.17668
0.22521	0.45726
0.14870	-0.18043
0.12320	-0.51203
0.17421	0.30422
0.07220	-0.94566
0.04670	0.61031
0.14870	0.22769
-0.02981	0.83988
0.04670	0.63582
0.17421	0.07465
0.12320	-0.43551
0.07220	0.17668
0.09770	0.25320
0.14870	0.10015
0.14870	-0.10391
0.14870	1.14597
0.09770	-1.20074
0.12320	-1.32828
0.19971	0.48277
0.25071	1.37554
0.19971	1.35003
0.22521	-0.74160
0.09770	-0.20594
0.14870	0.91640
0.17421	0.02363
0.19971	0.10015
0.22521	0.12566
-0.02981	0.10015
0.07220	0.02363
0.09770	0.22769
0.07220	0.35523
0.09770	0.45726
0.12320	-1.20074
0.17421	-0.48652
0.27621	0.55929
0.12320	0.48277
0.22521	0.27871
0.07220	0.78886
0.04670	0.78886
0.12320	-0.53754
0.19971	-0.05289
0.19971	-1.20074
0.19971	0.55929
0.22521	0.66132
0.12320	0.71234
0.09770	0.61031
0.04670	-0.07840
-0.00431	0.61031
0.02119	0.61031
0.12320	-0.58856
0.19971	-1.71090
0.14870	0.17668
0.14870	-0.00188
0.19971	0.76336
0.19971	0.78886
0.14870	0.73785
0.19971	0.22769
0.09770	0.12566
0.12320	-0.00188
0.19971	0.17668
0.17421	0.58480
0.14870	-1.53234
0.12320	0.35523
0.12320	0.45726
0.12320	0.30422
0.09770	0.45726
0.17421	-0.69059
-0.02981	1.60511
0.09770	-2.70570
0.12320	0.30422
0.09770	0.68683
0.14870	0.30422
0.19971	0.68683
0.17421	0.38074
0.19971	0.68683
0.17421	0.91640
0.30171	-1.17523
0.09770	-1.40480
0.19971	-0.18043
0.19971	1.01843
0.17421	1.32453
0.17421	0.43176
0.14870	0.32972
0.12320	-0.46102
0.19971	0.35523
0.17421	0.02363
0.30171	-0.56305
0.12320	0.45726
0.07220	0.66132
0.19971	-0.20594
0.12320	-0.05289
0.12320	0.20219
0.04670	-0.15492
0.09770	0.20219
0.12320	0.32972
0.09770	0.02363
0.19971	-0.20594
0.09770	0.07465
-0.00431	0.10015
0.12320	0.12566
0.07220	0.30422
0.09770	0.30422
0.17421	0.22769
0.17421	0.25320
0.17421	0.48277
0.14870	-0.07840
0.25071	-0.10391
0.14870	0.35523
0.09770	0.17668
0.19971	0.22769
0.22521	0.63582
0.17421	-0.97117
0.14870	-0.25695
0.17421	1.14597
0.19971	-1.17523
0.14870	0.48277
0.14870	0.63582
0.02119	0.91640
0.07220	0.35523
0.22521	1.12046
0.12320	-1.48133
0.22521	-3.64948
0.17421	0.48277
0.25071	0.66132
0.25071	1.32453
0.22521	1.47757
0.17421	0.81437
0.22521	-0.56305
0.17421	-0.12942
0.19971	0.53379
0.14870	0.53379
0.19971	0.25320
0.22521	-0.00188
0.19971	0.12566
0.22521	0.10015
0.27621	-0.46102
0.27621	-2.29757
0.12320	0.61031
0.19971	0.04914
0.19971	0.63582
0.17421	0.99292
0.19971	1.37554
0.17421	-2.50164
0.14870	0.91640
0.14870	0.94191
0.04670	0.76336
0.09770	0.68683
0.02119	0.43176
0.02119	0.15117
0.17421	0.25320
0.12320	0.04914
0.14870	0.22769
0.17421	-0.71609
0.17421	0.32972
0.12320	-0.10391
0.22521	-1.48133
0.22521	-0.89465
0.09770	1.06945
0.12320	0.78886
0.12320	1.86019
0.25071	-1.02219
0.17421	0.48277
0.17421	0.66132
0.14870	0.40625
0.12320	0.50828
0.19971	0.55929
0.19971	0.27871
0.19971	-0.00188
0.17421	-3.98109
0.17421	0.35523
0.14870	1.19699
0.09770	1.01843
0.14870	0.78886
0.22521	0.78886
0.17421	0.58480
0.17421	-0.18043
0.12320	-0.41000
0.17421	0.10015
0.12320	0.45726
0.14870	-0.25695
0.14870	0.45726
0.12320	0.35523
0.14870	-0.53754
0.17421	-0.33348
0.17421	0.76336
0.14870	0.81437
0.19971	-0.02739
0.17421	0.58480
0.12320	1.01843
0.12320	-0.15492
0.09770	-1.07320
0.09770	-0.94566
0.02119	1.50308
0.12320	0.38074
0.19971	0.58480
0.22521	0.32972
0.12320	0.20219
0.17421	0.10015
0.22521	0.22769
0.27621	0.07465
0.17421	-0.28246
0.17421	-0.20594
0.22521	-0.46102
0.19971	0.76336
0.12320	0.63582
0.12320	-0.33348
0.19971	0.86539
0.17421	0.40625
0.14870	0.15117
0.14870	0.07465
0.19971	0.22769
0.14870	0.12566
0.12320	0.25320
0.14870	0.50828
0.25071	0.66132
0.14870	0.86539
0.09770	-2.68019
0.14870	0.17668
0.09770	0.66132
0.17421	0.38074
0.12320	0.35523
0.22521	0.66132
0.07220	0.99292
0.09770	-0.58856
0.14870	-1.58336
0.17421	-0.02739
0.09770	0.76336
0.17421	0.71234
0.22521	0.53379
0.12320	-0.07840
0.19971	0.96742
0.14870	0.15117
0.09770	-0.99668
0.09770	0.15117
0.12320	-0.48652
0.07220	0.68683
0.07220	0.53379
0.12320	0.22769
0.12320	0.78886
0.25071	-0.63957
0.17421	-0.10391
0.07220	0.48277
0.07220	0.68683
0.14870	-1.22625
0.25071	0.22769
0.22521	0.48277
0.22521	0.40625
0.22521	0.25320
0.12320	0.17668
0.14870	0.07465
0.12320	0.17668
0.09770	-0.05289
0.12320	0.10015
0.09770	0.25320
0.19971	0.07465
0.07220	0.02363
0.07220	0.07465
0.12320	-0.05289
0.09770	0.02363
0.19971	0.27871
0.17421	0.25320
0.22521	-0.56305
0.07220	-0.97117
0.12320	0.55929
0.12320	0.81437
0.12320	0.55929
0.14870	0.71234
0.02119	-0.38449
0.04670	0.20219
0.14870	-0.43551
0.17421	-0.46102
0.17421	-0.05289
0.14870	0.43176
0.12320	0.53379
0.22521	0.25320
0.17421	-0.20594
0.12320	0.32972
0.09770	0.35523
0.19971	0.17668
0.27621	0.27871
0.14870	0.48277
0.12320	0.86539
0.17421	1.17148
0.19971	-3.59847
0.19971	-0.51203
-0.00431	1.78367
-0.05531	0.07465
-0.00431	2.39585
0.19971	-2.34859
0.37822	-0.23145
0.17421	1.01843
0.14870	1.24800
0.22521	0.99292
0.30171	1.14597
0.27621	-0.07840
-0.15732	-0.12942
-0.13181	0.04914
0.17421	-0.00188
-0.56534	-1.63437
-0.48884	-1.53234
0.12320	-0.89465
0.63323	0.68683
0.35272	1.14597
0.83725	1.83468
-0.61635	1.75816
0.53123	1.32453
1.37278	0.35523
0.58223	0.83988
0.48022	-0.33348
0.63323	-1.76191
-0.36133	-0.18043
-2.73298	-2.04250
-1.68742	0.27871
0.81175	-0.56305
1.01576	1.27351
0.63323	0.35523
-0.97337	3.56921
-0.82036	1.09496
1.37278	1.70714
1.72980	-6.63389
1.29628	0.02363
-1.22839	7.59943
-2.32496	-1.35379
0.53123	-1.96597
1.62780	0.04914
2.16333	-4.51675
0.02119	1.47757
0.78624	2.80397
1.09226	1.73265
0.35272	3.21210
-0.79486	1.06945
-2.73298	-2.01699
-2.45246	4.53850
-0.02981	-8.03682
1.29628	-2.60367
1.52579	-1.71090
1.24527	-0.15492
0.32721	0.99292
-0.46334	-1.40480
-1.71292	4.02835
-1.38139	-3.11382
0.73524	-5.38401
1.16877	2.67644
1.55129	4.89561
1.01576	4.58952
0.37822	5.27823
0.19971	0.45726
-0.00431	-4.23616
-0.36133	-7.32260
-0.38683	-0.38449
-0.28482	2.34484
-0.18282	2.57441
0.25071	1.73265
0.37822	1.93671
0.40372	0.04914
0.14870	0.20219
0.12320	-2.14453
0.19971	-1.58336
0.12320	2.90601
0.37822	-3.21585
0.09770	2.08976
-0.00431	-4.66979
0.48022	2.49788
-0.23382	7.08928
-0.02981	-7.52666
0.22521	-2.24656
-0.33583	-2.14453
0.25071	3.41616
0.12320	3.56921
0.50573	2.26831
0.93925	3.11007
0.68424	-3.34339
0.19971	-4.95038
-0.13181	1.68163
0.12320	3.72225
-0.20832	-0.20594
-0.23382	-1.48133
-0.08081	3.08456
0.30171	2.88050
0.42922	-6.96549
0.22521	-9.69482
0.02119	0.02363
0.40372	2.37034
0.07220	4.46198
-0.48884	1.32453
-0.79486	3.54370
-0.43783	-2.34859
0.93925	-1.22625
1.06676	4.20690
0.70974	3.05905
-0.05531	-6.86346
-0.25932	-0.74160
0.76074	3.16108
1.21977	1.45206
0.30171	0.22769
-0.20832	4.33444
-0.71835	-0.05289
-0.23382	0.73785
0.27621	-1.32828
0.42922	0.45726
0.37822	-6.32780
-0.15732	-2.06800
-0.41233	-1.32828
0.09770	6.80869
0.42922	4.13038
0.63323	-2.70570
0.14870	0.55929
-0.41233	2.16628
-0.51434	-2.60367
0.17421	-1.17523
0.68424	0.96742
0.55673	2.34484
0.50573	0.50828
0.42922	-0.10391
0.32721	2.06425
0.04670	-4.10862
-0.00431	-1.55785
-0.05531	-0.89465
-0.51434	1.22250
-0.00431	5.96694
0.09770	-5.20546
-0.00431	4.15589
-0.05531	-10.91919
-0.20832	-0.46102
0.53123	1.96222
0.55673	4.43647
0.55673	2.37034
0.27621	1.27351
0.19971	0.96742
0.22521	2.80397
0.04670	0.91640
0.02119	-5.81764
-0.33583	-1.43031
-0.56534	-3.31788
0.17421	-2.29757
0.53123	3.08456
0.48022	2.16628
0.58223	4.35995
0.32721	5.86491
0.32721	-11.12326
-0.33583	3.03355
-0.74385	2.14077
-0.08081	0.27871
0.19971	0.27871
0.40372	0.48277
0.50573	-0.02739
0.42922	-0.38449
0.09770	0.61031
0.04670	0.55929
-0.20832	-3.39441
0.32721	-0.28246
0.19971	0.99292
-0.00431	1.78367
0.22521	1.50308
0.30171	0.63582
0.27621	2.31933
0.19971	-1.32828
0.12320	-0.94566
0.12320	1.55410
0.09770	-1.68539
0.07220	0.63582
0.42922	-3.26687
0.45472	2.34484
0.30171	4.28343
-0.71835	-1.78742
-1.10088	2.19179
-0.08081	-3.36890
0.60773	-1.58336
0.73524	-4.05761
0.70974	1.60511
0.48022	1.70714
0.45472	1.29902
-0.08081	0.61031
0.30171	0.61031
0.30171	3.87530
0.40372	4.25792
0.04670	-8.24088
-0.25932	-4.18515
-0.97337	-4.82284
-0.48884	1.98773
0.19971	3.18659
0.65874	3.26312
0.50573	2.44687
0.53123	3.39065
0.45472	2.98253
0.37822	-6.53186
0.27621	4.48749
0.02119	-6.96549
-0.18282	2.80397
-0.05531	-0.25695
-0.05531	0.94191
0.32721	0.20219
0.19971	-9.00611
0.12320	-0.33348
-0.08081	4.69155
0.04670	2.29382
0.42922	2.49788
0.27621	1.04394
0.19971	1.60511
0.27621	0.81437
-0.08081	0.96742
-0.31033	-4.03210
0.19971	-0.48652
0.37822	2.77847
0.73524	-3.47093
0.88825	0.35523
0.19971	6.42608
-0.59084	2.16628
-0.08081	-10.71513
-0.38683	1.14597
-0.28482	2.34484
0.53123	1.93671
1.29628	5.15069
0.81175	1.01843
-0.00431	-3.01179
-1.22839	0.71234
-1.07538	4.43647
0.53123	-5.15444
0.60773	-1.53234
0.40372	-0.81812
0.37822	1.78367
0.32721	2.57441
0.17421	-6.68491
0.12320	-1.22625
-0.02981	3.23761
-0.08081	4.69155
0.04670	-0.35899
-0.20832	4.56401
0.02119	-5.43503
0.14870	-0.25695
0.22521	1.47757
0.14870	1.22250
0.12320	1.98773
0.12320	1.63062
0.32721	1.24800
0.22521	-4.69530
0.37822	-3.16484
0.32721	-1.91496
0.48022	1.93671
-0.28482	6.50260
-0.08081	0.73785
0.30171	-2.34859
0.09770	-0.94566
0.07220	-0.58856
0.55673	1.70714
0.45472	-1.45582
0.50573	1.42656
0.32721	-0.38449
-0.41233	-0.99668
0.17421	0.66132
-0.38683	0.94191
-0.43783	3.49268
-0.02981	-1.32828
0.07220	1.73265
0.32721	-6.42983
0.55673	-4.31269
0.53123	0.50828
0.14870	2.85499
0.30171	1.63062
0.02119	-2.47613
-0.46334	-1.99148
-0.64185	3.36515
0.02119	-0.74160
0.07220	2.26831
0.45472	0.81437
0.40372	-0.20594
0.63323	0.27871
0.45472	-0.89465
0.32721	-1.02219
0.25071	-2.11902
-0.00431	0.02363
-0.08081	5.63534
-0.02981	-3.03730
0.19971	-2.27207
0.25071	1.17148
0.17421	0.48277
0.14870	1.88570
-0.00431	2.47238
-0.00431	1.98773
-0.23382	-2.62918
0.17421	0.55929
0.40372	-0.94566
0.65874	3.18659
0.55673	-8.21537
0.12320	1.12046
-0.36133	1.75816
-0.43783	1.32453
-0.08081	2.26831
0.60773	2.31933
0.58223	-1.91496
0.42922	1.73265
0.37822	-1.53234
0.12320	0.35523
0.25071	-1.07320
0.50573	1.65613
-0.74385	1.75816
-0.53984	-0.61406
-0.25932	-2.22105
0.02119	-2.09351
0.32721	2.21730
0.55673	2.47238
0.50573	1.06945
0.48022	2.80397
0.40372	2.82948
0.17421	-2.96078
-0.10631	-1.17523
0.04670	2.82948
0.27621	-3.64948
-0.05531	0.15117
-0.10631	1.32453
-0.10631	2.57441
0.04670	3.82429
0.32721	-8.77654
0.12320	-0.99668
0.25071	-2.04250
0.32721	3.11007
0.19971	3.44167
0.30171	2.88050
0.17421	2.75296
0.02119	0.27871
0.30171	0.86539
0.27621	0.20219
0.27621	-0.92016
-0.00431	0.73785
-0.18282	1.27351
-0.36133	-2.73121
-0.10631	-1.58336
0.65874	-4.66979
0.68424	0.43176
0.55673	1.14597
0.27621	1.65613
0.07220	1.88570
-0.28482	-1.88945
-0.36133	-1.25176
0.04670	0.15117
0.14870	0.35523
0.32721	2.80397
-0.02981	1.37554
-0.15732	-2.90976
0.48022	-1.48133
0.30171	2.52339
0.50573	-1.04770
0.30171	-2.73121
0.07220	-4.66979
0.12320	2.11527
0.14870	1.42656
-0.41233	3.03355
-0.20832	4.61503
0.07220	-1.14973
0.19971	-3.47093
0.25071	2.67644
0.35272	-3.16484
0.19971	-0.63957
0.09770	2.31933
0.04670	-0.69059
0.32721	1.04394
0.25071	1.50308
0.27621	-9.38873
0.19971	-1.37929
0.14870	1.86019
-0.00431	2.08976
-0.13181	2.85499
-0.02981	2.29382
0.32721	-0.05289
0.22521	0.15117
0.32721	-0.41000
0.30171	2.42136
0.27621	-0.38449
-0.38683	-1.99148
-0.13181	0.38074
0.42922	-6.02170
0.48022	-0.12942
0.50573	2.39585
0.45472	2.75296
0.32721	0.38074
0.17421	1.73265
0.12320	1.78367
-0.25932	1.80917
0.14870	-0.05289
-0.20832	-2.34859
0.04670	-10.07744
0.50573	0.73785
0.63323	-2.39961
0.35272	4.38546
-0.13181	-0.41000
0.09770	2.01323
0.22521	3.69675
0.09770	3.13558
0.12320	-1.50683
0.02119	0.50828
0.17421	-1.02219
0.14870	-3.75152
0.09770	-1.12422
0.04670	-3.49644
0.14870	4.18139
0.09770	5.09967
0.19971	-7.45014
0.12320	2.44687
0.25071	1.93671
0.19971	-5.46054
0.27621	0.58480
0.09770	-2.17003
-0.08081	2.90601
-0.38683	4.76807
0.22521	3.64573
0.50573	2.44687
0.58223	5.12518
0.53123	-3.06281
0.48022	-6.63389
0.12320	-2.70570
-0.36133	5.55881
-0.38683	-3.52195
0.12320	-0.69059
0.22521	2.21730
0.25071	2.29382
0.17421	-1.30277
0.12320	-1.12422
0.14870	4.74256
0.09770	0.38074
0.22521	-2.09351
0.14870	-2.83324
0.12320	1.32453
0.22521	1.17148
0.12320	2.98253
-0.08081	2.39585
-0.15732	-1.58336
0.17421	-0.63957
0.27621	2.49788
0.42922	-6.76143
0.32721	2.19179
0.27621	1.45206
0.17421	2.06425
0.27621	7.62494
0.17421	0.04914
-0.02981	-7.80725
0.07220	-1.35379
-0.08081	2.90601
-0.00431	2.06425
-0.23382	-2.01699
0.17421	3.69675
0.32721	-2.78222
0.42922	3.72225
0.40372	-8.03682
0.30171	-2.50164
0.07220	2.26831
-0.15732	2.65093
-0.00431	0.63582
0.02119	-0.33348
0.07220	0.99292
0.22521	0.68683
0.58223	1.14597
0.40372	0.27871
0.07220	0.63582
0.09770	0.17668
-0.20832	-2.80773
-0.20832	1.93671
0.12320	2.98253
0.19971	-5.66460
0.32721	-5.94518
0.22521	2.42136
-0.05531	3.72225
0.58223	-3.70050
0.30171	-1.22625
-0.38683	3.39065
-0.38683	2.95702
0.12320	3.26312
0.60773	-0.46102
0.25071	-0.92016
0.27621	0.55929
0.27621	-4.13413
0.04670	-1.35379
-0.15732	1.45206
-0.10631	2.85499
0.02119	0.22769
0.02119	-4.10862
-0.13181	-2.29757
0.14870	-0.12942
0.19971	-0.18043
0.30171	3.92632
0.19971	3.64573
-0.20832	-1.30277
0.04670	-2.09351
0.35272	2.34484
0.37822	1.75816
0.42922	-3.19035
0.22521	0.30422
0.53123	-1.20074
0.09770	2.49788
0.02119	-0.92016
-0.23382	-2.70570
-0.13181	-0.86914
-0.10631	-2.04250
0.35272	2.70194
0.63323	1.12046
0.35272	-2.75671
-0.28482	2.49788
-0.74385	1.17148
0.07220	0.15117
0.73524	-0.71609
0.55673	1.14597
0.30171	1.24800
0.30171	0.96742
0.25071	-3.98109
0.17421	2.06425
-0.00431	0.04914
0.02119	2.21730
0.27621	2.26831
0.12320	-7.29709
0.32721	-4.72081
0.19971	1.75816
0.02119	1.50308
-0.25932	1.80917
0.22521	2.37034
0.32721	1.83468
0.30171	0.50828
0.25071	2.34484
0.27621	-0.81812
0.27621	-0.61406
0.19971	-2.80773
0.17421	2.90601
0.04670	-1.45582
-0.02981	-3.01179
-0.43783	-1.14973
0.17421	-1.68539
0.83725	-0.58856
0.58223	2.19179
0.17421	2.82948
-0.05531	-1.12422
0.25071	0.61031
0.32721	-0.41000
0.32721	0.55929
-0.02981	-0.25695
0.30171	3.64573
0.55673	-1.81293
0.48022	-0.10391
-0.00431	1.09496
-0.46334	1.19699
-0.41233	1.52859
0.04670	1.17148
0.32721	-1.83844
0.40372	-1.94047
0.37822	-2.50164
0.37822	0.94191
0.19971	-1.81293
0.50573	3.90081
0.30171	1.68163
-0.13181	3.26312
-0.43783	-0.30797
-0.48884	-5.74112
0.22521	1.09496
0.53123	-1.20074
0.40372	2.24281
0.37822	1.57960
0.17421	0.10015
0.17421	3.49268
0.19971	0.78886
0.09770	-1.53234
-0.00431	-1.48133
-0.02981	-0.99668
0.09770	0.50828
0.25071	4.81909
0.27621	-3.95558
0.14870	-0.84363
-0.20832	-3.36890
-0.48884	1.52859
0.12320	0.20219
0.58223	2.16628
0.45472	3.41616
0.04670	-0.23145
-0.02981	-4.31269
-0.31033	-4.84835
0.63323	2.47238
0.70974	2.49788
0.50573	-0.81812
0.22521	4.15589
-0.33583	-0.76711
-0.00431	-4.00659
-0.25932	4.15589
0.04670	-2.32308
0.14870	-1.09871
0.27621	1.35003
0.32721	1.98773
-0.08081	0.32972
0.09770	0.50828
0.30171	2.72745
0.30171	-1.88945
0.19971	-2.17003
0.22521	-1.53234
0.22521	0.35523
0.27621	5.12518
0.07220	-1.53234
-0.00431	-3.52195
0.25071	-5.79214
0.02119	1.86019
0.04670	3.11007
0.27621	3.67124
0.42922	0.50828
0.35272	0.22769
0.27621	-0.99668
0.30171	0.83988
0.19971	0.76336
0.12320	1.75816
0.12320	-2.19554
-0.13181	-0.07840
-0.28482	1.12046
-0.10631	0.40625
-0.31033	-0.12942
-0.10631	-1.58336
0.40372	1.27351
0.88825	-0.71609
0.45472	1.80917
0.19971	0.89089
0.42922	2.19179
0.19971	-1.68539
0.02119	-1.76191
0.02119	-0.84363
0.04670	0.35523
0.04670	1.55410
-0.00431	2.47238
-0.10631	3.18659
-0.51434	1.63062
-0.56534	-5.48604
-0.00431	-0.02739
0.68424	-0.18043
0.93925	2.62542
0.45472	1.68163
0.27621	3.21210
0.12320	0.43176
0.19971	0.02363
0.12320	0.81437
0.17421	-2.62918
0.07220	1.75816
-0.05531	1.78367
-0.02981	0.89089
0.07220	-4.77183
-0.00431	-3.16484
0.12320	-1.09871
0.30171	-2.04250
0.32721	0.81437
0.17421	1.37554
-0.38683	2.93151
-0.56534	1.86019
0.40372	-0.30797
0.78624	-2.17003
0.63323	1.01843
0.37822	0.68683
0.37822	1.29902
0.19971	-4.49124
0.04670	-1.37929
-0.00431	0.78886
-0.41233	1.37554
-0.00431	2.59991
0.30171	-2.47613
0.25071	0.32972
-0.28482	1.22250
-0.41233	0.15117
0.25071	1.45206
0.45472	-0.35899
0.50573	-2.14453
0.40372	1.91120
0.04670	0.68683
0.27621	-2.50164
0.35272	2.29382
0.30171	1.96222
0.09770	-2.47613
-0.08081	-1.25176
-0.08081	-0.94566
-0.10631	1.17148
-0.28482	-1.04770
0.12320	1.65613
0.27621	-0.02739
0.25071	2.34484
0.27621	-1.07320
0.30171	2.49788
0.27621	-1.09871
0.19971	0.25320
0.14870	-0.84363
0.12320	-1.58336
0.14870	0.96742
0.22521	-0.71609
-0.41233	1.70714
-0.10631	-6.25127
0.22521	0.12566
0.37822	2.34484
0.55673	2.59991
0.22521	2.26831
0.07220	2.62542
-0.00431	1.01843
0.32721	-1.71090
0.09770	0.58480
-0.53984	0.15117
-0.05531	0.81437
0.35272	0.76336
0.48022	1.01843
0.58223	-2.45062
0.32721	-2.57816
0.48022	0.76336
0.17421	1.22250
-0.02981	2.16628
-0.20832	-2.93527
-0.18282	1.55410
-0.13181	0.55929
0.19971	-1.14973
0.27621	-2.55265
0.14870	5.45678
0.45472	-1.68539
0.32721	2.80397
0.27621	-3.31788
0.07220	0.48277
0.09770	-0.66508
-0.08081	1.29902
-0.28482	1.27351
0.04670	-0.38449
0.50573	1.17148
0.60773	-0.97117
0.63323	-1.91496
0.12320	-0.28246
-0.02981	1.37554
0.09770	2.21730
-0.02981	-2.01699
0.09770	-1.73640
0.42922	0.45726
0.19971	0.71234
-0.10631	1.12046
0.09770	-0.61406
0.27621	1.01843
0.27621	0.25320
0.25071	0.96742
0.12320	-0.20594
-0.00431	1.63062
0.19971	-0.00188
0.25071	-0.48652
0.30171	-0.99668
0.04670	2.88050
-0.00431	3.79878
0.22521	-8.34291
0.42922	-1.17523
0.32721	-0.33348
0.22521	2.08976
0.22521	1.14597
-0.10631	2.11527
0.09770	1.32453
-0.13181	1.68163
-0.23382	0.20219
0.32721	-0.07840
0.42922	-1.30277
0.37822	-1.35379
0.17421	-0.00188
0.17421	0.17668
-0.08081	-1.30277
-0.56534	0.71234
-0.00431	1.19699
0.40372	-0.07840
0.37822	5.81389
0.37822	-10.68962
0.17421	-4.64429
-0.05531	3.36515
-0.20832	3.31413
-0.18282	3.11007
0.19971	2.77847
0.45472	3.97733
0.32721	-0.20594
0.32721	-0.81812
0.17421	-1.96597
0.07220	-0.35899
0.25071	-0.23145
0.22521	-0.33348
0.04670	0.22769
0.12320	1.93671
0.12320	-0.30797
0.25071	-4.23616
0.19971	-0.41000
0.14870	1.88570
0.02119	1.32453
-0.31033	-1.68539
-0.05531	-1.58336
0.22521	2.06425
0.27621	2.03874
0.37822	1.78367
0.12320	0.99292
-0.33583	-0.10391
-0.18282	0.58480
0.27621	1.32453
0.42922	0.20219
0.48022	-0.28246
0.73524	-2.09351
0.58223	-0.12942
0.04670	0.35523
-0.51434	0.40625
-0.28482	1.60511
0.37822	2.39585
0.48022	-0.56305
0.37822	-3.93007
0.12320	-3.67499
-0.31033	0.43176
-0.25932	2.59991
0.17421	4.48749
0.17421	2.11527
0.22521	-1.99148
0.27621	1.91120
0.22521	2.24281
0.09770	-1.14973
0.27621	0.81437
0.22521	-0.86914
0.30171	0.78886
0.32721	-2.98628
0.17421	1.63062
0.07220	0.15117
0.04670	-0.25695
-0.10631	-8.16436
0.17421	2.06425
0.58223	3.21210
0.35272	0.45726
-0.20832	-2.55265
-0.23382	1.93671
0.58223	2.42136
0.63323	0.38074
-0.02981	0.83988
-0.25932	-0.25695
0.35272	0.12566
0.19971	1.45206
0.12320	0.32972
0.22521	-4.15964
0.14870	-0.74160
0.19971	1.78367
0.14870	4.00284
0.04670	-6.60838
-0.23382	-4.82284
-0.08081	3.00804
0.30171	1.52859
0.19971	2.59991
0.17421	4.43647
0.32721	-1.96597
0.30171	-0.69059
0.27621	1.52859
0.17421	1.19699
0.09770	-1.25176
0.12320	-2.90976
0.19971	-2.09351
0.12320	1.42656
0.17421	0.48277
0.17421	0.38074
0.09770	-1.17523
0.09770	7.24232
0.19971	3.90081
0.14870	-5.91967
0.12320	-3.24136
0.07220	2.85499
0.19971	-1.37929
0.19971	1.12046
0.09770	3.41616
0.27621	1.55410
0.22521	1.86019
0.12320	2.08976
0.17421	0.61031
0.12320	-0.76711
-0.08081	-1.94047
-0.00431	-1.12422
0.27621	-0.66508
0.27621	0.76336
0.50573	0.43176
-0.02981	0.45726
0.22521	-6.09823
0.25071	-0.79262
0.22521	0.91640
0.07220	4.23241
0.04670	3.59471
0.22521	0.50828
0.27621	-10.84267
0.25071	2.16628
-0.05531	4.30893
-0.18282	2.37034
-0.05531	-0.38449
0.22521	0.07465
0.19971	0.55929
0.12320	-1.68539
0.12320	-1.53234
-0.00431	0.83988
-0.05531	0.25320
0.12320	1.35003
0.30171	2.75296
0.25071	-1.94047
0.12320	-5.25647
0.35272	1.98773
0.35272	4.69155
0.27621	-8.62350
-0.23382	-5.89417
-0.48884	-1.35379
-0.05531	3.84979
0.60773	1.75816
0.55673	3.79878
0.48022	3.97733
0.22521	2.52339
0.09770	0.71234
-0.02981	0.96742
-0.28482	1.04394
0.14870	-4.38921
0.14870	-4.00659
0.19971	-1.30277
0.27621	0.02363
0.17421	1.45206
0.27621	-3.47093
0.30171	-1.07320
0.17421	1.42656
0.17421	1.68163
0.09770	6.78318
-0.28482	-4.69530
0.07220	-0.79262
0.22521	-0.51203
0.32721	2.65093
0.42922	1.78367
0.55673	-0.25695
0.60773	0.66132
0.32721	-0.94566
-0.08081	-1.25176
-0.36133	0.15117
-0.10631	4.71706
0.14870	-8.80205
0.04670	-0.25695
0.09770	-3.11382
0.07220	0.66132
0.14870	3.51819
0.04670	2.44687
0.22521	-0.76711
0.32721	3.21210
0.45472	-0.86914
0.12320	0.89089
0.12320	1.04394
-0.02981	1.12046
0.25071	-2.37410
0.32721	0.96742
0.14870	2.49788
0.25071	0.96742
0.22521	-5.91967
0.12320	-3.90456
0.09770	0.30422
0.12320	3.44167
0.42922	3.46718
0.22521	1.29902
0.02119	3.56921
-0.15732	1.37554
0.27621	-1.37929
0.12320	-0.02739
-0.00431	-1.76191
0.17421	0.02363
0.30171	2.39585
0.42922	0.89089
0.40372	-3.03730
0.12320	2.59991
0.04670	-1.45582
-0.36133	-4.31269
-0.15732	0.91640
0.22521	1.35003
0.37822	-0.10391
0.25071	3.03355
0.22521	0.40625
0.22521	2.11527
-0.05531	-1.45582
0.12320	-0.53754
0.35272	-3.72601
0.35272	-0.05289
0.32721	1.57960
0.17421	2.80397
-0.00431	-0.46102
-0.05531	-0.86914
0.07220	-0.58856
0.27621	1.14597
0.12320	0.50828
-0.13181	1.14597
0.09770	0.86539
0.30171	-4.10862
0.27621	-0.48652
0.27621	1.45206
0.19971	1.47757
0.25071	2.59991
0.32721	-3.62398
0.45472	-0.33348
0.30171	0.27871
-0.53984	-0.69059
-0.31033	3.00804
0.02119	3.18659
-0.18282	-5.40952
0.50573	1.29902
0.65874	1.83468
0.53123	-0.00188
0.37822	1.83468
0.14870	-3.34339
0.14870	-1.55785
0.02119	0.96742
-0.28482	1.01843
-0.48884	1.78367
0.07220	0.53379
0.45472	0.50828
0.14870	0.32972
0.14870	1.63062
0.42922	-4.13413
0.19971	-2.55265
0.09770	-1.94047
0.14870	2.03874
0.27621	2.57441
0.09770	-0.30797
0.27621	1.24800
0.22521	2.34484
0.25071	-0.00188
0.12320	-1.07320
-0.10631	1.52859
-0.18282	2.16628
0.35272	-3.49644
0.09770	-3.26687
0.07220	0.96742
0.32721	4.64053
0.40372	-0.81812
0.04670	-0.76711
0.27621	2.03874
0.35272	2.98253
0.32721	-2.85874
0.02119	6.04346
-0.20832	-9.66931
-0.00431	0.73785
0.37822	-2.39961
0.35272	0.53379
0.35272	2.65093
0.27621	2.08976
0.07220	1.12046
-0.05531	1.78367
0.09770	1.86019
0.25071	-3.59847
0.27621	-1.58336
0.14870	-0.53754
0.07220	-0.66508
0.17421	-0.43551
0.04670	2.80397
0.35272	1.88570
0.22521	-2.42511
0.14870	3.00804
0.09770	-5.99620
-0.00431	2.62542
0.30171	-4.49124
0.09770	0.66132
0.12320	2.26831
0.12320	3.41616
0.12320	2.08976
0.25071	2.39585
0.17421	1.22250
0.22521	2.59991
-0.10631	-2.11902
0.17421	2.44687
0.17421	-5.61358
0.27621	-3.24136
0.40372	-0.66508
0.32721	1.12046
-0.08081	2.80397
0.02119	4.64053
0.12320	1.63062
0.22521	-5.30749
0.22521	0.02363
-0.31033	-0.23145
-0.10631	0.73785
0.37822	0.76336
0.32721	0.22769
-0.00431	0.30422
-0.20832	0.32972
0.25071	-0.41000
0.65874	0.94191
0.42922	-1.45582
-0.13181	0.15117
-0.05531	-0.18043
0.32721	-0.15492
-0.13181	1.86019
0.40372	-0.18043
0.02119	-0.92016
0.12320	-4.38921
0.22521	3.16108
0.14870	4.25792
0.25071	-5.15444
0.22521	-0.28246
-0.08081	1.78367
0.02119	1.73265
0.07220	2.14077
0.35272	1.35003
0.30171	3.18659
0.14870	-0.84363
0.12320	0.15117
0.22521	-3.29238
0.40372	1.35003
0.53123	-2.75671
0.14870	-1.20074
-0.08081	-0.25695
0.17421	1.17148
0.32721	1.96222
0.30171	0.45726
0.22521	0.61031
-0.08081	2.21730
-0.13181	1.91120
-0.41233	-2.04250
0.30171	0.32972
0.73524	0.83988
0.32721	0.86539
-0.18282	-0.41000
0.30171	0.89089
0.42922	4.89561
0.70974	-0.69059
0.42922	-7.11854
0.04670	-1.48133
0.14870	3.36515
0.02119	0.55929
-0.08081	0.96742
-0.02981	0.22769
0.07220	2.03874
0.17421	0.94191
0.07220	0.45726
-0.05531	0.15117
0.09770	-1.45582
0.22521	1.32453
0.42922	0.55929
0.37822	0.27871
0.37822	2.16628
0.17421	4.81909
0.02119	-11.60790
0.09770	-3.82804
-0.05531	0.76336
0.37822	2.49788
0.02119	2.01323
-0.02981	0.68683
0.32721	2.16628
0.48022	1.35003
0.07220	0.89089
0.12320	1.42656
0.30171	0.15117
0.35272	1.60511
0.17421	-3.41992
0.19971	0.30422
0.14870	-0.30797
-0.08081	0.63582
-0.00431	0.94191
0.17421	-2.32308
0.12320	-2.34859
0.07220	0.94191
0.42922	0.35523
0.22521	1.50308
-0.25932	3.84979
0.09770	0.45726
0.17421	-3.80253
0.27621	0.55929
0.30171	1.42656
0.04670	1.73265
0.07220	-1.63437
0.07220	-2.55265
0.35272	0.73785
0.35272	-0.33348
0.25071	0.99292
0.30171	1.01843
0.02119	0.02363
-0.28482	1.78367
-0.13181	-0.10391
0.02119	-0.33348
0.42922	-0.63957
0.22521	-0.05289
0.25071	0.22769
0.12320	-1.14973
0.12320	0.55929
0.14870	2.90601
0.19971	-0.20594
0.45472	-1.22625
0.35272	-3.57296
-0.23382	-3.98109
-0.48884	2.49788
-0.38683	5.20170
0.22521	0.25320
0.42922	3.79878
0.14870	1.50308
0.45472	-0.05289
0.81175	2.21730
0.63323	0.63582
0.30171	-3.75152
-0.36133	0.04914
-0.18282	0.76336
0.09770	0.25320
0.19971	0.32972
0.07220	-0.28246
0.17421	0.48277
0.25071	-0.05289
0.32721	-1.43031
0.12320	-0.15492
0.19971	1.22250
0.32721	0.73785
0.32721	0.32972
0.09770	-0.51203
0.02119	-1.35379
-0.08081	0.30422
-0.08081	1.88570
0.30171	1.78367
0.42922	-2.60367
0.30171	-0.12942
0.25071	-1.37929
0.19971	1.60511
0.07220	1.73265
-0.02981	1.88570
-0.00431	-1.55785
0.04670	-1.60887
0.27621	2.44687
0.19971	-0.79262
0.19971	-2.47613
0.22521	0.50828
-0.28482	3.26312
-0.74385	1.93671
-0.13181	1.04394
0.48022	-2.62918
0.30171	-0.97117
0.45472	1.60511
0.45472	2.06425
0.19971	-3.49644
0.32721	-1.78742
0.14870	1.45206
0.07220	0.15117
0.09770	0.96742
0.07220	2.03874
0.07220	-0.53754
0.07220	-0.02739
0.17421	0.48277
0.09770	-0.30797
-0.05531	0.43176
-0.08081	0.30422
-0.00431	0.32972
0.14870	-0.71609
0.32721	1.55410
0.22521	1.68163
0.07220	0.30422
0.17421	-0.79262
0.17421	-0.23145
0.45472	-1.65988
0.53123	2.93151
0.35272	-2.65468
0.04670	-1.30277
-0.46334	2.29382
-0.48884	3.41616
0.04670	1.29902
0.58223	-0.41000
0.48022	0.15117
0.42922	0.27871
0.27621	0.22769
0.12320	-0.84363
0.02119	1.35003
0.12320	-2.01699
0.17421	-0.38449
-0.51434	-1.30277
0.02119	-1.60887
0.17421	0.81437
0.12320	-0.28246
0.09770	1.06945
0.27621	0.78886
0.32721	-0.15492
0.27621	0.91640
0.35272	3.77327
0.32721	-3.95558
0.30171	-3.85355
0.12320	-0.25695
-0.20832	3.00804
-0.08081	1.12046
0.25071	-1.20074
0.27621	1.04394
0.25071	0.50828
0.22521	0.73785
0.14870	0.22769
0.17421	1.78367
0.17421	1.04394
-0.00431	-5.46054
-0.08081	0.96742
0.07220	0.10015
0.12320	-3.08831
-0.08081	1.52859
0.07220	1.45206
0.14870	2.14077
0.25071	0.58480
0.04670	0.76336
-0.13181	-0.18043
0.09770	-0.76711
0.17421	-2.70570
0.30171	0.58480
0.25071	-0.15492
0.25071	1.12046
0.19971	0.63582
0.12320	-1.45582
0.25071	0.58480
0.19971	-1.91496
-0.18282	1.09496
-0.38683	-2.98628
0.09770	-0.38449
-0.10631	2.67644
0.35272	2.31933
0.60773	-0.07840
0.35272	2.85499
0.37822	-1.68539
0.32721	0.04914
0.25071	-3.98109
-0.43783	0.71234
-0.66735	2.88050
0.02119	-3.59847
0.32721	0.83988
0.53123	-0.05289
0.42922	0.91640
0.32721	0.78886
0.25071	-0.56305
0.22521	-0.63957
0.17421	0.45726
0.12320	0.38074
0.12320	-0.20594
-0.00431	2.44687
-0.02981	-0.30797
0.02119	-0.30797
0.02119	0.27871
0.12320	0.35523
0.02119	2.08976
0.07220	-2.17003
0.22521	0.12566
0.17421	0.10015
0.19971	1.70714
0.02119	1.55410
0.07220	-0.61406
0.04670	-1.45582
0.17421	-0.28246
0.07220	0.48277
-0.02981	-1.68539
-0.08081	1.09496
0.19971	3.46718
0.40372	-0.41000
0.25071	-5.84315
0.22521	1.63062
-0.08081	2.67644
-0.38683	2.54890
-0.00431	-4.31269
0.42922	1.78367
0.48022	1.35003
0.25071	2.80397
0.42922	-0.63957
0.25071	-1.07320
0.09770	-1.48133
-0.05531	0.53379
0.02119	0.66132
-0.18282	5.50780
0.12320	-6.73592
0.30171	-4.56776
0.09770	-2.50164
0.19971	3.39065
0.14870	2.82948
0.22521	2.08976
0.19971	0.76336
0.07220	0.32972
0.19971	0.35523
0.19971	-0.00188
0.12320	0.66132
0.07220	2.65093
0.09770	-1.78742
0.27621	-5.20546
0.19971	0.81437
-0.08081	-3.08831
-0.38683	3.69675
-0.13181	1.32453
0.30171	-1.27726
0.30171	2.98253
0.50573	1.06945
0.25071	2.85499
0.17421	-5.33300
0.07220	1.70714
0.09770	3.05905
0.17421	-1.20074
0.17421	1.63062
-0.08081	-2.73121
0.07220	1.17148
0.12320	-0.89465
0.17421	-0.41000
0.04670	0.94191
-0.08081	0.45726
-0.05531	2.11527
0.22521	1.42656
0.30171	-0.63957
0.35272	-2.57816
0.32721	0.66132
0.25071	1.35003
0.17421	0.55929
0.19971	-2.85874
0.19971	-0.89465
0.27621	1.22250
0.04670	0.94191
-0.20832	-0.76711
0.27621	-2.06800
0.25071	1.45206
0.19971	1.24800
-0.00431	1.83468
0.14870	3.36515
0.32721	-3.08831
0.32721	1.06945
0.09770	0.63582
0.09770	0.32972
-0.08081	-0.79262
-0.00431	-0.79262
0.30171	0.86539
0.22521	-1.63437
-0.28482	-3.64948
-0.28482	-0.51203
0.19971	1.88570
0.30171	1.40105
0.40372	-0.69059
0.32721	1.86019
0.02119	-0.00188
0.04670	0.91640
0.07220	2.65093
0.17421	1.35003
0.25071	-7.09303
0.17421	-1.45582
0.19971	3.31413
-0.20832	1.35003
-0.02981	1.78367
0.12320	2.14077
0.17421	1.50308
0.17421	-2.14453
0.25071	-6.02170
0.27621	-0.89465
0.27621	1.52859
0.14870	3.36515
0.19971	2.29382
0.30171	-0.18043
0.14870	1.14597
0.07220	-3.08831
0.07220	1.50308
0.19971	0.71234
0.25071	0.04914
0.12320	0.89089
0.19971	0.10015
0.02119	0.12566
0.04670	-0.97117
0.19971	0.25320
0.19971	2.90601
0.22521	-1.94047
0.07220	-0.02739
0.35272	0.94191
0.50573	-0.69059
-0.02981	0.15117
-0.02981	1.14597
0.07220	-0.33348
0.22521	1.86019
0.07220	-4.15964
-0.18282	-1.37929
0.19971	0.99292
0.53123	3.90081
0.35272	-0.20594
0.27621	-2.57816
0.14870	-0.63957
0.14870	-0.99668
0.09770	1.12046
0.12320	1.68163
0.04670	-0.25695
0.12320	3.23761
-0.00431	-0.71609
0.12320	0.25320
0.19971	-0.28246
0.22521	0.50828
-0.00431	-1.73640
0.12320	-0.56305
0.14870	0.81437
0.09770	-2.39961
0.12320	0.86539
0.09770	1.60511
0.19971	0.02363
0.22521	1.37554
-0.00431	-1.17523
-0.23382	-3.29238
-0.23382	0.83988
-0.18282	0.45726
0.30171	2.82948
0.68424	1.70714
0.65874	-0.74160
0.63323	1.52859
0.35272	1.45206
0.09770	-0.12942
0.17421	1.47757
-0.18282	-1.50683
-0.08081	-0.00188
-0.31033	-2.01699
0.19971	0.94191
0.22521	1.86019
0.30171	2.82948
0.55673	-4.49124
0.22521	-0.15492
0.19971	-0.61406
0.09770	-0.30797
0.19971	0.38074
0.19971	2.62542
0.02119	-1.32828
0.07220	1.27351
-0.18282	0.30422
0.17421	1.14597
0.48022	2.24281
0.37822	-1.60887
0.25071	2.19179
0.22521	-5.05241
0.04670	-0.63957
-0.00431	2.29382
0.30171	-0.00188
0.25071	1.17148
0.04670	2.19179
-0.08081	-0.05289
0.17421	-0.56305
0.25071	-3.03730
0.25071	1.93671
0.12320	2.16628
0.07220	-0.35899
-0.08081	-2.52714
0.07220	0.63582
0.32721	0.63582
0.27621	1.09496
0.12320	-1.58336
-0.15732	2.52339
-0.08081	-2.47613
0.17421	1.14597
0.14870	-0.02739
0.22521	-0.02739
0.22521	1.98773
0.32721	1.32453
0.19971	-1.40480
0.07220	2.01323
-0.18282	-3.47093
0.09770	-1.50683
0.27621	1.12046
0.17421	0.83988
0.32721	-0.10391
0.30171	1.47757
0.07220	0.10015
-0.18282	0.45726
-0.00431	0.76336
0.45472	-0.00188
0.22521	-2.09351
-0.00431	0.58480
-0.48884	2.14077
-0.02981	0.27871
0.58223	-1.86394
0.70974	-1.48133
0.27621	-0.15492
0.22521	0.45726
0.19971	2.21730
0.02119	2.31933
-0.15732	-3.06281
0.02119	2.37034
0.25071	-0.18043
0.09770	1.60511
0.09770	-0.89465
0.04670	-1.07320
0.04670	-0.99668
0.12320	2.52339
0.17421	3.31413
0.22521	-2.80773
0.19971	-2.14453
0.25071	-4.77183
0.22521	2.39585
-0.02981	1.17148
0.04670	1.47757
0.22521	1.78367
0.22521	0.50828
-0.13181	0.63582
0.09770	-0.00188
0.30171	1.27351
0.32721	-0.02739
0.42922	-1.88945
0.12320	0.38074
-0.05531	-3.62398
-0.28482	1.42656
-0.05531	-0.43551
0.35272	0.86539
0.53123	-0.00188
0.09770	1.14597
-0.15732	1.68163
0.27621	1.47757
0.25071	1.29902
0.32721	0.40625
0.35272	0.43176
0.19971	-1.20074
0.04670	-0.69059
-0.00431	-0.46102
-0.20832	-1.58336
-0.38683	1.40105
0.07220	-0.20594
0.30171	0.78886
0.32721	-0.18043
0.35272	1.27351
0.14870	-0.15492
0.22521	2.11527
0.27621	-0.71609
0.02119	-2.50164
0.17421	-0.97117
0.09770	0.96742
0.02119	-1.17523
0.12320	2.65093
0.19971	1.65613
0.19971	0.53379
0.22521	2.57441
0.09770	-0.28246
0.07220	-2.04250
-0.02981	-1.99148
0.17421	0.66132
0.32721	0.17668
0.17421	0.83988
0.09770	4.02835
0.35272	-0.53754
0.22521	-3.36890
0.17421	-2.32308
0.27621	2.90601
-0.08081	0.86539
-0.23382	0.30422
0.02119	-0.76711
0.14870	2.06425
0.30171	1.88570
0.19971	1.01843
0.25071	1.32453
0.40372	0.89089
0.32721	0.17668
0.14870	-0.63957
-0.36133	-1.17523
-0.28482	-0.30797
0.22521	-1.12422
0.14870	1.06945
0.30171	0.04914
0.19971	-2.55265
0.09770	2.42136
0.19971	2.34484
0.32721	-3.31788
0.19971	-2.80773
0.07220	2.54890
0.19971	1.75816
0.12320	4.79358
0.22521	-3.06281
0.22521	0.07465
0.25071	2.54890
0.25071	-1.07320
0.30171	1.35003
0.27621	-0.61406
0.17421	2.31933
0.12320	1.86019
-0.56534	-5.66460
0.04670	-4.41472
0.65874	2.03874
0.60773	0.38074
0.40372	3.26312
0.27621	-1.40480
0.02119	0.86539
0.02119	0.91640
0.09770	-0.43551
0.30171	1.98773
0.30171	0.81437
0.14870	0.10015
-0.02981	0.25320
-0.10631	-0.99668
0.32721	-1.68539
0.25071	0.71234
-0.02981	0.20219
-0.02981	-1.20074
-0.08081	-1.78742
0.19971	0.10015
0.27621	1.09496
0.30171	-0.30797
0.09770	3.41616
0.25071	0.25320
0.40372	-0.30797
0.32721	-4.03210
0.04670	-0.94566
-0.20832	1.40105
0.07220	1.75816
0.02119	1.63062
-0.31033	2.90601
-0.15732	2.82948
0.32721	-3.11382
0.42922	-3.08831
0.35272	-2.22105
0.19971	-2.73121
0.14870	1.55410
0.12320	1.47757
0.07220	1.93671
0.12320	4.20690
0.14870	-2.11902
0.19971	1.75816
0.04670	0.43176
0.17421	-5.86866
0.12320	-1.83844
0.12320	-0.05289
0.27621	1.12046
0.32721	2.90601
0.30171	1.63062
0.17421	0.12566
0.30171	-0.53754
0.27621	0.17668
0.22521	0.20219
0.22521	0.76336
0.25071	0.04914
0.30171	-1.09871
0.32721	0.40625
-0.02981	-0.51203
-0.08081	-1.71090
-0.33583	-0.56305
-0.20832	1.22250
0.42922	-1.12422
0.42922	0.68683
0.48022	1.47757
0.09770	0.83988
0.25071	1.12046
-0.02981	1.50308
0.12320	0.04914
0.32721	-1.96597
0.14870	0.32972
0.02119	3.51819
0.27621	-7.50115
0.17421	-1.88945
0.17421	2.06425
-0.08081	4.30893
0.09770	-1.73640
0.19971	0.86539
0.12320	-0.84363
0.09770	0.83988
0.17421	1.96222
0.17421	-1.48133
0.14870	-0.12942
0.30171	-0.25695
0.14870	-3.11382
0.22521	0.04914
0.17421	2.49788
0.14870	1.80917
0.14870	-1.40480
0.09770	0.45726
-0.15732	3.11007
-0.13181	2.16628
0.04670	-0.25695
0.40372	-0.23145
0.22521	-1.63437
0.42922	-3.67499
0.25071	-0.33348
0.40372	0.40625
0.12320	-0.30797
0.02119	0.04914
-0.25932	2.39585
-0.28482	2.54890
-0.08081	-0.76711
0.09770	0.91640
0.27621	1.27351
0.35272	-1.48133
0.40372	0.04914
0.42922	0.45726
0.48022	-1.12422
0.35272	0.45726
-0.20832	0.25320
-0.43783	-0.46102
0.22521	0.86539
0.32721	-0.23145
0.17421	1.75816
0.32721	-0.41000
0.35272	0.53379
0.19971	0.89089
-0.10631	-3.31788
0.14870	3.56921
0.25071	-5.12893
-0.05531	-2.93527
-0.00431	2.21730
0.07220	1.35003
0.22521	2.03874
0.14870	-0.18043
0.25071	2.72745
0.45472	-0.46102
0.35272	1.93671
-0.00431	-1.50683
0.07220	-1.58336
0.22521	0.53379
0.09770	0.38074
0.12320	-1.04770
0.07220	1.12046
0.19971	1.57960
0.19971	-0.99668
0.12320	-3.08831
-0.13181	-2.80773
-0.46334	1.29902
-0.05531	1.93671
0.37822	2.03874
0.45472	0.35523
0.53123	1.57960
0.55673	2.08976
0.25071	-1.78742
0.14870	-1.88945
-0.18282	0.71234
-0.13181	1.60511
0.09770	0.17668
0.22521	0.61031
0.25071	2.59991
0.32721	-0.76711
0.09770	-1.91496
-0.05531	0.38074
-0.20832	0.07465
0.02119	2.01323
0.30171	-7.78174
0.32721	0.68683
0.22521	2.47238
0.14870	1.19699
0.04670	1.60511
0.27621	0.30422
0.17421	-0.97117
0.14870	0.76336
-0.36133	0.53379
-0.10631	0.02363
0.60773	2.65093
0.68424	-4.59327
0.22521	0.15117
0.02119	-2.17003
0.22521	-3.01179
0.25071	0.53379
0.02119	1.27351
0.07220	1.57960
0.09770	0.96742
-0.02981	0.50828
0.19971	1.14597
0.04670	0.81437
0.09770	0.20219
0.12320	0.12566
0.12320	-0.33348
0.12320	-0.66508
0.09770	0.22769
0.22521	0.20219
0.17421	-0.63957
0.09770	-0.86914
0.17421	0.04914
0.27621	0.66132
0.27621	0.17668
0.27621	0.38074
0.19971	0.12566
0.14870	-0.25695
0.30171	0.94191
0.30171	1.98773
0.30171	2.80397
0.30171	1.09496
0.12320	-6.07272
0.02119	-6.04721
-0.08081	1.88570
0.02119	4.13038
-0.00431	3.82429
0.22521	-1.83844
0.30171	3.23761
0.32721	2.26831
0.32721	-1.58336
0.19971	2.01323
0.12320	-1.40480
0.09770	-1.63437
0.04670	-0.15492
0.02119	-1.50683
-0.31033	0.99292
-0.20832	-0.12942
-0.05531	-0.12942
0.37822	-2.29757
0.42922	0.94191
0.50573	0.63582
0.30171	1.12046
0.30171	1.19699
0.19971	1.14597
0.22521	-0.76711
0.07220	0.63582
-0.20832	-0.56305
-0.10631	-0.92016
0.32721	1.01843
0.42922	1.35003
0.35272	0.15117
0.32721	0.25320
0.27621	-1.14973
0.12320	-0.86914
-0.23382	0.35523
-0.08081	0.61031
0.07220	0.53379
0.50573	-3.08831
0.32721	1.04394
0.32721	1.17148
0.32721	3.16108
0.09770	3.82429
-0.48884	-7.11854
-0.18282	1.29902
0.42922	-2.01699
0.53123	1.73265
0.42922	1.35003
0.30171	0.91640
0.12320	-3.93007
0.04670	3.23761
-0.00431	1.60511
0.12320	-2.60367
0.02119	2.47238
-0.08081	3.18659
0.09770	-3.52195
0.17421	-9.97541
0.35272	0.61031
0.22521	2.26831
0.09770	2.01323
0.22521	2.77847
0.19971	1.80917
0.17421	0.96742
0.12320	2.08976
0.12320	-1.99148
0.19971	-1.37929
0.12320	-0.28246
0.09770	0.66132
0.17421	0.71234
0.22521	1.98773
0.22521	-0.94566
0.22521	-0.94566
-0.15732	0.73785
-0.25932	2.19179
0.37822	-3.52195
0.42922	0.35523
0.19971	1.42656
0.40372	3.56921
0.42922	0.94191
0.32721	-2.32308
0.32721	-0.15492
0.25071	1.42656
0.14870	1.91120
0.02119	-1.63437
0.04670	-1.55785
0.14870	0.55929
0.02119	1.42656
-0.08081	3.08456
0.27621	-2.42511
0.55673	-2.34859
0.27621	-1.50683
-0.00431	1.29902
0.40372	1.63062
0.35272	0.04914
0.25071	-1.99148
0.12320	0.99292
0.09770	3.00804
0.14870	-0.53754
0.12320	-1.48133
0.19971	-0.23145
0.17421	2.39585
-0.10631	-2.55265
-0.02981	2.59991
-0.00431	-2.68019
0.19971	-0.28246
0.32721	3.21210
