0.12320	0.48277
0.12320	-0.25695
0.12320	-0.35899
0.12320	0.38074
0.17421	-0.35899
0.14870	0.45726
0.17421	0.81437
0.14870	1.29902
0.19971	0.55929
0.22521	-0.07840
0.22521	-1.17523
0.19971	0.68683
0.19971	1.47757
0.22521	0.89089
0.22521	-1.32828
0.19971	-0.71609
0.19971	0.48277
0.22521	0.12566
0.14870	0.32972
0.12320	0.58480
0.12320	-0.15492
0.14870	0.66132
0.04670	0.55929
0.12320	0.17668
0.07220	0.12566
0.09770	-0.10391
0.12320	-0.05289
0.09770	-0.00188
0.09770	0.04914
0.09770	-0.00188
0.12320	-0.00188
0.14870	0.02363
0.12320	0.10015
0.12320	0.07465
0.14870	0.15117
0.14870	0.32972
0.14870	0.30422
0.19971	0.17668
0.14870	0.35523
0.14870	0.86539
0.22521	0.15117
0.19971	0.07465
0.12320	-0.46102
0.14870	0.02363
0.14870	0.27871
0.17421	0.89089
0.12320	-0.00188
0.12320	0.61031
0.14870	-0.10391
0.14870	0.55929
0.09770	0.99292
0.04670	-0.66508
0.07220	-1.58336
0.09770	-0.28246
0.07220	0.91640
0.07220	1.17148
0.09770	0.43176
0.07220	0.81437
0.09770	-0.35899
0.12320	0.45726
0.09770	0.04914
0.09770	-1.12422
0.07220	0.48277
0.09770	0.04914
0.12320	0.15117
0.19971	0.32972
0.22521	0.27871
0.14870	0.04914
0.14870	0.12566
0.17421	0.10015
0.04670	0.20219
0.07220	-0.00188
0.07220	0.10015
0.04670	0.10015
0.07220	0.32972
0.09770	-0.23145
0.14870	0.25320
0.17421	0.35523
0.17421	0.55929
0.17421	0.27871
0.14870	-0.35899
0.12320	0.22769
0.17421	0.45726
0.17421	0.35523
0.19971	0.68683
0.19971	-1.04770
0.17421	0.76336
0.22521	0.22769
0.09770	0.35523
0.09770	0.02363
0.12320	-0.51203
0.12320	0.53379
0.09770	0.27871
0.12320	-0.92016
0.17421	0.35523
0.14870	0.96742
0.17421	-0.89465
0.22521	1.12046
0.25071	1.83468
0.22521	-0.81812
0.17421	-2.37410
0.19971	1.09496
0.14870	0.94191
0.17421	0.78886
0.22521	0.40625
0.14870	0.50828
0.14870	0.25320
0.12320	0.10015
0.04670	-0.02739
0.12320	-0.05289
0.19971	-0.05289
0.17421	0.12566
0.09770	0.15117
0.12320	-0.10391
0.17421	-0.92016
0.12320	0.22769
0.02119	0.53379
0.09770	0.50828
0.04670	0.15117
0.07220	-0.33348
0.14870	0.66132
0.14870	0.68683
0.09770	0.50828
0.09770	0.04914
0.14870	0.07465
0.14870	0.17668
0.09770	0.35523
0.19971	0.25320
0.19971	-0.46102
0.17421	-0.53754
0.12320	0.48277
0.12320	0.71234
0.09770	0.55929
0.17421	-0.58856
0.17421	-1.91496
0.19971	1.14597
0.22521	0.68683
0.19971	0.76336
0.12320	0.81437
0.17421	1.04394
0.19971	0.17668
0.17421	-3.16484
0.09770	0.40625
0.12320	1.22250
0.14870	0.45726
0.17421	0.50828
0.09770	-1.22625
0.07220	0.30422
0.07220	0.63582
0.14870	0.43176
0.04670	0.73785
0.07220	0.25320
0.12320	-0.25695
0.14870	-0.63957
0.14870	0.15117
0.14870	0.25320
0.14870	0.17668
0.17421	0.30422
0.19971	0.25320
0.12320	0.22769
0.19971	0.20219
0.19971	0.25320
0.12320	0.22769
0.09770	0.15117
0.14870	0.12566
0.12320	0.15117
0.19971	0.12566
0.14870	0.17668
0.12320	0.50828
0.17421	-1.14973
0.19971	0.81437
0.12320	0.50828
0.14870	-0.51203
0.09770	0.96742
0.09770	-0.48652
0.19971	0.30422
0.17421	0.71234
0.17421	0.12566
0.09770	0.27871
0.04670	0.96742
0.09770	-0.86914
0.09770	0.71234
0.22521	-1.68539
0.19971	0.04914
0.19971	0.83988
0.14870	0.55929
0.14870	0.07465
0.09770	0.99292
0.09770	-0.74160
0.09770	0.27871
0.14870	0.25320
0.14870	0.07465
0.07220	0.12566
0.09770	0.12566
0.14870	0.12566
0.17421	0.22769
0.14870	0.15117
0.12320	0.10015
0.22521	0.22769
0.25071	0.35523
0.22521	0.17668
0.17421	0.15117
0.14870	0.20219
0.12320	0.15117
0.14870	0.10015
0.17421	0.22769
0.12320	0.10015
0.09770	0.12566
0.12320	0.22769
0.14870	0.55929
0.14870	-0.02739
0.17421	-0.05289
0.17421	0.66132
0.19971	0.55929
0.22521	-0.99668
0.14870	-1.09871
0.14870	-1.40480
0.12320	-0.02739
0.07220	1.68163
0.09770	1.60511
0.14870	0.81437
0.09770	-0.15492
0.17421	0.15117
0.22521	0.43176
0.14870	0.30422
0.17421	0.07465
0.17421	0.17668
0.17421	-0.41000
0.14870	-0.58856
0.17421	0.10015
0.09770	-0.10391
0.09770	-0.02739
0.12320	0.35523
-0.00431	0.07465
0.09770	0.32972
0.09770	0.22769
0.19971	0.25320
0.19971	0.02363
0.19971	0.27871
0.22521	0.48277
0.22521	0.30422
0.19971	0.20219
0.19971	0.20219
0.14870	0.02363
0.12320	0.04914
0.14870	0.10015
0.12320	0.17668
0.14870	0.38074
0.09770	0.22769
0.09770	0.55929
0.09770	-2.27207
0.09770	0.63582
0.07220	0.96742
0.19971	0.63582
0.25071	-0.41000
0.17421	0.15117
0.14870	0.48277
0.19971	0.38074
0.17421	0.38074
0.07220	0.38074
0.12320	-0.00188
0.17421	-0.12942
0.09770	-0.20594
0.07220	-0.05289
0.07220	0.12566
0.04670	0.53379
0.07220	0.22769
0.12320	-1.37929
0.17421	-0.18043
0.09770	0.89089
0.14870	-0.38449
0.07220	-0.56305
0.12320	1.14597
0.14870	0.58480
0.09770	0.22769
0.09770	0.02363
0.09770	0.35523
0.14870	0.27871
0.12320	0.17668
0.19971	0.15117
0.25071	0.02363
0.14870	-0.02739
0.09770	0.10015
0.04670	-0.15492
0.14870	0.32972
0.12320	-0.38449
0.22521	0.43176
0.25071	-0.30797
0.12320	0.71234
0.14870	-1.02219
0.07220	0.78886
0.09770	-0.38449
0.09770	0.71234
0.09770	0.71234
0.14870	-0.15492
0.22521	0.35523
0.25071	0.35523
0.12320	0.22769
0.14870	0.17668
0.12320	-0.00188
0.09770	-0.07840
0.04670	0.07465
0.04670	-0.02739
0.04670	0.15117
0.04670	-0.86914
0.09770	0.76336
0.12320	0.86539
0.17421	-1.27726
0.19971	0.15117
0.22521	1.65613
0.17421	-0.84363
0.12320	-0.76711
0.12320	0.76336
0.17421	0.53379
0.09770	0.61031
0.09770	0.68683
0.12320	0.25320
0.17421	-0.15492
0.17421	-0.12942
0.14870	-0.86914
0.12320	-0.10391
0.22521	0.40625
0.12320	0.35523
0.17421	0.35523
0.22521	0.45726
0.14870	0.55929
0.17421	0.02363
0.17421	-1.32828
0.12320	0.78886
0.14870	1.60511
0.09770	-1.40480
0.07220	0.04914
0.04670	0.43176
0.12320	0.45726
0.14870	0.32972
0.17421	0.27871
0.14870	0.25320
0.17421	0.15117
0.22521	0.12566
0.19971	0.20219
0.17421	-0.02739
0.17421	0.04914
0.19971	0.04914
0.09770	-0.00188
0.12320	0.25320
0.17421	0.53379
0.17421	0.86539
0.17421	-2.06800
0.12320	0.50828
0.12320	1.06945
0.07220	-0.18043
0.14870	0.17668
0.09770	0.71234
0.12320	-1.25176
0.14870	0.61031
0.14870	0.89089
0.09770	1.06945
0.12320	-2.83324
0.14870	0.27871
0.17421	0.53379
0.14870	0.61031
0.14870	0.38074
0.12320	0.07465
0.09770	-0.15492
0.17421	0.68683
0.19971	0.20219
0.22521	0.04914
0.09770	-1.32828
0.07220	0.25320
0.14870	0.43176
0.12320	0.53379
0.19971	0.53379
0.17421	0.30422
0.22521	0.10015
0.14870	0.20219
0.17421	-1.12422
0.14870	0.73785
0.14870	-0.10391
0.17421	0.43176
0.17421	0.71234
0.14870	0.35523
0.09770	0.25320
0.12320	0.02363
0.12320	-0.10391
0.17421	-0.00188
0.17421	-0.10391
0.02119	0.17668
0.07220	0.35523
0.09770	-0.10391
0.07220	-1.02219
0.14870	0.68683
0.17421	0.76336
0.02119	0.61031
0.07220	0.25320
0.07220	0.04914
0.09770	-0.58856
0.09770	0.50828
0.02119	0.40625
0.09770	0.27871
0.12320	-0.15492
0.07220	-0.61406
0.12320	0.12566
0.09770	0.50828
0.14870	0.78886
0.14870	0.73785
0.17421	-1.30277
0.17421	-0.35899
0.17421	0.76336
0.17421	0.22769
0.19971	-0.28246
0.17421	0.81437
0.17421	0.53379
0.12320	0.45726
0.14870	0.30422
0.14870	0.38074
0.12320	0.27871
0.09770	0.66132
0.12320	-2.39961
0.17421	0.32972
0.12320	0.48277
0.04670	0.58480
0.09770	0.22769
0.04670	0.15117
0.12320	0.17668
0.12320	0.15117
0.14870	0.15117
0.14870	0.17668
0.17421	0.15117
0.17421	0.04914
0.17421	0.10015
0.12320	0.22769
0.09770	0.07465
0.09770	0.12566
0.17421	0.10015
0.14870	0.15117
0.17421	0.10015
0.12320	0.30422
0.14870	0.22769
0.12320	1.45206
0.09770	-1.35379
0.12320	-0.86914
0.14870	-0.84363
0.12320	1.17148
0.22521	1.27351
0.17421	0.76336
0.17421	-0.38449
0.09770	0.35523
0.04670	0.25320
0.07220	0.25320
0.07220	0.43176
0.09770	0.40625
0.17421	-1.32828
0.09770	0.81437
0.19971	-1.17523
0.17421	-1.14973
0.17421	0.63582
0.19971	0.53379
0.14870	0.55929
0.17421	0.61031
0.12320	0.61031
0.04670	0.91640
0.12320	-2.27207
0.12320	0.25320
0.19971	-0.61406
0.17421	0.66132
0.19971	0.86539
0.22521	0.53379
0.19971	0.30422
0.17421	0.12566
0.17421	0.04914
0.07220	-0.05289
0.07220	-0.07840
0.09770	-0.15492
0.14870	0.02363
0.12320	-0.05289
0.12320	0.10015
0.19971	0.22769
0.19971	0.50828
0.22521	0.73785
0.17421	0.02363
0.09770	0.45726
0.09770	-2.01699
0.14870	-0.53754
0.09770	0.96742
0.09770	0.30422
0.09770	0.73785
0.09770	0.61031
0.09770	0.45726
0.07220	0.20219
0.07220	0.07465
0.09770	0.02363
0.02119	-0.30797
0.02119	-0.25695
0.14870	0.25320
0.14870	0.04914
0.17421	-0.12942
0.25071	0.27871
0.27621	-0.76711
0.25071	-1.22625
0.25071	1.35003
0.19971	0.71234
0.17421	0.63582
0.17421	0.50828
0.14870	-1.22625
0.22521	1.01843
0.22521	-1.40480
0.14870	0.81437
0.12320	0.43176
0.09770	0.43176
0.09770	0.66132
0.14870	-0.48652
0.12320	0.04914
0.14870	-0.30797
0.19971	0.66132
0.22521	0.25320
0.19971	0.22769
0.17421	-1.02219
0.14870	-0.41000
0.12320	1.01843
0.12320	0.91640
0.07220	0.48277
0.09770	0.30422
0.12320	-0.46102
0.04670	0.10015
0.07220	0.04914
0.12320	-0.00188
0.07220	-0.12942
0.09770	0.07465
0.19971	0.27871
0.17421	0.02363
0.12320	-0.05289
0.12320	-0.02739
0.12320	-0.00188
0.04670	0.25320
0.07220	0.35523
0.09770	-0.28246
0.12320	-0.18043
0.09770	-0.02739
0.07220	0.94191
0.07220	-0.58856
0.07220	0.63582
0.07220	-1.02219
0.09770	0.50828
0.04670	0.83988
0.07220	-0.33348
0.19971	0.25320
0.19971	0.25320
0.12320	0.32972
0.19971	-0.18043
0.14870	0.50828
0.04670	0.02363
0.04670	-0.15492
0.04670	-0.79262
0.09770	-0.07840
0.12320	0.25320
0.17421	0.86539
0.17421	0.66132
0.19971	-0.48652
0.17421	-1.76191
0.14870	0.61031
0.22521	1.12046
0.12320	0.81437
0.12320	0.35523
0.14870	0.17668
0.12320	0.20219
0.14870	0.10015
0.12320	-0.00188
0.12320	-0.02739
0.17421	-0.28246
0.17421	0.02363
0.12320	0.63582
0.12320	-0.07840
0.22521	-0.46102
0.22521	0.43176
0.19971	0.40625
0.19971	0.22769
0.17421	0.38074
0.25071	0.55929
0.25071	0.78886
0.22521	-1.35379
0.19971	0.20219
0.22521	0.81437
0.19971	-1.55785
0.22521	0.96742
0.25071	0.73785
0.25071	0.50828
0.22521	0.32972
0.22521	0.38074
0.22521	0.50828
0.19971	0.15117
0.19971	-0.74160
0.17421	0.04914
0.09770	0.32972
0.12320	0.58480
0.12320	-0.71609
0.19971	-1.48133
0.17421	0.58480
0.19971	0.71234
0.17421	0.94191
0.17421	0.76336
0.19971	-0.05289
0.22521	-0.43551
0.17421	0.40625
0.17421	0.45726
0.19971	0.38074
0.19971	0.32972
0.22521	0.15117
0.19971	0.17668
0.14870	0.17668
0.14870	0.12566
0.14870	0.10015
0.17421	0.02363
0.12320	-0.02739
0.12320	0.30422
0.14870	-0.12942
0.07220	0.20219
0.07220	0.32972
0.07220	0.10015
0.19971	-0.61406
0.19971	-0.00188
0.17421	0.43176
0.19971	0.40625
0.19971	0.53379
0.19971	0.73785
0.25071	-0.33348
0.17421	-0.81812
0.14870	0.58480
0.17421	0.45726
0.12320	0.38074
0.14870	0.38074
0.17421	0.63582
0.17421	0.76336
0.12320	-3.21585
0.17421	0.55929
0.14870	1.01843
0.09770	0.35523
0.07220	-0.18043
0.14870	0.53379
0.09770	0.55929
0.07220	0.63582
0.07220	-0.94566
0.02119	-0.79262
0.02119	0.32972
0.17421	0.40625
0.17421	0.30422
0.19971	0.25320
0.19971	0.15117
0.22521	0.43176
0.22521	0.61031
0.22521	-0.15492
0.19971	-0.89465
0.19971	0.43176
0.17421	0.66132
0.12320	0.81437
0.17421	-0.15492
0.09770	-0.61406
0.09770	1.47757
0.07220	-1.09871
0.07220	0.35523
0.07220	1.12046
0.17421	1.04394
0.17421	0.25320
0.04670	-3.19035
0.02119	0.45726
0.09770	-0.35899
0.14870	2.24281
0.19971	0.78886
0.22521	2.26831
0.25071	-0.05289
0.14870	-2.45062
0.17421	-1.32828
0.12320	3.49268
0.12320	2.49788
0.27621	-5.38401
0.14870	1.27351
-0.13181	-0.89465
0.07220	-2.04250
0.25071	5.35475
0.12320	8.56873
0.32721	-6.93998
0.63323	1.60511
0.53123	0.45726
0.17421	-0.76711
0.09770	-1.96597
-0.36133	3.39065
-0.64185	2.52339
-0.20832	-7.52666
0.25071	8.90033
0.53123	-0.66508
0.37822	-0.35899
0.27621	-1.65988
0.53123	0.25320
0.40372	8.26263
0.35272	-4.03210
0.37822	-1.27726
-0.00431	-3.41992
-0.48884	2.57441
-0.53984	4.89561
0.22521	-0.38449
0.55673	-6.30229
0.27621	0.35523
0.12320	-1.25176
-0.08081	4.07936
-0.08081	1.40105
-0.18282	-0.76711
0.25071	-11.93950
0.70974	3.95182
0.73524	5.43127
0.48022	1.04394
0.19971	1.73265
-0.02981	7.49740
-0.10631	1.35003
-0.10631	-1.43031
0.25071	-12.93431
-0.00431	-2.80773
0.07220	1.78367
-0.25932	3.82429
-0.23382	3.64573
-0.05531	2.47238
0.12320	1.24800
0.53123	2.77847
0.53123	0.35523
0.58223	1.78367
-0.18282	-8.62350
-0.36133	0.32972
0.30171	-0.92016
0.45472	0.81437
0.58223	-0.97117
0.37822	2.08976
0.27621	3.36515
0.17421	2.37034
0.25071	0.99292
0.04670	-5.86866
-0.15732	-2.32308
0.02119	1.68163
0.58223	6.17100
0.40372	-3.31788
-0.41233	4.94663
-0.43783	-1.27726
-0.92237	-0.12942
-0.28482	-1.14973
0.91375	3.13558
1.24527	2.26831
0.93925	0.15117
0.60773	1.37554
0.42922	2.42136
0.22521	-2.42511
-0.08081	1.37554
-0.28482	-5.66460
-0.38683	2.90601
-0.51434	-2.60367
-0.23382	-3.49644
0.12320	-1.27726
-0.13181	-2.80773
0.30171	-1.37929
0.48022	-1.17523
0.19971	4.41096
0.40372	3.72225
0.22521	-0.30797
-0.20832	5.07416
-0.00431	2.34484
0.42922	3.03355
0.42922	-6.14924
0.53123	-12.80677
0.32721	2.16628
0.19971	3.51819
-0.13181	3.21210
-0.13181	2.77847
0.12320	0.63582
0.07220	6.63014
0.30171	-4.10862
0.45472	-5.35850
0.25071	-0.97117
0.02119	3.82429
0.07220	0.30422
0.07220	2.26831
0.09770	-0.53754
0.17421	0.63582
0.07220	-3.36890
0.45472	0.04914
-0.08081	0.55929
-0.36133	-0.05289
-0.13181	4.02835
-0.23382	-5.89417
0.27621	-1.48133
0.60773	1.29902
0.60773	1.40105
0.73524	1.47757
0.42922	2.57441
0.42922	1.12046
0.22521	-0.18043
0.07220	2.34484
0.02119	-2.68019
-0.10631	-2.52714
-0.18282	3.51819
-0.20832	1.45206
-0.08081	-10.38353
-0.13181	0.81437
0.17421	3.26312
0.32721	3.97733
0.35272	2.57441
0.37822	3.16108
0.27621	2.11527
0.40372	-5.40952
0.50573	0.96742
0.25071	-13.36794
-0.00431	3.77327
0.07220	0.55929
-0.18282	3.41616
-0.02981	1.40105
0.07220	0.20219
-0.05531	2.06425
0.17421	1.27351
0.27621	-3.67499
0.07220	-1.94047
0.14870	-0.81812
0.12320	1.40105
0.12320	3.46718
0.25071	-0.10391
0.02119	0.10015
0.07220	0.68683
0.22521	-1.02219
0.22521	-1.99148
0.25071	-0.15492
0.19971	1.50308
-0.05531	1.35003
0.04670	0.48277
0.19971	-1.86394
0.12320	3.39065
-0.02981	-2.55265
0.02119	-2.39961
0.09770	5.38026
0.19971	5.86491
0.22521	-14.56680
0.30171	-3.11382
0.19971	2.26831
0.09770	3.36515
0.17421	3.92632
0.07220	1.42656
0.09770	-0.15492
-0.10631	-3.72601
-0.23382	-1.22625
0.04670	-3.01179
0.14870	1.57960
0.30171	3.16108
0.35272	0.73785
0.48022	1.55410
0.42922	1.17148
0.27621	-0.43551
0.14870	0.71234
0.17421	2.70194
0.14870	-10.25599
-0.20832	-1.86394
-0.28482	1.29902
0.02119	-0.18043
0.09770	2.03874
0.07220	3.00804
0.25071	-1.04770
0.27621	1.19699
0.25071	1.91120
0.14870	4.15589
0.32721	-9.05713
0.22521	1.04394
0.22521	3.77327
0.04670	-0.05289
-0.00431	1.50308
-0.28482	1.52859
-0.53984	-0.79262
-0.08081	1.91120
0.48022	2.67644
0.45472	-2.39961
0.50573	-6.99100
0.32721	-0.07840
0.22521	-0.35899
0.19971	2.85499
0.02119	1.40105
0.02119	1.57960
0.09770	4.43647
0.02119	-3.49644
0.32721	-3.85355
0.14870	-1.27726
-0.02981	-0.66508
0.07220	-1.37929
0.07220	-0.10391
0.12320	-0.00188
0.12320	1.29902
0.19971	1.09496
0.09770	0.53379
-0.10631	0.55929
-0.00431	-1.40480
0.32721	-1.76191
0.30171	0.17668
0.32721	-1.53234
0.19971	1.50308
0.17421	0.07465
0.14870	0.89089
-0.08081	3.84979
0.04670	-3.62398
0.07220	-3.57296
0.09770	-3.62398
0.02119	-0.94566
-0.20832	3.84979
-0.02981	2.49788
0.35272	2.88050
0.07220	1.78367
-0.00431	-0.15492
-0.10631	-0.69059
-0.10631	2.08976
0.22521	-0.79262
0.37822	-2.14453
0.27621	1.42656
0.22521	-0.15492
0.27621	-9.36322
0.37822	-7.65420
-0.15732	1.37554
-0.20832	3.72225
-0.02981	2.82948
0.40372	4.46198
0.30171	-1.02219
0.45472	-0.97117
0.32721	1.52859
0.19971	0.32972
0.19971	-1.40480
0.04670	2.26831
0.09770	1.60511
0.04670	-1.04770
-0.02981	-1.07320
0.12320	0.12566
0.32721	2.42136
0.27621	-1.07320
0.09770	0.66132
-0.02981	1.22250
0.04670	-2.27207
0.09770	-7.75623
-0.00431	-0.12942
0.17421	1.98773
0.02119	3.08456
0.09770	1.91120
0.30171	-0.25695
0.14870	2.34484
0.25071	1.73265
0.32721	-3.75152
0.30171	-0.76711
0.27621	-0.12942
0.32721	0.89089
0.12320	3.49268
0.04670	0.71234
-0.00431	-0.89465
-0.00431	3.00804
0.35272	-5.30749
0.32721	1.17148
0.35272	-0.69059
0.14870	0.30422
0.07220	1.65613
0.22521	1.70714
0.42922	0.63582
0.17421	-1.91496
0.22521	-1.43031
0.14870	0.78886
0.04670	-0.94566
-0.00431	0.63582
0.07220	0.68683
0.09770	1.14597
0.09770	1.09496
0.12320	2.26831
0.04670	-4.33819
0.19971	3.77327
0.30171	-4.79733
0.22521	1.45206
0.04670	-2.75671
0.32721	3.00804
0.27621	-1.20074
0.14870	2.95702
-0.00431	2.54890
-0.28482	1.83468
-0.02981	-0.56305
0.22521	-3.49644
0.30171	-0.51203
0.27621	1.17148
0.37822	0.15117
0.32721	0.76336
0.32721	1.88570
0.14870	0.48277
0.12320	-1.07320
0.09770	-0.94566
0.07220	-1.09871
-0.02981	1.45206
0.12320	-2.83324
0.12320	4.23241
0.14870	1.42656
0.17421	-7.32260
0.45472	-0.79262
0.35272	3.39065
0.30171	4.76807
0.19971	1.50308
-0.08081	1.37554
0.37822	-0.97117
0.22521	1.88570
0.45472	-4.31269
0.25071	-2.22105
-0.00431	0.22769
-0.08081	1.75816
-0.10631	-1.14973
0.07220	1.52859
0.32721	-0.43551
0.22521	1.57960
0.22521	0.50828
0.19971	2.57441
0.22521	-2.42511
0.07220	1.98773
-0.02981	-3.57296
0.07220	-4.38921
-0.15732	-0.86914
0.12320	1.63062
0.04670	0.40625
0.14870	0.10015
0.27621	2.16628
0.30171	1.14597
0.30171	2.16628
0.42922	-1.50683
0.42922	-0.15492
0.14870	0.17668
0.14870	-4.66979
0.04670	0.73785
0.19971	-0.28246
0.17421	0.27871
-0.00431	-1.76191
-0.05531	1.17148
0.35272	2.34484
0.19971	2.24281
0.14870	-1.48133
0.14870	0.40625
0.12320	-1.09871
0.22521	0.83988
0.04670	1.88570
0.19971	-0.41000
0.09770	1.09496
-0.18282	-2.52714
-0.00431	-0.92016
0.42922	-1.17523
0.45472	-3.19035
0.27621	0.02363
0.12320	1.12046
0.07220	0.96742
0.12320	2.57441
-0.00431	1.04394
0.02119	0.76336
0.12320	1.75816
-0.00431	-3.75152
0.35272	0.61031
0.25071	-1.04770
0.22521	-4.89936
0.22521	1.35003
0.09770	1.83468
0.12320	1.78367
-0.05531	3.08456
-0.08081	-0.74160
0.32721	0.86539
0.19971	-0.86914
0.09770	2.77847
0.37822	-5.20546
0.27621	2.08976
0.22521	0.94191
0.04670	1.06945
0.07220	-0.99668
0.02119	1.60511
0.09770	2.72745
0.25071	-0.94566
0.32721	-2.19554
0.17421	-0.81812
0.09770	1.73265
0.12320	-1.58336
-0.02981	2.01323
0.14870	2.95702
0.07220	-5.74112
0.22521	-4.18515
0.12320	4.15589
0.12320	-0.28246
0.17421	-2.73121
0.12320	2.54890
0.17421	2.85499
0.04670	1.86019
-0.08081	-1.94047
0.02119	0.71234
-0.00431	4.28343
0.17421	-0.43551
0.27621	-10.43455
0.30171	0.89089
0.27621	1.22250
0.19971	1.50308
0.12320	-0.35899
0.04670	4.07936
0.17421	0.30422
-0.00431	-2.29757
0.02119	-0.15492
0.12320	-1.53234
0.30171	2.31933
0.12320	2.08976
0.30171	-3.01179
0.09770	-1.37929
0.12320	-1.20074
0.37822	3.59471
0.27621	0.20219
0.14870	0.22769
0.12320	-0.63957
-0.10631	1.57960
0.14870	-0.66508
0.22521	-1.73640
0.19971	-0.25695
0.30171	2.95702
0.19971	-4.77183
-0.15732	1.63062
0.02119	-0.46102
0.27621	1.70714
0.32721	3.18659
0.17421	0.45726
0.30171	-3.36890
0.40372	0.68683
0.17421	1.04394
-0.18282	-0.10391
0.09770	0.45726
0.32721	-0.38449
0.27621	0.61031
0.30171	1.63062
0.17421	1.24800
0.14870	-3.72601
0.09770	1.93671
-0.00431	0.45726
0.12320	-11.30181
0.07220	0.55929
0.12320	3.62022
0.37822	3.90081
0.22521	0.73785
0.27621	1.29902
0.07220	1.12046
-0.05531	0.76336
0.04670	2.49788
0.09770	-1.55785
0.09770	-3.36890
0.17421	0.15117
0.19971	2.62542
0.19971	-0.92016
0.19971	0.81437
0.19971	-1.09871
0.17421	-0.53754
0.14870	0.17668
0.25071	-1.48133
0.22521	1.42656
-0.00431	0.17668
0.02119	1.96222
0.12320	-4.64429
0.09770	2.42136
0.04670	5.43127
-0.05531	-2.19554
0.19971	-0.35899
0.14870	-0.58856
0.09770	1.22250
0.09770	1.65613
-0.02981	3.59471
-0.02981	1.91120
0.30171	-6.04721
0.17421	-6.65940
0.25071	-0.94566
0.25071	1.52859
0.37822	1.40105
0.19971	1.52859
0.04670	1.17148
-0.02981	0.48277
-0.15732	-0.15492
0.14870	4.53850
0.35272	2.26831
0.07220	-11.14876
0.14870	-6.65940
-0.10631	0.58480
-0.08081	3.31413
0.12320	3.62022
0.14870	3.03355
0.32721	1.88570
0.42922	0.58480
0.19971	0.04914
0.07220	0.86539
0.02119	-0.18043
0.04670	-3.36890
-0.00431	-0.97117
0.07220	-1.65988
0.02119	-0.20594
0.12320	1.52859
0.07220	-0.12942
0.02119	-2.06800
0.07220	1.96222
0.19971	0.12566
0.25071	1.19699
0.19971	-0.69059
0.17421	-0.23145
0.14870	1.57960
0.12320	1.01843
0.27621	2.47238
0.17421	-0.25695
0.07220	-5.02690
-0.08081	2.26831
0.04670	1.45206
0.42922	2.67644
0.48022	2.95702
0.40372	2.57441
0.45472	-4.18515
0.25071	-0.48652
0.17421	-0.71609
0.04670	-0.02739
-0.15732	2.01323
0.02119	1.35003
0.12320	-3.11382
0.09770	0.27871
0.07220	-0.15492
0.19971	0.22769
0.27621	1.29902
0.25071	1.06945
0.17421	1.63062
-0.08081	-2.78222
0.09770	-0.07840
0.22521	-1.37929
0.30171	-0.23145
0.19971	-2.29757
0.25071	1.86019
0.09770	2.14077
0.02119	1.27351
0.07220	0.66132
0.22521	1.75816
0.19971	-2.17003
0.22521	-0.99668
0.22521	0.25320
0.09770	5.02315
0.02119	-7.24608
-0.33583	-2.14453
-0.05531	0.96742
0.14870	1.40105
0.19971	1.17148
0.25071	1.17148
0.09770	-0.46102
0.09770	-0.99668
0.14870	1.40105
0.17421	0.10015
0.02119	-0.00188
0.17421	-1.48133
0.27621	1.65613
0.07220	8.10959
0.17421	-12.11806
-0.02981	-1.60887
-0.08081	1.93671
0.17421	-1.20074
0.45472	3.59471
0.42922	3.39065
0.32721	2.52339
0.19971	1.65613
0.17421	0.73785
0.07220	0.58480
0.09770	-2.37410
0.04670	0.96742
0.07220	-4.03210
0.07220	3.00804
0.04670	-3.29238
0.12320	-0.28246
0.09770	-1.07320
0.12320	0.48277
0.17421	0.10015
0.07220	1.70714
0.09770	-2.65468
0.35272	0.81437
0.30171	6.32404
0.25071	-3.03730
0.22521	1.29902
0.07220	-0.38449
0.04670	-2.75671
0.09770	1.52859
0.07220	0.61031
0.04670	-0.10391
0.02119	-0.00188
0.25071	1.70714
0.27621	-0.00188
0.12320	2.34484
0.17421	-0.97117
0.09770	-1.91496
0.22521	0.07465
0.19971	-0.15492
0.17421	1.01843
0.12320	0.48277
-0.20832	0.61031
-0.00431	1.27351
0.32721	1.70714
0.45472	-2.68019
0.19971	0.63582
-0.08081	-0.99668
-0.00431	1.17148
0.07220	1.01843
0.17421	1.88570
0.22521	1.09496
0.19971	2.16628
0.12320	-1.68539
0.07220	-5.02690
0.22521	-5.25647
0.12320	2.34484
-0.08081	3.33964
-0.13181	3.72225
0.04670	1.50308
0.22521	0.50828
0.19971	0.38074
0.30171	0.55929
0.27621	-1.25176
0.30171	3.74776
0.27621	0.20219
0.30171	-2.65468
0.14870	-9.82236
-0.10631	1.27351
-0.08081	1.88570
0.09770	0.25320
0.27621	3.00804
0.27621	2.08976
0.25071	2.16628
-0.05531	-4.54226
0.12320	2.62542
0.30171	0.96742
0.35272	1.50308
0.48022	-0.38449
0.22521	-1.04770
0.02119	0.38074
-0.05531	0.17668
-0.10631	-1.65988
0.22521	1.75816
0.17421	-1.02219
0.17421	1.78367
0.30171	-4.59327
0.48022	-0.89465
0.14870	-0.05289
0.22521	-0.48652
0.14870	1.88570
0.22521	2.16628
0.12320	1.04394
0.12320	0.83988
0.19971	1.27351
0.09770	1.24800
0.02119	0.61031
-0.10631	-6.78694
0.09770	-0.76711
0.25071	2.06425
0.32721	-0.97117
0.27621	3.90081
0.14870	0.81437
0.07220	-3.03730
0.30171	0.15117
0.35272	0.86539
0.37822	1.27351
0.27621	-0.63957
0.12320	0.55929
0.12320	4.38546
0.12320	4.02835
0.17421	-6.68491
0.07220	-2.73121
0.14870	0.22769
0.12320	0.91640
0.17421	1.42656
0.19971	1.78367
0.14870	-2.88425
0.17421	3.21210
0.19971	-1.81293
0.14870	0.35523
-0.00431	0.30422
-0.05531	0.63582
0.04670	0.50828
0.32721	0.86539
0.30171	1.27351
0.30171	2.95702
0.30171	-11.19978
0.04670	0.73785
0.02119	1.78367
-0.00431	1.09496
0.12320	1.37554
0.32721	1.86019
0.22521	-0.41000
0.19971	-5.05241
-0.02981	0.94191
-0.08081	1.47757
0.09770	-1.12422
0.12320	0.89089
0.27621	-2.32308
0.22521	0.96742
0.17421	3.33964
0.22521	-0.33348
0.07220	-0.05289
0.12320	0.35523
0.17421	1.78367
0.19971	-0.46102
0.22521	-0.97117
0.07220	1.06945
-0.00431	4.92112
-0.02981	-7.73072
0.04670	-1.73640
-0.10631	-3.72601
-0.23382	1.40105
0.30171	3.44167
0.50573	3.33964
0.37822	2.01323
0.32721	2.59991
0.27621	0.20219
0.14870	0.53379
0.07220	-0.23145
0.09770	0.35523
0.19971	0.73785
0.07220	-4.77183
0.02119	-0.69059
-0.13181	0.61031
-0.10631	0.35523
0.30171	0.10015
0.30171	0.71234
0.22521	0.40625
0.22521	0.73785
0.17421	-2.19554
0.12320	1.52859
0.25071	3.62022
0.17421	-0.05289
0.17421	0.04914
-0.05531	-1.17523
0.17421	0.71234
0.19971	0.96742
0.04670	1.37554
-0.08081	-0.30797
0.09770	-0.66508
0.22521	1.22250
0.12320	-2.19554
0.12320	-0.48652
0.17421	0.61031
0.25071	-1.22625
0.04670	1.06945
0.12320	2.24281
0.14870	0.15117
0.14870	0.45726
0.19971	-0.25695
0.14870	2.19179
0.19971	-0.23145
0.14870	2.16628
0.17421	-0.99668
0.09770	-0.43551
-0.02981	1.12046
0.04670	-1.27726
0.25071	0.04914
0.19971	2.77847
0.19971	-1.58336
0.09770	0.30422
0.07220	2.75296
0.02119	-2.57816
0.12320	-1.17523
0.22521	0.96742
0.25071	1.50308
0.17421	4.38546
0.04670	-1.96597
0.02119	2.57441
-0.13181	-3.82804
0.04670	-0.86914
0.32721	0.17668
0.40372	1.91120
0.45472	1.24800
0.42922	1.19699
0.32721	0.86539
0.22521	-0.61406
0.12320	1.14597
0.07220	-2.45062
-0.02981	0.76336
-0.02981	2.80397
-0.05531	-4.26167
-0.10631	0.30422
0.19971	1.17148
0.27621	3.44167
0.12320	2.14077
0.25071	-1.14973
0.25071	-2.78222
0.22521	-0.89465
0.30171	0.91640
0.14870	-1.65988
0.02119	1.93671
0.09770	2.42136
0.04670	1.45206
-0.00431	-2.80773
0.12320	-0.92016
0.07220	1.68163
0.17421	-0.71609
0.12320	-2.11902
0.14870	0.63582
0.32721	1.32453
0.14870	0.71234
0.19971	0.96742
-0.18282	-3.06281
-0.23382	-3.29238
0.14870	2.03874
0.32721	1.73265
0.27621	-0.51203
0.19971	1.93671
0.09770	1.96222
0.07220	-0.76711
-0.00431	-0.66508
-0.00431	1.42656
0.17421	-2.47613
0.09770	0.63582
0.09770	1.52859
0.02119	-0.35899
-0.02981	-0.30797
0.17421	0.15117
0.12320	1.06945
0.27621	1.04394
0.37822	-1.68539
0.32721	-2.04250
0.12320	0.07465
0.12320	0.45726
0.02119	3.97733
0.12320	-4.03210
0.12320	-1.68539
0.27621	0.76336
0.09770	1.83468
0.19971	-6.40432
-0.02981	1.57960
-0.31033	2.42136
-0.08081	-0.66508
0.19971	0.76336
0.30171	1.32453
0.40372	0.71234
0.27621	-2.11902
0.27621	0.38074
0.25071	1.06945
0.12320	-0.94566
0.14870	1.01843
0.12320	1.19699
0.12320	0.99292
0.09770	0.15117
-0.00431	-0.00188
0.12320	-0.46102
0.09770	-0.81812
0.09770	-0.30797
0.14870	0.17668
0.27621	0.45726
0.30171	0.50828
0.17421	-0.38449
0.17421	-0.71609
0.14870	1.17148
0.04670	-0.05289
-0.00431	0.53379
0.04670	0.81437
0.12320	0.78886
0.17421	0.63582
0.19971	-0.38449
0.14870	1.22250
0.17421	-3.67499
0.27621	2.59991
0.17421	1.17148
0.14870	2.54890
0.09770	-6.17475
0.22521	-0.63957
0.04670	2.29382
0.02119	0.02363
0.02119	1.19699
0.25071	1.01843
0.14870	1.86019
0.27621	2.11527
0.27621	-1.40480
0.12320	-2.80773
0.09770	0.89089
-0.02981	3.97733
0.04670	-8.59799
0.22521	0.32972
0.22521	1.37554
0.19971	4.33444
0.30171	5.91592
0.27621	-6.37881
0.22521	0.68683
0.14870	1.52859
0.02119	1.47757
0.02119	-1.30277
0.12320	-2.65468
0.27621	-2.42511
0.27621	-0.38449
0.04670	0.96742
-0.00431	0.83988
-0.00431	1.14597
0.07220	0.43176
0.12320	-0.69059
0.09770	2.08976
0.19971	-0.20594
0.17421	-1.68539
0.04670	-0.15492
0.12320	-0.46102
0.09770	1.09496
0.17421	3.16108
0.22521	-2.01699
0.25071	-1.96597
0.27621	0.94191
0.14870	0.99292
0.09770	1.60511
0.09770	1.47757
0.14870	-1.53234
0.22521	-2.19554
0.17421	1.04394
0.09770	1.52859
0.35272	1.57960
0.17421	-4.77183
-0.02981	3.51819
-0.05531	-1.40480
0.07220	-2.60367
0.17421	1.32453
0.17421	1.37554
0.25071	1.40105
0.27621	0.30422
0.48022	0.50828
0.17421	0.99292
0.19971	-0.00188
-0.08081	-0.79262
-0.05531	1.68163
-0.05531	-5.61358
0.14870	-0.48652
0.27621	0.76336
0.25071	1.68163
0.12320	1.65613
0.02119	0.04914
0.12320	2.52339
0.22521	-0.79262
0.32721	1.78367
0.25071	-3.93007
0.14870	-0.69059
0.14870	0.76336
0.19971	1.96222
-0.02981	0.68683
0.14870	-0.00188
0.27621	0.83988
0.19971	1.32453
-0.00431	-0.79262
0.02119	-0.86914
0.12320	3.31413
0.37822	0.55929
0.30171	-3.31788
0.25071	-0.58856
0.14870	-1.09871
0.19971	0.94191
0.12320	0.94191
-0.02981	2.06425
-0.02981	0.83988
-0.02981	1.37554
0.09770	1.22250
0.27621	-2.98628
0.19971	-0.18043
0.04670	-0.46102
0.02119	1.35003
0.07220	1.12046
0.30171	-0.05289
0.32721	-1.55785
0.40372	-0.48652
0.27621	1.12046
0.22521	-1.07320
0.09770	-0.18043
0.19971	-0.10391
0.02119	1.73265
0.14870	3.84979
0.12320	-1.68539
-0.00431	-2.27207
0.04670	-0.38449
-0.10631	-0.18043
-0.10631	1.52859
0.12320	1.37554
0.27621	1.83468
0.14870	1.04394
0.22521	-0.38449
0.30171	-4.61878
0.35272	-0.76711
0.27621	0.76336
0.07220	2.90601
0.25071	-1.17523
0.17421	1.52859
0.14870	-2.90976
0.04670	0.15117
0.07220	1.37554
0.12320	-2.57816
0.12320	3.49268
0.17421	0.91640
-0.00431	-2.80773
0.07220	-0.33348
0.04670	-0.61406
0.17421	1.42656
0.19971	0.07465
-0.00431	0.78886
0.09770	1.86019
0.07220	1.52859
0.12320	-1.63437
0.30171	-0.07840
0.14870	0.30422
-0.02981	-0.25695
0.04670	-0.46102
0.35272	1.42656
0.27621	0.25320
0.35272	0.96742
0.04670	-1.32828
0.09770	-0.35899
0.32721	-0.20594
0.40372	1.98773
0.22521	1.14597
0.22521	-3.03730
0.12320	-0.23145
0.07220	3.08456
0.02119	-0.33348
-0.02981	-0.15492
0.19971	-0.46102
0.19971	1.98773
0.19971	-3.77702
-0.13181	1.98773
0.12320	-1.43031
0.27621	-0.23145
0.40372	0.66132
0.27621	0.10015
0.12320	0.71234
0.09770	-0.38449
0.07220	0.78886
0.09770	1.19699
0.14870	2.24281
0.30171	-3.08831
0.14870	1.40105
0.07220	-4.79733
-0.00431	-0.84363
-0.36133	3.46718
-0.13181	2.06425
0.35272	2.80397
0.40372	-0.74160
0.35272	2.26831
0.27621	0.17668
0.22521	-0.48652
0.12320	-1.50683
0.09770	0.07465
0.07220	0.63582
0.07220	0.63582
0.09770	0.96742
0.17421	0.68683
0.14870	-1.53234
0.27621	-0.58856
0.04670	0.15117
0.09770	0.40625
0.09770	1.19699
0.07220	2.80397
0.17421	-5.61358
0.19971	-2.09351
0.17421	0.89089
0.17421	1.17148
0.14870	0.66132
0.30171	1.88570
0.22521	-0.58856
0.14870	1.47757
0.04670	3.11007
-0.08081	-4.44022
0.32721	-1.48133
0.14870	0.35523
0.07220	1.52859
0.12320	4.02835
-0.00431	-4.38921
0.04670	-1.27726
0.04670	0.76336
0.22521	0.76336
0.25071	-0.92016
0.14870	0.83988
0.30171	0.50828
0.30171	1.19699
0.12320	-1.09871
0.07220	0.89089
0.12320	0.83988
0.17421	-0.71609
0.22521	-2.55265
0.09770	-0.41000
0.12320	1.42656
0.07220	-0.84363
0.04670	1.14597
-0.00431	1.65613
0.12320	-1.94047
0.22521	0.30422
0.19971	1.29902
0.14870	0.78886
0.19971	0.63582
0.27621	0.76336
0.22521	0.15117
0.25071	0.04914
0.27621	1.06945
0.17421	-1.91496
0.07220	-1.58336
0.09770	0.12566
0.17421	1.19699
0.07220	-1.60887
0.14870	-0.02739
0.17421	2.47238
-0.10631	0.17668
-0.00431	-0.02739
0.19971	0.55929
0.27621	1.52859
0.27621	-1.58336
0.30171	-1.55785
0.19971	1.75816
-0.05531	2.37034
0.07220	1.17148
0.25071	0.83988
0.22521	0.10015
0.02119	0.96742
0.02119	1.73265
-0.00431	-5.28198
0.22521	-1.48133
0.09770	-0.18043
0.17421	0.94191
0.14870	-1.22625
0.25071	0.27871
0.09770	2.88050
0.22521	2.29382
0.07220	-6.99100
0.19971	-0.02739
0.17421	1.52859
0.12320	1.04394
0.17421	1.65613
0.19971	1.42656
0.32721	0.71234
0.02119	0.76336
0.02119	-0.02739
-0.15732	1.42656
0.02119	-6.09823
0.22521	-1.48133
0.25071	-0.02739
0.25071	1.68163
0.22521	2.01323
0.04670	-0.76711
-0.13181	1.19699
0.25071	1.32453
0.40372	-0.74160
0.25071	-3.64948
0.22521	0.96742
0.09770	1.60511
0.07220	1.09496
0.07220	0.78886
-0.00431	-0.15492
-0.02981	-0.12942
-0.00431	1.32453
0.09770	-0.61406
-0.02981	1.14597
0.02119	-1.32828
0.30171	-1.63437
0.35272	-0.10391
0.32721	0.20219
0.22521	0.27871
0.19971	0.73785
0.17421	0.63582
-0.25932	0.53379
0.02119	0.45726
0.19971	-0.05289
0.12320	0.40625
0.14870	2.01323
0.42922	1.42656
0.32721	-9.77134
0.37822	0.63582
0.17421	2.67644
0.04670	1.14597
-0.00431	1.88570
0.37822	0.22769
0.09770	1.27351
-0.10631	-1.32828
-0.33583	1.35003
-0.48884	0.30422
0.27621	0.35523
0.58223	0.02363
0.48022	-3.41992
0.30171	0.25320
0.14870	1.80917
0.35272	0.43176
0.27621	0.45726
0.22521	0.99292
0.17421	-0.18043
0.14870	0.17668
-0.02981	0.45726
-0.00431	0.40625
-0.08081	-1.43031
-0.00431	-0.58856
0.14870	-2.96078
0.09770	1.78367
0.02119	3.05905
0.09770	2.95702
0.30171	0.81437
0.19971	-3.19035
-0.13181	1.37554
0.02119	1.78367
0.35272	-0.76711
0.30171	-0.76711
0.07220	1.35003
-0.02981	1.32453
0.09770	-0.84363
0.22521	1.12046
0.17421	-2.09351
0.09770	-0.05289
0.04670	-0.76711
-0.13181	0.50828
-0.08081	1.78367
0.19971	0.35523
0.17421	-1.58336
0.02119	1.40105
-0.08081	2.39585
0.09770	-2.17003
0.30171	0.61031
0.09770	-0.46102
0.17421	-0.63957
0.12320	0.99292
0.07220	0.68683
0.19971	0.86539
0.37822	-2.09351
0.37822	1.04394
0.32721	0.38074
0.09770	-1.07320
-0.08081	0.30422
-0.15732	0.96742
-0.08081	3.59471
0.17421	0.50828
0.25071	-1.37929
0.30171	-6.78694
0.17421	-0.81812
0.22521	2.49788
0.09770	3.21210
0.09770	1.91120
0.17421	1.14597
0.19971	1.06945
0.19971	0.17668
0.17421	-0.46102
0.02119	-3.01179
-0.02981	-0.41000
0.04670	3.11007
0.25071	0.12566
0.17421	-10.46005
0.17421	0.96742
0.25071	1.73265
0.22521	2.42136
0.02119	2.11527
0.12320	1.47757
0.12320	2.16628
0.09770	0.73785
0.19971	-1.83844
0.22521	-0.38449
-0.02981	0.02363
0.04670	0.73785
0.22521	-0.25695
0.14870	-1.71090
-0.08081	1.40105
-0.02981	-1.65988
-0.00431	-0.84363
-0.00431	0.81437
0.12320	1.65613
0.07220	2.16628
0.09770	1.78367
0.19971	-0.05289
0.35272	-0.48652
0.37822	-2.14453
0.22521	-1.04770
0.07220	1.35003
0.12320	1.09496
0.12320	-1.20074
0.12320	2.26831
-0.00431	-0.30797
0.12320	0.45726
0.12320	0.02363
0.25071	0.91640
0.14870	1.55410
0.19971	-1.14973
0.19971	-3.49644
0.19971	0.12566
-0.13181	0.83988
-0.02981	0.43176
0.12320	-3.01179
0.09770	0.94191
0.19971	-2.34859
0.17421	2.67644
0.09770	2.67644
0.04670	0.66132
0.35272	-0.41000
0.09770	2.03874
-0.00431	-3.31788
0.07220	1.09496
0.07220	-0.66508
0.19971	1.37554
0.07220	-0.23145
0.07220	0.55929
0.09770	-1.63437
-0.00431	-2.22105
0.07220	0.12566
0.19971	0.96742
0.22521	0.96742
0.25071	0.66132
0.19971	1.01843
0.12320	0.22769
0.22521	1.12046
0.32721	2.16628
0.25071	-7.32260
0.17421	1.68163
-0.05531	0.43176
0.02119	0.35523
0.30171	1.40105
0.32721	0.86539
0.22521	-0.05289
0.22521	1.12046
0.12320	1.70714
0.09770	0.53379
0.27621	-2.75671
0.22521	0.40625
0.14870	-0.43551
0.07220	0.96742
-0.02981	0.96742
0.04670	1.37554
-0.05531	4.43647
-0.02981	-4.03210
0.09770	-2.83324
0.14870	-0.76711
0.19971	1.37554
0.30171	1.55410
0.12320	1.22250
0.09770	1.50308
0.17421	1.47757
0.12320	0.12566
0.17421	-0.46102
0.12320	-3.70050
0.07220	-2.45062
0.17421	2.54890
0.07220	1.06945
0.09770	0.73785
0.14870	-1.32828
0.09770	0.32972
0.02119	1.24800
0.14870	1.01843
-0.00431	-0.05289
-0.08081	-0.10391
0.09770	-1.37929
0.22521	-0.25695
0.12320	0.89089
-0.02981	3.46718
-0.02981	-0.48652
0.02119	-5.23097
0.07220	1.06945
0.17421	1.70714
0.14870	1.47757
0.04670	1.52859
0.04670	1.06945
-0.00431	-0.20594
0.17421	-0.00188
0.14870	0.22769
0.19971	-0.33348
0.12320	-0.23145
0.02119	0.53379
0.19971	-1.48133
0.09770	1.12046
0.07220	-4.44022
0.17421	-3.39441
0.25071	0.96742
0.17421	2.75296
0.09770	1.63062
-0.20832	0.50828
-0.18282	0.20219
0.22521	1.47757
0.19971	-0.23145
0.35272	-0.05289
0.32721	1.17148
0.32721	0.66132
0.25071	-1.02219
0.09770	-0.63957
0.02119	1.12046
0.07220	0.58480
-0.10631	-3.47093
-0.05531	-2.19554
-0.00431	0.91640
0.22521	1.09496
0.07220	1.52859
0.27621	1.63062
0.19971	1.47757
0.04670	-0.00188
0.14870	-1.40480
0.17421	3.23761
0.17421	0.53379
0.14870	-4.23616
0.14870	0.94191
0.12320	-2.83324
0.12320	1.93671
0.09770	-0.20594
0.14870	2.26831
0.25071	1.73265
0.12320	-0.61406
0.12320	0.27871
0.17421	0.61031
0.07220	-0.63957
0.14870	0.76336
0.14870	-1.96597
0.27621	0.35523
0.27621	-0.05289
0.07220	-0.48652
0.02119	0.68683
-0.00431	0.76336
0.02119	1.32453
0.22521	-1.35379
0.45472	0.71234
0.42922	0.02363
0.17421	-0.41000
0.04670	-0.43551
0.02119	0.35523
0.09770	0.38074
0.09770	0.50828
0.07220	2.21730
0.14870	1.40105
0.14870	-3.21585
0.17421	-5.48604
0.12320	1.37554
0.14870	1.96222
0.12320	2.16628
0.19971	4.53850
0.17421	-2.06800
0.22521	-0.46102
0.22521	0.81437
0.27621	0.40625
0.19971	-1.27726
0.14870	3.13558
-0.10631	1.17148
-0.08081	-1.99148
0.25071	-2.50164
0.17421	-1.27726
0.22521	-1.78742
0.09770	1.60511
0.04670	1.52859
0.02119	1.57960
-0.00431	2.08976
-0.00431	0.15117
-0.08081	-2.29757
0.04670	0.43176
-0.00431	0.61031
-0.00431	0.35523
0.09770	0.30422
0.40372	0.32972
0.17421	0.61031
0.02119	1.12046
0.07220	-1.20074
-0.00431	-2.34859
0.09770	0.10015
-0.00431	5.60983
0.12320	-9.61830
0.14870	1.06945
0.30171	1.98773
0.30171	2.11527
0.09770	2.70194
-0.18282	1.37554
-0.28482	0.86539
0.25071	-4.38921
0.12320	0.25320
0.12320	0.78886
0.14870	0.86539
0.02119	-0.02739
0.22521	-0.33348
0.12320	-0.28246
0.12320	-0.33348
0.09770	-0.35899
0.19971	-0.05289
0.30171	0.10015
0.22521	0.58480
0.14870	0.35523
0.12320	0.35523
0.14870	2.29382
0.17421	2.52339
0.14870	-9.00611
0.07220	-1.91496
0.04670	-2.80773
0.48022	2.08976
0.53123	1.19699
0.17421	1.42656
0.04670	3.00804
0.12320	2.21730
0.17421	1.55410
-0.00431	0.25320
0.09770	-0.33348
0.09770	-0.81812
0.09770	-0.76711
0.07220	-0.94566
0.04670	-1.07320
0.12320	-0.76711
0.07220	-0.56305
0.12320	-0.23145
0.12320	0.07465
0.14870	0.25320
0.25071	0.55929
0.25071	0.55929
0.25071	0.45726
0.19971	0.43176
0.30171	0.61031
0.12320	0.48277
0.14870	0.53379
0.07220	0.32972
0.04670	0.22769
0.09770	0.17668
0.17421	0.61031
0.19971	2.67644
0.35272	-0.35899
0.45472	-0.10391
0.14870	-5.97069
-0.41233	1.32453
-0.87136	1.24800
-0.15732	0.89089
0.50573	1.88570
0.53123	2.49788
0.42922	-3.47093
0.27621	3.64573
0.50573	-1.58336
0.40372	0.02363
0.25071	0.94191
0.07220	0.99292
-0.08081	0.27871
-0.13181	0.12566
-0.08081	-0.33348
-0.08081	-0.33348
-0.08081	-0.61406
0.07220	-0.69059
0.07220	-0.61406
0.17421	-0.35899
0.22521	-0.18043
0.22521	0.15117
0.25071	0.22769
0.30171	0.43176
0.22521	0.58480
0.19971	0.61031
0.14870	0.38074
0.22521	0.35523
0.17421	0.35523
0.19971	0.50828
0.14870	1.27351
0.17421	2.24281
0.22521	4.35995
0.22521	-12.62821
0.02119	2.29382
-0.05531	-2.62918
0.12320	2.37034
0.07220	2.06425
0.02119	2.21730
0.02119	-0.18043
0.02119	1.73265
0.04670	0.43176
0.32721	-3.36890
0.12320	-0.48652
-0.18282	0.83988
0.22521	0.89089
0.48022	-1.07320
0.25071	0.27871
0.17421	-0.81812
0.22521	-0.28246
0.04670	0.32972
-0.00431	1.52859
0.09770	1.12046
0.07220	-2.22105
0.12320	-2.09351
0.12320	0.66132
0.07220	1.14597
-0.00431	0.15117
0.07220	0.76336
0.09770	1.04394
0.04670	1.19699
0.09770	0.30422
0.19971	-0.30797
0.22521	-0.81812
0.22521	1.83468
0.25071	-0.48652
0.27621	1.01843
0.32721	-2.57816
0.09770	-0.02739
0.19971	-1.32828
0.37822	1.40105
0.35272	0.48277
0.40372	1.32453
0.19971	-3.41992
0.07220	1.70714
0.12320	1.91120
0.07220	2.54890
-0.00431	-1.27726
-0.08081	2.06425
0.02119	1.57960
0.19971	1.09496
0.25071	-2.70570
0.37822	-2.50164
0.35272	0.30422
0.07220	-0.81812
0.04670	0.61031
0.07220	3.00804
-0.18282	-2.85874
0.12320	-2.96078
0.25071	-0.41000
0.07220	1.96222
0.09770	0.07465
0.04670	3.00804
0.17421	0.83988
0.27621	-1.60887
0.19971	0.04914
0.25071	-0.56305
0.14870	-0.30797
0.04670	0.63582
0.04670	1.37554
0.02119	-0.35899
0.12320	-0.02739
0.09770	0.22769
0.19971	1.98773
0.27621	-1.88945
0.22521	0.20219
0.19971	1.63062
0.17421	2.01323
0.22521	-4.54226
0.04670	-2.22105
0.14870	0.10015
0.14870	1.91120
0.12320	0.96742
0.19971	2.19179
0.12320	1.73265
0.22521	-0.58856
0.19971	-0.00188
0.12320	0.99292
0.07220	-0.10391
0.04670	-0.71609
0.09770	-2.04250
0.04670	-1.17523
-0.02981	1.04394
0.07220	0.02363
0.12320	0.71234
0.32721	1.06945
0.22521	-0.05289
0.19971	-1.17523
0.07220	0.94191
-0.13181	1.80917
0.19971	2.34484
0.27621	-1.71090
0.32721	-0.46102
0.17421	-1.22625
0.12320	-0.00188
0.19971	3.00804
0.07220	-3.06281
-0.02981	-1.25176
0.09770	0.02363
-0.00431	1.17148
0.27621	0.99292
0.32721	0.86539
0.25071	0.63582
0.22521	1.22250
0.02119	0.63582
0.04670	-1.96597
0.12320	0.15117
0.25071	-0.56305
0.27621	0.30422
0.12320	0.04914
0.07220	0.04914
0.17421	-1.20074
0.12320	1.14597
0.14870	-0.97117
0.09770	0.35523
0.07220	0.38074
0.07220	1.09496
0.04670	-0.89465
0.12320	0.83988
0.09770	0.81437
0.09770	1.29902
0.14870	-1.76191
0.14870	-0.51203
0.17421	1.35003
0.07220	-0.23145
0.12320	-0.97117
0.27621	0.89089
0.22521	1.57960
0.17421	-0.07840
0.09770	0.30422
0.09770	-0.38449
0.17421	0.63582
0.14870	1.24800
-0.05531	-1.78742
0.02119	-0.79262
-0.08081	-3.39441
-0.10631	2.67644
0.09770	0.38074
0.27621	-2.90976
0.27621	1.65613
0.19971	2.21730
0.17421	1.55410
0.17421	-1.27726
0.09770	1.14597
0.07220	0.45726
0.07220	-0.23145
0.09770	0.99292
0.09770	0.04914
0.14870	-0.30797
-0.13181	0.66132
-0.02981	-1.55785
0.12320	-0.89465
0.12320	-0.18043
0.14870	0.15117
0.12320	1.01843
0.37822	-0.10391
0.42922	0.43176
0.22521	0.27871
0.25071	1.29902
0.22521	0.15117
0.12320	-2.70570
-0.02981	0.89089
-0.05531	0.71234
-0.20832	0.27871
-0.00431	1.22250
0.30171	-0.41000
0.32721	0.66132
0.32721	0.55929
0.14870	-0.02739
0.07220	1.68163
0.12320	-0.53754
0.12320	-0.46102
0.12320	-0.41000
0.12320	0.68683
0.19971	1.12046
0.25071	-4.00659
0.22521	-0.51203
0.17421	1.17148
0.14870	1.40105
0.04670	2.82948
-0.10631	-1.04770
-0.18282	1.65613
0.12320	-2.55265
0.45472	-1.14973
0.32721	2.16628
0.25071	0.83988
-0.05531	2.42136
0.22521	-2.06800
0.32721	1.75816
0.09770	-0.41000
0.17421	2.52339
0.04670	-2.32308
0.02119	0.20219
0.02119	0.68683
0.12320	0.63582
-0.02981	0.99292
0.02119	-0.51203
0.09770	-0.86914
0.14870	0.30422
0.12320	-1.37929
0.17421	0.53379
0.02119	0.89089
-0.08081	1.47757
-0.05531	2.39585
0.50573	-4.26167
0.50573	0.40625
0.25071	0.89089
0.27621	1.50308
0.22521	1.50308
-0.00431	-5.40952
0.07220	0.22769
0.07220	1.47757
0.02119	0.86539
0.14870	1.24800
0.35272	1.70714
0.12320	-0.86914
0.17421	-0.05289
0.17421	-0.23145
0.17421	-3.70050
0.12320	1.96222
0.12320	0.04914
0.22521	0.04914
0.14870	1.19699
0.09770	1.27351
0.07220	0.78886
0.27621	-1.99148
0.22521	-1.07320
0.27621	1.57960
0.12320	-0.28246
0.02119	0.22769
0.07220	0.45726
0.02119	-0.28246
-0.00431	0.25320
0.17421	0.45726
-0.10631	-0.81812
0.12320	0.27871
0.50573	1.63062
0.42922	0.25320
0.35272	-0.94566
0.25071	-1.37929
0.30171	1.75816
0.09770	0.94191
0.14870	-2.27207
0.02119	1.27351
-0.00431	1.09496
-0.00431	-0.97117
0.07220	-1.53234
0.09770	2.29382
0.07220	2.77847
-0.20832	-4.72081
0.02119	-0.41000
0.17421	0.71234
0.40372	-1.81293
0.58223	0.48277
0.45472	1.35003
0.32721	0.10015
0.07220	-0.12942
-0.02981	0.32972
0.04670	0.04914
0.12320	0.53379
0.04670	1.37554
-0.00431	0.04914
0.14870	-2.52714
0.22521	0.55929
0.09770	-0.69059
0.12320	-0.10391
0.17421	0.96742
