0.04670	0.22769
0.50573	0.43176
0.37822	0.27871
0.12320	0.35523
-0.00431	0.45726
0.19971	0.17668
0.37822	-0.00188
0.07220	-0.05289
-0.05531	-0.18043
-0.28482	-0.15492
-0.02981	0.17668
0.42922	0.35523
0.50573	0.20219
0.22521	0.32972
0.04670	0.43176
0.19971	0.20219
0.42922	0.07465
0.19971	-0.00188
-0.05531	-0.07840
-0.28482	-0.07840
-0.05531	0.12566
0.48022	0.35523
0.42922	0.35523
0.27621	0.22769
-0.00431	0.15117
0.02119	0.15117
0.30171	0.04914
0.14870	-0.02739
0.12320	-0.10391
-0.13181	0.04914
-0.08081	0.38074
0.45472	0.35523
0.48022	0.22769
0.09770	0.27871
-0.05531	0.20219
0.12320	0.02363
0.32721	-0.05289
0.12320	0.07465
0.12320	-0.07840
-0.13181	-0.02739
-0.05531	0.25320
0.45472	0.35523
0.40372	0.35523
0.19971	0.43176
0.04670	0.43176
0.14870	0.10015
0.27621	-0.18043
0.14870	-0.05289
0.04670	-0.18043
-0.18282	-0.00188
-0.00431	0.30422
0.45472	0.32972
0.42922	0.22769
0.12320	0.38074
-0.05531	0.27871
0.17421	0.04914
0.35272	0.07465
0.22521	0.10015
0.12320	-0.07840
-0.15732	-0.07840
0.04670	0.17668
0.42922	0.45726
0.40372	0.22769
0.12320	0.25320
-0.08081	0.30422
0.09770	0.15117
0.40372	0.02363
0.19971	-0.00188
0.07220	-0.28246
-0.23382	-0.10391
0.07220	0.27871
0.53123	0.43176
0.37822	0.32972
0.09770	0.32972
-0.05531	0.35523
0.12320	0.10015
0.35272	-0.02739
0.14870	0.04914
0.07220	-0.23145
-0.20832	-0.18043
-0.05531	0.10015
0.45472	0.43176
0.42922	0.30422
0.19971	0.30422
-0.00431	0.30422
0.04670	0.12566
0.37822	-0.05289
0.25071	0.20219
0.17421	-0.05289
-0.13181	-0.00188
-0.08081	0.25320
0.37822	0.43176
0.42922	0.12566
0.12320	0.25320
0.02119	0.25320
0.22521	-0.05289
0.42922	-0.07840
0.09770	-0.02739
-0.13181	-0.07840
-0.25932	-0.18043
-0.02981	0.25320
0.50573	0.61031
0.45472	0.43176
0.19971	0.30422
-0.05531	0.25320
0.17421	0.10015
0.40372	-0.00188
0.27621	0.02363
0.09770	-0.10391
-0.20832	0.04914
-0.05531	0.32972
0.37822	0.32972
0.48022	0.25320
0.17421	0.27871
-0.02981	0.38074
0.19971	0.20219
0.35272	-0.00188
0.09770	-0.07840
-0.00431	-0.18043
-0.23382	-0.10391
-0.02981	0.25320
0.42922	0.38074
0.25071	0.25320
0.12320	0.20219
0.02119	0.30422
0.27621	0.15117
0.35272	-0.00188
0.09770	-0.02739
-0.08081	-0.18043
-0.23382	-0.07840
-0.02981	0.27871
0.50573	0.38074
0.42922	0.27871
0.19971	0.22769
-0.02981	0.32972
0.09770	0.15117
0.42922	-0.00188
0.27621	0.04914
0.04670	-0.10391
-0.23382	-0.15492
-0.13181	0.20219
0.45472	0.45726
0.42922	0.25320
0.25071	0.32972
0.02119	0.35523
0.12320	0.04914
0.35272	-0.05289
0.22521	-0.00188
0.12320	-0.05289
-0.25932	-0.02739
-0.13181	0.20219
0.27621	0.30422
0.30171	0.17668
0.19971	0.25320
0.14870	0.38074
0.17421	0.20219
0.32721	-0.02739
0.17421	-0.02739
0.07220	-0.07840
-0.18282	-0.07840
-0.02981	0.22769
0.45472	0.50828
0.45472	0.32972
0.27621	0.22769
-0.00431	0.30422
0.12320	0.12566
0.32721	-0.00188
0.09770	-0.05289
0.02119	-0.18043
-0.18282	-0.05289
-0.02981	0.17668
0.45472	0.32972
0.45472	0.25320
0.25071	0.27871
0.07220	0.32972
0.19971	0.15117
0.37822	0.07465
0.27621	0.17668
0.09770	-0.02739
-0.20832	-0.07840
-0.23382	0.15117
0.32721	0.32972
0.35272	0.15117
0.17421	0.25320
0.04670	0.32972
0.17421	0.25320
0.48022	0.10015
0.25071	0.07465
-0.00431	-0.12942
-0.28482	-0.18043
-0.18282	0.15117
0.30171	0.35523
0.48022	0.25320
0.25071	0.32972
0.09770	0.35523
0.19971	0.02363
0.32721	-0.05289
0.12320	0.07465
0.07220	0.02363
-0.13181	0.02363
-0.10631	0.17668
0.30171	0.27871
0.37822	0.22769
0.30171	0.35523
0.14870	0.35523
0.09770	0.10015
0.30171	-0.05289
0.07220	-0.00188
-0.08081	-0.12942
-0.18282	-0.15492
0.04670	0.27871
0.42922	0.43176
0.45472	0.30422
0.17421	0.27871
-0.08081	0.22769
0.12320	0.12566
0.32721	0.04914
0.17421	0.02363
0.04670	-0.00188
-0.18282	-0.10391
-0.10631	0.17668
0.35272	0.35523
0.40372	0.27871
0.22521	0.35523
0.04670	0.35523
0.19971	0.10015
0.32721	0.02363
0.17421	0.07465
-0.00431	-0.18043
-0.15732	-0.12942
-0.08081	0.20219
0.42922	0.45726
0.37822	0.22769
0.12320	0.17668
-0.05531	0.25320
0.12320	0.17668
0.42922	0.07465
0.19971	0.02363
0.07220	-0.05289
-0.23382	-0.07840
-0.18282	0.17668
0.40372	0.48277
0.48022	0.22769
0.17421	0.17668
-0.00431	0.22769
0.07220	0.04914
0.22521	-0.00188
0.09770	-0.00188
0.09770	-0.05289
-0.10631	-0.02739
-0.05531	0.25320
0.42922	0.40625
0.48022	0.22769
0.19971	0.22769
-0.08081	0.22769
0.07220	0.12566
0.30171	0.12566
0.27621	0.15117
0.12320	-0.07840
-0.20832	-0.15492
-0.15732	0.12566
0.25071	0.40625
0.32721	0.32972
0.27621	0.22769
0.07220	0.27871
0.19971	0.15117
0.37822	0.02363
0.17421	0.04914
0.04670	-0.10391
-0.10631	-0.07840
-0.02981	0.15117
0.30171	0.32972
0.40372	0.30422
0.22521	0.04914
0.04670	0.35523
0.22521	0.20219
0.37822	0.07465
0.12320	0.07465
0.07220	-0.02739
-0.13181	-0.02739
0.02119	0.25320
0.50573	0.50828
0.53123	0.25320
0.19971	0.15117
-0.08081	0.22769
-0.00431	0.10015
0.19971	0.04914
0.17421	0.02363
0.12320	-0.12942
-0.10631	-0.20594
-0.05531	0.02363
0.12320	0.35523
0.50573	0.35523
0.27621	0.43176
0.09770	0.53379
0.19971	0.25320
0.27621	-0.02739
0.14870	-0.10391
0.04670	-0.02739
-0.28482	-0.10391
-0.23382	0.04914
0.37822	0.40625
0.40372	0.17668
0.22521	0.15117
0.12320	0.32972
0.14870	0.17668
0.37822	0.04914
0.27621	0.02363
-0.08081	-0.00188
-0.15732	0.10015
-0.05531	0.17668
0.40372	0.35523
0.48022	0.22769
0.07220	0.25320
-0.00431	0.32972
0.17421	0.17668
0.27621	-0.00188
0.22521	-0.00188
0.12320	-0.28246
-0.13181	-0.15492
-0.13181	0.17668
0.42922	0.50828
0.48022	0.27871
0.17421	0.20219
-0.00431	0.30422
0.09770	0.15117
0.32721	0.04914
0.19971	0.17668
0.12320	-0.05289
-0.02981	-0.00188
-0.10631	-0.05289
0.32721	0.12566
0.53123	0.35523
0.35272	0.32972
0.04670	0.40625
0.07220	0.20219
0.19971	-0.05289
0.12320	0.17668
0.07220	-0.00188
-0.15732	-0.02739
-0.05531	0.12566
0.32721	0.30422
0.35272	0.12566
0.07220	0.17668
0.04670	0.30422
0.14870	0.07465
0.37822	0.02363
0.25071	0.07465
0.02119	0.02363
-0.10631	0.10015
0.02119	0.12566
0.32721	0.40625
0.45472	0.27871
0.09770	0.25320
0.02119	0.27871
0.07220	0.10015
0.30171	0.04914
0.25071	0.02363
-0.05531	-0.25695
-0.25932	-0.18043
-0.23382	0.22769
0.42922	0.43176
0.50573	0.20219
0.30171	0.27871
0.04670	0.45726
0.12320	0.07465
0.35272	0.15117
0.22521	0.15117
0.07220	-0.07840
-0.13181	-0.05289
-0.10631	0.04914
0.40372	0.32972
0.42922	0.35523
0.27621	0.12566
0.09770	-0.07840
-0.02981	0.12566
0.19971	0.07465
0.27621	0.32972
0.12320	0.25320
0.09770	0.15117
0.07220	0.25320
0.40372	0.35523
0.32721	0.15117
0.19971	0.35523
-0.15732	0.27871
-0.00431	0.10015
0.12320	-0.15492
0.12320	-0.12942
0.04670	-0.00188
-0.10631	-0.18043
-0.18282	-0.10391
0.22521	0.27871
0.53123	0.32972
0.32721	0.50828
0.25071	0.55929
0.22521	0.45726
0.22521	0.20219
0.19971	0.04914
0.02119	-0.20594
-0.31033	-0.58856
-0.28482	-0.18043
0.19971	0.30422
0.48022	0.32972
0.25071	0.25320
0.04670	0.48277
0.25071	0.45726
0.42922	0.02363
0.17421	0.04914
0.02119	-0.05289
-0.23382	0.02363
-0.08081	0.17668
0.30171	0.27871
0.37822	0.22769
-0.02981	0.27871
-0.15732	0.43176
0.12320	0.15117
0.27621	0.07465
0.40372	-0.15492
-0.02981	-0.61406
-0.08081	-0.23145
0.12320	0.38074
0.45472	0.58480
0.27621	0.30422
0.25071	0.17668
-0.02981	0.55929
0.17421	0.12566
0.50573	0.35523
0.25071	0.40625
-0.00431	-0.02739
-0.31033	-0.30797
-0.36133	-0.30797
0.14870	0.02363
0.25071	0.15117
0.19971	0.07465
-0.00431	0.35523
0.12320	0.02363
0.02119	-0.07840
0.22521	0.10015
0.37822	0.32972
0.09770	-0.43551
-0.13181	-0.12942
0.12320	0.40625
0.30171	-0.25695
-0.15732	0.17668
0.17421	0.71234
-0.08081	0.66132
0.42922	0.07465
0.50573	0.15117
0.42922	0.35523
-0.08081	-0.12942
-0.18282	-0.48652
0.45472	0.73785
0.76074	0.35523
0.07220	0.12566
-0.23382	0.20219
-0.18282	0.25320
0.14870	0.40625
0.19971	0.15117
0.02119	-0.48652
-0.18282	-0.46102
0.02119	-0.94566
0.22521	0.27871
0.45472	0.61031
0.35272	0.76336
0.17421	0.38074
0.32721	0.17668
0.07220	0.25320
0.42922	-0.46102
0.32721	-0.69059
-0.13181	0.48277
-0.31033	0.86539
0.17421	0.86539
0.40372	-0.10391
0.17421	0.30422
0.25071	0.73785
0.17421	0.55929
0.07220	0.25320
-0.02981	-0.10391
0.04670	-0.63957
-0.02981	-0.66508
-0.33583	-1.04770
0.07220	-0.18043
0.14870	0.35523
0.53123	0.68683
0.42922	1.17148
0.32721	0.61031
0.12320	0.12566
0.22521	0.15117
-0.20832	-0.92016
-0.18282	0.20219
-0.00431	0.07465
0.42922	0.38074
0.70974	0.45726
0.04670	0.15117
0.04670	-0.35899
-0.18282	-0.56305
0.25071	0.04914
0.37822	0.15117
0.07220	0.89089
-0.20832	0.00000
-0.10631	0.86539
0.53123	0.71234
0.63323	0.58480
0.32721	0.27871
-0.05531	-0.05289
-0.18282	-0.05289
0.12320	-0.41000
0.27621	-0.33348
-0.10631	-0.46102
-0.15732	-0.33348
-0.05531	-0.79262
-0.28482	0.10015
0.65874	0.83988
0.48022	0.81437
0.19971	0.15117
0.22521	0.32972
0.32721	0.48277
-0.10631	-0.28246
0.37822	0.35523
-0.43783	-0.02739
-0.36133	-0.38449
0.25071	0.40625
0.55673	0.78886
0.25071	0.86539
-0.05531	-0.02739
0.27621	0.22769
-0.23382	-0.79262
0.12320	-1.07320
-0.02981	-0.23145
0.14870	0.15117
-0.02981	0.22769
0.30171	0.58480
0.53123	1.24800
0.32721	0.91640
0.07220	0.81437
0.09770	0.55929
0.17421	-0.25695
0.45472	-0.38449
0.14870	-0.38449
-0.10631	-0.48652
-0.13181	-0.18043
0.07220	-0.18043
0.14870	0.10015
0.04670	-0.02739
-0.05531	0.53379
0.02119	0.86539
0.32721	0.91640
0.58223	0.22769
0.22521	-0.35899
-0.48884	0.04914
-0.10631	0.35523
0.22521	0.66132
0.45472	0.71234
0.42922	-0.28246
-0.23382	-0.41000
0.09770	-0.30797
0.32721	0.07465
0.42922	0.63582
-0.23382	0.66132
-0.36133	-0.15492
0.04670	-0.74160
0.02119	-0.69059
0.65874	0.58480
0.19971	0.15117
-0.13181	0.32972
-0.13181	0.66132
0.50573	0.96742
0.17421	0.48277
-0.15732	-0.05289
-0.38683	-0.30797
-0.31033	-1.73640
0.63323	-0.23145
0.76074	0.61031
0.48022	-0.15492
0.22521	0.45726
-0.08081	0.86539
0.14870	1.01843
0.30171	0.58480
0.42922	0.66132
0.12320	0.07465
-0.33583	-0.15492
0.12320	-1.07320
-0.33583	-0.28246
0.09770	0.17668
0.35272	-0.33348
0.70974	0.20219
-0.02981	0.10015
-0.18282	-0.38449
-0.00431	0.94191
-0.02981	0.94191
0.12320	-0.56305
0.30171	-0.30797
0.25071	0.30422
-0.20832	0.10015
-0.23382	0.73785
0.48022	0.48277
0.09770	-0.07840
0.45472	0.15117
0.19971	0.04914
0.12320	-0.41000
0.04670	-0.02739
0.12320	0.40625
0.37822	0.50828
0.04670	0.38074
-0.02981	0.15117
-0.00431	0.17668
-0.05531	-0.35899
0.30171	-0.56305
0.04670	0.35523
0.04670	0.71234
0.42922	0.50828
-0.20832	0.12566
0.12320	-1.45582
0.27621	-0.48652
0.12320	-0.46102
0.50573	0.71234
0.42922	1.37554
-0.02981	0.86539
-0.10631	1.35003
-0.23382	-0.00188
-0.36133	-0.81812
0.07220	-0.05289
0.35272	0.50828
0.19971	0.58480
0.48022	1.04394
0.40372	0.81437
-0.28482	0.50828
0.32721	-1.20074
-0.28482	-1.83844
0.07220	-1.68539
0.22521	-0.51203
0.25071	0.94191
0.53123	1.24800
0.30171	0.83988
-0.05531	0.61031
0.19971	0.32972
0.19971	0.76336
0.45472	0.63582
-0.38683	-0.10391
-0.43783	-0.33348
-0.28482	-1.37929
0.30171	-0.28246
0.32721	0.63582
0.30171	0.68683
0.07220	0.73785
0.19971	0.50828
0.53123	0.55929
0.32721	0.04914
0.02119	0.02363
-0.25932	0.30422
-0.33583	0.17668
-0.08081	-0.66508
0.76074	0.30422
0.53123	0.30422
0.27621	-0.33348
0.42922	0.17668
0.02119	0.07465
0.12320	0.30422
-0.00431	0.35523
-0.08081	0.15117
-0.46334	-0.28246
0.45472	0.78886
0.63323	0.12566
0.09770	-1.02219
0.14870	-0.56305
0.14870	0.71234
0.50573	1.55410
0.19971	0.99292
0.12320	1.27351
-0.38683	0.76336
-0.05531	-0.46102
-0.05531	-1.40480
0.02119	-2.85874
0.17421	-0.38449
0.32721	0.86539
0.12320	0.91640
0.25071	0.58480
0.22521	0.71234
0.14870	0.50828
0.14870	0.38074
-0.08081	0.32972
0.22521	0.20219
0.35272	0.10015
0.35272	0.25320
-0.20832	-0.66508
0.02119	0.68683
0.04670	-0.07840
0.27621	0.38074
0.27621	-1.68539
0.22521	-1.35379
-0.43783	-0.41000
0.22521	0.50828
0.32721	1.12046
0.27621	1.24800
0.19971	1.12046
0.09770	1.29902
0.07220	1.37554
0.32721	0.55929
0.17421	-0.33348
-0.00431	-1.40480
0.07220	-0.94566
0.04670	0.02363
0.02119	-0.10391
0.35272	0.20219
0.14870	-0.12942
0.12320	0.55929
0.27621	0.68683
0.02119	-0.07840
0.35272	0.25320
0.55673	-0.05289
-0.33583	-0.15492
-0.08081	-0.12942
0.27621	0.71234
0.09770	0.58480
-0.05531	0.20219
-0.28482	-0.48652
0.12320	-0.10391
0.27621	-0.05289
0.32721	0.68683
-0.05531	0.15117
-0.20832	0.58480
-0.10631	-0.66508
0.60773	-0.20594
0.53123	0.10015
0.42922	0.55929
0.40372	1.32453
-0.02981	0.58480
0.02119	0.20219
0.07220	0.15117
-0.53984	-0.84363
-0.31033	-0.46102
0.25071	-0.15492
0.37822	0.45726
0.25071	0.32972
0.30171	-0.07840
0.53123	0.35523
0.48022	0.61031
-0.02981	0.02363
-0.10631	-0.58856
-0.48884	-0.28246
-0.15732	-0.12942
0.04670	0.25320
0.58223	1.14597
-0.02981	0.73785
0.02119	-0.28246
0.42922	0.63582
0.42922	-0.71609
0.14870	0.30422
0.32721	-0.02739
0.02119	0.30422
-0.38683	-0.12942
-0.20832	0.17668
0.48022	0.53379
0.37822	0.86539
-0.05531	0.32972
-0.33583	-0.35899
0.37822	0.32972
0.73524	0.30422
0.02119	0.30422
-0.10631	-0.30797
-0.43783	-1.50683
0.12320	-1.20074
0.42922	0.58480
0.25071	1.22250
0.07220	1.01843
0.12320	0.61031
-0.08081	0.02363
0.42922	0.17668
0.25071	-0.20594
-0.28482	-0.89465
-0.25932	-0.28246
0.22521	0.71234
0.63323	0.53379
0.19971	0.83988
0.14870	0.78886
0.12320	0.78886
0.27621	0.38074
-0.02981	-0.84363
0.40372	-0.07840
-0.23382	-0.30797
-0.18282	0.25320
0.14870	0.45726
0.73524	0.73785
0.35272	0.12566
-0.10631	-1.09871
0.12320	0.73785
-0.23382	-1.02219
0.35272	0.35523
0.35272	1.09496
0.27621	0.20219
-0.13181	0.17668
0.12320	0.25320
0.25071	0.32972
-0.02981	-0.28246
-0.02981	-0.38449
0.60773	0.58480
0.50573	0.63582
0.30171	0.55929
-0.15732	0.61031
-0.25932	0.04914
-0.38683	-0.76711
0.32721	-1.37929
0.63323	0.73785
-0.08081	0.45726
0.25071	0.43176
0.14870	0.38074
0.32721	0.20219
0.37822	0.25320
0.04670	0.30422
0.07220	-1.12422
-0.31033	-1.35379
0.09770	0.35523
0.42922	1.14597
-0.02981	0.96742
-0.20832	0.12566
0.12320	-0.00188
0.42922	0.71234
0.32721	0.63582
0.07220	-1.12422
0.09770	-0.63957
-0.20832	-0.38449
0.09770	0.53379
0.17421	1.01843
0.27621	1.06945
0.02119	0.17668
0.12320	-0.46102
0.09770	-0.86914
0.40372	0.17668
0.32721	0.50828
0.02119	-0.10391
-0.56534	0.27871
-0.13181	0.63582
0.60773	0.43176
0.27621	-0.56305
0.04670	-0.58856
0.09770	0.40625
-0.05531	0.50828
0.35272	0.78886
0.07220	0.30422
0.12320	0.32972
-0.02981	-0.81812
-0.18282	-0.79262
0.32721	0.17668
0.30171	0.02363
-0.00431	-0.00188
0.32721	0.58480
0.14870	0.86539
0.19971	0.68683
0.12320	0.32972
-0.13181	-0.15492
-0.10631	-0.07840
0.32721	0.04914
0.73524	0.35523
-0.05531	-0.41000
-0.05531	-0.05289
0.09770	0.12566
0.09770	-0.00188
0.48022	0.55929
0.42922	0.17668
0.09770	0.30422
-0.48884	0.04914
-0.10631	-0.56305
0.37822	0.86539
-0.00431	0.04914
0.14870	-0.30797
0.02119	-0.07840
0.17421	0.35523
0.88825	0.76336
0.17421	0.35523
0.04670	0.58480
-0.08081	0.27871
-0.13181	0.10015
0.17421	-0.97117
0.35272	-0.46102
0.07220	-0.33348
0.19971	0.04914
0.19971	0.48277
0.32721	0.61031
0.30171	0.96742
-0.10631	0.15117
-0.41233	-0.20594
0.22521	-0.00188
0.60773	0.32972
0.12320	0.40625
-0.00431	-0.20594
0.35272	0.17668
0.65874	0.15117
0.35272	0.35523
-0.25932	-0.30797
-0.46334	-0.02739
-0.02981	0.43176
0.14870	0.38074
0.19971	-0.43551
0.37822	-1.22625
0.35272	0.43176
0.09770	1.22250
-0.08081	1.12046
-0.08081	0.76336
0.09770	0.58480
-0.02981	-0.10391
-0.05531	-0.25695
0.17421	-0.66508
0.81175	-0.07840
0.14870	-0.51203
0.27621	0.45726
0.04670	0.55929
0.25071	0.15117
0.14870	-0.33348
0.17421	0.20219
0.04670	0.76336
-0.41233	-0.38449
0.27621	-0.15492
0.40372	-0.02739
0.09770	0.07465
0.22521	1.12046
0.02119	0.96742
0.14870	0.53379
0.53123	0.35523
0.02119	-0.00188
-0.25932	-0.35899
-0.41233	-0.05289
-0.05531	-0.86914
0.42922	0.15117
0.50573	0.32972
0.02119	0.15117
0.17421	0.71234
0.48022	0.35523
0.22521	0.04914
0.12320	-0.15492
-0.41233	-0.25695
-0.10631	0.20219
0.19971	0.66132
0.27621	0.86539
0.09770	-0.25695
0.22521	-1.63437
0.04670	-0.38449
0.35272	0.43176
0.48022	0.63582
0.19971	1.70714
-0.25932	0.76336
0.02119	0.04914
-0.00431	-0.30797
-0.00431	-0.07840
-0.08081	-0.28246
0.45472	0.71234
0.14870	0.55929
0.09770	-0.05289
0.22521	0.17668
0.07220	0.22769
0.25071	-0.00188
-0.18282	-0.53754
0.17421	-0.69059
0.60773	0.43176
0.35272	0.50828
0.09770	0.53379
0.09770	0.48277
0.07220	0.22769
0.12320	-0.05289
-0.10631	0.04914
-0.36133	-0.99668
-0.38683	-0.28246
0.12320	0.35523
0.42922	0.78886
0.48022	1.06945
0.27621	0.96742
0.30171	0.50828
0.27621	0.22769
0.32721	0.02363
0.27621	0.07465
-0.15732	-0.79262
-0.31033	-0.66508
0.19971	-0.97117
0.50573	0.40625
0.07220	-0.00188
0.12320	0.83988
0.14870	1.42656
0.12320	1.01843
0.30171	-0.56305
0.37822	0.25320
-0.23382	-0.76711
-0.51434	-0.05289
0.50573	0.43176
1.21977	-0.15492
0.30171	0.38074
-0.23382	0.38074
-0.08081	0.76336
0.07220	0.32972
-0.15732	0.02363
-0.25932	-0.53754
-0.20832	-0.63957
-0.28482	-0.05289
0.53123	0.12566
0.96476	0.58480
0.55673	0.78886
0.19971	0.53379
0.04670	-0.00188
-0.13181	0.04914
-0.02981	0.35523
0.09770	0.40625
-0.13181	-0.05289
-0.20832	-1.09871
0.63323	-0.00188
0.60773	0.76336
0.14870	1.12046
0.14870	-0.15492
-0.28482	0.15117
0.07220	-0.28246
0.37822	-0.81812
0.07220	0.71234
0.04670	0.61031
0.22521	0.20219
0.12320	0.40625
0.35272	0.63582
0.30171	0.45726
0.02119	0.02363
0.07220	-0.23145
-0.00431	0.02363
0.22521	-0.07840
0.02119	-0.53754
-0.23382	-0.74160
-0.23382	-0.35899
0.27621	0.32972
0.60773	1.14597
0.22521	1.09496
0.37822	0.55929
-0.08081	-2.14453
0.07220	-0.12942
0.12320	0.48277
0.12320	0.81437
-0.15732	0.73785
-0.20832	0.61031
0.35272	0.22769
0.42922	0.50828
0.07220	0.04914
-0.08081	-0.23145
0.14870	0.04914
0.12320	-0.61406
0.22521	0.04914
0.30171	0.55929
-0.23382	-0.86914
-0.00431	-0.35899
0.32721	-0.00188
0.65874	0.96742
0.25071	0.81437
0.17421	0.63582
-0.23382	0.81437
-0.10631	0.32972
0.19971	-0.43551
0.07220	-1.09871
-0.10631	0.35523
-0.23382	0.32972
0.02119	0.30422
0.76074	0.04914
0.42922	0.12566
0.32721	0.25320
-0.31033	0.10015
-0.05531	0.27871
0.50573	0.50828
0.17421	-0.30797
-0.05531	0.15117
-0.38683	-0.18043
0.02119	0.30422
0.58223	0.48277
0.27621	0.81437
0.25071	0.43176
-0.13181	0.22769
-0.05531	0.17668
0.37822	0.12566
0.02119	-1.04770
-0.28482	-0.94566
0.12320	0.53379
0.02119	0.40625
0.14870	0.48277
0.42922	0.30422
0.53123	0.55929
0.07220	-0.05289
0.32721	0.43176
0.25071	-0.07840
0.12320	0.17668
-0.36133	-0.05289
-0.59084	-0.05289
-0.00431	-0.12942
0.68424	0.58480
0.32721	0.04914
0.35272	0.40625
-0.23382	-0.76711
0.58223	0.55929
0.17421	-0.48652
0.02119	0.25320
0.12320	0.25320
-0.02981	0.63582
0.09770	1.04394
0.53123	0.38074
0.53123	0.50828
0.02119	-0.15492
-0.02981	-0.25695
0.04670	-0.00188
0.17421	-0.05289
0.14870	0.02363
-0.08081	0.12566
-0.33583	-0.07840
-0.10631	-0.05289
0.48022	-0.92016
0.37822	0.15117
0.22521	0.58480
0.02119	1.27351
0.22521	0.66132
0.40372	-0.84363
-0.13181	-0.30797
-0.10631	0.15117
-0.18282	-0.00188
0.12320	0.30422
0.58223	0.45726
0.35272	0.45726
0.09770	0.38074
-0.05531	0.45726
-0.02981	0.35523
0.42922	0.27871
0.42922	0.10015
-0.13181	-0.46102
-0.18282	-0.81812
-0.08081	-0.20594
0.50573	0.35523
0.09770	0.12566
0.12320	-0.18043
0.07220	0.32972
0.14870	0.66132
0.35272	0.83988
-0.13181	0.10015
0.12320	-0.12942
-0.33583	-0.97117
0.22521	-0.12942
0.93925	0.10015
0.58223	0.83988
-0.25932	0.83988
-0.08081	0.40625
0.14870	0.15117
0.17421	-0.23145
0.22521	0.20219
-0.10631	0.15117
-0.18282	0.15117
0.04670	-0.05289
0.37822	0.17668
0.19971	0.30422
0.19971	0.63582
0.19971	0.58480
0.02119	-0.48652
0.19971	-1.43031
0.37822	-0.48652
0.14870	0.55929
-0.13181	0.99292
0.04670	0.91640
0.42922	0.27871
-0.00431	-0.74160
-0.05531	-0.43551
0.22521	0.83988
0.17421	1.01843
0.45472	0.04914
0.02119	0.25320
-0.28482	-0.30797
-0.33583	-0.15492
0.07220	0.10015
0.86275	0.32972
0.02119	0.25320
-0.05531	-0.43551
0.22521	-0.10391
0.27621	0.25320
0.12320	0.66132
0.12320	0.35523
-0.13181	-0.15492
-0.31033	-0.53754
0.14870	0.22769
0.53123	0.58480
0.53123	-0.61406
0.22521	-0.28246
0.19971	0.78886
-0.02981	0.73785
0.37822	0.94191
0.17421	0.38074
-0.08081	-0.12942
-0.33583	-0.33348
-0.23382	-0.23145
0.45472	0.55929
0.32721	0.20219
0.09770	0.27871
0.09770	0.38074
0.12320	-0.05289
0.60773	0.04914
-0.10631	-1.07320
-0.02981	-1.07320
-0.13181	-0.00188
-0.05531	0.22769
0.60773	1.17148
0.27621	0.76336
0.09770	0.58480
0.22521	0.66132
0.17421	0.48277
0.25071	0.15117
-0.00431	-0.46102
-0.00431	-0.48652
-0.41233	-0.12942
0.07220	0.40625
0.86275	0.50828
0.35272	0.12566
0.27621	0.45726
0.02119	-0.28246
-0.36133	-0.38449
-0.02981	-0.05289
0.17421	0.32972
0.22521	0.63582
-0.00431	0.43176
0.04670	0.20219
0.60773	0.45726
0.50573	0.45726
-0.02981	-0.00188
-0.02981	0.27871
0.09770	0.30422
0.32721	-0.46102
-0.08081	-1.17523
-0.23382	-1.40480
-0.28482	0.48277
-0.18282	0.83988
0.73524	1.14597
0.68424	1.06945
0.02119	0.32972
0.02119	-0.12942
0.14870	-0.23145
0.32721	0.27871
0.17421	0.43176
0.02119	-0.18043
-0.46334	-0.02739
-0.10631	0.04914
0.78624	0.53379
0.42922	-0.02739
0.04670	0.07465
0.25071	0.45726
-0.20832	0.07465
0.40372	-0.25695
0.14870	0.50828
-0.05531	0.04914
-0.38683	-0.43551
-0.20832	-1.22625
0.76074	0.71234
0.19971	0.89089
0.22521	0.99292
0.30171	0.89089
0.04670	0.53379
0.37822	-0.10391
0.07220	-0.07840
-0.15732	-0.07840
-0.18282	-0.38449
0.32721	-1.43031
0.73524	0.43176
-0.02981	0.78886
0.17421	0.86539
0.09770	1.01843
0.02119	0.71234
0.19971	-0.20594
0.07220	-0.89465
-0.18282	-1.02219
-0.18282	0.10015
0.02119	0.15117
0.35272	0.78886
0.09770	0.43176
0.35272	0.71234
0.25071	0.45726
0.32721	0.45726
0.27621	-0.41000
0.17421	0.10015
-0.20832	-1.63437
-0.28482	0.22769
0.22521	0.04914
0.73524	0.81437
0.30171	0.91640
-0.10631	0.55929
-0.18282	1.06945
0.22521	0.40625
0.25071	-0.76711
-0.31033	-1.07320
0.07220	0.04914
-0.08081	-0.12942
0.17421	0.25320
0.42922	0.83988
0.35272	0.68683
0.17421	0.15117
0.07220	0.15117
0.12320	0.68683
0.58223	0.25320
-0.08081	-0.30797
-0.51434	-2.27207
-0.13181	-0.76711
0.14870	0.55929
0.58223	1.12046
0.50573	1.12046
0.30171	0.76336
0.02119	0.78886
0.12320	0.61031
0.02119	-0.48652
-0.18282	-1.09871
-0.13181	-0.71609
0.04670	0.32972
-0.08081	0.68683
0.65874	0.66132
0.30171	0.17668
0.02119	0.17668
-0.13181	0.40625
0.09770	0.20219
0.32721	-0.35899
0.19971	-0.43551
0.04670	-0.23145
-0.13181	0.25320
0.07220	0.38074
0.25071	0.22769
0.19971	0.76336
0.19971	0.76336
0.48022	0.38074
0.02119	-0.10391
0.04670	-1.17523
0.12320	-0.23145
-0.13181	0.32972
-0.05531	0.73785
-0.10631	-0.46102
0.45472	0.45726
-0.05531	0.07465
0.19971	-0.15492
0.12320	0.20219
-0.25932	0.12566
0.42922	0.27871
0.35272	0.43176
0.14870	0.10015
-0.05531	0.12566
-0.02981	0.07465
0.48022	-0.00188
0.32721	-0.15492
0.07220	0.20219
-0.33583	0.04914
0.04670	0.20219
0.60773	0.07465
0.07220	0.17668
-0.02981	-0.05289
-0.23382	-0.33348
-0.18282	0.12566
0.76074	0.45726
0.42922	0.55929
0.22521	0.50828
0.04670	0.78886
0.07220	0.04914
0.12320	-0.97117
-0.00431	-0.61406
0.02119	0.40625
-0.43783	-1.04770
0.12320	0.30422
0.68424	1.14597
0.58223	1.04394
0.22521	0.81437
-0.02981	0.22769
-0.28482	0.10015
0.22521	-0.18043
0.02119	-1.17523
0.17421	-0.63957
-0.18282	0.45726
0.17421	0.55929
0.55673	0.48277
0.32721	0.38074
0.42922	0.15117
0.07220	0.04914
-0.18282	-0.23145
0.12320	-0.41000
-0.23382	0.20219
0.14870	0.22769
-0.33583	0.27871
0.07220	0.15117
0.50573	0.40625
0.60773	0.45726
0.19971	0.30422
-0.00431	-0.02739
0.12320	-0.20594
0.30171	0.27871
-0.15732	0.27871
-0.02981	-0.05289
-0.31033	-0.41000
0.02119	0.15117
0.58223	0.38074
0.48022	0.38074
-0.00431	-0.10391
0.25071	0.50828
0.17421	-0.51203
0.02119	-1.27726
0.17421	0.40625
0.07220	0.99292
-0.31033	0.66132
-0.20832	0.50828
0.48022	0.58480
0.40372	0.10015
0.22521	0.32972
-0.00431	0.15117
0.02119	-0.18043
0.30171	-0.23145
0.22521	0.02363
0.02119	-0.28246
-0.23382	-0.18043
-0.25932	-0.10391
0.70974	-0.00188
0.58223	-0.07840
0.58223	-0.20594
-0.08081	0.83988
-0.18282	0.73785
-0.00431	0.32972
0.09770	0.68683
-0.08081	0.50828
-0.25932	0.07465
-0.15732	-1.25176
0.35272	-0.12942
0.45472	0.12566
0.22521	0.86539
-0.08081	0.89089
0.48022	0.35523
0.68424	-0.35899
0.22521	0.02363
-0.08081	0.15117
-0.38683	0.27871
-0.10631	0.35523
0.55673	0.45726
0.25071	0.20219
0.07220	0.04914
-0.08081	0.12566
0.22521	0.17668
0.70974	-0.12942
0.19971	0.27871
-0.00431	0.10015
-0.51434	-0.51203
-0.33583	-0.46102
0.35272	-0.05289
0.22521	0.12566
0.07220	0.43176
0.30171	0.71234
0.22521	0.91640
0.37822	0.58480
0.04670	-0.23145
-0.08081	0.07465
-0.05531	-0.07840
-0.08081	-0.07840
0.48022	0.10015
0.25071	0.66132
0.35272	0.68683
0.07220	0.55929
0.07220	0.63582
0.27621	0.07465
0.09770	-0.25695
0.14870	-1.37929
-0.38683	-0.84363
-0.31033	0.04914
0.53123	-0.15492
0.37822	0.58480
0.30171	0.45726
0.02119	1.04394
0.02119	0.68683
0.12320	0.20219
0.17421	0.32972
0.14870	-0.12942
-0.15732	-1.17523
0.14870	0.15117
0.48022	0.30422
0.25071	0.15117
0.07220	0.15117
-0.05531	0.38074
0.19971	0.55929
0.30171	0.20219
0.27621	0.04914
0.07220	-0.30797
-0.38683	-0.63957
-0.10631	-0.00188
0.48022	0.38074
0.12320	0.68683
0.02119	0.07465
0.19971	0.53379
0.40372	0.81437
0.55673	0.38074
0.12320	0.04914
-0.08081	-0.25695
-0.20832	-0.38449
-0.25932	-0.97117
0.22521	0.04914
0.22521	-0.10391
0.32721	0.78886
0.27621	1.37554
0.22521	1.06945
0.27621	0.35523
0.17421	-0.18043
-0.08081	-0.35899
-0.23382	-0.63957
-0.10631	0.02363
0.48022	-0.02739
0.17421	-0.41000
0.19971	0.17668
0.14870	0.94191
0.02119	0.96742
0.42922	0.50828
0.04670	0.25320
-0.15732	-0.53754
-0.08081	-2.88425
-0.00431	-0.51203
0.70974	1.27351
0.40372	1.55410
0.25071	1.32453
-0.23382	0.94191
-0.00431	-0.23145
0.25071	-0.41000
0.27621	-0.43551
0.09770	-0.15492
-0.08081	0.15117
-0.02981	0.02363
0.27621	0.45726
0.32721	0.32972
0.68424	0.27871
-0.25932	0.27871
-0.02981	0.27871
0.02119	-0.10391
0.14870	-0.61406
0.30171	-0.15492
-0.23382	-0.02739
0.09770	0.15117
0.53123	0.58480
0.04670	0.20219
-0.13181	0.66132
-0.15732	0.89089
0.09770	0.38074
0.40372	0.30422
0.12320	-0.66508
0.12320	0.07465
-0.15732	0.04914
0.17421	0.40625
0.73524	0.22769
0.27621	-0.56305
0.27621	0.15117
-0.25932	0.50828
-0.02981	0.27871
0.32721	-0.02739
0.19971	0.04914
0.14870	0.04914
-0.43783	0.07465
-0.00431	0.35523
0.70974	0.55929
0.65874	0.12566
-0.02981	-0.38449
-0.28482	0.35523
-0.02981	-0.30797
0.32721	-0.10391
-0.38683	-0.30797
-0.33583	-0.05289
-0.02981	0.66132
0.37822	0.81437
0.63323	0.86539
0.45472	0.45726
0.32721	0.17668
0.02119	0.25320
-0.05531	-0.07840
0.37822	-0.41000
-0.08081	-0.53754
0.02119	-0.10391
-0.15732	0.07465
0.17421	0.27871
0.53123	0.27871
0.27621	0.35523
0.14870	0.25320
-0.10631	0.27871
0.25071	0.02363
0.22521	-0.35899
0.07220	-0.15492
0.07220	-0.51203
-0.31033	0.22769
0.02119	0.63582
0.73524	1.06945
0.40372	0.68683
0.22521	0.04914
0.04670	0.07465
0.09770	-0.10391
0.40372	0.02363
0.02119	0.12566
-0.05531	0.17668
-0.56534	-1.02219
-0.23382	0.25320
0.53123	0.30422
0.53123	0.35523
0.14870	0.32972
0.02119	-0.00188
0.19971	0.71234
0.53123	0.35523
0.12320	-0.69059
0.12320	-0.97117
-0.15732	0.27871
-0.05531	0.63582
0.65874	0.83988
0.19971	0.61031
0.07220	0.30422
-0.02981	-0.05289
-0.00431	-0.28246
0.50573	0.22769
0.22521	0.35523
0.04670	0.12566
-0.43783	-0.41000
0.27621	-0.07840
0.81175	0.22769
0.02119	0.63582
-0.00431	0.76336
0.02119	0.76336
0.04670	-0.43551
0.30171	-0.56305
0.19971	-0.38449
0.12320	0.22769
-0.08081	0.22769
0.09770	0.53379
0.65874	0.73785
0.32721	0.53379
-0.08081	-0.07840
-0.18282	-0.25695
-0.25932	-0.05289
0.53123	0.25320
0.37822	0.15117
-0.08081	0.38074
-0.33583	-0.05289
-0.05531	-0.30797
0.58223	-0.15492
0.17421	0.63582
0.09770	0.73785
0.12320	0.43176
0.22521	0.25320
0.04670	0.10015
0.30171	0.50828
0.19971	-0.18043
-0.31033	-0.33348
-0.05531	-0.15492
0.63323	0.10015
0.65874	0.58480
-0.08081	-0.10391
-0.51434	-0.46102
-0.20832	-0.20594
0.53123	0.04914
0.27621	0.71234
0.27621	0.43176
-0.20832	0.38074
-0.13181	0.45726
0.63323	0.20219
0.68424	-0.15492
-0.20832	-0.74160
-0.00431	0.30422
0.17421	0.48277
0.19971	0.30422
0.19971	-0.00188
-0.10631	-0.53754
-0.31033	0.20219
-0.02981	0.35523
0.83725	0.96742
0.48022	0.25320
0.14870	-0.43551
-0.00431	-0.63957
-0.08081	0.43176
0.30171	0.35523
0.12320	0.73785
0.12320	0.50828
-0.10631	0.04914
-0.28482	-0.61406
0.60773	0.04914
0.04670	0.27871
0.32721	0.25320
0.02119	0.30422
0.12320	0.32972
0.53123	-0.10391
0.02119	0.07465
0.02119	-0.05289
-0.25932	-0.46102
0.12320	0.35523
0.55673	0.66132
0.37822	0.25320
0.19971	-0.58856
-0.05531	0.48277
0.02119	0.61031
0.30171	0.40625
0.07220	0.35523
-0.08081	0.30422
-0.25932	-0.63957
-0.00431	-0.43551
0.53123	0.02363
0.55673	0.55929
0.09770	0.17668
0.17421	0.35523
0.12320	0.86539
0.30171	0.55929
0.07220	0.38074
-0.33583	-0.66508
-0.36133	-0.15492
0.19971	-0.28246
0.55673	-0.30797
0.53123	0.40625
0.32721	0.22769
0.09770	0.50828
0.22521	0.02363
0.19971	0.02363
-0.20832	0.22769
-0.08081	0.17668
-0.64185	-0.12942
-0.38683	0.12566
0.60773	0.27871
0.68424	0.15117
0.27621	-0.12942
0.14870	0.63582
0.32721	0.43176
0.50573	0.12566
-0.10631	0.15117
-0.10631	-0.46102
-0.13181	0.38074
0.04670	-0.05289
0.73524	0.43176
0.30171	-0.05289
-0.05531	-0.12942
-0.10631	0.30422
0.14870	-0.05289
0.42922	0.76336
0.02119	0.20219
-0.00431	0.35523
-0.31033	0.12566
-0.05531	0.10015
0.65874	0.27871
0.22521	0.17668
-0.02981	0.07465
-0.10631	-0.05289
0.04670	-0.48652
0.30171	-0.10391
0.09770	0.12566
0.25071	0.15117
0.35272	0.27871
0.02119	0.32972
0.30171	0.22769
0.02119	0.17668
-0.15732	0.12566
-0.18282	0.04914
-0.10631	0.10015
0.48022	0.48277
0.17421	0.43176
0.25071	0.35523
-0.08081	0.12566
0.02119	-0.18043
0.68424	0.12566
0.22521	0.10015
0.19971	0.55929
-0.13181	-0.38449
0.14870	0.55929
0.45472	0.17668
0.27621	0.43176
-0.20832	-0.41000
-0.76936	-0.94566
-0.08081	-0.15492
0.60773	0.91640
0.45472	0.76336
0.25071	0.53379
0.04670	0.17668
0.12320	0.27871
0.25071	0.12566
0.09770	0.25320
0.02119	-0.41000
-0.28482	-0.43551
-0.18282	-0.15492
0.63323	0.20219
0.22521	0.22769
0.09770	0.17668
0.55673	0.71234
0.30171	0.35523
0.45472	0.12566
-0.51434	-0.00188
-0.15732	0.17668
-0.13181	-0.25695
0.04670	-0.18043
0.42922	0.35523
0.22521	0.53379
0.09770	0.38074
0.07220	0.38074
0.19971	0.30422
0.35272	-0.46102
0.40372	-0.00188
0.35272	-0.00188
-0.18282	0.27871
-0.20832	0.40625
0.50573	0.48277
0.30171	-0.43551
0.30171	0.43176
-0.15732	0.55929
-0.10631	0.38074
0.30171	0.04914
0.09770	-0.15492
-0.08081	-0.48652
-0.41233	0.04914
0.04670	0.10015
0.58223	0.32972
0.30171	-0.15492
0.12320	0.22769
0.09770	0.73785
-0.05531	0.30422
0.60773	-0.58856
0.19971	-0.10391
-0.28482	0.76336
-0.00431	0.55929
0.09770	-0.25695
0.50573	-0.23145
0.30171	0.55929
0.19971	0.73785
0.12320	0.94191
0.17421	0.66132
0.25071	-0.48652
0.02119	-0.41000
-0.13181	-0.92016
-0.43783	-0.20594
0.02119	0.15117
0.73524	0.86539
0.17421	0.27871
-0.08081	-0.20594
-0.15732	0.32972
0.17421	-0.02739
0.58223	-0.28246
0.09770	-0.35899
0.04670	0.58480
-0.15732	0.48277
0.04670	0.53379
0.68424	0.50828
0.37822	0.45726
-0.05531	-0.92016
-0.00431	0.30422
-0.02981	0.12566
0.55673	-0.41000
0.53123	0.43176
-0.08081	0.71234
-0.20832	0.35523
-0.20832	0.22769
0.48022	-0.76711
0.14870	0.35523
0.02119	-0.89465
0.07220	0.15117
0.30171	0.10015
0.37822	0.43176
0.40372	1.14597
0.17421	0.63582
-0.18282	-0.51203
-0.28482	-0.25695
0.25071	0.02363
0.37822	0.17668
0.22521	-0.05289
-0.05531	0.43176
0.22521	0.61031
0.30171	0.17668
0.09770	0.12566
0.17421	-0.00188
-0.38683	-0.12942
0.12320	-0.12942
0.70974	-0.30797
0.22521	-0.46102
-0.00431	0.63582
-0.08081	0.71234
-0.15732	0.58480
0.35272	0.40625
0.22521	0.22769
0.27621	0.38074
-0.15732	-0.33348
-0.15732	-0.56305
0.63323	0.30422
0.30171	0.48277
0.12320	0.48277
-0.02981	0.22769
0.12320	0.43176
0.35272	0.04914
0.09770	-0.05289
0.02119	-0.33348
-0.33583	-0.18043
0.25071	-0.10391
0.48022	0.17668
0.32721	0.27871
0.02119	0.50828
0.02119	0.50828
0.22521	0.25320
0.53123	0.17668
0.14870	-0.05289
-0.31033	0.07465
-0.74385	-2.19554
0.07220	0.04914
1.09226	0.71234
0.12320	1.01843
0.30171	0.71234
0.25071	1.29902
0.14870	0.66132
0.35272	0.17668
-0.05531	-0.25695
-0.00431	-0.58856
-0.08081	-0.43551
0.19971	0.12566
0.58223	0.38074
0.19971	0.10015
0.07220	-0.58856
-0.15732	-0.35899
-0.10631	0.17668
0.37822	0.12566
0.14870	0.43176
0.09770	0.58480
-0.02981	0.32972
0.02119	-0.12942
0.65874	-0.28246
0.22521	0.45726
0.27621	0.35523
0.12320	0.58480
0.14870	0.45726
0.07220	0.20219
-0.02981	-0.12942
0.19971	-0.41000
-0.23382	-0.53754
-0.18282	-0.56305
0.48022	0.15117
0.14870	0.66132
0.04670	0.27871
-0.00431	0.63582
0.17421	0.96742
0.63323	0.53379
0.25071	0.38074
-0.10631	0.07465
-0.36133	-0.25695
-0.28482	-0.25695
0.65874	0.04914
0.50573	0.17668
0.25071	0.10015
0.04670	0.04914
-0.02981	0.10015
0.35272	-0.30797
0.12320	-0.56305
0.07220	0.04914
-0.15732	0.50828
0.02119	0.35523
0.48022	0.68683
0.19971	0.61031
-0.15732	-0.30797
-0.02981	0.91640
0.27621	0.50828
0.42922	-0.33348
0.30171	-0.58856
0.27621	0.22769
-0.28482	0.15117
-0.02981	0.27871
0.65874	0.30422
0.27621	-0.18043
0.02119	0.15117
-0.15732	-0.35899
-0.08081	0.04914
0.45472	0.53379
0.40372	0.55929
0.09770	0.12566
-0.10631	-0.33348
-0.08081	0.22769
0.50573	0.55929
0.07220	0.30422
0.02119	0.45726
0.07220	0.43176
0.17421	0.04914
0.02119	-0.84363
0.04670	-0.30797
-0.05531	0.15117
-0.38683	-0.10391
-0.33583	0.07465
0.81175	0.20219
0.14870	-0.81812
0.12320	0.30422
0.09770	1.01843
0.42922	0.10015
0.53123	0.22769
0.04670	0.30422
0.07220	0.58480
-0.51434	0.17668
-0.15732	-0.38449
0.60773	-0.18043
0.25071	-0.18043
0.02119	0.43176
-0.13181	0.43176
0.12320	0.43176
0.32721	-0.25695
0.07220	0.07465
0.19971	-0.05289
-0.31033	-0.51203
-0.10631	-0.51203
0.45472	0.10015
0.48022	0.40625
0.32721	0.32972
0.02119	0.48277
0.02119	0.68683
0.19971	0.30422
0.04670	-0.18043
0.07220	0.02363
-0.23382	-0.23145
0.04670	0.04914
0.53123	0.10015
0.58223	-0.05289
0.22521	-0.05289
-0.28482	0.38074
0.12320	0.94191
0.58223	0.68683
0.19971	0.20219
0.12320	0.35523
-0.23382	-0.43551
0.12320	-0.20594
0.40372	-0.02739
0.17421	0.17668
0.12320	0.17668
-0.18282	0.22769
0.04670	0.25320
0.50573	0.17668
0.19971	0.04914
0.12320	0.12566
-0.38683	-0.35899
-0.08081	-0.56305
0.83725	0.12566
0.30171	0.45726
0.04670	0.91640
0.19971	0.61031
0.32721	0.78886
0.27621	-0.53754
0.02119	0.38074
-0.00431	0.02363
-0.36133	-0.05289
0.30171	0.55929
0.60773	0.66132
0.17421	0.78886
-0.00431	-0.10391
-0.20832	-0.66508
0.17421	-0.43551
0.53123	-0.25695
0.12320	-0.18043
0.04670	0.25320
-0.33583	0.32972
-0.10631	0.55929
0.76074	0.81437
0.45472	0.32972
0.14870	-0.05289
0.12320	-0.05289
0.09770	-0.05289
0.22521	-0.12942
0.30171	-0.56305
-0.31033	0.35523
-0.48884	0.45726
0.17421	0.07465
0.42922	0.35523
0.27621	0.30422
0.37822	0.27871
0.30171	0.66132
-0.00431	0.27871
0.19971	-0.43551
0.25071	-0.23145
0.17421	-0.28246
-0.02981	0.38074
-0.15732	0.40625
0.50573	0.38074
0.14870	-0.00188
0.25071	0.30422
-0.05531	0.45726
0.02119	0.73785
0.25071	0.04914
0.09770	-0.15492
0.19971	-1.12422
-0.08081	-0.35899
0.09770	0.40625
0.50573	0.48277
0.30171	0.55929
0.07220	0.66132
-0.10631	0.43176
-0.00431	0.20219
0.42922	-0.48652
0.14870	-0.20594
0.12320	0.20219
-0.15732	0.27871
0.02119	0.50828
0.60773	-0.02739
0.55673	0.35523
0.12320	0.58480
-0.38683	0.22769
-0.13181	-0.38449
0.14870	-0.66508
0.25071	0.12566
-0.15732	0.43176
-0.36133	0.15117
0.12320	0.15117
0.60773	0.35523
0.48022	0.30422
0.30171	-0.20594
0.07220	0.10015
0.19971	0.50828
0.17421	0.22769
0.17421	0.22769
-0.00431	-0.05289
-0.28482	-0.35899
-0.31033	0.20219
0.53123	0.10015
0.45472	0.43176
0.19971	0.04914
0.12320	0.48277
0.22521	0.35523
0.45472	0.25320
0.17421	0.30422
-0.00431	-0.15492
-0.36133	-0.43551
-0.25932	-0.56305
0.37822	0.02363
0.53123	0.58480
0.45472	0.35523
0.04670	0.20219
0.04670	0.50828
0.25071	0.15117
0.07220	0.25320
-0.00431	0.17668
-0.31033	-0.15492
-0.31033	-0.43551
0.68424	0.55929
0.70974	0.68683
0.37822	0.20219
-0.05531	0.10015
-0.02981	-0.10391
0.22521	-0.15492
-0.02981	0.15117
-0.20832	-0.02739
0.27621	0.12566
0.09770	0.20219
0.78624	0.10015
0.48022	0.45726
0.19971	0.50828
-0.13181	0.50828
-0.15732	-0.05289
-0.00431	-0.43551
0.12320	0.20219
0.04670	-0.00188
-0.28482	-0.10391
0.07220	-0.58856
0.73524	-0.00188
0.50573	0.78886
0.19971	0.86539
-0.10631	0.55929
0.09770	0.27871
0.32721	-0.33348
0.19971	-0.28246
0.09770	0.04914
-0.18282	0.43176
0.14870	0.55929
0.48022	0.12566
0.17421	-0.23145
0.07220	0.02363
-0.23382	-0.81812
0.04670	0.40625
0.42922	0.55929
0.53123	0.89089
0.14870	-0.79262
-0.33583	-0.15492
-0.23382	0.04914
0.53123	0.45726
0.17421	0.27871
0.12320	0.45726
0.07220	0.63582
0.17421	0.38074
0.30171	-0.38449
0.07220	-0.56305
-0.00431	-0.23145
-0.23382	-0.25695
0.09770	0.30422
0.73524	0.91640
0.55673	1.14597
0.09770	0.48277
-0.13181	-1.09871
0.37822	-0.76711
0.48022	0.61031
0.14870	0.78886
-0.10631	0.12566
-0.36133	0.07465
-0.20832	0.07465
0.50573	0.43176
0.42922	-0.02739
0.12320	-0.10391
-0.28482	0.12566
0.22521	0.38074
0.42922	0.10015
0.09770	-0.25695
-0.05531	-0.48652
-0.20832	-0.28246
0.27621	0.25320
0.86275	0.43176
0.30171	0.58480
0.12320	-0.00188
-0.15732	-0.10391
-0.00431	0.73785
0.19971	0.40625
0.30171	0.25320
0.07220	-0.69059
-0.28482	-0.00188
0.07220	0.35523
0.63323	0.45726
0.32721	0.32972
0.12320	-0.25695
-0.13181	0.12566
-0.02981	0.61031
0.48022	0.43176
0.27621	0.35523
0.19971	0.12566
-0.13181	-0.12942
0.04670	0.10015
0.45472	-0.76711
0.32721	-0.05289
0.25071	0.25320
0.02119	0.78886
0.07220	0.71234
0.17421	0.12566
0.07220	0.07465
0.09770	0.07465
-0.43783	-0.18043
-0.13181	-0.51203
0.53123	-0.18043
0.53123	0.17668
0.32721	0.40625
0.07220	0.76336
0.25071	0.61031
0.32721	0.43176
-0.05531	0.10015
0.17421	-0.20594
-0.25932	-0.53754
0.04670	-0.89465
0.45472	0.17668
0.48022	0.76336
0.17421	0.71234
-0.20832	0.68683
0.22521	0.45726
0.55673	-0.23145
0.09770	-0.18043
-0.08081	-0.51203
-0.28482	0.04914
-0.10631	0.25320
0.48022	0.43176
0.37822	0.15117
0.22521	0.55929
0.07220	0.58480
0.14870	0.61031
0.45472	-0.86914
-0.05531	-0.46102
-0.00431	-0.33348
-0.36133	0.12566
-0.13181	0.02363
0.63323	0.48277
0.32721	0.58480
0.12320	0.27871
-0.10631	0.20219
0.04670	0.35523
0.37822	0.12566
0.17421	0.07465
0.02119	-0.12942
-0.69285	-0.66508
-0.20832	-0.48652
0.50573	-0.66508
0.30171	0.04914
0.17421	0.53379
-0.02981	1.17148
-0.00431	0.99292
0.22521	0.45726
0.30171	0.10015
0.30171	-0.02739
-0.18282	-0.10391
-0.05531	-0.35899
0.91375	0.27871
0.40372	-1.07320
0.30171	0.27871
0.07220	0.86539
0.12320	0.94191
0.27621	0.43176
-0.00431	0.10015
-0.13181	-0.43551
-0.43783	-0.79262
-0.18282	-0.48652
0.68424	0.22769
0.45472	0.58480
0.30171	0.76336
-0.02981	0.38074
-0.05531	0.53379
0.32721	0.30422
0.07220	-0.12942
-0.05531	-0.07840
-0.48884	-0.23145
-0.00431	-0.20594
0.48022	0.04914
0.27621	0.25320
0.17421	-0.18043
0.17421	0.55929
0.40372	0.45726
0.30171	0.43176
-0.02981	0.35523
-0.31033	-0.53754
-0.28482	-0.28246
0.04670	-0.25695
0.86275	-0.20594
0.50573	0.43176
0.12320	0.91640
-0.13181	0.73785
0.19971	0.86539
0.19971	-0.05289
0.02119	-0.05289
0.09770	-0.56305
-0.31033	-0.23145
0.02119	-0.20594
0.65874	0.20219
0.30171	0.17668
0.12320	0.30422
0.09770	0.22769
0.02119	-0.05289
0.32721	0.02363
0.19971	0.32972
0.07220	0.17668
-0.38683	-0.43551
-0.05531	0.12566
0.50573	0.63582
0.45472	-0.05289
0.14870	-0.07840
0.04670	1.27351
0.12320	0.50828
0.30171	-0.28246
-0.00431	0.22769
0.02119	0.07465
-0.31033	-0.25695
-0.00431	-0.12942
0.81175	-0.28246
0.37822	0.22769
0.02119	0.22769
-0.05531	0.15117
0.12320	0.10015
0.55673	-0.12942
0.02119	-0.02739
-0.08081	0.02363
-0.13181	-0.20594
0.02119	-0.10391
0.42922	0.30422
0.09770	0.27871
0.19971	0.25320
0.12320	0.45726
0.19971	0.25320
0.53123	-0.28246
0.27621	0.12566
0.02119	-0.15492
-0.59084	0.20219
-0.23382	-0.20594
0.45472	-0.71609
0.37822	0.83988
0.27621	1.01843
0.17421	0.73785
0.35272	0.76336
0.55673	0.40625
0.22521	-0.23145
-0.08081	-0.20594
-0.28482	-0.48652
-0.00431	-0.15492
0.53123	0.07465
0.35272	0.10015
0.14870	0.22769
-0.10631	0.45726
0.12320	0.27871
0.27621	0.32972
0.09770	-0.02739
-0.05531	-0.51203
-0.33583	-0.99668
0.07220	-0.12942
0.81175	0.35523
0.53123	0.73785
0.37822	0.55929
0.14870	0.96742
0.14870	0.61031
0.27621	0.55929
-0.05531	0.15117
-0.15732	0.07465
-0.46334	-0.28246
-0.02981	-0.20594
0.40372	-0.69059
0.27621	-0.46102
0.32721	0.30422
0.12320	0.91640
0.32721	0.81437
0.35272	0.35523
0.25071	0.30422
-0.08081	-0.10391
-0.41233	-0.23145
0.02119	-0.61406
0.45472	-0.10391
0.22521	0.35523
0.07220	0.66132
-0.20832	0.38074
0.32721	0.25320
0.55673	0.17668
0.12320	-0.20594
-0.05531	0.20219
-0.33583	0.22769
-0.00431	0.15117
0.27621	-0.74160
0.19971	0.27871
0.12320	0.20219
-0.02981	0.40625
0.14870	0.76336
0.68424	0.55929
0.22521	-0.12942
0.02119	-0.25695
-0.38683	-0.43551
-0.10631	0.07465
0.63323	0.15117
0.37822	0.38074
0.12320	-0.15492
-0.02981	0.35523
0.12320	0.35523
0.45472	-0.05289
0.17421	-0.28246
0.04670	0.17668
-0.43783	-0.25695
-0.02981	0.50828
0.55673	0.76336
0.40372	0.30422
0.35272	-0.33348
0.07220	0.32972
0.14870	0.86539
0.27621	0.48277
0.09770	-0.15492
0.09770	-0.10391
-0.46334	-0.41000
0.02119	-0.02739
0.70974	0.30422
0.48022	0.53379
0.30171	0.30422
-0.20832	0.17668
0.14870	0.25320
0.22521	-0.00188
0.09770	0.10015
-0.08081	-0.23145
-0.33583	-0.46102
-0.23382	-0.58856
0.42922	0.20219
0.37822	0.86539
0.12320	0.32972
-0.02981	0.07465
0.35272	0.38074
0.60773	0.25320
0.27621	0.61031
0.12320	0.25320
-0.23382	-0.05289
-0.23382	-0.63957
0.35272	-0.66508
0.35272	0.30422
0.32721	0.40625
-0.02981	0.32972
0.14870	0.53379
0.58223	0.66132
0.09770	0.58480
0.02119	0.15117
-0.28482	-0.33348
-0.05531	-0.74160
0.37822	-0.20594
0.35272	0.25320
0.22521	0.25320
0.07220	0.63582
0.14870	0.38074
0.32721	0.10015
0.32721	-0.51203
0.58223	-0.20594
-0.08081	-0.38449
0.02119	0.45726
0.58223	0.94191
0.40372	-0.15492
0.19971	0.12566
-0.23382	0.40625
-0.05531	0.86539
0.07220	0.38074
0.17421	0.27871
0.27621	-0.05289
-0.20832	-0.02739
-0.02981	-0.28246
0.63323	-0.05289
0.40372	0.04914
0.14870	0.32972
0.07220	-0.25695
0.32721	0.45726
0.50573	0.38074
0.09770	0.38074
-0.05531	0.25320
-0.25932	0.17668
0.02119	-0.15492
0.45472	-0.23145
0.07220	0.25320
0.02119	0.15117
-0.13181	0.17668
-0.25932	0.17668
0.70974	0.68683
0.19971	0.15117
0.14870	-0.07840
-0.36133	-1.68539
0.07220	-0.28246
0.63323	0.50828
0.42922	0.76336
0.12320	0.68683
-0.18282	0.66132
0.14870	0.50828
0.42922	0.32972
0.22521	0.17668
0.19971	-0.10391
-0.18282	-0.58856
-0.08081	-0.43551
0.45472	-0.05289
0.40372	-0.30797
0.27621	0.58480
-0.00431	0.61031
0.17421	0.15117
0.22521	0.22769
-0.20832	0.12566
-0.15732	0.04914
-0.23382	-0.18043
0.17421	-0.05289
0.55673	0.43176
0.22521	0.32972
0.30171	0.04914
0.02119	-0.10391
0.32721	0.40625
0.35272	0.20219
-0.13181	0.17668
-0.08081	0.25320
-0.48884	-0.25695
-0.05531	-0.86914
0.88825	-0.00188
0.35272	0.55929
0.32721	0.68683
0.22521	0.68683
-0.18282	0.32972
0.58223	-0.02739
0.42922	0.35523
-0.10631	0.25320
-0.38683	0.04914
-0.20832	-0.28246
0.37822	-0.41000
0.27621	-0.25695
0.35272	0.40625
0.14870	0.68683
0.04670	0.50828
0.60773	0.81437
0.12320	0.25320
-0.00431	-0.66508
-0.33583	-0.74160
-0.13181	-0.10391
0.48022	0.20219
0.25071	0.35523
0.37822	0.81437
0.17421	0.63582
0.25071	0.55929
0.27621	-0.23145
-0.13181	-0.74160
-0.05531	-0.07840
-0.25932	0.25320
-0.08081	0.25320
0.60773	0.25320
0.48022	0.20219
0.35272	-0.18043
0.09770	0.43176
0.32721	0.73785
0.40372	0.45726
-0.23382	0.07465
-0.05531	0.17668
-0.31033	-0.48652
0.07220	-0.56305
0.63323	-0.05289
0.53123	-0.05289
0.09770	0.17668
0.12320	0.78886
-0.13181	0.89089
0.25071	-0.25695
0.19971	-0.05289
0.02119	-0.10391
-0.31033	-0.05289
0.19971	0.38074
0.55673	0.04914
0.42922	0.76336
0.09770	-0.07840
-0.10631	0.10015
0.12320	0.50828
0.32721	0.20219
0.02119	0.20219
-0.05531	-0.07840
-0.23382	0.04914
0.12320	0.04914
0.48022	-0.10391
0.58223	0.45726
0.32721	0.32972
0.14870	0.45726
0.12320	0.10015
0.27621	-0.20594
0.02119	0.04914
-0.02981	0.25320
-0.05531	-0.43551
-0.28482	0.35523
0.40372	0.40625
0.32721	-0.20594
0.02119	-0.46102
0.12320	0.55929
0.22521	0.91640
0.60773	0.68683
0.14870	0.25320
0.12320	0.17668
-0.31033	-0.12942
-0.08081	-0.12942
0.53123	-0.28246
0.30171	0.04914
0.02119	0.02363
0.12320	-0.02739
0.07220	0.22769
0.17421	0.32972
0.17421	0.12566
0.09770	0.02363
-0.13181	-0.07840
-0.05531	-0.00188
0.60773	0.07465
0.50573	0.50828
0.09770	0.66132
0.02119	0.32972
0.12320	0.17668
0.30171	-0.48652
0.14870	-0.10391
0.02119	0.10015
-0.20832	-0.18043
0.17421	0.30422
0.60773	0.50828
0.45472	0.76336
0.35272	0.17668
-0.15732	-0.07840
-0.10631	-0.12942
0.22521	-0.07840
0.14870	0.22769
0.09770	0.22769
-0.20832	-0.05289
-0.05531	-0.12942
0.81175	0.58480
0.40372	0.71234
0.02119	0.10015
-0.25932	-0.30797
0.14870	-0.00188
0.40372	-0.00188
-0.02981	0.17668
0.19971	0.61031
0.27621	0.32972
0.19971	-0.05289
0.40372	0.17668
0.40372	0.45726
-0.08081	-0.41000
-0.20832	0.38074
0.09770	0.50828
0.40372	-0.02739
0.12320	-0.20594
0.14870	0.22769
-0.05531	0.02363
-0.02981	-0.00188
0.48022	0.35523
0.53123	0.35523
0.12320	-0.23145
-0.18282	0.04914
0.22521	0.48277
0.55673	0.20219
0.25071	0.17668
-0.18282	0.02363
-0.18282	-0.28246
-0.10631	-0.33348
0.65874	0.48277
0.35272	0.83988
0.09770	0.58480
-0.13181	0.20219
0.07220	-0.30797
0.45472	-0.30797
0.04670	-0.00188
0.09770	0.40625
-0.15732	0.25320
0.09770	0.22769
0.48022	0.22769
0.50573	0.04914
0.35272	-0.46102
-0.25932	-0.07840
-0.00431	0.35523
0.25071	0.25320
0.22521	0.63582
-0.10631	0.61031
-0.23382	-0.00188
0.12320	-0.18043
0.78624	-0.43551
0.32721	-0.15492
0.22521	0.45726
-0.05531	0.55929
0.12320	0.71234
0.35272	0.15117
-0.08081	0.10015
-0.23382	-0.30797
-0.38683	-0.84363
0.09770	0.12566
0.76074	0.10015
0.55673	0.50828
0.14870	0.50828
0.14870	0.76336
0.14870	0.71234
0.30171	-0.35899
0.02119	-0.46102
-0.02981	-0.35899
-0.20832	-0.18043
0.07220	0.15117
0.30171	0.63582
-0.08081	0.96742
0.27621	0.38074
0.27621	0.32972
0.27621	0.27871
0.45472	-0.28246
0.09770	-0.02739
-0.08081	-0.23145
-0.33583	-0.20594
-0.10631	-0.43551
0.60773	0.17668
0.58223	0.71234
0.09770	0.43176
0.09770	0.15117
-0.08081	-0.41000
0.25071	0.07465
0.17421	0.53379
0.02119	0.35523
-0.08081	-0.12942
0.27621	0.07465
0.32721	0.12566
0.22521	0.40625
-0.05531	0.15117
-0.00431	0.38074
0.30171	0.71234
0.63323	0.25320
0.37822	0.02363
0.02119	-0.58856
-0.28482	-0.99668
-0.23382	-0.10391
0.42922	0.66132
0.32721	0.76336
0.22521	0.22769
0.02119	0.55929
-0.00431	0.30422
0.42922	0.27871
0.30171	0.12566
0.14870	-0.05289
-0.18282	-0.74160
0.04670	-0.38449
0.42922	0.32972
0.19971	0.76336
0.17421	0.43176
-0.02981	0.17668
0.04670	-0.12942
0.35272	0.30422
0.19971	0.07465
-0.13181	-0.02739
-0.02981	-0.23145
0.14870	-0.00188
0.50573	0.30422
0.25071	0.50828
0.07220	0.89089
-0.08081	0.20219
0.32721	0.22769
0.45472	-0.30797
-0.02981	-0.38449
0.07220	-0.25695
-0.18282	-0.00188
0.19971	0.12566
0.53123	0.55929
0.40372	0.94191
0.07220	0.55929
-0.25932	0.12566
0.04670	-0.23145
0.37822	-0.18043
0.07220	-0.51203
0.02119	0.25320
-0.31033	0.02363
0.07220	-0.10391
0.58223	0.38074
0.60773	0.58480
0.40372	0.61031
0.02119	-0.00188
-0.08081	-0.05289
-0.18282	-0.02739
0.04670	0.02363
0.12320	0.30422
-0.08081	0.15117
0.02119	-0.05289
0.48022	-0.20594
0.45472	-0.10391
0.22521	0.43176
0.09770	0.35523
0.32721	0.40625
0.27621	0.12566
0.19971	0.15117
0.04670	0.22769
-0.23382	0.04914
0.09770	-0.05289
0.25071	-0.00188
0.12320	-0.25695
0.07220	0.04914
-0.20832	0.63582
-0.05531	0.55929
0.65874	0.50828
0.48022	-0.41000
0.22521	0.17668
-0.33583	0.10015
-0.08081	0.27871
0.45472	0.20219
0.30171	-0.07840
0.25071	-0.51203
-0.00431	0.10015
0.14870	0.35523
0.32721	0.58480
0.27621	0.45726
0.02119	0.25320
-0.31033	0.15117
0.02119	-0.05289
0.58223	0.12566
0.32721	-0.00188
-0.05531	0.04914
0.07220	0.25320
0.12320	-0.00188
0.35272	0.15117
0.12320	-0.23145
0.12320	0.38074
-0.15732	0.43176
0.17421	0.35523
0.58223	0.50828
0.27621	0.22769
0.25071	-0.33348
-0.33583	-0.41000
-0.13181	0.30422
0.65874	0.55929
0.42922	0.53379
-0.02981	0.10015
-0.38683	-0.10391
-0.25932	-0.46102
0.83725	0.10015
0.81175	0.50828
0.27621	0.25320
-0.18282	0.02363
-0.00431	0.22769
0.30171	0.10015
0.07220	0.32972
-0.15732	-0.51203
-0.33583	-0.35899
0.12320	0.20219
0.63323	0.15117
0.68424	0.73785
0.22521	0.71234
-0.05531	0.73785
0.02119	-0.15492
0.32721	-0.61406
0.12320	-0.18043
-0.05531	0.45726
-0.41233	0.30422
-0.23382	0.04914
0.45472	0.17668
0.68424	0.38074
0.53123	0.53379
0.17421	0.27871
0.14870	-0.12942
0.27621	-1.12422
0.17421	0.15117
-0.02981	0.22769
-0.25932	0.32972
-0.02981	0.10015
0.40372	0.38074
0.45472	0.61031
0.22521	0.45726
-0.15732	0.55929
0.19971	0.45726
0.55673	-0.25695
0.14870	-0.25695
0.22521	0.07465
-0.25932	-0.10391
-0.20832	-0.46102
0.32721	-0.28246
0.35272	0.43176
0.04670	0.30422
0.14870	-0.00188
0.19971	0.45726
0.45472	0.48277
0.12320	0.25320
0.09770	-0.02739
-0.13181	0.20219
-0.10631	-0.07840
0.48022	0.27871
0.37822	0.22769
0.35272	-0.05289
-0.18282	0.15117
0.07220	0.22769
0.35272	0.35523
0.09770	0.15117
0.07220	0.07465
-0.23382	0.12566
-0.08081	0.02363
0.48022	0.04914
0.63323	-0.71609
-0.15732	0.53379
0.02119	0.32972
0.17421	0.63582
0.40372	0.38074
0.32721	0.25320
0.17421	-0.46102
-0.08081	-0.25695
-0.00431	0.04914
0.48022	0.63582
0.40372	0.66132
0.02119	-0.12942
-0.25932	-0.30797
0.07220	0.22769
0.42922	0.32972
0.19971	0.35523
0.02119	0.40625
-0.13181	-0.00188
-0.15732	-0.76711
0.02119	-1.78742
0.48022	-0.05289
0.19971	0.78886
-0.10631	1.01843
0.27621	1.06945
0.73524	0.78886
0.83725	0.61031
0.04670	0.02363
-0.43783	-0.51203
-0.05531	-0.61406
0.12320	-0.66508
0.14870	-0.02739
0.02119	0.43176
0.02119	0.15117
0.27621	0.61031
0.58223	0.50828
0.32721	0.38074
-0.13181	0.02363
-0.46334	-0.02739
-0.23382	-0.05289
0.42922	0.12566
0.42922	0.17668
0.25071	0.17668
-0.00431	0.25320
0.12320	0.04914
0.32721	0.50828
0.27621	0.15117
-0.10631	-0.30797
-0.18282	-0.76711
-0.08081	-0.41000
0.45472	0.15117
0.40372	0.81437
0.09770	0.73785
-0.10631	0.96742
0.17421	0.76336
0.30171	0.38074
0.25071	-0.00188
-0.02981	-1.12422
-0.28482	-0.51203
0.07220	-0.15492
0.60773	0.20219
0.53123	0.58480
0.07220	0.27871
-0.02981	0.40625
-0.00431	0.40625
0.53123	0.07465
0.14870	-0.05289
-0.05531	0.10015
-0.28482	0.07465
-0.05531	-0.02739
0.40372	-0.30797
0.27621	0.32972
0.12320	0.30422
0.07220	0.43176
0.22521	0.40625
0.40372	0.04914
0.37822	0.02363
0.27621	0.15117
-0.05531	0.15117
-0.08081	0.12566
0.37822	0.22769
0.30171	0.10015
0.12320	0.30422
0.09770	0.50828
-0.00431	0.35523
0.07220	-0.07840
0.09770	-0.69059
0.12320	-0.46102
-0.10631	0.15117
0.07220	0.17668
0.55673	0.45726
0.37822	0.58480
0.17421	0.30422
0.14870	0.10015
0.17421	0.30422
0.17421	-0.41000
-0.02981	-0.18043
-0.02981	0.07465
-0.13181	0.35523
-0.00431	0.15117
0.35272	0.07465
0.32721	0.35523
0.27621	0.43176
0.12320	0.12566
0.27621	-0.05289
0.27621	0.15117
0.42922	0.38074
0.02119	0.30422
