0.17421	0.32972
0.02119	0.35523
0.07220	0.22769
0.37822	-0.02739
0.09770	-0.00188
-0.13181	-0.20594
-0.31033	-0.12942
0.02119	0.10015
0.60773	0.45726
0.37822	0.40625
0.22521	0.22769
0.04670	0.32972
0.04670	0.15117
0.25071	-0.15492
0.02119	-0.05289
-0.02981	-0.02739
-0.23382	-0.07840
0.09770	0.15117
0.73524	0.45726
0.40372	0.38074
0.14870	0.25320
-0.05531	0.35523
0.04670	0.15117
0.25071	-0.07840
0.02119	-0.07840
-0.10631	-0.15492
-0.23382	-0.10391
0.02119	0.10015
0.73524	0.43176
0.40372	0.45726
0.27621	0.30422
-0.02981	0.25320
0.02119	0.17668
0.22521	-0.15492
0.14870	-0.07840
0.09770	-0.02739
-0.33583	-0.00188
-0.08081	0.10015
0.63323	0.35523
0.45472	0.32972
0.27621	0.35523
-0.08081	0.35523
0.07220	0.15117
0.32721	-0.00188
0.07220	-0.00188
-0.05531	-0.00188
-0.33583	-0.12942
-0.08081	-0.02739
0.60773	0.40625
0.37822	0.45726
0.12320	0.25320
-0.08081	0.22769
0.12320	0.22769
0.32721	0.02363
0.04670	-0.00188
-0.00431	-0.12942
-0.25932	-0.10391
0.04670	0.15117
0.63323	0.40625
0.42922	0.27871
0.25071	0.25320
0.04670	0.38074
0.04670	0.20219
0.19971	-0.02739
0.04670	-0.10391
-0.08081	-0.02739
-0.23382	-0.00188
0.04670	0.12566
0.63323	0.32972
0.30171	0.27871
0.17421	0.25320
0.07220	0.35523
0.04670	0.20219
0.35272	-0.05289
-0.02981	-0.07840
-0.10631	-0.07840
-0.31033	-0.07840
0.09770	0.12566
0.63323	0.43176
0.42922	0.32972
0.27621	0.30422
0.09770	0.40625
0.04670	0.17668
0.14870	-0.10391
-0.00431	-0.05289
-0.05531	-0.05289
-0.33583	-0.12942
-0.05531	-0.00188
0.65874	0.32972
0.42922	0.45726
0.14870	0.30422
-0.05531	0.27871
0.12320	0.15117
0.37822	-0.00188
0.09770	0.02363
-0.10631	-0.05289
-0.23382	-0.20594
0.04670	0.04914
0.76074	0.50828
0.35272	0.35523
0.12320	0.22769
-0.02981	0.35523
0.14870	0.27871
0.30171	-0.02739
-0.02981	-0.07840
-0.08081	-0.10391
-0.36133	-0.15492
-0.00431	0.07465
0.60773	0.30422
0.27621	0.32972
0.17421	0.25320
0.07220	0.35523
0.14870	0.20219
0.42922	0.07465
0.12320	-0.02739
-0.10631	-0.12942
-0.25932	-0.02739
0.09770	0.17668
0.68424	0.43176
0.27621	0.27871
0.17421	0.22769
-0.13181	0.32972
-0.00431	0.17668
0.27621	-0.10391
0.09770	-0.07840
-0.02981	-0.05289
-0.33583	-0.00188
0.02119	0.07465
0.60773	0.35523
0.40372	0.30422
0.22521	0.22769
0.02119	0.35523
0.14870	0.15117
0.32721	-0.00188
0.04670	-0.02739
-0.05531	-0.05289
-0.28482	-0.15492
-0.00431	0.10015
0.68424	0.35523
0.37822	0.43176
0.12320	0.25320
-0.02981	0.25320
0.17421	0.22769
0.42922	0.04914
0.12320	0.04914
-0.00431	-0.05289
-0.33583	-0.18043
-0.08081	-0.00188
0.58223	0.30422
0.30171	0.32972
0.19971	0.27871
0.02119	0.38074
0.02119	0.25320
0.32721	-0.02739
0.02119	0.02363
-0.02981	-0.10391
-0.25932	-0.12942
0.02119	0.04914
0.70974	0.43176
0.48022	0.45726
0.32721	0.38074
-0.00431	0.45726
-0.00431	0.25320
0.22521	-0.10391
0.02119	-0.15492
-0.05531	-0.10391
-0.36133	-0.07840
-0.08081	0.04914
0.58223	0.35523
0.37822	0.32972
0.30171	0.30422
-0.00431	0.40625
0.09770	0.17668
0.32721	-0.07840
0.14870	0.04914
0.02119	-0.05289
-0.33583	-0.10391
-0.08081	-0.02739
0.65874	0.40625
0.48022	0.43176
0.19971	0.27871
-0.08081	0.35523
0.12320	0.27871
0.32721	-0.00188
-0.00431	-0.05289
-0.02981	-0.10391
-0.20832	-0.10391
0.09770	0.15117
0.60773	0.30422
0.37822	0.38074
0.25071	0.32972
-0.00431	0.32972
0.09770	0.17668
0.25071	-0.10391
0.14870	-0.02739
0.04670	-0.00188
-0.25932	-0.02739
-0.08081	0.10015
0.60773	0.43176
0.25071	0.32972
0.04670	0.15117
-0.02981	0.27871
0.12320	0.20219
0.40372	0.04914
0.22521	-0.02739
-0.00431	-0.02739
-0.28482	-0.02739
-0.13181	0.04914
0.53123	0.35523
0.32721	0.32972
0.22521	0.20219
0.04670	0.32972
0.17421	0.22769
0.35272	0.02363
0.09770	0.04914
-0.08081	-0.00188
-0.33583	-0.05289
-0.05531	0.04914
0.58223	0.38074
0.32721	0.30422
0.22521	0.22769
-0.05531	0.22769
0.14870	0.25320
0.40372	0.07465
0.14870	0.07465
0.07220	0.02363
-0.28482	-0.07840
-0.02981	-0.05289
0.58223	0.17668
0.42922	0.38074
0.25071	0.32972
-0.02981	0.32972
-0.02981	0.15117
0.42922	-0.00188
0.12320	0.04914
-0.08081	-0.00188
-0.36133	-0.15492
-0.08081	0.04914
0.63323	0.45726
0.40372	0.32972
0.22521	0.27871
0.04670	0.35523
0.12320	0.22769
0.25071	-0.10391
0.04670	-0.02739
0.02119	-0.02739
-0.28482	-0.05289
-0.08081	0.02363
0.70974	0.38074
0.30171	0.43176
0.09770	0.25320
-0.05531	0.30422
0.19971	0.22769
0.37822	-0.02739
0.09770	-0.02739
0.04670	-0.07840
-0.23382	-0.05289
0.02119	0.17668
0.58223	0.40625
0.32721	0.27871
0.17421	0.30422
-0.00431	0.32972
0.07220	0.25320
0.30171	-0.12942
0.04670	-0.07840
-0.10631	-0.00188
-0.38683	-0.02739
-0.08081	0.02363
0.68424	0.30422
0.42922	0.43176
0.25071	0.27871
-0.05531	0.20219
0.09770	0.30422
0.45472	0.04914
0.14870	0.04914
-0.08081	-0.10391
-0.25932	-0.15492
-0.00431	0.02363
0.60773	0.43176
0.30171	0.35523
0.17421	0.17668
-0.02981	0.35523
0.07220	0.25320
0.25071	-0.05289
0.07220	-0.02739
-0.02981	0.04914
-0.28482	-0.07840
-0.05531	-0.02739
0.73524	0.30422
0.50573	0.45726
0.14870	0.30422
-0.08081	0.22769
0.02119	0.25320
0.42922	0.02363
0.09770	-0.07840
-0.13181	-0.12942
-0.23382	-0.02739
-0.00431	0.15117
0.78624	0.48277
0.37822	0.45726
0.17421	0.30422
-0.00431	0.25320
-0.02981	0.10015
0.25071	-0.07840
0.04670	-0.02739
0.02119	-0.05289
-0.28482	-0.10391
0.02119	0.12566
0.68424	0.30422
0.35272	0.45726
0.30171	0.38074
-0.08081	0.35523
0.12320	0.12566
0.48022	-0.07840
0.17421	-0.00188
0.02119	-0.00188
-0.43783	-0.00188
-0.13181	0.07465
0.63323	0.50828
0.50573	0.25320
0.37822	0.25320
-0.02981	0.35523
-0.05531	0.02363
0.12320	-0.10391
-0.00431	-0.05289
0.07220	0.10015
-0.10631	0.04914
-0.00431	0.07465
0.78624	0.30422
0.37822	0.45726
0.09770	0.25320
-0.18282	0.30422
0.07220	0.17668
0.48022	-0.00188
0.17421	-0.66508
0.09770	0.15117
-0.31033	-0.20594
-0.15732	0.10015
0.60773	0.55929
0.37822	0.55929
0.22521	0.40625
0.07220	0.53379
0.17421	0.45726
0.40372	0.12566
0.09770	-0.00188
-0.08081	-0.05289
-0.23382	-0.38449
-0.05531	-0.58856
0.55673	-0.18043
0.32721	0.55929
-0.05531	0.10015
0.07220	0.61031
0.25071	0.61031
0.37822	0.02363
0.09770	-0.76711
0.09770	0.15117
-0.33583	0.43176
-0.08081	0.12566
0.65874	0.40625
0.58223	0.58480
0.30171	0.20219
-0.31033	0.15117
0.07220	0.32972
0.35272	0.07465
-0.08081	-0.43551
-0.10631	-0.18043
-0.15732	-0.20594
0.09770	-0.07840
0.70974	0.38074
0.30171	0.68683
0.09770	0.38074
0.12320	0.48277
0.12320	0.20219
0.60773	-0.56305
0.17421	-0.07840
-0.18282	0.04914
-0.38683	0.04914
-0.20832	0.20219
0.53123	0.32972
0.32721	0.48277
0.32721	0.22769
-0.02981	0.20219
0.02119	-0.05289
0.58223	-0.02739
0.30171	0.20219
0.09770	0.25320
-0.23382	-0.07840
-0.23382	-0.20594
0.53123	0.07465
0.17421	0.22769
0.14870	0.04914
0.02119	0.12566
0.30171	0.10015
0.45472	0.40625
0.25071	0.78886
-0.05531	0.25320
-0.33583	-0.38449
0.04670	-0.23145
0.48022	0.25320
0.37822	0.22769
0.30171	0.30422
0.04670	0.43176
-0.08081	0.30422
0.19971	-0.23145
0.09770	0.25320
-0.10631	-0.58856
-0.33583	-0.15492
0.07220	-0.15492
1.04126	-0.07840
0.93925	0.53379
0.27621	0.76336
-0.43783	0.66132
-0.13181	-0.02739
-0.13181	-0.58856
-0.05531	0.55929
-0.33583	0.48277
-0.08081	-0.48652
0.02119	-0.10391
0.78624	-0.00188
0.53123	0.32972
0.37822	-0.05289
0.19971	1.24800
0.14870	0.02363
0.32721	-0.25695
0.30171	-0.30797
-0.08081	-0.76711
-0.28482	0.78886
-0.05531	0.50828
0.78624	0.91640
0.37822	0.94191
-0.08081	0.58480
-0.20832	0.30422
-0.18282	-0.38449
0.32721	-0.97117
-0.13181	-1.22625
0.22521	-0.84363
0.07220	0.58480
0.02119	0.99292
0.76074	0.38074
0.30171	0.35523
0.25071	-0.18043
-0.08081	0.20219
0.09770	0.15117
0.32721	0.12566
0.07220	-0.10391
-0.15732	0.04914
-0.15732	0.40625
0.30171	0.94191
0.55673	0.76336
0.22521	0.55929
-0.31033	-0.05289
0.07220	0.61031
0.19971	-0.02739
0.58223	0.38074
0.02119	-0.33348
-0.18282	-2.80773
-0.46334	-1.25176
-0.20832	-0.30797
1.01576	1.42656
0.48022	0.96742
-0.13181	0.73785
-0.08081	0.53379
0.04670	0.38074
0.55673	0.91640
0.27621	0.78886
0.12320	0.10015
-0.38683	-0.41000
-0.48884	-1.02219
0.27621	-0.66508
0.86275	0.68683
0.93925	0.53379
-0.36133	0.68683
0.12320	0.61031
0.27621	-0.00188
0.02119	-0.38449
0.09770	-0.74160
-0.59084	0.20219
-0.25932	0.40625
0.53123	1.12046
0.32721	0.12566
0.63323	0.15117
-0.18282	0.35523
0.35272	0.50828
-0.00431	-0.15492
0.25071	-0.07840
-0.23382	-0.10391
-0.00431	0.10015
0.07220	0.48277
0.86275	-0.05289
0.58223	-0.18043
0.40372	-0.18043
-0.23382	0.30422
-0.28482	0.43176
0.22521	0.25320
-0.02981	0.35523
-0.05531	0.73785
-0.13181	0.73785
-0.00431	0.58480
0.60773	-0.71609
0.65874	-1.37929
-0.08081	-1.48133
-0.25932	0.32972
0.14870	0.30422
0.48022	0.66132
0.09770	1.04394
-0.33583	1.24800
0.02119	0.63582
0.30171	0.63582
0.63323	0.20219
0.27621	-0.30797
-0.13181	0.20219
-0.71835	0.35523
0.22521	-0.43551
0.42922	-1.20074
0.22521	-0.89465
-0.02981	0.61031
-0.33583	0.66132
-0.18282	-0.69059
1.01576	-0.05289
0.55673	0.58480
0.19971	1.24800
-0.28482	0.68683
-0.02981	0.30422
0.53123	0.35523
0.45472	0.76336
0.27621	-0.74160
-0.89686	-1.43031
-0.25932	-0.94566
0.68424	1.06945
0.68424	1.04394
0.07220	-0.02739
-0.18282	0.61031
-0.15732	-0.46102
0.32721	0.55929
-0.00431	-0.79262
0.32721	0.68683
0.68424	0.22769
0.45472	0.25320
0.12320	0.38074
0.19971	0.96742
-0.13181	-0.10391
-0.33583	-0.61406
-0.13181	0.04914
-0.18282	-0.18043
-0.15732	-0.07840
0.27621	-0.58856
-0.00431	0.63582
0.40372	0.81437
0.81175	-0.89465
0.35272	-0.05289
0.27621	0.96742
-0.05531	1.45206
-0.05531	-0.46102
0.83725	0.35523
0.02119	-0.20594
-0.05531	0.10015
-0.15732	0.15117
-0.23382	0.35523
0.09770	0.04914
-0.05531	0.12566
0.58223	0.35523
-0.08081	0.76336
0.19971	-1.27726
0.60773	-0.61406
-0.10631	-0.20594
-0.02981	0.38074
-0.20832	0.04914
-0.02981	0.15117
0.81175	-0.51203
0.42922	0.91640
0.22521	1.45206
0.27621	1.14597
-0.31033	0.76336
0.63323	-0.12942
0.55673	-0.56305
-0.41233	-0.56305
-0.79486	-1.12422
-0.18282	0.04914
0.63323	-0.63957
0.58223	0.78886
0.32721	0.96742
0.14870	1.06945
0.07220	0.20219
0.19971	-0.25695
0.02119	-0.84363
0.04670	-0.41000
0.04670	0.12566
0.30171	0.63582
0.58223	0.86539
0.22521	0.61031
0.17421	0.91640
0.09770	0.40625
-0.15732	-0.48652
-0.05531	-1.91496
-0.23382	-1.04770
0.35272	0.61031
-0.13181	0.15117
-0.05531	0.96742
0.53123	0.89089
0.70974	1.60511
0.63323	-0.02739
-0.25932	-1.50683
-0.28482	0.02363
0.50573	0.50828
0.02119	0.50828
-0.00431	-0.00188
-0.41233	-0.38449
-0.10631	0.17668
0.53123	0.45726
0.37822	0.27871
0.25071	-0.20594
0.09770	0.61031
0.48022	-0.89465
0.50573	-1.14973
0.12320	-0.28246
-0.05531	0.89089
-0.46334	1.24800
0.04670	0.55929
0.65874	0.96742
0.27621	-0.28246
0.12320	0.27871
-0.00431	-0.25695
0.22521	0.15117
0.32721	0.45726
0.37822	1.09496
-0.28482	0.35523
-0.38683	-0.71609
-0.23382	-1.96597
0.45472	-0.18043
0.35272	0.40625
0.55673	0.91640
0.19971	1.12046
0.09770	0.96742
0.58223	0.30422
0.83725	0.04914
0.19971	0.12566
-1.10088	-1.73640
-0.18282	-0.66508
0.65874	0.30422
0.09770	0.83988
0.25071	0.73785
-0.08081	0.50828
-0.13181	0.68683
0.48022	0.66132
0.70974	-0.33348
-0.00431	-1.45582
-0.56534	-1.48133
-0.25932	0.38074
0.78624	1.35003
0.60773	1.29902
-0.41233	0.83988
-0.08081	0.30422
0.42922	0.48277
0.58223	0.40625
0.12320	-0.25695
-0.28482	-0.33348
-0.53984	-0.94566
-0.08081	-0.86914
0.70974	-0.35899
0.63323	0.68683
0.50573	0.45726
-0.00431	1.12046
0.22521	0.76336
0.60773	0.83988
-0.08081	-0.35899
-0.31033	-2.04250
-0.20832	-0.43551
-0.33583	0.38074
0.60773	0.55929
0.32721	0.53379
0.02119	1.09496
0.32721	1.04394
0.42922	0.66132
0.65874	0.43176
-0.25932	-1.04770
-0.10631	-0.51203
-0.23382	-0.41000
0.07220	-0.25695
0.70974	0.68683
0.02119	0.25320
0.14870	0.50828
0.14870	0.76336
0.17421	0.12566
0.50573	-0.86914
0.25071	0.45726
-0.15732	0.25320
-0.53984	-0.28246
-0.18282	-0.18043
0.68424	0.15117
0.32721	0.07465
0.65874	1.17148
0.40372	1.57960
0.09770	0.45726
0.07220	-0.25695
-0.20832	-0.74160
0.32721	-0.46102
-0.46334	0.17668
-0.02981	-0.35899
0.50573	-0.23145
0.22521	0.40625
0.30171	0.53379
0.22521	1.01843
0.48022	0.48277
0.55673	-0.02739
-0.13181	-0.61406
-0.41233	-0.38449
-0.74385	0.20219
-0.28482	0.76336
0.65874	0.22769
0.40372	-0.58856
0.25071	-0.61406
0.04670	-0.51203
0.32721	0.32972
0.42922	0.94191
0.40372	0.86539
0.09770	0.71234
-0.15732	0.30422
-0.15732	-0.07840
0.53123	0.35523
0.35272	0.48277
0.30171	0.15117
0.12320	-0.25695
-0.13181	-0.89465
0.27621	-0.23145
-0.02981	0.17668
-0.02981	-0.71609
-0.18282	0.15117
0.07220	0.76336
1.16877	1.09496
0.53123	0.53379
-0.15732	0.40625
-0.13181	0.68683
-0.18282	0.20219
0.30171	-0.71609
0.30171	-0.05289
0.37822	0.35523
-0.41233	-0.10391
-0.36133	-0.89465
0.37822	-0.10391
0.58223	0.48277
0.22521	0.45726
-0.13181	0.17668
0.07220	0.43176
0.19971	-0.15492
0.07220	-0.28246
-0.23382	-0.48652
-0.10631	0.68683
0.27621	0.55929
0.70974	-0.25695
0.19971	-0.35899
0.19971	0.63582
-0.28482	-0.25695
0.27621	0.04914
0.40372	0.71234
0.45472	0.94191
0.14870	0.15117
-0.25932	-0.30797
-0.10631	-0.33348
0.63323	0.68683
0.37822	0.55929
0.25071	0.53379
0.14870	0.38074
0.14870	0.40625
0.48022	0.17668
-0.08081	-0.05289
-0.18282	-0.38449
-0.74385	-1.58336
-0.36133	-1.58336
0.48022	-0.56305
0.88825	1.37554
0.60773	1.24800
0.09770	1.24800
-0.05531	0.38074
0.14870	0.22769
0.37822	0.17668
0.37822	-0.12942
-0.46334	-1.07320
0.02119	-0.51203
0.32721	0.35523
0.14870	0.66132
-0.20832	0.66132
-0.53984	0.15117
-0.36133	0.17668
0.30171	0.17668
0.37822	0.12566
0.27621	-0.18043
-0.25932	-0.94566
0.30171	-0.71609
1.04126	0.43176
0.53123	0.96742
0.25071	0.71234
-0.28482	0.43176
0.09770	-0.66508
0.73524	0.50828
0.22521	0.58480
-0.20832	0.32972
-0.38683	-1.07320
-0.13181	-0.76711
0.27621	0.48277
0.19971	0.94191
0.53123	0.66132
0.12320	0.89089
0.12320	0.71234
0.76074	0.50828
0.25071	-0.86914
-0.41233	-0.79262
-0.61635	-1.27726
-0.00431	0.25320
0.83725	0.48277
0.37822	0.50828
0.22521	0.83988
-0.08081	0.27871
0.27621	0.76336
0.37822	0.30422
0.02119	0.12566
0.25071	-0.58856
-0.10631	-0.41000
0.02119	0.02363
0.50573	0.10015
0.50573	0.61031
0.53123	0.50828
-0.28482	0.04914
-0.36133	0.07465
0.17421	0.38074
0.07220	-1.14973
0.14870	-0.30797
0.02119	-1.04770
0.25071	0.73785
0.78624	0.50828
-0.08081	-0.02739
0.02119	0.73785
-0.20832	0.96742
0.25071	1.01843
0.78624	0.10015
0.25071	0.20219
0.02119	0.38074
-0.13181	-0.15492
-0.31033	-0.81812
0.42922	-0.05289
0.42922	-0.02739
0.02119	0.27871
-0.28482	0.30422
0.17421	-0.15492
0.91375	0.27871
0.45472	0.12566
-0.41233	0.02363
-0.15732	-0.23145
0.09770	-0.86914
0.65874	0.20219
0.27621	0.68683
0.07220	1.06945
-0.08081	0.96742
0.55673	0.45726
0.30171	-0.56305
0.02119	-0.46102
-0.08081	0.04914
-0.31033	-0.92016
0.12320	0.12566
0.65874	1.17148
0.45472	1.24800
0.14870	0.68683
-0.25932	0.12566
0.35272	-0.20594
0.45472	-0.30797
-0.10631	-0.10391
-0.10631	-0.15492
-0.13181	-0.53754
0.14870	-0.38449
0.83725	0.35523
0.81175	1.32453
0.32721	0.81437
-0.25932	-0.07840
-0.25932	-1.32828
-0.02981	-0.51203
-0.18282	0.55929
-0.18282	0.50828
-0.02981	0.61031
0.09770	0.45726
0.68424	0.76336
0.53123	-0.15492
0.27621	-0.41000
0.30171	0.35523
0.22521	0.15117
0.19971	0.10015
0.04670	0.20219
-0.08081	-0.35899
-0.46334	-1.07320
0.02119	-0.35899
0.78624	0.63582
0.32721	0.99292
0.17421	0.86539
-0.25932	0.38074
-0.10631	0.15117
0.42922	-0.33348
0.17421	-0.53754
0.19971	0.22769
0.09770	0.38074
-0.10631	0.04914
0.30171	-0.20594
0.60773	-0.30797
0.09770	0.63582
-0.02981	0.99292
0.02119	0.50828
0.22521	-0.15492
0.14870	-0.58856
0.37822	0.10015
-0.31033	-0.23145
-0.02981	0.17668
0.25071	0.17668
0.25071	0.61031
0.27621	0.73785
0.19971	0.10015
0.09770	-0.79262
0.40372	-0.05289
0.22521	0.45726
0.14870	0.17668
-0.28482	-0.20594
-0.00431	0.45726
0.04670	0.07465
0.22521	-0.00188
0.48022	0.07465
0.22521	0.61031
0.53123	0.40625
0.32721	0.45726
-0.15732	-0.20594
-0.20832	0.35523
-0.33583	-0.41000
-0.05531	-0.38449
0.48022	0.15117
0.68424	0.66132
0.19971	0.48277
0.02119	0.48277
0.07220	-0.33348
0.45472	-0.28246
0.07220	-0.10391
0.07220	0.25320
-0.10631	-0.05289
-0.36133	0.40625
0.30171	0.43176
0.35272	0.12566
-0.02981	-1.37929
0.14870	-0.28246
0.30171	0.89089
0.50573	0.76336
0.22521	0.12566
-0.08081	0.73785
-0.13181	0.04914
0.17421	0.40625
0.53123	0.40625
0.32721	0.61031
0.02119	-0.63957
-0.25932	-0.43551
0.07220	-0.25695
0.96476	-0.00188
-0.02981	0.07465
0.22521	0.48277
-0.28482	-0.00188
-0.13181	0.12566
0.25071	-0.48652
0.50573	0.12566
0.32721	0.15117
-0.25932	0.43176
0.04670	0.86539
0.63323	0.48277
0.14870	0.22769
0.19971	0.15117
-0.20832	-0.05289
-0.18282	-0.69059
0.58223	-0.05289
0.04670	0.43176
0.22521	0.55929
0.17421	0.73785
0.22521	0.02363
0.35272	-0.94566
0.02119	-0.12942
-0.18282	0.04914
-0.38683	-0.48652
0.09770	0.61031
0.81175	0.94191
0.73524	0.99292
0.27621	0.66132
-0.08081	0.81437
0.02119	0.30422
0.02119	-0.05289
0.04670	-1.27726
0.37822	-0.51203
-0.28482	-0.92016
-0.08081	0.32972
0.55673	0.66132
0.19971	0.71234
0.09770	0.53379
0.02119	0.50828
0.22521	0.50828
0.42922	-0.28246
0.22521	-0.48652
0.04670	-0.48652
-0.51434	-0.00188
-0.10631	0.50828
0.53123	0.76336
0.42922	0.63582
0.30171	-0.00188
0.09770	0.17668
0.07220	-0.25695
0.32721	0.17668
-0.00431	0.07465
-0.05531	-1.14973
-0.13181	0.12566
0.22521	0.73785
0.78624	0.73785
0.17421	0.32972
0.22521	0.68683
0.04670	0.32972
0.25071	-0.00188
0.35272	-0.30797
0.02119	-0.56305
-0.18282	-0.02739
-0.31033	0.20219
0.04670	0.61031
0.42922	0.20219
0.40372	0.66132
0.12320	-0.76711
0.09770	0.20219
0.37822	0.25320
0.50573	0.50828
0.07220	0.27871
0.32721	0.15117
-0.69285	-0.18043
-0.38683	-0.07840
0.60773	0.50828
0.65874	0.63582
0.25071	0.15117
-0.23382	-0.84363
0.35272	-0.48652
0.22521	-0.46102
0.17421	0.86539
0.07220	0.96742
-0.13181	0.61031
-0.05531	0.35523
0.93925	0.30422
0.55673	0.58480
0.07220	-0.61406
-0.08081	0.53379
0.07220	-0.99668
0.35272	-0.41000
-0.10631	0.45726
0.02119	0.76336
-0.15732	0.43176
0.07220	0.15117
0.48022	0.20219
0.35272	-0.07840
0.27621	-0.05289
-0.08081	0.48277
0.09770	0.27871
0.37822	-0.07840
0.09770	-0.79262
0.19971	-0.30797
-0.18282	0.66132
-0.15732	0.58480
0.53123	0.63582
0.45472	0.50828
0.07220	-0.10391
-0.28482	0.27871
-0.00431	0.20219
0.55673	-0.51203
0.37822	-0.63957
0.32721	0.10015
-0.28482	0.53379
-0.20832	-0.33348
0.55673	0.58480
0.32721	0.96742
-0.02981	0.30422
0.04670	-0.05289
0.25071	0.10015
0.60773	0.27871
0.22521	-0.10391
-0.08081	-0.41000
-0.36133	-0.66508
0.17421	0.81437
0.32721	0.83988
0.32721	0.58480
0.07220	-1.09871
0.02119	-1.04770
0.17421	0.78886
0.65874	1.27351
0.42922	0.76336
-0.15732	0.15117
-0.36133	-0.07840
-0.18282	-0.33348
0.70974	0.32972
0.42922	0.58480
0.02119	0.43176
-0.28482	-1.02219
0.04670	0.30422
0.32721	0.17668
0.04670	-0.05289
0.09770	0.12566
-0.20832	-0.25695
-0.00431	-0.94566
0.76074	0.48277
0.42922	0.55929
0.07220	1.17148
-0.20832	0.96742
0.17421	0.76336
0.04670	-0.28246
-0.13181	-0.56305
0.35272	0.22769
0.02119	-0.05289
0.25071	-0.02739
0.58223	-0.56305
0.12320	0.38074
-0.00431	0.55929
-0.02981	0.50828
0.17421	0.10015
0.45472	0.20219
-0.08081	0.04914
0.25071	-0.18043
0.07220	-0.81812
-0.18282	-0.56305
0.48022	0.43176
0.40372	0.81437
0.02119	0.81437
0.02119	0.99292
0.32721	0.83988
-0.00431	-0.07840
0.04670	-0.51203
-0.08081	-0.28246
-0.05531	-0.33348
-0.02981	-0.12942
0.55673	-0.02739
0.32721	0.73785
0.22521	0.68683
-0.10631	0.58480
0.22521	0.43176
0.37822	-1.07320
0.25071	0.27871
-0.05531	0.02363
-0.38683	-0.25695
-0.08081	-0.00188
0.55673	0.58480
0.65874	0.83988
0.19971	0.45726
-0.20832	-0.48652
0.02119	-0.10391
0.58223	0.04914
0.22521	0.30422
0.14870	0.04914
-0.38683	-0.00188
0.02119	0.50828
0.45472	0.35523
0.48022	0.71234
0.17421	0.45726
0.12320	0.12566
-0.20832	-0.25695
0.25071	-0.28246
0.45472	0.04914
-0.18282	-0.51203
-0.36133	-0.33348
-0.05531	-0.28246
0.73524	0.40625
0.63323	0.99292
0.30171	0.68683
0.09770	0.20219
-0.13181	-0.58856
0.40372	0.63582
0.48022	0.61031
-0.05531	-0.02739
-0.79486	-0.58856
-0.20832	-0.07840
0.63323	0.89089
0.63323	0.96742
0.04670	0.25320
0.04670	-0.20594
-0.10631	-0.71609
0.04670	0.10015
0.45472	-0.38449
0.14870	-0.18043
-0.10631	-0.53754
0.14870	0.35523
0.60773	0.71234
0.32721	0.76336
0.12320	-0.15492
0.17421	0.17668
0.04670	0.50828
0.19971	0.86539
0.04670	-0.12942
0.17421	0.17668
-0.18282	0.27871
-0.18282	-0.07840
0.45472	-0.15492
0.22521	0.17668
0.32721	-0.10391
0.22521	-0.33348
0.12320	0.17668
0.25071	0.22769
0.12320	-0.05289
-0.18282	-0.12942
-0.10631	0.10015
-0.18282	-0.07840
0.63323	0.35523
0.53123	0.81437
0.12320	0.76336
0.14870	0.45726
0.12320	0.04914
0.58223	0.10015
0.42922	0.40625
-0.10631	-0.05289
-0.43783	-0.33348
0.04670	-1.58336
0.83725	0.38074
0.42922	0.66132
-0.02981	0.99292
-0.28482	-0.07840
-0.10631	-0.38449
0.22521	0.30422
0.40372	0.53379
0.09770	0.30422
-0.15732	-0.18043
0.04670	-0.23145
0.50573	0.53379
0.32721	0.53379
0.19971	0.02363
0.09770	-0.15492
0.25071	0.45726
0.53123	0.45726
0.14870	-0.43551
-0.18282	-0.66508
-0.38683	-0.35899
-0.28482	0.12566
0.48022	0.45726
0.50573	1.04394
0.12320	0.55929
0.35272	0.22769
0.25071	0.22769
0.40372	-0.15492
-0.20832	0.43176
-0.23382	0.04914
-0.38683	0.02363
0.12320	-0.53754
0.88825	-0.89465
0.40372	0.68683
0.25071	0.10015
0.02119	0.55929
0.02119	0.48277
0.63323	0.38074
0.32721	0.30422
-0.08081	0.12566
-0.43783	-0.05289
-0.10631	0.22769
0.65874	-0.00188
0.42922	-0.56305
0.32721	-0.30797
-0.10631	0.27871
-0.02981	0.99292
0.50573	0.83988
0.12320	0.10015
-0.38683	-0.43551
-0.28482	-0.69059
-0.15732	-0.48652
0.60773	0.61031
0.37822	0.55929
0.27621	0.12566
0.53123	0.53379
0.30171	0.86539
0.42922	0.48277
0.25071	0.43176
-0.18282	-0.07840
-0.31033	-0.81812
-0.38683	-0.71609
0.30171	0.25320
0.30171	0.10015
0.25071	0.45726
0.17421	0.58480
0.42922	0.58480
0.42922	0.10015
0.07220	-0.25695
0.17421	0.07465
-0.20832	-0.02739
-0.00431	0.30422
0.53123	0.45726
0.19971	-0.00188
0.02119	0.12566
-0.20832	-0.10391
0.02119	-0.12942
0.42922	0.25320
0.55673	0.25320
-0.00431	0.25320
-0.38683	-0.28246
0.12320	0.53379
0.40372	0.40625
0.27621	-0.48652
0.09770	0.25320
0.37822	1.04394
0.45472	0.38074
0.27621	0.17668
-0.00431	-0.23145
0.04670	0.02363
-0.20832	-0.48652
0.02119	0.35523
0.40372	0.20219
0.58223	0.45726
0.04670	-1.25176
-0.15732	0.20219
0.27621	0.96742
0.68424	0.73785
-0.00431	-0.25695
-0.13181	-0.33348
0.12320	0.22769
0.09770	0.02363
0.35272	0.22769
0.09770	0.73785
0.19971	0.40625
0.22521	0.35523
-0.00431	0.04914
0.09770	-0.30797
0.17421	-0.97117
0.12320	0.15117
-0.08081	0.38074
0.32721	0.55929
0.68424	0.71234
0.30171	0.15117
0.14870	-0.12942
-0.23382	0.38074
0.02119	0.76336
0.32721	-1.02219
0.22521	-0.05289
-0.05531	0.40625
-0.23382	0.35523
-0.13181	0.32972
0.63323	0.48277
0.60773	0.35523
0.42922	-0.02739
-0.15732	0.30422
0.17421	0.40625
0.30171	-0.41000
0.19971	-0.10391
-0.00431	0.15117
-0.38683	-0.41000
0.17421	-0.15492
0.48022	0.45726
0.27621	1.09496
0.07220	0.68683
-0.20832	-0.30797
0.19971	-0.02739
0.63323	0.22769
0.14870	-0.25695
-0.02981	0.12566
-0.33583	0.07465
0.02119	0.15117
0.68424	0.61031
0.63323	0.99292
0.22521	0.27871
0.02119	-0.00188
-0.10631	-0.02739
0.25071	-0.25695
0.27621	-0.51203
0.22521	0.04914
0.02119	0.10015
-0.08081	0.25320
0.32721	0.40625
0.25071	0.02363
-0.02981	-0.25695
-0.02981	0.53379
-0.10631	0.35523
0.50573	0.53379
0.81175	0.48277
0.22521	0.04914
-0.36133	-0.71609
-0.28482	-0.56305
0.63323	0.20219
0.09770	0.61031
0.25071	0.91640
-0.10631	0.25320
-0.13181	-0.15492
0.53123	0.30422
0.42922	0.48277
0.04670	0.20219
-0.36133	-0.35899
0.14870	-0.46102
0.53123	-0.12942
0.48022	0.32972
0.37822	0.22769
-0.13181	0.32972
-0.00431	0.63582
0.40372	0.66132
0.17421	0.17668
0.02119	-0.99668
-0.31033	-0.71609
0.09770	-0.00188
0.60773	0.81437
0.14870	0.78886
0.07220	-0.63957
-0.02981	0.10015
0.14870	-0.02739
0.27621	0.86539
0.17421	0.61031
0.32721	-0.15492
-0.15732	-0.12942
0.07220	0.02363
0.76074	0.45726
0.17421	0.53379
0.02119	0.43176
-0.08081	-0.15492
0.42922	-0.58856
0.50573	-0.56305
-0.00431	-0.00188
-0.18282	0.15117
-0.38683	0.27871
-0.08081	0.55929
0.32721	0.43176
0.48022	0.99292
0.40372	0.43176
0.02119	0.17668
0.12320	-0.23145
0.68424	-0.23145
0.12320	-0.51203
0.07220	-0.35899
-0.36133	0.20219
-0.20832	0.32972
0.32721	0.30422
0.35272	0.55929
0.32721	0.76336
0.22521	0.12566
0.30171	-0.10391
0.37822	-0.12942
0.17421	0.25320
-0.33583	0.17668
-0.51434	-0.86914
-0.28482	-0.25695
0.37822	0.07465
0.58223	1.09496
0.37822	0.66132
0.09770	-0.38449
0.27621	0.48277
0.19971	0.02363
-0.00431	0.04914
-0.02981	0.22769
-0.13181	0.17668
0.22521	0.04914
0.60773	0.35523
0.17421	0.50828
0.07220	-0.15492
-0.08081	-0.33348
0.40372	0.04914
0.30171	0.48277
0.14870	-0.02739
0.02119	0.40625
-0.33583	0.32972
0.14870	0.07465
0.40372	-0.20594
0.63323	-0.07840
0.19971	-0.46102
-0.08081	0.20219
-0.15732	0.35523
0.30171	0.68683
-0.02981	0.35523
-0.05531	0.38074
-0.08081	-0.05289
-0.02981	0.04914
0.68424	0.25320
0.63323	0.55929
0.02119	0.12566
-0.02981	-0.74160
-0.13181	-0.25695
0.40372	-0.00188
0.22521	0.17668
0.22521	0.58480
0.12320	0.35523
-0.02981	0.30422
0.48022	0.40625
0.25071	0.20219
-0.08081	0.25320
0.02119	-0.53754
0.07220	0.30422
0.17421	0.40625
0.22521	0.20219
0.02119	-0.20594
-0.15732	0.15117
-0.18282	0.22769
0.63323	0.17668
0.73524	0.48277
0.40372	0.55929
-0.08081	0.07465
-0.28482	-0.69059
0.17421	0.04914
0.30171	0.55929
0.27621	0.50828
-0.31033	0.04914
-0.10631	-0.02739
0.40372	-0.48652
0.40372	0.35523
0.22521	0.25320
-0.02981	0.30422
0.14870	0.35523
0.37822	0.15117
0.17421	-0.10391
0.07220	-0.10391
-0.13181	-0.35899
0.17421	-0.07840
0.45472	0.40625
0.35272	0.63582
0.14870	0.25320
-0.25932	0.45726
0.17421	0.73785
0.63323	0.35523
0.37822	-0.15492
-0.15732	-0.97117
-0.36133	-0.86914
-0.05531	-0.15492
0.50573	0.73785
0.78624	0.07465
0.45472	0.45726
-0.00431	0.63582
0.12320	0.73785
0.58223	0.04914
-0.13181	-0.05289
-0.36133	0.27871
-0.51434	0.04914
-0.33583	-0.10391
0.32721	-0.74160
0.53123	0.04914
0.42922	0.35523
0.07220	0.53379
0.35272	0.50828
0.32721	0.66132
0.19971	-0.10391
0.17421	-0.66508
-0.28482	-0.92016
-0.15732	-0.66508
0.42922	-0.05289
0.50573	0.96742
0.19971	1.06945
-0.08081	0.81437
0.25071	0.76336
0.40372	0.43176
0.30171	0.10015
-0.10631	-0.43551
-0.38683	-0.41000
-0.56534	-0.23145
0.22521	-0.74160
0.32721	-0.12942
0.48022	-0.10391
0.14870	0.73785
0.27621	0.45726
0.48022	0.45726
0.09770	0.32972
0.12320	0.32972
-0.20832	-0.05289
-0.00431	-0.28246
0.48022	0.20219
0.40372	-0.89465
0.32721	0.32972
-0.05531	0.73785
-0.02981	0.43176
0.07220	0.32972
0.12320	0.15117
0.17421	-0.51203
-0.05531	-0.38449
0.14870	-0.69059
0.40372	0.66132
0.32721	1.27351
0.07220	0.55929
-0.13181	0.53379
0.22521	-0.76711
0.35272	0.15117
0.22521	-0.15492
-0.08081	0.15117
-0.31033	0.17668
-0.08081	0.07465
0.42922	0.48277
0.63323	-1.04770
0.19971	0.43176
0.09770	0.43176
0.04670	-0.43551
0.53123	0.17668
0.42922	0.35523
0.07220	0.38074
-0.25932	0.20219
-0.36133	0.15117
0.32721	0.22769
0.42922	0.35523
0.12320	0.17668
-0.05531	0.12566
0.14870	0.15117
0.32721	-0.10391
0.07220	-0.23145
0.14870	-0.05289
-0.23382	-0.18043
-0.05531	0.10015
0.40372	0.30422
0.53123	-0.35899
0.19971	-0.18043
0.12320	0.81437
0.09770	1.47757
0.22521	0.10015
0.17421	0.25320
0.04670	-0.05289
-0.00431	0.15117
-0.05531	-0.43551
0.07220	-0.23145
0.19971	0.40625
0.27621	0.40625
0.19971	0.63582
-0.02981	0.10015
0.25071	-0.18043
0.32721	0.07465
0.09770	0.04914
-0.18282	-0.07840
0.02119	-0.15492
0.53123	-0.00188
0.37822	0.81437
0.14870	-0.61406
-0.28482	-0.10391
0.14870	0.96742
0.12320	0.61031
0.07220	0.61031
-0.15732	-0.05289
0.02119	-0.00188
0.12320	-0.30797
0.53123	0.35523
0.37822	0.30422
-0.10631	-0.46102
-0.13181	0.04914
0.22521	0.25320
0.35272	0.38074
0.22521	-0.56305
0.19971	0.12566
-0.28482	0.04914
-0.00431	0.10015
0.50573	0.58480
0.45472	0.83988
-0.02981	0.10015
0.32721	-0.10391
0.50573	0.48277
0.27621	0.30422
-0.00431	0.17668
-0.23382	-0.07840
-0.53984	-0.28246
-0.20832	-0.23145
0.63323	0.48277
0.78624	0.81437
0.09770	0.35523
-0.08081	-0.53754
0.09770	-0.18043
0.40372	0.04914
0.12320	0.02363
-0.05531	0.02363
-0.25932	-0.25695
0.12320	0.48277
0.63323	1.06945
0.48022	0.83988
0.19971	0.30422
-0.36133	-0.38449
0.07220	0.25320
0.30171	0.12566
0.42922	-0.15492
0.27621	0.22769
-0.43783	-0.18043
-0.33583	-0.35899
0.32721	0.22769
0.48022	0.25320
0.22521	0.48277
-0.00431	-0.05289
0.17421	0.27871
0.32721	0.43176
0.32721	-1.09871
0.02119	-0.23145
-0.48884	0.30422
-0.13181	0.17668
0.32721	0.58480
0.37822	1.06945
0.25071	0.55929
0.19971	0.45726
0.37822	0.43176
0.45472	-0.00188
0.45472	-0.46102
-0.02981	-0.41000
-0.46334	-0.12942
-0.18282	0.58480
0.48022	0.38074
0.63323	-0.07840
-0.00431	-0.20594
-0.00431	0.32972
-0.00431	0.12566
0.25071	0.20219
0.50573	0.55929
0.04670	0.43176
-0.28482	-0.10391
-0.15732	-0.23145
0.58223	0.20219
0.48022	0.35523
0.12320	-0.02739
-0.25932	-0.10391
-0.02981	0.02363
0.50573	0.53379
0.35272	0.25320
0.09770	0.30422
-0.23382	-0.23145
-0.38683	-0.41000
0.42922	-0.25695
0.83725	-0.00188
0.45472	0.61031
0.12320	0.81437
-0.08081	0.45726
0.09770	0.32972
0.02119	0.04914
-0.15732	-0.10391
-0.15732	0.07465
-0.15732	-0.56305
0.53123	0.48277
0.53123	0.30422
0.32721	0.10015
0.12320	0.45726
0.07220	0.12566
0.35272	-0.07840
0.19971	-0.76711
0.02119	0.07465
-0.18282	-0.25695
0.04670	0.25320
0.32721	0.58480
0.40372	0.78886
0.14870	0.40625
0.04670	0.12566
-0.08081	-0.07840
0.30171	0.25320
0.37822	0.35523
0.04670	-0.41000
-0.20832	-0.15492
-0.05531	0.17668
0.55673	0.27871
0.35272	0.38074
0.09770	-0.43551
-0.08081	-0.10391
0.09770	0.76336
0.70974	0.27871
0.27621	0.45726
-0.18282	-0.02739
-0.15732	0.22769
0.19971	-0.02739
0.40372	-0.20594
0.27621	0.40625
0.27621	0.32972
-0.10631	0.35523
0.07220	0.15117
0.40372	0.02363
0.32721	0.25320
-0.08081	0.15117
-0.46334	-0.38449
-0.18282	-0.51203
0.53123	0.22769
0.65874	0.40625
0.35272	0.86539
-0.10631	-0.02739
0.09770	0.66132
0.55673	0.81437
0.27621	0.32972
-0.10631	-0.18043
-0.46334	-1.07320
-0.15732	-0.30797
0.55673	0.32972
0.40372	0.22769
0.12320	0.40625
0.04670	0.50828
0.12320	0.43176
0.60773	0.25320
0.58223	0.15117
0.04670	-0.33348
-0.18282	-0.02739
-0.36133	-0.18043
0.22521	0.48277
0.32721	0.48277
0.30171	0.25320
0.02119	-0.58856
-0.00431	-0.35899
0.42922	0.38074
0.32721	0.91640
0.17421	0.86539
-0.46334	-0.43551
-0.28482	-0.84363
0.37822	-0.30797
0.58223	1.14597
0.19971	0.91640
0.07220	0.58480
0.12320	0.43176
0.40372	0.17668
0.17421	-0.12942
0.02119	-0.20594
-0.23382	-0.33348
0.04670	-0.15492
0.35272	-0.05289
0.40372	0.02363
0.17421	0.10015
-0.13181	-0.00188
-0.08081	0.10015
0.35272	0.40625
0.48022	0.55929
0.09770	0.45726
-0.25932	0.15117
-0.10631	-0.25695
0.25071	0.02363
0.45472	-0.25695
0.25071	0.04914
0.04670	0.76336
0.09770	1.06945
0.17421	0.53379
0.30171	-0.23145
0.12320	-0.48652
-0.13181	0.02363
-0.15732	0.17668
0.32721	0.27871
0.37822	-0.07840
0.27621	-0.02739
-0.05531	-0.07840
0.22521	0.53379
0.40372	0.15117
0.04670	0.35523
0.25071	-0.07840
-0.33583	-0.74160
-0.13181	-0.56305
0.37822	0.12566
0.55673	0.94191
0.55673	1.17148
0.02119	0.71234
0.07220	0.58480
0.09770	-0.51203
0.02119	-0.02739
0.02119	-0.46102
-0.31033	-0.69059
0.17421	0.07465
0.53123	0.53379
0.35272	0.61031
0.22521	0.45726
-0.05531	0.38074
0.17421	0.32972
0.27621	0.15117
0.02119	-0.12942
0.02119	-0.51203
-0.00431	-0.63957
0.17421	0.30422
0.45472	0.58480
0.12320	0.55929
0.22521	0.71234
0.17421	0.61031
0.22521	0.30422
0.17421	-0.35899
0.25071	-0.05289
0.12320	-0.35899
-0.02981	-0.25695
0.02119	0.35523
0.25071	0.17668
0.19971	0.53379
0.07220	0.45726
-0.00431	-0.05289
0.12320	0.15117
0.32721	0.35523
0.25071	0.32972
0.17421	0.35523
-0.10631	-0.18043
-0.15732	-0.23145
0.48022	-1.09871
0.53123	0.40625
0.25071	0.81437
0.02119	0.71234
0.02119	-0.28246
0.32721	0.02363
0.04670	0.40625
-0.02981	0.55929
-0.15732	0.12566
-0.00431	-0.33348
0.30171	0.02363
0.55673	0.35523
0.48022	0.27871
0.02119	-0.02739
0.17421	0.45726
0.12320	0.15117
-0.08081	-0.15492
-0.13181	-0.56305
0.02119	-0.18043
0.12320	-0.05289
0.35272	0.22769
0.19971	0.48277
0.12320	0.61031
-0.08081	0.45726
0.14870	0.58480
0.58223	0.48277
0.37822	0.43176
0.22521	0.20219
-0.23382	-1.30277
-0.18282	-0.43551
0.37822	0.38074
0.30171	0.43176
0.17421	0.22769
0.07220	0.58480
0.25071	0.04914
0.30171	-0.15492
-0.02981	-0.07840
-0.08081	-0.48652
-0.36133	0.12566
-0.10631	0.38074
0.35272	0.66132
0.53123	0.40625
0.27621	-0.23145
0.09770	0.12566
0.35272	0.38074
0.32721	0.20219
0.12320	0.35523
-0.08081	-0.10391
-0.00431	-0.23145
0.07220	-0.28246
0.65874	0.32972
0.42922	0.94191
-0.02981	-0.00188
-0.08081	0.04914
-0.13181	-0.53754
0.22521	-0.66508
0.04670	0.63582
0.12320	1.12046
-0.15732	0.66132
-0.10631	-0.30797
0.37822	-1.91496
0.58223	0.43176
0.48022	1.14597
0.17421	1.06945
0.17421	0.76336
0.14870	-0.43551
0.02119	0.12566
0.04670	0.12566
-0.33583	0.02363
0.07220	-0.00188
0.42922	-0.05289
0.30171	0.30422
0.30171	0.02363
-0.02981	0.25320
0.09770	0.17668
0.42922	0.02363
0.14870	-0.48652
0.02119	-0.28246
-0.28482	-0.23145
-0.00431	0.38074
0.35272	0.71234
0.37822	0.96742
0.22521	0.27871
0.04670	0.07465
0.17421	0.53379
0.37822	0.35523
0.22521	0.25320
0.07220	0.02363
-0.20832	-0.97117
-0.08081	-0.66508
0.40372	-0.56305
0.53123	0.78886
0.32721	0.66132
0.19971	1.01843
0.12320	0.55929
0.02119	0.71234
-0.15732	-0.12942
-0.25932	-0.07840
-0.18282	-0.43551
-0.05531	-0.23145
0.25071	-0.18043
0.30171	0.30422
0.48022	0.43176
0.45472	0.35523
0.19971	-0.18043
0.22521	0.20219
0.22521	0.22769
0.04670	0.38074
-0.15732	-0.07840
0.07220	-0.07840
0.40372	-0.33348
0.30171	0.45726
0.02119	0.32972
-0.18282	0.17668
0.14870	0.68683
0.32721	0.43176
0.22521	0.22769
0.17421	-0.23145
-0.18282	-0.28246
-0.25932	-0.46102
0.42922	0.32972
0.73524	0.22769
0.27621	0.17668
-0.02981	-0.28246
0.12320	0.76336
0.19971	0.53379
0.25071	0.40625
-0.28482	0.07465
-0.31033	-0.10391
0.19971	-0.38449
0.63323	-0.05289
0.48022	-0.15492
0.12320	0.32972
0.09770	0.68683
0.02119	0.45726
0.12320	0.35523
0.04670	0.04914
0.02119	-0.48652
-0.02981	-1.09871
-0.00431	0.20219
0.50573	0.91640
0.25071	0.66132
0.12320	0.32972
0.09770	0.27871
0.12320	0.30422
0.40372	0.07465
0.14870	-0.35899
0.17421	-0.20594
-0.08081	0.12566
0.02119	0.15117
0.30171	0.48277
0.12320	0.35523
0.14870	-0.02739
-0.00431	-0.25695
0.17421	-0.00188
0.68424	-0.61406
0.12320	0.63582
-0.05531	0.43176
-0.25932	0.20219
-0.00431	0.32972
0.53123	0.50828
0.50573	0.35523
0.04670	-0.25695
0.07220	0.30422
0.32721	-0.25695
0.09770	-0.00188
0.09770	0.43176
0.02119	-0.05289
-0.20832	0.20219
-0.08081	0.32972
0.25071	-0.02739
0.42922	-0.86914
0.60773	0.02363
0.19971	0.89089
0.09770	0.94191
0.04670	0.58480
-0.00431	0.07465
-0.08081	-0.61406
-0.10631	-0.28246
0.09770	0.35523
0.32721	0.30422
0.42922	0.40625
0.17421	0.27871
-0.10631	0.30422
0.04670	0.22769
0.48022	0.32972
0.19971	-0.18043
-0.00431	-0.15492
-0.18282	-0.61406
-0.10631	-0.12942
0.40372	0.63582
0.48022	0.99292
0.12320	-0.79262
-0.05531	-0.43551
0.12320	0.32972
0.22521	0.30422
0.48022	0.83988
-0.00431	0.53379
-0.31033	0.61031
-0.28482	0.43176
0.53123	-0.71609
0.48022	0.04914
0.12320	-0.99668
0.19971	-0.12942
0.12320	1.12046
0.27621	1.12046
0.25071	0.89089
0.02119	0.15117
-0.23382	0.17668
-0.10631	-0.46102
0.48022	-0.20594
0.60773	0.15117
0.19971	0.17668
-0.15732	-0.25695
-0.05531	0.07465
0.25071	0.15117
0.22521	-0.12942
0.25071	0.27871
-0.00431	0.04914
0.02119	-0.05289
0.37822	-0.15492
0.40372	0.17668
0.14870	0.48277
-0.00431	0.55929
0.19971	0.96742
0.09770	0.73785
0.02119	-0.02739
-0.08081	-1.02219
0.12320	-0.38449
-0.13181	0.38074
0.37822	0.66132
0.53123	0.61031
0.14870	0.30422
-0.05531	-0.05289
0.07220	0.17668
0.17421	0.22769
0.32721	0.12566
-0.10631	-0.63957
-0.20832	-0.30797
-0.10631	-0.28246
0.45472	-0.10391
0.73524	0.30422
0.63323	0.76336
0.12320	1.01843
-0.10631	0.12566
0.19971	0.25320
-0.08081	-0.84363
-0.28482	-0.00188
-0.25932	0.43176
-0.13181	0.40625
0.35272	0.27871
0.53123	0.61031
0.37822	0.10015
0.37822	0.04914
0.55673	-0.00188
0.32721	-0.05289
0.07220	0.02363
-0.10631	0.25320
-0.38683	0.02363
-0.05531	0.07465
0.32721	0.27871
0.27621	-0.05289
0.19971	-0.41000
0.12320	0.40625
0.25071	0.45726
0.35272	0.20219
0.12320	0.04914
-0.13181	0.10015
-0.15732	0.43176
-0.10631	0.04914
0.35272	0.20219
0.35272	-0.15492
0.17421	-0.86914
0.09770	0.55929
0.17421	0.89089
0.22521	0.50828
0.32721	0.30422
-0.08081	-0.30797
-0.38683	0.07465
-0.00431	-0.10391
0.68424	0.43176
0.68424	0.35523
0.17421	-0.00188
-0.28482	-0.63957
-0.23382	-0.02739
0.02119	0.25320
0.32721	0.48277
0.14870	0.45726
-0.00431	0.32972
-0.02981	-0.35899
0.53123	-0.02739
0.37822	-0.15492
0.19971	0.15117
0.22521	0.32972
0.19971	0.61031
0.09770	0.40625
0.09770	0.22769
-0.00431	0.04914
0.02119	-0.15492
-0.10631	-0.12942
0.37822	-0.18043
0.37822	0.32972
-0.00431	0.43176
-0.00431	0.32972
0.22521	-0.28246
0.14870	0.38074
0.30171	-0.00188
0.32721	0.35523
-0.02981	0.35523
-0.18282	0.12566
0.27621	-0.07840
0.14870	0.38074
0.12320	0.15117
0.07220	0.20219
0.12320	-0.63957
0.42922	0.17668
0.22521	-0.12942
0.07220	0.25320
-0.10631	0.38074
-0.20832	0.38074
0.14870	0.40625
0.37822	0.07465
0.32721	-0.46102
0.42922	0.17668
0.09770	0.66132
0.14870	0.50828
0.17421	0.27871
-0.08081	-0.53754
-0.13181	-0.33348
-0.10631	0.15117
0.27621	0.30422
0.30171	0.43176
0.48022	0.61031
0.04670	0.38074
0.09770	0.02363
0.32721	-0.30797
-0.00431	-0.28246
-0.08081	-0.23145
0.02119	0.55929
0.14870	-0.23145
0.45472	-0.12942
0.40372	0.43176
0.17421	0.68683
0.09770	0.22769
0.17421	0.43176
-0.10631	0.30422
0.14870	0.27871
0.04670	-0.33348
-0.00431	-0.02739
0.12320	-0.23145
0.19971	0.12566
0.35272	0.10015
0.19971	0.53379
-0.00431	0.30422
0.02119	-0.71609
0.27621	0.07465
0.12320	-0.41000
0.12320	0.43176
0.12320	0.55929
-0.08081	0.58480
0.19971	0.27871
0.17421	-0.30797
0.27621	0.02363
0.02119	0.12566
0.42922	0.61031
0.55673	0.58480
0.30171	0.50828
0.07220	0.25320
-0.46334	-0.28246
-0.36133	-0.41000
0.04670	-0.15492
0.14870	0.35523
0.40372	0.55929
0.22521	0.45726
0.27621	-0.46102
0.30171	-0.33348
0.37822	-1.43031
0.07220	0.55929
-0.15732	0.66132
-0.23382	-0.20594
0.30171	1.01843
0.53123	0.63582
0.17421	0.81437
0.02119	0.78886
0.14870	-0.25695
0.37822	-0.48652
0.14870	-0.76711
-0.00431	0.50828
-0.23382	0.71234
-0.08081	0.17668
0.37822	-0.30797
0.42922	0.43176
0.27621	-0.15492
0.27621	0.40625
0.07220	0.38074
0.17421	0.25320
0.04670	0.22769
0.09770	0.17668
-0.25932	-0.89465
-0.15732	-0.66508
0.35272	0.12566
0.32721	0.50828
0.27621	0.53379
0.22521	0.91640
0.07220	0.61031
0.19971	-0.25695
0.09770	-0.66508
0.14870	-0.53754
-0.28482	0.10015
-0.10631	0.55929
0.35272	0.91640
0.60773	0.02363
0.19971	0.27871
-0.02981	0.32972
-0.08081	0.40625
0.22521	0.43176
0.17421	0.02363
0.27621	-0.81812
0.02119	-0.28246
-0.02981	0.15117
0.19971	0.17668
0.37822	0.63582
-0.05531	0.55929
0.02119	0.53379
0.17421	0.40625
0.32721	-0.56305
0.30171	-0.58856
-0.13181	-0.66508
0.14870	0.45726
-0.02981	0.55929
0.22521	0.81437
0.48022	0.81437
0.25071	0.45726
0.22521	-0.07840
0.40372	0.10015
0.12320	-0.12942
0.07220	-0.48652
-0.25932	0.10015
-0.18282	-0.12942
-0.05531	0.15117
0.40372	0.61031
0.37822	-0.05289
0.09770	-0.15492
0.09770	0.35523
0.07220	0.43176
0.14870	-0.43551
0.12320	0.40625
0.04670	0.48277
-0.10631	0.25320
-0.08081	0.15117
0.60773	0.17668
0.50573	0.20219
0.12320	0.27871
-0.10631	-0.15492
0.14870	0.12566
0.12320	0.27871
0.27621	0.04914
-0.00431	0.38074
-0.18282	-0.33348
-0.08081	-0.25695
0.32721	0.22769
0.42922	0.45726
0.27621	0.38074
-0.10631	0.07465
0.12320	0.61031
0.25071	0.55929
0.35272	0.17668
-0.02981	-0.92016
-0.18282	-0.12942
-0.13181	0.10015
0.19971	-0.25695
0.63323	0.96742
0.32721	0.71234
0.22521	0.53379
-0.13181	0.66132
0.02119	-0.05289
0.50573	-0.30797
-0.00431	-0.66508
-0.18282	-0.74160
-0.08081	0.20219
0.27621	0.58480
0.14870	0.63582
0.17421	0.30422
0.17421	0.22769
-0.13181	0.22769
0.09770	-0.05289
0.27621	0.15117
0.12320	-0.28246
-0.25932	-0.10391
0.07220	-0.30797
0.42922	0.45726
0.63323	0.58480
0.19971	0.32972
0.19971	0.35523
0.17421	0.22769
0.17421	0.22769
0.25071	0.15117
0.04670	0.10015
-0.13181	0.04914
-0.15732	-0.05289
0.32721	0.15117
0.50573	0.30422
0.07220	0.32972
-0.08081	0.02363
0.07220	-0.05289
0.32721	0.30422
0.17421	0.30422
-0.02981	-0.25695
0.04670	-0.43551
0.09770	0.22769
0.32721	0.63582
0.27621	0.58480
0.25071	0.12566
-0.05531	0.07465
-0.08081	-0.07840
0.19971	0.50828
0.25071	0.68683
0.09770	0.20219
0.02119	-0.51203
-0.00431	-0.46102
0.22521	0.04914
0.42922	0.53379
0.07220	-0.12942
-0.08081	0.15117
0.14870	0.76336
0.40372	0.61031
0.17421	0.15117
-0.00431	-0.15492
-0.25932	-0.00188
0.04670	-0.02739
0.07220	-0.43551
0.30171	0.38074
0.22521	0.02363
0.25071	0.45726
0.22521	0.48277
0.14870	0.15117
0.22521	-0.05289
-0.02981	0.10015
-0.20832	-0.56305
-0.02981	0.40625
0.30171	0.63582
0.37822	0.50828
0.09770	-0.07840
0.27621	0.32972
0.27621	0.45726
0.19971	0.07465
0.27621	-0.05289
-0.02981	0.12566
-0.25932	-0.00188
-0.28482	-0.00188
0.22521	-0.53754
0.48022	0.30422
0.27621	0.48277
0.12320	0.66132
0.19971	0.55929
0.02119	0.30422
0.19971	-0.12942
-0.25932	-0.79262
-0.05531	-0.74160
0.02119	-0.86914
0.55673	0.45726
0.76074	1.27351
0.42922	1.27351
0.07220	0.30422
-0.00431	0.58480
0.07220	0.20219
-0.00431	-0.10391
-0.02981	0.12566
-0.13181	-0.35899
-0.00431	-0.25695
0.35272	0.10015
0.35272	0.17668
0.17421	-0.07840
-0.13181	0.22769
-0.00431	-0.12942
0.12320	0.17668
0.48022	-0.18043
0.17421	-0.02739
-0.13181	0.25320
-0.13181	-0.00188
0.22521	0.61031
0.55673	0.76336
0.07220	0.35523
0.07220	0.35523
0.19971	0.43176
0.37822	0.07465
0.09770	-0.12942
0.02119	-0.48652
-0.05531	-0.15492
-0.20832	0.15117
0.04670	0.63582
0.35272	0.20219
0.25071	0.04914
0.22521	-0.23145
0.07220	0.04914
0.32721	-0.35899
0.40372	0.53379
-0.13181	-0.12942
-0.23382	0.17668
-0.00431	0.96742
0.45472	0.89089
0.48022	0.76336
0.14870	0.25320
-0.00431	-0.20594
-0.08081	0.12566
0.14870	-0.10391
0.09770	-1.07320
0.25071	-0.07840
-0.53984	-0.53754
-0.08081	0.04914
0.42922	0.50828
0.53123	0.66132
0.50573	0.40625
0.30171	0.50828
0.37822	0.50828
0.45472	0.22769
0.07220	-0.07840
-0.20832	-0.38449
-0.48884	-0.10391
-0.38683	0.10015
-0.00431	0.32972
0.12320	0.50828
0.45472	0.35523
0.73524	0.27871
0.22521	-0.00188
0.09770	-0.00188
0.12320	-0.46102
0.32721	0.22769
-0.13181	-0.10391
-0.28482	0.04914
0.30171	0.55929
0.40372	0.55929
0.32721	0.61031
0.25071	0.53379
0.22521	-0.35899
0.40372	-0.18043
0.35272	-0.05289
-0.25932	-1.04770
-0.38683	-0.28246
-0.48884	0.40625
0.22521	0.94191
0.50573	1.24800
0.19971	0.58480
0.12320	0.10015
0.22521	-0.89465
0.30171	-0.25695
0.53123	0.30422
0.07220	0.17668
-0.02981	0.15117
-0.18282	0.50828
0.07220	0.38074
0.32721	0.30422
0.37822	-0.79262
0.02119	-0.86914
0.02119	0.43176
0.17421	0.40625
0.02119	0.27871
0.07220	-0.12942
-0.02981	0.43176
0.07220	0.40625
0.42922	0.61031
0.27621	0.53379
0.07220	0.12566
0.09770	0.20219
0.14870	-0.12942
0.22521	-0.20594
0.25071	-0.05289
0.09770	0.07465
-0.20832	0.22769
-0.13181	-0.15492
0.27621	-0.61406
0.35272	-0.10391
0.22521	0.66132
0.12320	1.09496
0.12320	0.91640
0.19971	-0.10391
0.35272	-0.10391
0.12320	-0.07840
-0.18282	-0.25695
-0.31033	-0.46102
0.19971	0.30422
0.45472	0.22769
0.42922	0.68683
0.27621	0.76336
0.12320	0.35523
0.14870	-0.20594
0.04670	0.02363
-0.00431	0.15117
-0.18282	-0.61406
-0.10631	-0.20594
0.32721	0.45726
0.27621	0.43176
0.02119	0.22769
-0.08081	0.02363
0.04670	0.22769
0.60773	0.32972
0.73524	-0.10391
0.19971	-0.46102
-0.25932	-0.05289
-0.08081	0.66132
0.60773	0.76336
0.37822	0.53379
-0.18282	0.32972
-0.13181	-0.00188
0.12320	0.22769
0.09770	0.12566
0.37822	-0.23145
0.42922	0.17668
0.04670	-0.28246
-0.20832	-0.58856
0.32721	-0.25695
0.40372	0.63582
0.07220	0.55929
-0.00431	0.55929
-0.18282	0.66132
0.25071	0.25320
0.22521	0.02363
0.19971	0.02363
-0.00431	-0.33348
-0.08081	-0.53754
0.40372	0.17668
0.37822	0.63582
0.22521	0.86539
0.07220	-0.00188
0.12320	-0.46102
0.22521	-0.05289
0.17421	0.86539
0.22521	0.35523
-0.05531	0.17668
0.02119	0.12566
-0.00431	-0.05289
0.22521	0.12566
0.12320	0.30422
0.19971	0.50828
-0.05531	0.38074
0.25071	-0.07840
0.12320	-0.20594
0.12320	-0.38449
-0.08081	0.04914
-0.23382	0.15117
0.32721	-0.33348
0.65874	0.86539
0.12320	0.15117
0.09770	-0.02739
0.07220	-0.71609
0.17421	0.40625
0.02119	0.66132
-0.02981	0.94191
0.09770	0.55929
-0.25932	0.04914
0.35272	0.12566
0.68424	0.48277
0.42922	0.25320
-0.10631	-1.02219
-0.00431	-1.02219
0.07220	-0.25695
0.04670	0.50828
0.19971	1.04394
0.02119	0.78886
-0.08081	0.22769
0.22521	0.12566
0.42922	-0.30797
0.32721	0.22769
0.14870	0.07465
0.09770	-0.33348
0.04670	0.40625
0.25071	0.32972
0.02119	0.25320
0.04670	0.40625
0.09770	0.30422
-0.05531	-0.02739
0.48022	-0.63957
0.12320	-0.35899
0.04670	0.43176
0.12320	0.27871
0.22521	0.61031
0.02119	-0.71609
0.07220	0.48277
0.12320	0.68683
0.04670	0.73785
0.32721	0.63582
0.48022	0.07465
0.02119	0.02363
-0.08081	-0.74160
0.14870	-0.46102
0.30171	0.38074
0.22521	0.30422
0.19971	0.50828
-0.08081	0.04914
-0.08081	-0.25695
0.12320	-0.46102
0.58223	0.10015
0.19971	0.78886
0.07220	0.86539
0.02119	0.17668
0.42922	0.07465
0.58223	0.15117
-0.00431	0.04914
-0.38683	-0.10391
-0.33583	-0.05289
-0.00431	-0.18043
0.37822	0.43176
0.14870	0.22769
0.14870	0.32972
0.22521	0.40625
0.19971	0.17668
0.17421	-0.48652
0.02119	-0.28246
0.07220	0.30422
0.02119	0.50828
0.50573	0.32972
0.25071	-0.35899
-0.05531	-0.25695
-0.02981	0.07465
0.22521	0.86539
0.53123	0.63582
0.22521	0.32972
-0.18282	0.38074
-0.28482	0.10015
-0.00431	-0.02739
0.58223	-0.25695
0.50573	0.25320
-0.13181	-0.33348
-0.18282	0.27871
0.27621	0.58480
0.25071	0.38074
0.30171	-1.12422
0.12320	-0.35899
-0.10631	0.25320
-0.15732	0.61031
0.14870	0.55929
0.30171	0.48277
0.32721	0.20219
0.35272	-0.05289
-0.00431	0.55929
-0.08081	-0.05289
0.65874	0.04914
0.09770	-0.15492
-0.13181	0.25320
-0.08081	0.30422
0.42922	0.53379
0.53123	0.27871
0.14870	-0.02739
0.07220	-0.35899
0.27621	0.38074
0.22521	0.38074
0.19971	-0.28246
0.02119	-0.05289
-0.00431	0.20219
-0.28482	0.25320
0.17421	0.07465
0.50573	0.07465
0.30171	0.50828
0.09770	0.58480
0.14870	0.55929
0.09770	-0.25695
0.22521	-0.56305
-0.02981	0.27871
0.12320	0.07465
-0.20832	0.07465
0.02119	0.25320
0.40372	0.15117
0.12320	0.25320
0.04670	0.40625
0.19971	0.38074
0.22521	0.27871
0.37822	0.12566
0.12320	-0.05289
-0.02981	-0.12942
0.02119	0.20219
0.30171	0.20219
0.63323	0.22769
0.30171	0.17668
-0.36133	0.04914
-0.10631	0.55929
0.17421	-0.18043
0.19971	-0.56305
0.09770	0.45726
0.09770	0.58480
-0.28482	0.32972
0.19971	0.15117
0.50573	0.30422
0.12320	-0.12942
0.02119	0.27871
0.04670	-0.38449
0.17421	0.10015
0.42922	0.35523
0.19971	0.45726
-0.05531	0.10015
-0.08081	0.04914
0.14870	-0.10391
0.27621	0.22769
0.17421	0.45726
0.32721	0.38074
0.53123	-0.30797
0.07220	0.12566
0.02119	0.07465
-0.02981	0.58480
-0.18282	0.27871
-0.23382	-0.35899
0.02119	0.07465
0.63323	0.71234
0.27621	0.73785
-0.00431	-0.25695
-0.00431	0.10015
0.27621	-0.51203
0.40372	0.07465
0.14870	0.78886
-0.20832	0.45726
-0.41233	-0.46102
0.37822	0.25320
0.60773	0.73785
0.25071	0.30422
0.07220	0.32972
0.02119	0.10015
0.04670	-0.05289
0.32721	-0.63957
0.04670	-0.35899
-0.15732	0.17668
-0.23382	0.40625
0.35272	0.63582
0.58223	0.58480
0.45472	0.40625
-0.08081	0.07465
-0.13181	0.10015
-0.18282	-0.02739
0.22521	0.15117
0.22521	0.27871
0.12320	0.04914
-0.13181	-0.05289
0.25071	0.17668
0.55673	0.40625
0.12320	0.22769
0.07220	0.10015
0.25071	-0.25695
0.30171	0.12566
0.12320	0.22769
-0.13181	0.15117
-0.18282	0.04914
-0.33583	0.25320
0.27621	0.35523
0.37822	0.55929
0.42922	0.12566
0.32721	0.35523
0.02119	-0.46102
0.04670	0.12566
0.42922	0.50828
0.12320	0.30422
-0.18282	0.12566
-0.08081	-0.15492
0.14870	-0.18043
0.50573	0.22769
0.17421	0.45726
0.09770	-0.10391
-0.08081	0.35523
0.17421	0.43176
0.32721	0.38074
0.02119	0.20219
-0.18282	-0.07840
-0.10631	-0.43551
0.32721	-0.10391
0.55673	0.40625
0.32721	0.30422
0.17421	0.10015
0.04670	0.58480
-0.00431	0.38074
0.27621	0.04914
0.04670	0.22769
-0.05531	0.07465
-0.31033	-0.05289
0.25071	-0.51203
0.76074	0.53379
0.32721	0.27871
0.12320	0.22769
0.22521	-0.41000
0.02119	0.55929
-0.02981	0.04914
-0.20832	0.30422
-0.23382	0.30422
-0.10631	0.27871
0.30171	0.45726
0.63323	-0.05289
0.42922	0.12566
0.02119	0.10015
0.07220	0.32972
0.32721	0.07465
0.30171	-0.23145
0.09770	-0.00188
-0.02981	0.22769
-0.18282	0.15117
0.17421	-0.10391
0.58223	-0.41000
0.04670	0.55929
0.07220	0.53379
0.19971	0.61031
0.02119	-0.15492
0.14870	0.40625
0.07220	-0.00188
-0.05531	0.40625
-0.05531	-0.25695
0.02119	0.30422
0.45472	0.15117
0.30171	-0.23145
0.17421	0.32972
0.12320	0.35523
0.22521	0.43176
0.09770	0.20219
-0.10631	0.17668
-0.10631	0.17668
-0.08081	-0.20594
0.14870	-0.18043
0.73524	-0.18043
0.32721	-0.07840
0.27621	0.50828
0.02119	0.27871
0.07220	0.50828
0.14870	0.40625
-0.08081	0.32972
-0.15732	-0.05289
-0.15732	0.04914
0.09770	-0.02739
0.53123	0.43176
0.48022	-0.07840
0.19971	-0.00188
0.12320	-0.05289
0.14870	0.17668
0.22521	0.38074
0.25071	0.40625
-0.00431	0.17668
-0.18282	-0.25695
-0.00431	-0.28246
0.55673	0.07465
0.40372	0.55929
-0.02981	0.43176
-0.02981	0.53379
-0.00431	0.25320
0.17421	0.15117
-0.02981	-0.15492
0.12320	-0.25695
0.02119	0.25320
0.07220	-0.12942
0.42922	0.45726
0.19971	0.17668
0.04670	0.07465
0.12320	0.58480
0.12320	-0.69059
0.32721	0.17668
0.17421	0.43176
-0.02981	0.48277
-0.15732	0.27871
0.22521	0.30422
0.60773	0.55929
0.19971	0.35523
-0.08081	0.20219
-0.02981	-0.02739
-0.00431	-0.33348
0.09770	-0.48652
0.04670	-0.38449
0.02119	-0.05289
0.30171	0.50828
0.22521	-0.74160
0.50573	0.32972
0.37822	0.68683
0.22521	1.12046
-0.05531	0.20219
0.25071	0.30422
0.04670	0.32972
-0.05531	0.32972
-0.20832	0.20219
-0.25932	-0.15492
0.12320	-0.38449
0.40372	-0.69059
0.25071	-0.33348
-0.00431	0.40625
0.22521	0.55929
0.12320	0.48277
0.32721	0.20219
0.02119	-0.66508
-0.02981	-0.51203
-0.08081	0.20219
0.22521	0.50828
0.48022	0.71234
0.22521	0.40625
0.07220	0.35523
0.04670	0.17668
0.07220	0.40625
0.37822	0.02363
0.12320	-0.12942
-0.08081	0.10015
-0.38683	-0.30797
-0.00431	-0.12942
0.42922	0.68683
0.42922	0.53379
0.19971	0.45726
0.32721	0.40625
0.27621	0.04914
0.25071	-0.56305
-0.15732	-0.12942
-0.28482	-0.12942
-0.28482	-0.15492
0.02119	0.04914
0.50573	0.76336
0.40372	0.55929
0.12320	0.61031
0.12320	0.15117
0.14870	0.32972
0.17421	-0.51203
-0.02981	0.43176
0.09770	0.15117
0.02119	-0.35899
0.25071	0.32972
0.58223	0.04914
0.27621	0.22769
0.09770	0.61031
-0.18282	0.40625
-0.15732	0.17668
-0.08081	0.02363
-0.08081	-0.25695
-0.00431	-0.05289
0.09770	0.10015
0.37822	0.55929
0.70974	0.81437
0.22521	0.40625
0.14870	-0.18043
-0.10631	-0.97117
0.07220	-0.05289
0.35272	0.12566
0.09770	0.48277
0.04670	0.76336
-0.18282	0.68683
0.07220	-0.35899
0.25071	-0.18043
0.27621	0.04914
0.22521	0.20219
0.17421	0.58480
0.09770	0.20219
0.17421	0.04914
0.12320	0.12566
0.02119	0.04914
-0.10631	-0.02739
0.07220	0.15117
0.60773	0.35523
