0.35272	0.30422
0.12320	0.30422
0.07220	0.30422
-0.33583	0.38074
-0.02981	0.17668
0.60773	0.02363
0.37822	-0.05289
0.17421	-0.02739
-0.00431	-0.05289
0.07220	0.10015
0.35272	0.30422
0.12320	0.38074
0.02119	0.20219
-0.25932	0.22769
-0.05531	0.15117
0.65874	0.02363
0.32721	-0.05289
0.12320	-0.00188
-0.05531	-0.02739
0.14870	0.04914
0.35272	0.30422
0.07220	0.38074
-0.02981	0.30422
-0.28482	0.30422
-0.05531	0.22769
0.53123	-0.07840
0.42922	0.04914
0.30171	-0.05289
-0.00431	-0.05289
0.04670	0.04914
0.32721	0.25320
0.09770	0.32972
-0.02981	0.32972
-0.31033	0.43176
-0.08081	0.22769
0.63323	0.02363
0.40372	0.02363
0.22521	-0.00188
0.09770	-0.10391
0.02119	-0.05289
0.25071	0.22769
0.12320	0.43176
-0.02981	0.27871
-0.23382	0.35523
-0.05531	0.20219
0.55673	0.04914
0.37822	0.12566
0.25071	-0.05289
-0.00431	-0.15492
0.07220	-0.10391
0.42922	0.22769
0.19971	0.43176
-0.08081	0.32972
-0.43783	0.32972
-0.18282	0.22769
0.63323	-0.07840
0.42922	-0.00188
0.25071	-0.00188
-0.05531	-0.02739
0.07220	0.04914
0.35272	0.30422
0.17421	0.27871
0.04670	0.17668
-0.25932	0.35523
-0.00431	0.25320
0.63323	-0.00188
0.37822	0.02363
0.22521	0.07465
-0.10631	-0.00188
-0.00431	-0.00188
0.37822	0.25320
0.17421	0.30422
0.04670	0.27871
-0.28482	0.35523
-0.00431	0.30422
0.53123	-0.02739
0.32721	-0.07840
0.30171	-0.12942
0.09770	-0.18043
0.19971	0.04914
0.37822	0.43176
0.07220	0.35523
-0.10631	0.27871
-0.33583	0.32972
0.02119	0.15117
0.68424	-0.00188
0.40372	0.07465
0.19971	-0.05289
-0.13181	-0.07840
0.04670	-0.02739
0.42922	0.22769
0.09770	0.32972
-0.00431	0.25320
-0.28482	0.30422
-0.10631	0.27871
0.60773	-0.00188
0.48022	-0.02739
0.27621	-0.00188
0.07220	-0.00188
0.12320	0.02363
0.30171	0.32972
0.09770	0.27871
0.02119	0.27871
-0.25932	0.38074
-0.10631	0.15117
0.53123	0.02363
0.37822	0.02363
0.27621	-0.00188
-0.05531	-0.05289
0.04670	-0.05289
0.32721	0.25320
0.19971	0.45726
0.02119	0.25320
-0.28482	0.25320
-0.00431	0.25320
0.70974	0.04914
0.42922	-0.00188
0.14870	-0.02739
-0.08081	-0.07840
0.07220	0.02363
0.42922	0.38074
0.12320	0.35523
0.02119	0.17668
-0.33583	0.30422
0.02119	0.30422
0.65874	-0.05289
0.40372	0.02363
0.22521	0.04914
-0.02981	-0.05289
0.09770	0.04914
0.30171	0.17668
0.12320	0.35523
0.12320	0.22769
-0.25932	0.40625
-0.08081	0.32972
0.68424	0.02363
0.42922	-0.02739
0.22521	-0.07840
-0.05531	-0.07840
0.12320	0.02363
0.35272	0.43176
0.04670	0.35523
-0.02981	0.20219
-0.33583	0.30422
0.07220	0.30422
0.65874	0.04914
0.35272	-0.05289
0.14870	0.02363
-0.08081	-0.05289
0.19971	0.07465
0.48022	0.27871
0.14870	0.27871
-0.10631	0.20219
-0.31033	0.35523
0.07220	0.25320
0.68424	-0.00188
0.25071	-0.07840
0.04670	-0.02739
-0.02981	-0.07840
0.22521	0.10015
0.42922	0.30422
0.07220	0.30422
-0.08081	0.25320
-0.33583	0.35523
0.04670	0.22769
0.60773	-0.10391
0.32721	-0.00188
0.14870	0.02363
0.02119	-0.05289
0.07220	0.07465
0.32721	0.20219
0.12320	0.40625
0.09770	0.35523
-0.28482	0.30422
-0.10631	0.20219
0.60773	-0.05289
0.37822	-0.07840
0.25071	-0.02739
-0.02981	-0.05289
0.09770	0.07465
0.32721	0.40625
0.04670	0.40625
-0.08081	0.20219
-0.33583	0.30422
0.07220	0.25320
0.70974	0.04914
0.48022	-0.02739
0.14870	-0.05289
-0.10631	-0.00188
0.12320	0.02363
0.40372	0.22769
-0.00431	0.43176
-0.08081	0.32972
-0.23382	0.25320
-0.00431	0.27871
0.63323	0.04914
0.48022	-0.00188
0.17421	-0.00188
0.02119	-0.10391
0.12320	-0.00188
0.37822	0.35523
0.12320	0.30422
0.02119	0.25320
-0.33583	0.27871
0.02119	0.10015
0.63323	-0.02739
0.45472	0.04914
0.22521	-0.00188
-0.05531	-0.10391
-0.05531	0.02363
0.30171	0.30422
0.12320	0.43176
-0.02981	0.22769
-0.41233	0.32972
0.02119	0.30422
0.76074	-0.00188
0.42922	-0.05289
0.19971	-0.05289
-0.02981	-0.05289
0.22521	-0.00188
0.30171	0.25320
0.09770	0.40625
0.07220	0.35523
-0.28482	0.35523
-0.08081	0.22769
0.65874	-0.05289
0.45472	-0.05289
0.14870	0.32972
-0.02981	-0.30797
0.07220	-0.33348
0.42922	0.20219
0.12320	0.55929
-0.00431	0.38074
-0.28482	0.43176
0.07220	0.17668
0.53123	0.04914
0.19971	0.04914
0.12320	-0.02739
0.07220	-0.10391
0.09770	0.10015
0.42922	0.32972
0.22521	0.27871
0.04670	0.22769
-0.33583	0.22769
0.09770	0.10015
0.58223	0.02363
0.22521	0.04914
0.19971	-0.02739
-0.15732	-0.05289
0.07220	0.07465
0.45472	0.25320
0.07220	0.35523
-0.08081	0.35523
-0.18282	0.27871
0.07220	0.15117
0.70974	0.04914
0.53123	0.02363
0.19971	-0.07840
-0.15732	-0.10391
0.07220	0.02363
0.42922	0.22769
0.09770	0.35523
-0.02981	0.32972
-0.25932	0.22769
-0.02981	0.35523
0.55673	-0.05289
0.40372	-0.00188
0.27621	0.10015
-0.18282	-0.10391
0.22521	0.10015
0.35272	0.32972
0.04670	0.15117
0.12320	0.17668
-0.28482	0.35523
0.14870	0.22769
0.55673	0.04914
0.19971	-0.00188
0.14870	-0.02739
-0.10631	0.04914
0.12320	0.02363
0.35272	0.25320
0.22521	0.30422
-0.10631	0.17668
-0.23382	0.20219
-0.13181	0.27871
0.63323	0.10015
0.50573	-0.10391
0.22521	-0.23145
-0.08081	-0.12942
0.17421	0.04914
0.45472	0.32972
0.19971	0.53379
-0.00431	0.15117
-0.31033	0.27871
-0.08081	0.45726
0.70974	-0.07840
0.27621	-0.12942
0.12320	0.12566
0.02119	-0.05289
0.12320	0.02363
0.42922	0.38074
0.17421	0.40625
0.02119	0.15117
-0.31033	0.32972
0.02119	0.32972
0.73524	0.02363
0.35272	-0.00188
0.14870	-0.10391
0.02119	-0.28246
0.17421	-0.12942
0.32721	0.15117
0.17421	0.50828
-0.05531	0.38074
-0.25932	0.22769
-0.02981	0.12566
0.55673	0.07465
0.48022	0.07465
0.17421	-0.10391
-0.05531	-0.07840
-0.00431	0.15117
0.42922	0.53379
0.14870	0.35523
-0.02981	0.30422
-0.18282	0.27871
0.09770	0.02363
0.58223	-0.02739
0.25071	-0.00188
0.30171	-0.10391
-0.13181	0.04914
-0.10631	-0.07840
0.30171	0.38074
0.22521	0.45726
-0.08081	0.35523
-0.36133	0.35523
-0.10631	0.17668
0.81175	-0.10391
0.45472	-0.41000
0.19971	-0.10391
0.07220	0.10015
0.32721	0.15117
0.42922	0.55929
-0.08081	0.58480
-0.20832	0.27871
-0.36133	0.32972
-0.10631	0.43176
0.53123	-0.07840
0.45472	-0.30797
0.27621	-0.07840
0.12320	-0.05289
0.17421	-0.00188
0.27621	0.30422
0.04670	-0.05289
-0.02981	0.32972
-0.23382	0.63582
0.09770	0.45726
0.70974	-0.23145
0.19971	0.17668
0.30171	0.30422
-0.15732	0.04914
0.02119	-0.07840
0.40372	-0.53754
0.14870	-0.00188
0.14870	0.15117
-0.38683	0.66132
-0.02981	0.78886
0.45472	0.12566
0.27621	0.07465
0.14870	0.27871
0.17421	0.04914
0.22521	-0.18043
0.32721	0.20219
-0.08081	-0.18043
0.12320	0.27871
-0.15732	-0.05289
-0.13181	-0.10391
0.65874	-0.18043
0.78624	0.12566
0.50573	-0.05289
-0.02981	0.66132
-0.00431	0.66132
-0.05531	0.94191
-0.02981	0.58480
-0.25932	-0.18043
-0.18282	-0.15492
0.09770	-0.61406
0.60773	-0.05289
0.60773	0.32972
0.32721	0.43176
0.02119	-0.05289
-0.02981	-0.46102
0.22521	0.38074
0.30171	0.45726
-0.00431	0.35523
-0.20832	0.04914
0.27621	0.15117
0.53123	0.53379
0.25071	-0.02739
0.19971	-0.35899
-0.20832	-0.07840
-0.08081	-0.43551
0.63323	-0.74160
0.02119	0.48277
-0.15732	0.43176
-0.41233	0.66132
-0.18282	0.91640
0.76074	0.89089
0.42922	0.35523
0.19971	-0.53754
0.02119	-0.25695
0.32721	0.02363
0.63323	-0.02739
-0.00431	0.17668
-0.33583	0.38074
-0.02981	0.76336
-0.13181	0.30422
0.60773	-0.35899
0.35272	0.10015
0.02119	-0.02739
-0.00431	-0.61406
0.30171	-0.18043
0.25071	-0.58856
0.25071	-0.84363
-0.00431	0.32972
-0.18282	0.43176
-0.05531	0.86539
0.42922	1.47757
0.65874	1.17148
0.02119	0.25320
-0.18282	0.17668
0.09770	-0.20594
0.76074	-0.18043
0.17421	0.25320
-0.10631	-0.46102
-0.41233	0.07465
0.02119	0.17668
0.60773	-0.25695
0.27621	-0.00188
-0.02981	-0.07840
-0.02981	-0.41000
0.32721	0.66132
0.60773	0.91640
0.19971	0.38074
-0.05531	-0.33348
-0.59084	-1.07320
-0.25932	0.61031
0.48022	1.06945
0.55673	0.55929
0.19971	0.15117
-0.13181	-0.05289
0.30171	0.10015
0.73524	0.15117
0.14870	-0.58856
0.09770	0.53379
-0.28482	0.71234
-0.28482	-0.07840
0.50573	-0.30797
0.35272	-1.09871
0.40372	-0.84363
-0.00431	0.12566
-0.00431	0.89089
0.45472	0.91640
-0.00431	-0.10391
-0.28482	1.09496
-0.28482	0.78886
0.25071	0.48277
0.81175	-0.02739
0.25071	-0.20594
0.25071	-0.66508
0.07220	-0.69059
-0.05531	0.20219
0.55673	0.20219
0.17421	0.35523
-0.31033	0.10015
-0.64185	0.66132
0.30171	0.73785
0.68424	0.22769
0.48022	0.04914
0.48022	-0.30797
0.02119	0.04914
0.14870	0.02363
0.25071	-0.20594
-0.02981	-0.02739
0.04670	-0.46102
-0.05531	0.10015
-0.08081	0.89089
0.63323	0.53379
0.19971	-0.25695
0.12320	0.25320
-0.28482	-0.02739
0.37822	0.71234
0.58223	0.17668
-0.05531	0.02363
-0.23382	-1.55785
-0.18282	0.32972
0.14870	0.83988
0.81175	0.00000
0.17421	0.00000
0.22521	0.00000
0.07220	0.00000
0.12320	0.00000
0.45472	0.71234
0.14870	0.99292
-0.46334	-0.48652
-0.20832	-0.18043
0.30171	-0.43551
0.40372	-0.02739
0.17421	0.25320
0.19971	0.58480
0.17421	1.06945
-0.18282	0.66132
0.70974	0.17668
0.09770	-0.53754
-0.10631	-0.97117
-0.64185	-0.30797
0.19971	-0.76711
0.83725	0.76336
0.91375	1.78367
0.09770	0.71234
-0.46334	-0.20594
-0.20832	-1.78742
0.58223	-1.07320
0.19971	0.22769
0.17421	1.14597
0.07220	0.99292
-0.28482	0.45726
0.35272	-0.12942
0.19971	0.35523
0.25071	0.02363
-0.00431	0.66132
0.17421	0.45726
0.58223	0.25320
0.07220	-0.58856
0.17421	-0.10391
-0.08081	-0.10391
-0.08081	-1.09871
0.73524	0.10015
0.45472	1.01843
0.19971	-0.00188
-0.05531	0.99292
-0.41233	1.06945
0.42922	-0.84363
0.25071	-0.43551
0.02119	-0.41000
-0.59084	0.43176
-0.33583	0.50828
0.83725	0.86539
0.78624	0.25320
0.25071	-0.07840
-0.33583	-0.02739
0.22521	-0.05289
0.48022	0.20219
0.19971	0.27871
-0.05531	0.27871
-0.48884	-0.00188
0.12320	0.32972
0.63323	0.38074
0.45472	0.22769
-0.02981	-0.76711
-0.08081	-1.12422
0.30171	0.89089
0.55673	0.76336
-0.18282	0.20219
-0.28482	0.04914
-0.15732	0.27871
0.22521	-1.53234
0.73524	0.58480
0.70974	0.89089
0.58223	1.06945
0.07220	0.63582
-0.38683	0.94191
0.30171	0.55929
0.09770	0.04914
-0.20832	-0.79262
-0.97337	-0.79262
-0.36133	-0.94566
0.93925	-0.66508
0.76074	0.96742
0.48022	0.27871
-0.08081	-0.02739
0.27621	-1.58336
0.14870	-0.05289
-0.00431	1.27351
0.17421	0.83988
0.07220	1.27351
-0.15732	1.24800
0.42922	1.06945
0.30171	0.25320
-0.08081	-0.20594
-0.28482	-1.02219
-0.02981	-0.12942
0.48022	-0.58856
0.48022	-0.33348
0.04670	-0.66508
-0.15732	0.02363
-0.05531	-0.05289
0.81175	0.71234
0.88825	1.24800
0.02119	0.12566
-0.38683	0.20219
0.17421	0.58480
0.07220	-0.48652
0.22521	0.48277
-0.13181	0.20219
-0.13181	-0.02739
0.19971	-0.53754
0.73524	-0.25695
0.19971	0.04914
0.04670	0.20219
-0.05531	1.19699
-0.59084	0.63582
0.42922	0.86539
-0.00431	-0.00188
0.12320	0.45726
-0.00431	0.53379
0.04670	-1.25176
0.55673	-2.57816
1.01576	-0.30797
0.32721	0.89089
0.07220	1.06945
0.25071	1.24800
0.12320	0.76336
-0.20832	0.61031
-0.36133	-0.25695
-0.23382	-0.69059
-0.08081	-1.12422
0.40372	0.30422
0.63323	0.58480
0.37822	1.19699
-0.02981	-0.30797
0.32721	-0.63957
0.35272	-0.10391
0.42922	-0.12942
-0.36133	-0.25695
-0.53984	0.48277
-0.02981	0.76336
0.48022	0.68683
0.63323	0.83988
0.35272	0.91640
-0.10631	0.71234
0.02119	0.10015
0.42922	-0.07840
0.04670	-0.35899
-0.23382	-2.17003
0.22521	-0.12942
0.09770	-0.38449
0.55673	0.07465
0.55673	0.96742
-0.15732	-0.02739
0.07220	0.48277
0.04670	0.89089
0.27621	1.50308
0.12320	-0.58856
0.17421	-1.04770
-0.38683	-0.43551
-0.31033	0.12566
0.60773	0.30422
0.58223	0.45726
0.14870	-0.12942
0.27621	1.14597
0.78624	1.93671
0.09770	0.12566
-0.41233	0.22769
-0.23382	-1.17523
-0.25932	-2.19554
0.07220	0.27871
0.65874	0.66132
0.63323	1.17148
0.19971	0.53379
0.19971	0.55929
-0.05531	0.58480
-0.05531	0.22769
0.37822	-0.20594
0.09770	-1.25176
-0.28482	-1.40480
-0.05531	-0.02739
0.55673	1.06945
0.22521	0.73785
-0.08081	0.68683
0.02119	0.07465
0.42922	-0.07840
0.55673	0.55929
0.14870	0.50828
-0.43783	-0.63957
-0.51434	-0.46102
0.02119	-0.05289
1.06676	-0.84363
0.68424	0.58480
0.32721	1.17148
-0.33583	1.40105
-0.08081	0.76336
0.09770	-1.14973
0.35272	-0.28246
0.17421	0.43176
-0.56534	0.45726
-0.28482	0.55929
0.76074	-0.00188
0.81175	0.04914
0.25071	0.04914
-0.31033	0.40625
0.07220	0.12566
0.19971	-0.00188
0.55673	-0.15492
-0.48884	-1.20074
-0.33583	-0.71609
-0.08081	-0.41000
0.42922	0.30422
0.63323	1.17148
0.37822	0.96742
0.22521	1.40105
0.02119	0.78886
0.40372	1.06945
-0.13181	-1.96597
-0.18282	-1.14973
-0.56534	0.04914
-0.20832	0.48277
0.63323	0.73785
0.58223	0.61031
0.60773	0.66132
0.27621	0.43176
-0.05531	0.12566
0.42922	0.22769
0.32721	-0.38449
0.27621	-0.35899
-0.53984	-0.20594
0.02119	-0.00188
0.93925	0.35523
0.42922	0.38074
-0.20832	0.86539
-0.28482	0.53379
0.32721	-0.25695
0.50573	-0.74160
0.14870	-0.18043
-0.10631	0.15117
-0.61635	-0.25695
-0.33583	-0.00188
0.53123	-0.05289
0.07220	0.35523
0.37822	0.61031
0.19971	1.09496
0.37822	1.27351
0.45472	0.96742
0.14870	-1.78742
0.37822	-0.02739
0.25071	0.12566
-0.25932	-0.15492
0.02119	0.27871
0.27621	-0.05289
0.40372	0.32972
0.07220	0.50828
-0.08081	-0.18043
0.42922	0.35523
0.25071	-0.46102
-0.05531	-0.81812
-0.36133	-0.05289
-0.31033	-0.38449
0.63323	0.73785
0.30171	0.99292
0.19971	0.76336
0.35272	0.53379
0.12320	0.50828
-0.00431	-0.00188
0.22521	-0.61406
-0.25932	-0.92016
-0.13181	-0.86914
0.07220	0.02363
0.76074	1.04394
0.48022	1.29902
0.42922	0.58480
0.07220	0.50828
0.30171	0.73785
0.07220	-0.18043
-0.15732	-0.99668
-0.00431	-0.84363
-0.48884	-0.23145
0.09770	-0.46102
0.83725	0.76336
0.50573	1.24800
0.22521	0.89089
-0.13181	0.66132
-0.13181	-0.56305
0.48022	0.50828
0.32721	0.15117
-0.31033	-1.48133
-0.31033	-1.32828
-0.02981	0.15117
1.09226	1.17148
0.14870	1.01843
-0.02981	1.04394
0.07220	0.96742
0.19971	-0.02739
0.14870	-0.99668
-0.18282	-0.86914
0.32721	-0.25695
-0.36133	0.45726
-0.20832	-0.12942
0.60773	0.96742
0.76074	0.83988
0.19971	0.55929
-0.02981	0.40625
-0.05531	0.27871
0.12320	-1.07320
-0.02981	-1.40480
0.02119	-0.02739
-0.15732	0.89089
0.14870	0.76336
0.50573	0.96742
0.37822	0.66132
0.07220	0.38074
-0.00431	-0.02739
-0.08081	-0.41000
0.60773	0.07465
0.17421	-0.05289
0.04670	-0.15492
-0.28482	-0.02739
-0.15732	-0.38449
0.73524	-0.07840
0.35272	-0.05289
0.58223	0.94191
-0.10631	-0.05289
0.25071	1.01843
0.14870	0.30422
0.12320	0.58480
-0.08081	0.76336
-0.43783	0.38074
0.27621	-0.18043
0.78624	-0.79262
0.30171	-1.02219
0.12320	0.30422
0.12320	0.35523
0.04670	0.86539
0.22521	0.48277
0.50573	0.35523
0.45472	-0.30797
-0.10631	-0.86914
-0.02981	0.73785
0.27621	0.40625
0.35272	0.68683
-0.08081	-1.96597
-0.31033	0.17668
-0.02981	1.12046
0.45472	1.52859
0.35272	1.01843
-0.00431	0.12566
-0.28482	-0.25695
-0.15732	-1.55785
0.50573	-1.17523
0.73524	0.04914
0.68424	0.53379
0.17421	-0.30797
0.27621	0.61031
0.22521	1.14597
-0.00431	0.78886
-0.25932	0.83988
-0.10631	0.50828
-0.00431	-0.15492
0.48022	-0.48652
0.19971	-0.56305
0.14870	-0.07840
0.04670	-0.30797
0.04670	-0.35899
0.32721	0.40625
0.73524	1.12046
0.17421	0.48277
-0.43783	-0.10391
-0.02981	0.30422
0.14870	0.12566
0.53123	0.10015
0.30171	-0.20594
-0.10631	-0.46102
0.35272	0.96742
0.22521	1.06945
-0.00431	-0.25695
0.02119	-0.76711
-0.23382	-0.20594
0.17421	1.12046
0.53123	0.63582
0.76074	0.94191
0.17421	0.35523
-0.25932	-0.38449
-0.20832	0.12566
0.17421	0.43176
0.30171	0.17668
-0.02981	0.07465
-0.00431	-0.89465
0.09770	-0.84363
0.55673	0.12566
0.19971	0.25320
-0.02981	0.66132
0.02119	0.53379
0.42922	0.94191
0.30171	-0.05289
0.09770	-0.94566
0.32721	0.53379
-0.61635	0.66132
-0.13181	-0.18043
0.60773	-0.35899
0.27621	0.22769
0.22521	0.32972
-0.13181	0.63582
0.17421	0.63582
0.42922	0.32972
0.40372	-0.10391
-0.10631	-0.23145
0.04670	0.04914
0.07220	0.10015
-0.05531	0.58480
0.32721	-0.05289
0.53123	0.32972
0.09770	-0.05289
0.32721	0.07465
0.07220	0.30422
0.17421	-0.25695
0.30171	-0.46102
-0.33583	0.07465
-0.38683	0.07465
0.32721	0.25320
0.37822	0.71234
0.17421	0.86539
0.37822	0.27871
-0.18282	-0.00188
0.12320	-0.02739
0.32721	0.22769
0.12320	-0.07840
-0.20832	0.20219
-0.05531	0.17668
0.60773	0.58480
0.91375	0.48277
0.12320	-0.51203
-0.02981	-0.53754
0.17421	-0.30797
-0.00431	-0.35899
0.12320	0.40625
0.22521	0.55929
-0.38683	0.45726
-0.25932	0.73785
0.35272	0.35523
0.68424	0.22769
0.14870	-0.12942
-0.08081	-0.02739
0.17421	-0.28246
0.58223	0.25320
0.30171	0.20219
0.19971	0.17668
-0.23382	0.15117
-0.18282	0.20219
0.19971	0.35523
0.76074	0.35523
0.19971	-1.07320
-0.02981	0.02363
-0.15732	0.20219
0.22521	0.20219
0.25071	0.99292
0.07220	1.60511
-0.46334	0.61031
-0.36133	-0.76711
0.63323	-2.01699
0.45472	0.68683
0.35272	0.61031
-0.08081	0.12566
0.12320	0.76336
0.42922	1.01843
0.40372	0.48277
-0.08081	0.12566
-0.41233	-0.51203
-0.05531	-0.33348
0.35272	-0.56305
0.68424	0.15117
0.25071	0.50828
0.22521	0.66132
0.19971	-0.41000
0.32721	0.38074
0.12320	0.73785
-0.25932	0.12566
-0.48884	-0.63957
-0.59084	-0.25695
0.22521	0.48277
0.60773	0.71234
0.68424	-0.00188
0.55673	0.27871
0.12320	0.66132
0.19971	0.66132
0.22521	-0.00188
-0.00431	-0.15492
-0.28482	-0.05289
0.02119	-0.12942
0.35272	0.22769
0.45472	0.30422
0.30171	0.27871
0.27621	0.25320
-0.08081	-0.05289
0.07220	-0.20594
0.22521	-0.18043
-0.05531	-1.17523
-0.10631	0.02363
-0.31033	0.38074
0.32721	1.19699
0.55673	1.40105
0.12320	0.66132
-0.18282	-0.05289
0.17421	-0.20594
0.53123	0.22769
0.32721	0.40625
0.17421	0.10015
-0.36133	-0.51203
-0.02981	-1.30277
0.40372	0.22769
0.45472	0.86539
0.09770	-1.25176
-0.02981	-0.81812
0.22521	1.40105
0.27621	0.96742
0.30171	1.04394
0.32721	0.40625
-0.20832	0.30422
-0.71835	-0.30797
0.12320	0.04914
0.42922	0.40625
0.22521	0.10015
0.32721	-0.48652
0.42922	-0.12942
0.53123	0.53379
0.37822	0.55929
0.04670	0.27871
-0.48884	-0.86914
-0.33583	-0.66508
0.22521	-0.12942
0.30171	0.45726
0.19971	0.94191
0.04670	0.71234
0.48022	0.32972
0.53123	-0.07840
0.17421	0.07465
-0.15732	0.43176
-0.08081	0.94191
0.04670	0.25320
0.53123	-1.07320
0.09770	-1.14973
-0.28482	-0.61406
0.09770	0.30422
0.40372	0.55929
0.35272	1.06945
0.22521	1.06945
0.12320	0.96742
-0.20832	0.22769
-0.02981	-0.05289
0.40372	-0.20594
0.55673	0.10015
-0.02981	-1.09871
-0.33583	-0.10391
0.12320	0.35523
0.27621	0.35523
0.07220	0.12566
0.09770	0.17668
-0.08081	-0.00188
-0.00431	-0.66508
0.50573	-0.81812
0.76074	0.63582
0.35272	0.86539
-0.08081	1.14597
0.14870	1.06945
0.22521	0.38074
0.02119	-0.18043
-0.08081	-0.07840
-0.18282	-0.30797
-0.15732	-0.81812
0.35272	0.22769
0.81175	0.94191
-0.08081	-0.92016
0.12320	-0.46102
0.02119	0.86539
0.27621	1.01843
0.12320	0.58480
-0.23382	-0.53754
0.04670	0.45726
0.02119	-0.02739
0.04670	-0.07840
0.60773	0.35523
0.50573	0.12566
0.19971	0.40625
0.07220	0.48277
0.04670	-0.02739
-0.18282	-0.07840
-0.23382	-0.38449
-0.05531	-0.10391
-0.10631	-0.51203
0.17421	0.04914
0.68424	0.55929
0.27621	0.61031
-0.02981	0.50828
0.09770	0.40625
0.27621	-0.07840
0.17421	0.04914
0.12320	0.12566
-0.33583	-0.10391
0.02119	0.12566
0.65874	0.27871
0.50573	0.71234
-0.00431	0.76336
0.14870	0.15117
0.07220	0.07465
0.09770	-0.51203
0.17421	-0.18043
-0.08081	-0.15492
-0.08081	-0.00188
-0.08081	-0.43551
0.63323	0.66132
0.45472	1.12046
0.27621	0.07465
0.02119	-0.61406
0.14870	0.66132
-0.02981	0.30422
0.12320	0.38074
0.04670	0.58480
0.12320	-0.46102
-0.08081	-0.00188
0.35272	0.32972
0.53123	0.53379
0.45472	0.53379
0.02119	0.40625
-0.02981	-0.71609
0.12320	-1.04770
0.09770	-0.35899
0.04670	0.50828
-0.13181	0.35523
-0.23382	0.15117
0.12320	0.35523
0.60773	0.73785
0.35272	0.48277
-0.05531	0.38074
0.02119	0.20219
0.32721	-0.10391
0.55673	-0.02739
0.12320	0.12566
-0.10631	-0.05289
-0.48884	-1.48133
0.22521	0.02363
0.53123	0.53379
0.19971	0.66132
-0.05531	0.99292
0.19971	0.50828
0.19971	-0.00188
0.27621	-0.56305
0.12320	0.02363
-0.05531	0.71234
-0.13181	-0.46102
0.35272	-0.30797
0.50573	0.76336
0.45472	0.73785
-0.13181	-0.51203
-0.02981	0.35523
0.50573	0.73785
0.73524	0.58480
-0.00431	0.12566
-0.23382	-0.94566
-0.59084	-1.50683
-0.02981	-0.53754
0.22521	0.83988
0.30171	0.89089
0.12320	0.71234
0.48022	1.04394
0.63323	0.66132
0.17421	-0.35899
-0.02981	0.04914
-0.20832	-0.81812
-0.20832	-0.86914
0.35272	0.50828
0.50573	0.86539
-0.02981	0.78886
0.12320	0.40625
0.17421	0.12566
0.32721	-0.23145
0.32721	-0.35899
0.37822	0.40625
-0.08081	0.43176
-0.18282	0.22769
0.17421	-0.02739
-0.00431	-1.37929
0.12320	-1.17523
0.35272	0.73785
0.14870	1.06945
0.09770	0.96742
0.32721	0.78886
0.35272	0.66132
-0.28482	0.20219
-0.36133	-0.41000
0.22521	-0.18043
0.30171	-1.12422
0.55673	-0.41000
0.14870	0.81437
0.19971	0.81437
0.07220	0.32972
0.45472	-0.00188
0.02119	0.40625
-0.08081	0.15117
-0.23382	0.35523
0.27621	0.50828
0.35272	-0.63957
0.45472	-1.12422
0.53123	-0.46102
-0.15732	0.81437
-0.08081	0.76336
0.14870	0.63582
0.04670	0.63582
0.12320	0.20219
-0.28482	0.35523
0.07220	-0.66508
0.63323	-0.18043
0.22521	0.45726
-0.25932	-1.48133
0.32721	0.83988
0.32721	1.12046
0.19971	0.76336
-0.00431	0.53379
-0.13181	0.10015
-0.02981	-0.05289
0.40372	0.10015
0.19971	-0.00188
-0.02981	-0.28246
0.04670	-0.05289
0.14870	0.04914
0.22521	0.15117
0.27621	0.20219
0.19971	0.07465
0.04670	-0.05289
0.19971	-0.30797
0.35272	0.30422
0.22521	-0.10391
-0.43783	-0.25695
-0.23382	0.40625
0.42922	1.27351
0.42922	0.86539
0.30171	0.20219
0.27621	0.27871
-0.10631	-0.15492
-0.08081	-0.61406
0.07220	-0.33348
0.42922	0.04914
0.37822	0.66132
0.30171	0.73785
0.27621	0.71234
0.35272	-0.00188
-0.00431	-0.23145
-0.10631	-0.05289
-0.13181	-0.48652
-0.13181	-1.45582
0.35272	0.12566
0.53123	0.94191
0.19971	0.91640
0.04670	0.66132
0.30171	0.61031
0.09770	0.15117
0.17421	-0.15492
-0.05531	-0.18043
-0.38683	-0.07840
-0.43783	-0.00188
0.37822	-0.15492
0.73524	0.32972
0.48022	0.02363
0.17421	0.25320
-0.02981	0.32972
-0.02981	-0.10391
0.12320	0.30422
0.30171	0.40625
0.12320	0.48277
-0.15732	-0.05289
0.27621	0.15117
0.42922	0.15117
-0.05531	0.25320
0.07220	-0.12942
0.09770	0.02363
0.32721	-0.23145
0.42922	-0.18043
0.12320	0.68683
-0.43783	0.20219
0.04670	0.25320
0.40372	0.35523
0.45472	0.83988
0.25071	0.73785
-0.13181	-0.89465
-0.13181	-1.12422
-0.08081	-0.35899
0.22521	0.61031
-0.00431	0.76336
0.09770	0.89089
0.35272	0.50828
0.63323	0.20219
0.12320	0.12566
0.25071	-0.38449
-0.05531	-0.43551
-0.02981	0.20219
0.07220	-0.23145
0.27621	0.27871
-0.13181	0.25320
-0.23382	0.22769
0.09770	0.27871
0.27621	0.17668
0.35272	-0.30797
-0.08081	-0.05289
-0.20832	-0.51203
0.37822	-0.07840
0.17421	0.45726
0.53123	0.96742
0.32721	0.78886
-0.08081	-0.05289
-0.08081	-0.25695
0.04670	-0.38449
0.09770	0.12566
0.12320	0.30422
0.27621	0.66132
0.07220	0.40625
0.17421	-0.00188
0.35272	-0.25695
0.17421	0.12566
-0.18282	-0.12942
-0.10631	-1.07320
0.25071	-0.71609
0.45472	0.71234
0.42922	1.37554
0.12320	0.71234
0.02119	0.83988
-0.10631	0.43176
0.27621	0.17668
0.32721	0.32972
-0.31033	-0.35899
-0.38683	-0.51203
0.37822	-0.43551
0.73524	0.12566
0.32721	0.17668
0.02119	0.25320
0.07220	0.38074
0.17421	0.02363
0.30171	0.40625
0.14870	-0.00188
-0.28482	-0.38449
-0.36133	-0.35899
0.19971	-0.18043
0.60773	0.76336
0.32721	0.96742
-0.05531	0.61031
0.07220	0.35523
0.50573	-0.12942
0.42922	0.43176
-0.00431	-0.30797
-0.13181	-1.20074
-0.23382	-1.14973
0.17421	0.89089
0.40372	1.40105
0.27621	0.81437
0.14870	0.89089
-0.13181	-0.30797
0.04670	-0.30797
0.45472	0.22769
0.17421	0.07465
-0.08081	-0.20594
-0.00431	-0.30797
0.14870	0.07465
0.32721	0.45726
0.35272	0.50828
0.02119	0.25320
-0.02981	0.17668
0.02119	-0.05289
0.32721	0.15117
-0.20832	0.17668
-0.18282	-0.15492
-0.08081	-0.41000
0.30171	-0.94566
0.58223	0.76336
0.32721	0.58480
0.17421	0.53379
-0.15732	0.04914
0.19971	0.25320
0.32721	1.04394
0.12320	0.45726
-0.13181	-0.18043
-0.33583	0.04914
0.25071	0.04914
0.58223	0.27871
0.22521	0.27871
-0.08081	0.55929
-0.02981	0.55929
0.55673	-0.43551
0.48022	-1.07320
0.22521	0.22769
-0.28482	0.27871
-0.13181	0.30422
0.32721	0.61031
0.37822	0.12566
0.07220	0.15117
-0.10631	0.27871
-0.13181	0.38074
0.42922	-0.00188
0.55673	-0.35899
0.12320	-0.51203
-0.08081	-0.41000
-0.02981	-0.35899
0.27621	1.06945
0.30171	1.68163
0.19971	0.45726
0.07220	0.25320
0.17421	0.38074
-0.00431	0.12566
-0.05531	-1.32828
0.02119	-0.28246
0.09770	0.30422
-0.13181	0.43176
0.40372	0.45726
0.68424	0.20219
0.25071	0.10015
0.02119	0.30422
0.02119	-0.20594
0.22521	0.15117
0.40372	0.10015
0.19971	0.22769
-0.05531	-0.20594
-0.18282	0.02363
0.12320	0.32972
0.60773	0.66132
0.19971	0.02363
-0.43783	-0.53754
-0.25932	0.25320
0.27621	-0.25695
0.19971	0.48277
0.45472	0.61031
0.09770	-0.00188
-0.20832	0.27871
0.12320	0.04914
0.50573	0.30422
0.22521	0.53379
0.22521	0.55929
-0.18282	0.58480
-0.00431	-0.35899
0.32721	-0.15492
0.12320	-0.46102
-0.02981	-0.18043
0.07220	0.25320
0.22521	0.53379
0.30171	0.76336
0.37822	0.40625
0.17421	-0.00188
0.32721	-0.81812
0.17421	-0.10391
0.04670	0.04914
-0.10631	0.04914
-0.33583	-0.10391
-0.23382	0.38074
0.12320	0.40625
0.25071	0.22769
0.07220	-0.20594
0.22521	0.35523
0.07220	0.45726
0.30171	-0.18043
0.50573	0.50828
-0.10631	0.38074
-0.18282	-0.02739
-0.25932	-0.30797
0.04670	-1.17523
0.32721	0.86539
0.14870	0.76336
0.12320	0.43176
0.04670	-0.12942
-0.02981	-0.10391
0.40372	-0.92016
0.25071	0.50828
-0.15732	0.99292
-0.18282	0.66132
0.27621	0.68683
0.58223	0.35523
0.14870	-0.10391
0.02119	-0.48652
0.09770	0.10015
0.30171	0.53379
0.32721	0.17668
0.07220	-0.05289
-0.00431	-0.35899
-0.15732	-0.15492
-0.05531	0.35523
0.48022	-0.30797
-0.00431	0.02363
-0.02981	0.15117
0.27621	0.58480
0.27621	0.61031
0.19971	0.35523
0.09770	0.20219
0.02119	0.10015
0.19971	0.22769
-0.00431	-0.20594
0.17421	-0.02739
0.17421	-0.20594
-0.13181	0.15117
0.30171	0.43176
0.37822	0.20219
0.35272	0.45726
0.07220	0.50828
-0.28482	0.27871
-0.18282	-0.10391
0.12320	0.30422
0.55673	0.27871
0.30171	-0.23145
0.14870	-0.94566
0.07220	0.35523
0.04670	0.55929
0.30171	0.35523
0.17421	0.35523
-0.08081	-0.07840
-0.08081	0.17668
-0.00431	-0.10391
0.30171	0.50828
0.19971	0.32972
0.17421	-0.02739
0.12320	0.20219
0.30171	-0.05289
0.50573	0.02363
0.37822	-0.10391
-0.00431	-1.43031
-0.08081	0.27871
-0.20832	0.86539
0.07220	0.99292
0.07220	0.86539
0.14870	0.43176
0.27621	0.20219
0.30171	0.43176
0.12320	-0.15492
-0.02981	0.17668
-0.23382	-0.12942
-0.20832	-0.48652
0.12320	-0.76711
0.68424	-0.02739
0.30171	0.55929
0.45472	0.76336
0.12320	0.68683
-0.02981	0.22769
-0.08081	-0.07840
0.30171	0.12566
0.32721	-0.10391
-0.25932	-0.48652
0.12320	0.22769
0.37822	0.58480
-0.15732	0.55929
-0.20832	-0.35899
0.02119	0.53379
0.17421	0.32972
0.35272	-0.15492
0.17421	-0.97117
0.02119	-0.28246
-0.05531	0.55929
0.25071	1.12046
0.40372	0.94191
0.12320	-0.05289
0.19971	0.27871
0.12320	0.32972
0.04670	0.32972
0.19971	0.20219
-0.08081	-0.15492
-0.13181	-0.12942
0.07220	-0.69059
0.04670	-1.02219
0.27621	-0.66508
0.37822	0.55929
0.55673	1.14597
-0.10631	0.94191
0.30171	0.63582
0.22521	0.50828
0.07220	-0.00188
-0.15732	-1.07320
-0.38683	-0.38449
0.07220	0.17668
0.53123	0.94191
0.30171	1.01843
0.12320	0.78886
0.14870	0.61031
0.12320	0.35523
0.27621	-0.25695
-0.08081	-1.17523
-0.25932	-0.66508
-0.18282	-0.05289
0.19971	0.25320
0.93925	0.71234
0.48022	-0.15492
-0.00431	0.30422
-0.00431	0.43176
0.07220	0.68683
0.22521	0.30422
0.02119	0.20219
-0.18282	-0.66508
0.07220	0.07465
0.02119	-0.28246
0.35272	0.30422
0.42922	-0.86914
0.22521	0.40625
0.04670	0.81437
-0.10631	0.71234
0.30171	0.73785
0.19971	0.45726
-0.10631	-0.02739
-0.13181	-0.18043
-0.10631	-0.23145
0.50573	0.22769
0.37822	0.12566
0.17421	-0.28246
0.14870	0.25320
0.09770	-0.02739
0.32721	0.38074
0.14870	0.15117
0.14870	0.27871
-0.64185	0.12566
-0.10631	-0.02739
0.60773	-0.05289
0.50573	0.45726
0.42922	0.38074
0.09770	0.66132
0.02119	-0.00188
0.02119	-0.28246
-0.31033	-0.84363
-0.05531	0.22769
-0.18282	0.48277
-0.02981	0.35523
0.55673	0.55929
0.48022	0.55929
0.09770	0.17668
0.14870	0.38074
0.02119	0.30422
0.27621	-0.23145
0.17421	-0.25695
-0.13181	-0.71609
0.07220	0.07465
0.30171	0.45726
0.60773	0.48277
0.27621	0.45726
0.09770	0.25320
-0.00431	-0.07840
0.14870	-0.10391
0.42922	-0.00188
0.02119	0.22769
-0.53984	0.61031
-0.33583	-0.07840
0.12320	0.48277
0.70974	0.71234
0.50573	0.40625
0.17421	0.45726
-0.00431	0.12566
0.22521	-0.05289
0.40372	-0.33348
-0.10631	0.02363
-0.36133	0.07465
-0.08081	-0.02739
0.09770	-0.15492
0.78624	0.10015
0.32721	0.17668
-0.13181	0.20219
0.09770	0.20219
0.17421	0.40625
0.02119	0.22769
0.14870	0.12566
0.19971	-0.43551
-0.36133	-0.86914
0.14870	0.53379
0.63323	1.17148
0.25071	0.45726
0.09770	-0.33348
0.07220	0.17668
0.17421	-0.25695
0.40372	0.17668
0.04670	0.38074
-0.13181	0.66132
0.02119	0.22769
0.12320	-0.30797
0.19971	-0.23145
0.12320	-0.10391
0.22521	0.15117
-0.00431	0.66132
0.27621	0.38074
0.12320	-0.05289
0.02119	-0.35899
0.02119	0.27871
-0.15732	-0.23145
0.07220	0.17668
0.40372	0.61031
0.48022	0.38074
-0.18282	0.35523
-0.20832	-0.12942
0.07220	-0.10391
0.60773	-0.46102
0.55673	0.10015
0.14870	0.38074
-0.18282	0.30422
-0.28482	0.43176
0.04670	0.32972
0.09770	0.07465
0.12320	0.12566
0.12320	0.22769
0.25071	0.22769
0.32721	0.07465
0.09770	0.17668
-0.13181	-0.02739
-0.02981	-0.15492
0.30171	0.25320
0.48022	0.43176
0.30171	0.45726
0.07220	-0.07840
0.14870	-0.02739
-0.08081	0.17668
0.19971	0.27871
0.02119	-0.10391
-0.25932	-0.79262
-0.28482	0.07465
0.40372	0.83988
0.60773	0.76336
0.19971	-0.02739
-0.00431	0.45726
-0.00431	0.48277
0.22521	0.40625
0.35272	-0.71609
0.12320	0.12566
-0.00431	-0.20594
-0.41233	0.35523
-0.25932	0.35523
0.70974	0.58480
0.42922	0.35523
0.27621	-1.02219
0.02119	-0.07840
0.32721	0.25320
0.73524	1.04394
0.17421	0.66132
-0.53984	-0.43551
-0.53984	-1.25176
0.07220	-0.97117
0.70974	1.06945
-0.02981	0.76336
0.04670	1.24800
0.07220	1.22250
0.22521	0.43176
0.22521	-0.20594
0.09770	-0.00188
0.09770	-0.38449
-0.20832	-0.79262
0.50573	-0.18043
0.63323	0.10015
0.22521	0.66132
-0.05531	0.81437
-0.08081	0.76336
-0.05531	-0.48652
0.27621	-0.51203
-0.13181	-1.20074
0.07220	-0.35899
-0.02981	0.20219
0.30171	1.40105
0.32721	1.42656
0.14870	0.76336
0.02119	0.22769
0.02119	0.17668
0.30171	0.25320
0.65874	-0.07840
0.14870	-0.35899
-0.20832	-0.51203
-0.38683	-0.35899
-0.28482	-0.25695
0.25071	0.40625
0.42922	0.53379
0.17421	0.45726
0.17421	0.43176
0.19971	-0.23145
0.58223	-0.51203
0.30171	-0.35899
0.07220	1.06945
-0.46334	0.50828
0.04670	0.17668
0.48022	-0.02739
0.12320	-0.25695
0.14870	0.43176
0.09770	0.43176
0.09770	0.48277
0.17421	0.15117
0.09770	0.40625
-0.18282	-0.15492
-0.10631	-0.20594
-0.02981	-0.25695
0.65874	-0.00188
0.22521	0.35523
0.19971	0.22769
0.17421	-0.43551
-0.05531	-0.05289
0.12320	0.32972
0.22521	0.63582
0.02119	0.30422
-0.13181	-0.28246
0.37822	-0.15492
0.42922	-0.15492
0.17421	0.35523
0.17421	1.06945
-0.10631	0.38074
-0.28482	0.27871
0.17421	-0.69059
0.30171	0.12566
0.32721	0.32972
0.07220	0.15117
-0.05531	-0.35899
0.50573	-0.12942
0.17421	0.71234
0.25071	0.55929
0.14870	-0.05289
0.17421	0.10015
0.07220	0.15117
0.09770	0.30422
0.17421	-0.07840
-0.10631	-0.38449
-0.05531	-0.33348
0.32721	0.04914
0.25071	0.30422
-0.05531	0.25320
-0.15732	0.32972
0.07220	0.40625
0.63323	0.48277
0.30171	0.15117
-0.00431	-0.33348
-0.28482	-0.28246
0.19971	-0.07840
0.58223	0.27871
0.22521	0.66132
0.09770	0.07465
-0.02981	0.07465
0.27621	0.53379
0.40372	-0.15492
0.07220	0.66132
-0.20832	0.45726
-0.43783	-0.12942
0.14870	-0.15492
0.50573	-0.38449
0.17421	0.43176
0.04670	0.35523
0.12320	0.50828
0.25071	-0.10391
0.12320	-0.35899
0.17421	-0.05289
-0.18282	0.12566
-0.15732	0.35523
0.22521	0.02363
0.58223	0.38074
0.14870	0.22769
-0.05531	-1.09871
0.07220	0.45726
0.27621	0.81437
0.37822	0.32972
0.09770	0.55929
-0.08081	0.02363
-0.02981	-0.35899
0.12320	0.17668
0.35272	0.32972
0.17421	-0.07840
0.17421	0.25320
-0.00431	0.45726
0.19971	0.15117
0.27621	-0.20594
-0.00431	-0.35899
0.07220	-0.02739
-0.23382	-0.00188
0.04670	0.17668
0.42922	0.40625
0.19971	0.20219
0.14870	0.27871
-0.13181	0.76336
0.14870	0.45726
0.53123	0.07465
0.07220	-0.25695
0.04670	-0.46102
-0.20832	-0.30797
-0.02981	0.91640
0.35272	0.55929
0.17421	0.35523
0.09770	-0.28246
0.25071	-0.30797
0.40372	0.61031
0.40372	0.35523
0.27621	0.48277
-0.10631	0.30422
-0.31033	-0.61406
-0.08081	-0.79262
0.48022	0.27871
0.25071	0.43176
0.02119	0.55929
-0.02981	0.55929
0.17421	0.45726
0.32721	-0.18043
-0.00431	-0.30797
-0.10631	-0.25695
-0.33583	-0.66508
0.12320	-0.38449
0.65874	0.71234
0.45472	0.89089
0.07220	0.76336
0.07220	0.48277
0.12320	0.25320
0.42922	-0.10391
0.19971	0.15117
-0.18282	-0.38449
-0.38683	-0.05289
0.14870	-0.56305
0.68424	0.32972
0.19971	0.94191
0.02119	0.30422
-0.02981	0.43176
0.02119	0.25320
-0.08081	-0.00188
0.17421	-0.66508
0.09770	0.02363
-0.13181	0.12566
0.02119	0.32972
0.58223	0.40625
0.48022	0.40625
0.27621	0.35523
0.07220	0.32972
0.02119	-0.07840
0.27621	-0.10391
0.09770	-0.18043
0.12320	0.04914
-0.28482	-0.18043
0.04670	0.43176
0.45472	0.68683
0.14870	0.61031
0.12320	-0.02739
-0.25932	-0.35899
0.02119	-0.48652
0.30171	0.73785
0.19971	0.58480
0.07220	-0.12942
0.07220	0.25320
0.22521	-0.48652
0.53123	0.99292
0.14870	0.83988
-0.00431	0.58480
0.09770	0.40625
-0.00431	0.02363
0.25071	-0.43551
-0.18282	-0.58856
-0.13181	-0.51203
-0.25932	-0.25695
0.22521	0.20219
0.78624	0.38074
0.32721	0.50828
-0.10631	0.32972
0.07220	0.53379
0.30171	0.45726
0.42922	0.10015
0.25071	0.17668
-0.15732	-0.46102
-0.46334	-1.17523
-0.02981	0.25320
0.58223	1.01843
0.30171	0.71234
0.27621	0.66132
0.07220	-0.43551
0.09770	0.55929
0.27621	0.45726
0.09770	-0.46102
-0.18282	-0.33348
-0.28482	-0.35899
0.12320	0.04914
0.70974	1.14597
0.40372	0.32972
0.25071	0.63582
-0.00431	0.53379
-0.20832	0.17668
0.22521	-0.18043
0.27621	-0.25695
0.07220	0.12566
-0.28482	-1.35379
-0.13181	0.07465
0.73524	0.35523
0.55673	0.40625
0.22521	0.66132
0.02119	0.94191
-0.02981	0.43176
0.07220	0.07465
-0.15732	-0.18043
-0.23382	-0.00188
-0.23382	0.02363
0.25071	0.17668
0.60773	0.22769
0.32721	0.10015
0.12320	-0.00188
0.14870	0.35523
0.22521	0.45726
0.35272	0.15117
-0.00431	-0.38449
-0.38683	-0.00188
-0.41233	-0.02739
0.25071	0.22769
0.53123	-0.07840
0.02119	-1.20074
0.25071	0.91640
0.22521	1.09496
0.12320	1.96222
0.32721	-0.25695
0.22521	0.04914
-0.08081	-1.02219
-0.25932	-0.53754
-0.18282	-0.28246
0.50573	0.71234
0.37822	1.01843
0.53123	0.89089
0.02119	0.45726
-0.05531	-0.15492
0.19971	-0.63957
0.19971	-0.30797
0.09770	-0.35899
-0.31033	-0.41000
-0.15732	-0.15492
0.35272	0.53379
0.17421	0.35523
-0.05531	0.32972
0.12320	0.38074
0.19971	0.22769
0.32721	-0.18043
0.12320	0.38074
-0.02981	-0.05289
0.04670	0.04914
-0.02981	0.40625
0.63323	0.40625
0.22521	0.12566
0.17421	-0.58856
0.09770	0.43176
-0.18282	0.71234
0.27621	0.45726
-0.00431	-0.94566
-0.15732	-0.61406
-0.18282	0.35523
0.27621	0.89089
0.63323	1.14597
0.14870	0.78886
0.14870	-0.02739
0.07220	0.02363
0.02119	-0.00188
0.07220	-0.58856
0.12320	-0.25695
0.04670	-0.33348
-0.20832	-0.10391
0.19971	0.25320
0.70974	0.32972
0.35272	0.35523
0.07220	0.27871
0.09770	0.53379
0.12320	0.40625
0.35272	0.07465
-0.15732	-0.28246
-0.15732	-0.15492
-0.15732	-0.07840
-0.00431	0.66132
0.76074	0.81437
0.40372	0.40625
0.14870	-0.05289
-0.00431	0.04914
0.02119	0.27871
0.09770	0.07465
0.07220	0.17668
0.19971	0.22769
-0.13181	0.04914
-0.05531	-0.28246
0.53123	-1.12422
0.30171	-0.51203
0.25071	0.83988
-0.00431	1.06945
0.14870	0.81437
0.30171	0.45726
0.12320	-0.07840
0.12320	0.10015
-0.18282	-0.00188
0.09770	-0.07840
0.32721	-0.02739
0.35272	-0.15492
0.07220	-0.23145
0.09770	0.25320
0.02119	0.40625
0.17421	-0.05289
0.12320	0.55929
0.12320	0.15117
-0.18282	0.22769
0.04670	0.20219
0.37822	-0.12942
0.30171	0.43176
0.17421	0.22769
0.04670	0.73785
-0.00431	-0.15492
0.40372	0.02363
-0.02981	-0.02739
-0.08081	0.02363
-0.18282	-0.02739
-0.00431	0.25320
0.81175	-0.10391
0.30171	0.10015
0.09770	-0.15492
0.04670	0.40625
0.04670	0.76336
0.22521	0.10015
0.30171	0.10015
0.02119	-0.10391
-0.13181	-0.28246
-0.02981	0.27871
0.53123	0.32972
0.14870	0.53379
0.17421	0.25320
-0.00431	0.12566
0.12320	-0.53754
0.19971	0.20219
0.25071	0.40625
0.14870	0.35523
-0.36133	-0.56305
-0.02981	-0.05289
0.40372	0.83988
0.19971	0.76336
0.17421	0.61031
0.02119	-0.53754
0.04670	-0.12942
0.53123	-0.35899
0.37822	0.27871
0.02119	0.73785
-0.33583	0.25320
-0.08081	0.38074
0.30171	-0.15492
0.17421	0.40625
0.17421	0.45726
0.09770	0.17668
0.02119	-0.76711
0.58223	-0.48652
0.32721	0.20219
0.04670	0.27871
-0.20832	0.02363
-0.18282	0.35523
0.35272	0.66132
0.22521	0.32972
0.19971	0.15117
0.02119	0.15117
0.04670	0.38074
0.32721	-0.02739
0.17421	0.04914
-0.02981	-0.35899
-0.48884	-0.25695
0.25071	0.35523
0.63323	0.20219
0.22521	0.22769
-0.00431	-0.23145
0.12320	0.27871
0.27621	0.94191
0.42922	0.86539
0.14870	0.25320
0.02119	-0.15492
-0.20832	-0.35899
0.07220	-0.12942
0.53123	0.32972
0.12320	0.40625
-0.08081	-0.48652
-0.23382	0.02363
0.12320	0.38074
0.37822	0.30422
0.17421	0.27871
-0.05531	-0.02739
-0.31033	-0.28246
-0.02981	0.15117
0.60773	-0.15492
0.63323	0.63582
0.35272	0.58480
0.02119	0.22769
0.09770	0.27871
0.25071	-0.79262
-0.05531	-0.02739
-0.18282	0.25320
-0.38683	0.35523
0.09770	0.17668
0.58223	0.30422
0.58223	0.20219
0.37822	0.12566
-0.20832	-0.05289
0.04670	0.04914
0.27621	0.35523
0.04670	0.10015
-0.15732	0.10015
-0.43783	-0.23145
-0.08081	0.30422
0.63323	0.10015
0.48022	-0.00188
0.14870	-0.56305
0.02119	0.66132
0.19971	0.55929
0.53123	0.53379
0.09770	0.53379
-0.18282	-0.33348
-0.43783	0.15117
-0.00431	-0.48652
0.50573	0.02363
0.25071	-0.02739
0.22521	0.71234
0.02119	-0.41000
0.27621	0.73785
0.42922	0.22769
0.27621	0.32972
-0.02981	0.20219
-0.23382	-0.20594
0.12320	-0.20594
0.73524	0.27871
0.17421	0.17668
-0.15732	0.30422
-0.05531	0.30422
0.04670	0.20219
0.37822	0.43176
0.19971	0.22769
-0.02981	-0.41000
-0.18282	-0.71609
-0.08081	-0.76711
0.42922	0.55929
0.25071	1.01843
0.35272	0.30422
0.30171	0.78886
-0.02981	0.78886
0.35272	-0.12942
-0.05531	0.04914
-0.10631	-0.86914
-0.23382	-0.23145
0.12320	0.58480
0.70974	0.89089
0.53123	1.27351
0.14870	-0.28246
-0.18282	-0.02739
-0.15732	-0.00188
0.30171	-0.28246
0.25071	-0.20594
0.04670	-0.10391
-0.38683	0.15117
-0.13181	0.30422
0.73524	0.58480
0.58223	0.55929
0.17421	0.30422
-0.02981	0.20219
-0.05531	-0.18043
0.14870	-0.20594
-0.18282	-0.00188
-0.00431	0.07465
-0.00431	0.02363
0.19971	0.02363
0.63323	0.27871
0.32721	0.53379
0.14870	0.20219
-0.08081	0.43176
-0.05531	0.25320
0.48022	0.07465
0.17421	-0.12942
-0.20832	-1.09871
-0.28482	0.07465
0.04670	-0.07840
0.65874	0.71234
0.14870	1.06945
0.14870	0.76336
-0.05531	0.27871
0.17421	0.50828
0.58223	0.22769
0.07220	-0.33348
-0.10631	-0.84363
-0.38683	-0.43551
0.07220	0.12566
0.88825	0.45726
0.30171	0.55929
-0.10631	0.22769
-0.31033	-0.25695
0.02119	-0.07840
0.48022	0.17668
0.48022	-0.15492
0.09770	0.66132
-0.20832	0.55929
-0.00431	0.22769
0.53123	0.02363
0.22521	0.22769
-0.13181	-0.05289
-0.15732	0.30422
-0.00431	-0.33348
0.30171	0.38074
0.17421	0.38074
-0.18282	0.22769
-0.08081	0.63582
0.30171	0.27871
1.09226	0.30422
0.35272	-0.46102
0.02119	-0.41000
-0.33583	-1.17523
-0.08081	0.27871
0.42922	0.76336
0.25071	0.61031
-0.05531	0.10015
-0.02981	0.32972
0.07220	-0.02739
0.40372	0.27871
0.32721	0.25320
0.12320	0.07465
-0.13181	-0.15492
0.17421	0.22769
0.22521	0.32972
-0.00431	-0.30797
-0.15732	0.15117
-0.00431	0.38074
0.40372	0.40625
0.60773	-0.00188
0.04670	-0.46102
-0.02981	-0.69059
0.02119	-0.05289
0.14870	0.63582
0.32721	1.06945
0.02119	0.91640
0.14870	0.48277
-0.20832	0.10015
-0.08081	-0.05289
0.70974	0.38074
0.45472	0.04914
0.14870	-0.25695
-0.18282	-0.30797
-0.15732	-0.07840
0.42922	-0.02739
0.22521	-0.18043
-0.02981	0.07465
-0.41233	-0.33348
-0.00431	0.43176
0.83725	0.63582
0.55673	0.86539
0.07220	-0.18043
0.09770	-0.12942
0.27621	-0.07840
0.27621	-1.32828
-0.08081	0.76336
-0.18282	0.94191
-0.15732	0.50828
-0.08081	0.45726
0.53123	0.48277
0.07220	0.53379
0.27621	0.45726
0.04670	0.25320
0.12320	-0.30797
0.02119	-0.48652
0.27621	-0.18043
0.27621	0.17668
-0.18282	-0.05289
-0.10631	-0.20594
0.60773	0.07465
0.17421	0.30422
0.02119	0.40625
0.04670	0.48277
-0.02981	0.27871
0.42922	0.20219
0.04670	0.12566
0.07220	0.12566
-0.38683	-0.12942
-0.10631	-0.43551
0.60773	-0.51203
0.37822	0.25320
0.17421	0.99292
0.14870	1.40105
-0.08081	0.22769
0.22521	0.02363
0.37822	0.71234
-0.00431	-1.43031
-0.20832	-1.83844
0.12320	0.30422
0.65874	0.91640
0.14870	1.24800
0.04670	1.17148
-0.13181	0.94191
-0.08081	0.07465
0.37822	-0.69059
0.30171	-1.53234
-0.23382	-0.43551
-0.23382	0.20219
0.02119	0.25320
0.88825	0.32972
0.58223	0.35523
0.17421	0.45726
-0.28482	0.35523
-0.13181	-0.23145
0.30171	-0.10391
0.07220	0.15117
-0.08081	0.38074
-0.13181	0.12566
0.14870	-0.10391
0.48022	-0.15492
0.27621	0.61031
0.12320	0.48277
0.02119	0.86539
0.09770	0.15117
0.42922	-0.25695
0.12320	-0.84363
0.02119	-0.12942
-0.25932	-0.02739
0.27621	-0.23145
0.60773	0.73785
0.27621	1.01843
0.14870	0.73785
-0.18282	0.38074
0.09770	0.20219
0.30171	0.27871
0.02119	0.35523
0.12320	0.02363
-0.28482	-1.71090
-0.05531	-1.65988
0.93925	0.25320
0.40372	1.01843
0.02119	0.99292
-0.28482	0.83988
0.27621	0.68683
0.76074	0.45726
0.48022	0.25320
-0.20832	-0.18043
-0.51434	-0.71609
-0.28482	-0.38449
0.58223	-0.07840
0.12320	0.43176
-0.10631	0.73785
0.14870	0.48277
0.22521	0.55929
0.53123	-1.37929
0.58223	-0.07840
0.12320	0.63582
-0.43783	0.99292
-0.18282	-0.15492
0.73524	0.12566
0.32721	-0.02739
0.22521	0.66132
-0.05531	0.83988
-0.02981	0.43176
0.27621	-0.07840
0.09770	-0.28246
0.04670	-0.33348
-0.18282	-0.43551
-0.10631	-0.12942
0.58223	0.38074
0.27621	0.32972
0.02119	0.17668
0.07220	0.43176
0.17421	0.66132
0.12320	0.12566
0.14870	-0.02739
0.30171	-0.79262
-0.25932	-0.18043
0.02119	0.20219
0.35272	0.17668
0.25071	0.53379
0.09770	0.91640
-0.23382	1.04394
0.35272	0.94191
0.58223	-0.56305
0.04670	-0.25695
-0.02981	-1.45582
-0.08081	-0.15492
0.17421	0.71234
0.55673	0.58480
-0.10631	0.25320
0.02119	0.50828
0.17421	0.48277
0.22521	0.15117
0.27621	-0.89465
0.07220	-0.15492
0.04670	0.30422
-0.20832	0.35523
0.19971	0.38074
0.58223	0.40625
0.19971	0.17668
-0.00431	0.04914
-0.15732	-0.23145
-0.00431	-0.07840
0.50573	-0.12942
0.12320	-0.25695
0.27621	0.15117
0.19971	0.38074
0.12320	0.89089
0.53123	0.40625
0.27621	0.35523
-0.15732	-0.48652
0.02119	0.27871
0.07220	0.30422
0.35272	0.50828
0.12320	0.83988
-0.36133	0.30422
-0.51434	-0.63957
0.04670	-0.89465
0.65874	-0.18043
0.50573	0.50828
0.19971	0.30422
0.12320	0.55929
0.12320	0.40625
0.25071	0.02363
-0.05531	-0.05289
-0.08081	-0.07840
-0.36133	-0.51203
-0.08081	-0.10391
0.63323	0.48277
0.30171	0.04914
-0.02981	0.04914
0.04670	0.43176
0.19971	0.83988
0.68424	1.01843
0.32721	0.35523
-0.08081	-0.71609
-0.43783	-2.39961
-0.02981	-0.15492
0.65874	0.96742
0.45472	1.37554
0.19971	1.12046
-0.02981	0.53379
0.04670	0.48277
0.42922	0.12566
0.35272	0.25320
-0.28482	-0.33348
-0.51434	-0.69059
-0.02981	-0.48652
0.70974	0.07465
0.73524	0.15117
0.17421	0.25320
-0.18282	0.43176
-0.02981	0.32972
0.50573	0.27871
0.14870	-0.38449
-0.08081	0.07465
-0.51434	-0.10391
-0.00431	0.22769
0.73524	0.71234
0.30171	0.68683
0.17421	0.12566
0.04670	-0.15492
0.02119	-0.63957
0.37822	0.32972
0.12320	0.73785
-0.02981	0.43176
-0.25932	0.25320
0.22521	-0.48652
0.68424	0.53379
0.22521	0.04914
0.09770	-0.10391
-0.10631	0.04914
0.12320	0.53379
0.32721	0.48277
0.25071	0.04914
0.07220	-0.71609
-0.36133	-0.89465
-0.05531	0.04914
0.30171	0.83988
0.30171	0.99292
0.35272	0.91640
0.12320	0.22769
0.12320	-0.51203
0.37822	-0.86914
0.09770	-0.15492
0.04670	0.55929
-0.13181	0.58480
0.12320	0.43176
0.50573	0.27871
0.48022	0.12566
0.12320	0.10015
-0.13181	0.45726
0.02119	0.27871
0.30171	-0.12942
0.07220	-0.15492
0.02119	-0.07840
-0.33583	-0.05289
0.07220	-0.05289
0.60773	0.25320
0.22521	-0.33348
0.27621	0.15117
0.02119	0.76336
-0.02981	-0.02739
0.42922	0.17668
0.12320	0.22769
0.17421	0.38074
-0.08081	0.35523
0.04670	0.45726
0.63323	0.45726
0.35272	0.17668
-0.08081	0.10015
-0.20832	0.27871
0.09770	0.10015
0.55673	-0.61406
0.17421	-0.35899
0.07220	0.10015
-0.46334	0.10015
-0.08081	0.38074
0.68424	-0.07840
0.63323	0.22769
0.02119	-0.00188
-0.15732	0.15117
-0.05531	0.30422
0.37822	0.48277
0.09770	0.48277
0.04670	0.43176
-0.31033	0.02363
0.07220	0.07465
0.73524	-0.05289
0.53123	0.20219
0.25071	0.04914
0.04670	-0.20594
0.02119	0.38074
0.22521	-0.33348
0.25071	0.63582
-0.02981	0.48277
-0.33583	0.17668
-0.02981	-0.18043
0.53123	-1.58336
0.40372	0.32972
0.14870	1.01843
-0.02981	1.04394
0.22521	0.81437
0.35272	0.10015
0.07220	-0.38449
-0.08081	-0.20594
-0.41233	-0.05289
-0.13181	-0.05289
0.45472	0.07465
0.50573	0.22769
0.53123	0.45726
0.22521	0.30422
-0.08081	0.04914
0.30171	0.10015
0.07220	0.17668
0.09770	0.22769
-0.38683	-0.28246
0.04670	-0.56305
0.73524	0.07465
0.30171	0.48277
-0.02981	0.38074
0.02119	0.27871
-0.00431	0.50828
0.22521	0.35523
0.19971	0.32972
-0.02981	-0.02739
-0.02981	-0.30797
0.07220	-0.51203
0.73524	0.71234
0.42922	-0.63957
0.17421	-0.05289
-0.13181	0.94191
-0.00431	1.14597
0.32721	0.61031
-0.05531	0.07465
0.09770	-0.58856
-0.25932	-1.58336
0.09770	0.27871
0.55673	0.32972
0.27621	0.50828
0.17421	0.55929
0.04670	0.58480
0.02119	0.15117
0.25071	-0.25695
-0.02981	-0.48652
0.09770	0.20219
-0.18282	-0.15492
0.02119	0.22769
0.73524	0.91640
0.63323	0.25320
0.25071	0.22769
0.14870	0.48277
-0.28482	-0.38449
0.32721	0.02363
-0.15732	0.27871
-0.20832	-0.10391
-0.13181	-0.61406
0.30171	-0.05289
0.68424	0.38074
0.32721	0.96742
0.40372	0.63582
0.14870	0.63582
0.04670	-0.02739
0.14870	-1.96597
0.19971	0.02363
-0.05531	0.63582
-0.20832	0.55929
-0.15732	0.43176
0.45472	0.48277
0.48022	0.48277
0.40372	0.35523
-0.10631	-0.15492
-0.05531	-0.18043
0.32721	-0.23145
0.22521	0.40625
0.12320	0.20219
-0.33583	-0.25695
-0.05531	-0.23145
0.63323	-0.05289
0.42922	0.71234
0.04670	-0.18043
-0.00431	0.55929
0.07220	0.83988
0.53123	-0.12942
0.12320	0.35523
-0.00431	-0.58856
-0.28482	-0.33348
0.07220	0.25320
0.58223	0.78886
0.32721	0.68683
0.07220	-0.07840
-0.20832	0.43176
0.07220	0.07465
0.27621	-0.10391
0.40372	-0.02739
-0.23382	-0.28246
-0.48884	-0.12942
0.09770	0.07465
0.86275	0.48277
0.45472	0.43176
0.02119	0.27871
-0.15732	-0.05289
0.02119	0.30422
0.40372	0.27871
0.25071	0.30422
0.19971	-0.53754
-0.02981	-0.76711
0.22521	0.53379
0.55673	0.20219
0.12320	0.50828
0.07220	0.53379
-0.05531	0.04914
-0.05531	0.71234
0.19971	0.35523
0.22521	0.43176
-0.00431	-0.10391
-0.23382	-0.35899
0.07220	-0.84363
0.76074	0.45726
0.35272	0.30422
0.40372	0.58480
-0.02981	0.76336
-0.08081	0.35523
0.27621	-0.18043
0.07220	-0.02739
-0.02981	-0.02739
-0.33583	-0.28246
-0.05531	-0.25695
0.83725	0.35523
0.76074	0.10015
0.09770	-0.18043
-0.28482	-0.00188
0.09770	0.30422
0.32721	0.66132
0.09770	0.68683
-0.13181	0.27871
-0.36133	-0.41000
0.09770	0.15117
0.73524	-0.28246
0.30171	0.53379
0.30171	0.22769
0.07220	0.53379
0.07220	0.43176
0.32721	-0.15492
0.27621	-0.12942
0.32721	0.07465
-0.20832	-0.28246
-0.08081	-1.17523
0.42922	0.20219
0.42922	1.01843
0.12320	0.96742
-0.25932	0.86539
-0.02981	0.55929
0.42922	-0.02739
0.04670	-0.30797
-0.02981	-0.30797
-0.13181	0.12566
0.27621	0.38074
0.48022	-0.63957
0.37822	0.12566
0.19971	-0.10391
-0.13181	0.15117
0.25071	0.20219
1.04126	0.63582
0.25071	0.43176
-0.02981	0.38074
-0.51434	0.04914
-0.33583	0.04914
0.30171	0.22769
0.27621	0.15117
0.19971	0.17668
0.09770	0.07465
0.19971	0.10015
0.65874	-0.18043
0.14870	0.20219
-0.15732	0.02363
-0.08081	0.02363
-0.25932	-0.76711
0.50573	0.10015
0.42922	0.71234
0.45472	1.01843
0.17421	0.94191
0.14870	0.12566
0.22521	-0.38449
0.02119	-0.61406
0.04670	-0.15492
-0.31033	0.17668
-0.02981	0.53379
0.63323	0.63582
0.45472	0.76336
0.07220	0.61031
-0.23382	0.43176
0.17421	-0.28246
0.48022	-0.51203
0.19971	-0.35899
-0.02981	-1.04770
-0.33583	0.02363
0.07220	0.55929
0.58223	0.53379
0.50573	0.12566
0.60773	0.10015
0.14870	0.63582
-0.10631	0.17668
0.09770	0.50828
-0.23382	0.35523
-0.23382	-0.30797
-0.33583	-0.58856
-0.15732	-0.15492
0.53123	0.66132
0.55673	0.55929
0.68424	0.86539
0.37822	0.30422
0.17421	0.04914
0.22521	-0.30797
-0.05531	-0.48652
-0.15732	-0.25695
-0.28482	0.02363
0.09770	0.63582
0.50573	0.40625
0.32721	0.86539
0.53123	-0.69059
0.02119	0.10015
-0.18282	-0.51203
0.17421	0.10015
0.19971	0.04914
0.07220	0.61031
-0.13181	1.06945
0.07220	0.96742
0.55673	-0.81812
0.40372	-0.10391
0.04670	-0.89465
-0.15732	0.15117
0.37822	0.45726
0.32721	0.71234
0.19971	0.68683
-0.10631	0.63582
-0.23382	0.02363
0.17421	-0.02739
0.65874	-0.69059
0.37822	-0.92016
0.14870	0.20219
-0.33583	0.45726
-0.13181	0.76336
0.30171	0.27871
0.19971	-0.05289
0.27621	0.15117
-0.13181	0.15117
0.14870	0.04914
0.58223	0.32972
0.35272	0.12566
0.22521	-0.41000
-0.20832	-0.07840
0.12320	0.76336
0.45472	0.68683
0.42922	0.50828
-0.15732	-0.48652
-0.33583	-0.10391
-0.02981	0.10015
0.60773	-0.05289
0.35272	0.22769
0.17421	0.71234
-0.20832	0.12566
0.19971	0.12566
0.50573	0.71234
0.07220	0.27871
-0.15732	-0.74160
-0.46334	-2.50164
0.14870	0.35523
0.68424	1.17148
0.48022	1.47757
0.07220	1.09496
-0.10631	0.61031
0.17421	0.04914
0.42922	-0.30797
-0.00431	-0.23145
0.07220	-0.20594
-0.02981	-0.15492
0.02119	-0.48652
0.32721	0.27871
0.45472	0.30422
0.42922	0.76336
-0.13181	0.40625
0.02119	0.35523
0.25071	0.04914
-0.15732	-0.07840
0.02119	-0.38449
0.02119	-0.02739
0.25071	0.35523
0.70974	0.48277
0.48022	0.86539
0.19971	0.76336
-0.23382	-0.33348
-0.08081	-0.15492
0.35272	-0.12942
0.17421	-0.00188
-0.08081	-0.10391
-0.25932	-0.10391
-0.08081	0.30422
0.68424	0.55929
0.60773	0.83988
0.09770	0.30422
0.04670	0.17668
0.12320	-0.53754
0.35272	-0.25695
0.19971	0.35523
0.02119	0.15117
-0.38683	-0.58856
-0.02981	-0.43551
0.68424	1.04394
0.32721	1.14597
0.30171	0.61031
-0.02981	0.32972
-0.02981	-0.15492
0.32721	0.10015
0.32721	0.30422
0.14870	-0.28246
-0.20832	-0.23145
0.17421	0.22769
0.55673	0.15117
0.22521	0.35523
0.04670	0.38074
0.14870	-0.58856
0.12320	0.02363
0.55673	0.12566
0.14870	-0.05289
-0.05531	0.35523
-0.38683	0.10015
0.04670	0.25320
0.50573	0.50828
0.37822	0.53379
0.17421	0.35523
-0.15732	-0.30797
0.35272	0.43176
0.40372	-0.38449
0.02119	-0.74160
-0.10631	-0.25695
-0.33583	0.25320
0.07220	0.45726
0.73524	0.35523
0.50573	0.71234
0.37822	0.76336
-0.00431	0.43176
0.02119	0.02363
0.19971	-0.20594
0.17421	0.12566
-0.05531	-0.25695
-0.41233	-0.76711
-0.00431	-0.12942
0.55673	0.43176
0.60773	0.71234
0.35272	0.66132
-0.02981	0.35523
0.12320	0.40625
0.42922	0.07465
0.25071	-0.28246
-0.48884	-0.66508
-0.48884	-0.89465
0.17421	0.30422
0.53123	0.86539
0.19971	0.83988
0.30171	0.58480
0.12320	0.22769
0.45472	0.53379
0.45472	-0.05289
-0.10631	0.15117
-0.25932	-0.71609
-0.53984	-0.46102
-0.02981	0.22769
0.60773	0.17668
0.48022	0.12566
0.55673	0.89089
0.09770	0.76336
-0.02981	0.50828
0.32721	-0.12942
0.22521	-0.20594
0.09770	0.02363
-0.18282	-0.05289
0.19971	-0.23145
0.48022	-0.53754
0.22521	0.04914
0.04670	0.32972
-0.20832	0.45726
0.17421	0.53379
0.32721	0.45726
-0.02981	0.30422
-0.13181	-0.25695
-0.15732	-0.71609
0.25071	-0.18043
0.88825	0.30422
0.35272	0.68683
0.04670	0.45726
-0.23382	0.55929
-0.08081	0.38074
0.63323	-0.05289
0.19971	-0.02739
-0.05531	-0.12942
-0.33583	-0.05289
0.02119	0.04914
0.63323	-0.00188
0.30171	0.53379
0.12320	-0.18043
-0.10631	0.58480
