0.07220	0.20219
0.35272	0.02363
0.12320	-0.07840
-0.08081	-0.07840
-0.25932	-0.00188
-0.08081	0.27871
0.50573	0.35523
0.40372	0.22769
0.25071	0.32972
0.09770	0.25320
0.14870	-0.00188
0.32721	0.20219
0.27621	0.12566
0.07220	-0.10391
-0.28482	-0.10391
-0.05531	0.22769
0.48022	0.50828
0.42922	0.22769
0.07220	-0.12942
-0.02981	0.38074
0.14870	0.12566
0.27621	0.10015
0.07220	0.02363
-0.02981	-0.07840
-0.18282	-0.00188
0.02119	0.20219
0.53123	0.45726
0.45472	0.30422
0.22521	0.25320
-0.05531	0.22769
0.02119	0.07465
0.27621	0.04914
0.22521	0.04914
-0.00431	-0.10391
-0.31033	-0.02739
-0.13181	0.20219
0.48022	0.40625
0.53123	0.25320
0.22521	0.20219
-0.02981	0.27871
-0.02981	0.10015
0.27621	0.12566
0.22521	0.02363
0.07220	-0.07840
-0.15732	-0.15492
-0.10631	0.22769
0.42922	0.55929
0.50573	0.32972
0.22521	0.15117
-0.05531	0.17668
0.12320	0.12566
0.40372	-0.00188
0.17421	-0.05289
-0.10631	-0.05289
-0.25932	0.02363
-0.02981	0.25320
0.45472	0.27871
0.42922	0.17668
0.19971	0.30422
0.07220	0.35523
0.17421	0.17668
0.32721	-0.02739
0.07220	0.02363
-0.02981	-0.05289
-0.28482	-0.00188
-0.05531	0.27871
0.50573	0.38074
0.53123	0.17668
0.22521	0.22769
0.02119	0.25320
0.07220	0.25320
0.35272	0.10015
0.22521	0.02363
0.07220	-0.07840
-0.18282	-0.18043
-0.18282	0.20219
0.37822	0.35523
0.50573	0.25320
0.30171	0.32972
-0.00431	0.27871
0.12320	0.04914
0.22521	-0.05289
0.19971	-0.00188
0.12320	-0.00188
-0.13181	0.04914
-0.00431	0.20219
0.37822	0.40625
0.37822	0.27871
0.09770	0.10015
-0.13181	0.20219
0.12320	0.02363
0.30171	0.02363
0.22521	0.02363
0.12320	-0.02739
-0.18282	0.02363
-0.05531	0.25320
0.42922	0.32972
0.32721	0.20219
0.09770	0.20219
0.02119	0.25320
0.12320	0.12566
0.32721	0.07465
0.25071	0.02363
0.07220	-0.05289
-0.18282	0.04914
-0.05531	0.25320
0.40372	0.32972
0.40372	0.15117
0.12320	0.22769
0.04670	0.25320
0.12320	0.15117
0.22521	0.04914
0.14870	0.02363
-0.08081	-0.18043
-0.15732	-0.07840
-0.00431	0.30422
0.53123	0.45726
0.53123	0.25320
0.25071	0.22769
0.04670	0.22769
0.12320	0.10015
0.32721	0.02363
0.12320	0.10015
0.04670	-0.10391
-0.28482	-0.02739
-0.13181	0.12566
0.35272	0.35523
0.42922	0.30422
0.25071	0.25320
0.04670	0.25320
0.14870	0.20219
0.37822	0.07465
0.14870	0.02363
-0.00431	-0.18043
-0.25932	-0.10391
-0.15732	0.15117
0.37822	0.32972
0.50573	0.25320
0.22521	0.30422
0.07220	0.32972
0.17421	0.15117
0.30171	0.02363
0.19971	-0.05289
0.02119	-0.07840
-0.18282	0.02363
-0.00431	0.17668
0.45472	0.32972
0.37822	0.17668
0.12320	0.25320
0.02119	0.32972
0.09770	0.17668
0.32721	0.04914
0.17421	-0.05289
0.02119	-0.05289
-0.18282	-0.00188
0.02119	0.30422
0.45472	0.40625
0.50573	0.22769
0.17421	0.17668
0.07220	0.27871
0.22521	0.12566
0.27621	0.10015
0.09770	0.04914
0.02119	-0.15492
-0.23382	-0.02739
-0.08081	0.25320
0.37822	0.40625
0.45472	0.20219
0.19971	0.27871
0.04670	0.32972
0.17421	0.17668
0.40372	-0.02739
0.22521	-0.00188
-0.00431	0.04914
-0.20832	-0.00188
-0.02981	0.25320
0.40372	0.27871
0.40372	0.15117
0.19971	0.25320
0.07220	0.35523
0.12320	0.15117
0.19971	-0.00188
0.22521	0.02363
0.14870	-0.07840
-0.08081	0.04914
-0.00431	0.27871
0.32721	0.32972
0.37822	0.20219
0.17421	0.20219
-0.00431	0.20219
0.07220	0.10015
0.27621	0.12566
0.27621	0.04914
0.09770	-0.05289
-0.15732	-0.12942
-0.15732	0.17668
0.42922	0.40625
0.55673	0.32972
0.27621	0.27871
0.02119	0.22769
0.12320	0.07465
0.22521	0.02363
0.19971	0.04914
0.04670	0.02363
-0.15732	0.04914
-0.00431	0.20219
0.35272	0.30422
0.32721	0.25320
0.14870	0.17668
0.04670	0.25320
0.22521	0.12566
0.32721	0.10015
0.27621	0.07465
0.02119	-0.00188
-0.25932	-0.07840
-0.23382	0.22769
0.37822	0.38074
0.70974	0.40625
0.40372	0.22769
0.09770	0.25320
0.02119	0.04914
0.09770	-0.02739
0.04670	0.04914
0.12320	-0.18043
-0.36133	-0.18043
-0.10631	0.25320
0.50573	0.45726
0.42922	0.27871
0.27621	0.20219
0.07220	0.17668
0.17421	0.10015
0.30171	0.02363
0.12320	0.10015
-0.00431	-0.00188
-0.15732	0.10015
0.09770	0.40625
0.48022	0.35523
0.32721	0.30422
0.19971	0.07465
0.12320	0.35523
0.14870	0.12566
0.19971	-0.00188
0.22521	-0.18043
-0.31033	-0.12942
-0.33583	-0.18043
-0.08081	-0.15492
0.53123	0.25320
0.63323	0.66132
0.22521	0.76336
-0.05531	0.63582
0.09770	0.32972
0.02119	0.17668
0.19971	-0.02739
0.12320	-0.51203
-0.23382	-0.46102
0.07220	0.20219
0.30171	0.45726
0.42922	0.12566
0.42922	0.35523
0.35272	0.53379
0.42922	0.43176
0.45472	0.15117
0.22521	-0.07840
-0.36133	-0.35899
-0.53984	0.04914
-0.56534	0.07465
0.12320	0.27871
0.50573	-0.23145
0.17421	-0.05289
0.04670	-0.05289
0.04670	0.30422
0.37822	0.45726
0.42922	0.68683
0.32721	0.32972
-0.10631	-0.18043
0.12320	0.12566
0.48022	0.38074
0.27621	-0.02739
0.17421	0.04914
0.04670	0.35523
0.09770	0.20219
0.40372	0.17668
0.09770	0.38074
-0.02981	-0.43551
-0.33583	-0.43551
-0.18282	-0.18043
0.45472	0.12566
0.42922	0.38074
0.27621	0.32972
0.17421	0.94191
0.07220	0.73785
0.32721	0.35523
-0.00431	-0.02739
-0.20832	-0.05289
-0.20832	-0.07840
0.22521	-0.07840
0.70974	0.22769
0.55673	-0.30797
0.25071	-0.46102
-0.13181	-0.28246
0.07220	-0.28246
-0.31033	0.55929
0.07220	0.89089
0.19971	0.32972
-0.18282	0.45726
-0.05531	-0.46102
0.17421	0.35523
0.63323	0.45726
0.45472	0.38074
0.19971	0.55929
0.27621	0.45726
0.48022	-0.58856
0.17421	0.04914
0.04670	-0.25695
-0.31033	0.22769
0.02119	0.66132
0.45472	0.30422
0.37822	0.04914
0.02119	-0.10391
-0.15732	-0.25695
0.12320	-0.23145
0.40372	0.10015
-0.02981	0.10015
-0.23382	0.38074
-0.02981	0.32972
-0.05531	0.27871
0.60773	0.40625
0.37822	0.15117
0.17421	-0.56305
0.07220	0.50828
-0.02981	0.71234
0.37822	0.35523
0.32721	0.25320
0.19971	-0.94566
-0.36133	-0.25695
-0.46334	0.50828
0.09770	0.58480
0.58223	-0.10391
0.65874	-0.00188
0.32721	-0.23145
0.04670	0.38074
0.30171	0.53379
0.02119	0.07465
-0.51434	-0.30797
-0.33583	-0.05289
0.02119	-0.48652
0.53123	0.27871
0.58223	0.78886
0.30171	0.53379
-0.08081	0.78886
0.40372	0.78886
0.42922	0.78886
0.50573	-0.15492
-0.10631	-0.66508
-0.33583	-1.32828
-0.38683	-0.12942
0.93925	-0.00188
0.17421	0.43176
-0.02981	0.53379
-0.08081	0.30422
0.02119	0.81437
0.12320	0.63582
-0.08081	0.55929
0.19971	0.50828
0.60773	-0.07840
0.02119	-0.63957
0.30171	-0.12942
0.40372	0.12566
-0.08081	-0.00188
-0.05531	-0.56305
0.14870	-0.92016
-0.02981	0.61031
0.22521	0.71234
0.30171	0.63582
-0.10631	0.81437
-0.15732	0.22769
0.17421	0.15117
0.25071	-0.35899
0.22521	0.73785
0.14870	0.89089
0.19971	-0.05289
0.58223	-0.46102
-0.28482	-0.58856
-0.18282	-0.41000
-0.05531	-0.35899
0.22521	0.76336
0.45472	1.52859
0.76074	1.09496
0.37822	0.45726
0.02119	0.27871
-0.05531	-0.51203
-0.33583	-0.69059
0.02119	-1.14973
0.19971	-0.25695
-0.20832	0.25320
0.14870	0.58480
0.58223	0.15117
0.30171	0.04914
0.14870	-0.15492
-0.28482	0.66132
0.09770	0.71234
0.55673	0.48277
0.30171	0.55929
0.07220	-0.23145
-0.00431	-0.02739
-0.00431	-1.55785
0.14870	-0.43551
-0.00431	1.01843
-0.08081	0.63582
0.32721	1.35003
-0.10631	0.35523
0.12320	0.22769
0.70974	-0.81812
0.76074	-0.76711
-0.31033	-0.97117
-0.43783	0.63582
-0.00431	0.96742
0.27621	1.47757
-0.00431	1.63062
0.07220	0.91640
0.37822	-0.79262
0.27621	-1.96597
0.27621	-1.17523
-0.28482	0.48277
-0.08081	0.48277
0.30171	0.73785
0.27621	1.47757
0.48022	0.68683
0.63323	0.15117
0.32721	-0.28246
-0.33583	-1.63437
0.02119	-1.48133
-0.00431	0.53379
-0.08081	0.73785
-0.13181	1.24800
0.02119	1.14597
0.48022	0.86539
0.42922	0.63582
0.22521	-0.05289
0.09770	-0.38449
-0.25932	-0.66508
0.02119	0.22769
0.42922	0.10015
0.32721	-0.12942
0.30171	-0.28246
0.63323	-0.15492
0.48022	0.25320
0.22521	-0.02739
-0.13181	-0.56305
-0.38683	-0.00188
-0.25932	0.50828
-0.25932	1.47757
0.30171	1.68163
0.35272	0.66132
0.32721	0.58480
0.14870	0.55929
0.12320	-0.79262
-0.15732	-1.40480
0.27621	-1.27726
0.35272	-0.89465
0.22521	0.86539
0.65874	1.14597
0.30171	0.66132
0.02119	0.53379
-0.43783	0.35523
-0.28482	0.20219
0.27621	0.12566
0.35272	-0.28246
0.17421	0.04914
0.12320	0.04914
-0.05531	0.04914
0.30171	-0.38449
0.48022	-0.84363
0.19971	-0.12942
-0.53984	0.20219
0.22521	0.27871
0.30171	0.63582
0.50573	0.78886
0.45472	-0.25695
-0.08081	0.20219
-0.31033	1.35003
0.04670	0.20219
-0.36133	-1.30277
-0.38683	-0.12942
0.17421	0.73785
0.45472	0.91640
0.73524	0.76336
0.63323	0.63582
0.14870	0.12566
-0.10631	-0.15492
-0.18282	0.20219
-0.05531	-0.18043
-0.05531	-0.07840
0.30171	-1.27726
0.09770	-1.68539
0.42922	0.15117
0.83725	-0.00188
0.50573	1.19699
0.04670	0.35523
-0.36133	0.00000
-0.10631	0.22769
0.17421	0.73785
-0.31033	-0.15492
-0.36133	0.66132
-0.08081	0.68683
0.04670	0.76336
0.27621	0.12566
0.99026	0.20219
0.45472	0.12566
-0.05531	-0.18043
-0.02981	0.10015
0.53123	0.27871
0.55673	0.35523
0.35272	0.35523
0.02119	-0.12942
-0.15732	-0.74160
0.09770	-0.53754
0.09770	-0.00188
0.50573	0.10015
0.14870	0.61031
0.12320	0.99292
0.19971	1.19699
0.12320	0.32972
0.22521	-0.28246
-0.00431	-1.22625
-0.43783	-2.39961
-0.15732	0.25320
0.22521	2.16628
0.17421	1.29902
0.19971	1.24800
0.35272	0.17668
0.40372	-0.81812
0.63323	-0.25695
-0.20832	-0.86914
-0.00431	0.10015
0.12320	1.19699
0.14870	0.40625
-0.08081	0.61031
0.09770	0.04914
0.12320	0.02363
0.14870	0.07465
0.35272	-0.12942
0.48022	0.15117
0.07220	-0.15492
-0.00431	-0.25695
-0.02981	-0.48652
-0.05531	-0.25695
0.30171	-0.12942
0.14870	0.35523
-0.10631	0.30422
0.22521	1.47757
0.35272	1.19699
-0.02981	0.10015
0.27621	0.40625
-0.46334	-0.84363
0.22521	-1.12422
0.40372	-1.25176
0.50573	1.06945
0.27621	1.40105
0.09770	0.81437
0.09770	1.42656
0.07220	0.22769
0.22521	-0.30797
-0.20832	-0.92016
0.07220	-0.94566
0.30171	-0.30797
0.30171	0.55929
0.68424	1.12046
-0.33583	0.66132
-0.08081	0.35523
-0.28482	0.61031
-0.08081	0.20219
0.25071	-0.10391
0.22521	-0.76711
0.22521	-0.51203
-0.08081	-0.48652
0.02119	0.43176
1.04126	1.63062
0.70974	0.91640
0.35272	-1.07320
-0.25932	-1.53234
-0.33583	0.32972
-0.08081	0.63582
-0.02981	0.86539
-0.23382	-0.23145
-0.41233	0.20219
0.14870	0.40625
0.76074	1.17148
0.30171	0.96742
0.25071	0.30422
0.04670	-1.09871
0.22521	-1.04770
0.37822	0.04914
0.09770	0.40625
-0.13181	-0.41000
0.04670	0.45726
0.22521	0.66132
0.93925	1.01843
0.50573	0.58480
-0.33583	-0.41000
0.02119	-0.33348
0.32721	-0.07840
-0.05531	-0.30797
0.02119	-0.28246
-0.28482	0.12566
-0.13181	0.68683
-0.13181	0.53379
0.42922	0.15117
0.27621	0.43176
-0.10631	-0.63957
0.40372	0.35523
0.83725	0.55929
-0.00431	0.22769
-0.31033	-0.76711
-0.08081	0.81437
-0.13181	-0.20594
0.14870	0.07465
0.55673	0.04914
0.42922	0.55929
0.09770	0.48277
-0.05531	0.58480
0.30171	0.55929
0.42922	0.07465
0.19971	0.10015
-0.02981	-0.07840
-0.10631	-0.25695
-0.13181	-0.51203
0.02119	-0.56305
0.17421	-0.63957
0.40372	0.45726
0.27621	0.66132
0.35272	0.55929
0.04670	1.09496
-0.66735	-0.20594
-0.28482	-0.76711
0.45472	-1.12422
0.48022	0.91640
0.48022	1.01843
0.27621	-0.05289
0.19971	0.83988
0.02119	1.32453
-0.18282	0.81437
-0.05531	-0.20594
-0.15732	0.02363
0.09770	-0.15492
0.32721	-0.43551
0.50573	-0.18043
0.55673	0.25320
0.30171	0.20219
-0.20832	0.07465
0.02119	-1.04770
0.27621	0.04914
0.12320	0.38074
-0.02981	0.53379
0.07220	-0.51203
-0.10631	-0.97117
0.27621	0.58480
0.73524	0.76336
0.09770	0.96742
-0.28482	1.24800
-0.08081	0.38074
-0.05531	-0.69059
0.53123	0.12566
0.83725	-0.46102
-0.53984	-0.74160
-0.28482	0.25320
0.27621	1.12046
0.40372	1.04394
0.02119	0.27871
0.22521	0.48277
0.42922	0.04914
0.32721	-0.43551
0.04670	-1.55785
-0.02981	-0.28246
-0.13181	0.35523
-0.10631	0.73785
0.12320	0.68683
0.42922	0.99292
0.58223	0.66132
0.30171	-0.20594
-0.36133	-2.27207
0.17421	-0.63957
0.45472	0.58480
0.07220	0.66132
-0.10631	1.19699
0.02119	0.66132
0.73524	0.91640
0.42922	0.89089
-0.15732	-0.30797
-0.20832	-0.28246
-0.20832	-0.41000
0.19971	-0.07840
-0.00431	-0.25695
0.14870	-0.30797
0.19971	-0.18043
0.02119	0.30422
0.42922	0.76336
0.35272	0.68683
0.14870	0.25320
0.22521	0.15117
0.12320	-0.07840
0.12320	-0.15492
0.22521	0.22769
0.09770	0.10015
-0.18282	0.43176
-0.31033	0.22769
0.22521	-0.33348
0.35272	0.02363
0.50573	0.40625
0.22521	-0.61406
0.04670	0.40625
0.14870	-0.25695
0.32721	0.78886
0.22521	0.94191
-0.61635	0.61031
-0.08081	0.40625
0.32721	-0.07840
0.25071	-0.71609
0.50573	-0.15492
0.27621	0.35523
0.07220	0.35523
0.40372	0.55929
0.14870	-0.41000
-0.10631	0.15117
-0.20832	0.15117
0.07220	-0.43551
0.02119	-0.46102
0.55673	1.12046
0.14870	0.25320
-0.38683	-0.25695
-0.13181	-0.58856
0.25071	0.89089
0.35272	0.22769
0.58223	0.12566
0.25071	0.43176
-0.15732	0.63582
-0.02981	0.40625
0.27621	0.12566
0.42922	0.38074
-0.02981	0.12566
-0.23382	0.07465
0.27621	0.27871
0.30171	-0.38449
-0.00431	-0.20594
-0.23382	-0.92016
0.12320	-0.66508
0.73524	0.22769
0.55673	1.17148
-0.33583	0.89089
-0.23382	0.96742
0.07220	0.89089
0.45472	-0.10391
0.35272	-1.63437
0.12320	-1.60887
-0.33583	0.27871
-0.18282	-0.66508
-0.08081	0.96742
0.63323	1.88570
0.53123	1.65613
-0.08081	0.20219
0.12320	0.61031
0.25071	-0.20594
0.04670	-0.46102
-0.08081	-1.07320
0.02119	-0.05289
-0.08081	0.10015
0.30171	0.66132
0.50573	0.15117
0.22521	0.22769
0.60773	0.66132
-0.08081	0.27871
0.04670	0.50828
-0.23382	-1.86394
-0.18282	-1.32828
-0.28482	0.32972
0.04670	0.76336
0.50573	1.14597
0.73524	1.17148
0.53123	0.94191
0.19971	0.30422
0.07220	-0.33348
0.02119	-0.51203
-0.10631	-0.61406
-0.51434	-0.30797
-0.23382	0.07465
-0.36133	0.68683
0.14870	0.68683
0.73524	0.61031
0.60773	-0.46102
0.27621	-0.61406
0.37822	-0.25695
0.35272	0.55929
0.22521	0.55929
-0.02981	0.94191
-0.28482	0.07465
-0.20832	-0.74160
0.17421	0.04914
0.58223	0.71234
-0.13181	-0.00188
0.02119	0.07465
0.04670	0.30422
0.22521	0.04914
0.45472	-0.15492
0.37822	0.58480
-0.18282	0.63582
-0.28482	-0.38449
0.22521	0.12566
0.65874	0.58480
0.12320	-0.02739
-0.13181	-0.15492
-0.08081	-0.00188
0.27621	-0.56305
0.25071	0.30422
0.32721	0.96742
-0.05531	0.48277
-0.23382	-0.58856
0.02119	-1.02219
0.50573	0.35523
0.09770	0.63582
0.12320	0.04914
-0.13181	0.55929
0.37822	0.27871
0.22521	0.25320
0.07220	0.58480
0.32721	0.66132
-0.00431	-0.35899
0.12320	-0.00188
0.45472	0.35523
0.09770	0.17668
0.09770	0.30422
0.07220	0.38074
0.12320	-0.00188
0.32721	-0.05289
-0.08081	-0.10391
-0.20832	-0.15492
-0.05531	0.20219
0.35272	-0.46102
0.40372	-0.86914
0.30171	-0.20594
-0.05531	0.53379
-0.10631	0.89089
0.42922	0.86539
0.27621	0.20219
0.25071	0.45726
-0.43783	0.20219
0.09770	0.27871
0.17421	0.22769
0.07220	0.45726
-0.00431	-0.25695
0.30171	0.22769
0.09770	0.15117
-0.18282	0.12566
0.60773	-0.43551
0.50573	-1.83844
0.07220	-0.23145
0.12320	0.91640
-0.02981	1.04394
0.27621	0.99292
0.19971	0.83988
0.07220	0.91640
-0.02981	0.32972
0.14870	-0.56305
0.14870	-1.63437
0.07220	0.02363
-0.38683	0.07465
-0.56534	-0.30797
0.32721	0.10015
0.86275	0.94191
0.63323	1.04394
0.50573	0.07465
0.02119	-0.18043
0.19971	-0.02739
-0.05531	-0.28246
-0.48884	0.40625
-0.28482	0.15117
-0.05531	0.48277
0.25071	0.10015
0.50573	0.30422
0.27621	0.30422
0.22521	0.20219
0.07220	-0.99668
0.07220	0.04914
0.07220	-0.05289
0.17421	0.45726
0.12320	0.22769
0.12320	0.17668
0.35272	0.40625
0.48022	0.58480
0.04670	0.35523
0.07220	0.32972
0.09770	0.35523
0.02119	0.04914
0.07220	-0.12942
-0.08081	-1.20074
0.12320	-0.15492
0.02119	-0.05289
0.22521	0.12566
0.30171	0.53379
0.37822	0.53379
0.45472	0.30422
0.40372	0.15117
0.14870	0.30422
-0.00431	-1.02219
-0.28482	-0.00188
-0.18282	0.68683
0.04670	0.81437
-0.00431	0.32972
0.58223	0.66132
0.42922	0.81437
-0.08081	-0.30797
0.02119	0.02363
0.22521	-0.33348
0.25071	-0.20594
0.22521	0.27871
0.12320	-0.66508
-0.23382	-0.58856
-0.08081	0.25320
0.76074	1.04394
0.17421	0.76336
0.17421	0.32972
-0.08081	-0.02739
-0.05531	-0.23145
0.35272	-0.48652
-0.05531	0.02363
-0.18282	0.50828
-0.00431	0.35523
0.19971	0.22769
0.91375	0.50828
0.19971	0.35523
-0.20832	0.25320
-0.13181	0.17668
0.14870	0.04914
-0.08081	-0.48652
0.22521	-0.10391
0.40372	-0.25695
0.02119	-0.48652
0.07220	0.38074
0.37822	0.86539
0.02119	0.30422
0.07220	0.76336
-0.08081	-0.33348
0.22521	0.25320
0.14870	0.12566
0.14870	0.22769
-0.08081	0.02363
-0.28482	-1.37929
0.22521	0.10015
0.88825	1.42656
0.40372	0.91640
0.14870	0.30422
-0.13181	0.15117
0.14870	0.20219
0.19971	-0.02739
-0.00431	-0.48652
-0.23382	-0.43551
-0.20832	-0.43551
0.12320	0.48277
0.76074	0.78886
0.58223	0.35523
0.37822	0.10015
0.02119	0.48277
-0.05531	0.71234
0.22521	-0.30797
-0.02981	-0.56305
-0.51434	0.07465
-0.82036	0.30422
0.12320	0.81437
0.68424	-0.12942
0.22521	-0.48652
0.12320	-0.76711
0.42922	0.99292
0.55673	0.94191
0.35272	0.76336
0.22521	0.02363
-0.02981	-0.18043
-0.18282	0.15117
0.02119	0.22769
0.45472	0.81437
0.07220	0.02363
-0.31033	-0.38449
0.07220	-0.23145
0.09770	-1.20074
0.40372	-0.30797
0.17421	1.12046
0.14870	1.12046
-0.05531	0.35523
0.19971	0.02363
0.25071	-0.20594
0.22521	-0.58856
-0.13181	0.25320
0.19971	0.81437
0.50573	0.63582
0.60773	0.35523
-0.36133	-0.30797
-0.79486	-1.58336
-0.48884	-1.02219
0.09770	0.53379
0.78624	1.17148
0.53123	1.14597
0.27621	0.40625
0.14870	0.17668
0.09770	0.12566
0.53123	-0.00188
0.04670	-0.41000
-0.48884	-0.30797
-0.13181	0.17668
0.40372	0.45726
0.45472	0.73785
0.37822	0.53379
0.14870	0.27871
-0.02981	0.43176
0.14870	-0.20594
0.27621	-2.09351
0.12320	0.25320
-0.36133	0.66132
-0.46334	0.02363
-0.18282	0.30422
0.53123	0.71234
0.50573	0.96742
0.25071	0.76336
-0.00431	0.45726
0.04670	-1.12422
0.45472	-0.76711
0.27621	-0.71609
-0.15732	-0.12942
0.12320	0.83988
0.12320	0.96742
0.25071	0.99292
0.07220	0.55929
0.12320	-0.30797
0.07220	-0.20594
0.09770	0.30422
0.02119	-0.15492
0.02119	-0.25695
-0.08081	-0.76711
-0.38683	-0.56305
0.42922	1.06945
0.86275	1.17148
0.19971	0.25320
-0.05531	-0.28246
0.04670	0.15117
0.58223	-0.23145
0.53123	0.17668
-0.05531	0.63582
-0.25932	0.35523
-0.46334	0.30422
-0.15732	-0.05289
0.42922	0.22769
0.30171	0.27871
0.02119	0.15117
0.02119	0.17668
0.35272	-0.25695
0.60773	0.40625
-0.25932	0.76336
-0.08081	-0.89465
-0.10631	-2.27207
0.07220	-1.25176
0.81175	0.78886
0.27621	1.42656
0.19971	1.50308
0.09770	1.37554
0.30171	1.14597
0.17421	0.40625
-0.48884	-0.94566
0.07220	-0.41000
-0.28482	-0.41000
0.09770	0.38074
0.27621	0.35523
0.42922	0.38074
0.45472	0.07465
0.25071	0.04914
0.25071	0.10015
0.40372	0.10015
-0.10631	0.35523
-0.08081	-0.33348
-0.10631	-0.33348
0.30171	0.48277
0.50573	1.06945
0.04670	-0.35899
-0.20832	-0.23145
-0.08081	-0.20594
0.14870	0.20219
0.37822	0.89089
-0.08081	0.53379
0.48022	0.25320
0.02119	-1.14973
-0.02981	0.58480
0.07220	0.55929
0.07220	0.15117
0.09770	0.53379
0.14870	0.76336
0.32721	0.48277
0.14870	0.04914
0.07220	-0.33348
0.04670	-0.56305
0.25071	-0.10391
0.27621	0.07465
0.50573	0.04914
0.22521	-0.46102
-0.13181	0.30422
-0.23382	0.73785
0.07220	0.68683
0.22521	0.20219
-0.18282	-0.23145
0.09770	-0.18043
-0.00431	-0.15492
0.19971	0.20219
0.42922	0.25320
0.37822	0.58480
0.09770	0.35523
-0.02981	-0.18043
0.25071	0.71234
0.04670	0.25320
-0.00431	-0.48652
0.04670	-0.12942
0.17421	0.45726
0.32721	0.32972
0.30171	-0.43551
0.14870	-0.15492
0.09770	0.35523
-0.10631	0.63582
0.27621	0.40625
0.30171	0.43176
0.32721	0.17668
0.09770	-0.25695
-0.66735	-1.12422
0.02119	0.27871
0.50573	0.66132
0.32721	0.50828
0.19971	0.35523
-0.20832	0.20219
0.02119	0.40625
0.58223	-0.02739
0.32721	-0.00188
-0.38683	-1.50683
-0.20832	-0.05289
-0.05531	0.43176
0.60773	0.76336
0.42922	0.50828
0.30171	-0.15492
0.04670	0.22769
0.14870	0.40625
0.42922	0.04914
-0.25932	-0.18043
-0.08081	0.30422
-0.28482	0.45726
0.22521	0.35523
0.73524	-0.30797
0.32721	-0.12942
0.32721	0.68683
0.02119	0.73785
-0.08081	0.25320
0.14870	-0.71609
-0.08081	-0.20594
0.07220	0.35523
-0.18282	-0.07840
0.14870	0.07465
0.48022	0.71234
0.22521	0.45726
0.12320	0.38074
0.04670	0.30422
0.27621	0.17668
0.09770	0.04914
0.27621	0.04914
-0.08081	-0.35899
-0.10631	-0.61406
0.12320	0.53379
0.32721	0.35523
-0.33583	0.27871
-0.13181	-0.56305
-0.25932	0.22769
0.17421	0.38074
0.50573	0.58480
0.22521	-0.48652
0.22521	0.91640
-0.00431	0.94191
0.17421	0.35523
0.35272	-0.12942
0.17421	-0.46102
-0.10631	-0.41000
-0.00431	0.55929
0.42922	0.76336
0.30171	-0.43551
0.17421	-0.00188
0.04670	-0.12942
-0.18282	0.12566
0.19971	-0.00188
0.17421	0.20219
0.17421	0.20219
0.19971	0.17668
0.22521	0.71234
0.09770	0.17668
0.09770	-0.07840
-0.20832	-0.02739
-0.13181	-0.10391
-0.23382	0.02363
0.02119	0.12566
0.73524	0.73785
0.37822	0.73785
0.19971	-0.48652
-0.02981	-0.35899
0.12320	-0.15492
0.30171	-0.02739
0.12320	0.15117
-0.00431	0.43176
-0.15732	0.25320
0.17421	0.71234
0.42922	0.66132
0.22521	0.81437
0.07220	-0.35899
0.02119	-0.74160
0.22521	-0.25695
0.07220	-0.23145
0.09770	0.32972
-0.20832	-0.25695
-0.38683	0.30422
0.02119	-0.18043
0.60773	0.20219
0.73524	1.04394
0.48022	0.86539
0.12320	0.71234
-0.00431	0.27871
-0.10631	-0.89465
0.02119	-0.02739
0.02119	-0.07840
-0.20832	-0.18043
0.19971	-0.33348
0.81175	0.35523
0.42922	0.30422
0.09770	0.53379
-0.20832	0.20219
-0.08081	0.35523
0.02119	-0.15492
-0.13181	-0.30797
-0.05531	-0.07840
0.19971	0.15117
0.22521	-0.12942
0.68424	0.78886
0.27621	0.81437
-0.05531	0.25320
0.09770	0.07465
0.19971	-0.35899
-0.00431	0.71234
0.12320	-0.38449
-0.08081	0.10015
-0.10631	-0.18043
0.17421	0.53379
0.55673	0.30422
0.19971	-0.99668
0.22521	0.04914
0.04670	0.63582
0.22521	0.73785
0.35272	0.63582
0.19971	0.81437
-0.25932	0.50828
-0.20832	-0.10391
0.09770	-0.41000
0.40372	-0.38449
-0.05531	-0.33348
-0.00431	0.02363
0.25071	0.35523
0.09770	0.07465
0.30171	0.22769
0.19971	0.35523
0.09770	0.20219
-0.20832	0.12566
0.32721	0.27871
0.32721	0.27871
0.07220	0.15117
0.22521	0.50828
0.19971	0.61031
0.22521	0.91640
-0.00431	-1.04770
-0.05531	-1.22625
-0.08081	-0.66508
-0.13181	0.61031
0.30171	1.17148
0.42922	0.50828
0.14870	0.22769
0.19971	0.66132
0.17421	0.58480
0.22521	0.20219
0.32721	0.25320
-0.00431	-0.23145
-0.18282	-0.69059
-0.23382	-0.38449
-0.00431	-0.15492
0.86275	0.53379
0.17421	0.43176
0.25071	0.17668
-0.20832	0.27871
-0.08081	0.38074
0.32721	-0.07840
0.04670	-1.27726
0.25071	-0.35899
0.02119	0.10015
-0.10631	-0.00188
0.40372	0.96742
0.17421	1.47757
0.25071	0.94191
-0.10631	0.81437
-0.08081	0.12566
0.40372	0.25320
0.45472	-0.76711
-0.08081	-0.99668
-0.33583	-0.66508
0.12320	0.55929
0.68424	0.91640
0.53123	0.61031
0.27621	-0.05289
-0.25932	0.45726
0.02119	0.30422
0.12320	-0.25695
0.12320	-1.17523
-0.08081	-0.18043
-0.00431	0.10015
0.07220	0.89089
0.45472	0.63582
0.27621	0.22769
0.22521	0.66132
-0.00431	0.83988
-0.20832	0.10015
0.32721	-0.33348
0.09770	-0.61406
-0.18282	-0.05289
-0.05531	0.40625
0.04670	0.12566
0.70974	0.83988
0.32721	0.30422
0.45472	0.15117
-0.05531	0.50828
-0.05531	-0.20594
0.09770	-0.43551
0.14870	-0.79262
0.25071	0.63582
-0.20832	0.83988
0.02119	0.55929
0.81175	0.43176
0.14870	-0.00188
-0.15732	0.30422
-0.10631	-0.02739
-0.13181	-0.30797
0.12320	0.04914
-0.18282	-0.25695
-0.05531	0.02363
-0.08081	-0.61406
0.30171	-0.02739
0.86275	1.14597
0.55673	0.94191
0.42922	0.50828
-0.08081	-0.07840
0.19971	0.40625
0.27621	0.04914
0.22521	0.22769
-0.08081	0.15117
-0.38683	-0.56305
-0.25932	-1.45582
0.48022	-0.12942
0.19971	0.55929
0.12320	0.89089
-0.02981	1.06945
0.02119	0.83988
0.45472	0.25320
0.30171	-0.58856
-0.08081	-0.35899
-0.31033	-0.25695
0.14870	-0.00188
0.63323	0.32972
0.40372	0.30422
0.17421	0.58480
0.02119	1.06945
0.37822	0.22769
0.42922	-0.63957
-0.08081	-0.20594
-0.33583	0.20219
-0.59084	-0.18043
-0.10631	0.20219
0.53123	0.71234
0.32721	0.76336
0.12320	-0.25695
-0.10631	-1.27726
-0.08081	0.07465
0.32721	0.15117
0.22521	0.53379
0.40372	0.43176
0.09770	0.35523
0.30171	0.53379
0.58223	0.48277
-0.02981	-0.05289
0.17421	0.02363
0.04670	-0.76711
-0.13181	-0.18043
-0.00431	0.07465
0.32721	0.20219
0.09770	0.40625
0.04670	0.58480
0.14870	0.55929
0.53123	0.48277
0.02119	-0.15492
0.09770	-0.25695
0.19971	0.43176
0.22521	0.04914
0.19971	-0.18043
-0.13181	0.40625
-0.13181	0.02363
-0.18282	0.04914
0.22521	0.40625
0.58223	0.73785
-0.00431	0.15117
-0.13181	-0.00188
0.07220	0.12566
0.40372	0.27871
0.35272	-0.28246
-0.02981	-0.66508
-0.00431	-0.46102
0.09770	0.94191
0.22521	0.55929
0.50573	-0.02739
0.14870	0.78886
-0.02981	0.48277
-0.25932	0.04914
-0.18282	-0.18043
0.30171	-0.71609
0.22521	0.15117
0.22521	0.35523
-0.00431	0.40625
-0.05531	0.35523
0.58223	0.61031
0.42922	0.20219
0.09770	0.15117
-0.08081	-0.25695
0.17421	-0.00188
0.22521	-0.84363
-0.02981	0.15117
-0.00431	0.20219
-0.28482	0.35523
0.07220	0.53379
0.50573	0.73785
0.27621	0.30422
0.07220	-0.18043
-0.23382	-0.10391
0.09770	-0.12942
0.42922	0.20219
0.14870	0.35523
-0.05531	-0.66508
-0.13181	0.35523
0.07220	0.25320
0.65874	0.30422
0.45472	0.35523
0.35272	1.12046
0.14870	0.91640
0.04670	0.32972
0.09770	-0.71609
-0.33583	-1.40480
-0.38683	-0.71609
-0.20832	0.17668
0.40372	0.83988
0.42922	1.04394
0.35272	0.58480
0.32721	0.53379
0.07220	0.76336
0.19971	0.76336
0.17421	-0.41000
-0.23382	-1.09871
-0.13181	-1.20074
-0.05531	-0.43551
0.50573	0.45726
0.88825	0.58480
0.19971	0.94191
-0.36133	0.76336
-0.18282	0.71234
-0.10631	0.07465
0.22521	-0.23145
-0.08081	-0.18043
0.02119	-0.48652
-0.08081	0.32972
0.02119	-0.79262
0.81175	0.73785
0.45472	1.01843
0.50573	0.89089
-0.02981	0.07465
0.14870	-0.66508
0.30171	0.48277
-0.08081	-0.02739
-0.18282	-0.00188
-0.31033	-0.94566
-0.13181	-0.43551
0.53123	0.83988
0.25071	0.83988
0.12320	0.73785
0.02119	0.73785
0.04670	0.32972
0.12320	-0.07840
0.19971	-0.15492
0.12320	-0.12942
-0.10631	-0.33348
-0.05531	-0.18043
0.73524	0.38074
0.45472	0.43176
0.02119	0.58480
-0.05531	0.25320
0.02119	0.32972
0.17421	-1.60887
0.04670	-0.38449
-0.36133	-0.71609
-0.31033	0.15117
0.32721	1.52859
0.76074	1.70714
0.32721	1.06945
0.19971	0.63582
0.02119	0.61031
-0.02981	-0.20594
-0.02981	-0.35899
0.02119	-0.15492
-0.15732	-1.40480
-0.43783	-1.27726
-0.10631	0.38074
0.63323	0.81437
0.48022	0.58480
0.32721	0.71234
0.37822	0.25320
0.37822	0.20219
0.27621	0.25320
0.17421	0.17668
-0.18282	-0.66508
-0.56534	-1.27726
-0.25932	-0.12942
0.40372	1.01843
0.48022	1.01843
0.30171	0.86539
0.12320	0.35523
0.02119	0.25320
0.07220	-0.61406
-0.10631	-0.89465
0.25071	0.35523
-0.10631	0.27871
0.25071	-0.05289
0.88825	0.45726
0.17421	0.53379
0.07220	0.63582
0.04670	0.30422
0.02119	0.43176
0.17421	0.20219
0.35272	0.61031
-0.00431	0.20219
-0.46334	-2.80773
-0.28482	-1.68539
0.45472	0.63582
0.19971	1.52859
0.40372	1.63062
-0.10631	0.91640
0.17421	0.40625
0.60773	-0.15492
0.27621	0.04914
-0.18282	-0.15492
-0.38683	-0.00188
-0.08081	-0.20594
0.19971	-0.15492
0.02119	-0.02739
-0.08081	0.25320
-0.10631	-0.20594
0.22521	-0.10391
0.48022	-0.35899
0.25071	-0.02739
-0.05531	0.53379
-0.02981	0.91640
0.37822	0.66132
0.63323	1.19699
0.02119	-0.20594
-0.25932	-0.63957
-0.23382	0.22769
0.12320	0.53379
0.35272	0.22769
0.07220	0.02363
-0.05531	-0.02739
-0.18282	0.40625
0.17421	-0.20594
0.58223	-0.56305
0.22521	-0.86914
-0.02981	0.17668
-0.10631	0.96742
0.02119	0.78886
0.55673	0.30422
0.17421	0.35523
-0.18282	0.25320
-0.05531	-0.05289
0.22521	0.04914
0.86275	-0.12942
0.37822	0.30422
-0.02981	-0.10391
-0.25932	-0.12942
-0.02981	0.15117
0.17421	0.25320
0.14870	0.20219
0.02119	0.15117
0.02119	0.38074
0.22521	0.40625
0.63323	-0.00188
0.25071	-0.25695
0.17421	-0.12942
-0.23382	0.15117
0.02119	0.32972
0.40372	0.81437
0.22521	0.86539
-0.05531	-0.02739
0.02119	-0.92016
0.12320	-0.12942
0.50573	-0.15492
0.02119	0.25320
0.14870	0.66132
-0.25932	0.66132
-0.00431	0.55929
0.22521	0.22769
-0.02981	-0.02739
-0.00431	-0.38449
0.12320	-0.23145
0.37822	0.02363
0.73524	0.27871
0.22521	0.07465
-0.10631	0.04914
-0.15732	-0.15492
0.14870	0.20219
0.35272	0.20219
0.07220	0.58480
0.04670	0.22769
-0.23382	-0.86914
-0.02981	0.58480
0.27621	0.83988
0.07220	0.71234
0.07220	-0.02739
-0.02981	-0.35899
0.17421	0.12566
0.37822	0.89089
0.48022	0.22769
0.02119	0.25320
0.02119	0.02363
0.09770	0.25320
0.53123	0.38074
0.30171	0.12566
0.12320	-0.12942
-0.08081	-0.25695
0.02119	-0.38449
0.12320	-0.58856
-0.02981	0.40625
0.22521	0.25320
-0.13181	0.76336
0.02119	0.43176
0.65874	0.40625
0.37822	-1.88945
-0.10631	-0.23145
-0.23382	0.86539
0.12320	0.96742
0.17421	0.35523
0.04670	0.73785
0.25071	0.61031
-0.02981	0.45726
0.17421	0.20219
0.70974	-0.38449
-0.05531	-0.66508
-0.13181	-0.76711
0.27621	0.43176
0.02119	0.55929
0.45472	0.45726
0.30171	-0.30797
-0.02981	0.25320
-0.23382	0.22769
-0.10631	-0.41000
0.55673	0.71234
0.12320	0.04914
0.09770	0.40625
0.12320	0.22769
0.42922	-0.02739
0.09770	-0.79262
0.12320	-0.00188
-0.08081	0.30422
-0.28482	0.25320
0.02119	0.71234
0.48022	0.73785
0.09770	0.20219
0.30171	0.25320
0.37822	0.38074
0.40372	0.07465
0.30171	-0.12942
-0.15732	0.30422
-0.43783	-0.35899
-0.31033	-0.38449
0.19971	-0.53754
0.45472	0.27871
0.25071	0.12566
0.19971	0.20219
-0.00431	0.04914
-0.00431	0.58480
0.32721	0.91640
0.12320	0.81437
0.14870	-0.00188
0.19971	-0.25695
0.12320	-0.15492
0.37822	0.22769
0.40372	0.15117
0.22521	0.02363
-0.02981	0.61031
-0.15732	0.38074
0.19971	0.43176
0.07220	0.25320
-0.08081	-0.10391
-0.23382	-0.30797
0.14870	-0.20594
0.65874	0.12566
0.25071	0.02363
0.22521	-0.05289
-0.10631	-0.05289
-0.18282	0.30422
0.27621	0.22769
0.25071	0.17668
0.04670	-0.10391
-0.18282	-0.07840
0.07220	0.43176
0.91375	1.29902
0.40372	0.17668
0.02119	-0.69059
-0.33583	0.27871
-0.18282	-0.28246
0.27621	0.73785
0.22521	-0.25695
0.27621	0.63582
-0.05531	0.73785
-0.00431	0.73785
0.58223	0.40625
0.22521	-0.07840
-0.02981	-0.18043
0.09770	0.15117
0.19971	0.04914
0.45472	0.02363
-0.18282	-0.10391
-0.08081	-0.25695
-0.18282	-0.28246
-0.33583	-0.12942
0.58223	0.38074
0.55673	0.35523
0.48022	0.20219
0.04670	-0.10391
-0.02981	0.45726
0.22521	0.43176
-0.00431	0.15117
-0.28482	-0.53754
-0.46334	0.15117
0.14870	0.48277
0.60773	0.20219
0.68424	0.76336
0.37822	0.45726
0.19971	0.66132
0.02119	0.04914
0.02119	0.27871
0.12320	0.27871
0.12320	0.38074
-0.48884	-0.86914
-0.28482	-0.28246
0.50573	0.25320
0.35272	0.25320
0.22521	-0.30797
0.07220	0.38074
0.07220	0.68683
0.42922	0.25320
0.19971	0.40625
0.04670	0.48277
-0.41233	-0.46102
-0.25932	-0.33348
0.63323	0.35523
0.42922	-0.18043
0.14870	0.20219
-0.13181	0.50828
0.07220	0.50828
0.22521	-0.10391
0.22521	0.73785
0.17421	0.30422
-0.56534	-0.46102
-0.20832	-0.56305
0.55673	0.15117
0.37822	0.12566
0.37822	0.81437
0.12320	0.48277
0.22521	0.66132
0.35272	0.30422
0.12320	0.02363
-0.15732	-0.43551
-0.33583	-0.66508
-0.00431	0.25320
0.45472	0.73785
0.32721	0.61031
0.30171	-0.10391
-0.02981	0.02363
-0.02981	0.55929
0.27621	-0.02739
0.25071	0.20219
0.17421	-0.71609
-0.08081	-0.48652
-0.08081	0.15117
0.37822	0.83988
0.27621	1.14597
0.32721	1.01843
-0.02981	0.25320
-0.18282	-0.30797
0.30171	-0.86914
0.12320	-0.07840
0.02119	0.17668
-0.38683	-0.20594
0.07220	0.04914
0.86275	1.04394
0.22521	0.78886
0.14870	0.78886
0.17421	-0.35899
-0.08081	-1.45582
0.17421	-0.02739
0.04670	0.78886
-0.02981	0.71234
0.02119	0.68683
0.02119	-0.46102
0.60773	-0.71609
0.45472	-0.02739
0.19971	0.76336
-0.10631	0.94191
0.02119	0.35523
0.42922	0.20219
0.14870	-0.76711
0.02119	-0.05289
-0.23382	0.02363
0.25071	0.48277
0.53123	0.55929
0.37822	0.45726
0.12320	0.27871
-0.08081	-0.10391
0.04670	0.68683
0.37822	-0.43551
0.17421	-0.99668
0.04670	-1.12422
-0.28482	0.10015
-0.00431	0.91640
0.70974	1.47757
0.25071	1.19699
0.07220	0.43176
-0.00431	-0.41000
0.12320	0.02363
0.17421	-0.18043
0.09770	0.12566
0.07220	-0.18043
-0.23382	0.07465
0.09770	0.12566
0.37822	0.15117
-0.10631	0.32972
0.02119	0.55929
0.37822	0.45726
0.35272	-0.76711
0.02119	-1.09871
-0.13181	-0.30797
0.02119	0.17668
-0.23382	0.32972
0.12320	0.94191
0.68424	0.94191
0.32721	0.63582
0.09770	0.40625
-0.18282	0.07465
-0.00431	0.25320
0.40372	0.17668
0.12320	-0.79262
-0.10631	-1.27726
-0.31033	-0.43551
0.19971	0.43176
1.01576	0.89089
0.48022	0.55929
0.04670	0.17668
-0.13181	0.55929
-0.20832	0.48277
0.22521	-0.28246
-0.08081	0.02363
0.09770	-0.51203
-0.20832	0.25320
0.12320	0.78886
0.48022	0.68683
0.63323	0.61031
0.50573	-0.07840
-0.13181	-0.15492
-0.10631	0.20219
-0.05531	-1.17523
0.12320	-0.63957
0.30171	0.25320
-0.13181	0.91640
0.17421	0.73785
0.63323	0.94191
0.09770	0.12566
0.02119	-0.00188
-0.13181	0.38074
0.04670	0.30422
0.27621	0.12566
0.09770	-0.05289
-0.08081	-0.15492
-0.18282	0.15117
0.04670	-0.05289
0.60773	0.15117
0.37822	0.10015
0.14870	0.10015
0.12320	0.32972
0.19971	0.66132
0.27621	0.27871
-0.05531	-0.05289
-0.02981	-1.50683
-0.13181	0.15117
-0.05531	-0.02739
0.37822	0.71234
0.19971	0.78886
0.40372	0.83988
0.04670	0.15117
-0.02981	0.32972
0.30171	0.81437
0.19971	0.50828
0.04670	-0.23145
-0.43783	-1.09871
-0.38683	-1.22625
0.73524	0.61031
0.37822	0.61031
0.27621	0.17668
0.14870	0.53379
0.09770	0.66132
0.53123	0.50828
0.32721	0.22769
0.12320	-0.25695
-0.53984	-1.09871
0.07220	-0.81812
0.14870	0.35523
0.02119	0.35523
0.25071	0.89089
0.12320	1.35003
0.22521	0.55929
0.27621	-0.12942
0.19971	-0.56305
0.07220	-0.15492
-0.20832	0.04914
-0.08081	0.22769
0.70974	0.25320
0.73524	0.55929
0.14870	0.27871
-0.28482	0.66132
0.02119	-0.07840
0.30171	-1.27726
0.07220	0.17668
-0.31033	0.53379
-0.38683	0.50828
0.07220	-0.28246
0.86275	0.50828
0.42922	0.63582
0.12320	-0.05289
-0.10631	-0.15492
0.07220	0.25320
0.58223	0.02363
0.27621	-0.38449
0.19971	0.30422
-0.33583	0.55929
-0.43783	0.17668
0.32721	-0.20594
0.53123	0.35523
0.25071	0.32972
-0.08081	0.61031
0.04670	0.10015
0.42922	0.04914
0.07220	-0.00188
-0.05531	0.15117
-0.05531	0.30422
-0.02981	0.10015
0.60773	-0.23145
0.30171	-0.46102
0.17421	-0.33348
-0.00431	0.53379
-0.05531	0.73785
0.42922	0.71234
0.17421	0.30422
-0.02981	0.15117
-0.28482	-0.07840
-0.02981	-0.25695
0.50573	-0.05289
0.40372	0.48277
0.45472	0.50828
0.02119	0.38074
-0.05531	0.22769
0.35272	0.02363
0.09770	-0.02739
-0.23382	-0.25695
-0.28482	-0.15492
-0.13181	-0.05289
0.32721	-0.25695
0.19971	0.10015
0.12320	0.25320
0.22521	0.71234
0.25071	0.53379
0.81175	0.35523
0.30171	0.53379
-0.08081	-0.76711
-0.51434	-0.48652
-0.20832	0.53379
0.50573	0.91640
0.17421	0.07465
0.17421	-0.10391
-0.02981	-0.66508
0.19971	0.35523
0.68424	0.61031
0.45472	0.58480
-0.00431	-0.20594
-0.43783	0.22769
-0.36133	0.17668
0.48022	0.02363
0.40372	0.10015
0.14870	0.25320
-0.02981	0.27871
0.17421	0.38074
0.48022	0.07465
0.22521	-0.23145
0.02119	-0.41000
-0.33583	0.12566
0.04670	-0.02739
0.60773	-0.28246
0.30171	0.02363
0.02119	0.96742
-0.20832	0.50828
0.04670	0.22769
0.63323	0.10015
0.09770	0.22769
0.09770	0.32972
-0.28482	0.04914
-0.00431	0.07465
0.19971	0.15117
0.22521	0.30422
0.40372	0.27871
-0.08081	0.02363
0.30171	0.12566
0.50573	-0.25695
0.12320	0.17668
-0.02981	-0.33348
-0.36133	-0.30797
-0.13181	0.22769
0.42922	0.94191
0.19971	0.15117
0.09770	0.10015
-0.33583	-0.07840
0.45472	0.83988
0.63323	0.68683
0.14870	0.02363
-0.02981	-0.20594
-0.13181	-1.17523
-0.05531	-0.18043
0.68424	1.04394
0.40372	1.06945
-0.02981	0.66132
-0.15732	0.22769
0.25071	-0.38449
0.27621	-0.18043
-0.05531	0.17668
0.09770	-0.20594
-0.56534	-0.33348
-0.10631	-0.00188
0.78624	0.22769
0.40372	0.58480
0.17421	0.61031
-0.05531	0.58480
0.14870	0.15117
0.32721	-1.04770
0.35272	-0.46102
-0.10631	0.15117
-0.23382	0.58480
0.14870	0.50828
0.60773	0.30422
0.09770	0.43176
-0.18282	0.38074
0.07220	0.58480
-0.05531	-0.05289
0.32721	-0.02739
0.09770	-0.20594
0.02119	-0.10391
0.02119	-0.12942
0.14870	-0.15492
0.60773	0.35523
0.27621	-0.30797
0.30171	0.43176
-0.05531	0.68683
-0.00431	0.10015
0.30171	0.27871
0.07220	0.27871
0.07220	0.25320
-0.33583	-0.07840
0.09770	-0.00188
0.48022	-0.12942
0.19971	-0.46102
0.27621	0.27871
0.19971	1.17148
0.40372	0.89089
0.35272	-0.23145
-0.05531	-1.30277
-0.36133	-1.09871
-0.41233	0.35523
0.07220	0.32972
0.73524	0.91640
0.27621	1.12046
0.27621	0.76336
0.04670	0.43176
-0.02981	0.40625
0.32721	-0.02739
0.35272	-0.25695
0.09770	-0.58856
-0.33583	-0.25695
0.02119	0.32972
0.65874	0.45726
0.60773	-0.02739
0.02119	-0.35899
-0.25932	-0.81812
0.09770	0.20219
0.30171	0.71234
0.04670	0.63582
0.04670	0.40625
-0.28482	0.43176
0.02119	0.43176
0.68424	-0.02739
0.19971	0.17668
0.04670	-0.33348
0.02119	0.12566
-0.05531	0.15117
0.45472	-0.00188
0.42922	0.17668
0.14870	0.68683
-0.05531	0.35523
-0.25932	-0.10391
0.37822	-0.63957
0.17421	-1.07320
0.37822	1.09496
0.09770	0.48277
0.12320	0.32972
0.58223	0.25320
0.27621	0.35523
0.04670	0.45726
-0.28482	0.58480
-0.08081	0.38074
0.19971	-0.46102
-0.10631	-3.01179
0.12320	-0.43551
0.02119	1.01843
0.37822	1.35003
0.68424	1.09496
0.42922	0.89089
0.12320	0.58480
-0.28482	-0.48652
-0.08081	-0.33348
0.53123	0.20219
0.12320	0.45726
0.12320	-0.05289
-0.05531	-0.74160
0.02119	-0.20594
0.40372	0.40625
0.09770	0.50828
-0.08081	-0.10391
-0.31033	0.22769
0.02119	0.43176
0.70974	0.83988
0.73524	1.01843
0.30171	0.55929
-0.20832	-1.40480
-0.28482	-1.73640
0.27621	-0.00188
0.19971	0.99292
-0.05531	0.91640
-0.23382	0.50828
0.14870	0.38074
0.60773	0.40625
0.53123	0.35523
-0.02981	0.38074
-0.13181	0.07465
-0.13181	-0.30797
0.40372	-0.69059
0.09770	-0.18043
-0.00431	0.30422
-0.18282	0.15117
-0.05531	-0.18043
0.53123	0.35523
0.48022	0.76336
0.40372	1.06945
0.12320	-0.71609
-0.00431	-0.10391
0.50573	-0.25695
0.04670	0.35523
-0.10631	0.43176
-0.46334	0.48277
-0.38683	0.17668
0.55673	-0.10391
0.50573	0.45726
0.63323	0.35523
-0.10631	0.32972
0.17421	0.30422
0.32721	-0.05289
0.02119	0.15117
-0.25932	-0.12942
-0.36133	-0.69059
0.12320	-0.41000
0.68424	0.50828
0.27621	-0.00188
0.14870	0.45726
-0.02981	0.81437
0.30171	0.45726
0.27621	-0.58856
0.22521	-0.23145
0.02119	0.45726
-0.41233	0.25320
-0.08081	0.17668
0.55673	-0.35899
0.17421	0.68683
0.12320	0.81437
-0.02981	0.81437
0.17421	-0.61406
0.32721	-0.46102
0.17421	-0.25695
0.02119	-0.25695
-0.43783	0.35523
0.25071	0.61031
0.81175	0.99292
0.42922	0.61031
0.22521	0.38074
-0.13181	-0.00188
0.04670	0.20219
0.30171	-0.51203
-0.00431	-0.79262
-0.02981	-0.69059
-0.23382	0.04914
-0.08081	0.53379
0.55673	0.71234
0.22521	0.53379
0.35272	0.07465
-0.02981	0.15117
0.04670	-0.00188
0.55673	0.22769
0.48022	0.32972
0.07220	0.32972
-0.43783	-0.05289
-0.02981	-0.05289
0.53123	-0.05289
0.25071	0.12566
0.07220	0.02363
0.14870	0.53379
0.22521	0.53379
0.32721	0.27871
-0.08081	0.15117
0.02119	-0.18043
-0.15732	-0.10391
0.17421	-0.74160
0.76074	-0.20594
0.22521	0.38074
-0.08081	0.02363
-0.20832	1.14597
0.12320	1.14597
0.63323	0.38074
0.22521	0.02363
-0.00431	-1.12422
-0.43783	-0.51203
-0.15732	0.71234
0.45472	0.76336
0.30171	0.17668
0.17421	-0.61406
-0.00431	0.32972
0.32721	0.81437
0.35272	-0.41000
-0.05531	0.15117
0.02119	0.04914
-0.05531	-0.51203
0.25071	0.15117
0.83725	0.32972
0.32721	0.55929
0.02119	0.50828
-0.33583	0.22769
-0.20832	0.45726
0.50573	0.15117
0.30171	-0.56305
0.04670	-0.63957
-0.28482	-0.35899
0.07220	0.45726
0.53123	0.40625
0.37822	0.73785
0.17421	0.38074
-0.08081	0.50828
0.04670	-0.05289
0.42922	-0.10391
0.14870	-0.00188
0.12320	-0.05289
-0.31033	0.15117
0.04670	0.15117
0.58223	0.27871
0.40372	0.43176
0.73524	0.43176
0.12320	0.25320
0.22521	-0.05289
0.02119	-0.28246
-0.33583	-0.43551
-0.25932	0.17668
-0.41233	0.22769
-0.02981	0.40625
0.73524	0.10015
0.65874	-0.53754
0.32721	-0.86914
0.04670	0.38074
-0.00431	0.81437
0.30171	1.14597
0.04670	0.89089
-0.02981	0.53379
-0.38683	-0.00188
0.02119	0.15117
0.73524	-0.25695
0.60773	0.10015
0.22521	-0.30797
-0.18282	-0.35899
0.25071	-0.12942
0.30171	0.30422
0.27621	-0.07840
-0.10631	-0.53754
-0.31033	0.15117
-0.05531	0.10015
0.58223	0.40625
0.65874	0.83988
0.37822	0.38074
-0.00431	0.86539
-0.13181	0.76336
0.22521	0.04914
0.09770	-0.43551
-0.05531	-0.12942
-0.28482	-0.48652
-0.18282	-0.00188
0.70974	0.15117
0.50573	0.38074
0.12320	0.35523
-0.20832	0.22769
0.07220	0.10015
0.88825	0.04914
0.12320	-0.25695
-0.15732	-0.43551
-0.41233	0.25320
0.04670	0.63582
0.32721	0.35523
0.17421	0.53379
0.22521	0.30422
0.07220	0.53379
0.30171	-0.00188
0.42922	-0.58856
0.32721	0.02363
0.14870	0.30422
-0.25932	-0.10391
-0.13181	0.27871
0.53123	0.17668
0.30171	0.35523
0.14870	0.20219
0.04670	0.58480
-0.10631	0.32972
0.22521	0.04914
0.04670	0.12566
-0.10631	-0.05289
-0.13181	-0.66508
0.42922	-0.35899
0.70974	0.12566
0.42922	0.61031
0.19971	0.50828
0.09770	0.53379
-0.18282	0.12566
-0.05531	0.04914
-0.28482	0.04914
-0.05531	-0.00188
-0.38683	-0.58856
0.27621	-0.28246
0.81175	0.68683
0.48022	0.96742
0.17421	0.50828
-0.10631	0.53379
0.12320	0.50828
0.35272	-0.18043
0.17421	-0.58856
0.02119	0.12566
-0.13181	-0.10391
0.14870	0.04914
0.65874	-0.15492
0.22521	0.12566
0.14870	0.40625
0.02119	0.43176
-0.10631	0.30422
0.27621	0.40625
-0.05531	-0.38449
-0.00431	0.04914
-0.25932	-0.69059
-0.02981	0.32972
0.68424	0.58480
0.42922	0.66132
0.32721	0.50828
-0.10631	0.32972
0.14870	-0.41000
0.19971	-0.71609
-0.10631	-0.28246
0.25071	0.66132
-0.20832	0.35523
-0.20832	0.12566
0.68424	0.66132
0.76074	0.68683
0.25071	0.61031
0.19971	-0.10391
0.09770	0.10015
0.32721	-0.48652
-0.05531	0.10015
-0.33583	0.12566
-0.43783	-0.07840
-0.25932	-0.20594
0.58223	0.07465
0.40372	0.53379
0.19971	0.45726
0.19971	-0.46102
0.37822	-0.07840
0.48022	0.61031
0.12320	-0.05289
0.04670	0.55929
-0.28482	0.43176
0.17421	-0.48652
0.58223	0.02363
0.32721	0.78886
0.12320	0.61031
-0.15732	0.53379
0.09770	0.38074
0.45472	0.15117
0.14870	-0.05289
-0.08081	0.02363
-0.38683	-0.25695
-0.13181	-1.30277
0.63323	-0.66508
0.45472	0.22769
0.30171	0.58480
-0.00431	1.01843
0.02119	-0.00188
0.12320	0.22769
0.32721	0.43176
-0.00431	0.55929
-0.20832	0.22769
0.27621	0.22769
0.65874	0.32972
0.53123	0.17668
-0.05531	0.02363
-0.28482	0.10015
-0.10631	-0.02739
0.25071	-0.05289
0.22521	0.30422
0.17421	0.35523
-0.20832	-0.35899
-0.02981	-1.25176
0.60773	-0.76711
0.40372	-0.15492
0.12320	0.99292
-0.05531	1.35003
0.32721	1.09496
0.60773	0.81437
0.19971	0.25320
-0.13181	0.02363
-0.53984	-0.46102
-0.02981	-0.35899
0.68424	-0.25695
0.32721	-0.05289
0.19971	0.40625
-0.08081	0.50828
-0.08081	0.22769
0.45472	-0.12942
0.09770	0.04914
-0.23382	-0.05289
-0.46334	0.12566
-0.05531	0.15117
0.81175	-0.43551
0.55673	0.38074
0.42922	0.61031
-0.00431	0.68683
0.09770	0.50828
0.22521	-0.15492
0.09770	-0.76711
-0.05531	0.43176
-0.18282	0.43176
0.02119	0.32972
0.53123	0.25320
0.35272	-0.15492
0.19971	-0.02739
-0.10631	0.61031
0.14870	-0.02739
0.32721	-0.15492
0.14870	-0.74160
-0.02981	0.38074
-0.13181	0.53379
0.17421	0.53379
0.68424	0.96742
0.40372	0.83988
0.02119	-0.07840
-0.28482	0.02363
-0.00431	0.07465
0.37822	-0.35899
0.60773	-0.10391
0.12320	-0.15492
-0.38683	-0.20594
-0.20832	-0.86914
0.60773	0.22769
0.37822	0.45726
-0.05531	0.63582
-0.13181	0.48277
0.19971	0.38074
0.70974	0.32972
0.12320	0.32972
-0.08081	0.07465
-0.41233	-0.25695
-0.13181	-0.28246
0.88825	-1.02219
0.53123	0.50828
0.37822	0.66132
-0.00431	0.76336
-0.08081	0.91640
0.27621	0.53379
0.07220	-0.05289
-0.13181	-1.07320
-0.36133	-0.94566
-0.00431	0.25320
0.76074	0.35523
0.32721	0.61031
0.22521	0.50828
-0.05531	0.22769
0.27621	0.15117
0.55673	0.17668
0.12320	0.15117
-0.00431	-0.12942
-0.33583	-0.46102
-0.10631	0.02363
0.63323	0.32972
0.50573	0.50828
0.12320	0.45726
0.02119	0.50828
-0.00431	-0.20594
0.35272	-0.25695
0.07220	0.12566
0.12320	0.30422
-0.31033	-0.28246
0.07220	0.35523
0.65874	-0.18043
0.50573	0.35523
0.25071	0.25320
-0.05531	0.81437
0.12320	0.63582
0.14870	-0.05289
-0.02981	0.02363
0.14870	0.15117
-0.10631	0.04914
0.09770	-0.00188
0.50573	-0.15492
0.37822	-0.00188
0.12320	-0.07840
-0.23382	-0.23145
0.22521	0.68683
0.37822	0.30422
0.04670	0.10015
-0.13181	-0.07840
-0.13181	0.20219
0.25071	0.38074
0.50573	0.50828
0.65874	0.55929
0.09770	0.04914
-0.28482	-0.23145
-0.02981	-0.35899
0.48022	-0.48652
0.40372	-0.02739
0.12320	0.73785
-0.15732	0.43176
0.02119	-0.05289
0.65874	0.71234
0.27621	0.68683
-0.28482	-0.02739
-0.28482	-0.00188
0.02119	-0.02739
0.42922	-0.02739
0.12320	-0.07840
0.19971	0.04914
-0.05531	0.20219
0.22521	0.15117
0.86275	0.38074
0.45472	0.04914
0.12320	-0.07840
-0.05531	0.20219
0.02119	0.22769
0.27621	-0.07840
0.12320	0.35523
-0.05531	0.30422
-0.28482	0.20219
-0.05531	0.32972
0.55673	-0.23145
0.30171	0.07465
0.12320	-0.43551
0.02119	0.30422
0.09770	0.30422
0.37822	-0.12942
0.25071	0.17668
0.12320	0.55929
-0.33583	0.27871
-0.08081	0.43176
0.50573	0.63582
0.48022	0.50828
0.07220	-0.07840
-0.05531	-0.86914
0.14870	0.02363
0.45472	0.32972
0.30171	0.35523
-0.13181	-0.00188
-0.46334	-0.69059
-0.05531	-0.20594
1.09226	0.40625
0.70974	0.76336
0.14870	0.58480
-0.31033	0.35523
-0.18282	0.20219
0.09770	-0.10391
-0.00431	-0.07840
0.07220	-0.02739
-0.10631	-0.07840
-0.02981	-0.05289
0.58223	0.17668
0.60773	0.50828
0.45472	0.30422
0.07220	-0.02739
0.40372	0.53379
0.35272	0.30422
0.02119	-0.10391
-0.20832	-0.02739
-0.33583	-0.38449
0.09770	-0.41000
0.58223	0.66132
0.27621	0.61031
0.12320	0.66132
-0.25932	0.40625
0.14870	0.22769
0.63323	-0.15492
0.53123	0.15117
0.09770	-0.41000
-0.41233	-0.35899
-0.23382	0.20219
0.42922	0.63582
0.25071	0.10015
0.09770	0.15117
-0.08081	0.38074
-0.08081	0.32972
0.35272	-0.02739
0.22521	0.04914
0.22521	-0.51203
-0.05531	0.04914
0.19971	0.02363
0.53123	0.22769
0.19971	-0.43551
0.19971	0.35523
-0.20832	0.58480
0.04670	0.38074
0.37822	0.48277
0.12320	0.17668
0.22521	0.04914
-0.28482	-0.35899
-0.13181	-0.12942
0.55673	-0.66508
0.50573	0.10015
0.09770	-0.38449
-0.23382	0.78886
0.19971	0.91640
0.50573	0.76336
0.14870	0.32972
0.17421	0.10015
-0.20832	-0.23145
-0.13181	-0.18043
0.45472	0.15117
0.25071	0.20219
0.09770	0.25320
0.07220	0.10015
0.25071	-0.00188
0.45472	-0.00188
0.14870	-0.38449
0.04670	0.20219
-0.20832	0.25320
-0.13181	0.43176
0.40372	0.17668
0.35272	-0.25695
0.19971	-0.10391
0.04670	0.66132
0.19971	0.58480
0.32721	-0.30797
0.25071	0.30422
0.07220	-0.05289
-0.23382	0.02363
-0.08081	0.45726
0.53123	0.96742
0.30171	0.43176
0.27621	-0.86914
0.02119	-0.05289
-0.02981	0.66132
0.27621	0.45726
0.19971	-0.02739
0.12320	-0.74160
-0.31033	-0.00188
0.04670	0.25320
0.91375	0.35523
0.37822	0.25320
0.22521	0.35523
-0.33583	0.40625
-0.18282	0.22769
0.19971	-0.51203
-0.18282	-1.12422
0.12320	-0.20594
-0.00431	0.35523
0.09770	0.35523
0.73524	0.58480
0.60773	0.68683
0.48022	0.50828
0.02119	0.53379
-0.02981	0.25320
0.30171	0.04914
0.12320	-0.07840
-0.10631	-0.30797
-0.41233	-0.20594
-0.13181	-0.12942
0.65874	0.25320
0.40372	0.27871
0.22521	0.32972
0.09770	0.25320
0.14870	0.22769
0.27621	-0.02739
0.09770	0.17668
0.19971	0.25320
-0.08081	-0.84363
-0.00431	-0.74160
0.73524	0.50828
-0.00431	0.17668
-0.02981	0.43176
0.02119	1.04394
0.14870	0.81437
0.27621	-0.07840
0.12320	-0.02739
0.12320	0.12566
-0.25932	-0.05289
-0.02981	-0.12942
0.68424	0.15117
0.88825	0.25320
0.32721	0.20219
-0.28482	-0.00188
-0.15732	-0.23145
0.30171	0.32972
-0.00431	0.20219
-0.20832	0.07465
-0.31033	-1.14973
0.04670	-0.30797
0.76074	0.45726
0.40372	0.35523
0.50573	0.53379
0.27621	0.99292
-0.02981	0.78886
0.30171	0.63582
0.07220	-0.05289
0.09770	-0.05289
-0.28482	-0.20594
0.04670	-0.74160
0.70974	0.10015
0.60773	0.61031
0.12320	0.10015
-0.33583	0.17668
-0.02981	0.10015
0.40372	-0.12942
0.02119	-0.07840
0.09770	0.35523
-0.18282	0.25320
-0.08081	-0.33348
0.30171	0.10015
0.63323	0.50828
0.48022	0.25320
-0.08081	-0.35899
0.42922	0.58480
0.42922	0.71234
0.17421	0.66132
-0.08081	-0.02739
-0.20832	-2.09351
-0.10631	-0.38449
0.37822	0.43176
0.27621	0.81437
0.19971	1.35003
-0.00431	0.99292
0.07220	0.66132
0.53123	-0.35899
0.22521	-0.07840
-0.05531	-0.02739
-0.25932	-0.12942
0.02119	-0.35899
0.58223	-0.12942
0.53123	0.15117
0.42922	-0.00188
-0.02981	0.35523
-0.18282	0.22769
0.22521	0.30422
0.17421	0.38074
-0.02981	-0.41000
-0.43783	-0.33348
-0.08081	-0.23145
0.68424	0.53379
0.63323	0.32972
0.25071	0.25320
0.07220	0.32972
0.09770	0.66132
0.32721	0.43176
0.30171	0.48277
0.19971	0.27871
-0.23382	-0.07840
-0.08081	0.15117
0.48022	0.30422
0.35272	0.45726
0.14870	-1.71090
-0.05531	-0.66508
0.32721	-0.10391
0.50573	0.73785
0.30171	0.89089
-0.15732	0.53379
-0.38683	-0.15492
0.17421	0.25320
0.40372	0.15117
0.32721	-0.05289
0.07220	0.22769
-0.05531	0.55929
0.12320	0.55929
0.48022	0.38074
0.19971	-0.07840
0.02119	-0.07840
-0.10631	-0.18043
0.07220	-1.25176
0.50573	-0.63957
0.35272	0.81437
0.14870	0.83988
0.04670	0.55929
0.22521	0.96742
0.19971	0.15117
0.02119	-0.05289
0.22521	0.32972
-0.08081	-0.12942
-0.23382	-0.48652
0.48022	-0.30797
0.40372	0.55929
0.14870	0.58480
-0.13181	0.58480
0.32721	0.22769
0.40372	-0.12942
0.17421	-0.20594
0.04670	-0.28246
-0.05531	0.17668
-0.05531	0.22769
0.63323	0.45726
0.27621	0.22769
-0.02981	0.15117
-0.20832	0.35523
-0.05531	0.61031
0.30171	0.25320
0.19971	0.38074
0.14870	-0.25695
0.09770	0.10015
0.14870	-1.17523
0.50573	0.25320
0.45472	0.58480
0.12320	0.22769
-0.08081	-0.74160
0.22521	0.12566
0.42922	0.53379
-0.02981	0.40625
-0.33583	0.12566
-0.23382	0.25320
0.45472	0.25320
0.73524	0.35523
0.27621	0.55929
0.04670	0.15117
-0.10631	-0.02739
0.19971	0.12566
0.30171	-0.28246
0.19971	-0.89465
0.14870	0.25320
-0.13181	-0.02739
0.09770	0.45726
0.32721	0.35523
0.50573	0.53379
0.22521	0.43176
0.09770	0.02363
0.17421	-0.12942
0.45472	0.66132
0.12320	0.22769
-0.08081	0.40625
-0.38683	-0.35899
-0.02981	-1.07320
0.45472	-0.33348
0.42922	0.40625
0.42922	1.12046
0.04670	-0.02739
-0.08081	0.20219
0.25071	-0.25695
0.17421	0.73785
-0.08081	0.43176
-0.15732	0.12566
0.09770	-0.46102
0.86275	0.50828
0.58223	0.68683
0.17421	0.35523
-0.23382	0.53379
-0.25932	-0.10391
0.02119	-1.17523
0.19971	-0.92016
0.32721	0.15117
-0.00431	0.76336
0.09770	0.20219
0.65874	0.43176
0.30171	0.66132
-0.08081	0.12566
-0.02981	-0.00188
0.25071	0.25320
0.50573	0.35523
0.22521	0.30422
0.04670	0.12566
-0.33583	0.10015
-0.20832	-0.28246
0.22521	0.30422
0.35272	-0.10391
0.73524	-0.71609
0.07220	-0.10391
0.12320	0.48277
0.55673	1.01843
0.14870	0.66132
-0.18282	0.10015
-0.48884	-1.35379
-0.23382	-0.35899
0.42922	0.61031
0.50573	0.83988
0.22521	0.76336
-0.00431	0.43176
0.22521	0.53379
0.53123	0.10015
0.19971	-0.15492
0.02119	-0.05289
-0.33583	0.04914
0.09770	-0.23145
0.70974	0.22769
0.60773	0.17668
-0.10631	0.25320
-0.13181	0.12566
0.04670	0.61031
0.14870	0.43176
0.09770	-0.58856
-0.10631	-1.25176
-0.18282	0.10015
-0.08081	0.78886
0.60773	0.17668
0.60773	0.55929
0.22521	0.50828
0.14870	1.04394
0.25071	0.66132
0.58223	0.04914
0.27621	0.02363
-0.20832	-0.92016
-0.64185	-0.25695
-0.31033	-0.05289
0.32721	0.38074
0.58223	0.50828
0.45472	0.04914
0.25071	0.38074
0.25071	0.20219
0.27621	-0.18043
-0.00431	-0.10391
-0.02981	0.17668
-0.41233	0.12566
-0.08081	0.15117
0.55673	0.66132
0.45472	-0.18043
0.27621	0.17668
0.02119	-0.05289
0.32721	0.35523
0.35272	-0.20594
0.09770	-0.30797
-0.00431	0.43176
-0.08081	0.43176
-0.18282	0.38074
0.42922	0.50828
0.40372	0.43176
0.25071	0.30422
-0.15732	0.12566
0.02119	0.35523
0.25071	-0.33348
0.22521	-1.53234
0.19971	-0.66508
-0.13181	-0.56305
-0.10631	0.61031
0.40372	1.01843
0.60773	1.04394
0.22521	0.61031
0.09770	0.50828
0.12320	0.25320
0.22521	-0.05289
0.04670	0.07465
-0.00431	-0.15492
-0.31033	-0.30797
-0.10631	0.02363
0.58223	0.48277
0.17421	0.63582
0.04670	-0.79262
