0.14870	0.43176
0.12320	0.53379
0.17421	0.17668
0.04670	-0.33348
0.04670	-0.10391
0.14870	0.22769
0.27621	0.83988
0.14870	0.43176
0.12320	0.07465
0.12320	-0.20594
0.17421	0.38074
0.07220	0.02363
0.09770	-0.30797
0.12320	0.02363
0.27621	0.38074
0.19971	0.27871
0.22521	0.15117
0.14870	0.20219
0.22521	0.20219
0.14870	0.04914
0.07220	0.22769
0.12320	0.27871
0.02119	0.15117
0.09770	0.20219
0.12320	-0.02739
0.12320	-0.00188
0.22521	0.17668
0.22521	0.27871
0.19971	0.15117
-0.00431	0.07465
0.12320	0.04914
0.17421	0.12566
0.12320	0.27871
0.04670	0.25320
0.07220	0.27871
0.19971	0.04914
0.32721	0.15117
0.25071	0.10015
0.14870	0.17668
0.09770	-0.10391
0.12320	-0.10391
0.12320	0.12566
0.07220	0.27871
0.07220	0.38074
0.07220	0.32972
0.12320	0.30422
0.32721	0.66132
0.19971	-0.00188
0.17421	-0.33348
0.09770	-0.33348
0.19971	0.43176
0.07220	0.32972
0.07220	0.20219
0.04670	0.61031
0.12320	0.35523
0.25071	-0.05289
0.19971	-0.15492
0.19971	0.02363
0.25071	-0.05289
0.04670	0.10015
0.04670	0.15117
0.17421	0.32972
0.07220	0.40625
-0.00431	0.43176
0.19971	-0.00188
0.27621	-0.23145
0.19971	-0.02739
0.19971	0.30422
0.22521	0.25320
0.04670	-0.15492
0.07220	-0.15492
0.19971	0.63582
0.12320	0.78886
-0.02981	-0.05289
0.09770	-0.02739
0.19971	0.04914
0.19971	0.17668
0.12320	0.27871
0.25071	-0.15492
0.22521	0.10015
0.04670	0.22769
0.09770	0.55929
0.14870	0.32972
0.14870	0.17668
0.09770	0.12566
0.14870	0.07465
0.27621	-0.10391
0.09770	-0.00188
0.12320	-0.07840
0.25071	0.22769
0.04670	0.32972
0.02119	0.07465
0.12320	0.10015
0.14870	0.32972
0.19971	0.25320
0.19971	0.48277
0.30171	-0.71609
0.12320	0.25320
0.14870	0.15117
0.12320	0.17668
0.04670	0.12566
0.19971	-0.05289
0.19971	0.27871
0.09770	0.30422
0.12320	0.55929
0.09770	-0.10391
0.22521	-0.02739
0.27621	-0.10391
0.30171	0.32972
0.14870	-0.12942
0.02119	-0.15492
0.04670	0.02363
0.12320	0.35523
0.09770	0.35523
0.14870	0.17668
0.12320	0.38074
0.19971	0.40625
0.40372	0.53379
0.25071	0.10015
0.12320	-0.18043
0.07220	0.02363
0.09770	0.15117
0.12320	0.04914
0.04670	0.27871
0.22521	0.58480
0.30171	0.50828
0.19971	-0.74160
-0.00431	-1.27726
0.09770	-1.12422
-0.08081	1.32453
-0.00431	1.09496
0.17421	1.55410
0.40372	0.53379
0.30171	-0.35899
0.32721	-0.56305
0.22521	0.22769
0.07220	-0.43551
-0.05531	0.91640
-0.00431	-0.12942
0.07220	-0.00188
0.09770	0.12566
0.17421	0.71234
0.12320	1.06945
0.17421	-0.81812
0.12320	-0.79262
0.19971	0.43176
0.12320	-0.23145
0.22521	1.01843
0.25071	-1.65988
0.09770	-1.68539
0.09770	1.32453
-0.00431	0.73785
0.17421	0.71234
-0.02981	0.43176
0.02119	0.76336
0.22521	-0.00188
0.32721	0.50828
0.32721	1.78367
0.32721	-0.02739
0.30171	-1.76191
0.04670	0.25320
-0.05531	0.96742
-0.51434	-0.86914
-0.13181	-0.79262
0.30171	-0.00188
0.12320	0.83988
0.63323	-0.05289
0.53123	-0.99668
0.14870	-0.66508
0.58223	0.15117
0.50573	1.19699
-0.18282	1.35003
-0.33583	0.55929
-0.69285	-0.02739
0.09770	0.04914
0.45472	0.35523
0.55673	-0.46102
0.68424	1.22250
0.14870	0.96742
-0.15732	0.35523
-0.25932	-0.02739
0.17421	-0.84363
0.30171	-0.53754
0.17421	-0.28246
0.02119	-0.15492
0.02119	-0.05289
0.19971	-0.25695
0.14870	0.20219
0.22521	0.43176
0.04670	0.55929
-0.00431	1.09496
0.07220	-0.07840
0.25071	-1.94047
0.42922	0.55929
0.22521	0.02363
0.09770	-0.12942
0.12320	1.17148
0.17421	1.83468
0.19971	0.78886
0.27621	-0.35899
-0.08081	0.76336
-0.18282	-0.02739
0.25071	-1.58336
0.35272	-0.74160
0.09770	0.43176
0.07220	0.81437
-0.15732	-0.53754
-0.23382	0.35523
-0.08081	-0.63957
0.60773	-0.51203
0.58223	0.38074
0.35272	0.63582
0.63323	0.35523
-0.28482	-0.76711
0.14870	0.48277
-0.18282	1.35003
-0.18282	0.76336
0.14870	-0.35899
0.37822	0.20219
0.19971	0.35523
0.14870	-0.46102
0.07220	0.02363
0.02119	0.25320
0.12320	0.40625
-0.20832	0.07465
0.17421	0.04914
0.42922	-0.33348
0.40372	0.10015
0.25071	0.20219
-0.02981	0.10015
0.09770	-0.94566
0.22521	0.32972
-0.10631	1.50308
-0.05531	2.37034
0.32721	-1.09871
0.25071	-1.68539
0.30171	-0.23145
0.17421	1.83468
0.27621	-0.33348
0.22521	-0.92016
0.02119	1.12046
0.04670	2.37034
-0.05531	-1.12422
-0.05531	-1.09871
0.17421	-0.63957
0.27621	-0.35899
0.19971	-0.02739
0.17421	1.12046
0.22521	0.91640
-0.00431	0.25320
0.04670	0.27871
0.32721	-0.76711
0.12320	0.86539
0.14870	0.83988
0.27621	-0.28246
0.25071	-1.02219
0.37822	0.73785
0.19971	0.10015
-0.33583	-0.56305
0.25071	0.55929
0.19971	0.07465
-0.05531	0.81437
0.12320	-0.66508
0.19971	0.35523
0.09770	0.04914
0.17421	0.17668
0.22521	0.35523
0.30171	0.07465
0.02119	-0.92016
0.27621	-0.61406
0.19971	0.58480
-0.13181	0.58480
0.02119	0.15117
-0.05531	0.91640
0.12320	1.57960
0.22521	0.02363
0.25071	-0.66508
0.22521	-1.48133
0.32721	2.31933
0.14870	-1.27726
-0.00431	-1.58336
0.07220	-0.97117
-0.08081	2.34484
-0.10631	2.29382
0.22521	-1.48133
0.30171	-1.65988
0.25071	0.89089
0.27621	1.93671
0.17421	0.63582
0.12320	-0.84363
0.17421	0.55929
0.04670	0.58480
0.07220	0.17668
0.17421	-0.25695
0.12320	0.15117
0.09770	-0.28246
0.12320	-0.07840
0.17421	-0.12942
0.30171	0.53379
0.09770	-0.10391
-0.05531	0.22769
0.12320	0.30422
0.09770	1.04394
0.04670	0.02363
0.25071	-0.43551
0.42922	0.15117
0.25071	0.22769
0.04670	-0.20594
0.04670	1.55410
0.27621	-0.25695
0.32721	-2.80773
0.14870	-0.23145
-0.08081	1.09496
-0.20832	1.24800
0.22521	0.68683
0.40372	0.76336
0.32721	0.40625
0.12320	0.55929
0.27621	0.45726
0.09770	0.07465
-0.00431	-1.99148
-0.05531	-0.02739
0.07220	1.12046
0.02119	1.37554
0.07220	-0.10391
0.22521	-1.88945
0.22521	0.81437
0.27621	1.32453
0.02119	-0.53754
0.19971	0.55929
0.22521	-0.25695
0.09770	0.25320
0.22521	0.25320
0.07220	0.66132
-0.00431	-0.02739
0.30171	0.43176
0.22521	1.24800
0.07220	-0.05289
0.12320	-0.89465
0.27621	-0.23145
0.12320	-0.12942
0.04670	0.04914
0.07220	0.71234
0.37822	0.15117
0.14870	0.55929
0.22521	1.42656
-0.53984	-1.53234
-0.15732	-1.04770
0.02119	-0.05289
0.76074	0.12566
0.50573	0.96742
0.12320	0.38074
-0.13181	0.32972
0.17421	0.50828
0.27621	0.91640
0.32721	-0.76711
0.27621	-0.15492
0.19971	0.76336
0.02119	-0.66508
-0.28482	-0.20594
0.12320	0.63582
0.02119	0.63582
0.12320	0.10015
0.07220	-1.37929
-0.02981	0.58480
0.22521	0.12566
0.42922	-0.76711
0.32721	-0.43551
0.37822	1.47757
0.22521	2.90601
0.14870	-0.86914
0.09770	-0.69059
0.12320	0.94191
0.04670	-0.58856
-0.13181	0.99292
0.32721	0.66132
0.37822	-0.05289
0.19971	-0.74160
0.27621	-0.05289
0.07220	0.17668
0.17421	0.15117
-0.05531	0.50828
-0.18282	-0.46102
0.25071	-0.20594
0.35272	0.32972
-0.00431	1.50308
0.30171	-0.94566
0.02119	-0.30797
-0.18282	0.07465
0.02119	0.35523
0.53123	0.55929
0.50573	1.22250
0.25071	-0.53754
0.22521	-0.05289
-0.28482	0.38074
0.17421	-0.07840
0.27621	0.53379
0.22521	0.78886
0.09770	0.61031
0.02119	0.40625
0.02119	-0.66508
-0.10631	0.07465
0.09770	-2.50164
0.04670	-0.05289
0.07220	2.49788
0.25071	1.06945
0.32721	-0.38449
0.27621	0.94191
0.04670	-1.17523
0.12320	-0.99668
0.27621	0.40625
0.12320	0.12566
0.17421	0.63582
-0.05531	1.17148
0.14870	1.14597
0.22521	0.22769
0.37822	-0.20594
0.19971	-0.20594
0.19971	-0.02739
0.27621	-0.48652
0.17421	0.22769
0.14870	-0.28246
0.02119	-0.20594
-0.15732	0.94191
-0.20832	0.71234
0.32721	0.32972
0.35272	0.22769
0.12320	0.45726
0.55673	-0.46102
0.17421	-0.30797
-0.02981	0.27871
0.14870	0.30422
0.19971	-0.18043
0.35272	-0.05289
0.19971	0.20219
-0.20832	1.01843
0.35272	-0.05289
0.27621	-0.05289
0.37822	-0.71609
0.09770	0.10015
-0.10631	2.03874
-0.05531	0.91640
-0.02981	-0.86914
-0.00431	-1.55785
0.09770	0.73785
0.09770	0.17668
0.25071	1.86019
0.12320	0.27871
0.25071	-1.22625
0.40372	0.27871
0.25071	2.39585
0.02119	-2.45062
0.07220	-2.22105
0.17421	0.58480
0.02119	0.99292
0.09770	0.96742
0.40372	1.17148
0.12320	0.10015
0.09770	-0.00188
-0.00431	0.55929
0.19971	0.15117
0.04670	-0.10391
0.07220	-0.35899
-0.13181	0.27871
0.22521	0.99292
0.35272	-0.30797
0.58223	-0.20594
0.40372	0.04914
0.14870	-0.92016
0.02119	-0.25695
0.22521	0.78886
0.12320	0.66132
-0.28482	-0.43551
-0.53984	0.71234
0.09770	0.83988
0.22521	0.68683
0.35272	-0.12942
0.50573	-0.05289
0.42922	-0.79262
0.09770	-0.05289
-0.18282	0.55929
-0.31033	0.15117
0.17421	1.80917
0.50573	1.78367
0.35272	-0.46102
0.19971	-2.04250
0.12320	-1.96597
0.09770	-0.51203
0.07220	0.78886
-0.15732	1.57960
-0.00431	-0.23145
0.12320	-0.07840
0.27621	1.29902
0.12320	0.58480
-0.00431	0.10015
0.14870	-0.46102
0.35272	-0.15492
0.27621	0.35523
0.12320	0.73785
0.19971	-0.10391
0.07220	-0.10391
-0.08081	0.30422
0.30171	-0.05289
0.32721	-0.07840
-0.08081	0.15117
-0.08081	0.38074
0.07220	0.10015
0.22521	-0.02739
0.30171	-0.30797
0.53123	0.40625
0.40372	0.10015
0.40372	-0.25695
-0.28482	0.53379
-0.61635	0.22769
-0.36133	0.07465
0.45472	1.35003
0.53123	-0.07840
0.40372	-0.76711
0.27621	-0.07840
0.32721	-0.05289
0.17421	2.67644
0.02119	0.50828
-0.15732	-1.43031
-0.02981	-0.18043
-0.02981	0.89089
0.12320	0.15117
0.27621	-0.46102
0.17421	0.58480
0.27621	-0.61406
0.19971	-0.20594
0.17421	1.14597
0.12320	-0.46102
0.17421	-0.35899
0.07220	0.89089
0.12320	1.17148
0.07220	-0.10391
0.19971	-0.99668
0.14870	0.50828
0.07220	0.81437
0.07220	0.35523
0.35272	0.25320
0.22521	-0.79262
0.17421	-0.38449
-0.05531	0.63582
-0.02981	0.50828
0.35272	0.02363
0.09770	-0.05289
0.02119	0.25320
0.25071	0.40625
0.45472	-0.58856
0.25071	-0.25695
0.04670	0.22769
0.02119	0.48277
-0.00431	0.25320
0.12320	0.86539
0.27621	-0.51203
0.22521	0.04914
0.27621	0.91640
0.02119	-0.30797
0.22521	-0.30797
0.14870	0.25320
0.19971	0.15117
0.09770	0.86539
-0.02981	0.32972
0.12320	0.43176
0.04670	-0.15492
0.22521	-0.02739
0.30171	-0.15492
0.25071	0.32972
0.25071	-0.56305
0.07220	0.02363
0.07220	0.71234
0.04670	-0.15492
-0.15732	0.04914
-0.08081	0.22769
0.17421	0.78886
0.40372	-0.10391
0.48022	0.68683
0.45472	-0.02739
0.09770	0.15117
-0.00431	-0.02739
-0.15732	0.35523
0.14870	0.07465
0.09770	0.22769
0.02119	-0.07840
0.40372	-0.02739
0.19971	0.86539
-0.00431	-0.05289
0.42922	-1.37929
0.32721	-0.35899
0.04670	0.45726
-0.02981	0.99292
0.02119	0.66132
-0.10631	0.89089
0.17421	-0.35899
0.12320	-0.63957
0.25071	0.32972
0.32721	0.58480
0.32721	0.40625
0.32721	0.35523
0.09770	0.22769
0.04670	-0.51203
0.12320	-0.38449
-0.00431	0.76336
-0.10631	0.81437
-0.18282	-0.46102
0.30171	-0.92016
0.48022	-0.10391
0.55673	0.30422
0.35272	-0.43551
-0.02981	0.55929
-0.00431	0.48277
0.22521	0.38074
0.17421	-0.51203
-0.00431	1.42656
-0.05531	0.73785
0.12320	-0.99668
0.19971	-0.41000
0.22521	-0.02739
0.19971	0.35523
0.19971	0.17668
0.17421	0.53379
0.02119	0.30422
-0.18282	0.17668
-0.08081	0.68683
0.30171	-0.56305
0.30171	-0.71609
0.42922	0.45726
0.53123	0.17668
0.22521	0.17668
-0.20832	0.58480
-0.23382	0.25320
-0.28482	-0.20594
0.12320	0.17668
0.32721	-0.15492
0.42922	0.35523
0.40372	0.04914
0.35272	0.22769
0.40372	0.04914
0.14870	-0.33348
-0.18282	0.53379
-0.10631	0.25320
0.12320	0.76336
-0.00431	-0.58856
0.17421	-0.30797
0.22521	0.76336
0.02119	0.17668
0.27621	-0.76711
0.22521	0.68683
0.09770	0.15117
0.07220	1.24800
0.04670	-0.10391
-0.00431	-0.61406
0.07220	0.45726
0.22521	-0.25695
0.35272	-0.12942
0.19971	0.68683
0.19971	-0.56305
0.27621	0.25320
0.17421	0.20219
0.04670	0.45726
0.09770	0.27871
-0.13181	0.35523
0.02119	0.30422
0.27621	0.76336
0.22521	-0.05289
0.14870	0.02363
0.02119	-0.41000
0.12320	0.25320
0.22521	-0.07840
0.14870	-0.61406
0.27621	0.45726
0.04670	0.61031
0.04670	0.63582
0.17421	0.02363
0.14870	0.27871
0.27621	0.20219
0.40372	-0.61406
0.30171	-0.48652
0.04670	0.12566
-0.18282	0.12566
-0.02981	0.20219
0.25071	0.66132
0.14870	0.83988
-0.02981	-0.25695
0.27621	-1.17523
0.50573	0.78886
0.17421	0.40625
-0.00431	0.48277
0.12320	0.30422
0.17421	0.40625
0.07220	0.12566
0.07220	-0.20594
0.02119	-0.46102
0.17421	0.53379
0.22521	-0.07840
0.27621	0.12566
0.27621	1.06945
0.12320	-0.46102
0.07220	-0.81812
0.04670	-0.10391
0.17421	0.22769
0.02119	0.10015
0.17421	0.99292
0.22521	0.61031
0.07220	0.10015
-0.02981	-0.02739
0.25071	0.17668
0.50573	0.10015
0.25071	0.83988
0.04670	-0.38449
0.04670	-0.56305
0.25071	-0.12942
-0.10631	0.76336
-0.20832	0.48277
-0.31033	0.12566
0.50573	0.32972
0.53123	-0.18043
0.53123	-1.02219
0.42922	0.83988
0.22521	0.58480
0.04670	-0.25695
0.07220	0.04914
-0.10631	0.55929
-0.00431	1.09496
0.17421	-0.43551
0.22521	0.86539
0.09770	-0.71609
0.12320	-0.43551
0.17421	-0.53754
0.02119	1.24800
0.09770	0.10015
0.09770	-0.71609
0.14870	0.73785
0.22521	1.14597
0.35272	0.68683
0.17421	-0.00188
0.19971	-0.00188
0.17421	-0.38449
0.02119	0.02363
0.17421	-0.38449
0.14870	0.48277
0.07220	-0.33348
-0.08081	0.55929
0.09770	0.17668
0.07220	0.32972
0.27621	0.15117
0.25071	-0.66508
0.02119	0.38074
0.17421	0.58480
-0.20832	-0.05289
0.12320	0.25320
0.48022	-0.05289
0.30171	-0.00188
0.22521	0.38074
0.22521	0.35523
0.04670	0.35523
-0.20832	0.17668
0.02119	0.02363
0.32721	0.07465
0.19971	-0.02739
0.09770	0.07465
0.14870	-0.05289
-0.08081	0.35523
0.12320	-0.89465
0.14870	0.61031
0.07220	-0.28246
0.22521	1.32453
0.19971	1.52859
0.19971	-0.38449
0.17421	-0.76711
0.19971	-0.58856
0.19971	-0.20594
0.14870	0.63582
0.09770	0.32972
0.07220	0.71234
0.22521	0.30422
0.12320	-0.38449
0.17421	-0.15492
0.27621	0.66132
0.04670	0.35523
0.02119	0.17668
0.17421	-0.02739
-0.05531	-0.33348
0.14870	0.96742
0.22521	-0.28246
0.09770	-0.92016
0.14870	0.96742
0.27621	1.14597
0.12320	-0.84363
0.32721	-0.46102
0.32721	-0.25695
0.17421	0.30422
-0.31033	0.35523
-0.13181	0.32972
0.17421	0.45726
0.14870	0.04914
0.27621	0.38074
0.48022	-0.15492
0.27621	0.32972
0.25071	0.83988
0.22521	-0.20594
0.12320	-0.20594
0.09770	0.12566
-0.08081	0.96742
-0.13181	0.04914
0.09770	0.20219
0.35272	0.10015
0.27621	-0.79262
0.25071	0.94191
0.04670	0.48277
0.19971	1.14597
0.02119	-1.07320
-0.10631	-1.12422
0.04670	-0.63957
0.14870	0.89089
0.27621	2.26831
0.25071	0.91640
0.32721	-1.37929
0.02119	-1.60887
0.12320	-0.30797
0.09770	0.61031
0.12320	0.12566
-0.13181	0.96742
-0.13181	1.35003
0.14870	0.83988
0.48022	0.48277
0.35272	0.20219
0.22521	-0.97117
0.09770	-0.74160
-0.13181	0.07465
-0.00431	-0.05289
0.17421	0.17668
-0.08081	0.40625
0.22521	0.71234
0.42922	-0.00188
0.50573	0.25320
0.37822	0.20219
0.07220	-0.41000
0.14870	-0.12942
0.04670	-0.00188
0.04670	0.55929
0.12320	0.53379
0.04670	0.50828
-0.13181	-0.46102
-0.23382	0.07465
0.14870	0.68683
0.42922	0.81437
0.37822	0.20219
0.32721	-0.33348
0.19971	0.91640
0.02119	-0.99668
0.12320	-1.88945
0.17421	-0.53754
0.14870	1.42656
0.12320	0.96742
0.19971	1.96222
0.22521	-0.10391
0.22521	-0.92016
0.40372	0.20219
0.27621	0.17668
0.12320	0.12566
-0.33583	0.17668
-0.43783	0.43176
0.25071	-0.02739
0.53123	-0.07840
0.35272	0.30422
0.25071	-0.20594
0.40372	-0.30797
0.27621	0.35523
-0.05531	0.32972
-0.15732	0.12566
0.07220	0.25320
0.07220	0.86539
-0.02981	0.02363
-0.00431	0.12566
0.37822	0.66132
0.40372	-0.30797
0.25071	-0.43551
0.27621	-0.35899
0.07220	0.61031
-0.18282	0.58480
-0.13181	-0.41000
0.17421	-0.28246
0.17421	0.38074
-0.05531	0.22769
0.25071	0.68683
0.27621	0.81437
0.22521	-0.53754
0.17421	0.25320
0.19971	-0.07840
0.22521	-0.79262
0.27621	1.04394
-0.00431	-0.15492
-0.08081	0.38074
0.14870	0.25320
0.14870	0.73785
0.17421	-0.92016
0.12320	-0.53754
0.19971	0.45726
0.09770	0.17668
-0.10631	0.27871
0.07220	0.20219
0.19971	0.38074
0.27621	0.53379
0.25071	0.35523
0.22521	-0.53754
0.32721	-0.41000
0.19971	0.61031
0.02119	0.04914
0.12320	0.63582
0.25071	0.68683
-0.02981	0.22769
0.04670	-0.58856
0.14870	-0.33348
0.19971	0.30422
0.22521	0.15117
-0.00431	0.22769
-0.08081	0.12566
0.32721	0.78886
0.42922	-0.07840
0.17421	-0.46102
0.30171	0.61031
0.02119	0.17668
-0.08081	0.10015
0.02119	-0.35899
0.02119	-0.92016
0.22521	0.38074
0.30171	0.83988
0.27621	1.12046
0.09770	0.58480
0.07220	-0.69059
0.02119	0.20219
0.12320	1.14597
0.22521	-1.30277
0.09770	1.22250
0.14870	0.43176
0.17421	-0.58856
0.35272	-0.58856
0.30171	0.30422
0.22521	0.20219
-0.10631	-0.58856
-0.20832	-0.00188
0.07220	0.76336
0.50573	0.32972
0.27621	0.55929
0.12320	0.27871
-0.00431	0.10015
0.02119	-0.07840
0.27621	0.35523
0.32721	0.10015
0.17421	-0.12942
-0.13181	-0.02739
-0.02981	0.10015
0.04670	0.20219
0.27621	0.66132
0.19971	0.38074
0.32721	0.10015
0.17421	-0.10391
0.32721	-0.23145
0.14870	0.40625
0.12320	0.25320
0.02119	0.53379
0.04670	-1.65988
0.02119	0.20219
0.22521	0.45726
0.17421	1.01843
0.27621	0.10015
0.32721	-0.66508
0.25071	-0.84363
-0.00431	0.96742
0.02119	1.75816
0.07220	0.53379
-0.05531	-0.28246
0.12320	-1.53234
0.30171	0.38074
0.30171	0.30422
0.32721	0.71234
0.25071	0.12566
0.12320	-1.25176
-0.02981	1.40105
0.07220	0.96742
0.25071	0.48277
0.25071	-0.15492
0.25071	-0.41000
0.12320	-0.00188
-0.02981	0.07465
0.27621	-0.33348
0.30171	-0.84363
0.09770	1.14597
-0.05531	-0.69059
0.30171	0.22769
0.09770	0.96742
-0.23382	0.91640
-0.13181	0.96742
0.27621	0.07465
0.37822	-0.00188
0.07220	-0.10391
0.22521	-0.05289
-0.05531	0.12566
0.22521	-0.00188
0.37822	0.04914
0.09770	0.04914
0.32721	0.38074
0.45472	0.07465
-0.02981	-0.20594
0.19971	-0.30797
0.22521	0.66132
0.04670	0.25320
0.09770	0.20219
0.04670	-0.61406
-0.00431	-0.94566
0.02119	1.78367
-0.00431	-0.23145
-0.08081	0.61031
0.22521	-0.81812
0.22521	-0.05289
0.25071	0.86539
0.17421	1.06945
0.07220	0.58480
0.14870	-0.23145
0.17421	0.63582
0.12320	-0.30797
0.09770	-0.99668
0.09770	-0.05289
0.07220	-0.41000
0.27621	-0.15492
0.17421	0.35523
0.19971	1.04394
0.14870	-0.00188
0.12320	0.73785
0.27621	0.96742
0.30171	-0.30797
-0.05531	-0.23145
-0.13181	-0.00188
-0.08081	0.15117
-0.13181	0.15117
0.14870	-0.07840
0.60773	0.20219
0.55673	0.15117
0.14870	-0.25695
-0.15732	0.04914
-0.18282	0.15117
0.04670	0.48277
0.25071	0.66132
0.35272	0.43176
0.32721	0.76336
0.02119	0.07465
0.14870	-0.25695
0.22521	-1.43031
0.07220	0.25320
0.14870	-0.58856
0.07220	0.73785
-0.08081	0.63582
0.04670	0.83988
0.27621	1.12046
0.19971	0.17668
0.19971	-0.66508
0.27621	0.76336
0.35272	0.76336
0.19971	-0.41000
-0.00431	-1.96597
-0.10631	0.55929
-0.18282	0.53379
0.14870	1.47757
0.27621	-0.10391
0.19971	-1.20074
0.14870	-0.71609
0.50573	-0.43551
0.40372	1.17148
0.09770	0.78886
0.02119	1.01843
0.02119	0.35523
-0.05531	-0.05289
0.17421	0.10015
0.19971	0.22769
-0.02981	-0.07840
0.17421	0.63582
0.07220	-0.23145
0.35272	-0.74160
0.25071	-0.30797
0.22521	0.10015
0.12320	0.76336
-0.00431	0.53379
-0.02981	0.40625
-0.28482	0.32972
-0.18282	0.10015
0.70974	-0.18043
0.88825	-0.02739
-0.51434	0.45726
-0.25932	-0.76711
-0.15732	-0.69059
0.07220	-0.23145
0.35272	1.52859
0.50573	2.59991
0.50573	-0.41000
0.19971	-0.58856
0.17421	0.17668
0.19971	-0.41000
-0.05531	-0.25695
-0.13181	0.50828
-0.25932	-0.25695
0.04670	0.83988
0.09770	0.02363
0.19971	-0.02739
0.02119	0.89089
0.40372	-0.86914
0.30171	-1.68539
0.17421	0.73785
0.25071	1.01843
0.04670	0.71234
0.19971	0.94191
0.07220	0.30422
0.02119	0.58480
0.25071	-0.89465
0.07220	-0.05289
0.17421	0.48277
0.30171	0.89089
0.37822	-0.30797
0.27621	-0.86914
0.12320	-0.30797
-0.15732	0.22769
-0.28482	0.50828
-0.28482	0.50828
0.37822	0.55929
0.53123	0.55929
0.35272	-0.15492
0.19971	-0.02739
0.60773	-0.07840
0.32721	0.32972
-0.10631	-0.23145
-0.10631	-0.10391
-0.10631	0.22769
-0.02981	0.04914
0.27621	-0.56305
-0.08081	0.78886
0.12320	1.68163
0.32721	-0.76711
0.55673	-0.81812
0.12320	0.61031
-0.13181	0.76336
0.07220	0.35523
-0.10631	0.02363
0.09770	0.38074
0.32721	0.91640
0.48022	0.43176
0.27621	-0.23145
0.07220	-1.45582
-0.00431	-0.20594
-0.08081	-0.38449
0.22521	0.91640
0.12320	0.78886
0.12320	0.89089
0.32721	0.20219
0.19971	-0.05289
0.25071	0.07465
0.30171	0.32972
0.14870	-0.10391
0.14870	0.22769
-0.02981	-0.74160
-0.08081	-0.33348
0.07220	0.78886
0.07220	0.58480
0.19971	0.43176
0.19971	0.22769
-0.00431	0.63582
0.14870	-0.00188
0.37822	-0.25695
0.42922	0.12566
0.19971	-0.53754
-0.28482	0.12566
0.19971	0.25320
0.12320	0.32972
0.17421	0.30422
0.17421	0.35523
0.30171	-0.15492
-0.10631	0.73785
-0.10631	0.53379
0.42922	0.04914
0.42922	-0.18043
0.09770	-0.79262
0.09770	-0.05289
0.07220	0.15117
0.04670	0.35523
-0.05531	0.76336
0.04670	0.07465
0.22521	0.30422
0.32721	0.20219
0.19971	-0.23145
0.09770	-0.30797
0.09770	-0.05289
0.17421	0.43176
0.27621	0.27871
-0.00431	-0.05289
0.17421	0.20219
0.30171	1.14597
0.22521	0.89089
0.07220	-1.43031
-0.05531	-1.09871
-0.08081	0.20219
0.12320	0.66132
0.48022	0.76336
0.25071	1.24800
0.14870	-0.20594
-0.02981	-0.07840
0.12320	0.32972
0.25071	0.17668
0.04670	0.02363
0.12320	0.35523
0.07220	0.10015
0.19971	-0.05289
0.22521	0.02363
0.07220	-0.05289
0.04670	0.07465
0.02119	0.30422
0.35272	0.02363
0.07220	0.15117
0.27621	0.17668
0.30171	0.35523
0.04670	0.50828
0.12320	-1.12422
-0.33583	0.32972
0.09770	0.66132
0.09770	-0.10391
0.53123	0.63582
0.37822	0.32972
0.27621	0.25320
-0.08081	-0.23145
0.32721	-0.69059
0.22521	0.48277
-0.05531	0.83988
-0.02981	0.50828
0.17421	-0.18043
0.09770	0.02363
0.04670	0.12566
0.22521	-0.15492
-0.00431	-0.35899
0.07220	-0.00188
0.27621	0.15117
0.14870	-0.33348
0.14870	0.32972
0.22521	1.27351
0.25071	0.66132
0.14870	-0.25695
0.12320	0.04914
0.02119	1.14597
-0.15732	-0.30797
0.14870	-0.30797
0.27621	-0.23145
0.35272	-0.12942
0.35272	0.20219
0.19971	0.48277
0.30171	0.12566
0.04670	0.40625
-0.02981	0.25320
-0.28482	-0.15492
0.19971	0.20219
0.30171	-0.12942
0.14870	-0.30797
0.12320	-0.15492
0.17421	0.43176
-0.08081	0.81437
-0.48884	-0.63957
-0.13181	0.45726
0.22521	0.25320
0.42922	-0.18043
0.53123	0.96742
0.48022	0.55929
0.22521	-0.53754
0.22521	-0.07840
0.22521	-1.48133
-0.00431	0.04914
-0.10631	0.61031
-0.05531	1.06945
-0.20832	0.27871
0.19971	-0.10391
0.30171	-0.43551
0.42922	0.73785
0.17421	0.07465
0.12320	0.71234
0.12320	0.04914
0.14870	-0.69059
-0.08081	-0.48652
0.02119	0.58480
-0.13181	0.83988
0.22521	0.71234
0.53123	-0.23145
0.55673	0.27871
0.37822	0.15117
-0.08081	0.07465
0.12320	-0.10391
-0.08081	0.27871
0.12320	0.07465
0.12320	0.02363
0.07220	0.10015
0.14870	0.17668
0.30171	-0.12942
-0.33583	-0.07840
0.07220	-0.00188
0.53123	0.27871
0.22521	0.63582
-0.15732	-0.15492
-0.13181	-0.38449
0.19971	1.57960
0.30171	0.10015
0.48022	-1.20074
0.35272	-0.20594
0.17421	0.40625
0.19971	1.14597
0.02119	0.40625
-0.08081	0.15117
-0.05531	1.09496
0.14870	-0.86914
-0.15732	0.76336
-0.02981	-0.61406
0.22521	-0.00188
0.37822	0.25320
0.30171	-0.10391
0.42922	0.04914
0.32721	0.32972
0.17421	-0.51203
0.02119	-0.23145
0.02119	1.04394
0.04670	1.14597
-0.02981	0.35523
0.07220	-0.15492
0.40372	0.25320
0.02119	-0.07840
0.37822	-0.43551
0.07220	-0.10391
0.12320	0.20219
0.09770	0.66132
0.32721	-0.46102
0.12320	0.35523
0.35272	0.10015
0.04670	0.63582
0.07220	0.20219
-0.28482	0.48277
0.35272	-0.46102
-0.13181	-0.43551
0.17421	0.07465
0.22521	0.66132
0.17421	0.38074
0.12320	-0.89465
0.22521	0.50828
0.12320	0.10015
0.14870	0.73785
0.22521	0.68683
-0.05531	0.66132
0.09770	-1.55785
0.17421	-0.23145
0.17421	1.45206
0.09770	1.12046
0.12320	-0.48652
0.02119	-0.18043
0.19971	-0.28246
0.30171	-0.33348
0.19971	0.45726
0.02119	0.61031
0.22521	0.35523
0.27621	0.38074
0.14870	-0.56305
-0.15732	-0.20594
-0.05531	0.50828
-0.18282	0.25320
0.22521	-0.30797
0.37822	-0.00188
0.53123	0.78886
0.32721	0.53379
0.07220	-0.33348
0.02119	-1.07320
0.02119	-0.43551
0.12320	0.48277
-0.28482	0.71234
-0.08081	0.43176
0.25071	0.43176
0.40372	0.30422
0.35272	0.22769
0.42922	0.22769
0.42922	-0.05289
0.09770	0.02363
-0.08081	0.15117
-0.61635	0.12566
0.19971	-0.28246
0.27621	0.25320
0.25071	0.30422
0.32721	0.66132
0.17421	0.04914
0.12320	-0.38449
0.22521	-0.07840
0.04670	0.27871
0.12320	-0.30797
-0.02981	0.04914
0.17421	0.22769
0.17421	1.65613
0.27621	0.32972
0.27621	-0.38449
0.19971	0.17668
0.09770	0.55929
0.25071	-0.74160
0.30171	0.10015
0.22521	-0.30797
0.02119	0.86539
0.04670	1.47757
-0.25932	0.45726
0.07220	-0.12942
0.35272	-0.10391
0.32721	-0.07840
0.17421	-0.30797
0.02119	-0.10391
0.14870	0.35523
0.22521	0.30422
0.04670	-0.43551
-0.08081	0.02363
0.30171	0.07465
0.30171	0.32972
0.45472	0.35523
0.88825	0.27871
-0.46334	0.15117
-0.13181	0.15117
0.17421	0.30422
0.04670	0.20219
-0.08081	0.32972
-0.00431	0.40625
0.32721	-0.23145
0.45472	-0.66508
0.35272	0.38074
0.17421	-0.69059
0.32721	-0.41000
0.22521	1.29902
-0.02981	0.40625
0.17421	0.12566
0.14870	1.27351
-0.00431	-1.50683
-0.05531	1.06945
-0.00431	1.65613
0.14870	0.25320
0.17421	-0.84363
0.22521	-1.07320
0.32721	-0.84363
0.22521	-0.05289
0.30171	0.02363
0.19971	0.30422
0.12320	0.63582
0.02119	1.98773
-0.02981	-0.48652
-0.00431	-0.46102
0.09770	0.07465
0.30171	0.32972
0.40372	0.76336
0.25071	-0.02739
-0.05531	-0.02739
0.07220	0.68683
-0.08081	0.55929
0.17421	0.07465
0.30171	-0.25695
0.09770	0.25320
0.30171	0.17668
0.53123	-1.07320
0.27621	-0.20594
-0.02981	1.37554
-0.20832	0.43176
-0.00431	-0.00188
0.07220	-0.79262
0.12320	-1.09871
0.32721	-0.33348
0.17421	1.04394
0.35272	1.50308
0.04670	2.19179
-0.00431	-1.50683
0.35272	-0.71609
0.30171	0.78886
-0.08081	0.32972
0.02119	0.27871
-0.08081	-0.94566
0.22521	-0.99668
0.35272	0.81437
0.27621	0.02363
0.27621	0.12566
0.22521	1.27351
0.09770	1.01843
-0.02981	-0.05289
0.09770	0.17668
0.07220	-0.71609
0.22521	0.35523
0.12320	-0.00188
0.17421	0.10015
0.12320	0.45726
0.14870	-0.10391
0.04670	-0.18043
0.09770	-0.02739
-0.08081	0.12566
0.17421	0.38074
0.27621	0.25320
0.58223	0.25320
0.55673	0.27871
-0.59084	0.04914
0.02119	0.10015
0.27621	-0.28246
0.35272	-0.00188
0.22521	0.50828
0.17421	-0.53754
0.12320	0.86539
-0.10631	0.71234
-0.08081	0.89089
0.12320	0.35523
0.12320	-1.63437
0.19971	-1.50683
0.14870	0.68683
0.07220	2.29382
0.19971	0.02363
0.04670	0.15117
0.12320	-0.07840
0.09770	-0.79262
0.07220	-0.35899
0.37822	1.83468
0.32721	-1.30277
0.35272	0.38074
0.22521	0.38074
-0.20832	0.66132
0.02119	0.15117
0.09770	0.55929
-0.08081	-0.61406
0.32721	-1.53234
0.30171	0.02363
0.14870	0.71234
-0.00431	0.55929
0.35272	0.71234
0.04670	0.07465
0.02119	-0.10391
-0.15732	0.20219
0.02119	0.07465
0.42922	0.50828
0.35272	0.12566
0.30171	-0.10391
0.19971	0.25320
0.02119	-0.07840
-0.08081	-0.15492
0.22521	-0.05289
0.07220	-0.12942
0.30171	0.25320
-0.38683	0.35523
0.30171	0.99292
0.12320	-0.25695
0.12320	-0.76711
0.19971	0.66132
0.12320	1.86019
0.19971	-0.79262
0.40372	-0.41000
0.25071	-0.12942
0.12320	0.07465
0.04670	0.81437
-0.05531	-1.20074
-0.25932	1.12046
-0.23382	1.06945
0.02119	-0.02739
0.42922	-0.33348
0.42922	0.15117
0.40372	-0.05289
0.30171	-0.43551
0.17421	0.32972
-0.20832	-0.63957
0.12320	0.25320
-0.00431	-0.18043
0.14870	1.09496
0.32721	0.43176
0.27621	0.66132
0.14870	0.20219
-0.08081	-0.23145
-0.08081	0.10015
-0.02981	0.43176
0.17421	0.17668
0.35272	-0.05289
0.32721	-0.07840
0.04670	0.45726
0.25071	-0.20594
0.02119	-0.02739
0.30171	0.07465
0.35272	0.30422
0.19971	0.27871
-0.18282	0.15117
-0.56534	0.55929
-0.05531	-0.25695
0.40372	0.76336
0.17421	0.02363
0.22521	0.22769
0.14870	-0.81812
0.12320	0.25320
0.12320	-1.53234
0.42922	1.32453
0.30171	1.86019
0.19971	-0.79262
0.12320	-0.07840
-0.00431	0.81437
-0.08081	0.04914
0.19971	-0.48652
0.12320	0.94191
0.22521	0.96742
0.17421	-0.69059
0.12320	-0.23145
0.22521	-0.63957
0.12320	1.22250
0.12320	0.48277
0.19971	-0.38449
0.22521	-1.63437
-0.05531	-0.33348
0.12320	1.09496
0.12320	0.81437
0.07220	0.86539
0.48022	0.71234
0.48022	0.53379
-0.00431	-0.05289
-0.20832	-0.00188
-0.23382	-0.25695
-0.05531	-0.25695
0.35272	0.04914
0.40372	0.15117
0.07220	1.09496
0.27621	-1.45582
0.09770	-0.63957
0.22521	0.55929
0.25071	0.55929
0.37822	0.27871
0.19971	0.25320
-0.13181	0.35523
0.02119	1.09496
-0.02981	0.10015
0.14870	1.22250
0.32721	-0.92016
0.25071	-0.99668
0.27621	-1.07320
0.17421	0.45726
-0.02981	0.58480
0.07220	0.66132
-0.00431	0.22769
0.04670	1.35003
0.07220	1.93671
0.22521	-1.07320
0.55673	-0.76711
0.48022	-0.33348
0.32721	0.15117
0.02119	0.71234
-0.05531	-0.51203
0.12320	0.86539
-0.08081	0.48277
0.02119	-0.12942
0.22521	-0.18043
0.12320	0.12566
0.32721	0.04914
0.35272	0.35523
0.37822	-0.15492
0.12320	0.53379
-0.59084	0.50828
-0.02981	-0.10391
0.35272	0.10015
0.40372	0.10015
0.30171	0.45726
0.04670	0.07465
0.50573	-0.30797
0.40372	-0.56305
0.37822	0.38074
-0.05531	0.48277
-0.02981	0.22769
-0.18282	-0.02739
0.17421	0.35523
0.27621	1.29902
0.12320	0.25320
0.14870	0.53379
0.32721	-0.20594
0.02119	-0.53754
0.07220	-0.86914
0.17421	-1.02219
0.12320	0.45726
0.09770	1.24800
0.02119	0.22769
0.27621	0.10015
0.32721	-0.05289
0.04670	0.63582
0.19971	-0.07840
0.25071	-0.18043
0.25071	-0.05289
0.19971	0.43176
0.37822	0.73785
-0.05531	-0.07840
-0.28482	-0.07840
-0.00431	0.17668
0.12320	0.55929
0.17421	0.17668
0.27621	0.27871
0.37822	0.35523
-0.20832	-0.76711
0.02119	-0.79262
0.50573	-0.10391
0.17421	0.40625
0.09770	0.53379
0.30171	0.73785
0.17421	-0.02739
-0.02981	1.01843
0.37822	0.04914
0.22521	-0.30797
0.17421	0.25320
0.25071	0.04914
0.04670	-0.43551
-0.10631	-0.71609
-0.00431	0.89089
-0.02981	0.22769
0.50573	1.19699
0.35272	0.86539
0.17421	-2.06800
0.27621	0.35523
-0.00431	1.86019
0.07220	0.04914
0.14870	1.68163
-0.13181	-2.65468
0.17421	0.50828
0.35272	0.50828
0.22521	-1.09871
0.19971	-0.48652
0.02119	0.68683
-0.13181	0.71234
0.50573	0.53379
0.35272	-0.05289
0.07220	0.07465
-0.10631	0.50828
0.12320	0.58480
0.25071	0.35523
0.30171	-0.00188
0.40372	0.02363
-0.23382	-0.48652
0.27621	-0.10391
0.07220	0.02363
0.17421	0.22769
0.25071	-0.33348
-0.20832	0.38074
-0.02981	0.68683
0.30171	0.55929
0.27621	0.20219
0.17421	0.12566
0.14870	-1.07320
0.32721	0.94191
0.40372	-0.71609
0.17421	-0.48652
0.40372	-0.69059
-0.28482	0.45726
-0.41233	1.88570
0.19971	2.37034
0.27621	1.47757
0.27621	-0.18043
0.35272	-1.45582
0.37822	-0.41000
0.27621	0.96742
0.07220	-1.48133
0.17421	-1.55785
-0.08081	0.86539
-0.20832	0.55929
0.09770	1.14597
0.32721	0.43176
0.35272	0.15117
0.14870	-0.05289
0.17421	0.48277
0.30171	-0.63957
0.22521	-0.30797
0.27621	0.81437
0.07220	0.96742
-0.23382	0.55929
0.09770	-0.05289
0.04670	0.10015
0.17421	-0.46102
0.25071	-0.71609
0.07220	0.27871
-0.05531	0.15117
-0.38683	0.50828
0.25071	0.83988
0.17421	-0.30797
0.53123	-0.25695
0.58223	0.96742
0.27621	0.73785
-0.13181	-0.35899
0.02119	-0.76711
0.32721	0.25320
-0.08081	0.55929
0.07220	0.50828
0.12320	0.73785
0.19971	-0.61406
0.12320	-0.35899
-0.08081	0.55929
0.25071	0.04914
0.17421	0.81437
0.32721	0.27871
0.12320	0.04914
0.09770	-0.97117
0.12320	0.53379
0.07220	1.29902
0.04670	-0.33348
-0.08081	-1.04770
0.22521	-0.12942
0.53123	0.48277
0.30171	0.20219
0.17421	0.27871
0.14870	0.17668
0.17421	-0.46102
0.19971	-0.12942
0.32721	0.94191
-0.10631	0.55929
-0.00431	0.55929
-0.25932	0.86539
0.25071	-0.15492
0.12320	-0.25695
0.45472	0.15117
0.25071	0.27871
0.32721	-0.20594
0.09770	0.02363
-0.02981	-0.18043
-0.08081	-0.05289
-0.13181	0.07465
0.35272	0.58480
0.27621	0.38074
0.22521	-0.10391
0.40372	0.27871
0.25071	-0.97117
0.22521	-0.15492
0.30171	0.68683
0.09770	0.58480
-0.05531	-0.94566
0.09770	1.42656
0.04670	1.52859
0.09770	0.55929
0.09770	-0.79262
0.09770	-1.12422
0.12320	-0.15492
0.17421	0.22769
0.22521	0.68683
0.04670	-0.66508
0.19971	0.86539
0.09770	1.37554
0.02119	0.04914
-0.13181	-0.41000
0.02119	-0.20594
0.32721	0.04914
0.40372	0.17668
0.40372	-0.38449
0.17421	-0.41000
0.25071	0.02363
0.09770	0.68683
0.12320	0.55929
0.12320	0.73785
-0.20832	0.22769
0.12320	0.73785
-0.18282	-0.25695
0.42922	-0.94566
0.27621	-0.35899
0.32721	0.53379
0.27621	0.38074
0.07220	-0.07840
0.04670	0.27871
0.17421	-0.05289
0.30171	0.32972
0.40372	-0.02739
0.60773	0.61031
0.27621	0.15117
-0.59084	-0.12942
0.07220	0.66132
0.12320	0.91640
0.14870	-0.69059
0.09770	-0.15492
0.07220	-0.35899
0.30171	0.40625
0.17421	0.12566
0.14870	-0.07840
-0.08081	0.50828
0.25071	0.30422
0.32721	2.08976
0.09770	-0.66508
0.02119	-1.32828
0.30171	-0.02739
0.09770	0.71234
0.14870	0.76336
0.14870	0.40625
0.22521	-0.23145
0.22521	0.83988
-0.05531	-0.18043
-0.00431	-0.56305
0.42922	-0.05289
0.14870	0.22769
-0.31033	0.15117
0.02119	0.32972
0.42922	0.22769
0.42922	-0.02739
0.32721	0.53379
0.32721	-0.28246
-0.15732	-0.10391
0.02119	0.07465
0.32721	0.07465
0.14870	0.71234
0.07220	0.94191
0.30171	0.32972
-0.08081	-0.63957
0.37822	0.15117
0.25071	0.15117
0.04670	0.12566
-0.13181	0.66132
-0.00431	0.15117
0.19971	-1.40480
-0.38683	-0.81812
0.32721	0.15117
0.50573	0.61031
0.30171	1.01843
0.37822	1.83468
0.25071	-0.84363
-0.05531	-0.56305
0.07220	0.94191
0.04670	0.38074
0.02119	-0.18043
0.02119	-0.10391
0.09770	-0.20594
0.09770	0.10015
0.09770	-0.61406
0.17421	-0.10391
0.32721	0.22769
0.22521	-0.12942
0.17421	0.07465
0.25071	0.48277
-0.18282	0.43176
-0.20832	1.06945
-0.02981	0.50828
0.19971	0.17668
0.58223	0.07465
0.42922	0.10015
0.32721	-0.61406
-0.18282	-0.33348
0.07220	0.35523
0.40372	0.63582
0.25071	0.10015
0.19971	-0.30797
0.32721	-0.12942
0.27621	0.66132
0.07220	-0.20594
0.22521	-0.07840
-0.05531	-0.33348
-0.18282	0.48277
-0.23382	0.83988
0.02119	0.30422
0.09770	1.14597
0.19971	0.25320
0.30171	-0.58856
0.02119	-0.35899
0.37822	-0.56305
0.25071	-0.58856
0.14870	0.27871
0.35272	1.12046
0.12320	-0.10391
0.22521	0.63582
0.17421	-0.10391
0.25071	0.45726
-0.28482	0.20219
0.17421	0.38074
0.30171	0.45726
0.19971	-0.66508
0.22521	0.15117
0.09770	0.27871
0.09770	0.32972
0.22521	0.25320
0.17421	0.04914
-0.13181	0.38074
0.12320	0.20219
0.48022	-0.33348
0.42922	0.32972
0.12320	-0.33348
0.32721	-0.66508
-0.23382	0.61031
-0.08081	1.14597
0.04670	0.58480
0.02119	0.30422
0.25071	-0.05289
0.14870	0.22769
0.09770	0.15117
0.25071	-1.09871
0.37822	0.10015
-0.00431	0.68683
0.19971	0.48277
0.25071	-0.41000
0.14870	0.30422
-0.13181	0.78886
0.27621	0.30422
0.25071	0.53379
0.02119	0.45726
0.09770	-0.61406
0.22521	-1.25176
0.22521	-0.94566
0.32721	0.94191
0.35272	1.42656
0.14870	0.45726
-0.28482	0.25320
-0.46334	-0.15492
0.07220	0.15117
0.35272	0.63582
0.45472	0.07465
0.35272	-0.38449
0.22521	0.04914
0.30171	-0.46102
-0.08081	0.45726
-0.25932	0.45726
-0.28482	0.45726
0.27621	-0.23145
0.45472	-0.41000
0.32721	0.50828
0.07220	-0.86914
0.27621	0.15117
0.14870	0.48277
0.04670	0.43176
0.22521	0.61031
0.22521	0.89089
0.14870	0.45726
0.22521	0.32972
0.04670	0.02363
-0.23382	0.43176
-0.10631	-0.25695
0.45472	-0.30797
0.40372	-0.81812
0.35272	-0.63957
0.27621	0.53379
0.04670	1.09496
0.04670	-0.20594
-0.13181	0.81437
0.02119	0.58480
0.07220	-1.17523
0.12320	0.17668
0.42922	0.27871
0.27621	0.99292
0.32721	0.43176
0.40372	0.30422
0.27621	0.15117
0.07220	-0.76711
-0.41233	-0.63957
-0.02981	0.58480
0.30171	0.43176
0.55673	0.76336
0.30171	-0.33348
0.27621	0.20219
0.02119	-0.38449
-0.36133	0.04914
-0.10631	0.10015
0.45472	-0.23145
0.40372	1.19699
0.35272	1.60511
0.14870	-0.10391
0.09770	-1.73640
-0.00431	-0.53754
0.37822	0.58480
0.22521	0.83988
0.04670	0.12566
0.04670	0.27871
0.45472	0.91640
0.09770	0.12566
0.07220	0.07465
-0.15732	0.45726
0.27621	-0.10391
0.35272	-0.33348
0.32721	-0.97117
0.25071	-0.25695
0.30171	0.86539
0.04670	0.38074
-0.53984	0.55929
-0.28482	-0.46102
0.12320	0.99292
0.22521	0.48277
0.48022	-0.28246
0.40372	-0.97117
0.48022	-0.05289
0.32721	-0.12942
0.04670	0.22769
0.04670	1.57960
0.04670	1.22250
-0.13181	0.73785
0.07220	0.61031
0.12320	0.17668
0.22521	-0.25695
0.19971	-0.58856
0.14870	-0.69059
0.25071	-1.68539
0.19971	-0.07840
0.19971	0.94191
-0.02981	1.04394
0.14870	0.61031
0.02119	0.78886
-0.18282	-0.74160
0.04670	-0.84363
0.63323	0.32972
0.35272	0.68683
0.65874	0.48277
-0.00431	0.17668
-0.23382	0.20219
0.27621	0.30422
0.09770	0.22769
0.07220	0.15117
0.35272	0.07465
0.12320	0.15117
0.12320	-0.07840
0.17421	-0.76711
0.04670	-0.46102
-0.08081	0.40625
0.07220	0.83988
0.17421	-0.51203
-0.10631	0.27871
-0.00431	2.14077
0.22521	1.65613
0.22521	-1.09871
0.35272	-0.56305
0.27621	-1.53234
0.12320	-0.99668
0.07220	-0.15492
0.14870	1.45206
0.22521	1.86019
0.02119	0.71234
0.04670	-0.20594
0.25071	-0.58856
0.30171	-0.15492
0.30171	0.22769
0.19971	0.53379
-0.10631	-0.30797
-0.13181	0.17668
-0.00431	-0.28246
0.04670	0.02363
-0.02981	0.61031
0.14870	0.40625
0.30171	0.48277
0.17421	0.10015
0.42922	0.04914
0.48022	-0.00188
0.45472	-0.05289
0.32721	0.15117
0.19971	0.12566
-0.08081	0.15117
-0.71835	0.27871
-0.02981	-0.00188
0.14870	-0.20594
0.12320	0.35523
0.14870	0.07465
0.37822	0.10015
0.17421	0.32972
0.35272	0.35523
-0.02981	0.38074
0.09770	0.02363
0.04670	0.55929
0.02119	-0.15492
0.25071	0.07465
0.37822	-1.27726
0.19971	1.32453
0.27621	0.30422
0.30171	0.22769
0.14870	-0.58856
-0.08081	0.43176
-0.02981	0.76336
0.09770	0.63582
0.12320	-0.46102
0.17421	-0.25695
0.17421	-0.51203
0.27621	0.12566
0.27621	0.68683
0.22521	0.32972
0.12320	-0.38449
0.22521	0.27871
-0.05531	0.12566
0.22521	0.12566
-0.10631	0.30422
0.07220	0.15117
0.09770	0.12566
0.17421	0.55929
0.12320	0.25320
0.50573	-0.66508
0.04670	0.78886
0.35272	0.63582
0.37822	0.10015
-0.00431	0.04914
-0.00431	-0.15492
0.30171	0.04914
-0.05531	0.30422
0.27621	-0.74160
0.25071	-0.46102
0.14870	0.63582
0.17421	0.38074
0.14870	0.83988
0.14870	-0.56305
-0.05531	0.45726
0.14870	-0.07840
0.12320	0.58480
0.17421	2.06425
0.04670	-0.51203
0.04670	-1.32828
0.27621	-0.12942
0.02119	-1.14973
0.22521	0.78886
0.14870	1.57960
0.09770	1.12046
0.12320	-0.51203
0.25071	-0.00188
0.12320	0.27871
0.19971	0.12566
0.35272	-0.00188
0.25071	0.35523
-0.31033	0.25320
0.14870	-0.35899
0.14870	-0.33348
0.09770	-0.18043
0.35272	0.25320
0.22521	0.78886
0.09770	0.43176
-0.51434	1.01843
-0.00431	0.32972
0.50573	-1.12422
0.32721	-0.46102
0.55673	0.35523
0.32721	1.42656
0.14870	-0.07840
0.12320	-0.15492
0.09770	0.73785
-0.15732	-0.69059
-0.23382	-0.84363
0.14870	0.02363
0.12320	1.19699
0.17421	1.45206
0.12320	-0.02739
0.09770	-0.71609
0.07220	0.76336
0.12320	0.86539
0.22521	-0.84363
0.25071	-0.20594
0.12320	0.22769
0.19971	1.01843
0.37822	-1.17523
0.22521	-0.94566
0.14870	0.25320
0.17421	1.22250
0.14870	0.91640
-0.00431	0.15117
0.17421	-0.05289
0.07220	-0.18043
-0.08081	1.19699
0.04670	0.27871
0.22521	-0.38449
0.12320	-0.10391
-0.23382	0.45726
0.48022	0.17668
0.35272	0.20219
0.50573	0.12566
0.50573	0.10015
0.22521	-0.61406
0.09770	-0.12942
-0.23382	0.15117
0.27621	0.63582
0.09770	0.10015
0.02119	0.50828
0.07220	0.10015
0.17421	-0.46102
0.02119	0.04914
0.17421	0.86539
0.09770	0.32972
0.17421	-0.05289
0.25071	-0.12942
0.35272	0.25320
0.22521	0.99292
0.09770	-0.00188
0.04670	-0.28246
-0.18282	0.02363
-0.10631	0.94191
0.32721	1.42656
0.32721	-1.07320
0.32721	-2.45062
0.42922	-0.76711
0.12320	1.65613
0.22521	1.83468
0.35272	0.22769
0.04670	0.63582
-0.13181	-0.79262
0.02119	0.02363
0.14870	0.30422
0.19971	-0.30797
0.17421	-0.05289
0.19971	0.35523
0.12320	0.02363
0.12320	0.27871
0.17421	0.73785
0.07220	0.76336
0.09770	-0.25695
0.27621	-0.15492
0.32721	-0.23145
0.09770	-0.18043
-0.10631	-0.05289
0.02119	0.89089
0.25071	-0.07840
0.22521	0.02363
0.17421	0.20219
0.07220	0.15117
-0.02981	0.89089
-0.10631	-0.61406
0.17421	-0.69059
0.02119	0.45726
0.19971	1.01843
0.32721	0.81437
0.30171	0.68683
0.30171	-0.05289
0.07220	-0.79262
-0.02981	-0.33348
-0.02981	-0.20594
-0.02981	0.32972
0.09770	0.02363
0.12320	1.86019
0.07220	-0.35899
0.22521	-0.61406
0.50573	0.22769
0.25071	-0.02739
0.17421	0.45726
0.02119	0.63582
0.19971	0.48277
0.27621	0.55929
0.07220	-0.61406
-0.05531	-0.56305
-0.08081	0.25320
0.48022	-0.23145
0.50573	1.22250
0.12320	-0.10391
-0.00431	-0.53754
-0.31033	-0.35899
-0.00431	0.38074
0.09770	0.48277
-0.00431	0.76336
0.07220	0.12566
0.42922	-0.56305
0.55673	-0.10391
0.27621	0.25320
0.14870	0.15117
0.22521	0.35523
0.09770	0.27871
-0.00431	-0.46102
0.12320	0.45726
0.12320	0.63582
0.02119	0.35523
0.12320	-0.07840
0.22521	0.25320
0.12320	0.45726
-0.08081	-0.71609
0.02119	0.22769
0.09770	-0.53754
0.14870	0.32972
0.14870	-0.05289
0.27621	0.22769
0.32721	0.20219
0.30171	0.35523
0.17421	1.52859
0.07220	0.63582
0.14870	-0.30797
0.25071	0.40625
0.07220	-0.30797
0.09770	-0.51203
0.14870	0.07465
0.07220	0.30422
0.09770	-0.33348
0.40372	0.45726
0.32721	0.45726
0.17421	0.20219
-0.08081	0.04914
0.12320	0.20219
0.25071	0.04914
0.02119	0.25320
-0.13181	0.22769
0.09770	0.20219
0.32721	0.27871
0.40372	-0.05289
0.30171	-0.00188
0.32721	-0.02739
0.14870	-0.00188
0.04670	0.12566
0.19971	0.07465
0.09770	0.71234
0.12320	0.38074
0.02119	0.15117
-0.20832	0.04914
0.04670	0.20219
0.17421	-0.86914
0.12320	0.43176
0.12320	-0.23145
0.14870	-0.18043
0.32721	0.40625
0.19971	0.81437
0.17421	0.99292
0.17421	0.17668
-0.00431	-0.05289
0.22521	-0.07840
0.17421	-0.48652
0.19971	-0.25695
0.17421	0.07465
0.09770	-0.10391
0.02119	0.20219
-0.10631	0.61031
0.17421	1.14597
0.12320	1.06945
0.07220	-0.61406
0.04670	-0.41000
0.19971	-0.38449
0.50573	0.10015
0.30171	0.32972
0.30171	0.86539
0.27621	0.32972
0.12320	-0.15492
-0.23382	-0.25695
-0.05531	-0.38449
0.25071	0.22769
-0.18282	0.43176
0.42922	0.45726
0.07220	0.35523
0.32721	0.32972
0.12320	0.17668
0.14870	0.04914
0.19971	-0.28246
0.09770	1.19699
-0.05531	-0.02739
-0.28482	-0.99668
0.30171	-0.23145
0.32721	-0.30797
0.32721	1.65613
0.32721	0.04914
0.07220	-0.71609
0.17421	-0.28246
0.02119	0.66132
-0.20832	0.68683
0.42922	0.96742
0.19971	-0.07840
0.09770	0.10015
-0.13181	-0.41000
0.07220	-0.92016
0.35272	-0.05289
0.30171	1.29902
0.12320	-0.00188
0.14870	-0.25695
0.09770	0.10015
0.30171	0.45726
0.30171	0.96742
-0.05531	0.15117
0.12320	-0.05289
-0.33583	-0.12942
0.14870	0.10015
0.12320	0.27871
0.25071	0.38074
0.09770	0.10015
0.19971	-0.05289
-0.05531	0.04914
0.27621	0.07465
0.27621	-0.00188
0.35272	-0.61406
0.02119	0.04914
-0.20832	0.32972
0.19971	-0.00188
0.32721	-0.02739
0.25071	0.45726
0.17421	0.45726
0.09770	0.45726
0.07220	0.22769
0.09770	0.32972
0.14870	-0.10391
0.12320	-0.10391
0.32721	-0.25695
0.12320	0.35523
-0.00431	0.43176
0.07220	0.22769
0.27621	1.19699
0.14870	-2.01699
0.04670	-0.23145
-0.10631	1.68163
0.12320	0.43176
0.50573	-0.38449
0.40372	-0.35899
0.32721	-0.58856
0.12320	0.53379
0.04670	0.30422
-0.05531	-0.28246
0.02119	0.89089
-0.08081	-0.10391
-0.02981	0.07465
0.53123	0.78886
0.42922	-0.10391
0.22521	-0.20594
-0.00431	0.99292
-0.25932	0.15117
-0.69285	-0.10391
-0.00431	0.35523
0.53123	0.45726
0.58223	0.35523
0.42922	-0.23145
0.12320	-0.58856
0.40372	-0.07840
0.37822	0.27871
0.09770	0.25320
-0.15732	0.50828
-0.48884	0.10015
-0.15732	-0.30797
0.37822	0.81437
0.30171	0.68683
0.35272	-0.28246
0.27621	-0.89465
0.30171	0.50828
0.09770	-0.23145
-0.13181	0.25320
0.17421	0.94191
0.09770	0.86539
0.22521	-0.05289
0.27621	1.29902
0.12320	-0.89465
0.14870	-0.58856
0.09770	-0.43551
0.02119	0.10015
0.04670	0.10015
0.14870	0.89089
0.19971	-0.10391
0.02119	0.38074
0.19971	0.20219
0.35272	0.25320
0.37822	0.15117
0.30171	0.58480
0.19971	0.22769
0.14870	0.10015
-0.05531	0.17668
0.30171	0.48277
-0.28482	-0.00188
-0.00431	-0.35899
-0.08081	-0.07840
-0.02981	0.35523
0.09770	0.30422
0.32721	0.17668
0.68424	0.35523
0.04670	0.32972
0.25071	-0.33348
0.27621	-0.28246
0.30171	0.76336
0.04670	0.43176
-0.08081	-0.20594
-0.00431	-0.51203
0.02119	0.53379
0.07220	0.12566
0.12320	-0.12942
0.14870	-0.15492
0.07220	1.83468
0.04670	1.17148
0.22521	-0.53754
0.12320	0.04914
0.17421	0.02363
0.02119	-0.15492
0.14870	0.15117
0.30171	-0.76711
0.48022	-0.89465
0.32721	0.35523
0.09770	0.99292
-0.02981	0.10015
0.12320	0.12566
0.27621	1.27351
0.07220	0.81437
-0.08081	-0.05289
-0.02981	-0.51203
0.25071	0.10015
0.25071	-0.25695
0.32721	0.91640
0.14870	-0.48652
0.04670	-0.23145
0.17421	-0.69059
-0.08081	0.38074
0.14870	0.40625
-0.10631	0.58480
0.45472	0.86539
0.63323	0.53379
0.40372	0.04914
0.14870	-0.33348
0.09770	-0.38449
0.17421	0.43176
0.19971	0.38074
0.12320	-0.61406
-0.08081	0.63582
-0.15732	0.50828
-0.13181	0.12566
0.07220	-0.18043
0.50573	-0.99668
0.40372	-0.74160
0.22521	0.91640
0.09770	0.58480
0.09770	0.30422
0.22521	0.43176
0.07220	-0.00188
0.14870	0.22769
0.12320	-1.07320
0.27621	0.81437
0.22521	1.63062
0.02119	0.76336
0.17421	0.15117
0.27621	-0.10391
0.09770	-0.15492
0.02119	-0.07840
-0.28482	-0.41000
-0.28482	-0.25695
0.50573	-0.07840
0.48022	0.20219
0.19971	0.27871
0.25071	0.61031
0.27621	0.35523
0.32721	-0.00188
-0.08081	0.25320
-0.13181	0.40625
0.02119	0.50828
-0.10631	0.43176
0.42922	-1.12422
0.22521	0.04914
0.48022	0.50828
0.19971	0.27871
0.14870	0.10015
0.02119	0.07465
0.02119	-0.05289
0.14870	1.63062
0.02119	1.22250
0.12320	-0.99668
0.14870	-1.45582
0.12320	-0.28246
0.09770	1.01843
0.25071	0.35523
0.12320	-0.02739
0.19971	0.12566
0.22521	0.48277
0.14870	-0.05289
0.14870	0.04914
0.32721	-0.89465
0.25071	0.73785
-0.00431	0.50828
-0.23382	-0.00188
0.02119	-0.25695
0.40372	0.17668
0.35272	0.25320
0.22521	0.15117
0.22521	0.15117
0.19971	0.40625
0.25071	0.17668
-0.02981	0.38074
-0.00431	0.30422
0.07220	-0.18043
0.09770	-0.25695
0.12320	0.04914
0.35272	0.20219
0.19971	0.35523
0.22521	0.32972
0.27621	0.58480
0.12320	0.20219
-0.28482	-0.35899
-0.00431	0.12566
0.25071	0.86539
0.32721	0.27871
0.25071	-0.86914
0.45472	-0.12942
0.32721	-0.33348
0.17421	0.15117
0.14870	1.42656
-0.13181	1.14597
-0.25932	0.43176
-0.23382	-1.65988
0.25071	0.71234
0.42922	2.70194
0.45472	0.35523
0.37822	-1.20074
0.12320	-0.99668
0.04670	0.58480
-0.00431	-1.43031
0.12320	-0.84363
0.14870	0.61031
-0.31033	0.96742
0.12320	0.83988
0.40372	0.99292
0.42922	0.73785
0.30171	0.12566
0.09770	0.27871
0.02119	-0.20594
0.02119	-0.07840
-0.08081	-0.25695
0.35272	0.04914
0.35272	0.22769
0.19971	0.30422
0.14870	-0.63957
-0.20832	0.68683
0.35272	0.96742
0.40372	0.20219
0.09770	-0.30797
-0.18282	-0.18043
-0.41233	0.45726
-0.13181	-0.53754
0.30171	-0.63957
0.78624	0.04914
0.40372	0.86539
0.30171	0.89089
-0.08081	0.04914
-0.02981	0.40625
0.19971	0.58480
0.04670	0.38074
0.12320	-0.76711
0.07220	0.12566
0.02119	0.58480
0.14870	-0.12942
0.25071	-0.79262
0.12320	-0.25695
0.02119	0.76336
0.02119	0.73785
0.12320	-0.18043
-0.00431	-0.02739
0.17421	-0.02739
0.30171	0.17668
0.09770	0.22769
0.22521	-0.92016
0.17421	-0.10391
0.14870	0.83988
0.14870	0.07465
0.17421	-0.10391
-0.02981	0.96742
0.02119	1.12046
0.04670	0.73785
0.09770	0.25320
0.17421	-0.15492
0.27621	-0.25695
0.45472	-0.10391
0.35272	-0.20594
0.09770	-0.18043
-0.02981	0.55929
-0.05531	-0.10391
-0.46334	-0.25695
0.12320	-0.61406
0.40372	0.30422
0.42922	0.38074
0.25071	0.66132
0.22521	0.27871
0.17421	-0.00188
0.17421	0.40625
0.12320	0.40625
-0.23382	0.15117
0.12320	0.15117
0.27621	0.38074
0.04670	0.66132
0.12320	0.10015
0.12320	-0.38449
0.12320	-0.69059
0.17421	-0.48652
0.07220	0.73785
0.07220	1.73265
-0.02981	-1.91496
0.07220	-1.22625
0.12320	0.96742
0.27621	1.65613
0.27621	1.27351
0.19971	0.12566
0.27621	-0.20594
0.14870	-0.25695
0.09770	0.12566
0.07220	0.15117
0.17421	0.43176
0.07220	-0.30797
0.17421	-0.05289
0.35272	0.10015
0.19971	-0.10391
0.30171	0.15117
0.19971	0.43176
0.04670	0.27871
0.04670	0.12566
0.09770	0.35523
0.14870	0.12566
0.02119	0.30422
0.17421	0.32972
0.02119	0.22769
-0.02981	0.35523
0.22521	0.15117
0.32721	-0.02739
0.45472	-0.53754
0.40372	-0.23145
0.25071	0.20219
0.09770	0.61031
0.07220	0.66132
0.04670	0.25320
-0.08081	-0.18043
0.04670	-0.23145
0.02119	-0.92016
0.04670	0.61031
0.12320	1.37554
0.22521	0.12566
0.22521	-0.25695
0.02119	0.40625
0.09770	-0.43551
0.27621	0.38074
0.37822	-0.02739
0.35272	0.17668
0.19971	0.30422
0.17421	0.43176
0.17421	0.15117
0.04670	-0.35899
0.02119	0.53379
-0.00431	0.94191
0.12320	0.22769
0.22521	-0.25695
0.17421	-0.25695
0.12320	-0.28246
0.30171	0.12566
0.19971	0.35523
0.14870	0.78886
0.17421	-0.15492
0.09770	-0.02739
-0.36133	0.22769
0.19971	0.48277
0.22521	0.86539
0.25071	-0.02739
0.22521	-0.48652
0.19971	-0.15492
0.09770	0.12566
0.12320	0.30422
0.22521	0.02363
0.12320	-0.07840
0.09770	-0.30797
0.30171	0.83988
0.17421	1.17148
0.09770	0.63582
-0.18282	0.63582
0.09770	-0.02739
0.17421	-1.17523
0.22521	-0.76711
0.32721	-0.66508
0.32721	0.30422
0.27621	0.81437
0.12320	1.32453
0.07220	1.91120
0.19971	-1.45582
0.19971	-1.40480
0.14870	-0.53754
0.14870	0.68683
0.12320	0.81437
0.02119	0.83988
0.07220	0.17668
0.14870	0.12566
0.12320	0.04914
0.19971	0.20219
0.40372	0.07465
-0.13181	-0.33348
-0.15732	0.25320
0.22521	0.15117
0.19971	0.45726
0.09770	-0.07840
0.50573	0.17668
0.42922	0.22769
-0.13181	-0.41000
-0.20832	-0.63957
0.12320	0.94191
0.30171	0.91640
0.30171	0.78886
0.32721	-0.28246
0.19971	-0.86914
0.14870	-0.15492
-0.15732	0.32972
0.14870	0.35523
0.22521	-0.33348
0.09770	0.86539
0.12320	0.32972
0.32721	0.66132
0.17421	0.68683
0.19971	-1.63437
0.25071	-0.81812
0.09770	0.15117
-0.00431	-0.63957
0.04670	1.35003
0.12320	1.78367
0.27621	0.30422
0.17421	-0.00188
0.09770	0.22769
0.30171	0.86539
0.14870	-0.41000
0.19971	-0.43551
0.32721	-0.48652
0.19971	-0.56305
0.09770	0.17668
0.07220	0.35523
-0.00431	0.76336
0.12320	-0.33348
-0.02981	-0.02739
0.25071	0.35523
0.35272	0.40625
0.27621	0.30422
0.12320	0.17668
-0.13181	-0.23145
-0.18282	-0.02739
0.22521	1.45206
0.42922	-0.25695
0.30171	-0.89465
0.40372	-0.00188
0.19971	1.04394
-0.10631	-0.00188
0.07220	-0.00188
0.02119	0.32972
0.04670	0.35523
0.22521	0.53379
0.07220	-0.15492
-0.18282	0.66132
0.17421	0.40625
0.17421	-0.00188
0.27621	-0.92016
0.25071	-0.92016
0.30171	-1.12422
0.19971	1.29902
0.04670	1.98773
0.07220	0.71234
0.02119	-0.43551
0.19971	0.38074
0.30171	0.04914
0.17421	-0.81812
0.22521	0.22769
0.09770	0.25320
0.12320	1.04394
0.12320	-0.74160
-0.02981	-0.71609
0.12320	0.22769
0.04670	0.45726
0.30171	0.58480
0.32721	1.14597
0.19971	0.27871
0.27621	-0.10391
0.04670	-0.18043
-0.08081	0.17668
-0.00431	0.10015
-0.00431	0.55929
0.42922	0.48277
0.07220	-0.12942
0.17421	0.27871
0.37822	0.38074
0.02119	0.17668
0.04670	0.30422
0.35272	-0.46102
0.19971	-0.92016
0.30171	-0.07840
0.07220	0.35523
0.14870	0.45726
0.09770	0.32972
0.12320	0.25320
0.04670	0.22769
0.02119	-0.15492
-0.05531	-0.05289
0.17421	0.86539
0.22521	0.89089
0.12320	-0.74160
0.25071	-0.71609
0.14870	1.63062
0.09770	-0.20594
0.14870	-0.20594
-0.00431	-0.25695
-0.02981	0.86539
0.40372	-1.07320
0.50573	-0.20594
0.45472	1.01843
0.14870	0.50828
0.07220	0.07465
-0.05531	0.15117
-0.05531	0.50828
0.14870	0.02363
0.25071	-0.15492
0.04670	-0.28246
0.37822	-0.10391
0.17421	0.35523
-0.13181	0.04914
-0.25932	0.20219
0.37822	-0.53754
0.04670	-0.43551
0.02119	0.89089
0.19971	1.17148
0.19971	-0.02739
0.12320	0.58480
0.37822	0.35523
0.22521	-0.00188
0.27621	-0.66508
0.14870	-0.46102
-0.28482	-0.28246
-0.28482	0.20219
0.12320	1.24800
0.30171	-0.20594
0.32721	-0.20594
0.35272	0.10015
0.12320	0.12566
0.12320	0.04914
0.27621	0.76336
0.25071	0.73785
0.07220	0.25320
0.09770	0.04914
0.07220	0.17668
0.04670	0.43176
0.09770	-1.14973
-0.05531	-0.23145
0.22521	0.20219
0.35272	0.73785
0.12320	0.38074
0.04670	0.43176
0.04670	0.22769
-0.00431	0.04914
0.14870	-0.10391
0.22521	0.50828
0.19971	0.10015
0.19971	0.40625
0.32721	0.20219
0.09770	-0.35899
