0.19971	0.27871
0.14870	0.04914
0.02119	-0.00188
0.19971	0.15117
0.12320	0.32972
0.02119	0.12566
0.17421	-0.00188
0.17421	0.30422
0.22521	0.32972
0.22521	0.10015
0.17421	-0.02739
0.07220	0.12566
0.09770	0.12566
0.17421	0.17668
0.17421	0.15117
0.12320	0.17668
0.12320	0.15117
0.30171	0.12566
0.14870	0.15117
0.02119	0.30422
0.09770	0.25320
0.25071	0.07465
0.14870	0.02363
0.12320	0.17668
0.17421	0.02363
0.17421	-0.00188
0.17421	0.17668
0.09770	0.15117
0.19971	0.17668
0.22521	0.40625
0.14870	0.22769
0.04670	-0.05289
0.19971	0.25320
0.19971	0.45726
0.04670	0.02363
0.12320	-0.02739
0.07220	0.15117
0.07220	-0.23145
0.32721	-0.00188
0.19971	0.04914
0.12320	0.30422
0.22521	0.55929
0.22521	0.27871
0.07220	-0.05289
0.04670	0.10015
-0.08081	-0.07840
0.22521	0.04914
0.17421	0.61031
0.22521	0.27871
0.30171	0.04914
0.25071	-0.12942
0.04670	0.12566
0.07220	-0.18043
0.12320	0.04914
-0.00431	-0.10391
0.14870	0.63582
0.19971	0.27871
0.12320	0.40625
0.09770	0.02363
0.19971	0.12566
0.14870	-0.33348
0.19971	-0.02739
-0.00431	0.20219
-0.08081	0.73785
0.12320	0.53379
0.19971	0.22769
0.30171	0.32972
0.17421	-0.15492
-0.02981	-0.10391
0.02119	-0.00188
0.19971	-0.20594
0.12320	-0.43551
0.30171	0.12566
0.30171	-0.02739
0.19971	-0.25695
0.22521	0.58480
0.32721	0.71234
0.04670	0.73785
0.12320	0.55929
-0.08081	0.35523
0.17421	-0.33348
0.25071	-0.02739
0.12320	0.20219
-0.28482	-0.10391
-0.61635	-0.30797
-0.15732	0.22769
0.60773	0.76336
0.70974	-0.07840
0.65874	-0.25695
0.37822	0.32972
0.42922	0.27871
0.09770	-0.12942
-0.00431	-0.05289
-0.10631	0.45726
-0.43783	0.25320
-0.13181	0.25320
0.02119	-0.00188
0.25071	-0.05289
0.32721	0.63582
0.42922	-0.07840
0.45472	-0.51203
0.12320	-0.25695
-0.00431	1.24800
0.12320	1.24800
0.07220	-0.05289
0.02119	-0.48652
0.07220	-0.02739
0.17421	-0.15492
0.17421	-0.51203
0.32721	0.50828
0.32721	0.32972
0.45472	0.17668
-0.23382	0.50828
-0.31033	0.04914
0.07220	-0.28246
0.22521	-0.07840
0.40372	0.04914
0.70974	0.15117
0.19971	0.20219
-0.10631	0.02363
0.09770	0.32972
-0.79486	1.14597
0.53123	0.15117
0.91375	-0.25695
-1.35589	0.10015
0.65874	0.10015
-0.36133	0.12566
0.32721	0.02363
0.32721	0.04914
0.48022	0.17668
0.76074	0.02363
0.58223	-0.00188
0.14870	1.24800
0.07220	1.22250
0.02119	-0.25695
0.17421	-1.43031
-0.00431	-0.58856
-0.10631	-0.38449
0.12320	-0.61406
0.02119	0.53379
0.07220	1.17148
0.09770	1.35003
-0.15732	-0.86914
-0.02981	-0.79262
0.12320	-0.38449
0.19971	-0.12942
0.35272	0.50828
0.32721	0.71234
0.32721	0.68683
0.32721	1.06945
0.19971	0.94191
0.25071	-0.18043
0.17421	0.22769
0.09770	-0.25695
0.07220	-0.46102
0.12320	-0.53754
0.04670	0.38074
0.14870	0.48277
0.02119	0.32972
-0.20832	0.12566
0.35272	-0.05289
0.35272	0.12566
0.27621	0.12566
0.12320	-0.15492
0.48022	-0.18043
-0.53984	0.35523
0.12320	0.40625
0.12320	-0.00188
-0.00431	-0.00188
0.63323	0.22769
0.58223	0.53379
-0.28482	0.43176
0.09770	-0.05289
0.27621	-0.35899
0.22521	0.22769
0.32721	0.53379
-0.13181	0.86539
-0.10631	-0.86914
0.04670	-0.33348
0.22521	1.63062
0.22521	1.12046
0.22521	0.10015
0.09770	-0.35899
-0.00431	-0.63957
0.02119	-0.02739
-0.08081	-0.15492
0.12320	0.17668
0.22521	-0.66508
0.32721	0.17668
0.35272	0.53379
0.25071	0.43176
0.14870	0.17668
0.19971	0.30422
0.14870	0.35523
0.07220	0.22769
0.12320	0.27871
0.09770	0.10015
0.07220	0.25320
0.04670	0.22769
0.12320	0.10015
0.27621	0.04914
0.42922	0.04914
0.12320	0.22769
-0.08081	0.40625
0.37822	-0.15492
-0.64185	0.10015
0.86275	-0.05289
0.35272	-0.38449
-0.74385	0.30422
0.96476	1.24800
0.53123	0.15117
0.37822	-0.38449
0.14870	-0.25695
0.32721	-0.41000
-0.23382	0.43176
0.17421	0.48277
0.27621	-0.35899
0.42922	-0.23145
-0.00431	0.89089
-0.00431	1.01843
0.09770	0.81437
0.09770	-0.41000
0.07220	-1.78742
0.17421	-0.38449
0.09770	0.45726
0.04670	0.25320
0.19971	0.55929
0.17421	0.50828
0.25071	0.81437
0.22521	0.53379
0.30171	-0.97117
0.17421	0.81437
0.12320	0.40625
0.25071	0.07465
0.17421	-0.71609
0.02119	-0.00188
-0.02981	-0.10391
0.27621	-0.02739
0.25071	0.04914
0.37822	0.76336
0.22521	0.04914
0.14870	-0.00188
0.07220	0.48277
-0.38683	0.38074
-0.28482	0.15117
0.63323	-0.63957
0.32721	0.04914
0.09770	0.22769
-0.08081	0.45726
0.27621	0.04914
0.09770	0.04914
-0.28482	0.81437
0.25071	0.20219
0.42922	0.15117
0.32721	0.25320
0.45472	0.04914
0.02119	-0.81812
0.25071	0.40625
0.30171	0.22769
0.19971	0.22769
-0.20832	1.01843
-0.08081	-0.12942
-0.18282	-0.92016
0.02119	0.22769
-0.02981	0.55929
0.14870	0.35523
0.48022	-0.30797
0.42922	-0.48652
0.32721	-0.02739
0.25071	0.45726
0.25071	0.96742
0.04670	0.78886
0.12320	-0.20594
0.02119	-0.10391
-0.10631	0.02363
-0.23382	-0.23145
0.22521	0.25320
0.48022	0.17668
0.32721	0.10015
0.25071	0.07465
-0.23382	-0.07840
-0.00431	0.63582
0.48022	0.89089
0.42922	0.50828
0.68424	-0.25695
0.12320	-0.35899
-0.99887	-0.79262
-0.82036	-0.51203
0.14870	0.66132
0.37822	0.71234
0.42922	-0.46102
0.70974	-1.20074
0.73524	0.20219
0.30171	1.68163
0.07220	1.22250
-0.08081	-0.71609
0.02119	0.58480
-0.00431	-0.23145
0.02119	-0.41000
-0.02981	-0.25695
0.09770	0.10015
0.04670	0.66132
0.07220	0.25320
-0.08081	0.66132
0.19971	-0.10391
0.17421	-0.05289
-0.00431	-0.05289
0.04670	0.25320
0.25071	-0.25695
0.37822	-0.35899
0.45472	0.38074
0.12320	0.91640
0.12320	0.27871
0.14870	-0.43551
0.17421	-0.25695
0.17421	0.48277
0.27621	0.55929
0.12320	0.43176
0.04670	-0.00188
0.19971	0.35523
0.63323	-0.56305
0.04670	-0.33348
0.27621	-0.30797
-0.66735	0.61031
-0.10631	0.55929
0.22521	0.38074
0.17421	0.02363
0.17421	0.15117
0.65874	0.12566
-0.20832	0.53379
-0.00431	-0.51203
0.30171	-0.00188
0.12320	0.07465
0.35272	0.35523
0.22521	0.61031
0.12320	-0.41000
0.14870	0.55929
0.09770	-0.66508
0.14870	0.83988
0.07220	1.04394
-0.00431	0.50828
0.14870	0.81437
0.17421	-0.18043
0.09770	-0.89465
0.14870	-0.97117
0.02119	-0.74160
-0.02981	0.38074
-0.00431	0.89089
0.14870	0.35523
0.19971	0.30422
0.42922	0.35523
0.30171	0.35523
0.14870	0.30422
0.32721	0.07465
0.04670	-0.12942
0.02119	-0.33348
-0.15732	0.25320
-0.05531	0.50828
0.42922	0.83988
0.50573	0.22769
0.73524	-0.07840
-1.10088	0.40625
-0.71835	0.22769
0.55673	-0.25695
0.17421	-0.63957
0.22521	-0.20594
0.78624	0.04914
0.65874	0.43176
-0.15732	0.76336
0.78624	1.45206
0.17421	0.61031
-0.08081	-0.28246
-0.15732	-0.25695
-0.28482	-0.10391
0.14870	-0.43551
0.07220	-1.17523
0.07220	0.07465
0.07220	0.40625
-0.02981	-0.41000
0.02119	0.55929
0.32721	0.81437
0.12320	0.43176
0.22521	0.58480
0.30171	0.02363
0.19971	0.71234
0.07220	0.50828
0.02119	0.15117
0.27621	-0.41000
0.37822	0.17668
0.09770	0.76336
0.48022	0.15117
0.17421	-0.46102
-0.23382	-0.38449
-0.23382	-0.23145
0.45472	-0.10391
0.40372	0.32972
-0.05531	0.58480
-0.43783	0.32972
0.53123	0.25320
0.68424	0.12566
0.19971	-0.00188
0.60773	0.20219
0.99026	0.35523
-0.10631	-0.38449
0.02119	1.27351
-0.59084	0.99292
-0.20832	-0.81812
0.27621	0.43176
0.35272	0.20219
0.02119	-0.25695
0.19971	0.48277
0.12320	-0.20594
0.22521	-0.10391
0.17421	-0.46102
0.07220	-0.58856
0.12320	-0.35899
0.07220	0.40625
0.19971	0.43176
0.19971	0.45726
0.22521	1.04394
0.32721	0.76336
0.12320	0.48277
0.14870	0.02363
0.07220	0.07465
0.02119	-0.12942
0.12320	-0.10391
0.17421	0.07465
0.19971	-0.35899
0.14870	-0.46102
-0.08081	0.96742
-0.08081	1.09496
0.14870	0.02363
0.32721	-0.25695
0.09770	0.07465
0.35272	-0.51203
0.40372	-0.35899
0.37822	0.30422
-0.33583	0.50828
0.07220	0.25320
0.09770	-0.02739
0.32721	0.40625
0.42922	0.25320
0.30171	0.38074
-0.13181	1.47757
-0.51434	0.25320
-0.02981	-0.84363
0.32721	-0.58856
0.32721	-0.33348
0.32721	0.32972
0.32721	0.20219
0.30171	0.55929
0.14870	0.25320
0.07220	-0.00188
0.07220	-0.18043
0.02119	0.02363
-0.10631	0.27871
0.02119	0.58480
0.22521	0.45726
0.22521	0.12566
0.25071	-0.00188
0.19971	-0.02739
0.35272	-0.10391
0.45472	0.45726
0.32721	0.71234
0.07220	0.22769
-0.31033	0.20219
-0.41233	-0.35899
0.14870	-0.05289
0.45472	0.02363
0.58223	0.04914
0.22521	0.20219
0.32721	-0.12942
0.30171	-0.07840
0.04670	0.40625
0.14870	0.43176
-0.18282	0.45726
-0.38683	0.25320
0.32721	0.10015
0.32721	-0.02739
0.35272	0.04914
0.27621	0.02363
-0.08081	-0.00188
0.07220	0.45726
0.19971	0.86539
0.17421	-0.33348
-0.05531	-0.81812
-0.18282	-0.33348
0.27621	-0.10391
0.40372	0.15117
0.42922	0.63582
0.07220	1.01843
0.30171	-0.02739
0.14870	-0.15492
0.04670	0.66132
0.17421	0.00000
0.02119	0.00000
0.27621	0.00000
-0.02981	0.00000
0.02119	0.00000
-0.00431	0.00000
0.19971	0.22769
0.37822	-0.12942
0.12320	0.15117
-0.15732	0.12566
0.30171	-0.23145
0.27621	0.58480
0.25071	0.25320
0.17421	0.04914
-0.02981	0.40625
0.02119	0.38074
0.12320	-0.20594
0.02119	-0.51203
0.22521	-0.05289
0.19971	-0.05289
0.07220	-0.25695
0.30171	0.38074
0.07220	0.99292
0.22521	0.86539
0.04670	0.25320
-0.48884	-0.43551
0.22521	-0.51203
0.19971	-0.25695
0.42922	0.30422
0.37822	0.30422
0.17421	0.45726
0.22521	0.50828
0.09770	-0.02739
0.09770	0.61031
-0.23382	-0.76711
0.19971	-0.15492
0.42922	0.58480
0.22521	-0.00188
0.37822	-0.00188
0.07220	-0.38449
0.07220	0.78886
0.09770	1.86019
0.09770	0.22769
0.25071	-0.89465
0.25071	-0.76711
0.09770	-0.20594
0.19971	-0.07840
0.09770	0.32972
0.04670	0.45726
-0.02981	0.66132
0.02119	0.38074
0.02119	0.25320
0.40372	0.25320
0.27621	0.02363
-0.13181	-0.30797
0.19971	0.02363
0.30171	0.32972
0.19971	0.25320
0.22521	0.10015
0.14870	-0.05289
-0.02981	-0.00188
0.09770	0.32972
0.19971	0.78886
0.40372	0.35523
0.48022	-0.43551
0.02119	-0.10391
-0.18282	-0.35899
-0.51434	0.12566
0.14870	-0.33348
0.35272	0.68683
0.27621	0.25320
0.22521	0.15117
0.22521	0.68683
0.19971	0.96742
0.12320	0.27871
0.07220	-0.18043
0.12320	-0.48652
-0.10631	-0.43551
0.04670	0.07465
0.19971	0.15117
0.25071	0.76336
0.22521	-0.23145
0.14870	0.15117
0.14870	-0.00188
-0.02981	0.02363
0.09770	0.32972
0.19971	0.04914
0.35272	-0.05289
0.27621	0.12566
0.42922	-0.10391
0.14870	0.25320
-0.05531	0.68683
-0.10631	0.58480
0.30171	0.20219
0.09770	0.20219
-0.23382	0.02363
0.83725	0.02363
0.53123	-0.10391
-0.08081	-0.07840
-0.36133	0.04914
0.04670	0.27871
0.07220	0.17668
0.37822	0.04914
0.27621	0.10015
0.42922	-0.02739
-0.00431	0.20219
0.22521	0.30422
0.42922	0.40625
0.12320	0.43176
0.12320	0.07465
0.09770	0.17668
-0.15732	0.27871
-0.00431	-0.18043
0.02119	-0.07840
0.22521	0.27871
0.27621	0.40625
0.27621	0.38074
0.17421	-0.53754
0.22521	-0.15492
0.14870	0.02363
0.09770	0.15117
0.14870	0.30422
0.04670	0.17668
0.17421	0.25320
0.04670	0.45726
0.02119	0.40625
0.48022	0.12566
0.40372	0.07465
0.27621	0.07465
0.17421	0.12566
-0.02981	0.04914
0.22521	0.22769
-0.10631	0.58480
-0.00431	-0.12942
-0.18282	-0.25695
0.60773	0.07465
0.42922	0.04914
0.53123	0.43176
-0.10631	0.35523
-0.13181	0.04914
-0.28482	0.10015
-0.43783	0.10015
0.45472	-0.05289
0.30171	0.15117
0.32721	0.10015
0.68424	0.43176
-0.33583	-0.18043
-0.08081	-0.10391
0.25071	0.40625
0.22521	0.30422
0.12320	-0.05289
-0.13181	0.22769
0.09770	0.30422
0.27621	0.50828
0.12320	0.10015
0.17421	0.07465
0.32721	-0.07840
0.22521	0.25320
0.22521	0.20219
-0.02981	-0.38449
-0.05531	0.04914
0.14870	0.02363
0.19971	0.32972
0.37822	1.12046
0.27621	0.04914
0.07220	-0.02739
0.07220	0.02363
0.02119	-0.00188
0.07220	0.20219
0.32721	0.22769
0.32721	-0.02739
0.22521	0.45726
0.09770	0.53379
-0.05531	0.20219
0.40372	0.04914
-0.31033	-0.05289
0.14870	-0.46102
0.37822	-0.07840
0.35272	0.32972
0.17421	0.15117
0.12320	0.27871
0.14870	0.48277
0.02119	0.07465
-0.00431	-0.41000
0.14870	0.22769
0.12320	0.35523
0.12320	-0.15492
0.04670	-0.48652
0.19971	0.32972
0.09770	0.89089
0.09770	0.81437
0.09770	-0.15492
0.14870	-0.07840
0.14870	0.12566
0.22521	0.20219
0.25071	-0.38449
0.37822	-0.28246
0.12320	-0.02739
0.07220	-0.07840
0.25071	0.10015
0.19971	0.45726
-0.10631	0.61031
0.27621	0.63582
0.19971	0.22769
0.17421	-0.00188
-0.15732	0.10015
0.14870	-0.00188
-0.02981	0.25320
0.12320	0.10015
0.42922	0.10015
0.50573	0.02363
0.55673	-0.05289
0.04670	0.20219
-0.43783	0.04914
0.04670	0.07465
0.22521	0.15117
0.19971	0.10015
0.32721	0.02363
0.12320	0.25320
-0.05531	-0.05289
0.07220	0.25320
-0.05531	0.35523
-0.05531	0.53379
0.17421	0.61031
0.25071	-0.20594
0.14870	-0.07840
0.35272	-0.25695
0.12320	0.27871
0.09770	0.40625
0.12320	-0.00188
0.09770	0.20219
0.12320	-0.00188
0.27621	-0.02739
0.09770	-0.05289
0.07220	-0.35899
0.07220	-0.28246
0.27621	0.07465
0.12320	0.04914
0.04670	0.30422
0.19971	0.91640
0.14870	0.55929
0.22521	0.35523
-0.10631	0.12566
-0.20832	-0.00188
0.04670	0.15117
0.19971	-0.05289
0.30171	-0.02739
0.50573	0.17668
0.32721	0.12566
0.37822	-0.18043
0.14870	0.20219
-0.43783	0.43176
0.17421	0.30422
-0.00431	-0.05289
0.12320	-0.05289
0.27621	0.20219
0.09770	-0.41000
0.09770	-0.30797
0.50573	1.27351
0.12320	1.14597
0.02119	0.15117
0.04670	-0.07840
0.04670	-0.43551
0.07220	-0.18043
0.37822	0.35523
0.32721	0.20219
0.27621	-0.28246
-0.23382	-0.25695
-0.08081	0.68683
0.37822	0.53379
0.27621	0.66132
0.09770	0.27871
0.14870	-0.48652
0.19971	-0.20594
0.09770	-0.05289
0.07220	0.58480
0.22521	0.76336
0.25071	-0.15492
0.14870	-0.07840
-0.02981	0.22769
0.14870	0.04914
0.09770	-0.10391
0.22521	0.02363
0.12320	0.71234
0.22521	0.48277
0.12320	-0.20594
0.12320	-0.18043
0.19971	0.10015
0.09770	0.30422
0.17421	0.25320
0.19971	0.12566
0.12320	0.15117
0.35272	0.25320
-0.00431	0.20219
-0.05531	-0.43551
0.02119	0.55929
0.12320	0.25320
0.22521	-0.15492
0.02119	0.32972
0.17421	0.66132
0.32721	1.14597
0.30171	0.07465
0.25071	-0.05289
0.19971	-0.66508
0.07220	-1.25176
0.12320	-0.48652
0.22521	0.38074
0.12320	0.53379
-0.00431	0.35523
-0.00431	0.15117
0.09770	0.27871
0.12320	-0.05289
0.04670	0.07465
0.12320	0.48277
0.45472	0.76336
0.27621	0.50828
-0.10631	-0.12942
0.04670	-0.15492
-0.00431	0.15117
0.42922	0.15117
0.37822	0.25320
0.19971	0.07465
0.37822	0.20219
0.12320	0.17668
-0.00431	-0.12942
-0.25932	-0.02739
0.22521	-0.12942
0.09770	0.38074
0.17421	0.07465
0.17421	0.25320
0.50573	-0.25695
0.09770	0.17668
0.02119	0.22769
0.12320	0.68683
0.02119	0.58480
-0.00431	0.73785
0.32721	-0.38449
0.22521	-0.84363
0.02119	0.27871
-0.05531	0.38074
-0.00431	-0.35899
0.14870	-0.61406
0.14870	0.91640
0.19971	0.30422
0.32721	0.20219
0.32721	0.22769
0.12320	-0.12942
0.09770	-0.00188
0.09770	-0.15492
0.12320	0.12566
0.07220	0.12566
0.12320	-0.02739
0.19971	0.71234
0.30171	0.99292
0.35272	0.40625
-0.00431	-0.02739
0.07220	-0.07840
0.09770	-0.41000
-0.23382	-0.41000
-0.41233	0.25320
0.40372	0.58480
0.48022	0.22769
0.17421	0.20219
0.48022	0.12566
0.12320	0.07465
0.27621	0.04914
-0.25932	0.15117
0.09770	-0.12942
0.02119	0.30422
0.45472	0.63582
-0.18282	0.20219
-0.00431	-0.02739
0.04670	-0.33348
0.07220	0.25320
0.27621	0.38074
0.14870	0.20219
0.37822	-0.20594
0.32721	-0.12942
0.22521	0.04914
0.04670	0.32972
0.04670	0.38074
0.04670	-0.02739
-0.00431	0.76336
0.27621	0.43176
0.25071	0.32972
0.09770	-0.00188
0.27621	-0.81812
0.02119	-0.58856
0.12320	0.48277
0.17421	0.35523
0.25071	0.38074
0.22521	0.91640
0.02119	0.61031
-0.20832	0.22769
0.07220	-0.30797
0.35272	-0.46102
0.42922	0.17668
0.22521	0.48277
0.19971	0.35523
-0.05531	-0.25695
0.27621	-0.25695
0.25071	0.17668
-0.15732	0.35523
-0.20832	0.25320
0.37822	0.25320
0.45472	0.15117
0.22521	-0.20594
0.17421	0.02363
0.09770	0.30422
0.09770	0.17668
-0.05531	0.25320
-0.08081	0.20219
0.09770	0.27871
0.09770	0.38074
0.04670	0.20219
0.25071	-0.07840
0.40372	-0.05289
0.22521	-0.58856
0.12320	-0.71609
0.07220	0.78886
0.14870	1.65613
0.17421	1.50308
0.14870	-0.23145
0.32721	-0.51203
0.14870	-0.56305
-0.00431	-0.48652
0.17421	-0.10391
0.37822	-0.15492
0.30171	-0.25695
0.32721	0.43176
0.17421	0.50828
-0.05531	0.40625
-0.02981	0.40625
-0.36133	0.35523
0.32721	0.55929
0.27621	0.76336
0.22521	-0.10391
0.22521	-0.38449
0.42922	-0.05289
0.17421	0.12566
0.14870	0.07465
0.04670	0.07465
-0.00431	0.04914
0.17421	0.17668
0.17421	0.15117
0.22521	0.10015
0.30171	-0.00188
0.12320	-0.25695
0.02119	0.22769
0.07220	0.27871
0.04670	-0.05289
0.14870	0.58480
0.07220	0.38074
0.25071	-0.18043
0.27621	0.63582
0.12320	0.86539
0.22521	-0.12942
0.27621	-0.10391
0.04670	-0.25695
0.09770	0.30422
0.12320	0.04914
0.22521	0.32972
0.07220	-0.25695
-0.10631	0.07465
0.27621	-0.02739
0.22521	0.10015
0.07220	0.07465
0.12320	0.02363
0.19971	0.50828
0.45472	0.58480
0.19971	0.45726
0.14870	0.45726
-0.10631	0.35523
0.07220	0.07465
-0.02981	0.07465
-0.10631	-0.00188
0.35272	-0.25695
0.91375	-0.23145
-0.46334	0.04914
0.14870	0.27871
0.35272	0.40625
0.12320	0.38074
0.19971	-0.15492
0.27621	0.66132
0.09770	-0.33348
0.27621	-0.43551
0.14870	-0.38449
-0.02981	0.20219
0.17421	1.45206
0.09770	0.17668
0.09770	0.07465
-0.15732	0.20219
-0.00431	-0.05289
-0.05531	-0.35899
0.14870	0.02363
0.30171	-0.05289
0.37822	0.17668
0.37822	0.96742
0.30171	-0.28246
0.14870	-0.71609
0.14870	0.55929
-0.05531	0.30422
-0.00431	-0.23145
0.17421	-0.05289
0.40372	0.45726
0.35272	0.30422
0.25071	0.20219
-0.00431	0.20219
-0.28482	0.35523
-0.08081	0.35523
0.04670	0.17668
-0.00431	0.10015
0.09770	0.10015
0.37822	0.22769
0.55673	0.20219
0.83725	0.12566
0.73524	-0.28246
-1.20288	-0.10391
-0.08081	0.17668
0.32721	0.04914
0.58223	-0.28246
0.45472	0.22769
0.27621	0.43176
0.30171	0.25320
-0.00431	0.17668
-0.08081	0.20219
0.09770	-0.12942
0.09770	0.61031
0.07220	0.55929
-0.00431	-0.38449
-0.02981	-0.86914
-0.00431	0.86539
0.14870	1.52859
0.22521	-0.30797
0.17421	-0.69059
0.17421	0.15117
0.30171	-0.18043
0.12320	0.04914
0.12320	0.07465
0.19971	0.02363
0.12320	-0.46102
0.17421	0.55929
0.19971	1.01843
0.27621	0.76336
0.27621	-0.00188
0.22521	-0.38449
0.09770	0.02363
-0.23382	0.07465
-0.00431	0.20219
0.37822	0.50828
0.19971	0.48277
-0.33583	-0.07840
-0.38683	0.02363
0.37822	0.20219
0.70974	-0.18043
0.58223	-0.10391
0.45472	-0.07840
0.35272	-0.10391
-0.15732	0.10015
-0.38683	0.35523
0.07220	0.48277
-0.10631	0.22769
0.07220	0.25320
0.27621	0.10015
0.22521	-0.25695
0.30171	-0.38449
0.12320	0.32972
0.14870	0.86539
0.12320	0.25320
0.09770	-0.94566
0.07220	0.10015
0.07220	1.65613
0.07220	0.99292
0.19971	0.07465
0.30171	-0.66508
0.19971	-1.02219
0.14870	-0.10391
0.22521	0.12566
-0.00431	-0.07840
0.14870	-0.23145
0.14870	0.12566
0.22521	-0.05289
0.17421	0.40625
0.04670	0.68683
0.07220	0.73785
0.27621	0.27871
-0.08081	0.04914
0.12320	0.22769
0.04670	0.17668
0.60773	0.15117
0.48022	0.15117
0.40372	0.17668
-0.02981	0.17668
-0.23382	0.02363
-0.13181	-0.07840
0.14870	-0.25695
0.12320	-0.18043
0.12320	-0.20594
0.25071	0.20219
0.27621	0.38074
0.14870	0.22769
0.04670	0.15117
0.19971	0.63582
0.07220	0.83988
0.17421	0.50828
0.12320	0.02363
0.17421	-0.07840
0.17421	-0.71609
0.02119	-0.20594
0.04670	0.38074
0.22521	0.22769
0.04670	-0.25695
0.02119	0.20219
0.17421	0.43176
0.19971	0.20219
0.25071	0.15117
0.12320	0.25320
0.19971	0.02363
0.22521	0.35523
0.14870	0.15117
0.12320	0.04914
0.22521	0.10015
0.12320	0.66132
0.12320	0.32972
0.35272	-0.35899
-0.00431	-0.02739
-0.00431	0.07465
-0.10631	-0.02739
-0.20832	-0.05289
0.27621	0.27871
0.70974	0.38074
-0.10631	0.27871
0.04670	0.27871
0.63323	0.25320
0.53123	0.15117
0.30171	-0.02739
0.12320	-0.23145
0.19971	-0.07840
-0.20832	0.63582
-0.08081	0.22769
0.02119	-0.10391
-0.05531	-0.07840
-0.00431	0.22769
0.12320	0.53379
0.25071	0.35523
0.27621	0.22769
0.30171	0.38074
0.17421	-0.71609
0.14870	-0.30797
0.09770	0.86539
0.02119	0.48277
0.14870	-0.00188
0.12320	-0.05289
0.14870	0.22769
0.07220	0.12566
0.19971	0.15117
0.22521	-0.28246
0.22521	0.15117
0.17421	0.83988
0.27621	-0.07840
0.25071	0.30422
0.12320	0.55929
-0.13181	0.32972
-0.13181	0.15117
-0.08081	-0.07840
0.27621	-0.33348
0.40372	0.15117
0.19971	0.61031
-0.23382	-0.18043
0.27621	-0.12942
0.58223	0.20219
0.53123	0.61031
0.17421	0.38074
-0.28482	0.10015
-0.00431	-0.18043
0.32721	-0.23145
0.19971	-0.10391
0.17421	-0.53754
0.17421	0.38074
0.12320	0.94191
0.09770	0.12566
0.02119	0.38074
0.12320	0.43176
0.04670	0.58480
-0.18282	0.17668
0.17421	-0.61406
0.40372	-0.58856
0.22521	-0.71609
0.27621	0.48277
0.17421	0.17668
0.12320	0.04914
0.12320	0.71234
0.17421	0.32972
0.17421	0.55929
0.32721	0.27871
0.14870	-0.28246
-0.00431	-0.10391
0.22521	0.15117
0.12320	0.27871
0.07220	0.32972
0.07220	-0.00188
-0.25932	-0.00188
-0.13181	0.25320
0.27621	0.20219
0.30171	0.15117
0.27621	0.22769
0.25071	0.12566
0.40372	0.15117
0.27621	0.17668
0.14870	0.32972
0.25071	0.22769
0.02119	-0.12942
-0.51434	0.43176
0.07220	0.32972
0.37822	-0.05289
0.32721	0.20219
0.22521	-0.05289
0.09770	-0.18043
0.14870	-0.18043
-0.05531	-0.20594
0.02119	0.30422
-0.00431	1.24800
-0.20832	1.06945
0.12320	0.17668
0.37822	-0.53754
0.17421	-0.00188
0.25071	0.38074
0.22521	-0.25695
0.14870	-0.25695
0.35272	-0.41000
0.14870	0.35523
0.25071	0.32972
0.02119	0.61031
-0.20832	0.22769
-0.00431	0.07465
0.09770	-0.05289
0.45472	-0.00188
0.42922	0.07465
0.19971	0.10015
0.12320	0.15117
-0.05531	0.35523
-0.08081	0.32972
0.12320	0.30422
0.25071	0.15117
0.50573	0.10015
0.32721	0.20219
0.07220	-0.15492
0.02119	-0.07840
-0.02981	0.38074
-0.13181	-0.00188
0.25071	0.12566
0.35272	0.35523
0.19971	0.30422
0.14870	0.15117
0.17421	0.30422
-0.13181	-0.61406
0.09770	-0.15492
0.17421	0.53379
0.19971	1.29902
0.22521	-0.12942
0.32721	-0.53754
0.12320	0.35523
0.02119	0.91640
0.17421	0.55929
0.19971	0.02363
0.09770	-0.41000
0.17421	-0.97117
0.22521	0.22769
-0.02981	0.25320
0.02119	-0.66508
-0.00431	0.61031
0.07220	0.53379
0.25071	0.43176
0.32721	0.35523
0.27621	0.53379
0.22521	-0.20594
0.27621	0.53379
0.07220	0.35523
0.17421	-0.12942
0.22521	0.38074
0.12320	-0.10391
0.02119	0.07465
-0.38683	0.27871
-0.31033	0.02363
0.19971	-0.00188
0.32721	0.15117
0.50573	-0.10391
0.70974	-0.38449
0.12320	0.02363
0.04670	0.63582
0.04670	0.53379
0.19971	0.25320
0.30171	0.25320
0.22521	0.20219
0.27621	0.12566
0.09770	-0.05289
-0.02981	-0.71609
0.02119	0.07465
0.04670	0.73785
0.07220	1.06945
0.14870	0.22769
-0.05531	-0.10391
0.17421	0.81437
0.35272	0.04914
0.30171	-0.71609
0.17421	0.15117
0.19971	0.17668
-0.05531	-0.58856
0.12320	-0.12942
0.17421	0.22769
0.30171	0.35523
0.19971	-0.07840
0.27621	0.22769
0.32721	0.15117
0.22521	0.43176
0.07220	0.78886
-0.05531	0.94191
0.14870	-0.05289
0.07220	-0.28246
0.12320	-0.07840
0.27621	-0.10391
0.27621	-0.07840
0.22521	0.15117
-0.00431	0.15117
-0.38683	0.10015
0.04670	0.20219
0.65874	0.25320
0.45472	0.15117
0.02119	0.17668
0.02119	-0.02739
0.02119	0.04914
0.19971	0.63582
0.12320	0.55929
0.02119	-0.00188
0.12320	-0.10391
0.22521	-0.07840
0.60773	-0.00188
0.42922	-0.18043
0.25071	-0.28246
0.09770	-0.30797
-0.00431	0.91640
-0.08081	1.42656
0.14870	1.09496
0.09770	-0.35899
0.12320	0.38074
0.02119	-0.48652
0.09770	-0.92016
-0.00431	-0.66508
0.07220	0.07465
0.02119	0.04914
0.27621	0.25320
0.19971	0.17668
0.30171	0.96742
0.25071	0.53379
0.19971	-0.56305
0.27621	0.30422
0.17421	-0.00188
0.27621	0.63582
0.19971	0.61031
0.04670	0.20219
-0.00431	0.17668
-0.05531	0.30422
0.12320	0.25320
-0.00431	-0.33348
0.35272	-0.05289
-0.13181	-0.05289
-0.08081	-0.07840
0.04670	0.17668
0.22521	0.17668
0.53123	0.15117
0.42922	0.22769
0.22521	-0.00188
0.14870	0.04914
0.09770	0.25320
0.14870	0.02363
0.19971	0.45726
-0.00431	0.61031
0.14870	0.12566
0.09770	0.15117
0.09770	-0.35899
0.30171	0.48277
-0.10631	0.45726
0.07220	0.35523
0.19971	-0.20594
0.04670	-0.71609
0.30171	-0.07840
0.22521	-0.51203
0.14870	-0.30797
0.02119	0.53379
0.12320	0.58480
0.12320	0.15117
0.09770	0.76336
0.14870	0.71234
0.27621	0.15117
0.35272	0.12566
-0.18282	-0.07840
0.07220	-0.07840
0.22521	0.15117
0.30171	0.12566
0.02119	-0.28246
0.27621	0.15117
0.02119	0.50828
-0.41233	0.40625
0.09770	0.27871
0.48022	0.22769
0.50573	0.15117
0.12320	0.20219
0.09770	-0.48652
0.32721	-0.10391
0.22521	-0.28246
0.22521	-0.10391
-0.71835	0.32972
-0.20832	0.86539
0.22521	0.63582
0.25071	-0.00188
0.25071	0.25320
0.50573	0.04914
0.25071	-0.02739
0.02119	-0.28246
0.17421	0.27871
-0.02981	0.38074
-0.02981	0.38074
0.27621	0.25320
0.27621	0.07465
0.14870	-0.12942
0.04670	0.10015
-0.08081	-0.10391
0.22521	-0.00188
0.25071	0.12566
0.35272	0.76336
0.04670	0.63582
-0.08081	0.61031
-0.02981	-0.05289
0.19971	-0.35899
0.45472	0.48277
0.32721	0.12566
0.32721	-0.53754
0.12320	-0.15492
-0.15732	0.25320
0.07220	0.20219
0.02119	0.15117
-0.05531	0.43176
0.27621	0.30422
0.09770	0.15117
0.32721	0.20219
0.32721	0.20219
0.22521	-0.10391
0.12320	0.04914
0.09770	0.10015
0.19971	-0.23145
0.04670	0.32972
0.04670	0.58480
-0.05531	0.63582
-0.10631	-0.25695
0.14870	-0.07840
0.25071	1.27351
0.25071	0.15117
0.42922	0.15117
0.17421	-0.51203
0.02119	-0.71609
0.27621	-0.46102
0.12320	0.55929
0.12320	-0.00188
0.09770	0.04914
-0.05531	0.22769
0.22521	0.04914
0.32721	0.15117
0.40372	0.35523
0.30171	0.55929
0.02119	0.53379
-0.15732	0.48277
-0.18282	0.35523
0.48022	0.20219
0.22521	0.02363
-0.00431	0.20219
0.02119	0.10015
0.12320	-0.05289
0.14870	-0.10391
0.27621	-0.23145
0.42922	-0.12942
0.17421	0.17668
-0.18282	0.10015
0.04670	0.38074
0.42922	0.32972
0.42922	-0.07840
-0.05531	-0.00188
-0.08081	-0.10391
0.22521	0.50828
0.14870	0.63582
0.17421	0.15117
0.12320	0.55929
0.09770	0.68683
0.07220	-0.10391
0.19971	-0.23145
0.22521	-0.46102
0.30171	0.17668
0.09770	0.15117
0.04670	-0.05289
-0.02981	-0.20594
0.17421	0.81437
0.35272	0.45726
0.27621	-0.10391
0.04670	0.02363
-0.08081	0.35523
0.14870	0.04914
0.32721	-0.15492
0.30171	0.22769
0.37822	0.27871
0.35272	0.45726
0.02119	0.25320
-0.15732	0.04914
-0.02981	0.25320
0.40372	0.17668
0.27621	0.50828
0.09770	0.22769
-0.38683	-0.05289
0.19971	-0.38449
0.09770	-0.23145
0.30171	0.02363
0.53123	0.45726
0.17421	0.40625
0.30171	0.40625
0.09770	0.15117
0.02119	-0.02739
-0.13181	-0.05289
-0.00431	-0.35899
0.14870	0.02363
0.22521	0.40625
0.25071	0.45726
0.12320	0.50828
-0.36133	0.35523
0.14870	0.50828
0.42922	0.35523
0.30171	-0.23145
0.22521	-0.07840
0.22521	-0.10391
0.22521	-0.05289
0.09770	0.07465
0.14870	-0.02739
0.07220	-0.25695
0.09770	-0.15492
-0.00431	0.17668
-0.00431	0.45726
0.12320	0.99292
0.14870	0.32972
0.12320	0.55929
0.14870	-0.20594
0.60773	-0.25695
0.83725	0.02363
-0.18282	0.12566
-0.76936	0.15117
-0.46334	0.38074
0.32721	0.32972
0.88825	0.17668
-0.02981	0.15117
0.27621	-0.07840
0.58223	-0.05289
0.48022	0.12566
0.30171	-0.05289
0.02119	0.15117
0.19971	-0.02739
0.22521	0.25320
-0.28482	0.07465
-0.13181	0.58480
0.12320	0.58480
0.02119	0.61031
-0.00431	0.43176
0.27621	-0.63957
0.32721	0.61031
0.04670	-0.15492
0.12320	-1.20074
0.17421	0.40625
0.09770	0.61031
0.17421	0.04914
0.22521	-0.12942
0.37822	-0.05289
0.30171	0.07465
0.09770	0.27871
0.17421	0.32972
0.07220	0.58480
-0.05531	0.35523
0.30171	0.43176
0.12320	-0.02739
0.12320	-0.12942
-0.08081	0.20219
0.63323	0.45726
0.32721	0.07465
-0.23382	0.15117
-0.20832	-0.10391
0.27621	0.04914
0.30171	0.10015
0.25071	0.35523
0.27621	-0.00188
-0.38683	-0.02739
-0.46334	0.12566
0.73524	0.20219
0.55673	0.30422
0.55673	0.15117
0.35272	-0.07840
0.12320	-0.00188
0.09770	-0.00188
-0.08081	-0.41000
-0.15732	0.40625
0.02119	0.76336
0.04670	-0.05289
-0.05531	0.53379
0.19971	1.06945
0.42922	0.38074
0.02119	-0.35899
-0.00431	-0.63957
0.09770	-1.09871
0.17421	0.78886
0.25071	0.20219
0.32721	0.61031
0.19971	0.61031
0.19971	-0.12942
0.19971	-0.35899
0.22521	-0.12942
0.45472	-0.10391
0.14870	0.04914
-0.28482	0.89089
-0.43783	0.63582
-0.18282	0.40625
0.32721	-0.07840
0.32721	0.15117
0.32721	0.20219
0.14870	-0.23145
-0.31033	-0.15492
0.42922	0.38074
0.32721	0.22769
0.40372	0.04914
-0.00431	0.12566
-0.43783	0.25320
0.42922	0.25320
-0.20832	0.30422
-0.18282	0.04914
0.14870	0.02363
0.27621	0.02363
0.32721	0.07465
0.27621	0.07465
0.22521	0.27871
0.09770	0.25320
-0.00431	0.22769
0.22521	-0.28246
0.17421	0.89089
0.22521	0.94191
0.17421	-0.02739
0.07220	-0.00188
-0.05531	0.30422
0.04670	-0.15492
0.22521	-0.99668
0.07220	-0.10391
-0.13181	-0.10391
0.04670	-0.25695
0.30171	0.15117
0.35272	0.22769
0.32721	0.35523
0.30171	0.30422
0.22521	0.43176
-0.20832	0.53379
-0.02981	0.43176
0.30171	0.40625
0.32721	0.20219
0.40372	0.17668
-0.18282	0.27871
-0.18282	0.22769
0.48022	-0.07840
0.07220	-0.43551
0.04670	-0.23145
0.45472	0.02363
0.53123	0.15117
0.14870	0.10015
-0.02981	0.17668
0.40372	0.10015
0.37822	0.04914
0.32721	0.38074
0.09770	0.58480
-0.10631	0.10015
-0.23382	-0.41000
0.07220	0.68683
0.12320	-0.66508
0.14870	-0.56305
0.12320	1.42656
0.07220	1.63062
0.22521	0.73785
0.14870	-0.35899
0.30171	-0.41000
0.37822	-0.07840
0.17421	-0.48652
0.07220	-0.28246
0.25071	0.02363
0.40372	0.40625
0.17421	0.12566
-0.02981	0.02363
-0.28482	-0.25695
-0.20832	0.12566
0.17421	0.53379
0.32721	0.48277
0.50573	0.35523
0.53123	0.38074
0.32721	0.25320
-0.28482	0.43176
-0.20832	0.38074
0.40372	0.04914
0.45472	-0.23145
0.12320	-0.15492
-0.05531	-0.15492
0.27621	-0.05289
0.35272	0.22769
-0.51434	0.43176
-0.28482	-0.07840
0.32721	-0.15492
0.42922	-0.02739
0.30171	0.55929
0.09770	0.50828
0.19971	-0.18043
-0.05531	-0.05289
0.07220	0.61031
0.19971	-0.12942
0.25071	-0.18043
0.14870	0.91640
0.22521	1.06945
0.07220	-0.92016
-0.08081	-0.20594
-0.15732	0.53379
0.22521	-0.07840
0.32721	-1.02219
0.14870	-0.12942
0.17421	-0.07840
0.12320	-0.25695
0.19971	0.86539
0.12320	1.06945
0.27621	0.96742
0.37822	0.22769
-0.02981	-0.30797
0.09770	-0.41000
0.35272	-0.61406
-0.00431	0.25320
0.04670	0.48277
0.02119	0.53379
0.30171	0.20219
0.22521	0.04914
0.02119	0.12566
-0.18282	0.38074
0.60773	-0.00188
-0.00431	-0.05289
0.17421	-0.15492
0.63323	0.02363
-0.18282	0.10015
0.32721	0.43176
0.19971	0.38074
0.09770	0.48277
0.09770	0.40625
-0.18282	-0.28246
0.02119	0.07465
-0.00431	0.15117
0.17421	-0.18043
0.32721	0.15117
0.19971	0.89089
0.17421	-0.12942
0.02119	-0.92016
0.09770	0.81437
0.09770	0.94191
0.14870	0.53379
0.22521	-0.43551
0.19971	-0.10391
0.19971	-0.71609
0.09770	-0.28246
0.27621	0.50828
0.12320	0.83988
0.27621	0.22769
-0.10631	0.12566
-0.08081	0.45726
0.12320	0.25320
0.53123	0.10015
0.48022	0.07465
-0.15732	-0.18043
-0.18282	-0.10391
0.19971	-0.05289
0.14870	0.38074
0.32721	0.30422
0.37822	0.43176
0.09770	0.20219
0.14870	0.20219
0.32721	0.15117
0.19971	0.12566
0.17421	-0.35899
0.04670	-0.02739
-0.13181	-0.20594
0.30171	0.45726
0.12320	0.35523
0.02119	-0.00188
0.02119	-0.02739
0.07220	0.02363
0.19971	0.43176
0.12320	0.22769
0.30171	0.27871
0.19971	-0.10391
0.07220	-0.66508
0.19971	0.12566
0.12320	-0.20594
0.07220	0.40625
-0.02981	0.35523
-0.00431	0.15117
0.32721	0.17668
0.42922	0.04914
0.17421	-0.35899
0.12320	0.02363
0.22521	0.94191
-0.46334	1.01843
-0.08081	0.25320
0.60773	0.15117
0.45472	0.04914
0.14870	-0.12942
-0.15732	-0.20594
-0.25932	0.04914
0.53123	0.15117
0.30171	0.15117
-0.00431	0.20219
-0.48884	0.22769
-0.05531	-0.05289
0.73524	0.43176
0.70974	0.43176
0.35272	0.22769
0.19971	-0.10391
0.22521	-0.20594
0.17421	-0.12942
-0.02981	0.43176
0.12320	0.50828
0.07220	-0.23145
-0.08081	-0.38449
-0.43783	-0.18043
-0.56534	1.35003
0.17421	1.60511
0.32721	0.58480
0.32721	-1.14973
0.42922	-0.71609
0.35272	-0.18043
0.07220	-0.20594
0.17421	0.04914
0.02119	-0.02739
0.17421	0.10015
0.27621	0.27871
0.22521	0.45726
0.22521	0.76336
0.22521	0.25320
0.14870	-0.20594
0.14870	-0.10391
0.27621	0.22769
0.04670	0.43176
0.12320	0.38074
0.40372	0.50828
0.30171	0.45726
-0.43783	0.12566
-0.89686	-0.28246
-0.08081	0.04914
1.24527	-0.05289
0.12320	-0.23145
-0.13181	-0.05289
-0.66735	0.04914
0.53123	0.15117
0.73524	0.43176
0.83725	0.30422
0.35272	0.15117
0.37822	-0.15492
0.07220	-0.02739
-0.05531	0.38074
-0.00431	0.17668
-0.13181	0.04914
-0.20832	-0.15492
-0.15732	-0.15492
0.07220	0.81437
-0.00431	1.91120
0.17421	0.66132
0.17421	-0.20594
0.14870	-1.22625
0.22521	-0.89465
0.30171	-0.15492
0.12320	-0.12942
0.19971	-0.51203
0.22521	-0.35899
0.22521	0.35523
0.25071	1.01843
0.22521	1.40105
0.12320	0.25320
0.27621	0.38074
0.22521	0.22769
-0.08081	-0.30797
-0.28482	0.04914
-0.38683	0.20219
0.04670	-0.10391
0.53123	0.32972
0.19971	0.81437
0.48022	0.38074
0.42922	-0.02739
0.27621	-0.18043
0.30171	-0.07840
-0.15732	-0.41000
0.14870	0.17668
0.32721	0.04914
0.22521	0.48277
0.02119	0.48277
0.04670	0.40625
0.14870	-0.05289
-0.08081	-0.51203
0.02119	-0.61406
0.02119	-0.30797
0.14870	0.83988
0.27621	0.61031
0.19971	0.12566
0.09770	1.17148
0.25071	1.35003
0.40372	-0.10391
0.17421	-1.07320
0.07220	-0.15492
0.04670	0.25320
0.17421	0.45726
0.19971	0.15117
0.12320	-0.46102
0.09770	0.22769
0.27621	0.38074
0.17421	0.02363
0.30171	0.25320
0.32721	0.12566
0.04670	0.43176
-0.15732	-0.10391
-0.64185	0.02363
0.73524	-0.02739
-0.36133	0.22769
0.22521	0.17668
0.68424	0.32972
-0.20832	0.43176
0.35272	0.25320
0.07220	0.15117
0.12320	-0.10391
0.32721	-0.23145
0.37822	-0.15492
0.14870	0.40625
-0.13181	0.73785
0.07220	0.58480
0.30171	0.22769
-0.20832	-0.84363
0.07220	-0.71609
0.02119	0.17668
0.12320	0.50828
0.09770	0.20219
0.17421	0.25320
0.37822	1.06945
0.25071	0.40625
0.17421	-0.92016
0.14870	-0.92016
0.02119	-0.56305
0.04670	1.75816
-0.02981	1.63062
0.17421	0.25320
0.19971	-0.74160
0.48022	-0.79262
0.40372	-0.12942
0.02119	0.04914
-0.13181	0.55929
0.32721	0.35523
0.02119	-0.05289
-0.36133	0.73785
0.07220	0.58480
0.17421	0.40625
-0.18282	0.25320
0.68424	-0.10391
0.83725	-0.00188
0.93925	0.25320
-0.13181	-0.00188
-0.71835	0.12566
-0.28482	0.48277
0.17421	0.02363
0.37822	-0.07840
0.19971	-0.23145
-0.13181	-0.25695
0.40372	0.55929
0.53123	-0.00188
0.25071	-0.23145
0.14870	-0.07840
0.19971	-0.43551
0.12320	0.78886
0.04670	1.40105
-0.18282	1.17148
0.27621	0.86539
0.27621	-0.10391
0.27621	-0.12942
0.02119	-1.30277
-0.02981	-1.12422
0.14870	0.91640
0.12320	0.45726
-0.02981	0.35523
0.04670	-0.07840
0.14870	-0.28246
0.32721	-0.02739
0.40372	0.20219
0.19971	0.04914
0.35272	0.45726
0.07220	0.71234
0.19971	0.76336
-0.28482	0.66132
-0.46334	0.38074
0.07220	0.20219
0.07220	-0.00188
0.53123	0.10015
0.63323	0.20219
0.48022	-0.05289
0.14870	-0.48652
-0.33583	-0.12942
-0.00431	0.25320
0.32721	0.07465
0.32721	-0.00188
-0.23382	-0.66508
-0.00431	0.32972
0.17421	0.61031
0.42922	0.55929
0.27621	0.15117
0.14870	0.68683
0.12320	-0.05289
0.09770	-0.56305
0.22521	-0.51203
-0.00431	0.10015
0.07220	0.38074
0.02119	0.76336
0.04670	1.50308
0.12320	0.58480
0.25071	-0.66508
0.27621	-1.17523
0.14870	-1.30277
0.07220	0.07465
0.30171	0.73785
0.14870	0.38074
0.22521	0.63582
0.32721	0.50828
0.14870	0.22769
0.50573	0.55929
0.40372	0.22769
-0.46334	0.40625
-1.17738	0.07465
0.02119	0.22769
0.68424	-0.05289
0.73524	0.10015
0.68424	-0.07840
0.48022	-0.05289
0.09770	0.12566
-0.51434	0.17668
-0.76936	-0.05289
0.17421	-0.10391
0.48022	0.40625
0.50573	0.30422
0.37822	-0.30797
0.22521	0.66132
-0.05531	0.91640
0.02119	0.71234
0.19971	-0.18043
0.09770	-1.48133
0.12320	-0.97117
0.14870	1.65613
0.07220	1.98773
0.25071	0.83988
0.07220	-0.69059
0.04670	-0.66508
0.17421	-0.33348
0.09770	-0.33348
0.02119	-0.53754
0.27621	0.25320
0.32721	-0.05289
0.19971	0.38074
0.12320	0.30422
0.30171	0.32972
0.04670	0.76336
-0.25932	0.96742
-0.41233	0.58480
0.22521	-0.10391
0.60773	-0.30797
0.53123	-0.07840
-0.02981	0.10015
0.12320	-0.20594
0.09770	0.38074
0.07220	0.35523
0.02119	0.32972
0.42922	0.07465
-0.02981	0.10015
0.42922	0.12566
0.27621	-0.05289
0.12320	-0.10391
0.25071	-0.12942
0.04670	-0.30797
0.04670	-0.02739
0.02119	0.32972
0.09770	0.63582
-0.15732	0.53379
-0.33583	0.91640
0.17421	0.30422
0.48022	-0.25695
0.37822	-0.41000
0.32721	0.12566
0.30171	0.94191
-0.02981	0.22769
-0.08081	-0.18043
0.04670	-0.48652
0.14870	-0.15492
0.19971	0.15117
0.17421	-0.07840
0.42922	0.12566
0.30171	0.30422
0.27621	0.02363
0.35272	0.17668
0.42922	0.61031
-0.08081	0.63582
-0.61635	0.02363
-0.33583	0.25320
0.12320	0.27871
0.32721	0.22769
0.45472	0.15117
0.30171	0.04914
0.17421	-0.07840
-0.10631	-0.35899
-0.05531	0.20219
0.58223	0.35523
0.37822	0.04914
-0.46334	0.02363
-0.99887	0.22769
0.37822	0.17668
0.70974	-0.25695
0.55673	0.22769
0.50573	0.55929
0.19971	0.12566
0.14870	0.71234
-0.02981	-0.07840
-0.13181	-0.56305
-0.23382	0.07465
-0.18282	1.22250
0.07220	0.22769
0.25071	-0.25695
0.19971	-0.38449
0.32721	0.12566
0.37822	0.40625
0.04670	-0.07840
0.12320	0.02363
0.25071	0.22769
0.14870	0.20219
0.12320	-0.33348
0.25071	-0.10391
0.27621	0.45726
0.35272	0.45726
0.27621	-0.38449
-0.02981	0.07465
-0.28482	0.78886
0.19971	1.04394
0.40372	0.22769
0.32721	-0.20594
-0.15732	0.10015
-0.61635	-0.10391
0.19971	-0.15492
0.12320	-0.20594
-0.00431	-0.00188
0.53123	0.30422
0.68424	0.27871
0.45472	0.10015
0.27621	0.32972
0.37822	0.35523
-0.33583	0.12566
-0.00431	0.22769
0.07220	0.02363
-0.08081	-0.18043
-0.08081	-0.15492
-0.10631	0.30422
-0.08081	0.35523
0.14870	0.48277
0.27621	0.71234
0.14870	0.45726
0.09770	-0.43551
0.07220	-0.92016
0.19971	-0.15492
0.40372	1.50308
0.40372	1.24800
0.22521	-0.84363
0.07220	-0.97117
0.04670	-0.28246
0.12320	0.43176
0.17421	0.35523
0.12320	0.45726
0.22521	0.35523
0.09770	0.15117
-0.18282	0.15117
-0.02981	-0.00188
-0.20832	0.04914
0.42922	0.20219
0.17421	0.20219
-0.20832	0.17668
0.42922	0.40625
0.70974	0.58480
0.30171	0.32972
0.22521	-0.15492
0.07220	0.27871
0.09770	-0.02739
0.09770	-0.23145
0.19971	-0.05289
0.32721	0.30422
-0.13181	0.27871
-0.48884	0.27871
-0.13181	0.12566
0.17421	-0.30797
0.30171	-1.12422
0.25071	0.58480
0.32721	1.75816
0.22521	1.04394
0.25071	-0.05289
0.25071	-0.61406
-0.10631	0.10015
-0.05531	-0.30797
0.14870	-0.56305
0.12320	0.32972
0.30171	0.78886
0.32721	0.45726
0.30171	-0.10391
0.30171	-0.28246
0.12320	-0.00188
-0.28482	0.58480
-0.18282	0.25320
0.12320	0.40625
0.35272	0.30422
0.19971	-0.38449
0.19971	-0.12942
-0.25932	0.32972
-0.15732	0.04914
0.70974	0.17668
0.65874	0.40625
0.45472	0.38074
0.04670	0.22769
-0.92237	-0.00188
0.04670	0.04914
0.40372	-0.05289
0.42922	-0.12942
0.53123	-0.05289
0.30171	-0.30797
0.22521	0.10015
0.12320	0.58480
-0.05531	0.48277
-0.00431	0.58480
-0.20832	0.25320
-0.36133	-0.00188
0.14870	0.38074
0.19971	-0.35899
0.42922	-0.28246
0.58223	-0.35899
0.30171	0.53379
0.22521	0.17668
0.27621	-0.02739
0.07220	-0.05289
-0.08081	0.58480
0.07220	0.71234
0.14870	1.37554
0.19971	0.27871
0.14870	-0.94566
0.25071	-0.71609
0.17421	0.20219
0.12320	1.17148
0.02119	0.76336
-0.02981	0.02363
0.02119	-0.23145
0.37822	-0.28246
0.02119	-0.25695
-0.18282	0.07465
-0.41233	0.12566
0.48022	-0.12942
1.14327	-0.02739
0.48022	0.35523
0.27621	0.43176
-0.20832	0.45726
-0.61635	0.43176
0.19971	0.17668
0.02119	0.35523
0.27621	0.15117
0.42922	0.10015
0.32721	0.02363
0.14870	-0.35899
0.19971	0.07465
-0.00431	0.12566
-0.10631	-0.07840
-0.00431	0.10015
-0.10631	0.63582
0.04670	0.25320
0.30171	0.45726
0.25071	0.07465
0.22521	-0.05289
0.14870	0.07465
0.12320	0.38074
0.12320	0.15117
-0.02981	-0.35899
-0.02981	0.17668
0.17421	0.50828
0.27621	-0.02739
0.25071	-0.15492
0.27621	-0.00188
0.30171	0.02363
0.25071	0.04914
0.14870	0.32972
0.14870	0.45726
-0.02981	0.61031
-0.10631	0.02363
-0.02981	0.25320
0.02119	0.22769
0.09770	0.20219
0.12320	-0.05289
0.09770	-0.15492
0.27621	-0.12942
0.58223	0.30422
0.73524	0.15117
0.42922	0.12566
0.07220	0.20219
-0.13181	0.43176
-0.36133	0.45726
0.19971	-0.15492
0.12320	-0.18043
0.17421	-0.10391
0.40372	0.12566
0.14870	0.02363
0.09770	0.50828
-0.00431	0.96742
-0.15732	-0.07840
-0.08081	-0.46102
0.07220	0.81437
0.22521	0.81437
0.30171	0.32972
0.30171	-0.61406
0.25071	-0.89465
0.17421	0.04914
0.07220	1.42656
0.09770	0.17668
0.17421	-0.02739
0.09770	-0.00188
0.35272	0.17668
0.22521	0.07465
0.27621	0.07465
0.04670	-0.07840
-0.05531	0.04914
-0.56534	0.10015
0.02119	0.15117
0.22521	0.43176
0.60773	0.38074
0.70974	0.38074
0.55673	0.12566
0.27621	0.02363
-0.64185	0.30422
0.58223	0.20219
-0.05531	0.12566
0.32721	-0.30797
0.17421	0.04914
0.02119	0.07465
0.09770	0.17668
-0.00431	0.22769
0.14870	0.38074
0.22521	-0.12942
0.14870	-0.33348
0.02119	-0.10391
0.12320	0.15117
0.35272	1.19699
0.07220	0.96742
-0.02981	0.30422
-0.08081	0.38074
-0.00431	-0.48652
0.32721	-0.58856
0.37822	0.12566
0.30171	-0.51203
0.27621	-0.61406
0.14870	0.17668
0.19971	0.58480
0.07220	0.12566
0.14870	0.22769
0.12320	0.81437
0.17421	0.86539
0.14870	0.40625
0.19971	0.07465
0.22521	-0.00188
-0.02981	-0.23145
-0.10631	-0.02739
0.09770	-0.10391
0.19971	-0.12942
0.27621	0.45726
0.30171	0.48277
-0.61635	0.27871
0.02119	0.25320
1.09226	-0.02739
0.53123	-0.02739
0.32721	-0.35899
0.04670	-0.07840
0.17421	0.30422
0.48022	0.25320
-0.10631	0.15117
0.02119	0.17668
0.07220	0.22769
-0.00431	0.35523
0.02119	0.32972
-0.10631	0.30422
0.12320	0.50828
0.32721	-0.23145
0.25071	-0.46102
0.14870	-0.23145
0.02119	0.58480
0.17421	0.86539
0.12320	0.40625
-0.02981	0.10015
0.14870	-0.51203
0.19971	-0.66508
0.25071	-0.23145
0.22521	0.12566
0.25071	0.45726
0.37822	0.35523
0.27621	0.48277
-0.33583	0.86539
-0.08081	0.45726
0.12320	0.02363
0.09770	-0.02739
0.19971	-0.02739
0.53123	0.04914
0.88825	0.20219
0.22521	0.04914
-0.56534	0.17668
0.22521	0.35523
0.32721	0.15117
-0.41233	-0.07840
0.17421	0.38074
0.12320	0.86539
0.68424	0.38074
0.58223	-0.23145
0.40372	-0.46102
0.14870	-0.23145
-0.20832	-0.10391
0.12320	0.22769
-0.08081	0.10015
-0.08081	0.71234
-0.05531	0.48277
0.40372	0.40625
0.37822	0.07465
0.27621	-0.12942
0.12320	0.40625
0.27621	0.38074
0.30171	0.15117
0.07220	-0.02739
-0.05531	0.50828
0.12320	0.58480
0.09770	0.38074
0.17421	-0.71609
0.07220	-0.63957
0.07220	0.10015
0.09770	0.86539
0.17421	0.20219
0.19971	-0.23145
0.17421	-0.38449
0.04670	0.58480
0.32721	0.78886
0.19971	0.45726
0.14870	-0.02739
0.19971	0.02363
0.27621	0.07465
0.35272	-0.20594
0.09770	0.02363
0.07220	0.25320
0.35272	0.45726
0.07220	0.22769
-0.15732	0.25320
-0.43783	0.17668
0.22521	-0.05289
0.63323	-0.00188
0.32721	0.10015
0.14870	0.25320
0.30171	0.25320
0.32721	-0.05289
-0.13181	0.25320
-0.02981	0.22769
-0.00431	0.25320
-0.02981	0.07465
0.17421	0.20219
0.40372	-0.18043
0.40372	0.10015
-0.05531	0.73785
0.07220	-0.15492
0.12320	0.35523
0.19971	0.78886
-0.08081	-0.10391
0.14870	0.22769
-0.02981	-0.25695
0.02119	-0.48652
0.37822	-0.05289
0.32721	-0.07840
0.42922	-0.07840
0.14870	0.15117
-0.13181	0.50828
-0.02981	0.32972
0.14870	0.15117
0.22521	0.63582
0.14870	0.63582
0.17421	0.17668
0.58223	0.04914
0.27621	0.07465
-0.15732	-0.02739
0.14870	-0.10391
0.02119	0.12566
0.12320	0.15117
-0.31033	0.20219
0.19971	0.07465
0.32721	0.12566
0.37822	0.07465
0.27621	0.10015
0.35272	-0.02739
0.40372	-0.15492
0.04670	0.22769
0.12320	0.20219
0.12320	-0.10391
0.02119	0.07465
-0.08081	0.81437
-0.08081	1.19699
-0.05531	0.45726
0.19971	-0.05289
0.22521	-1.07320
0.19971	-0.25695
0.22521	0.38074
0.25071	0.61031
0.17421	-0.00188
0.04670	0.15117
-0.00431	-0.15492
0.25071	-0.30797
0.19971	-0.07840
0.09770	0.07465
0.27621	0.12566
0.30171	0.35523
0.27621	0.45726
0.12320	0.32972
-0.02981	0.27871
-0.18282	0.02363
-0.13181	0.25320
0.27621	0.53379
0.68424	0.25320
0.30171	-0.15492
-0.10631	-0.05289
-0.20832	-0.00188
0.48022	0.17668
0.35272	-0.07840
0.40372	-0.05289
-0.13181	0.48277
-0.00431	0.45726
0.25071	0.17668
0.55673	0.10015
-0.02981	0.15117
0.22521	0.25320
-0.00431	-0.28246
0.07220	-0.28246
0.27621	-0.46102
0.35272	-0.43551
-0.31033	1.17148
-0.00431	1.37554
0.35272	0.89089
0.42922	-0.15492
0.25071	-0.18043
0.09770	-0.18043
0.12320	0.22769
0.07220	-0.12942
0.09770	-0.86914
-0.00431	0.43176
0.02119	0.15117
-0.18282	0.55929
0.25071	0.55929
0.42922	0.10015
0.32721	-0.25695
0.25071	0.15117
0.22521	0.45726
0.17421	0.07465
0.27621	-0.00188
-0.08081	0.55929
-0.10631	0.30422
-0.25932	0.22769
-0.20832	0.12566
0.35272	0.22769
0.78624	0.10015
0.70974	-0.05289
0.63323	-0.10391
0.12320	0.20219
-0.56534	0.07465
-0.61635	-0.15492
0.22521	0.43176
0.12320	0.20219
0.48022	0.22769
0.60773	0.35523
0.37822	0.15117
0.19971	0.27871
0.09770	-0.20594
-0.08081	-0.30797
0.04670	0.10015
-0.10631	0.78886
0.04670	0.61031
0.12320	0.22769
0.19971	-0.38449
0.14870	0.20219
0.07220	0.58480
0.25071	-0.25695
0.35272	-0.07840
0.22521	0.32972
0.04670	-0.07840
0.12320	-0.56305
0.02119	-0.05289
-0.08081	0.50828
0.14870	0.76336
0.53123	0.76336
0.32721	-0.00188
0.17421	0.27871
-0.13181	0.04914
0.09770	-0.18043
0.07220	0.12566
0.40372	0.32972
0.19971	0.02363
0.07220	0.30422
-0.53984	0.25320
-0.10631	0.10015
0.32721	0.02363
0.60773	0.10015
0.35272	-0.00188
0.32721	0.20219
0.45472	-0.07840
0.27621	0.17668
0.22521	0.45726
-0.25932	0.50828
-0.02981	0.27871
0.45472	-0.05289
0.22521	-0.20594
0.17421	-0.25695
-0.28482	0.25320
-0.18282	0.04914
0.12320	-0.35899
0.30171	0.76336
0.32721	0.78886
0.25071	0.86539
0.30171	0.17668
0.22521	-0.25695
-0.05531	-0.66508
0.12320	-0.20594
0.35272	-0.05289
0.17421	0.38074
0.04670	0.30422
0.27621	0.45726
-0.08081	0.12566
-0.10631	0.25320
0.04670	0.38074
0.22521	0.07465
0.32721	-0.07840
0.02119	-0.10391
-0.31033	-0.00188
0.27621	0.40625
0.70974	0.32972
0.55673	0.04914
0.19971	0.20219
-0.28482	0.17668
-0.61635	0.15117
0.50573	0.10015
0.65874	0.04914
0.53123	0.20219
-0.20832	-0.05289
0.04670	-0.00188
-0.10631	0.07465
0.50573	0.04914
0.42922	0.35523
-0.13181	0.12566
-0.00431	0.43176
-0.15732	0.02363
0.14870	0.04914
0.50573	0.04914
0.58223	-0.15492
0.40372	-0.12942
0.07220	1.22250
0.17421	0.99292
-0.05531	-0.46102
0.02119	0.04914
-0.02981	-0.25695
0.09770	-0.15492
0.37822	-0.02739
0.22521	0.02363
-0.15732	0.38074
0.04670	0.35523
0.22521	-0.10391
0.12320	0.15117
0.30171	0.02363
0.07220	0.12566
0.02119	0.25320
-0.18282	0.15117
0.27621	0.12566
0.35272	0.15117
0.42922	0.32972
0.30171	0.58480
0.12320	-0.38449
0.19971	0.15117
0.12320	0.63582
-0.38683	-0.10391
-0.23382	0.30422
-0.18282	0.07465
0.65874	-0.15492
0.48022	-0.02739
0.30171	-0.07840
0.04670	-0.00188
0.35272	0.15117
0.02119	0.12566
-0.08081	0.30422
0.14870	0.32972
0.12320	0.04914
0.07220	0.48277
0.12320	0.35523
0.07220	-0.30797
0.02119	-0.38449
0.17421	0.15117
0.25071	0.63582
0.19971	0.20219
0.19971	1.22250
0.12320	0.61031
-0.15732	0.07465
0.02119	-0.81812
0.40372	-0.56305
0.17421	0.10015
0.30171	0.12566
0.19971	0.15117
0.12320	-0.10391
0.30171	-0.00188
0.19971	-0.00188
-0.28482	0.35523
-0.28482	0.48277
0.58223	0.32972
0.58223	0.22769
0.25071	0.25320
-0.64185	-0.07840
0.07220	0.45726
0.22521	0.32972
-0.05531	0.07465
0.25071	0.22769
0.45472	0.04914
0.37822	0.04914
0.58223	-0.00188
0.32721	-0.00188
0.53123	-0.15492
0.14870	-0.00188
-0.10631	-0.23145
-0.25932	-0.02739
-0.43783	0.58480
-0.18282	0.17668
0.07220	0.27871
0.27621	0.27871
0.37822	0.38074
0.25071	0.55929
0.17421	-0.05289
0.25071	-0.10391
0.12320	-0.79262
0.22521	-0.74160
0.22521	0.35523
-0.00431	0.25320
0.02119	1.17148
0.27621	0.76336
0.12320	0.15117
0.12320	-0.30797
0.32721	-0.35899
0.17421	-0.25695
0.07220	-0.00188
0.12320	0.15117
-0.23382	0.27871
0.22521	0.73785
0.17421	0.86539
0.02119	0.17668
0.04670	-0.12942
0.30171	-0.07840
-0.00431	-0.07840
0.25071	-0.05289
0.22521	0.15117
0.91375	0.27871
0.35272	0.22769
-0.56534	0.15117
-0.51434	0.04914
0.42922	0.20219
0.32721	0.17668
0.32721	0.15117
0.35272	-0.05289
0.37822	0.10015
0.04670	0.02363
-0.13181	-0.30797
0.25071	0.22769
-0.18282	0.61031
0.04670	0.53379
0.19971	0.43176
0.14870	0.63582
0.27621	0.35523
0.14870	-0.48652
0.22521	-0.61406
0.32721	0.02363
0.12320	0.53379
0.12320	-0.12942
0.14870	0.27871
-0.13181	0.04914
0.12320	0.32972
0.19971	-0.02739
0.17421	0.15117
0.32721	-0.00188
0.32721	0.02363
0.40372	0.68683
0.40372	0.83988
-0.08081	0.02363
-0.71835	0.04914
-0.38683	0.15117
0.25071	0.12566
0.68424	0.12566
0.78624	-0.15492
0.63323	-0.15492
-0.20832	0.20219
-0.13181	0.38074
-0.82036	0.02363
0.37822	0.07465
0.35272	0.22769
0.32721	0.17668
0.07220	0.04914
0.37822	0.50828
0.37822	0.25320
0.07220	-0.02739
0.12320	0.50828
0.09770	-0.02739
0.07220	-0.28246
0.12320	-0.63957
-0.05531	0.58480
-0.18282	0.71234
0.12320	0.17668
-0.00431	0.78886
-0.05531	-0.30797
0.40372	-0.10391
0.40372	-0.35899
0.32721	-0.02739
0.32721	0.15117
0.19971	0.25320
-0.00431	0.27871
-0.00431	0.17668
0.09770	-0.10391
0.22521	0.30422
0.22521	0.78886
0.22521	0.27871
0.27621	-0.28246
0.25071	-0.15492
-0.08081	0.15117
-0.13181	0.20219
-0.36133	0.40625
0.02119	0.25320
0.70974	0.04914
0.45472	0.15117
0.37822	0.04914
0.12320	-0.00188
-0.08081	-0.05289
-0.33583	0.17668
0.22521	0.25320
0.17421	0.04914
0.58223	0.02363
0.27621	0.35523
0.30171	0.55929
0.04670	0.12566
0.27621	0.04914
0.09770	-0.07840
0.14870	-0.15492
-0.05531	-0.20594
-0.10631	-0.12942
0.14870	0.32972
0.12320	1.12046
0.14870	1.12046
0.22521	-0.15492
0.32721	-0.05289
0.19971	-0.35899
0.19971	-0.61406
0.19971	0.99292
-0.02981	0.07465
-0.05531	-0.56305
0.30171	-0.05289
0.27621	0.17668
0.12320	0.43176
0.09770	0.25320
0.09770	0.20219
0.35272	0.27871
0.22521	0.07465
0.22521	0.22769
-0.25932	0.30422
0.14870	0.38074
0.40372	0.27871
0.07220	0.22769
0.22521	0.45726
-0.69285	0.22769
0.19971	-0.25695
0.40372	-0.35899
0.02119	-0.41000
0.35272	0.35523
0.35272	0.58480
0.42922	0.63582
0.17421	0.30422
-0.38683	-0.18043
0.02119	0.02363
0.58223	-0.15492
-0.13181	0.04914
0.07220	-0.18043
-0.05531	0.17668
0.45472	0.58480
0.12320	0.07465
0.12320	0.12566
0.17421	0.04914
0.04670	0.45726
0.04670	0.10015
0.14870	-0.05289
0.27621	-0.00188
0.27621	-0.12942
0.22521	0.58480
0.14870	0.48277
0.17421	-0.05289
0.02119	0.12566
0.12320	-0.20594
-0.08081	0.02363
0.12320	0.32972
0.22521	-0.15492
0.32721	0.07465
0.48022	0.40625
0.09770	0.38074
-0.13181	0.20219
-0.13181	-0.05289
0.30171	0.07465
0.02119	0.17668
-0.18282	0.35523
0.09770	0.22769
0.58223	0.12566
0.53123	0.12566
0.09770	0.02363
0.22521	0.10015
0.22521	-0.00188
0.12320	0.10015
0.09770	0.22769
0.04670	0.17668
0.12320	0.35523
0.07220	0.27871
-0.08081	-0.07840
0.14870	0.20219
-0.00431	0.02363
0.22521	-0.10391
0.19971	-0.35899
0.19971	0.17668
0.17421	0.48277
0.02119	1.06945
0.17421	1.09496
0.17421	0.68683
0.17421	-0.89465
0.25071	-1.07320
0.12320	-0.48652
0.22521	0.43176
0.22521	0.40625
0.30171	1.12046
0.09770	0.25320
0.19971	-0.07840
0.04670	-0.12942
0.02119	-0.15492
0.14870	0.07465
0.27621	0.12566
0.02119	0.22769
-0.23382	0.27871
0.19971	0.30422
0.25071	0.32972
-0.02981	0.22769
0.14870	0.17668
0.30171	0.15117
0.32721	0.15117
0.42922	0.20219
0.32721	-0.05289
0.45472	0.10015
-0.00431	0.04914
0.04670	0.48277
-0.05531	-0.10391
-0.28482	-0.07840
0.22521	0.35523
0.25071	0.48277
0.22521	0.02363
0.02119	-0.28246
-0.02981	-0.10391
0.12320	0.32972
0.27621	0.15117
0.30171	-0.12942
0.25071	0.50828
0.02119	0.73785
0.14870	0.86539
0.04670	0.50828
-0.05531	-0.81812
0.25071	-0.71609
0.22521	0.22769
0.32721	0.20219
0.14870	0.40625
0.14870	0.15117
0.12320	0.17668
0.07220	-0.35899
0.22521	0.78886
0.04670	0.38074
0.02119	0.15117
-0.02981	0.25320
0.04670	0.22769
0.14870	-0.07840
0.27621	-0.20594
0.32721	0.22769
0.19971	0.12566
0.17421	0.10015
-0.02981	-0.05289
0.12320	0.12566
0.02119	0.10015
0.07220	0.22769
0.02119	0.35523
0.25071	0.04914
