0.02119	0.20219
0.09770	0.15117
0.17421	0.30422
0.17421	0.07465
0.25071	-0.30797
0.22521	-0.15492
0.09770	0.27871
0.12320	0.27871
0.04670	0.35523
-0.02981	0.27871
0.02119	0.25320
0.14870	0.15117
0.22521	0.17668
0.27621	0.04914
0.32721	-0.10391
0.22521	-0.05289
0.14870	0.10015
0.09770	0.30422
-0.00431	0.04914
-0.00431	0.27871
0.02119	0.12566
0.09770	0.35523
0.17421	0.10015
0.14870	0.20219
0.32721	0.10015
0.27621	0.12566
0.19971	0.04914
0.09770	0.12566
0.07220	0.15117
0.04670	0.20219
-0.02981	0.15117
0.12320	0.17668
0.22521	0.17668
0.22521	0.15117
0.32721	0.10015
0.25071	0.15117
0.12320	0.10015
0.12320	0.15117
0.12320	0.30422
0.04670	0.27871
0.12320	0.15117
0.07220	0.15117
0.12320	0.22769
0.22521	0.07465
0.22521	0.45726
0.25071	-0.05289
0.09770	-0.18043
0.04670	-0.25695
0.04670	0.32972
0.02119	0.32972
0.04670	0.32972
0.14870	0.43176
0.27621	0.22769
0.27621	0.15117
0.22521	0.04914
0.19971	-0.00188
0.12320	0.15117
0.12320	0.15117
0.02119	0.12566
-0.02981	0.12566
0.07220	0.04914
0.17421	0.32972
0.22521	-0.00188
0.32721	0.02363
0.17421	-0.10391
0.17421	0.22769
0.12320	0.32972
0.12320	0.32972
0.07220	0.25320
-0.05531	0.20219
-0.00431	0.07465
0.07220	0.02363
0.22521	0.10015
0.12320	0.10015
0.17421	0.15117
0.14870	0.17668
0.09770	0.17668
0.12320	0.12566
0.12320	0.35523
0.07220	0.32972
0.07220	0.10015
0.22521	0.12566
0.25071	0.22769
0.30171	0.10015
0.30171	-0.35899
0.17421	-0.20594
0.09770	0.10015
0.09770	0.40625
0.09770	0.30422
-0.05531	0.22769
0.02119	-0.05289
0.07220	0.17668
0.22521	0.27871
0.19971	0.53379
0.30171	0.40625
0.22521	0.20219
0.12320	0.17668
0.14870	-0.00188
0.17421	-0.23145
0.02119	-0.00188
0.07220	0.27871
0.07220	0.15117
0.12320	0.27871
0.17421	-0.25695
0.17421	-0.05289
0.22521	-0.10391
0.14870	0.35523
0.09770	0.10015
0.07220	0.53379
0.04670	0.50828
0.02119	0.35523
0.12320	0.22769
0.25071	0.15117
0.30171	0.20219
0.19971	0.07465
0.09770	-0.05289
0.12320	-0.07840
0.14870	0.07465
0.12320	0.15117
0.07220	0.35523
0.02119	0.38074
0.12320	0.15117
0.22521	-0.18043
0.25071	-0.28246
0.45472	0.07465
0.40372	-0.05289
-0.13181	0.07465
-0.15732	0.32972
-0.08081	0.50828
-0.00431	0.15117
0.27621	0.55929
0.22521	0.53379
0.35272	0.22769
0.30171	0.10015
0.30171	0.32972
0.04670	0.07465
0.12320	0.48277
0.09770	-0.69059
0.12320	-0.18043
-0.02981	-0.12942
0.07220	0.12566
0.30171	0.07465
0.25071	0.04914
0.25071	0.58480
0.02119	0.35523
0.19971	0.30422
0.09770	0.20219
0.04670	0.35523
0.14870	0.63582
0.04670	0.17668
0.12320	-0.05289
0.22521	-0.41000
0.27621	0.02363
0.30171	-0.35899
0.27621	0.20219
0.17421	0.66132
-0.00431	-0.02739
0.02119	-0.56305
0.07220	0.30422
0.12320	0.66132
0.07220	0.15117
0.09770	-0.00188
0.14870	0.25320
0.12320	0.10015
0.19971	0.17668
0.22521	0.50828
0.25071	0.38074
0.19971	0.04914
0.12320	0.02363
0.02119	0.02363
0.25071	0.12566
0.19971	-0.53754
0.22521	-0.02739
0.09770	0.12566
-0.10631	0.15117
-0.25932	0.17668
-0.28482	0.27871
-0.08081	0.40625
0.22521	0.35523
0.27621	0.61031
0.27621	-0.12942
0.30171	-0.07840
0.35272	-0.02739
0.22521	0.12566
0.32721	0.25320
0.22521	0.30422
-0.02981	-0.02739
0.04670	0.04914
0.04670	0.35523
0.02119	0.22769
-0.00431	0.48277
0.04670	0.27871
0.14870	0.02363
0.17421	-0.48652
0.22521	0.04914
0.22521	0.22769
0.17421	0.73785
0.14870	0.45726
0.17421	0.35523
0.17421	-0.48652
0.14870	-0.18043
0.07220	0.02363
0.09770	0.38074
0.19971	0.22769
0.25071	-0.07840
0.19971	0.78886
0.04670	0.04914
0.09770	-0.20594
0.09770	-0.10391
0.14870	0.43176
0.19971	0.91640
0.22521	0.10015
0.30171	0.15117
0.32721	0.20219
0.22521	-0.15492
0.12320	0.32972
0.22521	0.10015
0.22521	0.27871
0.02119	0.20219
0.02119	0.10015
-0.13181	0.22769
0.19971	-0.18043
0.50573	0.71234
0.53123	0.10015
0.42922	-0.35899
0.45472	-0.53754
0.30171	0.15117
0.09770	0.71234
-0.33583	0.20219
-0.38683	0.48277
0.09770	0.91640
0.14870	0.07465
0.12320	-0.15492
0.30171	-0.20594
0.48022	0.17668
0.55673	0.61031
0.02119	-0.30797
-0.00431	-0.20594
0.12320	-0.02739
0.09770	0.55929
0.12320	0.04914
0.02119	-0.05289
0.02119	0.02363
0.27621	0.30422
0.27621	0.48277
0.25071	0.20219
0.14870	0.17668
0.12320	0.76336
0.09770	1.12046
0.14870	-0.74160
0.14870	-0.35899
0.22521	0.48277
0.12320	-0.43551
0.22521	-0.48652
0.58223	0.10015
0.32721	0.83988
0.17421	0.76336
-0.00431	-0.23145
-0.20832	0.30422
0.12320	-0.69059
0.17421	-0.15492
0.12320	0.27871
0.32721	-0.00188
0.27621	0.83988
0.27621	-0.05289
0.22521	-0.05289
0.35272	0.20219
0.25071	0.40625
-0.08081	1.17148
-0.61635	-0.38449
-0.08081	-0.86914
0.32721	-0.51203
0.30171	-0.00188
0.48022	0.48277
0.25071	0.66132
0.22521	0.32972
0.48022	0.50828
-0.08081	0.63582
-0.10631	0.58480
-0.08081	-0.35899
0.02119	-0.25695
0.07220	-0.07840
0.14870	0.38074
0.27621	-0.33348
0.25071	-0.05289
0.14870	-0.25695
0.02119	0.30422
0.12320	0.35523
-0.00431	0.83988
0.12320	0.48277
-0.00431	0.35523
0.30171	-0.25695
0.30171	-0.33348
0.37822	-0.07840
0.07220	0.10015
0.42922	0.61031
-0.59084	-0.02739
0.25071	-0.02739
1.44929	0.76336
-0.82036	0.25320
-0.66735	-0.05289
1.14327	-0.25695
0.48022	0.25320
0.04670	0.43176
-0.23382	0.32972
-0.18282	0.86539
-0.18282	-0.51203
0.12320	-0.58856
0.83725	-0.89465
0.32721	0.25320
-0.08081	0.50828
-0.08081	0.35523
-0.10631	0.40625
-0.46334	0.76336
1.11776	0.81437
0.27621	-0.89465
-0.23382	-0.18043
0.32721	0.20219
0.70974	0.17668
-0.02981	0.45726
-0.10631	0.91640
-0.08081	-0.07840
0.19971	-0.00188
0.09770	0.02363
0.27621	0.30422
0.53123	0.22769
0.37822	0.55929
-0.00431	0.22769
-0.41233	-0.12942
-0.25932	-0.10391
-0.15732	-0.00188
-0.00431	0.30422
0.88825	0.55929
0.25071	0.32972
0.55673	-0.33348
0.63323	-0.46102
0.02119	0.07465
0.09770	0.50828
0.32721	0.71234
0.07220	0.25320
-0.08081	-0.51203
-0.38683	-0.10391
-0.13181	-0.07840
-0.23382	0.15117
-0.02981	0.89089
0.17421	0.30422
0.12320	0.55929
0.73524	0.25320
0.19971	0.15117
2.03582	-0.89465
0.14870	-0.89465
-0.23382	0.38074
0.22521	0.02363
-0.51434	0.15117
-0.79486	0.83988
-0.15732	0.83988
0.76074	0.50828
0.86275	0.45726
0.25071	0.35523
-0.51434	-0.23145
-0.38683	-0.20594
0.55673	1.12046
0.73524	-0.35899
0.58223	-0.51203
-0.38683	-1.22625
0.14870	-0.56305
0.88825	-0.10391
0.86275	0.35523
0.53123	1.09496
-0.46334	1.17148
-0.61635	0.55929
-1.10088	0.32972
0.07220	0.53379
0.09770	0.15117
0.07220	0.10015
1.21977	-0.07840
1.42379	-0.07840
-1.84042	0.15117
0.73524	0.32972
1.42379	-0.25695
-0.79486	-0.56305
-1.04987	-0.46102
0.40372	0.04914
1.29628	0.73785
0.42922	1.27351
-0.10631	-0.23145
-1.17738	0.12566
0.25071	-1.20074
0.99026	0.61031
0.30171	0.68683
-1.22839	0.22769
-0.31033	0.43176
0.12320	0.15117
0.93925	0.66132
0.68424	0.22769
-1.10088	0.43176
0.73524	0.40625
1.60230	0.20219
1.16877	-0.56305
-0.33583	-0.20594
-0.64185	0.25320
-0.53984	-0.30797
-0.64185	0.76336
-0.31033	0.15117
1.27078	-0.10391
0.07220	-1.48133
-0.10631	-0.18043
0.86275	0.61031
-0.46334	0.76336
0.04670	1.24800
0.25071	-0.20594
-0.08081	-0.97117
-0.94787	0.45726
1.04126	0.35523
0.86275	-0.07840
0.50573	-0.58856
-0.08081	0.68683
-0.48884	1.01843
0.50573	0.63582
-1.04987	-1.07320
-0.69285	-0.38449
2.34184	0.66132
1.72980	-0.02739
-0.18282	-0.15492
-0.99887	0.38074
-0.94787	0.55929
-0.38683	0.35523
0.02119	0.35523
0.14870	-0.02739
0.70974	0.43176
0.48022	0.20219
0.78624	-0.48652
1.06676	-0.10391
-0.10631	-0.18043
-0.20832	-0.35899
0.07220	-0.20594
-0.02981	0.35523
-0.15732	1.37554
-0.31033	0.66132
0.17421	0.02363
0.04670	-0.48652
0.09770	0.22769
0.19971	0.02363
0.27621	0.78886
-0.00431	-0.12942
1.39828	-0.61406
1.06676	0.50828
-0.38683	1.12046
-0.79486	0.96742
-0.20832	0.02363
-0.08081	-0.00188
-0.10631	0.02363
0.35272	-0.23145
0.22521	-0.00188
-0.28482	0.12566
1.47479	-0.15492
0.88825	1.27351
-0.08081	-0.53754
-1.43240	-0.43551
0.91375	-1.37929
2.16333	0.71234
1.37278	0.94191
-1.68742	0.76336
-2.12094	0.25320
-1.40690	0.32972
-1.25389	0.32972
1.62780	0.22769
1.47479	0.38074
-0.02981	0.07465
1.85731	0.35523
1.24527	0.27871
-0.05531	-0.74160
-0.20832	-1.17523
-0.23382	-0.05289
0.19971	0.96742
-0.20832	0.63582
-0.28482	0.25320
-0.15732	0.63582
0.07220	-0.07840
0.14870	0.07465
0.22521	-0.07840
0.19971	0.30422
0.27621	-0.00188
0.14870	-0.18043
0.19971	-0.18043
0.22521	0.43176
0.19971	0.30422
0.22521	0.15117
-0.33583	-0.61406
0.63323	-0.30797
-0.05531	0.55929
0.07220	-0.00188
-0.13181	0.07465
0.48022	0.63582
0.22521	0.12566
0.55673	0.00000
-0.18282	0.00000
-0.36133	0.00000
-0.92237	0.00000
-0.36133	0.00000
1.01576	0.76336
2.36734	0.32972
0.58223	0.22769
-0.89686	-0.20594
-1.45790	-0.30797
0.81175	0.43176
0.50573	0.20219
-1.25389	-0.05289
-0.43783	0.35523
0.48022	-0.41000
1.47479	-0.43551
0.14870	0.10015
-0.18282	0.10015
0.50573	-0.05289
0.60773	0.27871
0.02119	0.53379
-0.13181	0.15117
-0.31033	0.17668
-0.10631	0.45726
0.07220	1.27351
-0.00431	1.55410
0.25071	-1.65988
0.37822	-1.86394
0.27621	-1.12422
-0.13181	0.53379
0.35272	1.37554
0.60773	1.29902
0.30171	0.99292
0.02119	0.76336
-0.51434	0.40625
0.48022	-0.05289
0.63323	-0.20594
-0.13181	-0.58856
-0.82036	-0.63957
-0.28482	-0.66508
-0.84586	0.50828
1.42379	0.10015
2.95388	0.55929
0.02119	0.58480
-0.66735	0.25320
-1.53441	0.27871
-0.48884	0.68683
0.63323	-0.12942
0.60773	-0.76711
0.17421	-0.84363
0.60773	0.43176
-0.59084	0.83988
-0.00431	0.53379
0.60773	-0.35899
0.65874	0.12566
0.35272	0.71234
-1.07538	-0.23145
1.04126	0.22769
0.99026	0.55929
-0.00431	0.50828
-0.23382	0.55929
-0.10631	0.22769
-0.08081	-0.25695
-0.53984	0.12566
0.60773	0.68683
1.09226	-0.25695
0.14870	-0.30797
-0.31033	-0.66508
-0.23382	-0.10391
-0.08081	0.58480
-0.02981	0.76336
0.22521	-0.10391
0.25071	-0.86914
0.17421	-0.53754
0.25071	0.99292
0.14870	1.45206
-0.25932	0.15117
0.14870	0.07465
2.31634	-0.56305
-0.02981	0.38074
-0.51434	0.38074
-0.05531	0.22769
-0.61635	0.17668
-0.36133	0.32972
-0.02981	0.20219
1.52579	0.12566
1.62780	0.10015
-0.79486	-0.02739
-0.97337	-0.20594
-1.33039	-0.10391
-0.79486	-0.10391
1.57679	-0.20594
1.67880	-0.02739
0.81175	0.15117
0.12320	0.58480
-0.31033	0.40625
1.57679	0.45726
0.60773	0.38074
-0.33583	0.55929
-0.18282	0.25320
-1.12638	-0.35899
-0.53984	-0.02739
-0.18282	0.10015
-0.25932	0.04914
0.19971	-0.02739
0.14870	0.38074
0.14870	0.45726
0.73524	-0.48652
0.70974	0.38074
0.27621	0.12566
0.27621	0.22769
0.14870	0.53379
0.25071	0.17668
-0.08081	-1.07320
0.40372	-1.37929
0.07220	0.50828
-0.00431	0.78886
0.22521	0.78886
0.22521	1.37554
0.09770	0.63582
0.12320	0.55929
0.04670	-0.43551
-0.82036	-0.18043
0.32721	0.04914
0.93925	0.02363
-0.38683	-0.43551
0.14870	-0.15492
0.73524	-0.94566
-0.08081	0.10015
0.48022	0.32972
0.65874	0.27871
-1.53441	0.10015
0.14870	0.22769
1.37278	0.48277
0.07220	0.58480
-0.92237	0.45726
0.55673	-0.05289
-0.08081	-0.05289
-0.48884	0.04914
-1.78942	-0.15492
0.76074	-0.38449
1.98482	0.30422
0.35272	0.58480
-0.53984	-0.18043
1.01576	-0.63957
0.35272	-0.20594
-0.48884	0.78886
-0.38683	0.86539
-0.51434	-0.23145
0.04670	-0.10391
0.12320	0.17668
0.25071	0.45726
0.48022	0.63582
0.27621	0.27871
0.19971	-0.94566
0.09770	-0.28246
-0.33583	0.45726
0.63323	0.15117
0.42922	0.32972
0.07220	0.76336
0.32721	-0.05289
0.17421	-0.02739
0.04670	1.06945
-0.15732	0.04914
0.48022	0.15117
0.55673	0.30422
-0.38683	0.04914
-1.17738	0.20219
1.62780	0.30422
1.19427	-0.23145
-0.61635	0.07465
0.68424	-0.53754
0.63323	-0.00188
-1.15188	0.10015
-1.50890	0.10015
0.81175	0.12566
1.14327	0.10015
0.12320	0.35523
-0.08081	0.04914
-0.36133	0.96742
0.55673	0.27871
0.68424	0.43176
0.37822	0.02363
0.02119	0.04914
-0.59084	0.04914
-0.08081	0.27871
1.01576	0.20219
0.70974	-0.10391
0.02119	0.27871
-0.05531	0.10015
0.07220	0.04914
0.07220	0.27871
0.91375	0.38074
0.83725	0.38074
-0.36133	-0.15492
-0.43783	0.12566
-0.20832	0.38074
0.09770	0.48277
-0.13181	0.89089
0.07220	0.10015
0.35272	-2.73121
0.27621	-0.76711
-0.00431	0.71234
0.12320	1.14597
-0.13181	1.14597
1.19427	1.32453
0.37822	0.02363
-0.36133	-0.12942
-0.33583	0.25320
0.07220	0.66132
-0.59084	0.04914
0.07220	-0.58856
1.55129	-0.76711
0.17421	-0.12942
-0.71835	0.17668
-1.76392	0.30422
0.73524	0.10015
2.64786	0.25320
0.19971	0.27871
-1.12638	0.02363
-1.40690	-0.15492
1.32178	0.55929
2.23984	0.55929
1.19427	0.25320
-1.50890	-0.25695
-1.40690	-0.41000
0.04670	0.15117
0.37822	0.15117
0.09770	0.20219
0.27621	0.71234
0.48022	0.96742
0.53123	0.12566
0.55673	-0.63957
0.35272	0.43176
-0.20832	0.25320
-0.00431	0.20219
0.07220	0.38074
0.12320	-0.10391
0.12320	0.12566
0.22521	0.02363
0.19971	0.38074
0.07220	0.22769
0.09770	-0.23145
0.09770	-0.12942
-0.05531	-0.86914
-0.23382	-0.00188
0.12320	0.66132
0.68424	0.73785
0.17421	0.68683
0.09770	-0.35899
-0.08081	-0.18043
1.14327	-0.58856
0.40372	0.50828
-0.79486	0.66132
-0.31033	0.78886
1.67880	0.73785
-0.13181	0.38074
-0.71835	-0.35899
-1.99343	0.12566
1.85731	0.27871
2.49485	0.68683
0.35272	-0.23145
-1.22839	-0.25695
-0.89686	-0.53754
-0.59084	-0.20594
0.12320	0.22769
0.91375	0.04914
0.63323	0.25320
0.22521	0.55929
0.81175	0.45726
1.19427	0.25320
-0.41233	0.45726
-1.12638	0.12566
-1.02437	-0.43551
0.02119	-0.10391
0.53123	0.25320
0.35272	0.15117
0.35272	0.27871
0.35272	0.30422
0.42922	0.10015
0.32721	0.61031
0.17421	0.83988
0.14870	0.04914
0.04670	-1.68539
-0.00431	-0.79262
-0.02981	-0.41000
-0.00431	0.91640
-0.05531	0.32972
0.19971	0.91640
0.25071	0.86539
0.25071	0.58480
0.17421	0.76336
0.12320	0.15117
0.09770	-0.76711
-0.00431	-0.58856
-1.10088	0.58480
0.07220	-0.10391
2.31634	-1.78742
1.06676	-1.09871
0.37822	0.86539
-0.76936	1.12046
-0.00431	0.99292
-0.18282	0.43176
-0.10631	0.40625
-0.69285	0.35523
-0.51434	0.17668
-0.69285	-0.05289
1.39828	0.02363
1.65330	0.10015
0.83725	0.50828
1.24527	0.22769
-1.30489	-0.53754
-0.74385	-0.43551
0.42922	-0.61406
0.37822	0.45726
-0.89686	0.43176
-0.08081	0.48277
0.17421	0.35523
0.40372	0.55929
0.88825	0.45726
0.45472	0.10015
-0.28482	0.53379
0.48022	-0.28246
0.73524	1.01843
-0.28482	0.10015
-0.36133	-0.15492
-0.31033	-0.97117
-0.15732	-0.10391
-0.00431	0.78886
0.27621	-0.53754
0.50573	0.76336
-0.05531	0.35523
-0.00431	0.58480
0.17421	-0.12942
0.65874	1.04394
0.42922	0.07465
-0.36133	0.20219
0.73524	-0.35899
-0.10631	-0.15492
0.22521	-0.10391
-0.84586	0.50828
0.32721	0.22769
3.18340	-0.25695
0.32721	-0.18043
-2.32496	-0.61406
-0.48884	0.58480
0.42922	1.24800
-0.28482	0.58480
-0.00431	-0.35899
-0.56534	-0.63957
1.42379	0.50828
0.17421	0.45726
0.50573	0.25320
0.58223	0.20219
-0.94787	0.10015
-0.36133	0.02363
-0.08081	0.07465
0.17421	-0.20594
0.83725	0.22769
0.86275	0.17668
-0.41233	-0.25695
0.17421	-0.07840
-0.10631	0.22769
0.73524	0.32972
-0.20832	0.07465
-0.64185	0.20219
0.30171	0.38074
0.42922	0.04914
0.19971	0.40625
-0.18282	0.32972
0.12320	0.25320
0.02119	-0.00188
0.45472	0.45726
-0.08081	0.35523
0.22521	-0.15492
0.17421	-0.41000
0.09770	-0.92016
-0.43783	-0.46102
0.86275	0.73785
-0.59084	0.61031
0.14870	0.78886
0.73524	0.50828
-0.02981	0.27871
0.83725	0.40625
0.35272	0.20219
-1.76392	0.25320
0.83725	-0.20594
1.60230	-0.61406
-1.61091	-0.63957
-0.87136	0.02363
-0.25932	0.38074
0.42922	0.35523
0.93925	0.27871
0.45472	0.25320
0.04670	0.17668
1.04126	0.38074
-0.23382	0.17668
-0.00431	0.15117
1.39828	0.76336
0.27621	-0.51203
-0.23382	-0.51203
0.30171	-0.07840
0.25071	0.32972
-0.23382	0.76336
-0.25932	0.40625
-1.12638	0.35523
0.42922	0.53379
1.11776	0.45726
0.35272	-0.02739
-0.18282	-0.38449
-0.69285	0.04914
0.42922	0.22769
0.35272	-0.00188
0.45472	0.27871
0.25071	0.04914
-0.99887	0.20219
0.40372	-0.61406
1.65330	0.45726
-0.08081	0.50828
-0.08081	0.43176
0.27621	-0.00188
-0.56534	0.02363
-0.89686	0.45726
0.76074	-0.07840
1.01576	0.22769
0.37822	-0.43551
-0.25932	0.30422
-0.31033	0.55929
0.02119	-0.02739
0.48022	0.38074
0.37822	0.17668
-0.64185	0.71234
-0.69285	-0.53754
2.57136	-0.69059
1.24527	-0.12942
0.02119	0.89089
-0.36133	0.78886
-0.94787	-0.53754
-0.41233	0.07465
-0.25932	0.12566
0.58223	0.50828
0.42922	0.20219
-0.05531	0.48277
-0.51434	0.30422
-0.20832	-0.07840
0.65874	-0.05289
0.17421	0.10015
0.30171	0.04914
0.22521	0.20219
0.91375	0.30422
1.16877	0.25320
-0.05531	-0.02739
-0.46334	0.25320
-0.23382	0.20219
-0.36133	0.04914
-0.05531	0.17668
0.27621	-0.86914
0.27621	0.15117
0.02119	0.40625
0.25071	0.61031
0.40372	0.66132
-0.33583	0.61031
0.50573	0.94191
0.76074	-0.10391
-0.05531	0.04914
-0.08081	-1.30277
-0.20832	0.32972
-1.17738	-0.63957
1.55129	-0.02739
1.90832	0.55929
0.07220	0.76336
-0.08081	0.83988
-1.58541	0.55929
0.68424	-0.30797
0.27621	-1.14973
-0.48884	-0.10391
-0.33583	0.55929
-0.08081	0.30422
0.50573	0.35523
0.40372	0.50828
0.12320	0.15117
1.06676	0.53379
0.53123	0.10015
0.02119	-0.05289
-0.28482	-0.28246
-0.13181	-0.20594
0.09770	0.02363
0.09770	0.58480
0.32721	0.04914
0.04670	0.10015
0.22521	0.32972
0.12320	0.63582
0.04670	-0.58856
0.53123	-0.05289
-0.25932	0.66132
0.02119	0.25320
-0.05531	-0.05289
-0.69285	0.27871
0.30171	0.45726
1.27078	0.40625
0.48022	0.25320
0.35272	0.22769
-0.74385	-0.05289
-0.00431	-0.25695
0.30171	0.07465
-0.08081	-0.30797
-0.28482	-0.02739
0.19971	0.55929
0.17421	0.04914
0.42922	0.58480
0.96476	0.43176
-0.13181	-0.00188
0.40372	-0.23145
1.21977	-0.15492
0.17421	0.12566
-0.51434	0.99292
-0.79486	0.27871
0.14870	-0.79262
1.01576	-0.41000
0.02119	0.68683
-0.18282	0.96742
0.70974	-0.00188
0.48022	0.58480
0.17421	0.61031
0.35272	-0.56305
-0.33583	-0.00188
0.37822	-0.18043
0.12320	-0.66508
-0.00431	0.38074
-1.61091	1.27351
1.32178	0.32972
2.06133	-0.30797
-0.59084	-0.58856
-0.82036	0.02363
1.19427	0.22769
0.58223	-0.05289
-0.99887	0.83988
-0.89686	0.40625
0.02119	0.43176
0.07220	-0.00188
0.86275	0.07465
0.14870	-0.18043
0.70974	-0.10391
-0.13181	-0.00188
-0.08081	0.12566
0.12320	0.04914
0.12320	0.20219
-0.08081	0.27871
0.53123	0.15117
0.65874	0.50828
0.22521	0.25320
0.37822	-0.02739
0.04670	0.07465
-0.25932	0.04914
-0.28482	0.17668
-0.13181	-0.05289
0.30171	0.55929
0.40372	0.43176
0.88825	0.38074
0.35272	0.61031
-0.69285	0.12566
-0.05531	-0.41000
-0.05531	-0.33348
-0.13181	-0.56305
0.27621	0.07465
0.19971	0.25320
0.42922	0.48277
0.30171	0.71234
0.25071	0.50828
0.30171	0.02363
0.32721	-0.18043
-0.08081	0.10015
0.14870	-0.23145
0.78624	0.04914
0.27621	0.17668
-0.31033	-0.10391
-0.56534	0.68683
-0.10631	-0.25695
0.35272	-0.10391
0.17421	-0.05289
0.22521	0.45726
0.22521	0.15117
0.17421	0.43176
-0.08081	-0.28246
0.30171	-0.28246
0.40372	0.15117
-0.92237	0.45726
1.42379	0.20219
1.50029	0.35523
0.48022	-0.10391
-1.35589	-1.32828
-0.66735	-0.81812
-0.53984	0.68683
0.14870	0.58480
-0.05531	0.63582
0.78624	0.55929
-0.08081	0.48277
-0.05531	0.30422
1.04126	0.07465
1.04126	0.02363
1.09226	0.15117
-0.10631	0.02363
-0.69285	-0.41000
-0.38683	-0.35899
-0.23382	0.22769
0.02119	0.20219
0.14870	0.25320
0.22521	0.22769
0.45472	0.10015
0.53123	0.02363
0.40372	0.38074
0.78624	0.38074
0.27621	0.35523
-0.53984	0.27871
-0.23382	-0.02739
1.06676	0.61031
-0.20832	-0.15492
-0.02981	0.04914
0.65874	-0.56305
-0.23382	-0.35899
-0.20832	0.61031
0.60773	1.14597
0.37822	0.10015
-0.15732	-0.15492
-0.25932	0.20219
-0.59084	0.30422
0.50573	-0.05289
0.76074	0.10015
-0.00431	0.22769
0.04670	-0.10391
1.14327	-0.20594
0.09770	-0.05289
-0.48884	0.35523
0.12320	0.10015
0.53123	0.53379
0.19971	0.22769
0.35272	0.32972
0.12320	0.38074
-0.71835	0.40625
0.19971	-0.00188
0.40372	-0.23145
-0.31033	-0.05289
-0.18282	-0.05289
-0.08081	0.04914
0.22521	0.17668
0.32721	0.89089
0.25071	-0.33348
0.25071	0.04914
0.04670	0.38074
0.40372	0.22769
0.27621	0.27871
-0.05531	0.15117
0.02119	0.12566
-0.13181	0.04914
0.02119	-0.05289
-0.92237	0.22769
0.30171	0.27871
1.42379	-0.00188
0.96476	0.73785
-1.10088	-0.07840
0.07220	-0.33348
1.60230	-0.18043
-1.07538	0.17668
-0.36133	0.35523
0.35272	0.66132
0.09770	0.66132
-0.18282	0.50828
-0.08081	0.22769
0.07220	-0.23145
0.73524	-0.02739
0.30171	-0.07840
-0.48884	0.07465
1.78081	0.48277
-0.41233	-0.51203
-0.05531	-0.41000
0.60773	-0.69059
0.32721	-0.10391
-0.13181	0.35523
-0.28482	1.14597
-0.23382	1.14597
-0.10631	1.12046
0.22521	0.10015
1.29628	-0.41000
1.06676	-0.23145
0.19971	-0.10391
-0.89686	-0.46102
-0.92237	0.32972
-0.00431	0.15117
0.04670	0.04914
0.19971	0.35523
0.14870	0.22769
0.32721	0.04914
0.40372	0.12566
0.30171	0.32972
0.19971	0.15117
0.04670	-0.10391
0.42922	-0.05289
0.32721	0.15117
-0.41233	-0.07840
-0.10631	0.10015
-0.43783	0.15117
1.29628	-0.05289
1.83181	-0.00188
-0.28482	0.58480
-1.04987	-0.10391
-0.76936	-0.05289
-0.23382	-0.33348
-0.18282	0.25320
0.12320	0.45726
0.12320	0.50828
1.14327	0.66132
0.99026	0.17668
-1.07538	0.25320
0.88825	-0.00188
1.16877	-0.00188
0.73524	-0.05289
-0.33583	0.15117
-0.76936	0.15117
-0.87136	0.43176
0.45472	-0.38449
0.30171	-0.92016
-0.51434	0.40625
-0.02981	1.04394
0.99026	0.10015
0.25071	0.27871
-0.05531	-0.20594
0.07220	0.32972
0.19971	0.50828
0.17421	1.06945
0.09770	0.04914
0.35272	-0.18043
0.22521	-0.76711
0.22521	0.22769
0.22521	0.43176
-0.38683	0.32972
-0.13181	0.02363
0.30171	-0.66508
0.04670	-0.07840
0.27621	0.40625
0.12320	0.61031
0.81175	0.53379
-0.28482	0.38074
0.58223	0.32972
0.86275	0.10015
-0.59084	-0.12942
-0.51434	-0.00188
0.50573	0.10015
-0.33583	0.12566
-0.48884	0.02363
-0.18282	0.27871
1.78081	0.50828
0.19971	0.15117
-0.00431	0.07465
-0.31033	-0.12942
-0.25932	-0.00188
0.19971	-0.02739
0.09770	0.30422
0.17421	0.66132
0.17421	-0.63957
0.32721	0.15117
0.42922	0.73785
0.25071	-0.69059
0.14870	0.10015
0.17421	0.58480
0.14870	1.01843
0.22521	0.48277
-0.18282	0.04914
0.07220	0.12566
0.12320	-0.23145
0.14870	0.30422
0.22521	-0.00188
-0.08081	0.02363
-0.59084	-0.15492
1.24527	0.35523
1.09226	0.45726
-1.48340	0.04914
1.01576	-0.30797
0.53123	-0.28246
-0.46334	0.25320
-0.25932	-0.25695
-0.53984	0.30422
-0.20832	0.04914
0.19971	0.66132
0.83725	0.20219
0.88825	0.35523
-0.20832	0.35523
-0.79486	0.15117
0.17421	-0.02739
0.55673	0.10015
0.22521	0.20219
0.48022	0.25320
0.42922	0.22769
0.02119	-0.10391
0.19971	0.04914
0.07220	0.07465
-0.15732	-0.00188
-0.46334	0.22769
1.14327	0.07465
0.48022	0.22769
0.02119	-0.00188
-0.25932	0.76336
-0.31033	0.10015
-0.15732	0.38074
-0.10631	-0.53754
0.02119	0.20219
0.14870	-0.56305
0.32721	0.10015
0.22521	-0.41000
0.17421	0.53379
0.37822	0.73785
0.48022	0.86539
0.45472	0.86539
0.17421	-0.10391
-0.64185	-0.12942
0.27621	-0.00188
0.37822	-0.07840
-0.05531	-0.33348
-0.69285	-0.18043
1.19427	0.25320
1.37278	0.25320
-0.46334	0.50828
-0.51434	0.30422
-1.07538	-1.02219
0.63323	0.27871
0.78624	-0.30797
0.04670	0.30422
-0.10631	0.53379
0.27621	0.55929
-0.15732	0.38074
0.07220	-0.00188
0.14870	0.30422
0.30171	0.20219
0.50573	-0.00188
0.60773	-0.25695
0.02119	0.30422
-0.15732	0.35523
0.14870	0.04914
0.35272	0.30422
-0.05531	0.07465
0.07220	0.27871
0.32721	0.25320
-0.02981	0.17668
-0.41233	0.35523
1.24527	-0.07840
0.88825	0.20219
0.86275	0.02363
-0.94787	0.07465
-0.92237	0.25320
-0.56534	-0.00188
-0.23382	0.22769
-0.76936	0.04914
1.34728	0.04914
0.86275	0.10015
0.12320	0.30422
-0.13181	0.43176
-0.08081	0.10015
0.12320	-0.41000
0.32721	-0.71609
-0.08081	-0.00188
0.63323	-0.00188
0.32721	0.73785
0.09770	0.58480
0.14870	0.55929
0.02119	-0.05289
0.04670	-0.10391
0.12320	0.45726
0.14870	-0.28246
0.14870	-0.10391
0.22521	-0.51203
0.35272	0.30422
-0.08081	0.68683
0.02119	0.50828
0.02119	0.40625
-0.71835	0.07465
0.60773	0.43176
1.70430	0.38074
0.83725	-0.69059
-0.87136	-0.63957
-0.74385	0.04914
-0.13181	0.15117
0.04670	0.40625
-0.05531	0.22769
-0.61635	0.17668
0.63323	-0.02739
1.14327	0.20219
0.32721	0.32972
-0.36133	-0.30797
-0.41233	0.07465
-0.28482	-0.00188
0.53123	0.22769
-0.36133	0.10015
0.48022	0.17668
1.62780	0.22769
0.14870	0.20219
0.30171	0.04914
0.09770	0.15117
-0.00431	0.73785
-0.08081	0.22769
-0.10631	-0.41000
0.04670	-0.25695
0.19971	0.50828
0.12320	0.55929
0.27621	0.27871
0.30171	-0.05289
0.12320	0.20219
0.09770	-0.05289
0.45472	-0.00188
0.09770	0.10015
0.14870	0.86539
0.14870	0.43176
0.09770	-0.15492
0.25071	0.15117
0.27621	0.20219
-0.00431	-0.38449
-0.28482	-0.25695
0.04670	0.53379
0.60773	0.58480
0.50573	0.83988
0.09770	-0.30797
0.32721	-1.60887
-0.13181	0.07465
-0.28482	0.50828
0.32721	0.50828
-0.61635	0.25320
-1.25389	0.48277
1.32178	0.55929
1.93382	0.25320
-0.08081	-0.05289
-0.94787	-0.25695
-0.28482	-0.61406
-1.35589	0.30422
1.11776	0.07465
1.85731	0.20219
-0.13181	0.22769
-0.71835	0.17668
-0.53984	0.15117
-0.02981	-0.00188
0.14870	0.07465
0.78624	0.04914
0.30171	0.15117
-0.15732	0.07465
0.45472	-0.05289
0.37822	-0.30797
-0.25932	0.02363
-0.38683	0.40625
-0.05531	0.32972
-0.08081	1.24800
0.83725	-0.43551
0.93925	-0.00188
-0.18282	0.22769
-0.15732	0.17668
-0.08081	0.53379
-0.08081	0.53379
0.02119	0.15117
0.04670	-0.07840
-0.00431	0.22769
0.42922	0.12566
0.86275	-0.33348
0.37822	0.35523
0.12320	1.12046
-0.05531	-0.00188
0.45472	0.20219
0.48022	-0.15492
0.53123	0.07465
-0.18282	0.50828
-0.10631	0.07465
0.25071	0.25320
-0.79486	0.07465
-0.02981	0.10015
1.06676	0.04914
0.70974	0.02363
1.52579	0.53379
-1.17738	-0.23145
-0.28482	-0.35899
0.07220	-0.05289
-0.00431	0.17668
-0.23382	0.73785
0.09770	-0.23145
0.45472	0.76336
0.73524	0.78886
0.37822	0.35523
-0.05531	0.22769
-0.15732	-0.02739
-0.10631	-0.07840
0.09770	0.02363
0.14870	0.12566
0.22521	0.07465
-0.08081	-0.15492
-0.13181	0.10015
0.22521	0.40625
0.19971	0.27871
0.30171	-0.20594
0.14870	-0.20594
-0.18282	-0.33348
-0.08081	-0.05289
0.02119	0.38074
-0.13181	0.55929
0.17421	0.20219
0.96476	0.20219
-0.20832	0.12566
-0.79486	0.10015
-0.18282	-0.00188
2.06133	0.15117
0.32721	0.71234
0.04670	0.35523
-0.48884	-1.30277
-0.02981	-0.97117
0.19971	-0.00188
0.04670	1.06945
0.27621	0.63582
0.40372	0.91640
0.02119	0.68683
0.25071	-0.38449
0.63323	0.22769
0.37822	0.04914
-0.08081	0.02363
-0.87136	0.15117
0.19971	0.25320
0.53123	0.07465
0.19971	0.66132
0.27621	0.04914
0.17421	-0.79262
-0.10631	-0.61406
0.12320	-0.25695
-0.08081	0.32972
-0.00431	0.53379
0.02119	0.45726
-0.56534	0.61031
0.78624	0.35523
2.01032	0.12566
0.37822	0.07465
-0.28482	-0.25695
-1.02437	0.07465
-0.56534	0.15117
0.58223	-0.05289
0.76074	0.30422
-0.38683	0.27871
0.35272	-0.07840
1.04126	0.32972
0.04670	0.02363
-0.23382	0.20219
0.37822	0.10015
0.19971	0.10015
0.22521	0.12566
-0.20832	0.35523
0.12320	-0.05289
-0.25932	-0.20594
0.02119	0.35523
0.81175	0.15117
-0.02981	-0.58856
0.02119	-0.35899
1.06676	0.55929
-0.20832	0.48277
-0.25932	0.55929
-0.43783	0.12566
-0.13181	0.27871
0.25071	-0.43551
0.42922	0.10015
0.42922	0.40625
0.32721	-0.23145
-0.56534	-0.30797
0.09770	0.50828
0.25071	0.45726
-0.13181	0.86539
0.22521	-0.56305
-0.10631	-0.38449
0.30171	-0.43551
0.04670	0.30422
0.25071	0.32972
0.76074	0.27871
0.63323	0.50828
-0.79486	0.35523
-0.28482	0.22769
0.07220	-0.18043
-0.13181	0.10015
-0.41233	-0.10391
0.07220	-0.02739
1.09226	-0.15492
0.93925	0.35523
0.25071	0.32972
0.70974	0.38074
-0.28482	0.27871
-0.56534	0.20219
-0.28482	0.58480
0.04670	0.02363
0.02119	-0.48652
0.55673	-0.18043
0.42922	0.12566
-0.05531	0.22769
0.12320	0.35523
0.19971	0.43176
0.27621	0.40625
0.22521	-0.00188
0.19971	-0.00188
0.32721	-0.25695
0.04670	0.07465
0.12320	0.30422
0.55673	0.40625
-0.33583	0.43176
-0.13181	-0.15492
1.16877	-0.92016
0.09770	0.38074
-0.15732	0.48277
-0.08081	0.04914
-0.25932	0.35523
0.50573	0.15117
0.60773	0.89089
-0.46334	-0.00188
0.14870	0.12566
0.63323	0.12566
-0.08081	1.01843
0.30171	0.43176
0.32721	-0.33348
0.22521	-1.20074
-0.43783	-0.18043
-0.56534	0.50828
0.99026	0.63582
0.88825	0.35523
0.07220	0.35523
0.17421	0.17668
-0.05531	0.20219
0.40372	-0.12942
-0.05531	0.50828
-0.28482	-0.18043
0.19971	-0.35899
0.88825	-0.28246
0.19971	0.53379
-0.13181	0.45726
0.12320	0.32972
0.45472	0.27871
0.02119	0.15117
-0.23382	0.15117
-0.00431	0.27871
0.70974	0.43176
0.58223	0.07465
0.25071	0.15117
0.25071	0.15117
-0.20832	-0.02739
0.07220	0.32972
-0.05531	0.43176
0.25071	0.12566
0.32721	-0.00188
0.25071	0.10015
0.07220	0.04914
-0.10631	-0.02739
-0.00431	0.15117
0.50573	0.63582
-0.00431	0.12566
-0.28482	0.17668
-0.33583	0.02363
-0.08081	-0.20594
0.22521	0.63582
0.86275	0.07465
-0.79486	-0.58856
-0.10631	-0.33348
1.62780	0.30422
1.72980	0.38074
-0.59084	0.73785
-0.46334	0.76336
-0.13181	-0.18043
-0.08081	-0.23145
-0.41233	-0.30797
0.30171	0.55929
0.37822	0.35523
0.02119	0.66132
0.04670	-0.12942
0.27621	-0.28246
0.73524	0.07465
0.53123	0.66132
0.22521	0.35523
-0.46334	0.02363
0.02119	-0.23145
0.53123	0.02363
0.70974	0.53379
-0.05531	0.12566
-0.56534	0.17668
-0.08081	-0.53754
0.70974	0.12566
0.37822	0.17668
-0.79486	0.48277
-0.53984	0.53379
1.19427	-0.58856
0.37822	-0.02739
0.99026	-0.05289
0.14870	0.22769
-0.43783	-0.23145
-0.13181	0.45726
0.12320	0.45726
-0.25932	0.50828
0.50573	0.25320
0.81175	0.25320
0.25071	0.02363
-0.10631	0.27871
-0.02981	-0.41000
-0.02981	-0.10391
0.22521	-0.15492
0.48022	0.89089
0.19971	0.35523
-0.31033	0.25320
0.22521	-0.15492
-0.05531	0.30422
-0.05531	0.40625
-0.08081	0.50828
0.65874	-0.35899
0.42922	-0.71609
0.45472	0.17668
0.35272	0.32972
0.07220	0.30422
-0.59084	0.32972
0.30171	0.61031
0.14870	-0.30797
-0.18282	0.12566
0.48022	0.40625
0.45472	-0.30797
0.02119	0.55929
-0.84586	-0.41000
0.63323	0.43176
1.32178	0.04914
0.25071	0.55929
-0.20832	0.63582
-0.48884	-0.15492
-0.23382	0.12566
0.07220	0.10015
0.27621	-0.05289
0.27621	0.27871
0.14870	0.40625
0.25071	0.40625
0.17421	-0.00188
-0.00431	-0.12942
0.17421	0.25320
1.21977	0.02363
0.35272	0.20219
-0.51434	0.07465
-0.18282	-0.05289
0.02119	-0.35899
-0.13181	-0.28246
0.35272	0.38074
0.30171	-0.00188
-0.08081	0.30422
-0.31033	0.50828
-0.13181	0.76336
0.65874	0.38074
-0.31033	-0.35899
0.48022	-0.12942
-0.15732	0.43176
0.50573	-0.05289
0.27621	0.35523
0.25071	0.50828
0.25071	0.20219
0.14870	-0.00188
0.25071	0.25320
-0.59084	0.07465
1.24527	0.30422
0.99026	-0.41000
-0.41233	-0.05289
-0.10631	0.17668
-0.33583	0.15117
-0.79486	0.40625
-0.05531	0.48277
0.68424	0.76336
0.76074	-0.33348
-0.00431	-0.63957
-0.56534	-0.38449
0.09770	0.10015
-0.23382	0.22769
-0.10631	0.40625
0.73524	0.81437
0.04670	0.48277
0.45472	0.10015
0.53123	0.61031
0.32721	0.25320
0.53123	-0.28246
0.02119	0.40625
-0.28482	0.04914
-0.25932	0.38074
-0.15732	-0.38449
0.12320	-1.20074
0.48022	-0.79262
0.68424	0.63582
-0.00431	0.53379
-0.08081	0.35523
1.16877	0.25320
0.27621	0.50828
-0.23382	0.12566
-0.51434	-0.28246
-0.66735	0.40625
0.86275	0.40625
0.22521	0.48277
-0.94787	0.55929
-0.46334	0.35523
0.78624	0.10015
0.91375	-0.56305
1.04126	-0.00188
0.35272	0.04914
-0.00431	-0.05289
-0.02981	0.32972
-0.82036	0.40625
-0.18282	0.22769
0.17421	0.50828
0.30171	-0.07840
0.07220	0.12566
0.19971	-0.02739
0.99026	0.17668
0.30171	0.22769
-0.08081	-0.15492
-0.28482	-0.33348
-0.10631	0.55929
0.07220	0.48277
0.58223	-0.00188
0.48022	-0.07840
-0.23382	0.12566
-0.05531	0.04914
0.02119	0.32972
0.02119	0.10015
0.45472	0.20219
-0.33583	-0.38449
0.17421	-0.30797
0.68424	0.40625
-0.15732	0.53379
0.25071	0.38074
0.53123	0.63582
0.04670	0.27871
-0.31033	0.12566
-0.15732	-0.02739
-0.05531	-0.23145
-0.15732	-0.00188
0.12320	-0.05289
1.19427	0.15117
-0.25932	0.27871
0.40372	0.38074
-0.08081	-0.51203
-0.43783	-0.25695
1.39828	0.35523
0.27621	0.25320
-0.38683	0.07465
0.12320	0.38074
0.40372	0.45726
-0.15732	0.30422
-1.10088	0.35523
0.12320	-0.00188
1.27078	0.10015
0.40372	0.32972
0.50573	-0.10391
-0.10631	-0.38449
-1.22839	0.04914
-0.18282	0.10015
0.30171	0.43176
-0.08081	0.35523
0.86275	0.22769
0.70974	0.22769
0.09770	0.61031
-0.10631	0.50828
0.14870	-0.48652
-0.59084	-0.20594
0.22521	-0.07840
0.65874	0.04914
0.04670	0.30422
0.40372	0.30422
0.07220	0.61031
-0.41233	0.15117
0.27621	-0.05289
-0.05531	0.38074
0.48022	0.25320
0.02119	0.07465
0.02119	-0.15492
0.65874	0.32972
-0.23382	0.07465
-0.89686	-0.00188
-0.25932	-0.05289
1.65330	-0.20594
1.27078	-0.25695
-0.28482	0.25320
-0.64185	0.45726
-0.74385	0.40625
1.19427	0.12566
0.76074	0.17668
0.40372	0.53379
-1.04987	-0.05289
0.22521	0.61031
0.27621	0.27871
0.32721	-0.00188
0.22521	0.40625
0.88825	-0.43551
-0.10631	-0.30797
-0.23382	0.10015
-0.05531	0.17668
-0.02981	0.10015
0.42922	-0.41000
-0.23382	-0.05289
-0.43783	0.66132
0.81175	0.78886
0.86275	0.15117
0.07220	-0.46102
-0.18282	0.30422
-1.04987	0.66132
0.45472	0.73785
1.47479	-0.02739
0.09770	-0.12942
-0.64185	-0.18043
-0.00431	-0.00188
0.07220	0.50828
0.42922	0.45726
0.76074	0.02363
-0.10631	0.15117
-0.25932	-0.33348
0.02119	-0.43551
0.07220	0.04914
-0.20832	0.50828
0.48022	0.50828
1.52579	0.38074
0.14870	0.22769
-0.08081	0.66132
-0.08081	0.22769
-0.13181	-0.28246
0.45472	-0.23145
0.37822	0.40625
0.04670	0.61031
-1.45790	0.35523
0.68424	0.40625
2.26534	-0.30797
0.55673	0.04914
-0.51434	-0.63957
-1.63641	0.12566
-0.36133	0.58480
1.85731	0.45726
0.68424	0.12566
-0.51434	0.20219
-0.20832	0.32972
-0.15732	0.35523
0.25071	0.17668
0.32721	0.25320
0.42922	0.27871
0.17421	0.17668
-0.13181	0.40625
-0.10631	-0.05289
-0.13181	-0.00188
0.27621	0.04914
0.60773	-0.28246
0.91375	0.48277
-0.25932	0.50828
0.60773	-0.00188
0.50573	0.38074
-0.08081	0.66132
-0.36133	-0.76711
-0.46334	-0.23145
-0.36133	0.35523
0.40372	1.14597
0.53123	0.55929
-0.05531	0.40625
1.70430	0.04914
-0.08081	0.15117
-0.36133	0.12566
0.17421	0.12566
0.37822	-0.12942
0.14870	-0.05289
0.45472	0.10015
-0.79486	-0.30797
0.14870	0.20219
0.50573	0.32972
0.93925	0.30422
0.76074	0.35523
-0.53984	0.15117
-0.51434	0.50828
-0.46334	-0.05289
-0.87136	-0.46102
0.48022	-0.35899
0.68424	-0.20594
0.02119	0.76336
1.06676	0.27871
0.53123	0.25320
0.12320	0.27871
-0.31033	0.30422
-0.28482	1.17148
0.02119	-0.02739
-0.23382	-0.51203
-0.08081	-0.58856
1.21977	-0.10391
-0.05531	0.22769
0.09770	0.45726
0.30171	0.55929
-0.13181	0.55929
0.12320	-0.25695
-0.25932	-0.46102
0.19971	-0.20594
-0.28482	0.15117
0.55673	0.48277
1.47479	0.55929
0.81175	0.20219
-0.46334	0.17668
-0.38683	0.27871
0.19971	0.07465
-0.46334	0.30422
0.07220	0.22769
0.58223	0.25320
0.32721	-0.15492
0.37822	-0.48652
0.19971	0.15117
0.65874	0.71234
-0.00431	0.76336
-0.08081	0.30422
0.68424	0.48277
-0.13181	-0.18043
-0.38683	-0.35899
0.70974	0.07465
0.09770	-0.07840
-0.10631	-0.07840
0.12320	0.45726
-0.02981	0.58480
-0.00431	0.68683
-0.00431	-0.07840
0.12320	-0.18043
0.14870	0.04914
0.30171	-0.23145
0.45472	0.22769
0.22521	0.40625
-0.08081	0.15117
-0.18282	-0.07840
0.32721	0.02363
0.81175	0.55929
0.86275	0.48277
-0.28482	0.20219
-0.33583	0.25320
0.25071	-0.00188
0.55673	-0.05289
-1.12638	-0.46102
0.32721	0.17668
0.50573	0.66132
0.73524	0.45726
0.58223	-0.66508
0.58223	0.35523
-0.87136	-0.23145
-0.53984	0.32972
-0.51434	-0.10391
-0.05531	0.12566
0.07220	0.22769
0.27621	0.48277
0.93925	0.66132
0.58223	0.43176
0.27621	0.30422
0.40372	0.32972
0.42922	0.25320
0.27621	0.12566
0.17421	-0.18043
0.07220	-0.02739
0.19971	0.22769
0.04670	-0.05289
-0.43783	0.07465
-0.00431	-0.51203
0.09770	-0.05289
0.81175	0.48277
-0.76936	0.38074
0.37822	0.22769
0.78624	-0.02739
0.14870	-0.10391
-0.53984	-0.18043
-0.31033	0.17668
0.40372	0.73785
0.73524	0.76336
0.27621	0.15117
-0.08081	0.32972
-0.13181	0.15117
0.12320	-0.07840
0.25071	-0.05289
0.25071	-0.00188
-0.20832	-0.18043
-0.71835	0.15117
0.55673	0.07465
1.01576	0.55929
0.12320	-0.71609
-0.10631	-0.30797
0.63323	-0.07840
-0.43783	0.96742
0.45472	-0.30797
0.50573	-0.56305
-0.94787	0.58480
-1.78942	0.66132
0.04670	0.71234
1.09226	1.09496
0.73524	0.94191
0.42922	0.45726
0.88825	0.17668
0.70974	-0.15492
0.42922	-0.07840
0.19971	-0.12942
0.09770	-0.28246
-0.02981	-0.18043
0.02119	-0.07840
0.07220	0.02363
0.09770	-0.00188
0.14870	0.10015
-0.13181	0.17668
0.17421	0.10015
0.50573	0.35523
0.27621	0.45726
-0.79486	-0.41000
0.35272	-0.66508
-0.56534	0.40625
1.24527	0.89089
1.98482	0.30422
-0.02981	0.15117
-0.71835	0.35523
-0.84586	0.15117
-0.48884	0.40625
0.22521	0.04914
0.19971	-0.48652
0.12320	-0.89465
0.12320	-0.23145
0.30171	0.76336
0.50573	0.73785
0.53123	0.66132
0.50573	0.55929
0.17421	0.38074
0.58223	0.04914
0.14870	0.07465
0.07220	-0.18043
-0.41233	-0.38449
0.09770	0.02363
-0.00431	0.15117
0.02119	0.17668
0.30171	0.25320
-0.10631	0.45726
0.73524	-0.05289
-0.13181	0.10015
0.04670	0.25320
-0.10631	0.02363
-0.13181	0.48277
-0.15732	0.04914
-0.13181	0.22769
-0.20832	-0.53754
0.02119	0.53379
2.06133	0.55929
0.93925	0.55929
-0.71835	0.63582
0.32721	0.12566
-0.87136	-0.12942
0.27621	-0.25695
1.47479	-0.00188
-0.15732	0.25320
-0.38683	-0.07840
0.07220	0.15117
0.48022	-0.12942
-0.20832	-0.02739
-0.28482	0.25320
-0.28482	0.40625
-0.02981	0.17668
0.27621	0.12566
0.45472	0.15117
0.81175	0.53379
-0.13181	-0.07840
-0.10631	-0.23145
0.99026	0.17668
0.27621	0.15117
-0.28482	1.04394
-0.18282	-0.15492
-0.20832	-1.07320
-0.05531	-0.10391
0.07220	0.94191
0.12320	0.25320
0.12320	0.45726
0.14870	0.32972
-0.25932	-0.02739
0.27621	-0.00188
0.88825	-0.12942
0.12320	0.32972
0.19971	0.38074
-0.13181	0.71234
-0.31033	0.02363
-0.74385	-0.38449
0.14870	-0.20594
0.37822	0.17668
0.14870	-0.43551
-0.28482	0.22769
0.93925	0.55929
1.83181	0.43176
0.32721	0.27871
-0.43783	0.30422
-0.51434	-0.02739
-0.56534	0.55929
-0.33583	-0.15492
0.02119	0.10015
-0.18282	-0.20594
0.73524	-0.02739
1.85731	0.27871
0.53123	0.15117
-0.36133	0.15117
-0.38683	0.27871
-1.02437	0.45726
-0.13181	0.40625
1.04126	0.15117
0.32721	-0.35899
0.35272	-0.33348
-0.23382	0.04914
-0.13181	0.48277
-0.02981	0.48277
-0.02981	0.04914
0.27621	-0.05289
0.48022	0.02363
0.27621	0.10015
0.17421	0.12566
0.25071	0.81437
0.22521	0.35523
0.25071	0.07465
0.14870	-0.63957
0.14870	-1.17523
0.07220	0.35523
0.02119	0.66132
0.09770	0.91640
0.35272	0.48277
0.42922	0.27871
0.17421	-0.33348
0.02119	-0.07840
0.22521	-0.38449
-0.08081	-0.10391
-0.15732	0.35523
-0.41233	0.63582
0.32721	0.02363
0.86275	0.25320
0.02119	0.15117
0.02119	0.35523
-0.48884	0.30422
-0.13181	0.20219
0.99026	0.20219
0.91375	-0.28246
-0.31033	-0.20594
0.40372	-0.94566
0.25071	0.04914
0.19971	0.35523
-0.00431	0.61031
0.70974	0.66132
0.42922	0.48277
-0.46334	0.43176
-0.92237	0.38074
0.22521	-0.10391
0.25071	-0.05289
0.45472	0.07465
-0.15732	-0.07840
0.04670	0.20219
0.32721	0.27871
0.35272	0.50828
0.09770	0.04914
-0.08081	0.38074
1.09226	-0.05289
1.24527	-0.23145
-0.25932	-0.30797
-0.36133	-0.41000
-0.15732	-0.10391
0.02119	-0.15492
-0.00431	0.78886
0.04670	0.27871
0.14870	0.48277
0.02119	0.55929
-0.13181	0.15117
0.45472	-0.12942
-0.02981	-0.05289
0.19971	0.12566
0.32721	0.12566
0.17421	0.17668
-0.28482	-0.41000
0.25071	-0.23145
0.35272	-0.02739
0.53123	0.40625
-0.02981	0.43176
0.40372	-0.30797
-0.59084	0.35523
-0.64185	0.25320
0.55673	0.68683
0.42922	0.10015
0.42922	-0.05289
-0.48884	-0.00188
-0.08081	-0.00188
-0.02981	0.15117
1.21977	-0.05289
0.91375	0.10015
-0.18282	0.55929
-0.48884	0.22769
-0.48884	-0.63957
0.04670	-0.00188
0.42922	0.55929
0.12320	-0.18043
0.14870	0.32972
0.14870	0.35523
-0.10631	0.04914
0.19971	-0.18043
0.22521	0.53379
0.53123	0.55929
0.30171	-0.05289
-0.18282	-0.23145
0.17421	-1.09871
0.17421	-0.00188
0.19971	0.22769
0.14870	0.20219
0.45472	0.76336
-0.33583	0.86539
-0.18282	0.55929
0.04670	0.27871
-0.02981	0.12566
0.02119	0.04914
0.19971	-0.10391
-0.46334	0.22769
0.55673	0.30422
1.01576	-0.51203
0.04670	-0.02739
-0.02981	-0.35899
-0.28482	0.04914
0.22521	0.32972
1.21977	0.07465
-0.41233	0.30422
-0.41233	0.20219
0.42922	0.32972
0.19971	0.32972
-0.13181	0.40625
0.37822	0.07465
0.27621	0.04914
0.55673	0.12566
-0.08081	-0.02739
0.02119	0.20219
-0.10631	0.73785
-0.00431	-0.18043
-0.02981	-0.53754
-0.56534	-0.05289
0.60773	0.35523
0.42922	0.04914
0.27621	0.12566
0.14870	-0.00188
-0.00431	0.04914
-0.13181	0.63582
0.09770	0.27871
0.37822	0.10015
-0.43783	-0.23145
0.32721	-0.43551
2.18883	0.20219
0.02119	0.61031
-0.38683	0.58480
-0.00431	0.32972
-0.66735	0.25320
0.09770	-0.23145
0.02119	0.02363
0.02119	0.20219
0.22521	0.22769
0.32721	0.43176
0.14870	0.12566
0.19971	-0.20594
0.40372	-0.43551
0.45472	-0.84363
-0.02981	0.22769
-0.23382	0.61031
-0.51434	0.78886
-0.31033	0.63582
0.35272	0.25320
0.83725	0.22769
0.73524	0.58480
1.52579	-0.25695
-0.71835	-0.05289
-0.36133	0.10015
-0.79486	-0.02739
0.42922	0.27871
0.45472	0.04914
-0.43783	0.20219
-0.71835	0.35523
-0.23382	-0.61406
0.35272	-0.07840
0.73524	0.43176
0.58223	0.68683
0.14870	0.22769
0.58223	0.20219
-0.36133	0.04914
0.45472	0.35523
0.53123	0.35523
0.12320	0.32972
-0.00431	0.35523
0.04670	-0.05289
0.04670	0.43176
0.12320	-0.61406
-0.13181	-0.48652
-0.20832	-0.43551
0.17421	-0.20594
0.37822	0.40625
0.14870	0.81437
0.09770	0.94191
0.09770	0.83988
0.02119	0.38074
0.53123	-0.51203
1.11776	-0.10391
-0.41233	0.17668
0.02119	0.10015
0.12320	0.15117
0.12320	0.86539
-0.02981	-0.23145
0.14870	-0.30797
0.32721	-0.15492
0.22521	-0.15492
-0.18282	0.22769
0.55673	0.61031
0.63323	0.48277
-0.13181	0.15117
-0.41233	-0.02739
0.17421	-0.25695
0.32721	0.10015
-0.13181	0.30422
0.48022	0.15117
0.30171	0.66132
0.09770	0.55929
-0.13181	0.12566
0.14870	-0.02739
0.27621	0.15117
0.04670	0.15117
0.19971	0.04914
0.30171	0.17668
0.53123	0.04914
-0.05531	0.20219
0.04670	0.30422
-0.51434	0.40625
0.09770	-0.33348
0.37822	-0.35899
0.17421	0.30422
0.12320	0.25320
-0.02981	0.83988
0.17421	0.15117
0.81175	-0.15492
0.60773	0.07465
0.63323	0.68683
0.09770	-0.33348
-0.36133	0.22769
-0.33583	0.04914
-0.18282	-0.23145
-0.33583	0.25320
0.53123	0.40625
0.40372	0.10015
0.07220	0.15117
0.53123	0.02363
0.45472	-0.43551
0.02119	0.86539
-0.05531	-0.05289
-0.02981	0.15117
0.32721	-0.20594
0.14870	0.45726
-0.02981	0.25320
0.02119	-0.23145
0.02119	0.20219
0.35272	0.81437
0.45472	0.20219
0.25071	-0.28246
0.25071	0.04914
-0.05531	0.10015
0.07220	0.40625
-0.48884	0.17668
0.76074	0.68683
0.93925	0.40625
-0.08081	-0.05289
0.65874	-0.05289
-0.02981	0.04914
-0.41233	0.07465
-0.00431	0.15117
-1.61091	-0.48652
0.04670	-0.43551
1.01576	0.32972
0.40372	0.20219
0.58223	0.45726
0.40372	0.32972
0.14870	-0.07840
-0.10631	0.43176
0.02119	0.35523
-0.00431	-0.15492
0.14870	0.35523
0.04670	-0.10391
0.53123	0.02363
0.17421	-0.07840
0.14870	0.53379
0.02119	0.04914
0.17421	-0.05289
-0.36133	0.07465
0.55673	-0.00188
0.93925	-0.18043
-0.18282	0.12566
-0.31033	0.68683
-0.33583	0.71234
-0.08081	0.02363
0.07220	-0.15492
0.35272	-0.20594
0.48022	0.32972
0.35272	0.10015
0.09770	-0.38449
0.22521	0.10015
0.40372	0.45726
-0.08081	0.76336
-0.33583	0.58480
0.42922	-0.02739
-0.00431	-0.53754
0.22521	-0.38449
0.86275	0.61031
-0.13181	0.27871
-0.23382	0.10015
-0.15732	-0.02739
0.09770	0.25320
0.63323	0.12566
-0.53984	0.15117
0.53123	0.32972
1.42379	0.17668
-0.13181	0.40625
-0.28482	0.15117
-0.31033	-0.15492
-0.36133	-0.15492
-0.43783	0.35523
1.21977	-0.23145
0.88825	-0.20594
-0.05531	0.35523
-0.28482	0.15117
0.32721	0.15117
-0.02981	0.12566
0.02119	0.55929
0.27621	0.12566
0.35272	0.15117
0.04670	0.20219
-0.46334	0.30422
0.09770	-0.00188
0.30171	0.45726
0.07220	0.12566
0.04670	-0.56305
-0.08081	-0.20594
0.32721	-0.15492
0.25071	-0.10391
0.02119	0.66132
0.50573	1.17148
0.27621	0.68683
-0.15732	-0.05289
-0.00431	0.12566
-0.05531	0.68683
0.22521	-0.00188
0.42922	-0.18043
0.09770	0.25320
0.30171	0.15117
0.25071	0.32972
0.17421	0.17668
0.12320	0.04914
0.17421	-0.00188
-0.02981	0.40625
0.17421	-0.23145
0.37822	0.10015
0.73524	0.40625
0.50573	0.32972
-0.23382	0.25320
-0.51434	0.20219
0.45472	0.32972
0.35272	0.20219
0.14870	0.25320
-0.20832	0.25320
0.12320	0.02363
1.09226	0.17668
0.58223	0.27871
-0.10631	0.22769
0.04670	0.63582
0.02119	-0.12942
-0.13181	-0.15492
0.22521	0.27871
0.22521	-0.18043
0.27621	-0.12942
-0.18282	0.02363
0.40372	0.02363
-0.00431	0.66132
0.02119	0.76336
0.32721	0.61031
0.19971	0.73785
0.35272	0.40625
0.37822	0.22769
0.32721	-0.12942
0.25071	-0.00188
-0.02981	0.25320
-0.28482	0.63582
1.14327	-0.25695
0.78624	-0.33348
0.55673	-0.51203
-0.20832	-0.15492
-0.66735	0.22769
-0.36133	-0.38449
-0.25932	0.50828
-0.43783	0.43176
-0.18282	0.17668
0.86275	0.35523
0.91375	0.68683
0.19971	0.78886
0.65874	0.63582
0.37822	0.27871
1.21977	0.27871
-0.38683	-0.05289
-0.56534	-0.35899
-0.41233	-0.12942
0.07220	-0.05289
0.48022	0.07465
0.25071	0.27871
0.63323	0.50828
0.22521	-0.00188
0.12320	-0.15492
-0.46334	-0.41000
-0.79486	0.04914
0.78624	-0.05289
0.17421	0.68683
0.30171	0.50828
0.14870	0.38074
0.14870	0.32972
-0.00431	0.35523
0.30171	0.07465
0.53123	0.12566
0.17421	-0.48652
-0.02981	-0.00188
0.02119	0.12566
0.09770	-0.38449
0.09770	0.04914
0.07220	0.63582
0.14870	0.58480
0.19971	-0.53754
-0.05531	-0.05289
-0.08081	0.02363
0.63323	0.27871
0.88825	0.50828
0.07220	0.63582
-0.05531	0.30422
-0.59084	0.17668
-0.41233	-0.46102
0.68424	-0.00188
-0.79486	0.25320
-0.25932	0.27871
0.40372	-0.02739
0.45472	-0.05289
0.58223	0.30422
0.27621	0.71234
0.65874	0.30422
0.55673	-0.25695
0.58223	-0.07840
0.27621	0.32972
0.27621	0.38074
0.12320	-0.10391
-0.08081	-0.05289
-0.31033	-0.20594
-0.43783	0.27871
0.04670	0.38074
0.27621	0.17668
-0.23382	-0.25695
-0.69285	0.35523
0.73524	0.48277
0.25071	0.20219
-0.15732	0.15117
0.25071	0.07465
0.25071	0.27871
0.60773	0.04914
0.78624	-0.12942
-0.05531	-0.51203
-0.20832	-0.33348
0.02119	0.61031
-0.08081	0.55929
0.30171	0.81437
0.88825	0.38074
0.25071	0.17668
0.09770	0.04914
0.14870	-0.02739
0.17421	-0.05289
-0.00431	0.22769
0.02119	-0.00188
0.14870	-0.25695
0.22521	-0.07840
-0.38683	0.63582
0.55673	-0.20594
0.53123	-0.00188
0.12320	-0.10391
-0.20832	0.25320
-0.13181	0.12566
0.22521	0.22769
0.04670	0.10015
-0.05531	0.35523
0.40372	0.63582
0.53123	0.40625
0.12320	0.55929
-0.00431	0.04914
0.35272	-0.28246
0.58223	-0.05289
0.32721	0.22769
-0.41233	0.35523
-0.18282	0.35523
0.73524	-0.84363
0.25071	-0.05289
-0.05531	-0.10391
-0.20832	0.22769
-0.00431	0.48277
-0.05531	0.17668
0.04670	-0.05289
1.04126	0.48277
1.34728	0.25320
-0.51434	0.22769
-0.25932	-0.10391
-0.43783	0.25320
-0.00431	0.30422
0.48022	0.30422
0.02119	0.38074
0.02119	0.04914
0.12320	-0.58856
0.07220	-0.20594
0.14870	0.15117
0.22521	0.32972
0.22521	0.48277
0.32721	0.43176
0.09770	0.22769
0.07220	-0.46102
0.04670	0.07465
0.17421	0.07465
-0.02981	0.32972
-0.33583	0.66132
0.17421	0.35523
-0.08081	0.45726
-0.18282	0.07465
0.22521	-0.92016
1.27078	0.15117
-0.00431	0.20219
-0.84586	0.12566
-0.28482	0.43176
-0.25932	0.27871
0.12320	0.30422
0.30171	-0.00188
0.19971	0.15117
0.48022	0.25320
1.55129	0.38074
0.14870	0.17668
-0.41233	-0.12942
-0.87136	0.35523
-0.59084	-0.10391
0.48022	-0.23145
0.73524	0.15117
-0.31033	0.10015
-1.07538	-0.35899
0.35272	0.48277
1.14327	0.25320
0.27621	0.02363
0.04670	0.53379
0.19971	0.48277
-0.10631	0.12566
-0.08081	0.25320
0.50573	0.07465
0.07220	0.40625
-0.13181	0.20219
0.22521	-0.00188
0.14870	-0.23145
0.25071	0.07465
0.30171	-0.05289
0.19971	0.30422
0.07220	0.17668
-0.00431	-0.28246
-0.18282	0.04914
-0.00431	0.48277
0.12320	0.63582
0.25071	0.35523
0.07220	0.81437
-0.08081	0.17668
1.52579	-1.20074
0.19971	-0.46102
-0.92237	0.53379
0.70974	0.45726
0.40372	0.68683
-0.43783	0.30422
-0.02981	0.07465
-0.31033	-0.10391
-0.64185	0.30422
0.81175	0.48277
0.70974	-0.33348
0.73524	-0.20594
0.53123	0.48277
0.63323	-0.30797
0.17421	-0.02739
-1.17738	0.12566
0.60773	0.53379
0.22521	0.15117
-0.64185	-0.00188
-0.53984	-0.12942
0.42922	0.32972
0.58223	0.30422
-0.00431	0.45726
0.93925	0.43176
0.17421	0.30422
0.14870	-0.05289
0.14870	0.25320
0.37822	0.02363
-0.20832	0.02363
0.04670	-0.12942
0.07220	0.15117
-0.31033	-0.00188
0.07220	0.07465
0.42922	0.17668
0.42922	0.17668
-0.05531	0.22769
-0.13181	0.40625
0.02119	0.30422
0.14870	-0.23145
-0.00431	-0.86914
0.63323	-0.28246
0.07220	0.55929
-0.05531	0.40625
0.02119	0.81437
-0.02981	0.50828
0.07220	-0.05289
0.22521	-0.07840
-0.10631	-0.00188
0.22521	0.25320
1.09226	-0.18043
0.30171	0.07465
0.17421	0.32972
0.07220	0.32972
-0.28482	0.38074
-0.20832	0.38074
0.22521	0.10015
-0.79486	-0.41000
0.63323	0.04914
0.48022	0.40625
0.88825	0.30422
0.53123	0.22769
0.22521	0.25320
-0.28482	0.22769
-1.12638	0.40625
0.22521	-0.05289
2.08683	0.17668
0.96476	0.17668
-0.48884	0.02363
-0.89686	-0.00188
-0.33583	0.20219
0.07220	-0.10391
0.09770	-0.00188
0.30171	0.20219
0.30171	0.22769
0.25071	0.04914
0.14870	0.07465
0.22521	0.15117
0.27621	0.53379
0.40372	1.24800
0.35272	-0.10391
-0.15732	-1.12422
0.35272	-0.66508
0.53123	0.40625
-0.08081	0.12566
-0.36133	0.07465
0.19971	0.50828
-0.02981	0.71234
0.17421	0.45726
0.37822	0.27871
0.19971	0.35523
-0.05531	0.43176
0.12320	-0.20594
0.02119	-0.20594
0.25071	-0.41000
0.53123	-0.00188
0.76074	0.02363
-0.56534	0.30422
-0.92237	-0.12942
0.83725	0.10015
0.83725	0.30422
0.68424	0.25320
-0.46334	0.32972
-0.38683	0.35523
0.14870	0.20219
0.25071	0.07465
0.09770	-0.02739
0.07220	0.20219
0.12320	0.83988
0.30171	-0.15492
0.35272	0.15117
0.78624	-0.33348
0.22521	0.15117
-0.00431	0.07465
0.07220	-0.07840
-0.59084	0.10015
-0.15732	0.32972
0.32721	0.58480
0.32721	0.43176
-0.20832	0.43176
0.88825	0.32972
0.73524	0.17668
0.02119	0.43176
0.12320	-0.10391
-0.41233	-0.12942
-0.41233	-0.35899
0.42922	0.04914
0.35272	0.04914
0.30171	0.35523
0.14870	0.32972
-0.20832	0.35523
0.55673	0.22769
1.16877	-0.28246
-0.53984	0.10015
-0.53984	0.02363
0.09770	0.22769
0.19971	0.17668
0.07220	0.48277
0.09770	0.48277
0.17421	-0.25695
0.25071	-0.25695
0.30171	0.12566
0.17421	0.20219
0.12320	0.78886
0.14870	-0.10391
-0.59084	-0.12942
0.04670	-0.30797
0.45472	0.38074
0.65874	0.32972
0.27621	0.04914
-0.56534	0.15117
-0.02981	0.27871
-0.36133	-0.12942
0.27621	0.02363
0.60773	0.35523
-0.20832	0.15117
0.60773	0.17668
0.70974	0.48277
-0.10631	0.43176
-0.15732	0.10015
0.48022	0.07465
0.32721	0.25320
0.48022	0.20219
-0.05531	0.02363
-0.28482	-0.02739
-0.53984	0.02363
-0.02981	0.45726
0.37822	0.61031
0.17421	-1.02219
0.50573	-0.94566
0.68424	0.61031
0.37822	0.73785
-0.28482	0.04914
-0.51434	0.10015
-0.23382	0.55929
0.53123	0.68683
0.88825	0.15117
0.27621	-0.33348
-0.64185	0.48277
0.07220	-0.05289
0.55673	0.45726
0.37822	0.83988
0.32721	0.04914
-0.00431	-0.48652
0.02119	-0.43551
-0.02981	0.10015
0.04670	0.27871
0.19971	0.02363
0.19971	-0.05289
0.09770	0.32972
0.14870	0.20219
-0.00431	-0.20594
0.27621	-0.38449
-0.08081	-0.02739
0.27621	0.35523
-0.25932	0.35523
0.14870	0.20219
1.90832	0.27871
-0.43783	0.30422
0.04670	0.25320
0.22521	0.02363
-0.69285	0.04914
-0.51434	1.24800
-0.69285	-0.20594
-0.41233	-1.71090
-0.05531	-0.97117
0.42922	-0.05289
0.76074	0.91640
0.78624	0.76336
0.48022	0.53379
0.70974	0.38074
0.30171	0.40625
0.19971	0.15117
-0.05531	-0.05289
0.02119	-0.25695
0.07220	-0.15492
-0.25932	-0.02739
-0.59084	0.12566
0.09770	0.15117
0.35272	0.48277
0.19971	0.15117
-0.02981	0.53379
0.25071	-0.61406
0.14870	-0.43551
-0.05531	-0.15492
-0.79486	0.50828
0.91375	1.06945
1.01576	0.12566
-0.25932	-0.25695
-0.08081	0.50828
0.40372	0.76336
0.17421	-0.28246
0.58223	0.04914
0.19971	-0.05289
-0.08081	-0.10391
-0.05531	0.17668
-0.08081	0.89089
0.09770	0.27871
0.27621	0.32972
0.22521	-0.18043
0.30171	-0.15492
0.30171	0.35523
-0.13181	0.20219
0.12320	-0.58856
0.60773	-0.63957
0.14870	0.07465
-0.25932	0.45726
-0.51434	0.71234
0.04670	0.04914
0.19971	0.45726
0.53123	0.68683
1.21977	-0.00188
0.45472	-0.35899
-0.71835	0.02363
-0.08081	0.12566
0.45472	0.27871
