0.12320	0.20219
0.17421	0.40625
0.19971	0.30422
0.19971	0.10015
0.17421	0.15117
0.12320	0.10015
0.02119	0.04914
0.07220	0.15117
0.17421	0.10015
0.17421	0.15117
0.22521	0.12566
0.14870	0.12566
0.09770	0.10015
0.07220	0.12566
0.09770	0.20219
0.09770	0.15117
0.17421	0.15117
0.14870	0.10015
0.14870	0.15117
0.19971	0.15117
0.17421	0.25320
0.19971	0.17668
0.14870	0.10015
0.04670	0.10015
0.12320	0.15117
0.17421	0.12566
0.07220	-0.05289
0.12320	0.04914
0.14870	0.45726
0.22521	0.40625
0.12320	0.12566
0.12320	-0.15492
0.12320	0.02363
0.17421	0.04914
0.12320	0.12566
0.09770	0.02363
0.04670	0.25320
0.12320	0.38074
0.22521	0.48277
0.14870	0.27871
0.14870	-0.05289
0.17421	0.15117
0.17421	0.22769
0.17421	0.15117
0.12320	0.04914
0.04670	0.02363
0.12320	-0.02739
0.12320	0.15117
0.27621	0.32972
0.17421	0.04914
0.19971	0.17668
0.09770	0.20219
0.09770	0.30422
0.12320	0.10015
0.22521	-0.00188
0.14870	0.17668
0.19971	0.22769
0.17421	0.20219
0.12320	0.30422
0.09770	0.32972
0.07220	0.15117
0.09770	0.04914
0.04670	-0.07840
0.09770	0.12566
0.12320	0.17668
0.09770	0.25320
0.14870	0.20219
0.14870	0.22769
0.19971	0.10015
0.14870	0.17668
0.19971	0.12566
0.17421	0.17668
0.19971	-0.05289
0.12320	0.30422
0.14870	-0.00188
0.02119	-0.23145
-0.00431	-0.05289
0.09770	0.43176
0.17421	0.50828
0.27621	0.30422
0.22521	0.15117
0.12320	0.27871
0.17421	0.30422
0.22521	0.07465
0.09770	-0.05289
-0.00431	0.12566
0.09770	-0.02739
0.09770	0.35523
0.22521	0.10015
0.14870	0.15117
0.14870	-0.02739
0.12320	0.04914
0.14870	-0.02739
0.12320	0.20219
0.22521	0.22769
0.12320	0.12566
0.02119	0.22769
0.12320	0.25320
0.22521	0.17668
0.19971	0.20219
0.14870	0.20219
0.14870	0.17668
0.14870	0.10015
0.09770	-0.05289
0.14870	0.10015
0.07220	0.15117
0.04670	0.25320
0.17421	0.22769
0.19971	-0.05289
0.12320	0.02363
0.25071	0.02363
0.12320	0.27871
0.07220	0.22769
0.14870	0.30422
0.19971	0.22769
0.04670	0.15117
0.12320	0.15117
0.19971	0.22769
0.14870	0.12566
0.12320	-0.00188
0.19971	0.07465
0.25071	0.30422
0.12320	0.17668
0.07220	0.02363
0.09770	0.07465
0.09770	-0.02739
0.14870	0.17668
0.14870	0.07465
0.14870	0.22769
0.17421	0.15117
0.19971	0.25320
0.22521	0.15117
0.09770	0.07465
0.07220	0.20219
0.17421	0.10015
0.14870	0.12566
0.02119	0.15117
0.04670	0.10015
0.17421	0.17668
0.22521	0.27871
0.17421	0.12566
0.09770	0.12566
0.12320	0.17668
0.22521	0.15117
0.12320	-0.05289
0.04670	0.15117
0.12320	0.22769
0.19971	0.22769
0.17421	0.22769
0.22521	0.10015
0.14870	0.48277
0.19971	0.30422
0.12320	-0.33348
0.04670	-0.05289
0.17421	-0.23145
0.19971	0.04914
0.07220	0.32972
0.02119	0.48277
0.17421	0.27871
0.25071	0.17668
0.22521	-0.10391
0.12320	0.10015
0.12320	0.25320
0.17421	0.25320
0.14870	0.25320
0.04670	0.25320
0.07220	0.10015
0.19971	0.12566
0.17421	0.04914
0.07220	-0.02739
0.14870	0.04914
0.17421	0.10015
0.14870	0.17668
0.14870	0.17668
-0.00431	0.32972
0.17421	0.35523
0.17421	0.10015
0.14870	0.10015
0.12320	0.02363
0.17421	0.17668
0.17421	0.25320
0.22521	0.17668
0.14870	0.07465
0.12320	0.12566
0.09770	0.17668
0.12320	0.07465
0.12320	0.12566
0.12320	0.12566
0.12320	0.17668
0.25071	0.15117
0.17421	0.04914
0.19971	0.12566
0.02119	-0.00188
0.07220	0.15117
0.17421	0.25320
0.09770	0.22769
0.07220	0.25320
0.19971	0.45726
0.22521	-0.12942
0.30171	0.07465
0.17421	0.25320
0.09770	0.20219
0.14870	-0.15492
0.22521	-0.33348
0.09770	0.17668
-0.05531	0.63582
0.07220	0.25320
0.09770	0.17668
0.12320	0.12566
0.27621	0.25320
0.22521	0.12566
0.14870	0.15117
0.14870	0.07465
0.17421	0.04914
0.12320	0.15117
0.04670	0.17668
0.12320	0.17668
0.14870	-0.28246
0.14870	0.35523
0.22521	0.48277
0.19971	-0.15492
0.09770	-0.07840
0.12320	0.15117
0.17421	0.35523
0.12320	0.25320
0.04670	0.25320
0.12320	0.25320
0.25071	0.15117
0.19971	0.10015
0.12320	0.20219
0.22521	0.07465
0.22521	0.04914
0.07220	0.12566
0.14870	0.15117
0.14870	0.07465
0.19971	0.04914
0.07220	0.27871
0.02119	0.12566
0.12320	-0.15492
0.17421	-0.38449
0.12320	0.07465
0.12320	0.43176
0.17421	0.53379
0.22521	0.43176
0.17421	0.43176
0.12320	0.02363
-0.00431	0.17668
0.09770	0.10015
0.12320	0.30422
0.30171	0.10015
0.22521	0.02363
0.09770	0.15117
0.09770	0.10015
0.12320	-0.23145
0.04670	-0.35899
-0.13181	0.17668
0.07220	0.38074
0.22521	0.30422
0.32721	0.32972
0.40372	0.48277
0.14870	0.55929
0.09770	0.35523
0.07220	-0.84363
-0.02981	-0.66508
0.22521	0.40625
0.17421	0.45726
0.12320	0.40625
0.07220	0.25320
0.17421	0.07465
0.14870	0.53379
0.12320	-0.46102
0.07220	-0.05289
0.19971	0.48277
0.19971	0.71234
0.30171	1.47757
0.22521	-0.25695
0.02119	-1.86394
-0.10631	-0.71609
-0.08081	0.58480
-0.00431	1.04394
0.19971	0.50828
0.37822	-0.00188
0.53123	0.27871
-0.00431	0.63582
0.12320	-0.81812
0.19971	-0.63957
-0.13181	0.07465
0.02119	0.96742
0.25071	0.43176
0.09770	0.83988
0.42922	-0.12942
0.83725	-1.14973
-0.28482	-1.53234
-0.79486	0.94191
-0.00431	1.04394
0.58223	1.22250
0.65874	0.12566
0.17421	-1.04770
-0.10631	0.02363
-0.61635	0.91640
-0.08081	0.32972
0.37822	0.35523
-0.31033	0.02363
-0.33583	-0.10391
1.32178	-0.15492
0.35272	-0.20594
0.63323	-0.23145
1.52579	0.35523
-0.23382	0.55929
-0.59084	-0.38449
-0.84586	0.22769
-0.05531	0.66132
0.42922	0.89089
0.17421	0.02363
-0.23382	-0.43551
0.35272	-0.18043
0.48022	1.19699
1.14327	-0.46102
1.24527	-0.18043
0.73524	-1.27726
-1.38139	-0.05289
-2.65648	0.43176
0.30171	1.24800
2.77537	0.45726
-0.05531	0.71234
-0.74385	-0.00188
-0.79486	0.17668
-0.69285	0.07465
1.37278	0.43176
-0.15732	0.04914
-0.89686	-0.66508
0.42922	-0.20594
3.00489	0.99292
1.19427	-0.18043
-1.02437	0.91640
-1.22839	-0.86914
0.12320	-0.99668
-0.51434	-0.81812
-0.92237	0.81437
1.24527	1.24800
2.13783	0.94191
-0.87136	0.35523
0.22521	-0.15492
-0.87136	0.30422
0.53123	-0.28246
0.93925	0.15117
0.27621	0.10015
-0.64185	-0.00188
-0.48884	-0.05289
-0.05531	0.35523
0.60773	0.61031
0.22521	-0.20594
-0.79486	-0.74160
0.91375	0.15117
0.12320	0.55929
1.32178	1.68163
-0.56534	-0.25695
-0.38683	-1.53234
-0.61635	-2.11902
0.22521	0.94191
-0.28482	1.27351
-0.10631	1.32453
-0.36133	0.71234
0.37822	-0.20594
0.63323	0.61031
1.16877	0.63582
1.34728	1.01843
0.02119	0.17668
-0.53984	-0.28246
-0.92237	-0.35899
0.12320	-1.63437
0.99026	0.17668
2.59686	0.15117
-0.20832	0.38074
-0.92237	0.17668
-2.22295	0.81437
0.37822	0.86539
2.85188	-0.86914
-0.79486	-0.51203
0.12320	0.83988
0.17421	0.32972
1.01576	-0.38449
-2.22295	-0.48652
-0.43783	0.10015
-2.24845	0.48277
2.90288	0.81437
3.66793	1.17148
0.55673	0.35523
-0.71835	0.38074
0.09770	-0.15492
-0.71835	-0.51203
-1.68742	-0.43551
-0.48884	0.15117
-0.20832	0.22769
-0.02981	0.10015
0.40372	0.50828
1.04126	0.45726
1.44929	0.04914
0.76074	-0.53754
-0.48884	0.25320
0.76074	-0.05289
1.55129	0.71234
0.17421	-0.63957
-1.04987	0.58480
-0.48884	-0.41000
-0.38683	-0.10391
-0.08081	0.63582
0.12320	1.98773
-0.08081	1.27351
0.02119	0.48277
0.48022	-1.22625
0.17421	-0.69059
-0.05531	-0.53754
-0.31033	-0.20594
0.65874	0.45726
-0.10631	0.25320
-0.89686	0.99292
1.55129	0.53379
1.21977	-0.33348
-1.76392	0.43176
-0.08081	0.25320
2.77537	-0.61406
1.70430	-1.60887
-0.61635	0.10015
-1.81492	0.66132
-1.27939	1.24800
-0.79486	0.66132
0.30171	0.63582
0.12320	0.45726
0.91375	0.25320
0.88825	-0.28246
-1.33039	0.32972
0.25071	-0.38449
1.62780	-0.46102
2.46935	-0.07840
0.73524	-0.25695
-1.12638	-0.18043
-1.48340	0.12566
-0.89686	0.76336
-1.25389	0.96742
0.48022	-0.33348
1.98482	0.66132
0.93925	0.04914
-0.61635	1.19699
-0.38683	-0.46102
0.32721	-0.20594
1.04126	-0.81812
0.32721	0.22769
-0.89686	1.32453
-0.97337	-0.84363
0.02119	-0.56305
0.65874	0.25320
0.17421	2.31933
0.35272	1.24800
0.40372	-1.48133
0.32721	-2.01699
-0.28482	-0.02739
0.48022	1.55410
0.73524	1.04394
0.19971	0.66132
-1.66191	0.76336
-0.66735	-0.35899
3.00489	-0.71609
0.88825	-0.38449
0.35272	0.02363
-0.69285	-0.05289
-1.63641	-0.15492
-0.99887	0.43176
1.39828	0.48277
1.04126	0.40625
-2.35046	0.38074
0.37822	0.02363
1.60230	-0.15492
0.55673	-0.43551
0.27621	0.71234
-0.89686	0.48277
-0.28482	0.20219
0.25071	0.20219
0.07220	0.12566
0.09770	0.12566
0.07220	-0.05289
-0.41233	-0.30797
0.48022	0.38074
-0.13181	0.71234
0.07220	-0.25695
1.42379	-0.56305
1.09226	-0.79262
1.44929	1.35003
0.27621	0.12566
-0.38683	-0.53754
-0.64185	0.55929
-0.89686	0.78886
-1.22839	0.15117
0.07220	0.30422
0.27621	1.17148
-0.59084	0.12566
0.86275	0.27871
1.21977	-0.69059
0.19971	-0.15492
-0.64185	0.00000
1.01576	-0.46102
0.65874	-0.18043
-0.38683	0.35523
0.02119	0.73785
0.53123	0.66132
1.85731	0.27871
0.65874	-0.94566
-2.40146	-0.35899
-1.89143	0.66132
-0.15732	0.58480
0.50573	-0.02739
0.14870	-0.02739
0.48022	0.25320
1.98482	0.66132
0.53123	0.58480
0.17421	-0.43551
0.42922	0.02363
0.22521	0.25320
-0.33583	-0.28246
-0.36133	0.32972
-0.13181	0.35523
-0.13181	-0.23145
0.27621	-0.05289
0.27621	0.66132
0.25071	0.53379
0.22521	0.35523
0.22521	0.45726
-0.23382	-0.07840
-0.43783	-0.74160
0.65874	-1.27726
0.55673	-0.15492
1.42379	1.04394
-0.23382	1.75816
0.09770	1.04394
-0.28482	-0.35899
-1.27939	0.02363
0.27621	-0.10391
0.91375	1.01843
0.04670	-0.05289
-0.84586	-0.81812
0.02119	-1.65988
0.58223	-0.23145
1.01576	1.01843
0.22521	1.06945
1.21977	1.68163
1.24527	0.61031
0.53123	-0.79262
-0.48884	-1.30277
-1.68742	-0.35899
-0.53984	0.53379
-0.28482	0.68683
0.86275	0.99292
0.65874	0.25320
0.53123	-0.07840
-0.31033	0.32972
-0.36133	0.35523
0.32721	0.17668
0.53123	0.15117
-0.56534	0.02363
1.16877	-0.69059
0.73524	-0.74160
-0.08081	0.04914
-0.38683	0.38074
0.09770	0.68683
0.12320	0.53379
-0.25932	-0.20594
0.14870	1.17148
0.12320	-0.25695
0.25071	-0.10391
0.04670	-0.94566
0.55673	1.24800
0.09770	0.43176
0.19971	-0.69059
-0.13181	0.48277
-0.31033	0.32972
0.04670	0.86539
1.39828	-0.41000
0.50573	0.27871
-0.76936	-0.46102
-0.41233	0.55929
-0.53984	0.30422
0.02119	0.25320
-0.08081	0.81437
1.04126	-0.05289
0.17421	0.10015
0.02119	-0.23145
0.07220	-0.92016
0.63323	-0.43551
0.30171	-0.35899
-0.08081	0.63582
0.35272	0.48277
0.86275	0.76336
0.91375	0.78886
-0.71835	0.61031
-0.46334	0.15117
-0.28482	0.17668
0.55673	0.15117
-0.36133	0.04914
-0.28482	-0.63957
-0.20832	-0.76711
0.17421	0.17668
0.45472	0.76336
0.02119	0.76336
1.16877	-0.41000
0.99026	0.07465
-0.33583	0.27871
-0.53984	-0.10391
0.14870	-0.46102
0.53123	1.96222
0.22521	-0.10391
-0.28482	-0.69059
-0.36133	-1.25176
0.60773	1.37554
0.02119	1.06945
-0.10631	0.32972
0.70974	-0.86914
0.35272	0.61031
-0.87136	0.15117
0.12320	0.10015
0.83725	0.73785
0.32721	0.81437
1.27078	0.22769
-0.56534	-0.71609
-0.94787	-0.74160
-0.25932	0.83988
-0.05531	-1.12422
0.27621	0.22769
0.32721	0.55929
1.52579	0.43176
0.68424	0.17668
-0.23382	0.27871
0.55673	0.12566
-0.53984	-0.02739
0.58223	0.27871
0.14870	0.22769
-0.92237	0.83988
-0.51434	-0.48652
-0.08081	-0.20594
0.68424	0.07465
1.16877	0.38074
0.14870	0.15117
0.48022	0.17668
0.22521	0.32972
0.02119	0.50828
-0.36133	0.12566
0.48022	0.43176
1.19427	0.96742
-0.25932	-0.99668
0.25071	-1.81293
0.09770	-0.94566
-1.38139	1.60511
0.14870	1.17148
0.76074	0.68683
-0.05531	0.25320
-0.10631	1.12046
-1.30489	-0.35899
0.88825	-1.48133
1.85731	-0.79262
0.53123	0.40625
-0.56534	0.35523
-0.76936	0.86539
0.63323	0.96742
0.35272	0.07465
0.12320	0.30422
0.25071	-1.48133
-0.10631	-0.66508
0.25071	0.50828
-0.38683	0.91640
0.07220	0.76336
2.26534	0.38074
0.12320	0.07465
-1.61091	-0.00188
-0.38683	0.27871
0.07220	0.04914
-0.23382	0.07465
0.88825	0.30422
0.93925	-0.10391
0.27621	-0.41000
0.45472	-0.18043
-1.17738	0.38074
0.19971	0.25320
1.01576	0.73785
-0.28482	0.68683
0.45472	-0.05289
0.93925	0.10015
-0.61635	-0.30797
-0.69285	-0.35899
0.07220	-0.15492
-0.53984	0.91640
1.11776	0.35523
0.32721	0.12566
0.25071	-0.97117
-0.13181	0.20219
0.45472	0.89089
0.09770	0.40625
0.48022	0.61031
0.09770	-0.18043
-0.33583	-0.56305
-0.08081	0.94191
-0.05531	0.22769
-0.02981	-0.05289
0.19971	-0.05289
0.91375	0.45726
0.96476	-0.43551
-0.00431	-0.66508
-0.13181	-0.23145
-0.15732	0.89089
0.09770	0.38074
0.22521	0.02363
-0.43783	0.25320
-0.74385	0.35523
0.60773	0.25320
0.63323	0.43176
-0.46334	0.25320
-0.59084	-0.10391
0.30171	0.20219
0.58223	0.40625
0.86275	0.02363
0.07220	-0.25695
0.04670	0.07465
0.09770	0.17668
-0.28482	-0.30797
-0.38683	0.02363
-0.13181	0.35523
0.50573	0.04914
0.48022	0.20219
0.50573	0.53379
0.65874	-0.18043
0.22521	0.07465
0.22521	1.63062
-0.31033	0.22769
-0.08081	-0.61406
-0.92237	-0.89465
1.37278	0.45726
0.88825	0.86539
-1.15188	0.50828
-0.23382	0.43176
1.90832	0.61031
-0.33583	0.22769
-0.76936	0.04914
-0.18282	-0.71609
-0.08081	-0.97117
-0.41233	0.68683
-0.71835	1.24800
1.04126	-0.46102
1.06676	-0.56305
-0.18282	-0.15492
0.12320	0.43176
-0.02981	0.86539
0.58223	0.50828
0.63323	-0.53754
0.07220	-0.84363
-0.18282	-0.18043
0.04670	1.14597
-0.00431	0.81437
0.22521	0.07465
0.02119	0.02363
0.14870	0.32972
0.12320	0.35523
0.91375	0.27871
0.40372	0.15117
-0.18282	0.04914
-0.64185	-0.05289
0.99026	-0.20594
1.11776	-0.07840
-0.87136	0.10015
-0.46334	0.20219
-0.33583	0.04914
-0.10631	0.04914
-0.25932	0.22769
-0.36133	0.40625
0.73524	0.45726
1.04126	0.20219
1.01576	-0.48652
0.22521	0.17668
-0.10631	-0.46102
1.24527	0.04914
-0.43783	0.99292
-0.56534	-0.12942
-0.51434	0.55929
0.12320	0.66132
0.99026	0.99292
0.68424	0.02363
0.12320	0.63582
0.25071	-0.56305
-0.20832	0.15117
-0.23382	-0.30797
-0.53984	0.30422
-0.28482	-0.79262
1.09226	0.71234
0.48022	0.17668
0.73524	-0.41000
-0.23382	-0.12942
-1.04987	0.45726
0.09770	0.78886
0.70974	0.63582
0.48022	-0.25695
0.48022	0.10015
-0.02981	0.15117
0.09770	0.07465
-1.22839	0.25320
1.44929	0.20219
1.98482	0.22769
-0.51434	0.22769
-0.28482	0.68683
-1.53441	-0.05289
0.22521	-0.99668
0.70974	-0.10391
0.27621	-0.15492
0.83725	0.02363
0.25071	1.01843
-1.33039	0.94191
-0.79486	0.22769
0.37822	-0.20594
0.07220	-0.46102
0.70974	0.25320
0.55673	0.38074
0.55673	0.27871
0.86275	0.30422
-0.20832	0.27871
0.02119	0.58480
0.93925	-0.05289
-0.41233	-1.25176
-0.23382	-0.74160
0.86275	0.17668
-0.28482	0.63582
-0.23382	0.61031
0.07220	-0.07840
0.02119	0.86539
0.02119	0.20219
-0.25932	0.32972
0.17421	-0.20594
0.55673	0.53379
0.70974	-0.79262
0.19971	0.10015
-0.00431	0.99292
-0.00431	0.35523
-1.30489	0.48277
-0.08081	-1.20074
1.57679	-0.51203
1.16877	1.01843
0.02119	0.43176
-0.84586	0.32972
-0.92237	0.38074
1.29628	-0.15492
1.04126	0.27871
0.32721	0.02363
-0.66735	0.25320
-0.97337	-0.28246
-0.61635	-0.48652
0.73524	0.32972
0.53123	0.55929
-0.61635	0.30422
0.22521	0.30422
1.19427	0.32972
0.40372	0.04914
0.25071	-0.00188
-0.18282	-0.05289
-0.20832	0.43176
0.04670	0.32972
0.83725	0.12566
0.04670	-0.23145
-0.10631	0.30422
0.25071	-0.23145
-0.69285	-0.18043
0.68424	1.22250
0.40372	0.45726
0.81175	-0.12942
0.22521	-0.74160
-0.69285	-0.28246
-0.33583	0.55929
0.32721	0.91640
0.37822	0.20219
0.04670	0.50828
-0.02981	0.04914
-0.13181	0.04914
-0.02981	-0.05289
0.53123	0.32972
-0.23382	-1.02219
0.14870	-1.14973
0.22521	0.38074
0.68424	1.55410
0.19971	1.09496
-0.18282	0.38074
-0.05531	-0.46102
-0.13181	-0.20594
0.83725	0.04914
1.14327	0.12566
0.53123	0.30422
-1.30489	0.43176
-0.28482	0.55929
0.50573	-0.20594
-0.94787	-1.02219
0.42922	0.38074
1.47479	0.48277
-0.79486	0.15117
0.32721	0.25320
1.06676	0.10015
-0.18282	-0.15492
-0.89686	-0.00188
-0.36133	0.63582
0.42922	0.32972
0.86275	0.20219
0.32721	0.63582
0.17421	-0.33348
-0.08081	-0.05289
0.42922	0.43176
0.25071	0.15117
-0.18282	0.40625
0.42922	-0.28246
1.04126	0.17668
-0.31033	-0.92016
-0.33583	0.30422
-0.08081	0.50828
-0.15732	0.40625
-0.61635	0.68683
0.55673	-0.18043
0.55673	-0.25695
0.42922	0.32972
0.53123	0.27871
-0.56534	0.50828
-0.56534	-0.79262
-0.08081	0.20219
0.45472	0.86539
0.63323	1.14597
0.68424	-0.28246
0.65874	-0.15492
0.32721	0.43176
0.14870	-0.07840
-0.38683	-0.25695
0.81175	0.58480
-0.18282	0.61031
0.32721	0.17668
-0.02981	-0.07840
-1.02437	-0.66508
0.40372	-0.15492
0.30171	-0.46102
1.01576	0.04914
0.48022	0.89089
-1.25389	0.61031
0.60773	0.10015
1.50029	0.55929
0.19971	0.35523
0.07220	0.30422
-0.08081	0.48277
-0.20832	-0.33348
-0.05531	0.04914
-0.59084	0.04914
0.53123	-0.07840
0.40372	-0.10391
0.65874	0.32972
0.19971	-0.05289
-0.13181	0.07465
-0.00431	0.04914
0.09770	0.71234
0.60773	0.45726
0.30171	-0.20594
0.37822	0.20219
0.14870	0.40625
-0.31033	-0.25695
-0.05531	-1.50683
0.37822	0.96742
0.14870	0.96742
-0.02981	0.55929
0.32721	-0.18043
0.09770	0.38074
0.07220	1.12046
0.42922	0.89089
0.76074	0.20219
-0.82036	-1.14973
-1.30489	-0.58856
1.24527	-0.35899
3.76993	1.04394
0.40372	-0.05289
-0.94787	0.15117
-2.12094	0.35523
-1.07538	0.48277
-0.13181	0.17668
1.39828	-0.00188
0.96476	0.17668
0.42922	0.35523
-0.08081	0.25320
-0.05531	0.35523
-0.48884	-0.25695
-0.66735	-0.51203
1.14327	-0.58856
0.40372	0.22769
-0.20832	0.40625
0.45472	0.43176
1.14327	0.66132
0.48022	0.68683
-0.31033	0.15117
0.12320	-0.25695
-0.08081	0.15117
-0.08081	-0.05289
-0.00431	0.50828
0.09770	0.04914
0.14870	0.66132
0.30171	-1.17523
0.14870	-1.12422
0.17421	0.15117
0.12320	1.09496
0.09770	0.61031
0.42922	0.32972
0.07220	0.30422
-0.02981	0.50828
0.09770	0.15117
0.14870	0.22769
-0.15732	-0.46102
-0.08081	-0.25695
1.09226	-0.10391
0.19971	0.45726
-0.05531	0.55929
-0.76936	-0.15492
0.42922	0.25320
0.35272	-0.51203
-1.86593	0.50828
2.54586	0.02363
2.46935	0.35523
-0.25932	0.50828
-1.45790	0.35523
-0.82036	0.66132
1.34728	0.15117
-0.48884	-0.05289
-0.87136	0.07465
-0.48884	-0.28246
0.17421	0.04914
0.30171	0.17668
0.30171	-0.00188
0.17421	0.66132
0.63323	0.17668
0.63323	-0.05289
0.55673	-0.86914
0.48022	0.30422
0.04670	0.32972
-0.38683	0.53379
0.81175	0.89089
-0.08081	-0.05289
-0.23382	-1.20074
0.07220	0.02363
0.09770	0.76336
-0.31033	1.35003
0.30171	0.73785
0.45472	0.55929
-0.10631	-0.10391
0.25071	-0.56305
0.07220	-1.37929
-0.48884	0.22769
0.42922	0.22769
0.86275	1.14597
-0.46334	0.55929
-0.69285	-0.74160
2.49485	-0.30797
1.32178	-0.07840
-0.59084	-0.18043
-0.87136	0.35523
0.07220	0.43176
-0.18282	0.83988
0.45472	0.38074
0.63323	0.20219
0.37822	0.17668
-0.46334	0.15117
-0.94787	-0.02739
0.22521	-0.12942
0.32721	-0.28246
0.50573	0.02363
0.53123	-0.10391
0.09770	0.17668
-0.23382	0.12566
0.09770	-0.05289
1.24527	0.45726
0.04670	0.55929
-0.84586	0.48277
0.40372	0.32972
1.14327	-0.12942
-0.08081	1.27351
-0.99887	-0.18043
-0.56534	-0.53754
0.76074	-0.18043
-0.10631	-0.92016
0.12320	0.61031
0.02119	0.63582
-0.15732	1.04394
0.65874	-0.38449
0.27621	0.91640
-0.10631	0.63582
0.09770	0.02363
0.37822	-0.15492
0.48022	-0.81812
0.45472	0.86539
0.53123	0.58480
0.09770	0.02363
-0.51434	-1.76191
0.48022	-0.53754
0.70974	-0.10391
0.50573	0.96742
-1.12638	0.61031
-0.53984	0.40625
0.14870	1.22250
0.81175	0.43176
0.91375	-0.28246
-0.36133	-0.20594
1.32178	0.04914
0.45472	0.17668
-1.33039	0.35523
-0.53984	0.35523
-0.08081	-0.00188
0.22521	0.30422
0.22521	0.04914
1.14327	-0.05289
0.73524	0.02363
0.58223	0.32972
-0.82036	-0.30797
0.42922	0.15117
0.07220	0.12566
-0.66735	0.43176
0.35272	0.45726
-0.10631	0.48277
0.65874	0.35523
0.65874	-0.00188
-0.10631	-0.00188
0.04670	0.76336
-0.02981	-0.66508
0.07220	-2.04250
0.30171	-0.41000
0.22521	0.94191
0.14870	1.47757
0.22521	0.53379
0.32721	0.02363
0.07220	0.02363
-0.43783	0.53379
0.12320	0.58480
-0.38683	0.48277
-0.10631	0.20219
0.81175	0.50828
0.63323	-0.86914
0.22521	-1.68539
0.55673	-0.41000
0.48022	0.12566
-0.69285	0.89089
-1.50890	-0.05289
1.55129	0.32972
0.53123	0.94191
0.50573	0.50828
1.11776	0.40625
0.07220	0.25320
-1.12638	0.10015
-1.17738	-0.00188
-0.10631	-0.00188
0.19971	0.10015
-0.05531	0.04914
0.86275	0.17668
0.63323	0.15117
0.14870	-0.05289
0.40372	-0.10391
0.07220	-0.15492
-0.00431	-0.05289
0.32721	0.61031
0.35272	0.53379
0.27621	-0.02739
0.09770	0.02363
-0.28482	0.35523
0.99026	0.45726
0.14870	0.78886
-0.23382	0.61031
-0.18282	-0.97117
-0.02981	-0.99668
0.55673	-0.23145
0.68424	0.35523
-0.41233	-0.12942
-0.43783	0.43176
-0.02981	1.52859
0.42922	1.06945
-0.10631	0.12566
0.65874	-0.61406
1.32178	0.20219
-0.33583	0.50828
-0.92237	1.01843
-0.71835	-1.12422
1.11776	-0.56305
1.09226	-0.56305
-1.66191	0.25320
-0.25932	-0.20594
1.32178	0.81437
1.37278	0.96742
-0.13181	0.58480
-0.28482	-0.12942
-0.33583	-0.28246
-0.18282	0.22769
1.72980	0.25320
-0.08081	0.15117
-0.61635	0.10015
-0.13181	0.02363
-0.08081	-0.00188
0.19971	0.10015
0.35272	0.15117
-0.10631	0.12566
-0.92237	0.27871
0.12320	0.32972
0.76074	0.10015
0.30171	0.50828
0.22521	-0.10391
0.99026	-0.12942
-0.18282	-0.30797
-0.18282	-0.30797
0.48022	0.83988
0.40372	0.53379
0.02119	1.60511
0.35272	-0.66508
-0.13181	-1.17523
0.07220	-0.53754
-0.18282	0.96742
0.19971	0.66132
0.07220	0.83988
1.47479	1.06945
-0.18282	0.15117
-0.89686	0.02363
-0.61635	-0.51203
-0.25932	0.20219
0.25071	-0.51203
-0.20832	0.22769
0.27621	0.07465
1.80631	-0.51203
0.76074	-0.81812
-0.71835	-0.12942
1.19427	0.15117
-0.13181	0.83988
-1.68742	0.45726
-1.27939	0.50828
2.26534	0.45726
1.72980	0.25320
0.14870	0.27871
-0.76936	0.25320
0.45472	0.02363
0.45472	0.10015
-0.79486	-0.02739
0.17421	0.17668
-0.08081	-0.12942
-0.25932	-0.02739
0.68424	0.17668
0.30171	0.86539
0.14870	-0.63957
0.25071	0.04914
-0.08081	0.10015
0.12320	-0.15492
0.30171	-0.05289
0.19971	0.30422
0.02119	0.61031
0.04670	0.55929
-0.00431	0.43176
0.50573	-0.15492
0.12320	0.48277
0.42922	-0.12942
0.30171	-1.04770
-0.23382	-0.20594
-0.13181	0.78886
-0.18282	0.73785
1.09226	0.15117
0.04670	0.17668
-0.15732	0.20219
-0.48884	0.83988
-0.02981	0.22769
0.86275	-1.07320
0.53123	-0.10391
-0.48884	0.96742
0.25071	-0.28246
-0.56534	-0.43551
-0.00431	-0.51203
-0.00431	0.68683
1.80631	0.71234
0.88825	0.66132
-0.66735	0.45726
0.09770	0.22769
0.02119	-0.20594
0.04670	-0.15492
1.34728	0.25320
-0.20832	0.27871
-1.12638	0.22769
0.27621	-0.12942
-0.10631	0.40625
-0.53984	-0.20594
1.32178	-0.28246
0.35272	-0.10391
-0.36133	0.27871
-0.15732	0.68683
0.37822	0.50828
0.53123	0.30422
0.40372	-0.33348
0.22521	0.04914
0.07220	0.45726
0.14870	0.40625
0.25071	0.66132
0.14870	-0.23145
0.12320	0.27871
-0.18282	-0.61406
-0.05531	-0.35899
0.09770	-0.15492
0.30171	0.10015
0.07220	0.32972
-0.00431	0.22769
0.12320	0.53379
0.19971	0.53379
0.09770	0.53379
-0.46334	0.55929
0.37822	-0.25695
1.44929	-0.33348
-0.10631	0.22769
-1.50890	-0.69059
-0.28482	-0.84363
3.31091	-0.23145
0.76074	0.25320
-1.10088	0.48277
-0.94787	0.61031
-0.10631	0.83988
0.32721	0.53379
0.88825	0.61031
-0.28482	0.38074
-0.53984	0.15117
-0.10631	-0.99668
0.53123	-0.43551
0.30171	0.10015
0.42922	0.38074
0.17421	0.38074
-0.20832	0.30422
1.32178	-0.10391
-0.05531	0.66132
0.76074	-0.07840
0.91375	-0.07840
-0.64185	0.17668
-0.53984	0.25320
-0.38683	0.07465
-0.10631	0.35523
-0.05531	0.53379
0.14870	0.43176
0.32721	0.22769
0.19971	-1.17523
0.02119	-0.56305
0.25071	-0.30797
0.53123	0.50828
0.37822	0.78886
0.22521	0.63582
0.19971	0.53379
-0.13181	0.68683
0.19971	0.71234
0.02119	-0.97117
0.27621	-0.81812
-1.12638	0.50828
0.48022	0.48277
1.21977	0.25320
0.83725	0.25320
-0.48884	0.22769
-0.15732	-0.63957
-0.74385	0.61031
0.22521	-0.66508
1.55129	0.04914
-0.33583	-0.07840
0.22521	0.15117
-0.92237	-0.00188
0.30171	0.66132
0.78624	0.68683
0.88825	0.35523
-0.87136	0.17668
-0.59084	0.15117
0.58223	0.30422
0.53123	0.15117
0.09770	0.12566
-0.20832	-0.07840
0.25071	-0.33348
0.58223	-0.28246
-0.08081	0.12566
-0.15732	0.12566
0.27621	0.40625
0.27621	0.25320
0.25071	0.99292
0.27621	0.35523
0.19971	-0.25695
0.14870	-0.46102
0.17421	1.17148
0.09770	-0.33348
-0.33583	0.12566
0.27621	-1.02219
0.35272	-0.25695
0.09770	0.76336
-0.05531	1.12046
0.09770	1.12046
0.68424	0.35523
-0.56534	-0.05289
-0.56534	0.38074
0.78624	0.35523
0.83725	-0.20594
0.58223	-2.04250
-0.15732	-0.89465
-0.48884	-1.22625
-0.89686	0.86539
0.83725	1.52859
1.19427	1.35003
0.25071	0.71234
-0.87136	0.32972
0.63323	0.25320
1.67880	0.02363
-0.25932	-0.00188
-0.59084	0.10015
-0.71835	-0.35899
-1.02437	-0.51203
0.27621	-0.18043
0.48022	0.30422
0.86275	0.25320
1.34728	-0.05289
0.40372	0.30422
-1.15188	0.50828
0.37822	0.40625
0.45472	0.15117
-0.10631	0.20219
-0.10631	0.20219
-0.23382	0.15117
0.42922	0.02363
0.99026	0.32972
0.09770	0.15117
-0.33583	-0.07840
-0.33583	0.04914
-0.08081	-0.02739
0.27621	0.30422
0.37822	-0.02739
0.42922	0.15117
-0.02981	-0.46102
0.45472	-0.58856
-1.12638	0.86539
1.34728	0.78886
1.55129	0.15117
-0.08081	-0.00188
-0.56534	0.53379
-0.28482	0.68683
-0.28482	0.27871
-0.02981	-0.02739
0.14870	0.04914
0.30171	-0.15492
0.22521	0.04914
0.48022	0.91640
0.19971	-1.12422
0.12320	-0.97117
-0.15732	-2.32308
0.45472	0.43176
-0.15732	1.47757
0.22521	1.24800
-0.08081	1.17148
0.42922	0.86539
0.48022	0.15117
0.02119	-0.00188
-0.00431	-0.02739
0.12320	-0.07840
-0.02981	0.15117
-0.87136	0.12566
2.11233	-0.00188
1.85731	-0.25695
-1.50890	-0.15492
-1.10088	0.15117
-0.05531	0.12566
-0.00431	0.38074
-0.10631	0.71234
0.27621	-0.69059
0.73524	0.02363
0.37822	-0.33348
-0.02981	0.63582
0.50573	1.22250
0.42922	0.43176
0.25071	-0.46102
-0.31033	-0.74160
-0.25932	0.27871
-0.10631	0.55929
0.14870	0.35523
0.30171	0.81437
0.19971	0.58480
0.25071	0.55929
0.25071	0.15117
0.17421	-0.18043
0.22521	-0.05289
0.09770	0.32972
-0.00431	-0.02739
-0.25932	-0.92016
1.47479	-1.02219
-0.10631	-0.07840
-0.59084	0.99292
-0.48884	-0.02739
-0.13181	-1.02219
0.40372	-0.38449
0.40372	1.27351
0.70974	1.19699
0.25071	1.06945
-0.28482	0.68683
-0.48884	0.07465
1.34728	-0.02739
1.24527	0.10015
0.07220	-0.12942
-0.92237	0.15117
-1.20288	-0.71609
0.93925	-0.02739
0.76074	0.35523
-0.13181	0.02363
-0.41233	-0.05289
-0.10631	0.17668
0.14870	0.22769
0.30171	0.32972
0.22521	0.38074
0.45472	0.40625
0.37822	0.15117
0.02119	-0.28246
0.04670	-0.18043
0.12320	0.96742
0.14870	-0.53754
0.27621	-0.35899
0.14870	-1.09871
0.25071	1.12046
0.04670	1.06945
0.17421	1.27351
-0.08081	0.61031
0.02119	0.27871
0.07220	-0.07840
-0.15732	-0.58856
-0.13181	-0.05289
0.65874	0.12566
-0.31033	-0.58856
0.60773	-0.10391
1.14327	0.35523
0.40372	0.66132
0.37822	0.12566
-1.53441	0.53379
-0.69285	-0.69059
-0.15732	-1.35379
1.01576	-0.46102
0.73524	1.17148
-0.18282	0.81437
0.04670	0.99292
-0.10631	0.50828
0.07220	0.40625
0.63323	0.17668
0.19971	0.38074
-0.25932	-0.33348
-0.64185	-0.07840
1.37278	-0.23145
0.48022	0.22769
-0.15732	0.07465
-1.30489	-0.10391
1.47479	0.04914
0.68424	0.17668
0.02119	0.12566
0.19971	0.25320
-0.28482	0.17668
-0.20832	0.20219
0.04670	0.30422
0.12320	0.32972
0.17421	0.38074
0.25071	0.55929
0.09770	0.50828
0.17421	-0.15492
0.17421	-2.60367
0.55673	-0.33348
-0.15732	0.50828
-0.33583	1.40105
0.93925	0.99292
1.16877	0.83988
0.09770	0.15117
-0.36133	0.02363
-0.89686	0.15117
0.12320	0.27871
1.32178	0.17668
-0.18282	-0.15492
-0.66735	-0.43551
-0.02981	-0.20594
0.32721	-0.30797
-0.38683	-0.30797
1.32178	0.50828
-0.05531	0.66132
-0.51434	-0.02739
1.19427	-0.00188
1.70430	0.76336
-0.20832	0.66132
-0.87136	-0.43551
-1.53441	-0.66508
0.19971	0.17668
0.68424	0.50828
0.25071	0.66132
0.12320	0.55929
0.27621	0.35523
-0.25932	-0.00188
0.19971	-0.56305
0.22521	0.07465
0.04670	0.32972
0.30171	0.22769
0.58223	0.15117
0.19971	0.04914
-0.43783	0.12566
-0.00431	0.61031
-0.00431	0.25320
0.35272	1.01843
0.45472	-1.25176
0.42922	-0.33348
-0.15732	-1.65988
-0.18282	0.17668
-0.48884	0.83988
-0.10631	1.06945
1.11776	0.91640
0.88825	1.22250
0.17421	0.17668
0.12320	0.02363
0.17421	-0.48652
-0.41233	0.15117
0.12320	-0.53754
-0.08081	-0.07840
-0.08081	1.27351
0.27621	-0.28246
-0.10631	-0.97117
0.53123	-1.58336
0.17421	1.06945
0.09770	1.06945
0.53123	0.83988
0.60773	0.45726
-0.56534	0.25320
-0.25932	-0.10391
0.91375	0.12566
-0.71835	0.15117
0.42922	-0.12942
2.18883	-0.00188
0.48022	0.20219
-1.12638	-0.02739
0.07220	-0.10391
0.35272	-0.10391
-0.51434	0.20219
-0.69285	0.20219
-0.15732	0.15117
-0.38683	0.55929
1.19427	0.58480
1.34728	0.35523
0.09770	0.15117
0.09770	0.10015
0.22521	0.20219
-0.20832	0.25320
0.02119	-0.33348
-0.13181	0.32972
0.30171	0.10015
0.35272	0.07465
0.02119	1.04394
0.02119	-0.48652
0.07220	-0.02739
0.17421	-0.43551
0.09770	-0.86914
0.27621	0.58480
0.12320	0.61031
-0.05531	0.83988
0.12320	0.76336
0.25071	0.63582
0.17421	0.48277
0.30171	-0.20594
0.22521	0.30422
0.32721	0.71234
0.37822	-1.04770
-0.38683	-0.99668
0.30171	-1.12422
0.32721	0.07465
-0.20832	0.91640
-0.46334	0.76336
0.45472	0.61031
0.37822	0.32972
0.02119	0.22769
0.09770	0.58480
1.14327	-0.20594
-0.79486	-0.15492
0.81175	-0.35899
0.42922	0.02363
0.22521	0.35523
-0.33583	0.17668
-1.15188	0.27871
0.53123	0.35523
0.45472	0.12566
1.19427	0.43176
0.37822	0.22769
-0.56534	0.15117
-0.64185	0.25320
-0.28482	0.17668
0.17421	-0.15492
0.48022	-0.00188
0.35272	0.58480
-0.00431	0.30422
0.65874	0.61031
0.14870	-0.28246
-0.10631	0.04914
0.02119	-1.17523
0.25071	0.15117
0.14870	0.30422
0.17421	0.89089
0.37822	-0.07840
0.25071	0.15117
-0.05531	0.99292
-0.05531	0.35523
0.02119	-0.28246
0.09770	-0.18043
0.25071	0.83988
0.14870	0.63582
0.22521	-0.41000
0.19971	-0.74160
0.09770	-0.28246
-0.28482	0.61031
0.17421	0.27871
0.65874	0.45726
0.14870	0.10015
0.04670	0.63582
0.32721	-0.30797
0.32721	-0.07840
-0.02981	-0.00188
-1.30489	0.81437
-0.28482	-0.10391
2.39285	-0.63957
0.22521	-0.18043
0.04670	0.38074
0.25071	0.32972
0.07220	0.58480
-0.08081	0.25320
-0.59084	0.12566
-0.20832	-0.00188
0.63323	0.20219
1.01576	0.20219
-0.18282	0.27871
-0.79486	-0.00188
-0.00431	0.40625
0.14870	-0.10391
0.14870	0.32972
0.37822	-0.25695
0.17421	-0.61406
0.22521	-0.02739
0.53123	0.45726
0.50573	0.53379
-0.08081	1.19699
0.42922	0.40625
0.30171	-0.05289
-0.05531	-1.78742
0.12320	-0.05289
0.07220	0.32972
0.07220	0.53379
0.19971	0.71234
0.07220	0.40625
-0.28482	0.71234
-0.56534	1.32453
0.81175	0.02363
0.30171	-0.25695
-0.10631	-1.81293
0.32721	-0.76711
0.50573	-0.10391
0.70974	1.22250
-0.28482	1.06945
-0.33583	0.66132
-0.05531	0.76336
0.07220	0.17668
1.21977	-0.23145
-0.41233	-0.28246
0.58223	0.10015
0.22521	0.04914
-0.13181	0.07465
-0.89686	-0.12942
-0.33583	-0.10391
-0.94787	0.40625
1.21977	-0.33348
3.36191	0.17668
0.27621	0.10015
-1.02437	0.30422
-0.89686	0.25320
-0.71835	0.25320
-0.46334	1.06945
0.53123	0.45726
0.35272	-0.46102
0.58223	-0.35899
0.40372	-0.41000
0.32721	0.30422
0.17421	0.73785
0.19971	0.58480
0.12320	0.50828
0.14870	0.15117
0.07220	-0.69059
-0.05531	-0.46102
0.02119	-0.20594
0.09770	0.27871
0.22521	-0.12942
0.09770	-0.30797
0.09770	0.71234
0.02119	1.14597
0.19971	0.53379
-0.05531	-0.12942
0.68424	-0.15492
0.42922	0.17668
0.02119	-0.12942
-0.38683	-0.41000
0.09770	0.71234
0.17421	0.86539
0.19971	-0.92016
0.45472	-1.53234
-0.08081	0.96742
0.86275	0.99292
-0.33583	0.63582
-0.25932	0.48277
0.30171	0.02363
0.42922	0.35523
0.22521	0.40625
0.53123	0.07465
0.07220	-0.25695
-0.69285	-0.00188
0.02119	0.04914
0.40372	-0.18043
0.68424	0.07465
1.01576	0.22769
-0.59084	0.20219
-0.41233	-0.05289
-0.46334	0.27871
0.09770	0.35523
0.12320	0.30422
0.55673	0.17668
0.32721	0.15117
0.12320	0.12566
-0.23382	0.20219
0.07220	0.17668
0.58223	0.12566
-0.02981	0.17668
0.91375	-0.02739
0.81175	-0.00188
0.04670	0.38074
-0.15732	0.45726
-0.10631	-0.38449
-0.02981	-0.46102
-0.43783	-0.94566
0.45472	-1.07320
0.53123	0.89089
0.50573	2.29382
-0.61635	1.37554
0.07220	0.76336
2.16333	0.35523
0.93925	-0.00188
-1.20288	0.63582
-0.53984	-2.39961
-0.41233	-0.46102
-0.08081	-0.84363
-0.20832	0.91640
-0.05531	1.04394
0.73524	0.71234
0.78624	0.66132
-0.23382	-0.18043
-0.36133	0.17668
1.83181	-0.05289
0.25071	-0.25695
-0.13181	0.04914
-0.08081	-0.02739
0.78624	-0.43551
-0.23382	-0.35899
-0.23382	0.35523
1.75531	0.55929
0.19971	0.61031
0.07220	0.30422
-0.66735	0.53379
-1.02437	0.30422
-0.51434	-0.02739
-0.23382	0.27871
0.25071	0.43176
0.14870	-0.20594
0.48022	-0.63957
0.68424	0.04914
0.32721	0.22769
-0.00431	0.43176
0.45472	0.58480
0.68424	0.38074
0.37822	-0.61406
-0.31033	-1.30277
-0.00431	-0.15492
0.42922	1.17148
0.35272	0.63582
-0.02981	0.15117
-0.46334	-0.43551
-0.00431	-0.38449
-0.10631	1.09496
0.63323	0.71234
0.45472	0.50828
-0.48884	-0.05289
-0.46334	-0.18043
0.12320	-0.25695
0.42922	0.20219
-0.15732	0.10015
1.32178	-0.00188
1.78081	-0.02739
-1.10088	0.78886
-0.28482	-1.07320
0.53123	-0.48652
-0.59084	-0.15492
-0.33583	0.61031
0.63323	-0.02739
0.73524	0.71234
-0.18282	0.94191
-0.08081	0.53379
-0.20832	0.35523
0.12320	-0.23145
0.40372	-0.23145
0.40372	-0.05289
0.27621	-0.63957
0.27621	0.91640
0.63323	0.43176
0.04670	-0.25695
-0.61635	-0.81812
0.27621	0.10015
0.45472	0.78886
0.45472	0.78886
-0.18282	-0.25695
-0.28482	0.10015
-0.02981	0.25320
-0.33583	0.22769
-0.13181	0.96742
1.57679	-0.20594
0.14870	-0.25695
-0.51434	-0.30797
-0.05531	0.83988
0.99026	-0.05289
-0.38683	0.15117
-0.51434	0.55929
1.27078	0.10015
0.88825	-0.15492
-0.02981	-0.12942
-0.69285	0.53379
-0.28482	0.71234
-0.28482	0.45726
0.55673	-0.30797
0.22521	-0.97117
0.12320	-0.94566
0.48022	-0.07840
0.45472	1.19699
0.37822	1.01843
0.25071	0.27871
0.04670	0.38074
-0.31033	-0.99668
-0.28482	-0.25695
-0.18282	-0.43551
-0.00431	0.91640
0.58223	1.19699
0.45472	0.48277
-0.66735	-0.07840
0.17421	-0.07840
0.78624	-0.33348
0.35272	0.50828
0.04670	0.45726
0.27621	-0.38449
0.68424	-0.63957
-0.33583	-0.25695
-0.15732	-0.02739
0.12320	0.61031
0.30171	-0.00188
-0.05531	0.89089
0.19971	0.20219
-0.05531	-0.33348
0.83725	0.20219
1.70430	-0.30797
-0.23382	0.32972
-0.89686	0.76336
-0.33583	0.38074
0.04670	0.17668
-0.20832	-0.28246
-0.25932	0.10015
0.04670	0.17668
0.50573	0.53379
0.70974	-0.02739
0.53123	0.53379
0.25071	0.50828
0.50573	-0.25695
0.04670	-0.71609
-0.89686	-0.15492
0.83725	0.20219
-0.38683	0.25320
-0.28482	0.76336
0.09770	-0.10391
0.40372	0.20219
0.45472	0.27871
0.27621	0.17668
-0.08081	1.06945
-0.00431	-0.61406
0.12320	-0.30797
-0.08081	-0.89465
0.25071	0.86539
0.27621	1.24800
0.19971	0.45726
0.48022	-0.38449
0.25071	-0.28246
0.14870	-0.86914
0.07220	1.29902
-0.10631	0.55929
-0.02981	0.12566
-0.15732	0.12566
0.27621	0.45726
0.58223	1.09496
-0.38683	0.32972
0.12320	-0.56305
0.73524	-1.94047
-0.28482	-0.51203
-0.10631	1.19699
0.42922	0.43176
-0.13181	0.55929
0.17421	0.40625
1.06676	0.66132
0.19971	0.43176
0.12320	0.07465
0.09770	0.10015
0.42922	0.10015
-0.25932	-0.18043
-0.61635	0.15117
-0.74385	-0.25695
0.70974	-0.05289
1.24527	-0.23145
-0.18282	0.12566
-0.38683	-0.20594
-0.31033	0.78886
0.04670	0.83988
0.27621	0.22769
0.48022	0.35523
0.55673	-0.05289
0.35272	0.63582
0.30171	0.12566
0.25071	-0.00188
-0.59084	-0.58856
0.60773	0.02363
0.32721	0.45726
0.02119	0.45726
0.22521	-0.00188
0.02119	-0.71609
0.02119	-0.38449
0.04670	0.22769
0.07220	1.14597
-0.08081	0.99292
-0.08081	-0.48652
0.22521	-0.38449
0.25071	-0.07840
0.22521	0.66132
0.12320	0.81437
-0.33583	0.73785
1.09226	0.83988
-0.00431	-0.23145
-0.69285	-1.27726
0.07220	-1.50683
0.19971	-0.10391
0.45472	1.37554
0.48022	1.04394
0.12320	0.45726
0.35272	0.22769
0.83725	0.12566
-0.46334	0.07465
-0.02981	0.66132
-0.36133	-0.46102
-0.23382	-0.28246
0.70974	-0.28246
0.32721	-0.00188
0.32721	0.20219
0.22521	0.32972
-0.92237	0.10015
-0.66735	0.35523
2.36734	0.76336
0.40372	0.12566
-0.92237	-0.10391
-0.48884	-0.35899
0.02119	0.30422
0.17421	0.38074
-0.18282	0.22769
0.14870	0.25320
0.48022	0.15117
0.68424	0.76336
0.04670	0.81437
0.45472	-0.74160
0.32721	-1.32828
0.25071	0.76336
0.19971	0.02363
-0.00431	-0.00188
0.27621	-0.46102
0.04670	1.06945
-0.10631	0.81437
-0.13181	0.35523
0.40372	0.20219
0.07220	0.04914
-0.05531	-0.00188
0.07220	-0.10391
0.25071	-0.20594
0.09770	1.24800
0.17421	-0.07840
0.14870	-1.12422
-0.31033	-1.68539
-0.18282	0.61031
0.60773	1.04394
0.17421	0.73785
0.32721	0.61031
0.55673	0.68683
-0.25932	-0.71609
-0.02981	-1.25176
0.81175	0.15117
-0.46334	0.58480
-0.28482	0.89089
-0.08081	0.25320
0.83725	0.30422
0.91375	0.27871
-0.02981	-0.23145
-0.20832	-0.05289
-0.18282	-0.07840
-0.08081	0.20219
-0.02981	0.15117
0.07220	0.25320
0.35272	0.35523
0.12320	0.12566
0.48022	0.07465
0.27621	-0.02739
0.22521	-0.28246
0.22521	-0.30797
-0.25932	0.15117
0.53123	-0.10391
0.63323	0.94191
-0.13181	0.50828
-0.36133	0.68683
-0.23382	0.73785
-0.00431	-0.23145
0.32721	0.38074
0.22521	-0.41000
0.22521	-0.00188
0.02119	0.17668
0.09770	-0.12942
0.63323	0.15117
0.22521	0.38074
0.42922	0.50828
-0.13181	-0.66508
0.14870	0.43176
-0.00431	-0.30797
-0.53984	0.50828
1.04126	0.10015
0.76074	-0.10391
-0.00431	0.68683
0.02119	0.63582
-0.38683	-0.58856
0.04670	-1.40480
-0.00431	0.71234
0.07220	0.96742
0.60773	0.66132
-0.28482	0.12566
0.22521	0.10015
0.17421	0.07465
0.88825	0.12566
0.99026	0.30422
0.04670	0.22769
-0.76936	-0.28246
-0.25932	0.15117
-0.05531	0.02363
-0.66735	-0.35899
0.78624	0.15117
1.29628	0.68683
0.32721	0.10015
-0.48884	-0.33348
-0.43783	0.25320
-0.10631	0.91640
0.63323	0.68683
0.30171	0.10015
0.19971	0.07465
0.17421	0.20219
0.02119	0.02363
-0.08081	-0.15492
0.30171	-0.41000
0.12320	0.20219
0.12320	0.45726
-0.41233	-0.66508
0.50573	-0.20594
0.76074	0.83988
0.58223	0.76336
-0.00431	0.81437
-0.43783	-0.12942
-0.18282	-0.28246
0.53123	-0.79262
0.09770	0.38074
-0.00431	0.50828
0.78624	0.71234
0.14870	0.45726
-0.18282	0.07465
0.02119	-0.35899
0.07220	0.10015
0.19971	0.10015
0.50573	0.04914
-0.00431	-0.10391
-0.25932	-0.05289
0.60773	0.15117
0.63323	0.68683
-0.38683	0.17668
0.12320	-0.10391
0.25071	-0.48652
-0.36133	-0.56305
-0.31033	0.50828
-0.53984	0.91640
0.42922	0.91640
1.34728	0.02363
0.19971	0.04914
-0.02981	0.15117
0.68424	0.78886
0.35272	0.40625
-0.15732	-0.28246
-0.02981	-0.43551
0.02119	0.04914
-0.18282	0.78886
0.14870	0.27871
0.35272	-0.53754
-0.00431	-0.41000
-0.15732	-0.69059
0.32721	0.43176
0.63323	-0.05289
-0.05531	0.55929
-0.36133	0.66132
-0.05531	0.15117
-0.05531	0.10015
0.60773	0.32972
0.65874	-0.05289
0.32721	0.17668
0.45472	0.68683
-0.53984	0.61031
0.53123	-0.12942
0.14870	-0.43551
-0.18282	0.12566
0.86275	0.35523
0.02119	0.12566
-0.59084	0.63582
-0.31033	-0.51203
0.02119	-0.30797
0.63323	0.15117
-0.23382	-0.07840
-0.25932	-0.20594
0.48022	-0.25695
0.40372	0.81437
0.37822	0.91640
0.27621	0.40625
0.12320	-0.02739
-0.15732	0.20219
0.12320	-0.05289
0.17421	-0.00188
0.19971	0.81437
0.07220	-0.35899
0.58223	-0.35899
0.27621	-0.66508
0.65874	0.35523
-0.15732	0.53379
-0.33583	0.17668
-0.46334	0.22769
-0.18282	0.58480
-0.05531	-0.05289
0.32721	-0.07840
0.30171	-0.46102
0.04670	-0.05289
0.45472	0.12566
-0.08081	0.55929
0.48022	0.61031
1.09226	0.66132
-0.82036	-0.41000
-0.25932	-0.12942
-0.31033	-0.10391
0.14870	0.30422
0.42922	-0.30797
0.22521	0.55929
0.40372	0.66132
0.63323	0.25320
0.35272	-0.48652
-0.08081	-0.23145
-0.08081	0.58480
-0.02981	0.30422
-0.23382	0.30422
0.40372	-0.10391
0.32721	0.15117
-0.13181	0.25320
0.02119	-0.69059
0.04670	-0.10391
-0.02981	0.91640
0.19971	-0.07840
0.48022	0.12566
-0.28482	0.10015
0.48022	0.50828
0.73524	-0.15492
-0.05531	0.04914
-0.43783	-0.66508
0.17421	0.76336
0.60773	-0.23145
-0.25932	0.40625
-0.33583	0.73785
0.02119	0.25320
0.42922	0.38074
0.37822	0.04914
0.19971	0.10015
0.63323	-0.63957
0.70974	0.12566
0.37822	0.10015
-0.51434	0.30422
-0.43783	-0.18043
0.04670	0.02363
0.32721	0.38074
-0.02981	0.96742
-0.08081	0.27871
-0.05531	-0.48652
0.19971	-1.22625
0.32721	0.50828
0.17421	0.94191
1.16877	0.63582
0.73524	0.63582
-0.00431	0.22769
-0.28482	-0.10391
-0.51434	0.17668
-0.89686	-0.02739
0.99026	-0.23145
0.19971	-1.37929
0.42922	0.22769
-0.02981	0.55929
0.07220	0.68683
0.09770	0.91640
-0.00431	0.43176
-0.23382	0.04914
0.48022	-0.56305
0.93925	0.32972
0.07220	0.07465
0.25071	-0.07840
0.12320	-0.23145
0.07220	0.63582
0.07220	-0.20594
-0.00431	0.22769
-0.00431	0.25320
0.22521	0.78886
0.09770	0.20219
0.07220	-0.00188
0.19971	-0.51203
0.17421	0.53379
-0.08081	0.55929
0.17421	-0.25695
0.04670	0.15117
-0.79486	-0.56305
0.68424	0.22769
1.52579	0.30422
-0.28482	-0.05289
-0.25932	0.10015
-0.20832	0.71234
0.30171	-0.02739
0.50573	-0.18043
-0.28482	0.45726
0.32721	0.32972
0.99026	0.30422
0.35272	-0.28246
-0.18282	-0.15492
-0.43783	0.27871
-0.02981	0.43176
0.60773	0.40625
-0.10631	0.15117
-0.46334	0.02363
-0.48884	0.02363
0.32721	0.25320
0.14870	0.17668
0.14870	-0.00188
0.48022	0.55929
0.48022	-0.07840
0.42922	0.27871
0.32721	-0.12942
0.17421	0.17668
0.22521	0.07465
0.25071	0.10015
0.07220	-1.27726
-0.08081	-0.66508
-0.15732	1.27351
-0.13181	1.22250
0.17421	0.48277
0.09770	-0.02739
0.09770	1.65613
0.55673	0.58480
0.12320	-0.58856
0.12320	-1.43031
-0.02981	0.48277
-0.28482	0.63582
0.22521	-0.71609
1.39828	-0.20594
-0.18282	0.10015
0.32721	1.22250
-0.51434	0.55929
-0.31033	0.17668
-0.18282	0.12566
0.04670	-0.20594
0.88825	0.07465
0.25071	-0.30797
-0.18282	0.12566
1.65330	0.22769
1.09226	0.10015
-0.05531	0.04914
-0.84586	0.30422
-0.97337	0.20219
0.02119	0.15117
-0.28482	0.32972
0.37822	0.04914
0.60773	0.22769
-0.33583	-0.00188
0.32721	0.25320
1.21977	0.25320
-0.10631	0.22769
0.02119	0.35523
0.12320	0.25320
-0.38683	0.07465
-0.23382	0.22769
0.12320	-0.35899
0.12320	1.35003
0.27621	-0.63957
0.12320	-0.86914
0.27621	-1.99148
0.27621	0.78886
0.53123	1.01843
0.30171	1.29902
0.07220	0.86539
-0.05531	0.50828
-0.41233	0.15117
-0.05531	-0.15492
0.32721	0.45726
0.40372	1.04394
0.32721	-0.07840
0.35272	-1.78742
0.22521	-0.97117
0.12320	0.40625
0.09770	0.30422
-0.43783	0.30422
-0.10631	1.04394
-0.00431	0.10015
0.22521	0.15117
-0.18282	0.40625
0.17421	0.12566
0.40372	-0.05289
0.53123	0.17668
-0.20832	0.30422
1.62780	0.20219
0.53123	0.04914
-0.18282	-0.00188
-1.40690	0.30422
-0.46334	0.25320
1.39828	-0.12942
0.91375	-0.00188
-0.82036	0.35523
-0.61635	0.07465
0.07220	0.15117
-0.87136	0.30422
1.04126	0.22769
1.62780	-0.00188
0.70974	-0.15492
-0.25932	0.22769
-0.18282	0.45726
0.02119	0.94191
-0.08081	-0.66508
-0.00431	-1.22625
0.14870	-0.71609
0.12320	1.35003
0.22521	1.27351
0.37822	-0.43551
0.30171	0.78886
0.09770	0.40625
-0.38683	-0.07840
-0.08081	0.15117
0.45472	0.58480
0.17421	0.20219
0.12320	0.15117
-0.15732	0.07465
1.34728	-0.23145
-0.18282	-0.46102
0.19971	-0.18043
-0.64185	1.06945
-0.59084	0.07465
0.30171	-1.55785
0.09770	-1.12422
-0.18282	0.20219
0.50573	0.86539
0.60773	1.19699
0.93925	0.96742
0.27621	0.68683
-1.10088	0.40625
-0.15732	0.53379
-0.23382	0.55929
1.16877	-0.20594
1.14327	-0.53754
0.60773	0.20219
-0.84586	-0.35899
-1.15188	0.02363
1.44929	-0.23145
0.60773	0.43176
-0.31033	0.07465
-0.13181	0.20219
-0.46334	-0.15492
-0.89686	-0.12942
0.02119	-0.07840
0.73524	0.40625
0.63323	0.94191
0.32721	-0.25695
0.55673	0.48277
0.42922	0.71234
0.14870	0.78886
0.30171	1.01843
-0.23382	-1.20074
-0.05531	0.58480
0.25071	-0.25695
0.53123	-0.94566
-0.66735	-0.76711
-0.28482	0.40625
0.91375	0.96742
0.37822	0.58480
-0.20832	0.20219
-0.13181	-0.41000
0.25071	0.50828
0.30171	0.76336
0.02119	0.30422
-0.05531	-0.71609
0.58223	0.15117
0.70974	0.22769
-0.43783	-0.00188
-0.48884	0.10015
1.37278	0.04914
0.14870	-0.05289
-1.12638	0.55929
-0.51434	0.71234
1.78081	0.22769
1.04126	0.15117
-0.28482	-0.23145
-0.15732	0.15117
-0.05531	0.22769
-0.13181	0.38074
-0.43783	-0.00188
-0.36133	-0.20594
0.63323	0.35523
0.83725	-0.20594
0.35272	0.12566
0.32721	0.55929
0.30171	0.40625
0.27621	0.07465
0.19971	0.12566
0.19971	0.25320
-0.51434	-0.12942
-0.25932	-0.61406
0.12320	0.35523
0.50573	1.19699
0.09770	0.27871
0.09770	-0.38449
0.40372	0.22769
0.22521	0.27871
0.04670	0.38074
-0.02981	-0.25695
-0.33583	-0.35899
0.63323	-0.02739
0.55673	-0.02739
-0.61635	0.22769
-0.08081	-0.48652
0.45472	0.55929
-0.10631	1.32453
1.32178	0.02363
0.32721	-0.48652
0.12320	-0.41000
0.27621	0.71234
-0.31033	-0.00188
-0.74385	0.22769
0.86275	0.15117
0.48022	0.30422
-0.18282	0.30422
-0.61635	0.25320
0.14870	0.12566
0.42922	-0.15492
0.45472	-0.30797
0.14870	0.53379
0.42922	0.10015
0.25071	-0.10391
-0.23382	-0.61406
-0.10631	-0.10391
0.40372	0.61031
0.14870	0.73785
0.50573	0.58480
-0.43783	0.35523
0.32721	0.15117
0.22521	0.20219
0.99026	-0.00188
-0.15732	-0.61406
-0.51434	0.55929
0.07220	-0.10391
0.40372	0.20219
-0.02981	0.20219
-0.02981	0.27871
0.02119	0.04914
0.30171	0.20219
0.17421	0.35523
0.22521	-0.43551
0.22521	-0.23145
0.17421	0.89089
0.22521	1.22250
0.30171	-0.10391
0.40372	-0.12942
0.14870	0.10015
-0.48884	0.10015
0.02119	-0.51203
-0.05531	0.40625
0.04670	-0.10391
0.12320	-0.00188
0.19971	0.30422
0.35272	0.22769
-0.31033	0.78886
-0.46334	0.04914
1.90832	0.04914
0.25071	0.02363
-0.33583	-0.15492
-0.53984	0.15117
0.78624	0.07465
0.91375	0.35523
0.07220	0.40625
-0.13181	0.17668
0.02119	-0.18043
-0.66735	0.07465
-0.43783	0.22769
-0.10631	0.25320
0.22521	0.15117
0.50573	0.02363
0.58223	0.27871
0.37822	0.02363
0.19971	0.38074
-0.23382	-0.30797
0.12320	-0.66508
0.27621	0.32972
-0.13181	0.53379
0.81175	0.73785
0.45472	0.61031
-0.23382	0.04914
-0.53984	-0.76711
-0.08081	0.61031
0.42922	1.37554
0.07220	-0.71609
0.27621	-0.58856
0.30171	-0.02739
0.04670	0.45726
-0.28482	0.53379
0.83725	0.15117
0.22521	0.25320
-0.15732	0.86539
-0.05531	0.17668
0.27621	-0.81812
0.12320	-0.05289
-0.18282	0.04914
-0.41233	-0.20594
0.35272	0.63582
0.42922	0.12566
0.68424	0.35523
0.63323	0.45726
0.40372	-0.02739
-0.36133	-0.05289
-0.05531	-0.51203
-0.10631	0.61031
0.12320	0.22769
0.37822	0.38074
0.70974	0.30422
0.04670	0.32972
-1.58541	0.35523
0.42922	0.22769
1.65330	0.15117
0.58223	-0.28246
-0.13181	-0.18043
-0.18282	0.12566
-0.20832	0.04914
-0.25932	0.15117
0.09770	0.27871
0.30171	0.07465
0.25071	0.43176
0.02119	0.53379
0.30171	0.35523
0.12320	-0.18043
0.30171	-0.56305
-0.00431	0.07465
0.37822	1.09496
0.42922	-0.23145
0.19971	-0.30797
0.17421	-1.20074
0.22521	0.30422
-0.00431	0.68683
-0.18282	1.14597
0.07220	0.71234
0.25071	0.86539
0.19971	0.40625
0.12320	0.35523
0.14870	-0.38449
0.27621	0.40625
0.04670	-0.89465
-0.33583	-0.63957
0.12320	0.17668
0.48022	-0.53754
0.81175	0.22769
0.02119	0.22769
-0.08081	0.58480
0.17421	0.68683
-0.41233	0.96742
-0.92237	0.45726
1.24527	-0.25695
1.16877	-0.25695
-0.20832	0.02363
-0.89686	-0.10391
-0.00431	-0.05289
0.50573	0.43176
1.09226	0.45726
-0.10631	0.40625
0.14870	-0.15492
0.65874	-0.10391
1.19427	0.50828
-0.59084	0.45726
-0.89686	-0.81812
-0.46334	-0.10391
-0.15732	0.45726
-0.05531	0.35523
0.09770	0.20219
0.58223	0.30422
1.32178	0.17668
0.32721	-0.00188
0.02119	0.04914
0.73524	0.27871
-0.41233	-0.00188
-0.13181	-0.38449
0.19971	1.09496
-0.05531	1.37554
0.04670	0.25320
0.04670	-1.43031
0.22521	-1.91496
0.25071	-0.43551
0.22521	1.57960
0.04670	1.06945
0.07220	1.65613
-0.08081	-0.94566
0.19971	-0.28246
0.53123	0.15117
-0.00431	0.89089
0.48022	0.78886
0.04670	0.12566
-0.48884	0.12566
-0.13181	0.35523
0.76074	-0.46102
0.76074	-1.53234
0.25071	-0.79262
-0.79486	0.94191
-0.99887	0.99292
0.50573	0.38074
0.60773	-0.20594
0.83725	-0.23145
0.07220	0.35523
-0.05531	0.61031
-0.31033	0.38074
-0.31033	0.43176
0.68424	0.17668
-0.10631	0.04914
-0.53984	0.04914
1.21977	0.25320
0.55673	-0.10391
-0.25932	-0.28246
-0.18282	0.15117
0.30171	0.35523
0.12320	0.35523
-0.51434	0.02363
-0.28482	0.15117
0.19971	0.15117
0.32721	0.15117
0.37822	0.40625
0.30171	0.30422
0.35272	0.48277
0.19971	0.89089
0.09770	0.02363
0.07220	-1.43031
0.14870	-1.40480
0.19971	0.55929
0.22521	0.63582
0.14870	1.04394
0.17421	0.10015
0.02119	0.91640
-0.10631	0.86539
1.24527	0.30422
-0.48884	-0.23145
-0.31033	0.78886
0.58223	-0.66508
0.68424	-0.53754
-0.53984	-1.78742
-0.28482	0.07465
0.14870	0.53379
-0.53984	1.32453
0.55673	0.07465
3.00489	0.55929
0.37822	-0.05289
-0.05531	0.71234
-0.87136	0.32972
-1.15188	0.30422
-1.22839	0.30422
0.76074	0.02363
1.19427	-0.05289
-0.33583	-0.28246
-0.05531	0.10015
0.27621	0.10015
0.48022	-0.00188
0.32721	0.35523
-0.56534	-0.00188
0.37822	-0.10391
1.62780	0.12566
0.60773	0.20219
-0.46334	0.27871
-0.02981	0.30422
-0.02981	1.40105
-0.31033	0.45726
-0.20832	-0.28246
-0.00431	-1.07320
0.04670	0.55929
0.07220	-0.43551
0.14870	-0.10391
0.42922	0.66132
0.27621	1.14597
0.30171	-1.20074
0.27621	0.25320
0.09770	-0.00188
0.12320	1.04394
0.12320	0.99292
0.30171	-0.84363
-0.02981	-0.15492
-0.43783	0.04914
0.78624	0.30422
0.35272	0.12566
0.35272	0.10015
0.02119	0.58480
-0.87136	-0.20594
-0.00431	0.02363
0.99026	0.10015
0.35272	0.12566
-1.20288	-0.18043
0.02119	0.27871
0.55673	0.12566
0.30171	0.35523
0.63323	0.27871
0.25071	0.63582
1.14327	-0.10391
0.83725	-0.20594
-0.87136	-0.63957
-1.12638	-0.05289
-0.51434	0.58480
0.12320	0.55929
0.19971	0.50828
0.55673	-0.02739
0.40372	0.35523
0.12320	-0.07840
0.09770	0.10015
0.63323	0.15117
0.04670	0.07465
-0.13181	0.30422
0.07220	0.78886
0.60773	-0.48652
0.30171	-0.99668
-0.08081	-0.20594
-0.33583	1.55410
-0.02981	-0.25695
0.45472	-0.86914
0.22521	-0.18043
0.12320	1.06945
0.02119	0.20219
-0.10631	0.53379
-0.10631	0.40625
-0.02981	-0.63957
0.37822	-0.20594
0.40372	1.17148
0.09770	0.17668
-0.10631	0.07465
0.60773	-0.76711
0.45472	0.20219
0.35272	0.96742
0.02119	0.38074
-0.15732	-0.33348
-0.28482	-0.53754
1.14327	0.25320
-0.20832	0.35523
-0.43783	0.58480
0.02119	0.25320
0.55673	-0.02739
-0.51434	-0.15492
0.48022	0.17668
0.12320	0.15117
-0.82036	0.02363
0.63323	0.10015
1.75531	0.04914
0.19971	0.15117
-0.59084	0.22769
-0.38683	0.27871
-0.05531	-0.05289
-0.31033	0.02363
0.02119	0.22769
0.12320	0.25320
0.76074	0.30422
0.93925	0.22769
0.32721	0.43176
0.02119	0.15117
-0.10631	0.10015
-0.10631	-0.15492
-0.23382	-0.02739
-0.18282	0.30422
0.09770	-0.15492
0.99026	-0.25695
-0.20832	0.61031
0.04670	-0.53754
0.22521	0.10015
0.09770	-0.12942
0.07220	0.76336
0.04670	0.63582
-0.05531	0.89089
0.50573	0.35523
0.12320	0.55929
0.53123	1.14597
0.70974	-0.25695
-0.31033	-0.79262
-0.66735	-2.39961
0.22521	0.07465
0.12320	0.50828
-0.00431	0.40625
0.30171	0.53379
0.30171	0.38074
0.09770	0.30422
0.27621	0.07465
0.35272	-0.20594
0.48022	0.58480
0.09770	-0.63957
0.04670	-0.76711
-0.08081	0.04914
-0.28482	0.50828
0.48022	0.66132
-0.61635	0.71234
0.25071	0.66132
0.93925	0.48277
0.70974	0.35523
-0.38683	0.07465
-0.46334	0.17668
-0.18282	-0.15492
-0.13181	-0.05289
0.78624	-0.02739
0.53123	0.15117
-0.48884	-0.25695
-0.13181	0.35523
0.30171	0.15117
0.30171	-1.12422
0.37822	-0.53754
0.45472	0.61031
0.48022	0.73785
0.58223	0.76336
0.14870	0.66132
-0.23382	-0.15492
-0.08081	-0.23145
-0.13181	0.32972
0.40372	0.83988
0.19971	-0.02739
0.09770	-0.79262
-0.02981	-0.15492
-0.25932	0.27871
0.14870	0.71234
0.40372	0.48277
0.30171	0.02363
-0.05531	0.10015
-0.38683	0.12566
1.24527	0.32972
0.32721	-0.61406
0.02119	-0.46102
0.07220	0.07465
-0.20832	-0.18043
0.07220	0.81437
0.35272	0.81437
-0.25932	0.25320
0.32721	0.25320
0.76074	0.17668
0.02119	0.61031
-0.08081	0.66132
0.48022	-0.53754
0.04670	-1.88945
0.25071	-0.38449
-0.74385	0.45726
0.42922	0.86539
0.32721	0.61031
0.42922	0.38074
-0.18282	0.38074
0.09770	0.22769
0.37822	0.10015
0.30171	0.04914
0.25071	0.04914
0.09770	0.15117
-0.02981	-0.12942
0.09770	-0.07840
0.27621	0.38074
0.32721	0.55929
-0.48884	1.12046
0.14870	-0.92016
-0.79486	-0.79262
0.93925	-0.89465
1.39828	-0.74160
0.65874	0.66132
-0.64185	0.91640
-0.08081	1.06945
0.12320	0.86539
0.09770	0.78886
-0.05531	0.38074
0.17421	0.12566
0.27621	0.12566
0.19971	-0.07840
0.17421	-0.28246
0.19971	-0.25695
0.40372	-0.12942
0.09770	-0.25695
-0.05531	0.04914
0.14870	-0.05289
0.22521	0.38074
0.68424	1.37554
-0.38683	0.25320
-0.79486	-1.71090
