0.27621	0.25320
0.22521	0.04914
0.09770	-0.02739
0.14870	0.12566
0.12320	0.04914
0.14870	0.45726
0.17421	0.22769
0.02119	-0.05289
0.14870	0.07465
0.27621	0.12566
0.09770	0.17668
0.12320	0.22769
0.19971	0.07465
0.09770	0.15117
0.12320	0.27871
0.17421	0.10015
-0.02981	-0.07840
0.07220	0.02363
0.14870	0.10015
0.12320	0.12566
0.22521	0.35523
0.17421	0.27871
0.09770	0.15117
0.07220	0.04914
0.17421	0.17668
0.09770	0.20219
0.02119	0.04914
0.07220	-0.00188
0.22521	0.15117
0.19971	0.30422
0.14870	0.22769
0.22521	0.12566
0.22521	0.15117
0.14870	0.27871
0.07220	0.12566
0.09770	-0.05289
0.17421	0.02363
0.12320	0.04914
0.09770	0.10015
0.02119	0.12566
0.19971	0.27871
0.22521	0.25320
0.27621	0.25320
0.14870	0.10015
0.04670	-0.00188
0.02119	0.10015
0.07220	0.10015
0.17421	0.22769
0.07220	0.12566
0.19971	0.12566
0.14870	0.22769
0.22521	0.15117
0.19971	0.25320
0.07220	0.10015
0.12320	0.15117
0.17421	0.15117
0.07220	0.07465
0.04670	0.12566
0.22521	0.15117
0.19971	0.17668
0.09770	0.12566
0.17421	0.12566
0.22521	0.17668
0.07220	0.10015
0.07220	0.25320
0.14870	0.32972
0.04670	0.12566
0.19971	-0.05289
0.12320	0.04914
0.12320	-0.00188
0.19971	0.15117
0.17421	0.32972
0.09770	0.12566
0.12320	0.12566
0.19971	0.17668
0.09770	0.27871
0.04670	0.17668
0.09770	0.15117
0.14870	0.20219
0.09770	0.12566
0.14870	0.12566
0.27621	0.27871
0.09770	0.15117
0.14870	0.07465
0.19971	0.15117
0.12320	0.15117
0.04670	0.04914
0.17421	0.12566
0.14870	0.22769
0.09770	0.10015
0.19971	0.04914
0.14870	0.10015
0.09770	0.12566
0.22521	0.17668
0.22521	0.22769
0.09770	0.10015
0.04670	0.04914
0.09770	0.20219
0.12320	0.25320
0.12320	0.22769
0.14870	0.07465
0.19971	0.22769
0.25071	0.20219
0.14870	0.25320
0.12320	0.25320
0.07220	0.04914
0.09770	0.12566
0.09770	0.25320
0.22521	0.17668
0.17421	-0.02739
0.12320	0.02363
0.12320	0.17668
0.17421	0.20219
0.12320	0.12566
0.07220	0.04914
0.12320	0.10015
0.14870	0.22769
0.09770	0.20219
0.07220	0.30422
0.25071	0.27871
0.19971	0.07465
0.12320	0.02363
0.14870	0.04914
0.17421	0.25320
0.17421	0.22769
0.02119	0.04914
0.07220	0.17668
0.19971	0.17668
0.14870	0.07465
0.12320	0.07465
0.17421	0.15117
0.22521	0.20219
0.12320	0.15117
0.12320	0.12566
0.17421	0.15117
0.12320	0.15117
0.04670	0.15117
0.12320	0.12566
0.19971	0.25320
0.22521	0.20219
0.09770	0.15117
0.17421	0.22769
0.19971	0.20219
0.14870	0.07465
0.07220	0.10015
0.12320	0.04914
0.14870	0.10015
0.09770	0.04914
0.07220	0.04914
0.27621	0.12566
0.17421	0.25320
0.14870	0.17668
0.09770	0.12566
0.14870	0.17668
0.22521	0.25320
0.09770	0.10015
0.02119	0.04914
0.17421	0.15117
0.12320	0.22769
0.12320	0.17668
0.14870	0.10015
0.22521	0.17668
0.17421	0.20219
0.12320	0.04914
0.19971	0.10015
0.17421	0.15117
0.07220	0.12566
0.09770	0.07465
0.19971	0.10015
0.17421	0.22769
0.09770	0.17668
0.17421	0.12566
0.25071	0.17668
0.07220	0.15117
0.12320	0.02363
0.22521	0.15117
0.12320	0.22769
0.09770	0.17668
0.07220	0.15117
0.22521	0.02363
0.14870	0.22769
0.17421	0.25320
0.25071	0.20219
0.12320	0.22769
0.12320	0.04914
0.12320	0.10015
0.17421	0.12566
0.09770	0.15117
0.12320	0.12566
0.17421	0.12566
0.22521	0.17668
0.19971	0.20219
0.12320	0.17668
0.12320	0.17668
0.12320	0.15117
0.17421	0.17668
0.02119	0.04914
0.12320	0.07465
0.22521	0.20219
0.14870	0.20219
0.17421	0.17668
0.12320	0.15117
0.14870	-0.00188
0.19971	0.20219
0.17421	0.15117
0.09770	0.10015
0.02119	-0.00188
0.07220	0.07465
0.12320	0.17668
0.17421	0.15117
0.27621	0.25320
0.17421	0.12566
0.09770	0.07465
0.12320	0.02363
0.22521	0.20219
0.12320	0.25320
-0.00431	0.12566
0.07220	-0.00188
0.14870	0.10015
0.27621	0.20219
0.14870	0.30422
0.12320	0.10015
0.19971	0.07465
0.22521	0.12566
0.22521	0.20219
0.12320	0.15117
0.02119	0.07465
0.14870	0.27871
0.12320	0.17668
0.12320	0.15117
0.17421	0.15117
0.25071	0.20219
0.14870	0.17668
0.12320	0.12566
0.17421	0.10015
0.12320	0.10015
0.09770	0.02363
0.14870	0.04914
0.09770	0.17668
0.19971	0.10015
0.17421	0.15117
0.25071	0.20219
0.09770	0.20219
0.14870	0.22769
0.09770	0.07465
0.04670	0.10015
0.17421	0.15117
0.09770	-0.00188
0.17421	0.07465
0.22521	0.20219
0.14870	0.25320
0.09770	0.35523
0.27621	0.35523
0.14870	0.12566
0.09770	0.04914
0.17421	0.04914
0.09770	0.07465
-0.00431	-0.05289
0.19971	0.20219
0.14870	0.07465
0.07220	0.15117
0.25071	0.20219
0.14870	0.20219
0.14870	0.12566
0.17421	0.17668
0.14870	0.22769
0.02119	0.15117
0.12320	0.12566
0.12320	0.17668
0.12320	0.15117
0.17421	0.12566
0.25071	0.17668
0.09770	0.12566
0.09770	0.07465
0.17421	0.22769
0.07220	0.15117
0.14870	0.10015
0.19971	0.25320
0.09770	0.12566
0.12320	0.02363
0.12320	0.22769
0.19971	0.12566
0.12320	0.15117
0.17421	0.15117
0.12320	0.22769
0.02119	0.10015
0.14870	0.04914
0.17421	0.22769
0.14870	0.25320
0.12320	0.25320
0.19971	0.07465
0.17421	0.17668
0.09770	0.04914
0.07220	-0.05289
0.22521	0.12566
0.14870	0.10015
0.09770	0.20219
0.07220	0.15117
0.14870	0.22769
0.14870	0.22769
0.14870	0.15117
0.12320	0.27871
0.17421	0.10015
0.17421	0.22769
0.17421	0.15117
0.09770	0.04914
0.02119	-0.05289
0.12320	-0.00188
0.25071	0.15117
0.22521	0.22769
0.12320	0.20219
0.17421	0.27871
0.25071	0.30422
0.14870	0.12566
0.02119	0.04914
0.09770	-0.02739
0.14870	0.12566
0.07220	0.17668
0.09770	0.10015
0.19971	0.07465
0.22521	0.20219
0.14870	0.30422
0.04670	0.30422
0.07220	0.02363
0.17421	-0.00188
0.17421	0.15117
0.12320	0.20219
0.07220	0.12566
0.02119	0.02363
0.19971	0.15117
0.22521	0.20219
0.22521	0.15117
0.17421	0.10015
0.07220	0.12566
0.17421	0.15117
0.12320	0.04914
0.17421	0.35523
0.04670	0.35523
0.04670	0.22769
0.17421	-0.05289
0.22521	-0.05289
0.14870	0.12566
0.12320	0.20219
0.14870	0.10015
0.19971	0.15117
0.14870	0.38074
0.07220	0.07465
0.12320	0.15117
0.07220	0.25320
0.25071	0.07465
0.12320	0.04914
0.12320	0.12566
0.09770	0.15117
0.09770	-0.05289
0.17421	0.12566
0.30171	0.30422
0.14870	0.22769
0.07220	0.12566
0.17421	0.17668
0.25071	0.30422
0.22521	0.17668
0.12320	0.07465
0.04670	-0.05289
-0.05531	-0.00188
-0.02981	-0.05289
0.07220	0.07465
0.22521	0.27871
0.17421	0.22769
0.12320	0.15117
0.25071	0.30422
0.19971	0.30422
0.37822	0.15117
0.19971	0.12566
0.04670	0.10015
-0.05531	0.15117
-0.13181	-0.10391
0.09770	0.32972
0.17421	0.25320
0.19971	0.22769
0.17421	-0.28246
0.22521	0.17668
0.12320	0.25320
0.09770	0.55929
0.07220	0.22769
0.22521	0.22769
0.27621	-0.15492
0.17421	0.22769
-0.02981	-0.12942
-0.00431	-0.05289
0.17421	-0.33348
0.22521	-0.23145
0.35272	0.68683
0.14870	1.06945
0.17421	0.07465
0.22521	0.17668
0.22521	0.50828
0.12320	0.27871
0.04670	0.20219
0.02119	-0.38449
-0.02981	-0.66508
-0.00431	-0.28246
0.02119	0.38074
0.09770	0.07465
0.07220	0.55929
-0.10631	0.43176
0.07220	0.04914
0.25071	-0.12942
0.93925	0.63582
0.70974	0.38074
0.22521	0.07465
0.48022	-0.58856
0.07220	0.30422
-0.02981	0.35523
-0.20832	0.17668
-0.48884	-0.25695
-0.51434	0.02363
0.07220	0.12566
1.21977	-0.10391
0.45472	0.32972
-0.08081	0.45726
-0.48884	0.40625
0.32721	0.68683
0.25071	0.63582
-0.13181	-0.46102
0.17421	-0.92016
0.68424	-0.00188
-0.18282	0.66132
-0.69285	0.27871
0.63323	0.20219
1.09226	-0.48652
0.07220	0.66132
0.78624	-0.02739
-0.13181	0.22769
-0.23382	-0.23145
-0.38683	0.45726
0.63323	1.04394
0.27621	0.40625
-0.02981	-0.66508
-0.13181	-0.46102
0.22521	0.66132
0.04670	0.27871
0.14870	-0.56305
-0.02981	0.94191
-0.15732	1.17148
0.02119	-0.12942
0.35272	-1.25176
0.68424	0.02363
-0.56534	0.55929
-0.02981	0.40625
0.76074	1.14597
0.02119	-0.12942
0.27621	-2.27207
0.35272	-0.05289
0.40372	0.86539
0.32721	0.76336
-0.00431	0.55929
0.27621	0.35523
0.22521	0.40625
-0.00431	0.10015
-0.71835	0.22769
-0.18282	-0.15492
0.22521	-0.38449
1.16877	-0.99668
0.22521	0.40625
-0.23382	0.40625
0.35272	0.27871
-0.33583	0.35523
-0.31033	0.20219
1.55129	0.40625
0.48022	0.66132
-0.84586	-0.05289
-0.59084	-0.46102
0.60773	-0.66508
0.96476	0.38074
-0.02981	0.40625
0.30171	0.20219
-0.00431	0.48277
-0.00431	0.30422
-0.08081	-0.05289
0.25071	0.45726
0.60773	0.02363
0.25071	0.48277
-0.82036	0.43176
-0.10631	-0.76711
0.02119	-0.81812
0.17421	-0.41000
0.45472	0.78886
-0.43783	1.27351
0.83725	0.10015
0.50573	0.66132
0.30171	0.07465
0.40372	0.17668
-0.25932	-0.10391
0.17421	0.43176
1.75531	0.15117
-0.79486	0.25320
-1.33039	0.32972
0.12320	-0.00188
1.42379	-0.35899
0.86275	-0.07840
-1.15188	0.04914
-0.89686	0.35523
1.16877	0.25320
1.01576	0.40625
-0.33583	1.42656
0.48022	-0.18043
0.17421	-0.79262
-0.28482	-0.81812
-0.46334	0.91640
-0.31033	0.94191
0.48022	-0.02739
0.40372	-0.05289
-0.05531	0.15117
0.60773	0.66132
1.60230	0.45726
-0.33583	0.58480
0.63323	0.10015
-0.48884	-0.35899
-0.66735	-0.53754
0.68424	-0.20594
-0.74385	0.48277
0.02119	0.35523
1.04126	0.45726
1.04126	-0.07840
0.17421	0.32972
-0.18282	0.45726
-0.38683	-0.53754
-0.56534	-0.41000
-0.28482	-0.71609
-0.02981	0.32972
0.53123	0.86539
0.88825	0.50828
-0.18282	1.06945
0.81175	0.38074
0.70974	0.58480
-0.38683	-1.04770
-0.56534	-0.48652
1.16877	0.02363
0.50573	0.30422
0.32721	0.43176
-0.71835	0.48277
-0.08081	0.43176
0.42922	-0.97117
0.42922	-0.10391
-0.31033	0.17668
-1.15188	0.58480
0.27621	0.38074
0.88825	0.30422
1.72980	0.76336
0.19971	0.17668
-1.07538	-0.48652
0.73524	-1.02219
0.53123	0.94191
-0.05531	0.99292
-0.84586	0.48277
0.12320	0.32972
0.70974	0.04914
0.27621	0.20219
-0.02981	-0.10391
-0.28482	-0.23145
0.02119	0.30422
0.14870	0.10015
1.14327	0.32972
0.30171	-0.07840
-0.51434	-0.05289
0.50573	-0.05289
0.02119	-0.12942
0.65874	0.17668
1.37278	0.45726
-0.31033	0.50828
-2.55447	-0.76711
-0.56534	-0.97117
-0.15732	0.63582
-0.28482	0.86539
1.16877	1.12046
1.47479	0.63582
0.25071	1.19699
-0.43783	-1.32828
0.63323	-0.51203
0.55673	0.43176
-1.30489	0.78886
-0.89686	-0.48652
1.32178	-0.12942
1.60230	0.10015
0.09770	0.40625
-0.56534	1.04394
-0.18282	0.55929
0.48022	0.02363
-0.15732	0.30422
-0.10631	0.68683
0.76074	-0.51203
0.02119	-1.32828
-0.33583	-1.27726
-0.05531	0.38074
-0.00431	0.71234
0.19971	0.86539
0.22521	0.73785
-0.02981	-0.07840
0.42922	0.55929
0.86275	0.35523
0.63323	-0.20594
-0.61635	0.04914
0.27621	-0.51203
-0.10631	-0.33348
0.27621	-0.00188
-0.15732	1.17148
0.04670	0.43176
0.25071	0.04914
0.02119	-0.48652
-0.13181	0.15117
0.73524	0.55929
-0.64185	-0.12942
-0.82036	-0.41000
-0.10631	0.91640
0.53123	1.09496
0.73524	0.25320
1.24527	-0.05289
0.30171	-0.69059
-0.69285	0.63582
0.12320	-0.33348
-0.71835	0.27871
-0.36133	-0.05289
0.63323	0.40625
0.58223	0.15117
0.63323	0.17668
1.34728	0.48277
1.19427	0.10015
-0.31033	0.20219
-1.22839	-0.20594
-0.94787	-0.61406
1.16877	-1.53234
-0.64185	0.25320
-0.18282	1.27351
0.65874	0.68683
0.32721	0.25320
1.16877	0.38074
0.09770	0.53379
-0.48884	-0.07840
-0.61635	-0.07840
0.40372	0.15117
0.42922	0.32972
0.12320	0.02363
0.22521	0.07465
0.45472	0.20219
0.09770	-0.30797
0.53123	0.30422
0.25071	0.86539
0.17421	0.12566
0.27621	-0.35899
0.19971	-0.05289
-0.61635	-1.48133
-0.97337	-0.61406
0.40372	0.96742
1.44929	0.81437
0.88825	0.91640
-0.13181	1.06945
0.12320	0.50828
-0.02981	0.50828
-0.33583	0.02363
-1.04987	-0.18043
0.96476	-0.30797
0.93925	0.30422
-0.66735	0.38074
0.30171	-1.27726
-0.15732	-0.94566
-1.10088	-0.23145
0.19971	0.96742
-0.36133	0.91640
0.25071	0.20219
0.19971	0.07465
1.55129	0.32972
0.99026	1.47757
1.04126	0.58480
-0.15732	-0.86914
-0.23382	-0.66508
-0.05531	-0.02739
-0.18282	0.50828
0.25071	0.86539
0.04670	0.22769
-0.10631	0.71234
-0.28482	0.04914
-0.31033	-0.15492
0.42922	0.45726
0.96476	0.02363
-0.08081	0.15117
1.19427	0.07465
-0.20832	-0.56305
-0.59084	-0.07840
-0.33583	0.07465
-0.05531	0.20219
0.83725	0.17668
0.60773	1.63062
-0.25932	0.15117
-0.84586	-0.38449
1.06676	-0.76711
0.60773	0.20219
0.37822	0.43176
0.35272	0.40625
0.32721	0.78886
-0.43783	0.66132
-0.61635	-0.23145
0.30171	-0.33348
0.27621	0.35523
0.30171	0.66132
-0.08081	0.76336
-0.84586	-0.79262
-0.43783	-0.76711
1.75531	-0.15492
2.41835	0.30422
-0.10631	0.55929
-1.43240	0.27871
0.91375	0.35523
1.29628	-0.05289
-0.23382	-0.23145
-0.69285	0.55929
-0.79486	-0.18043
-0.74385	0.20219
0.04670	-0.41000
0.88825	-0.33348
0.37822	0.22769
-0.25932	0.50828
0.25071	0.63582
-0.20832	0.63582
0.32721	0.15117
0.68424	0.22769
1.09226	0.27871
0.02119	0.73785
-0.23382	-0.15492
-0.20832	-0.61406
-0.15732	0.22769
0.22521	-0.30797
0.81175	-0.20594
1.75531	0.76336
0.32721	0.25320
-1.38139	-0.46102
-0.43783	0.66132
0.86275	-0.18043
-0.33583	-0.23145
-0.36133	-0.10391
-0.41233	1.50308
0.12320	0.48277
0.83725	-0.38449
0.02119	-0.33348
0.53123	0.32972
0.45472	0.73785
0.40372	0.50828
0.60773	0.50828
0.07220	0.78886
-0.66735	-0.12942
0.32721	-0.43551
0.93925	0.02363
0.07220	0.58480
-0.92237	-0.41000
0.48022	0.17668
0.88825	0.25320
-0.48884	-0.12942
-1.35589	-1.07320
0.65874	-0.53754
0.53123	0.48277
-0.02981	0.76336
0.22521	0.86539
0.32721	0.68683
-0.08081	0.30422
0.88825	0.38074
0.99026	0.45726
0.19971	0.07465
0.22521	0.10015
-0.41233	-0.51203
-0.69285	-0.15492
-0.36133	-0.00188
-0.23382	1.06945
-0.41233	0.43176
0.48022	-0.94566
0.83725	-0.51203
1.11776	0.22769
0.99026	0.76336
-0.74385	0.04914
-0.41233	-0.43551
-0.00431	1.91120
0.42922	0.10015
0.76074	-0.00188
-0.33583	-0.69059
-0.25932	0.27871
0.12320	0.89089
0.53123	0.63582
0.42922	0.02363
0.48022	-0.18043
-0.28482	-0.05289
-0.13181	0.15117
0.76074	0.02363
0.53123	0.45726
0.09770	0.22769
0.91375	0.40625
0.48022	0.40625
-1.38139	-0.53754
-0.71835	-1.07320
-0.02981	0.76336
-0.08081	0.12566
0.37822	0.25320
1.27078	0.68683
0.40372	0.32972
0.25071	-0.15492
1.44929	0.17668
-0.84586	-1.07320
-1.20288	0.71234
-0.56534	0.78886
0.50573	0.86539
0.96476	0.30422
0.19971	0.63582
-0.02981	-0.00188
-0.28482	-0.23145
0.22521	-0.07840
0.76074	0.07465
0.50573	0.20219
0.58223	-0.02739
0.27621	-0.10391
0.07220	-0.05289
-0.13181	-0.10391
-0.18282	0.30422
-0.13181	0.68683
-0.36133	-0.12942
-0.61635	-0.86914
0.37822	-0.07840
2.49485	0.45726
0.58223	0.40625
-1.22839	0.55929
-0.02981	0.73785
1.19427	-0.69059
-0.61635	0.07465
-0.43783	1.42656
0.42922	0.83988
-0.61635	0.12566
0.04670	0.20219
0.42922	0.86539
0.32721	-0.63957
0.53123	-0.66508
0.65874	-0.28246
-0.08081	0.15117
-1.71292	-0.10391
0.55673	0.15117
2.39285	-0.20594
2.26534	0.94191
0.04670	0.35523
-0.99887	-0.46102
-1.33039	-0.74160
0.25071	0.17668
0.50573	0.89089
-1.17738	0.91640
-1.86593	-0.58856
0.02119	-0.51203
1.65330	0.68683
0.73524	0.55929
0.70974	0.73785
0.53123	0.07465
0.32721	0.04914
0.37822	0.83988
-0.13181	0.17668
-0.87136	-0.48652
0.04670	-0.51203
1.19427	-0.30797
-0.02981	0.25320
-0.13181	0.38074
-0.23382	0.50828
-0.46334	-0.33348
-0.00431	0.10015
0.88825	-0.25695
0.42922	0.94191
-0.82036	-0.28246
0.22521	-0.43551
0.35272	0.27871
0.14870	0.25320
0.73524	0.25320
-0.02981	0.45726
-0.25932	1.27351
0.42922	-0.58856
-0.05531	-1.17523
-0.56534	-0.10391
-0.02981	1.01843
0.27621	0.55929
2.46935	-0.18043
1.42379	0.38074
-0.31033	0.40625
-1.27939	0.10015
-0.92237	0.17668
-1.35589	-0.33348
0.86275	0.10015
1.72980	-0.12942
0.19971	0.32972
-0.53984	0.10015
-0.18282	0.78886
0.27621	0.35523
0.48022	-0.15492
0.14870	-0.43551
-0.28482	-0.99668
0.17421	-0.20594
0.14870	-0.12942
0.12320	0.91640
-0.28482	0.35523
0.42922	0.58480
0.55673	0.66132
0.32721	0.50828
0.65874	0.20219
0.27621	-0.12942
-0.41233	1.42656
-0.43783	-0.43551
0.78624	-0.46102
0.48022	-0.46102
0.12320	-0.05289
-0.25932	-0.38449
-0.38683	0.25320
-0.38683	0.25320
-0.08081	-0.94566
0.53123	1.40105
0.30171	0.20219
0.07220	-0.66508
-0.08081	0.02363
1.95932	0.96742
0.48022	1.01843
-0.82036	0.30422
-0.33583	0.07465
0.27621	0.38074
-0.87136	0.30422
-0.94787	-0.05289
1.80631	-0.28246
0.02119	0.38074
-0.61635	0.61031
-0.15732	-0.63957
-0.13181	-0.74160
0.25071	0.15117
0.53123	0.40625
0.60773	0.02363
0.60773	0.76336
0.45472	0.58480
0.07220	0.30422
-0.18282	-0.56305
0.07220	0.45726
-0.18282	0.43176
0.32721	-0.69059
-0.18282	-1.48133
0.42922	0.40625
-0.15732	1.12046
0.17421	1.22250
-2.06994	0.35523
1.44929	0.02363
2.72437	0.76336
0.96476	0.66132
-1.30489	-1.48133
-1.20288	-0.05289
-0.56534	0.40625
-0.48884	0.35523
-0.23382	-0.18043
0.50573	0.12566
0.93925	0.55929
0.88825	0.25320
0.14870	0.45726
-0.00431	-0.46102
0.60773	-1.12422
1.04126	0.50828
0.12320	0.10015
-0.08081	-0.35899
-0.36133	0.76336
-0.25932	0.76336
-0.36133	0.73785
0.27621	0.15117
0.25071	-0.53754
0.40372	0.35523
0.60773	0.73785
-0.08081	-0.48652
-0.82036	-0.28246
0.60773	0.04914
2.52035	0.30422
-0.23382	0.48277
-0.79486	0.20219
-0.33583	0.15117
-0.59084	-0.10391
-0.05531	0.48277
0.37822	0.35523
0.63323	0.38074
0.30171	-0.43551
0.22521	-0.46102
-0.38683	-0.12942
0.19971	-0.25695
1.78081	0.76336
0.25071	0.30422
0.07220	0.43176
-0.33583	0.30422
-0.20832	1.14597
0.40372	0.35523
0.83725	-0.81812
-0.31033	-0.25695
-0.66735	0.27871
-0.20832	0.53379
0.93925	-0.00188
0.02119	0.71234
0.53123	0.12566
-0.56534	-0.12942
-0.05531	-0.25695
0.32721	-0.05289
0.99026	-0.53754
-0.43783	0.91640
-0.48884	0.71234
-0.18282	0.20219
0.22521	0.78886
0.09770	0.58480
0.30171	-0.25695
0.12320	-0.15492
0.48022	-0.43551
0.45472	-0.05289
0.37822	0.27871
0.35272	0.55929
-0.74385	0.30422
0.07220	0.99292
1.72980	-0.69059
0.76074	-0.66508
-0.48884	0.04914
-0.76936	0.27871
-0.84586	0.61031
0.32721	-0.05289
0.25071	-0.18043
0.04670	0.58480
0.12320	0.61031
0.93925	0.63582
-0.25932	-0.10391
0.07220	-0.23145
0.81175	-0.41000
-0.15732	0.63582
0.37822	0.35523
-0.28482	0.07465
0.25071	-0.20594
0.68424	-0.02739
-0.02981	0.10015
0.78624	0.45726
-0.05531	0.10015
-0.23382	0.40625
-0.02981	0.30422
-0.59084	-0.10391
0.35272	-0.35899
0.32721	-0.18043
0.17421	1.42656
-0.46334	-0.51203
0.09770	-0.51203
0.42922	0.25320
0.32721	0.99292
0.02119	0.55929
0.32721	0.45726
0.19971	0.12566
0.04670	0.22769
0.22521	0.32972
-0.23382	-0.71609
0.53123	-0.61406
0.32721	0.22769
0.07220	0.50828
0.12320	0.71234
-0.28482	0.78886
-0.28482	-0.05289
1.04126	0.35523
0.04670	-0.97117
-0.36133	0.25320
0.27621	-0.25695
0.19971	1.17148
0.60773	-0.15492
-0.18282	-0.12942
-0.38683	-0.12942
-0.51434	0.07465
-0.51434	0.27871
2.11233	0.32972
0.70974	0.53379
-0.36133	-0.46102
-0.61635	0.07465
-0.74385	-0.15492
-0.61635	0.76336
0.50573	-0.02739
0.83725	0.63582
1.14327	0.73785
1.75531	0.04914
0.73524	0.17668
-1.17738	-1.07320
-1.10088	0.20219
0.93925	0.35523
0.88825	-0.07840
0.37822	0.45726
-0.18282	0.30422
-0.59084	0.68683
-0.20832	0.68683
-0.18282	-0.56305
-0.69285	-1.04770
0.17421	-0.43551
0.42922	0.48277
0.40372	0.45726
0.30171	0.55929
0.45472	0.73785
0.35272	0.48277
0.48022	0.71234
0.17421	0.78886
0.63323	-0.63957
0.42922	-0.28246
0.04670	0.02363
-0.89686	0.15117
0.22521	-0.25695
1.52579	0.27871
-1.15188	-0.12942
-0.66735	0.48277
1.32178	0.53379
-0.48884	-0.48652
-0.51434	-1.43031
0.58223	-0.48652
-0.02981	0.43176
0.48022	0.53379
0.58223	1.35003
0.12320	1.24800
-0.41233	0.55929
0.48022	0.25320
1.75531	0.15117
0.42922	-0.07840
-0.28482	-0.23145
-0.56534	-0.00188
-0.48884	-0.15492
-0.56534	-0.56305
-0.05531	-0.05289
0.37822	-0.20594
0.02119	-0.10391
0.68424	-0.12942
-0.31033	0.73785
1.29628	0.38074
1.16877	0.38074
-0.61635	0.58480
-0.79486	-0.58856
-0.33583	-0.15492
-0.41233	1.01843
1.06676	0.68683
0.83725	0.02363
0.30171	0.12566
1.14327	0.53379
-0.28482	-0.05289
-0.48884	-0.51203
-0.36133	0.30422
0.14870	0.66132
1.01576	0.35523
0.09770	-0.46102
0.04670	-0.07840
0.70974	0.63582
0.40372	0.07465
-1.22839	0.17668
-0.41233	-0.53754
0.25071	-0.00188
0.25071	0.58480
-0.66735	0.12566
0.25071	-0.53754
1.14327	0.40625
1.04126	0.81437
0.27621	0.94191
-0.28482	0.02363
-0.41233	0.04914
1.32178	0.30422
0.65874	0.78886
-0.69285	-2.01699
-0.76936	0.25320
-0.41233	0.27871
0.22521	0.83988
0.53123	1.12046
0.30171	0.15117
0.19971	0.07465
0.12320	0.20219
0.22521	-0.25695
0.27621	-0.02739
-0.28482	-0.38449
-1.02437	0.81437
1.67880	0.04914
1.19427	-0.79262
0.07220	-0.12942
-0.00431	0.35523
-0.02981	1.57960
0.22521	0.25320
-0.02981	-1.14973
-0.43783	0.10015
-0.41233	0.63582
-0.94787	0.50828
2.77537	0.81437
0.96476	0.27871
-0.71835	-0.25695
0.19971	-0.89465
-0.53984	-0.12942
-0.97337	0.30422
-0.00431	0.78886
0.12320	0.43176
0.63323	0.07465
2.39285	-0.15492
0.88825	0.10015
-0.28482	0.10015
-0.61635	0.20219
-0.28482	0.20219
-0.28482	0.02363
0.53123	-0.02739
0.30171	-0.41000
0.04670	0.02363
0.25071	0.27871
0.07220	0.27871
0.45472	0.61031
0.07220	0.30422
-0.15732	-0.15492
0.32721	0.38074
0.50573	0.30422
-0.08081	0.15117
0.17421	0.35523
0.14870	0.58480
-0.23382	-0.15492
-0.61635	0.27871
0.60773	-0.46102
0.37822	-0.28246
0.27621	0.12566
0.14870	-1.17523
-0.33583	-0.25695
1.11776	0.71234
2.18883	0.63582
0.09770	0.76336
-1.02437	0.96742
-1.63641	0.48277
-0.15732	-0.25695
0.55673	-0.02739
1.09226	0.04914
0.48022	-0.25695
-0.51434	0.07465
0.30171	0.27871
-0.05531	0.22769
-0.74385	0.17668
0.17421	0.40625
0.76074	-0.81812
0.63323	-0.94566
-0.79486	0.20219
0.14870	0.58480
0.58223	0.17668
0.45472	0.50828
0.25071	0.73785
1.16877	0.68683
-0.08081	0.27871
-0.41233	-0.05289
-0.28482	0.04914
0.12320	0.20219
-0.20832	0.53379
0.37822	-0.20594
0.22521	-0.38449
0.27621	-0.12942
-0.13181	0.20219
0.09770	0.73785
0.32721	-0.05289
0.22521	-0.10391
-0.08081	0.20219
0.42922	0.78886
0.53123	-0.35899
-0.13181	-0.30797
-0.97337	0.25320
-0.56534	0.71234
0.22521	0.17668
3.13239	0.32972
0.17421	0.58480
-0.46334	0.10015
0.60773	0.22769
0.35272	-0.18043
-0.89686	-0.81812
-0.53984	-0.35899
-0.53984	0.55929
-0.84586	0.53379
-0.28482	0.30422
0.14870	0.04914
1.65330	-0.33348
1.29628	0.15117
-0.18282	0.25320
0.22521	0.55929
0.96476	0.63582
-0.05531	0.48277
0.14870	-0.12942
-0.00431	-0.69059
-0.51434	0.48277
0.22521	0.15117
0.32721	0.40625
-0.05531	-0.56305
-0.23382	-0.00188
-0.28482	0.81437
0.42922	0.38074
1.11776	0.40625
0.09770	-0.07840
-0.38683	0.10015
-0.43783	0.43176
0.35272	-0.23145
0.40372	-0.18043
0.22521	-0.56305
-0.36133	0.20219
0.40372	0.27871
0.83725	0.50828
1.24527	0.99292
-0.74385	0.15117
-0.38683	-0.84363
-0.31033	-0.84363
0.50573	0.53379
0.07220	0.38074
0.32721	0.43176
-0.10631	0.73785
-0.82036	0.27871
-1.63641	0.38074
2.95388	-0.07840
2.08683	0.04914
0.22521	0.04914
-0.76936	0.07465
-0.38683	0.12566
-0.20832	-0.05289
-0.59084	-0.20594
-0.61635	0.04914
0.02119	-0.05289
0.37822	-0.10391
0.32721	0.58480
0.27621	-0.00188
0.65874	0.20219
0.37822	0.45726
-0.05531	0.43176
-0.00431	0.40625
-0.31033	0.22769
-0.08081	-0.12942
1.50029	0.32972
0.22521	-0.74160
0.04670	0.02363
0.09770	0.61031
-0.28482	0.55929
-0.59084	-0.43551
0.02119	0.12566
1.34728	0.04914
0.37822	0.66132
-0.94787	-0.05289
-0.56534	0.40625
-0.08081	0.17668
0.70974	0.63582
0.91375	0.12566
0.76074	0.12566
-0.74385	0.45726
-1.04987	-0.38449
0.22521	-0.20594
0.76074	0.15117
0.53123	-0.00188
-0.18282	-0.02739
0.78624	0.12566
2.16333	0.30422
-0.38683	-0.18043
-0.48884	0.15117
-0.61635	0.45726
-0.56534	0.30422
0.63323	0.35523
0.35272	0.43176
-0.69285	0.30422
-0.08081	0.12566
0.17421	0.04914
0.37822	-0.15492
0.17421	-0.15492
-0.25932	0.20219
-0.56534	0.07465
0.88825	0.20219
1.09226	0.40625
0.25071	0.02363
0.19971	-0.23145
0.22521	0.15117
-0.13181	0.20219
-0.23382	0.78886
1.01576	-0.07840
0.02119	0.38074
-0.23382	-0.05289
-0.28482	0.17668
-0.20832	0.20219
0.32721	0.78886
0.17421	0.27871
-0.08081	-0.56305
-0.36133	0.20219
1.01576	-0.46102
0.86275	-0.81812
-1.17738	0.15117
0.17421	0.71234
0.83725	1.19699
0.25071	0.10015
-0.08081	0.68683
0.09770	0.63582
-0.28482	0.35523
0.12320	-0.41000
1.11776	0.02363
0.81175	0.30422
-0.84586	-0.18043
-0.53984	-0.66508
0.53123	-0.10391
2.08683	0.25320
-1.30489	-0.07840
-0.71835	-0.02739
0.50573	0.53379
0.30171	0.50828
0.14870	0.50828
-0.13181	-0.02739
-0.18282	0.04914
0.58223	-0.20594
1.14327	0.20219
0.55673	0.58480
-0.69285	0.10015
-0.13181	-0.38449
0.65874	0.32972
-0.25932	0.50828
-0.02981	0.45726
0.27621	0.30422
0.12320	-0.18043
0.12320	0.04914
0.04670	0.43176
0.22521	0.45726
0.30171	-0.28246
0.30171	-1.22625
0.09770	-0.10391
0.09770	0.27871
0.14870	0.86539
0.07220	0.73785
0.04670	0.25320
-0.48884	0.25320
-0.08081	0.50828
2.57136	0.04914
0.07220	-0.46102
-0.64185	0.04914
-0.66735	0.04914
-0.28482	-0.43551
-0.05531	0.43176
-0.02981	0.68683
-0.00431	0.20219
0.09770	0.07465
1.29628	0.25320
1.67880	-0.28246
0.91375	0.35523
-0.51434	-0.79262
-0.48884	0.10015
-0.56534	0.43176
-0.33583	0.58480
0.07220	-0.23145
0.53123	0.35523
0.50573	0.45726
-0.66735	0.48277
0.19971	0.22769
1.34728	-0.05289
0.14870	-0.41000
-0.05531	-0.12942
-0.69285	0.35523
0.42922	0.04914
1.67880	0.27871
-0.48884	0.15117
-0.59084	0.30422
-0.18282	0.02363
0.19971	0.55929
0.27621	0.32972
0.35272	0.17668
0.17421	-0.30797
0.22521	0.22769
0.17421	0.40625
0.17421	0.32972
0.32721	-0.05289
0.27621	0.04914
-0.28482	-0.48652
0.02119	0.25320
0.27621	0.58480
0.17421	0.71234
0.53123	-0.33348
-0.10631	-0.38449
-0.56534	0.10015
-1.07538	0.45726
-1.76392	0.25320
0.88825	-0.18043
3.08139	0.45726
1.52579	0.48277
-0.79486	0.32972
0.55673	0.50828
0.22521	0.40625
-0.28482	0.15117
-0.64185	-0.58856
-0.23382	-0.51203
-0.20832	0.10015
-0.28482	0.43176
0.32721	0.35523
0.22521	-0.02739
0.35272	0.22769
0.40372	0.15117
0.35272	-0.00188
0.30171	-0.05289
-0.10631	0.25320
0.12320	0.55929
0.83725	0.45726
0.86275	0.30422
-0.20832	-0.33348
-0.20832	-0.38449
-0.15732	0.58480
0.32721	0.40625
-0.38683	0.17668
-0.41233	0.43176
-0.31033	0.20219
0.12320	-0.56305
1.34728	-0.28246
0.78624	0.76336
-0.00431	0.55929
-0.08081	0.30422
-0.38683	-0.71609
-0.02981	0.20219
-0.02981	0.66132
0.14870	0.35523
0.70974	0.22769
0.35272	0.32972
0.32721	0.22769
0.22521	-0.05289
0.25071	0.30422
-0.48884	0.02363
-0.46334	-0.18043
0.45472	0.07465
0.70974	0.35523
0.17421	0.07465
-0.08081	-0.48652
-0.28482	0.25320
-0.05531	0.43176
0.60773	0.43176
0.35272	-0.07840
-0.38683	-0.25695
-0.13181	0.15117
-0.25932	0.61031
1.11776	0.10015
0.30171	0.32972
-0.20832	0.02363
0.60773	-0.07840
1.04126	0.15117
0.48022	0.81437
-0.31033	0.10015
-0.02981	-0.43551
-0.13181	0.04914
0.02119	-0.10391
-0.69285	0.55929
0.17421	0.48277
0.35272	0.30422
0.25071	-0.12942
0.30171	0.07465
0.48022	0.66132
0.04670	0.27871
0.86275	-0.07840
0.68424	-0.33348
0.19971	0.02363
-0.59084	-0.71609
0.04670	0.32972
-0.28482	0.10015
-0.00431	0.61031
0.30171	0.66132
-0.20832	0.27871
-0.99887	-0.05289
0.50573	0.55929
1.70430	0.76336
0.19971	0.22769
-0.38683	-1.12422
0.02119	-1.09871
0.25071	0.30422
0.12320	0.58480
0.40372	1.06945
0.04670	0.38074
-0.33583	0.17668
0.93925	0.27871
0.17421	0.22769
0.14870	-0.10391
-0.28482	0.04914
-0.38683	0.17668
0.09770	-0.15492
0.19971	-0.05289
0.02119	-0.02739
0.04670	0.07465
-0.05531	0.12566
-0.64185	-0.00188
0.76074	0.20219
1.29628	0.27871
0.48022	0.35523
0.09770	0.43176
-0.69285	0.27871
0.22521	-0.00188
1.11776	0.45726
0.22521	-0.46102
-0.51434	0.32972
-0.38683	0.22769
0.04670	-0.07840
0.76074	-0.28246
0.37822	0.04914
-0.08081	0.45726
-0.23382	0.38074
-0.28482	0.43176
0.12320	0.02363
0.25071	0.25320
0.65874	1.04394
0.37822	-0.18043
0.14870	-1.32828
0.32721	-0.86914
1.57679	0.27871
-0.48884	1.14597
-0.41233	0.99292
-0.38683	0.55929
-0.61635	0.20219
0.12320	0.38074
0.73524	0.04914
1.57679	0.40625
0.30171	-0.30797
-1.20288	-0.28246
0.37822	0.32972
0.83725	-0.18043
-0.08081	-0.20594
-0.13181	0.17668
-0.23382	0.50828
-0.02981	0.27871
-0.05531	-0.15492
0.45472	0.15117
-0.13181	0.30422
-0.00431	0.35523
1.21977	0.38074
0.91375	0.12566
-0.18282	-0.05289
0.04670	0.04914
-0.36133	-0.28246
-0.02981	0.35523
-0.02981	0.22769
0.60773	0.40625
0.37822	0.27871
-0.00431	0.07465
0.07220	0.50828
0.17421	-0.63957
-0.28482	-0.18043
0.27621	0.40625
0.78624	0.30422
0.27621	0.27871
0.09770	0.35523
-0.23382	0.50828
-0.10631	-0.18043
0.32721	-0.23145
-0.71835	-0.58856
-0.31033	0.10015
1.29628	0.53379
0.19971	0.45726
0.14870	0.35523
0.50573	0.96742
0.40372	0.17668
-0.13181	-0.48652
-0.53984	-0.76711
-0.53984	0.32972
0.22521	0.43176
0.91375	0.35523
0.12320	0.43176
0.60773	0.02363
0.27621	0.71234
-0.00431	0.27871
-0.00431	-0.43551
0.58223	-0.38449
0.40372	0.53379
-0.10631	0.45726
-0.25932	0.32972
-0.69285	-0.33348
-0.02981	0.25320
0.02119	-0.20594
0.73524	0.40625
0.30171	0.27871
0.22521	0.30422
0.32721	0.71234
0.53123	0.43176
-0.10631	-0.76711
-0.10631	-0.35899
-0.08081	0.30422
-0.08081	0.40625
0.14870	1.09496
0.12320	0.30422
0.53123	-0.12942
0.93925	-0.69059
0.14870	-0.15492
-0.18282	0.10015
-0.25932	0.22769
0.07220	0.86539
0.19971	0.38074
-0.08081	0.30422
-0.00431	-0.00188
0.96476	0.07465
0.35272	-0.00188
-0.08081	0.12566
0.04670	0.32972
0.22521	-0.12942
-0.23382	0.25320
0.02119	-0.07840
0.22521	0.17668
-0.10631	0.07465
0.17421	-0.07840
0.07220	0.12566
0.04670	0.50828
0.27621	0.48277
0.32721	-0.18043
0.27621	0.04914
0.19971	0.12566
-0.02981	0.12566
0.12320	0.10015
0.19971	0.25320
0.19971	0.50828
0.22521	0.55929
0.27621	0.40625
0.04670	-0.05289
0.14870	-0.30797
0.09770	-0.02739
0.02119	0.22769
-0.15732	-0.02739
0.02119	-0.00188
0.35272	0.15117
0.58223	0.30422
0.65874	0.27871
-0.25932	0.15117
-0.23382	-0.20594
-0.25932	-0.28246
0.22521	0.38074
0.48022	0.96742
-0.08081	0.02363
0.14870	-0.30797
0.70974	-0.05289
0.19971	0.07465
-0.33583	0.53379
-0.59084	-0.05289
1.21977	0.20219
0.53123	0.25320
-0.23382	0.30422
-0.15732	0.32972
0.12320	0.35523
-0.23382	0.10015
0.12320	-0.15492
0.12320	-0.12942
0.32721	0.07465
0.50573	0.02363
0.30171	0.55929
-0.05531	0.10015
-0.00431	0.40625
0.25071	-0.20594
-0.18282	-0.20594
0.09770	0.35523
0.17421	0.15117
0.09770	0.35523
0.19971	0.12566
0.12320	0.40625
0.12320	-0.18043
-0.00431	-0.00188
0.50573	0.43176
-0.00431	0.12566
0.14870	0.40625
0.58223	0.27871
0.37822	0.38074
-0.23382	-0.51203
-0.05531	-0.69059
0.09770	0.50828
0.14870	0.63582
0.07220	0.10015
0.40372	0.22769
0.07220	0.30422
-0.28482	0.22769
-0.08081	0.04914
-0.53984	0.15117
0.65874	0.07465
1.55129	0.15117
-0.05531	0.15117
-0.02981	0.35523
-0.00431	-0.48652
0.53123	0.61031
-0.15732	0.20219
-0.69285	-0.07840
-0.18282	-0.71609
0.32721	0.02363
0.25071	0.53379
0.60773	1.04394
0.63323	0.30422
0.02119	0.04914
0.04670	0.22769
0.02119	0.04914
0.09770	0.32972
-0.02981	0.17668
-0.10631	0.02363
0.45472	0.25320
0.25071	0.22769
0.02119	-0.00188
-0.02981	0.10015
-0.08081	-0.07840
0.07220	-0.10391
0.17421	-0.10391
0.30171	0.27871
0.19971	0.27871
0.22521	0.35523
0.25071	0.07465
0.48022	-0.25695
0.55673	0.30422
-0.00431	0.38074
-0.31033	0.53379
-0.05531	0.15117
0.02119	0.07465
-0.66735	0.61031
0.60773	-0.33348
0.83725	0.30422
0.19971	0.30422
0.91375	0.66132
-0.13181	-0.48652
-0.71835	-1.02219
-0.05531	0.12566
0.09770	0.61031
0.07220	0.22769
0.48022	-0.12942
0.14870	0.38074
-0.18282	0.63582
0.35272	0.15117
0.88825	-0.00188
0.07220	0.15117
0.27621	0.32972
0.04670	0.15117
0.27621	-0.07840
0.32721	-0.25695
-0.08081	0.38074
-0.69285	0.17668
-0.66735	-0.07840
-0.00431	-0.07840
0.27621	-0.07840
0.48022	-0.00188
0.55673	0.45726
1.52579	0.83988
0.35272	0.32972
-0.13181	-0.25695
0.04670	0.30422
-0.46334	0.22769
-0.43783	-0.02739
-0.25932	0.32972
1.14327	0.17668
0.60773	-0.15492
-0.36133	-0.30797
-0.31033	0.02363
-0.13181	0.40625
0.09770	0.25320
0.22521	0.04914
0.04670	0.02363
0.09770	0.02363
0.32721	0.50828
0.32721	0.22769
0.50573	0.20219
0.35272	0.32972
0.25071	0.61031
0.22521	-0.33348
-0.00431	-0.71609
0.19971	0.10015
0.19971	0.78886
-0.51434	-0.30797
0.12320	0.04914
0.88825	0.81437
-0.15732	0.12566
-0.23382	0.76336
-0.02981	0.20219
-0.13181	-0.30797
0.09770	-0.07840
-0.46334	-0.33348
0.35272	0.22769
1.55129	0.63582
0.12320	0.27871
-0.38683	0.40625
-0.25932	0.02363
1.09226	-0.02739
0.53123	0.22769
-0.08081	0.12566
-0.10631	-0.05289
-0.00431	0.15117
-0.51434	0.15117
-0.10631	0.35523
0.17421	-0.18043
0.19971	0.25320
0.14870	-0.07840
0.25071	-0.18043
0.37822	0.32972
0.45472	0.50828
0.19971	0.12566
0.14870	0.17668
0.17421	0.27871
0.07220	0.27871
0.09770	0.07465
0.09770	0.35523
-0.02981	0.20219
0.32721	0.30422
0.02119	-1.02219
0.12320	0.35523
0.07220	0.40625
0.02119	0.35523
0.02119	0.10015
0.12320	0.58480
0.42922	-0.38449
0.45472	0.25320
-0.18282	0.50828
-0.28482	-0.23145
0.91375	-0.23145
-0.02981	-0.23145
0.14870	0.15117
-0.13181	0.68683
0.04670	0.38074
0.32721	0.20219
0.27621	0.17668
0.22521	0.25320
0.22521	0.10015
-0.05531	0.04914
0.17421	0.12566
0.12320	0.30422
0.12320	0.30422
-0.05531	-0.30797
-0.18282	-0.23145
0.17421	0.07465
-0.10631	0.35523
0.12320	-0.35899
1.16877	-0.30797
1.09226	1.24800
-0.36133	0.32972
-0.74385	-0.61406
-0.69285	-0.51203
-0.15732	0.40625
0.25071	0.61031
0.65874	0.86539
0.63323	0.43176
0.32721	0.27871
0.37822	0.40625
0.22521	0.30422
0.14870	0.02363
-0.05531	-0.38449
0.17421	-0.41000
0.09770	-0.35899
-0.18282	-0.18043
-0.05531	0.02363
-0.20832	0.25320
0.22521	0.43176
0.91375	0.35523
0.19971	0.48277
0.17421	0.15117
0.02119	0.27871
0.27621	0.15117
0.12320	0.43176
0.09770	-0.28246
0.09770	0.38074
0.02119	-0.12942
-0.00431	0.07465
-0.13181	0.07465
0.12320	0.17668
0.53123	-0.02739
0.07220	0.12566
0.27621	0.15117
0.12320	0.53379
-0.02981	0.17668
0.48022	0.68683
0.42922	-0.10391
0.42922	-0.18043
-0.38683	-0.12942
-0.48884	-0.25695
-0.15732	0.30422
0.48022	0.55929
0.45472	0.40625
0.17421	0.53379
0.27621	-0.02739
0.63323	0.30422
-0.00431	-0.35899
-0.25932	-0.89465
0.30171	0.86539
0.17421	0.66132
0.25071	0.55929
-0.02981	0.10015
0.04670	-0.07840
0.04670	0.15117
-0.00431	-0.07840
0.12320	-0.25695
0.30171	0.35523
0.19971	0.38074
0.27621	0.12566
0.35272	0.04914
-0.10631	-0.10391
-0.10631	-0.05289
0.19971	0.35523
0.12320	0.22769
0.07220	-0.00188
0.22521	0.10015
0.17421	0.22769
0.32721	0.55929
0.14870	0.35523
0.17421	-0.18043
0.22521	0.15117
0.07220	-0.02739
0.09770	0.15117
-0.02981	0.55929
0.09770	0.20219
0.09770	0.27871
0.17421	0.45726
0.17421	0.17668
0.12320	0.17668
0.17421	-0.63957
0.32721	-0.33348
-0.23382	0.20219
-0.36133	0.22769
-0.20832	0.30422
0.60773	0.20219
0.99026	0.12566
0.30171	0.35523
0.45472	0.32972
-0.25932	0.32972
0.07220	0.10015
-0.31033	-0.15492
-0.18282	0.17668
-0.33583	-0.15492
0.27621	0.02363
0.68424	0.73785
0.45472	0.04914
0.12320	-1.02219
0.37822	0.38074
0.30171	0.78886
0.27621	0.38074
0.12320	0.61031
0.02119	-0.15492
-0.15732	0.43176
-0.05531	0.30422
0.02119	-0.61406
0.07220	0.25320
0.12320	0.48277
0.17421	0.25320
0.32721	0.38074
0.30171	0.63582
0.19971	0.02363
-0.23382	-0.10391
0.25071	-0.89465
0.25071	-0.00188
0.17421	0.02363
0.02119	0.15117
0.42922	0.27871
0.17421	0.35523
0.45472	0.89089
0.19971	0.20219
0.09770	-0.25695
-0.05531	-0.18043
-0.20832	-0.20594
0.70974	0.04914
-0.02981	0.35523
-0.05531	0.66132
-0.02981	0.25320
0.02119	0.22769
0.17421	0.10015
0.48022	0.07465
0.19971	0.32972
-0.13181	0.15117
-0.15732	-0.00188
0.37822	0.10015
0.12320	-0.38449
-0.02981	0.15117
0.58223	0.12566
0.70974	0.10015
-0.15732	0.68683
0.07220	0.71234
0.12320	0.12566
-0.20832	-0.94566
-0.15732	0.43176
-0.25932	0.27871
0.48022	0.20219
0.76074	0.38074
0.14870	0.12566
0.25071	0.32972
0.37822	0.17668
0.32721	0.53379
0.04670	-0.43551
-0.00431	0.25320
-0.43783	-0.33348
-0.31033	0.40625
0.48022	-0.15492
0.22521	-0.41000
0.32721	0.30422
0.25071	0.25320
0.14870	0.58480
0.17421	0.20219
0.25071	0.27871
0.07220	0.10015
-0.00431	0.32972
0.12320	0.55929
0.04670	0.07465
0.02119	-0.35899
0.14870	-0.07840
0.17421	0.10015
0.17421	0.40625
0.04670	0.15117
0.17421	0.12566
0.12320	0.22769
-0.10631	-0.30797
0.48022	-0.18043
0.65874	0.17668
-0.36133	0.07465
0.02119	0.48277
0.40372	0.61031
-0.05531	-0.35899
0.02119	0.04914
0.12320	0.50828
0.32721	0.20219
0.50573	0.25320
0.37822	0.40625
0.09770	0.25320
0.07220	-0.15492
0.22521	-0.46102
-0.13181	0.15117
0.09770	0.40625
0.30171	0.10015
0.25071	0.04914
0.30171	0.53379
0.09770	0.27871
-0.13181	-0.25695
0.04670	-0.66508
-0.18282	0.53379
0.25071	0.38074
0.48022	0.55929
-0.00431	0.40625
-0.02981	0.25320
-0.08081	0.32972
0.32721	-0.30797
0.45472	-0.23145
0.04670	0.12566
0.04670	-0.25695
-0.10631	0.04914
0.04670	0.48277
0.19971	0.68683
0.37822	0.38074
0.35272	0.66132
0.09770	-0.20594
-0.36133	-0.41000
0.22521	-0.02739
0.07220	0.38074
0.27621	0.10015
1.04126	0.12566
0.37822	0.50828
-0.56534	-0.38449
-0.18282	-0.12942
-0.00431	0.27871
-0.05531	0.04914
0.22521	0.48277
0.12320	0.12566
0.12320	-0.38449
0.48022	0.30422
0.40372	0.66132
-0.61635	0.25320
0.42922	0.04914
0.93925	0.12566
-0.00431	-0.05289
-0.02981	0.02363
-0.23382	0.27871
0.12320	0.38074
-0.00431	0.50828
0.53123	-0.07840
0.55673	0.10015
-0.13181	0.10015
-0.13181	-0.07840
-0.02981	-0.12942
-0.00431	0.35523
0.19971	0.38074
0.30171	0.30422
0.19971	-0.05289
0.04670	-0.20594
0.17421	-0.00188
0.22521	0.58480
0.14870	0.55929
0.12320	0.22769
0.12320	0.15117
-0.02981	-0.12942
0.14870	0.10015
1.06676	0.12566
0.02119	-0.00188
-0.46334	0.63582
-0.10631	-0.33348
0.07220	0.04914
0.63323	0.48277
0.07220	0.71234
-0.02981	-0.41000
-0.02981	0.30422
0.17421	0.53379
0.04670	-0.00188
0.37822	-0.41000
0.48022	-0.02739
0.09770	0.45726
0.14870	0.43176
0.50573	0.35523
-0.13181	0.27871
-0.18282	-0.05289
0.17421	0.35523
0.02119	-0.48652
0.22521	-0.12942
0.32721	0.12566
-0.38683	0.17668
0.42922	0.22769
1.16877	0.15117
-0.08081	0.38074
-0.28482	0.12566
-0.05531	0.15117
0.40372	0.32972
-0.10631	0.25320
0.17421	0.43176
-0.15732	-0.12942
0.02119	-0.18043
0.25071	0.07465
0.14870	-0.18043
0.14870	0.22769
0.19971	0.15117
0.30171	0.43176
0.14870	0.66132
0.02119	-0.51203
0.50573	-1.09871
0.42922	0.55929
-0.23382	0.89089
-0.10631	0.12566
-0.08081	0.15117
0.25071	-0.00188
0.12320	0.27871
0.35272	0.61031
-0.08081	0.30422
0.25071	0.55929
0.53123	-0.35899
0.02119	-0.20594
0.02119	-0.63957
0.12320	0.27871
0.04670	0.20219
0.04670	-0.23145
0.22521	0.15117
0.02119	0.66132
0.48022	0.32972
0.35272	-0.07840
0.17421	0.12566
0.02119	-0.23145
0.09770	0.43176
-0.28482	0.45726
-0.43783	0.32972
-0.05531	-0.02739
1.75531	-0.35899
0.37822	0.22769
-0.31033	0.17668
-0.25932	0.27871
-0.18282	0.40625
0.53123	0.10015
0.27621	-0.35899
-0.00431	0.10015
-0.08081	0.61031
-0.18282	-0.18043
0.09770	-0.10391
0.02119	0.22769
0.73524	0.45726
0.27621	0.20219
0.22521	0.25320
0.19971	0.25320
-0.15732	-0.05289
-0.25932	0.04914
0.02119	-0.00188
0.32721	0.04914
0.45472	0.22769
0.35272	1.19699
0.27621	0.66132
0.25071	-0.33348
-0.00431	-0.61406
-0.00431	-0.23145
0.22521	-0.46102
0.14870	0.35523
-0.00431	1.06945
-0.20832	0.30422
-0.18282	-0.69059
-0.15732	0.30422
0.32721	0.58480
0.40372	0.17668
0.17421	0.20219
0.07220	0.25320
0.53123	0.25320
0.83725	0.04914
0.19971	-0.28246
-0.05531	0.20219
-0.20832	0.40625
0.35272	-0.43551
-0.02981	0.10015
-0.74385	0.15117
0.65874	0.04914
0.40372	0.04914
-0.36133	0.30422
0.04670	0.25320
0.19971	0.15117
0.32721	0.12566
0.48022	0.15117
0.25071	0.35523
-0.00431	0.27871
-0.05531	-0.00188
0.22521	-0.35899
0.27621	0.27871
0.53123	0.15117
0.35272	0.27871
-0.05531	0.15117
0.07220	0.35523
-0.05531	0.02363
0.30171	0.07465
0.25071	0.35523
-0.00431	-0.00188
0.07220	0.30422
0.09770	0.02363
0.19971	-0.41000
0.09770	-0.23145
0.02119	0.40625
0.02119	-0.53754
0.14870	-0.10391
0.19971	0.38074
0.32721	0.89089
0.22521	0.94191
0.12320	0.32972
0.07220	0.43176
0.02119	-0.61406
0.60773	-0.18043
-0.23382	0.07465
-0.02981	0.22769
0.48022	0.91640
0.17421	-0.84363
0.17421	-0.81812
0.02119	0.25320
-0.74385	1.01843
0.58223	0.35523
1.19427	0.12566
0.25071	0.27871
-0.13181	0.25320
-0.43783	0.22769
-0.28482	0.10015
0.32721	0.10015
0.32721	-0.02739
0.65874	0.12566
-0.00431	0.30422
-0.15732	-0.12942
-0.13181	0.10015
-0.00431	0.07465
0.19971	0.48277
0.19971	-0.07840
0.27621	0.38074
0.27621	0.30422
0.07220	-0.12942
0.27621	0.27871
0.27621	0.30422
0.12320	0.02363
0.04670	0.50828
0.02119	-0.10391
0.19971	-0.69059
0.17421	0.45726
0.09770	0.20219
0.12320	0.53379
0.12320	-0.71609
0.30171	0.27871
0.45472	0.91640
0.17421	0.22769
-0.41233	-0.38449
-0.18282	0.15117
-0.28482	0.86539
0.30171	1.06945
0.63323	-0.07840
1.16877	-0.38449
0.25071	-0.05289
-0.36133	0.15117
-0.10631	-0.02739
0.42922	0.35523
-0.15732	0.07465
0.04670	-0.15492
-0.10631	0.17668
0.12320	-0.61406
0.40372	0.30422
0.22521	0.17668
0.12320	0.38074
-0.00431	0.20219
0.19971	0.58480
-0.18282	0.22769
0.58223	0.22769
0.81175	-0.23145
-0.28482	0.02363
-0.28482	0.50828
-0.15732	-0.05289
0.14870	0.30422
0.22521	0.30422
0.22521	0.04914
0.32721	0.15117
0.35272	0.10015
0.12320	0.07465
0.02119	0.20219
0.42922	-0.07840
0.25071	0.20219
-0.08081	0.17668
0.14870	-0.12942
-0.15732	-0.00188
0.07220	0.10015
0.96476	0.20219
0.35272	0.48277
-0.13181	0.96742
-0.38683	0.10015
0.12320	-0.00188
-0.08081	-0.89465
0.19971	-0.18043
0.53123	-0.12942
0.27621	1.04394
-0.13181	0.55929
-0.08081	0.12566
0.32721	-0.05289
0.09770	0.38074
0.07220	0.86539
0.25071	0.10015
0.40372	-0.38449
0.17421	0.04914
-0.20832	0.55929
0.35272	0.20219
0.17421	-0.28246
-0.02981	0.15117
0.12320	0.20219
0.12320	0.35523
0.22521	0.25320
-0.18282	0.17668
0.30171	-0.23145
0.07220	-0.51203
0.04670	0.50828
0.78624	0.58480
0.63323	0.20219
0.25071	-0.15492
-0.25932	-0.23145
-0.33583	0.61031
-0.28482	0.38074
-0.08081	0.76336
0.09770	0.12566
0.19971	0.15117
0.22521	0.07465
0.25071	0.17668
0.70974	-0.07840
0.88825	-0.07840
0.19971	-0.28246
-0.10631	0.20219
-0.15732	0.02363
-0.08081	0.12566
0.27621	0.40625
-0.23382	0.76336
-0.20832	0.53379
-0.31033	-0.81812
0.37822	-0.76711
0.19971	0.38074
0.48022	0.40625
0.48022	0.43176
0.42922	0.27871
0.17421	0.40625
0.17421	-0.15492
0.04670	0.02363
0.32721	0.78886
0.30171	-0.15492
-0.10631	-0.48652
0.09770	0.63582
-0.28482	-0.23145
-0.38683	0.27871
-0.08081	0.10015
-0.10631	0.38074
0.19971	0.30422
0.48022	0.30422
0.63323	-0.12942
0.37822	0.35523
0.55673	0.02363
0.22521	0.12566
-0.02981	0.30422
0.12320	0.02363
-0.02981	-0.12942
-0.31033	0.17668
-0.05531	0.61031
0.02119	0.10015
0.17421	-0.41000
0.30171	0.94191
-0.08081	0.15117
0.22521	-0.25695
0.37822	0.15117
-0.25932	0.20219
0.25071	-0.33348
0.70974	0.15117
0.04670	0.48277
0.37822	0.63582
0.22521	0.25320
-0.08081	-0.23145
-0.23382	0.20219
-0.15732	0.04914
0.32721	0.20219
0.40372	0.32972
0.30171	0.35523
-0.00431	0.20219
-0.23382	0.12566
1.37278	-0.15492
0.86275	-0.18043
-0.23382	-0.05289
-0.28482	0.55929
-0.31033	0.40625
-0.69285	0.32972
-0.41233	-0.00188
0.40372	0.12566
1.32178	0.12566
0.30171	-0.28246
0.02119	0.17668
0.09770	0.02363
0.22521	0.35523
0.22521	0.58480
0.04670	0.50828
-0.00431	0.32972
0.04670	0.15117
-0.02981	0.22769
0.09770	-0.05289
0.30171	-0.07840
0.42922	-0.51203
0.14870	0.02363
0.14870	-0.48652
0.22521	0.73785
-0.28482	0.25320
0.17421	0.94191
0.37822	0.35523
0.45472	0.25320
0.07220	-0.46102
0.02119	-0.00188
0.07220	0.48277
0.14870	0.10015
0.14870	-0.43551
0.12320	-0.12942
0.07220	0.30422
0.14870	0.30422
0.12320	0.30422
-0.02981	-0.38449
0.30171	-0.00188
0.14870	0.32972
-0.02981	0.30422
0.22521	0.30422
0.04670	0.12566
0.14870	-0.18043
0.12320	0.32972
0.04670	0.43176
0.63323	0.27871
0.40372	-0.30797
-0.33583	-0.12942
-0.18282	0.89089
0.19971	-0.41000
0.35272	-0.12942
0.32721	0.53379
-0.05531	0.53379
0.12320	-0.02739
0.40372	0.07465
0.19971	-0.12942
0.14870	-0.00188
-0.20832	0.02363
0.32721	0.04914
0.32721	0.53379
0.09770	0.30422
-0.20832	0.12566
0.14870	0.04914
0.22521	0.27871
0.27621	0.10015
0.07220	-0.86914
0.17421	0.02363
-0.20832	0.32972
0.88825	0.04914
1.01576	0.30422
-0.71835	0.71234
-0.41233	-0.02739
0.25071	0.25320
-0.18282	-0.10391
0.27621	0.43176
0.42922	0.61031
0.19971	0.04914
0.14870	-0.07840
0.14870	0.43176
0.25071	0.04914
0.37822	-0.74160
0.02119	-0.10391
0.09770	0.04914
0.02119	0.04914
-0.10631	0.76336
0.17421	0.35523
0.02119	0.40625
0.12320	0.55929
0.07220	-0.02739
-0.08081	-0.23145
-0.28482	0.07465
0.07220	0.32972
0.55673	0.20219
0.32721	0.15117
0.78624	0.22769
0.04670	-0.15492
-0.08081	-0.10391
0.88825	-0.00188
-0.05531	0.55929
-0.15732	0.32972
-0.02981	0.02363
-0.02981	-0.07840
-0.02981	0.12566
0.02119	0.78886
0.17421	0.15117
-0.02981	-0.79262
-0.36133	-1.02219
0.40372	1.04394
0.68424	0.32972
0.30171	0.02363
-0.00431	0.30422
0.32721	0.66132
0.27621	0.63582
0.58223	0.81437
-0.02981	-0.51203
-0.05531	-0.53754
-0.00431	-0.46102
-0.38683	0.45726
-0.41233	0.86539
0.35272	-0.53754
1.50029	-0.33348
-0.08081	0.07465
-0.13181	0.91640
0.40372	0.66132
-0.08081	-0.05289
-0.46334	-0.53754
-0.53984	0.30422
0.19971	0.68683
0.25071	0.07465
0.40372	0.10015
0.50573	-0.02739
0.35272	0.07465
0.50573	0.40625
0.22521	0.10015
0.35272	-0.20594
0.17421	0.22769
-0.15732	0.22769
-0.41233	0.17668
-0.02981	0.38074
0.45472	0.38074
0.30171	0.35523
0.07220	-0.30797
0.32721	0.12566
0.30171	-0.41000
-0.10631	0.15117
-0.02981	0.10015
-0.05531	0.32972
0.09770	0.40625
0.14870	0.25320
0.09770	0.15117
0.27621	0.10015
0.58223	0.10015
-0.00431	-0.10391
-0.02981	0.04914
0.22521	-0.00188
0.14870	0.17668
0.02119	0.40625
0.55673	0.81437
-0.28482	0.30422
-0.02981	-0.41000
-0.10631	0.25320
0.35272	0.17668
0.27621	0.07465
0.83725	-0.10391
-0.13181	0.10015
-0.48884	-0.35899
0.37822	0.38074
0.63323	0.76336
-0.08081	0.32972
-0.53984	0.22769
0.32721	-0.12942
1.60230	0.04914
0.07220	0.22769
0.04670	0.43176
-0.00431	0.15117
-0.38683	0.27871
-0.48884	-0.58856
-0.13181	0.22769
0.30171	0.40625
0.42922	0.25320
0.55673	0.32972
0.40372	-0.07840
0.27621	0.17668
0.14870	0.25320
0.07220	0.15117
0.12320	0.07465
-0.00431	0.07465
-0.08081	0.12566
0.07220	0.30422
-0.02981	0.38074
0.14870	0.25320
0.91375	0.07465
0.04670	-0.05289
0.19971	0.07465
-0.13181	-0.12942
-0.23382	-0.48652
0.32721	0.17668
0.02119	0.55929
-0.25932	0.32972
0.12320	-0.07840
0.55673	0.71234
0.45472	0.50828
0.37822	0.20219
0.12320	0.04914
-0.25932	-0.35899
-0.13181	0.25320
0.42922	0.04914
0.19971	-0.05289
0.25071	0.22769
-0.02981	0.30422
-0.15732	0.27871
0.27621	-0.00188
0.91375	-0.30797
0.93925	0.53379
-0.28482	-0.48652
-0.66735	-0.76711
-0.33583	-0.74160
-0.28482	0.45726
0.32721	1.32453
0.22521	0.66132
0.30171	0.73785
0.30171	0.40625
0.27621	0.15117
0.63323	-0.05289
0.22521	0.10015
0.32721	-0.35899
-0.23382	-0.48652
-0.00431	-0.05289
0.07220	0.45726
0.07220	0.15117
0.02119	0.27871
0.17421	0.12566
0.25071	0.55929
0.09770	0.30422
-0.02981	-0.18043
0.32721	0.22769
0.40372	-0.05289
0.30171	0.53379
-0.13181	-0.05289
-0.31033	0.10015
0.19971	-0.43551
0.12320	0.12566
0.02119	0.73785
0.32721	0.43176
0.27621	-0.12942
-0.05531	-0.07840
0.53123	0.25320
0.76074	0.45726
-0.43783	0.10015
-0.84586	0.20219
0.50573	0.25320
1.44929	0.71234
0.22521	-0.28246
0.17421	-0.43551
-0.38683	-0.02739
-0.41233	0.22769
-0.51434	-0.07840
-0.38683	0.25320
-0.00431	0.22769
0.32721	0.68683
0.78624	0.32972
0.48022	-0.25695
0.42922	0.15117
0.09770	0.15117
0.37822	0.10015
0.40372	-0.12942
-0.20832	0.66132
-0.20832	0.25320
0.12320	0.68683
-0.00431	-0.15492
0.19971	0.40625
0.35272	0.17668
0.25071	-0.00188
-0.05531	0.27871
-0.13181	-0.00188
-0.00431	-0.30797
-0.08081	-0.46102
0.02119	0.40625
0.88825	0.66132
0.07220	0.30422
-0.25932	-0.12942
0.86275	0.02363
0.07220	0.04914
0.27621	0.35523
-0.13181	0.15117
-0.08081	0.30422
0.30171	0.27871
-0.00431	0.17668
0.14870	-0.56305
-0.59084	0.07465
1.06676	0.22769
1.65330	0.20219
-0.89686	0.66132
-0.43783	0.66132
-0.28482	-0.12942
0.14870	-0.10391
0.27621	0.55929
0.09770	0.17668
0.19971	-0.00188
0.37822	0.25320
0.09770	-0.15492
0.19971	0.04914
0.02119	-0.20594
0.12320	0.25320
-0.23382	-0.30797
0.68424	-0.05289
0.70974	0.55929
0.07220	0.83988
-0.00431	0.45726
-0.00431	0.40625
0.07220	-0.18043
-0.05531	0.55929
0.12320	0.35523
0.25071	-0.15492
0.17421	-0.84363
-0.02981	0.53379
-0.02981	0.53379
-0.13181	-0.00188
0.25071	0.43176
0.35272	0.07465
-0.05531	-0.15492
1.04126	0.20219
0.53123	0.50828
-1.02437	-0.00188
0.12320	-0.18043
0.73524	0.12566
-0.10631	0.27871
-0.25932	0.17668
-0.28482	0.02363
0.48022	0.12566
0.68424	0.20219
0.07220	0.22769
-0.02981	-0.07840
0.19971	-0.35899
0.25071	0.68683
0.17421	0.35523
0.09770	0.50828
0.32721	0.20219
-0.15732	0.20219
0.30171	-0.20594
0.12320	0.35523
0.19971	-0.05289
0.17421	-0.02739
0.02119	0.07465
0.12320	0.48277
0.42922	-0.71609
0.14870	-0.07840
-0.18282	0.30422
-0.31033	0.86539
0.27621	-0.07840
0.12320	-0.15492
0.37822	0.55929
0.02119	0.71234
-0.13181	0.30422
0.53123	0.76336
0.04670	-0.46102
-0.82036	-1.63437
0.07220	0.25320
1.85731	0.27871
0.81175	0.35523
-0.33583	0.86539
0.14870	0.48277
0.30171	0.53379
-0.08081	-0.02739
-0.38683	-0.71609
-0.10631	0.20219
-0.10631	0.25320
0.32721	0.63582
0.48022	-0.02739
0.22521	-0.43551
-0.08081	-0.56305
-0.25932	1.01843
0.45472	0.35523
0.68424	-0.18043
0.37822	0.25320
-0.15732	0.07465
-0.43783	0.12566
-0.10631	0.27871
1.16877	0.27871
0.35272	0.30422
-0.18282	0.17668
0.12320	0.30422
0.32721	0.07465
-0.18282	-0.30797
0.02119	0.20219
0.19971	0.22769
0.09770	0.10015
0.04670	-0.00188
-0.08081	0.20219
-0.05531	0.27871
0.35272	-0.25695
0.19971	0.43176
-0.08081	0.22769
0.50573	0.78886
0.68424	0.07465
-0.08081	-1.12422
-0.23382	0.04914
0.09770	0.30422
0.60773	0.07465
0.17421	0.07465
-0.59084	0.55929
0.83725	0.81437
0.55673	0.27871
-0.25932	0.04914
-0.28482	-0.15492
-0.59084	-0.15492
0.22521	0.04914
1.16877	0.55929
-0.05531	-0.05289
0.02119	-0.02739
0.25071	0.35523
0.04670	-0.81812
0.32721	0.30422
0.07220	0.38074
0.17421	0.48277
-0.02981	0.25320
-0.48884	0.20219
0.32721	0.40625
0.50573	-0.12942
0.25071	0.63582
0.12320	-0.20594
0.17421	0.04914
-0.00431	0.35523
0.27621	0.12566
0.12320	-0.07840
0.02119	0.35523
0.50573	0.30422
-0.05531	0.30422
-0.20832	-0.25695
0.12320	-0.05289
0.02119	0.10015
0.09770	0.27871
0.42922	0.12566
0.27621	0.17668
-0.18282	0.20219
-0.05531	0.10015
0.02119	-0.02739
0.17421	0.15117
1.21977	0.25320
0.14870	0.30422
-0.13181	0.17668
0.27621	0.35523
0.07220	0.40625
-0.18282	0.68683
-0.02981	-0.46102
-0.08081	-1.14973
-0.05531	-0.46102
0.07220	-0.07840
-0.05531	0.27871
0.32721	0.63582
0.22521	0.61031
0.22521	0.76336
0.19971	0.20219
0.30171	0.38074
0.63323	0.40625
0.14870	-0.15492
0.07220	0.25320
0.32721	0.32972
0.27621	-0.07840
-0.08081	-0.23145
-0.02981	-0.05289
-0.13181	-0.20594
-0.08081	-0.10391
0.35272	0.48277
0.58223	0.50828
-0.05531	0.27871
-0.23382	-0.20594
-0.15732	0.40625
0.35272	0.55929
0.58223	0.10015
0.45472	0.12566
0.02119	-0.15492
0.63323	0.15117
0.30171	0.07465
-0.15732	0.22769
0.02119	0.27871
-0.66735	0.12566
0.73524	0.30422
1.06676	0.32972
-0.61635	-0.43551
-0.28482	-0.33348
-0.02981	-0.07840
0.07220	0.40625
0.02119	0.45726
0.35272	0.22769
0.14870	0.10015
0.09770	0.58480
0.09770	0.32972
0.19971	-0.05289
0.42922	-0.23145
0.53123	-0.00188
0.42922	0.22769
0.07220	0.07465
0.09770	0.76336
-0.08081	0.04914
-0.08081	-0.41000
0.17421	-0.25695
0.04670	0.43176
0.27621	-0.35899
0.02119	-0.81812
0.30171	0.73785
0.27621	0.76336
0.07220	1.19699
0.09770	0.86539
0.19971	-0.58856
0.32721	0.02363
-0.10631	-0.76711
-0.02981	0.15117
-0.33583	-0.10391
0.45472	0.48277
0.14870	0.20219
0.91375	0.45726
-0.05531	0.35523
-0.08081	0.15117
1.34728	-0.15492
0.09770	0.35523
-0.36133	0.15117
-0.66735	0.04914
-0.18282	-0.02739
0.07220	0.15117
0.35272	-0.33348
0.55673	0.22769
-0.00431	0.45726
-0.02981	0.61031
0.40372	-0.05289
0.63323	-0.15492
-0.23382	0.04914
-0.02981	0.58480
0.37822	0.35523
