0.12320	0.20219
0.22521	0.17668
0.14870	0.15117
0.14870	0.25320
0.17421	0.25320
0.12320	0.27871
0.09770	0.15117
0.07220	0.25320
0.04670	0.20219
0.17421	0.10015
0.22521	0.12566
0.27621	0.04914
0.22521	0.15117
0.25071	0.15117
0.25071	0.10015
0.14870	0.15117
0.17421	0.15117
0.09770	0.07465
0.09770	0.04914
0.09770	0.07465
0.12320	-0.00188
0.12320	0.12566
0.17421	0.17668
0.19971	0.15117
0.12320	0.35523
0.02119	0.25320
0.09770	0.25320
-0.02981	0.20219
-0.08081	0.25320
0.30171	0.12566
0.19971	0.10015
0.22521	0.15117
0.19971	0.10015
0.07220	0.22769
0.17421	0.10015
0.14870	0.15117
0.14870	0.15117
0.12320	0.12566
0.12320	0.10015
0.19971	0.15117
0.22521	0.20219
0.19971	0.17668
0.12320	0.12566
0.12320	0.20219
0.17421	0.04914
0.09770	0.20219
0.14870	0.07465
0.07220	0.12566
0.07220	0.15117
0.02119	0.07465
0.12320	0.10015
0.22521	0.10015
0.22521	0.30422
0.25071	0.30422
0.14870	0.17668
0.12320	0.04914
0.12320	0.04914
0.02119	0.12566
0.09770	0.12566
0.14870	0.10015
0.22521	0.32972
0.25071	0.02363
0.19971	-0.25695
0.17421	-0.12942
0.12320	-0.00188
0.12320	0.27871
0.09770	0.48277
0.12320	0.38074
-0.00431	0.30422
0.09770	0.15117
0.12320	0.17668
0.25071	0.17668
0.14870	0.12566
0.22521	0.07465
0.19971	-0.00188
0.12320	0.04914
0.07220	-0.05289
0.12320	0.12566
0.12320	0.20219
0.12320	0.22769
0.22521	0.27871
0.22521	0.20219
0.22521	0.15117
0.17421	0.12566
0.12320	0.04914
0.07220	0.04914
0.09770	-0.02739
0.09770	0.12566
0.12320	0.22769
0.12320	0.12566
0.14870	0.15117
0.19971	0.02363
0.17421	0.02363
0.14870	0.04914
0.09770	0.17668
0.09770	0.45726
0.07220	0.32972
0.14870	0.22769
0.04670	0.20219
0.09770	0.17668
0.22521	0.10015
0.25071	0.15117
0.27621	0.15117
0.27621	0.15117
0.27621	0.10015
0.19971	0.22769
0.17421	0.30422
0.14870	0.27871
0.12320	0.30422
0.12320	0.35523
0.22521	0.15117
0.25071	-0.18043
0.27621	-0.00188
0.30171	0.02363
0.17421	-0.20594
0.14870	-0.18043
0.14870	-0.00188
0.09770	0.30422
0.02119	0.43176
0.09770	0.17668
0.17421	0.10015
0.17421	0.10015
0.12320	-0.05289
0.14870	0.25320
0.12320	-0.10391
0.07220	0.04914
0.07220	0.15117
0.04670	0.17668
-0.00431	0.32972
-0.00431	0.15117
0.09770	0.15117
0.12320	-0.23145
0.14870	-0.23145
0.17421	-0.00188
0.09770	0.15117
0.12320	0.22769
0.09770	0.30422
0.09770	0.32972
-0.05531	0.12566
0.07220	0.10015
0.17421	-0.00188
0.19971	-0.02739
0.17421	0.04914
0.22521	0.20219
0.12320	0.22769
0.09770	0.12566
0.04670	0.22769
-0.00431	0.20219
-0.00431	0.04914
0.09770	-0.05289
0.19971	0.10015
0.17421	0.17668
0.17421	0.10015
0.19971	0.40625
0.17421	0.20219
0.19971	0.10015
0.14870	-0.02739
0.07220	0.07465
0.04670	0.07465
0.09770	0.02363
0.17421	0.04914
0.27621	-0.00188
0.19971	0.04914
0.19971	0.07465
0.19971	0.07465
0.07220	0.27871
0.07220	0.15117
0.04670	-0.02739
-0.02981	0.07465
0.09770	0.25320
0.17421	0.30422
0.19971	0.27871
0.17421	0.27871
0.12320	0.17668
0.25071	0.12566
0.25071	0.35523
0.14870	0.25320
0.12320	0.04914
0.09770	-0.25695
0.09770	0.12566
0.14870	-0.12942
0.17421	-0.05289
0.14870	0.43176
0.19971	0.43176
0.17421	0.27871
0.12320	0.25320
0.12320	0.17668
0.09770	0.15117
0.07220	0.10015
0.14870	0.12566
0.22521	0.15117
0.25071	0.15117
0.19971	0.15117
0.19971	0.04914
0.19971	-0.07840
0.04670	-0.00188
0.04670	0.12566
0.02119	0.07465
0.02119	0.02363
0.07220	0.10015
0.09770	0.10015
0.14870	0.04914
0.07220	0.20219
0.19971	0.30422
0.17421	0.30422
0.14870	0.27871
0.12320	0.27871
0.07220	0.27871
0.12320	0.20219
0.09770	-0.05289
0.25071	0.15117
0.25071	-0.10391
0.27621	-0.05289
0.22521	-0.00188
0.17421	0.12566
0.04670	0.20219
0.02119	0.12566
0.02119	0.12566
0.02119	0.07465
0.04670	0.10015
0.09770	0.22769
0.22521	0.15117
0.14870	-0.05289
0.09770	0.12566
0.09770	0.22769
0.07220	0.12566
0.04670	0.10015
0.04670	0.32972
0.07220	0.17668
0.12320	0.20219
0.14870	0.04914
0.17421	-0.05289
0.19971	-0.00188
0.22521	0.27871
0.22521	0.32972
0.17421	0.27871
0.12320	0.25320
0.07220	0.22769
0.04670	0.10015
0.12320	0.04914
0.07220	0.17668
0.14870	0.02363
0.12320	0.02363
0.19971	0.22769
0.17421	0.17668
0.12320	0.25320
0.12320	0.20219
0.17421	0.04914
0.12320	0.10015
0.12320	0.17668
0.17421	0.12566
0.12320	-0.02739
0.12320	-0.00188
0.12320	0.04914
0.07220	-0.02739
0.07220	-0.00188
0.09770	0.20219
-0.00431	0.12566
-0.02981	0.04914
0.12320	0.10015
0.17421	0.25320
0.22521	0.20219
0.17421	0.07465
0.22521	0.04914
0.14870	0.12566
0.12320	0.10015
0.07220	0.30422
0.07220	0.32972
0.12320	0.22769
0.14870	0.15117
0.25071	-0.10391
0.25071	-0.18043
0.27621	-0.28246
0.22521	0.07465
0.14870	0.40625
0.17421	0.61031
0.12320	0.61031
0.09770	0.30422
0.07220	0.32972
0.12320	0.20219
0.14870	0.02363
0.32721	-0.00188
0.30171	0.07465
0.22521	-0.02739
0.12320	-0.12942
0.09770	0.04914
0.09770	0.22769
0.07220	0.30422
0.09770	-0.07840
0.12320	0.02363
0.19971	0.35523
0.14870	0.17668
0.14870	0.20219
0.14870	0.15117
0.09770	-0.02739
-0.00431	0.17668
0.04670	0.12566
0.07220	0.17668
0.07220	0.12566
0.12320	0.30422
0.22521	-0.05289
0.17421	-0.20594
0.02119	-0.28246
-0.02981	0.22769
0.19971	0.20219
0.14870	0.35523
0.09770	0.25320
0.09770	-0.02739
0.04670	-0.05289
0.07220	-0.05289
0.12320	0.15117
0.19971	0.27871
0.17421	0.15117
0.12320	0.25320
-0.00431	0.10015
-0.02981	0.15117
-0.05531	0.25320
0.02119	0.17668
0.22521	0.25320
0.17421	-0.23145
0.19971	-0.10391
0.22521	0.53379
0.27621	0.17668
0.19971	0.12566
0.14870	-0.61406
0.12320	-0.05289
-0.00431	-0.00188
0.09770	-0.05289
-0.00431	0.73785
-0.10631	0.66132
0.04670	0.04914
0.14870	0.07465
0.22521	0.30422
0.30171	0.02363
0.12320	-0.18043
0.17421	-0.30797
0.17421	0.20219
0.12320	0.81437
0.12320	0.50828
0.12320	0.04914
0.12320	0.07465
0.45472	0.10015
-0.15732	0.40625
0.17421	-0.46102
0.07220	-0.23145
-0.00431	0.22769
-0.08081	-0.02739
0.04670	0.15117
0.07220	0.50828
-0.08081	0.55929
0.37822	0.12566
0.42922	-0.79262
0.40372	-0.02739
0.12320	0.20219
0.58223	0.12566
-0.10631	0.30422
0.17421	0.53379
0.02119	1.24800
-0.61635	0.35523
0.14870	-0.58856
1.09226	-0.51203
-0.25932	-0.25695
-0.53984	0.48277
0.88825	0.25320
0.02119	-0.05289
0.27621	-0.18043
0.25071	0.68683
1.09226	0.30422
-0.05531	0.38074
-0.00431	-0.35899
-0.28482	-0.28246
-0.36133	-0.74160
-0.23382	0.27871
0.12320	0.22769
0.35272	0.73785
0.63323	1.01843
-0.36133	0.66132
0.07220	-0.02739
2.11233	-0.18043
1.83181	-0.38449
0.93925	-0.07840
-0.51434	0.63582
-2.22295	0.76336
-1.71292	-0.02739
-0.69285	-0.99668
1.70430	-1.07320
-0.79486	0.38074
0.30171	0.04914
1.95932	0.55929
2.62236	0.68683
-0.08081	0.61031
-0.66735	0.50828
-1.66191	0.38074
-0.99887	0.35523
1.47479	0.27871
-0.38683	-0.18043
0.35272	0.78886
-1.12638	-0.15492
-0.48884	-1.55785
1.95932	-1.86394
1.93382	0.25320
0.40372	1.45206
-0.53984	0.25320
-0.79486	0.27871
-0.20832	1.14597
0.60773	0.22769
0.25071	0.50828
0.40372	-0.30797
0.27621	0.12566
0.27621	-0.05289
0.07220	0.20219
0.50573	0.35523
0.42922	0.12566
-0.15732	-0.07840
-0.84586	-0.33348
0.12320	-0.28246
1.37278	0.25320
0.30171	0.32972
-1.94243	0.20219
0.73524	-0.15492
1.57679	0.02363
0.63323	-0.05289
-1.91693	0.30422
0.60773	0.07465
1.27078	0.10015
-0.25932	0.55929
-1.68742	0.71234
-2.32496	0.17668
1.37278	-0.07840
1.57679	-0.07840
-0.46334	0.04914
0.91375	-0.38449
1.37278	-0.35899
-0.69285	0.40625
0.42922	0.89089
0.40372	-0.07840
-0.59084	-1.07320
-0.74385	-0.33348
-0.41233	1.04394
0.76074	1.17148
0.96476	0.50828
-0.05531	-0.02739
-0.59084	0.43176
0.70974	0.10015
0.40372	-1.48133
-0.18282	-1.86394
-0.31033	0.55929
-0.31033	1.14597
-0.43783	0.35523
1.04126	0.89089
0.81175	0.91640
0.02119	0.55929
0.04670	0.30422
-0.00431	0.20219
0.42922	-0.25695
0.40372	-0.10391
0.07220	-0.46102
-0.84586	-0.18043
0.96476	0.07465
0.65874	-0.15492
0.02119	-0.07840
0.04670	0.02363
0.70974	0.58480
-0.79486	0.04914
-0.51434	0.02363
1.47479	0.45726
0.53123	0.43176
0.02119	0.53379
-0.51434	0.10015
-0.38683	-0.10391
0.73524	-0.20594
-0.66735	0.25320
-0.18282	0.20219
0.86275	0.38074
0.42922	0.35523
-1.73842	0.40625
0.63323	-0.23145
0.68424	0.20219
-0.33583	-0.30797
0.37822	0.76336
1.85731	-0.35899
1.24527	-0.05289
0.81175	-0.38449
-1.22839	0.58480
0.27621	0.12566
0.42922	0.27871
-0.64185	0.43176
-1.27939	-0.53754
0.63323	-0.00188
1.14327	-0.18043
0.04670	0.55929
-0.61635	0.91640
-1.04987	0.73785
0.07220	0.00000
1.72980	0.00000
0.99026	0.00000
-0.20832	0.00000
-0.41233	0.00000
-0.05531	0.00000
0.12320	0.00000
0.32721	0.30422
-0.02981	0.02363
0.14870	-0.28246
0.55673	-0.69059
1.62780	-0.02739
0.86275	0.17668
-0.79486	0.68683
-0.97337	0.15117
0.07220	0.10015
0.83725	-0.61406
-0.53984	-0.63957
0.22521	-0.25695
-0.13181	0.94191
0.02119	0.58480
0.14870	0.50828
0.25071	0.45726
0.12320	0.32972
0.22521	0.48277
0.37822	0.32972
0.35272	0.30422
-0.59084	-0.18043
-0.23382	0.15117
1.50029	-0.48652
2.01032	-0.84363
0.27621	-0.05289
-0.92237	0.38074
-0.20832	0.45726
-0.99887	-0.25695
-1.02437	-0.76711
-0.76936	0.40625
-0.10631	0.66132
0.22521	0.53379
0.32721	0.68683
-0.10631	0.45726
1.09226	0.17668
1.50029	0.40625
0.12320	-0.02739
0.12320	-0.20594
-0.02981	0.50828
0.81175	-0.07840
-0.31033	-0.76711
-0.99887	-1.27726
-0.15732	0.43176
0.12320	0.20219
-0.59084	-0.30797
1.29628	0.78886
1.24527	0.83988
-1.17738	0.22769
-0.48884	0.15117
0.78624	0.50828
0.32721	0.55929
-0.76936	-0.46102
0.09770	-0.41000
0.68424	-0.12942
0.14870	0.48277
-0.02981	0.94191
0.12320	-0.05289
0.02119	-0.23145
0.02119	-1.25176
0.12320	-0.10391
0.35272	0.07465
0.42922	0.30422
0.48022	0.96742
0.42922	0.96742
0.27621	0.32972
0.22521	0.04914
-0.18282	0.45726
-0.46334	-0.02739
1.01576	0.15117
0.30171	-0.46102
-0.31033	-1.17523
-0.18282	-0.35899
0.02119	0.32972
0.35272	1.27351
0.02119	0.81437
-0.18282	0.55929
-0.46334	0.48277
0.73524	-0.05289
0.45472	0.35523
1.06676	-0.15492
-0.10631	0.27871
-0.28482	-0.25695
-0.38683	-0.07840
-1.76392	0.30422
1.16877	0.12566
3.71893	0.45726
1.32178	0.04914
-1.81492	-0.66508
-2.32496	-0.69059
-1.96793	-0.18043
0.19971	0.63582
1.75531	0.35523
0.22521	0.86539
0.48022	0.81437
1.14327	-0.10391
0.14870	0.15117
-0.18282	0.25320
-0.20832	0.12566
-0.25932	0.12566
0.04670	0.45726
-0.20832	-0.38449
0.04670	0.12566
0.37822	-0.74160
0.27621	0.22769
0.12320	-0.12942
0.19971	0.50828
0.17421	0.73785
0.22521	0.45726
0.12320	-0.02739
0.04670	0.38074
-0.00431	-0.05289
0.35272	-0.12942
0.12320	-0.35899
0.12320	0.71234
0.09770	0.38074
0.25071	1.32453
0.12320	-0.10391
-0.00431	-0.76711
0.14870	-0.61406
0.17421	0.20219
-0.36133	0.35523
-0.66735	0.38074
2.41835	0.17668
1.29628	0.89089
-0.05531	0.32972
0.04670	-0.51203
-0.59084	-1.07320
-0.89686	0.43176
-0.02981	0.15117
-0.99887	0.48277
0.93925	0.55929
1.11776	0.40625
-1.07538	-0.00188
1.60230	-0.18043
1.65330	-0.00188
-0.76936	0.45726
0.19971	0.10015
-2.04444	0.07465
0.40372	0.02363
2.01032	0.10015
0.63323	0.15117
-0.48884	0.30422
-1.10088	0.35523
0.02119	0.17668
0.88825	0.25320
0.50573	0.04914
0.17421	0.25320
-0.10631	-0.07840
0.09770	-0.46102
0.07220	-0.10391
-0.00431	0.35523
0.19971	1.45206
0.22521	-0.20594
-0.00431	-0.28246
0.63323	-0.66508
-0.00431	-0.23145
0.07220	0.71234
-0.10631	1.12046
-0.05531	0.71234
-0.10631	0.55929
0.04670	0.20219
0.35272	-0.46102
0.22521	-0.00188
0.32721	-0.10391
0.58223	0.15117
0.19971	-0.81812
-0.25932	-1.63437
-0.69285	0.61031
0.78624	1.42656
0.76074	0.61031
0.30171	0.55929
0.63323	0.45726
0.07220	0.35523
0.04670	-0.10391
-0.99887	-0.15492
-0.46334	-0.28246
0.12320	0.12566
0.99026	-0.28246
0.63323	-0.35899
-1.38139	0.32972
-0.25932	0.25320
0.73524	0.32972
0.07220	0.25320
-0.05531	0.43176
1.32178	0.15117
1.95932	0.15117
1.14327	0.10015
0.32721	0.45726
-1.25389	0.63582
-1.35589	-0.23145
-0.92237	-0.02739
0.17421	-0.28246
0.60773	0.38074
0.40372	0.30422
0.37822	0.35523
0.35272	1.32453
0.30171	-0.15492
0.27621	-0.71609
0.09770	-0.86914
0.04670	0.30422
0.12320	-0.12942
0.25071	-0.25695
0.09770	0.96742
0.14870	0.96742
-0.00431	0.38074
0.07220	-0.35899
0.12320	-0.00188
-0.00431	-0.20594
-0.23382	0.48277
0.02119	0.35523
-0.00431	0.45726
0.40372	-0.48652
0.35272	0.25320
0.42922	-0.07840
-0.10631	0.94191
0.50573	-0.28246
1.75531	-0.66508
-0.59084	-0.53754
-0.92237	0.58480
-0.18282	0.50828
0.35272	0.94191
-0.41233	0.55929
-0.33583	0.32972
0.78624	-0.23145
1.72980	0.25320
1.21977	-0.00188
-0.46334	-0.00188
-1.86593	-0.23145
0.30171	0.04914
1.47479	0.10015
-0.66735	0.32972
-0.43783	0.27871
-0.15732	0.07465
0.73524	0.55929
0.04670	0.17668
0.04670	-0.28246
0.07220	-0.20594
0.04670	0.61031
0.27621	0.17668
0.32721	-0.10391
0.48022	0.27871
0.30171	0.45726
0.68424	1.24800
0.12320	0.55929
-0.08081	-1.12422
-0.05531	-0.74160
0.17421	-0.05289
0.07220	0.55929
-0.13181	-0.07840
0.91375	0.94191
0.48022	0.55929
-0.13181	0.30422
-0.69285	-0.35899
-0.51434	0.50828
2.21434	1.17148
1.70430	0.55929
-1.25389	-0.25695
-0.69285	-0.12942
0.53123	-0.38449
0.48022	0.10015
-0.38683	0.10015
-0.94787	0.55929
0.83725	-0.74160
0.19971	0.40625
-0.43783	-0.86914
-0.89686	-0.97117
0.48022	0.20219
1.32178	1.17148
0.96476	1.35003
-0.10631	0.71234
-0.33583	0.38074
0.19971	0.43176
2.06133	0.27871
0.78624	0.12566
-0.53984	-0.07840
-1.10088	-0.25695
-0.66735	-0.30797
0.02119	0.12566
-0.15732	-0.20594
-0.56534	0.83988
-0.43783	-0.02739
1.29628	-0.30797
1.04126	-0.35899
0.02119	0.07465
0.12320	-0.05289
0.12320	-0.20594
-0.33583	1.70714
-0.08081	0.07465
0.09770	0.53379
0.27621	-0.76711
-0.08081	0.55929
0.91375	-0.05289
0.58223	0.35523
0.09770	0.25320
-0.18282	0.71234
-0.20832	0.25320
0.04670	-0.15492
0.65874	-0.30797
-0.33583	0.25320
1.29628	-0.10391
-0.00431	0.35523
-1.45790	-0.35899
-0.36133	0.10015
-0.25932	-0.35899
1.62780	0.53379
1.27078	0.40625
0.12320	0.38074
-0.10631	0.27871
0.78624	0.10015
0.14870	0.15117
-0.59084	0.35523
0.17421	0.27871
0.83725	0.61031
0.19971	0.27871
-0.20832	-0.10391
-0.48884	-0.05289
0.04670	-0.18043
1.01576	-0.46102
0.27621	0.17668
-0.28482	0.35523
-0.18282	0.35523
-0.28482	0.45726
0.17421	0.81437
0.86275	0.68683
-0.15732	0.66132
0.48022	-0.02739
1.01576	-0.33348
0.35272	-0.10391
-0.43783	-0.63957
-0.10631	0.50828
-0.23382	0.15117
0.32721	-0.15492
0.50573	-0.30797
0.32721	-0.43551
-0.31033	0.27871
0.53123	1.14597
0.37822	0.35523
0.09770	0.25320
-0.92237	0.10015
0.42922	0.35523
0.27621	0.15117
-0.97337	0.15117
-0.18282	-0.18043
0.22521	0.20219
1.01576	-0.35899
0.37822	-0.30797
-0.41233	0.25320
1.62780	0.32972
1.75531	0.58480
-0.66735	0.61031
-0.66735	-0.07840
-0.18282	0.02363
0.04670	0.20219
-0.13181	-0.05289
-0.53984	-0.02739
0.73524	-0.30797
1.44929	0.30422
-0.56534	0.53379
-0.05531	1.01843
0.30171	0.50828
0.25071	-0.46102
-0.28482	-1.14973
-0.15732	-0.46102
0.17421	0.25320
0.19971	0.76336
0.19971	0.68683
0.14870	0.40625
-1.20288	0.15117
-0.08081	0.22769
2.06133	-0.12942
3.28540	0.40625
0.42922	-0.07840
-1.84042	0.61031
-0.84586	0.15117
-0.33583	-0.41000
-0.10631	-1.12422
0.65874	0.04914
-0.23382	0.66132
-0.41233	0.38074
0.04670	-0.05289
0.04670	0.43176
1.16877	0.40625
1.01576	-0.00188
-0.18282	-0.05289
0.19971	0.20219
-0.31033	0.55929
0.09770	0.40625
-0.00431	0.76336
0.17421	0.20219
-0.15732	-0.84363
-0.13181	-0.46102
2.62236	0.35523
1.14327	0.17668
-0.87136	-0.66508
-1.35589	0.04914
-0.56534	0.27871
1.14327	0.38074
0.19971	0.38074
-0.76936	0.53379
-0.64185	1.42656
-0.25932	0.35523
-0.23382	-0.81812
0.37822	-0.76711
0.42922	0.50828
0.93925	0.12566
0.55673	0.63582
0.02119	-0.00188
-0.10631	-0.38449
0.07220	0.17668
0.30171	0.22769
0.14870	0.15117
0.30171	0.17668
-0.10631	0.04914
0.22521	-0.07840
1.16877	0.35523
0.45472	0.45726
-0.59084	0.20219
-1.55991	0.02363
1.16877	0.27871
0.81175	0.27871
-0.56534	0.15117
-0.10631	0.22769
1.06676	0.15117
0.17421	0.20219
0.30171	-0.38449
-0.28482	-0.25695
-1.04987	0.38074
-0.61635	0.22769
-0.08081	0.04914
0.73524	0.02363
0.12320	0.30422
-0.00431	0.50828
1.14327	0.35523
2.59686	0.45726
0.30171	0.38074
-0.53984	0.15117
-0.23382	0.04914
-0.31033	0.35523
-0.25932	-0.51203
-0.15732	-0.02739
-0.20832	0.04914
-0.02981	0.35523
0.17421	-0.61406
0.22521	0.30422
0.09770	0.17668
0.42922	0.55929
0.48022	-0.61406
0.19971	-0.94566
-0.33583	0.66132
0.04670	0.89089
0.81175	0.71234
0.19971	0.38074
-2.45246	0.89089
0.78624	0.40625
2.74987	-0.02739
0.88825	0.73785
-0.23382	-1.17523
-0.64185	-1.32828
-1.30489	-0.86914
-1.02437	0.76336
0.96476	1.14597
1.70430	0.81437
-0.18282	0.58480
-0.69285	0.43176
0.02119	0.15117
-0.13181	-0.15492
0.07220	-0.23145
0.35272	-0.18043
0.83725	-0.02739
0.17421	-0.23145
0.22521	-0.02739
0.25071	0.30422
-0.13181	-0.00188
-0.51434	0.73785
1.44929	0.25320
2.21434	0.45726
0.17421	-0.15492
-0.82036	-0.12942
-1.15188	0.32972
-0.79486	0.15117
-1.30489	0.32972
0.30171	0.73785
0.96476	0.10015
1.14327	-0.15492
0.19971	-0.25695
0.07220	0.20219
0.27621	0.15117
-0.41233	0.15117
-0.00431	0.07465
1.19427	0.10015
1.06676	1.04394
-0.48884	0.12566
-0.53984	-1.30277
0.32721	-0.20594
0.37822	0.48277
-0.00431	1.14597
0.73524	-0.05289
-0.10631	-0.05289
-0.23382	-0.18043
-0.00431	0.30422
-0.59084	0.43176
0.35272	0.43176
0.19971	0.50828
0.45472	0.25320
1.06676	0.15117
0.14870	-0.10391
1.47479	-0.00188
0.48022	-0.00188
-1.17738	-0.12942
-1.43240	-0.56305
0.17421	0.58480
0.93925	-0.20594
0.58223	0.15117
0.07220	0.83988
0.88825	0.40625
-0.64185	0.10015
-0.20832	0.99292
1.04126	-0.20594
-0.05531	-0.92016
-0.59084	-0.43551
0.07220	0.48277
0.09770	0.25320
0.17421	-0.05289
-0.05531	0.48277
0.35272	0.22769
0.60773	0.25320
-0.28482	0.45726
0.48022	0.66132
0.76074	0.30422
-0.15732	0.10015
-0.10631	-0.05289
-0.00431	-0.69059
0.07220	-1.40480
0.07220	0.35523
-0.74385	0.94191
0.70974	0.30422
1.04126	0.15117
0.48022	0.86539
-0.23382	0.96742
-0.18282	-0.61406
-0.00431	-0.46102
-0.20832	0.10015
-0.13181	0.38074
0.76074	-0.05289
-0.10631	0.61031
0.93925	0.20219
0.58223	0.07465
-0.41233	0.12566
-0.66735	-0.07840
-0.18282	-0.18043
-0.56534	0.30422
-0.41233	-0.05289
2.31634	0.38074
0.63323	0.20219
0.73524	-0.20594
-0.31033	-0.33348
0.02119	0.30422
0.55673	0.17668
-0.05531	0.07465
-0.79486	0.63582
-0.08081	0.86539
-0.99887	-0.94566
0.17421	0.04914
1.98482	-0.05289
-0.05531	0.12566
-0.02981	0.15117
-0.02981	0.48277
0.12320	0.32972
0.04670	-0.00188
0.02119	0.43176
0.07220	0.04914
0.27621	0.73785
0.32721	1.01843
0.50573	-0.99668
0.07220	-0.76711
-0.28482	-0.30797
-0.28482	0.15117
-0.18282	0.58480
-0.15732	0.32972
0.02119	0.20219
0.55673	0.66132
0.83725	0.15117
0.27621	0.17668
0.04670	0.15117
0.12320	0.27871
-0.05531	0.25320
0.30171	0.61031
0.32721	0.27871
-1.15188	-0.61406
2.13783	-1.35379
2.85188	0.25320
-0.48884	-0.38449
-1.04987	0.30422
-1.30489	0.55929
-0.51434	0.89089
-0.56534	0.89089
0.68424	0.76336
1.55129	0.35523
0.32721	-0.00188
-0.66735	0.30422
0.42922	0.20219
0.63323	-0.25695
0.96476	-0.58856
-0.41233	-0.35899
-1.20288	0.02363
-0.38683	0.32972
1.93382	0.27871
0.12320	0.15117
0.65874	0.10015
1.19427	0.07465
-0.20832	0.12566
-0.84586	0.35523
-0.92237	0.25320
0.93925	0.04914
0.22521	-0.07840
-0.18282	0.10015
0.19971	0.43176
0.07220	0.66132
0.02119	0.68683
0.09770	-1.25176
0.25071	-0.30797
0.35272	0.32972
-0.02981	0.25320
0.55673	-0.38449
0.55673	1.27351
0.42922	0.35523
0.32721	-0.12942
0.04670	0.45726
-0.23382	0.45726
-0.13181	0.96742
0.12320	0.17668
-0.56534	0.20219
-0.33583	-0.05289
1.88281	-0.00188
1.62780	-0.46102
-0.71835	-0.07840
-1.30489	-0.43551
-0.33583	-0.00188
-0.36133	0.22769
0.73524	0.38074
1.14327	-0.53754
0.30171	-0.15492
-0.71835	0.25320
-0.41233	0.86539
0.19971	0.63582
1.01576	0.48277
-0.20832	0.10015
-0.18282	0.32972
0.50573	0.22769
0.17421	0.15117
0.02119	0.15117
0.04670	0.04914
0.09770	0.15117
0.50573	0.15117
0.25071	-0.05289
0.17421	-0.12942
0.09770	0.02363
-0.71835	-0.02739
0.35272	0.15117
1.19427	0.91640
0.58223	-0.25695
-0.31033	-0.05289
-0.84586	0.40625
0.04670	0.25320
0.40372	-0.76711
0.65874	0.15117
0.02119	1.14597
0.32721	0.94191
-0.18282	0.43176
-0.79486	-1.32828
-0.61635	-0.33348
0.25071	0.53379
1.24527	0.38074
0.65874	-0.51203
-0.25932	0.22769
-0.31033	0.78886
0.30171	0.38074
0.09770	0.43176
-0.79486	0.12566
0.70974	0.48277
1.01576	-0.38449
-0.02981	-0.35899
0.37822	-0.46102
-0.08081	-0.38449
-0.25932	0.15117
-0.64185	0.04914
-0.18282	0.10015
0.48022	0.45726
0.37822	0.15117
-0.05531	-0.05289
-0.08081	-0.23145
0.50573	0.04914
0.88825	0.12566
0.50573	0.68683
-0.23382	0.68683
-0.10631	0.25320
-0.33583	0.02363
-0.79486	0.12566
1.75531	0.15117
1.75531	0.55929
-1.10088	0.73785
0.02119	-0.58856
0.73524	-0.71609
-0.25932	0.10015
-0.46334	0.50828
-0.08081	0.40625
-0.00431	0.15117
0.02119	0.27871
0.40372	1.06945
0.30171	-0.51203
0.63323	-0.38449
0.22521	0.45726
0.40372	0.55929
0.58223	0.02363
0.37822	-0.25695
-0.20832	0.22769
-0.46334	0.04914
0.17421	0.73785
0.04670	0.35523
-0.15732	0.15117
0.07220	0.35523
0.25071	0.10015
0.58223	-0.76711
0.48022	0.35523
0.17421	0.10015
-0.00431	-0.02739
-0.18282	0.04914
0.27621	0.43176
0.32721	0.17668
-0.23382	0.76336
0.91375	0.25320
-0.05531	0.45726
0.37822	-0.05289
0.02119	0.50828
0.12320	0.07465
-0.20832	0.17668
-0.08081	0.07465
-0.28482	-0.18043
1.06676	-0.00188
0.27621	0.20219
-0.53984	0.04914
-0.08081	-0.10391
0.30171	0.02363
0.70974	0.53379
-0.53984	0.22769
-0.02981	-0.18043
1.01576	-0.07840
-0.74385	0.48277
-0.15732	0.45726
-0.41233	0.35523
-0.38683	-0.02739
1.34728	0.12566
1.57679	0.12566
0.60773	0.04914
-0.79486	0.12566
-0.66735	-0.05289
-0.36133	-0.00188
-0.05531	0.43176
0.07220	0.48277
0.17421	0.04914
0.50573	0.12566
0.42922	0.53379
0.25071	-0.92016
0.17421	-0.33348
0.35272	0.53379
0.07220	0.30422
-0.00431	1.14597
0.02119	0.15117
-0.79486	-1.20074
0.32721	0.32972
1.98482	0.78886
0.53123	1.01843
-0.25932	-0.05289
-0.71835	-0.05289
-0.41233	0.25320
-0.25932	0.45726
1.83181	0.17668
-0.00431	-0.12942
-0.36133	0.27871
0.04670	-0.30797
0.09770	-0.33348
-0.25932	-0.51203
0.07220	-0.25695
1.29628	0.43176
0.17421	0.43176
-0.10631	0.66132
-0.18282	0.32972
-0.43783	0.15117
0.48022	0.20219
1.09226	0.07465
0.58223	-0.05289
-0.53984	0.10015
-0.08081	0.25320
-0.28482	0.27871
-0.23382	0.15117
0.63323	0.04914
0.93925	-0.07840
0.60773	-0.15492
0.14870	0.17668
0.40372	0.32972
0.22521	0.25320
-1.17738	0.25320
-0.31033	0.20219
0.58223	0.12566
-0.74385	0.07465
-0.64185	0.07465
1.11776	0.02363
1.01576	0.30422
-0.41233	-0.28246
-0.15732	-0.15492
0.25071	0.15117
0.19971	0.40625
0.42922	0.73785
0.40372	-0.35899
0.88825	-0.56305
0.63323	0.35523
-0.25932	0.61031
-0.66735	-0.02739
-0.56534	-0.71609
0.22521	0.07465
1.78081	0.83988
-0.59084	1.55410
-0.13181	0.86539
0.27621	0.45726
0.19971	-1.63437
-0.48884	-0.81812
-0.41233	-0.02739
0.09770	0.86539
0.22521	0.10015
0.37822	-0.71609
-0.56534	0.48277
0.60773	0.50828
1.85731	0.63582
0.37822	0.43176
1.16877	0.50828
-0.99887	0.10015
-0.38683	-0.56305
-0.84586	-1.04770
-0.97337	-0.15492
0.32721	0.66132
0.73524	0.76336
0.04670	0.50828
0.63323	0.12566
0.27621	0.22769
0.42922	0.10015
0.27621	0.12566
0.60773	0.02363
0.63323	-0.05289
-0.31033	0.02363
-0.64185	-0.07840
-0.25932	0.20219
0.12320	0.20219
0.17421	0.30422
0.45472	0.25320
0.53123	-0.05289
0.42922	0.15117
-0.25932	0.10015
0.91375	0.10015
0.55673	0.17668
0.04670	0.22769
-0.25932	0.83988
0.09770	0.32972
-0.13181	0.35523
-0.31033	-0.66508
0.04670	-0.51203
0.02119	0.12566
-0.38683	-0.18043
0.27621	0.27871
0.91375	0.89089
-0.08081	0.58480
0.48022	0.35523
0.37822	-0.38449
-0.23382	-0.15492
0.07220	0.30422
-0.23382	0.27871
0.42922	0.53379
0.63323	0.04914
-0.10631	-0.05289
-0.28482	0.35523
-0.05531	0.25320
0.76074	-0.56305
-0.71835	-1.02219
0.50573	-0.41000
0.32721	0.73785
-0.48884	0.78886
-0.31033	0.27871
1.11776	0.25320
1.16877	0.20219
-0.23382	0.27871
-0.84586	0.30422
0.17421	0.07465
0.45472	-0.05289
-0.20832	0.12566
0.32721	0.25320
0.42922	0.32972
0.22521	0.12566
-0.79486	0.10015
-0.48884	0.15117
0.25071	0.07465
0.53123	-0.02739
0.63323	-0.28246
-0.08081	-0.28246
-0.05531	0.20219
0.22521	0.50828
0.14870	0.43176
-0.25932	0.04914
0.22521	0.45726
1.19427	-0.00188
-0.02981	-0.10391
-0.28482	0.15117
0.04670	0.50828
0.12320	0.10015
0.17421	0.15117
0.27621	0.02363
-0.02981	0.22769
0.14870	-0.25695
0.65874	-0.61406
0.81175	0.12566
-0.59084	0.68683
0.17421	0.58480
0.12320	0.07465
-0.41233	-0.07840
-0.02981	0.17668
0.73524	0.40625
0.55673	0.81437
-0.59084	0.78886
-0.15732	-0.15492
0.93925	-0.53754
1.24527	-0.30797
-0.94787	-0.30797
0.32721	0.07465
1.14327	0.25320
-1.10088	0.17668
-0.31033	0.30422
1.75531	0.40625
-0.10631	0.20219
0.02119	0.07465
0.78624	-0.07840
-0.13181	0.20219
-0.38683	-0.10391
0.14870	0.02363
-0.00431	0.35523
-0.18282	0.30422
0.17421	-0.46102
0.65874	0.40625
0.42922	0.99292
0.09770	0.17668
0.12320	-0.20594
0.09770	-0.23145
0.25071	0.22769
0.48022	0.68683
0.53123	0.55929
0.14870	0.48277
-0.56534	0.12566
-0.38683	-0.18043
0.86275	0.25320
1.39828	-1.07320
0.04670	0.04914
-0.82036	0.63582
-0.71835	0.58480
-0.51434	-0.02739
-0.23382	-1.12422
-0.41233	0.20219
0.88825	0.22769
2.01032	0.58480
0.88825	0.66132
-1.07538	0.45726
0.17421	-0.25695
0.17421	0.30422
-0.18282	-0.56305
-0.59084	-0.46102
0.02119	-0.05289
-0.13181	0.63582
0.81175	0.66132
1.34728	0.55929
1.01576	0.30422
0.32721	0.22769
-0.87136	0.07465
-0.69285	-0.28246
-0.02981	-0.00188
0.60773	0.27871
0.09770	0.04914
-0.13181	-0.02739
-0.10631	0.30422
1.32178	-0.10391
0.60773	0.10015
-0.13181	0.02363
-0.02981	0.35523
-0.20832	-0.18043
0.09770	0.30422
0.07220	0.20219
0.02119	0.25320
0.14870	0.20219
0.25071	0.45726
0.14870	0.86539
-0.18282	-0.35899
0.40372	-0.61406
0.91375	-0.30797
0.91375	0.15117
-0.48884	0.43176
0.63323	0.61031
-0.48884	0.53379
-1.55991	-0.46102
-0.28482	-0.76711
2.39285	0.30422
0.93925	0.73785
-0.94787	0.45726
0.04670	0.20219
0.22521	0.45726
-0.18282	0.86539
-0.79486	-0.66508
0.14870	-0.48652
0.32721	0.48277
1.70430	0.04914
0.48022	0.48277
0.07220	0.04914
-0.13181	-0.05289
0.07220	0.04914
0.04670	0.27871
-0.97337	0.10015
0.45472	0.58480
0.58223	0.50828
-0.31033	-0.28246
-0.08081	-0.56305
-0.41233	-0.15492
0.04670	0.40625
0.12320	0.10015
0.70974	-0.20594
1.04126	0.10015
-0.02981	0.35523
-0.05531	0.10015
-0.08081	0.30422
-0.15732	0.53379
0.37822	0.91640
0.35272	-0.10391
0.35272	-0.25695
0.17421	0.25320
0.02119	-0.86914
-0.00431	-0.33348
0.09770	0.10015
0.50573	0.30422
0.37822	0.45726
0.40372	0.76336
-0.89686	0.55929
0.35272	0.53379
1.60230	0.71234
0.14870	-0.07840
-0.56534	-0.18043
-0.46334	-0.41000
0.55673	-0.00188
0.27621	0.15117
-0.48884	0.40625
-0.02981	0.25320
0.63323	0.35523
-0.08081	0.45726
0.73524	-0.38449
0.63323	-0.35899
-0.08081	0.20219
0.12320	0.15117
0.25071	-0.02739
-0.13181	0.32972
-0.33583	0.15117
-0.13181	0.40625
0.42922	0.40625
0.53123	0.43176
-0.00431	0.07465
0.22521	-0.05289
1.06676	-0.05289
0.09770	1.19699
-0.48884	-0.74160
-0.28482	-0.99668
-0.08081	-0.84363
1.24527	1.06945
0.68424	0.25320
-0.23382	1.27351
-0.48884	0.48277
0.07220	0.32972
-0.10631	0.17668
0.55673	-0.48652
0.35272	-0.02739
0.07220	0.53379
-0.23382	0.20219
-0.20832	0.30422
0.91375	0.48277
0.83725	-0.05289
-0.28482	-0.33348
-0.38683	-0.30797
-0.20832	0.17668
0.35272	0.25320
0.88825	0.91640
1.11776	0.22769
-1.55991	-0.69059
0.45472	-0.51203
-0.38683	-0.12942
0.53123	0.25320
-0.28482	0.53379
0.07220	0.76336
-0.31033	0.55929
0.70974	0.35523
0.04670	0.55929
-0.08081	0.04914
1.65330	-0.00188
0.99026	-0.23145
-0.69285	0.35523
-0.53984	-0.30797
-0.02981	-0.43551
0.09770	-0.35899
0.17421	0.35523
-0.05531	0.04914
0.09770	0.27871
0.25071	0.76336
0.12320	0.35523
0.32721	-0.00188
0.19971	0.40625
0.22521	-0.05289
-0.23382	-0.12942
-0.02981	-0.23145
0.65874	-0.07840
-0.48884	0.83988
0.86275	0.89089
0.93925	-0.02739
-0.46334	0.10015
-0.48884	0.10015
-0.48884	-1.02219
0.22521	-0.38449
0.53123	0.10015
-0.61635	0.96742
0.50573	0.96742
0.96476	0.58480
1.04126	0.38074
-0.79486	-0.02739
-0.13181	-0.46102
-0.31033	-0.10391
-0.71835	0.07465
0.70974	-0.10391
0.73524	-0.00188
-0.41233	0.45726
0.78624	0.07465
1.44929	-0.28246
0.63323	0.07465
-1.15188	0.43176
-0.74385	0.35523
-0.13181	0.43176
-0.02981	0.17668
0.55673	0.32972
0.53123	-0.61406
0.09770	-0.46102
-0.18282	-0.10391
0.12320	0.22769
0.04670	0.45726
-0.87136	0.53379
0.27621	0.58480
2.16333	0.15117
0.48022	0.07465
0.22521	-0.28246
-0.33583	-0.61406
-0.18282	-0.18043
-0.15732	0.48277
-0.08081	0.61031
-0.23382	0.38074
0.22521	0.27871
0.19971	0.27871
0.17421	1.12046
0.35272	-0.86914
0.58223	-0.63957
0.63323	0.32972
-0.02981	0.17668
-0.41233	0.48277
-1.20288	0.02363
0.88825	-0.46102
1.60230	-0.10391
0.81175	0.68683
0.65874	0.17668
-0.38683	0.25320
-1.07538	0.50828
-0.64185	-0.35899
0.32721	-0.15492
-0.28482	0.50828
-0.53984	0.25320
-0.15732	-0.05289
1.09226	0.15117
0.91375	0.66132
1.72980	0.45726
0.12320	-0.53754
-0.13181	-0.00188
-0.56534	0.20219
-0.53984	0.53379
-0.41233	-0.46102
-0.13181	-0.30797
0.12320	0.27871
0.22521	0.55929
0.37822	0.25320
0.17421	0.15117
0.45472	0.10015
0.42922	0.20219
0.25071	-0.10391
0.12320	-0.02739
-0.41233	0.12566
-0.53984	0.35523
1.11776	0.04914
1.65330	0.20219
-0.05531	0.04914
-0.61635	0.15117
-0.79486	-0.00188
-0.84586	-0.05289
0.25071	-0.76711
0.17421	0.61031
0.91375	0.48277
-0.08081	0.04914
0.19971	-0.66508
0.88825	0.10015
-0.31033	0.48277
-0.23382	0.66132
0.32721	0.15117
0.02119	0.07465
0.32721	0.32972
0.17421	0.48277
0.14870	0.35523
-0.13181	0.15117
0.42922	0.10015
0.42922	-0.30797
0.04670	-0.25695
0.30171	0.48277
0.63323	0.76336
0.27621	-0.05289
-0.02981	-0.05289
-0.02981	-0.15492
-0.43783	0.15117
0.02119	0.25320
-0.36133	0.22769
-0.82036	0.22769
0.68424	0.25320
1.09226	0.35523
0.53123	0.15117
-0.00431	-0.10391
0.35272	0.17668
0.27621	0.27871
-0.00431	0.02363
-0.33583	0.02363
-0.18282	0.38074
-0.20832	0.38074
0.09770	0.02363
0.35272	0.12566
0.35272	-0.33348
0.83725	-0.10391
0.63323	0.30422
0.53123	-0.00188
0.27621	0.71234
-0.13181	0.99292
-0.38683	0.15117
0.07220	-1.09871
0.48022	-0.33348
-0.08081	0.89089
-0.59084	0.76336
1.50029	1.06945
0.88825	-0.10391
-0.02981	0.20219
-0.43783	-0.35899
-0.31033	-0.86914
-0.46334	0.04914
1.04126	0.45726
0.07220	0.61031
-0.18282	0.48277
0.53123	0.55929
0.30171	0.32972
0.09770	-0.30797
0.32721	0.04914
0.32721	0.38074
0.07220	0.10015
-0.18282	-0.20594
1.01576	-0.20594
0.35272	0.25320
0.04670	0.30422
-0.46334	0.25320
0.53123	-0.07840
0.27621	0.30422
-0.10631	0.38074
0.09770	0.53379
-0.69285	0.32972
-0.33583	0.15117
0.32721	-0.00188
0.48022	-0.25695
0.76074	-0.00188
-0.15732	0.25320
0.07220	0.15117
-0.18282	0.12566
-0.31033	0.10015
0.88825	0.07465
0.76074	-0.02739
0.30171	-0.02739
-0.41233	0.02363
-0.02981	0.10015
-0.36133	0.22769
0.09770	0.71234
0.70974	0.48277
0.25071	-0.18043
0.07220	-1.02219
-0.38683	-0.25695
-0.08081	0.12566
0.78624	-0.12942
0.48022	0.94191
0.17421	0.76336
0.19971	0.32972
0.22521	0.48277
-0.00431	-0.05289
0.07220	0.58480
0.07220	0.10015
0.17421	0.04914
0.17421	0.30422
0.17421	0.55929
0.02119	0.04914
-0.71835	-0.15492
1.04126	0.30422
1.47479	-0.33348
-0.00431	-0.00188
-0.46334	-0.76711
-0.94787	-0.30797
-0.71835	0.61031
0.81175	0.89089
1.50029	0.61031
-0.92237	0.22769
-0.36133	0.04914
0.63323	0.07465
0.83725	0.30422
0.73524	0.27871
-1.02437	0.20219
0.40372	0.17668
0.37822	-0.02739
-0.99887	-0.02739
0.45472	-0.07840
0.60773	0.10015
-0.38683	0.20219
-0.05531	0.10015
1.57679	0.20219
0.17421	0.27871
-0.05531	0.15117
-0.05531	0.02363
-0.00431	0.25320
-0.05531	0.38074
0.45472	0.15117
-0.13181	0.66132
0.40372	0.15117
0.19971	-0.84363
-0.10631	-0.02739
0.02119	0.27871
0.02119	0.53379
-0.08081	-0.79262
0.37822	0.89089
0.27621	0.86539
-0.05531	0.48277
-0.66735	-0.46102
0.78624	-0.25695
0.83725	-0.28246
0.07220	0.68683
-0.00431	0.91640
-0.28482	0.55929
-0.08081	0.12566
-0.20832	0.38074
-0.18282	-0.25695
1.16877	-0.23145
2.01032	0.25320
-0.38683	-0.43551
-0.89686	-0.35899
-0.25932	0.10015
0.19971	-0.02739
-0.61635	-0.33348
0.68424	0.48277
1.09226	0.55929
1.06676	0.45726
-0.00431	0.40625
-0.92237	0.20219
-0.59084	-0.05289
0.35272	0.10015
0.27621	0.17668
0.86275	0.02363
0.27621	0.25320
-0.79486	0.25320
0.32721	-0.12942
0.32721	0.07465
0.12320	0.58480
0.12320	-0.00188
-0.00431	-0.07840
-0.15732	0.20219
0.22521	0.15117
0.09770	0.58480
0.27621	-0.25695
0.07220	-0.23145
0.04670	-0.28246
0.09770	0.73785
0.19971	0.40625
0.12320	-0.33348
0.27621	0.96742
0.25071	0.22769
0.14870	-0.61406
-0.05531	-0.28246
0.32721	0.55929
0.14870	0.25320
-0.13181	0.17668
-0.13181	0.32972
0.09770	0.27871
0.30171	0.38074
-0.20832	0.15117
0.60773	0.38074
0.70974	0.53379
0.42922	-0.33348
-0.59084	-0.79262
-0.59084	0.02363
0.58223	0.66132
0.42922	0.15117
-0.20832	-0.10391
1.34728	-0.41000
1.37278	-0.15492
0.04670	0.71234
-1.15188	0.91640
-0.28482	0.40625
0.65874	0.27871
-0.69285	0.22769
-0.48884	0.35523
-0.00431	-0.10391
1.09226	0.04914
1.21977	0.12566
-0.15732	-0.05289
-0.31033	-0.20594
0.12320	0.17668
0.12320	0.15117
0.48022	0.10015
0.22521	-0.00188
0.17421	0.07465
-0.08081	0.32972
0.07220	0.61031
0.93925	0.20219
0.86275	0.17668
-0.28482	-0.05289
-0.13181	0.48277
-0.00431	-0.48652
-0.08081	0.40625
-0.28482	0.17668
0.09770	0.04914
0.45472	0.15117
-0.00431	0.10015
-1.76392	0.38074
1.37278	-0.33348
1.57679	-0.10391
0.07220	-0.43551
-0.46334	-0.05289
-0.38683	-0.15492
0.27621	0.45726
0.17421	1.57960
-0.02981	0.48277
0.12320	-0.41000
0.12320	0.12566
0.12320	0.38074
0.53123	0.12566
0.81175	-0.15492
0.07220	0.66132
-0.41233	0.04914
-0.05531	-0.18043
0.78624	0.02363
0.22521	0.25320
0.19971	0.15117
0.22521	-0.00188
-0.28482	0.02363
-0.66735	0.22769
-0.08081	0.12566
1.16877	0.25320
1.50029	0.04914
-0.69285	-0.05289
-0.05531	0.25320
0.25071	0.32972
0.09770	0.17668
-0.10631	0.07465
-0.00431	-0.12942
-0.13181	-0.05289
0.12320	0.17668
0.22521	0.53379
0.19971	0.12566
0.30171	0.02363
0.25071	-0.00188
0.42922	-0.05289
0.42922	0.66132
0.12320	0.32972
0.09770	-0.86914
0.19971	-0.63957
-0.02981	1.19699
0.42922	0.17668
0.32721	-0.10391
-0.08081	-0.97117
-0.13181	0.15117
0.02119	1.04394
0.02119	0.76336
0.25071	0.73785
-0.18282	0.43176
0.12320	0.15117
0.19971	0.22769
0.78624	0.30422
-0.05531	-0.18043
-0.69285	-0.53754
0.04670	-0.56305
1.62780	0.10015
0.50573	0.38074
-0.08081	0.22769
-0.23382	-0.15492
0.12320	0.91640
-0.41233	-0.02739
0.07220	0.04914
0.50573	0.58480
0.02119	0.38074
-0.36133	0.63582
0.22521	0.04914
0.22521	-0.51203
-0.99887	-0.23145
1.11776	0.15117
1.93382	0.20219
0.37822	0.61031
-0.33583	0.07465
-0.59084	0.12566
-0.25932	0.35523
0.42922	0.02363
-0.25932	-0.00188
-0.00431	0.10015
0.07220	0.12566
0.30171	-0.12942
0.30171	-0.10391
0.27621	0.30422
0.40372	0.71234
0.32721	0.40625
-0.00431	-0.05289
-0.36133	-0.05289
0.81175	-0.07840
0.37822	0.10015
-0.10631	-0.15492
-0.08081	0.45726
-0.00431	0.10015
-0.00431	-0.61406
-0.00431	-0.05289
0.14870	0.27871
0.32721	0.76336
0.53123	0.20219
-0.02981	-0.33348
-0.31033	0.68683
-0.33583	0.89089
1.14327	0.04914
-0.25932	0.02363
0.60773	-0.23145
-0.99887	0.38074
1.70430	0.02363
0.78624	-0.07840
-2.01894	0.07465
-0.23382	-0.02739
1.62780	-0.05289
0.02119	0.10015
-1.89143	0.10015
-0.36133	0.10015
0.81175	0.12566
-0.02981	0.22769
-0.84586	0.15117
2.72437	0.25320
1.55129	0.27871
-0.28482	0.15117
-0.51434	0.22769
-0.56534	0.20219
0.53123	0.17668
0.58223	0.25320
0.12320	0.10015
-0.18282	0.07465
-0.28482	-0.10391
-0.05531	-0.25695
0.22521	-0.00188
0.17421	0.94191
-0.00431	0.04914
0.07220	-0.05289
-0.00431	-1.32828
0.53123	-0.05289
0.70974	0.53379
0.04670	0.86539
0.09770	0.81437
-0.08081	0.43176
0.14870	-0.48652
-0.00431	0.38074
-0.36133	-0.07840
-1.07538	0.07465
0.02119	0.15117
0.91375	0.07465
0.63323	-0.38449
0.50573	-0.18043
2.01032	0.30422
-0.15732	-0.07840
-1.61091	-0.23145
0.37822	0.30422
1.29628	0.94191
-0.15732	0.43176
-0.74385	-0.07840
-0.18282	0.38074
0.12320	0.17668
0.27621	0.66132
0.30171	0.45726
1.09226	0.30422
0.17421	0.22769
-0.20832	0.10015
-0.99887	-0.00188
0.19971	-0.05289
1.98482	-0.25695
0.86275	0.07465
-0.38683	0.10015
-0.02981	0.17668
-0.46334	-0.33348
0.14870	0.12566
0.04670	0.25320
-0.00431	0.53379
0.14870	0.45726
0.32721	0.38074
0.48022	0.30422
0.30171	-0.07840
0.14870	0.17668
-0.00431	-0.28246
-0.02981	-0.12942
-0.00431	-0.28246
0.17421	0.35523
0.14870	0.63582
-0.13181	0.53379
-0.08081	0.43176
0.22521	0.43176
0.35272	-0.61406
-0.02981	-0.20594
0.83725	-0.25695
0.65874	0.38074
-0.43783	-0.15492
-0.00431	-0.02739
-0.05531	0.40625
-0.10631	0.61031
-0.28482	0.55929
2.13783	-0.05289
-0.10631	0.12566
-0.46334	0.35523
-0.69285	0.22769
-0.20832	-0.15492
0.60773	-0.43551
0.45472	0.25320
-0.13181	0.48277
0.12320	0.12566
0.37822	-0.05289
0.22521	-0.20594
0.50573	0.15117
0.42922	-0.05289
0.14870	0.27871
-0.28482	0.58480
-0.08081	0.25320
0.37822	0.22769
-0.02981	-0.18043
0.12320	0.20219
-0.10631	0.25320
-0.48884	0.30422
-0.61635	-0.00188
1.42379	0.20219
1.11776	0.04914
-0.48884	0.04914
-0.89686	-0.10391
0.30171	-0.15492
0.76074	-0.41000
0.45472	0.15117
-0.13181	0.02363
-0.28482	0.71234
0.63323	1.14597
1.04126	0.38074
0.48022	-0.43551
0.07220	-0.28246
-0.56534	0.27871
0.14870	0.32972
0.04670	0.15117
-0.89686	0.22769
0.30171	0.15117
1.16877	0.30422
0.58223	0.58480
0.22521	0.50828
0.19971	0.04914
0.37822	0.32972
-0.13181	-0.41000
-0.00431	-0.43551
-0.28482	-0.56305
-0.31033	0.17668
0.37822	0.40625
-0.10631	0.17668
-0.53984	0.50828
0.96476	-0.02739
-0.13181	0.45726
-0.84586	0.38074
2.44385	0.22769
2.72437	-0.23145
-0.64185	-0.43551
-1.27939	0.66132
-0.79486	0.78886
-0.33583	0.32972
0.09770	-0.07840
0.40372	-0.18043
0.30171	-0.15492
0.22521	0.30422
0.40372	-0.12942
0.48022	0.45726
0.22521	0.15117
0.19971	-0.10391
0.12320	0.12566
0.02119	0.86539
0.02119	0.35523
0.45472	-0.94566
0.07220	-1.32828
-0.13181	0.48277
0.25071	1.12046
-0.20832	0.50828
0.14870	1.22250
0.53123	-0.10391
-0.38683	0.22769
0.04670	0.40625
0.37822	0.53379
-0.36133	-0.48652
-0.41233	-0.35899
1.42379	0.07465
0.22521	0.35523
0.45472	0.35523
-0.25932	-0.00188
0.78624	-0.02739
1.21977	0.35523
-0.05531	0.30422
-0.71835	-0.05289
-1.53441	0.22769
0.02119	0.07465
1.14327	-0.05289
-0.08081	-0.07840
0.48022	0.32972
0.78624	0.30422
0.02119	0.22769
0.22521	0.04914
0.42922	0.35523
-0.02981	0.58480
0.14870	0.40625
0.60773	-0.33348
-0.46334	-0.76711
0.40372	-0.07840
0.30171	0.04914
-0.20832	0.55929
-0.13181	0.81437
-0.08081	0.22769
-0.28482	1.09496
0.88825	-1.30277
0.83725	-0.30797
-0.15732	-0.25695
-0.13181	0.43176
0.09770	0.30422
0.04670	0.86539
0.14870	0.20219
-0.05531	0.35523
0.25071	-0.35899
0.60773	0.04914
0.17421	0.25320
0.07220	0.73785
0.35272	0.53379
0.48022	-0.66508
-0.38683	0.40625
-0.61635	0.17668
0.04670	-0.28246
-1.12638	-0.15492
1.95932	0.38074
2.74987	0.04914
0.27621	-0.18043
-1.12638	0.07465
-0.89686	1.12046
0.30171	0.55929
-0.13181	0.30422
-0.28482	0.10015
-0.02981	-0.07840
0.50573	0.15117
-0.18282	0.27871
-0.00431	0.15117
0.93925	0.25320
0.30171	0.40625
0.42922	0.38074
0.22521	-0.05289
0.04670	-0.30797
-0.05531	-0.02739
0.09770	0.25320
0.40372	0.20219
0.04670	-0.00188
-0.20832	0.50828
0.45472	0.07465
0.60773	0.40625
0.09770	-0.20594
0.07220	-0.20594
-0.92237	0.10015
1.21977	0.53379
-0.33583	-0.12942
0.37822	0.45726
0.37822	0.15117
-0.18282	0.15117
-0.02981	-0.46102
-0.10631	0.25320
-0.59084	0.38074
0.48022	-0.61406
0.53123	0.68683
0.12320	0.32972
-0.89686	0.17668
0.63323	0.17668
2.21434	0.20219
0.78624	-0.05289
-1.15188	-0.02739
-1.02437	-0.05289
0.17421	0.68683
1.21977	-0.99668
-0.13181	0.10015
-0.71835	-0.18043
-0.08081	0.35523
-0.08081	-0.15492
0.63323	0.04914
1.37278	0.45726
-0.33583	0.61031
-0.36133	0.66132
-0.28482	0.32972
0.45472	-0.15492
0.37822	-0.25695
-0.33583	-0.07840
0.12320	-0.23145
-0.02981	0.91640
0.88825	0.07465
0.35272	0.15117
-0.18282	-0.15492
0.02119	-0.12942
-0.08081	0.66132
0.32721	0.50828
0.40372	-0.00188
0.22521	0.50828
-0.18282	-0.35899
0.30171	-0.18043
0.37822	0.20219
-0.05531	0.40625
0.22521	0.55929
0.45472	0.32972
-0.41233	-0.15492
0.63323	-0.56305
0.63323	0.20219
0.53123	0.10015
-0.05531	0.02363
-0.02981	0.38074
-0.99887	0.30422
-0.41233	0.20219
0.42922	0.48277
0.53123	0.22769
0.27621	0.45726
0.73524	-0.10391
0.22521	-0.12942
-0.02981	0.53379
0.09770	-0.30797
-0.36133	-0.48652
0.63323	-0.05289
0.32721	0.38074
-0.18282	-0.07840
0.32721	0.20219
-0.08081	0.83988
-0.46334	0.53379
0.40372	0.10015
0.48022	-0.20594
0.53123	-0.66508
0.17421	0.07465
-0.23382	0.35523
-0.02981	0.07465
-0.13181	0.15117
0.25071	0.12566
-0.43783	0.58480
0.65874	0.43176
0.93925	-0.18043
-0.25932	-0.18043
-0.33583	-0.05289
-0.05531	-0.51203
0.42922	-0.10391
0.14870	0.02363
-0.97337	0.20219
-0.08081	0.91640
0.73524	0.71234
0.99026	0.30422
0.40372	-0.12942
-0.38683	0.22769
0.37822	0.30422
-0.33583	0.04914
-0.43783	0.35523
1.47479	-0.05289
1.78081	0.10015
0.83725	0.15117
-0.89686	0.32972
-0.82036	-0.33348
-0.64185	0.53379
-0.46334	0.63582
0.07220	-0.10391
-0.53984	-0.58856
-0.08081	-0.30797
2.13783	0.43176
1.19427	0.81437
-0.10631	0.40625
-0.13181	0.15117
0.07220	0.25320
0.22521	0.17668
0.07220	0.68683
-0.20832	-0.23145
0.70974	0.20219
-0.28482	-0.02739
-0.48884	-0.56305
0.32721	-0.15492
0.73524	0.71234
0.32721	0.10015
0.27621	-0.58856
-0.23382	0.07465
-0.13181	0.68683
-0.36133	0.68683
-0.00431	-0.00188
0.02119	0.25320
-0.43783	0.35523
0.42922	0.50828
0.99026	0.12566
-0.51434	-0.28246
0.91375	-0.30797
1.34728	0.17668
0.48022	0.91640
-0.53984	-0.05289
-1.20288	-0.46102
-0.71835	0.07465
0.86275	-0.02739
0.40372	-0.05289
0.86275	0.25320
0.09770	0.50828
-0.36133	0.10015
-0.28482	0.27871
0.19971	0.04914
0.17421	0.02363
0.27621	-0.28246
0.22521	-0.15492
0.09770	0.02363
-0.10631	0.78886
0.09770	0.86539
0.27621	0.58480
0.35272	0.43176
1.01576	0.22769
-0.28482	-0.15492
0.42922	-0.20594
0.45472	-0.02739
-0.10631	-0.20594
-0.05531	-0.02739
-0.08081	0.53379
0.25071	0.30422
-0.13181	-0.25695
0.81175	-0.15492
0.02119	-0.00188
-0.66735	0.71234
-0.20832	0.58480
-0.23382	-0.15492
-0.28482	-0.51203
1.65330	0.53379
1.32178	0.32972
-0.13181	0.55929
0.17421	0.17668
0.73524	0.66132
0.37822	-0.18043
-0.38683	-0.20594
-0.23382	-0.02739
-0.23382	0.10015
-0.38683	0.20219
0.19971	0.10015
0.19971	0.17668
0.30171	0.04914
-0.00431	0.10015
0.30171	0.35523
0.37822	-0.20594
0.40372	-0.46102
0.09770	0.68683
0.04670	0.40625
-0.00431	0.02363
0.19971	0.40625
0.25071	1.04394
-0.05531	-0.41000
0.53123	-0.20594
0.02119	-0.15492
-0.08081	0.43176
-0.66735	0.35523
0.81175	0.04914
0.86275	-0.23145
-0.38683	0.07465
-0.28482	0.73785
-0.00431	0.25320
-0.10631	0.20219
0.14870	0.07465
1.47479	0.04914
-0.10631	0.20219
0.12320	0.12566
-0.71835	-0.00188
0.70974	0.07465
0.91375	-0.07840
-0.05531	0.12566
-0.25932	-0.02739
-0.43783	-0.02739
0.12320	0.04914
0.14870	0.17668
0.48022	0.15117
0.02119	0.53379
-0.13181	-0.30797
-0.33583	0.43176
0.17421	-0.02739
0.30171	0.40625
0.40372	0.12566
0.37822	0.48277
-0.64185	0.12566
0.37822	0.61031
1.83181	-0.69059
0.22521	-0.02739
-0.43783	-0.05289
-0.36133	0.53379
-0.36133	0.45726
-0.15732	0.07465
-0.05531	-0.69059
0.19971	0.25320
0.30171	0.48277
0.12320	0.61031
0.12320	0.58480
0.12320	0.43176
-0.20832	0.15117
0.68424	0.04914
0.07220	-0.61406
0.19971	0.12566
0.02119	0.15117
0.14870	0.53379
0.48022	-0.33348
0.32721	0.43176
1.27078	0.17668
0.53123	0.27871
-0.43783	0.38074
-0.10631	0.35523
-0.69285	0.27871
-0.51434	0.15117
0.17421	0.30422
0.73524	0.30422
0.19971	0.30422
-0.66735	0.10015
0.14870	-0.02739
1.55129	-0.07840
0.02119	0.07465
0.04670	0.10015
0.32721	0.12566
-0.08081	0.53379
0.42922	0.43176
0.60773	-0.07840
0.19971	-0.43551
0.32721	0.40625
0.19971	0.71234
0.32721	0.55929
-0.08081	0.12566
-0.28482	0.35523
-0.13181	-0.02739
-0.18282	0.40625
0.19971	0.30422
0.40372	0.07465
0.09770	-0.99668
-0.18282	-0.92016
0.09770	-0.66508
0.09770	0.38074
0.09770	0.48277
-0.46334	0.78886
0.50573	1.01843
0.86275	1.04394
0.12320	0.27871
-0.08081	-0.51203
-0.51434	-0.46102
0.81175	0.04914
0.60773	0.45726
-0.18282	0.12566
-0.43783	-0.41000
-0.08081	0.17668
0.25071	0.15117
0.17421	-0.02739
1.11776	-0.05289
0.48022	-0.05289
-0.10631	0.04914
0.19971	0.58480
-0.02981	0.25320
-0.87136	0.22769
-0.38683	0.10015
0.99026	0.22769
0.19971	0.07465
0.09770	0.20219
0.25071	0.27871
0.22521	0.63582
-0.59084	-0.05289
0.25071	-0.46102
1.27078	-0.41000
-0.18282	0.15117
-0.08081	0.27871
-0.43783	0.10015
-0.05531	0.32972
0.14870	0.35523
0.17421	0.25320
0.25071	0.04914
-0.05531	0.30422
0.63323	-0.05289
0.37822	-0.25695
-0.02981	0.02363
-0.08081	0.32972
-0.00431	0.04914
0.07220	0.07465
0.27621	0.20219
0.32721	0.45726
0.32721	-0.12942
0.50573	0.53379
0.25071	0.15117
-0.08081	0.63582
-0.13181	0.43176
0.19971	0.17668
0.14870	-0.12942
0.48022	0.02363
0.32721	0.32972
0.12320	-0.00188
0.60773	0.48277
0.04670	0.12566
-0.18282	-0.25695
-0.28482	0.25320
0.42922	0.15117
0.83725	0.25320
0.58223	0.25320
-0.71835	0.04914
-0.59084	-0.56305
0.73524	0.27871
0.53123	0.30422
-0.43783	0.45726
-0.36133	0.40625
1.11776	0.02363
1.52579	0.10015
-0.18282	0.30422
-0.99887	0.35523
-0.38683	-0.35899
-0.20832	-0.56305
0.60773	0.32972
0.19971	0.35523
-0.02981	-0.56305
-0.00431	0.15117
0.50573	0.25320
-0.00431	0.94191
-0.10631	-0.10391
0.04670	0.27871
0.96476	-0.56305
0.40372	0.04914
-0.10631	0.48277
0.14870	0.58480
0.22521	0.40625
0.04670	-0.35899
-0.00431	0.25320
0.09770	0.25320
0.12320	0.27871
-0.18282	-0.00188
0.09770	-0.48652
0.22521	0.15117
0.22521	0.38074
-0.59084	0.12566
0.50573	0.32972
0.55673	0.25320
-0.48884	-0.10391
0.53123	-0.15492
-0.28482	-0.15492
-0.18282	-0.33348
1.34728	0.35523
0.53123	0.25320
-0.23382	0.10015
0.76074	0.35523
0.17421	0.48277
-0.48884	0.76336
-0.99887	-0.15492
0.09770	-0.86914
0.40372	-0.00188
0.25071	0.48277
0.58223	0.27871
0.17421	-0.15492
0.02119	0.02363
0.32721	0.35523
-0.02981	0.25320
0.25071	0.45726
0.32721	0.04914
0.48022	-0.12942
-0.33583	0.20219
-0.05531	0.12566
-0.23382	0.35523
0.30171	0.76336
1.34728	-0.43551
0.30171	-0.97117
-0.41233	-0.56305
-0.38683	0.04914
-0.00431	0.40625
0.02119	0.78886
0.07220	0.86539
0.19971	-0.15492
0.17421	0.25320
-0.00431	0.45726
0.17421	0.50828
0.55673	-0.02739
0.91375	0.61031
0.30171	0.17668
-0.15732	-0.69059
-0.33583	-1.30277
-0.25932	-0.02739
-0.15732	0.71234
0.12320	0.35523
0.25071	0.76336
-0.25932	0.17668
1.11776	0.20219
1.16877	1.09496
-0.28482	-0.51203
-0.05531	-1.20074
0.42922	0.02363
-0.13181	0.20219
-0.33583	0.45726
-0.33583	0.45726
-0.13181	0.30422
0.40372	0.45726
0.27621	0.35523
0.12320	0.02363
-0.18282	0.12566
1.29628	-0.05289
0.65874	0.15117
-0.38683	-0.28246
-0.13181	-0.05289
-0.15732	0.43176
-0.31033	0.45726
0.30171	0.17668
0.35272	0.58480
0.32721	-0.23145
0.30171	-0.51203
0.09770	-0.48652
0.42922	0.38074
0.12320	-0.18043
-0.28482	0.10015
-0.15732	0.45726
0.42922	0.55929
0.78624	0.71234
-0.15732	0.45726
0.88825	0.55929
0.14870	0.22769
-0.25932	0.50828
-0.31033	0.12566
-0.13181	-0.86914
0.30171	-0.71609
0.14870	-0.38449
0.09770	0.63582
0.53123	0.68683
-0.00431	0.22769
0.70974	0.83988
0.42922	0.78886
-0.59084	0.40625
-0.08081	0.25320
0.45472	-0.05289
0.42922	0.30422
0.73524	0.02363
0.19971	-0.18043
-0.51434	-0.41000
-0.38683	-0.15492
-0.25932	0.02363
-0.13181	0.15117
-0.56534	0.15117
0.37822	0.43176
1.34728	0.45726
0.91375	0.35523
0.17421	0.61031
-0.13181	0.02363
-0.13181	0.04914
-0.13181	0.07465
-0.41233	-0.20594
0.25071	0.02363
0.27621	0.02363
0.14870	-0.63957
0.07220	0.27871
0.25071	0.58480
0.02119	-0.97117
0.40372	0.55929
0.42922	0.71234
0.02119	0.43176
-0.08081	-0.28246
0.30171	0.43176
0.19971	0.94191
-0.02981	0.58480
-0.05531	0.02363
0.91375	-0.12942
-0.02981	-0.10391
-0.33583	-0.20594
0.07220	0.10015
-0.13181	-0.25695
-0.31033	0.20219
0.53123	0.17668
0.86275	0.04914
-0.00431	-1.27726
-0.13181	0.04914
-0.15732	0.22769
-0.00431	0.12566
0.04670	0.76336
-0.00431	0.76336
0.78624	0.73785
0.22521	0.25320
-0.05531	0.48277
-0.23382	-0.07840
-0.15732	-0.43551
0.09770	-0.48652
0.04670	0.04914
0.27621	-0.07840
0.30171	0.25320
0.32721	0.15117
0.14870	0.15117
0.04670	0.40625
0.07220	0.35523
0.19971	0.15117
0.09770	0.78886
0.09770	-0.38449
0.25071	-0.41000
0.12320	-0.46102
0.14870	0.22769
-0.25932	0.89089
0.78624	0.35523
1.21977	-0.41000
0.04670	-0.46102
-0.59084	0.71234
0.17421	0.83988
-0.41233	0.25320
0.04670	-0.23145
-0.18282	-0.46102
0.60773	0.68683
0.35272	-0.00188
-0.28482	0.17668
-0.38683	-0.05289
-0.28482	0.10015
0.76074	0.48277
0.50573	0.25320
0.58223	-0.18043
0.17421	-0.33348
0.99026	-0.18043
0.17421	-0.51203
-0.69285	-0.12942
-0.74385	0.83988
-0.13181	0.66132
0.48022	0.45726
0.76074	-0.20594
0.42922	0.02363
0.09770	-0.02739
-0.46334	-0.48652
-0.33583	0.50828
-0.53984	0.32972
0.68424	0.40625
0.96476	0.12566
0.02119	-0.25695
-0.05531	0.12566
0.22521	-0.00188
0.35272	0.35523
-0.13181	-0.35899
0.07220	-0.48652
0.27621	-0.48652
-0.02981	0.55929
0.04670	0.55929
0.19971	0.43176
-0.36133	0.10015
-0.46334	0.35523
0.83725	0.20219
0.76074	0.02363
0.58223	-0.25695
-0.38683	-0.00188
-0.36133	0.48277
0.32721	0.38074
-0.05531	0.12566
0.19971	-0.79262
0.07220	-0.35899
0.53123	0.73785
0.42922	0.32972
0.27621	0.27871
-0.08081	0.07465
0.07220	0.40625
0.12320	-0.15492
-1.07538	0.22769
0.93925	0.35523
1.98482	0.32972
1.11776	0.17668
0.04670	0.15117
-0.76936	0.32972
-1.15188	0.15117
-0.64185	0.38074
0.37822	0.61031
0.17421	-1.09871
-0.23382	-0.84363
0.48022	-0.18043
1.21977	0.91640
0.73524	0.71234
0.02119	0.58480
0.09770	0.66132
0.04670	0.71234
0.09770	-0.10391
0.30171	0.02363
0.27621	-0.30797
0.14870	-0.35899
0.17421	-0.51203
0.12320	0.45726
0.12320	0.50828
0.45472	0.43176
0.07220	0.38074
0.42922	0.17668
-0.13181	0.25320
-0.08081	-0.10391
0.53123	0.30422
0.42922	0.71234
-0.31033	0.35523
-0.36133	-0.00188
-0.20832	-0.51203
0.42922	-0.28246
0.30171	-0.20594
-1.17738	0.10015
1.90832	0.15117
2.29084	0.20219
-0.46334	0.32972
-1.43240	0.30422
-1.07538	0.48277
0.14870	0.61031
-0.18282	-0.35899
0.14870	-0.07840
1.34728	0.40625
0.19971	0.38074
0.02119	-0.07840
0.40372	-0.07840
-0.08081	0.43176
0.22521	-0.20594
0.25071	0.43176
0.02119	0.55929
-0.25932	0.38074
0.93925	-0.48652
0.63323	-0.00188
-0.28482	0.83988
-0.28482	-0.56305
-0.15732	-0.28246
-0.00431	-0.18043
0.19971	0.43176
0.17421	0.43176
0.30171	0.66132
0.12320	1.09496
0.12320	-0.15492
0.09770	-0.48652
0.07220	-0.15492
0.04670	-0.05289
-0.10631	0.25320
0.25071	0.30422
0.83725	0.20219
0.27621	0.10015
-0.10631	0.07465
-0.23382	0.66132
-0.66735	0.20219
0.14870	-0.18043
1.32178	-0.20594
0.58223	-0.28246
-0.51434	0.30422
-1.17738	0.40625
-0.61635	0.30422
2.39285	0.15117
1.29628	0.35523
-0.87136	0.02363
-0.84586	0.15117
-0.51434	0.25320
0.17421	0.22769
0.27621	0.22769
0.37822	-0.48652
0.68424	-0.00188
0.25071	0.07465
0.35272	0.02363
0.83725	0.32972
0.19971	0.43176
-0.20832	-0.02739
-0.10631	0.38074
0.25071	-0.02739
0.07220	0.66132
-0.02981	0.02363
0.19971	-0.05289
0.30171	0.40625
0.22521	0.35523
0.17421	-0.33348
-0.13181	0.17668
0.60773	0.30422
0.73524	-0.30797
0.12320	0.10015
-0.28482	0.15117
-0.05531	0.17668
0.09770	1.09496
0.14870	-0.28246
0.09770	-0.51203
0.40372	0.07465
0.37822	-0.00188
0.27621	0.53379
0.32721	0.71234
0.07220	0.17668
-0.89686	0.20219
1.09226	0.40625
1.67880	0.45726
-0.28482	-0.46102
-0.59084	0.04914
0.73524	0.40625
0.53123	0.43176
-0.28482	0.25320
-0.23382	0.45726
0.27621	-0.07840
-0.08081	-0.46102
0.27621	-0.35899
