0.17421	0.25320
0.12320	0.22769
0.09770	0.27871
0.14870	0.25320
0.04670	0.22769
0.12320	0.15117
0.19971	0.12566
0.27621	0.10015
0.25071	0.07465
0.30171	-0.00188
0.19971	0.10015
0.14870	-0.05289
0.09770	0.22769
0.02119	0.22769
0.04670	0.20219
0.04670	0.25320
0.12320	0.20219
0.12320	0.17668
0.14870	-0.00188
0.19971	0.07465
0.14870	0.04914
0.17421	0.20219
0.14870	0.22769
0.14870	0.25320
0.12320	0.10015
0.12320	0.07465
0.17421	0.04914
0.19971	0.12566
0.17421	0.15117
0.17421	0.17668
0.12320	0.22769
0.07220	0.15117
0.07220	0.22769
0.09770	0.20219
0.07220	0.12566
0.07220	0.20219
0.14870	0.17668
0.27621	0.15117
0.25071	0.12566
0.25071	0.07465
0.25071	0.10015
0.14870	0.12566
0.12320	0.27871
0.12320	0.27871
0.04670	0.15117
0.02119	0.15117
0.09770	0.07465
0.19971	0.10015
0.22521	0.07465
0.19971	0.15117
0.25071	0.22769
0.14870	0.12566
0.02119	0.20219
0.04670	0.12566
0.02119	0.07465
0.07220	0.02363
0.17421	0.15117
0.30171	0.22769
0.17421	0.07465
0.19971	0.07465
0.22521	0.15117
0.04670	0.27871
0.02119	0.17668
0.04670	0.27871
-0.00431	0.30422
0.02119	0.22769
0.14870	0.20219
0.17421	0.17668
0.17421	0.12566
0.19971	0.10015
0.17421	0.15117
0.12320	0.12566
0.14870	0.22769
0.14870	0.15117
0.12320	-0.02739
0.12320	0.15117
0.22521	0.15117
0.27621	0.02363
0.27621	0.10015
0.25071	0.07465
0.14870	0.12566
0.04670	0.15117
0.04670	0.17668
0.02119	0.17668
0.02119	0.02363
0.02119	0.17668
0.07220	0.10015
0.09770	0.20219
0.12320	0.04914
0.19971	0.15117
0.12320	0.12566
0.14870	0.10015
0.09770	0.17668
0.14870	0.20219
0.12320	0.17668
0.07220	0.15117
0.09770	0.12566
0.19971	0.15117
0.19971	-0.00188
0.19971	0.07465
0.19971	0.07465
0.27621	0.10015
0.14870	0.15117
0.09770	0.22769
-0.00431	0.15117
-0.00431	0.12566
0.12320	0.07465
-0.08081	0.15117
0.48022	0.15117
0.50573	0.15117
0.14870	0.15117
0.76074	0.17668
0.17421	0.12566
0.17421	0.17668
-0.08081	0.10015
-0.13181	0.07465
-0.05531	0.15117
0.09770	0.22769
0.19971	0.22769
0.25071	0.15117
0.32721	0.10015
0.22521	0.15117
0.12320	0.17668
0.14870	0.07465
0.12320	0.15117
0.12320	0.20219
0.17421	0.15117
0.17421	0.20219
0.14870	0.25320
0.14870	0.35523
0.07220	0.12566
0.04670	0.15117
0.07220	0.15117
0.12320	0.22769
-0.00431	0.27871
0.09770	0.22769
0.12320	0.22769
0.27621	0.15117
0.22521	0.07465
0.30171	0.04914
0.27621	0.17668
0.22521	0.43176
0.19971	0.30422
0.19971	0.20219
0.12320	0.20219
0.14870	0.12566
0.22521	0.10015
0.30171	0.15117
0.14870	0.04914
0.22521	0.25320
0.25071	0.30422
0.19971	0.17668
0.14870	0.25320
0.14870	0.15117
0.12320	0.07465
0.07220	0.04914
0.14870	0.07465
0.27621	0.12566
0.17421	0.12566
0.22521	0.22769
0.17421	0.35523
0.12320	0.25320
0.12320	0.30422
0.09770	0.35523
0.02119	0.20219
0.07220	0.15117
0.14870	0.10015
0.22521	0.12566
0.17421	0.04914
0.30171	0.15117
0.19971	0.30422
0.12320	0.22769
0.14870	0.35523
0.09770	0.32972
-0.00431	0.15117
0.02119	0.07465
0.12320	0.17668
0.30171	0.02363
0.32721	-0.18043
0.37822	-0.15492
0.27621	0.02363
0.19971	0.20219
0.12320	0.25320
0.07220	0.35523
0.07220	0.27871
0.07220	0.45726
0.09770	0.12566
0.19971	-0.02739
0.22521	-0.12942
0.22521	0.15117
0.22521	0.40625
0.14870	0.20219
0.12320	0.20219
0.07220	0.25320
0.02119	0.30422
0.09770	0.17668
0.27621	-0.05289
0.30171	-0.10391
0.19971	0.04914
0.12320	0.20219
0.22521	0.38074
0.12320	0.17668
0.14870	-0.02739
0.12320	0.02363
0.09770	0.15117
0.14870	0.38074
0.17421	0.17668
0.14870	0.15117
0.17421	-0.10391
0.25071	0.27871
0.07220	0.25320
0.04670	0.15117
0.04670	0.40625
0.04670	0.02363
-0.00431	-0.25695
-0.05531	-0.41000
0.12320	0.10015
0.22521	0.40625
0.12320	0.66132
0.25071	0.17668
0.30171	0.12566
0.07220	0.07465
-0.15732	0.25320
0.17421	0.22769
0.12320	0.25320
0.14870	0.20219
0.09770	0.10015
0.17421	-0.07840
0.09770	-0.00188
0.25071	-0.18043
0.27621	-0.18043
0.14870	-0.05289
0.09770	0.20219
0.40372	0.45726
-0.05531	0.30422
-0.13181	0.35523
-0.08081	0.15117
0.09770	0.02363
0.09770	-0.10391
0.12320	-0.05289
0.07220	0.10015
0.07220	0.12566
0.07220	0.04914
0.07220	0.17668
0.07220	0.15117
0.09770	0.22769
0.14870	0.15117
0.17421	0.10015
0.14870	0.10015
0.17421	0.07465
0.12320	0.07465
0.07220	0.10015
0.09770	0.10015
0.04670	0.10015
-0.00431	0.27871
0.04670	0.20219
0.07220	-0.00188
0.14870	-0.28246
0.19971	0.04914
0.19971	0.15117
0.17421	0.38074
0.09770	0.25320
0.07220	-0.05289
0.09770	0.10015
0.04670	0.35523
0.07220	0.45726
0.19971	-0.02739
0.19971	0.12566
0.14870	0.12566
0.19971	0.30422
0.17421	0.25320
0.19971	-0.00188
0.07220	0.07465
0.07220	0.15117
0.07220	0.10015
0.22521	0.12566
0.25071	0.10015
0.17421	0.17668
0.14870	0.15117
0.12320	0.22769
0.04670	0.30422
0.09770	0.12566
0.14870	0.04914
0.19971	0.04914
0.25071	0.15117
0.09770	0.12566
-0.05531	0.12566
0.12320	0.02363
-0.02981	0.17668
0.17421	0.55929
0.32721	0.04914
0.25071	0.07465
0.12320	-0.25695
0.07220	0.10015
0.04670	0.25320
0.14870	0.48277
0.09770	-0.43551
0.14870	-0.33348
0.17421	0.35523
0.22521	0.66132
0.19971	0.35523
0.17421	0.38074
-0.08081	0.22769
0.02119	0.30422
0.04670	0.12566
0.04670	0.10015
0.07220	-0.05289
0.12320	-0.00188
0.19971	-0.15492
0.27621	-0.69059
0.17421	-0.35899
0.14870	-0.07840
0.12320	0.58480
0.02119	0.66132
0.02119	0.55929
-0.00431	0.48277
0.07220	0.38074
0.19971	0.10015
0.14870	-0.02739
0.22521	-0.05289
0.27621	0.20219
0.17421	-0.05289
0.22521	0.27871
0.22521	0.50828
0.22521	0.22769
0.09770	0.30422
-0.00431	0.07465
-0.05531	0.02363
0.04670	-0.25695
0.37822	-0.35899
0.12320	-0.25695
-0.00431	0.15117
0.19971	0.12566
0.30171	0.73785
0.25071	0.71234
0.19971	0.43176
0.27621	0.73785
-0.05531	0.25320
0.04670	-0.12942
-0.23382	-1.30277
0.04670	0.04914
0.02119	0.53379
0.32721	0.45726
0.58223	-0.05289
0.30171	0.12566
-0.05531	0.30422
-0.08081	0.02363
0.07220	-0.43551
0.55673	-0.38449
0.14870	-0.18043
0.22521	0.99292
-0.00431	0.43176
-0.23382	0.38074
0.19971	0.25320
0.42922	0.22769
-0.08081	-0.20594
-0.23382	-0.02739
-0.05531	0.68683
0.14870	0.04914
0.45472	-0.15492
-0.92237	-1.68539
1.06676	0.30422
2.29084	1.96222
-0.82036	0.48277
-0.41233	0.25320
-0.59084	-0.28246
-0.36133	0.94191
0.83725	0.73785
0.68424	0.50828
-0.18282	-0.97117
0.48022	-0.69059
0.07220	0.22769
0.17421	0.20219
0.37822	0.04914
0.25071	-0.23145
-0.05531	0.15117
-0.99887	0.22769
0.17421	0.15117
1.75531	0.27871
0.32721	0.48277
0.58223	0.04914
0.58223	0.27871
-0.33583	0.76336
-0.25932	0.07465
-1.40690	-0.66508
-0.51434	1.17148
1.19427	-0.66508
-0.25932	-1.07320
-0.53984	-0.89465
1.19427	0.73785
3.00489	0.63582
-0.10631	0.96742
-0.82036	1.01843
-0.84586	0.73785
-1.22839	0.25320
-0.05531	0.96742
1.32178	0.15117
0.45472	-1.96597
0.35272	-1.27726
0.99026	0.50828
-0.64185	0.76336
1.24527	0.83988
-0.56534	0.66132
-0.76936	0.22769
-0.64185	0.12566
0.45472	0.30422
-0.00431	0.15117
-0.00431	0.17668
0.19971	1.04394
0.07220	-0.74160
0.48022	-1.45582
0.32721	-0.66508
1.55129	-0.02739
1.93382	0.35523
-1.71292	1.12046
-1.22839	0.12566
0.07220	0.40625
0.63323	0.40625
-0.74385	0.35523
-1.81492	0.43176
-1.43240	0.58480
1.14327	-0.25695
1.50029	-2.09351
0.09770	-0.15492
0.73524	0.86539
0.81175	0.86539
1.21977	0.63582
-1.20288	0.10015
0.22521	0.04914
1.06676	0.32972
-0.87136	0.45726
-1.63641	-0.05289
1.55129	-0.30797
4.73900	-0.46102
1.34728	0.30422
-1.84042	-0.18043
-2.12094	-0.10391
-0.38683	-0.46102
-1.86593	0.20219
-1.55991	0.76336
2.11233	1.09496
1.98482	-0.41000
0.02119	-0.12942
-0.92237	0.66132
-0.25932	0.10015
0.04670	0.25320
0.07220	-0.30797
0.35272	0.38074
0.63323	0.17668
0.96476	0.35523
0.55673	0.45726
-0.48884	-0.76711
1.44929	-0.35899
0.88825	0.55929
0.27621	1.19699
-0.51434	1.19699
-0.99887	0.71234
-0.79486	-0.07840
-0.46334	-1.35379
0.35272	-1.04770
1.60230	0.20219
0.40372	0.22769
0.68424	0.15117
0.04670	0.81437
-0.61635	0.48277
1.14327	-0.02739
0.68424	0.22769
-0.74385	0.25320
-0.08081	0.15117
-1.02437	0.04914
-0.59084	0.17668
2.26534	-0.10391
3.84644	0.10015
-0.97337	0.04914
-2.65648	-0.00188
-0.66735	0.20219
-0.51434	0.07465
0.65874	-0.12942
1.37278	0.40625
0.65874	0.30422
-0.51434	0.50828
-0.43783	-0.66508
1.90832	-0.10391
-0.43783	0.43176
-0.74385	0.71234
-0.38683	0.04914
0.04670	0.76336
-0.00431	0.76336
0.37822	-0.41000
0.37822	-0.76711
0.58223	-0.28246
0.22521	0.15117
0.22521	0.10015
0.09770	1.32453
-0.28482	0.00000
1.14327	0.00000
1.14327	0.00000
-0.53984	0.00000
-0.43783	0.00000
-0.28482	0.00000
-1.04987	-0.58856
-0.48884	-0.30797
0.37822	-0.07840
2.41835	-0.38449
1.55129	-0.56305
-0.53984	0.10015
-0.66735	0.45726
-0.71835	0.68683
-0.94787	1.22250
0.45472	0.89089
-0.46334	0.55929
-0.33583	-0.07840
0.25071	-0.25695
0.22521	-0.20594
0.70974	-0.02739
0.55673	0.63582
1.75531	-0.25695
0.93925	-0.56305
-1.15188	-0.58856
1.75531	0.58480
1.16877	0.63582
-0.97337	0.43176
-0.41233	0.17668
-0.25932	0.04914
-0.66735	0.27871
-0.31033	0.71234
-0.10631	1.01843
0.19971	-0.18043
0.48022	-0.43551
0.32721	-0.86914
0.19971	0.43176
0.17421	0.50828
0.17421	0.10015
0.27621	0.17668
0.17421	0.40625
-0.13181	0.12566
0.14870	-0.30797
0.81175	0.17668
-0.23382	0.22769
0.09770	0.53379
-1.07538	-0.05289
2.13783	-0.74160
2.49485	0.15117
-1.43240	0.50828
-0.71835	0.73785
0.37822	0.55929
0.04670	0.07465
-0.69285	1.19699
-0.53984	-0.38449
0.25071	-0.07840
0.93925	-0.25695
-0.76936	-0.28246
-0.25932	-0.66508
0.58223	-0.43551
0.30171	0.61031
0.78624	1.40105
0.58223	0.68683
0.86275	0.04914
0.68424	-0.23145
0.35272	0.20219
-0.02981	0.20219
0.27621	0.81437
-0.05531	0.17668
-0.33583	-0.28246
-0.43783	0.04914
0.09770	-0.05289
0.70974	0.17668
0.09770	0.15117
-0.10631	0.50828
-0.13181	0.32972
0.19971	-0.02739
0.32721	-0.71609
0.02119	-1.04770
-0.89686	0.12566
0.99026	1.19699
0.99026	0.99292
-0.23382	0.86539
-0.41233	0.99292
-1.35589	0.76336
0.91375	0.45726
3.18340	-0.51203
0.50573	-1.30277
-1.30489	-0.89465
-0.92237	0.86539
-0.99887	0.30422
0.02119	0.66132
-0.15732	0.25320
-0.13181	0.10015
-0.99887	-0.51203
1.24527	-0.33348
1.65330	0.25320
0.48022	0.53379
-0.69285	0.68683
-0.08081	0.20219
2.64786	0.63582
1.75531	-0.69059
-0.74385	0.04914
-1.38139	0.12566
-0.92237	0.43176
-0.69285	-0.43551
-0.89686	-0.05289
0.48022	0.32972
1.52579	0.35523
0.55673	0.15117
0.09770	0.61031
0.50573	1.04394
-0.28482	0.35523
-0.20832	-0.56305
-0.05531	-0.89465
0.12320	-0.15492
0.19971	0.43176
0.19971	-0.35899
0.14870	-0.15492
0.12320	0.68683
0.14870	0.96742
0.09770	0.78886
0.09770	0.32972
0.09770	-0.12942
0.04670	-0.15492
0.17421	-0.25695
-0.05531	-0.20594
-0.25932	-0.12942
-0.02981	-0.20594
0.37822	-0.02739
1.42379	0.55929
1.57679	0.07465
0.70974	-0.05289
-0.97337	0.48277
-1.55991	0.91640
-1.30489	-0.48652
0.12320	-0.00188
0.93925	0.12566
-0.00431	0.02363
0.27621	0.25320
0.76074	0.32972
-0.18282	0.55929
-0.10631	0.66132
0.86275	0.20219
0.68424	-0.23145
1.93382	0.17668
-0.15732	-0.28246
-0.74385	-0.20594
-0.84586	-0.15492
-0.41233	-0.07840
-0.20832	0.04914
0.32721	0.35523
0.42922	-0.05289
0.65874	0.35523
0.42922	-0.38449
0.17421	-0.07840
0.19971	0.35523
-0.25932	0.71234
0.32721	0.45726
-0.08081	0.48277
0.07220	-0.00188
0.88825	-0.30797
0.45472	-0.58856
0.04670	-0.81812
-0.31033	0.53379
-0.31033	1.73265
-0.56534	0.45726
-0.20832	-0.05289
0.91375	-0.07840
2.23984	0.22769
-0.02981	-0.18043
-0.43783	0.30422
-1.61091	0.20219
-0.66735	0.25320
-0.48884	0.20219
0.86275	0.10015
1.60230	-0.10391
0.40372	0.04914
1.16877	0.15117
-0.23382	-0.10391
-2.27395	-0.33348
-0.48884	-0.18043
1.14327	0.22769
0.48022	0.27871
0.07220	0.17668
0.19971	0.35523
0.37822	0.45726
-0.02981	0.15117
-0.02981	0.15117
1.11776	0.10015
0.12320	0.58480
-0.38683	0.61031
-0.33583	-0.79262
1.16877	-0.84363
0.99026	0.63582
-0.66735	1.06945
-0.20832	0.20219
0.12320	-0.02739
-0.51434	-1.37929
-0.31033	-0.07840
-0.18282	-0.12942
-0.00431	0.35523
0.35272	0.73785
0.53123	0.61031
0.30171	0.68683
0.25071	0.66132
-0.18282	-0.28246
0.45472	-0.30797
0.58223	0.15117
0.48022	-0.15492
-0.41233	-0.43551
-0.53984	0.55929
0.78624	0.04914
0.53123	0.07465
-0.28482	-0.18043
-2.17195	0.27871
1.24527	0.15117
4.15246	0.02363
-0.56534	0.35523
-0.99887	0.86539
-0.69285	0.10015
-1.10088	0.04914
-1.02437	-0.58856
-0.28482	0.12566
0.12320	-0.30797
0.17421	0.35523
0.83725	0.63582
2.16333	0.53379
1.42379	0.45726
-0.46334	0.07465
-0.25932	-0.41000
0.12320	0.15117
-0.13181	0.27871
-0.08081	0.63582
-0.18282	-0.38449
-0.00431	-0.20594
1.04126	-0.15492
0.42922	1.22250
0.19971	0.35523
0.17421	-0.30797
-0.25932	-0.33348
-0.18282	0.15117
0.30171	0.15117
0.04670	0.66132
-0.59084	0.81437
0.93925	1.37554
1.11776	-0.12942
0.07220	-0.41000
-0.08081	-1.30277
0.19971	-0.53754
-0.00431	0.22769
-0.56534	0.89089
-0.10631	0.78886
0.53123	0.38074
0.58223	0.32972
-0.59084	0.27871
0.63323	-0.18043
2.36734	0.86539
-0.79486	-0.15492
-0.38683	-0.56305
0.65874	0.07465
-0.74385	-0.25695
-0.53984	-0.02739
0.12320	0.45726
0.63323	0.66132
1.09226	0.96742
0.19971	0.04914
-0.23382	-0.20594
0.07220	-0.74160
0.07220	-0.53754
-0.36133	0.15117
-0.56534	0.63582
0.37822	0.89089
1.42379	0.68683
0.68424	0.30422
0.63323	0.45726
0.07220	0.81437
-0.53984	-0.58856
0.42922	-0.35899
-0.05531	-0.51203
-0.89686	-0.02739
-0.59084	0.22769
-0.31033	-0.15492
0.12320	0.30422
0.19971	0.91640
0.50573	0.35523
0.81175	0.43176
0.40372	0.55929
0.32721	-0.56305
0.04670	-0.56305
-0.51434	-0.81812
0.81175	0.43176
1.11776	1.86019
-0.00431	0.55929
-0.33583	-0.41000
-0.15732	-1.86394
-0.56534	-0.33348
-0.38683	1.06945
0.35272	1.14597
0.14870	0.55929
0.19971	-0.56305
-1.84042	-0.02739
0.58223	0.86539
3.36191	0.40625
2.39285	-0.20594
0.50573	-0.02739
-1.76392	-0.05289
-1.66191	-0.10391
-0.64185	0.15117
-0.13181	0.04914
0.42922	0.20219
-0.18282	-0.28246
-0.28482	0.35523
0.76074	0.12566
1.14327	0.45726
1.09226	0.71234
0.17421	0.38074
-0.25932	-0.66508
-0.25932	0.02363
-0.02981	0.15117
-0.28482	0.30422
0.19971	0.61031
0.37822	0.25320
-0.00431	0.12566
0.37822	0.35523
-0.08081	-0.43551
0.55673	0.12566
0.17421	-0.43551
0.40372	0.17668
-0.08081	0.38074
-0.59084	0.20219
-0.20832	-0.00188
-0.61635	0.32972
0.07220	0.53379
0.91375	0.17668
1.09226	0.20219
0.70974	-0.92016
0.88825	-0.69059
-0.23382	0.61031
-0.05531	0.55929
-0.66735	0.53379
-0.56534	0.50828
-0.41233	0.10015
-0.20832	0.04914
1.83181	0.20219
1.55129	0.38074
-1.17738	0.48277
0.48022	-0.23145
0.65874	-0.51203
-0.43783	-1.12422
-0.43783	-0.15492
-0.08081	-0.28246
-0.18282	0.66132
-0.08081	0.50828
0.42922	0.55929
1.01576	0.83988
1.11776	0.53379
1.04126	-0.43551
0.25071	-0.61406
-1.20288	0.38074
-0.46334	0.68683
0.50573	0.58480
0.12320	-0.48652
-0.36133	-0.38449
0.40372	0.76336
-0.08081	0.58480
0.40372	0.20219
-0.38683	-0.02739
0.65874	0.35523
0.76074	-0.00188
-0.59084	-0.23145
1.62780	-0.20594
0.04670	0.12566
-0.69285	0.76336
-1.07538	0.27871
-0.51434	-0.43551
0.60773	-0.41000
1.14327	0.86539
0.27621	0.71234
1.16877	-0.10391
0.40372	-1.30277
-0.61635	-0.69059
-0.46334	0.99292
-0.15732	0.76336
-0.31033	0.25320
-1.30489	0.20219
0.70974	0.10015
1.85731	0.40625
-0.00431	0.10015
0.32721	0.32972
-0.00431	-0.38449
-0.05531	-0.18043
0.30171	0.43176
0.32721	0.86539
0.09770	0.30422
-0.84586	0.12566
0.78624	-0.25695
0.65874	-0.25695
-0.13181	-1.12422
-0.13181	0.22769
-0.48884	0.40625
-0.23382	0.66132
0.32721	0.20219
-0.53984	-0.15492
0.81175	0.63582
-0.38683	0.48277
-0.08081	0.20219
1.47479	0.25320
-1.71292	0.48277
-0.46334	-0.20594
2.03582	0.07465
0.04670	0.04914
-0.53984	-0.12942
-0.08081	-0.81812
-0.00431	0.27871
-0.38683	0.10015
0.19971	0.30422
1.21977	0.66132
0.22521	0.55929
-0.38683	0.91640
-0.25932	0.30422
-0.28482	-0.30797
0.09770	-0.74160
0.37822	-0.38449
0.60773	0.07465
-0.41233	0.55929
0.19971	1.04394
1.47479	-0.10391
0.48022	-0.66508
-0.66735	-0.25695
-0.92237	0.30422
1.57679	0.89089
0.12320	1.06945
-0.08081	0.12566
-0.10631	0.20219
-0.23382	-0.81812
-0.25932	-0.71609
0.35272	0.22769
0.27621	0.61031
-0.18282	0.55929
0.02119	0.68683
0.48022	-0.18043
-0.61635	-0.23145
0.68424	0.12566
0.37822	0.76336
0.30171	0.50828
0.04670	-0.02739
0.40372	-0.71609
0.83725	-0.89465
-0.64185	0.15117
-0.97337	0.73785
-0.10631	0.35523
0.53123	0.45726
0.55673	0.43176
0.63323	0.17668
0.17421	0.10015
-0.79486	-0.07840
0.83725	0.04914
0.35272	0.30422
0.17421	0.12566
-0.84586	0.22769
-0.48884	0.55929
1.70430	0.20219
0.48022	-0.18043
-0.51434	-0.94566
0.32721	-0.58856
1.14327	0.40625
-0.28482	0.68683
-0.64185	0.99292
0.22521	-0.00188
-0.05531	0.35523
-0.18282	0.94191
-0.02981	0.45726
0.50573	0.32972
0.04670	-0.20594
0.30171	-0.07840
0.14870	-0.76711
0.22521	-0.53754
0.14870	0.91640
0.19971	0.48277
-0.00431	-0.15492
-0.28482	-1.71090
0.58223	-0.12942
0.22521	0.38074
-0.51434	0.43176
1.52579	1.09496
0.58223	1.14597
0.04670	0.43176
-0.43783	0.15117
-0.41233	-0.02739
-0.59084	-0.25695
0.09770	-0.46102
-0.59084	-0.10391
-0.13181	0.32972
2.21434	0.40625
3.25990	0.40625
-0.13181	0.25320
-1.63641	-0.12942
-0.36133	0.12566
-1.43240	0.04914
-0.46334	0.17668
0.35272	0.32972
0.58223	0.22769
-0.46334	0.04914
0.70974	-0.05289
2.44385	0.27871
0.22521	-0.07840
-0.10631	-0.48652
-0.53984	0.27871
-0.28482	0.27871
0.17421	0.48277
0.22521	0.40625
0.07220	0.35523
0.73524	0.32972
0.63323	0.15117
-0.20832	-0.00188
-0.79486	-0.28246
-0.48884	-0.76711
-0.00431	1.09496
0.22521	-0.18043
0.27621	-0.86914
0.42922	-0.23145
0.19971	1.19699
-0.08081	0.76336
0.70974	0.38074
0.68424	-0.05289
0.02119	0.25320
0.07220	0.66132
-0.18282	0.27871
0.14870	-0.10391
-0.28482	-0.12942
-0.28482	-0.07840
-0.00431	0.30422
0.58223	0.04914
0.17421	-0.28246
0.30171	-0.66508
-0.28482	-0.00188
0.27621	0.83988
1.34728	0.63582
1.04126	0.35523
-2.42696	0.38074
-0.05531	0.17668
1.75531	0.15117
-0.28482	-0.07840
0.35272	-0.07840
-0.41233	-0.05289
-0.69285	0.32972
0.12320	0.15117
-0.64185	0.17668
0.07220	-0.07840
0.78624	0.12566
1.37278	0.07465
0.17421	0.35523
0.45472	0.15117
-0.18282	0.15117
-0.08081	0.35523
0.02119	0.12566
-0.48884	0.30422
1.16877	0.07465
0.63323	0.22769
-0.66735	0.40625
0.25071	0.07465
0.60773	-0.35899
-0.20832	-0.05289
-0.10631	0.48277
0.40372	1.42656
-0.05531	0.40625
-0.46334	-1.43031
0.22521	-1.12422
0.14870	0.17668
-0.46334	0.76336
0.27621	0.15117
0.60773	0.12566
0.22521	-0.10391
-0.23382	1.09496
-0.02981	0.83988
0.63323	0.22769
0.68424	0.20219
-0.59084	0.25320
0.12320	-0.23145
0.04670	-0.20594
1.09226	-0.56305
0.53123	-0.18043
-0.56534	0.48277
-0.79486	0.12566
-0.28482	0.25320
0.76074	-0.23145
0.45472	-0.02739
-0.89686	-0.02739
-0.51434	0.12566
0.32721	0.50828
-0.05531	0.15117
-0.10631	0.38074
1.42379	0.27871
2.36734	-0.43551
0.32721	0.22769
-0.74385	0.45726
-0.76936	0.63582
-0.25932	0.58480
0.68424	0.32972
0.93925	0.20219
-0.05531	-0.05289
0.12320	-0.00188
-0.61635	0.02363
-0.36133	-0.00188
0.65874	0.35523
0.42922	-0.05289
-0.05531	-0.05289
-0.25932	-0.48652
0.22521	0.20219
0.14870	-0.05289
0.19971	0.17668
0.12320	0.50828
0.32721	0.86539
0.60773	0.83988
0.22521	0.58480
-0.48884	-0.05289
0.32721	-0.00188
0.50573	-0.41000
0.83725	-0.00188
1.11776	0.17668
-0.51434	0.07465
-0.71835	0.15117
-1.55991	0.94191
0.42922	-0.07840
1.90832	-0.35899
0.32721	-0.02739
-0.33583	0.78886
-0.33583	0.02363
0.19971	0.07465
-0.25932	0.07465
-0.02981	0.15117
0.27621	0.27871
1.27078	0.48277
0.09770	0.02363
-0.79486	-0.23145
0.55673	0.38074
0.86275	0.66132
-0.28482	0.40625
0.19971	0.22769
0.58223	-0.41000
0.27621	-0.92016
-0.56534	-0.25695
-0.99887	0.07465
-0.53984	-0.02739
0.70974	1.12046
1.16877	0.45726
0.40372	0.55929
-0.38683	-0.76711
-0.48884	-0.23145
-0.71835	-0.35899
0.65874	0.38074
0.63323	0.94191
-0.43783	0.76336
0.53123	1.04394
0.88825	0.94191
0.35272	-0.79262
0.04670	-0.92016
-0.69285	-0.35899
-0.10631	-0.02739
0.30171	-0.79262
0.40372	0.10015
0.42922	0.43176
-0.36133	0.53379
-0.02981	0.86539
0.09770	0.58480
-0.25932	0.61031
-0.53984	0.04914
2.77537	-0.15492
1.01576	0.12566
-0.31033	-0.05289
-0.99887	-0.25695
-0.89686	-0.00188
-0.13181	0.02363
-0.33583	0.20219
0.14870	0.22769
1.50029	-0.02739
0.17421	-0.20594
-0.05531	0.12566
-0.31033	0.25320
-0.05531	0.17668
-0.51434	0.48277
0.35272	0.45726
0.73524	-0.07840
-1.15188	-0.41000
0.32721	-0.51203
2.72437	0.12566
0.63323	0.86539
-0.59084	0.45726
-0.53984	0.10015
-0.41233	0.12566
-0.53984	0.45726
-0.94787	-0.10391
1.44929	-0.05289
0.73524	0.12566
0.09770	0.07465
0.25071	-0.05289
-0.08081	0.12566
0.02119	-0.10391
-0.36133	-0.20594
-0.20832	-0.23145
0.02119	0.30422
-0.13181	0.45726
0.88825	0.32972
2.06133	0.30422
0.35272	0.35523
-0.61635	0.55929
-0.99887	-0.38449
0.19971	-0.56305
0.93925	-0.58856
-1.02437	0.04914
-0.76936	0.04914
0.17421	0.32972
-0.10631	0.25320
0.63323	0.38074
0.70974	0.20219
0.50573	0.04914
0.42922	0.43176
-0.31033	0.22769
0.30171	0.12566
0.45472	-0.05289
-0.89686	0.27871
0.17421	0.35523
1.44929	-0.61406
0.93925	0.40625
-0.74385	0.10015
-0.74385	0.20219
0.09770	-0.18043
-0.00431	-0.35899
-0.33583	-0.46102
-0.00431	0.55929
0.27621	0.50828
0.32721	0.83988
0.02119	0.32972
1.09226	0.32972
0.60773	-0.30797
0.48022	0.30422
-0.10631	0.35523
0.12320	0.25320
0.02119	0.17668
-0.43783	0.10015
-0.33583	-0.12942
-0.18282	-0.18043
0.07220	-0.58856
-0.31033	0.02363
0.53123	0.17668
-0.13181	0.43176
1.34728	-0.35899
0.40372	0.53379
0.30171	0.71234
1.14327	-1.07320
-0.15732	-1.09871
-2.14644	-0.56305
-1.73842	0.78886
-0.28482	1.01843
0.99026	0.71234
0.55673	0.81437
0.83725	0.48277
0.32721	0.35523
0.42922	-0.15492
0.45472	-0.15492
-0.05531	-0.07840
-0.53984	0.10015
1.70430	-0.33348
0.60773	-0.53754
-0.33583	0.25320
-0.84586	0.04914
0.09770	0.17668
-0.10631	0.30422
-0.28482	-0.12942
-0.20832	0.12566
-1.25389	1.32453
2.31634	-0.41000
2.90288	-0.15492
-0.18282	-1.27726
-0.43783	0.76336
-0.48884	1.24800
-0.08081	1.06945
0.32721	0.43176
0.19971	0.81437
-0.08081	0.30422
0.17421	-0.05289
0.27621	-0.46102
0.35272	-0.23145
0.30171	-0.05289
0.22521	-0.12942
0.02119	-0.20594
0.93925	0.55929
0.93925	0.15117
-0.10631	0.07465
-0.15732	-0.12942
-0.69285	0.43176
-0.18282	0.43176
-0.18282	0.45726
-0.46334	0.12566
0.32721	0.04914
0.58223	0.15117
2.06133	0.17668
1.55129	0.25320
-0.89686	0.07465
-1.33039	-0.38449
-1.35589	-0.61406
-0.10631	-0.12942
0.53123	0.61031
-0.20832	0.96742
0.53123	0.73785
1.01576	0.35523
0.86275	0.17668
-0.15732	0.35523
-0.53984	0.02363
0.02119	-0.35899
0.04670	-0.51203
0.07220	-0.43551
0.35272	-0.00188
0.27621	0.45726
0.12320	0.73785
-0.02981	0.91640
-0.10631	-0.71609
-0.05531	-0.41000
-0.33583	0.12566
1.19427	1.04394
0.83725	0.43176
0.45472	-0.33348
-0.38683	0.12566
-0.92237	0.22769
0.17421	-0.43551
1.32178	0.68683
-0.36133	0.76336
-0.25932	1.40105
-0.18282	0.04914
-0.23382	0.17668
0.02119	-1.83844
0.22521	-0.02739
0.40372	0.20219
-0.31033	0.89089
1.14327	0.50828
0.76074	0.66132
0.40372	0.15117
-0.46334	0.07465
0.32721	-0.28246
0.37822	0.12566
-0.71835	-0.30797
0.48022	-0.05289
-0.38683	-0.28246
-0.28482	0.43176
1.11776	0.48277
-0.23382	0.12566
0.63323	0.25320
0.73524	0.25320
-0.48884	0.27871
-0.61635	0.15117
0.45472	-0.10391
0.42922	0.07465
0.27621	0.50828
0.22521	-0.10391
0.19971	0.15117
-0.71835	0.15117
1.09226	-0.10391
1.06676	0.07465
-0.20832	0.12566
-0.61635	0.27871
-0.82036	0.10015
0.04670	0.20219
0.63323	-0.02739
0.65874	0.38074
0.32721	0.53379
0.27621	0.22769
0.12320	-0.79262
0.12320	-0.15492
0.17421	0.58480
0.09770	0.61031
-0.10631	0.99292
0.17421	-0.74160
-0.08081	-0.56305
-0.64185	-0.05289
0.42922	0.81437
1.72980	-0.10391
0.27621	0.45726
-0.46334	0.32972
-0.94787	0.71234
-0.20832	0.25320
0.40372	-0.56305
0.17421	-0.38449
0.14870	0.07465
0.50573	0.43176
-0.43783	0.30422
-0.02981	-0.28246
0.58223	0.38074
-0.92237	0.30422
1.37278	-0.41000
1.75531	-0.30797
-0.05531	-0.97117
-0.38683	0.07465
-0.02981	0.43176
-1.02437	0.78886
0.37822	0.53379
0.04670	0.40625
-0.08081	0.40625
-0.41233	0.12566
0.50573	-0.20594
0.07220	-0.10391
0.35272	0.04914
0.32721	0.25320
0.32721	0.17668
-0.69285	0.02363
0.81175	-0.02739
1.98482	-0.05289
0.48022	0.45726
-0.74385	-0.05289
-0.56534	0.07465
-0.38683	0.50828
-0.10631	-0.05289
-0.02981	0.35523
0.58223	0.55929
0.83725	0.68683
0.25071	0.35523
0.27621	-0.89465
0.09770	-0.84363
-0.18282	-0.56305
-0.23382	0.63582
0.09770	0.89089
0.14870	0.66132
-0.48884	0.53379
0.78624	-0.12942
-0.31033	-0.33348
1.04126	-0.02739
0.93925	0.58480
-0.23382	0.96742
-0.13181	-0.15492
-0.36133	-0.74160
-0.05531	-0.10391
-0.76936	0.30422
1.70430	0.96742
0.22521	-0.05289
-0.53984	-0.51203
-0.43783	-0.05289
-0.48884	0.55929
0.88825	-0.10391
0.63323	0.30422
0.17421	-0.15492
0.22521	0.07465
-0.59084	0.35523
0.68424	0.96742
0.76074	-0.02739
0.42922	0.04914
-0.08081	-0.05289
-0.20832	0.15117
0.02119	0.15117
0.12320	0.25320
0.14870	0.27871
0.09770	0.12566
0.12320	0.15117
0.04670	0.07465
0.30171	0.38074
-0.18282	0.38074
0.40372	0.04914
0.68424	0.15117
-0.02981	-0.48652
-0.76936	-0.38449
-0.02981	-0.35899
0.99026	0.45726
0.35272	1.14597
0.35272	0.43176
-0.53984	-0.92016
-0.51434	-0.81812
0.93925	0.20219
0.30171	0.38074
-0.08081	0.45726
-0.00431	0.68683
-0.15732	0.86539
-0.18282	0.30422
0.32721	0.45726
0.45472	-0.63957
0.60773	-1.60887
-0.51434	0.38074
-0.25932	0.35523
0.32721	0.53379
0.12320	0.30422
2.01032	0.63582
0.83725	0.10015
-0.74385	-0.05289
-0.18282	0.07465
-0.31033	0.63582
-0.53984	-0.07840
-0.20832	-0.10391
0.63323	0.07465
0.58223	0.45726
-0.00431	0.40625
1.14327	-0.25695
0.53123	-0.35899
-0.31033	-0.25695
-1.30489	0.12566
0.65874	0.76336
0.78624	0.61031
-0.33583	0.15117
-0.38683	-0.30797
-0.13181	0.10015
0.78624	0.58480
0.96476	0.30422
-0.08081	0.30422
-0.18282	0.32972
0.25071	-0.05289
0.17421	-0.00188
0.50573	0.25320
0.25071	0.07465
0.42922	-0.28246
-0.38683	-0.07840
-0.13181	-0.35899
-0.08081	0.17668
0.09770	0.91640
0.04670	-0.18043
0.12320	0.10015
0.42922	-0.10391
-0.13181	0.50828
-0.82036	0.04914
1.42379	0.63582
1.06676	0.55929
0.45472	-0.02739
-0.18282	-0.51203
0.19971	-0.15492
0.04670	0.25320
-1.20288	-0.15492
0.35272	0.17668
-0.08081	0.40625
-0.23382	0.12566
1.55129	0.20219
0.76074	0.22769
-0.41233	0.48277
-0.28482	0.17668
-0.13181	0.02363
0.25071	0.76336
-0.00431	-0.58856
-0.13181	-0.66508
0.17421	-0.30797
0.30171	0.58480
0.35272	0.15117
0.35272	0.10015
0.27621	0.07465
-0.46334	0.58480
1.44929	0.22769
0.30171	0.22769
0.02119	0.61031
-0.00431	0.66132
-0.05531	0.25320
-0.23382	-0.23145
0.04670	0.83988
-0.25932	-0.30797
0.25071	-0.56305
0.68424	-0.81812
0.19971	0.10015
-0.46334	0.35523
0.45472	0.25320
0.27621	0.25320
0.14870	0.30422
-0.43783	0.53379
1.62780	0.38074
-0.23382	0.15117
0.35272	0.04914
0.63323	0.12566
-0.74385	0.10015
-0.94787	0.20219
0.30171	0.07465
0.19971	-0.23145
0.14870	-0.15492
-0.02981	-0.05289
0.83725	0.43176
0.60773	0.58480
0.27621	0.53379
-0.02981	-0.07840
0.37822	-0.07840
0.14870	0.02363
-0.08081	0.35523
-0.15732	0.25320
0.45472	-0.00188
0.53123	0.25320
-0.18282	0.68683
-0.38683	0.73785
-0.18282	-0.30797
0.07220	-0.41000
-0.00431	-0.46102
-0.10631	-0.66508
0.22521	0.66132
-0.15732	0.27871
0.83725	0.38074
1.04126	0.15117
0.04670	0.86539
0.02119	-0.18043
-0.00431	0.35523
0.04670	-0.10391
-0.05531	0.35523
-0.69285	0.76336
0.81175	0.40625
0.88825	-0.15492
0.02119	-0.43551
-0.46334	0.30422
0.42922	0.30422
1.06676	0.07465
0.32721	0.04914
-0.13181	0.25320
0.32721	-0.10391
-0.69285	-0.10391
0.09770	0.04914
0.25071	-0.15492
-0.23382	-0.20594
0.07220	0.07465
0.19971	0.71234
0.48022	-0.02739
0.65874	0.04914
0.37822	-0.02739
0.14870	0.63582
0.09770	-0.18043
0.35272	0.30422
-0.08081	-0.05289
-0.48884	0.30422
-0.10631	0.63582
0.88825	0.55929
-0.18282	-0.00188
0.09770	-0.05289
0.14870	0.45726
-0.15732	-0.00188
0.42922	0.17668
0.09770	0.04914
-0.36133	-0.28246
0.27621	-0.41000
0.32721	0.12566
0.14870	0.32972
0.22521	0.25320
0.25071	0.10015
-0.41233	-0.18043
0.42922	-0.35899
0.96476	0.68683
-0.28482	0.48277
-0.46334	0.35523
-0.10631	-0.28246
0.76074	-1.04770
-0.23382	-0.46102
-0.69285	0.32972
0.02119	0.81437
0.91375	0.38074
0.50573	0.43176
-0.02981	0.63582
-0.08081	0.50828
-0.38683	0.43176
-0.33583	0.32972
1.57679	0.32972
0.48022	-0.35899
-0.43783	-0.25695
0.50573	-0.20594
0.45472	-0.20594
-0.66735	-0.02739
-0.94787	0.20219
0.53123	0.40625
0.32721	-0.71609
0.25071	-0.18043
0.14870	0.43176
0.35272	0.76336
-0.00431	0.61031
0.12320	0.45726
0.25071	0.32972
0.17421	-0.10391
-0.13181	0.10015
0.42922	0.27871
0.58223	0.17668
-0.13181	-0.20594
-0.02981	-0.02739
0.48022	0.48277
0.32721	0.12566
-0.87136	0.20219
0.32721	-0.10391
0.53123	-1.02219
0.76074	-0.53754
-0.02981	0.15117
-0.53984	0.66132
-0.71835	0.30422
-0.10631	0.61031
0.17421	0.94191
0.25071	0.76336
0.07220	0.10015
0.40372	-0.30797
0.27621	-1.25176
-0.08081	0.04914
0.12320	0.53379
-0.08081	0.61031
0.27621	-0.00188
0.04670	-0.10391
0.93925	0.71234
0.68424	-0.23145
0.22521	0.38074
0.17421	0.25320
-0.25932	0.38074
-1.04987	0.25320
-0.33583	-0.23145
1.24527	0.30422
0.32721	0.30422
0.25071	0.15117
0.22521	0.32972
0.68424	0.25320
-0.08081	-0.15492
-0.13181	-0.07840
-0.74385	0.15117
0.48022	0.20219
0.35272	0.25320
-0.23382	0.22769
0.02119	-0.35899
-0.20832	0.07465
0.27621	0.35523
0.91375	0.45726
0.55673	0.15117
0.02119	0.12566
0.02119	0.02363
0.02119	0.17668
0.02119	0.15117
0.19971	0.53379
0.17421	-0.10391
0.30171	0.20219
0.09770	0.32972
0.14870	0.40625
0.14870	0.27871
0.48022	-0.41000
0.12320	-0.05289
-0.08081	-0.28246
0.30171	0.53379
0.14870	0.04914
-0.38683	0.35523
-0.08081	0.15117
0.83725	0.83988
1.60230	0.83988
0.40372	0.07465
-0.94787	0.04914
0.25071	-0.38449
0.09770	0.04914
-0.66735	-0.00188
-0.43783	0.35523
1.42379	1.24800
-0.56534	0.66132
-0.79486	-0.35899
1.93382	-0.61406
0.96476	0.45726
-0.23382	0.45726
-0.25932	-0.05289
-0.48884	-0.05289
-0.69285	0.02363
0.93925	0.27871
1.14327	0.07465
-0.64185	0.12566
-0.36133	0.20219
-0.13181	-0.00188
-0.20832	0.04914
0.25071	0.20219
0.12320	0.15117
0.25071	0.25320
-0.08081	0.22769
0.37822	-0.10391
0.22521	-0.10391
0.17421	0.17668
0.40372	0.27871
0.27621	0.55929
0.04670	0.68683
0.40372	0.04914
0.58223	-0.41000
0.27621	-0.00188
-0.15732	-0.18043
-0.28482	0.30422
0.09770	1.12046
0.45472	0.63582
0.37822	-0.10391
0.14870	-0.86914
0.22521	-0.41000
-0.61635	0.10015
0.42922	0.17668
1.34728	0.12566
0.02119	0.25320
-0.69285	0.89089
-0.10631	0.61031
0.30171	0.12566
-0.36133	-0.00188
0.19971	0.45726
0.02119	0.32972
0.76074	-0.02739
0.78624	-0.30797
-0.10631	-0.25695
-0.51434	-0.35899
-0.51434	0.12566
-0.25932	0.07465
0.19971	0.43176
1.04126	0.40625
1.27078	0.04914
-0.15732	0.02363
-0.00431	0.07465
-0.87136	0.55929
-0.46334	-0.05289
1.75531	-0.00188
0.42922	-0.00188
-0.25932	0.10015
-0.51434	0.10015
0.04670	0.99292
0.09770	0.38074
0.25071	0.15117
0.42922	0.10015
0.50573	0.02363
0.07220	0.15117
0.02119	0.68683
-0.13181	-0.23145
1.01576	-0.20594
0.60773	-0.05289
0.22521	0.38074
-0.23382	-0.30797
-0.25932	0.22769
-0.05531	0.07465
0.32721	0.12566
-0.08081	-0.05289
0.19971	0.10015
0.04670	0.30422
-0.33583	0.71234
-0.02981	0.43176
0.40372	0.10015
0.70974	0.20219
1.06676	0.30422
-0.02981	0.48277
-0.59084	0.43176
0.63323	-0.30797
-0.08081	-1.27726
-0.13181	-0.74160
-0.38683	0.07465
1.21977	0.96742
0.37822	0.71234
-1.04987	0.45726
-0.43783	0.27871
1.80631	0.25320
0.17421	0.10015
-0.05531	0.02363
-0.48884	0.04914
-0.87136	0.20219
-0.41233	0.30422
0.60773	0.38074
1.50029	-0.12942
0.32721	-0.05289
0.22521	0.10015
0.07220	0.20219
0.09770	0.45726
0.17421	0.32972
-0.10631	0.22769
0.42922	0.07465
0.96476	0.20219
-0.20832	0.25320
0.09770	0.48277
0.17421	0.43176
0.12320	-0.10391
-0.08081	-0.33348
0.02119	0.27871
-0.08081	-0.07840
0.12320	-0.18043
-0.25932	-0.53754
0.32721	0.55929
0.04670	0.35523
0.22521	0.25320
1.01576	0.15117
0.91375	0.25320
0.04670	0.66132
-0.99887	0.20219
0.02119	0.15117
0.12320	-0.56305
-1.25389	-0.18043
1.16877	0.25320
1.75531	0.15117
-0.20832	-0.02739
-0.41233	0.20219
-0.10631	0.25320
-0.69285	0.38074
0.30171	-0.25695
0.27621	-0.15492
-0.02981	0.20219
0.22521	0.17668
0.32721	0.25320
0.02119	0.17668
0.27621	1.04394
-0.00431	0.43176
0.22521	-1.02219
0.81175	-0.74160
0.65874	0.45726
0.07220	0.50828
-0.18282	0.40625
-0.64185	0.15117
-0.48884	0.50828
0.32721	0.27871
-0.13181	0.30422
0.88825	0.15117
0.53123	-0.20594
0.12320	-0.10391
0.02119	0.32972
-0.05531	-0.15492
0.93925	0.10015
-0.28482	-0.00188
-0.02981	0.27871
0.22521	0.10015
0.40372	0.38074
-0.33583	0.02363
-0.15732	0.25320
0.53123	0.40625
0.27621	-0.28246
-0.33583	0.07465
-0.05531	0.20219
-0.18282	0.83988
-0.20832	-0.20594
0.14870	0.22769
1.72980	0.71234
0.93925	0.10015
-0.05531	-0.20594
-0.18282	-0.76711
-0.10631	0.40625
-0.08081	0.38074
0.07220	0.04914
0.17421	0.25320
0.60773	0.48277
0.32721	0.48277
-0.20832	0.32972
-0.00431	0.04914
0.30171	-0.02739
0.19971	-0.25695
-0.02981	0.12566
-0.36133	0.02363
-0.23382	-0.10391
-0.05531	0.30422
-0.18282	0.53379
0.55673	-0.61406
0.19971	-0.76711
1.65330	0.27871
-0.61635	0.20219
0.19971	0.30422
0.96476	0.94191
0.09770	0.58480
-0.20832	0.32972
-0.05531	0.17668
-0.36133	0.15117
-0.46334	-0.30797
-0.41233	0.25320
-0.71835	0.20219
0.99026	0.22769
1.04126	-0.15492
-0.00431	-0.43551
-0.41233	-0.25695
0.40372	-0.18043
0.17421	0.32972
-0.13181	0.50828
1.01576	0.55929
1.09226	0.50828
-0.28482	0.17668
0.12320	0.22769
0.19971	-0.05289
0.12320	0.10015
0.09770	0.25320
0.02119	0.53379
-0.08081	0.25320
0.30171	-0.25695
0.42922	-0.35899
-0.10631	-0.25695
0.50573	0.20219
0.17421	0.66132
0.40372	0.86539
0.68424	-0.00188
-0.00431	0.50828
-0.20832	0.61031
-0.18282	0.53379
-0.10631	-0.46102
0.27621	-0.35899
0.58223	0.35523
0.37822	0.63582
0.07220	0.25320
0.27621	0.22769
0.40372	0.20219
-0.33583	-0.41000
0.12320	-0.30797
0.55673	0.55929
1.39828	-0.07840
-0.64185	0.27871
-0.02981	0.12566
0.14870	0.53379
-0.00431	0.40625
0.50573	0.40625
0.40372	0.02363
-0.48884	-0.28246
-0.59084	-0.15492
-0.99887	0.32972
0.58223	-0.15492
1.29628	-0.05289
0.22521	0.15117
-0.08081	0.10015
0.07220	0.25320
0.04670	0.12566
0.12320	0.04914
-0.00431	-0.35899
0.07220	0.10015
0.22521	-0.30797
0.09770	-0.25695
0.09770	0.35523
0.19971	0.53379
0.27621	0.50828
0.25071	-0.12942
0.12320	0.15117
0.07220	0.35523
-0.13181	-0.28246
0.37822	0.15117
0.04670	-0.18043
0.14870	0.76336
0.02119	0.73785
0.42922	0.63582
0.32721	0.10015
0.02119	-0.02739
-0.15732	-0.07840
-0.25932	0.35523
0.50573	0.61031
0.12320	-0.66508
0.09770	-0.84363
0.19971	-0.94566
0.53123	0.35523
0.07220	0.83988
0.53123	0.43176
0.88825	0.55929
-0.36133	0.35523
0.12320	0.27871
-0.18282	0.17668
0.45472	0.17668
0.32721	0.10015
-0.48884	0.20219
1.01576	0.30422
1.78081	-0.18043
0.19971	0.02363
-0.56534	0.04914
-1.12638	0.12566
-0.53984	-0.10391
-0.46334	-0.12942
0.32721	0.12566
0.27621	0.35523
0.30171	0.35523
0.42922	0.25320
0.37822	0.35523
0.27621	0.17668
0.35272	0.15117
0.09770	0.50828
0.07220	-0.05289
0.12320	-0.71609
-0.10631	0.04914
0.17421	0.66132
0.09770	-0.48652
-0.00431	-0.84363
0.27621	-0.07840
0.30171	1.29902
-0.05531	1.12046
-0.18282	0.10015
0.22521	-0.18043
0.32721	0.30422
-0.10631	0.35523
0.25071	0.20219
-0.08081	-0.18043
0.19971	0.04914
0.22521	-0.05289
-0.02981	-0.05289
0.40372	0.38074
0.78624	0.86539
-0.28482	-0.33348
0.25071	-0.38449
-0.36133	0.12566
-0.08081	0.04914
0.19971	0.15117
0.50573	0.91640
0.42922	0.12566
0.30171	-0.05289
0.04670	-0.20594
-0.00431	0.15117
-0.41233	0.45726
0.70974	-0.15492
0.09770	-0.33348
-0.33583	0.32972
-0.13181	0.50828
-0.25932	0.53379
0.27621	0.35523
0.42922	0.20219
0.40372	-0.15492
0.19971	0.12566
0.12320	0.20219
0.53123	0.04914
0.27621	0.30422
0.04670	0.02363
-0.02981	-0.33348
-0.08081	-0.00188
-0.31033	0.15117
0.32721	0.04914
0.09770	0.38074
-0.48884	0.71234
1.24527	-0.10391
2.01032	0.02363
-0.36133	-0.41000
-0.43783	0.27871
-0.79486	0.76336
-0.08081	0.63582
0.27621	-0.23145
0.19971	-0.07840
0.09770	0.38074
-0.08081	0.43176
0.19971	0.96742
0.22521	-0.38449
0.19971	-0.38449
-0.00431	0.15117
0.58223	0.61031
0.40372	0.63582
0.60773	-0.43551
0.50573	-0.10391
0.22521	0.10015
0.07220	0.20219
-0.05531	0.58480
0.02119	0.71234
-0.13181	-0.02739
-0.00431	0.07465
-0.00431	-0.41000
0.45472	0.22769
-0.33583	-0.05289
-0.02981	0.02363
0.02119	-0.56305
0.68424	-0.18043
0.04670	0.40625
-0.74385	0.43176
0.19971	0.53379
1.11776	0.30422
0.04670	0.10015
0.37822	0.48277
-0.51434	-0.76711
0.17421	-0.61406
0.19971	0.35523
0.09770	0.22769
-0.00431	-0.10391
-0.08081	0.10015
-0.00431	0.40625
0.76074	0.40625
0.17421	0.40625
0.07220	0.20219
0.63323	-0.10391
0.27621	-0.00188
-0.33583	-0.33348
-0.15732	-0.00188
-0.15732	0.04914
-0.92237	-0.02739
0.78624	0.02363
1.29628	-0.15492
0.19971	0.25320
-0.18282	0.76336
-0.33583	0.25320
-0.31033	0.50828
0.81175	0.40625
0.07220	0.07465
-0.15732	0.25320
0.07220	0.04914
1.44929	-0.23145
-0.13181	-0.00188
-0.00431	-0.15492
0.04670	0.53379
-0.05531	0.73785
0.25071	0.30422
0.12320	-0.05289
0.22521	0.48277
0.40372	-0.10391
0.37822	0.04914
0.19971	0.20219
0.07220	-0.05289
0.40372	0.04914
0.48022	0.53379
0.22521	0.07465
-0.20832	-0.10391
-0.15732	0.12566
0.17421	0.55929
-0.00431	0.45726
-0.10631	-0.02739
0.19971	-0.30797
0.12320	-0.05289
0.37822	0.27871
0.32721	0.45726
0.35272	0.45726
0.25071	-0.07840
0.17421	-0.02739
0.02119	0.12566
-0.43783	0.04914
0.14870	-0.23145
0.68424	0.17668
-0.38683	-0.07840
-0.66735	0.12566
0.81175	0.48277
1.34728	0.50828
-0.08081	0.30422
-0.43783	-0.12942
-0.41233	-0.10391
0.91375	0.53379
0.37822	-0.33348
-0.38683	-0.05289
0.04670	-0.28246
0.02119	0.35523
-0.00431	0.71234
-0.05531	0.63582
-0.02981	-0.02739
0.70974	0.30422
1.11776	0.12566
-0.33583	-0.00188
0.53123	0.25320
0.76074	0.07465
-0.38683	0.07465
0.40372	-0.12942
-0.94787	0.45726
-0.13181	-0.23145
1.42379	0.07465
-0.28482	-0.41000
-0.38683	-0.38449
-0.18282	0.50828
-0.18282	1.04394
-0.05531	-0.05289
0.22521	-0.63957
0.32721	-0.58856
0.58223	0.55929
1.24527	0.94191
-0.02981	1.06945
-0.08081	0.66132
0.22521	0.27871
-0.13181	-0.15492
-0.00431	-0.25695
0.14870	-0.02739
0.22521	0.32972
0.07220	-0.07840
0.70974	-0.12942
0.76074	-0.07840
0.04670	-0.05289
-0.31033	-0.07840
-0.61635	0.15117
-0.02981	0.25320
0.35272	0.20219
-0.31033	-0.12942
1.16877	0.27871
1.06676	0.17668
-0.28482	0.07465
0.19971	0.66132
-0.31033	0.40625
-0.31033	0.07465
-0.00431	-0.46102
0.12320	-0.10391
0.14870	0.45726
0.22521	0.25320
0.12320	0.12566
-0.56534	-0.10391
0.73524	0.43176
1.21977	0.32972
-0.15732	0.20219
0.07220	0.25320
-0.48884	-0.05289
0.48022	0.20219
0.19971	-0.41000
-0.10631	-0.28246
-0.82036	-0.33348
-0.18282	-0.23145
0.27621	0.76336
0.09770	-0.07840
0.27621	0.35523
0.22521	-0.05289
-0.05531	0.83988
0.27621	-0.12942
0.27621	-0.02739
0.30171	-0.25695
0.37822	0.27871
0.30171	1.06945
0.19971	0.32972
0.12320	0.07465
0.09770	-0.46102
-0.23382	-0.79262
-0.05531	-0.51203
0.07220	0.12566
-0.15732	0.27871
0.25071	0.45726
-0.00431	-0.05289
0.07220	0.53379
0.53123	0.45726
0.37822	0.40625
0.99026	0.50828
0.35272	-0.02739
-0.18282	-0.25695
-0.43783	0.68683
-0.00431	0.32972
0.48022	-0.20594
-0.33583	-0.74160
-0.51434	-0.33348
0.07220	0.25320
0.73524	0.63582
0.55673	0.63582
0.27621	0.63582
0.78624	0.25320
-0.25932	0.02363
-0.10631	0.04914
0.04670	-0.28246
0.14870	-0.18043
-0.66735	0.07465
1.55129	0.25320
1.27078	-0.02739
-0.71835	0.10015
-0.00431	0.32972
-0.08081	0.50828
-0.18282	0.07465
-0.00431	-0.02739
-0.84586	0.20219
0.04670	-0.15492
1.83181	-0.53754
0.53123	0.27871
-0.00431	0.81437
0.12320	0.78886
0.19971	0.25320
-0.28482	-0.33348
-0.18282	-0.12942
-0.02981	-0.15492
0.09770	-0.38449
0.37822	0.04914
0.45472	0.63582
0.02119	0.35523
0.42922	0.73785
0.17421	0.38074
0.14870	0.55929
0.19971	-0.15492
0.12320	0.30422
0.07220	-0.56305
-0.00431	0.02363
-0.28482	-0.61406
0.02119	0.40625
0.22521	0.58480
0.19971	0.25320
-0.00431	-0.07840
0.60773	0.27871
-0.10631	0.45726
0.02119	-0.15492
0.12320	-0.05289
-0.05531	0.10015
1.06676	0.40625
-0.05531	0.27871
0.12320	0.30422
0.22521	0.25320
0.22521	0.45726
-0.46334	0.12566
-0.28482	0.15117
-0.08081	-0.18043
0.07220	-0.02739
0.14870	0.07465
0.35272	-0.00188
0.32721	-0.10391
0.19971	0.07465
-0.02981	0.45726
0.50573	0.12566
0.40372	0.22769
0.02119	-0.00188
0.35272	0.25320
0.30171	0.96742
-0.18282	0.32972
0.12320	0.22769
0.07220	-0.43551
-0.05531	-0.66508
0.07220	-0.48652
-0.05531	0.45726
0.19971	0.99292
0.04670	0.73785
-0.00431	-0.02739
-0.08081	0.20219
0.17421	0.35523
0.27621	0.17668
0.35272	0.02363
0.09770	0.17668
0.07220	0.20219
0.73524	-0.07840
0.25071	-0.38449
0.17421	-0.30797
-0.71835	0.30422
-0.59084	0.40625
1.09226	0.58480
0.04670	0.22769
-0.53984	0.22769
0.70974	0.12566
1.42379	0.10015
-0.10631	0.20219
-0.51434	0.10015
-0.51434	0.17668
-0.31033	0.12566
0.27621	0.10015
0.48022	0.04914
0.58223	-0.05289
0.22521	0.07465
-0.08081	0.17668
-0.25932	0.17668
-0.02981	0.04914
0.45472	0.04914
0.40372	0.32972
-0.08081	0.17668
0.63323	-0.05289
1.14327	0.10015
-0.05531	0.27871
-0.15732	0.32972
-0.97337	0.50828
1.01576	0.55929
0.70974	0.25320
-0.13181	0.38074
-0.56534	-1.04770
0.17421	0.20219
0.27621	0.20219
0.22521	0.58480
0.25071	0.83988
-0.10631	0.25320
0.07220	-0.23145
0.55673	-0.56305
-0.00431	-0.66508
0.04670	-0.43551
0.04670	0.30422
0.02119	1.19699
0.02119	1.01843
0.07220	-0.05289
0.02119	-0.07840
0.17421	-0.20594
0.22521	-0.05289
0.48022	-0.00188
0.40372	0.66132
-0.00431	-0.28246
-0.08081	-0.10391
0.17421	0.35523
0.02119	-0.12942
-0.25932	-0.53754
-0.23382	-0.05289
-0.10631	0.50828
0.76074	0.45726
0.35272	0.12566
-0.08081	0.10015
-0.15732	0.58480
-0.53984	0.35523
1.29628	0.22769
1.42379	0.15117
0.12320	0.15117
-0.25932	0.04914
-0.43783	0.15117
-0.00431	0.17668
1.04126	0.17668
0.76074	0.07465
0.19971	0.04914
-0.61635	0.20219
-0.46334	0.17668
-0.08081	0.04914
0.02119	0.02363
0.19971	-0.61406
0.42922	0.15117
0.17421	0.45726
0.17421	0.40625
0.40372	0.35523
0.45472	0.83988
0.12320	0.15117
0.02119	-0.25695
-0.05531	-0.18043
0.32721	0.17668
0.35272	0.45726
-0.08081	0.22769
-0.18282	0.58480
-0.00431	-0.61406
0.09770	-0.41000
0.22521	-0.38449
-0.00431	0.25320
0.02119	-0.05289
-0.28482	0.02363
0.83725	0.55929
0.73524	0.53379
-0.18282	0.53379
-0.02981	0.55929
0.55673	0.27871
0.19971	0.25320
-0.02981	0.02363
0.12320	-0.02739
0.25071	-0.66508
0.12320	0.43176
0.32721	-0.12942
0.14870	-0.84363
-0.05531	0.15117
0.17421	0.43176
0.48022	0.55929
0.17421	-0.15492
0.22521	0.25320
-0.48884	0.35523
-0.08081	0.40625
0.07220	0.30422
0.48022	0.22769
0.55673	0.17668
-0.28482	0.43176
0.22521	0.35523
1.14327	0.20219
-0.00431	-0.10391
-0.23382	-0.02739
-0.13181	-0.10391
-0.28482	-0.00188
-0.36133	0.07465
1.01576	-0.07840
0.35272	0.48277
-0.08081	0.45726
-0.00431	0.45726
0.14870	-0.25695
0.27621	0.07465
0.27621	0.15117
0.02119	-0.20594
0.19971	0.02363
0.07220	0.58480
0.27621	0.66132
0.25071	-0.25695
0.09770	-0.69059
0.12320	0.15117
0.19971	0.76336
0.27621	-0.12942
0.07220	-0.51203
0.07220	0.40625
0.04670	1.06945
0.02119	0.91640
0.09770	-0.12942
0.14870	0.22769
-0.05531	-0.48652
0.32721	0.12566
0.70974	-0.41000
-0.41233	0.32972
-0.59084	-0.15492
0.22521	0.15117
0.40372	-0.28246
0.04670	0.35523
-0.25932	0.17668
1.04126	0.10015
0.32721	0.30422
0.07220	0.10015
-0.02981	0.15117
-0.69285	0.30422
0.45472	0.12566
1.52579	0.04914
0.12320	0.07465
-0.28482	0.04914
-0.10631	0.04914
-0.20832	0.04914
-0.36133	0.10015
-0.31033	0.22769
0.19971	0.04914
0.42922	0.02363
0.53123	0.07465
0.42922	0.40625
0.22521	0.22769
-0.00431	0.10015
0.02119	-0.46102
0.14870	-0.05289
0.58223	-0.07840
0.19971	-0.71609
0.25071	0.10015
0.14870	0.58480
0.09770	1.24800
0.04670	0.86539
0.19971	0.76336
0.04670	0.15117
-0.02981	-0.53754
0.04670	0.22769
-0.05531	0.76336
0.27621	-0.35899
0.27621	-0.30797
0.27621	-0.23145
0.02119	0.07465
-0.05531	0.63582
-0.00431	0.27871
0.30171	-0.10391
-0.08081	0.07465
0.12320	-0.20594
-0.28482	-0.05289
-0.13181	-0.00188
1.90832	0.32972
0.70974	0.38074
-0.31033	0.32972
-0.56534	0.15117
-0.20832	0.27871
-0.00431	0.15117
0.07220	0.15117
-0.08081	0.07465
0.17421	-0.05289
0.17421	0.12566
0.53123	0.22769
0.63323	0.22769
0.17421	0.07465
-0.74385	0.20219
0.22521	0.04914
0.37822	0.15117
1.14327	0.12566
-0.18282	0.07465
-0.00431	0.20219
-0.15732	0.20219
-0.36133	-0.15492
-0.18282	0.15117
-0.46334	-0.05289
1.29628	0.86539
0.73524	-0.02739
0.09770	0.22769
-0.18282	-0.61406
-0.25932	0.89089
0.04670	0.63582
0.12320	0.04914
0.42922	-0.76711
0.30171	0.07465
0.35272	0.89089
0.25071	0.61031
0.12320	0.25320
0.07220	0.55929
0.14870	0.12566
-0.15732	-0.61406
0.12320	-0.53754
0.14870	-0.02739
0.19971	0.53379
0.35272	0.17668
-0.38683	0.22769
0.73524	0.40625
0.27621	0.35523
0.07220	0.20219
0.53123	0.17668
-0.94787	0.10015
-0.56534	0.43176
1.24527	0.10015
2.64786	-0.92016
-0.28482	-0.66508
-0.89686	0.20219
-0.89686	0.63582
-0.51434	0.40625
-0.13181	0.10015
0.73524	0.63582
0.19971	0.61031
0.35272	0.35523
0.60773	0.27871
0.17421	-0.02739
-0.00431	-0.10391
-0.05531	-0.10391
0.02119	-0.15492
0.02119	0.17668
0.30171	-0.10391
0.50573	0.15117
0.09770	0.15117
0.17421	0.61031
0.14870	0.40625
0.07220	-0.51203
0.12320	-0.05289
0.07220	1.14597
-0.08081	0.61031
-0.02981	-0.33348
-0.13181	-1.17523
-0.00431	-0.30797
0.12320	1.06945
0.07220	0.91640
1.04126	-0.05289
0.35272	0.25320
-0.05531	-0.12942
-0.82036	0.25320
0.48022	0.20219
1.21977	-0.00188
-0.15732	0.55929
-0.33583	0.53379
0.12320	-0.12942
0.09770	-0.20594
0.65874	-0.05289
-0.43783	0.48277
-0.33583	-0.41000
0.40372	-0.02739
0.09770	0.25320
0.76074	0.40625
0.58223	-0.18043
-0.20832	0.25320
0.02119	0.48277
0.27621	0.45726
0.04670	0.68683
-0.08081	-0.05289
0.32721	0.43176
0.68424	0.22769
-0.15732	0.02363
-0.15732	-0.05289
-0.25932	0.12566
-0.41233	0.02363
0.27621	-0.05289
0.48022	-0.12942
1.65330	0.15117
0.55673	0.25320
-0.71835	-0.00188
-0.20832	0.35523
-0.10631	-0.12942
0.07220	0.07465
-0.05531	0.15117
0.07220	0.61031
0.25071	0.30422
0.48022	0.35523
0.32721	0.17668
0.12320	-0.23145
0.27621	-0.10391
0.19971	0.40625
0.02119	0.63582
-0.08081	0.15117
0.02119	0.15117
0.22521	-0.07840
0.32721	0.76336
0.17421	-0.58856
0.17421	-0.20594
-0.08081	-1.12422
-0.20832	0.38074
0.22521	1.17148
0.27621	0.81437
-0.08081	0.07465
-0.10631	-0.28246
0.42922	0.48277
0.19971	0.45726
0.76074	0.55929
0.02119	0.45726
0.22521	0.55929
-0.66735	0.02363
-0.02981	-1.17523
0.99026	0.02363
0.76074	0.22769
0.19971	1.12046
-0.33583	-0.69059
-0.41233	-0.89465
-0.20832	-0.86914
0.53123	0.89089
0.22521	0.91640
0.09770	0.86539
0.58223	0.20219
0.53123	0.15117
-0.20832	0.10015
-0.36133	0.22769
0.02119	0.30422
0.25071	0.30422
0.12320	-0.02739
0.50573	0.17668
0.63323	0.04914
-0.05531	-0.28246
0.45472	-0.00188
0.50573	0.02363
-0.66735	0.15117
-0.61635	0.12566
0.42922	0.32972
0.45472	0.35523
0.32721	-0.02739
0.30171	0.22769
0.14870	0.35523
-0.20832	0.81437
-0.59084	-0.28246
1.01576	0.25320
0.40372	-0.05289
-0.41233	0.02363
-0.02981	-0.02739
0.12320	-0.28246
0.40372	0.30422
0.12320	0.04914
0.25071	0.55929
-0.00431	0.50828
-0.20832	0.66132
0.22521	0.91640
0.22521	-0.02739
0.37822	-0.71609
0.55673	-0.35899
0.04670	0.58480
-0.36133	0.35523
0.07220	-0.18043
-0.02981	-0.35899
0.02119	-0.41000
0.81175	0.38074
0.53123	0.25320
0.02119	0.50828
-0.15732	0.17668
-0.10631	0.35523
-0.13181	0.50828
-0.13181	0.10015
0.91375	-0.05289
0.53123	-0.25695
-0.23382	-0.15492
-0.28482	0.43176
0.35272	0.63582
0.91375	0.40625
-0.28482	0.04914
-0.51434	-0.02739
-0.23382	0.20219
0.60773	0.17668
0.02119	0.02363
0.02119	0.17668
0.58223	0.12566
0.42922	0.07465
-0.28482	-0.00188
0.50573	0.02363
0.07220	-0.05289
-0.18282	0.17668
-0.41233	0.15117
-0.05531	-0.05289
0.17421	0.61031
0.81175	0.40625
0.40372	0.40625
0.14870	0.15117
0.02119	-0.89465
-0.00431	0.61031
0.19971	-0.02739
0.09770	-0.41000
0.09770	-0.15492
0.09770	0.50828
0.12320	0.53379
0.19971	0.50828
0.27621	0.43176
0.09770	0.35523
0.02119	0.45726
0.19971	0.02363
0.02119	0.10015
0.12320	-0.53754
0.25071	-0.41000
0.27621	0.43176
0.07220	0.15117
0.14870	0.07465
-0.10631	0.12566
-0.20832	0.04914
1.37278	0.17668
0.32721	-0.05289
-0.23382	0.27871
-0.51434	0.55929
-0.41233	0.27871
0.83725	0.12566
0.35272	0.20219
-0.05531	0.22769
-0.38683	-0.07840
0.30171	0.10015
0.42922	0.27871
0.12320	0.12566
0.53123	-0.15492
0.19971	0.22769
-0.53984	0.17668
-0.51434	-0.66508
0.22521	-0.23145
0.86275	0.78886
0.81175	0.53379
0.02119	0.35523
-0.02981	0.32972
0.07220	-0.10391
-0.05531	0.10015
-0.00431	-0.15492
-0.05531	0.22769
-0.15732	-0.15492
1.11776	0.53379
0.22521	0.38074
0.40372	-0.15492
-0.20832	0.04914
-0.25932	0.55929
0.07220	0.53379
0.07220	-0.38449
-0.08081	-0.89465
0.37822	0.45726
0.27621	0.27871
0.12320	0.22769
0.14870	0.17668
0.02119	0.22769
0.30171	0.66132
0.25071	0.32972
0.07220	-0.07840
-0.02981	0.07465
0.09770	0.27871
-0.02981	0.35523
0.25071	-0.25695
0.35272	0.04914
0.35272	0.17668
-0.00431	-0.28246
0.02119	-0.00188
0.25071	0.40625
-0.08081	0.17668
-0.33583	0.22769
0.32721	0.45726
0.07220	0.02363
0.73524	0.15117
-0.53984	0.17668
0.12320	0.38074
0.48022	0.20219
0.07220	0.43176
0.53123	-0.35899
0.73524	-0.38449
0.27621	-0.12942
-0.23382	0.25320
-0.46334	0.10015
0.78624	0.17668
0.32721	0.40625
0.12320	0.45726
-0.02981	0.25320
-0.08081	-0.05289
0.09770	0.30422
-0.08081	0.30422
0.35272	0.71234
-0.02981	-0.35899
-0.00431	-0.20594
0.40372	-0.25695
0.19971	0.40625
0.17421	0.22769
0.17421	0.15117
0.07220	0.43176
0.14870	0.32972
-0.00431	0.20219
0.14870	0.22769
0.19971	0.50828
-0.02981	-0.35899
0.40372	-0.23145
0.09770	0.30422
-0.00431	0.22769
0.07220	0.48277
0.02119	0.86539
-0.33583	-0.05289
-0.02981	-0.15492
0.65874	-0.33348
0.22521	-0.53754
0.37822	-0.20594
-1.12638	0.12566
0.45472	0.76336
1.09226	0.40625
0.50573	0.35523
-0.23382	-0.35899
0.09770	0.17668
0.22521	0.50828
-0.00431	0.25320
-0.25932	-0.00188
-0.28482	0.45726
0.50573	0.63582
0.42922	0.10015
1.16877	-0.25695
0.09770	-0.05289
-0.31033	0.04914
-0.33583	0.27871
-0.23382	0.30422
-0.31033	0.04914
-0.02981	0.45726
0.17421	-0.28246
0.27621	-0.81812
0.17421	0.38074
0.45472	1.09496
0.37822	0.40625
0.32721	0.30422
0.14870	-1.02219
0.19971	-0.30797
0.17421	0.55929
0.14870	0.55929
0.22521	0.40625
-0.00431	-0.02739
0.14870	0.50828
0.19971	0.55929
0.27621	0.32972
0.14870	0.02363
0.09770	0.30422
0.27621	0.07465
0.17421	-0.25695
-0.36133	-0.53754
-0.74385	-0.25695
0.07220	0.20219
2.34184	0.43176
-0.13181	0.35523
-0.43783	0.25320
-0.23382	0.07465
0.76074	0.15117
-0.23382	0.20219
0.07220	0.04914
-0.10631	-0.00188
-0.89686	-0.05289
0.60773	0.40625
0.93925	0.20219
0.70974	0.45726
0.63323	0.32972
0.35272	-0.25695
-0.00431	-0.28246
0.02119	0.22769
-0.05531	0.35523
-0.33583	0.30422
0.45472	0.02363
0.19971	0.02363
0.22521	0.32972
0.22521	0.94191
-0.02981	0.43176
0.07220	-0.05289
0.22521	-0.69059
0.02119	-0.25695
-0.33583	-0.02739
0.14870	0.66132
0.42922	0.55929
0.37822	-0.28246
0.04670	0.66132
0.19971	0.53379
0.30171	-0.20594
0.22521	0.04914
0.12320	-0.05289
0.02119	0.25320
-0.00431	-0.05289
-0.00431	0.15117
0.48022	-0.10391
0.55673	0.20219
1.11776	0.55929
-0.08081	0.32972
-0.43783	0.15117
-0.36133	0.04914
0.14870	0.45726
0.50573	0.25320
0.48022	-0.23145
-0.53984	0.07465
0.68424	0.55929
0.22521	0.30422
0.83725	0.27871
0.17421	0.32972
-0.33583	-0.02739
-0.48884	-0.00188
0.02119	-0.05289
0.09770	-0.10391
0.19971	-0.00188
0.96476	0.17668
0.40372	0.07465
-0.23382	-0.05289
-0.18282	0.04914
0.60773	0.35523
