0.07220	0.20219
0.04670	0.04914
-0.05531	0.22769
0.12320	0.25320
0.19971	0.25320
0.14870	0.10015
0.12320	0.04914
0.07220	0.12566
0.32721	0.15117
0.09770	0.25320
0.14870	0.15117
-0.00431	0.17668
0.02119	0.20219
0.42922	0.04914
0.17421	0.15117
0.14870	0.10015
0.14870	0.17668
0.09770	0.20219
-0.10631	0.10015
-0.00431	-0.15492
0.30171	0.10015
0.25071	0.30422
0.02119	0.27871
0.30171	0.30422
0.25071	0.15117
0.09770	0.12566
0.17421	0.27871
0.30171	0.02363
-0.36133	0.07465
0.14870	0.20219
0.09770	-0.02739
0.19971	-0.07840
0.12320	0.22769
0.07220	0.27871
0.14870	0.30422
0.22521	0.32972
0.22521	0.20219
0.19971	0.10015
0.22521	0.04914
0.07220	0.02363
0.09770	0.17668
0.14870	0.25320
0.12320	0.15117
0.07220	0.12566
0.12320	0.22769
0.12320	0.10015
0.07220	0.17668
0.17421	0.17668
0.17421	0.10015
-0.00431	0.07465
0.14870	0.20219
0.25071	0.04914
0.22521	0.15117
0.12320	0.25320
0.07220	0.15117
0.22521	0.02363
0.14870	0.02363
-0.25932	0.04914
0.19971	0.25320
0.30171	0.48277
0.14870	0.20219
0.35272	0.02363
0.25071	0.02363
0.07220	0.22769
0.09770	0.12566
-0.08081	0.04914
-0.13181	0.17668
0.17421	0.15117
0.32721	0.20219
0.37822	0.25320
0.02119	0.17668
0.07220	0.07465
0.04670	0.22769
0.22521	0.04914
0.27621	0.15117
0.19971	0.25320
0.09770	-0.00188
0.04670	-0.12942
0.30171	-0.02739
0.19971	0.04914
0.14870	0.32972
0.12320	0.35523
0.04670	0.17668
0.30171	0.30422
-0.05531	0.07465
-0.05531	0.22769
0.17421	0.12566
0.22521	0.12566
0.12320	0.20219
0.22521	0.27871
0.09770	0.10015
0.22521	0.04914
0.22521	-0.05289
0.17421	0.20219
0.12320	0.10015
0.02119	0.20219
0.19971	0.22769
0.22521	-0.05289
0.14870	0.10015
0.02119	0.10015
-0.08081	0.20219
0.14870	0.32972
0.22521	0.27871
0.27621	0.25320
0.04670	0.12566
0.02119	0.04914
0.09770	0.12566
0.22521	0.02363
0.09770	0.02363
0.14870	0.17668
0.19971	0.45726
-0.08081	-0.05289
0.19971	0.02363
0.19971	0.07465
0.22521	0.43176
-0.00431	0.22769
0.19971	0.07465
0.12320	0.27871
0.12320	0.15117
0.12320	0.45726
0.25071	0.12566
0.14870	0.07465
0.02119	-0.10391
0.19971	0.04914
0.12320	0.02363
0.35272	0.20219
0.12320	0.17668
0.12320	0.25320
-0.02981	0.27871
0.07220	0.17668
0.30171	0.15117
0.14870	-0.05289
0.32721	0.17668
0.09770	0.17668
0.07220	0.20219
0.02119	0.22769
0.09770	0.02363
0.19971	0.04914
0.25071	0.22769
0.30171	0.25320
0.17421	0.15117
0.22521	0.12566
-0.20832	0.15117
0.07220	-0.05289
0.25071	0.20219
-0.00431	0.07465
0.14870	0.25320
0.17421	0.15117
0.22521	0.15117
0.09770	-0.00188
0.17421	0.30422
0.25071	0.15117
0.07220	0.25320
0.02119	-0.00188
0.09770	0.15117
0.14870	-0.05289
0.22521	0.22769
0.19971	0.20219
0.09770	0.38074
0.09770	0.22769
0.32721	0.07465
0.07220	0.20219
0.09770	0.07465
0.17421	-0.07840
0.14870	-0.18043
-0.10631	0.43176
0.02119	0.38074
0.42922	0.20219
0.04670	0.10015
0.19971	0.12566
0.12320	0.04914
0.17421	-0.05289
0.12320	0.12566
-0.00431	0.40625
0.17421	0.25320
0.22521	0.10015
0.17421	-0.02739
0.22521	0.10015
0.17421	0.30422
0.12320	0.20219
0.04670	0.12566
0.09770	0.22769
0.30171	0.20219
0.12320	-0.20594
0.12320	-0.00188
0.12320	0.02363
0.07220	0.25320
0.17421	0.22769
0.04670	0.22769
0.19971	0.48277
0.12320	0.27871
0.12320	-0.02739
0.12320	-0.18043
0.12320	0.10015
-0.08081	0.07465
0.14870	0.17668
0.25071	0.22769
0.32721	0.17668
0.27621	0.12566
0.12320	0.30422
-0.00431	0.22769
-0.13181	0.07465
0.12320	0.10015
0.32721	0.15117
0.22521	0.04914
0.32721	-0.10391
0.09770	0.25320
0.09770	0.30422
0.09770	0.22769
0.07220	0.17668
0.09770	0.20219
0.09770	0.04914
0.12320	0.22769
0.04670	0.07465
0.32721	0.15117
0.14870	0.10015
0.19971	0.22769
0.07220	0.15117
0.19971	0.20219
0.09770	-0.02739
0.22521	0.22769
0.02119	0.15117
0.17421	0.07465
0.17421	0.12566
0.17421	0.15117
-0.08081	0.15117
0.27621	0.07465
0.12320	-0.05289
0.27621	0.02363
0.17421	0.35523
0.09770	0.25320
0.02119	0.32972
0.37822	0.17668
0.32721	0.10015
-0.08081	0.15117
0.02119	0.12566
0.14870	0.10015
0.25071	0.10015
0.25071	0.17668
0.12320	0.07465
0.12320	0.12566
0.22521	0.22769
0.09770	0.07465
0.04670	0.27871
0.25071	0.15117
0.14870	-0.07840
0.09770	0.10015
0.22521	0.30422
0.22521	0.20219
0.07220	0.20219
0.02119	0.30422
0.07220	0.07465
0.25071	0.10015
0.17421	-0.05289
0.22521	0.32972
0.09770	0.07465
0.22521	0.15117
-0.31033	0.12566
0.02119	0.27871
0.25071	0.10015
0.32721	0.02363
0.32721	0.10015
0.19971	0.22769
0.22521	0.27871
0.12320	0.10015
0.09770	0.25320
0.12320	-0.02739
0.17421	0.22769
0.04670	0.20219
0.19971	0.17668
0.04670	0.12566
0.14870	0.15117
0.07220	0.15117
0.12320	0.02363
0.22521	0.17668
0.19971	0.04914
0.14870	0.20219
0.14870	0.15117
0.22521	0.22769
0.14870	0.30422
0.12320	0.12566
0.09770	-0.00188
0.12320	0.02363
0.14870	0.22769
0.02119	0.17668
0.09770	0.10015
0.45472	0.17668
0.37822	0.15117
0.04670	0.04914
0.07220	0.15117
0.12320	0.25320
-0.13181	0.12566
0.22521	-0.05289
0.25071	-0.15492
0.02119	0.35523
0.19971	0.10015
0.12320	0.20219
0.09770	0.12566
0.25071	0.25320
0.22521	0.10015
0.37822	0.20219
-0.08081	0.17668
-0.08081	-0.00188
0.12320	0.04914
0.30171	0.15117
0.22521	0.10015
0.14870	0.20219
0.27621	0.10015
0.25071	0.02363
-0.05531	0.10015
-0.05531	0.32972
0.17421	0.17668
0.04670	0.27871
0.22521	0.25320
0.22521	0.12566
0.07220	0.17668
0.14870	0.15117
0.22521	0.07465
0.12320	-0.07840
0.09770	-0.00188
0.09770	0.35523
0.14870	0.25320
0.12320	0.25320
0.04670	0.25320
0.19971	0.10015
0.17421	0.15117
0.02119	-0.10391
0.12320	-0.10391
0.17421	0.12566
0.30171	0.25320
0.14870	0.22769
0.07220	0.17668
0.07220	0.20219
0.12320	0.10015
0.17421	0.22769
0.19971	0.27871
0.19971	0.17668
0.07220	-0.00188
0.17421	0.07465
0.22521	-0.10391
0.12320	0.17668
-0.20832	0.15117
0.14870	0.27871
0.17421	0.22769
0.32721	0.30422
0.27621	0.04914
0.14870	0.10015
0.12320	0.02363
0.14870	0.15117
0.02119	0.17668
0.12320	0.25320
0.37822	0.17668
0.09770	0.15117
-0.10631	0.12566
-0.08081	0.04914
0.22521	0.17668
0.32721	0.02363
0.30171	0.17668
0.14870	0.04914
0.02119	0.15117
0.30171	0.25320
0.17421	0.20219
0.02119	0.07465
0.04670	0.12566
0.22521	0.17668
0.09770	0.07465
0.14870	0.04914
0.22521	0.10015
0.12320	0.12566
-0.00431	0.10015
0.14870	0.15117
0.22521	0.02363
0.14870	0.27871
-0.00431	0.30422
0.22521	0.20219
0.14870	0.02363
0.09770	-0.25695
0.19971	0.30422
0.12320	0.35523
0.17421	0.07465
0.25071	-0.12942
0.09770	0.22769
0.14870	0.22769
0.14870	0.32972
0.04670	0.30422
0.04670	0.22769
0.27621	0.12566
-0.18282	0.07465
0.14870	-0.18043
0.17421	-0.33348
0.07220	0.12566
0.30171	0.35523
0.32721	0.43176
-0.13181	0.27871
0.17421	0.12566
0.09770	0.10015
0.22521	0.10015
0.22521	0.22769
0.35272	0.35523
0.04670	-0.00188
0.17421	-0.30797
-0.00431	-0.12942
0.07220	-0.12942
-0.08081	0.32972
0.12320	0.15117
0.04670	0.25320
0.19971	0.02363
0.09770	0.43176
0.22521	0.22769
0.17421	0.35523
0.17421	-0.00188
0.17421	0.15117
0.25071	0.07465
0.19971	0.61031
0.17421	0.43176
0.09770	-0.18043
-0.08081	0.53379
-0.02981	0.22769
0.12320	-0.58856
0.42922	-1.22625
0.09770	-0.89465
0.22521	0.66132
0.22521	0.63582
0.09770	0.94191
0.19971	0.68683
0.27621	0.15117
0.07220	-0.00188
0.22521	-0.33348
0.17421	0.02363
-0.00431	0.32972
-0.25932	0.22769
-0.25932	0.35523
0.30171	-0.05289
0.19971	-0.18043
0.40372	-0.05289
0.22521	0.10015
0.07220	0.27871
0.04670	0.25320
0.25071	0.55929
0.30171	0.12566
0.12320	0.30422
0.09770	-0.28246
0.12320	0.86539
0.07220	-0.25695
0.17421	-0.84363
0.02119	-1.35379
0.30171	0.66132
0.09770	1.47757
0.25071	0.66132
0.17421	1.17148
0.02119	-0.00188
0.04670	0.48277
0.09770	0.10015
0.25071	-0.97117
0.25071	-1.12422
0.07220	-1.22625
0.17421	0.99292
0.07220	1.29902
0.19971	0.96742
0.07220	0.83988
0.07220	-0.10391
0.07220	0.04914
0.07220	-0.41000
0.17421	-0.74160
0.04670	-0.48652
0.22521	0.58480
0.40372	0.30422
0.58223	0.55929
0.02119	1.09496
0.32721	0.35523
0.22521	-0.51203
-0.20832	-0.25695
-0.18282	0.10015
0.04670	0.22769
0.17421	0.35523
0.60773	0.20219
-0.18282	0.30422
0.12320	0.45726
-0.10631	0.45726
0.22521	-0.10391
0.50573	-0.25695
0.78624	0.04914
0.02119	0.50828
0.65874	-0.07840
-0.66735	-0.66508
-0.69285	0.25320
0.32721	-0.15492
0.27621	0.20219
0.22521	0.73785
0.48022	0.17668
0.32721	0.55929
0.07220	0.58480
0.48022	0.20219
0.02119	-0.15492
-0.00431	0.00000
0.07220	0.00000
-0.02981	0.00000
-0.10631	0.00000
0.09770	0.00000
0.19971	0.00000
0.27621	0.12566
0.19971	0.50828
0.17421	0.45726
0.27621	-0.63957
0.40372	-0.94566
-0.10631	-0.41000
0.12320	0.66132
0.27621	-0.20594
0.12320	0.32972
0.14870	1.09496
0.09770	1.27351
-0.13181	0.35523
0.30171	0.45726
-0.08081	-0.66508
0.14870	-0.99668
0.48022	-0.89465
0.22521	0.10015
-0.08081	0.94191
-0.10631	0.86539
0.19971	0.38074
0.65874	0.78886
0.19971	0.32972
0.12320	0.17668
0.07220	-0.20594
0.17421	-0.18043
0.12320	0.17668
0.02119	-0.12942
0.02119	0.20219
0.09770	-0.25695
0.07220	0.50828
0.48022	-0.18043
0.32721	0.15117
-0.31033	-0.41000
0.25071	0.27871
0.22521	0.27871
0.12320	0.66132
0.02119	0.27871
-0.08081	0.35523
0.37822	-0.05289
0.07220	0.15117
0.07220	0.45726
0.09770	0.83988
0.22521	-0.02739
0.02119	-1.50683
0.17421	-0.74160
0.25071	0.15117
-0.02981	0.91640
-0.02981	0.48277
0.32721	1.12046
0.25071	1.01843
0.14870	0.53379
0.09770	0.20219
0.07220	-0.05289
0.30171	1.24800
0.14870	-0.25695
0.12320	-1.73640
0.42922	-1.68539
0.04670	-0.89465
-0.18282	0.20219
-0.08081	1.09496
-0.00431	1.47757
0.32721	1.32453
0.32721	0.55929
0.53123	0.61031
0.09770	0.22769
0.17421	-0.30797
0.35272	-0.33348
0.12320	-0.48652
-0.38683	0.17668
0.45472	0.17668
0.19971	0.15117
0.12320	0.17668
-0.00431	0.04914
-0.05531	-0.05289
0.04670	-0.10391
-0.05531	0.53379
-0.10631	0.27871
0.22521	0.20219
0.02119	-0.20594
-0.02981	0.53379
0.45472	0.55929
0.30171	0.96742
0.68424	-0.07840
0.22521	0.04914
0.37822	-0.66508
0.09770	-0.33348
0.17421	-0.63957
0.27621	0.66132
-0.05531	0.86539
-0.02981	0.40625
0.02119	0.25320
-0.18282	0.55929
-0.08081	0.78886
0.35272	0.10015
0.09770	-0.66508
0.17421	-0.23145
0.27621	0.02363
0.09770	-0.02739
-0.00431	0.68683
0.53123	0.32972
-0.20832	0.20219
-0.10631	-0.02739
0.50573	0.04914
0.12320	-0.48652
0.32721	-0.30797
0.12320	-0.07840
0.35272	0.32972
-0.51434	0.43176
-0.05531	0.10015
1.39828	1.47757
0.22521	-0.05289
-0.15732	-0.48652
-0.38683	-0.23145
-0.02981	0.53379
0.32721	0.78886
-0.36133	0.43176
0.65874	0.02363
0.53123	-0.61406
0.40372	-0.20594
-0.10631	0.58480
-0.08081	-0.00188
-0.02981	0.25320
0.07220	-0.30797
0.07220	-0.46102
0.48022	0.02363
0.04670	0.71234
0.25071	0.35523
0.02119	0.55929
0.37822	0.43176
0.14870	-0.28246
0.09770	-1.07320
0.27621	-0.76711
0.07220	0.20219
0.09770	0.99292
0.07220	1.12046
-0.08081	0.53379
0.19971	0.10015
0.19971	0.10015
0.04670	-0.25695
0.37822	0.43176
-0.31033	0.17668
-0.00431	-0.10391
0.65874	0.55929
-0.28482	-0.07840
-0.00431	-0.51203
0.58223	-0.58856
0.17421	-0.38449
0.35272	-0.02739
0.12320	0.78886
-0.41233	0.61031
0.27621	0.83988
0.02119	0.76336
-0.23382	0.25320
0.99026	-0.12942
0.17421	-0.79262
-0.53984	0.04914
0.17421	0.30422
0.07220	0.38074
-0.08081	0.50828
-0.08081	0.27871
0.63323	0.35523
0.73524	-0.02739
0.22521	-0.10391
0.04670	0.02363
-0.25932	-0.02739
-0.23382	0.66132
0.07220	-0.20594
0.83725	-0.05289
0.42922	-0.41000
0.02119	0.15117
0.27621	0.58480
-0.08081	-0.02739
0.17421	0.53379
0.07220	0.53379
0.25071	0.76336
0.12320	-0.35899
0.07220	-0.02739
0.32721	0.15117
0.12320	0.38074
0.04670	0.12566
0.17421	0.55929
0.19971	-0.38449
0.09770	-0.43551
0.32721	0.15117
-0.05531	0.07465
0.07220	0.43176
0.32721	1.09496
0.04670	0.04914
-0.13181	-0.53754
0.12320	-1.12422
1.24527	-0.02739
-0.28482	0.12566
0.04670	1.78367
0.12320	-0.10391
0.02119	0.63582
0.22521	0.02363
-0.20832	0.55929
0.02119	0.20219
0.55673	0.45726
0.09770	0.20219
0.32721	-0.18043
0.32721	-0.18043
-0.10631	-0.63957
-0.10631	0.27871
-0.10631	0.20219
0.12320	0.35523
0.17421	0.25320
0.02119	0.22769
0.30171	0.30422
0.12320	-1.20074
0.19971	0.38074
0.27621	0.32972
-0.08081	0.20219
0.53123	0.30422
0.65874	1.06945
0.25071	0.30422
-0.02981	0.45726
-0.00431	-0.35899
0.02119	-0.18043
0.07220	-0.25695
0.12320	0.07465
0.07220	0.17668
0.12320	0.43176
-0.05531	0.20219
0.09770	-0.02739
0.30171	0.15117
0.07220	0.35523
0.32721	-0.18043
0.35272	-0.07840
-0.00431	0.32972
0.02119	-0.46102
0.22521	0.17668
0.30171	0.32972
-0.05531	0.71234
0.32721	0.35523
0.09770	-0.23145
0.19971	0.27871
-0.18282	-0.71609
-0.02981	0.35523
0.73524	0.45726
0.19971	0.76336
0.30171	0.17668
-0.05531	0.32972
-0.00431	-0.00188
-0.28482	-0.18043
0.32721	-0.15492
0.37822	0.15117
-0.05531	0.20219
0.32721	0.20219
1.01576	0.04914
0.02119	0.04914
-0.33583	0.12566
0.04670	0.32972
-0.05531	0.30422
-0.00431	0.15117
0.25071	1.01843
0.42922	0.35523
0.09770	-0.81812
0.17421	-1.71090
0.14870	0.07465
-0.10631	0.71234
0.12320	0.58480
0.22521	0.55929
0.12320	0.35523
0.27621	1.42656
0.12320	0.32972
0.30171	-0.33348
0.04670	-3.06281
0.14870	0.15117
0.07220	1.17148
0.04670	1.50308
0.02119	0.68683
0.07220	0.48277
0.35272	-0.05289
-0.05531	-0.33348
0.25071	-0.35899
0.17421	-0.15492
0.48022	-0.28246
0.17421	0.17668
0.42922	0.10015
-0.28482	0.32972
-0.20832	0.45726
-0.33583	0.53379
0.78624	0.63582
0.50573	-0.74160
0.04670	-0.61406
0.27621	0.32972
0.12320	0.38074
0.09770	-0.12942
0.07220	0.50828
0.17421	0.35523
-0.87136	0.48277
0.02119	-0.12942
0.58223	-0.05289
0.32721	0.38074
0.40372	0.45726
0.50573	-0.20594
-0.25932	0.25320
-0.15732	-0.15492
-0.20832	0.07465
0.02119	-0.69059
0.25071	0.35523
0.32721	0.76336
0.53123	0.30422
0.14870	0.45726
0.19971	0.45726
-0.08081	-0.43551
0.30171	-0.53754
0.12320	1.04394
0.09770	0.25320
0.17421	-0.15492
0.09770	0.35523
0.14870	0.15117
0.17421	0.17668
0.12320	-0.28246
0.25071	0.76336
0.07220	-0.05289
0.09770	-0.00188
-0.05531	-0.89465
0.37822	0.48277
0.50573	0.35523
-0.00431	0.27871
0.09770	-0.92016
-0.41233	0.40625
0.50573	0.86539
0.40372	0.53379
0.07220	0.40625
-0.59084	0.61031
1.04126	0.63582
0.73524	-0.07840
0.50573	-1.20074
-0.43783	-0.58856
-0.43783	0.53379
0.30171	0.40625
0.04670	0.22769
0.91375	0.43176
0.19971	0.10015
-0.25932	-0.05289
0.09770	-0.07840
0.09770	0.32972
0.07220	0.66132
-0.00431	0.50828
0.02119	0.07465
0.35272	-1.04770
0.19971	-0.97117
-0.28482	-0.00188
0.37822	1.14597
0.17421	0.68683
0.30171	1.06945
0.22521	0.04914
0.25071	-0.07840
0.07220	0.04914
0.02119	0.76336
0.32721	0.22769
0.07220	-0.02739
-0.13181	-0.20594
0.14870	0.02363
0.02119	-0.81812
0.32721	-0.05289
-0.10631	-0.05289
0.12320	0.32972
0.27621	0.25320
0.58223	0.10015
-0.59084	0.38074
0.40372	0.50828
-0.08081	0.25320
0.91375	-0.20594
0.09770	0.22769
0.07220	0.71234
-0.02981	0.55929
-0.13181	-0.61406
0.35272	0.43176
0.32721	0.15117
-0.18282	0.25320
-0.76936	-0.38449
0.40372	-0.12942
0.50573	0.43176
-0.13181	0.17668
1.21977	0.22769
0.02119	0.15117
-0.10631	0.07465
0.19971	-0.05289
0.14870	0.15117
-0.46334	0.45726
-0.23382	0.22769
0.63323	0.07465
0.12320	-1.12422
0.35272	0.30422
0.19971	0.61031
0.04670	0.58480
-0.25932	0.15117
0.17421	0.86539
0.09770	0.20219
0.27621	-0.41000
0.42922	-0.05289
0.19971	0.17668
0.22521	-0.02739
0.14870	0.53379
0.19971	0.15117
-0.05531	-0.35899
0.02119	-0.89465
0.14870	0.22769
0.27621	0.20219
0.30171	0.58480
-0.13181	1.17148
0.12320	0.43176
0.22521	0.25320
0.07220	-0.53754
0.02119	-0.18043
0.45472	-1.02219
-0.43783	0.40625
0.40372	0.68683
0.48022	0.45726
0.60773	0.12566
-0.10631	-0.10391
-0.23382	0.25320
0.02119	-0.07840
0.37822	-0.41000
0.48022	0.17668
-0.28482	0.38074
0.25071	0.17668
0.12320	0.07465
0.12320	0.32972
-0.05531	0.50828
0.30171	0.32972
0.19971	-0.61406
-0.02981	-0.23145
-0.00431	-0.41000
0.27621	0.55929
-0.08081	0.76336
0.48022	0.76336
1.09226	1.01843
-0.05531	-0.18043
-0.20832	-0.71609
0.04670	-0.00188
0.30171	0.71234
0.25071	0.45726
0.02119	0.35523
0.02119	-0.07840
0.02119	-0.25695
-0.20832	-0.12942
0.40372	0.04914
0.12320	0.48277
0.42922	-0.00188
0.25071	-0.69059
0.19971	-0.18043
0.22521	0.73785
-0.31033	1.06945
0.02119	0.55929
0.58223	-0.46102
0.40372	-0.97117
0.30171	-0.02739
0.02119	0.35523
-0.13181	0.89089
0.25071	0.48277
0.42922	0.17668
0.45472	0.27871
-0.28482	-0.00188
-0.10631	-0.00188
0.07220	0.17668
-0.13181	-0.07840
-0.18282	0.20219
0.12320	-0.10391
0.76074	-0.46102
0.53123	0.35523
-0.33583	0.07465
0.07220	-0.02739
1.21977	-0.12942
-0.05531	0.35523
-0.05531	0.15117
0.02119	0.53379
0.22521	0.40625
-0.36133	0.45726
0.14870	0.78886
0.25071	0.63582
0.12320	-0.97117
-0.10631	-1.09871
-0.00431	-0.18043
0.35272	1.17148
0.09770	0.55929
0.32721	0.38074
0.27621	-0.15492
0.35272	0.35523
0.09770	0.17668
0.30171	-0.18043
0.17421	0.35523
0.17421	-0.00188
0.14870	-0.35899
0.22521	0.04914
-0.28482	0.25320
-0.25932	0.17668
0.68424	0.02363
-0.08081	-0.35899
0.22521	0.63582
-0.46334	0.17668
0.81175	0.07465
0.86275	-0.18043
0.04670	0.48277
-0.53984	0.15117
0.27621	0.35523
0.02119	0.17668
0.22521	0.12566
0.17421	0.27871
-0.02981	0.20219
0.14870	0.07465
0.22521	0.43176
0.14870	-0.02739
0.19971	0.07465
1.29628	0.15117
-0.48884	-0.92016
-0.43783	-0.05289
0.65874	1.09496
0.09770	0.43176
-0.00431	0.22769
-0.31033	-0.07840
0.30171	0.25320
0.45472	0.35523
0.48022	-0.38449
0.45472	-0.30797
0.27621	0.32972
0.14870	0.81437
0.12320	0.96742
-0.15732	0.32972
0.07220	-0.81812
0.53123	0.12566
-0.00431	-0.41000
-0.23382	-0.02739
-0.05531	0.55929
-0.00431	0.17668
0.09770	0.30422
0.22521	-0.25695
0.22521	-0.10391
0.02119	0.53379
0.19971	0.50828
0.40372	-0.35899
0.07220	-0.56305
0.14870	0.35523
0.04670	0.04914
-0.25932	0.22769
0.27621	0.81437
0.63323	0.25320
-0.10631	0.30422
-0.05531	0.32972
0.65874	0.17668
-0.38683	-0.10391
-0.15732	0.02363
0.04670	-0.00188
0.53123	-0.12942
-0.02981	0.07465
0.19971	0.25320
0.17421	0.30422
0.04670	0.10015
0.35272	-0.35899
-0.00431	0.38074
-0.15732	0.45726
-0.10631	0.38074
0.37822	-0.15492
0.04670	0.25320
-0.15732	-0.10391
0.35272	0.12566
0.35272	-0.28246
0.27621	0.53379
0.27621	0.99292
-0.02981	-0.33348
0.12320	-0.10391
0.09770	-0.12942
0.45472	0.43176
0.25071	0.20219
0.07220	0.30422
-0.00431	-0.07840
0.09770	0.38074
0.17421	-0.28246
0.22521	0.91640
0.02119	-0.15492
-0.59084	-0.25695
0.32721	-0.15492
0.09770	0.20219
0.40372	-0.15492
-0.05531	-0.51203
0.73524	1.09496
0.48022	0.91640
0.04670	0.02363
-0.66735	-0.76711
0.12320	0.04914
0.50573	0.61031
0.14870	0.35523
-0.46334	0.35523
0.14870	0.15117
0.35272	0.15117
0.32721	-0.25695
-0.02981	0.02363
0.42922	0.17668
-0.00431	0.22769
-0.10631	0.15117
-0.18282	0.10015
0.40372	0.15117
0.99026	0.02363
0.37822	0.17668
0.04670	0.02363
-0.15732	0.27871
-0.20832	0.22769
-0.23382	0.35523
0.37822	0.48277
-0.13181	0.22769
0.55673	0.35523
0.19971	0.66132
0.65874	-0.71609
-0.33583	-0.48652
0.25071	-1.20074
0.25071	0.45726
-0.23382	0.71234
0.17421	1.47757
0.25071	0.22769
0.27621	-0.89465
0.09770	-0.46102
0.17421	0.55929
0.07220	0.55929
0.40372	0.58480
-0.02981	0.15117
-0.13181	0.45726
-0.25932	1.09496
0.48022	-0.10391
0.12320	-1.37929
0.42922	-1.45582
-0.08081	0.35523
0.22521	0.63582
0.04670	-0.23145
0.32721	0.45726
0.07220	0.61031
0.02119	0.78886
-0.02981	0.50828
0.50573	0.45726
0.86275	-0.07840
-0.79486	0.22769
0.32721	-0.12942
0.55673	0.25320
-0.36133	-0.02739
0.02119	-0.02739
0.12320	-0.12942
0.09770	0.30422
0.45472	0.17668
0.32721	-0.05289
0.17421	-0.00188
-0.13181	0.02363
-0.10631	0.10015
0.22521	0.32972
0.37822	0.48277
-0.33583	0.20219
0.58223	0.17668
0.40372	0.35523
0.25071	-0.05289
0.02119	0.22769
-0.13181	0.07465
-0.02981	-0.30797
0.04670	0.43176
0.22521	0.76336
0.19971	-0.07840
0.07220	-1.04770
0.02119	-0.35899
0.07220	0.32972
0.42922	-0.07840
0.37822	0.61031
0.17421	0.61031
0.30171	0.66132
-0.05531	0.12566
-0.08081	0.25320
-0.23382	0.50828
0.27621	0.17668
0.96476	0.10015
-0.00431	-0.38449
0.17421	-0.61406
-0.53984	-1.50683
0.30171	-0.71609
-0.05531	0.61031
1.19427	1.06945
0.50573	1.12046
-0.38683	0.94191
-0.10631	0.55929
0.32721	0.45726
-0.02981	-0.00188
0.09770	-0.07840
0.04670	0.25320
0.35272	-0.46102
0.02119	-0.30797
0.02119	0.02363
0.17421	-0.00188
0.30171	-0.48652
0.22521	0.30422
0.25071	0.45726
-0.28482	0.17668
-0.23382	0.25320
0.78624	0.48277
0.55673	0.58480
0.07220	-0.12942
-0.10631	-0.41000
-0.05531	0.32972
0.22521	0.71234
0.22521	0.10015
0.02119	-0.02739
0.02119	-0.02739
0.37822	0.27871
0.37822	0.30422
0.07220	0.12566
0.17421	0.32972
0.12320	-0.30797
0.17421	0.20219
0.02119	-0.30797
-0.00431	0.45726
-0.25932	0.15117
-0.20832	-0.43551
0.32721	0.04914
0.81175	1.04394
0.17421	0.25320
0.04670	-1.35379
-0.23382	-1.55785
0.22521	1.04394
0.40372	1.27351
0.27621	0.94191
0.40372	0.50828
-0.28482	0.48277
0.27621	0.22769
-0.33583	0.02363
0.65874	0.12566
0.40372	-0.05289
-0.23382	-0.12942
1.57679	-0.41000
-0.00431	-0.43551
-0.36133	0.02363
-0.41233	-0.18043
0.07220	0.35523
0.07220	-0.33348
0.22521	0.58480
0.17421	0.25320
0.27621	0.40625
0.25071	0.07465
0.35272	0.32972
0.12320	0.96742
0.14870	0.12566
0.02119	-0.63957
0.14870	-0.53754
-0.15732	0.71234
-0.05531	0.38074
0.17421	0.50828
0.17421	0.07465
0.35272	0.35523
0.22521	-0.69059
0.35272	0.40625
0.12320	-0.00188
0.02119	0.10015
0.04670	0.22769
0.50573	0.20219
-0.00431	-0.05289
-0.10631	-0.12942
0.09770	0.89089
-0.00431	-0.00188
0.14870	-0.12942
0.78624	-0.69059
-0.48884	0.02363
0.48022	-0.05289
0.42922	0.63582
0.07220	0.30422
0.30171	0.63582
0.42922	0.45726
-0.18282	0.32972
-0.08081	0.30422
0.40372	0.35523
-0.05531	-0.15492
-0.31033	-0.05289
0.25071	-0.20594
0.32721	0.04914
0.09770	0.04914
0.40372	0.25320
0.04670	-0.30797
0.04670	-0.41000
0.02119	0.10015
0.17421	0.45726
0.19971	0.27871
0.45472	0.66132
0.53123	0.48277
-0.20832	0.43176
-0.59084	0.76336
0.22521	-0.02739
0.12320	-1.60887
0.17421	-0.89465
0.70974	1.01843
0.48022	0.83988
0.40372	0.35523
0.14870	0.12566
-0.33583	0.71234
0.19971	0.76336
-0.08081	0.63582
0.09770	-0.38449
0.17421	-0.58856
0.09770	-0.97117
0.25071	0.15117
0.07220	0.58480
0.12320	0.50828
-0.08081	0.25320
0.17421	0.04914
0.32721	-0.18043
0.12320	-0.38449
0.12320	0.91640
0.32721	0.38074
0.40372	0.30422
-0.38683	0.22769
0.09770	-0.28246
0.07220	-0.05289
0.25071	0.45726
0.60773	-0.25695
0.09770	-0.07840
0.22521	0.25320
-0.08081	0.66132
-0.20832	0.04914
0.22521	0.68683
-0.15732	0.15117
0.42922	0.30422
0.09770	0.45726
0.60773	-0.18043
-0.13181	-0.38449
0.19971	-0.25695
-0.20832	0.22769
0.09770	0.35523
0.12320	0.15117
0.17421	0.20219
0.02119	0.53379
0.25071	-0.23145
-0.18282	0.30422
0.73524	0.89089
0.42922	0.48277
-0.08081	-1.30277
0.07220	-0.66508
-0.23382	0.50828
0.14870	0.89089
0.27621	0.81437
0.09770	0.48277
0.17421	0.35523
0.30171	-0.46102
0.25071	-0.66508
-0.10631	0.12566
0.09770	0.55929
-0.00431	0.45726
0.04670	0.45726
0.32721	0.61031
0.60773	-0.05289
0.12320	-1.02219
0.02119	-0.66508
0.32721	0.55929
-0.25932	0.91640
0.27621	0.07465
0.42922	-0.28246
0.37822	0.55929
-0.13181	0.02363
-0.31033	0.35523
0.60773	0.25320
-0.18282	0.07465
0.53123	0.35523
-0.64185	0.35523
-0.18282	-0.12942
0.55673	0.15117
0.70974	0.02363
0.17421	0.15117
-0.18282	0.02363
0.53123	0.53379
-0.28482	-0.53754
-0.43783	-0.12942
-0.20832	0.73785
1.75531	-0.20594
0.12320	0.07465
-0.23382	0.25320
0.70974	0.94191
-0.28482	0.38074
-0.48884	-0.33348
-0.08081	0.55929
0.07220	0.10015
0.14870	0.12566
0.17421	0.35523
0.22521	0.40625
-0.00431	-0.18043
0.81175	-0.33348
0.22521	0.22769
0.17421	-0.10391
0.04670	-0.02739
0.02119	-0.76711
0.19971	0.10015
-0.41233	0.76336
0.19971	0.71234
0.35272	0.20219
0.42922	-0.23145
-0.02981	0.78886
-0.15732	0.25320
0.09770	0.45726
-0.05531	-0.02739
0.50573	0.02363
0.35272	0.32972
0.17421	-0.00188
0.42922	0.32972
0.27621	-0.05289
0.02119	-0.53754
0.19971	-0.38449
-0.71835	0.20219
0.09770	0.02363
0.58223	0.50828
0.45472	0.27871
-0.53984	0.43176
0.12320	0.40625
0.78624	0.17668
0.42922	0.22769
-0.05531	0.22769
0.12320	0.22769
0.42922	0.30422
-0.46334	-0.07840
-0.13181	-0.02739
-0.13181	-0.33348
1.04126	-0.00188
0.50573	-0.00188
0.35272	-0.10391
-0.28482	0.55929
-0.56534	0.55929
0.14870	-0.46102
0.22521	0.40625
0.37822	0.63582
0.07220	0.43176
0.12320	0.17668
0.25071	0.58480
0.17421	-0.07840
0.12320	-0.51203
0.22521	-0.61406
0.07220	-0.10391
0.22521	0.04914
0.02119	0.10015
0.42922	-0.23145
0.02119	0.50828
0.17421	0.43176
-0.84586	0.22769
0.37822	0.89089
0.14870	-0.02739
0.32721	-0.07840
0.42922	0.07465
0.22521	0.02363
0.60773	0.76336
-0.69285	-0.12942
0.55673	0.04914
0.32721	-0.66508
-0.00431	-0.61406
0.02119	0.17668
0.32721	0.40625
-0.08081	-0.00188
-0.46334	0.48277
-0.15732	0.30422
0.73524	0.43176
0.37822	0.38074
0.09770	-0.23145
0.07220	-0.25695
0.55673	0.76336
0.12320	0.10015
-0.10631	-0.25695
0.02119	0.10015
0.30171	0.22769
0.40372	0.53379
0.02119	0.66132
0.14870	0.17668
0.42922	-0.23145
0.07220	-0.63957
0.27621	0.61031
-0.92237	0.38074
0.09770	0.04914
0.35272	0.30422
0.86275	0.20219
0.63323	0.20219
-0.23382	0.20219
-0.28482	0.35523
-0.02981	0.04914
0.42922	-0.71609
0.53123	-0.61406
-0.13181	-0.53754
-0.02981	0.66132
0.17421	0.81437
0.17421	1.17148
0.30171	0.35523
0.19971	0.04914
0.02119	0.66132
0.17421	0.68683
0.14870	-0.81812
0.12320	-0.58856
0.42922	-0.76711
-0.46334	0.07465
-0.10631	0.43176
0.32721	0.43176
0.30171	0.63582
0.09770	0.35523
0.30171	0.22769
0.32721	-0.10391
0.32721	-0.76711
-0.56534	0.04914
0.45472	0.25320
0.48022	0.15117
0.32721	0.55929
0.35272	0.83988
0.12320	0.35523
0.14870	0.15117
-0.46334	-0.15492
0.17421	-0.12942
0.88825	-0.05289
-0.10631	0.20219
-0.00431	0.10015
0.58223	0.07465
-0.02981	0.07465
0.12320	-0.02739
0.17421	-0.02739
0.12320	-0.02739
0.17421	0.12566
0.02119	0.35523
0.27621	1.06945
0.09770	0.68683
0.42922	0.07465
0.07220	-1.58336
-0.00431	-0.74160
0.12320	1.32453
-0.00431	1.14597
0.22521	0.27871
0.09770	-0.86914
0.42922	0.96742
0.35272	0.66132
0.32721	-0.30797
-0.00431	-0.46102
-0.18282	0.40625
0.22521	0.50828
0.02119	0.55929
-0.15732	0.58480
-0.05531	-0.69059
0.35272	-0.66508
0.30171	0.10015
-0.05531	0.12566
0.40372	0.27871
-0.02981	0.12566
0.17421	0.45726
0.14870	0.10015
0.58223	-0.07840
-0.08081	0.02363
0.19971	0.61031
0.22521	-0.05289
-0.00431	0.07465
-0.28482	0.30422
0.12320	0.27871
0.30171	0.17668
-0.28482	-0.00188
0.09770	0.35523
-0.25932	0.35523
0.73524	-0.07840
0.76074	-0.23145
-0.25932	-0.07840
0.27621	0.10015
0.19971	-0.23145
0.09770	0.02363
0.04670	0.73785
0.19971	0.25320
0.17421	0.55929
0.19971	0.40625
0.02119	-0.20594
0.27621	0.12566
-0.28482	0.15117
-0.00431	0.25320
0.19971	-0.43551
0.07220	-0.20594
0.48022	1.14597
-0.18282	-0.12942
0.42922	0.15117
0.17421	0.32972
0.07220	0.07465
0.09770	0.20219
0.35272	0.25320
0.09770	-0.30797
0.09770	0.38074
0.09770	0.48277
0.19971	0.35523
0.09770	0.15117
-0.02981	-0.12942
0.07220	0.45726
1.11776	-0.28246
0.35272	-0.61406
-0.51434	-0.30797
-0.56534	0.35523
0.25071	0.30422
0.32721	0.89089
0.40372	0.45726
-0.31033	0.22769
0.19971	0.20219
0.53123	0.20219
0.07220	0.25320
0.37822	0.04914
0.42922	0.43176
-0.20832	-0.02739
0.12320	0.12566
0.27621	-0.74160
-0.48884	-0.12942
0.60773	-0.58856
0.25071	0.43176
-0.31033	0.58480
0.60773	0.45726
1.16877	1.06945
-0.08081	-0.00188
-0.48884	0.10015
-0.41233	0.02363
-0.10631	-0.07840
0.37822	-0.33348
0.27621	-0.38449
0.19971	0.30422
0.19971	0.89089
0.22521	0.22769
0.32721	-0.51203
0.19971	-0.43551
0.22521	0.71234
-0.00431	0.55929
0.04670	0.58480
0.17421	0.45726
0.17421	0.04914
0.02119	-0.66508
0.14870	-0.05289
0.09770	-0.12942
-0.08081	0.43176
-0.02981	0.22769
-0.00431	0.43176
0.19971	0.22769
0.35272	-0.12942
0.25071	-0.25695
0.30171	-0.25695
0.07220	-0.12942
0.32721	0.38074
-0.59084	0.61031
-0.02981	0.55929
0.88825	0.30422
0.25071	0.45726
0.19971	-0.07840
0.53123	-0.00188
-0.69285	0.15117
-0.15732	-0.02739
0.22521	-0.41000
0.60773	-0.18043
0.32721	0.38074
0.17421	0.32972
-0.23382	0.12566
0.14870	0.20219
0.30171	0.04914
0.50573	0.40625
-0.05531	0.48277
-0.28482	-0.43551
0.35272	0.04914
0.17421	0.58480
0.19971	-0.61406
-0.28482	-0.38449
0.14870	-0.33348
0.53123	0.89089
0.12320	0.83988
0.02119	0.45726
0.14870	-0.02739
0.12320	0.27871
-0.00431	-0.00188
0.14870	-0.43551
0.30171	-0.53754
-0.00431	0.63582
0.14870	0.43176
0.93925	0.25320
0.30171	0.10015
0.19971	0.32972
-0.33583	0.10015
-0.46334	-0.23145
0.25071	-0.28246
0.17421	-0.00188
-0.25932	0.04914
0.48022	0.30422
0.63323	0.17668
0.14870	0.04914
0.19971	0.12566
0.40372	0.71234
0.22521	0.35523
-0.02981	0.22769
-0.43783	0.25320
-0.00431	-0.02739
0.27621	-0.02739
0.02119	-1.04770
0.09770	-0.18043
-0.02981	0.45726
0.42922	0.27871
0.19971	0.68683
-0.13181	0.55929
0.22521	0.66132
0.32721	0.25320
0.30171	-0.35899
-0.00431	-0.92016
0.09770	-0.20594
0.07220	0.68683
0.58223	0.43176
0.55673	-0.18043
-0.43783	0.25320
0.22521	0.20219
0.04670	0.86539
-0.00431	0.07465
0.12320	-0.15492
0.14870	-0.56305
0.14870	-0.28246
0.37822	0.12566
0.42922	0.73785
0.07220	0.83988
-0.10631	0.53379
-0.05531	-0.46102
0.12320	-0.43551
0.09770	-0.20594
0.12320	0.22769
0.27621	0.38074
0.50573	0.55929
0.25071	0.50828
0.14870	0.66132
-0.28482	-0.63957
0.55673	-0.43551
0.17421	-0.30797
0.48022	0.32972
-0.10631	0.53379
0.07220	0.35523
0.40372	0.58480
-0.08081	0.22769
-0.38683	-0.18043
0.37822	-0.28246
0.99026	0.20219
-0.10631	0.27871
0.12320	0.02363
0.42922	0.10015
-0.84586	-0.15492
0.37822	0.58480
0.12320	1.04394
0.27621	-0.00188
0.53123	-0.56305
-0.15732	-0.51203
0.30171	0.66132
0.04670	0.63582
0.68424	0.25320
0.04670	0.17668
0.12320	1.01843
0.09770	-0.41000
0.07220	-0.61406
0.17421	-0.35899
0.09770	0.22769
0.02119	0.55929
-0.08081	0.04914
-0.02981	0.40625
0.09770	0.45726
0.32721	0.58480
0.40372	-0.74160
0.68424	-0.43551
-0.00431	-0.07840
-0.46334	0.50828
-0.56534	1.19699
0.73524	0.40625
0.42922	-0.46102
0.12320	-0.79262
0.22521	0.04914
0.12320	0.12566
0.42922	0.35523
-0.28482	0.73785
0.76074	0.38074
0.12320	-0.12942
-0.41233	0.22769
0.19971	0.50828
0.35272	0.27871
0.19971	0.32972
0.17421	0.27871
0.58223	-0.28246
-0.13181	-0.35899
-0.18282	-0.71609
-0.13181	0.12566
0.37822	0.61031
-0.02981	-0.02739
-0.10631	0.25320
0.12320	0.22769
-0.05531	0.50828
0.68424	0.40625
0.04670	-0.02739
0.55673	0.30422
0.22521	-0.15492
-0.15732	0.20219
0.07220	-0.00188
0.58223	0.15117
0.12320	0.55929
-0.08081	0.38074
0.35272	0.38074
-0.15732	-0.07840
0.48022	-0.58856
0.02119	0.30422
-0.33583	0.45726
0.27621	0.35523
0.04670	-0.25695
0.25071	-0.18043
0.63323	0.30422
-0.02981	-0.15492
0.07220	-0.05289
0.27621	0.17668
0.12320	0.40625
0.42922	0.45726
0.02119	0.32972
0.12320	-0.25695
-0.38683	0.30422
0.19971	-0.30797
0.45472	0.38074
0.19971	-0.58856
0.14870	0.55929
0.07220	0.35523
-0.05531	0.61031
0.19971	0.40625
0.07220	0.02363
0.35272	0.25320
0.02119	0.45726
0.25071	-0.10391
-0.08081	-0.38449
0.35272	0.15117
0.09770	0.20219
0.25071	-0.05289
0.14870	-0.43551
-0.31033	-0.00188
-0.36133	1.12046
-0.20832	0.27871
1.57679	0.27871
0.22521	-0.46102
0.14870	-0.28246
-0.38683	-0.28246
-0.13181	0.81437
0.30171	0.45726
0.30171	0.78886
-0.00431	0.71234
-0.15732	-0.56305
0.53123	-1.37929
0.63323	0.43176
-0.00431	0.63582
0.27621	0.76336
0.19971	-0.25695
-0.20832	-0.00188
-0.00431	0.48277
-0.15732	0.35523
0.35272	-0.25695
0.48022	-0.30797
0.25071	-0.05289
0.22521	0.50828
-0.05531	0.04914
0.32721	0.12566
0.88825	0.73785
-0.13181	-0.00188
-0.25932	-0.86914
-0.13181	0.12566
-0.46334	0.32972
0.40372	0.81437
0.22521	0.30422
0.50573	-0.10391
0.45472	-0.15492
0.14870	0.45726
-0.00431	0.04914
0.14870	0.30422
0.07220	-0.10391
0.78624	0.04914
-0.10631	0.25320
-0.23382	0.04914
0.30171	-0.05289
0.42922	0.91640
-0.23382	0.12566
-0.02981	0.10015
-0.28482	0.32972
0.91375	0.22769
0.25071	-0.00188
-0.00431	0.10015
0.09770	0.27871
0.65874	0.04914
-0.08081	-0.05289
-0.08081	-0.00188
-0.13181	-0.15492
-0.08081	0.04914
1.04126	0.32972
0.19971	0.66132
-0.33583	0.10015
-0.23382	-0.02739
0.02119	-0.05289
0.48022	0.30422
0.35272	0.38074
-0.15732	-0.05289
0.19971	0.25320
0.68424	0.45726
0.53123	-0.07840
0.37822	0.15117
-0.08081	0.55929
-0.08081	-0.89465
0.12320	0.91640
0.09770	0.04914
-0.18282	0.10015
0.25071	-0.81812
-0.00431	0.22769
0.12320	0.78886
1.09226	0.61031
-0.36133	0.25320
-0.10631	0.20219
0.07220	0.38074
0.42922	0.71234
-0.08081	-0.51203
0.09770	-0.79262
0.12320	-0.69059
0.27621	0.20219
0.25071	0.45726
0.17421	0.76336
0.22521	0.73785
0.27621	0.40625
0.04670	0.20219
-0.46334	0.25320
-0.13181	0.22769
0.42922	0.35523
0.50573	-0.35899
0.19971	-0.33348
-0.08081	-0.18043
0.35272	0.15117
0.14870	0.27871
0.12320	0.40625
0.07220	0.30422
0.19971	-0.02739
0.30171	-0.15492
0.12320	0.17668
0.12320	0.43176
-0.41233	0.35523
0.45472	0.32972
0.48022	0.35523
0.09770	0.02363
0.22521	0.15117
0.32721	0.10015
0.22521	0.07465
-0.18282	0.27871
-0.36133	-0.30797
0.32721	0.20219
0.02119	0.15117
0.07220	0.12566
0.63323	0.43176
0.81175	-0.30797
-0.43783	0.30422
0.32721	0.35523
-0.36133	0.20219
-0.20832	0.53379
0.27621	-0.00188
0.63323	0.35523
0.32721	0.68683
0.22521	0.10015
-0.00431	-0.79262
0.22521	-0.97117
0.14870	0.35523
-0.46334	0.78886
-0.15732	0.55929
0.55673	0.35523
0.37822	-0.35899
0.12320	0.02363
0.07220	0.45726
0.09770	0.58480
0.17421	0.53379
0.09770	-0.30797
0.14870	-0.84363
0.48022	-0.25695
-0.61635	0.48277
0.07220	0.53379
0.63323	0.55929
-0.20832	0.61031
0.09770	0.22769
1.04126	0.35523
0.40372	-0.18043
0.02119	-0.15492
-0.48884	-0.33348
-0.08081	-0.07840
0.37822	0.35523
0.37822	0.17668
-0.00431	0.20219
0.40372	0.38074
0.02119	0.12566
-0.13181	0.38074
0.68424	-0.00188
-0.38683	-0.07840
0.27621	0.22769
-0.13181	0.15117
0.65874	0.25320
0.19971	0.04914
0.09770	0.25320
0.07220	0.30422
0.14870	-0.10391
0.09770	0.25320
0.04670	0.27871
0.60773	0.17668
-0.02981	0.02363
-0.08081	-0.30797
-0.02981	0.40625
0.07220	0.35523
0.09770	0.10015
0.25071	0.12566
0.27621	0.83988
0.17421	0.27871
0.02119	0.40625
0.27621	-0.81812
0.50573	-0.33348
0.12320	0.66132
0.12320	0.07465
-0.20832	-0.66508
-0.02981	0.25320
0.50573	0.50828
0.09770	0.45726
0.12320	0.38074
0.12320	0.25320
0.07220	0.30422
-0.23382	-0.10391
1.11776	0.10015
0.42922	0.35523
0.09770	-0.18043
-0.97337	-0.02739
-0.08081	0.02363
0.17421	-0.25695
0.37822	0.15117
0.12320	0.10015
0.40372	0.32972
1.42379	0.35523
0.07220	0.25320
-0.64185	0.17668
-0.08081	0.27871
0.42922	0.43176
-0.10631	0.25320
-0.20832	0.15117
-0.00431	-0.28246
0.19971	-0.23145
0.30171	-0.02739
0.35272	0.32972
0.48022	0.55929
0.30171	0.02363
-0.28482	0.27871
-0.00431	1.04394
0.17421	-0.12942
0.45472	-0.48652
0.22521	-0.35899
-0.08081	-0.15492
0.25071	-0.15492
0.02119	0.58480
0.12320	0.35523
0.14870	0.32972
0.22521	0.17668
0.12320	0.68683
0.09770	0.40625
0.07220	-0.05289
0.09770	0.30422
-0.05531	-0.07840
0.14870	0.35523
0.27621	-0.43551
0.30171	-0.71609
0.07220	-0.18043
0.07220	0.32972
-0.28482	0.38074
0.25071	0.20219
0.17421	-0.00188
0.86275	0.35523
0.02119	0.63582
-0.43783	0.66132
-0.18282	-0.05289
1.19427	0.04914
0.12320	-0.48652
0.02119	-0.46102
-0.05531	0.43176
-0.00431	0.53379
0.68424	0.25320
0.42922	0.27871
0.32721	0.10015
-0.48884	0.20219
-0.33583	0.27871
0.50573	0.22769
-0.08081	-0.15492
-0.48884	-0.20594
1.52579	0.04914
0.12320	0.02363
0.14870	0.20219
-0.00431	0.48277
-0.36133	-0.02739
-0.13181	0.12566
0.19971	0.38074
0.19971	0.45726
0.07220	-0.10391
0.30171	-0.10391
0.35272	-0.10391
0.53123	0.32972
0.02119	0.35523
-0.08081	0.17668
-0.08081	0.07465
0.09770	-0.41000
0.40372	0.27871
0.17421	0.40625
0.17421	0.66132
0.12320	0.45726
0.02119	0.32972
-0.00431	-0.05289
-0.08081	0.35523
0.12320	-0.38449
0.73524	-0.05289
0.53123	-0.07840
-0.48884	0.27871
-0.13181	-0.00188
0.30171	-0.05289
0.45472	-0.12942
-0.13181	0.40625
-1.10088	0.22769
0.91375	0.04914
0.96476	0.20219
0.63323	0.30422
-0.36133	0.35523
-0.43783	0.07465
0.32721	0.50828
0.12320	-0.05289
0.42922	0.30422
-0.02981	-0.25695
-0.02981	-0.12942
-0.13181	-0.00188
1.27078	0.40625
0.22521	-0.00188
-0.13181	0.25320
-0.13181	-0.00188
-0.00431	0.43176
-0.02981	0.12566
0.12320	0.32972
0.22521	0.30422
0.63323	0.30422
0.02119	0.17668
0.17421	-0.48652
0.02119	-0.02739
0.12320	0.22769
0.14870	0.12566
0.25071	0.40625
0.12320	0.10015
0.14870	0.22769
0.02119	0.15117
0.22521	0.30422
0.07220	0.17668
0.12320	0.68683
0.17421	0.45726
0.12320	-0.30797
0.09770	-0.51203
0.60773	0.20219
0.02119	-0.05289
0.27621	0.45726
0.42922	0.40625
-0.41233	-0.18043
-0.33583	0.30422
0.02119	0.50828
0.17421	0.91640
0.35272	-0.00188
-0.02981	-0.84363
0.48022	-1.25176
0.93925	0.07465
-0.28482	0.53379
-0.74385	0.61031
0.17421	0.53379
0.35272	0.40625
1.06676	0.17668
0.14870	0.12566
-0.20832	0.22769
-0.48884	0.40625
0.40372	0.02363
0.65874	0.12566
-0.43783	-0.86914
-0.28482	-0.00188
0.12320	0.12566
-0.15732	0.43176
0.42922	0.25320
0.19971	0.27871
0.14870	0.38074
0.09770	-0.07840
0.32721	0.17668
0.27621	0.07465
0.53123	0.22769
0.19971	0.15117
-0.25932	0.63582
-0.10631	0.30422
0.35272	0.48277
0.12320	-0.58856
0.14870	-0.10391
-0.00431	-1.68539
0.25071	0.17668
0.45472	0.83988
0.30171	0.78886
-0.23382	1.04394
0.04670	0.58480
-0.10631	0.45726
0.09770	0.10015
-0.18282	-0.25695
-0.08081	-0.18043
0.53123	-0.25695
0.12320	-0.10391
0.32721	0.15117
0.60773	-0.02739
-0.15732	0.22769
-0.25932	0.38074
0.25071	0.30422
0.30171	0.27871
0.48022	0.17668
0.14870	0.22769
-0.08081	0.22769
-0.08081	0.10015
0.65874	0.10015
-0.66735	0.10015
0.12320	0.25320
0.30171	0.07465
0.14870	0.17668
-0.05531	0.17668
0.78624	0.32972
0.30171	-0.00188
-0.23382	0.48277
-0.31033	0.04914
0.27621	0.20219
0.22521	-0.25695
0.27621	0.02363
0.12320	-0.23145
0.32721	0.35523
0.19971	0.68683
-0.13181	0.30422
0.35272	-0.18043
0.22521	-0.48652
-0.02981	0.32972
0.02119	0.78886
-0.00431	-0.10391
0.12320	0.27871
0.22521	0.15117
0.09770	0.43176
0.30171	-0.05289
0.42922	0.20219
0.12320	-0.07840
0.17421	0.35523
0.04670	-0.43551
0.07220	0.15117
-0.02981	-0.15492
0.32721	0.22769
0.14870	-0.12942
-0.02981	0.48277
0.19971	0.35523
-0.20832	0.63582
-0.41233	0.02363
0.30171	0.12566
0.48022	-0.38449
0.22521	0.15117
0.19971	-0.02739
0.14870	0.38074
0.19971	0.40625
0.37822	0.55929
0.17421	0.10015
0.14870	0.15117
-0.13181	0.22769
0.35272	0.04914
0.25071	-0.35899
-0.00431	-0.02739
0.07220	0.10015
-0.08081	0.20219
-0.18282	0.35523
0.27621	0.35523
0.17421	0.04914
0.19971	0.15117
0.53123	-0.18043
0.19971	0.12566
0.12320	0.38074
0.14870	0.25320
0.04670	0.32972
-0.00431	0.35523
0.40372	0.53379
0.07220	-0.12942
0.07220	-0.63957
0.09770	-0.53754
-0.13181	0.48277
0.14870	0.58480
0.45472	0.22769
0.42922	-0.76711
0.04670	0.12566
-0.08081	0.30422
-0.18282	0.71234
0.27621	0.66132
0.42922	0.68683
0.25071	0.15117
0.32721	-0.07840
-0.05531	-0.61406
0.50573	0.17668
0.09770	0.61031
-0.20832	0.02363
-0.59084	-0.25695
0.45472	-0.05289
0.40372	-0.05289
0.58223	0.17668
0.07220	0.17668
0.17421	0.02363
-0.08081	0.30422
-0.13181	0.40625
0.42922	0.40625
0.19971	0.30422
0.09770	0.32972
-0.31033	0.10015
-0.15732	-0.00188
0.88825	-0.12942
0.27621	0.12566
-0.00431	-0.07840
0.09770	0.35523
0.09770	0.17668
-0.08081	0.22769
0.09770	0.38074
0.12320	-0.25695
0.48022	-0.07840
0.07220	0.20219
0.17421	0.35523
0.02119	0.04914
0.22521	0.43176
-0.08081	0.78886
0.25071	0.02363
0.12320	-0.10391
0.27621	-0.07840
0.22521	0.04914
0.12320	-0.53754
0.14870	0.20219
-0.08081	0.43176
0.09770	0.78886
-0.02981	0.15117
0.27621	0.38074
0.17421	0.45726
0.07220	0.35523
0.02119	-0.18043
0.91375	-0.23145
0.12320	-0.00188
-0.18282	0.40625
-0.46334	-0.02739
0.12320	-0.56305
0.60773	0.30422
0.32721	0.25320
0.50573	0.10015
-0.15732	1.32453
0.40372	-0.07840
0.12320	-1.12422
-0.08081	-0.84363
-0.20832	0.38074
0.32721	0.68683
0.04670	0.83988
0.09770	0.73785
0.22521	0.35523
0.19971	0.22769
0.35272	0.10015
0.07220	-0.28246
0.42922	-0.05289
-0.25932	0.02363
-0.46334	0.12566
0.09770	0.04914
0.12320	-0.07840
0.42922	0.04914
0.17421	0.38074
0.19971	0.17668
0.35272	0.43176
0.04670	0.02363
0.02119	0.63582
0.14870	-0.30797
0.25071	-0.89465
0.25071	-1.20074
0.12320	1.17148
0.07220	0.86539
0.07220	1.12046
0.07220	-0.07840
-0.02981	0.30422
0.17421	-0.02739
-0.20832	0.63582
0.76074	0.61031
0.09770	0.10015
0.09770	0.43176
0.25071	-0.10391
0.22521	-0.41000
0.22521	-0.71609
0.19971	-0.25695
0.02119	0.25320
-0.18282	0.30422
-0.02981	0.68683
0.04670	0.27871
-0.33583	0.25320
0.35272	0.22769
1.14327	0.20219
0.22521	0.27871
-0.31033	0.15117
0.09770	0.25320
0.55673	0.15117
-0.28482	0.07465
0.30171	-0.02739
0.32721	0.10015
0.30171	-0.05289
0.22521	0.04914
-0.05531	0.22769
0.07220	0.30422
0.27621	0.38074
0.27621	0.07465
0.12320	0.04914
-0.36133	0.04914
0.17421	0.15117
0.50573	0.35523
0.19971	0.30422
0.02119	0.68683
0.22521	0.04914
0.27621	-0.25695
0.12320	0.02363
0.07220	-0.69059
0.12320	0.12566
0.12320	0.81437
0.17421	0.02363
0.07220	0.02363
0.17421	0.30422
0.14870	0.61031
0.14870	0.02363
0.35272	-0.02739
0.07220	0.25320
-0.02981	0.12566
0.32721	0.30422
0.27621	-0.10391
0.07220	-0.23145
-0.28482	-0.15492
-0.00431	0.27871
0.35272	-0.66508
0.50573	0.10015
0.42922	0.58480
0.12320	0.94191
-0.28482	0.12566
0.12320	0.22769
1.47479	0.20219
0.19971	0.58480
-1.04987	0.02363
-0.38683	-0.28246
0.40372	-0.20594
0.02119	0.38074
-0.15732	0.25320
0.60773	0.45726
0.70974	0.02363
0.12320	0.10015
-0.10631	0.12566
0.17421	0.10015
0.04670	0.35523
0.30171	-0.10391
0.25071	-0.51203
0.25071	-0.25695
0.12320	0.48277
-0.05531	0.27871
0.09770	-0.00188
0.17421	0.20219
0.12320	0.38074
0.07220	0.53379
0.09770	0.55929
0.19971	0.27871
0.17421	-0.07840
0.32721	-0.07840
0.17421	0.55929
-0.08081	0.15117
0.09770	-0.58856
-0.18282	-0.94566
0.70974	0.27871
0.12320	0.58480
0.30171	0.53379
0.09770	0.40625
0.02119	0.45726
0.37822	0.45726
0.02119	0.45726
0.12320	0.22769
-0.02981	-0.05289
0.32721	0.15117
-0.28482	-0.35899
0.83725	-0.46102
-0.23382	-0.12942
0.25071	0.15117
0.22521	0.17668
0.25071	0.55929
-0.02981	0.20219
-0.41233	0.04914
0.37822	0.35523
0.58223	0.50828
0.32721	0.12566
-0.05531	0.12566
0.32721	0.17668
-0.13181	0.22769
-0.46334	0.12566
0.88825	-0.05289
0.30171	-0.23145
0.14870	-0.20594
-0.02981	0.15117
-0.18282	0.32972
0.14870	0.73785
-0.05531	1.14597
0.42922	-0.15492
0.42922	-0.66508
-0.18282	-0.48652
0.04670	0.38074
-0.00431	0.58480
0.22521	0.15117
0.32721	0.15117
0.30171	0.86539
0.14870	0.10015
-0.08081	-0.28246
0.14870	-0.41000
0.22521	-0.35899
0.22521	0.25320
0.22521	0.81437
0.07220	0.78886
0.22521	0.38074
0.12320	0.04914
0.17421	0.45726
0.37822	-0.38449
-0.02981	-0.12942
-0.33583	-1.22625
-0.64185	-0.28246
0.25071	0.68683
-0.08081	0.76336
0.78624	0.63582
0.70974	0.43176
1.01576	0.30422
0.22521	0.02363
-0.59084	0.15117
-0.69285	0.04914
0.63323	0.22769
0.14870	-0.20594
0.40372	0.02363
-0.13181	-0.00188
0.42922	0.20219
0.35272	0.32972
-0.20832	0.30422
0.12320	-0.02739
0.12320	-0.12942
0.19971	0.02363
-0.05531	0.43176
-0.18282	0.15117
0.42922	0.50828
0.25071	-0.07840
0.12320	0.10015
0.27621	0.12566
0.30171	0.30422
0.09770	0.30422
0.09770	0.17668
0.19971	0.04914
0.07220	-0.94566
-0.13181	-0.58856
0.32721	0.43176
0.22521	0.94191
-0.05531	0.76336
0.09770	0.25320
0.12320	-0.48652
0.09770	-0.79262
0.14870	0.45726
0.02119	0.50828
-0.15732	0.71234
0.02119	0.55929
0.58223	0.04914
0.27621	-0.97117
0.22521	0.45726
0.19971	0.76336
0.32721	0.12566
0.37822	0.15117
-0.48884	0.48277
0.35272	-0.43551
0.17421	-0.79262
-0.05531	0.15117
0.37822	0.12566
0.12320	0.48277
0.04670	0.38074
-0.53984	0.07465
0.96476	0.25320
-0.31033	0.20219
0.04670	0.32972
0.65874	0.22769
0.27621	0.12566
0.12320	-0.02739
0.04670	0.35523
0.25071	-0.07840
0.37822	-0.02739
0.12320	0.04914
-0.79486	0.12566
0.27621	0.40625
0.68424	0.17668
-0.15732	0.40625
0.25071	0.17668
-0.15732	-0.02739
0.12320	-0.58856
0.42922	0.45726
0.35272	0.15117
0.17421	0.45726
0.04670	0.43176
-0.00431	0.20219
0.09770	0.73785
0.19971	0.15117
-0.00431	-0.05289
0.65874	-0.61406
0.07220	-0.33348
-0.08081	-0.79262
-0.10631	0.86539
0.04670	1.42656
0.40372	0.58480
0.19971	0.27871
-0.38683	-0.41000
-0.08081	0.20219
0.86275	0.22769
-0.15732	-0.48652
0.02119	0.17668
0.40372	-0.10391
0.63323	0.02363
-0.13181	0.04914
0.25071	0.22769
0.02119	0.25320
-0.00431	0.22769
0.22521	0.12566
0.12320	0.25320
0.07220	-0.05289
0.14870	0.15117
0.42922	0.27871
0.60773	-0.05289
0.19971	-0.10391
-0.08081	0.27871
-0.15732	0.30422
0.14870	0.40625
0.32721	-0.35899
0.17421	-0.15492
0.02119	-0.05289
-0.15732	0.48277
0.25071	0.40625
-0.00431	0.32972
0.09770	0.04914
0.30171	-0.02739
0.12320	0.02363
0.12320	0.76336
0.32721	0.73785
0.02119	-0.20594
0.32721	-0.58856
0.17421	-0.51203
-0.15732	0.76336
0.76074	0.10015
0.19971	-0.25695
-0.08081	0.63582
0.30171	0.25320
0.04670	-0.00188
0.09770	0.43176
0.30171	0.38074
0.25071	0.12566
-0.18282	-0.05289
0.22521	0.12566
-0.36133	-0.15492
-0.23382	0.32972
0.17421	0.07465
0.40372	-0.48652
0.78624	-0.23145
0.27621	0.38074
-0.15732	0.12566
0.07220	0.32972
0.65874	0.32972
-0.25932	0.17668
-0.20832	0.27871
0.09770	0.35523
0.58223	0.12566
0.32721	0.20219
0.02119	0.10015
-0.53984	0.12566
0.53123	0.27871
0.07220	-0.18043
0.17421	-0.10391
0.22521	0.55929
0.12320	0.07465
-0.18282	-0.20594
0.25071	0.04914
0.12320	0.53379
0.22521	0.50828
0.32721	0.25320
0.40372	0.12566
0.22521	-0.05289
-0.20832	0.15117
0.22521	0.20219
0.14870	0.15117
-0.18282	0.12566
0.22521	0.40625
0.12320	-0.63957
0.17421	-0.28246
0.35272	0.61031
0.19971	0.76336
0.17421	0.35523
0.17421	-0.00188
-0.05531	0.43176
0.02119	0.10015
0.37822	0.53379
0.58223	-0.15492
0.12320	0.25320
-1.07538	0.02363
0.02119	-0.56305
-0.56534	-0.61406
0.93925	0.15117
0.55673	0.58480
0.78624	0.35523
0.60773	0.20219
-0.36133	0.40625
-0.08081	0.30422
0.45472	0.27871
-0.56534	0.10015
0.27621	0.30422
0.40372	0.17668
0.48022	-0.15492
-0.15732	-0.38449
0.27621	0.40625
0.04670	0.15117
-0.13181	0.10015
0.22521	0.20219
0.42922	0.30422
0.09770	0.35523
-0.13181	0.48277
0.30171	-0.46102
0.12320	-0.28246
0.22521	0.50828
0.12320	0.32972
0.32721	0.76336
0.48022	-0.02739
-0.08081	0.38074
-0.05531	-0.23145
0.32721	-0.84363
0.25071	-0.43551
0.12320	0.68683
-0.15732	0.96742
0.09770	0.63582
0.14870	-0.10391
0.45472	-0.02739
0.55673	0.02363
-0.00431	0.17668
0.04670	0.04914
-0.05531	-0.12942
0.02119	0.20219
0.30171	0.43176
0.19971	0.15117
-0.18282	0.40625
0.17421	-0.10391
0.42922	-0.20594
-0.13181	-0.28246
0.37822	0.25320
0.48022	0.17668
0.35272	0.35523
-0.00431	0.45726
-0.20832	0.53379
0.22521	-0.00188
0.07220	0.12566
0.27621	-0.10391
-0.13181	-0.07840
-0.20832	0.35523
-0.18282	0.25320
0.27621	0.32972
0.40372	0.17668
0.42922	0.20219
0.19971	0.12566
-0.20832	-0.20594
0.09770	0.15117
0.45472	-0.05289
-0.02981	-0.15492
0.48022	0.35523
0.12320	0.30422
0.30171	0.50828
-0.08081	0.25320
-0.18282	0.02363
-0.20832	0.22769
0.53123	0.35523
0.04670	0.30422
0.09770	-0.12942
-0.08081	0.35523
0.27621	-0.18043
0.58223	-0.05289
0.32721	-0.30797
0.04670	0.40625
-0.02981	0.02363
0.25071	0.40625
0.04670	0.17668
0.04670	0.30422
-0.02981	0.25320
0.07220	0.02363
0.02119	-0.48652
0.58223	-0.07840
0.35272	0.22769
0.07220	0.68683
-0.51434	0.45726
0.25071	-0.46102
0.50573	0.61031
0.12320	0.22769
-0.08081	-0.81812
0.30171	-0.12942
0.63323	0.78886
0.32721	0.12566
-0.08081	-0.20594
-0.28482	0.55929
0.17421	0.61031
0.53123	0.12566
0.17421	0.32972
-0.00431	0.15117
0.32721	0.66132
-0.18282	-0.25695
0.22521	-0.35899
0.27621	-0.02739
0.19971	0.20219
0.12320	0.04914
0.22521	0.04914
-0.00431	0.27871
-0.23382	0.38074
0.19971	0.30422
0.32721	0.12566
0.25071	-0.07840
0.27621	0.27871
0.02119	0.35523
0.14870	0.22769
0.02119	-0.05289
0.30171	0.07465
-0.08081	0.25320
0.27621	0.30422
0.25071	0.12566
0.09770	0.48277
0.17421	-0.23145
0.32721	0.02363
-0.36133	-0.38449
0.19971	0.96742
0.02119	-0.38449
0.27621	-1.48133
0.32721	-0.38449
0.30171	1.22250
0.19971	1.45206
0.30171	0.83988
-0.31033	0.20219
-0.25932	-0.05289
0.07220	0.15117
0.63323	0.35523
0.12320	0.04914
0.22521	-0.05289
-0.28482	-0.15492
0.32721	0.07465
-0.08081	0.35523
0.45472	-0.02739
0.86275	-1.02219
0.12320	-0.51203
-0.36133	0.66132
-0.02981	1.04394
0.45472	0.50828
-0.08081	0.17668
-0.33583	0.17668
0.30171	0.17668
0.58223	0.58480
0.17421	0.04914
-0.28482	-0.00188
-0.15732	-0.07840
0.42922	0.55929
0.19971	0.07465
0.63323	-0.48652
0.19971	-0.38449
0.04670	0.15117
-0.08081	0.25320
0.02119	0.53379
-0.13181	0.38074
0.32721	1.12046
0.14870	-0.05289
0.12320	-0.99668
-0.02981	-1.07320
-0.13181	0.25320
0.07220	1.01843
1.21977	0.63582
0.35272	0.10015
-0.00431	0.10015
-0.66735	-0.12942
0.22521	0.15117
0.35272	0.10015
0.50573	0.50828
-0.02981	0.07465
-0.43783	0.10015
0.12320	0.38074
0.35272	0.30422
0.02119	-0.84363
0.32721	-0.92016
0.53123	-0.02739
0.32721	-0.15492
0.17421	0.81437
0.25071	0.25320
0.25071	0.53379
0.17421	0.68683
0.14870	0.40625
-0.53984	0.50828
-0.38683	0.38074
0.50573	-0.00188
-0.00431	-0.05289
-0.02981	-0.25695
0.32721	-0.05289
0.22521	0.20219
-0.02981	0.20219
0.07220	0.12566
0.32721	-0.07840
0.14870	-0.18043
0.42922	0.10015
0.09770	0.12566
0.27621	0.55929
-0.02981	0.22769
0.32721	0.25320
0.02119	0.32972
-0.15732	0.10015
0.37822	-0.18043
-0.25932	0.30422
-0.23382	0.02363
0.53123	0.32972
0.50573	0.35523
-0.08081	0.66132
0.32721	-0.66508
0.27621	-0.53754
0.58223	-0.28246
-0.87136	0.35523
0.12320	0.96742
0.30171	0.50828
0.12320	-0.28246
0.53123	0.83988
0.63323	0.32972
-0.25932	-0.07840
0.17421	-0.69059
0.12320	-0.02739
-0.36133	0.50828
0.30171	0.63582
0.19971	0.66132
-0.20832	-0.33348
0.32721	-1.32828
0.12320	-0.41000
0.42922	0.50828
0.45472	0.81437
0.45472	0.96742
-0.23382	0.71234
-0.18282	0.38074
0.04670	-0.25695
0.14870	0.22769
0.86275	-0.10391
0.37822	-0.10391
-0.00431	-0.02739
-0.31033	-0.07840
0.83725	0.17668
0.14870	-0.02739
-0.46334	0.48277
0.30171	0.48277
0.12320	0.10015
-0.33583	0.20219
0.12320	0.27871
0.17421	-0.35899
0.07220	-0.43551
0.32721	0.15117
0.14870	0.55929
0.55673	0.25320
0.30171	0.38074
0.14870	0.35523
-0.20832	0.35523
0.22521	0.78886
0.30171	0.20219
0.27621	-0.76711
0.07220	-0.00188
0.22521	-0.00188
-0.02981	0.30422
0.02119	0.38074
-0.08081	0.12566
0.19971	0.32972
0.12320	0.40625
0.40372	-0.05289
0.25071	-0.02739
-0.08081	0.25320
-0.36133	0.02363
0.12320	-0.02739
0.19971	0.10015
0.91375	0.25320
0.45472	0.27871
-0.10631	0.15117
-0.28482	0.61031
0.45472	0.38074
0.02119	-1.07320
-0.20832	-2.06800
0.48022	0.32972
0.40372	0.96742
0.07220	1.04394
-0.00431	0.91640
0.22521	0.94191
-0.25932	0.66132
0.65874	0.32972
0.55673	-0.05289
0.17421	0.02363
0.14870	0.12566
0.12320	-0.38449
-0.20832	-0.51203
0.19971	-0.53754
-0.00431	-0.12942
0.04670	0.07465
0.35272	0.45726
0.17421	0.30422
-0.13181	0.76336
0.35272	0.27871
0.17421	-0.02739
0.19971	0.17668
0.12320	0.02363
0.02119	0.07465
0.14870	-0.05289
0.09770	0.32972
0.19971	0.32972
-0.08081	0.55929
0.25071	0.63582
0.55673	-0.10391
-0.15732	-0.02739
0.19971	-0.41000
-0.13181	0.17668
0.35272	0.43176
0.35272	0.53379
0.35272	0.02363
-0.02981	0.10015
-0.10631	0.45726
0.17421	-0.05289
0.22521	-0.84363
0.19971	0.07465
