0.07220	0.30422
0.14870	0.17668
0.14870	0.10015
0.12320	0.10015
0.14870	0.10015
0.12320	0.12566
0.22521	0.25320
0.09770	0.17668
0.17421	0.25320
0.09770	0.10015
0.27621	0.07465
0.09770	0.12566
0.09770	0.12566
0.14870	0.25320
0.12320	0.04914
0.12320	0.15117
0.02119	0.12566
0.19971	0.22769
0.19971	0.10015
0.14870	0.07465
-0.00431	0.15117
0.12320	0.10015
0.30171	0.10015
0.22521	0.12566
0.09770	0.17668
0.12320	0.27871
0.12320	0.07465
0.12320	-0.02739
0.14870	0.15117
0.07220	0.20219
0.27621	0.22769
0.07220	0.02363
0.22521	0.17668
0.09770	0.25320
0.19971	0.20219
0.12320	0.20219
0.07220	-0.07840
0.22521	-0.15492
0.07220	0.15117
0.25071	0.40625
0.07220	0.02363
0.22521	0.10015
0.12320	0.22769
0.14870	0.32972
0.09770	0.25320
0.02119	0.10015
0.19971	0.22769
0.17421	0.04914
0.17421	-0.18043
0.22521	-0.33348
0.12320	0.35523
0.19971	0.53379
0.04670	0.38074
0.07220	0.20219
0.12320	0.10015
0.09770	0.17668
0.14870	0.10015
0.14870	-0.15492
0.17421	0.35523
0.04670	0.07465
0.27621	0.27871
0.04670	-0.12942
0.32721	-0.05289
0.09770	-0.02739
-0.02981	-0.00188
0.12320	0.45726
0.17421	-0.00188
0.09770	0.66132
0.22521	0.35523
0.22521	0.15117
0.27621	-0.35899
0.19971	0.40625
-0.13181	0.04914
0.22521	-0.30797
0.12320	0.35523
0.19971	0.50828
0.17421	0.94191
0.17421	-0.25695
-0.13181	-0.58856
0.07220	0.10015
0.30171	0.38074
0.40372	0.45726
0.09770	0.20219
0.12320	-0.35899
0.02119	-0.10391
0.12320	-0.28246
0.22521	0.96742
-0.02981	-0.18043
0.09770	-0.53754
0.09770	0.15117
0.09770	1.12046
0.27621	0.15117
0.07220	-0.25695
0.22521	0.48277
0.42922	0.91640
0.17421	-0.00188
0.12320	-0.23145
-0.13181	-0.35899
0.27621	0.07465
0.32721	0.32972
0.22521	0.04914
0.37822	0.27871
-0.18282	0.81437
0.02119	-0.25695
0.12320	-0.15492
0.27621	0.94191
-0.02981	-0.30797
0.45472	0.15117
0.25071	0.91640
0.07220	0.04914
0.17421	-0.23145
0.42922	-0.00188
0.14870	0.07465
-0.15732	-0.84363
0.32721	-1.07320
0.02119	0.78886
0.30171	0.76336
-0.31033	1.98773
0.14870	0.50828
0.22521	-0.46102
0.19971	-0.81812
0.19971	0.04914
0.19971	1.78367
0.14870	1.42656
0.14870	-0.81812
0.37822	-2.39961
0.42922	-3.11382
0.12320	0.58480
0.09770	1.91120
-0.38683	1.52859
-0.10631	0.94191
-0.13181	0.94191
-0.08081	1.09496
0.19971	0.40625
0.73524	0.15117
0.55673	-0.20594
0.17421	-0.18043
0.02119	-0.23145
0.19971	-0.89465
0.68424	0.25320
-0.20832	0.35523
-0.25932	-1.94047
0.60773	-2.09351
-0.00431	0.45726
-0.15732	0.71234
0.19971	0.25320
-0.05531	1.09496
-0.20832	0.58480
0.17421	1.24800
0.53123	1.73265
-0.28482	0.40625
0.14870	0.43176
0.19971	-0.25695
0.40372	0.40625
0.40372	0.40625
0.07220	-0.86914
0.17421	-0.69059
0.25071	0.07465
0.50573	-0.46102
0.22521	0.35523
-0.10631	-1.09871
-0.05531	0.32972
0.09770	1.52859
0.12320	2.77847
-0.15732	0.27871
-0.23382	-0.33348
0.12320	-2.22105
0.50573	0.38074
-0.05531	1.37554
-0.20832	1.04394
0.12320	0.15117
0.30171	-1.86394
0.50573	-1.02219
0.42922	0.55929
0.40372	0.76336
0.22521	0.20219
0.09770	-0.66508
0.19971	1.63062
-0.13181	1.01843
0.02119	0.20219
0.02119	-3.06281
-0.43783	-0.23145
0.14870	0.99292
0.35272	0.96742
0.63323	0.68683
0.30171	0.76336
-0.13181	0.30422
0.30171	-0.15492
-0.10631	0.04914
0.02119	0.38074
0.32721	0.30422
0.63323	-0.30797
0.12320	-0.05289
0.40372	0.30422
-0.23382	-0.92016
-0.18282	-1.07320
0.25071	-0.33348
0.32721	0.78886
0.09770	0.91640
0.12320	0.04914
0.09770	0.91640
0.42922	1.40105
0.14870	-0.51203
-0.23382	-1.09871
-0.23382	-0.46102
0.17421	0.94191
-0.05531	1.83468
0.73524	-0.33348
0.40372	-1.07320
0.37822	-0.41000
0.25071	0.99292
-0.10631	0.71234
0.12320	1.75816
-0.15732	-0.58856
0.19971	-0.53754
0.17421	-0.35899
-0.13181	0.32972
-0.13181	1.32453
0.48022	1.29902
0.53123	-0.97117
0.45472	-1.27726
-0.13181	-0.46102
0.04670	-1.22625
0.07220	-0.92016
0.02119	0.66132
0.07220	2.31933
0.07220	1.93671
0.32721	0.66132
0.40372	0.25320
0.42922	0.43176
0.17421	-0.25695
0.02119	-1.50683
-0.02981	-0.07840
0.02119	0.35523
0.17421	-0.38449
0.02119	0.12566
0.37822	0.15117
-0.25932	0.50828
0.07220	0.48277
0.53123	0.07465
0.17421	-0.66508
0.19971	-0.02739
0.09770	-0.56305
-0.13181	1.78367
-0.08081	-0.38449
0.50573	-0.38449
0.22521	0.86539
0.04670	1.17148
0.17421	0.78886
0.07220	-1.40480
0.45472	0.43176
0.48022	-0.05289
0.60773	-0.05289
-0.10631	-0.58856
-0.43783	0.63582
-0.28482	1.40105
0.07220	1.06945
0.60773	1.06945
0.48022	3.44167
-0.02981	-2.80773
0.17421	-5.28198
0.42922	-2.57816
0.04670	1.27351
0.07220	1.86019
0.07220	1.78367
0.09770	1.52859
0.02119	0.02363
0.14870	-0.05289
0.02119	0.25320
0.27621	-0.25695
0.50573	0.45726
-0.08081	0.20219
0.25071	-0.12942
0.12320	-0.28246
0.25071	0.63582
-0.41233	-0.46102
0.02119	-2.70570
-0.00431	0.22769
-0.02981	0.96742
0.55673	0.22769
0.55673	1.35003
0.22521	1.60511
0.19971	0.43176
0.32721	-0.48652
0.48022	-1.25176
-0.02981	0.35523
-0.31033	0.63582
0.07220	0.78886
-0.13181	0.30422
0.30171	0.30422
0.07220	0.96742
0.25071	0.12566
0.68424	-0.41000
-0.05531	-0.61406
-0.56534	-2.11902
0.58223	0.12566
0.09770	1.40105
0.35272	0.83988
-0.02981	-0.05289
-0.13181	0.71234
0.58223	1.45206
0.42922	0.38074
-0.02981	-1.48133
-0.08081	-2.55265
0.17421	0.48277
-0.08081	0.89089
0.02119	1.60511
0.63323	0.50828
-0.02981	0.32972
0.04670	0.12566
0.25071	-0.07840
0.22521	-0.18043
0.22521	-0.02739
-0.13181	-0.18043
0.22521	0.27871
0.09770	0.48277
0.40372	-0.61406
0.27621	1.40105
0.07220	2.21730
0.09770	-1.68539
-0.00431	-2.24656
0.02119	0.32972
0.48022	0.20219
0.02119	0.94191
-0.51434	0.91640
0.19971	0.81437
0.04670	0.86539
0.48022	0.83988
0.78624	-0.66508
0.48022	-2.39961
-0.33583	0.10015
-1.35589	0.66132
0.09770	-0.51203
-0.05531	0.40625
1.01576	1.24800
0.73524	-0.12942
0.27621	-0.46102
0.35272	-0.02739
-0.02981	0.91640
0.19971	0.73785
0.76074	-0.56305
-0.18282	-0.63957
-0.28482	1.14597
-0.13181	0.48277
-0.10631	0.27871
-0.13181	0.30422
-0.08081	0.22769
0.25071	-0.89465
0.25071	-1.37929
0.22521	0.30422
0.30171	0.89089
0.22521	0.10015
0.40372	0.40625
-0.43783	0.99292
0.12320	1.75816
0.27621	0.12566
0.25071	-1.04770
0.48022	-2.24656
0.42922	-1.91496
0.22521	-0.43551
-0.56534	1.45206
-0.08081	1.78367
0.17421	1.29902
0.27621	0.91640
0.12320	0.58480
0.22521	-0.25695
0.07220	0.10015
0.19971	-0.18043
0.02119	-0.46102
0.04670	0.35523
-0.33583	-0.43551
0.27621	-0.20594
0.78624	0.10015
-0.23382	0.27871
0.32721	0.32972
0.78624	0.04914
0.30171	0.48277
0.22521	0.15117
-0.38683	-0.76711
0.12320	0.30422
-0.25932	0.94191
-0.05531	0.68683
0.25071	0.35523
0.32721	0.71234
0.27621	-0.56305
0.14870	-0.30797
0.22521	-0.20594
-0.13181	-0.28246
-0.10631	0.55929
0.32721	-0.28246
0.14870	1.32453
0.30171	0.55929
0.50573	-1.12422
0.09770	-0.35899
-0.00431	0.50828
0.12320	1.14597
0.02119	1.24800
0.12320	-0.89465
0.25071	-1.99148
0.19971	0.17668
0.17421	0.45726
-0.02981	0.55929
0.19971	1.35003
0.02119	0.99292
0.42922	-0.35899
0.22521	-0.79262
-0.59084	-0.15492
0.25071	0.22769
0.32721	-0.07840
0.30171	0.83988
-0.33583	0.61031
0.32721	0.02363
0.53123	0.17668
0.30171	0.32972
0.35272	0.25320
0.68424	-0.71609
-0.43783	-0.02739
0.30171	-0.74160
-0.08081	0.55929
-0.05531	0.43176
0.30171	0.07465
0.27621	-0.30797
0.30171	1.09496
-0.18282	-0.10391
0.02119	-0.51203
0.17421	0.66132
-0.00431	0.81437
0.19971	-0.28246
0.32721	0.30422
0.12320	0.35523
-0.02981	-0.00188
-0.00431	-0.00188
0.22521	0.61031
0.30171	-0.46102
0.37822	-0.38449
0.32721	-0.18043
0.12320	-0.02739
-0.13181	0.99292
0.07220	0.40625
0.40372	0.04914
0.09770	-0.79262
-0.38683	0.61031
0.70974	-0.23145
0.58223	-0.38449
0.07220	0.50828
-0.84586	-0.12942
0.27621	0.20219
0.02119	0.61031
0.35272	1.27351
0.55673	0.12566
0.19971	0.32972
0.45472	-0.74160
0.40372	-0.10391
0.07220	0.12566
-0.02981	0.27871
-0.43783	0.73785
-0.33583	0.45726
0.07220	-0.63957
0.32721	-1.07320
0.45472	-0.02739
0.70974	0.30422
-0.18282	0.25320
-0.43783	0.40625
0.35272	0.58480
0.58223	1.17148
-0.00431	0.38074
0.04670	-0.43551
-0.15732	-0.71609
0.19971	0.32972
0.02119	0.89089
0.68424	0.02363
0.14870	-1.53234
0.09770	0.76336
-0.18282	0.20219
0.19971	0.25320
0.07220	0.20219
0.30171	-0.15492
-0.13181	0.07465
-0.28482	1.57960
0.50573	0.78886
0.63323	0.78886
0.17421	-0.35899
0.02119	-1.17523
0.02119	-1.50683
-0.48884	0.50828
0.14870	0.96742
1.11776	0.50828
0.53123	0.35523
-0.13181	-0.43551
-0.31033	0.55929
-0.33583	0.71234
0.65874	0.63582
0.88825	-0.38449
0.37822	-0.15492
-1.02437	0.02363
0.63323	-0.25695
-0.02981	0.17668
-0.13181	0.10015
0.53123	0.00000
-0.02981	0.00000
0.02119	0.10015
0.53123	0.15117
0.14870	1.27351
0.17421	-0.30797
0.12320	0.04914
0.12320	0.35523
-0.08081	1.01843
0.19971	-0.71609
0.14870	-2.47613
0.14870	0.53379
-0.05531	0.94191
0.04670	0.61031
-0.08081	1.27351
0.17421	-0.00188
0.07220	-0.69059
0.37822	-0.71609
0.53123	0.83988
0.22521	0.76336
0.42922	0.45726
0.09770	0.07465
-0.05531	0.07465
-0.08081	-1.09871
0.12320	0.35523
0.02119	-0.48652
0.14870	0.30422
0.02119	0.83988
-0.02981	0.15117
0.76074	0.38074
-0.13181	-0.56305
-0.48884	0.12566
0.40372	-0.10391
1.06676	0.61031
-0.02981	-0.33348
-0.10631	0.38074
-0.28482	0.55929
0.17421	0.27871
0.55673	0.30422
0.99026	0.40625
0.55673	1.75816
-0.13181	0.32972
-0.25932	-1.91496
-0.25932	-3.34339
-0.23382	-0.25695
-1.35589	0.45726
0.32721	1.42656
0.70974	1.50308
0.73524	1.04394
0.50573	0.63582
0.02119	0.94191
0.99026	0.86539
0.25071	-0.66508
-0.08081	-0.38449
-0.13181	-1.50683
0.07220	-3.13933
0.17421	0.99292
-0.28482	1.35003
-0.05531	0.76336
0.45472	1.52859
-0.23382	1.09496
-0.28482	-0.33348
0.17421	1.14597
0.30171	-0.97117
0.48022	-3.44542
0.30171	0.30422
0.58223	1.19699
0.19971	0.20219
0.32721	-0.18043
-0.08081	0.83988
0.09770	0.68683
0.17421	0.68683
0.12320	0.30422
0.27621	0.25320
0.35272	0.15117
-0.31033	0.04914
-0.76936	-0.18043
0.17421	-0.25695
0.07220	-0.15492
0.99026	0.30422
0.73524	-0.84363
-0.74385	-0.79262
-0.20832	0.55929
0.53123	0.50828
0.91375	0.71234
0.32721	1.06945
-0.05531	0.45726
0.53123	-0.58856
-0.02981	-0.86914
0.04670	0.89089
0.32721	0.45726
-0.59084	1.01843
-0.18282	-0.61406
0.30171	0.20219
0.30171	-0.15492
0.09770	-0.23145
0.17421	0.83988
0.63323	0.04914
0.12320	0.10015
-0.08081	-1.12422
-0.59084	0.43176
0.70974	0.22769
0.25071	0.94191
-0.00431	-0.10391
0.32721	-0.30797
0.50573	0.61031
0.22521	1.52859
-0.25932	-0.20594
0.09770	-0.86914
0.50573	0.71234
-0.20832	-0.23145
0.19971	-0.74160
-0.20832	1.37554
0.07220	1.01843
0.04670	-0.94566
0.40372	-0.41000
0.22521	1.14597
0.14870	0.27871
-0.79486	-0.10391
0.83725	-0.18043
-0.18282	0.20219
0.32721	0.15117
0.63323	0.48277
-0.05531	0.15117
0.53123	-0.71609
0.73524	-0.84363
-0.94787	0.71234
-0.13181	0.83988
0.53123	0.94191
0.19971	-0.05289
0.53123	0.15117
0.17421	0.20219
0.04670	-0.63957
0.27621	-0.30797
-0.53984	0.81437
0.04670	-0.28246
0.30171	0.17668
0.09770	-0.07840
0.27621	0.07465
0.86275	0.38074
-0.97337	-0.56305
0.40372	0.35523
-0.08081	0.04914
0.30171	0.25320
0.19971	0.30422
0.65874	-0.38449
0.37822	0.43176
-0.08081	0.61031
-0.05531	0.40625
0.27621	1.57960
-0.08081	0.43176
0.04670	-2.27207
0.48022	-2.01699
-0.23382	1.12046
0.09770	1.40105
-0.41233	0.32972
0.25071	0.35523
-0.13181	0.66132
0.42922	0.91640
0.99026	0.50828
-0.08081	-0.92016
0.09770	-0.63957
0.42922	0.17668
-0.38683	-0.25695
-0.13181	0.20219
1.44929	0.73785
-0.10631	0.40625
-0.23382	-0.48652
-0.33583	0.45726
-0.25932	1.06945
-0.43783	0.35523
0.37822	-1.20074
2.11233	-0.58856
0.27621	0.40625
-0.61635	0.83988
-0.15732	0.68683
-0.10631	0.61031
0.19971	0.10015
0.50573	0.96742
1.14327	0.10015
-0.00431	-0.63957
-0.61635	-1.94047
0.68424	0.27871
-0.08081	1.06945
-0.28482	0.86539
0.50573	-0.07840
0.09770	-0.10391
0.14870	-0.07840
0.12320	0.50828
0.32721	0.02363
-0.13181	0.32972
-0.02981	0.71234
-0.10631	-0.00188
0.37822	0.15117
0.25071	-1.22625
0.22521	-0.46102
0.42922	-0.18043
0.22521	1.14597
-0.05531	0.10015
-0.25932	1.17148
0.07220	0.96742
-0.41233	0.86539
0.37822	0.66132
0.14870	-0.66508
-0.18282	-1.17523
0.60773	0.02363
0.83725	-0.25695
0.32721	0.04914
0.37822	0.30422
0.12320	0.10015
-0.38683	0.83988
-0.28482	0.55929
-0.41233	1.17148
0.22521	0.27871
0.42922	-1.45582
0.09770	-1.20074
0.07220	-0.58856
0.27621	0.86539
-0.00431	1.47757
-0.20832	1.32453
-0.08081	-0.02739
0.22521	-0.66508
0.53123	-0.10391
0.58223	0.20219
0.02119	0.86539
-0.46334	0.38074
0.48022	0.07465
0.25071	0.20219
-0.25932	-1.32828
0.22521	-0.28246
0.68424	0.10015
0.04670	0.53379
-0.02981	1.63062
-0.28482	0.81437
0.37822	-0.66508
0.73524	-1.07320
0.07220	-0.43551
0.12320	0.63582
-0.66735	1.04394
0.07220	-1.04770
0.12320	-0.35899
0.17421	0.58480
0.12320	1.22250
0.19971	0.35523
0.12320	0.76336
0.58223	0.27871
-0.00431	-0.71609
-0.53984	0.04914
0.91375	0.12566
0.07220	0.61031
-0.28482	0.81437
0.27621	-0.74160
0.22521	-2.06800
-0.46334	-0.28246
-0.46334	0.76336
0.73524	0.71234
0.73524	0.63582
0.45472	0.55929
0.14870	0.71234
0.30171	0.20219
0.37822	-0.02739
0.53123	-0.30797
-0.10631	0.61031
-0.99887	-0.35899
-0.15732	-0.43551
-0.00431	-2.27207
0.35272	1.17148
0.04670	0.91640
0.19971	0.99292
0.45472	0.89089
0.37822	0.96742
-0.23382	0.32972
0.19971	-0.94566
0.04670	-0.74160
0.19971	-0.23145
0.07220	-0.05289
0.35272	1.19699
0.53123	0.66132
0.32721	-1.27726
0.45472	-2.06800
0.22521	0.38074
0.17421	0.71234
-0.00431	0.99292
-1.40690	0.99292
-0.33583	0.12566
-0.13181	0.10015
0.63323	0.10015
0.78624	-0.18043
0.60773	-0.46102
0.19971	0.86539
0.48022	-0.38449
0.25071	-0.25695
-0.00431	0.32972
-0.15732	0.78886
0.02119	-0.07840
-0.20832	0.27871
-0.05531	0.43176
0.42922	0.50828
0.37822	0.40625
0.12320	-1.09871
-0.05531	0.10015
-0.31033	0.22769
0.19971	0.22769
0.58223	0.07465
0.17421	0.94191
-0.00431	0.71234
-0.15732	-0.61406
-0.13181	0.20219
0.14870	-0.74160
0.58223	-0.07840
0.37822	0.76336
-0.02981	-0.20594
0.37822	-0.05289
-0.25932	0.40625
-0.00431	0.50828
0.14870	0.83988
0.60773	0.35523
0.53123	-0.53754
0.12320	-0.05289
-0.18282	-0.02739
-0.13181	0.76336
-0.10631	0.71234
0.07220	-0.76711
0.09770	-2.55265
0.30171	0.73785
0.58223	1.12046
0.27621	0.89089
-0.28482	2.52339
-0.41233	0.32972
0.81175	-2.80773
0.17421	0.45726
-0.61635	0.20219
0.65874	0.66132
0.35272	-0.10391
-0.15732	-1.25176
0.22521	0.30422
0.63323	1.12046
-0.61635	0.76336
0.99026	0.22769
1.06676	-0.00188
-0.53984	-0.89465
-0.28482	0.48277
-0.10631	0.10015
0.22521	0.07465
-0.48884	-0.63957
0.40372	0.32972
0.22521	0.27871
0.27621	0.76336
0.30171	0.12566
0.22521	0.61031
0.02119	-0.86914
-0.53984	-1.04770
0.42922	-0.25695
0.60773	1.63062
-0.36133	0.86539
0.04670	0.66132
0.14870	0.55929
0.22521	-0.92016
0.48022	-1.12422
0.09770	1.37554
-0.08081	0.25320
-0.13181	0.78886
0.86275	0.53379
0.25071	-0.76711
-0.41233	-1.27726
-0.74385	-0.20594
0.93925	0.66132
0.63323	0.55929
-0.02981	1.01843
0.50573	0.61031
-0.13181	-0.41000
-0.05531	-1.12422
-0.05531	1.19699
0.04670	-0.00188
0.37822	-0.05289
-0.20832	-0.84363
0.58223	1.47757
0.65874	-0.10391
-0.61635	-1.30277
-0.10631	0.04914
0.12320	0.76336
-0.13181	1.40105
0.63323	0.10015
-0.13181	0.68683
0.42922	0.12566
-0.38683	0.38074
0.58223	-1.04770
0.96476	0.27871
0.30171	0.27871
0.17421	0.32972
0.27621	-0.35899
-0.02981	-2.14453
-0.00431	0.55929
-0.23382	0.50828
0.40372	0.55929
0.07220	0.15117
-0.18282	1.01843
-0.15732	1.04394
0.35272	-0.81812
0.17421	0.22769
-0.64185	-0.02739
0.50573	0.27871
0.27621	-0.05289
0.58223	-0.18043
0.53123	0.63582
0.37822	0.22769
0.35272	0.15117
-0.38683	0.55929
0.32721	0.45726
-0.36133	-0.10391
0.42922	-0.30797
-0.08081	-0.00188
0.02119	-0.07840
0.86275	-0.18043
0.68424	-0.12942
0.09770	-0.00188
-0.66735	0.45726
-0.08081	1.27351
-0.05531	0.55929
0.78624	-0.28246
1.01576	0.38074
-0.20832	0.27871
-2.04444	-1.30277
1.32178	0.35523
0.22521	0.68683
0.32721	0.15117
-0.18282	-0.61406
0.58223	0.50828
0.14870	1.04394
0.50573	-0.15492
-0.20832	-0.15492
-0.05531	1.29902
0.30171	-0.18043
-0.71835	-1.88945
0.55673	-1.27726
0.22521	0.50828
0.37822	1.57960
0.14870	0.66132
0.17421	-0.10391
0.14870	0.38074
0.12320	0.94191
0.42922	0.50828
0.30171	-1.81293
-0.74385	0.45726
-0.23382	0.10015
0.53123	-0.18043
0.14870	0.81437
0.12320	0.91640
0.53123	0.35523
0.04670	0.78886
0.02119	0.10015
-0.20832	-0.97117
0.14870	-0.76711
0.42922	1.37554
0.58223	-0.02739
-0.15732	-0.92016
-1.04987	-0.86914
0.04670	-0.28246
0.99026	0.17668
0.83725	1.29902
0.73524	0.58480
-0.59084	0.63582
-1.25389	0.66132
0.04670	0.55929
0.22521	0.91640
0.53123	-0.23145
0.53123	-1.07320
0.42922	-1.25176
0.42922	0.12566
-0.13181	1.06945
-0.28482	1.01843
-0.05531	1.52859
0.91375	-1.58336
0.09770	-2.93527
-0.33583	0.48277
0.02119	1.35003
0.83725	0.58480
-0.99887	-0.23145
0.09770	1.04394
0.04670	1.19699
1.16877	0.40625
0.40372	0.07465
0.70974	0.38074
0.32721	0.96742
0.27621	-0.41000
-0.76936	-1.12422
-0.33583	-2.19554
0.32721	-0.02739
0.45472	0.89089
0.42922	-0.10391
0.07220	0.10015
0.17421	1.17148
0.42922	1.37554
-0.25932	1.17148
0.58223	0.66132
0.17421	1.27351
0.19971	-0.33348
-0.41233	-3.31788
-0.74385	-0.33348
0.37822	0.68683
0.53123	0.43176
-0.00431	0.22769
0.22521	0.58480
0.37822	0.22769
0.12320	0.38074
0.58223	0.89089
0.35272	-0.66508
-0.10631	-1.04770
0.32721	-0.43551
0.14870	0.22769
-0.10631	1.09496
0.14870	0.73785
0.91375	0.55929
-0.31033	0.96742
-0.25932	0.10015
0.42922	0.17668
0.32721	-0.48652
-0.00431	-0.61406
0.50573	0.20219
0.27621	-0.28246
-0.13181	0.68683
-0.00431	0.50828
0.91375	0.48277
0.14870	-0.02739
-0.18282	0.55929
-0.76936	-1.12422
0.35272	0.22769
0.32721	0.76336
0.60773	0.07465
-0.53984	0.20219
0.32721	0.30422
0.35272	-0.33348
0.42922	0.48277
-0.05531	-0.23145
0.50573	0.07465
0.22521	-0.25695
0.42922	0.35523
-0.69285	0.45726
-0.10631	0.35523
-0.02981	-0.86914
0.50573	-0.07840
0.02119	1.01843
0.63323	0.45726
-0.05531	0.38074
0.32721	0.83988
0.14870	0.04914
-0.10631	-0.71609
0.35272	0.02363
0.32721	-0.07840
0.53123	-0.20594
0.35272	0.83988
-0.89686	0.43176
-1.38139	0.76336
0.53123	0.20219
1.09226	0.15117
0.09770	0.04914
0.53123	-0.10391
0.65874	-0.38449
0.12320	-0.41000
-0.18282	0.12566
0.55673	0.15117
0.19971	0.20219
-0.10631	0.40625
0.14870	-0.25695
0.02119	-1.68539
0.35272	1.17148
0.48022	1.24800
-0.79486	0.48277
-1.15188	0.20219
0.27621	0.43176
0.73524	0.63582
-0.28482	0.12566
0.37822	-0.79262
1.04126	0.55929
0.70974	0.07465
0.53123	-0.33348
0.12320	-0.41000
-0.79486	-0.20594
0.22521	0.40625
0.22521	-0.10391
0.12320	1.19699
0.07220	0.48277
0.81175	-0.25695
0.12320	0.76336
0.14870	-0.28246
-0.25932	-0.84363
-0.18282	-0.41000
0.14870	0.99292
0.12320	0.81437
-0.23382	0.94191
0.81175	-0.02739
0.48022	-0.66508
-0.08081	0.71234
-0.25932	-0.38449
0.19971	-0.97117
-0.00431	0.43176
0.53123	0.76336
-0.00431	0.45726
-0.48884	-0.00188
-0.08081	0.07465
0.96476	0.15117
-0.36133	0.30422
0.83725	0.12566
0.45472	-0.38449
0.25071	0.45726
-0.33583	0.30422
-0.36133	-0.41000
-0.82036	-0.89465
0.40372	-0.07840
0.48022	0.94191
0.12320	0.96742
-0.23382	1.04394
-0.23382	-0.53754
0.86275	-0.25695
0.35272	-0.76711
0.53123	-1.20074
-0.00431	0.96742
0.07220	0.61031
0.17421	1.78367
-0.25932	1.09496
-0.25932	-0.38449
0.27621	-0.71609
0.22521	-0.46102
-0.18282	0.48277
0.68424	-0.05289
1.11776	0.71234
-0.64185	0.73785
-0.13181	0.63582
0.04670	-0.18043
0.12320	-0.41000
0.48022	-0.35899
0.12320	-0.20594
0.37822	0.27871
0.02119	-0.00188
-0.18282	0.53379
0.12320	0.07465
0.78624	1.01843
-0.71835	0.63582
0.53123	0.25320
0.27621	-0.20594
1.04126	0.02363
-0.15732	-0.15492
0.37822	-0.48652
0.14870	0.30422
-1.20288	0.55929
-0.48884	0.20219
0.83725	0.63582
0.14870	-0.48652
1.24527	-0.61406
0.27621	-0.43551
0.12320	0.63582
-0.69285	0.76336
-1.68742	0.50828
0.53123	0.22769
0.27621	0.58480
1.24527	-0.00188
0.78624	-0.18043
0.25071	0.71234
-0.00431	-0.02739
-0.02981	-0.92016
0.17421	-0.61406
0.19971	-0.61406
0.19971	1.06945
0.19971	0.20219
0.17421	0.20219
-0.31033	0.02363
-0.20832	0.43176
0.91375	1.04394
0.09770	0.12566
-0.20832	-0.76711
-0.41233	-0.63957
0.09770	0.10015
0.76074	0.94191
0.68424	0.40625
-0.53984	-0.23145
1.06676	-0.99668
-0.00431	0.35523
0.07220	1.01843
-0.38683	0.76336
-0.00431	-0.20594
0.37822	-1.09871
-1.20288	0.22769
-0.15732	1.04394
1.93382	0.58480
1.16877	0.45726
0.60773	0.45726
0.22521	-0.23145
-1.22839	-0.35899
-1.63641	0.25320
0.09770	0.07465
1.27078	0.12566
0.02119	-0.18043
0.14870	0.25320
0.07220	-0.00188
0.07220	-0.28246
0.02119	0.27871
0.55673	0.55929
-0.31033	0.63582
0.12320	-0.53754
-0.33583	-0.69059
0.07220	0.35523
0.63323	1.17148
0.17421	0.71234
-0.02981	1.09496
0.22521	0.83988
0.12320	-0.71609
0.50573	-1.22625
0.04670	-0.94566
0.17421	-0.71609
-0.28482	1.01843
0.07220	0.66132
0.14870	0.40625
0.91375	0.66132
0.17421	0.81437
-0.61635	-0.02739
0.25071	-0.76711
0.32721	-0.10391
-0.38683	-0.46102
-0.33583	0.43176
0.19971	0.35523
0.63323	0.53379
-0.00431	0.50828
1.24527	0.66132
0.65874	0.43176
0.37822	-0.66508
-0.69285	0.43176
0.07220	-0.61406
0.37822	0.27871
-0.18282	0.71234
-0.41233	-0.15492
-0.00431	-0.63957
-0.66735	0.12566
0.19971	0.66132
0.96476	0.40625
0.35272	0.02363
0.63323	0.30422
1.06676	0.15117
-1.04987	0.32972
-0.61635	0.15117
0.32721	0.45726
0.32721	0.25320
0.12320	0.07465
-0.10631	-1.09871
0.48022	0.35523
0.48022	-0.38449
0.02119	0.15117
-0.18282	-0.02739
0.14870	0.73785
0.12320	0.94191
0.22521	1.32453
0.04670	1.83468
0.14870	-0.23145
0.55673	-1.48133
-0.10631	-0.12942
-0.36133	0.27871
0.32721	0.78886
0.17421	0.07465
0.50573	-0.66508
-0.59084	-1.12422
0.50573	1.09496
0.17421	0.91640
0.50573	1.12046
0.27621	-0.25695
0.32721	-0.07840
-0.64185	-0.38449
0.02119	-0.46102
-0.46334	-0.02739
-0.15732	-0.48652
0.68424	0.50828
0.22521	0.66132
0.58223	0.50828
1.09226	0.76336
0.73524	0.40625
0.50573	0.30422
-1.38139	0.04914
-0.87136	-0.07840
-0.48884	0.25320
2.08683	0.35523
-0.38683	-1.37929
-0.84586	-1.88945
0.40372	0.40625
0.17421	0.66132
0.58223	0.81437
-0.36133	1.12046
0.19971	0.40625
0.55673	0.68683
0.45472	0.02363
0.58223	-0.35899
0.04670	-0.05289
0.50573	0.45726
0.09770	0.10015
-0.48884	0.12566
0.17421	-0.76711
0.48022	1.42656
-0.05531	0.10015
-0.20832	-1.12422
0.07220	-1.60887
-0.20832	-0.25695
0.42922	1.22250
-0.15732	1.60511
-0.08081	0.96742
0.22521	-0.41000
0.35272	-0.92016
0.40372	-0.05289
0.53123	0.83988
-0.05531	0.20219
0.81175	0.55929
0.53123	0.40625
-1.10088	-0.63957
-1.27939	-0.05289
2.31634	-0.23145
-0.10631	-0.10391
0.27621	0.66132
0.27621	0.27871
0.25071	0.76336
-1.43240	0.38074
0.27621	-0.35899
0.86275	-0.33348
0.58223	-0.18043
0.83725	0.07465
-0.05531	0.45726
-0.79486	0.12566
0.12320	0.53379
0.53123	0.15117
-0.23382	-0.05289
-0.48884	0.17668
0.30171	0.12566
0.60773	-0.00188
-0.31033	0.15117
0.27621	0.48277
0.73524	0.22769
0.22521	-0.28246
0.35272	-0.05289
0.09770	-0.30797
0.12320	0.76336
-0.18282	0.25320
-0.18282	-0.35899
0.40372	0.61031
0.17421	0.99292
0.02119	0.22769
0.02119	0.43176
0.02119	0.35523
0.14870	-0.43551
0.17421	-1.02219
0.12320	-0.94566
-0.05531	0.83988
0.55673	1.24800
0.14870	0.02363
0.35272	-0.05289
-0.08081	-0.25695
-1.04987	1.06945
0.58223	0.25320
0.81175	-0.35899
-0.28482	-0.28246
0.07220	-0.69059
1.60230	0.99292
0.37822	-0.23145
0.42922	0.12566
0.02119	0.22769
-1.20288	0.53379
-0.33583	0.15117
0.40372	0.02363
0.12320	0.43176
0.53123	0.38074
-0.08081	-0.00188
-0.51434	0.15117
0.17421	0.15117
0.42922	0.02363
0.58223	0.25320
0.40372	0.10015
0.19971	-0.35899
0.17421	-0.23145
0.07220	0.53379
0.22521	0.25320
-0.61635	-0.02739
0.42922	-0.41000
0.30171	0.30422
0.02119	0.81437
-0.13181	-0.25695
0.48022	1.04394
0.22521	-0.58856
-0.28482	-0.43551
-0.28482	0.10015
0.88825	0.50828
0.22521	0.07465
-0.13181	0.15117
-0.05531	0.35523
0.55673	-0.48652
0.63323	-0.10391
-0.71835	0.63582
-0.08081	0.81437
0.50573	-0.46102
0.30171	-0.89465
-0.00431	-0.41000
0.50573	0.61031
0.12320	0.76336
0.02119	0.40625
-0.28482	0.55929
-0.08081	0.43176
0.14870	0.07465
1.21977	0.38074
-0.18282	-0.02739
0.55673	0.35523
0.30171	0.04914
-0.18282	-0.56305
-0.87136	-0.38449
-0.18282	-0.25695
0.22521	-0.61406
-0.66735	-0.18043
1.39828	1.12046
0.91375	0.96742
-0.05531	1.73265
0.55673	0.07465
0.30171	-2.09351
-0.31033	0.07465
-0.20832	0.27871
0.19971	0.76336
0.30171	0.76336
0.32721	0.63582
-0.10631	0.32972
0.14870	0.12566
-0.00431	0.73785
0.25071	-0.66508
-0.00431	-0.99668
0.27621	0.30422
0.17421	0.12566
0.53123	-1.58336
-0.08081	0.66132
-0.23382	1.01843
-0.89686	0.35523
0.27621	0.10015
0.50573	0.63582
1.21977	0.43176
0.45472	0.35523
0.14870	-0.56305
-0.02981	0.30422
0.32721	0.15117
0.27621	0.07465
-0.08081	0.15117
0.14870	1.14597
-0.18282	1.01843
-0.28482	-0.97117
-1.15188	-2.85874
0.76074	0.10015
0.19971	1.01843
0.68424	0.66132
1.95932	0.81437
-0.46334	0.76336
-0.87136	0.73785
-0.13181	-0.10391
0.04670	-0.15492
0.73524	0.25320
0.27621	0.53379
0.68424	-0.07840
0.25071	-0.66508
0.04670	-0.71609
0.09770	0.32972
0.19971	0.27871
-0.08081	0.58480
-0.20832	1.22250
0.09770	0.04914
0.02119	-2.01699
0.68424	-0.28246
0.81175	0.55929
0.42922	1.09496
-0.43783	0.58480
-0.59084	0.35523
0.42922	0.58480
-0.20832	-0.76711
0.42922	-0.12942
0.14870	-0.10391
0.35272	0.83988
0.09770	0.53379
0.02119	0.12566
-0.59084	-0.38449
0.53123	-0.18043
0.42922	-0.46102
0.12320	-0.74160
0.12320	0.73785
0.32721	0.96742
0.40372	0.91640
0.25071	0.15117
-0.53984	-0.79262
-0.18282	0.63582
-0.00431	0.04914
0.83725	0.30422
0.50573	-0.07840
-0.36133	0.25320
-0.38683	0.38074
0.60773	-0.51203
0.35272	0.58480
0.14870	0.02363
-0.36133	-0.25695
0.55673	0.45726
-0.13181	0.55929
0.45472	-0.05289
-0.31033	-0.15492
0.63323	0.48277
0.04670	0.32972
-0.08081	0.38074
0.12320	0.50828
0.68424	0.12566
0.25071	-0.51203
-1.02437	-1.30277
0.17421	-0.07840
0.93925	1.12046
0.17421	0.89089
-0.87136	-0.07840
0.58223	0.61031
0.58223	0.61031
0.25071	-0.02739
0.45472	-0.58856
0.14870	-0.48652
0.42922	0.30422
-0.02981	0.04914
-0.13181	-1.02219
0.09770	0.55929
0.12320	0.96742
0.02119	0.53379
-0.15732	-0.58856
0.25071	0.48277
0.14870	0.38074
0.19971	0.22769
0.48022	0.22769
-0.10631	-0.99668
0.48022	-0.18043
0.04670	0.53379
-0.13181	-0.28246
0.27621	0.53379
0.27621	0.78886
-0.56534	0.27871
0.19971	0.15117
0.50573	0.17668
0.42922	0.66132
-0.31033	-0.28246
0.30171	-1.02219
0.93925	-0.69059
0.17421	0.48277
-0.10631	1.14597
0.14870	0.66132
-0.74385	-0.10391
0.02119	-0.53754
0.58223	-0.10391
0.25071	0.71234
0.42922	0.38074
-1.10088	0.02363
0.93925	0.32972
0.60773	0.55929
-0.33583	0.45726
-0.31033	-0.41000
0.63323	-0.10391
0.07220	-0.15492
0.12320	-0.07840
0.63323	-0.00188
0.60773	-0.18043
-0.05531	1.06945
0.27621	1.17148
-0.08081	0.25320
-0.00431	-0.79262
-0.46334	-1.07320
0.19971	0.38074
0.12320	-0.43551
0.68424	0.94191
0.02119	0.27871
0.09770	0.27871
-0.41233	1.17148
-0.00431	-0.41000
1.60230	-0.71609
0.25071	-0.74160
0.07220	0.45726
-1.12638	0.73785
0.14870	0.68683
0.45472	-0.35899
0.73524	0.15117
-0.76936	0.04914
1.06676	0.17668
0.70974	-0.00188
-0.38683	0.32972
-0.74385	0.30422
0.50573	0.38074
0.17421	-0.10391
0.42922	-0.35899
0.60773	-0.23145
0.53123	0.32972
-0.89686	0.25320
0.45472	0.73785
0.50573	0.04914
0.22521	0.22769
0.02119	-0.05289
-0.53984	-0.05289
-0.53984	0.35523
1.19427	0.10015
-0.41233	0.91640
-0.46334	0.30422
0.22521	-0.46102
0.65874	-0.48652
0.14870	0.10015
-0.18282	-0.00188
0.17421	0.10015
-0.05531	0.73785
0.27621	0.45726
0.42922	0.27871
-0.08081	-0.05289
0.12320	0.38074
0.45472	0.30422
0.55673	-0.58856
-0.28482	-0.35899
-0.87136	-0.07840
-0.23382	0.40625
0.58223	0.66132
0.40372	0.73785
0.58223	0.10015
0.25071	-0.48652
1.11776	0.32972
-0.38683	0.17668
-0.74385	-0.12942
-0.08081	-0.46102
1.52579	0.07465
-0.31033	0.27871
-0.53984	0.86539
-0.92237	0.22769
0.70974	0.25320
1.06676	0.58480
0.25071	0.04914
-0.10631	-0.28246
-0.23382	-0.51203
0.76074	0.53379
-0.08081	0.32972
-0.41233	0.40625
0.60773	-0.05289
0.07220	0.10015
-1.07538	0.15117
0.76074	-0.63957
0.53123	0.50828
0.32721	0.10015
-0.31033	0.40625
0.58223	-0.71609
0.30171	-0.15492
0.37822	-0.33348
-0.10631	1.06945
-0.28482	0.25320
0.30171	0.76336
0.58223	1.17148
-0.48884	0.27871
0.12320	-0.30797
-0.02981	0.32972
0.07220	-0.58856
0.35272	-0.53754
0.30171	-1.02219
0.17421	0.35523
-0.51434	1.17148
0.37822	0.83988
0.45472	0.27871
-0.00431	0.55929
0.19971	-0.05289
0.25071	-0.81812
0.09770	-0.71609
0.27621	0.02363
0.60773	0.55929
-0.08081	0.50828
-0.46334	0.17668
0.55673	1.35003
-0.20832	-0.02739
0.48022	-0.20594
1.72980	-0.30797
0.25071	-0.20594
-0.71835	0.10015
-0.23382	0.55929
-0.08081	-0.00188
0.65874	-0.76711
0.45472	0.66132
0.30171	0.73785
-1.45790	0.30422
-0.28482	0.17668
-0.18282	0.22769
0.86275	0.10015
0.55673	-0.18043
0.14870	0.22769
0.27621	0.76336
0.68424	-0.10391
-0.18282	-1.17523
-0.23382	-0.43551
0.02119	0.35523
0.35272	1.42656
0.35272	0.32972
0.86275	-0.92016
-0.25932	0.53379
-0.00431	0.55929
-0.02981	0.78886
-0.00431	0.86539
0.19971	-0.66508
0.12320	0.10015
0.30171	-0.07840
-0.08081	-0.41000
-0.18282	0.07465
0.30171	0.63582
0.50573	1.24800
0.32721	0.86539
0.42922	-0.97117
-0.10631	-1.40480
-0.10631	-0.00188
-0.02981	0.76336
0.04670	0.45726
-0.36133	-0.66508
1.14327	0.35523
-0.20832	0.76336
-0.79486	1.09496
0.48022	-0.18043
0.60773	-0.35899
1.52579	-0.71609
-0.00431	0.53379
-1.15188	0.30422
0.48022	0.81437
0.09770	0.32972
-0.48884	0.38074
0.09770	0.07465
0.93925	0.25320
0.02119	0.02363
0.37822	-0.23145
-0.69285	-0.02739
-0.05531	-0.00188
-0.38683	0.07465
0.50573	0.78886
0.27621	-0.05289
-0.18282	-0.76711
-0.00431	-0.35899
0.53123	0.96742
0.12320	0.48277
0.55673	0.89089
0.58223	0.78886
0.40372	-0.97117
0.22521	-1.43031
0.12320	0.17668
-0.28482	1.32453
-0.13181	0.58480
0.25071	0.71234
-0.18282	-0.76711
0.35272	-0.18043
0.32721	0.35523
-0.71835	0.43176
0.02119	0.43176
0.04670	0.83988
0.30171	0.53379
0.60773	-0.25695
0.53123	-0.12942
-0.25932	0.45726
0.55673	-1.40480
0.37822	-0.00188
-1.43240	0.04914
-0.31033	-0.07840
1.72980	0.43176
0.70974	0.55929
-0.59084	0.66132
1.27078	0.76336
-1.20288	-0.99668
-0.23382	0.15117
0.73524	0.53379
1.19427	0.25320
-0.31033	0.50828
-0.56534	-0.00188
-0.31033	0.40625
0.65874	0.58480
-0.05531	-0.23145
-0.08081	-1.04770
0.27621	-0.30797
0.45472	0.78886
0.50573	0.53379
-0.64185	-0.35899
-0.87136	-0.94566
-0.00431	0.55929
1.72980	0.96742
0.91375	1.01843
0.19971	0.86539
-0.84586	0.25320
0.50573	-0.69059
0.86275	0.10015
-0.59084	-0.20594
-0.64185	0.48277
0.02119	0.04914
0.22521	-0.25695
0.19971	-0.20594
0.14870	-0.56305
0.02119	0.07465
0.35272	0.48277
0.40372	0.96742
-0.02981	-0.18043
-0.00431	-0.10391
0.22521	0.81437
-0.18282	0.15117
0.27621	0.20219
-0.02981	-0.30797
-0.05531	-0.10391
-0.33583	-0.12942
0.42922	1.27351
0.86275	-0.07840
-0.00431	-0.56305
-0.48884	0.12566
-0.20832	-0.23145
0.19971	0.40625
1.39828	1.04394
0.55673	0.55929
0.45472	-0.61406
-0.10631	0.45726
0.32721	-0.46102
0.60773	0.25320
-0.84586	0.68683
0.19971	-0.23145
0.93925	-0.12942
-0.13181	0.10015
-0.74385	0.35523
0.30171	0.43176
0.32721	0.53379
0.19971	-0.02739
-1.25389	-0.20594
0.12320	0.53379
1.09226	-1.27726
0.63323	0.15117
0.07220	0.63582
0.22521	1.17148
0.02119	0.04914
0.37822	-1.45582
0.02119	-0.30797
0.30171	0.63582
0.09770	1.57960
0.12320	1.12046
0.22521	0.25320
0.07220	-1.53234
-0.05531	-0.69059
0.48022	0.91640
0.07220	0.81437
-0.20832	0.55929
-0.02981	0.12566
-0.41233	-0.51203
0.32721	-0.18043
1.16877	0.10015
0.09770	0.12566
0.17421	0.17668
0.63323	0.15117
0.27621	-0.58856
-0.79486	-0.58856
-0.94787	0.68683
0.42922	0.61031
0.68424	0.45726
1.50029	0.32972
-0.15732	0.53379
0.07220	0.22769
0.30171	0.15117
0.07220	-0.05289
0.17421	0.22769
0.25071	-0.46102
0.04670	-1.02219
-0.20832	0.20219
0.14870	1.09496
-0.64185	0.04914
0.78624	0.99292
0.32721	0.58480
0.48022	0.17668
0.19971	-0.89465
0.37822	-0.25695
0.19971	0.30422
-0.23382	0.86539
-0.31033	0.43176
0.48022	0.53379
-0.33583	-0.25695
-0.13181	-0.07840
0.17421	-0.56305
1.39828	-1.07320
-0.25932	0.22769
-0.08081	0.86539
0.09770	0.76336
0.35272	0.99292
-0.15732	0.30422
0.81175	0.45726
-0.05531	0.17668
-0.56534	-0.51203
0.07220	-0.66508
0.53123	-0.58856
0.63323	0.38074
-0.28482	0.20219
-0.46334	0.58480
-0.18282	-0.28246
0.86275	-0.84363
0.65874	0.96742
-0.48884	0.68683
0.78624	0.50828
0.58223	0.71234
-0.18282	0.04914
0.07220	-0.86914
0.42922	-0.15492
0.14870	0.35523
-0.15732	0.15117
-0.10631	0.63582
1.04126	0.50828
0.14870	-0.25695
-0.56534	-0.61406
-1.73842	-0.53754
-0.02981	0.30422
0.78624	0.89089
0.35272	0.68683
0.63323	0.02363
0.99026	-0.25695
0.35272	-0.00188
0.55673	0.40625
-0.00431	0.25320
-0.05531	-0.28246
-0.05531	0.25320
0.02119	0.58480
-0.28482	-0.66508
0.25071	0.35523
0.04670	-0.46102
0.70974	0.96742
0.12320	0.45726
-0.76936	1.27351
-0.02981	-0.05289
0.35272	-1.30277
0.81175	0.15117
0.35272	0.53379
0.22521	-0.58856
0.14870	-0.20594
0.37822	1.01843
-0.61635	0.89089
-0.08081	0.10015
0.30171	0.48277
0.48022	0.02363
0.63323	-0.18043
0.60773	-0.43551
0.83725	0.15117
-0.97337	0.27871
-0.99887	0.17668
0.81175	0.48277
0.50573	0.25320
-0.41233	0.35523
-0.36133	-0.07840
0.73524	-1.40480
0.40372	-0.71609
0.50573	0.53379
0.53123	0.94191
-0.31033	0.66132
-0.10631	0.35523
-0.18282	0.30422
0.42922	0.48277
0.53123	0.43176
0.25071	0.15117
0.07220	0.61031
-0.10631	-0.51203
0.19971	-0.74160
0.14870	-0.12942
-0.28482	0.04914
0.35272	1.35003
0.48022	0.12566
-0.02981	-2.57816
0.22521	0.35523
0.17421	1.14597
0.14870	1.52859
-0.23382	-0.33348
0.76074	-0.86914
-0.53984	0.43176
-0.20832	0.48277
0.42922	1.12046
0.48022	0.53379
0.04670	-0.69059
-0.10631	0.17668
0.02119	1.37554
0.96476	-2.01699
0.02119	-1.73640
-0.71835	0.30422
-0.10631	0.78886
0.60773	0.94191
2.01032	0.86539
-0.36133	0.35523
-0.66735	-0.02739
1.04126	0.07465
0.30171	0.10015
-0.15732	0.27871
-0.02981	0.27871
0.35272	-0.15492
-0.36133	-0.71609
0.14870	0.12566
-1.22839	-0.18043
-0.92237	-0.02739
0.40372	0.45726
1.06676	0.66132
0.45472	0.68683
0.25071	-0.15492
0.09770	-0.07840
0.53123	-0.02739
1.14327	0.30422
0.04670	-0.61406
-0.46334	1.40105
-0.28482	0.35523
0.32721	-0.05289
0.96476	-0.12942
-0.43783	0.32972
-0.71835	0.35523
1.29628	1.12046
-0.25932	-0.58856
-0.02981	-1.22625
-0.00431	-0.69059
0.19971	0.17668
0.19971	1.29902
0.42922	1.01843
-0.05531	0.45726
0.09770	0.25320
0.02119	0.15117
-0.00431	-0.25695
0.53123	-1.07320
0.35272	-0.15492
0.58223	0.55929
0.73524	0.71234
-0.31033	0.10015
-1.76392	-0.10391
0.58223	0.50828
0.53123	0.68683
0.68424	0.53379
0.07220	0.32972
0.68424	-0.00188
-0.00431	-0.33348
-0.08081	0.58480
1.06676	-0.10391
-0.43783	-0.20594
-0.46334	-0.46102
-0.46334	-0.25695
1.39828	0.45726
-0.00431	0.50828
-0.36133	0.20219
0.14870	0.20219
0.30171	0.38074
-0.20832	-0.38449
0.32721	-0.30797
0.35272	0.78886
-0.53984	0.30422
0.58223	0.68683
0.81175	0.15117
0.42922	-0.18043
0.42922	0.50828
0.07220	0.66132
0.35272	-0.53754
-0.15732	0.10015
0.07220	0.15117
-0.18282	0.10015
-0.00431	-0.53754
0.07220	-0.41000
-0.15732	0.53379
0.50573	0.55929
0.48022	0.25320
0.22521	0.32972
-0.08081	-0.07840
0.09770	0.43176
-0.05531	0.48277
-0.79486	-0.00188
0.55673	0.55929
0.35272	0.20219
0.83725	-0.66508
0.58223	-0.76711
-0.13181	-0.02739
1.04126	0.58480
0.48022	0.89089
-0.74385	0.43176
-0.94787	-0.15492
0.37822	0.12566
0.48022	0.30422
1.14327	0.40625
-0.59084	0.35523
-0.92237	-0.12942
0.35272	-0.25695
1.24527	0.02363
-0.00431	0.20219
-0.15732	0.15117
-0.15732	0.61031
0.27621	0.10015
0.22521	-0.48652
0.60773	0.12566
0.53123	0.40625
-0.46334	0.04914
-0.59084	0.38074
0.53123	0.63582
0.35272	-0.05289
0.35272	-0.35899
-0.23382	0.45726
1.47479	1.57960
-0.33583	-0.10391
-0.33583	-0.51203
0.27621	-0.56305
0.12320	-0.41000
-0.28482	0.66132
-0.13181	0.43176
0.27621	0.10015
0.07220	-0.05289
0.19971	0.22769
0.32721	1.06945
0.09770	0.89089
0.37822	-0.94566
0.42922	-2.09351
-0.23382	0.63582
0.30171	0.78886
0.17421	0.96742
-0.15732	0.58480
0.12320	-0.33348
0.09770	-0.20594
0.68424	0.40625
0.93925	0.61031
-0.38683	0.22769
-1.89143	-0.28246
0.12320	-0.00188
1.19427	-0.05289
0.73524	0.32972
-0.51434	0.22769
0.27621	-0.20594
0.32721	0.17668
0.32721	0.45726
0.53123	0.20219
0.02119	-0.35899
-0.38683	0.04914
-0.69285	0.63582
0.73524	0.07465
0.17421	-0.15492
0.07220	0.04914
-0.31033	0.25320
0.09770	0.45726
0.32721	0.71234
0.35272	-0.25695
0.02119	-0.69059
0.55673	1.88570
0.55673	-0.35899
-0.28482	-0.05289
-0.10631	-0.84363
-0.08081	0.81437
0.19971	0.63582
0.32721	0.53379
0.22521	0.35523
-0.02981	-0.25695
0.12320	-0.00188
0.30171	0.43176
0.14870	0.07465
0.50573	-0.58856
-0.89686	0.73785
0.27621	0.91640
0.19971	-0.15492
0.42922	-0.30797
0.53123	0.30422
0.14870	-0.28246
0.12320	-0.15492
0.07220	0.71234
0.04670	0.10015
0.63323	-0.10391
0.02119	-0.43551
-1.76392	0.15117
0.32721	0.17668
0.70974	0.58480
-0.08081	0.15117
0.04670	0.25320
0.86275	0.66132
1.78081	0.35523
-0.05531	-0.12942
0.27621	-0.05289
-0.18282	0.25320
-0.46334	0.94191
-1.02437	-0.81812
0.14870	-0.97117
-0.18282	-1.37929
-0.64185	0.94191
0.55673	1.24800
0.68424	0.89089
0.53123	0.50828
0.68424	0.10015
0.04670	0.12566
-0.00431	0.20219
0.60773	-0.35899
0.19971	0.30422
-0.41233	0.12566
0.27621	-0.56305
0.04670	0.07465
0.17421	0.43176
0.14870	-0.43551
-0.05531	-0.23145
0.02119	1.47757
0.37822	0.35523
-0.02981	-0.97117
-0.18282	-0.15492
0.07220	0.35523
0.63323	0.86539
0.07220	0.76336
-0.61635	0.50828
0.53123	0.38074
0.60773	-0.15492
-0.10631	-0.30797
0.09770	0.32972
0.07220	1.12046
0.35272	-0.25695
-0.20832	-1.07320
0.35272	-0.07840
0.53123	-0.02739
0.58223	0.45726
-0.20832	0.27871
-1.35589	0.22769
-0.51434	0.66132
0.81175	0.45726
-0.25932	0.15117
0.93925	0.38074
0.27621	0.12566
0.55673	-0.02739
0.12320	-0.23145
0.17421	-0.35899
0.30171	0.10015
-0.08081	0.02363
-0.92237	0.35523
0.53123	0.25320
0.50573	0.58480
0.27621	0.81437
0.27621	-0.56305
-0.20832	-0.41000
-0.31033	0.25320
-0.05531	0.12566
-0.13181	0.73785
0.91375	0.02363
0.48022	-1.07320
0.12320	-0.53754
-0.18282	0.94191
0.04670	0.63582
0.12320	0.55929
0.27621	1.17148
0.55673	0.25320
0.53123	-0.63957
-1.15188	-0.38449
0.17421	0.73785
0.42922	0.81437
0.76074	-0.48652
0.04670	-0.23145
0.22521	-0.15492
-0.36133	-0.18043
0.14870	-0.58856
0.27621	0.48277
-0.08081	0.55929
-0.05531	0.68683
0.40372	0.35523
-0.31033	0.15117
0.58223	0.40625
0.73524	0.12566
0.32721	-0.10391
-0.61635	-0.07840
0.63323	0.73785
-0.20832	0.83988
0.42922	0.27871
0.32721	-0.92016
-0.64185	-0.61406
-0.18282	-0.30797
0.02119	0.07465
0.12320	0.50828
0.14870	0.68683
0.27621	0.73785
0.37822	0.17668
0.42922	0.17668
-0.00431	0.45726
0.25071	-0.30797
-0.15732	0.32972
-0.02981	0.04914
0.25071	-0.10391
0.30171	-0.66508
-0.02981	-0.38449
0.42922	0.58480
0.40372	0.81437
0.25071	0.66132
-0.23382	0.22769
-0.28482	0.27871
0.65874	0.50828
0.48022	0.15117
-0.13181	-0.97117
0.02119	-0.71609
0.40372	0.07465
-0.31033	1.17148
0.12320	1.27351
0.09770	0.07465
0.12320	-0.56305
-0.02981	-0.41000
0.27621	-0.30797
0.73524	0.71234
-0.02981	0.27871
-0.05531	0.20219
-0.31033	0.07465
0.42922	0.63582
0.09770	0.71234
0.65874	0.02363
1.75531	-0.10391
-0.38683	0.10015
-0.99887	-0.35899
0.35272	-0.00188
0.55673	0.30422
-0.64185	0.43176
0.96476	-0.58856
-0.25932	0.12566
-0.10631	0.10015
-0.05531	0.22769
0.45472	0.91640
0.65874	-0.35899
0.02119	-1.50683
-0.64185	0.66132
0.37822	0.71234
0.22521	1.04394
0.14870	1.09496
-0.18282	-0.00188
0.22521	-0.66508
0.12320	0.15117
0.25071	0.27871
0.17421	-0.33348
0.76074	0.17668
0.73524	0.55929
-0.15732	0.12566
-0.13181	0.04914
0.40372	0.04914
0.14870	0.07465
0.22521	0.20219
-0.23382	-0.30797
-0.28482	-1.02219
0.53123	0.76336
-0.00431	0.38074
-0.31033	-0.07840
0.32721	0.63582
1.16877	0.38074
0.19971	-0.05289
-0.89686	0.55929
-0.82036	0.35523
0.91375	-0.00188
0.88825	-0.20594
0.55673	0.55929
0.42922	0.30422
-0.33583	-0.12942
-0.08081	-0.38449
-0.53984	0.66132
1.14327	0.27871
-0.08081	-0.56305
0.17421	-0.86914
-0.15732	0.63582
-0.00431	0.63582
0.60773	0.83988
-0.43783	1.45206
0.53123	0.63582
0.09770	-1.37929
-0.23382	-0.99668
0.09770	0.22769
0.04670	0.40625
0.17421	0.43176
0.40372	0.81437
0.14870	0.78886
0.19971	0.45726
0.25071	-0.20594
0.22521	0.20219
0.09770	0.48277
0.09770	-0.51203
0.12320	-0.74160
0.32721	-0.92016
0.32721	0.22769
-0.15732	0.61031
0.04670	0.43176
0.40372	0.38074
-0.46334	0.35523
0.25071	0.02363
-0.13181	0.68683
-0.28482	-0.18043
0.83725	0.10015
0.40372	0.45726
0.42922	0.99292
0.35272	-0.63957
0.14870	-0.86914
-0.33583	-0.46102
-0.61635	0.73785
-0.20832	0.15117
0.50573	0.07465
0.53123	0.55929
0.91375	0.58480
0.63323	0.58480
-0.48884	0.38074
-0.41233	-0.28246
0.22521	-0.25695
0.19971	0.12566
-0.18282	0.10015
-0.92237	0.35523
0.58223	0.17668
0.91375	0.45726
0.99026	0.04914
0.37822	-0.00188
0.02119	0.20219
-0.25932	-1.02219
0.09770	0.30422
0.40372	0.25320
-0.38683	0.91640
0.04670	-0.05289
0.30171	0.73785
0.19971	-0.33348
-0.13181	-0.10391
0.22521	0.20219
0.48022	0.40625
0.22521	-0.07840
0.12320	0.30422
-0.74385	1.14597
0.32721	0.35523
0.68424	-0.94566
0.48022	-0.35899
0.12320	0.12566
-0.18282	-0.25695
0.14870	0.50828
0.27621	0.78886
0.27621	0.53379
-0.10631	0.66132
-0.10631	0.12566
-0.25932	-0.07840
1.50029	-0.02739
1.04126	-0.07840
0.09770	-0.18043
-0.41233	0.66132
-1.84042	-0.23145
-0.28482	-0.81812
1.04126	-0.30797
0.48022	0.50828
0.32721	0.76336
0.63323	0.55929
0.09770	0.55929
-0.10631	0.50828
0.19971	0.43176
0.30171	-0.02739
0.32721	0.07465
0.17421	-0.05289
-0.02981	0.30422
-0.13181	0.10015
-0.10631	-0.56305
0.22521	-0.07840
0.63323	0.81437
-0.00431	0.91640
-0.74385	0.15117
0.42922	-0.51203
0.32721	-1.86394
0.30171	0.38074
0.02119	1.24800
0.35272	0.76336
1.47479	0.81437
-0.02981	0.53379
-0.94787	-0.46102
-1.02437	-0.51203
0.40372	-0.51203
0.37822	-0.00188
0.88825	0.50828
0.58223	0.89089
0.22521	0.73785
-0.15732	1.78367
-0.15732	-0.76711
0.68424	-1.43031
-0.28482	-0.30797
0.27621	0.12566
0.30171	0.15117
-0.23382	0.38074
-0.13181	0.45726
-0.00431	0.50828
-0.13181	0.20219
0.07220	0.04914
0.76074	0.27871
0.22521	-0.25695
-0.15732	-0.18043
-0.38683	0.22769
1.09226	0.40625
-0.18282	0.15117
0.09770	-0.51203
1.24527	-0.69059
-0.31033	0.53379
0.12320	0.68683
-0.59084	0.66132
0.50573	0.55929
-0.08081	0.12566
0.09770	0.04914
0.32721	0.32972
0.19971	-0.63957
0.32721	-0.33348
0.04670	0.32972
0.32721	0.76336
-0.08081	0.22769
-0.05531	-0.23145
0.02119	-0.15492
0.12320	-0.56305
0.83725	0.27871
0.25071	-0.23145
-0.53984	0.45726
0.60773	1.29902
-0.23382	0.99292
-0.28482	-0.18043
-0.51434	-0.92016
0.63323	0.20219
1.09226	0.22769
0.53123	0.89089
-0.18282	0.78886
0.22521	-1.32828
0.48022	-1.40480
-0.02981	0.73785
0.27621	0.55929
0.07220	0.63582
-0.61635	0.40625
-1.35589	1.17148
0.42922	0.07465
0.60773	-1.30277
0.50573	0.10015
0.32721	0.30422
0.32721	0.55929
0.40372	0.71234
-0.18282	-0.35899
0.63323	-0.89465
-0.87136	0.10015
0.48022	0.40625
0.63323	0.66132
-0.18282	0.30422
0.04670	0.50828
-0.08081	0.25320
-0.46334	0.17668
0.58223	0.10015
0.55673	0.04914
0.42922	-0.00188
-0.41233	0.20219
0.45472	-0.20594
0.35272	0.07465
0.14870	-0.18043
0.17421	0.20219
-0.08081	0.58480
-0.71835	0.17668
0.60773	0.38074
0.22521	-0.23145
0.40372	-0.63957
0.07220	0.91640
-0.15732	1.27351
-0.10631	0.61031
0.30171	-1.02219
0.48022	-0.86914
0.40372	1.17148
0.17421	0.61031
-0.13181	0.20219
0.09770	-0.15492
-0.36133	-1.35379
-0.15732	0.71234
0.78624	0.61031
1.14327	0.45726
-0.84586	-0.30797
-0.59084	-0.18043
1.04126	0.35523
0.32721	-0.76711
0.14870	0.22769
0.37822	0.94191
0.27621	0.53379
-0.59084	0.15117
-0.36133	-0.25695
0.17421	-0.02739
0.42922	0.22769
-0.08081	0.43176
0.91375	0.12566
-0.02981	0.25320
0.12320	0.32972
-0.05531	0.30422
-0.99887	-0.46102
0.17421	-0.66508
0.73524	-0.23145
0.76074	0.48277
0.86275	0.32972
0.12320	0.15117
-0.64185	0.53379
-0.00431	0.68683
0.07220	0.35523
0.17421	0.17668
0.35272	0.50828
0.09770	0.25320
0.27621	-0.92016
0.35272	-0.12942
-0.18282	0.17668
0.04670	-0.00188
-0.00431	-0.69059
0.19971	-0.56305
1.09226	0.55929
-0.23382	0.91640
0.53123	0.30422
0.27621	0.61031
0.19971	0.43176
-0.28482	0.76336
0.19971	0.68683
0.22521	-1.17523
-0.41233	-1.27726
-0.41233	-0.00188
0.60773	0.63582
0.42922	0.94191
0.96476	1.35003
0.14870	0.40625
0.14870	-1.14973
-0.89686	-0.99668
-0.41233	0.15117
-0.15732	1.01843
1.29628	0.40625
0.86275	-0.10391
-0.48884	0.35523
-0.08081	0.38074
1.24527	0.50828
0.19971	0.20219
0.12320	-0.18043
-0.38683	-0.46102
1.09226	0.22769
0.02119	0.35523
-0.28482	0.15117
-0.64185	-0.18043
0.12320	0.04914
0.25071	0.25320
0.12320	0.58480
0.63323	0.04914
-0.05531	-0.15492
-0.10631	-0.28246
0.02119	0.68683
1.01576	-0.00188
0.32721	0.53379
0.30171	-0.23145
0.42922	-0.10391
-0.41233	-0.07840
0.27621	0.55929
-0.15732	0.32972
0.35272	0.07465
-0.10631	0.48277
0.25071	-0.23145
-0.38683	0.10015
0.35272	0.15117
0.12320	-0.18043
0.30171	0.15117
0.58223	0.50828
-0.18282	-0.18043
0.04670	0.50828
0.09770	0.43176
0.27621	0.32972
-0.59084	-0.43551
0.02119	-0.79262
-0.46334	0.20219
0.63323	0.55929
0.37822	0.66132
0.40372	0.61031
1.14327	0.43176
-0.08081	0.02363
-0.02981	-0.51203
-0.56534	0.04914
-0.08081	0.17668
-0.28482	0.04914
0.78624	-0.12942
1.14327	0.58480
-0.13181	0.27871
-0.84586	0.30422
-0.43783	0.66132
0.53123	0.15117
0.58223	-0.38449
0.25071	-0.92016
-0.53984	0.30422
0.27621	0.50828
0.42922	0.15117
0.42922	-0.10391
0.25071	-0.15492
-0.10631	0.55929
-0.25932	0.53379
0.12320	1.01843
0.81175	1.01843
0.19971	-0.48652
-0.59084	-1.20074
0.12320	0.35523
-0.69285	0.99292
0.93925	0.27871
0.88825	0.25320
0.27621	-0.92016
0.04670	-0.33348
-0.08081	0.76336
0.19971	0.45726
-0.00431	-0.07840
0.17421	0.66132
-0.18282	0.94191
0.02119	-0.20594
0.14870	-1.65988
0.55673	0.20219
0.17421	0.15117
0.30171	0.22769
0.50573	0.61031
0.22521	0.40625
-0.94787	0.43176
0.12320	0.38074
-0.46334	-0.00188
-0.46334	-0.00188
1.67880	-0.05289
1.19427	0.02363
0.07220	0.17668
0.12320	0.02363
-0.05531	0.20219
0.02119	0.15117
-0.02981	-0.38449
-0.43783	-0.23145
0.07220	0.38074
0.25071	0.50828
0.42922	0.50828
0.37822	0.38074
0.50573	0.55929
0.12320	-0.35899
-0.84586	-1.04770
0.58223	0.55929
-0.25932	0.43176
-0.08081	-0.05289
0.63323	0.20219
-0.23382	0.86539
0.83725	0.91640
1.47479	0.04914
0.30171	0.40625
-0.48884	-0.74160
-0.53984	0.50828
-0.48884	-0.28246
0.22521	-0.18043
-0.15732	-0.05289
0.25071	0.76336
0.25071	-0.23145
0.17421	-0.51203
0.12320	0.45726
0.30171	0.32972
0.22521	0.22769
0.09770	0.35523
0.22521	0.78886
0.17421	0.63582
0.12320	0.61031
0.17421	-0.07840
0.17421	-0.43551
0.12320	-0.25695
0.19971	-0.33348
0.60773	0.32972
0.81175	0.35523
-0.87136	-0.25695
-2.57997	-0.76711
0.30171	-0.02739
1.01576	0.53379
1.29628	0.50828
1.11776	0.43176
0.42922	0.63582
-0.31033	0.43176
0.22521	0.12566
-0.28482	0.07465
0.68424	0.86539
-0.00431	-0.43551
-0.33583	-0.43551
-0.15732	-0.76711
0.65874	0.63582
-0.15732	0.25320
-1.04987	0.35523
0.76074	0.73785
0.68424	-0.25695
-0.25932	0.12566
0.48022	0.58480
-0.31033	0.45726
-0.51434	-0.46102
0.45472	-0.97117
0.37822	0.66132
0.70974	0.35523
0.78624	0.25320
0.42922	0.99292
-0.02981	0.81437
-0.20832	-0.76711
-0.00431	-1.48133
-0.13181	0.63582
0.53123	0.66132
-0.25932	0.63582
-0.02981	0.38074
-0.02981	-0.10391
0.07220	-0.05289
0.04670	0.61031
0.32721	0.07465
0.83725	-0.23145
0.68424	-0.28246
-0.71835	0.15117
0.17421	0.10015
0.32721	-0.76711
0.42922	-0.15492
-0.84586	0.81437
0.53123	0.71234
0.02119	0.45726
0.30171	0.15117
0.40372	-0.23145
0.50573	0.27871
-0.08081	0.40625
1.29628	0.38074
-0.43783	0.10015
0.02119	0.38074
0.42922	-0.00188
0.02119	-0.15492
-0.69285	-0.02739
-0.41233	-0.28246
-0.08081	0.07465
0.30171	0.30422
0.78624	0.61031
0.55673	0.91640
0.14870	0.35523
-0.38683	-0.43551
0.63323	-0.71609
-0.18282	-0.10391
0.22521	0.81437
0.25071	-0.00188
0.17421	0.20219
0.30171	0.04914
-0.23382	0.99292
-0.20832	0.86539
0.09770	-0.07840
0.32721	-0.56305
0.04670	0.35523
0.68424	0.71234
0.37822	0.20219
0.04670	0.07465
0.48022	-0.41000
0.50573	-0.86914
-1.10088	-1.04770
0.09770	0.20219
0.17421	0.71234
0.17421	1.06945
0.14870	0.94191
0.50573	0.45726
0.07220	-0.05289
-0.08081	-0.05289
0.93925	0.10015
0.09770	-0.28246
0.32721	0.50828
-0.08081	0.17668
-0.59084	0.17668
0.09770	-0.43551
-0.20832	0.12566
-0.51434	-0.00188
0.48022	0.10015
1.60230	0.12566
0.22521	0.38074
0.09770	0.20219
0.30171	-0.43551
0.12320	0.50828
-0.02981	0.78886
-0.18282	0.63582
0.14870	0.81437
0.14870	-0.94566
0.04670	-1.09871
-0.31033	0.38074
0.22521	0.04914
0.22521	-0.35899
0.35272	1.01843
0.12320	0.94191
0.30171	0.55929
0.30171	-0.30797
0.22521	-0.12942
-0.46334	0.45726
-0.05531	0.07465
0.07220	0.43176
0.60773	-0.99668
0.68424	0.22769
0.27621	-0.10391
-0.66735	0.32972
0.17421	0.73785
0.65874	0.10015
0.02119	0.38074
-0.23382	-0.28246
-0.71835	0.04914
0.70974	-0.51203
0.45472	1.19699
-0.08081	0.61031
1.24527	0.15117
0.07220	-0.23145
0.07220	-0.05289
-0.05531	0.12566
0.60773	0.04914
-0.43783	0.30422
0.22521	0.04914
0.22521	0.40625
0.17421	-0.05289
-0.13181	0.07465
0.60773	0.17668
0.04670	0.61031
-0.00431	-0.48652
-0.48884	-0.51203
0.73524	-0.35899
-0.13181	0.73785
0.32721	0.20219
0.27621	-0.35899
0.25071	0.71234
-0.08081	0.55929
0.19971	0.83988
0.19971	-0.07840
0.48022	0.22769
0.22521	0.30422
-0.15732	0.61031
-0.41233	-0.02739
0.02119	0.04914
0.14870	-0.18043
0.83725	-0.10391
0.53123	0.38074
0.12320	-0.86914
0.07220	-0.02739
0.02119	0.10015
-0.02981	0.50828
0.22521	0.96742
-0.05531	0.76336
0.19971	0.27871
0.27621	-0.63957
-0.18282	-0.02739
0.40372	0.73785
-0.10631	-0.56305
0.27621	0.07465
0.22521	-0.28246
0.22521	0.17668
-0.41233	0.30422
-0.87136	0.38074
1.93382	0.22769
1.37278	0.17668
-0.00431	0.07465
0.02119	0.20219
-0.46334	0.30422
-0.08081	0.07465
-0.15732	0.30422
-0.18282	-0.02739
0.58223	0.55929
0.25071	-0.46102
0.19971	-0.46102
0.09770	0.40625
0.12320	0.17668
-0.28482	0.04914
0.58223	-0.20594
-0.02981	0.63582
-0.33583	0.45726
-0.15732	0.63582
0.07220	0.07465
1.09226	0.43176
0.99026	-0.15492
-1.17738	-0.63957
-0.28482	-0.48652
0.68424	0.38074
0.35272	0.66132
0.32721	0.63582
0.07220	0.55929
-0.02981	0.27871
0.25071	0.22769
0.17421	-0.07840
-0.02981	-0.25695
0.07220	-0.76711
0.09770	0.48277
-0.05531	0.15117
0.22521	1.04394
0.93925	0.76336
0.04670	0.20219
-0.05531	-1.88945
0.14870	0.55929
0.30171	-0.38449
-0.13181	-0.46102
-0.31033	0.94191
0.37822	0.55929
0.81175	0.66132
-0.25932	0.86539
-0.28482	0.66132
0.40372	-0.10391
0.63323	-0.46102
-1.10088	0.07465
1.27078	-0.15492
0.50573	0.07465
-0.23382	0.27871
0.09770	0.10015
-0.36133	-0.12942
0.91375	0.02363
0.40372	0.25320
0.12320	0.35523
-0.13181	0.38074
-0.08081	0.07465
-0.53984	-0.46102
0.07220	-0.02739
-0.20832	0.38074
-0.05531	0.83988
0.73524	0.38074
0.45472	0.07465
0.32721	-0.28246
-0.28482	-0.05289
0.63323	0.76336
-0.13181	1.14597
1.42379	-0.15492
0.37822	-2.34859
-0.28482	-0.05289
-0.61635	0.55929
0.09770	1.63062
-0.02981	0.45726
0.09770	0.55929
-0.18282	-0.69059
0.65874	0.17668
-0.08081	-0.02739
0.32721	0.43176
0.09770	0.02363
-0.10631	-0.51203
0.07220	0.25320
0.30171	0.40625
0.37822	0.35523
-0.02981	-1.04770
0.19971	-0.05289
0.22521	0.35523
0.04670	0.38074
0.17421	-0.05289
0.32721	0.71234
-0.20832	0.27871
0.55673	0.15117
0.25071	0.55929
-0.71835	-0.35899
-1.04987	-0.66508
1.32178	0.27871
1.32178	-0.05289
0.02119	0.20219
-0.05531	0.27871
0.27621	0.22769
0.32721	0.55929
0.96476	0.45726
