-0.02981	0.32972
0.17421	0.15117
0.12320	-0.15492
0.27621	-0.15492
0.04670	0.17668
0.30171	0.50828
0.09770	0.40625
0.07220	0.27871
-0.05531	0.12566
0.14870	-0.02739
0.19971	0.12566
0.12320	-0.00188
0.22521	0.15117
0.07220	0.10015
0.27621	0.17668
0.12320	0.12566
0.19971	0.17668
0.07220	0.04914
0.17421	0.15117
0.14870	0.25320
0.12320	0.25320
0.17421	0.25320
0.17421	0.04914
0.09770	0.20219
0.14870	0.04914
0.12320	0.10015
0.14870	0.02363
0.22521	0.25320
0.04670	0.10015
0.22521	0.22769
0.14870	0.12566
0.14870	0.20219
0.02119	0.15117
0.14870	0.20219
0.19971	0.10015
0.25071	0.07465
0.25071	0.15117
0.09770	-0.00188
0.04670	0.15117
-0.08081	0.07465
0.27621	0.30422
0.19971	0.07465
0.27621	0.15117
0.12320	0.04914
0.22521	0.35523
0.02119	0.12566
0.12320	0.12566
0.04670	0.10015
0.07220	0.10015
0.25071	0.04914
0.12320	0.25320
0.12320	0.20219
0.02119	0.10015
0.27621	0.15117
0.12320	-0.05289
0.25071	0.15117
0.07220	0.22769
0.19971	0.17668
0.14870	0.27871
0.17421	0.15117
0.09770	0.10015
0.04670	-0.05289
0.14870	-0.00188
0.09770	0.04914
0.27621	0.30422
0.14870	0.35523
0.19971	0.25320
0.14870	0.35523
0.12320	0.15117
0.17421	-0.07840
0.12320	0.04914
0.25071	0.22769
0.14870	0.27871
0.07220	0.10015
0.22521	0.07465
0.14870	-0.15492
0.19971	0.15117
0.09770	0.35523
0.07220	0.15117
0.14870	0.12566
0.12320	-0.02739
0.25071	0.22769
0.14870	0.17668
0.17421	0.15117
0.09770	-0.00188
0.07220	0.17668
0.09770	0.22769
0.12320	0.17668
0.19971	0.35523
0.12320	0.12566
0.17421	0.15117
0.07220	-0.05289
0.30171	0.20219
0.17421	0.25320
0.14870	0.12566
0.07220	0.22769
-0.00431	0.10015
0.22521	0.17668
0.07220	0.15117
0.14870	0.15117
0.12320	0.12566
0.12320	0.07465
0.12320	0.12566
0.14870	0.07465
0.14870	0.15117
0.14870	0.02363
0.19971	0.20219
0.07220	0.15117
0.17421	0.15117
0.12320	0.27871
0.14870	0.12566
0.30171	0.25320
0.07220	0.15117
0.35272	0.27871
0.12320	0.12566
0.02119	0.10015
-0.02981	0.02363
0.22521	0.20219
0.17421	0.12566
0.17421	0.22769
0.04670	0.04914
0.19971	0.15117
0.07220	0.20219
0.12320	0.20219
0.25071	0.12566
0.19971	0.10015
0.09770	0.20219
0.02119	0.04914
0.19971	0.17668
0.07220	0.04914
0.19971	0.17668
0.09770	0.07465
0.09770	0.30422
0.09770	0.12566
0.19971	0.20219
0.07220	0.15117
0.14870	0.17668
0.19971	0.15117
0.02119	-0.00188
0.17421	0.25320
0.14870	0.15117
0.17421	0.15117
0.07220	0.15117
-0.00431	0.15117
0.30171	0.04914
0.25071	-0.00188
0.22521	0.20219
-0.02981	0.20219
0.12320	0.27871
0.22521	0.30422
0.12320	0.12566
0.19971	0.12566
0.12320	-0.05289
0.12320	0.04914
0.14870	0.17668
0.19971	0.20219
0.04670	0.35523
0.07220	0.04914
0.17421	0.20219
0.04670	-0.02739
0.19971	0.17668
0.17421	0.17668
0.14870	0.07465
0.22521	0.22769
0.07220	0.15117
0.19971	0.15117
0.09770	0.15117
0.22521	0.15117
0.14870	0.15117
0.22521	0.02363
0.14870	0.04914
-0.02981	0.02363
-0.08081	0.27871
-0.00431	-0.02739
0.35272	0.35523
0.22521	0.22769
0.22521	0.20219
0.27621	0.25320
0.07220	0.07465
0.19971	0.10015
0.09770	0.15117
0.12320	0.22769
0.09770	0.04914
0.04670	0.12566
0.14870	0.10015
0.12320	-0.02739
0.14870	0.12566
0.14870	0.04914
0.14870	0.20219
0.12320	0.20219
0.14870	0.02363
0.19971	0.10015
0.17421	0.17668
0.19971	0.32972
0.19971	0.30422
0.12320	0.20219
0.12320	0.25320
0.02119	0.20219
0.09770	-0.18043
0.35272	0.15117
0.09770	0.32972
0.12320	0.02363
0.07220	-0.15492
0.17421	-0.05289
0.14870	0.53379
0.12320	0.20219
0.07220	0.20219
0.32721	-0.25695
0.22521	-0.00188
0.04670	0.86539
0.25071	0.04914
0.12320	0.32972
0.04670	-0.41000
0.19971	-0.02739
0.19971	0.17668
0.12320	0.43176
-0.05531	0.73785
0.32721	0.43176
0.12320	-0.10391
0.17421	-0.05289
0.04670	-0.15492
0.12320	0.15117
0.22521	0.25320
0.19971	0.17668
0.12320	0.32972
0.14870	0.73785
0.14870	0.17668
0.22521	-0.79262
0.17421	-0.30797
-0.10631	0.35523
0.09770	0.15117
0.12320	0.12566
0.48022	0.20219
0.35272	0.40625
0.30171	0.30422
-0.00431	0.25320
-0.05531	0.02363
0.02119	-0.00188
0.02119	0.38074
0.22521	0.63582
0.30171	0.40625
0.37822	-0.18043
0.48022	-1.25176
0.25071	-1.25176
-0.38683	0.66132
-0.05531	1.24800
-0.00431	0.76336
-0.08081	0.48277
0.63323	-0.89465
0.32721	-0.51203
-0.02981	0.40625
0.30171	0.40625
-0.05531	0.76336
0.09770	0.94191
0.09770	0.15117
0.32721	0.02363
0.40372	0.22769
-0.08081	-0.48652
0.09770	-0.43551
0.04670	-0.25695
0.22521	0.07465
0.12320	0.38074
0.22521	0.27871
0.17421	0.27871
0.02119	-0.05289
0.27621	0.50828
-0.20832	-0.15492
0.09770	-0.28246
0.17421	0.04914
0.07220	0.58480
0.14870	0.55929
0.19971	0.61031
0.22521	0.86539
0.32721	0.58480
0.27621	-0.89465
0.07220	-0.97117
0.25071	-0.43551
0.32721	0.63582
-0.10631	0.43176
-0.08081	0.15117
0.14870	0.38074
0.12320	0.35523
0.27621	0.27871
0.27621	0.40625
-0.00431	0.15117
0.14870	0.20219
0.25071	0.32972
0.30171	-0.48652
0.04670	0.10015
-0.08081	-0.02739
-0.00431	-0.02739
0.27621	0.61031
0.09770	0.02363
0.14870	-0.12942
0.17421	-0.20594
0.12320	0.32972
0.22521	1.22250
0.02119	0.20219
0.09770	-0.69059
0.07220	-0.05289
0.17421	0.40625
0.42922	-0.15492
0.02119	1.12046
0.14870	1.40105
0.60773	-0.05289
0.09770	-0.79262
-0.05531	0.10015
-0.08081	0.43176
0.14870	-0.28246
-0.25932	-0.63957
0.09770	0.40625
0.25071	0.76336
0.27621	0.10015
0.30171	-0.33348
0.09770	0.30422
0.19971	0.12566
0.27621	-0.00188
-0.13181	0.07465
0.14870	0.02363
0.22521	0.45726
0.45472	0.32972
-0.00431	-0.05289
-0.10631	0.45726
0.09770	0.02363
-0.38683	-0.79262
0.32721	-0.56305
0.37822	0.61031
0.25071	0.73785
0.25071	0.12566
0.32721	1.06945
-0.23382	0.20219
-0.05531	-0.12942
-0.08081	-0.05289
0.27621	0.38074
0.42922	0.25320
0.35272	0.15117
0.17421	-0.41000
-0.00431	0.27871
0.14870	0.50828
0.22521	0.10015
0.27621	-0.41000
0.09770	0.27871
-0.13181	0.61031
0.07220	0.25320
0.07220	-0.05289
0.17421	0.02363
0.07220	0.48277
0.27621	0.76336
0.04670	-0.38449
0.09770	-1.45582
0.22521	-0.23145
0.27621	1.17148
0.09770	1.91120
0.12320	0.15117
0.22521	-1.48133
0.04670	-0.56305
0.22521	0.43176
0.37822	0.71234
-0.28482	0.63582
0.12320	0.83988
0.12320	0.43176
0.32721	-0.05289
0.17421	-0.38449
0.09770	-0.86914
-0.05531	0.30422
0.14870	0.20219
0.25071	0.53379
-0.02981	0.22769
0.58223	0.20219
-0.00431	0.04914
-0.18282	0.04914
0.07220	0.10015
0.30171	0.15117
-0.15732	0.22769
0.50573	-0.02739
0.45472	0.50828
-0.08081	-0.10391
0.02119	-0.63957
0.12320	0.25320
0.17421	0.25320
0.17421	0.66132
0.32721	0.48277
0.35272	-0.15492
0.09770	-0.35899
0.04670	0.38074
-0.10631	0.81437
-0.18282	0.12566
0.32721	-0.18043
0.22521	0.38074
0.25071	0.32972
0.30171	0.04914
0.27621	0.20219
0.09770	-1.09871
0.22521	-0.58856
0.09770	0.35523
0.12320	0.50828
0.12320	-0.33348
0.02119	0.04914
-0.18282	0.50828
0.32721	0.83988
0.14870	1.14597
0.17421	0.20219
0.30171	-0.61406
0.22521	-0.07840
0.22521	1.01843
0.04670	0.83988
-0.00431	-1.07320
0.40372	-1.37929
0.02119	-1.37929
0.19971	0.91640
0.30171	1.32453
-0.28482	0.96742
-0.71835	0.63582
0.55673	0.12566
0.83725	0.04914
0.42922	0.17668
0.07220	-0.02739
0.12320	-0.46102
-0.23382	-0.38449
-0.02981	-0.05289
0.22521	0.48277
0.12320	0.12566
0.45472	0.12566
-0.02981	-0.25695
0.14870	0.55929
0.19971	0.20219
0.37822	0.43176
0.32721	0.38074
-0.20832	0.02363
0.42922	0.10015
0.19971	-0.61406
-0.05531	-0.46102
0.22521	0.45726
0.02119	0.15117
0.04670	1.37554
0.04670	0.68683
0.14870	-0.46102
0.12320	-0.20594
0.09770	0.30422
0.19971	0.53379
0.19971	0.30422
0.27621	0.83988
0.09770	0.20219
0.30171	-0.05289
0.12320	0.22769
0.22521	-0.02739
0.22521	0.30422
0.07220	-1.02219
0.04670	-0.56305
0.14870	-0.56305
0.02119	0.35523
0.22521	0.96742
-0.10631	0.73785
-0.10631	1.14597
-0.02981	0.76336
0.53123	1.01843
0.45472	-0.51203
0.30171	-0.46102
0.83725	-1.25176
-0.61635	0.04914
-0.10631	0.71234
0.07220	0.91640
0.37822	-0.71609
-0.02981	0.32972
0.32721	0.63582
1.09226	-0.07840
-0.13181	-0.05289
-0.59084	-0.00188
0.53123	-0.05289
-0.20832	0.38074
0.19971	0.35523
0.37822	0.35523
-0.18282	0.38074
-0.08081	-0.23145
0.25071	-0.20594
0.22521	0.30422
-0.05531	0.07465
0.14870	0.27871
0.19971	0.35523
0.22521	-0.00188
0.25071	0.66132
0.27621	-0.33348
0.25071	0.35523
0.14870	-0.56305
0.12320	0.15117
0.09770	-1.14973
0.12320	0.15117
0.12320	0.63582
0.04670	0.96742
0.02119	1.04394
0.09770	0.32972
0.09770	-0.10391
0.27621	0.25320
0.19971	0.12566
0.17421	-0.12942
0.22521	-0.56305
0.17421	0.58480
0.25071	0.07465
-0.18282	0.00000
-0.08081	0.00000
0.07220	0.04914
0.19971	-0.18043
0.30171	0.30422
0.50573	0.45726
0.40372	0.45726
-0.28482	0.53379
-0.41233	-0.10391
0.35272	-0.61406
0.02119	0.15117
-0.18282	0.32972
1.24527	0.25320
1.50029	0.71234
0.12320	0.45726
-0.71835	-0.43551
-0.79486	-0.63957
-0.25932	-0.63957
-0.02981	0.38074
-0.18282	0.43176
0.27621	0.68683
0.32721	0.48277
0.45472	0.76336
0.50573	0.30422
0.32721	-0.10391
0.27621	0.17668
0.19971	-0.18043
0.17421	-0.05289
0.09770	-0.30797
0.17421	-0.81812
0.12320	-0.84363
0.09770	0.78886
0.07220	0.45726
-0.05531	0.81437
0.12320	0.20219
0.12320	0.17668
0.04670	-0.05289
0.30171	0.35523
0.07220	0.76336
0.04670	0.17668
0.14870	0.15117
0.19971	0.45726
-0.00431	-0.00188
-0.02981	0.25320
0.70974	-1.35379
0.58223	-0.97117
0.65874	0.15117
-0.51434	0.58480
-0.02981	0.66132
0.30171	0.66132
-0.28482	0.50828
-0.31033	0.35523
0.27621	-0.05289
0.73524	-0.51203
-0.00431	0.25320
0.53123	0.07465
0.32721	0.40625
-0.43783	1.09496
0.02119	-0.35899
1.01576	-0.97117
-0.02981	-0.23145
-0.15732	0.40625
-0.53984	0.73785
0.25071	0.68683
1.21977	0.45726
0.04670	0.35523
-0.08081	0.10015
-0.18282	0.15117
-0.02981	-0.00188
0.07220	0.35523
0.02119	-0.20594
0.25071	0.02363
0.27621	-0.79262
0.22521	0.25320
0.19971	0.66132
0.19971	-0.05289
0.25071	0.32972
0.12320	0.61031
0.22521	-0.18043
-0.02981	-0.58856
0.19971	0.55929
0.45472	1.01843
0.14870	-0.53754
0.07220	-0.25695
-0.08081	-0.05289
0.19971	1.14597
0.19971	0.35523
-0.46334	-0.28246
0.50573	-1.37929
0.12320	0.66132
0.96476	0.76336
-0.10631	0.91640
0.50573	0.27871
0.40372	-0.02739
-0.08081	-0.43551
-1.20288	-0.18043
-0.43783	0.12566
0.55673	0.55929
0.22521	0.50828
0.78624	-0.02739
1.65330	-0.25695
-0.02981	-0.35899
-0.59084	-0.00188
-0.23382	0.20219
-0.00431	0.48277
0.14870	0.35523
0.09770	0.53379
-0.00431	0.02363
0.04670	0.10015
0.25071	0.40625
0.25071	0.81437
0.27621	0.22769
0.22521	-1.02219
0.14870	-1.43031
0.30171	0.32972
0.09770	0.78886
0.17421	0.81437
0.12320	1.09496
0.17421	-0.20594
0.25071	-0.00188
0.12320	-0.63957
-0.28482	-0.23145
0.09770	0.73785
-0.18282	0.68683
0.58223	0.45726
0.37822	0.27871
0.04670	-0.07840
-0.66735	-0.15492
0.81175	0.17668
1.11776	-0.02739
-0.31033	-0.12942
-0.28482	-1.83844
-0.05531	0.12566
0.32721	0.58480
0.35272	0.96742
-0.53984	0.83988
0.53123	0.50828
0.25071	0.61031
-0.28482	0.27871
0.04670	0.07465
0.32721	0.94191
1.01576	-0.51203
0.55673	-0.69059
0.07220	-0.38449
0.09770	0.25320
-0.48884	0.25320
0.19971	0.38074
0.32721	0.45726
-0.13181	0.43176
-0.51434	-0.15492
0.19971	0.15117
0.58223	0.35523
0.40372	0.83988
0.22521	-0.51203
0.19971	0.27871
0.27621	0.22769
-0.08081	0.35523
0.19971	0.63582
0.07220	-0.23145
0.07220	-1.68539
0.09770	0.94191
0.14870	0.99292
0.19971	0.76336
0.14870	0.94191
0.14870	0.43176
0.17421	-0.20594
0.25071	-0.66508
0.09770	-1.02219
0.02119	0.27871
0.14870	0.35523
-0.23382	-0.12942
0.30171	0.27871
0.09770	1.04394
0.27621	-0.43551
0.68424	-0.61406
-0.00431	0.38074
-0.02981	0.48277
0.07220	0.22769
0.78624	0.43176
-0.18282	0.17668
-0.94787	0.76336
0.40372	-0.05289
0.73524	0.48277
0.63323	-0.00188
0.48022	-0.18043
-0.00431	0.02363
-0.64185	0.10015
-0.25932	0.25320
-0.02981	-0.15492
0.17421	-0.58856
0.50573	0.40625
0.22521	0.43176
0.19971	0.68683
0.25071	-0.51203
0.22521	0.22769
0.17421	-0.56305
-0.02981	0.55929
-0.02981	0.89089
0.35272	0.53379
0.04670	-1.14973
0.27621	0.35523
0.27621	0.96742
0.22521	0.43176
0.12320	0.58480
0.09770	0.38074
0.02119	-0.92016
0.02119	0.43176
0.09770	-0.07840
0.35272	-0.86914
0.02119	0.20219
-0.18282	0.02363
0.53123	-0.10391
0.27621	-0.23145
0.53123	0.55929
-0.43783	0.50828
-0.33583	0.45726
-0.20832	0.17668
0.53123	0.50828
0.17421	0.30422
0.14870	0.15117
1.52579	-0.00188
0.48022	0.12566
-0.36133	-0.07840
-0.38683	-0.33348
-0.36133	-0.00188
0.45472	0.53379
0.17421	0.17668
-0.08081	0.27871
0.09770	0.30422
0.40372	0.15117
0.50573	0.27871
0.99026	0.22769
-0.28482	-0.23145
0.02119	0.40625
-0.48884	0.45726
-0.28482	0.17668
-0.10631	-0.02739
0.04670	0.89089
0.42922	-0.10391
0.37822	-0.81812
0.35272	-1.86394
0.19971	0.99292
0.17421	0.10015
0.25071	-0.61406
0.17421	0.63582
0.40372	1.65613
0.12320	1.24800
-0.15732	0.66132
-0.08081	0.45726
-0.36133	0.07465
0.53123	-0.71609
0.48022	0.32972
-0.18282	-0.41000
0.53123	-0.20594
0.19971	-0.46102
-0.15732	-0.33348
-0.25932	-0.05289
-0.15732	0.17668
0.68424	0.02363
0.45472	0.10015
0.32721	0.45726
-0.53984	0.22769
-0.28482	0.78886
0.50573	0.50828
1.11776	0.30422
0.32721	0.50828
-0.71835	0.04914
0.50573	-0.12942
-0.02981	0.02363
0.07220	0.35523
-0.28482	0.43176
0.30171	-0.76711
-0.20832	-0.79262
0.32721	0.30422
0.63323	0.66132
0.42922	0.30422
0.27621	0.58480
0.04670	0.50828
0.17421	0.15117
-0.05531	-0.20594
0.17421	0.04914
0.02119	1.35003
0.07220	0.43176
0.09770	-0.51203
-0.13181	-1.68539
-0.23382	-0.15492
0.91375	0.73785
-0.20832	0.48277
0.27621	0.04914
0.63323	0.30422
-0.18282	0.55929
-0.02981	0.83988
0.53123	0.63582
-0.13181	0.30422
0.04670	-0.81812
0.25071	0.30422
-0.18282	0.02363
0.12320	-0.12942
0.45472	-0.05289
0.09770	-0.10391
-0.00431	0.43176
0.50573	0.58480
0.40372	0.32972
0.45472	-0.23145
-0.18282	-0.23145
-0.36133	-0.12942
-0.28482	0.17668
-0.00431	0.55929
2.08683	0.68683
0.40372	0.25320
-0.38683	0.12566
-0.23382	0.04914
-0.61635	0.02363
0.45472	0.07465
0.60773	-0.02739
-0.43783	0.30422
-0.15732	0.12566
-0.18282	0.99292
0.07220	0.17668
0.50573	-1.48133
0.35272	-0.71609
0.45472	0.50828
0.17421	0.68683
0.27621	0.66132
-0.02981	0.30422
0.04670	0.61031
-0.18282	0.12566
0.25071	0.25320
0.32721	0.58480
0.35272	-0.15492
0.09770	-0.07840
0.04670	-0.66508
0.25071	0.22769
-0.10631	0.17668
0.60773	0.81437
0.02119	-0.18043
0.12320	0.04914
-0.13181	0.20219
-0.28482	0.17668
-0.08081	0.63582
0.81175	0.17668
0.19971	-0.41000
-0.10631	-0.07840
0.04670	-0.46102
0.07220	0.66132
0.27621	0.50828
0.17421	-0.00188
-0.08081	-0.15492
0.35272	0.71234
0.19971	0.22769
0.35272	0.40625
0.45472	0.45726
-0.02981	-0.05289
0.22521	0.15117
-0.48884	-0.00188
-0.53984	0.15117
0.88825	-0.05289
0.09770	-0.00188
0.02119	0.10015
-0.59084	-0.12942
0.35272	0.30422
0.53123	0.35523
0.70974	0.15117
0.76074	-0.74160
-0.08081	-0.25695
-0.20832	0.55929
0.02119	0.71234
-0.08081	0.71234
0.27621	0.58480
0.14870	-0.05289
0.12320	-0.99668
0.25071	-0.38449
0.14870	0.50828
-0.18282	0.73785
0.22521	0.45726
0.17421	0.63582
0.04670	0.63582
0.07220	-0.18043
0.02119	0.81437
1.52579	-0.12942
0.96476	-0.18043
-1.20288	-1.60887
-0.38683	-0.56305
0.25071	0.35523
-0.28482	1.01843
-0.18282	0.58480
-0.05531	0.53379
0.42922	0.12566
0.68424	0.17668
0.76074	0.17668
0.37822	0.43176
-0.41233	-0.10391
-0.18282	0.45726
-0.61635	0.35523
0.12320	0.25320
0.53123	-0.10391
0.27621	-0.02739
0.17421	-0.05289
0.63323	-0.00188
0.45472	0.02363
0.19971	0.30422
0.02119	0.15117
-0.18282	0.04914
-0.13181	-0.00188
0.22521	0.53379
-0.41233	0.10015
0.12320	0.43176
-0.31033	0.12566
0.70974	0.45726
1.09226	-1.07320
0.14870	-0.07840
0.07220	0.50828
-0.36133	-0.25695
0.04670	0.10015
-0.13181	1.35003
0.07220	0.40625
-0.15732	0.20219
1.19427	0.25320
0.27621	0.22769
0.09770	0.43176
-0.08081	-0.56305
0.14870	-0.05289
0.12320	-0.12942
-0.59084	0.04914
0.02119	0.35523
0.42922	0.22769
0.17421	0.43176
0.63323	-0.71609
0.45472	-1.58336
0.25071	0.04914
-0.56534	0.71234
0.04670	0.81437
-0.48884	0.81437
0.60773	0.53379
0.27621	0.55929
0.07220	0.27871
0.55673	0.25320
-0.00431	0.15117
0.14870	-0.00188
0.07220	-0.25695
0.70974	-0.10391
0.25071	-0.18043
-0.05531	0.25320
0.12320	0.02363
-0.00431	-0.07840
-0.00431	-0.07840
-0.05531	0.15117
-0.15732	0.61031
0.19971	0.96742
0.09770	0.45726
0.12320	0.81437
0.53123	-0.97117
0.17421	0.02363
0.37822	-0.02739
-0.33583	-0.15492
-0.00431	0.76336
0.25071	0.40625
0.14870	-0.15492
0.12320	0.32972
0.32721	0.35523
0.09770	-0.15492
0.48022	0.38074
0.19971	0.22769
0.09770	0.68683
-0.02981	0.50828
-0.31033	-0.66508
0.27621	-0.46102
0.19971	-0.69059
0.07220	-0.86914
0.14870	0.15117
0.48022	0.78886
0.04670	1.17148
0.04670	0.96742
-0.08081	0.71234
0.42922	0.45726
0.50573	0.15117
-0.56534	0.10015
0.25071	-0.28246
0.09770	-0.69059
0.22521	-0.46102
-0.28482	0.38074
-0.05531	0.04914
0.83725	0.17668
0.73524	0.02363
-0.25932	0.27871
-0.02981	0.30422
-0.13181	0.32972
-0.33583	0.15117
-0.10631	0.53379
0.58223	0.30422
0.70974	0.68683
0.09770	0.32972
-0.53984	-0.30797
0.45472	-0.53754
1.09226	0.15117
0.42922	0.40625
-0.74385	-0.07840
-0.48884	0.43176
0.63323	-0.07840
-0.18282	-0.28246
0.07220	-0.02739
0.02119	0.17668
0.37822	-0.23145
0.37822	0.32972
0.27621	0.91640
0.22521	0.02363
0.04670	1.04394
0.32721	0.27871
0.53123	-0.46102
0.09770	-0.23145
0.09770	0.04914
-0.18282	0.48277
-0.25932	0.73785
-0.28482	0.17668
-0.20832	-0.58856
0.40372	-0.30797
0.42922	-0.56305
0.27621	-0.25695
0.35272	0.43176
0.14870	0.94191
0.37822	0.66132
-0.10631	-0.12942
0.37822	0.43176
0.09770	0.55929
0.04670	0.68683
-0.00431	0.27871
0.48022	-0.38449
0.53123	-0.48652
-1.30489	-0.41000
-0.61635	0.25320
1.39828	0.07465
0.07220	0.25320
0.53123	0.53379
0.12320	0.48277
-0.08081	0.17668
0.17421	-0.00188
0.40372	0.50828
0.50573	0.30422
0.12320	-0.69059
-0.10631	-0.99668
-0.28482	0.45726
-0.15732	1.14597
-0.31033	0.40625
0.42922	0.17668
0.73524	0.35523
-0.05531	-0.15492
0.17421	0.15117
-0.15732	0.40625
0.09770	0.30422
-0.00431	-0.02739
0.35272	-0.35899
0.27621	0.45726
0.40372	-0.28246
-0.08081	0.27871
0.19971	0.20219
0.32721	0.04914
0.48022	-0.46102
0.50573	-0.25695
0.17421	0.66132
-0.15732	0.89089
-0.00431	0.53379
-0.08081	0.27871
0.07220	0.38074
0.42922	-0.33348
-0.69285	-0.00188
-0.38683	0.10015
0.70974	0.38074
0.32721	0.12566
-0.59084	-0.02739
0.63323	-0.02739
0.91375	0.27871
0.32721	-0.15492
0.04670	0.15117
-0.15732	0.40625
-0.20832	0.38074
0.17421	-0.05289
1.09226	-0.15492
0.22521	-0.00188
-0.41233	0.53379
-0.28482	0.20219
-0.08081	0.25320
-0.28482	0.25320
-0.23382	-0.23145
0.53123	0.53379
0.37822	-0.10391
0.50573	0.43176
0.09770	0.04914
0.22521	0.10015
0.25071	0.17668
0.45472	-0.41000
0.17421	0.50828
0.12320	1.01843
0.25071	0.32972
-0.15732	-0.18043
-0.13181	-0.79262
0.58223	1.22250
0.02119	0.10015
0.14870	-0.84363
0.02119	0.12566
-0.10631	0.53379
-0.87136	0.53379
0.58223	0.55929
0.60773	1.09496
0.12320	-0.51203
0.14870	-1.27726
0.45472	-0.41000
0.27621	0.32972
-0.00431	0.78886
0.32721	0.78886
0.42922	0.61031
-0.20832	0.22769
0.42922	-0.51203
-0.38683	0.12566
-0.31033	0.45726
-0.20832	0.32972
1.39828	0.02363
0.81175	-0.10391
-0.18282	0.12566
-0.38683	0.25320
-0.28482	0.15117
-0.02981	0.10015
0.19971	-0.25695
0.32721	-0.20594
0.91375	0.55929
-0.08081	0.22769
-0.64185	-0.35899
-0.89686	0.10015
0.93925	0.38074
0.70974	0.40625
0.42922	0.20219
0.48022	0.66132
0.22521	-0.05289
0.12320	-0.07840
0.09770	-0.15492
0.09770	0.12566
0.14870	0.73785
0.14870	0.48277
-0.05531	0.15117
-0.00431	-0.86914
-0.28482	-1.58336
0.27621	0.40625
0.17421	1.63062
0.30171	0.78886
0.37822	-0.35899
-0.20832	-0.38449
0.19971	0.45726
-0.02981	0.53379
0.45472	0.63582
0.65874	0.32972
0.07220	0.55929
-0.18282	-0.05289
0.04670	-1.20074
0.30171	-0.76711
-0.08081	0.45726
0.73524	-0.07840
-0.33583	0.25320
0.25071	0.63582
0.78624	0.68683
0.63323	0.71234
-0.38683	-0.07840
-0.13181	0.12566
-0.13181	0.25320
0.02119	-0.43551
-0.87136	-0.33348
0.40372	-0.25695
0.02119	-0.07840
1.16877	0.66132
-0.53984	0.17668
0.25071	0.38074
1.85731	0.38074
1.04126	0.66132
-0.38683	-0.30797
-1.55991	0.27871
0.12320	0.38074
-0.08081	-0.20594
0.50573	0.04914
-0.05531	-0.05289
0.12320	0.22769
0.07220	0.27871
0.42922	0.10015
0.25071	0.27871
0.04670	0.27871
0.19971	-0.05289
0.55673	0.15117
0.30171	0.83988
-0.28482	-0.05289
0.12320	-0.69059
0.17421	-0.84363
0.35272	0.30422
0.22521	-0.05289
0.02119	0.61031
0.25071	0.66132
0.04670	0.35523
0.27621	0.45726
0.25071	0.40625
-0.61635	0.10015
-0.31033	0.63582
1.09226	-0.38449
0.09770	0.40625
-0.28482	-0.69059
0.25071	-0.28246
0.50573	0.17668
0.42922	0.43176
0.68424	0.35523
-0.28482	0.35523
0.02119	0.27871
0.14870	0.15117
-0.00431	-0.05289
-0.25932	-0.02739
0.22521	-0.28246
0.83725	-0.20594
0.37822	-0.07840
-0.36133	0.76336
-0.08081	0.22769
0.60773	0.53379
-0.25932	0.27871
0.25071	0.20219
1.01576	0.17668
0.02119	-0.20594
-0.15732	0.38074
-0.00431	0.32972
-0.18282	-0.12942
0.09770	0.25320
0.40372	0.10015
-0.48884	0.15117
0.45472	0.10015
1.01576	-0.05289
0.09770	0.12566
-0.02981	0.61031
-0.02981	0.27871
-0.13181	-0.10391
0.19971	-0.56305
0.40372	0.04914
-0.97337	0.94191
0.35272	0.07465
0.30171	-0.28246
0.45472	0.30422
0.48022	0.91640
0.40372	1.01843
0.04670	0.66132
0.22521	-0.30797
0.19971	-1.53234
0.17421	-0.79262
0.12320	0.45726
-0.38683	1.04394
-0.08081	1.01843
0.17421	0.48277
0.12320	-0.00188
-0.20832	-0.18043
0.25071	0.10015
1.83181	0.25320
0.40372	0.07465
-0.31033	-0.35899
-0.46334	-0.20594
-0.08081	0.32972
0.04670	0.25320
-0.00431	0.45726
0.12320	0.25320
-0.31033	0.48277
-0.33583	0.25320
0.17421	-0.12942
0.40372	-0.63957
0.73524	0.17668
1.32178	0.10015
0.55673	0.91640
0.07220	0.43176
-0.28482	-0.07840
-0.02981	0.07465
-0.13181	0.22769
-0.13181	0.27871
0.30171	0.04914
-0.41233	0.25320
0.17421	0.86539
0.37822	0.25320
-0.10631	-0.28246
0.17421	-0.35899
0.17421	-0.02739
0.32721	0.12566
-0.05531	0.63582
0.27621	0.50828
0.22521	-0.94566
-0.02981	-0.63957
0.04670	0.55929
0.25071	0.81437
0.45472	1.06945
0.40372	-0.05289
0.22521	0.55929
0.12320	-0.12942
-0.48884	-0.63957
-0.23382	-0.20594
0.55673	0.63582
0.48022	0.45726
0.50573	0.10015
-0.31033	-0.10391
-0.15732	0.66132
0.63323	0.53379
-0.31033	-0.46102
0.22521	-1.17523
-0.05531	-0.66508
0.32721	0.07465
0.12320	0.66132
0.45472	0.83988
-0.02981	0.66132
0.19971	0.71234
0.48022	0.10015
-0.82036	-0.25695
-0.18282	-0.10391
0.73524	0.07465
0.14870	0.27871
0.37822	0.10015
0.48022	0.35523
0.22521	0.22769
0.02119	-0.20594
0.12320	-0.12942
-0.28482	-0.20594
0.07220	0.27871
0.19971	0.02363
0.19971	0.22769
0.32721	-0.00188
0.09770	0.15117
0.35272	0.58480
0.30171	0.71234
-0.20832	-0.00188
0.30171	0.12566
0.30171	0.10015
0.27621	-0.35899
-0.41233	-0.23145
-0.23382	-0.07840
0.32721	0.45726
0.42922	0.50828
0.45472	0.83988
0.37822	0.66132
-0.15732	-0.20594
0.09770	-1.45582
0.50573	0.02363
0.02119	-0.74160
-0.87136	0.22769
0.48022	0.68683
0.88825	1.01843
0.12320	0.58480
-0.02981	0.35523
-0.05531	0.55929
0.04670	0.15117
0.73524	-0.20594
-0.28482	-0.53754
-0.76936	0.45726
0.12320	-0.10391
0.22521	-0.25695
1.16877	-0.53754
0.37822	0.15117
0.07220	0.43176
-0.23382	0.20219
0.32721	0.45726
0.78624	0.45726
0.12320	0.15117
-0.76936	0.07465
-0.18282	0.53379
0.35272	-0.46102
0.32721	-0.02739
0.30171	0.30422
0.09770	0.15117
0.09770	0.40625
0.22521	1.04394
-0.33583	-0.05289
0.37822	-0.58856
0.37822	-0.43551
0.19971	-0.43551
0.19971	-0.20594
0.37822	0.83988
0.25071	0.50828
-0.08081	0.58480
-0.05531	-0.15492
-0.05531	0.04914
0.30171	0.61031
-0.18282	-0.07840
0.22521	0.27871
-0.00431	-0.10391
0.17421	-0.07840
-0.00431	-0.20594
0.42922	0.55929
-0.08081	0.25320
0.32721	0.30422
-0.25932	0.32972
0.17421	-0.07840
0.60773	-0.02739
0.14870	0.35523
0.68424	0.04914
0.07220	0.20219
-0.10631	0.22769
-0.82036	0.45726
0.32721	-0.41000
0.19971	0.25320
0.12320	0.15117
0.65874	-0.20594
0.88825	-0.05289
-0.41233	-0.02739
-0.00431	0.27871
0.37822	0.27871
0.07220	0.07465
-0.28482	0.78886
-0.15732	0.63582
0.02119	-0.69059
0.09770	-0.51203
0.19971	-0.66508
0.35272	0.96742
0.76074	0.81437
0.19971	0.02363
0.14870	1.17148
0.12320	0.30422
0.14870	-0.35899
-0.13181	-0.25695
-0.10631	0.22769
-0.00431	-0.02739
0.78624	0.04914
0.35272	-0.25695
-0.10631	-0.33348
0.07220	0.83988
-0.15732	0.96742
0.48022	0.73785
0.22521	-0.74160
-0.31033	-0.86914
0.04670	-0.81812
0.07220	0.71234
0.55673	0.81437
0.27621	0.58480
0.42922	0.63582
0.14870	-0.12942
0.53123	-0.12942
-0.33583	-0.66508
-0.00431	0.45726
0.14870	0.61031
-0.13181	0.27871
-0.02981	0.17668
0.88825	-0.07840
-0.13181	0.32972
-0.18282	0.22769
0.12320	-0.07840
-0.10631	0.02363
0.63323	0.27871
-0.08081	-0.07840
0.17421	-0.51203
-0.28482	-0.05289
0.42922	0.32972
-0.18282	0.50828
0.88825	0.15117
-0.05531	0.27871
0.19971	0.43176
-0.10631	1.06945
0.37822	-0.00188
0.32721	-0.66508
0.02119	-1.37929
-0.13181	-0.05289
0.12320	1.17148
0.32721	0.45726
-0.08081	0.15117
0.19971	0.55929
-0.31033	0.27871
0.32721	-0.41000
0.50573	0.35523
0.19971	0.17668
0.27621	0.50828
-0.08081	-0.30797
0.32721	0.58480
0.32721	0.48277
0.25071	-0.56305
0.02119	-0.58856
0.07220	0.04914
-0.41233	0.04914
-0.15732	-0.30797
0.22521	0.63582
0.09770	0.63582
0.40372	0.81437
0.22521	0.63582
0.99026	0.43176
-0.08081	0.04914
-0.79486	0.10015
-0.53984	-0.66508
0.63323	-0.66508
0.55673	0.12566
-0.13181	0.38074
0.35272	0.38074
0.48022	0.35523
-0.00431	-0.61406
0.02119	-0.02739
-0.71835	0.58480
0.68424	0.20219
0.19971	0.15117
0.07220	0.12566
0.53123	0.07465
-0.18282	0.04914
-0.13181	0.15117
0.30171	0.22769
0.27621	-0.02739
-0.13181	0.20219
-0.46334	0.15117
0.58223	0.40625
0.50573	0.71234
0.40372	0.83988
-0.28482	-0.53754
-0.53984	-0.38449
0.40372	-0.66508
0.50573	-0.07840
0.40372	-0.00188
0.25071	0.07465
0.22521	0.91640
0.14870	0.89089
-0.05531	0.30422
0.30171	-0.05289
0.32721	0.71234
-0.18282	-0.28246
-0.23382	-0.58856
-0.23382	-0.07840
0.63323	0.20219
-0.15732	0.30422
0.32721	0.25320
0.12320	0.10015
0.88825	0.02363
0.12320	0.07465
-0.00431	0.07465
-0.53984	-0.53754
-0.13181	0.30422
-0.25932	0.45726
-0.10631	0.68683
0.58223	0.27871
0.60773	0.20219
0.53123	0.15117
0.88825	0.30422
0.02119	-0.05289
0.25071	-0.02739
-0.74385	0.07465
0.09770	-0.00188
0.35272	-0.02739
0.14870	0.38074
-0.82036	0.10015
-0.10631	0.43176
0.83725	0.27871
0.37822	0.10015
0.07220	0.38074
0.14870	-0.41000
0.14870	-0.41000
0.19971	0.38074
0.09770	0.96742
0.30171	0.15117
0.40372	0.07465
-0.48884	-0.23145
0.73524	0.07465
-0.94787	0.43176
-0.10631	0.07465
1.01576	0.27871
0.68424	0.43176
-0.08081	0.45726
0.09770	-0.20594
0.30171	-0.30797
-0.25932	-0.66508
-0.46334	0.73785
0.32721	0.43176
0.35272	0.32972
0.58223	0.04914
0.19971	0.12566
0.25071	0.07465
-0.02981	0.15117
0.48022	-0.28246
-0.36133	-0.38449
-0.13181	-0.02739
-0.00431	0.55929
0.83725	0.50828
0.22521	0.40625
-0.02981	0.17668
-0.33583	0.17668
0.04670	0.02363
0.53123	0.07465
0.78624	0.43176
-0.56534	-0.02739
-0.69285	-0.20594
0.32721	-0.46102
0.55673	0.10015
0.40372	-0.30797
-0.13181	0.38074
-0.25932	0.91640
0.45472	0.96742
0.65874	0.27871
0.12320	-0.38449
0.19971	0.27871
0.40372	-0.15492
-0.15732	-0.07840
-0.18282	0.50828
0.48022	0.22769
0.63323	-0.00188
-0.18282	0.15117
-0.48884	0.40625
0.53123	0.91640
0.32721	-0.58856
-0.56534	-0.69059
0.50573	-1.07320
0.12320	0.48277
0.07220	0.96742
-0.05531	0.91640
-1.10088	0.50828
1.32178	0.58480
1.19427	-0.05289
0.14870	0.58480
-0.02981	0.04914
-0.23382	0.15117
0.19971	-0.15492
0.09770	-0.41000
0.27621	-0.23145
0.53123	0.10015
0.04670	-0.12942
-1.02437	0.45726
0.12320	0.53379
0.19971	0.45726
0.58223	0.35523
0.30171	0.35523
0.40372	0.10015
0.14870	-0.38449
-0.13181	-0.25695
0.19971	0.32972
-0.08081	0.02363
0.42922	0.40625
0.73524	0.17668
0.04670	0.35523
-0.84586	0.35523
0.63323	0.04914
0.32721	-0.20594
0.35272	-0.07840
0.19971	-0.48652
-0.94787	0.07465
0.09770	0.45726
0.81175	0.15117
1.27078	0.73785
-0.46334	0.27871
0.30171	0.30422
0.19971	0.15117
-0.33583	-0.10391
-0.25932	0.04914
0.14870	0.40625
0.40372	-0.15492
0.12320	-0.35899
0.14870	-0.41000
0.17421	0.04914
-0.23382	0.25320
0.09770	0.73785
0.63323	0.50828
0.14870	0.63582
-0.28482	-0.10391
1.11776	0.30422
0.17421	0.43176
-0.00431	0.17668
-0.64185	-0.15492
0.12320	-0.25695
-0.00431	0.10015
-0.15732	0.22769
0.32721	0.30422
0.45472	-0.07840
0.50573	0.22769
0.42922	0.30422
0.53123	0.07465
0.50573	0.07465
-0.08081	-0.05289
-0.84586	0.25320
0.02119	0.17668
-0.05531	0.35523
0.42922	0.22769
0.53123	0.22769
0.48022	0.43176
0.68424	-0.38449
-0.20832	-0.15492
0.02119	0.22769
-0.66735	0.15117
0.42922	-0.15492
0.45472	-0.46102
-0.48884	0.53379
-0.53984	0.55929
1.04126	0.04914
0.91375	0.32972
0.02119	0.71234
-0.25932	0.02363
-0.10631	-0.48652
-0.25932	0.15117
0.32721	0.17668
0.48022	0.35523
0.12320	0.10015
0.27621	0.38074
0.12320	0.48277
0.42922	0.30422
0.07220	-0.48652
0.27621	-0.05289
0.50573	0.15117
0.27621	-0.41000
-0.38683	-0.20594
-0.28482	0.04914
0.09770	0.58480
0.09770	0.53379
-0.10631	0.73785
0.55673	0.50828
0.17421	0.27871
0.17421	-0.02739
0.17421	0.22769
-0.38683	-0.38449
0.50573	-0.43551
0.19971	-0.28246
0.09770	0.38074
-0.18282	0.15117
0.02119	0.12566
0.42922	0.40625
0.40372	0.20219
0.19971	-0.25695
0.22521	-0.41000
-0.41233	0.02363
-0.00431	0.55929
-0.36133	0.50828
0.53123	0.50828
0.73524	0.30422
1.14327	0.02363
1.19427	0.40625
-0.33583	0.20219
-0.84586	-0.10391
-0.05531	0.17668
-0.79486	-0.05289
0.35272	-0.05289
0.42922	-0.28246
0.12320	0.04914
0.09770	0.55929
0.12320	-0.10391
0.25071	-0.33348
0.17421	0.04914
-0.43783	0.35523
0.07220	0.76336
0.48022	0.99292
0.22521	0.81437
-0.38683	-0.25695
0.32721	-1.88945
0.60773	-0.25695
0.35272	0.10015
0.27621	0.96742
0.27621	0.71234
0.09770	0.10015
0.35272	0.61031
-0.66735	-0.05289
0.04670	0.07465
0.27621	-0.05289
-0.56534	0.17668
0.53123	-0.20594
0.42922	-0.23145
0.48022	0.20219
-0.25932	0.20219
0.09770	0.12566
0.78624	0.40625
0.50573	0.53379
-0.18282	0.04914
-0.20832	-0.12942
0.25071	0.30422
0.14870	0.10015
-0.08081	0.48277
-0.64185	0.12566
0.78624	-0.51203
0.35272	0.27871
0.30171	0.55929
-0.33583	0.25320
-0.74385	0.17668
0.73524	0.07465
0.53123	0.02363
0.32721	-0.07840
0.32721	0.17668
0.19971	0.43176
0.37822	0.43176
0.60773	0.30422
0.12320	-0.43551
-0.18282	-0.43551
0.12320	0.22769
-0.28482	0.71234
-0.00431	0.02363
0.17421	0.12566
-0.08081	0.17668
0.09770	-0.43551
0.25071	-0.05289
0.12320	1.01843
0.04670	0.48277
0.50573	-0.25695
0.60773	-0.10391
0.02119	0.38074
0.02119	0.50828
0.02119	0.22769
-0.15732	0.20219
0.37822	0.48277
-0.38683	0.15117
0.96476	-0.10391
0.58223	-0.12942
-0.82036	-0.10391
-0.59084	0.07465
0.99026	0.17668
0.32721	0.15117
0.07220	-0.33348
0.78624	0.10015
0.17421	0.50828
0.12320	0.07465
0.30171	0.55929
0.02119	0.17668
-0.69285	-0.02739
1.14327	0.55929
0.19971	0.43176
-0.02981	-0.02739
-0.18282	-0.35899
-0.66735	-0.61406
-0.33583	0.55929
0.19971	0.55929
0.48022	0.48277
0.37822	-0.18043
0.60773	0.22769
0.27621	0.15117
0.12320	0.17668
0.22521	0.17668
0.42922	0.50828
0.27621	0.10015
-0.51434	-0.25695
-0.02981	-0.51203
0.45472	0.45726
0.42922	0.15117
0.17421	0.55929
0.45472	1.06945
0.17421	-0.20594
-0.38683	-0.81812
-0.46334	-0.25695
-0.28482	0.07465
0.50573	0.17668
0.45472	0.40625
0.63323	0.81437
-0.08081	0.48277
0.65874	0.45726
0.30171	0.48277
-0.18282	-0.05289
0.58223	-0.46102
0.09770	-0.30797
0.07220	-0.02739
-0.43783	0.07465
-0.25932	0.35523
-0.00431	0.10015
0.04670	0.22769
0.19971	0.15117
0.78624	0.04914
1.37278	0.07465
-0.20832	0.02363
0.04670	0.25320
0.45472	0.40625
-0.48884	0.32972
-0.41233	0.10015
-1.22839	0.50828
0.70974	0.04914
0.65874	-0.02739
0.68424	-0.25695
0.32721	0.04914
0.09770	0.45726
-0.08081	0.50828
0.30171	0.53379
0.09770	0.15117
0.88825	0.32972
-0.38683	0.63582
-0.08081	-0.23145
-0.08081	-1.30277
0.30171	-0.00188
-0.05531	0.71234
-0.13181	0.30422
0.30171	0.30422
0.07220	-0.46102
0.17421	0.22769
0.35272	1.22250
0.40372	0.22769
-0.00431	0.07465
-0.18282	0.10015
0.07220	0.22769
0.25071	-0.33348
-0.00431	-0.00188
0.14870	0.30422
0.30171	0.58480
0.70974	-0.23145
0.55673	0.27871
-0.56534	0.20219
-0.48884	-0.56305
0.32721	-0.10391
0.35272	-0.05289
0.19971	0.43176
-0.69285	0.53379
0.02119	0.45726
0.50573	0.32972
0.48022	0.30422
0.70974	0.10015
0.09770	0.15117
-0.00431	-0.05289
0.32721	-0.00188
-0.05531	-0.12942
-0.25932	0.07465
0.50573	-0.07840
-0.13181	0.04914
-0.43783	0.32972
-0.13181	0.53379
0.04670	0.22769
0.68424	0.38074
0.27621	0.12566
0.42922	-0.30797
0.32721	-0.05289
0.14870	-0.10391
-0.00431	0.71234
-0.28482	0.22769
0.32721	-0.07840
-0.00431	0.02363
-0.48884	0.78886
0.63323	0.68683
1.11776	-0.35899
0.12320	-1.09871
-0.10631	-0.00188
-0.31033	0.27871
0.17421	0.99292
0.02119	0.50828
-0.02981	0.61031
0.53123	0.07465
-0.25932	-0.74160
0.14870	-1.63437
0.60773	0.20219
0.40372	0.86539
-0.13181	0.53379
-0.13181	0.63582
0.12320	0.35523
0.60773	1.06945
0.37822	0.35523
-0.59084	-0.84363
-0.41233	-0.94566
0.70974	0.20219
0.53123	0.27871
0.50573	0.43176
-0.05531	0.40625
0.42922	0.35523
-0.87136	0.17668
0.17421	0.07465
0.63323	0.07465
0.93925	0.45726
-0.51434	0.02363
0.48022	-0.15492
0.37822	-0.56305
-0.23382	0.45726
-0.59084	0.07465
0.04670	0.43176
-0.02981	0.40625
0.27621	0.30422
0.35272	0.17668
0.27621	0.43176
0.30171	-0.12942
0.40372	-0.25695
0.22521	0.38074
0.04670	0.25320
-0.36133	0.50828
0.32721	0.10015
0.32721	-0.38449
0.27621	-0.35899
0.22521	0.38074
-0.08081	0.96742
0.07220	0.43176
-0.02981	-0.10391
0.12320	-0.53754
0.32721	-0.18043
-0.10631	-0.56305
0.14870	0.50828
0.30171	0.76336
0.12320	0.35523
0.12320	0.30422
0.12320	-0.18043
0.30171	-0.15492
0.32721	0.71234
0.22521	0.86539
-0.20832	0.35523
-0.28482	-0.41000
0.73524	-0.66508
0.81175	-0.02739
-0.18282	0.40625
-1.04987	0.10015
0.35272	0.12566
-0.15732	0.25320
0.86275	0.30422
0.68424	0.12566
-0.28482	-0.12942
0.37822	0.25320
0.22521	0.02363
1.04126	0.66132
-0.46334	0.12566
0.02119	0.38074
0.12320	-0.28246
-0.13181	0.02363
-1.22839	0.15117
0.53123	0.22769
0.99026	0.35523
0.14870	0.10015
0.25071	-0.02739
0.12320	0.40625
-0.38683	0.40625
-0.33583	0.02363
0.37822	0.15117
0.45472	0.22769
0.55673	-0.00188
0.25071	0.10015
0.37822	0.15117
0.12320	-0.12942
0.12320	-0.07840
0.14870	0.73785
0.02119	0.12566
0.02119	0.02363
0.12320	-0.38449
0.27621	0.86539
-0.20832	0.12566
-0.18282	0.25320
0.17421	-0.00188
0.07220	-0.51203
-0.15732	0.25320
0.14870	0.30422
0.19971	-0.07840
0.17421	-0.02739
1.52579	0.22769
0.12320	0.63582
-0.38683	0.86539
-0.18282	0.55929
0.09770	0.43176
-0.23382	-0.05289
0.27621	-0.81812
0.83725	0.07465
0.50573	0.32972
-0.33583	0.45726
-0.94787	-1.17523
-0.66735	-0.51203
1.62780	0.30422
0.07220	0.66132
-0.02981	0.43176
0.40372	0.22769
0.63323	-0.02739
-0.66735	0.35523
0.17421	0.32972
0.58223	0.32972
-0.48884	0.32972
-0.08081	-0.05289
0.96476	0.20219
-0.05531	-0.05289
0.07220	0.15117
0.02119	-0.05289
-0.08081	0.22769
0.35272	0.30422
0.22521	0.32972
0.27621	0.22769
0.02119	0.04914
0.04670	0.07465
-0.02981	0.02363
0.27621	0.10015
0.35272	0.76336
-0.00431	-0.35899
-0.20832	-0.63957
0.19971	-0.15492
0.60773	0.25320
0.07220	-0.00188
0.40372	1.12046
0.32721	0.78886
-0.00431	0.32972
-0.08081	0.27871
-0.00431	0.12566
0.12320	-0.35899
-0.28482	-0.00188
0.37822	-0.10391
0.50573	0.66132
0.32721	0.20219
-0.02981	-1.20074
-0.74385	-0.35899
0.17421	0.27871
1.01576	0.86539
0.27621	0.96742
0.35272	0.45726
-0.71835	0.02363
-0.00431	-0.00188
0.37822	0.07465
0.37822	0.20219
0.45472	0.04914
0.17421	-0.05289
0.09770	0.07465
-0.56534	0.15117
0.37822	0.12566
1.06676	-0.02739
-0.23382	-0.25695
0.40372	-0.05289
-0.28482	0.63582
-0.64185	0.22769
-0.05531	0.15117
0.70974	-0.02739
0.55673	0.07465
0.17421	0.27871
0.27621	0.35523
0.25071	0.17668
-0.15732	0.15117
0.02119	0.04914
0.48022	-0.15492
-0.18282	0.12566
0.42922	0.04914
0.88825	-0.02739
-0.38683	-0.69059
-0.02981	0.12566
-0.10631	0.48277
0.22521	0.66132
0.12320	0.68683
0.19971	0.68683
-0.00431	0.25320
0.37822	-0.10391
0.55673	-0.05289
-0.00431	-0.18043
0.25071	-0.00188
-0.08081	0.04914
-0.28482	-0.00188
0.88825	0.58480
0.88825	0.99292
0.02119	-0.00188
-0.18282	-0.86914
-0.48884	-1.17523
-0.33583	-1.07320
0.07220	0.15117
-0.10631	0.96742
0.45472	1.27351
0.07220	0.86539
1.21977	0.71234
0.40372	0.55929
0.07220	0.43176
-0.13181	-0.10391
-0.66735	-0.12942
-0.08081	-0.18043
1.24527	-0.41000
-0.00431	-0.10391
-1.17738	0.22769
-0.13181	0.17668
0.40372	0.40625
0.83725	0.27871
0.48022	0.17668
0.30171	0.07465
0.37822	0.12566
0.14870	0.10015
0.04670	-0.00188
-0.20832	-0.05289
0.22521	0.40625
-0.00431	0.45726
0.22521	0.17668
0.09770	-0.28246
-0.02981	-0.41000
-0.08081	0.86539
0.22521	0.50828
0.32721	-0.23145
0.14870	-0.51203
0.27621	0.38074
0.27621	0.66132
0.09770	0.71234
-0.05531	-0.02739
0.22521	0.22769
0.40372	-0.20594
0.04670	-0.76711
0.17421	-0.00188
-0.23382	0.15117
0.53123	0.63582
-0.48884	0.27871
0.22521	0.22769
0.68424	0.48277
0.68424	1.19699
-0.02981	-0.12942
0.25071	-0.89465
-0.18282	-0.20594
-0.05531	-0.00188
-0.18282	0.48277
0.25071	0.71234
-0.13181	-0.10391
0.14870	-0.10391
0.68424	-0.23145
0.12320	0.27871
0.02119	0.61031
0.30171	0.15117
0.40372	0.27871
0.09770	0.20219
-0.33583	0.15117
-0.00431	0.45726
0.73524	0.30422
0.35272	-0.05289
-0.31033	-0.33348
0.02119	-0.25695
0.12320	0.12566
0.07220	0.32972
-0.00431	0.38074
-0.10631	0.15117
0.02119	0.30422
0.27621	0.12566
0.12320	0.61031
0.70974	-0.94566
0.02119	-0.69059
-0.08081	0.10015
0.73524	0.71234
-0.00431	0.89089
0.02119	0.76336
-0.02981	0.17668
0.07220	0.40625
0.27621	-0.18043
0.14870	-0.51203
0.22521	-0.07840
-0.05531	0.22769
0.19971	0.45726
0.27621	0.22769
-1.20288	0.10015
-0.36133	0.12566
1.01576	0.35523
1.04126	-0.20594
0.45472	-0.25695
-0.05531	0.12566
-0.20832	0.27871
0.37822	0.02363
1.09226	0.04914
-0.08081	0.35523
-0.61635	0.40625
0.14870	0.27871
-0.15732	0.25320
-0.00431	0.04914
0.50573	0.66132
0.14870	-0.23145
-0.10631	-0.18043
-0.10631	-0.00188
0.25071	0.20219
0.22521	0.58480
-0.74385	0.25320
0.27621	0.25320
1.34728	-0.25695
0.45472	0.27871
0.30171	0.35523
-0.48884	0.15117
-0.13181	0.04914
0.17421	-0.12942
0.09770	-0.46102
0.19971	-0.23145
0.27621	0.04914
0.02119	0.22769
0.30171	0.96742
-0.00431	0.53379
0.17421	-0.35899
-0.33583	-0.30797
0.04670	-0.07840
-0.00431	0.68683
0.37822	0.35523
0.32721	0.63582
0.09770	0.43176
0.22521	0.12566
0.42922	0.12566
0.45472	-0.02739
-0.13181	-0.25695
0.07220	-0.00188
0.09770	-0.00188
0.07220	-0.20594
0.73524	0.35523
0.25071	-0.18043
-0.53984	-0.10391
-0.25932	0.22769
0.07220	0.40625
-0.28482	0.43176
-0.10631	0.32972
0.30171	0.32972
1.21977	0.43176
0.17421	0.20219
-0.05531	0.32972
0.53123	-0.51203
0.02119	0.04914
0.04670	-0.02739
0.09770	-0.05289
0.25071	0.07465
0.04670	0.40625
-0.28482	0.43176
0.02119	0.10015
0.58223	0.04914
-0.23382	0.02363
-0.08081	0.32972
0.65874	0.17668
0.12320	0.35523
-0.00431	0.20219
0.17421	0.43176
0.14870	-0.05289
0.30171	-0.23145
-0.05531	-0.28246
0.32721	0.38074
0.02119	0.02363
0.17421	-1.14973
0.19971	0.58480
0.09770	0.32972
-0.25932	0.66132
0.22521	0.71234
0.07220	0.86539
-0.15732	0.30422
0.48022	0.12566
1.24527	0.55929
0.07220	0.02363
-0.36133	-0.86914
-0.41233	-0.48652
-0.02981	0.25320
0.02119	0.45726
0.73524	0.25320
0.83725	-0.10391
-0.56534	0.55929
0.02119	0.12566
0.50573	-0.00188
0.58223	0.10015
0.02119	0.25320
-0.23382	0.17668
0.86275	0.17668
-0.08081	0.04914
-0.38683	0.25320
-0.02981	0.17668
-0.10631	-0.15492
-0.36133	0.04914
-0.02981	0.12566
0.53123	0.48277
0.55673	-0.25695
0.19971	0.25320
0.02119	0.68683
0.30171	0.04914
0.17421	-0.46102
0.30171	0.07465
0.19971	0.20219
-0.00431	0.55929
0.32721	0.25320
0.12320	0.17668
0.04670	0.22769
0.09770	0.12566
0.07220	-0.28246
0.22521	0.07465
0.02119	0.32972
0.17421	0.10015
0.14870	0.22769
0.30171	0.04914
-0.28482	0.15117
0.14870	0.04914
0.35272	0.04914
-0.00431	0.02363
0.19971	0.07465
0.45472	0.50828
-0.08081	-0.43551
0.07220	-0.20594
0.32721	0.35523
0.22521	0.50828
-0.82036	0.45726
0.14870	0.25320
1.01576	0.66132
-0.05531	0.02363
-0.36133	-0.35899
0.37822	-0.15492
0.42922	0.30422
-0.05531	0.25320
-0.23382	0.17668
0.09770	0.38074
1.14327	0.20219
0.27621	0.07465
-0.94787	0.20219
-0.05531	0.07465
0.63323	0.04914
-0.08081	0.10015
-0.05531	-0.07840
0.32721	0.15117
-0.00431	0.38074
-0.02981	-0.00188
0.32721	0.15117
0.30171	0.30422
0.17421	0.27871
-0.10631	-0.07840
-0.08081	0.17668
0.78624	0.10015
0.68424	0.45726
0.27621	-0.05289
-0.41233	-0.28246
-0.18282	0.78886
0.02119	-0.18043
0.12320	-0.63957
0.19971	0.20219
-0.15732	-0.92016
0.14870	0.73785
0.78624	0.99292
0.60773	0.61031
-0.48884	0.86539
-0.08081	0.30422
0.30171	0.38074
0.60773	-0.41000
0.02119	-0.15492
-0.08081	0.12566
0.02119	-0.02739
0.40372	-0.15492
0.19971	-0.20594
0.35272	0.27871
0.12320	-0.07840
0.32721	-0.25695
0.60773	0.43176
-0.46334	0.43176
-0.92237	0.40625
0.50573	0.20219
0.25071	-0.28246
0.07220	-0.35899
-0.00431	0.30422
0.42922	0.30422
0.63323	0.53379
-0.02981	0.43176
-0.13181	0.38074
-0.08081	0.32972
0.48022	-0.15492
-0.64185	0.10015
0.42922	0.02363
0.32721	0.04914
0.04670	0.43176
0.14870	-0.07840
0.25071	0.20219
0.45472	-0.05289
0.04670	0.30422
-0.08081	-0.07840
0.17421	-0.61406
-0.00431	-0.00188
0.04670	0.45726
0.09770	0.32972
0.27621	0.12566
0.50573	0.86539
-0.10631	0.53379
0.02119	-0.18043
0.25071	-0.48652
0.19971	-0.38449
0.19971	0.30422
0.17421	0.50828
0.19971	0.55929
0.37822	0.27871
0.12320	-0.10391
-0.05531	-0.33348
-0.43783	0.38074
0.22521	-0.02739
0.17421	-0.02739
-0.08081	0.07465
-0.05531	-0.46102
0.86275	0.02363
0.48022	0.32972
0.32721	0.61031
-0.15732	0.73785
0.09770	0.48277
-0.38683	0.10015
0.73524	0.20219
0.45472	0.40625
-0.33583	-0.20594
-0.18282	-0.86914
-0.08081	-0.63957
0.12320	0.35523
0.25071	0.30422
0.19971	0.27871
0.27621	0.45726
0.35272	0.45726
0.42922	0.02363
0.09770	-0.07840
0.32721	-0.12942
-0.33583	0.40625
-0.41233	0.43176
0.17421	0.15117
0.27621	0.22769
0.07220	0.55929
0.32721	-0.05289
0.35272	-0.05289
0.32721	0.15117
-0.00431	0.07465
-0.13181	0.30422
0.48022	0.04914
0.12320	0.25320
-0.05531	0.43176
-0.00431	-0.35899
0.35272	-0.05289
-0.05531	0.02363
0.02119	0.30422
0.14870	0.40625
0.12320	0.22769
-0.18282	0.76336
0.40372	0.25320
0.19971	-0.61406
0.35272	-0.79262
-0.28482	0.30422
-0.15732	0.25320
-0.02981	0.76336
0.53123	0.61031
0.73524	0.04914
0.02119	0.12566
0.91375	0.43176
0.81175	-0.00188
-0.38683	-0.12942
0.25071	0.12566
-0.69285	0.32972
-0.46334	0.17668
-0.56534	-0.05289
-0.08081	0.12566
0.60773	-0.10391
1.19427	0.12566
0.48022	0.30422
0.37822	0.12566
-0.43783	-0.05289
-0.48884	0.25320
-0.20832	0.22769
0.40372	0.30422
0.53123	0.15117
0.22521	-0.10391
0.25071	0.15117
0.14870	0.25320
-0.15732	0.30422
0.35272	0.48277
0.30171	-0.23145
0.04670	0.58480
-0.02981	0.58480
0.14870	-0.23145
-0.02981	-0.81812
0.02119	0.17668
0.32721	-0.20594
0.27621	0.32972
0.25071	0.10015
0.27621	0.53379
0.14870	0.68683
-0.08081	0.35523
0.22521	0.25320
0.07220	0.27871
0.40372	0.22769
-0.05531	0.12566
0.22521	-0.02739
-0.61635	0.27871
-0.00431	0.15117
0.83725	0.58480
0.42922	-0.51203
-0.99887	-2.78222
0.04670	-1.07320
0.76074	1.14597
0.42922	1.35003
0.25071	1.04394
0.55673	0.63582
0.70974	0.76336
0.02119	0.32972
-0.18282	0.20219
0.45472	0.12566
-0.46334	-0.07840
-0.56534	-0.10391
-0.13181	-0.10391
0.22521	0.15117
0.17421	-0.30797
0.22521	-0.10391
0.19971	0.10015
0.48022	0.45726
0.68424	0.25320
-1.15188	0.07465
0.48022	0.25320
0.86275	0.30422
0.37822	0.17668
0.22521	-0.00188
0.12320	0.22769
-0.13181	0.68683
-0.18282	0.22769
0.30171	0.45726
0.12320	-1.09871
-0.08081	-0.71609
0.30171	0.40625
0.07220	0.45726
0.12320	0.35523
0.07220	0.78886
0.14870	0.32972
0.32721	0.10015
0.09770	0.53379
-0.38683	-0.00188
0.32721	0.53379
0.09770	-0.33348
0.37822	-0.48652
-0.02981	-0.71609
0.83725	0.30422
0.30171	-0.02739
-0.28482	-0.00188
-1.02437	0.40625
0.22521	0.61031
0.63323	0.35523
0.37822	0.38074
0.17421	0.15117
0.93925	0.25320
-0.08081	0.30422
-0.00431	0.32972
-0.33583	-0.53754
0.48022	-1.09871
0.30171	-0.12942
-0.38683	0.27871
0.25071	0.45726
0.50573	0.25320
0.02119	0.48277
-0.41233	0.45726
0.12320	0.61031
0.04670	0.04914
0.14870	0.40625
0.14870	-0.33348
0.22521	-0.25695
0.14870	0.27871
0.35272	0.17668
0.19971	0.07465
0.04670	0.22769
-0.08081	0.27871
0.30171	0.45726
0.35272	-0.43551
0.19971	-0.74160
0.19971	0.04914
0.19971	0.66132
-0.02981	0.40625
0.22521	0.71234
0.09770	0.55929
0.12320	0.04914
0.04670	-0.20594
0.19971	-0.35899
0.58223	0.25320
0.48022	0.32972
-0.74385	-0.02739
-0.46334	0.10015
0.32721	0.25320
0.55673	0.48277
0.42922	0.71234
0.19971	0.27871
-0.48884	-0.43551
0.14870	0.07465
0.63323	0.25320
0.12320	0.10015
0.22521	-0.00188
1.11776	0.25320
-0.10631	0.12566
0.73524	-0.10391
-1.58541	0.02363
0.07220	-0.28246
0.42922	0.10015
0.40372	-0.10391
0.12320	0.35523
0.07220	0.38074
-0.46334	0.27871
0.12320	0.17668
0.35272	0.25320
-0.08081	0.32972
0.04670	0.83988
0.45472	0.17668
0.40372	-0.20594
0.12320	-0.38449
0.14870	-0.15492
0.14870	0.04914
0.42922	0.50828
-0.15732	0.35523
0.32721	0.58480
0.14870	-0.15492
0.17421	0.12566
0.27621	-0.48652
0.04670	0.43176
0.04670	0.20219
0.02119	0.63582
-0.05531	0.22769
0.02119	-0.38449
0.30171	-0.07840
-0.00431	0.76336
0.32721	0.66132
-0.23382	0.02363
0.22521	-0.10391
0.25071	-0.05289
0.19971	-0.20594
0.27621	0.10015
0.35272	0.25320
-0.28482	0.17668
0.02119	0.04914
1.04126	0.27871
0.02119	0.02363
0.04670	0.10015
0.12320	0.07465
-0.00431	0.15117
-0.31033	-0.05289
0.07220	0.30422
-0.59084	0.40625
0.73524	0.48277
1.14327	0.45726
0.32721	0.50828
0.32721	0.30422
0.12320	0.15117
-0.46334	-0.25695
0.07220	-0.46102
0.12320	-0.25695
0.19971	0.07465
0.42922	0.58480
-0.28482	0.45726
-0.18282	-0.10391
0.30171	-0.00188
0.27621	0.27871
0.14870	0.43176
0.12320	0.10015
0.30171	0.25320
0.25071	0.12566
0.07220	0.48277
0.30171	0.45726
0.14870	-0.18043
0.14870	-1.43031
0.07220	-0.66508
-0.00431	0.27871
0.76074	1.17148
0.04670	0.66132
-0.13181	-0.00188
-0.08081	0.48277
-0.20832	0.12566
0.32721	0.30422
0.25071	0.07465
0.37822	-0.23145
-0.38683	0.35523
0.30171	0.58480
0.37822	-0.05289
0.30171	-0.00188
0.40372	-0.00188
0.19971	-0.23145
-0.89686	-0.28246
0.48022	0.10015
0.53123	0.22769
0.48022	0.35523
0.25071	0.32972
0.09770	0.25320
0.27621	0.15117
-0.25932	0.20219
0.22521	0.15117
0.07220	0.27871
-0.00431	-0.15492
0.04670	-0.00188
-0.23382	-0.02739
-0.08081	0.66132
0.27621	0.32972
0.25071	-0.07840
-0.10631	-0.58856
0.35272	0.30422
1.06676	0.66132
0.45472	0.43176
-0.02981	0.32972
0.09770	0.22769
-0.02981	0.12566
0.12320	-0.35899
-0.00431	-0.53754
0.02119	0.12566
0.22521	0.25320
-0.02981	0.25320
0.09770	0.15117
0.22521	0.43176
-0.00431	0.22769
0.35272	0.35523
0.19971	0.15117
0.07220	0.04914
-0.31033	-0.18043
0.02119	-0.02739
0.73524	0.20219
0.25071	0.17668
0.17421	0.25320
0.17421	0.30422
0.45472	-0.00188
0.35272	-0.25695
0.14870	0.07465
0.04670	0.55929
-0.82036	0.50828
-0.43783	0.07465
-0.36133	-0.20594
0.30171	0.27871
0.68424	0.45726
0.88825	0.22769
0.78624	0.17668
-0.66735	0.15117
-0.05531	0.15117
0.50573	-0.00188
0.22521	0.38074
0.37822	0.10015
0.02119	-0.25695
-0.23382	-0.00188
-0.10631	-0.41000
-0.00431	0.22769
0.02119	0.61031
0.32721	-0.15492
0.27621	-0.28246
-0.31033	0.17668
0.32721	0.86539
-0.10631	0.43176
0.60773	0.45726
0.48022	0.66132
0.27621	0.17668
0.27621	-0.33348
0.02119	-0.41000
0.07220	0.17668
0.17421	-0.00188
0.35272	-0.12942
0.04670	0.04914
0.07220	0.48277
0.07220	0.22769
0.07220	0.07465
0.17421	-0.05289
0.12320	0.02363
-0.05531	0.30422
-0.10631	0.25320
0.02119	0.27871
0.70974	0.07465
0.30171	0.10015
0.19971	0.30422
-0.66735	0.30422
0.04670	-0.12942
1.11776	0.04914
0.19971	0.04914
-0.23382	0.32972
0.35272	0.38074
0.60773	0.10015
-0.23382	0.04914
-0.00431	-0.20594
0.35272	0.12566
0.27621	0.30422
-0.18282	0.30422
-0.02981	0.02363
0.32721	-0.05289
0.40372	0.15117
0.14870	0.22769
0.40372	0.38074
0.12320	0.22769
-0.10631	0.73785
-0.13181	-0.41000
0.09770	-0.63957
0.09770	0.48277
0.19971	0.07465
0.30171	-0.18043
-0.02981	0.15117
0.42922	0.27871
0.37822	0.35523
0.30171	0.22769
-0.02981	0.50828
-0.46334	0.55929
-0.28482	0.45726
0.27621	-0.05289
0.53123	-0.25695
0.32721	-0.12942
-0.33583	-0.25695
0.53123	0.25320
0.53123	0.17668
0.50573	0.15117
-0.48884	0.20219
-0.00431	0.15117
0.53123	0.02363
0.60773	0.35523
-0.46334	-0.18043
-0.02981	0.55929
-0.61635	0.02363
0.65874	-0.51203
0.76074	-0.51203
0.22521	0.96742
-0.15732	0.40625
-0.10631	0.40625
0.19971	0.71234
0.09770	0.17668
0.14870	0.25320
0.12320	-0.00188
0.37822	0.27871
-0.02981	-0.18043
0.02119	-0.07840
0.42922	0.25320
0.40372	-0.00188
-0.48884	0.12566
0.55673	-0.41000
0.45472	0.30422
-0.51434	0.17668
0.37822	0.61031
0.22521	0.58480
0.17421	-0.15492
0.02119	-0.25695
-0.08081	-0.25695
0.53123	0.40625
0.25071	0.25320
-0.15732	0.73785
-0.13181	0.35523
0.25071	0.45726
0.19971	0.22769
0.22521	-0.20594
0.25071	-0.05289
0.17421	0.45726
0.09770	0.32972
-0.10631	-0.18043
0.02119	-0.84363
-0.13181	-0.15492
0.14870	0.35523
0.53123	0.83988
0.37822	0.55929
-0.28482	-0.18043
0.19971	-0.20594
0.93925	0.25320
-0.00431	0.66132
-0.15732	0.58480
-0.08081	0.20219
0.17421	0.12566
0.09770	0.48277
-0.02981	-0.18043
0.22521	-0.51203
0.25071	-0.33348
0.14870	0.27871
0.35272	0.20219
0.19971	0.30422
0.17421	0.15117
-0.05531	0.53379
-0.10631	0.30422
0.12320	-0.48652
0.12320	-0.48652
0.14870	-0.43551
0.32721	1.12046
-0.00431	0.45726
0.37822	0.45726
0.19971	0.38074
0.04670	0.15117
-0.02981	0.10015
0.22521	0.20219
0.45472	0.17668
0.86275	-0.10391
0.04670	-1.02219
-0.94787	-0.07840
0.42922	0.61031
0.42922	0.35523
-0.69285	0.32972
0.12320	0.04914
0.37822	-0.15492
1.47479	0.40625
0.14870	0.30422
-0.05531	-0.10391
0.09770	0.02363
-0.33583	0.15117
-0.20832	0.20219
0.04670	0.50828
0.07220	0.25320
0.19971	0.12566
0.30171	0.22769
0.09770	-0.10391
0.17421	0.27871
0.27621	0.35523
0.27621	-0.20594
-0.20832	-0.66508
-0.33583	-0.33348
0.30171	0.55929
0.27621	0.35523
0.70974	0.53379
0.09770	-0.02739
0.32721	0.45726
0.02119	0.12566
0.22521	0.55929
0.32721	0.35523
0.12320	-0.05289
-0.61635	0.15117
-0.20832	-0.00188
0.12320	-0.00188
0.02119	-0.07840
0.25071	0.02363
1.47479	0.38074
0.55673	1.09496
0.04670	-0.23145
-0.08081	-1.40480
-0.23382	-0.35899
-0.00431	0.40625
-0.33583	0.61031
0.19971	0.73785
0.37822	0.71234
-0.08081	0.15117
0.07220	0.22769
0.48022	0.43176
-0.08081	0.12566
0.09770	0.17668
0.40372	-0.12942
0.60773	-0.00188
0.37822	-0.12942
-0.13181	-0.07840
-0.10631	-0.05289
0.27621	0.32972
0.07220	-0.46102
0.09770	0.40625
0.22521	0.43176
0.32721	0.66132
-0.33583	0.50828
-0.31033	-0.07840
0.40372	0.22769
0.50573	0.25320
0.35272	-0.35899
0.25071	-0.56305
-0.23382	-0.23145
0.02119	0.15117
0.32721	0.71234
0.19971	0.73785
0.27621	0.25320
0.25071	0.53379
-0.05531	0.04914
0.22521	0.27871
0.09770	-0.35899
0.17421	-0.10391
-0.08081	0.02363
0.12320	0.45726
0.12320	0.38074
0.50573	0.32972
-0.10631	-0.15492
-0.18282	-0.30797
0.78624	0.25320
-0.13181	0.10015
0.19971	0.35523
-0.36133	0.15117
-0.69285	0.04914
0.63323	0.12566
1.19427	0.32972
-0.23382	0.30422
0.32721	0.17668
-0.08081	0.30422
0.55673	0.30422
0.12320	0.07465
0.07220	0.10015
0.19971	-0.05289
-0.48884	0.25320
0.17421	-0.12942
0.22521	-0.33348
