0.12320	0.20219
0.17421	0.15117
0.17421	0.07465
0.14870	0.04914
0.12320	0.15117
0.12320	0.20219
0.14870	0.12566
0.14870	0.22769
0.14870	0.27871
0.17421	0.15117
0.09770	0.07465
0.19971	0.10015
0.09770	0.15117
0.09770	0.10015
0.02119	0.12566
0.25071	0.22769
0.09770	0.25320
0.14870	0.20219
0.12320	0.12566
0.22521	-0.07840
0.09770	-0.05289
0.19971	0.15117
0.07220	0.07465
0.19971	0.22769
0.07220	0.15117
0.14870	0.25320
0.17421	0.15117
0.14870	0.35523
0.17421	0.25320
0.12320	0.22769
0.14870	-0.20594
0.12320	0.15117
0.09770	0.20219
0.17421	0.32972
0.04670	-0.00188
0.22521	0.17668
0.09770	0.02363
0.22521	0.15117
0.07220	0.12566
0.25071	0.22769
0.09770	0.32972
0.14870	0.22769
0.09770	0.22769
0.22521	-0.07840
0.09770	-0.02739
0.25071	0.04914
0.09770	0.07465
0.19971	0.12566
0.04670	0.15117
0.12320	0.17668
0.12320	0.15117
0.14870	0.17668
0.12320	0.10015
0.17421	0.20219
0.19971	0.32972
0.09770	0.45726
0.09770	0.22769
0.07220	0.10015
0.22521	-0.18043
0.07220	-0.07840
0.17421	0.07465
0.12320	0.15117
0.19971	0.15117
0.02119	0.04914
0.12320	0.22769
0.14870	0.12566
0.12320	0.25320
0.27621	0.07465
0.09770	0.38074
0.25071	0.45726
0.04670	0.43176
0.12320	-0.15492
0.04670	-0.23145
0.07220	-0.25695
0.14870	0.15117
0.19971	0.20219
0.12320	0.30422
0.12320	0.07465
0.09770	0.20219
0.14870	0.02363
0.17421	0.27871
0.17421	0.43176
0.14870	0.30422
0.12320	0.15117
0.17421	0.15117
0.17421	-0.05289
0.09770	-0.02739
0.12320	0.10015
0.14870	0.04914
0.04670	0.10015
0.22521	0.17668
0.12320	0.17668
0.12320	0.22769
0.09770	0.38074
0.22521	0.20219
0.09770	0.32972
0.19971	0.10015
0.07220	0.12566
0.12320	0.02363
0.17421	0.15117
0.12320	0.02363
0.12320	0.07465
0.12320	0.10015
0.09770	0.17668
0.07220	0.17668
0.25071	0.15117
0.12320	0.22769
0.14870	0.15117
0.12320	0.22769
0.17421	0.10015
0.07220	0.12566
0.07220	-0.00188
0.12320	0.17668
0.19971	0.02363
0.07220	0.20219
0.22521	0.20219
0.12320	0.15117
0.17421	0.22769
0.19971	0.07465
0.17421	0.22769
0.12320	0.12566
0.07220	0.35523
-0.00431	0.20219
0.14870	0.15117
0.22521	-0.00188
0.09770	0.17668
0.14870	-0.02739
0.14870	0.15117
0.17421	0.17668
0.22521	0.30422
0.02119	0.17668
0.19971	0.12566
0.07220	0.15117
0.22521	0.12566
0.07220	0.10015
0.27621	0.10015
0.12320	0.20219
0.17421	0.20219
0.04670	0.22769
0.22521	0.07465
0.09770	0.15117
0.14870	0.04914
0.14870	0.17668
0.09770	0.10015
0.17421	0.32972
0.17421	0.17668
0.17421	0.17668
0.14870	0.02363
0.14870	0.07465
0.04670	0.17668
0.19971	0.02363
0.12320	0.15117
0.12320	0.22769
0.12320	0.07465
0.12320	0.20219
0.14870	0.15117
0.22521	0.12566
0.07220	0.20219
0.22521	0.04914
0.07220	0.10015
0.12320	0.12566
0.17421	0.12566
0.09770	0.22769
0.17421	0.17668
0.09770	-0.00188
0.04670	0.17668
0.19971	0.07465
0.14870	0.10015
0.14870	0.25320
0.14870	0.10015
0.12320	0.15117
0.19971	0.17668
0.09770	0.20219
0.14870	0.15117
0.22521	0.27871
0.07220	0.12566
0.07220	0.17668
0.04670	0.12566
0.09770	0.12566
0.17421	0.17668
0.25071	0.12566
0.12320	0.20219
0.12320	0.22769
0.17421	0.07465
0.12320	0.04914
0.14870	0.20219
0.12320	0.12566
0.09770	0.17668
0.14870	0.10015
0.12320	0.02363
0.17421	0.25320
0.12320	0.15117
0.12320	0.25320
0.14870	0.04914
0.22521	0.22769
0.04670	0.17668
0.12320	0.17668
0.12320	0.27871
0.04670	0.12566
0.12320	0.17668
0.14870	0.04914
0.12320	0.12566
0.19971	0.07465
0.04670	0.22769
0.22521	0.15117
0.14870	0.20219
0.22521	0.12566
0.12320	0.04914
0.12320	-0.05289
0.12320	0.22769
0.12320	0.25320
0.12320	0.20219
0.12320	0.02363
0.17421	0.25320
0.17421	0.22769
0.17421	0.15117
0.07220	0.07465
0.25071	0.17668
0.09770	0.30422
0.19971	0.12566
0.14870	-0.05289
0.19971	-0.05289
0.02119	0.27871
0.12320	0.17668
0.12320	0.02363
0.12320	0.27871
0.19971	0.12566
0.19971	0.12566
0.14870	-0.00188
0.09770	0.22769
-0.02981	0.30422
0.12320	0.20219
0.22521	-0.18043
0.14870	0.02363
0.22521	0.48277
0.14870	0.40625
0.30171	-0.02739
0.12320	0.10015
-0.00431	0.20219
0.09770	-0.00188
0.07220	0.22769
0.27621	0.45726
0.14870	0.27871
0.25071	-0.66508
0.04670	-0.53754
0.17421	0.07465
0.17421	0.55929
-0.00431	0.25320
0.37822	0.61031
0.30171	0.45726
0.09770	0.30422
-0.00431	-0.10391
0.14870	0.10015
-0.00431	-0.10391
0.12320	0.43176
0.12320	0.30422
0.27621	0.45726
0.12320	0.25320
0.22521	-0.28246
0.07220	-0.00188
0.19971	0.15117
0.17421	-0.43551
0.02119	-1.20074
0.12320	0.55929
0.12320	0.83988
0.19971	1.04394
0.30171	0.35523
0.12320	1.14597
0.19971	1.22250
0.07220	-0.86914
0.07220	-1.76191
-0.10631	-0.18043
0.27621	0.99292
0.04670	0.76336
-0.02981	0.38074
0.07220	-0.07840
0.32721	-0.58856
0.22521	0.17668
0.35272	0.17668
0.09770	0.55929
-0.13181	0.17668
0.09770	0.12566
0.12320	-0.43551
0.17421	0.73785
0.35272	0.20219
0.17421	0.30422
0.35272	-0.99668
-0.20832	0.63582
0.14870	-0.05289
0.19971	0.27871
-0.00431	0.27871
0.19971	0.53379
-0.02981	-0.00188
0.40372	0.66132
0.07220	0.48277
0.32721	-0.02739
0.30171	-0.51203
0.30171	-0.07840
-0.20832	-0.92016
-0.48884	0.25320
0.19971	0.58480
0.37822	-0.56305
0.27621	1.04394
-0.00431	0.76336
0.25071	0.20219
0.42922	-0.00188
0.42922	0.63582
0.12320	0.40625
0.14870	0.45726
0.07220	-0.46102
0.14870	-1.43031
0.09770	-0.23145
-0.00431	0.10015
-0.15732	0.55929
0.53123	0.81437
0.25071	0.35523
0.12320	-0.20594
-0.28482	-0.12942
0.25071	0.32972
0.37822	1.01843
-0.23382	-0.30797
-0.05531	-1.32828
0.99026	0.12566
0.14870	0.71234
-0.00431	0.78886
0.22521	0.91640
-0.00431	0.35523
0.09770	-0.05289
0.30171	-0.15492
-0.23382	-0.48652
0.68424	-0.46102
-0.56534	0.20219
-0.51434	-0.10391
0.04670	0.99292
0.81175	0.55929
0.50573	0.96742
0.63323	0.10015
0.07220	-0.35899
-0.08081	0.15117
0.07220	0.73785
0.45472	-0.00188
0.60773	-0.92016
0.17421	0.04914
-0.51434	0.94191
-0.87136	-0.18043
-0.00431	0.66132
-0.08081	1.17148
0.40372	1.06945
0.40372	-2.11902
0.45472	-0.84363
0.53123	-0.23145
0.37822	0.48277
0.42922	0.25320
-0.48884	0.78886
0.09770	1.32453
0.04670	0.96742
0.02119	1.06945
0.35272	-0.18043
0.50573	-0.76711
0.70974	-0.25695
-0.25932	-0.35899
-0.13181	0.71234
-0.02981	0.07465
0.22521	-0.38449
-0.00431	0.10015
0.19971	0.43176
-0.00431	-0.23145
0.17421	0.15117
0.19971	0.55929
-0.15732	-0.00188
0.25071	0.55929
0.27621	0.04914
0.14870	0.38074
0.30171	0.53379
-0.00431	-0.56305
0.35272	-0.25695
0.07220	-0.07840
0.02119	-0.00188
0.83725	0.40625
-0.25932	-0.25695
-0.38683	0.76336
0.27621	0.68683
0.63323	0.73785
0.55673	1.42656
-0.10631	-0.07840
0.09770	-0.48652
-0.08081	-0.89465
-0.10631	0.20219
0.04670	0.27871
-0.18282	-0.05289
-0.15732	-0.18043
0.48022	0.48277
0.73524	0.27871
0.25071	-0.18043
0.25071	0.12566
0.35272	0.15117
-0.10631	0.12566
0.04670	-2.55265
0.19971	-0.35899
-0.10631	1.24800
0.14870	1.78367
0.12320	1.24800
0.07220	0.91640
0.04670	0.25320
0.14870	0.15117
0.09770	-0.28246
0.12320	-0.00188
-0.08081	-0.18043
0.32721	-0.12942
0.55673	-0.74160
0.12320	-0.33348
-0.64185	-1.40480
-0.69285	0.38074
0.68424	0.73785
1.04126	1.01843
0.30171	1.06945
0.07220	0.17668
0.40372	0.32972
-0.02981	-0.92016
0.32721	-1.32828
0.14870	1.60511
-0.05531	0.27871
-0.36133	-0.30797
0.09770	-0.00188
0.30171	0.68683
0.42922	0.66132
0.32721	0.86539
-0.05531	-0.12942
-0.23382	-0.05289
0.02119	0.45726
-0.10631	-0.00188
0.25071	-0.92016
0.22521	-0.15492
0.58223	0.25320
0.50573	0.55929
0.22521	-0.35899
0.37822	0.45726
-0.02981	1.19699
0.09770	0.68683
0.02119	0.48277
-0.00431	-1.50683
-0.05531	-0.43551
0.30171	-0.23145
0.19971	0.32972
0.09770	0.45726
-0.18282	1.32453
-0.28482	0.94191
0.48022	0.22769
0.35272	0.25320
0.32721	-1.81293
0.40372	-0.07840
0.45472	-1.04770
-0.15732	0.58480
-0.36133	1.19699
0.50573	0.63582
0.17421	-0.28246
0.09770	0.63582
0.42922	0.35523
0.04670	-0.25695
0.04670	0.02363
0.07220	0.71234
0.35272	-0.79262
0.14870	-0.48652
0.04670	-1.17523
-0.05531	1.06945
0.27621	0.02363
0.02119	0.35523
-0.82036	0.07465
0.53123	0.81437
1.80631	0.73785
0.55673	0.76336
-0.56534	-0.46102
-0.25932	1.45206
-0.38683	-0.86914
-0.33583	-1.07320
-0.23382	0.12566
0.55673	0.35523
1.04126	0.10015
-0.20832	1.47757
0.14870	0.86539
0.02119	-0.30797
0.14870	-2.32308
-0.13181	0.45726
0.02119	1.09496
0.63323	0.96742
0.48022	0.04914
0.32721	0.10015
0.14870	0.99292
0.07220	0.00000
-0.05531	0.00000
0.04670	0.00000
0.07220	0.00000
-0.05531	0.00000
0.22521	0.00000
-0.00431	0.00000
0.12320	0.00000
-0.25932	0.00000
0.40372	0.00000
-0.08081	0.00000
0.09770	0.00000
0.86275	-0.35899
0.42922	-0.99668
-0.33583	0.38074
-0.28482	-0.28246
0.12320	-0.25695
-0.23382	0.76336
-0.20832	0.40625
0.93925	0.15117
1.09226	0.17668
0.60773	0.43176
0.53123	0.38074
-0.08081	0.30422
-0.43783	-0.30797
-0.76936	-0.00188
-0.18282	-0.97117
0.32721	0.61031
0.40372	0.53379
0.45472	0.35523
0.45472	0.27871
0.14870	0.07465
-0.08081	0.17668
0.25071	1.14597
0.17421	-0.41000
-0.13181	-1.27726
-0.18282	0.12566
0.50573	0.68683
0.09770	0.43176
0.02119	-0.20594
0.25071	-0.05289
0.55673	1.06945
0.32721	0.61031
-0.33583	-0.56305
-0.66735	-1.68539
0.32721	0.73785
0.42922	1.65613
-0.02981	0.96742
0.19971	0.12566
0.19971	-0.61406
0.93925	-0.94566
0.65874	-0.05289
-0.87136	0.89089
-0.82036	0.17668
0.53123	0.20219
0.17421	-0.48652
0.22521	0.17668
0.14870	0.02363
0.40372	0.22769
0.12320	0.20219
-0.10631	-0.00188
-0.41233	-0.15492
0.65874	0.45726
1.60230	0.22769
0.30171	0.07465
-0.48884	-0.12942
-0.71835	0.25320
-0.10631	0.38074
-0.71835	0.25320
0.35272	0.02363
0.55673	0.12566
0.42922	0.94191
0.45472	-0.10391
0.63323	-0.79262
0.25071	0.66132
0.04670	1.09496
-0.00431	0.50828
0.09770	-0.35899
0.27621	0.20219
-0.02981	-0.12942
0.35272	0.38074
-0.23382	0.27871
0.04670	-0.38449
0.07220	-1.14973
0.30171	0.32972
0.07220	-0.25695
-0.20832	0.76336
0.27621	1.09496
0.53123	0.81437
0.40372	0.53379
-0.28482	-0.23145
1.11776	-0.53754
0.27621	-0.18043
-2.17195	0.35523
0.07220	0.04914
1.04126	-0.10391
1.11776	1.14597
-0.13181	0.10015
0.04670	-1.37929
0.40372	-1.76191
-0.23382	0.48277
0.17421	1.01843
-0.20832	0.76336
0.68424	0.78886
-0.84586	0.63582
-0.43783	0.22769
1.80631	0.12566
1.11776	0.45726
-0.76936	-0.05289
-0.48884	-0.25695
0.17421	0.04914
-0.56534	-0.15492
0.42922	-0.00188
-0.02981	0.48277
0.09770	-0.07840
0.25071	-0.63957
-0.10631	0.38074
0.12320	0.96742
0.04670	0.17668
1.32178	0.32972
0.12320	-0.18043
-0.20832	-0.56305
0.22521	0.61031
0.55673	1.73265
-0.02981	-0.02739
-0.51434	-0.56305
0.12320	0.35523
0.30171	0.25320
0.48022	1.12046
0.19971	-0.69059
-0.08081	-0.81812
0.09770	0.10015
0.02119	-1.37929
0.07220	0.43176
-0.18282	1.42656
0.50573	0.68683
0.14870	-0.53754
-0.08081	0.17668
0.37822	0.48277
0.99026	0.25320
-0.82036	0.22769
-0.76936	-0.10391
1.29628	0.07465
0.48022	0.07465
0.14870	-0.18043
-1.27939	0.20219
0.42922	0.17668
1.44929	0.35523
0.42922	-0.25695
-0.23382	-0.02739
-0.61635	-0.66508
-0.20832	0.40625
-0.13181	0.96742
-0.25932	-0.43551
0.86275	0.83988
0.53123	0.76336
0.27621	-0.18043
-0.08081	-0.30797
0.17421	0.17668
-0.02981	-1.32828
0.63323	-1.12422
0.37822	0.61031
-0.43783	1.35003
0.02119	0.86539
0.19971	1.47757
0.37822	0.50828
0.02119	-1.30277
-0.15732	0.40625
0.73524	0.02363
-0.15732	-0.30797
-0.00431	-0.71609
0.12320	-0.56305
0.48022	0.58480
0.22521	-0.12942
0.02119	1.01843
0.19971	0.12566
-0.53984	0.27871
-0.41233	-0.07840
1.42379	0.27871
0.63323	0.35523
-0.51434	0.25320
-0.08081	-0.12942
-0.10631	0.53379
-0.05531	0.12566
1.42379	0.15117
1.39828	0.04914
-0.25932	0.10015
-1.12638	0.43176
-0.71835	0.22769
0.14870	0.10015
0.09770	-0.46102
0.73524	0.25320
0.81175	0.45726
-0.18282	-0.05289
-0.46334	0.96742
-0.41233	0.61031
0.53123	0.02363
-0.05531	-0.02739
0.68424	0.15117
0.58223	-1.07320
0.81175	0.25320
-0.08081	-0.12942
0.14870	0.30422
0.07220	0.15117
0.40372	-0.48652
0.30171	1.17148
-0.66735	0.40625
-0.28482	-0.89465
0.22521	0.78886
0.12320	0.38074
-0.15732	0.04914
0.25071	-0.15492
0.04670	-0.25695
0.25071	1.04394
1.06676	-0.58856
0.17421	-1.32828
0.48022	-0.23145
-0.71835	1.09496
-0.28482	0.81437
0.76074	0.81437
1.24527	0.50828
0.32721	-0.18043
-0.48884	-0.00188
-0.33583	-0.43551
-0.23382	-0.02739
-0.20832	0.22769
-1.68742	-0.05289
0.60773	0.20219
1.70430	0.48277
0.93925	0.04914
0.45472	-0.00188
-0.38683	0.12566
-0.53984	-0.30797
0.35272	-0.18043
-0.25932	0.55929
0.04670	-0.02739
0.17421	-0.69059
0.35272	1.01843
0.32721	0.04914
0.22521	0.30422
0.14870	0.40625
0.04670	0.04914
0.09770	-0.92016
0.02119	0.07465
0.07220	0.43176
-0.02981	-0.23145
-0.02981	0.25320
0.25071	1.70714
0.27621	0.58480
0.30171	-0.30797
-0.31033	0.07465
-0.20832	0.76336
0.22521	-0.23145
0.30171	-0.92016
0.83725	-1.83844
0.22521	-0.25695
-0.15732	0.53379
1.34728	0.89089
0.60773	0.81437
-2.17195	0.48277
-1.12638	-0.15492
0.93925	-0.41000
0.14870	-0.15492
-0.00431	0.17668
0.73524	0.27871
0.32721	0.63582
0.83725	0.58480
0.96476	0.35523
0.45472	0.07465
0.22521	-0.43551
-0.56534	0.17668
-0.43783	0.32972
-0.46334	1.14597
0.19971	-0.58856
0.27621	-1.35379
0.02119	-0.18043
0.22521	0.35523
-0.08081	1.17148
0.60773	0.10015
0.70974	0.35523
0.32721	0.89089
0.35272	0.04914
-0.53984	-1.50683
-0.31033	-0.25695
0.02119	0.35523
0.40372	-0.61406
0.40372	0.50828
0.02119	0.81437
0.17421	0.81437
-0.05531	0.58480
-0.20832	0.17668
0.30171	0.10015
0.76074	1.37554
0.32721	-0.30797
-0.48884	-1.40480
-0.38683	-0.56305
0.30171	-0.18043
0.35272	0.22769
-0.08081	-0.63957
-0.43783	0.12566
1.14327	0.83988
2.06133	0.89089
-0.43783	1.06945
-0.79486	0.45726
-1.33039	-0.56305
-0.28482	0.04914
-0.43783	-0.25695
1.88281	-0.10391
1.14327	0.32972
-0.18282	1.27351
0.35272	-0.12942
0.09770	-0.92016
-0.97337	-0.23145
0.07220	0.43176
0.60773	0.40625
0.17421	0.30422
-0.23382	0.38074
-0.05531	0.12566
0.09770	0.68683
0.07220	0.22769
0.76074	-0.35899
0.17421	-0.33348
-0.71835	0.27871
0.53123	0.25320
0.50573	0.07465
-0.05531	-1.27726
0.14870	0.96742
0.07220	0.86539
0.07220	0.83988
0.09770	-0.33348
0.42922	-1.88945
0.48022	0.66132
0.12320	1.55410
-0.69285	1.12046
0.04670	0.91640
0.40372	0.81437
0.04670	0.12566
0.12320	-1.25176
0.73524	-1.14973
0.07220	-0.46102
-0.48884	0.15117
0.65874	0.30422
0.91375	0.53379
-0.08081	0.94191
-0.05531	0.83988
-0.74385	-0.05289
0.12320	-0.71609
-0.10631	-0.10391
0.40372	0.15117
1.75531	0.48277
0.83725	0.20219
-0.92237	0.04914
-1.50890	-0.10391
0.73524	0.02363
-0.53984	0.35523
0.37822	0.71234
0.14870	0.17668
0.45472	-0.74160
0.45472	0.04914
0.42922	0.27871
0.09770	0.27871
-0.28482	0.40625
0.83725	0.81437
0.37822	0.35523
-0.18282	0.63582
0.02119	-0.41000
0.22521	-1.07320
0.02119	-0.76711
-0.13181	0.04914
0.17421	1.35003
0.07220	1.17148
0.25071	0.38074
0.32721	-1.20074
-0.13181	-0.92016
-0.25932	0.45726
0.19971	0.83988
0.25071	0.81437
0.45472	0.61031
0.35272	1.19699
1.04126	-0.43551
0.22521	-0.89465
-0.89686	-1.53234
0.37822	0.53379
0.58223	0.99292
0.22521	0.32972
0.07220	-0.84363
-0.48884	-0.15492
-1.38139	0.43176
-0.18282	0.10015
1.67880	0.73785
0.09770	0.30422
0.45472	0.12566
-0.43783	-0.10391
2.01032	0.32972
1.52579	0.35523
-0.71835	0.02363
-1.35589	0.04914
-0.28482	-0.12942
-0.23382	0.48277
0.02119	-0.02739
0.76074	0.04914
-0.41233	-0.38449
-0.08081	0.10015
0.91375	1.06945
0.50573	-0.05289
0.35272	-0.66508
0.35272	0.58480
0.02119	-0.10391
-0.53984	-0.51203
0.76074	0.43176
0.70974	0.94191
-0.46334	0.86539
0.14870	1.06945
0.30171	0.04914
-0.08081	-1.09871
0.27621	-0.63957
-0.05531	-0.33348
-0.02981	1.24800
-0.23382	0.86539
0.19971	-0.61406
0.37822	-1.68539
0.12320	1.50308
0.42922	0.55929
0.17421	-0.53754
-1.61091	-0.94566
1.85731	0.99292
-0.41233	1.35003
0.12320	0.63582
0.78624	-0.28246
0.32721	-0.18043
0.25071	0.30422
-0.66735	0.38074
-0.69285	0.07465
0.32721	0.10015
0.14870	0.02363
-0.10631	0.35523
0.76074	0.61031
0.68424	-0.53754
-0.38683	-0.99668
0.25071	-0.07840
0.73524	0.50828
-0.25932	0.22769
0.09770	0.15117
-0.33583	1.04394
-0.31033	0.22769
-0.05531	-0.07840
0.91375	-0.61406
-0.05531	0.15117
0.02119	1.37554
0.17421	1.12046
0.27621	0.15117
-0.00431	-0.43551
-0.46334	-0.46102
0.68424	-0.05289
0.22521	-0.58856
-0.05531	0.45726
0.32721	1.06945
0.30171	0.91640
0.19971	0.25320
0.22521	-0.33348
0.07220	-0.18043
0.09770	0.71234
0.17421	-0.71609
-0.05531	-2.55265
0.42922	-0.10391
-0.97337	1.40105
0.40372	0.73785
0.42922	0.61031
0.09770	0.35523
-0.36133	0.61031
0.27621	0.63582
1.83181	0.63582
1.21977	-0.35899
-0.66735	-0.71609
-0.61635	-0.23145
-0.92237	-0.20594
-0.99887	-0.18043
0.78624	-0.05289
-0.08081	0.83988
-0.02981	0.58480
0.65874	0.43176
1.52579	0.35523
0.07220	0.25320
-0.69285	0.12566
-0.38683	-0.05289
-1.17738	-0.15492
0.93925	-0.05289
1.34728	-0.23145
0.53123	0.04914
-0.18282	0.27871
-0.38683	0.27871
-0.23382	0.40625
0.88825	0.55929
-0.20832	-0.53754
-0.08081	-0.30797
-0.10631	-0.25695
0.42922	-0.12942
0.04670	0.99292
0.17421	-0.12942
0.17421	0.20219
0.19971	-0.89465
0.50573	1.60511
0.04670	1.29902
-0.00431	0.55929
-0.05531	0.22769
0.14870	0.32972
0.37822	-0.23145
0.22521	-0.33348
0.42922	-0.58856
0.12320	-1.43031
-0.10631	-0.53754
0.58223	0.61031
-0.08081	0.35523
0.60773	-1.68539
-0.18282	0.76336
0.07220	1.63062
-0.00431	0.81437
0.35272	0.86539
-1.25389	0.35523
0.02119	0.22769
0.81175	-0.30797
-0.28482	-0.02739
-0.64185	-0.07840
0.40372	-0.00188
0.27621	-0.28246
0.40372	-0.25695
0.63323	0.10015
0.99026	0.20219
0.04670	0.25320
-1.10088	0.17668
0.76074	-0.05289
-0.02981	0.02363
1.11776	0.43176
-0.28482	0.58480
-0.59084	-0.20594
-0.28482	0.73785
0.42922	0.15117
0.25071	-0.18043
0.07220	0.30422
0.07220	1.75816
-0.00431	0.73785
0.09770	-2.29757
0.30171	-3.41992
0.42922	0.20219
0.09770	1.93671
0.27621	1.50308
0.14870	1.04394
0.12320	1.14597
0.12320	0.55929
0.30171	-0.71609
0.22521	-0.66508
0.04670	-0.23145
-0.33583	0.35523
0.45472	0.15117
-0.02981	0.55929
-0.08081	-0.28246
0.32721	0.02363
-0.10631	-0.51203
-0.46334	-0.02739
2.92838	0.99292
1.04126	0.02363
-1.53441	-0.12942
-1.25389	0.20219
0.58223	0.55929
0.91375	0.25320
-0.74385	0.04914
0.27621	0.25320
0.40372	0.22769
0.22521	0.04914
1.57679	0.30422
0.30171	0.02363
-0.46334	-0.30797
0.42922	-0.46102
-1.43240	-0.10391
-0.31033	0.15117
0.19971	0.66132
0.63323	0.63582
0.58223	-0.18043
0.27621	0.15117
0.12320	0.04914
0.19971	1.73265
0.19971	0.25320
0.30171	-2.29757
-0.00431	-1.81293
-0.23382	0.76336
0.53123	1.73265
0.07220	1.57960
0.04670	-0.38449
0.27621	-0.66508
-0.05531	0.15117
0.22521	0.76336
0.63323	0.78886
-0.05531	0.86539
0.14870	0.45726
-0.02981	-0.15492
0.58223	-0.35899
-0.08081	-0.00188
-0.28482	-0.25695
0.12320	-0.20594
0.53123	-0.20594
0.78624	-1.32828
0.45472	-0.20594
-1.27939	0.76336
-0.41233	1.22250
-0.28482	0.66132
0.25071	0.20219
0.78624	0.32972
0.12320	0.55929
2.03582	0.45726
0.96476	-0.05289
-0.36133	-0.18043
-0.48884	0.02363
0.07220	0.17668
-0.00431	0.17668
-0.28482	-0.33348
0.32721	0.04914
0.04670	0.12566
-0.28482	0.50828
0.14870	-0.20594
-0.00431	0.17668
0.17421	0.43176
0.55673	0.78886
0.55673	0.48277
-0.10631	-0.92016
-0.18282	-1.68539
0.63323	0.35523
0.37822	0.17668
-0.41233	0.12566
0.50573	1.50308
0.19971	0.94191
0.07220	0.89089
-0.18282	0.68683
0.53123	-0.30797
-0.18282	-0.00188
0.04670	-0.66508
0.50573	-0.20594
0.25071	-0.02739
-0.31033	-0.23145
0.02119	0.15117
0.32721	1.14597
0.19971	0.25320
-0.41233	-0.25695
0.65874	0.20219
-0.05531	0.10015
0.14870	0.86539
0.32721	-0.05289
-0.64185	-0.97117
1.09226	-0.15492
0.91375	0.50828
0.09770	0.27871
-0.20832	0.48277
-0.33583	0.22769
-0.66735	0.20219
0.55673	0.58480
0.78624	0.40625
-0.20832	-0.48652
0.58223	-0.46102
-0.48884	0.35523
0.30171	0.63582
0.63323	0.53379
0.73524	0.35523
-0.51434	-0.76711
-0.15732	-1.37929
-0.43783	1.27351
0.42922	0.45726
0.55673	0.20219
0.07220	0.58480
-0.08081	0.55929
-0.05531	-0.30797
0.58223	-1.63437
-0.02981	-0.28246
0.30171	0.27871
0.27621	0.86539
-0.05531	1.55410
-0.18282	0.55929
0.35272	-0.84363
0.53123	-0.99668
0.09770	0.55929
-0.41233	-0.33348
0.30171	0.38074
0.68424	0.38074
-0.31033	0.45726
0.42922	0.22769
-0.33583	0.76336
0.07220	0.27871
0.45472	-0.43551
0.25071	-0.28246
-0.18282	0.63582
-0.13181	-0.07840
0.19971	-0.43551
0.99026	-0.81812
0.25071	0.45726
0.53123	0.94191
-0.00431	0.07465
-0.10631	-0.02739
-0.08081	0.68683
0.22521	0.20219
0.22521	0.12566
-0.18282	0.17668
-0.33583	0.68683
-0.46334	0.20219
0.73524	-0.25695
0.48022	0.02363
-0.05531	0.50828
0.73524	-0.15492
-0.02981	-0.48652
0.48022	0.40625
-0.53984	-0.00188
0.37822	0.96742
0.17421	-0.30797
0.17421	-0.25695
0.07220	0.12566
0.65874	0.30422
0.86275	1.29902
0.12320	-0.00188
0.04670	0.15117
-0.25932	-0.71609
-0.08081	0.12566
-0.05531	-0.46102
0.32721	0.83988
-0.13181	0.66132
0.09770	1.09496
-0.10631	0.27871
-0.08081	-0.25695
0.53123	0.48277
1.09226	0.91640
-0.23382	-0.56305
0.48022	-2.29757
-0.36133	-1.09871
-0.08081	0.38074
0.40372	0.73785
0.78624	1.24800
-1.04987	0.35523
0.93925	0.45726
0.50573	-0.46102
-0.82036	0.53379
0.12320	0.94191
0.37822	0.43176
0.27621	-0.15492
-0.82036	0.10015
1.14327	0.40625
0.50573	-0.10391
0.30171	-0.18043
0.68424	-0.07840
0.45472	0.02363
-0.08081	-0.07840
-1.12638	0.45726
-0.79486	0.83988
-0.08081	-0.25695
1.65330	0.22769
0.07220	-0.25695
0.02119	-1.07320
0.02119	0.50828
-0.69285	0.73785
0.70974	0.78886
0.04670	0.81437
0.30171	-0.10391
-0.08081	-0.92016
0.53123	-0.58856
0.17421	0.38074
0.19971	0.15117
0.17421	0.76336
0.12320	0.83988
0.07220	0.78886
0.17421	0.99292
-0.28482	-0.07840
0.42922	-1.25176
0.27621	-0.97117
0.37822	0.12566
0.19971	0.43176
0.37822	-0.07840
-0.56534	0.07465
0.73524	0.53379
-0.23382	0.15117
0.12320	-0.00188
-0.59084	0.94191
0.45472	0.43176
-0.05531	0.66132
0.88825	0.10015
0.73524	-0.38449
-0.00431	0.12566
-0.61635	0.30422
0.12320	0.20219
1.27078	-0.28246
0.09770	-0.25695
-0.74385	0.25320
0.58223	0.43176
-0.02981	0.27871
-1.22839	-0.07840
0.32721	0.12566
1.06676	0.15117
0.45472	0.25320
-0.10631	0.35523
0.27621	0.22769
0.53123	-0.00188
-0.76936	-0.00188
0.27621	0.22769
-0.02981	0.32972
-0.38683	0.45726
0.27621	-0.51203
0.65874	1.04394
0.17421	-0.43551
0.35272	-0.81812
0.48022	0.66132
0.35272	1.01843
0.02119	0.43176
-0.20832	0.63582
0.17421	-0.89465
0.17421	-0.46102
0.07220	0.61031
0.25071	0.83988
0.14870	0.10015
0.19971	-0.86914
-0.23382	-0.86914
0.40372	0.58480
-0.38683	0.78886
0.73524	-0.05289
0.19971	-0.00188
-0.13181	0.43176
-0.51434	0.30422
0.58223	0.43176
1.29628	0.32972
-0.00431	0.17668
0.25071	0.10015
0.07220	-0.07840
0.09770	-0.30797
-0.89686	-0.10391
0.76074	0.27871
-0.25932	0.20219
-0.05531	0.07465
-0.15732	0.50828
0.78624	0.40625
-0.13181	-0.43551
1.06676	-0.07840
0.40372	0.15117
0.04670	0.38074
0.45472	0.53379
-0.82036	0.30422
-0.08081	0.25320
0.63323	0.81437
-0.02981	0.63582
0.17421	-0.79262
0.55673	-1.81293
-0.61635	-0.23145
-0.13181	0.17668
0.50573	0.45726
0.37822	1.04394
0.19971	0.94191
0.35272	0.50828
0.22521	1.12046
0.35272	1.63062
0.32721	-1.07320
0.07220	-2.29757
0.14870	-1.58336
-0.08081	0.83988
0.02119	0.99292
0.12320	0.30422
0.12320	0.55929
0.22521	0.40625
0.19971	0.25320
0.17421	0.76336
0.30171	0.27871
0.14870	-0.63957
-0.02981	-1.07320
-0.20832	-0.30797
1.16877	0.07465
1.14327	0.68683
-2.01894	0.48277
-1.38139	0.61031
0.45472	0.04914
2.39285	0.17668
0.91375	0.15117
-0.66735	0.15117
-0.15732	0.04914
0.07220	0.22769
0.78624	0.04914
0.53123	0.07465
-0.18282	0.48277
-0.23382	-0.10391
-0.20832	-0.02739
0.14870	0.32972
-0.48884	0.63582
-0.15732	0.17668
0.40372	-0.20594
0.42922	-0.63957
0.50573	0.53379
-0.10631	0.91640
0.14870	-0.79262
0.27621	-1.45582
0.40372	0.89089
0.22521	-0.46102
0.07220	0.45726
0.07220	1.68163
0.17421	0.94191
0.09770	-0.56305
0.19971	-0.15492
-0.25932	0.45726
-0.05531	2.11527
0.48022	-0.30797
0.42922	-1.53234
0.25071	-0.51203
-0.08081	-0.00188
-1.10088	0.20219
0.27621	0.25320
0.91375	0.15117
0.12320	0.04914
-0.31033	0.55929
-0.15732	0.07465
1.90832	0.38074
0.99026	0.43176
-0.84586	-0.05289
-0.82036	-0.12942
-0.13181	0.07465
0.55673	0.38074
0.09770	0.12566
0.12320	0.02363
0.19971	0.17668
0.35272	0.35523
-0.15732	0.15117
-0.08081	0.20219
2.21434	-0.07840
-0.02981	0.43176
0.14870	0.48277
-1.48340	-0.28246
-0.69285	-0.66508
0.48022	0.78886
0.12320	-0.05289
-0.08081	0.40625
0.63323	0.02363
0.22521	-0.02739
0.45472	0.45726
0.27621	-0.30797
0.22521	0.78886
0.09770	-0.35899
0.04670	-0.51203
0.07220	0.10015
0.14870	0.53379
0.07220	1.35003
-0.02981	0.63582
0.19971	0.25320
0.07220	0.04914
0.02119	-0.10391
0.25071	-0.10391
0.30171	-0.94566
-0.05531	0.20219
0.14870	0.96742
0.63323	0.94191
-0.15732	-0.74160
-0.08081	-1.07320
0.70974	0.40625
0.50573	0.32972
-0.23382	0.63582
-1.07538	0.53379
0.48022	-0.18043
0.07220	-0.58856
0.76074	0.17668
0.14870	0.30422
0.86275	0.25320
0.93925	0.32972
0.12320	0.32972
-0.76936	0.48277
-0.36133	0.73785
-0.38683	-0.00188
-0.13181	-0.66508
-0.02981	-0.69059
0.27621	0.38074
0.35272	0.81437
-0.23382	-0.00188
0.93925	-0.10391
0.22521	0.27871
0.27621	0.32972
0.07220	0.66132
0.14870	0.38074
0.12320	0.38074
-0.00431	-0.18043
0.19971	-0.48652
0.50573	-0.02739
0.22521	-1.07320
-0.64185	-0.02739
-0.48884	1.17148
0.68424	0.45726
0.60773	-0.28246
0.07220	0.07465
0.09770	1.12046
0.30171	0.96742
0.40372	0.02363
-0.28482	-0.30797
0.14870	-0.00188
0.73524	-0.12942
0.42922	0.48277
0.12320	-0.15492
-1.27939	-0.30797
-0.33583	0.22769
1.06676	0.35523
0.73524	0.27871
-1.04987	0.12566
0.70974	0.07465
0.45472	-0.33348
0.12320	0.63582
-0.36133	0.35523
0.73524	-0.10391
0.02119	-0.71609
0.22521	-0.00188
0.73524	0.17668
-0.13181	0.35523
-0.15732	0.83988
-0.94787	0.30422
1.24527	0.55929
0.58223	-0.12942
-0.23382	0.04914
-0.28482	0.66132
0.19971	0.20219
0.73524	-0.53754
0.02119	-0.05289
0.22521	-0.00188
-0.08081	-0.30797
-0.61635	0.66132
-0.05531	0.61031
0.37822	0.35523
0.35272	-0.23145
0.42922	-0.89465
0.32721	-0.97117
0.17421	0.22769
0.09770	1.45206
0.19971	0.91640
0.17421	0.22769
0.14870	-0.07840
0.45472	-0.00188
0.09770	0.53379
0.30171	0.32972
-0.20832	-1.73640
0.07220	0.48277
0.27621	0.22769
-1.12638	0.30422
-0.08081	0.63582
1.80631	0.73785
1.06676	0.43176
-1.17738	-0.66508
0.35272	-0.48652
0.55673	-0.20594
-0.20832	0.55929
-0.99887	0.45726
-0.08081	0.17668
1.70430	-0.15492
0.50573	0.40625
-0.43783	0.10015
0.88825	-0.00188
1.11776	-0.07840
-1.07538	0.45726
-0.87136	0.32972
0.12320	-0.23145
0.68424	0.07465
-0.25932	0.38074
-0.31033	0.45726
0.60773	0.50828
0.93925	0.48277
0.93925	-0.48652
0.17421	-1.53234
-0.13181	1.04394
-0.20832	0.30422
0.25071	-0.23145
0.37822	0.61031
-0.48884	0.55929
-0.10631	0.12566
0.02119	0.22769
0.30171	-0.15492
0.07220	-0.15492
0.14870	0.27871
0.17421	0.17668
-0.00431	0.43176
0.35272	1.35003
0.32721	-0.25695
0.40372	-0.76711
0.22521	0.89089
0.02119	0.61031
-0.05531	-0.20594
0.09770	-0.15492
0.27621	-0.15492
0.02119	-0.25695
-0.10631	0.04914
0.12320	0.83988
0.30171	0.02363
1.01576	-0.15492
-0.25932	0.04914
-0.69285	-0.35899
-1.10088	0.27871
0.68424	0.12566
1.29628	0.12566
0.53123	0.40625
0.12320	0.17668
0.35272	0.27871
0.99026	0.02363
0.45472	0.48277
0.14870	0.81437
-0.64185	0.07465
-0.61635	-0.43551
-1.15188	-0.28246
1.34728	0.53379
0.12320	0.25320
-0.28482	0.63582
0.22521	0.17668
0.27621	0.25320
0.09770	-0.28246
0.30171	0.20219
0.50573	0.20219
-0.00431	-0.84363
0.12320	0.15117
-0.31033	0.48277
0.04670	0.40625
0.58223	0.89089
0.42922	-0.10391
0.12320	-1.50683
0.14870	1.01843
-0.23382	-0.15492
-0.13181	-0.23145
-0.02981	1.09496
0.22521	0.20219
0.14870	0.07465
0.35272	0.50828
0.37822	0.45726
0.55673	0.25320
-0.41233	-0.02739
-0.10631	-0.07840
-0.18282	1.17148
1.19427	-0.86914
0.27621	-2.93527
0.12320	0.32972
-0.15732	1.17148
-1.07538	0.91640
-0.33583	1.06945
-0.43783	0.45726
1.42379	0.04914
1.19427	-0.15492
-0.13181	0.10015
-0.15732	0.04914
-0.10631	-0.18043
0.53123	0.43176
0.02119	0.02363
0.17421	0.07465
-0.23382	0.25320
0.35272	0.48277
-0.61635	-0.61406
-0.51434	-1.02219
1.44929	0.30422
0.68424	0.81437
0.02119	0.15117
-0.20832	0.15117
0.17421	0.66132
0.02119	0.76336
0.04670	0.17668
0.32721	0.12566
0.32721	0.20219
0.04670	-0.12942
-0.46334	0.22769
0.27621	0.96742
0.32721	0.48277
0.48022	-0.25695
-0.05531	-1.25176
0.22521	-0.89465
-0.05531	-0.05289
0.04670	-0.18043
0.12320	-0.07840
0.48022	1.35003
0.07220	1.04394
0.04670	0.61031
0.45472	-0.25695
0.19971	0.45726
-0.33583	0.12566
-0.28482	-0.25695
-0.51434	0.02363
1.09226	0.43176
0.83725	0.27871
0.42922	-0.05289
-0.69285	0.12566
-0.79486	-0.35899
-0.13181	-0.02739
1.37278	0.58480
0.12320	-0.43551
0.45472	0.48277
0.96476	0.48277
0.25071	-0.38449
-1.55991	-0.05289
-0.51434	0.10015
0.76074	0.50828
0.93925	0.50828
0.37822	0.12566
-0.08081	0.68683
-0.10631	0.63582
0.09770	-0.33348
-0.46334	-0.05289
0.45472	-0.46102
0.04670	-0.23145
0.27621	0.32972
-0.00431	0.48277
0.27621	0.61031
0.07220	0.78886
0.27621	-0.30797
0.37822	-1.27726
0.12320	0.20219
0.35272	0.66132
0.58223	0.58480
0.02119	-0.41000
-0.20832	0.81437
0.09770	0.45726
0.22521	0.12566
0.09770	-0.58856
-0.25932	0.40625
0.19971	-0.18043
0.12320	0.02363
0.30171	0.30422
0.17421	0.48277
0.35272	0.50828
0.40372	-0.51203
0.53123	0.04914
-1.55991	0.43176
-0.02981	-0.02739
0.83725	-0.12942
0.53123	0.35523
1.75531	0.12566
-1.22839	-0.05289
-1.58541	-0.12942
0.99026	0.27871
0.83725	0.63582
0.81175	0.25320
-0.10631	-0.00188
-0.28482	0.17668
-0.28482	0.04914
0.48022	0.25320
0.50573	0.38074
1.09226	0.17668
-0.13181	0.53379
-1.30489	0.35523
0.02119	0.12566
0.14870	-0.00188
0.30171	-0.07840
0.22521	0.20219
0.09770	-0.86914
-0.00431	-2.14453
0.14870	0.20219
0.22521	1.06945
0.42922	1.60511
0.40372	1.47757
0.19971	2.29382
0.09770	-0.69059
0.02119	-2.45062
0.09770	-0.53754
-0.02981	0.35523
0.07220	0.27871
0.14870	0.89089
0.07220	0.78886
-0.00431	-0.15492
0.09770	0.15117
-0.92237	0.94191
0.73524	-0.20594
1.01576	-0.12942
0.22521	0.04914
-0.02981	0.43176
-0.53984	-0.51203
0.40372	-0.81812
0.30171	0.15117
0.02119	0.76336
0.40372	0.27871
0.83725	-0.63957
-0.89686	0.25320
-1.10088	0.50828
0.45472	0.66132
0.70974	0.10015
0.96476	0.27871
0.25071	-0.05289
0.53123	0.38074
-0.48884	0.12566
0.12320	0.12566
0.63323	0.30422
0.07220	0.27871
0.07220	0.22769
-0.66735	-0.02739
-0.33583	-0.25695
0.73524	0.38074
0.30171	-0.00188
-0.08081	-0.84363
0.32721	0.17668
-0.13181	0.38074
0.12320	0.76336
0.14870	0.76336
-0.00431	0.15117
0.17421	-0.99668
0.22521	0.04914
0.48022	0.12566
0.32721	1.04394
0.22521	0.43176
0.27621	-0.48652
0.40372	-0.12942
-0.02981	0.25320
-0.18282	0.55929
-0.02981	-0.61406
-0.28482	-0.69059
0.07220	0.66132
0.63323	0.86539
0.60773	0.43176
0.53123	0.20219
0.30171	0.12566
-0.87136	0.22769
1.01576	-0.05289
1.01576	-0.35899
-0.41233	-0.20594
-0.89686	0.17668
1.06676	0.43176
-0.13181	0.22769
-0.48884	0.04914
-0.71835	-0.12942
0.12320	0.25320
0.53123	0.32972
1.27078	0.17668
0.04670	0.12566
-0.51434	0.15117
-0.23382	0.20219
0.22521	0.17668
0.30171	1.14597
0.91375	0.73785
0.30171	-0.15492
-0.18282	-1.07320
-0.41233	-0.18043
1.06676	0.22769
0.30171	0.48277
-0.56534	0.68683
0.27621	0.50828
0.37822	0.73785
0.70974	-0.56305
-0.36133	0.12566
-0.00431	0.40625
-0.08081	0.53379
0.68424	-0.18043
0.78624	-0.35899
-0.48884	-0.05289
-0.89686	-1.17523
-0.02981	-0.28246
0.22521	0.76336
-0.08081	0.86539
0.04670	0.83988
1.27078	0.76336
0.96476	0.17668
-0.02981	0.25320
-1.10088	-0.28246
-0.13181	0.22769
0.83725	-1.12422
0.19971	-0.69059
-0.23382	-0.41000
1.01576	0.66132
0.48022	1.12046
-0.15732	0.91640
-0.43783	0.04914
0.04670	0.43176
0.12320	-0.41000
0.60773	0.02363
0.88825	0.32972
-0.33583	0.40625
-1.40690	0.12566
1.37278	0.04914
1.24527	-0.02739
-0.66735	-0.00188
-1.07538	0.20219
-0.48884	-0.07840
-0.46334	0.04914
1.67880	-0.00188
0.12320	-0.10391
-0.20832	0.61031
0.09770	0.48277
0.40372	-0.00188
0.53123	0.45726
-0.46334	-0.25695
0.53123	-0.33348
0.83725	-0.25695
-0.43783	1.12046
-0.61635	0.78886
0.55673	-0.25695
0.27621	-0.51203
0.45472	0.66132
0.42922	1.04394
0.53123	0.40625
-0.18282	-0.25695
-0.61635	0.04914
0.09770	-0.66508
0.17421	-1.50683
-0.10631	0.50828
-0.20832	0.86539
0.55673	0.58480
0.60773	-0.05289
0.48022	0.45726
-1.10088	1.37554
0.48022	-0.25695
1.44929	-1.78742
0.40372	0.04914
-0.69285	0.61031
-0.38683	0.27871
0.37822	0.66132
-0.23382	0.22769
0.32721	0.43176
1.24527	-0.00188
0.60773	-0.02739
-0.08081	0.20219
-0.08081	0.15117
-0.64185	0.10015
-0.56534	0.20219
1.21977	0.02363
0.83725	0.25320
-0.05531	-0.00188
-0.00431	0.12566
-0.15732	0.48277
0.14870	0.07465
0.48022	-0.53754
0.35272	-0.00188
0.07220	-0.02739
0.17421	0.53379
-0.43783	0.91640
-0.28482	0.53379
0.63323	2.31933
-0.08081	-0.28246
0.45472	-3.31788
-0.05531	-1.20074
0.02119	1.24800
0.50573	1.24800
0.12320	0.68683
0.25071	0.73785
0.42922	0.02363
0.12320	-0.02739
0.09770	-0.20594
-0.05531	0.86539
0.99026	-0.18043
-0.61635	-1.32828
-1.50890	0.32972
-0.41233	0.73785
0.22521	0.50828
0.25071	0.22769
1.14327	0.25320
1.98482	0.20219
0.42922	0.20219
-0.38683	0.07465
0.42922	0.63582
0.65874	0.12566
-0.74385	-0.74160
-2.29945	-0.79262
-0.33583	-0.18043
0.32721	0.96742
0.53123	0.27871
0.58223	0.10015
0.78624	0.25320
0.17421	0.10015
0.60773	0.32972
0.25071	0.35523
0.27621	0.40625
0.07220	0.38074
-0.00431	0.12566
0.02119	0.15117
-0.02981	0.12566
0.04670	0.22769
0.02119	-0.43551
0.27621	0.86539
0.14870	-1.17523
0.04670	-1.68539
0.27621	-0.15492
0.27621	0.89089
0.25071	1.14597
0.37822	1.45206
0.02119	0.81437
-0.10631	0.04914
-0.00431	0.61031
0.19971	-1.02219
-0.28482	-1.50683
0.42922	0.32972
1.44929	0.78886
0.40372	0.55929
-0.92237	-0.51203
-1.15188	0.43176
0.30171	0.61031
-0.46334	0.22769
-0.43783	0.02363
1.85731	0.38074
1.34728	0.07465
0.22521	0.15117
0.04670	-0.20594
-0.48884	-0.05289
0.35272	0.17668
0.83725	-0.00188
0.27621	-0.07840
-0.79486	0.22769
-0.56534	0.38074
-0.20832	0.27871
-0.31033	0.17668
-0.05531	0.22769
0.45472	0.12566
0.42922	0.35523
0.07220	0.35523
0.63323	0.61031
0.73524	-0.12942
0.63323	0.32972
0.48022	-0.12942
-0.00431	-0.12942
-0.71835	0.35523
0.37822	0.25320
0.09770	-1.12422
0.40372	-0.53754
0.02119	-0.66508
-0.10631	0.73785
0.12320	0.91640
0.12320	1.01843
0.25071	0.66132
0.22521	0.61031
-0.08081	0.22769
-0.08081	0.40625
-0.18282	-0.25695
0.60773	-1.07320
0.02119	-0.15492
0.53123	0.48277
-0.36133	0.02363
-0.28482	-0.48652
1.16877	0.68683
0.50573	0.38074
0.50573	0.02363
0.37822	-0.20594
-0.18282	0.45726
-1.15188	0.48277
-0.08081	-0.12942
0.53123	0.20219
0.37822	0.48277
0.27621	0.32972
0.12320	0.68683
-0.00431	-0.25695
0.22521	-0.79262
0.14870	0.17668
0.12320	0.66132
0.14870	0.25320
0.55673	-0.10391
0.32721	0.17668
0.07220	0.40625
0.12320	0.15117
0.07220	0.25320
-0.31033	0.22769
0.53123	-0.02739
-0.00431	0.07465
0.02119	-0.10391
0.25071	-0.28246
-0.38683	0.27871
0.25071	1.01843
0.32721	1.06945
0.19971	-1.53234
0.19971	-1.68539
0.32721	0.50828
0.32721	1.14597
-0.08081	0.78886
0.17421	0.10015
0.12320	0.76336
-0.00431	0.30422
0.22521	0.38074
-0.08081	0.58480
0.37822	0.76336
0.17421	-0.46102
0.04670	-0.41000
0.14870	-1.37929
-0.15732	0.10015
0.81175	1.09496
0.65874	0.43176
-0.94787	-0.38449
-1.02437	0.38074
0.58223	0.43176
1.57679	0.38074
-0.18282	0.22769
-0.23382	0.15117
-0.38683	0.45726
0.02119	-0.25695
0.17421	-0.18043
0.68424	0.02363
-0.31033	0.27871
0.32721	0.71234
1.24527	-0.10391
0.40372	-0.28246
-0.38683	-0.15492
-0.51434	0.35523
0.48022	0.40625
0.50573	0.30422
-0.36133	0.20219
-0.33583	0.38074
0.14870	0.27871
0.48022	0.27871
0.27621	-0.15492
-0.10631	-0.05289
0.19971	0.76336
0.14870	0.32972
0.02119	0.04914
-0.48884	-0.56305
0.32721	-0.05289
0.40372	-0.18043
0.68424	-0.63957
0.58223	-0.33348
0.09770	0.55929
-0.00431	1.40105
-0.51434	0.89089
0.09770	0.73785
0.19971	-0.43551
0.35272	-0.12942
0.04670	0.32972
0.42922	0.22769
0.40372	0.04914
0.19971	-0.58856
-0.20832	0.50828
-0.18282	0.04914
0.02119	-0.30797
0.07220	-0.23145
-0.08081	0.50828
0.53123	0.45726
0.14870	-0.10391
-0.89686	-0.10391
0.60773	0.35523
0.68424	0.04914
0.19971	0.10015
0.48022	0.25320
-0.18282	0.10015
0.86275	-0.12942
0.09770	0.27871
0.09770	0.55929
-0.41233	0.22769
0.02119	0.30422
-1.43240	0.07465
0.07220	0.15117
0.45472	-0.12942
0.63323	0.04914
0.58223	0.15117
0.48022	0.20219
0.30171	0.25320
0.17421	0.27871
-0.18282	-0.12942
0.27621	-0.18043
0.12320	-0.15492
0.14870	0.32972
-0.28482	0.53379
0.09770	0.27871
0.42922	-0.41000
0.02119	0.86539
0.07220	-0.05289
0.04670	0.35523
0.19971	0.94191
0.04670	-1.94047
0.32721	-0.66508
0.22521	0.68683
0.22521	0.83988
-0.00431	1.12046
0.32721	0.91640
0.32721	0.58480
0.19971	-0.05289
-0.05531	-0.28246
-0.97337	-0.18043
0.12320	0.12566
0.42922	-0.23145
0.22521	-0.46102
0.68424	-0.25695
0.76074	-0.20594
-0.02981	0.07465
0.63323	0.27871
-0.53984	0.20219
-0.89686	0.10015
0.09770	0.04914
0.37822	0.38074
0.86275	0.48277
-0.02981	0.76336
0.14870	0.30422
-0.33583	0.32972
1.19427	0.32972
-0.02981	0.17668
-0.59084	-0.43551
-0.59084	-0.38449
-0.05531	-0.56305
0.27621	1.04394
0.42922	0.15117
0.93925	-0.53754
0.91375	0.02363
-0.28482	0.38074
0.12320	0.40625
0.14870	0.66132
-0.31033	0.02363
-0.18282	0.12566
0.76074	0.66132
0.09770	0.17668
-0.33583	-0.76711
0.19971	-0.79262
-0.02981	0.27871
0.42922	0.30422
-0.28482	0.35523
-0.61635	0.61031
0.40372	0.22769
0.70974	-0.46102
0.22521	0.04914
0.30171	1.22250
0.60773	0.17668
0.22521	-0.35899
-0.20832	0.27871
-0.53984	0.66132
-0.10631	-0.63957
1.21977	0.04914
0.40372	0.12566
-0.28482	-0.12942
-0.33583	-0.10391
0.02119	0.48277
0.07220	0.35523
0.27621	0.40625
0.68424	0.30422
0.60773	-0.25695
-0.31033	-0.48652
0.02119	0.35523
0.09770	0.53379
0.22521	0.25320
-0.05531	-0.23145
0.02119	0.22769
-0.36133	0.63582
-0.18282	0.35523
0.50573	-0.30797
0.35272	-0.23145
0.53123	0.55929
0.09770	0.04914
0.25071	0.15117
0.60773	0.55929
0.45472	0.35523
-0.05531	0.30422
-0.99887	-0.58856
-0.28482	0.35523
0.04670	-0.00188
0.53123	-0.15492
0.86275	-0.51203
0.07220	-0.20594
-0.13181	-0.02739
0.09770	0.73785
0.32721	1.01843
0.19971	0.71234
-0.23382	0.66132
0.73524	0.68683
-0.08081	-0.07840
0.17421	-0.69059
-0.25932	-0.00188
0.19971	0.78886
0.50573	-0.07840
-0.23382	-0.74160
0.25071	-0.05289
0.37822	0.32972
-0.05531	0.30422
-0.08081	0.17668
0.86275	0.76336
-0.28482	-0.05289
0.09770	-0.35899
0.40372	-0.25695
-0.56534	-0.05289
-0.20832	0.15117
1.32178	0.58480
0.19971	0.58480
-0.66735	0.38074
0.48022	0.45726
-0.23382	-0.02739
0.50573	0.50828
0.78624	0.04914
0.42922	-0.33348
-0.20832	-0.15492
-0.25932	-0.69059
-0.92237	-0.02739
0.37822	0.86539
0.63323	0.10015
-0.00431	0.12566
0.65874	-0.10391
-0.53984	1.06945
-0.13181	0.91640
-0.13181	-0.76711
0.50573	-1.30277
0.73524	-0.07840
-0.02981	0.66132
0.14870	1.24800
0.02119	0.04914
-0.02981	-0.15492
0.27621	0.30422
0.07220	0.43176
0.09770	0.22769
0.09770	-0.86914
0.07220	-0.69059
0.12320	0.55929
0.68424	0.63582
0.58223	0.66132
-0.18282	0.22769
-0.76936	0.15117
-0.08081	0.02363
0.27621	-0.07840
0.83725	0.35523
-0.41233	-0.05289
1.16877	0.02363
0.07220	-0.25695
0.14870	-0.07840
0.07220	0.58480
0.09770	0.38074
0.37822	0.73785
0.12320	0.58480
-1.20288	-0.35899
-0.00431	0.07465
0.02119	0.35523
0.78624	0.25320
2.16333	-0.30797
-0.25932	-0.00188
-0.02981	0.12566
-0.87136	0.73785
-0.38683	0.71234
-0.59084	-0.10391
1.01576	-0.63957
0.22521	-0.05289
0.22521	-0.25695
0.22521	1.01843
0.70974	0.91640
1.37278	0.30422
0.04670	0.02363
-0.41233	0.07465
-0.36133	0.32972
-0.02981	0.40625
-0.23382	-1.09871
0.09770	-0.48652
0.07220	0.17668
0.25071	0.53379
0.27621	0.17668
0.22521	0.38074
0.12320	0.38074
0.30171	1.01843
0.27621	0.96742
0.17421	-1.02219
0.37822	-0.81812
-0.02981	0.61031
0.27621	-0.00188
-0.00431	-0.56305
0.19971	0.53379
0.17421	0.32972
0.17421	0.53379
0.07220	0.43176
0.19971	0.32972
0.02119	-0.12942
0.68424	-0.07840
-0.10631	-0.05289
-1.20288	0.10015
0.50573	0.15117
0.42922	0.12566
0.30171	-0.02739
-0.51434	0.22769
0.53123	0.32972
-0.15732	0.17668
0.83725	0.04914
1.52579	0.40625
-0.15732	-0.10391
0.02119	-0.43551
-0.13181	0.32972
-0.89686	0.40625
0.73524	0.25320
0.09770	-0.12942
-0.71835	0.32972
0.45472	0.20219
-0.23382	0.17668
0.32721	0.81437
0.30171	0.27871
0.40372	-0.48652
0.37822	-0.48652
0.30171	0.73785
0.27621	-0.12942
0.30171	0.07465
0.17421	0.10015
0.04670	-0.63957
0.17421	0.07465
0.09770	0.89089
-0.08081	-0.10391
-0.00431	0.25320
0.07220	0.55929
0.22521	1.24800
0.02119	0.15117
0.19971	-0.28246
0.19971	-0.02739
0.14870	-0.71609
0.14870	0.15117
-0.61635	-0.07840
0.25071	0.45726
0.09770	0.68683
0.12320	-0.23145
0.35272	-1.55785
0.55673	0.17668
0.12320	0.63582
0.02119	0.66132
-0.51434	0.22769
-0.00431	0.27871
-0.46334	0.30422
2.54586	0.20219
1.42379	0.20219
-0.43783	0.04914
-0.74385	0.10015
-0.53984	0.04914
-0.05531	0.25320
-0.66735	-0.10391
-0.31033	0.07465
0.53123	0.15117
0.27621	0.30422
0.09770	0.40625
0.30171	0.04914
0.73524	-0.00188
0.58223	-0.05289
-0.02981	0.53379
-0.13181	-0.02739
0.12320	0.04914
-0.02981	0.55929
0.07220	-0.89465
0.35272	-0.35899
-0.08081	1.60511
0.42922	0.99292
0.27621	-0.84363
-0.00431	-0.38449
0.09770	-0.25695
-0.00431	1.06945
-0.08081	0.12566
0.22521	0.43176
0.12320	-0.18043
0.17421	0.61031
-0.10631	0.53379
-0.00431	0.50828
0.17421	0.04914
0.68424	-0.74160
0.37822	-0.30797
-0.43783	-0.28246
0.42922	0.25320
-0.13181	0.35523
-0.31033	0.91640
0.99026	0.04914
0.78624	-0.97117
-0.08081	0.07465
-1.61091	0.78886
1.14327	0.40625
0.09770	0.32972
-0.13181	0.45726
-0.13181	0.30422
0.78624	0.50828
0.70974	0.15117
0.27621	-0.46102
-0.48884	-0.20594
0.53123	0.20219
-0.99887	0.63582
-0.10631	-0.12942
-0.48884	-0.35899
0.65874	0.35523
0.53123	0.17668
0.48022	0.32972
0.60773	-0.05289
-1.20288	0.35523
1.04126	0.40625
1.47479	0.55929
-0.46334	-0.02739
-0.08081	-0.05289
-0.33583	-0.23145
0.04670	0.45726
0.14870	-0.35899
0.09770	0.38074
0.32721	0.89089
0.02119	-0.30797
0.04670	-0.43551
0.17421	0.66132
0.30171	0.04914
0.30171	-0.15492
0.02119	-0.25695
0.14870	0.55929
0.04670	0.02363
0.76074	0.25320
-0.20832	0.43176
-0.36133	0.76336
0.25071	0.83988
0.68424	-0.46102
0.09770	-0.46102
0.02119	-0.05289
-0.13181	-0.05289
-0.10631	-0.10391
0.22521	0.40625
1.01576	0.45726
0.78624	-0.00188
-1.61091	-0.18043
-0.56534	0.50828
1.47479	0.04914
-0.10631	-0.00188
-0.20832	0.35523
0.55673	0.35523
0.83725	0.20219
-0.13181	0.07465
0.32721	-0.38449
0.63323	0.61031
-0.87136	0.17668
-0.20832	0.25320
0.76074	0.53379
-0.18282	0.10015
-0.38683	-0.86914
-0.36133	0.17668
1.16877	0.38074
0.37822	0.20219
0.17421	0.22769
0.22521	-0.05289
0.09770	0.32972
0.37822	0.45726
0.32721	-0.15492
-0.05531	0.30422
0.07220	-0.15492
0.02119	-0.00188
0.22521	0.53379
-0.02981	0.48277
0.17421	0.55929
0.14870	-0.18043
0.14870	-0.38449
0.25071	-0.25695
0.09770	0.50828
0.17421	0.12566
0.37822	0.48277
0.73524	0.25320
-0.64185	0.25320
-1.45790	0.73785
0.60773	0.02363
0.30171	-0.46102
0.91375	-0.07840
0.35272	0.15117
-0.46334	-0.05289
0.42922	0.20219
1.75531	0.15117
0.35272	0.20219
-1.22839	0.04914
0.48022	0.27871
-0.13181	0.02363
-1.10088	0.22769
0.32721	0.22769
0.09770	0.27871
0.27621	0.40625
0.37822	0.07465
0.22521	0.12566
0.12320	0.22769
0.88825	0.15117
-0.89686	0.20219
0.32721	0.15117
0.25071	-0.25695
0.30171	-0.05289
0.12320	0.32972
-0.36133	0.40625
0.30171	0.07465
0.40372	-0.23145
0.30171	-0.12942
0.25071	0.53379
0.17421	0.73785
0.17421	0.35523
0.17421	0.22769
-0.02981	0.22769
0.12320	0.17668
-0.10631	-0.63957
0.27621	0.02363
-0.00431	-0.07840
0.19971	0.17668
-0.08081	0.73785
0.42922	-0.30797
0.45472	0.96742
0.04670	0.35523
-0.76936	0.02363
-0.15732	-0.46102
0.88825	0.07465
0.68424	0.96742
0.45472	0.17668
0.27621	0.35523
-0.89686	-0.07840
0.76074	-0.84363
0.86275	0.53379
-0.10631	0.17668
-1.96793	-0.41000
-0.23382	0.35523
1.85731	0.50828
0.73524	-0.07840
-0.25932	0.81437
-0.13181	0.04914
-0.08081	0.12566
0.12320	0.04914
-0.15732	-0.20594
0.27621	-0.43551
0.12320	-0.07840
-0.08081	0.27871
0.91375	0.58480
0.83725	1.12046
-0.08081	0.55929
-0.31033	-0.20594
-0.28482	-0.71609
-0.05531	-0.10391
0.25071	0.12566
0.19971	0.32972
0.32721	1.14597
0.09770	0.32972
0.17421	-0.10391
0.27621	0.15117
0.02119	-0.58856
-0.00431	-0.35899
0.12320	0.48277
0.50573	0.35523
0.48022	0.32972
0.12320	0.12566
-0.59084	0.10015
-0.31033	0.12566
0.53123	-0.25695
0.53123	-0.05289
0.19971	0.30422
0.27621	0.32972
0.32721	-0.25695
-0.97337	-0.10391
0.55673	0.35523
0.42922	0.61031
0.35272	0.50828
-0.00431	0.45726
0.99026	0.45726
-0.20832	-0.56305
0.02119	-1.37929
-0.48884	0.40625
-0.02981	0.76336
0.50573	0.48277
0.58223	0.43176
-0.66735	0.27871
0.53123	0.58480
0.86275	0.15117
-0.02981	-0.18043
-0.41233	-0.30797
-0.48884	-0.00188
0.73524	0.25320
0.48022	0.22769
0.04670	0.02363
0.12320	0.32972
0.09770	0.20219
0.58223	0.17668
0.19971	-0.35899
-0.41233	0.04914
-0.28482	0.40625
1.29628	0.38074
0.27621	0.07465
-0.31033	0.83988
-0.51434	-0.12942
0.04670	-0.28246
-0.02981	-0.10391
0.88825	-0.18043
0.27621	1.06945
-1.04987	0.32972
0.22521	-1.04770
0.19971	-0.81812
0.63323	1.29902
0.86275	0.40625
-0.18282	0.25320
0.19971	0.45726
0.12320	0.35523
0.27621	0.45726
0.22521	0.25320
-0.02981	0.12566
0.25071	0.15117
0.60773	-0.00188
0.88825	-0.94566
-1.33039	-0.05289
-0.71835	0.15117
-0.41233	0.32972
0.32721	-0.02739
0.50573	-0.61406
0.53123	0.63582
0.73524	0.48277
0.99026	0.66132
0.22521	0.40625
-0.82036	0.04914
-0.00431	0.04914
0.91375	0.25320
0.48022	0.12566
0.02119	0.12566
-0.74385	-0.07840
-0.82036	0.40625
-0.18282	-0.20594
0.60773	-0.02739
0.86275	-0.12942
0.45472	0.17668
-0.23382	0.30422
-0.10631	0.43176
1.60230	-0.10391
0.09770	0.20219
-0.00431	0.63582
-0.15732	1.63062
0.02119	-0.51203
-0.56534	-1.94047
0.27621	0.12566
0.37822	-0.00188
0.42922	-0.15492
0.42922	0.30422
0.22521	0.89089
0.19971	1.04394
0.12320	1.32453
0.04670	0.35523
0.07220	0.04914
0.02119	-0.18043
0.40372	-0.15492
0.07220	0.17668
0.07220	0.40625
-0.13181	-0.20594
-0.13181	-0.71609
0.42922	-0.56305
0.53123	0.27871
0.63323	0.25320
-0.25932	0.17668
0.25071	0.43176
-0.94787	0.07465
-0.51434	0.55929
0.65874	0.32972
1.06676	0.22769
1.14327	0.02363
0.17421	-0.00188
0.02119	-0.05289
-0.15732	0.02363
0.45472	0.15117
0.45472	0.27871
-0.41233	0.35523
-0.38683	-0.00188
0.27621	-0.00188
-0.15732	0.48277
0.04670	0.35523
0.55673	0.02363
0.45472	-0.53754
-0.08081	0.27871
0.22521	-0.33348
-0.23382	-0.05289
0.45472	0.53379
0.27621	0.68683
0.30171	0.17668
0.14870	0.89089
0.30171	0.38074
-0.02981	-0.94566
0.25071	-0.97117
0.12320	0.22769
0.02119	-1.02219
0.09770	0.89089
0.02119	0.83988
0.19971	0.76336
0.07220	0.63582
0.19971	-0.07840
0.09770	-0.00188
0.25071	-0.18043
0.30171	0.27871
0.32721	0.04914
-0.79486	0.15117
-0.02981	0.22769
0.19971	-0.00188
0.73524	0.17668
-0.61635	0.04914
-0.28482	-0.30797
0.50573	-0.28246
2.06133	0.20219
0.99026	0.50828
-0.00431	0.71234
-0.08081	0.35523
-0.71835	0.22769
-0.31033	-0.35899
-0.94787	0.17668
0.96476	0.50828
0.30171	0.66132
-0.48884	-0.51203
-0.18282	0.02363
0.37822	0.48277
0.35272	0.12566
0.58223	-0.33348
0.32721	0.17668
-0.20832	0.04914
0.40372	0.20219
0.40372	-0.00188
-0.00431	0.71234
0.32721	0.73785
-0.02981	0.15117
-0.56534	-0.41000
0.27621	0.20219
0.12320	0.22769
0.22521	-0.48652
0.17421	0.35523
0.25071	0.22769
0.07220	0.48277
0.09770	0.20219
0.19971	0.30422
-0.08081	-0.69059
0.30171	0.17668
0.17421	0.40625
0.12320	0.55929
0.30171	-0.25695
-0.13181	-0.38449
-0.46334	-0.41000
0.73524	0.43176
0.96476	0.66132
-0.46334	0.40625
0.07220	0.40625
-0.89686	0.10015
2.41835	0.20219
-0.92237	0.07465
-0.36133	-0.00188
0.19971	0.27871
0.81175	-0.05289
-0.23382	0.20219
-0.00431	0.15117
0.55673	-0.12942
0.42922	-0.10391
-0.00431	0.04914
-0.36133	0.38074
0.04670	0.15117
1.24527	0.27871
0.32721	0.25320
-0.31033	0.76336
-0.64185	-0.02739
0.07220	-0.53754
-0.33583	0.32972
0.12320	0.76336
0.73524	0.71234
0.45472	-1.20074
0.04670	-0.07840
0.27621	0.30422
0.65874	0.38074
0.48022	0.04914
-0.08081	0.50828
0.02119	-0.02739
0.22521	0.63582
-0.08081	0.32972
-0.00431	0.25320
0.17421	0.17668
0.17421	0.04914
0.04670	0.25320
-0.00431	0.22769
0.09770	-0.53754
0.35272	-0.00188
-0.08081	-0.12942
-0.28482	0.58480
0.17421	-0.07840
0.53123	-0.02739
0.32721	-0.07840
0.37822	-0.02739
0.40372	0.20219
0.09770	0.22769
-1.12638	0.55929
1.09226	0.66132
1.65330	0.30422
0.53123	0.17668
-1.30489	0.15117
0.42922	-0.02739
-0.53984	-0.20594
-0.38683	-0.07840
0.32721	0.35523
0.48022	0.30422
0.04670	0.15117
0.60773	0.12566
0.35272	-0.02739
0.17421	0.07465
0.48022	0.17668
0.02119	0.04914
-0.43783	0.22769
-0.05531	0.25320
0.07220	0.25320
0.70974	0.15117
-0.33583	0.30422
0.04670	0.22769
0.12320	0.22769
0.93925	-0.07840
0.12320	0.20219
0.12320	-0.71609
0.14870	0.10015
-0.10631	0.10015
0.09770	0.12566
0.12320	0.55929
0.12320	0.71234
0.14870	0.48277
0.22521	-0.23145
0.14870	0.30422
-0.33583	0.50828
0.07220	-0.18043
0.17421	0.10015
0.30171	0.07465
0.40372	0.27871
0.32721	0.50828
0.12320	0.15117
-0.13181	-0.56305
-0.36133	-0.15492
0.65874	0.55929
0.02119	-0.25695
-0.15732	-0.35899
0.37822	-0.23145
0.50573	0.12566
0.12320	0.63582
-0.38683	0.76336
0.04670	0.78886
-0.25932	0.32972
1.01576	0.22769
1.72980	0.07465
0.53123	0.45726
-0.64185	0.30422
-0.92237	-0.28246
-0.89686	0.15117
-0.08081	-0.20594
-0.36133	-0.43551
0.58223	-0.00188
0.68424	0.04914
1.11776	0.40625
0.40372	0.22769
-0.05531	-0.07840
-0.05531	-0.46102
-0.61635	0.20219
0.32721	0.40625
0.27621	0.22769
0.42922	0.71234
0.19971	0.50828
-0.18282	0.27871
0.17421	0.30422
0.07220	0.07465
0.22521	-0.84363
-0.02981	-0.86914
0.02119	0.35523
0.22521	0.53379
0.12320	-0.28246
0.22521	0.53379
0.02119	0.86539
0.22521	0.38074
0.12320	0.76336
0.07220	0.15117
0.02119	-0.25695
0.17421	-0.28246
0.32721	0.15117
0.30171	0.38074
0.27621	0.10015
0.48022	0.15117
0.12320	0.07465
-0.53984	0.07465
0.07220	0.43176
-0.51434	0.50828
0.58223	-0.38449
-0.18282	-0.48652
-0.69285	-1.55785
0.88825	0.17668
1.62780	0.78886
0.65874	0.91640
-0.15732	1.01843
-0.43783	0.55929
0.19971	0.15117
-0.02981	0.32972
-0.15732	0.10015
-0.38683	-0.18043
0.42922	0.20219
0.91375	-0.25695
-0.61635	0.17668
0.14870	0.22769
0.07220	-0.23145
0.14870	-0.15492
-0.23382	-0.18043
0.09770	0.02363
0.60773	0.96742
-0.00431	-0.05289
0.37822	0.17668
0.30171	0.25320
0.04670	0.17668
-0.02981	-0.38449
0.40372	0.86539
0.30171	0.40625
0.48022	0.63582
-0.13181	-0.20594
-0.51434	-1.25176
0.19971	-0.12942
0.35272	1.27351
0.19971	0.48277
0.45472	0.22769
0.19971	0.07465
-0.18282	0.17668
0.14870	0.32972
0.45472	-0.58856
-0.02981	-0.38449
-0.18282	0.43176
-0.46334	-0.02739
0.60773	0.10015
0.91375	0.35523
-0.36133	0.43176
-0.51434	0.04914
-0.38683	-0.23145
0.83725	0.38074
1.27078	0.53379
0.32721	-0.00188
-0.38683	-0.00188
0.32721	0.38074
0.02119	0.50828
0.48022	-0.23145
0.70974	-0.48652
-0.64185	0.25320
-0.61635	0.22769
0.07220	0.30422
0.40372	0.04914
0.48022	0.15117
0.73524	0.17668
-0.10631	0.04914
-0.10631	-0.05289
-0.18282	-0.00188
0.27621	0.66132
0.22521	0.40625
0.12320	-0.33348
0.22521	0.10015
0.32721	0.32972
-0.10631	0.20219
0.27621	-0.48652
-0.00431	-1.58336
0.25071	0.76336
-0.05531	1.14597
0.30171	0.04914
0.27621	0.91640
-0.31033	0.20219
0.14870	0.89089
0.63323	0.99292
0.25071	-1.63437
0.12320	-1.30277
-0.00431	0.53379
0.42922	0.86539
0.27621	0.66132
-0.23382	0.35523
-0.41233	-0.28246
0.19971	-0.79262
0.22521	-0.48652
0.40372	1.12046
