0.09770	0.20219
0.14870	0.15117
0.22521	0.10015
0.14870	0.17668
0.14870	0.07465
0.22521	0.27871
0.09770	0.38074
0.22521	0.25320
0.14870	-0.12942
0.17421	0.04914
0.19971	0.04914
0.12320	0.10015
0.12320	0.15117
0.14870	0.12566
0.12320	0.25320
0.19971	0.22769
0.09770	0.07465
0.19971	0.20219
0.17421	0.15117
0.12320	0.10015
0.22521	0.17668
0.09770	0.20219
0.12320	0.17668
0.14870	0.17668
0.12320	-0.10391
0.12320	0.22769
0.19971	0.61031
0.09770	-0.00188
0.14870	-0.00188
0.19971	0.07465
0.09770	0.15117
0.19971	0.12566
0.14870	0.15117
0.14870	0.10015
0.17421	0.15117
0.14870	0.17668
0.12320	0.04914
0.14870	0.22769
0.22521	0.15117
0.07220	0.17668
0.19971	0.07465
0.12320	0.12566
0.17421	0.40625
0.12320	0.15117
0.07220	0.07465
0.19971	0.02363
0.07220	0.04914
0.22521	0.32972
0.09770	0.12566
0.14870	0.15117
0.14870	0.04914
0.09770	0.10015
0.14870	-0.10391
0.14870	0.27871
0.09770	0.22769
0.22521	0.20219
0.14870	0.30422
0.14870	0.04914
0.22521	0.17668
0.07220	0.20219
0.12320	0.12566
0.19971	0.12566
0.17421	0.07465
0.14870	0.25320
0.19971	0.27871
0.09770	-0.10391
0.14870	0.10015
0.22521	0.22769
0.09770	0.15117
0.17421	-0.00188
0.19971	-0.00188
0.12320	0.58480
0.17421	0.22769
0.19971	0.10015
0.14870	0.15117
0.07220	-0.00188
0.22521	0.10015
0.12320	0.04914
0.09770	0.04914
0.19971	0.15117
0.17421	0.17668
0.09770	0.04914
0.22521	0.17668
0.09770	0.25320
0.12320	0.15117
0.14870	0.15117
0.17421	0.04914
0.19971	0.30422
0.14870	0.27871
0.09770	0.25320
0.19971	0.12566
0.07220	0.04914
0.19971	-0.35899
0.14870	0.15117
0.17421	0.22769
0.25071	0.20219
0.17421	0.25320
0.12320	0.22769
0.14870	0.15117
0.22521	-0.05289
0.07220	0.15117
0.14870	0.66132
0.19971	0.20219
0.09770	-0.18043
0.19971	0.04914
0.19971	0.15117
0.14870	0.22769
0.14870	0.15117
0.22521	0.10015
0.07220	0.17668
0.07220	0.04914
0.17421	0.15117
0.12320	0.30422
0.09770	0.12566
0.22521	0.02363
0.19971	0.15117
0.07220	0.12566
0.19971	0.04914
0.14870	0.20219
0.07220	0.20219
0.22521	0.17668
0.14870	0.12566
0.09770	0.10015
0.22521	0.15117
0.09770	0.12566
0.04670	0.17668
0.22521	0.17668
0.07220	0.04914
0.22521	0.12566
0.12320	0.30422
0.07220	0.04914
0.19971	0.17668
0.07220	0.04914
0.14870	-0.02739
0.14870	0.25320
0.12320	0.25320
0.19971	0.10015
0.14870	0.27871
0.12320	-0.02739
0.19971	0.12566
0.09770	0.07465
0.14870	0.10015
0.14870	0.27871
0.09770	0.20219
0.22521	0.25320
0.14870	0.12566
0.12320	0.12566
0.19971	0.15117
0.09770	0.17668
0.22521	0.10015
0.12320	-0.23145
0.12320	0.30422
0.19971	0.71234
0.07220	0.10015
0.22521	0.12566
0.17421	0.04914
0.14870	-0.05289
0.19971	0.10015
0.04670	-0.02739
0.12320	0.07465
0.12320	0.40625
0.14870	0.04914
0.22521	0.17668
0.09770	0.17668
0.22521	0.27871
0.17421	0.35523
0.09770	-0.53754
0.22521	0.27871
0.12320	0.17668
0.14870	0.22769
0.22521	0.35523
0.04670	0.17668
0.17421	0.15117
0.14870	0.12566
0.12320	0.20219
0.19971	-0.18043
0.09770	0.07465
0.19971	0.27871
0.14870	0.25320
0.14870	0.07465
0.14870	-0.07840
0.09770	0.22769
0.12320	0.61031
0.17421	-0.02739
0.12320	0.02363
0.22521	0.12566
0.09770	0.12566
0.19971	0.15117
0.07220	0.15117
0.12320	0.25320
0.17421	-0.05289
0.12320	0.15117
0.14870	0.27871
0.07220	0.12566
0.22521	0.22769
0.12320	0.07465
0.09770	0.12566
0.19971	-0.02739
0.09770	0.22769
0.25071	0.25320
0.09770	0.12566
0.19971	0.20219
0.09770	0.02363
0.17421	0.02363
0.14870	0.22769
0.07220	0.07465
0.19971	0.15117
0.12320	0.32972
0.17421	-0.20594
0.22521	0.43176
0.09770	0.38074
0.12320	-0.02739
0.22521	0.07465
0.09770	0.15117
0.12320	0.10015
0.14870	0.20219
0.09770	0.38074
0.17421	0.25320
0.22521	0.10015
0.09770	-0.05289
0.14870	0.15117
0.14870	0.10015
0.12320	0.20219
0.12320	0.07465
0.07220	0.22769
0.17421	0.22769
0.07220	0.12566
0.22521	0.27871
0.14870	0.07465
0.17421	0.15117
0.12320	0.04914
0.14870	0.12566
0.22521	0.17668
0.09770	0.22769
0.22521	0.10015
0.17421	0.22769
0.07220	0.07465
0.17421	0.15117
0.17421	0.04914
0.14870	0.10015
0.19971	0.17668
0.09770	0.12566
0.12320	0.15117
0.17421	0.22769
0.17421	0.12566
0.19971	0.27871
0.12320	0.17668
0.17421	0.12566
0.14870	0.15117
0.07220	0.10015
0.19971	-0.02739
0.17421	0.20219
0.07220	0.20219
0.17421	0.20219
0.19971	0.10015
0.12320	0.25320
0.14870	0.30422
0.19971	-0.02739
0.12320	0.04914
0.09770	0.12566
0.14870	-0.10391
0.22521	0.10015
0.14870	0.66132
0.14870	0.15117
0.19971	-0.05289
0.14870	0.10015
0.14870	0.25320
0.19971	0.02363
0.14870	0.02363
0.07220	0.22769
0.14870	0.25320
0.12320	0.04914
0.07220	0.17668
0.07220	0.25320
0.14870	0.17668
0.22521	0.07465
0.12320	0.10015
0.07220	0.17668
0.22521	0.10015
0.17421	0.12566
0.07220	0.17668
0.14870	0.15117
0.22521	0.12566
0.12320	0.27871
0.09770	0.17668
0.14870	0.07465
0.19971	0.22769
0.14870	0.04914
0.07220	0.04914
0.25071	0.22769
0.14870	0.15117
0.02119	0.17668
0.22521	0.02363
0.09770	-0.00188
0.12320	0.30422
0.19971	0.12566
0.14870	0.17668
0.25071	0.10015
0.07220	-0.02739
0.14870	0.12566
0.17421	0.15117
0.14870	0.50828
0.17421	0.30422
0.07220	-0.02739
0.25071	0.12566
0.09770	0.07465
0.14870	0.15117
0.14870	0.04914
0.12320	0.12566
0.12320	0.15117
0.07220	0.10015
0.19971	0.12566
0.09770	0.17668
0.19971	0.25320
0.12320	0.15117
0.14870	0.22769
0.14870	0.02363
0.12320	0.15117
0.14870	0.20219
0.07220	0.20219
0.22521	0.22769
0.07220	-0.00188
0.14870	0.22769
0.12320	0.22769
0.14870	0.10015
0.22521	0.20219
0.07220	0.04914
0.19971	0.15117
0.07220	0.15117
0.17421	0.25320
0.14870	0.15117
0.04670	0.07465
0.22521	0.12566
0.14870	0.20219
0.17421	0.17668
0.22521	0.15117
0.07220	0.07465
0.19971	0.12566
0.12320	0.15117
0.14870	0.10015
0.22521	0.12566
0.07220	-0.05289
0.14870	0.32972
0.19971	0.38074
0.07220	0.22769
0.12320	0.15117
0.22521	0.04914
0.09770	0.02363
0.12320	-0.00188
0.17421	0.07465
0.07220	0.10015
0.14870	0.38074
0.19971	0.17668
0.07220	0.15117
0.14870	0.25320
0.22521	0.20219
0.12320	0.04914
0.09770	0.10015
0.14870	0.17668
0.19971	0.07465
0.22521	0.20219
0.09770	0.17668
0.19971	0.07465
0.19971	0.07465
0.14870	0.22769
0.07220	0.22769
0.22521	0.02363
0.14870	-0.23145
0.09770	0.27871
0.12320	0.68683
0.19971	-0.02739
0.17421	-0.07840
0.09770	0.07465
0.14870	0.02363
0.12320	0.02363
0.17421	0.22769
0.04670	0.15117
0.14870	0.07465
0.27621	0.22769
0.07220	0.15117
0.17421	-0.00188
0.17421	0.17668
0.09770	0.25320
0.14870	0.15117
0.25071	0.20219
0.09770	0.27871
0.09770	0.07465
0.25071	0.12566
0.12320	0.15117
0.07220	0.10015
0.22521	-0.02739
0.14870	0.15117
0.12320	0.25320
0.19971	0.15117
0.22521	0.04914
0.09770	0.02363
0.14870	0.15117
0.22521	0.27871
0.14870	0.04914
0.07220	0.17668
0.09770	0.12566
0.22521	0.10015
0.17421	0.20219
0.09770	0.22769
0.14870	0.20219
0.22521	0.07465
0.12320	0.12566
0.07220	0.35523
0.17421	0.35523
0.22521	0.04914
0.12320	-0.07840
0.02119	0.07465
0.12320	0.22769
0.22521	0.17668
0.12320	0.07465
0.19971	0.10015
0.14870	0.20219
0.14870	0.12566
0.22521	-0.05289
0.09770	0.25320
0.07220	0.45726
0.19971	-0.05289
0.09770	0.22769
0.14870	0.02363
0.22521	0.17668
0.19971	0.10015
0.14870	0.04914
0.14870	0.10015
0.12320	0.12566
0.14870	0.02363
0.14870	0.20219
0.07220	0.43176
0.12320	0.20219
0.22521	0.07465
0.07220	0.17668
0.17421	0.10015
0.19971	0.12566
0.09770	0.17668
0.09770	0.04914
0.14870	0.12566
0.14870	0.10015
0.07220	0.15117
0.22521	0.25320
0.09770	0.20219
0.14870	0.10015
0.19971	0.20219
0.07220	0.15117
0.14870	0.07465
0.12320	0.12566
0.09770	0.22769
0.22521	0.07465
0.14870	0.02363
0.09770	0.12566
0.12320	0.22769
0.12320	0.07465
0.22521	0.15117
0.07220	0.25320
0.17421	0.04914
0.22521	-0.00188
0.17421	0.12566
0.07220	0.55929
0.17421	0.27871
0.22521	0.02363
0.14870	0.04914
0.14870	0.04914
0.22521	0.07465
0.14870	0.07465
0.07220	0.12566
0.14870	0.25320
0.22521	-0.12942
0.17421	0.07465
0.07220	0.43176
0.19971	0.20219
0.19971	0.12566
0.07220	0.32972
0.17421	0.30422
0.19971	0.07465
0.07220	0.15117
0.12320	0.02363
0.22521	0.04914
0.07220	0.17668
0.17421	0.10015
0.22521	0.17668
0.09770	0.15117
0.17421	0.10015
0.22521	0.12566
0.07220	0.22769
0.14870	0.10015
0.19971	0.15117
0.14870	0.22769
0.12320	0.07465
0.14870	0.07465
0.12320	0.17668
0.07220	0.20219
0.14870	0.12566
0.25071	0.00000
0.12320	0.00000
0.09770	0.00000
0.25071	0.00000
0.14870	0.00000
0.09770	0.15117
0.12320	0.22769
0.19971	0.20219
0.14870	0.12566
0.09770	0.15117
0.19971	0.17668
0.14870	0.04914
0.09770	0.04914
0.14870	0.20219
0.12320	0.17668
0.07220	0.10015
0.12320	0.30422
0.12320	0.04914
0.07220	0.15117
0.22521	0.17668
0.19971	0.04914
0.07220	0.15117
0.14870	0.27871
0.19971	0.10015
0.07220	-0.00188
0.09770	0.35523
0.22521	0.20219
0.09770	-0.00188
0.17421	0.15117
0.14870	-0.00188
0.12320	0.15117
0.22521	0.25320
0.09770	0.22769
0.19971	0.15117
0.07220	0.15117
0.19971	0.17668
0.14870	0.04914
0.14870	0.17668
0.14870	0.15117
0.12320	0.15117
0.22521	0.15117
0.12320	0.12566
0.17421	0.20219
0.22521	0.12566
0.07220	0.17668
0.22521	0.25320
0.17421	0.02363
0.14870	-0.12942
0.22521	0.30422
0.09770	0.20219
0.19971	0.15117
0.14870	0.12566
0.14870	0.30422
0.17421	0.10015
0.07220	0.15117
0.19971	0.25320
0.07220	0.04914
0.19971	0.10015
0.09770	0.04914
0.14870	0.04914
0.19971	0.12566
0.12320	0.61031
0.09770	0.02363
0.22521	0.07465
0.09770	-0.00188
0.22521	0.15117
0.14870	0.04914
0.12320	0.07465
0.19971	0.12566
0.07220	0.32972
0.19971	0.32972
0.04670	0.04914
0.14870	0.15117
0.12320	0.20219
0.12320	0.27871
0.22521	0.17668
0.02119	0.04914
0.14870	0.15117
0.19971	0.22769
0.09770	0.02363
0.19971	0.02363
0.14870	0.17668
0.09770	0.07465
0.22521	0.17668
0.14870	0.17668
0.07220	0.07465
0.09770	0.25320
0.12320	0.17668
0.07220	0.17668
0.14870	0.15117
0.09770	0.07465
0.17421	0.25320
0.19971	0.25320
0.04670	0.12566
0.14870	0.12566
0.12320	0.07465
0.14870	0.25320
0.19971	0.22769
0.12320	0.07465
0.22521	0.07465
0.17421	0.04914
0.07220	0.15117
0.19971	0.27871
0.14870	0.07465
0.09770	-0.18043
0.22521	0.32972
0.09770	0.35523
0.14870	0.17668
0.25071	0.15117
0.09770	0.04914
0.17421	0.10015
0.12320	0.12566
0.14870	0.17668
0.19971	0.22769
0.07220	0.10015
0.14870	0.12566
0.22521	0.15117
0.07220	0.17668
0.14870	0.15117
0.14870	0.10015
0.12320	0.02363
0.12320	0.20219
0.14870	0.12566
0.07220	0.15117
0.19971	0.27871
0.14870	0.15117
0.14870	0.20219
0.19971	0.17668
0.07220	-0.00188
0.22521	0.25320
0.14870	0.40625
0.14870	0.10015
0.22521	0.04914
0.07220	-0.05289
0.12320	0.15117
0.14870	0.15117
0.09770	0.02363
0.12320	0.25320
0.22521	0.27871
0.14870	0.25320
0.09770	0.04914
0.12320	0.32972
0.12320	-0.30797
0.07220	0.15117
0.07220	0.66132
0.14870	0.20219
0.22521	-0.66508
0.09770	-0.05289
0.09770	0.58480
0.22521	0.55929
0.19971	0.25320
-0.02981	0.40625
-0.00431	0.40625
0.30171	0.25320
0.22521	-1.12422
0.02119	-1.22625
0.22521	0.53379
0.19971	0.50828
0.17421	0.81437
0.17421	1.70714
0.12320	0.20219
-0.00431	-0.12942
-0.38683	-0.15492
0.42922	-0.25695
0.78624	0.25320
0.02119	-0.48652
-0.33583	-0.51203
-0.18282	0.38074
0.32721	-0.33348
0.86275	0.35523
0.19971	0.58480
-0.38683	0.40625
0.04670	1.09496
-0.08081	0.22769
-0.18282	-0.63957
0.25071	0.12566
1.19427	0.55929
0.78624	0.45726
-0.08081	0.66132
-0.28482	-0.92016
-0.00431	-0.48652
-0.71835	0.35523
0.30171	0.35523
-0.13181	0.78886
0.30171	0.32972
0.30171	0.22769
0.12320	-0.35899
0.42922	-0.00188
-0.61635	-0.48652
2.23984	0.10015
0.73524	0.27871
-0.38683	-0.12942
0.93925	0.35523
-0.20832	0.50828
-0.87136	0.07465
-0.61635	-0.61406
-0.48884	2.01323
-0.10631	1.52859
0.12320	1.32453
0.30171	-2.88425
0.25071	-2.04250
-0.02981	0.04914
1.62780	1.88570
0.48022	-0.92016
-0.51434	-0.28246
-1.12638	-0.33348
2.34184	2.06425
-0.23382	2.19179
-0.84586	0.76336
-0.18282	-0.94566
0.07220	0.76336
-0.02981	0.48277
-0.10631	-1.02219
0.30171	-0.18043
-0.25932	0.22769
1.42379	-1.48133
0.83725	0.17668
-0.84586	0.38074
-0.79486	0.55929
0.17421	0.53379
-1.45790	0.02363
1.32178	0.10015
1.09226	0.17668
2.06133	0.12566
-0.89686	0.15117
-1.84042	0.27871
-0.74385	0.22769
0.37822	0.15117
0.32721	-0.48652
0.25071	0.45726
0.22521	0.40625
-0.76936	-0.48652
1.37278	0.22769
1.60230	0.91640
0.32721	-0.00188
0.19971	0.02363
-0.46334	-0.28246
-0.28482	0.20219
0.02119	0.50828
0.09770	0.07465
0.04670	-0.05289
-0.05531	-0.10391
0.09770	0.66132
0.22521	1.32453
0.17421	-1.02219
0.17421	-1.94047
0.22521	0.83988
0.12320	0.73785
-0.20832	1.14597
-0.28482	0.30422
0.78624	-0.15492
0.73524	0.55929
0.07220	1.68163
0.73524	-0.84363
0.02119	-1.60887
-0.51434	1.37554
-0.13181	1.27351
-0.00431	0.61031
-0.02981	-0.41000
0.27621	-0.05289
0.55673	-0.02739
0.27621	-0.05289
0.17421	-0.53754
0.19971	0.45726
0.27621	0.94191
-0.00431	1.19699
0.07220	-5.58807
-0.28482	-0.15492
0.19971	1.04394
0.70974	1.37554
0.04670	0.89089
0.35272	0.99292
0.25071	0.81437
0.04670	0.38074
-0.05531	0.45726
0.32721	0.02363
0.02119	0.22769
-0.00431	-0.48652
-0.43783	-0.58856
0.88825	0.22769
0.58223	-0.10391
-0.38683	0.40625
0.04670	0.17668
0.25071	0.30422
0.35272	-0.48652
0.02119	0.25320
-0.71835	0.53379
0.81175	0.35523
0.86275	-0.46102
0.37822	0.22769
0.32721	0.61031
-0.28482	0.73785
-0.28482	-0.53754
0.07220	0.20219
0.04670	0.66132
0.22521	2.19179
0.32721	-2.78222
0.25071	-0.92016
0.19971	1.17148
0.07220	1.01843
0.22521	-0.53754
0.32721	0.27871
0.19971	0.07465
0.25071	1.12046
0.12320	0.83988
0.07220	-0.10391
-0.08081	-0.66508
0.19971	0.15117
0.14870	0.55929
0.12320	-0.38449
0.02119	-0.05289
0.14870	0.04914
0.04670	0.12566
-0.08081	0.45726
0.42922	0.10015
-0.02981	0.12566
-0.13181	0.17668
1.04126	0.61031
0.78624	0.48277
-0.71835	-0.25695
0.04670	-0.71609
0.02119	0.27871
-0.15732	0.40625
0.42922	0.48277
-0.25932	0.40625
0.76074	0.32972
0.27621	-0.05289
-0.23382	-0.30797
0.25071	0.40625
-0.25932	0.10015
0.58223	0.15117
0.40372	0.73785
-0.28482	-0.25695
0.35272	-0.41000
0.55673	0.12566
0.93925	0.30422
-0.20832	0.17668
-0.18282	-0.38449
-0.23382	0.40625
0.22521	1.12046
0.19971	-0.15492
0.07220	-0.53754
0.09770	-1.37929
0.22521	-1.14973
0.17421	0.71234
0.17421	1.47757
0.27621	0.91640
0.19971	0.76336
0.17421	1.04394
0.25071	0.58480
0.19971	-0.18043
0.04670	-0.76711
-0.10631	-0.10391
-0.38683	-0.02739
0.50573	0.32972
0.76074	0.30422
-0.18282	-1.58336
0.04670	-0.71609
0.19971	0.63582
0.30171	0.22769
0.04670	0.10015
0.22521	0.48277
-0.15732	0.32972
0.12320	0.55929
0.50573	0.25320
0.32721	0.30422
0.17421	-0.05289
-0.10631	0.10015
-0.23382	0.76336
0.12320	0.17668
0.25071	-0.30797
0.70974	-0.18043
0.14870	0.04914
-0.10631	0.20219
-0.00431	0.22769
-0.48884	-0.15492
0.88825	-0.00188
0.07220	-0.02739
-0.28482	-0.33348
1.14327	0.45726
0.17421	0.48277
-0.15732	1.17148
-0.10631	0.63582
0.04670	-0.35899
0.22521	-1.35379
0.19971	0.12566
0.19971	0.22769
0.14870	0.12566
0.14870	1.78367
0.35272	1.09496
0.12320	-0.48652
0.25071	0.02363
0.17421	1.17148
0.22521	-0.15492
0.14870	-0.58856
0.02119	-0.10391
0.02119	0.55929
0.32721	0.78886
-0.02981	0.12566
-0.10631	-0.23145
0.53123	-0.28246
0.19971	-0.25695
0.27621	0.38074
0.12320	0.10015
0.14870	-0.23145
0.53123	0.50828
0.37822	0.15117
-0.23382	0.27871
0.27621	0.53379
-0.02981	0.17668
-0.18282	0.12566
0.70974	0.20219
0.22521	0.10015
-0.66735	0.27871
-0.23382	-0.12942
0.42922	0.40625
0.19971	0.43176
0.12320	0.17668
0.45472	0.10015
0.19971	0.17668
0.42922	-0.79262
0.25071	0.27871
0.27621	0.35523
-0.18282	-0.66508
0.30171	0.61031
-0.48884	0.35523
0.60773	0.89089
0.65874	0.61031
-0.10631	0.02363
-0.08081	0.07465
0.07220	-0.79262
-0.02981	0.15117
0.09770	0.40625
0.25071	-0.07840
0.12320	0.22769
0.22521	0.55929
0.19971	0.66132
0.04670	0.38074
0.12320	-0.02739
0.09770	-0.69059
0.02119	0.04914
0.35272	-0.48652
0.32721	0.32972
0.09770	0.27871
0.32721	0.81437
-0.10631	0.86539
0.14870	0.17668
0.19971	-0.18043
0.07220	0.50828
0.02119	0.17668
-0.31033	-0.00188
0.45472	-0.02739
1.16877	-0.15492
0.04670	0.07465
-0.46334	0.30422
0.07220	0.22769
0.04670	0.30422
-0.02981	0.04914
-0.08081	0.10015
0.19971	-0.00188
0.25071	-0.02739
-0.28482	0.27871
0.50573	0.38074
0.35272	0.25320
0.32721	0.12566
0.50573	-0.00188
-0.20832	0.04914
0.12320	-0.15492
-0.02981	0.10015
0.27621	0.66132
0.14870	0.17668
0.14870	0.02363
-0.08081	0.10015
-0.00431	-0.23145
0.35272	0.81437
-0.15732	0.96742
0.40372	-0.10391
0.42922	-1.78742
-0.05531	1.37554
0.02119	-0.33348
0.02119	-1.14973
0.25071	0.43176
0.22521	-0.07840
0.09770	0.63582
0.25071	0.86539
0.12320	0.73785
0.17421	0.25320
0.22521	0.20219
0.17421	-0.23145
0.07220	-0.43551
0.30171	-0.02739
0.04670	0.53379
0.12320	0.15117
0.12320	-0.43551
0.19971	-0.10391
0.07220	0.43176
0.42922	0.25320
-0.28482	-0.25695
-0.08081	-0.71609
0.22521	-0.23145
0.30171	0.58480
0.50573	0.61031
0.19971	0.38074
0.22521	0.58480
-0.25932	0.43176
0.14870	0.32972
0.25071	0.32972
0.12320	-0.51203
0.30171	-0.48652
0.17421	0.61031
0.04670	0.48277
0.17421	0.10015
0.22521	-0.56305
0.04670	0.04914
-0.23382	-0.02739
0.73524	0.30422
0.73524	0.66132
-0.10631	0.02363
-0.10631	0.15117
-0.05531	-0.12942
0.12320	0.55929
0.19971	0.96742
0.09770	-0.33348
0.22521	-0.48652
0.12320	0.53379
0.27621	0.45726
0.30171	0.71234
0.19971	0.55929
0.09770	0.35523
0.14870	-1.40480
0.09770	-0.10391
0.12320	-0.41000
0.17421	0.53379
-0.00431	0.40625
-0.00431	1.17148
0.25071	0.25320
0.27621	-1.37929
0.25071	0.27871
-0.18282	0.20219
-0.56534	-0.38449
0.32721	-0.12942
0.45472	0.32972
0.37822	0.30422
0.35272	0.63582
0.32721	0.38074
0.02119	0.22769
0.12320	0.25320
-0.25932	0.12566
0.27621	0.02363
0.32721	-0.12942
-0.02981	0.17668
-0.38683	0.35523
0.73524	0.45726
0.50573	-1.40480
0.68424	-0.33348
0.07220	0.63582
-0.20832	0.55929
-0.13181	-0.10391
0.02119	-0.10391
-0.05531	-0.33348
0.04670	0.40625
0.22521	0.89089
0.27621	1.47757
0.32721	-0.53754
0.07220	-0.63957
0.27621	-0.02739
0.32721	0.94191
0.32721	1.22250
0.19971	0.32972
-0.13181	-1.81293
-0.05531	-0.38449
0.35272	0.53379
0.25071	0.55929
0.02119	0.27871
0.17421	-0.12942
0.19971	0.17668
0.14870	0.86539
0.14870	0.78886
0.12320	-1.78742
-0.02981	-0.86914
0.17421	0.35523
0.19971	1.14597
0.07220	0.71234
0.09770	0.43176
0.32721	0.43176
0.19971	-0.79262
0.12320	0.07465
0.35272	0.17668
0.27621	-0.18043
-0.05531	0.50828
-0.18282	0.20219
0.25071	-0.02739
0.63323	0.22769
0.37822	0.22769
0.12320	0.45726
0.12320	-0.23145
0.12320	-0.25695
0.19971	0.61031
0.07220	-0.18043
-0.28482	0.12566
0.53123	-0.20594
0.22521	0.89089
0.04670	0.22769
-0.08081	-0.48652
0.40372	0.43176
0.30171	0.35523
0.32721	0.17668
0.19971	-0.05289
-0.13181	-0.12942
0.12320	0.35523
0.19971	0.48277
0.30171	0.17668
0.25071	0.10015
0.02119	-0.15492
0.09770	-0.20594
0.22521	0.04914
-0.02981	1.06945
0.12320	-0.02739
0.48022	-2.50164
0.17421	0.40625
0.22521	0.61031
-0.33583	0.96742
0.27621	0.91640
0.53123	0.53379
-0.10631	0.25320
-0.33583	1.09496
0.37822	0.94191
0.19971	-0.69059
0.14870	-1.32828
0.14870	-0.12942
0.17421	-0.05289
-0.08081	-0.15492
0.30171	0.32972
0.42922	0.81437
0.30171	0.27871
0.14870	-0.51203
-0.20832	0.04914
0.07220	0.35523
0.22521	0.20219
0.22521	0.30422
0.07220	0.04914
0.14870	0.12566
0.17421	0.27871
0.12320	0.32972
0.17421	0.30422
0.17421	-0.18043
0.35272	0.61031
-0.08081	0.83988
-0.23382	-0.43551
0.32721	-0.99668
0.09770	-0.30797
0.14870	0.45726
0.14870	0.71234
0.83725	0.81437
0.53123	0.58480
-0.33583	-0.61406
-0.38683	0.89089
0.35272	0.25320
0.40372	-0.53754
-0.31033	0.55929
0.12320	0.12566
0.27621	0.20219
0.27621	-0.02739
0.32721	-0.12942
0.17421	-0.74160
-0.00431	0.73785
0.53123	-0.23145
0.27621	0.53379
-0.08081	0.07465
-0.20832	0.40625
0.32721	-0.25695
0.35272	0.32972
0.19971	0.45726
0.02119	-0.07840
0.12320	0.15117
-0.00431	0.20219
0.14870	-0.07840
0.12320	-0.00188
0.25071	0.38074
0.04670	0.45726
0.12320	-0.51203
0.14870	0.55929
0.19971	0.73785
0.14870	0.25320
0.19971	0.20219
0.25071	0.20219
0.25071	0.20219
0.12320	-0.10391
0.04670	0.40625
0.07220	0.10015
0.27621	-0.10391
-0.08081	-0.56305
-0.36133	-0.05289
0.86275	0.48277
0.48022	0.10015
0.04670	0.27871
0.09770	0.30422
0.17421	0.17668
-0.43783	0.32972
0.12320	0.32972
0.14870	0.10015
-0.15732	0.20219
0.45472	0.27871
0.42922	0.17668
0.32721	-0.02739
0.37822	-0.43551
-0.13181	0.04914
0.09770	0.45726
0.22521	0.22769
0.17421	0.30422
0.17421	0.27871
0.07220	0.15117
0.17421	0.81437
0.02119	0.43176
0.25071	-0.71609
0.19971	-2.29757
-0.00431	0.71234
0.12320	1.27351
0.04670	-0.10391
0.22521	0.66132
0.17421	0.61031
0.17421	-1.68539
0.09770	0.30422
0.22521	0.38074
0.09770	0.66132
0.35272	-0.20594
0.30171	0.55929
0.02119	0.40625
0.02119	0.02363
0.14870	-0.41000
0.12320	-0.28246
0.09770	0.83988
0.19971	0.40625
0.65874	-0.61406
-0.18282	-0.56305
-0.05531	0.61031
0.22521	0.45726
0.27621	0.27871
-0.00431	0.27871
0.04670	0.12566
0.22521	-0.05289
0.19971	0.25320
0.22521	0.27871
0.22521	0.22769
0.19971	0.32972
0.12320	0.32972
0.19971	-0.28246
-0.41233	0.25320
0.14870	0.43176
0.27621	0.25320
0.53123	0.32972
-0.02981	0.10015
0.12320	0.25320
0.02119	0.40625
0.14870	-0.41000
0.25071	-2.14453
0.07220	0.96742
0.07220	1.09496
0.19971	0.17668
0.27621	0.48277
0.12320	0.04914
0.30171	0.55929
0.07220	0.07465
0.14870	0.25320
0.12320	0.30422
0.09770	-0.20594
0.12320	-0.71609
0.07220	-0.86914
0.25071	0.40625
0.25071	0.45726
0.09770	0.43176
0.04670	0.68683
-0.15732	0.25320
0.40372	0.61031
0.58223	0.15117
-0.08081	0.07465
0.04670	-0.33348
0.19971	-0.15492
-0.20832	0.53379
0.22521	0.48277
0.14870	-0.28246
0.19971	-0.20594
-0.18282	0.25320
0.42922	0.07465
0.22521	0.48277
0.25071	0.91640
0.35272	0.53379
-0.08081	-0.25695
-0.05531	0.15117
0.14870	0.10015
0.12320	0.27871
0.32721	0.25320
0.22521	0.25320
0.19971	0.22769
0.09770	-0.76711
0.07220	0.20219
0.19971	0.20219
0.12320	0.12566
-0.00431	0.02363
0.07220	0.38074
0.09770	0.25320
0.17421	0.38074
0.09770	0.25320
0.12320	0.12566
0.25071	0.17668
0.14870	0.15117
0.17421	0.12566
0.12320	0.15117
0.27621	0.12566
0.30171	-0.18043
-0.00431	0.27871
0.12320	0.15117
0.12320	-0.23145
0.17421	0.96742
0.02119	0.10015
0.32721	-0.94566
0.32721	-0.66508
0.14870	0.76336
0.14870	0.76336
-0.02981	0.94191
0.07220	0.78886
-0.13181	-0.25695
0.04670	0.25320
0.07220	-0.86914
0.37822	0.22769
0.35272	0.50828
0.25071	0.53379
0.40372	0.68683
0.12320	0.35523
0.07220	-0.28246
-0.02981	-0.86914
0.12320	0.15117
-0.08081	0.04914
0.27621	0.45726
0.32721	0.43176
0.09770	0.32972
0.07220	0.40625
0.22521	0.61031
-0.08081	0.10015
-0.05531	-0.63957
0.91375	0.30422
0.32721	0.76336
-0.05531	-0.41000
-0.00431	0.20219
0.02119	-0.41000
0.12320	-0.10391
0.30171	-0.25695
0.19971	0.66132
0.14870	0.25320
0.09770	0.38074
0.27621	0.17668
0.35272	0.63582
-0.18282	0.20219
0.30171	0.68683
0.07220	0.22769
0.12320	0.02363
0.07220	0.38074
0.27621	0.10015
0.17421	-1.04770
0.25071	-0.69059
0.09770	0.71234
-0.05531	-0.56305
0.04670	0.25320
0.04670	0.20219
0.45472	0.81437
0.14870	1.04394
0.17421	0.32972
0.12320	-0.00188
0.32721	0.12566
0.14870	0.02363
0.14870	0.12566
-0.00431	0.04914
0.12320	0.07465
0.17421	0.04914
0.07220	-0.53754
0.19971	0.38074
0.19971	0.04914
-0.08081	0.10015
0.12320	0.43176
0.30171	0.40625
0.17421	0.27871
0.25071	0.25320
0.09770	-0.15492
0.27621	0.30422
0.12320	0.35523
0.27621	0.12566
0.04670	-0.92016
0.17421	0.66132
0.19971	0.91640
-0.02981	0.02363
0.14870	-0.12942
0.09770	0.71234
0.22521	-0.23145
0.09770	-1.27726
0.19971	0.25320
0.12320	-0.28246
0.19971	0.63582
0.19971	0.30422
0.17421	0.43176
-0.10631	0.25320
0.25071	0.32972
0.14870	0.66132
0.04670	-0.35899
0.48022	0.25320
0.19971	0.15117
0.02119	-0.05289
0.22521	0.22769
0.25071	-0.05289
-0.02981	0.10015
0.07220	-0.46102
0.04670	0.43176
-0.00431	0.02363
0.76074	-0.15492
0.40372	0.76336
-0.20832	0.63582
0.22521	0.40625
0.07220	0.02363
0.07220	0.15117
0.02119	-0.00188
0.09770	0.17668
0.22521	0.58480
0.27621	0.53379
0.09770	-1.22625
0.12320	-1.53234
0.02119	0.76336
0.32721	1.04394
0.14870	0.25320
0.25071	0.83988
-0.13181	0.40625
0.22521	-0.84363
0.14870	0.25320
0.14870	0.43176
0.12320	0.32972
0.25071	0.53379
0.22521	0.10015
0.22521	0.35523
-0.05531	-0.99668
0.02119	-0.99668
0.30171	0.76336
0.14870	0.86539
0.27621	0.40625
0.17421	0.53379
0.27621	0.55929
0.14870	0.43176
-0.10631	-0.18043
0.27621	-1.07320
0.27621	0.76336
0.19971	-0.92016
-0.10631	0.43176
0.17421	0.10015
0.27621	0.02363
0.17421	-0.15492
0.14870	0.73785
0.22521	0.45726
-0.00431	0.15117
0.02119	-0.41000
0.14870	0.96742
0.30171	-0.23145
0.25071	-0.20594
0.17421	0.15117
-0.08081	0.25320
0.70974	0.17668
0.19971	0.61031
0.02119	-0.58856
-0.18282	-0.00188
0.02119	0.02363
-0.00431	0.45726
0.30171	0.48277
0.37822	0.45726
-0.23382	-0.02739
-0.08081	-0.79262
0.32721	0.45726
0.22521	0.66132
0.25071	0.10015
0.35272	0.32972
0.22521	0.22769
0.09770	-0.46102
0.02119	0.10015
-0.25932	0.22769
0.53123	0.22769
0.32721	0.20219
0.07220	0.58480
0.35272	0.30422
-0.00431	-0.10391
-0.02981	-0.53754
0.22521	0.15117
0.09770	0.32972
0.02119	0.40625
0.27621	0.30422
0.27621	0.35523
0.25071	0.38074
0.04670	-0.76711
0.17421	0.48277
0.12320	0.27871
0.09770	0.12566
0.25071	-0.61406
0.14870	0.45726
0.12320	0.91640
0.17421	0.61031
0.14870	-0.41000
0.12320	-0.00188
0.17421	0.27871
0.14870	0.50828
0.09770	-1.17523
0.19971	0.96742
0.07220	0.76336
0.17421	-0.25695
0.17421	-0.94566
0.22521	0.78886
0.17421	0.50828
0.04670	0.02363
0.14870	0.45726
0.25071	0.35523
0.09770	0.32972
0.12320	0.50828
0.17421	0.17668
0.14870	-0.28246
0.22521	-0.41000
0.17421	0.25320
0.17421	0.30422
0.22521	0.10015
-0.05531	-0.71609
0.32721	0.50828
0.22521	0.73785
-0.20832	-0.25695
0.14870	-0.25695
0.32721	0.35523
0.25071	0.66132
0.35272	0.94191
-0.02981	0.55929
-0.48884	-1.37929
0.32721	0.35523
0.32721	0.10015
0.22521	-0.05289
0.32721	-0.35899
0.09770	0.89089
-0.00431	0.99292
0.02119	0.55929
0.17421	0.25320
0.17421	-0.66508
-0.28482	0.17668
0.25071	0.40625
0.35272	-0.46102
0.32721	0.35523
0.19971	-0.23145
-0.08081	-0.28246
0.68424	0.55929
0.17421	0.35523
-0.02981	0.94191
-0.00431	0.78886
0.07220	-0.05289
0.12320	-0.46102
0.04670	-0.00188
-0.00431	0.12566
0.35272	0.35523
-0.05531	0.12566
0.14870	-0.33348
0.19971	-0.92016
0.19971	0.40625
0.27621	0.76336
0.12320	0.55929
0.07220	0.53379
0.12320	-0.10391
0.07220	0.20219
0.37822	-0.25695
0.22521	-0.07840
-0.25932	-0.23145
0.19971	0.71234
0.37822	0.35523
0.04670	0.30422
0.12320	0.25320
0.22521	0.17668
0.04670	-0.66508
0.27621	0.20219
-0.08081	0.22769
0.07220	0.27871
0.12320	-0.05289
0.27621	0.45726
0.17421	-0.58856
0.22521	0.76336
0.19971	-0.71609
-0.05531	0.20219
0.09770	1.32453
0.30171	0.81437
0.14870	-0.92016
0.19971	-0.18043
0.12320	0.40625
0.07220	0.30422
0.19971	-0.02739
0.17421	0.63582
0.02119	0.32972
0.30171	0.04914
0.09770	-0.10391
0.04670	0.27871
0.17421	0.61031
0.12320	0.02363
0.17421	-0.48652
0.19971	0.40625
-0.13181	0.63582
0.09770	-0.97117
0.27621	0.15117
0.40372	0.55929
0.35272	0.02363
0.02119	0.35523
-0.13181	0.45726
0.22521	0.22769
1.04126	0.15117
-0.02981	-0.28246
-0.38683	0.35523
0.07220	0.61031
0.09770	0.35523
0.17421	0.45726
0.09770	0.22769
0.22521	0.17668
0.09770	0.35523
0.30171	0.45726
-0.13181	-0.58856
0.32721	-0.46102
0.22521	0.10015
0.09770	0.50828
0.17421	0.02363
0.22521	0.15117
0.19971	1.24800
0.12320	0.83988
0.12320	-1.40480
0.04670	-0.10391
-0.08081	0.66132
0.14870	0.50828
0.17421	0.96742
0.30171	0.12566
0.12320	-0.58856
-0.02981	0.25320
0.22521	0.10015
0.12320	0.43176
0.14870	0.76336
0.09770	-0.00188
0.30171	0.48277
0.14870	-0.51203
0.19971	-0.56305
0.19971	0.17668
0.09770	0.20219
0.07220	0.17668
0.22521	0.17668
0.07220	0.38074
0.14870	0.07465
0.30171	0.27871
0.32721	-0.15492
0.02119	0.58480
0.27621	0.53379
0.02119	0.10015
0.17421	-0.81812
-0.08081	0.17668
0.27621	-0.38449
0.22521	0.25320
0.14870	0.76336
-0.18282	0.66132
0.14870	0.20219
0.63323	0.32972
0.30171	0.17668
-0.02981	0.02363
0.04670	0.17668
0.09770	0.02363
0.12320	-0.10391
0.25071	-0.05289
0.09770	0.12566
0.22521	0.50828
-0.00431	0.50828
0.02119	0.22769
0.30171	-1.78742
0.25071	-1.30277
0.02119	1.14597
0.19971	1.35003
0.32721	1.29902
-0.05531	1.27351
0.17421	0.38074
0.17421	0.30422
0.30171	-0.56305
-0.00431	0.22769
0.09770	-0.84363
0.09770	0.43176
-0.00431	0.10015
0.12320	0.32972
0.09770	0.04914
0.07220	0.35523
0.25071	0.35523
0.19971	0.25320
-0.08081	0.04914
-0.02981	0.22769
0.12320	-0.33348
0.42922	0.25320
0.09770	0.35523
0.12320	0.27871
0.22521	0.07465
0.22521	0.25320
0.09770	-0.38449
0.12320	-0.61406
0.27621	0.99292
-0.10631	0.32972
-0.23382	0.55929
0.12320	-0.12942
0.37822	0.15117
0.32721	0.61031
0.27621	0.63582
0.09770	0.32972
-0.00431	-0.20594
0.25071	0.04914
0.19971	0.02363
0.30171	0.07465
0.07220	-0.00188
0.04670	-0.00188
0.22521	0.07465
0.09770	0.04914
0.14870	0.10015
0.19971	0.12566
0.09770	0.22769
0.17421	0.35523
0.14870	0.53379
0.25071	-0.12942
0.22521	0.68683
0.02119	-0.89465
0.04670	0.15117
0.37822	-0.43551
0.14870	1.06945
0.25071	1.22250
0.14870	0.22769
-0.10631	1.01843
0.09770	-0.25695
0.17421	0.35523
0.17421	0.32972
0.19971	0.10015
0.17421	-0.07840
0.12320	-0.28246
0.14870	-0.51203
0.07220	0.10015
0.12320	0.35523
0.19971	0.04914
0.27621	0.04914
0.04670	0.04914
-0.36133	-0.05289
0.32721	0.04914
0.50573	0.22769
0.30171	0.25320
0.04670	0.30422
0.12320	0.43176
0.25071	0.10015
0.12320	-0.28246
0.09770	0.73785
0.04670	0.32972
0.19971	-0.05289
0.09770	0.20219
0.07220	0.25320
0.14870	0.20219
-0.02981	-0.10391
0.02119	0.07465
0.93925	0.10015
0.22521	-0.05289
-0.08081	0.58480
0.02119	0.45726
-0.08081	-0.15492
0.22521	-0.69059
0.17421	0.20219
0.07220	0.10015
0.19971	-0.38449
-0.00431	0.45726
0.37822	0.96742
0.19971	0.55929
0.19971	0.15117
-0.10631	0.35523
0.14870	0.50828
0.32721	-0.66508
0.30171	0.40625
0.12320	0.40625
0.04670	-0.12942
0.04670	0.32972
0.07220	0.20219
0.22521	-0.30797
0.19971	-0.23145
0.12320	0.45726
0.12320	0.25320
0.07220	-0.07840
0.04670	-0.23145
0.17421	0.35523
0.09770	0.25320
0.14870	0.17668
0.17421	0.25320
0.04670	0.38074
0.22521	0.35523
0.12320	-0.15492
0.09770	-0.30797
0.14870	0.58480
0.19971	1.01843
0.09770	-0.20594
-0.02981	-0.66508
0.14870	0.55929
0.14870	0.35523
0.07220	0.17668
0.22521	0.45726
0.32721	0.32972
0.09770	-0.28246
0.19971	-0.97117
0.22521	0.48277
0.02119	0.32972
0.22521	0.43176
0.09770	0.38074
0.25071	0.53379
0.19971	-0.05289
-0.08081	-0.48652
0.17421	0.10015
0.22521	0.17668
0.22521	-0.00188
0.19971	0.10015
-0.00431	0.04914
0.17421	0.35523
0.12320	0.71234
0.14870	0.55929
0.30171	0.12566
0.07220	-0.69059
-0.10631	-0.43551
0.30171	0.45726
0.25071	0.48277
0.19971	0.68683
0.27621	0.25320
0.07220	0.15117
0.12320	0.07465
0.22521	0.25320
0.12320	-0.41000
0.02119	-0.28246
0.17421	0.04914
0.07220	-0.46102
0.22521	0.55929
0.09770	-0.00188
0.12320	0.45726
0.12320	0.83988
-0.18282	0.25320
0.25071	-0.41000
0.19971	-0.10391
0.22521	0.12566
0.19971	0.12566
0.35272	0.40625
-0.00431	0.63582
-0.05531	-0.30797
0.07220	-0.28246
0.22521	0.61031
-0.05531	0.20219
0.27621	0.55929
0.32721	0.68683
-0.15732	0.83988
0.19971	-0.66508
0.19971	-0.12942
0.17421	-0.81812
0.14870	0.48277
0.04670	0.40625
0.07220	0.17668
0.12320	0.07465
0.04670	-0.20594
0.19971	0.61031
-0.02981	-0.58856
0.25071	0.55929
0.27621	0.76336
0.14870	0.02363
-0.15732	-0.00188
0.22521	0.30422
-0.02981	0.17668
0.37822	-0.25695
0.76074	0.86539
0.37822	0.27871
-0.36133	-0.89465
0.09770	-0.56305
-0.05531	0.32972
0.17421	0.43176
0.17421	0.48277
0.07220	0.15117
0.09770	-0.58856
0.25071	0.48277
0.27621	0.66132
0.22521	0.89089
0.25071	-0.23145
0.07220	-1.45582
0.25071	0.38074
0.12320	-0.76711
0.02119	0.78886
0.07220	0.89089
0.12320	0.45726
0.45472	0.43176
-0.23382	0.40625
0.07220	0.10015
0.04670	0.10015
0.53123	0.61031
0.14870	-0.79262
0.17421	-0.30797
0.02119	-0.05289
0.07220	-0.10391
0.09770	-0.07840
0.30171	0.27871
0.17421	0.32972
0.17421	0.30422
0.12320	0.04914
0.14870	-0.05289
0.19971	0.45726
0.14870	0.45726
-0.20832	0.04914
0.22521	0.15117
0.32721	0.55929
0.14870	-0.71609
0.25071	0.04914
0.19971	-0.48652
0.04670	0.38074
0.12320	0.81437
0.14870	0.43176
0.12320	1.32453
-0.05531	-0.00188
0.27621	-0.23145
-0.05531	-0.38449
0.32721	0.15117
0.32721	0.17668
0.14870	0.35523
-0.05531	-0.20594
0.07220	-0.05289
0.27621	-0.23145
0.12320	-0.38449
0.09770	0.53379
0.14870	0.22769
0.19971	0.02363
0.19971	0.04914
0.22521	0.45726
0.17421	0.35523
-0.25932	0.30422
-0.02981	0.32972
0.73524	0.30422
0.32721	0.02363
0.02119	-0.10391
-0.00431	0.17668
0.25071	0.17668
-0.08081	0.25320
0.19971	0.20219
0.22521	0.32972
-0.10631	0.12566
0.30171	-0.05289
0.25071	0.27871
0.12320	-0.30797
0.17421	-0.38449
0.22521	0.58480
0.14870	-0.12942
-0.08081	0.30422
0.30171	0.68683
0.09770	0.66132
0.30171	0.32972
0.12320	0.02363
-0.08081	0.07465
0.12320	-0.28246
0.07220	0.38074
0.22521	-0.43551
0.30171	-0.07840
0.35272	0.35523
0.14870	0.32972
0.22521	0.25320
0.07220	0.71234
0.22521	0.94191
-0.00431	-1.07320
0.14870	-2.62918
0.14870	0.38074
0.14870	1.17148
0.12320	1.57960
0.14870	-1.07320
0.14870	0.86539
-0.00431	0.68683
0.22521	0.35523
0.09770	0.61031
0.17421	-0.58856
0.27621	-0.07840
-0.08081	0.12566
0.17421	0.17668
0.22521	-0.12942
0.30171	-0.46102
-0.10631	0.32972
-0.15732	0.35523
0.53123	0.32972
0.53123	0.12566
-0.08081	0.12566
-0.00431	0.20219
0.07220	0.17668
0.19971	0.40625
0.02119	-0.05289
-0.20832	-0.61406
0.22521	0.48277
0.32721	0.86539
0.30171	-0.66508
0.32721	0.55929
-0.10631	0.12566
0.14870	0.53379
0.14870	0.32972
0.27621	0.55929
0.19971	-0.61406
0.17421	0.10015
0.14870	0.22769
0.22521	0.38074
0.12320	0.10015
0.04670	0.22769
0.07220	-0.00188
0.07220	-0.53754
0.22521	0.12566
0.19971	-0.53754
0.17421	0.55929
-0.02981	0.38074
0.30171	0.81437
-0.20832	0.73785
0.19971	0.53379
0.27621	-0.81812
0.22521	-0.23145
-0.05531	0.61031
0.17421	-0.38449
0.22521	-0.86914
0.12320	1.04394
0.14870	0.89089
0.22521	-0.66508
0.27621	0.17668
0.09770	0.83988
-0.00431	0.27871
0.09770	0.17668
0.09770	0.32972
-0.00431	-0.20594
0.32721	-0.35899
0.25071	0.22769
0.17421	-0.15492
-0.05531	0.58480
0.17421	0.86539
0.14870	-0.23145
0.35272	-1.12422
0.12320	-0.02739
0.19971	0.83988
0.12320	0.45726
-0.38683	-0.07840
0.42922	0.48277
0.58223	0.45726
0.09770	0.27871
0.02119	0.07465
0.07220	0.25320
0.12320	0.07465
0.17421	0.17668
0.37822	0.32972
0.02119	-1.14973
0.19971	0.04914
0.14870	0.61031
0.14870	-0.15492
0.17421	0.76336
0.30171	0.25320
-0.08081	0.43176
0.12320	0.45726
0.35272	0.27871
0.02119	-0.28246
0.32721	0.04914
0.07220	0.25320
-0.05531	0.17668
0.42922	0.10015
-0.25932	0.04914
0.42922	0.32972
0.19971	0.12566
0.14870	-0.02739
0.09770	-0.10391
0.04670	0.17668
0.04670	0.73785
-0.05531	0.55929
0.27621	-0.23145
0.12320	-0.63957
0.22521	0.48277
0.07220	-0.51203
0.25071	0.50828
0.17421	-0.02739
0.22521	0.55929
-0.13181	0.22769
0.30171	0.76336
0.09770	1.01843
0.27621	-0.43551
-0.05531	-1.07320
0.04670	-0.20594
0.65874	0.32972
0.40372	0.68683
-0.18282	0.53379
-0.02981	0.32972
0.12320	0.07465
-0.43783	-0.10391
-0.15732	0.10015
0.40372	0.25320
0.60773	0.27871
0.12320	0.04914
0.09770	-0.18043
0.25071	-0.10391
0.32721	0.02363
-0.08081	0.45726
0.17421	0.43176
0.14870	0.22769
0.19971	-0.81812
0.17421	0.68683
0.25071	0.73785
0.09770	-0.35899
0.04670	0.15117
-0.00431	0.35523
-0.00431	0.20219
0.17421	0.45726
0.19971	0.68683
0.12320	-0.74160
0.25071	0.20219
0.14870	-0.30797
0.07220	-0.15492
0.25071	0.53379
0.17421	-0.02739
0.22521	0.20219
0.27621	0.40625
0.02119	0.40625
0.22521	0.63582
0.07220	0.07465
0.09770	0.32972
0.09770	0.86539
0.12320	-0.35899
0.12320	-0.81812
0.25071	0.32972
0.12320	-0.61406
0.19971	0.40625
-0.18282	0.07465
-0.10631	0.10015
0.63323	0.27871
0.27621	0.27871
-0.02981	0.30422
0.14870	0.04914
-0.15732	0.27871
0.37822	-0.25695
0.30171	0.76336
0.09770	0.50828
0.17421	-0.10391
0.17421	0.04914
0.09770	0.15117
0.17421	0.15117
0.12320	0.38074
0.12320	0.45726
0.09770	0.30422
-0.00431	-0.05289
0.27621	0.12566
0.12320	0.20219
0.17421	0.35523
0.19971	0.12566
0.17421	0.12566
-0.18282	0.35523
0.09770	-0.94566
0.25071	0.35523
0.19971	0.17668
0.19971	0.43176
0.19971	0.02363
0.17421	-0.41000
0.09770	0.50828
0.22521	0.30422
0.04670	0.32972
0.22521	0.58480
0.07220	0.22769
0.12320	-0.41000
-0.05531	-0.20594
0.48022	0.58480
0.19971	0.86539
0.04670	-0.18043
0.12320	-0.41000
0.02119	-0.05289
0.22521	0.48277
0.25071	-0.23145
0.32721	0.53379
-0.08081	0.02363
0.30171	0.02363
-0.38683	0.12566
0.58223	0.76336
0.53123	-0.56305
-0.25932	0.81437
-0.08081	0.15117
0.14870	0.53379
0.14870	0.43176
0.17421	0.22769
0.27621	0.07465
0.22521	-0.05289
0.09770	-0.35899
0.02119	-0.12942
0.07220	0.15117
0.19971	0.12566
0.17421	0.10015
0.19971	0.35523
0.22521	-0.53754
-0.02981	0.32972
0.12320	0.35523
0.14870	0.40625
0.19971	0.25320
0.14870	0.38074
0.09770	-0.63957
0.12320	-0.25695
0.22521	0.68683
0.19971	0.35523
-0.05531	-0.02739
0.12320	-0.66508
0.22521	0.73785
0.19971	0.89089
-0.18282	0.38074
0.42922	-0.25695
0.22521	-0.07840
0.14870	0.04914
0.12320	0.22769
0.14870	0.50828
0.07220	0.35523
0.09770	-1.55785
-0.05531	-0.79262
0.17421	0.71234
0.19971	-0.18043
0.25071	0.91640
0.22521	0.86539
0.17421	0.63582
-0.23382	0.17668
0.07220	-0.76711
0.27621	-0.15492
0.40372	0.53379
0.22521	0.35523
0.19971	0.02363
0.07220	0.73785
0.07220	1.01843
0.07220	-0.92016
0.02119	-0.23145
0.14870	0.40625
0.12320	0.55929
0.14870	-0.66508
0.22521	0.02363
0.07220	0.20219
-0.10631	0.30422
0.48022	0.25320
0.42922	0.22769
-0.28482	0.10015
-0.18282	0.45726
0.22521	0.32972
0.27621	-0.35899
0.32721	-0.86914
-0.20832	0.63582
0.19971	0.55929
0.04670	0.15117
0.30171	0.22769
0.17421	0.43176
0.35272	0.55929
0.17421	0.27871
0.12320	-0.38449
0.09770	-0.23145
0.04670	-0.30797
0.07220	0.58480
0.22521	0.66132
0.12320	-0.43551
0.12320	-0.05289
-0.20832	1.19699
0.19971	0.53379
0.40372	0.43176
0.22521	0.07465
0.17421	-0.00188
0.17421	-0.56305
0.14870	0.12566
0.19971	0.66132
0.07220	0.35523
0.14870	-0.97117
0.14870	-0.43551
0.14870	-0.20594
0.17421	0.71234
0.19971	0.76336
0.09770	0.50828
0.32721	0.45726
-0.10631	0.86539
0.17421	0.12566
0.25071	-0.53754
-0.15732	-1.71090
0.22521	0.96742
0.37822	0.66132
0.22521	0.38074
-0.20832	0.04914
-0.18282	0.27871
0.83725	0.48277
0.55673	0.43176
-0.18282	-0.00188
-0.28482	-0.25695
0.14870	-0.00188
0.19971	0.12566
0.19971	0.04914
0.12320	0.10015
0.12320	-0.05289
0.04670	-0.00188
0.27621	0.35523
0.30171	0.15117
0.04670	0.35523
0.02119	0.32972
0.32721	0.55929
0.27621	0.04914
0.07220	0.55929
-0.13181	-1.58336
0.17421	0.58480
0.32721	0.73785
0.12320	0.15117
0.07220	0.50828
0.17421	1.01843
0.12320	-1.27726
0.09770	-0.28246
0.17421	0.50828
0.17421	0.12566
0.04670	0.25320
0.22521	0.40625
0.12320	0.45726
-0.10631	-0.35899
0.32721	0.25320
0.22521	0.10015
0.02119	-0.10391
0.32721	0.15117
0.22521	0.38074
0.19971	0.30422
0.19971	0.25320
0.17421	-0.18043
0.07220	-0.05289
0.22521	0.15117
0.09770	0.17668
-0.23382	0.12566
-0.08081	0.20219
0.60773	0.17668
0.68424	0.22769
0.04670	0.22769
-0.05531	0.12566
-0.02981	0.20219
0.07220	-0.76711
-0.23382	0.27871
0.12320	0.78886
0.19971	0.58480
0.19971	-0.15492
0.25071	0.25320
0.12320	0.12566
0.25071	0.07465
0.22521	0.22769
0.07220	0.58480
0.09770	-0.00188
0.04670	-0.18043
0.19971	0.10015
0.27621	0.30422
0.07220	-0.79262
0.17421	0.30422
0.07220	0.48277
-0.02981	0.30422
0.25071	-0.35899
0.19971	-0.69059
0.25071	1.09496
0.19971	0.76336
0.22521	0.17668
-0.28482	0.32972
0.19971	0.58480
0.19971	0.02363
0.30171	-0.15492
0.17421	0.58480
0.17421	0.32972
0.19971	-1.17523
0.04670	0.20219
0.22521	0.32972
0.14870	-0.63957
0.17421	0.43176
0.19971	0.53379
0.09770	0.17668
0.17421	-0.10391
0.25071	0.22769
-0.20832	0.27871
0.32721	0.25320
0.04670	0.02363
0.17421	0.12566
0.09770	0.15117
0.22521	0.17668
0.37822	0.27871
0.14870	0.04914
-0.00431	0.22769
-0.02981	0.07465
0.09770	0.25320
0.37822	0.10015
0.22521	0.15117
0.02119	0.10015
0.12320	0.27871
0.25071	0.30422
0.09770	-0.18043
0.09770	0.27871
0.14870	-0.20594
0.25071	0.61031
0.07220	0.17668
-0.05531	0.50828
0.22521	-2.22105
0.22521	0.55929
0.22521	0.78886
0.17421	0.94191
-0.05531	0.22769
0.14870	-0.20594
0.35272	0.86539
0.25071	-0.48652
0.02119	0.45726
0.07220	0.40625
0.12320	0.04914
0.27621	0.35523
0.17421	-0.38449
0.25071	0.15117
0.27621	-0.02739
0.09770	-0.20594
-0.20832	0.35523
0.19971	-0.00188
0.09770	0.20219
0.17421	0.25320
0.09770	0.25320
0.27621	0.38074
0.07220	0.45726
0.19971	0.10015
0.09770	0.35523
-0.02981	0.61031
0.25071	-0.51203
0.14870	-1.20074
0.07220	-0.46102
-0.10631	0.91640
0.73524	0.91640
0.30171	0.66132
-0.10631	0.66132
0.02119	0.50828
0.02119	0.27871
0.22521	0.35523
0.12320	-0.02739
0.04670	-0.74160
0.30171	-1.22625
0.30171	0.43176
0.22521	0.71234
-0.13181	0.30422
0.17421	-0.25695
0.07220	0.50828
0.22521	0.27871
0.12320	0.15117
0.19971	0.27871
0.17421	0.40625
0.09770	0.55929
0.19971	0.50828
0.14870	-0.79262
0.25071	-0.35899
0.17421	0.50828
0.12320	0.66132
0.14870	-0.12942
0.09770	0.43176
0.17421	-0.58856
0.14870	-0.43551
0.14870	0.83988
0.09770	-0.43551
0.19971	0.76336
0.04670	-1.30277
0.32721	0.10015
-0.20832	0.27871
-0.15732	0.89089
0.37822	0.81437
0.27621	0.50828
-0.05531	0.12566
0.42922	0.10015
0.25071	-0.46102
0.09770	0.20219
0.14870	0.61031
0.07220	-0.66508
0.14870	-0.48652
0.07220	0.35523
-0.00431	-0.38449
0.25071	0.27871
-0.15732	0.50828
0.32721	0.32972
0.07220	0.48277
0.12320	0.22769
0.22521	0.40625
0.32721	-0.02739
0.45472	0.10015
0.19971	0.04914
0.14870	0.20219
-0.05531	0.22769
0.02119	0.17668
0.17421	0.25320
0.22521	0.02363
0.12320	-0.02739
-0.18282	0.50828
0.40372	0.66132
0.42922	-0.07840
0.25071	-1.40480
-0.00431	-0.41000
-0.05531	0.73785
0.19971	0.94191
0.17421	0.43176
0.09770	0.99292
0.14870	0.30422
0.12320	0.04914
0.07220	-0.56305
0.25071	0.12566
0.14870	0.78886
0.12320	0.32972
0.17421	-0.07840
0.19971	-0.58856
0.02119	0.71234
0.09770	0.25320
0.12320	0.20219
0.22521	0.10015
0.25071	0.35523
-0.15732	-0.05289
0.07220	-0.41000
0.32721	0.55929
0.19971	0.15117
0.19971	0.27871
0.14870	0.17668
0.14870	0.43176
0.17421	-0.89465
0.04670	0.30422
0.17421	0.58480
-0.18282	0.35523
0.27621	-0.10391
