0.07220	0.22769
0.19971	0.15117
0.12320	0.15117
0.07220	0.10015
0.07220	0.27871
0.19971	0.17668
0.17421	0.15117
0.14870	0.15117
0.12320	0.15117
0.07220	0.25320
0.14870	0.04914
0.12320	0.04914
0.09770	0.35523
0.17421	0.17668
0.14870	0.17668
0.07220	0.22769
0.22521	0.07465
0.09770	0.10015
0.09770	-0.00188
0.19971	0.27871
0.07220	0.38074
0.17421	0.15117
0.17421	-0.10391
0.07220	0.25320
0.17421	0.22769
0.19971	0.15117
0.12320	0.12566
0.07220	0.17668
0.14870	0.45726
0.19971	0.12566
0.17421	-0.48652
0.14870	-0.20594
0.22521	0.30422
0.14870	0.40625
0.07220	0.43176
0.14870	0.38074
0.19971	0.30422
0.12320	0.25320
0.07220	0.17668
0.19971	-0.23145
0.14870	-0.00188
0.04670	0.30422
0.19971	0.17668
0.17421	0.15117
0.14870	0.27871
0.25071	0.15117
0.12320	0.02363
0.17421	0.15117
0.17421	-0.20594
0.12320	0.17668
0.14870	0.27871
0.14870	0.17668
0.12320	0.20219
0.09770	0.12566
0.22521	0.17668
0.14870	0.20219
0.14870	0.20219
0.12320	0.04914
0.14870	0.17668
0.14870	0.22769
0.12320	0.15117
0.19971	-0.00188
0.09770	0.22769
0.22521	0.15117
0.09770	0.40625
0.14870	-0.00188
0.14870	0.04914
0.14870	0.22769
0.12320	0.32972
0.14870	0.15117
0.25071	0.07465
0.07220	0.02363
0.14870	-0.10391
0.12320	0.32972
0.09770	0.27871
0.22521	0.15117
0.14870	0.22769
0.12320	0.22769
0.17421	0.12566
0.17421	0.07465
0.07220	-0.10391
0.19971	0.02363
0.14870	0.27871
0.17421	0.25320
0.19971	-0.10391
0.09770	0.30422
0.14870	0.30422
0.17421	-0.05289
0.07220	0.15117
0.17421	0.20219
0.19971	0.10015
0.12320	0.17668
0.14870	0.22769
0.14870	0.12566
0.09770	0.12566
0.14870	0.20219
0.14870	0.15117
0.07220	0.22769
0.12320	0.12566
0.22521	0.15117
0.09770	-0.25695
0.12320	0.20219
0.12320	0.22769
0.07220	0.22769
0.12320	0.20219
0.25071	0.15117
0.09770	0.40625
0.14870	0.10015
0.12320	-0.25695
0.09770	0.32972
0.19971	0.15117
0.07220	-0.12942
0.14870	0.25320
0.19971	0.25320
0.07220	0.32972
0.17421	0.20219
0.22521	0.12566
0.09770	0.17668
0.14870	0.07465
0.14870	0.12566
0.17421	0.10015
0.17421	0.02363
0.12320	0.15117
0.17421	0.22769
0.22521	0.22769
0.09770	0.30422
0.12320	0.15117
0.19971	0.10015
0.14870	-0.23145
0.12320	0.15117
0.09770	0.38074
0.14870	0.35523
0.22521	0.22769
0.19971	0.10015
0.12320	0.20219
0.07220	0.32972
0.14870	-0.00188
0.22521	0.04914
0.14870	0.17668
0.04670	0.17668
0.12320	0.17668
0.19971	0.25320
0.12320	0.15117
0.09770	0.02363
0.07220	0.10015
0.17421	0.43176
0.12320	0.07465
0.07220	-0.00188
0.17421	0.20219
0.19971	0.25320
0.14870	0.32972
0.17421	0.27871
0.22521	0.20219
0.12320	0.10015
0.14870	0.17668
0.12320	-0.30797
0.19971	-0.05289
0.12320	0.32972
0.09770	0.25320
0.14870	0.22769
0.19971	0.17668
0.12320	0.20219
0.09770	0.22769
0.17421	0.15117
0.19971	0.10015
0.14870	0.12566
0.09770	0.15117
0.12320	0.27871
0.14870	0.15117
0.22521	-0.15492
0.07220	0.17668
0.07220	-0.05289
0.14870	0.25320
0.22521	0.32972
0.17421	0.25320
0.14870	0.17668
0.04670	0.27871
0.14870	-0.18043
0.19971	0.12566
0.19971	-0.05289
0.12320	0.30422
0.02119	0.35523
0.17421	0.27871
0.22521	0.15117
0.14870	0.07465
0.12320	0.12566
0.07220	0.15117
0.14870	0.20219
0.17421	0.17668
0.22521	-0.05289
0.09770	0.04914
0.14870	0.40625
0.22521	0.35523
0.17421	-0.12942
0.14870	0.25320
0.07220	0.25320
0.22521	0.10015
0.14870	0.02363
0.07220	0.17668
0.09770	0.22769
0.17421	0.32972
0.12320	0.12566
0.07220	0.15117
0.14870	0.20219
0.22521	0.20219
0.14870	0.12566
0.07220	0.15117
0.12320	0.27871
0.12320	-0.23145
0.07220	-0.05289
0.17421	0.35523
0.25071	0.35523
0.09770	0.25320
0.14870	0.27871
0.19971	-0.05289
0.14870	0.02363
0.14870	0.45726
0.19971	-0.18043
0.14870	0.30422
0.14870	0.38074
0.22521	0.22769
0.02119	-0.15492
0.12320	0.10015
0.22521	0.17668
0.09770	0.25320
0.14870	0.25320
0.14870	0.07465
0.09770	0.25320
0.19971	0.10015
0.12320	0.12566
0.09770	0.10015
0.19971	0.12566
0.09770	0.25320
0.17421	0.04914
0.14870	0.04914
0.12320	0.32972
0.22521	0.07465
0.12320	0.12566
0.12320	0.35523
0.19971	0.30422
0.12320	0.04914
0.09770	-0.10391
0.22521	0.15117
0.04670	0.25320
0.14870	0.30422
0.22521	0.22769
0.12320	0.38074
0.14870	-0.05289
0.19971	0.27871
0.07220	-0.15492
0.12320	-0.28246
0.19971	0.35523
0.12320	0.53379
0.25071	0.25320
0.07220	0.25320
0.12320	0.20219
0.12320	0.04914
0.07220	0.15117
0.14870	0.04914
0.22521	0.10015
0.14870	0.04914
0.07220	0.20219
0.19971	0.10015
0.14870	0.12566
0.09770	0.12566
0.17421	0.25320
0.19971	-0.07840
0.12320	0.10015
0.07220	0.25320
0.17421	0.25320
0.22521	0.25320
0.22521	0.20219
0.12320	0.27871
0.07220	0.15117
0.07220	0.20219
0.17421	-0.02739
0.22521	0.04914
0.12320	0.40625
0.07220	0.20219
0.14870	0.17668
0.19971	-0.33348
0.19971	0.20219
0.14870	0.17668
0.07220	0.22769
0.07220	0.27871
0.12320	-0.41000
0.22521	0.27871
0.14870	0.32972
0.12320	0.25320
0.09770	0.12566
0.09770	0.20219
0.27621	-0.81812
0.14870	0.35523
0.12320	0.53379
0.07220	0.43176
0.14870	0.17668
0.19971	0.15117
0.14870	0.10015
0.07220	0.10015
0.14870	0.07465
0.12320	0.04914
0.07220	0.04914
0.22521	0.22769
0.12320	0.15117
0.07220	0.07465
0.14870	0.20219
0.17421	0.02363
0.09770	0.30422
0.14870	0.27871
0.22521	0.20219
0.12320	-0.56305
0.09770	0.32972
0.12320	0.55929
0.19971	-0.00188
0.14870	-0.02739
0.09770	0.45726
0.17421	0.35523
0.12320	0.20219
0.19971	0.02363
0.17421	0.12566
0.09770	0.22769
0.17421	0.20219
0.17421	0.10015
0.07220	0.15117
0.14870	0.27871
0.19971	0.04914
0.17421	-0.10391
0.04670	-0.28246
0.17421	0.25320
0.19971	0.35523
0.17421	0.07465
0.09770	0.12566
0.12320	0.32972
0.14870	0.35523
0.07220	0.53379
0.14870	0.17668
0.19971	-0.07840
0.12320	0.12566
0.07220	0.17668
0.12320	0.02363
0.12320	-0.30797
0.04670	0.63582
0.22521	0.48277
0.07220	0.30422
0.09770	0.20219
0.19971	0.10015
0.09770	0.12566
0.14870	0.07465
0.22521	0.07465
0.07220	0.12566
0.19971	0.10015
0.14870	-0.00188
0.07220	0.12566
0.22521	0.07465
0.14870	0.25320
0.17421	0.27871
0.19971	0.15117
0.12320	0.12566
0.02119	0.17668
0.14870	0.15117
0.17421	0.10015
0.04670	0.17668
0.14870	0.25320
0.12320	0.07465
0.07220	0.12566
0.17421	0.25320
0.17421	0.17668
0.09770	0.20219
0.22521	0.10015
0.12320	0.12566
0.09770	0.12566
0.19971	0.07465
0.12320	0.25320
0.14870	0.15117
0.14870	0.17668
0.09770	0.53379
0.12320	0.17668
0.12320	-0.84363
0.09770	0.20219
0.19971	0.32972
0.14870	0.38074
0.14870	0.22769
0.19971	0.22769
0.17421	-0.15492
0.07220	0.20219
0.22521	0.30422
0.12320	0.25320
0.17421	0.25320
0.22521	0.10015
0.17421	0.12566
0.09770	0.38074
0.14870	0.02363
0.22521	-0.18043
0.14870	0.22769
0.07220	0.35523
0.12320	0.22769
0.19971	0.10015
0.12320	0.17668
0.07220	0.27871
0.19971	0.25320
0.17421	0.04914
0.07220	-0.20594
0.07220	0.30422
0.19971	0.25320
0.22521	0.12566
0.14870	0.22769
0.09770	0.32972
0.14870	0.12566
0.19971	-0.00188
0.14870	0.15117
0.04670	0.04914
0.17421	0.04914
0.12320	0.27871
0.09770	0.27871
0.22521	-0.05289
0.14870	0.38074
0.07220	0.43176
0.14870	-0.35899
0.17421	-0.48652
0.07220	0.30422
0.12320	0.45726
0.19971	0.17668
0.12320	0.25320
0.07220	0.25320
0.22521	0.15117
0.14870	0.02363
0.09770	0.15117
0.14870	0.15117
0.22521	0.04914
0.12320	0.04914
0.07220	0.15117
0.17421	0.20219
0.22521	0.20219
0.14870	0.17668
0.09770	-0.00188
0.14870	0.04914
0.12320	0.07465
0.12320	0.32972
0.12320	0.22769
0.25071	0.17668
0.12320	0.25320
0.04670	0.25320
0.19971	0.17668
0.09770	0.10015
0.14870	0.20219
0.22521	0.15117
0.17421	0.04914
0.14870	0.15117
0.19971	0.07465
0.17421	-0.02739
0.07220	0.17668
0.17421	0.22769
0.12320	0.12566
0.09770	0.17668
0.14870	0.15117
0.14870	-0.02739
0.07220	0.02363
0.09770	0.20219
0.22521	0.20219
0.07220	0.12566
0.22521	0.17668
0.14870	0.10015
0.14870	0.22769
0.19971	0.30422
0.09770	0.30422
0.14870	0.12566
0.17421	0.12566
0.04670	0.20219
0.14870	0.04914
0.14870	0.10015
0.09770	0.15117
0.22521	0.10015
0.14870	0.20219
0.12320	0.17668
0.22521	0.27871
0.07220	0.27871
0.14870	-0.20594
0.14870	0.17668
0.07220	0.30422
0.14870	-0.10391
0.14870	0.07465
0.04670	0.20219
0.14870	0.32972
0.22521	0.04914
0.12320	0.22769
0.17421	0.30422
0.25071	0.20219
0.12320	0.04914
0.07220	0.02363
0.14870	0.17668
0.22521	0.17668
0.12320	0.04914
0.09770	0.12566
0.14870	0.20219
0.22521	0.22769
0.22521	0.04914
0.17421	0.04914
0.09770	0.17668
0.12320	0.30422
0.22521	0.00000
0.09770	0.04914
0.09770	-0.05289
0.19971	-0.02739
0.12320	0.20219
0.12320	0.25320
0.22521	0.32972
0.14870	0.17668
0.09770	0.15117
0.12320	0.22769
0.14870	0.15117
0.12320	-0.05289
0.12320	0.20219
0.12320	0.27871
0.09770	0.20219
0.17421	0.10015
0.17421	0.04914
0.12320	0.12566
0.19971	0.17668
0.07220	0.10015
0.22521	0.15117
0.14870	0.10015
0.12320	-0.15492
0.19971	0.27871
0.07220	0.30422
0.12320	0.35523
0.14870	0.20219
0.09770	0.10015
0.19971	0.12566
0.19971	0.04914
0.07220	0.10015
0.17421	0.22769
0.12320	0.27871
0.04670	0.17668
0.17421	-0.05289
0.22521	0.30422
0.07220	0.22769
0.14870	0.25320
0.12320	-0.25695
0.09770	-0.05289
0.22521	0.45726
0.14870	0.40625
0.07220	0.30422
0.12320	-0.43551
0.19971	0.45726
0.12320	0.25320
0.09770	0.15117
0.17421	0.20219
0.12320	0.22769
0.09770	0.10015
0.12320	0.02363
0.22521	0.07465
0.17421	0.04914
0.09770	0.02363
0.12320	0.12566
0.19971	0.20219
0.12320	0.20219
0.09770	0.17668
0.17421	-0.00188
0.22521	0.30422
0.12320	0.30422
0.12320	0.15117
0.19971	0.17668
0.14870	0.04914
0.09770	0.20219
0.14870	0.32972
0.22521	0.10015
0.14870	0.02363
0.14870	-0.02739
0.22521	0.07465
0.14870	0.17668
0.07220	0.17668
0.07220	0.22769
0.14870	0.25320
0.22521	0.20219
0.14870	0.30422
0.07220	0.02363
0.09770	0.12566
0.19971	0.17668
0.17421	0.04914
0.07220	0.02363
0.14870	0.04914
0.14870	0.25320
0.04670	0.10015
0.14870	0.25320
0.25071	0.50828
0.14870	0.12566
0.07220	-0.07840
0.14870	0.12566
0.17421	0.22769
0.19971	0.30422
0.17421	0.22769
0.07220	-0.41000
0.14870	-0.10391
0.19971	0.48277
0.14870	0.38074
0.09770	0.25320
0.14870	0.20219
0.19971	0.22769
0.14870	0.20219
0.14870	0.12566
0.12320	-0.02739
0.09770	0.10015
0.22521	0.15117
0.12320	-0.00188
0.07220	0.07465
0.19971	0.12566
0.14870	0.38074
0.07220	0.04914
0.09770	0.15117
0.14870	0.15117
0.14870	0.27871
0.09770	0.12566
0.14870	0.07465
0.19971	0.35523
0.12320	0.43176
0.07220	-0.02739
0.17421	-0.18043
0.09770	-0.05289
0.09770	-0.00188
0.17421	0.45726
0.22521	0.35523
0.09770	0.61031
0.07220	0.20219
0.17421	0.48277
0.25071	0.12566
0.14870	-0.94566
0.17421	0.40625
0.17421	0.50828
0.12320	0.53379
0.09770	-0.23145
0.19971	0.32972
0.12320	-0.46102
0.09770	0.17668
0.17421	0.86539
0.22521	0.22769
0.14870	-1.12422
0.09770	-1.27726
0.09770	1.24800
0.09770	1.09496
0.07220	-0.28246
0.14870	1.14597
0.19971	1.24800
0.09770	-0.66508
0.14870	-0.69059
0.22521	-0.86914
0.17421	2.67644
0.07220	-0.74160
0.19971	-1.27726
0.12320	0.58480
0.07220	0.83988
0.17421	1.45206
0.17421	0.81437
0.04670	-0.53754
0.45472	-0.61406
0.42922	0.78886
0.14870	0.71234
-0.00431	-0.10391
-0.02981	-0.66508
0.27621	-0.02739
0.09770	-0.00188
-0.00431	-0.07840
-0.02981	-0.76711
-0.18282	0.66132
0.02119	0.78886
0.17421	0.76336
1.19427	-0.18043
0.40372	-0.25695
0.27621	0.32972
-0.31033	0.45726
-0.13181	0.61031
0.81175	0.27871
-0.41233	1.04394
-0.36133	-2.80773
0.60773	-0.23145
0.19971	0.32972
0.04670	0.94191
-0.13181	-0.38449
-0.00431	-0.02739
0.27621	1.65613
0.17421	0.94191
-0.05531	-0.30797
-0.10631	-2.42511
0.83725	0.91640
0.68424	-0.66508
-0.48884	0.96742
0.81175	0.63582
0.88825	0.76336
-0.15732	0.50828
0.17421	0.38074
-0.08081	-0.25695
0.12320	0.66132
0.19971	0.10015
-0.28482	-1.65988
-0.64185	-0.53754
-0.08081	-0.33348
0.30171	0.61031
0.32721	0.73785
0.42922	-0.30797
0.48022	0.17668
0.09770	0.30422
0.12320	0.40625
0.32721	0.73785
0.07220	-0.02739
0.35272	-1.17523
0.17421	-0.05289
0.02119	0.81437
-0.00431	0.83988
0.81175	0.55929
0.42922	0.43176
-0.13181	-0.15492
-0.43783	0.02363
0.09770	0.66132
0.17421	1.42656
0.12320	-0.46102
0.17421	-2.04250
0.02119	-1.68539
0.14870	0.68683
0.07220	0.91640
0.63323	0.81437
0.32721	1.52859
-0.02981	1.14597
0.04670	0.55929
0.04670	-1.88945
-0.05531	-1.17523
0.68424	0.55929
0.27621	1.22250
0.02119	0.27871
-0.18282	0.20219
0.02119	0.76336
0.35272	-0.18043
0.07220	0.04914
0.14870	0.15117
0.12320	0.78886
0.07220	1.60511
0.19971	0.48277
0.27621	-0.41000
0.07220	-0.43551
-0.02981	-1.12422
0.04670	-0.51203
0.40372	0.50828
0.17421	0.48277
0.42922	0.07465
0.02119	0.22769
-0.23382	-0.02739
-0.10631	0.71234
0.02119	0.73785
0.76074	0.61031
0.27621	-0.20594
0.22521	-0.48652
-0.41233	0.25320
0.14870	0.07465
0.37822	0.15117
-0.84586	0.12566
0.55673	0.40625
0.63323	0.35523
0.22521	0.07465
-0.33583	-0.48652
-0.69285	-0.00188
-0.02981	0.63582
1.14327	1.09496
0.37822	-0.35899
0.12320	-0.48652
-0.20832	0.32972
0.09770	0.27871
0.42922	0.15117
0.07220	0.55929
0.14870	0.66132
-0.00431	0.76336
0.09770	-0.41000
0.07220	-0.48652
-0.08081	-2.62918
0.45472	0.76336
0.14870	1.06945
0.02119	0.99292
0.17421	0.78886
0.09770	-0.97117
0.19971	0.86539
0.14870	0.04914
0.12320	0.30422
0.19971	1.06945
0.12320	-1.02219
0.09770	0.91640
0.09770	0.86539
0.17421	-1.14973
0.40372	-2.60367
0.17421	1.63062
0.07220	2.21730
0.12320	-2.45062
0.14870	0.71234
0.17421	0.73785
-0.28482	0.32972
0.55673	0.40625
0.65874	0.68683
0.07220	0.30422
-0.05531	0.12566
0.02119	-0.02739
0.07220	0.35523
0.19971	0.22769
-0.05531	0.02363
0.14870	-0.41000
-0.00431	-0.76711
0.17421	-0.12942
1.01576	-0.02739
0.40372	0.45726
-0.13181	0.32972
-0.48884	0.73785
0.70974	0.63582
0.17421	0.15117
-0.00431	-0.30797
0.19971	-0.38449
0.12320	1.01843
-0.00431	0.55929
0.14870	-0.38449
0.27621	0.15117
0.04670	0.45726
0.25071	0.27871
0.32721	0.73785
-0.10631	-0.05289
-0.02981	-0.07840
0.42922	-0.92016
-0.66735	0.45726
0.58223	-1.17523
0.76074	-0.48652
0.09770	0.96742
-0.15732	1.04394
-0.13181	0.22769
0.09770	-0.25695
0.17421	0.86539
0.22521	0.58480
0.19971	0.10015
0.30171	-1.07320
0.17421	0.40625
0.02119	-0.41000
0.25071	0.50828
0.14870	0.35523
0.12320	0.07465
-0.02981	-0.00188
0.07220	0.30422
0.27621	0.45726
0.50573	0.07465
0.27621	-0.25695
0.02119	0.30422
-0.36133	0.40625
0.12320	-0.33348
0.32721	0.30422
0.14870	0.61031
0.58223	-0.15492
0.65874	0.12566
-0.13181	0.25320
-0.28482	0.02363
0.12320	0.12566
0.02119	0.35523
-0.00431	0.04914
-0.10631	-0.38449
0.76074	0.48277
0.50573	0.50828
0.04670	-0.25695
-0.08081	0.27871
0.19971	0.15117
0.12320	-0.12942
0.07220	0.30422
-0.18282	0.55929
0.55673	0.12566
0.22521	0.12566
0.14870	0.38074
-0.28482	1.06945
0.22521	0.17668
0.32721	-2.90976
0.22521	-0.00188
0.12320	1.91120
0.14870	0.17668
0.07220	0.99292
0.17421	0.73785
0.07220	0.76336
0.04670	0.27871
0.17421	-0.18043
0.12320	-0.15492
0.22521	-2.14453
0.04670	0.45726
0.17421	0.76336
0.25071	-0.20594
-0.05531	0.27871
0.25071	0.73785
0.17421	0.27871
0.19971	-0.07840
-0.15732	-0.28246
0.17421	0.02363
-0.28482	0.55929
0.83725	0.83988
0.37822	0.17668
-0.00431	-0.02739
-0.05531	0.07465
-0.18282	-0.07840
0.04670	-0.05289
0.22521	-0.10391
0.02119	0.30422
0.42922	0.22769
0.12320	0.45726
0.12320	0.10015
0.02119	-0.12942
0.96476	-0.33348
0.04670	0.53379
-0.18282	0.55929
-0.10631	0.04914
0.12320	0.15117
0.27621	0.27871
0.12320	0.32972
-0.00431	0.73785
0.14870	-0.28246
0.17421	-0.23145
-0.08081	-0.43551
0.30171	-2.62918
0.07220	0.78886
0.37822	1.22250
0.45472	1.42656
0.07220	1.09496
0.19971	0.55929
0.14870	0.02363
-0.15732	0.43176
-0.25932	-1.50683
0.78624	0.71234
0.32721	0.96742
-0.05531	-0.00188
-0.00431	-0.28246
0.12320	-0.41000
0.09770	0.32972
0.02119	0.50828
0.19971	0.07465
0.25071	-0.07840
0.22521	0.73785
0.12320	-0.48652
0.12320	0.35523
0.22521	0.20219
0.09770	0.40625
-0.02981	0.58480
0.22521	0.53379
0.45472	0.40625
0.17421	-0.97117
-0.08081	-0.46102
0.19971	0.45726
0.25071	0.63582
0.12320	0.66132
0.19971	0.43176
0.27621	0.35523
0.48022	-0.15492
-0.02981	-0.07840
-0.00431	-0.05289
-0.15732	-0.02739
0.09770	-0.10391
-0.15732	0.04914
0.30171	0.12566
0.60773	0.22769
0.58223	0.58480
0.07220	-0.20594
0.14870	-0.28246
-0.36133	0.38074
-0.08081	0.30422
0.12320	-0.05289
0.19971	0.61031
0.37822	1.17148
0.22521	-0.41000
0.14870	-0.48652
0.25071	-1.27726
0.37822	0.78886
0.04670	0.83988
-0.20832	0.02363
0.09770	-0.74160
0.19971	1.40105
0.35272	-1.17523
0.25071	0.53379
0.09770	1.04394
0.09770	0.53379
0.12320	-1.07320
-0.18282	0.27871
0.09770	0.27871
0.32721	0.17668
0.32721	-0.07840
0.22521	-0.74160
0.12320	0.25320
0.09770	0.45726
0.07220	0.38074
0.04670	-0.35899
0.25071	-0.10391
0.30171	0.12566
-0.23382	0.25320
0.50573	0.10015
0.86275	-0.20594
-0.23382	1.06945
-0.13181	0.38074
-0.20832	0.32972
0.25071	0.27871
0.27621	0.30422
0.22521	0.12566
0.04670	-1.20074
0.40372	0.17668
0.73524	0.27871
-0.02981	0.12566
0.17421	0.66132
-0.02981	0.38074
-0.02981	0.02363
0.09770	-0.35899
-0.00431	0.22769
-0.13181	0.35523
0.30171	0.04914
0.09770	0.32972
0.35272	0.22769
0.30171	-1.17523
0.14870	0.48277
-0.13181	0.81437
-0.02981	0.17668
0.14870	0.58480
0.40372	0.96742
0.30171	-0.56305
0.12320	-1.58336
-0.00431	0.55929
0.14870	0.61031
0.04670	-0.79262
0.12320	0.71234
0.25071	-0.46102
0.19971	0.10015
0.19971	0.99292
0.25071	0.66132
-0.61635	0.22769
0.09770	-0.46102
1.11776	-0.00188
0.19971	0.27871
0.07220	0.58480
0.25071	-0.00188
0.04670	-0.69059
0.07220	0.25320
-0.08081	0.45726
0.17421	0.48277
0.02119	-0.05289
0.32721	-0.33348
0.53123	0.12566
0.22521	0.22769
-0.20832	0.27871
0.14870	0.35523
0.07220	0.12566
0.17421	0.15117
0.17421	0.10015
-0.02981	0.25320
0.27621	0.04914
0.30171	0.25320
0.04670	0.66132
0.17421	0.38074
0.19971	0.71234
0.25071	0.89089
0.07220	-1.63437
0.12320	-5.00139
0.09770	1.06945
0.12320	1.75816
-0.31033	1.29902
0.37822	0.63582
0.32721	1.14597
0.48022	0.61031
0.19971	0.50828
0.22521	0.04914
-0.02981	-0.81812
-0.02981	-1.17523
-0.10631	-0.18043
-0.05531	0.58480
0.19971	0.07465
0.19971	0.22769
0.35272	0.55929
0.27621	-0.18043
0.25071	0.10015
0.19971	0.12566
0.27621	0.78886
0.27621	0.66132
0.09770	-0.48652
-0.00431	-1.73640
0.09770	0.71234
0.07220	0.91640
0.09770	0.89089
0.07220	0.38074
0.07220	0.58480
0.12320	-0.00188
0.09770	0.10015
0.30171	0.32972
0.37822	0.17668
0.09770	-0.51203
0.07220	-0.51203
0.30171	0.55929
0.12320	0.48277
0.19971	0.27871
0.32721	0.35523
0.04670	-0.28246
-0.13181	0.17668
0.07220	0.20219
0.78624	-0.02739
0.12320	-0.05289
-0.25932	0.40625
-0.08081	0.17668
-0.13181	-0.07840
-0.08081	-0.28246
0.35272	0.43176
0.42922	0.66132
0.19971	0.25320
0.09770	-0.74160
0.25071	0.45726
0.30171	0.55929
0.37822	0.27871
0.02119	0.81437
-0.13181	1.32453
-0.08081	0.10015
0.14870	-0.81812
0.25071	-0.02739
0.09770	0.30422
0.12320	-0.38449
0.22521	0.30422
0.12320	0.25320
0.37822	0.38074
0.17421	0.43176
-0.08081	0.10015
0.37822	-0.00188
0.30171	0.35523
0.09770	0.71234
0.17421	-1.40480
0.02119	0.58480
0.12320	-0.05289
0.14870	-0.30797
0.22521	0.68683
0.22521	1.12046
-0.15732	0.53379
0.30171	0.38074
0.42922	0.15117
-0.05531	0.27871
0.07220	0.38074
0.09770	-0.12942
0.17421	-0.79262
0.27621	-0.25695
0.07220	0.32972
0.19971	-0.05289
0.25071	0.35523
-0.02981	0.73785
0.07220	0.71234
0.02119	0.10015
0.40372	-0.35899
0.27621	-0.66508
0.14870	0.27871
0.12320	0.48277
0.17421	0.45726
-0.05531	0.35523
0.09770	0.71234
0.12320	0.10015
0.45472	0.20219
0.32721	0.22769
-0.00431	-0.25695
-0.00431	-0.28246
0.32721	0.81437
0.09770	-1.22625
0.12320	0.45726
0.07220	0.76336
0.04670	-0.20594
0.14870	-0.02739
0.09770	0.61031
0.22521	-1.14973
0.04670	0.50828
-0.18282	0.83988
0.76074	0.83988
0.32721	0.32972
-0.13181	-0.46102
-0.08081	0.53379
0.02119	0.38074
0.25071	-0.30797
0.22521	0.04914
0.27621	0.20219
0.19971	0.02363
0.35272	-0.02739
0.02119	0.04914
0.02119	0.40625
-0.00431	0.20219
0.12320	-1.22625
0.25071	0.22769
0.25071	0.43176
-0.05531	0.43176
-0.33583	0.20219
0.68424	0.43176
0.42922	0.45726
0.22521	-0.05289
-0.10631	0.10015
-0.38683	-0.35899
0.35272	0.45726
0.12320	0.81437
0.12320	0.83988
0.30171	-1.30277
0.17421	0.58480
0.17421	0.10015
-0.05531	-1.96597
0.14870	0.17668
0.22521	0.83988
-0.18282	1.04394
0.30171	0.58480
0.45472	0.17668
0.04670	-0.15492
0.30171	-0.86914
0.07220	0.17668
0.04670	-0.00188
0.09770	0.45726
0.12320	0.63582
0.14870	-0.35899
0.14870	-0.10391
0.12320	-0.53754
0.19971	0.48277
0.22521	0.50828
0.14870	0.45726
-0.02981	0.48277
0.12320	-0.35899
0.27621	0.02363
0.12320	-0.86914
0.09770	0.58480
0.32721	1.65613
0.12320	-0.69059
0.22521	0.35523
-0.13181	-0.33348
0.07220	0.22769
0.19971	0.15117
0.37822	0.10015
0.32721	0.10015
0.12320	-0.30797
0.02119	0.63582
-0.08081	0.48277
-0.10631	0.86539
0.09770	-0.05289
0.55673	-0.23145
0.35272	-1.14973
-0.23382	0.55929
0.17421	0.27871
-0.10631	0.10015
0.58223	0.71234
0.91375	0.15117
0.09770	0.83988
-0.08081	-0.12942
-0.02981	0.22769
0.17421	-0.20594
-0.08081	-0.48652
0.02119	0.40625
0.14870	0.07465
0.09770	0.07465
0.02119	0.25320
-0.02981	0.91640
0.37822	0.04914
0.25071	-1.02219
0.19971	0.12566
0.27621	0.45726
0.12320	0.38074
0.04670	0.20219
0.14870	-0.15492
0.27621	0.71234
0.27621	-0.07840
0.07220	-1.04770
0.09770	0.66132
-0.00431	0.43176
0.17421	0.40625
0.17421	0.27871
0.22521	0.04914
-0.08081	0.76336
-0.02981	0.45726
0.35272	-0.07840
0.42922	-1.04770
0.14870	0.12566
-0.08081	0.83988
-0.02981	0.73785
-0.15732	-0.76711
0.48022	-0.02739
0.45472	0.66132
0.07220	0.12566
0.07220	0.27871
0.12320	0.17668
0.17421	-0.28246
0.19971	0.32972
-0.00431	0.15117
0.48022	0.17668
0.12320	0.20219
-0.41233	0.22769
-0.02981	-0.43551
0.22521	0.35523
0.25071	0.61031
0.32721	0.91640
0.22521	-0.46102
0.14870	0.35523
0.17421	-0.71609
0.17421	0.12566
-0.00431	-0.25695
0.07220	0.73785
0.19971	0.73785
0.22521	0.38074
0.09770	0.76336
-0.00431	0.35523
0.22521	-0.15492
0.27621	-0.66508
0.14870	-0.99668
0.09770	0.43176
0.35272	0.68683
0.17421	-0.05289
-0.02981	-0.43551
0.19971	0.25320
0.12320	0.63582
-0.31033	0.48277
0.09770	0.55929
0.32721	0.32972
0.40372	-0.10391
0.12320	-0.53754
-0.15732	0.38074
0.27621	0.73785
0.76074	0.53379
0.25071	-0.66508
0.09770	-0.35899
0.12320	-0.25695
-0.08081	0.63582
0.02119	0.32972
0.12320	0.15117
0.12320	0.20219
-0.33583	0.10015
0.17421	-0.86914
0.27621	0.22769
0.19971	0.53379
0.42922	0.81437
0.17421	0.07465
0.17421	0.55929
0.09770	0.35523
0.14870	-0.84363
0.22521	0.40625
0.04670	0.30422
0.09770	0.27871
0.19971	0.10015
0.25071	-0.07840
0.09770	0.30422
0.14870	0.50828
0.12320	-0.23145
0.25071	-0.84363
0.17421	0.89089
0.07220	0.66132
0.22521	-0.86914
0.12320	-0.94566
0.25071	-0.07840
-0.23382	0.22769
0.12320	1.29902
0.22521	1.68163
0.32721	-0.46102
0.25071	0.58480
0.09770	0.63582
0.17421	0.68683
0.22521	-0.46102
-0.59084	-1.27726
0.42922	0.35523
0.55673	0.50828
0.22521	0.35523
0.12320	0.15117
-0.08081	0.17668
-0.15732	0.07465
0.14870	0.10015
0.17421	0.10015
0.17421	0.07465
0.14870	0.17668
-0.08081	0.17668
0.37822	-0.48652
0.19971	0.07465
0.07220	0.43176
-0.08081	0.35523
0.22521	0.27871
0.32721	-0.00188
0.04670	0.50828
0.04670	1.17148
0.14870	0.15117
0.07220	-0.58856
0.19971	-0.23145
0.12320	-0.48652
0.25071	0.83988
0.22521	0.25320
0.07220	-0.61406
0.32721	-0.30797
-0.25932	0.94191
0.12320	0.76336
0.14870	0.81437
0.32721	0.91640
0.12320	-0.48652
0.17421	-0.94566
0.09770	-0.63957
0.22521	0.48277
0.12320	0.35523
0.04670	0.32972
0.17421	-0.25695
0.12320	0.40625
0.27621	-0.84363
-0.20832	-0.12942
0.30171	0.76336
0.32721	0.40625
0.22521	0.53379
0.12320	0.43176
0.07220	0.04914
0.14870	-0.30797
0.14870	0.22769
0.12320	0.15117
0.07220	0.43176
0.27621	0.40625
0.02119	0.30422
-0.31033	-0.02739
0.22521	-0.46102
0.42922	-1.78742
0.22521	0.15117
0.09770	1.06945
0.40372	1.04394
0.04670	0.66132
0.02119	0.48277
0.04670	-0.15492
0.12320	0.15117
0.12320	0.12566
0.07220	0.32972
0.07220	0.63582
0.25071	-0.92016
0.17421	-1.25176
0.14870	0.20219
0.07220	0.04914
0.14870	0.66132
0.09770	0.86539
0.17421	-0.41000
0.17421	0.61031
0.19971	0.30422
0.09770	-0.05289
0.12320	-0.20594
0.35272	0.02363
0.37822	-0.05289
-0.02981	0.61031
0.22521	0.86539
0.09770	0.66132
-0.00431	-0.61406
-0.05531	-0.35899
0.32721	-1.32828
0.19971	0.68683
-0.00431	1.12046
0.02119	0.61031
-0.05531	0.61031
0.78624	0.38074
0.32721	0.25320
-0.15732	0.12566
-0.08081	0.07465
0.07220	-0.02739
0.22521	0.04914
0.37822	-0.15492
0.09770	-0.10391
0.09770	-0.56305
0.09770	0.45726
0.22521	0.71234
0.04670	-0.41000
0.09770	0.04914
0.25071	0.89089
0.22521	-0.10391
-0.13181	0.66132
0.12320	-0.71609
0.45472	0.40625
0.42922	0.27871
0.09770	0.32972
-0.00431	1.40105
0.22521	-0.23145
0.17421	-2.37410
-0.02981	-0.15492
0.09770	0.94191
0.27621	0.63582
0.02119	0.63582
0.07220	0.35523
0.37822	0.02363
0.19971	0.35523
0.04670	0.15117
0.09770	-0.35899
0.27621	0.50828
0.19971	-0.15492
0.04670	-0.07840
0.22521	-0.07840
0.27621	-1.27726
0.09770	0.53379
0.02119	1.27351
-0.08081	0.04914
0.63323	-0.05289
0.19971	0.66132
-0.10631	0.83988
0.02119	0.40625
0.02119	-0.46102
-0.08081	-0.02739
0.27621	0.17668
0.17421	0.17668
0.07220	0.10015
0.17421	0.12566
0.22521	0.32972
0.25071	-0.66508
-0.08081	0.40625
0.19971	-0.28246
0.12320	-0.23145
0.12320	0.40625
0.25071	0.07465
0.09770	0.66132
0.14870	0.83988
0.14870	0.04914
-0.25932	-0.25695
0.32721	0.02363
0.42922	0.73785
0.14870	-0.28246
0.09770	0.55929
0.09770	0.89089
0.19971	-1.14973
0.19971	-0.10391
0.19971	-0.38449
0.07220	0.78886
0.17421	0.43176
0.19971	0.25320
0.14870	-0.05289
0.14870	0.66132
0.09770	-0.33348
0.07220	-0.05289
0.02119	-0.25695
0.25071	0.17668
0.09770	0.96742
0.12320	0.35523
0.32721	-0.05289
0.25071	-0.15492
0.19971	-0.20594
0.12320	-1.76191
0.17421	0.73785
0.22521	1.35003
0.09770	0.20219
-0.23382	-0.51203
-0.31033	0.96742
0.73524	0.48277
0.55673	0.25320
-0.08081	0.61031
-0.05531	0.43176
0.12320	0.15117
0.12320	0.15117
0.12320	-1.02219
0.27621	-0.15492
0.07220	-0.41000
-0.08081	-0.18043
0.48022	0.53379
0.17421	0.66132
0.12320	0.02363
0.19971	0.48277
0.07220	0.43176
0.19971	0.10015
0.04670	0.40625
0.12320	0.45726
0.09770	0.38074
0.14870	-0.28246
0.32721	-0.38449
0.22521	0.20219
0.12320	0.45726
-0.15732	0.58480
0.02119	0.25320
0.25071	-0.51203
0.27621	-0.99668
0.27621	0.66132
0.12320	0.55929
0.22521	0.73785
0.19971	0.71234
0.07220	0.04914
-0.08081	-0.63957
0.19971	0.50828
0.22521	-0.07840
0.22521	0.73785
0.22521	-0.07840
0.22521	0.58480
0.35272	-0.71609
0.04670	-0.25695
-0.05531	0.38074
-0.13181	0.32972
0.02119	0.66132
0.22521	0.30422
-0.10631	-0.02739
0.91375	0.15117
0.53123	0.12566
-0.20832	0.50828
-0.08081	-0.48652
0.04670	0.58480
0.19971	-0.63957
0.12320	0.35523
0.09770	-0.18043
0.04670	-0.71609
0.25071	0.61031
0.14870	0.45726
0.35272	0.27871
0.17421	0.48277
0.09770	0.30422
0.04670	-0.28246
0.32721	-0.33348
0.07220	0.63582
0.09770	0.15117
0.27621	0.17668
0.02119	0.17668
0.12320	0.32972
0.32721	0.45726
0.12320	0.22769
0.17421	-0.71609
0.22521	-0.61406
0.09770	0.45726
-0.02981	0.66132
0.22521	0.86539
0.27621	1.01843
0.25071	-2.27207
0.22521	-0.05289
-0.02981	0.43176
-0.05531	0.94191
0.25071	-0.20594
0.32721	0.66132
0.32721	-0.15492
0.12320	0.96742
0.12320	-0.38449
0.19971	0.25320
0.07220	-0.15492
0.14870	0.25320
0.17421	0.15117
0.07220	0.15117
0.17421	0.10015
0.04670	0.32972
0.19971	-0.00188
0.25071	-0.20594
0.02119	0.91640
-0.15732	-0.20594
0.50573	-0.92016
0.37822	0.35523
0.07220	0.68683
0.09770	0.63582
0.02119	0.10015
0.14870	-0.41000
0.12320	1.12046
0.17421	0.20219
0.27621	0.38074
0.17421	-0.30797
-0.10631	0.27871
0.42922	0.07465
0.09770	0.12566
0.12320	0.17668
0.02119	0.07465
-0.10631	0.35523
0.30171	-0.10391
0.22521	-0.05289
0.40372	0.45726
0.14870	0.07465
0.07220	-0.05289
0.14870	-0.43551
0.14870	0.40625
0.12320	0.61031
0.22521	0.04914
0.22521	0.35523
-0.36133	-0.20594
0.32721	1.01843
0.12320	-0.92016
0.17421	-0.56305
0.17421	0.94191
0.17421	-0.20594
0.12320	1.01843
0.32721	0.55929
0.19971	0.27871
-0.10631	0.15117
0.09770	-0.12942
0.32721	0.02363
0.42922	-0.00188
0.25071	-0.00188
-0.10631	0.15117
-0.31033	0.04914
0.45472	0.07465
0.68424	0.20219
0.19971	0.25320
0.02119	0.22769
0.02119	0.35523
-0.20832	-0.07840
0.02119	-0.58856
0.22521	0.04914
0.32721	0.66132
0.12320	0.45726
-0.20832	0.17668
0.12320	1.04394
0.27621	1.17148
0.42922	-1.17523
0.22521	-0.61406
0.07220	1.98773
0.07220	0.20219
0.09770	-3.29238
0.27621	-0.28246
0.22521	1.12046
-0.18282	0.68683
0.12320	0.68683
0.19971	1.37554
0.12320	0.43176
0.09770	0.07465
0.22521	-0.12942
0.35272	-0.05289
-0.20832	0.10015
-0.10631	-0.00188
0.19971	-0.05289
0.35272	-0.94566
0.27621	0.10015
0.12320	0.27871
0.09770	0.66132
0.14870	0.43176
0.17421	-0.48652
-0.00431	0.15117
0.09770	0.94191
-0.18282	0.25320
0.32721	0.20219
-0.02981	0.45726
0.22521	0.58480
0.70974	-0.76711
0.30171	-0.00188
-0.08081	0.07465
-0.00431	0.10015
0.07220	-0.51203
0.22521	0.86539
0.12320	0.55929
0.25071	-0.18043
0.22521	0.66132
0.17421	0.17668
0.04670	0.30422
0.25071	-0.53754
0.04670	-1.20074
0.17421	0.76336
0.02119	0.53379
0.37822	0.61031
0.37822	0.30422
-0.02981	0.10015
0.02119	0.12566
0.09770	0.10015
0.35272	0.10015
-0.02981	0.38074
0.14870	-0.07840
0.22521	0.04914
0.30171	-0.46102
-0.20832	0.53379
0.12320	0.20219
0.22521	-0.02739
0.30171	-0.18043
0.35272	0.61031
0.14870	0.20219
-0.08081	0.73785
0.25071	0.71234
0.12320	0.20219
0.02119	0.20219
-0.00431	-0.00188
0.32721	-0.46102
0.37822	-0.30797
0.30171	0.61031
-0.48884	0.25320
0.17421	0.63582
0.93925	0.17668
0.45472	-1.07320
-0.18282	-0.46102
-0.08081	1.14597
-0.25932	0.96742
0.17421	-0.20594
0.14870	0.02363
0.22521	0.76336
0.35272	0.53379
0.09770	0.40625
0.02119	-0.35899
0.25071	0.32972
0.27621	-0.81812
0.17421	0.04914
0.12320	0.55929
0.02119	0.83988
0.30171	-0.86914
0.12320	0.07465
-0.00431	0.25320
0.17421	0.30422
0.35272	0.22769
0.32721	0.27871
0.07220	0.40625
-0.02981	0.15117
-0.00431	0.43176
-0.08081	0.35523
0.32721	-0.35899
0.37822	-1.37929
0.02119	-0.05289
-0.00431	0.86539
-0.10631	0.96742
0.30171	0.61031
0.32721	0.07465
0.25071	0.22769
0.27621	-0.00188
0.12320	-0.20594
0.04670	0.17668
0.17421	0.22769
0.22521	-0.05289
0.12320	0.17668
-0.13181	0.38074
-0.10631	0.50828
0.68424	-0.10391
0.22521	-1.09871
0.02119	0.22769
0.17421	0.63582
0.02119	0.58480
0.09770	-0.56305
-0.08081	0.35523
0.27621	0.66132
0.12320	0.66132
0.22521	0.71234
0.35272	-0.33348
-0.18282	-1.96597
0.42922	-0.35899
0.32721	1.37554
-0.02981	0.22769
0.27621	0.04914
0.17421	0.12566
-0.02981	0.38074
-0.31033	0.68683
0.30171	0.45726
0.04670	0.53379
0.27621	-0.30797
0.30171	-0.05289
0.04670	-0.00188
0.17421	-0.07840
0.19971	-0.05289
0.17421	0.04914
0.12320	0.04914
-0.15732	0.02363
0.17421	0.38074
0.25071	0.38074
0.02119	-0.28246
0.22521	-0.05289
0.42922	0.61031
0.17421	0.53379
-0.15732	0.12566
0.14870	0.40625
0.48022	0.50828
0.27621	-0.74160
-0.00431	0.40625
0.02119	0.20219
-0.02981	0.66132
0.17421	0.91640
0.22521	-0.18043
0.04670	-1.27726
0.27621	-1.14973
-0.10631	0.07465
0.27621	1.06945
0.19971	1.37554
0.27621	-0.38449
0.07220	0.12566
0.14870	-0.63957
0.09770	0.66132
0.19971	0.68683
-0.18282	-0.86914
0.27621	0.61031
0.22521	-0.63957
0.22521	0.55929
0.22521	0.32972
0.09770	-0.81812
0.04670	0.35523
0.30171	-0.07840
-0.00431	0.15117
-0.00431	0.86539
0.19971	1.01843
0.17421	0.40625
0.14870	-0.25695
0.14870	0.15117
-0.23382	-0.25695
0.42922	0.25320
0.25071	0.76336
0.12320	-1.02219
0.27621	0.30422
0.12320	0.10015
0.17421	-1.63437
0.17421	0.68683
-0.15732	1.09496
0.09770	1.09496
0.12320	0.94191
0.32721	-1.58336
0.22521	-0.43551
0.07220	0.76336
0.09770	0.91640
0.25071	0.40625
0.14870	0.02363
-0.05531	0.55929
0.17421	-0.30797
0.27621	-0.43551
-0.08081	-0.07840
0.19971	0.07465
0.32721	0.20219
0.25071	0.38074
-0.18282	-0.05289
-0.59084	-0.25695
0.93925	0.07465
0.37822	0.68683
-0.08081	0.55929
0.22521	-1.12422
0.07220	0.61031
-0.02981	1.04394
0.14870	0.40625
-0.02981	0.25320
0.14870	0.20219
0.12320	0.15117
0.42922	0.53379
0.35272	-0.41000
0.14870	-2.04250
0.04670	-0.28246
0.19971	0.76336
0.14870	-0.25695
0.25071	0.71234
0.17421	0.81437
-0.05531	0.63582
0.04670	0.45726
0.25071	0.25320
0.07220	0.07465
0.25071	0.12566
0.30171	-0.07840
0.19971	-0.07840
0.07220	-0.02739
-0.25932	0.25320
0.22521	-0.02739
0.14870	-0.38449
0.12320	0.30422
0.22521	0.43176
-0.18282	0.35523
0.12320	0.17668
0.27621	-0.56305
0.25071	0.22769
0.14870	1.42656
0.12320	-0.10391
0.17421	-0.92016
0.25071	0.50828
0.14870	0.10015
0.02119	-1.60887
0.12320	1.09496
0.27621	1.06945
0.14870	-0.02739
0.12320	0.35523
-0.05531	0.25320
0.25071	0.30422
0.27621	0.17668
-0.13181	-1.09871
0.12320	0.12566
0.27621	0.30422
0.17421	-0.18043
0.22521	0.07465
0.12320	-0.00188
0.12320	0.10015
0.35272	0.53379
0.12320	0.30422
-0.00431	0.17668
0.81175	0.27871
-0.08081	0.07465
-0.28482	0.40625
0.14870	0.81437
0.17421	0.07465
0.22521	-0.15492
0.19971	-0.25695
0.09770	0.91640
0.19971	0.32972
0.19971	-2.80773
0.25071	1.12046
0.02119	1.12046
0.14870	0.96742
0.14870	0.58480
0.14870	0.83988
0.17421	0.40625
0.02119	0.12566
0.14870	-0.18043
0.22521	-0.28246
0.17421	-0.25695
0.12320	-0.43551
0.19971	-0.18043
0.19971	0.40625
0.02119	0.73785
0.17421	-0.38449
0.35272	-0.51203
0.04670	0.43176
-0.00431	0.50828
0.30171	0.66132
0.19971	0.45726
0.19971	0.40625
-0.10631	0.22769
0.14870	0.86539
0.27621	-0.86914
0.04670	-0.30797
0.19971	0.35523
0.09770	0.63582
0.17421	0.02363
0.04670	0.38074
0.07220	-0.81812
0.19971	-0.15492
0.25071	1.12046
0.12320	0.61031
0.14870	-0.10391
0.27621	-0.12942
-0.18282	0.43176
0.48022	0.66132
0.63323	-0.00188
0.12320	0.35523
-0.15732	-0.46102
-0.15732	-0.25695
0.07220	-0.46102
-0.20832	0.55929
0.27621	0.50828
0.32721	0.45726
0.27621	0.38074
0.22521	0.22769
0.09770	-0.00188
0.14870	-0.00188
0.22521	0.15117
0.22521	0.12566
0.07220	0.50828
0.14870	-0.66508
0.14870	0.07465
0.17421	0.04914
0.27621	0.38074
0.19971	0.61031
0.07220	0.73785
-0.05531	0.38074
0.12320	-1.12422
0.22521	0.40625
-0.00431	0.86539
0.14870	-0.76711
0.12320	-0.79262
0.17421	0.86539
0.30171	1.24800
0.12320	0.58480
0.17421	-0.10391
0.32721	0.25320
0.07220	0.35523
0.04670	-0.66508
0.17421	0.04914
0.12320	-0.25695
0.17421	0.22769
0.22521	0.68683
0.30171	-0.30797
-0.25932	0.22769
0.09770	0.50828
-0.10631	-0.23145
0.58223	0.30422
0.55673	0.35523
-0.23382	0.07465
-0.02981	-0.33348
0.07220	0.17668
0.22521	0.55929
0.09770	0.10015
0.04670	0.66132
-0.08081	-0.15492
0.19971	0.30422
0.09770	-0.58856
0.19971	-0.00188
0.27621	0.68683
0.27621	0.55929
0.14870	-0.10391
-0.20832	0.17668
0.40372	0.78886
0.25071	-0.74160
0.19971	0.61031
0.12320	0.81437
-0.00431	0.43176
-0.08081	-1.43031
0.02119	-0.38449
0.37822	0.48277
0.35272	0.61031
0.09770	-0.20594
0.12320	0.45726
0.09770	0.32972
0.19971	0.17668
0.14870	0.20219
0.09770	0.17668
-0.13181	0.12566
0.25071	0.10015
0.30171	-0.00188
0.17421	-0.20594
0.22521	0.25320
0.07220	0.81437
0.25071	0.68683
0.27621	0.10015
-0.31033	-1.86394
0.50573	-0.25695
0.65874	0.38074
0.12320	-0.05289
-0.13181	0.91640
0.02119	0.63582
0.19971	-0.63957
-0.20832	0.89089
0.09770	-0.38449
0.02119	0.35523
0.32721	0.76336
0.37822	0.45726
0.32721	0.02363
0.07220	-0.28246
0.17421	-0.86914
0.12320	0.30422
0.19971	-0.15492
-0.00431	0.63582
0.19971	0.35523
0.14870	-0.46102
0.12320	0.58480
0.19971	0.22769
0.09770	-0.02739
0.12320	0.27871
-0.05531	0.15117
0.14870	-0.07840
0.30171	-0.23145
0.02119	0.40625
0.27621	-0.46102
0.09770	0.43176
0.19971	0.43176
0.07220	0.50828
0.25071	0.15117
0.22521	-0.46102
0.17421	0.30422
0.12320	0.20219
0.14870	0.22769
0.07220	0.22769
0.25071	-0.05289
0.22521	-0.66508
-0.23382	0.45726
0.14870	0.63582
0.42922	0.25320
0.12320	-0.02739
0.12320	0.22769
0.02119	-0.02739
0.07220	-0.10391
-0.05531	0.35523
0.37822	0.86539
-0.18282	0.02363
0.22521	-0.35899
0.25071	0.38074
0.22521	-0.20594
0.27621	-0.15492
0.17421	0.25320
0.04670	0.78886
-0.00431	-0.23145
0.17421	0.32972
0.07220	0.61031
0.12320	0.53379
0.19971	0.43176
0.14870	-0.53754
0.02119	0.15117
0.30171	0.25320
0.32721	-0.51203
0.02119	0.30422
-0.00431	-0.05289
0.30171	0.30422
0.22521	-0.02739
0.17421	0.15117
0.27621	0.27871
0.27621	0.12566
0.07220	0.12566
-0.08081	0.53379
0.17421	0.32972
0.17421	0.07465
0.09770	0.10015
-0.38683	0.22769
0.50573	-0.05289
0.73524	-0.00188
-0.36133	0.22769
-0.23382	0.27871
0.30171	0.07465
0.27621	-0.00188
0.14870	0.40625
0.19971	0.45726
0.22521	-0.00188
0.09770	0.02363
0.12320	-0.43551
0.22521	0.76336
0.17421	0.22769
0.04670	-0.81812
-0.02981	-0.86914
0.25071	0.81437
0.42922	0.07465
0.09770	-0.28246
0.12320	1.37554
0.09770	0.43176
0.04670	0.58480
0.07220	0.10015
0.19971	-0.00188
0.37822	-0.23145
0.25071	0.27871
-0.00431	-0.71609
0.12320	0.07465
0.27621	0.15117
0.17421	-0.07840
0.12320	0.15117
0.22521	0.83988
0.25071	0.35523
0.19971	-0.76711
0.04670	-0.02739
0.07220	0.12566
0.27621	0.61031
0.04670	-0.58856
-0.20832	0.99292
0.32721	0.66132
0.12320	0.43176
0.12320	0.40625
0.27621	-0.18043
0.02119	0.12566
0.14870	0.12566
0.70974	0.10015
0.22521	-0.10391
-0.10631	-0.28246
-0.08081	0.07465
0.04670	0.15117
0.22521	0.38074
-0.02981	0.25320
0.19971	-0.02739
0.19971	-0.30797
-0.08081	0.50828
0.12320	0.48277
0.30171	0.22769
0.02119	0.07465
0.19971	-0.74160
0.30171	0.40625
0.02119	0.32972
0.19971	0.02363
0.19971	0.63582
0.14870	0.27871
0.17421	-0.66508
0.09770	0.32972
0.09770	0.35523
0.22521	0.12566
0.02119	0.07465
0.17421	0.15117
0.09770	-0.25695
0.25071	0.10015
0.19971	-0.18043
0.17421	1.32453
0.07220	0.48277
0.09770	-0.05289
0.30171	-0.66508
0.22521	-0.15492
0.07220	0.58480
0.19971	0.38074
0.12320	0.50828
0.09770	-0.02739
-0.23382	-0.02739
0.14870	0.15117
0.63323	0.43176
0.27621	0.32972
-0.08081	0.02363
-0.02981	0.43176
-0.02981	-0.58856
0.17421	-0.51203
0.32721	-0.51203
0.12320	0.50828
0.25071	-0.81812
0.04670	1.04394
0.12320	0.30422
0.30171	0.61031
0.27621	0.78886
0.09770	0.78886
-0.00431	0.15117
0.27621	-0.30797
0.30171	0.25320
-0.08081	-0.15492
-0.18282	-0.15492
0.19971	0.07465
0.30171	0.07465
0.22521	0.15117
0.30171	0.07465
0.32721	0.04914
-0.28482	0.04914
-0.05531	0.12566
0.19971	0.53379
0.12320	0.66132
0.09770	0.35523
0.32721	-1.99148
0.50573	-0.43551
0.19971	1.19699
-0.43783	0.63582
0.04670	0.43176
0.32721	0.45726
0.27621	0.61031
0.17421	0.89089
0.17421	-0.58856
0.07220	-0.00188
0.19971	0.27871
0.02119	-1.14973
0.12320	-0.15492
0.07220	0.35523
0.19971	0.25320
0.58223	0.55929
0.19971	0.15117
-0.10631	0.04914
0.07220	0.55929
0.02119	0.58480
0.12320	-0.18043
0.25071	-0.41000
0.22521	0.38074
0.09770	0.07465
-0.18282	0.30422
0.32721	-0.58856
0.32721	0.38074
0.22521	0.45726
-0.00431	0.27871
0.14870	0.68683
0.32721	0.40625
0.17421	-0.81812
0.12320	-0.51203
0.02119	0.25320
0.02119	0.45726
-0.08081	0.50828
0.48022	0.38074
0.14870	0.30422
0.17421	-0.02739
0.14870	0.22769
0.19971	0.30422
0.04670	0.04914
-0.02981	0.22769
0.25071	0.27871
0.19971	-0.10391
-0.18282	-0.18043
0.76074	-0.15492
0.42922	0.40625
0.09770	-0.58856
0.02119	0.66132
0.14870	0.76336
-0.25932	-0.84363
0.12320	0.10015
0.17421	0.61031
0.25071	0.43176
-0.13181	0.55929
0.32721	0.48277
0.17421	-0.30797
0.14870	-0.30797
0.35272	0.20219
0.27621	-0.02739
0.12320	0.43176
-0.05531	0.20219
0.07220	-0.58856
0.04670	-0.38449
0.04670	0.55929
0.30171	0.22769
0.12320	0.12566
-0.15732	1.04394
-0.13181	0.30422
0.19971	-0.33348
0.48022	0.32972
0.12320	0.50828
0.27621	0.25320
0.27621	-0.00188
0.12320	0.25320
0.12320	0.32972
-0.13181	-0.05289
0.30171	-0.48652
-0.10631	0.15117
0.22521	0.38074
0.22521	0.07465
0.09770	-0.07840
0.09770	0.12566
0.30171	0.20219
-0.10631	-0.00188
0.30171	0.27871
0.07220	0.38074
0.37822	0.43176
0.07220	0.22769
0.04670	0.63582
0.30171	-1.88945
0.12320	-0.30797
0.27621	0.15117
0.42922	1.27351
0.19971	1.06945
0.12320	0.22769
0.07220	-0.38449
-0.13181	-0.84363
-0.23382	0.78886
0.14870	0.27871
0.30171	0.35523
0.02119	-0.63957
-0.02981	0.27871
0.42922	0.53379
0.48022	0.12566
0.22521	0.20219
0.17421	-0.30797
0.22521	0.22769
0.04670	0.48277
-0.00431	-0.12942
0.40372	-0.23145
0.25071	-0.07840
0.07220	-0.05289
-0.08081	0.71234
0.09770	0.99292
0.22521	-0.46102
0.02119	-0.23145
-0.53984	0.04914
0.32721	0.27871
0.32721	-0.33348
0.40372	1.01843
0.22521	0.43176
0.12320	0.32972
0.14870	0.55929
0.25071	0.48277
0.19971	-0.00188
0.25071	0.35523
0.19971	0.12566
-0.28482	-0.02739
0.40372	-0.81812
0.35272	-0.23145
-0.23382	0.40625
-0.36133	0.71234
0.30171	-0.18043
0.17421	-0.25695
0.45472	0.63582
0.40372	0.38074
0.07220	-0.28246
0.09770	-0.23145
0.22521	1.09496
0.22521	0.22769
0.02119	0.25320
-0.00431	0.20219
0.09770	0.48277
0.27621	0.22769
0.02119	-0.56305
0.37822	-0.66508
0.19971	0.63582
-0.10631	-0.05289
0.14870	0.17668
0.22521	0.61031
0.30171	0.48277
-0.08081	-0.07840
0.17421	-0.02739
0.22521	0.25320
0.07220	0.43176
0.17421	-0.76711
0.12320	0.61031
0.27621	0.07465
0.32721	0.71234
0.12320	0.48277
0.02119	0.30422
0.09770	0.30422
0.35272	-0.07840
0.12320	-1.22625
-0.02981	-0.41000
0.12320	0.61031
-0.20832	0.27871
0.02119	0.20219
0.14870	0.50828
0.93925	0.38074
0.45472	-0.53754
-0.02981	0.35523
0.02119	0.02363
-0.02981	0.38074
-0.10631	0.27871
0.25071	0.63582
0.12320	0.30422
0.12320	-0.23145
0.25071	-0.02739
-0.13181	-0.63957
0.40372	0.45726
0.14870	0.35523
0.22521	0.35523
0.22521	0.20219
-0.18282	0.12566
0.17421	0.04914
0.12320	0.25320
0.14870	0.20219
0.27621	-0.25695
0.19971	0.76336
-0.15732	0.04914
0.19971	-0.74160
0.12320	-0.58856
0.02119	0.58480
0.19971	0.22769
0.22521	1.47757
0.09770	-1.07320
-0.00431	-0.05289
0.27621	0.76336
0.30171	1.06945
0.30171	0.27871
0.27621	-0.97117
-0.00431	0.25320
-0.05531	-0.20594
0.17421	-0.10391
0.17421	0.61031
0.25071	0.30422
0.32721	0.66132
0.09770	0.63582
0.07220	-0.48652
0.07220	-0.00188
0.17421	0.32972
0.04670	0.15117
0.14870	-0.30797
0.22521	0.40625
0.09770	0.12566
0.04670	-0.00188
0.04670	0.30422
0.40372	0.22769
0.32721	-0.18043
-0.02981	0.55929
0.19971	0.61031
-0.15732	0.22769
0.65874	0.04914
0.53123	-0.25695
-0.05531	-0.02739
-0.13181	0.04914
0.09770	0.10015
-0.08081	0.35523
0.12320	0.20219
0.17421	0.25320
0.30171	0.25320
0.22521	0.20219
0.17421	0.27871
0.02119	0.45726
-0.38683	0.53379
0.48022	-2.11902
0.40372	-0.76711
-0.15732	1.22250
0.27621	-0.30797
0.32721	0.32972
0.04670	0.91640
0.12320	0.20219
0.14870	0.48277
