0.07220	0.25320
0.17421	0.20219
0.14870	0.22769
0.25071	0.25320
0.30171	0.10015
0.27621	0.12566
0.22521	0.27871
0.19971	0.12566
0.12320	0.15117
0.02119	0.10015
0.14870	0.15117
0.19971	0.12566
0.14870	0.20219
0.17421	0.04914
0.32721	0.22769
0.12320	0.04914
0.22521	0.22769
0.27621	0.25320
-0.08081	0.04914
0.02119	0.12566
0.14870	0.15117
0.19971	0.20219
0.17421	0.17668
0.07220	0.07465
0.14870	-0.00188
0.14870	0.12566
0.04670	0.15117
0.09770	0.15117
0.04670	0.04914
0.02119	0.10015
-0.00431	0.10015
-0.00431	0.07465
0.09770	0.02363
0.09770	0.04914
0.25071	0.12566
0.07220	0.10015
0.22521	0.22769
0.12320	0.17668
0.09770	0.15117
0.19971	0.17668
0.25071	0.25320
0.04670	0.15117
0.22521	0.12566
0.14870	0.10015
0.35272	0.15117
0.25071	0.17668
0.27621	0.32972
0.09770	0.02363
0.12320	0.02363
0.02119	0.02363
0.02119	0.12566
0.04670	0.07465
0.07220	0.25320
0.30171	0.04914
0.22521	0.25320
0.04670	0.15117
0.12320	0.04914
0.12320	0.10015
0.12320	0.15117
0.07220	0.20219
0.14870	0.07465
0.07220	0.10015
0.12320	0.15117
0.14870	0.12566
0.30171	0.12566
0.17421	0.25320
0.22521	0.02363
0.22521	0.35523
0.17421	0.17668
0.12320	0.07465
0.02119	0.04914
0.04670	0.12566
0.09770	-0.00188
0.14870	0.20219
0.17421	0.22769
0.25071	-0.00188
0.25071	0.35523
0.12320	0.07465
0.09770	-0.05289
0.12320	-0.00188
0.09770	0.22769
0.02119	0.12566
0.09770	0.22769
0.22521	0.27871
0.27621	0.20219
0.09770	-0.07840
0.30171	0.17668
0.32721	0.15117
0.37822	0.27871
-0.28482	0.48277
-0.25932	-0.38449
-0.23382	0.10015
0.42922	0.07465
0.09770	0.17668
0.22521	0.17668
0.30171	0.17668
0.30171	-0.00188
0.09770	0.02363
-0.10631	0.07465
-0.05531	0.25320
1.04126	0.30422
-1.22839	0.17668
-0.99887	0.04914
-0.28482	-0.10391
1.16877	0.43176
0.91375	0.07465
0.60773	-0.18043
0.32721	-0.20594
0.07220	0.15117
0.02119	0.25320
-0.00431	0.35523
-0.10631	0.15117
-0.33583	0.17668
-0.38683	0.30422
-0.08081	0.07465
0.50573	0.25320
0.42922	0.10015
0.63323	0.25320
-0.08081	-0.25695
0.12320	-0.12942
0.04670	0.04914
0.17421	0.20219
0.32721	0.27871
0.45472	0.30422
0.12320	0.10015
-0.46334	0.25320
-0.31033	0.35523
0.17421	-0.10391
0.88825	0.53379
0.63323	-0.12942
0.55673	0.10015
0.22521	0.35523
0.02119	0.02363
-0.05531	-0.05289
-0.25932	0.40625
0.02119	0.35523
-0.18282	0.48277
0.37822	-0.25695
-0.08081	0.04914
0.48022	-0.00188
-0.13181	-0.07840
0.02119	0.20219
-0.31033	0.15117
-0.31033	0.12566
0.14870	0.17668
0.48022	0.17668
0.88825	0.02363
0.83725	0.04914
0.93925	0.17668
-0.79486	0.15117
-1.12638	0.22769
-0.15732	0.15117
1.21977	0.10015
0.73524	0.35523
0.91375	-0.02739
-0.05531	0.15117
-0.41233	0.20219
-0.41233	0.35523
0.30171	0.27871
0.55673	-0.46102
0.27621	0.25320
-0.31033	0.20219
0.65874	0.04914
0.32721	0.22769
-0.64185	0.20219
-0.99887	0.45726
-0.15732	0.15117
1.34728	0.15117
0.65874	0.02363
-0.20832	-0.02739
0.09770	-0.18043
0.73524	0.15117
-0.02981	0.20219
0.83725	0.10015
0.40372	0.27871
-0.13181	0.15117
-0.25932	0.45726
0.58223	0.15117
0.04670	0.02363
-0.79486	0.76336
-0.02981	-0.48652
0.93925	0.07465
-0.87136	-0.00188
-0.41233	0.17668
2.08683	0.15117
0.53123	0.30422
-0.18282	0.32972
-0.13181	0.04914
0.93925	0.27871
0.48022	0.22769
-0.08081	-0.00188
-0.41233	-0.07840
-0.15732	-0.02739
-0.05531	0.35523
0.22521	-0.07840
0.42922	0.53379
0.19971	-0.02739
0.25071	0.55929
-0.02981	0.10015
-0.43783	-0.35899
-0.41233	0.12566
0.48022	0.27871
0.40372	0.10015
-0.20832	0.15117
0.55673	0.71234
0.73524	0.35523
2.31634	-0.02739
-0.61635	-0.25695
-1.04987	-0.33348
-0.64185	-0.07840
1.09226	0.35523
0.50573	0.81437
-0.15732	0.17668
0.96476	-0.25695
0.68424	-0.05289
-0.13181	0.30422
-1.55991	0.63582
0.45472	0.58480
0.02119	0.07465
-0.25932	-0.35899
0.86275	-0.05289
0.07220	-0.25695
-0.23382	0.04914
0.09770	0.30422
0.40372	0.43176
1.90832	0.35523
-0.84586	0.04914
-0.74385	-0.07840
0.22521	0.07465
1.04126	0.30422
-0.43783	0.12566
-0.08081	-0.18043
-0.51434	0.22769
-0.23382	0.15117
0.25071	0.58480
0.78624	-0.18043
0.53123	-0.23145
0.19971	0.43176
0.12320	0.55929
0.93925	0.15117
-0.31033	-0.00188
-1.30489	-0.18043
-0.51434	0.17668
-0.02981	0.22769
1.67880	0.32972
1.04126	0.81437
0.07220	-0.33348
0.60773	0.35523
0.07220	-0.20594
0.30171	0.20219
1.16877	0.32972
-0.71835	0.07465
-0.82036	0.40625
-0.46334	0.48277
0.96476	0.68683
1.11776	-0.00188
0.17421	-0.02739
-0.84586	-0.10391
-0.61635	0.22769
0.40372	0.22769
0.48022	-0.05289
1.09226	0.15117
2.41835	0.30422
-1.96793	0.12566
-3.14101	-0.00188
-0.25932	0.63582
2.13783	-0.25695
0.93925	-0.02739
0.22521	0.07465
0.58223	0.25320
0.88825	0.17668
0.45472	-0.35899
0.63323	0.07465
-0.08081	0.43176
-0.05531	1.17148
-0.18282	-0.35899
-0.20832	0.50828
-0.18282	-0.12942
-0.76936	0.20219
0.55673	-0.63957
1.44929	0.55929
-2.01894	-0.00188
-1.10088	0.17668
0.73524	-0.00188
1.62780	0.17668
1.24527	0.48277
0.25071	0.55929
-0.10631	0.32972
-0.25932	0.02363
0.17421	-0.41000
0.83725	-0.33348
-0.25932	0.04914
-0.71835	0.58480
-0.00431	0.48277
-0.33583	0.30422
0.53123	0.10015
0.19971	0.07465
0.30171	-0.30797
0.60773	0.43176
-0.97337	-0.46102
0.09770	1.17148
2.34184	-0.10391
-1.20288	-0.35899
-2.73298	1.12046
0.42922	-0.05289
1.29628	-0.56305
0.50573	0.83988
2.16333	-0.12942
1.70430	-0.05289
-0.79486	1.06945
-0.43783	1.04394
-1.20288	-0.28246
-0.53984	-0.43551
0.76074	0.04914
-2.22295	0.73785
0.91375	0.25320
1.34728	-0.56305
-0.76936	-0.02739
-0.51434	-0.71609
0.60773	0.32972
2.72437	0.89089
0.86275	0.45726
-1.94243	0.61031
0.14870	0.53379
0.50573	-0.25695
-4.33958	-0.15492
-1.86593	-0.07840
2.26534	-0.48652
3.38741	0.38074
1.47479	0.99292
-0.38683	-0.28246
-0.36133	0.22769
2.54586	0.12566
-1.22839	0.63582
-2.32496	-0.18043
0.04670	0.20219
0.86275	-0.10391
2.18883	0.15117
1.83181	0.35523
-2.19745	0.99292
-1.66191	0.63582
1.06676	-0.92016
0.12320	-0.07840
-0.02981	0.35523
-0.48884	-0.25695
-0.23382	-0.25695
0.48022	-0.05289
1.72980	0.35523
0.42922	0.22769
0.17421	0.50828
0.68424	0.17668
0.76074	0.30422
-0.00431	-0.00188
-0.43783	0.04914
0.53123	-0.02739
-0.33583	0.35523
-0.02981	-0.20594
-0.20832	0.12566
-0.10631	0.63582
-0.20832	-0.25695
0.70974	0.43176
1.29628	1.06945
0.42922	-0.92016
-0.56534	0.25320
0.42922	0.15117
0.96476	-0.15492
1.01576	0.38074
-1.50890	0.32972
-0.51434	0.76336
-0.15732	-0.51203
1.50029	-0.02739
-1.22839	-0.18043
-0.94787	0.30422
-0.28482	-0.05289
0.91375	0.04914
0.17421	0.22769
0.42922	0.04914
1.98482	-0.20594
0.60773	0.53379
-0.97337	0.15117
0.25071	0.76336
-0.15732	0.27871
-0.66735	0.12566
-0.79486	0.15117
0.37822	-0.18043
2.13783	0.48277
0.78624	1.27351
-1.30489	-0.48652
-0.15732	-0.20594
0.04670	0.48277
1.19427	-0.18043
0.40372	-0.02739
-1.33039	0.43176
-1.12638	0.83988
0.68424	0.48277
1.62780	-0.25695
0.68424	-0.30797
0.12320	-0.15492
0.50573	0.53379
-0.94787	0.27871
-1.76392	0.91640
0.70974	0.07465
2.01032	0.15117
-0.05531	0.48277
0.09770	-0.10391
0.63323	0.48277
-1.15188	0.76336
-0.84586	0.12566
2.16333	-0.84363
0.27621	-1.02219
-0.38683	0.89089
0.73524	0.35523
1.34728	0.25320
0.58223	0.25320
0.02119	0.71234
-0.18282	0.20219
0.48022	-0.38449
1.01576	-0.35899
-0.92237	0.68683
-0.25932	0.35523
-1.04987	0.04914
-0.79486	-0.00188
-2.55447	-0.38449
0.63323	-0.00188
2.08683	-0.86914
1.60230	0.22769
0.63323	0.63582
1.16877	0.68683
0.53123	0.22769
-0.48884	0.15117
0.14870	0.40625
0.73524	0.22769
0.07220	-0.07840
-1.02437	0.07465
-0.56534	-0.00188
0.12320	-0.00188
-1.30489	0.04914
-1.04987	-0.33348
0.50573	0.35523
1.75531	0.07465
1.55129	-0.02739
1.01576	0.40625
-0.36133	0.15117
-0.33583	-0.15492
-1.48340	-0.00188
-0.38683	0.35523
0.40372	0.89089
0.65874	-0.07840
0.65874	-0.48652
-0.15732	0.40625
-0.71835	-0.00188
0.53123	-0.23145
0.55673	0.07465
0.93925	0.58480
-0.61635	0.45726
0.78624	-0.00188
1.01576	-0.10391
0.25071	0.15117
-0.82036	0.15117
-0.23382	-0.20594
0.04670	0.15117
1.37278	0.17668
-0.08081	0.53379
-1.71292	0.12566
0.27621	0.17668
-0.18282	-0.18043
-0.10631	-0.63957
0.32721	0.20219
2.16333	0.53379
0.93925	1.01843
-0.82036	-0.15492
0.30171	-0.28246
-0.41233	-0.05289
-0.53984	0.55929
0.40372	0.55929
-0.66735	-0.25695
1.34728	-0.97117
1.78081	0.99292
-0.76936	1.09496
-1.07538	0.50828
0.70974	-0.66508
0.83725	0.10015
-1.10088	0.02363
-1.55991	0.30422
0.32721	-0.53754
2.13783	0.68683
0.91375	0.81437
-0.20832	-0.33348
-0.13181	-0.76711
0.14870	0.58480
-0.08081	0.86539
0.96476	-0.35899
0.96476	-0.33348
-1.10088	-0.07840
-0.92237	0.43176
1.39828	1.73265
-0.28482	-0.89465
2.57136	0.55929
-0.18282	0.76336
-2.57997	-0.86914
-0.66735	0.12566
0.65874	1.14597
0.81175	-0.25695
1.06676	-0.51203
-1.12638	-0.25695
-0.92237	0.50828
0.32721	-0.02739
1.32178	0.15117
0.63323	0.76336
0.88825	-0.00188
0.42922	-0.00188
-0.71835	0.40625
-0.25932	0.45726
0.27621	-0.66508
0.99026	-0.25695
-1.45790	-0.35899
-0.05531	0.55929
1.42379	0.61031
0.40372	0.35523
0.27621	0.12566
-0.25932	0.53379
-0.36133	0.76336
0.17421	-0.66508
0.50573	0.04914
0.17421	-0.15492
-0.20832	0.15117
0.73524	0.55929
2.29084	-0.05289
-0.28482	0.81437
-1.63641	0.81437
-0.15732	-0.51203
0.96476	-0.00188
0.76074	-0.46102
-0.31033	0.76336
-0.64185	0.68683
1.19427	-0.05289
0.78624	-0.25695
0.17421	0.78886
-2.01894	-0.20594
0.78624	-0.33348
0.58223	0.17668
-0.99887	0.40625
0.73524	0.45726
1.55129	0.20219
0.48022	-0.20594
0.09770	0.43176
0.12320	0.38074
1.52579	0.25320
0.48022	0.22769
-1.84042	-0.35899
-1.17738	-0.56305
-1.25389	0.15117
0.58223	1.14597
2.97938	0.15117
0.07220	-0.02739
-1.38139	-0.25695
1.01576	0.02363
1.75531	0.45726
0.55673	0.10015
-0.08081	0.81437
0.07220	-0.15492
-0.82036	-0.35899
-0.36133	-0.15492
0.68424	0.27871
-0.05531	-0.02739
0.09770	0.30422
1.09226	0.35523
-0.51434	0.04914
-0.56534	0.22769
0.32721	-0.07840
0.22521	-0.25695
0.35272	0.86539
0.60773	0.48277
0.09770	0.25320
-1.10088	-1.02219
-0.59084	-1.43031
0.42922	0.61031
-0.15732	1.04394
0.48022	0.30422
2.46935	0.30422
2.03582	1.32453
0.48022	0.20219
-0.92237	-0.61406
0.17421	0.10015
-1.04987	0.12566
-0.89686	0.07465
0.78624	0.20219
-0.08081	-0.12942
-0.43783	0.10015
-0.25932	-0.12942
0.53123	0.48277
1.14327	0.73785
-0.41233	-0.28246
0.25071	-0.25695
-0.87136	-0.20594
-0.51434	0.83988
0.86275	-0.30797
0.50573	0.45726
0.70974	0.50828
0.81175	0.10015
0.83725	-0.07840
0.93925	0.76336
-0.36133	-0.28246
-0.61635	-0.07840
0.30171	-0.38449
-0.48884	1.01843
0.73524	-0.84363
-0.74385	-0.48652
-2.04444	0.53379
-0.28482	0.48277
1.34728	0.27871
0.60773	0.53379
-0.05531	-0.20594
2.36734	-0.05289
2.74987	-0.41000
-1.68742	0.58480
-2.22295	0.27871
0.32721	-0.02739
0.60773	-0.02739
0.53123	0.04914
0.09770	0.30422
1.09226	0.12566
-0.56534	0.91640
-0.92237	0.25320
-0.28482	-1.07320
0.50573	0.22769
0.48022	0.15117
0.50573	0.22769
0.93925	0.32972
0.14870	0.25320
-1.76392	0.55929
-0.61635	-0.00188
0.25071	0.10015
1.93382	0.32972
2.06133	0.43176
-0.82036	0.68683
-0.23382	-0.46102
0.14870	-0.51203
-0.02981	0.17668
0.55673	0.22769
0.50573	0.35523
0.55673	0.53379
-1.27939	0.10015
-1.84042	0.30422
0.58223	0.55929
1.21977	-0.69059
0.88825	0.20219
0.42922	0.86539
0.09770	0.25320
-1.15188	-0.15492
-1.12638	0.68683
-0.02981	-0.28246
0.30171	-0.12942
0.42922	0.25320
0.68424	1.09496
0.70974	-0.56305
0.27621	0.20219
0.30171	-0.10391
0.73524	-0.25695
0.12320	-0.02739
-0.64185	0.43176
-0.23382	0.38074
0.09770	0.22769
-0.66735	0.22769
-0.18282	0.53379
1.80631	0.27871
0.25071	-0.51203
-0.31033	0.45726
0.93925	-0.07840
0.70974	-0.66508
-1.07538	0.27871
-1.81492	0.32972
-0.76936	-0.61406
1.37278	0.73785
0.45472	0.25320
-0.02981	0.30422
1.11776	0.43176
1.19427	0.71234
-0.31033	0.58480
0.48022	-0.23145
0.88825	0.07465
-0.36133	0.15117
-0.13181	0.20219
0.19971	-2.50164
-0.92237	0.66132
-1.61091	0.04914
0.65874	0.94191
1.62780	0.66132
-0.13181	0.45726
-0.94787	0.89089
1.39828	-0.66508
-0.48884	-0.35899
0.07220	0.45726
1.06676	0.10015
0.22521	-0.05289
-0.28482	0.43176
0.09770	0.55929
0.91375	-0.38449
0.63323	-0.07840
-0.56534	-0.35899
-0.10631	0.71234
0.37822	0.81437
0.32721	-0.00188
0.93925	-1.07320
-0.31033	-0.43551
-1.53441	0.53379
-0.89686	0.71234
1.98482	-0.20594
0.25071	0.38074
0.12320	-0.02739
1.04126	0.40625
-0.02981	0.25320
-1.91693	-0.58856
0.45472	0.40625
0.60773	0.94191
0.40372	-0.23145
0.07220	-0.25695
-0.02981	-0.20594
0.81175	0.02363
0.58223	0.94191
-1.02437	-0.66508
-0.25932	-0.30797
0.37822	1.04394
0.68424	0.32972
0.04670	-0.81812
0.88825	0.17668
0.50573	-0.25695
-0.87136	0.48277
0.22521	1.09496
0.63323	0.07465
-0.48884	-0.25695
-1.35589	0.02363
0.96476	0.25320
1.83181	0.50828
0.19971	0.25320
-1.17738	-0.18043
-0.53984	-0.94566
-1.17738	-0.05289
0.07220	0.58480
0.58223	0.40625
-1.10088	-0.07840
0.40372	0.35523
1.42379	0.55929
1.34728	0.48277
1.01576	0.07465
0.22521	-0.10391
0.40372	0.17668
-0.05531	0.25320
-0.64185	0.02363
-0.79486	-0.35899
0.12320	0.27871
0.76074	0.27871
-0.25932	-0.05289
-1.15188	0.02363
0.02119	0.32972
0.14870	0.35523
0.17421	0.68683
0.58223	-0.48652
1.67880	0.30422
1.04126	0.12566
-0.25932	-0.30797
-0.61635	0.02363
0.42922	0.17668
-0.31033	0.32972
0.53123	-0.00188
-0.43783	0.66132
-1.02437	-0.12942
-0.10631	-0.51203
0.42922	0.07465
0.09770	0.17668
1.62780	0.71234
0.27621	0.30422
-2.19745	0.22769
-0.84586	0.04914
1.75531	0.04914
2.01032	-0.35899
-0.36133	-0.12942
-0.89686	0.48277
0.63323	0.71234
0.83725	0.38074
-0.84586	0.12566
-0.15732	1.17148
0.04670	-0.89465
0.27621	-0.56305
-0.02981	0.66132
0.42922	0.27871
0.68424	0.02363
-0.23382	0.50828
0.22521	0.32972
0.55673	0.10015
0.25071	-0.25695
0.68424	-0.35899
-0.99887	0.45726
-1.22839	0.45726
0.63323	-0.35899
0.50573	-0.23145
0.27621	-0.35899
0.76074	1.09496
0.53123	-0.05289
-0.46334	0.15117
-0.18282	0.25320
0.35272	0.25320
-0.89686	0.22769
1.09226	0.12566
0.19971	-0.53754
-0.48884	0.40625
1.34728	0.89089
-0.02981	0.45726
-0.87136	-0.15492
0.42922	-0.35899
1.04126	-0.30797
1.01576	0.17668
0.22521	0.12566
0.02119	0.25320
0.37822	0.25320
0.02119	0.58480
-0.99887	0.50828
-0.59084	0.35523
-0.51434	0.35523
0.35272	0.02363
0.32721	-0.66508
0.65874	0.53379
0.09770	0.17668
-0.15732	0.35523
0.12320	0.45726
0.37822	-0.35899
0.70974	0.04914
0.81175	0.76336
-0.61635	-0.02739
0.19971	0.25320
-0.00431	-0.28246
-0.87136	-0.61406
0.09770	0.32972
-0.10631	-0.25695
0.91375	-0.33348
0.93925	0.66132
0.12320	0.35523
-0.36133	0.27871
0.12320	0.32972
-0.20832	0.17668
-0.99887	-0.25695
0.17421	0.02363
1.75531	-0.53754
0.78624	0.61031
-1.20288	0.12566
-0.36133	0.22769
-0.53984	0.43176
0.81175	0.83988
1.16877	-0.33348
0.07220	-0.46102
0.12320	0.35523
0.07220	0.99292
-0.59084	-0.10391
0.19971	-0.38449
0.42922	-0.07840
0.68424	-0.30797
-0.00431	0.32972
0.12320	0.25320
0.17421	0.48277
0.93925	-0.15492
0.17421	0.25320
-1.02437	0.96742
-1.02437	-0.30797
0.42922	0.17668
0.58223	0.20219
0.37822	0.76336
0.65874	0.38074
0.35272	0.20219
-0.00431	0.17668
0.42922	0.02363
0.12320	-0.41000
0.32721	0.15117
0.25071	-0.23145
0.53123	-0.02739
0.76074	0.38074
-0.48884	0.48277
-0.25932	0.40625
-0.41233	0.17668
-0.89686	0.38074
0.76074	0.30422
0.68424	0.10015
-0.08081	0.02363
0.19971	0.12566
0.37822	0.27871
0.37822	-0.00188
0.35272	0.07465
0.25071	0.45726
-0.23382	-0.33348
0.45472	0.40625
0.50573	-0.58856
-0.48884	0.30422
-0.79486	0.20219
0.14870	0.27871
0.58223	0.15117
0.81175	0.35523
1.39828	0.02363
-0.28482	0.38074
-0.20832	0.20219
0.40372	0.22769
0.17421	-0.25695
-0.28482	0.25320
-0.28482	0.12566
0.83725	0.35523
-0.38683	0.02363
-0.13181	-0.30797
0.12320	-0.00188
0.14870	0.15117
0.22521	0.30422
0.09770	0.35523
0.60773	0.68683
0.81175	0.15117
0.09770	-0.15492
-1.33039	0.22769
-1.04987	-0.56305
0.70974	0.10015
1.06676	0.66132
0.93925	-0.05289
-0.31033	0.22769
0.14870	0.17668
0.09770	0.04914
0.81175	0.35523
-0.53984	0.30422
-0.36133	-0.30797
0.58223	0.17668
0.83725	-0.18043
-0.28482	0.43176
-0.87136	-0.02739
-0.05531	0.20219
0.14870	0.40625
0.07220	0.20219
0.81175	-0.10391
-0.20832	0.27871
0.76074	-0.00188
0.68424	-0.81812
0.93925	0.04914
-0.00431	0.91640
-0.89686	0.40625
-1.43240	0.12566
-0.10631	0.25320
1.29628	0.53379
0.48022	-0.23145
0.32721	-0.53754
0.22521	0.10015
0.37822	0.61031
-0.31033	-0.15492
0.30171	0.38074
0.58223	0.15117
-0.38683	0.22769
0.68424	0.22769
-0.99887	-0.28246
-1.20288	-0.66508
1.14327	0.40625
0.68424	-0.07840
0.45472	0.55929
0.68424	0.81437
-0.64185	0.22769
-0.69285	0.50828
0.93925	0.20219
0.35272	-0.66508
0.48022	-0.20594
0.30171	0.15117
-0.20832	0.10015
-0.25932	0.12566
-0.56534	0.22769
0.73524	0.30422
0.70974	0.61031
0.93925	-0.86914
0.17421	0.22769
-0.89686	0.25320
-0.48884	0.12566
-0.20832	-0.00188
-0.05531	-0.25695
1.47479	-0.25695
0.22521	0.40625
-0.92237	0.22769
0.63323	0.45726
-0.02981	-0.30797
0.83725	0.61031
0.19971	0.86539
-0.59084	0.45726
0.58223	-0.25695
0.17421	0.63582
0.30171	-0.53754
1.50029	0.12566
-1.27939	-0.05289
-0.00431	0.22769
0.55673	0.32972
0.42922	0.04914
-0.10631	0.12566
0.17421	-0.20594
-0.15732	-0.02739
0.19971	0.53379
-0.25932	0.20219
0.02119	-0.00188
0.19971	0.50828
-0.51434	0.68683
0.73524	-0.74160
-0.13181	-0.43551
-0.79486	0.17668
2.69887	0.61031
0.22521	0.81437
-2.09544	0.27871
-0.20832	-0.89465
0.32721	-0.05289
1.19427	0.22769
-0.10631	0.04914
-0.20832	0.40625
0.83725	0.48277
0.60773	-0.02739
0.35272	-0.10391
0.02119	-0.15492
-0.25932	0.71234
0.22521	-0.33348
0.91375	0.73785
-0.15732	-0.12942
-1.84042	0.48277
-0.18282	-0.30797
0.17421	0.96742
1.09226	-0.25695
0.73524	-0.05289
0.42922	-0.10391
0.35272	0.78886
0.22521	0.32972
1.16877	0.66132
-0.02981	0.40625
-0.97337	-0.07840
-0.20832	0.10015
0.50573	-0.07840
0.65874	0.35523
0.45472	-0.28246
-0.99887	-0.43551
-0.79486	0.22769
0.04670	0.30422
0.93925	0.17668
1.50029	0.22769
0.40372	-0.18043
0.22521	0.55929
0.63323	0.25320
0.19971	0.30422
-0.33583	0.15117
-1.43240	0.40625
0.04670	0.45726
0.50573	-0.58856
0.45472	-0.35899
0.14870	0.66132
-1.50890	0.45726
0.73524	0.94191
1.52579	0.15117
0.04670	-0.28246
-0.10631	0.40625
0.17421	0.04914
0.65874	0.20219
-0.02981	-0.63957
0.35272	0.17668
0.14870	0.50828
-1.10088	-0.20594
-0.46334	0.66132
0.50573	0.63582
1.24527	-0.25695
1.60230	0.48277
0.02119	-0.43551
-0.38683	-0.56305
-0.43783	0.17668
-0.56534	1.47757
-0.38683	0.27871
0.70974	-0.12942
1.34728	0.38074
-0.13181	0.15117
-0.87136	0.43176
0.04670	-0.66508
0.35272	-0.20594
0.73524	-0.56305
1.39828	0.63582
-0.33583	0.66132
-1.40690	0.35523
-0.28482	0.58480
0.60773	-0.56305
0.32721	-0.05289
0.83725	-0.05289
0.27621	0.30422
-0.13181	0.17668
0.48022	0.50828
-0.31033	0.55929
0.25071	0.20219
-0.48884	-0.48652
0.17421	0.58480
0.35272	0.35523
0.88825	-0.25695
0.88825	0.30422
-0.05531	0.45726
0.22521	-0.20594
-0.48884	-1.40480
-0.74385	-0.15492
0.27621	0.71234
-0.08081	0.94191
0.25071	0.76336
2.16333	-0.30797
0.19971	-0.66508
-0.48884	0.15117
-1.20288	0.50828
0.35272	0.91640
1.14327	0.20219
0.81175	-0.02739
-0.08081	-0.00188
0.22521	0.10015
-0.20832	-0.30797
-0.18282	-0.81812
0.32721	-0.07840
0.73524	0.86539
-0.08081	0.43176
-0.51434	-1.50683
-1.17738	0.61031
-1.02437	-0.23145
0.45472	0.53379
0.58223	0.40625
0.09770	0.66132
0.04670	0.17668
-0.25932	-0.07840
0.17421	-0.38449
2.13783	0.12566
0.14870	0.02363
-0.36133	0.35523
-0.41233	-0.46102
-0.08081	0.04914
1.16877	0.30422
0.35272	0.43176
-0.46334	0.32972
0.83725	0.66132
0.09770	-0.15492
1.70430	0.04914
0.12320	0.04914
-2.78398	-0.12942
-0.53984	-0.61406
0.50573	0.68683
1.19427	1.04394
0.99026	0.15117
0.50573	-0.05289
1.06676	-0.02739
0.37822	-0.07840
-0.00431	0.66132
0.96476	0.17668
-0.33583	-0.33348
-1.81492	-0.10391
0.37822	-0.28246
-0.38683	0.63582
-0.33583	0.12566
-0.15732	0.25320
0.50573	-0.23145
0.35272	-0.10391
-0.38683	0.50828
-0.08081	0.40625
1.09226	0.27871
1.06676	0.12566
-0.69285	-0.12942
-0.05531	0.78886
0.37822	0.73785
0.30171	-0.86914
0.83725	-0.81812
0.27621	-0.05289
-0.08081	0.53379
0.14870	-0.07840
-0.59084	0.15117
-0.71835	0.30422
-0.05531	-0.02739
-0.66735	-0.25695
0.25071	0.68683
2.11233	0.04914
-0.33583	0.20219
-0.59084	0.20219
0.37822	0.50828
-0.94787	-0.25695
0.68424	0.12566
1.37278	-0.07840
0.09770	0.04914
-0.51434	0.48277
0.32721	0.30422
1.27078	-0.46102
-0.13181	0.35523
0.27621	0.58480
0.04670	-0.20594
-0.46334	0.45726
-0.08081	0.15117
-0.66735	-0.15492
-0.25932	0.04914
0.22521	0.27871
0.48022	0.61031
0.58223	-0.12942
1.93382	-0.00188
-0.20832	0.12566
-1.68742	-0.15492
-0.25932	0.20219
0.83725	-0.53754
0.76074	0.25320
0.25071	0.35523
0.27621	0.32972
0.22521	0.30422
1.19427	0.58480
-0.66735	0.22769
-1.20288	-0.07840
-0.18282	-0.07840
1.29628	-0.28246
0.40372	-0.02739
-0.59084	0.30422
1.01576	-0.12942
0.45472	0.15117
-0.48884	0.50828
-0.10631	0.55929
-0.10631	0.30422
0.22521	0.22769
0.40372	-0.00188
0.22521	-0.05289
0.40372	0.38074
-0.13181	0.32972
0.07220	0.02363
-0.13181	-0.71609
0.48022	0.07465
-0.48884	0.55929
-1.33039	0.04914
-0.10631	0.50828
1.52579	0.76336
1.19427	-0.33348
0.76074	-0.15492
0.48022	0.04914
-0.08081	0.12566
-0.02981	0.40625
-0.10631	-0.00188
-0.10631	0.58480
-0.46334	-0.15492
0.14870	-0.15492
0.40372	-0.02739
-0.28482	0.15117
-0.02981	-0.02739
-0.31033	0.04914
0.25071	0.50828
0.50573	0.83988
0.88825	0.17668
0.19971	0.07465
-0.23382	0.17668
0.17421	-0.10391
0.37822	-0.05289
0.50573	-0.61406
0.37822	0.32972
0.25071	0.27871
0.02119	0.22769
-0.10631	0.40625
0.73524	0.55929
-0.23382	0.20219
-0.59084	-0.02739
0.27621	-0.35899
0.58223	0.48277
-1.45790	-0.15492
-1.04987	-0.30797
1.09226	0.17668
1.01576	-0.51203
0.78624	0.58480
0.50573	0.55929
0.40372	0.07465
-0.20832	0.63582
1.04126	0.76336
-0.61635	0.15117
-1.73842	-0.10391
-0.94787	0.04914
0.91375	0.12566
1.11776	-0.18043
0.86275	0.04914
0.42922	0.15117
-0.59084	0.22769
0.60773	0.63582
0.17421	-0.07840
-1.20288	-0.18043
-0.10631	0.35523
1.32178	0.83988
0.53123	-0.69059
0.25071	-0.89465
0.55673	0.68683
-1.20288	0.86539
-0.74385	0.55929
-0.51434	0.76336
0.83725	-0.20594
1.98482	0.32972
1.24527	0.22769
0.45472	0.20219
-0.02981	-0.00188
-0.20832	-0.28246
-0.61635	0.12566
-0.15732	0.22769
0.12320	0.22769
-0.69285	-0.02739
-0.25932	0.30422
0.40372	-0.00188
0.83725	0.17668
0.07220	0.20219
-0.15732	0.15117
-0.31033	0.02363
-0.10631	-0.00188
0.02119	0.04914
0.58223	0.48277
1.09226	1.04394
0.12320	-0.41000
-0.02981	-0.58856
0.27621	-0.00188
-0.94787	0.07465
-0.08081	-0.69059
0.42922	0.30422
-0.05531	0.71234
1.16877	0.53379
-0.28482	0.55929
0.45472	0.63582
1.16877	0.22769
-0.10631	0.35523
-0.08081	-0.00188
0.30171	-0.02739
-0.71835	0.07465
-0.10631	-0.12942
-0.10631	-0.18043
0.12320	-0.10391
0.55673	-0.07840
0.19971	0.04914
-0.15732	0.07465
0.17421	0.10015
0.07220	0.22769
1.06676	0.35523
0.93925	0.15117
-0.25932	0.50828
-1.38139	1.40105
-0.46334	-1.02219
0.60773	0.35523
0.37822	-0.43551
0.86275	0.35523
-0.18282	0.22769
0.32721	0.02363
0.76074	-0.33348
0.83725	0.20219
0.48022	0.81437
1.37278	0.89089
0.53123	0.66132
-2.01894	0.45726
-1.12638	0.07465
0.02119	-0.18043
0.81175	0.17668
1.24527	-0.12942
-0.18282	-0.10391
-0.61635	-0.41000
-0.31033	-0.48652
1.04126	-0.00188
-0.61635	0.45726
-0.13181	0.25320
-0.23382	0.12566
1.14327	0.25320
1.24527	0.07465
0.37822	0.10015
-0.31033	0.78886
-0.59084	0.15117
0.22521	-0.46102
0.93925	-0.18043
-0.05531	0.81437
-0.84586	0.10015
-0.13181	0.15117
0.78624	-0.07840
1.01576	0.55929
0.88825	0.35523
-0.48884	0.15117
-0.59084	-0.15492
0.40372	0.45726
-0.33583	-0.56305
0.07220	0.04914
0.19971	1.22250
-0.23382	-0.25695
1.29628	-0.02739
0.81175	-0.25695
-0.23382	0.48277
-0.84586	0.48277
-0.61635	0.30422
0.09770	-0.05289
0.88825	-0.25695
1.29628	-0.00188
0.09770	0.45726
-0.51434	0.07465
-0.00431	0.10015
1.04126	0.25320
0.86275	0.63582
-0.87136	0.25320
-0.36133	-0.28246
0.04670	-0.41000
0.53123	0.15117
-0.38683	-0.07840
-0.20832	-0.07840
-0.15732	0.35523
1.16877	0.96742
0.63323	-0.02739
-0.20832	-0.02739
0.07220	-0.66508
0.35272	0.04914
0.17421	0.30422
0.17421	0.73785
-0.53984	0.35523
0.32721	0.04914
0.65874	-0.10391
0.86275	0.50828
-0.92237	0.40625
0.07220	-0.35899
0.55673	-0.56305
-0.02981	0.22769
-0.02981	0.78886
-0.48884	0.40625
-0.08081	0.35523
1.14327	0.25320
0.83725	0.22769
1.09226	0.48277
0.48022	-0.10391
-0.69285	-0.07840
-0.46334	-0.66508
-0.08081	0.20219
0.35272	0.58480
0.27621	0.25320
0.70974	0.20219
0.27621	0.71234
-0.33583	1.06945
0.04670	-1.48133
0.40372	0.53379
0.53123	0.25320
0.53123	0.40625
-0.89686	-0.18043
0.45472	-0.05289
1.14327	0.07465
-0.18282	0.27871
-0.28482	0.27871
0.17421	0.71234
0.48022	0.17668
-0.33583	0.10015
-1.68742	-0.12942
0.37822	-0.05289
1.19427	0.04914
0.99026	0.15117
0.48022	0.53379
-0.23382	-0.20594
0.37822	0.50828
-0.38683	0.30422
0.37822	0.38074
0.30171	-0.12942
-0.02981	-0.23145
0.02119	0.15117
-0.89686	0.12566
0.63323	-0.23145
-0.18282	-0.23145
-1.25389	0.66132
-0.08081	0.10015
0.93925	0.38074
0.60773	0.32972
0.73524	0.22769
1.55129	0.71234
-0.18282	0.04914
-1.17738	-0.58856
-0.99887	-0.10391
0.40372	-0.20594
0.48022	0.50828
0.53123	0.71234
1.21977	-0.12942
-0.05531	-0.25695
-0.31033	0.48277
-0.05531	0.07465
0.22521	0.22769
0.58223	0.04914
-0.25932	0.20219
-1.40690	0.94191
1.09226	-0.56305
0.42922	0.02363
-1.48340	0.45726
-1.22839	0.25320
2.13783	0.07465
1.42379	0.38074
-0.48884	0.22769
1.70430	0.12566
0.55673	-0.28246
0.04670	0.43176
-1.84042	0.53379
0.70974	0.12566
0.68424	0.04914
0.02119	-0.10391
0.63323	0.10015
0.25071	0.22769
-1.53441	-0.41000
0.32721	-0.18043
0.73524	0.22769
0.55673	0.35523
0.50573	0.89089
0.19971	0.45726
-0.71835	-0.46102
-0.36133	0.27871
1.24527	-0.41000
-0.10631	0.27871
-0.08081	0.10015
-0.56534	0.02363
-0.05531	-0.18043
0.65874	1.06945
0.73524	-0.92016
1.29628	0.45726
-0.02981	0.55929
-0.59084	-0.02739
-1.30489	0.15117
0.50573	0.17668
0.76074	-0.25695
1.39828	-0.25695
0.65874	0.38074
-1.20288	-0.07840
-1.20288	0.40625
1.47479	0.30422
0.83725	-0.02739
-1.35589	0.22769
-0.41233	0.32972
0.17421	-0.10391
1.29628	0.22769
-0.59084	0.12566
0.22521	-0.02739
1.01576	0.15117
0.91375	0.25320
-0.64185	0.32972
-0.51434	-0.05289
0.70974	0.38074
0.63323	0.32972
-0.13181	0.07465
-0.25932	0.48277
0.27621	-0.35899
-0.15732	0.30422
-0.23382	0.15117
-0.02981	0.73785
1.65330	0.07465
0.09770	0.15117
-0.02981	0.27871
0.73524	0.07465
0.32721	0.10015
-0.61635	0.48277
-1.58541	0.55929
1.04126	0.15117
0.55673	-0.58856
-0.46334	0.12566
0.53123	0.55929
-0.46334	-0.00188
0.25071	0.30422
0.99026	1.17148
1.01576	-0.15492
1.55129	0.12566
0.55673	0.02363
0.12320	0.32972
0.42922	0.48277
-1.22839	0.30422
-1.91693	-0.15492
0.63323	0.30422
0.37822	0.55929
-0.38683	-0.86914
0.42922	0.40625
0.86275	0.48277
0.22521	-0.84363
0.58223	0.15117
-0.13181	0.43176
-0.53984	0.73785
-0.00431	0.38074
0.12320	0.89089
0.83725	0.45726
0.53123	-0.38449
-0.18282	-0.23145
-0.10631	0.30422
-0.43783	0.22769
0.42922	0.32972
0.73524	0.22769
0.50573	0.35523
-0.48884	0.17668
-0.48884	0.55929
0.48022	-0.05289
0.70974	-0.35899
-0.18282	-0.51203
-0.69285	0.20219
0.35272	1.50308
0.91375	0.25320
1.04126	-1.30277
-0.38683	0.50828
-0.76936	-0.05289
-0.10631	0.53379
0.09770	0.94191
0.32721	-0.61406
1.72980	0.40625
1.57679	-0.30797
-0.92237	0.32972
-2.91149	0.30422
-0.79486	0.55929
2.26534	0.22769
0.68424	0.12566
-0.71835	0.22769
0.88825	0.15117
1.06676	0.12566
0.14870	-0.05289
0.81175	0.10015
-0.18282	-0.10391
-0.18282	-0.05289
-0.00431	0.12566
-0.43783	0.04914
-0.28482	0.55929
0.70974	0.50828
0.55673	0.30422
0.37822	-0.12942
-0.43783	0.43176
-0.18282	0.63582
-0.48884	-0.18043
0.63323	-0.10391
1.57679	0.27871
0.83725	-0.28246
-1.10088	0.53379
-1.22839	0.61031
0.50573	0.02363
0.93925	0.04914
0.22521	0.04914
-0.05531	0.58480
0.14870	0.12566
0.63323	-0.25695
0.93925	0.15117
0.35272	0.20219
-1.02437	-0.10391
-0.10631	0.10015
0.35272	-0.02739
-0.08081	0.25320
-0.69285	0.30422
0.88825	0.10015
0.58223	0.15117
0.09770	0.32972
-1.04987	0.32972
-0.20832	0.12566
0.12320	0.04914
1.47479	0.22769
0.83725	-0.00188
0.53123	-0.07840
0.27621	0.30422
0.40372	0.53379
0.50573	-0.12942
-0.48884	0.07465
-0.69285	-0.07840
0.04670	0.25320
-0.10631	0.15117
-0.02981	0.27871
0.12320	-0.20594
0.60773	0.55929
0.58223	-0.00188
0.27621	0.25320
-0.74385	0.55929
-0.05531	0.07465
0.53123	0.07465
0.99026	0.10015
-0.43783	0.61031
-0.31033	-0.58856
-0.56534	0.25320
0.14870	0.30422
1.60230	-0.33348
0.50573	0.22769
0.58223	0.50828
-0.13181	0.91640
0.12320	-0.07840
0.86275	-0.30797
-0.53984	0.07465
-0.74385	0.10015
-0.25932	0.10015
-0.08081	0.25320
0.58223	0.55929
1.83181	-0.15492
-1.15188	-0.35899
-2.04444	0.35523
-0.15732	0.10015
-0.00431	0.15117
1.04126	-0.02739
1.06676	0.58480
1.24527	0.04914
1.01576	0.35523
-0.46334	0.25320
-0.36133	-0.00188
0.22521	0.38074
0.22521	0.17668
-0.20832	-0.02739
0.22521	0.38074
0.09770	0.04914
0.17421	0.12566
0.12320	0.22769
0.53123	0.38074
0.04670	0.07465
-0.76936	0.50828
0.22521	0.12566
0.50573	0.48277
0.70974	-0.25695
-0.05531	-0.18043
-0.08081	0.15117
0.35272	0.43176
-0.25932	-0.35899
0.25071	0.55929
0.53123	0.45726
0.27621	0.27871
1.24527	0.50828
0.02119	0.04914
0.40372	-0.28246
0.30171	-0.35899
-0.25932	0.78886
-0.84586	-0.46102
-0.69285	-0.23145
0.04670	0.30422
1.52579	0.66132
-0.59084	0.12566
-1.02437	0.53379
-0.53984	-0.05289
1.06676	0.10015
1.09226	0.25320
0.40372	0.10015
0.68424	0.40625
0.45472	0.15117
0.48022	-0.25695
-0.15732	0.40625
-0.08081	0.15117
-0.18282	-0.18043
-0.51434	-0.28246
-0.23382	0.15117
-0.05531	0.35523
0.27621	0.50828
0.22521	0.43176
1.16877	-0.00188
1.11776	0.12566
-0.84586	0.25320
-0.69285	-0.15492
1.29628	0.04914
0.42922	0.27871
-0.64185	0.12566
-0.08081	0.30422
0.25071	0.43176
-0.61635	-0.33348
0.22521	0.20219
0.76074	0.20219
0.30171	0.50828
0.12320	0.17668
0.63323	-0.23145
0.35272	-0.46102
0.07220	0.04914
-0.59084	0.40625
0.32721	0.50828
0.48022	0.04914
0.63323	0.32972
-0.36133	-0.05289
0.07220	-0.25695
-0.05531	0.25320
-1.48340	0.63582
0.22521	-0.05289
0.19971	-0.00188
0.73524	-0.23145
1.60230	0.20219
0.04670	0.48277
-2.63097	0.40625
0.60773	-0.05289
0.55673	-0.10391
0.91375	-0.05289
0.60773	-0.12942
0.02119	0.27871
-0.43783	0.40625
-0.41233	0.15117
-0.10631	-0.05289
1.14327	0.53379
0.53123	0.12566
-1.02437	0.10015
-0.33583	0.32972
0.12320	-0.00188
-0.53984	0.12566
-0.53984	-0.18043
2.36734	0.38074
0.07220	-0.15492
0.14870	0.35523
0.63323	0.25320
-0.46334	0.38074
-0.76936	-0.51203
-0.82036	0.45726
-0.46334	0.17668
1.16877	0.15117
1.90832	-0.20594
-0.20832	0.25320
-0.48884	0.30422
0.53123	0.66132
-0.08081	0.35523
0.60773	-0.20594
0.32721	-0.25695
0.22521	0.17668
0.02119	-0.30797
-0.08081	0.30422
-1.43240	0.38074
1.16877	-0.20594
0.63323	0.25320
-2.01894	0.45726
-0.36133	0.50828
1.11776	-0.30797
1.24527	0.15117
1.16877	0.07465
0.40372	0.22769
-0.87136	-0.07840
-0.33583	0.15117
-0.08081	0.35523
0.22521	-0.25695
0.17421	-0.07840
-0.02981	0.25320
0.73524	0.20219
0.60773	0.32972
0.96476	-0.15492
-0.71835	-0.25695
-1.12638	0.45726
0.02119	0.78886
0.45472	0.27871
0.09770	0.30422
0.86275	0.12566
1.27078	0.32972
-0.41233	0.25320
0.12320	-0.10391
0.99026	0.30422
0.12320	0.30422
-0.66735	-0.15492
0.32721	0.07465
0.45472	0.30422
0.40372	-0.00188
0.58223	0.81437
-0.20832	0.43176
0.35272	0.10015
-0.00431	0.02363
-0.38683	0.20219
-0.61635	0.17668
0.76074	0.66132
0.40372	-0.12942
0.19971	0.22769
0.73524	-0.84363
0.68424	0.25320
0.55673	0.25320
-0.59084	1.17148
-0.10631	0.25320
-0.48884	0.02363
-0.59084	0.25320
-0.10631	0.76336
0.48022	0.10015
1.19427	0.04914
0.42922	-0.20594
0.02119	-0.38449
0.09770	0.35523
0.88825	0.04914
-0.48884	-0.05289
-1.27939	0.04914
0.63323	0.45726
-0.02981	0.02363
-0.41233	-0.15492
1.16877	0.35523
-0.33583	0.38074
1.19427	0.50828
0.48022	0.45726
-0.76936	-0.38449
0.22521	0.02363
0.93925	0.12566
1.14327	0.81437
-0.92237	-1.12422
-1.50890	0.25320
0.88825	0.04914
1.04126	0.02363
0.73524	1.55410
0.86275	-0.28246
1.09226	0.53379
0.07220	0.10015
-0.59084	0.02363
0.19971	-0.12942
-0.53984	0.04914
-0.61635	0.30422
-0.43783	-0.46102
-0.00431	0.10015
0.42922	0.25320
1.34728	0.15117
-1.38139	0.25320
0.27621	0.53379
0.60773	0.40625
0.48022	-0.25695
0.12320	0.22769
0.68424	0.20219
1.14327	0.32972
0.45472	0.48277
-0.05531	0.04914
-0.25932	-0.25695
-2.12094	-1.27726
-0.02981	0.55929
1.06676	0.73785
0.04670	0.71234
-0.33583	-0.58856
0.63323	0.27871
1.01576	0.43176
0.50573	-0.10391
0.32721	0.27871
0.37822	0.10015
-0.08081	0.17668
-0.38683	-0.15492
-0.48884	-0.28246
0.14870	0.22769
0.07220	0.48277
1.34728	0.61031
-0.84586	-0.35899
-1.94243	0.22769
0.45472	0.12566
1.16877	0.02363
1.42379	0.68683
0.42922	-0.25695
0.19971	1.14597
-0.02981	-0.20594
-0.48884	-1.04770
-0.23382	-0.02739
0.42922	0.15117
-0.82036	0.76336
-1.04987	0.35523
0.88825	-0.23145
2.34184	0.17668
0.45472	0.35523
-2.35046	0.07465
-0.31033	-0.15492
0.86275	0.04914
0.53123	0.38074
1.06676	0.07465
0.86275	0.17668
0.17421	0.15117
-0.00431	0.30422
0.22521	0.50828
-0.38683	-0.00188
0.25071	0.10015
-0.79486	-0.41000
-0.43783	-0.00188
-0.43783	0.53379
0.35272	0.94191
2.01032	0.10015
0.32721	-0.20594
0.40372	-0.69059
-0.15732	0.02363
0.32721	0.71234
0.22521	-0.48652
-0.66735	0.35523
-0.02981	0.15117
0.09770	1.01843
0.37822	0.10015
2.08683	-0.10391
0.40372	0.27871
-2.29945	0.32972
-1.04987	0.45726
0.70974	-0.35899
0.63323	0.20219
0.76074	-0.00188
0.65874	0.10015
0.73524	0.58480
-0.82036	-0.07840
-0.53984	-0.51203
0.73524	0.48277
0.22521	-0.10391
-0.48884	-0.18043
1.19427	0.17668
-0.00431	0.12566
-0.64185	0.22769
1.65330	0.32972
-0.59084	-0.15492
-1.10088	0.61031
0.42922	-0.05289
0.53123	0.35523
-0.23382	0.22769
0.53123	0.02363
1.95932	-0.12942
0.09770	0.12566
-2.75848	0.50828
0.58223	-0.10391
0.73524	-0.00188
-0.36133	-0.02739
-0.25932	0.55929
0.78624	0.32972
0.76074	-0.53754
0.53123	0.10015
0.02119	0.17668
-0.13181	0.02363
-0.13181	0.35523
0.19971	0.20219
0.12320	0.30422
-0.15732	0.20219
0.99026	0.45726
-1.02437	-0.25695
-1.07538	0.38074
0.30171	-0.66508
0.09770	0.02363
0.35272	0.35523
-0.10631	-0.28246
0.40372	0.45726
1.44929	0.17668
0.58223	0.55929
-0.97337	-0.18043
-0.41233	-0.07840
2.13783	0.15117
0.93925	0.99292
-2.52897	0.40625
-0.15732	0.02363
1.34728	0.17668
0.22521	-0.00188
-0.97337	-0.18043
1.29628	-0.05289
0.19971	0.07465
0.27621	0.04914
1.04126	0.38074
-0.25932	0.43176
0.07220	0.20219
-1.43240	0.07465
-0.64185	0.15117
0.14870	0.35523
1.37278	0.15117
0.88825	0.04914
-0.20832	-0.05289
0.93925	-0.12942
0.25071	-0.15492
-0.38683	0.45726
0.53123	0.58480
-0.25932	-0.15492
-0.31033	-0.05289
0.35272	0.45726
0.14870	0.32972
0.02119	0.12566
0.68424	0.35523
0.19971	-0.05289
-0.02981	0.66132
0.55673	-0.58856
1.14327	0.20219
0.09770	0.02363
-0.53984	0.45726
-1.07538	-0.35899
-1.40690	0.10015
0.27621	0.30422
0.99026	0.07465
0.91375	1.57960
0.78624	-1.12422
1.19427	0.10015
0.50573	0.27871
-0.61635	0.61031
-0.97337	0.40625
1.04126	-0.74160
0.93925	0.30422
-0.51434	-0.12942
-0.51434	0.20219
-0.64185	0.10015
-0.59084	0.55929
0.78624	0.43176
0.88825	-0.41000
0.40372	-0.18043
0.09770	0.22769
0.60773	0.32972
0.63323	0.45726
0.63323	0.25320
0.19971	-0.05289
-1.63641	0.22769
-1.07538	0.32972
-0.18282	0.02363
-0.48884	-0.18043
0.88825	0.20219
1.14327	0.25320
0.17421	-0.18043
0.99026	-0.05289
1.06676	0.55929
-0.28482	0.81437
-0.13181	0.45726
-0.20832	-0.18043
0.02119	-0.18043
-0.43783	0.15117
-1.22839	-0.05289
0.12320	0.02363
0.32721	0.35523
0.22521	0.20219
0.58223	0.73785
1.62780	-1.14973
0.30171	0.15117
-0.15732	0.30422
-0.71835	0.55929
-0.15732	0.04914
0.27621	0.07465
0.99026	0.32972
0.17421	0.15117
-0.15732	0.12566
0.22521	0.48277
0.32721	0.12566
0.17421	0.15117
-0.31033	0.12566
-0.53984	0.17668
0.60773	-0.25695
0.86275	-0.10391
0.73524	0.32972
-0.53984	-0.02739
-0.82036	0.27871
1.34728	0.58480
0.27621	0.04914
-1.25389	-0.12942
0.68424	0.07465
1.06676	0.25320
0.32721	0.30422
0.12320	0.12566
1.55129	0.17668
-1.27939	-0.05289
-0.53984	0.22769
0.53123	-0.12942
0.30171	0.27871
0.37822	0.66132
-0.10631	-0.25695
0.27621	0.10015
0.02119	0.10015
0.42922	0.10015
0.19971	0.27871
-0.08081	0.50828
-0.76936	0.04914
-0.08081	-0.15492
0.48022	0.02363
1.47479	0.12566
0.27621	-0.33348
-1.48340	0.53379
-0.97337	0.81437
0.55673	-0.23145
0.55673	-0.00188
0.35272	0.20219
1.06676	0.30422
0.96476	0.35523
0.40372	0.30422
-0.28482	0.04914
-0.28482	0.22769
0.27621	0.12566
0.55673	0.07465
-0.71835	-0.00188
-0.05531	0.04914
0.09770	0.15117
-1.07538	0.40625
-0.02981	0.12566
1.16877	-0.05289
1.04126	0.10015
-0.13181	-0.46102
-0.89686	0.66132
0.12320	-0.41000
-0.00431	0.35523
0.25071	0.45726
0.48022	0.66132
0.53123	0.76336
-0.15732	0.04914
0.37822	0.27871
0.12320	0.02363
0.88825	0.10015
-0.64185	0.91640
-0.76936	-0.00188
0.35272	-0.46102
0.37822	0.07465
0.42922	-0.35899
0.30171	0.10015
-0.20832	0.45726
0.07220	0.53379
0.63323	0.25320
-0.02981	-0.15492
0.60773	0.50828
1.34728	0.12566
-0.36133	-0.15492
-0.43783	0.22769
-0.46334	-0.30797
0.58223	0.27871
-0.25932	0.96742
-0.10631	-0.66508
0.58223	0.07465
0.22521	-0.33348
0.37822	0.48277
1.06676	0.04914
-0.51434	0.17668
-1.07538	0.20219
0.19971	0.04914
0.22521	0.12566
0.27621	0.12566
0.58223	-0.15492
0.22521	0.25320
-0.10631	0.15117
-0.13181	-0.12942
-0.18282	0.12566
0.42922	0.35523
0.86275	0.15117
-0.36133	-0.00188
-1.27939	0.30422
0.19971	0.76336
0.86275	-0.33348
-0.25932	-0.48652
0.04670	0.10015
0.58223	0.40625
0.78624	0.73785
0.83725	0.12566
-0.79486	0.04914
0.04670	-0.07840
0.50573	0.22769
-0.28482	0.25320
0.73524	0.48277
0.50573	0.32972
0.19971	0.48277
-0.51434	0.15117
1.09226	0.12566
0.27621	-0.07840
-1.61091	-1.02219
-0.51434	-0.61406
0.42922	0.66132
0.81175	0.35523
0.45472	-0.10391
-0.25932	0.15117
1.04126	1.29902
0.73524	0.68683
-0.69285	-0.23145
-0.41233	-0.33348
0.86275	0.20219
0.30171	0.20219
1.11776	0.43176
-0.46334	-0.05289
-0.28482	0.43176
-1.07538	0.02363
0.55673	0.27871
0.55673	0.35523
0.12320	-0.10391
0.25071	-0.18043
0.04670	0.20219
-0.13181	-0.05289
-0.15732	-0.10391
0.22521	0.20219
-0.00431	0.35523
0.19971	0.32972
0.02119	0.04914
0.68424	0.53379
1.21977	0.20219
-0.64185	-0.28246
-1.25389	-0.35899
0.86275	0.04914
0.93925	0.17668
-0.23382	0.99292
0.22521	-0.35899
0.65874	0.30422
-1.63641	-0.28246
-1.07538	-0.28246
1.32178	-0.05289
1.32178	0.55929
0.02119	0.12566
0.78624	0.22769
0.30171	0.15117
-0.46334	-0.05289
0.12320	0.15117
-0.05531	0.25320
-0.43783	-0.07840
0.27621	0.07465
-0.38683	-0.10391
-1.04987	0.15117
0.63323	0.10015
0.76074	0.25320
1.29628	-0.41000
-0.28482	-0.02739
-1.04987	0.43176
0.35272	0.02363
1.55129	0.27871
0.55673	0.63582
-0.69285	0.71234
-0.28482	0.02363
0.99026	-0.63957
0.07220	-0.66508
-0.08081	0.32972
0.55673	0.96742
1.16877	0.25320
-0.59084	0.25320
-0.59084	0.45726
0.63323	0.40625
0.91375	-0.61406
-0.10631	0.25320
-0.31033	0.04914
0.27621	-0.15492
0.32721	0.10015
-0.05531	0.04914
0.14870	0.20219
0.27621	0.35523
0.19971	-0.07840
0.22521	0.10015
0.07220	-0.02739
-0.20832	0.17668
0.12320	0.22769
-0.00431	0.22769
0.22521	0.30422
0.45472	0.30422
0.04670	0.20219
0.12320	0.48277
-0.76936	0.22769
-0.28482	-0.81812
0.86275	0.27871
0.02119	-0.05289
0.27621	0.22769
0.40372	0.22769
-0.23382	0.15117
0.70974	0.76336
-0.08081	-0.00188
-0.84586	-0.71609
0.76074	0.12566
0.17421	0.48277
-0.28482	0.61031
0.32721	-0.00188
-0.00431	0.07465
0.12320	0.15117
0.53123	0.25320
1.34728	0.27871
-0.18282	-0.02739
0.19971	-0.43551
-1.55991	0.02363
-2.04444	-0.28246
0.83725	0.68683
1.27078	-0.56305
0.58223	-0.10391
0.91375	0.81437
0.63323	0.61031
0.22521	0.25320
0.19971	0.53379
0.17421	-0.18043
0.42922	0.10015
0.37822	-0.05289
0.07220	0.66132
-1.55991	0.32972
-1.40690	0.48277
-0.05531	-0.12942
2.01032	0.10015
1.75531	-0.02739
0.17421	-0.15492
-1.38139	0.22769
0.76074	-0.10391
0.58223	0.63582
1.70430	0.04914
-0.41233	-0.30797
-0.97337	0.32972
-0.18282	0.17668
0.58223	0.66132
0.73524	-0.05289
-0.28482	-0.05289
0.12320	0.40625
0.37822	-0.20594
-0.43783	0.25320
0.09770	0.55929
0.42922	0.25320
0.78624	0.27871
0.12320	-0.12942
-1.30489	0.30422
0.60773	-0.30797
1.27078	-0.05289
-0.36133	-0.81812
-0.56534	0.40625
-1.35589	0.30422
-0.13181	0.22769
1.27078	-0.15492
1.27078	-0.46102
1.06676	0.17668
1.09226	0.35523
-0.59084	0.10015
-0.87136	-0.33348
0.25071	0.43176
0.35272	0.04914
0.22521	0.81437
0.35272	0.55929
-0.00431	0.04914
-0.20832	0.25320
-0.23382	0.17668
-0.08081	0.55929
-0.46334	-0.18043
-0.69285	-0.10391
1.27078	-0.15492
0.63323	0.07465
0.83725	0.43176
1.16877	-0.20594
0.07220	0.20219
-1.12638	-0.30797
-0.20832	0.32972
1.39828	0.55929
0.17421	0.10015
-0.18282	0.27871
-0.69285	-0.20594
0.55673	-0.00188
-0.43783	0.15117
-0.48884	0.73785
0.37822	-0.02739
-0.20832	0.66132
0.58223	-0.97117
0.48022	-0.20594
0.32721	0.35523
1.06676	0.15117
-0.23382	0.12566
-0.43783	-0.25695
0.17421	0.58480
1.04126	0.55929
0.60773	0.22769
-0.79486	0.02363
-0.74385	0.32972
-1.35589	-0.23145
1.95932	0.86539
1.34728	-0.48652
-0.97337	-0.23145
0.30171	0.17668
-0.08081	0.30422
-0.33583	0.38074
1.09226	-0.05289
0.07220	-0.18043
0.07220	0.25320
0.02119	0.25320
0.22521	0.25320
0.83725	0.22769
0.14870	0.50828
0.81175	0.20219
0.19971	0.35523
0.07220	0.04914
-1.15188	-0.25695
-1.25389	-0.33348
-0.64185	-0.15492
0.53123	0.30422
1.04126	0.86539
1.83181	-0.23145
0.45472	0.07465
-1.61091	0.43176
0.14870	0.04914
0.96476	-0.12942
0.63323	0.22769
0.27621	0.35523
0.53123	0.04914
-0.02981	-0.56305
0.07220	0.53379
0.99026	0.66132
0.17421	-0.05289
-0.38683	0.17668
-0.48884	0.66132
0.25071	-0.23145
0.17421	-0.56305
-0.76936	0.40625
-0.43783	-0.02739
0.27621	0.50828
-0.00431	-0.33348
0.68424	0.07465
0.73524	0.02363
0.73524	0.55929
-0.36133	0.66132
0.09770	0.10015
1.06676	-0.56305
0.09770	0.58480
-0.87136	0.53379
-0.64185	-0.63957
0.83725	0.20219
1.50029	0.71234
0.55673	-0.00188
-0.41233	-0.07840
-0.87136	0.20219
-0.28482	-0.00188
0.55673	0.32972
0.63323	0.25320
0.19971	-0.10391
-0.20832	0.20219
-0.08081	-0.12942
0.04670	0.12566
0.93925	0.15117
0.02119	0.35523
-0.28482	-0.15492
0.53123	-0.07840
0.14870	-0.12942
0.48022	0.50828
-0.18282	0.12566
-0.28482	0.20219
0.30171	0.30422
0.78624	0.25320
0.60773	-0.23145
-0.43783	0.04914
-1.40690	-0.05289
-0.08081	0.35523
1.42379	0.32972
0.35272	-0.25695
-0.15732	0.25320
0.42922	0.45726
0.22521	0.25320
0.12320	-0.10391
0.73524	0.35523
0.04670	0.15117
0.30171	-0.28246
0.30171	0.02363
-0.61635	0.02363
-0.28482	0.25320
0.55673	0.73785
0.30171	-0.00188
0.35272	-0.58856
0.53123	-0.07840
0.02119	0.30422
0.60773	0.30422
0.17421	0.86539
-1.30489	0.30422
0.53123	0.04914
0.83725	0.07465
0.07220	0.40625
-0.89686	0.20219
-0.46334	-0.25695
0.83725	-0.23145
0.40372	0.25320
1.50029	0.50828
0.60773	-0.05289
0.42922	0.02363
-1.27939	0.17668
-0.79486	-0.05289
0.04670	0.17668
0.40372	0.32972
0.78624	0.63582
-0.48884	-0.15492
0.48022	0.27871
0.32721	0.22769
0.09770	0.61031
1.04126	-0.07840
0.14870	-0.35899
-0.20832	0.17668
-0.28482	0.91640
-0.66735	-0.43551
0.04670	0.30422
0.76074	-0.05289
0.40372	-0.10391
0.37822	0.22769
0.37822	0.20219
0.70974	0.15117
0.83725	-0.05289
-0.33583	0.30422
-0.69285	0.17668
0.14870	0.12566
1.55129	0.32972
-0.20832	0.43176
-3.06450	-0.05289
-0.53984	-0.02739
0.91375	0.15117
1.70430	-0.28246
1.95932	1.09496
0.45472	-1.17523
-1.02437	0.71234
-0.99887	-0.76711
0.22521	-0.00188
0.48022	0.78886
0.91375	0.20219
0.88825	0.10015
-0.02981	0.22769
-0.92237	0.25320
-0.59084	0.02363
0.48022	0.07465
0.35272	-0.07840
0.70974	0.15117
0.63323	0.04914
0.17421	0.83988
0.12320	-0.12942
-0.08081	-0.15492
-0.69285	0.25320
0.22521	0.12566
0.63323	0.04914
-0.28482	0.94191
-0.61635	0.02363
0.50573	-0.28246
0.14870	0.12566
0.42922	-0.15492
1.27078	0.15117
0.09770	0.35523
-0.38683	0.12566
0.32721	0.40625
0.25071	-0.00188
-0.20832	0.15117
-0.56534	0.50828
0.04670	-0.05289
0.22521	0.04914
1.14327	-0.10391
0.83725	-0.10391
-1.66191	0.55929
-1.10088	0.32972
0.70974	0.27871
0.70974	-0.35899
1.19427	0.25320
2.72437	0.27871
-0.94787	0.12566
-2.73298	0.02363
-0.08081	0.32972
0.70974	0.04914
0.22521	-0.23145
1.47479	-0.15492
0.32721	0.78886
0.22521	0.12566
-0.18282	0.17668
0.48022	-0.41000
0.02119	-0.10391
-0.97337	-0.20594
-0.28482	0.63582
0.14870	0.32972
0.86275	0.91640
-0.31033	0.32972
-0.15732	-0.18043
0.22521	0.30422
-0.31033	0.27871
0.48022	-0.33348
0.55673	0.07465
0.78624	0.02363
1.65330	-0.05289
-0.79486	0.43176
-1.55991	0.86539
-0.13181	-0.12942
-0.18282	-0.43551
0.60773	0.38074
0.65874	-0.10391
1.24527	0.32972
0.22521	-0.02739
-0.38683	0.07465
0.19971	-0.43551
0.32721	1.22250
-0.18282	-0.12942
0.07220	-0.00188
0.17421	-0.05289
0.02119	0.43176
-0.92237	0.30422
0.14870	-0.56305
0.65874	0.32972
-0.08081	0.61031
0.37822	-0.10391
0.50573	0.30422
0.17421	-0.02739
0.02119	-0.07840
0.17421	-0.02739
-0.25932	0.02363
0.09770	0.15117
0.73524	0.20219
0.04670	0.45726
-0.13181	-0.18043
0.22521	0.30422
0.17421	0.38074
0.02119	0.04914
-0.02981	0.50828
0.22521	0.22769
0.30171	0.20219
0.30171	0.02363
-0.38683	0.12566
-0.48884	0.32972
0.42922	0.04914
0.73524	-0.20594
0.32721	0.04914
0.93925	-0.23145
-0.25932	0.30422
-1.58541	0.20219
-1.25389	0.10015
0.96476	0.53379
1.85731	-0.51203
1.01576	0.32972
-1.04987	0.20219
-0.99887	0.43176
0.65874	0.55929
1.47479	0.12566
0.42922	0.17668
-0.97337	-0.07840
-0.36133	-0.10391
0.63323	0.32972
0.58223	-0.07840
-0.61635	0.15117
0.02119	0.15117
1.39828	0.15117
0.27621	0.04914
-0.74385	0.61031
-0.43783	-0.12942
0.68424	-0.63957
-0.00431	0.30422
-1.10088	0.30422
-0.00431	0.02363
1.06676	0.10015
0.14870	0.25320
0.17421	0.61031
0.50573	-0.23145
0.35272	-0.10391
0.09770	0.04914
-0.38683	0.71234
0.14870	0.61031
0.65874	-0.33348
0.25071	0.17668
0.04670	0.55929
0.30171	0.17668
-0.13181	-0.02739
0.42922	0.43176
0.35272	0.07465
-1.73842	-0.20594
-0.31033	0.17668
0.35272	-0.30797
0.04670	0.22769
1.21977	0.40625
1.21977	-0.10391
0.42922	0.40625
-0.10631	0.27871
0.02119	0.15117
0.83725	0.53379
0.70974	1.37554
0.04670	-0.99668
-0.74385	-0.69059
-1.17738	-0.07840
-0.18282	0.22769
0.02119	0.68683
-0.02981	-0.23145
1.21977	0.15117
1.60230	0.12566
0.32721	0.45726
-0.28482	-0.15492
0.19971	0.45726
-0.38683	0.53379
-0.13181	-0.07840
0.53123	-0.05289
0.86275	0.15117
0.70974	0.17668
0.07220	0.07465
-0.08081	0.12566
-0.33583	0.45726
0.42922	0.04914
0.58223	-0.15492
0.37822	0.22769
1.14327	0.71234
-1.84042	-0.15492
-1.43240	0.12566
0.81175	0.04914
0.19971	-0.15492
0.07220	0.55929
0.83725	0.04914
0.32721	-0.07840
0.68424	0.61031
0.81175	-0.23145
0.22521	0.30422
0.07220	0.45726
0.65874	-0.30797
-0.56534	0.27871
-1.10088	0.20219
0.07220	-0.05289
0.96476	0.53379
0.58223	0.04914
-0.41233	0.50828
-0.51434	0.02363
0.07220	-0.28246
1.93382	-0.05289
0.48022	0.91640
-1.30489	-0.48652
-2.14644	-0.66508
-0.33583	-0.05289
1.44929	0.94191
1.70430	0.35523
0.83725	0.02363
0.63323	0.43176
0.09770	-0.00188
-0.05531	-0.25695
-0.43783	0.07465
-0.33583	0.15117
-0.23382	-0.12942
0.02119	-0.00188
0.30171	0.43176
0.09770	0.55929
-0.20832	0.04914
0.63323	-0.25695
-0.38683	0.02363
-0.28482	0.30422
0.96476	0.30422
0.22521	0.71234
-0.76936	0.02363
0.42922	-0.23145
1.27078	-0.05289
0.22521	0.40625
-0.69285	-0.05289
0.07220	0.10015
0.60773	0.07465
0.37822	0.25320
0.60773	0.17668
0.25071	0.35523
0.53123	0.07465
-0.00431	0.04914
0.04670	0.86539
-0.79486	0.07465
-0.89686	-0.05289
0.35272	0.17668
0.76074	-0.23145
0.63323	0.38074
0.07220	-0.00188
0.22521	0.22769
0.37822	0.22769
0.30171	-0.33348
-0.02981	0.30422
-0.28482	0.04914
1.11776	-0.02739
0.63323	0.22769
-1.02437	-0.05289
-1.20288	0.35523
-0.23382	0.32972
0.70974	0.02363
1.09226	0.12566
0.76074	0.02363
0.48022	-0.30797
0.53123	0.30422
-0.02981	-0.05289
-0.71835	-0.00188
-0.28482	0.32972
0.22521	0.12566
-0.46334	0.02363
0.48022	0.20219
1.11776	0.15117
-0.08081	0.15117
-0.25932	0.40625
-0.10631	0.38074
-0.43783	-0.56305
-0.53984	-0.84363
1.14327	0.99292
-0.10631	0.10015
-1.17738	0.07465
-0.08081	0.45726
1.37278	0.07465
2.31634	0.48277
0.93925	0.02363
-0.69285	-0.05289
-0.74385	0.10015
0.14870	-0.12942
0.86275	0.45726
0.35272	0.25320
0.58223	1.01843
-1.30489	-0.86914
-1.07538	0.12566
-0.13181	0.17668
0.73524	0.40625
0.65874	-0.18043
0.42922	-0.10391
0.02119	-0.10391
0.86275	0.27871
-0.08081	0.12566
-0.48884	-0.05289
0.02119	0.07465
-0.53984	0.91640
0.09770	-0.15492
0.86275	0.17668
0.65874	0.12566
0.86275	0.10015
0.25071	0.38074
-0.43783	0.02363
-0.08081	0.40625
-0.18282	0.07465
0.09770	-0.10391
-0.23382	-0.15492
-0.25932	0.12566
0.07220	0.55929
0.37822	-0.56305
0.91375	0.38074
-0.25932	0.61031
0.17421	0.35523
-0.02981	-0.41000
-0.13181	0.15117
0.53123	0.40625
1.09226	0.07465
0.45472	0.17668
-0.18282	0.43176
0.70974	-0.79262
0.19971	0.07465
-0.76936	0.20219
-0.53984	-0.15492
0.32721	0.30422
0.96476	0.45726
-1.10088	0.07465
-0.02981	0.15117
1.21977	-0.02739
-0.99887	0.38074
-0.00431	0.99292
1.19427	-0.07840
0.63323	-0.53754
0.25071	-0.23145
0.53123	-0.23145
0.76074	0.20219
0.63323	0.32972
-0.08081	0.17668
-0.33583	0.48277
-0.10631	0.96742
0.22521	-0.53754
0.02119	0.27871
-0.33583	0.07465
-0.31033	-0.05289
-0.10631	0.02363
-0.38683	0.20219
0.22521	0.20219
1.06676	-0.35899
0.27621	-0.05289
-0.33583	0.63582
0.63323	0.43176
0.60773	0.04914
1.29628	0.02363
-0.00431	-0.28246
-0.59084	-0.10391
0.19971	0.66132
0.17421	0.35523
0.40372	-0.05289
-0.08081	0.15117
0.32721	0.07465
-0.00431	-0.10391
-0.13181	0.17668
-0.08081	0.63582
0.09770	-0.02739
0.22521	0.10015
0.65874	0.02363
0.22521	0.66132
0.30171	0.35523
-0.51434	-0.07840
1.01576	-0.48652
0.83725	0.50828
-0.97337	-0.02739
-0.82036	-0.71609
-0.43783	-0.05289
0.63323	-0.25695
0.50573	0.71234
-1.68742	0.32972
-0.74385	0.27871
2.23984	0.89089
1.04126	-0.28246
0.58223	0.66132
0.76074	0.61031
1.04126	-0.61406
0.17421	-0.05289
-0.46334	0.04914
-0.00431	0.22769
-0.33583	0.12566
-0.10631	0.17668
-0.23382	-0.05289
0.07220	0.43176
0.30171	-0.23145
-0.15732	0.17668
0.12320	0.07465
-0.15732	0.35523
-0.51434	0.55929
-0.02981	0.20219
0.09770	0.30422
1.27078	0.32972
0.91375	-0.20594
0.07220	-1.14973
-0.13181	-0.10391
0.53123	-0.02739
-0.43783	0.48277
0.78624	0.15117
0.86275	0.96742
0.07220	-0.10391
0.07220	0.58480
0.14870	0.50828
-0.41233	0.32972
-0.56534	0.15117
-0.82036	0.02363
0.25071	-0.15492
1.21977	-0.10391
-0.18282	0.22769
-1.89143	-0.02739
0.55673	-0.02739
1.24527	0.12566
1.44929	0.17668
0.48022	0.25320
-0.13181	0.15117
-0.43783	0.32972
-0.02981	0.15117
0.73524	-0.25695
-0.61635	-0.05289
0.86275	0.17668
0.27621	0.66132
-0.76936	0.12566
0.32721	0.53379
0.25071	0.61031
0.96476	0.53379
-0.20832	-0.94566
0.02119	0.32972
0.02119	0.22769
0.58223	-0.23145
-0.25932	0.32972
-0.38683	0.20219
-0.28482	0.27871
0.53123	0.12566
0.30171	0.22769
-0.74385	0.04914
0.07220	-0.23145
0.96476	0.22769
0.86275	-0.00188
0.22521	0.22769
0.37822	0.17668
-0.25932	-0.23145
-0.15732	0.10015
1.11776	0.12566
-0.74385	0.45726
-0.53984	0.17668
0.65874	0.48277
-0.13181	0.53379
-0.36133	-0.51203
0.37822	-0.30797
0.09770	-0.20594
0.14870	-0.12942
0.45472	0.78886
0.53123	0.89089
0.83725	0.43176
0.42922	0.22769
-0.18282	0.15117
0.02119	-0.05289
0.50573	0.25320
-0.20832	-1.02219
-0.36133	-0.18043
0.02119	0.35523
0.50573	0.30422
-0.00431	0.50828
0.02119	-0.33348
-0.02981	0.45726
0.88825	0.17668
0.25071	0.20219
0.65874	0.17668
-0.64185	-0.30797
-1.45790	0.10015
-0.41233	0.40625
1.37278	0.32972
0.93925	0.12566
0.19971	0.25320
0.81175	-0.10391
0.68424	0.40625
-0.46334	-0.00188
