0.12320	0.61031
0.02119	0.04914
-0.02981	0.04914
0.12320	0.07465
0.35272	0.35523
0.22521	0.15117
0.22521	0.15117
0.25071	0.22769
0.22521	0.20219
0.09770	0.02363
0.02119	-0.15492
0.17421	0.20219
0.07220	0.12566
0.04670	0.22769
0.30171	0.25320
0.25071	0.15117
0.12320	0.12566
0.32721	0.27871
0.22521	0.25320
0.12320	-0.07840
-0.02981	-0.00188
0.07220	0.07465
-0.05531	0.25320
-0.02981	-0.00188
-0.05531	-0.07840
0.32721	0.12566
0.42922	0.35523
0.42922	0.27871
0.30171	0.25320
0.02119	0.15117
-0.02981	-0.10391
0.04670	0.07465
0.09770	0.43176
0.04670	0.20219
0.09770	0.07465
0.37822	0.25320
0.32721	-0.02739
0.22521	0.12566
-0.00431	0.40625
-0.08081	-0.25695
-0.00431	-0.12942
-0.05531	-0.02739
0.07220	-0.07840
0.25071	0.35523
0.27621	0.12566
0.30171	0.40625
0.30171	-0.05289
0.22521	0.45726
0.25071	0.17668
0.14870	0.15117
0.22521	0.22769
0.07220	-0.23145
-0.13181	-0.07840
0.04670	0.27871
0.14870	0.30422
0.40372	0.32972
-0.02981	0.25320
0.42922	0.22769
0.17421	-0.05289
0.30171	0.15117
0.07220	0.04914
-0.10631	-0.18043
-0.05531	0.04914
0.07220	0.22769
0.55673	0.25320
0.55673	0.17668
0.27621	0.22769
-0.13181	0.25320
-0.08081	0.20219
-0.23382	0.10015
0.07220	0.25320
-0.00431	-0.05289
0.14870	0.04914
0.19971	0.10015
0.32721	0.55929
0.50573	0.40625
0.32721	-0.35899
0.19971	0.02363
0.19971	0.20219
0.22521	0.20219
0.12320	0.15117
-0.05531	0.15117
-0.13181	0.07465
0.04670	0.17668
0.19971	0.12566
0.27621	0.22769
0.19971	0.25320
0.27621	0.20219
0.12320	0.25320
0.02119	-0.38449
0.17421	0.35523
0.12320	0.04914
-0.05531	0.10015
-0.10631	-0.00188
0.07220	0.15117
0.42922	0.15117
0.22521	0.30422
0.02119	-0.05289
-0.02981	0.15117
0.17421	0.22769
0.32721	0.32972
0.50573	0.40625
0.19971	-0.02739
0.22521	0.17668
0.04670	0.25320
-0.05531	-0.00188
0.04670	0.10015
-0.00431	-0.00188
0.19971	0.15117
0.32721	0.17668
0.19971	0.12566
0.22521	0.22769
-0.13181	0.15117
0.14870	-0.02739
0.45472	0.25320
-0.02981	0.10015
-0.25932	0.22769
-0.15732	0.35523
-0.10631	0.07465
0.63323	0.07465
0.83725	0.27871
0.78624	0.20219
-0.10631	0.02363
-0.08081	-0.05289
0.40372	0.07465
0.30171	0.40625
0.19971	0.27871
-0.15732	-0.05289
-0.38683	-0.02739
-0.48884	0.30422
-0.56534	-0.07840
0.04670	-0.02739
0.42922	0.17668
0.40372	0.43176
0.25071	-0.23145
0.50573	0.25320
0.58223	0.45726
0.25071	0.71234
0.22521	0.53379
0.35272	-0.05289
-0.02981	-0.20594
0.45472	-0.12942
0.63323	0.02363
-0.64185	0.35523
-0.94787	-0.00188
-1.50890	-0.12942
-0.31033	0.30422
1.09226	0.27871
0.93925	0.35523
1.37278	-0.02739
0.78624	0.32972
-0.41233	0.32972
0.09770	-0.10391
-0.82036	0.27871
0.22521	-0.12942
0.76074	0.04914
0.48022	0.22769
-0.05531	-0.05289
-0.84586	0.15117
-0.64185	0.04914
0.14870	0.17668
0.22521	0.50828
0.25071	0.35523
0.42922	-0.02739
1.95932	0.20219
0.04670	-0.15492
-1.55991	0.55929
-1.10088	0.15117
0.63323	0.15117
1.11776	-0.61406
0.76074	-0.20594
1.09226	0.12566
-0.02981	0.55929
-2.12094	0.32972
0.12320	0.50828
-0.13181	0.48277
0.65874	-0.51203
0.22521	-0.07840
1.09226	0.12566
1.21977	0.71234
0.09770	-0.30797
-0.92237	0.38074
-1.30489	0.35523
-0.15732	0.27871
1.06676	-0.28246
0.48022	-0.07840
-0.05531	0.32972
0.30171	-0.02739
1.37278	0.45726
-0.51434	-0.00188
-0.13181	0.12566
-0.28482	0.30422
-0.08081	-0.02739
-0.59084	-0.71609
1.14327	0.63582
0.91375	0.15117
0.02119	-0.38449
-0.69285	0.61031
0.40372	0.71234
1.39828	-0.28246
-0.48884	0.32972
-1.20288	-0.74160
0.32721	0.40625
1.21977	0.99292
-0.87136	-0.25695
-1.99343	0.58480
0.40372	0.61031
1.85731	0.22769
0.63323	-0.58856
0.91375	-0.15492
0.19971	-0.15492
-0.25932	0.12566
-1.63641	0.45726
-0.08081	-0.05289
1.65330	0.45726
0.93925	0.50828
-1.27939	-0.53754
-1.10088	-0.23145
0.63323	0.38074
1.16877	0.61031
1.52579	0.02363
0.58223	-0.53754
-0.92237	0.99292
-2.98800	0.91640
-0.02981	-1.55785
0.83725	0.17668
1.60230	0.48277
1.11776	-0.46102
0.37822	0.96742
-0.41233	0.76336
-0.20832	-0.61406
0.14870	0.73785
-0.36133	-0.38449
-0.10631	0.15117
0.14870	0.02363
1.83181	0.66132
0.53123	0.30422
-1.38139	-0.07840
-1.07538	-0.23145
0.12320	-0.74160
-0.28482	0.10015
0.68424	0.76336
0.96476	0.58480
0.22521	-1.02219
0.12320	0.38074
-1.55991	0.58480
0.65874	-0.35899
0.19971	0.35523
-0.20832	1.06945
1.09226	1.47757
1.39828	-0.76711
3.08139	0.22769
-1.71292	-0.30797
-2.40146	-0.38449
-2.01894	-0.25695
1.16877	-0.25695
1.80631	0.86539
2.18883	0.35523
-0.15732	0.68683
-0.18282	-0.94566
-1.27939	0.55929
-1.43240	0.91640
0.86275	-0.38449
1.27078	-0.10391
-0.02981	-0.46102
0.09770	0.43176
0.25071	0.78886
0.14870	1.88570
0.14870	-0.69059
0.50573	0.25320
0.07220	0.89089
-0.36133	-0.56305
-1.33039	-2.22105
-3.60004	-0.81812
-3.14101	0.43176
2.11233	0.43176
3.33641	0.45726
2.87738	0.96742
2.52035	0.43176
1.09226	0.86539
-0.48884	1.01843
-0.76936	0.48277
-0.13181	-0.92016
0.58223	-0.66508
0.07220	0.48277
-0.31033	-0.07840
-1.12638	-0.30797
-2.04444	-0.61406
-0.82036	0.94191
3.56592	0.15117
1.50029	0.04914
-2.88599	0.94191
-4.05907	-0.48652
0.14870	-0.15492
2.80087	-0.53754
2.69887	0.76336
-0.33583	0.22769
0.37822	0.22769
0.42922	0.40625
0.55673	0.71234
1.75531	1.45206
1.75531	-1.20074
-0.53984	-0.56305
-1.43240	-0.23145
-1.53441	-0.10391
-0.02981	0.48277
0.60773	0.43176
0.35272	0.73785
-0.00431	-0.28246
0.30171	-0.86914
0.02119	0.38074
-0.20832	-0.56305
0.63323	0.53379
0.42922	1.63062
0.53123	-0.99668
-0.18282	0.50828
-0.28482	-0.33348
-3.34502	-0.20594
-1.78942	0.38074
-0.02981	0.63582
3.05589	0.40625
3.33641	0.76336
2.46935	0.73785
1.09226	0.17668
0.27621	-0.51203
1.24527	-0.46102
-1.43240	0.76336
-1.73842	-0.10391
-2.40146	-0.58856
1.14327	-1.12422
-0.66735	0.89089
-2.65648	0.43176
-0.64185	0.38074
1.50029	0.07465
1.88281	-0.00188
4.35647	2.26831
1.47479	-0.46102
-2.17195	-0.35899
-4.31408	-0.15492
-0.46334	-0.20594
2.26534	-1.25176
1.16877	0.35523
0.63323	0.32972
0.32721	0.15117
0.42922	1.47757
-0.31033	1.24800
-0.00431	-0.76711
-0.43783	0.22769
0.19971	0.81437
0.09770	-0.76711
-0.15732	0.07465
-0.36133	0.20219
-0.08081	0.38074
-0.00431	0.07465
1.06676	0.12566
0.48022	0.53379
0.73524	-0.51203
1.34728	-0.33348
-1.45790	0.91640
-2.27395	-0.12942
-0.15732	-0.51203
2.06133	0.53379
-0.00431	-0.12942
-0.69285	0.07465
0.60773	-0.71609
2.08683	0.43176
1.62780	-0.25695
-0.15732	-0.05289
-0.69285	-0.28246
-0.64185	0.40625
0.30171	0.99292
0.48022	0.78886
0.55673	1.04394
-0.48884	0.35523
-2.19745	-0.79262
-1.71292	-0.86914
0.60773	0.22769
1.29628	0.38074
0.83725	0.45726
-0.13181	-0.58856
2.06133	0.10015
2.16333	0.02363
-0.92237	1.22250
-2.96250	0.10015
-1.63641	-1.25176
0.27621	-0.30797
1.37278	0.10015
0.96476	0.22769
1.34728	1.06945
1.72980	0.83988
1.19427	0.83988
1.01576	-1.71090
-1.91693	0.83988
-2.68198	0.22769
-1.63641	0.30422
0.88825	0.38074
0.40372	0.30422
0.40372	0.07465
0.83725	0.40625
0.78624	-0.33348
0.86275	0.61031
0.02119	-0.00188
-0.18282	-0.51203
0.32721	-0.51203
0.04670	1.19699
-0.38683	-0.53754
-1.25389	-0.86914
0.22521	-0.48652
0.30171	0.55929
-0.15732	0.81437
-0.23382	1.29902
0.30171	0.30422
1.14327	-0.38449
3.08139	0.53379
-1.35589	0.25320
-2.29945	0.45726
-1.15188	0.17668
1.65330	-0.38449
1.44929	-0.20594
1.55129	0.68683
0.63323	0.32972
0.37822	0.17668
-0.36133	-0.02739
-0.25932	0.25320
-0.53984	0.10015
-0.41233	-0.15492
-0.08081	0.04914
-0.18282	0.27871
0.02119	0.25320
0.02119	-0.07840
0.14870	0.38074
-0.51434	-0.00188
0.42922	-0.15492
0.93925	0.35523
1.21977	0.78886
0.83725	0.50828
-2.01894	-0.76711
-2.04444	0.04914
0.19971	0.32972
1.67880	0.10015
1.95932	0.73785
0.48022	0.89089
-0.46334	-0.23145
0.32721	-0.02739
0.91375	0.38074
0.37822	0.58480
0.07220	0.25320
0.04670	0.12566
-0.48884	-0.38449
-0.59084	-0.25695
-0.23382	0.02363
0.07220	0.15117
-0.08081	0.12566
0.12320	0.76336
0.40372	0.73785
0.19971	-0.41000
0.48022	-1.58336
-0.89686	-0.48652
-0.74385	0.71234
1.27078	0.99292
0.78624	0.76336
0.73524	0.50828
-0.00431	0.50828
-0.51434	0.04914
-0.53984	0.45726
1.09226	0.25320
1.39828	-0.38449
0.09770	-0.35899
-0.05531	0.17668
-0.02981	0.35523
-0.69285	0.71234
0.02119	-0.41000
-0.48884	-0.30797
-1.33039	0.45726
-0.74385	0.86539
2.18883	-0.92016
1.50029	0.22769
0.86275	0.40625
0.17421	0.53379
-0.08081	0.45726
0.14870	-0.02739
0.60773	0.10015
-0.82036	0.45726
-1.15188	0.32972
-0.76936	-0.02739
0.42922	0.43176
0.78624	-0.58856
1.11776	-0.56305
-1.25389	-0.53754
-0.15732	0.94191
0.55673	0.81437
1.16877	0.35523
0.22521	0.27871
0.45472	0.15117
0.09770	0.25320
-0.00431	-0.12942
0.40372	0.15117
-0.28482	-0.33348
-0.46334	-0.02739
2.92838	0.48277
-1.33039	0.55929
-4.00806	-0.76711
-2.73298	-0.05289
2.13783	-0.76711
2.16333	0.12566
2.36734	0.76336
1.90832	0.91640
0.93925	0.04914
0.22521	0.35523
-0.31033	0.15117
-0.43783	0.30422
-0.43783	0.25320
-0.20832	0.17668
-0.38683	0.12566
-0.20832	0.07465
0.93925	0.22769
-1.20288	-0.30797
-1.94243	-0.20594
-0.71835	-0.41000
1.65330	0.35523
1.27078	0.55929
1.27078	1.65613
1.42379	-0.94566
-0.56534	-0.58856
-0.48884	0.50828
0.91375	0.40625
1.01576	0.35523
0.04670	0.20219
-0.79486	-0.23145
-0.05531	0.15117
-0.20832	0.45726
1.01576	0.04914
-0.13181	-0.46102
-0.94787	0.40625
-1.43240	0.48277
0.68424	-0.28246
1.34728	0.53379
0.91375	-0.07840
1.04126	0.27871
-0.92237	0.32972
0.04670	0.43176
-0.13181	0.10015
-0.20832	0.02363
-0.36133	0.15117
0.83725	0.38074
-0.02981	-0.43551
-0.15732	0.22769
-0.13181	-0.38449
1.16877	0.45726
0.91375	0.15117
0.04670	0.38074
-0.10631	-0.20594
-0.25932	0.20219
0.22521	0.78886
0.09770	0.02363
-0.05531	-0.41000
0.40372	0.12566
-0.13181	0.04914
0.88825	0.76336
2.21434	0.32972
-2.22295	-0.43551
-4.28858	1.29902
-1.91693	0.12566
2.57136	-0.79262
2.62236	0.25320
3.13239	0.25320
1.75531	-0.41000
0.68424	0.45726
-0.13181	1.04394
-2.83499	0.07465
-3.03900	0.38074
0.22521	-0.94566
1.04126	0.35523
3.18340	0.22769
0.04670	-0.15492
-0.28482	0.32972
-1.25389	-0.12942
1.19427	-0.05289
0.55673	0.38074
-0.05531	-0.05289
0.22521	0.30422
-0.13181	-0.00188
0.09770	0.32972
-0.23382	0.30422
-0.43783	0.63582
-0.13181	-0.10391
0.53123	-0.02739
1.78081	-0.05289
1.09226	-0.15492
-1.33039	0.12566
-2.73298	0.50828
-1.91693	0.15117
1.27078	-0.28246
2.18883	-0.00188
2.13783	0.66132
1.93382	-0.20594
0.63323	0.86539
-0.18282	-0.18043
-0.74385	-0.25695
0.53123	0.63582
-0.92237	0.27871
-1.84042	0.32972
-0.28482	-0.25695
1.98482	0.22769
-0.66735	-0.30797
-1.55991	0.10015
-0.33583	-0.18043
0.19971	0.02363
2.36734	0.53379
1.04126	1.27351
-1.04987	0.68683
-1.30489	-0.79262
1.78081	-0.28246
2.82638	0.17668
0.32721	-1.22625
-2.17195	0.68683
-0.97337	0.66132
0.22521	0.20219
0.09770	-0.02739
-0.46334	0.22769
1.34728	0.32972
0.99026	-0.28246
-1.27939	0.10015
0.27621	0.50828
1.01576	-0.02739
0.68424	0.04914
0.60773	0.83988
-0.10631	-0.38449
-0.74385	0.53379
-0.94787	0.27871
-3.09000	0.38074
-0.56534	-0.43551
1.11776	-1.60887
1.50029	0.99292
2.49485	0.32972
1.75531	0.35523
0.27621	0.45726
-0.48884	-0.33348
0.93925	0.76336
0.09770	1.40105
0.32721	-0.58856
-1.63641	-0.53754
-1.04987	0.68683
-1.15188	-0.10391
-0.79486	0.15117
0.42922	0.22769
1.75531	-0.10391
0.81175	0.17668
0.50573	-0.02739
0.35272	0.17668
0.40372	0.50828
2.03582	-0.56305
-0.53984	-0.66508
-2.57997	-0.23145
-2.45246	1.04394
1.14327	0.86539
1.70430	0.17668
1.72980	0.12566
0.48022	0.55929
0.83725	0.04914
1.37278	-0.18043
-0.61635	0.61031
-1.50890	0.30422
-0.28482	-0.89465
-0.89686	0.04914
-1.15188	-0.07840
0.55673	0.68683
3.28540	0.73785
1.88281	0.43176
-1.20288	0.25320
-1.40690	-0.74160
0.12320	-0.18043
0.88825	0.94191
0.50573	-0.58856
-0.00431	-0.48652
-0.00431	0.20219
0.58223	0.81437
-0.61635	0.86539
-0.69285	0.53379
0.48022	0.17668
0.09770	-0.58856
-1.10088	-0.25695
1.19427	-0.05289
-1.07538	0.17668
-1.50890	-0.05289
1.39828	0.25320
3.33641	0.27871
0.17421	0.17668
-2.04444	0.25320
-0.25932	0.96742
1.57679	-0.33348
0.68424	-0.48652
1.27078	0.15117
0.58223	-1.04770
-0.33583	0.07465
-0.53984	0.61031
-0.46334	0.66132
-2.04444	1.24800
-2.42696	0.48277
-1.33039	-0.58856
1.04126	-0.05289
1.95932	0.02363
1.75531	-0.25695
0.86275	0.68683
0.32721	0.40625
0.70974	0.07465
0.68424	0.43176
0.48022	0.76336
-0.53984	-0.35899
0.78624	-0.02739
-0.41233	-0.81812
-0.59084	-0.41000
-2.01894	0.48277
-1.81492	1.01843
0.32721	-0.35899
1.57679	0.78886
1.60230	1.35003
1.42379	-0.38449
0.27621	-0.76711
-0.10631	0.55929
0.02119	0.22769
0.17421	0.15117
-0.48884	0.22769
1.04126	0.02363
3.66793	0.30422
-3.06450	0.02363
-5.35965	0.12566
-2.01894	0.10015
1.90832	0.43176
3.18340	0.35523
1.90832	0.07465
4.45848	-0.07840
-0.08081	-0.48652
-2.52897	-0.10391
-2.96250	1.01843
0.60773	-0.35899
1.04126	0.48277
0.83725	0.38074
0.35272	-0.10391
-0.33583	0.71234
0.27621	0.53379
0.07220	-1.14973
0.48022	0.02363
-0.51434	0.48277
0.37822	1.37554
0.78624	-0.25695
-0.64185	0.66132
-1.76392	-0.76711
-1.81492	-0.46102
0.30171	-0.48652
2.06133	0.50828
2.16333	0.43176
1.24527	0.99292
0.48022	0.43176
0.19971	0.50828
-0.48884	-0.25695
-0.00431	-0.05289
-0.13181	-0.43551
-0.48884	0.15117
0.40372	0.35523
-0.69285	0.02363
-0.36133	0.63582
0.96476	0.27871
-0.38683	-0.10391
-0.41233	0.17668
0.19971	0.38074
0.17421	-0.61406
1.39828	-0.51203
-0.31033	0.96742
-0.05531	0.61031
-0.76936	1.01843
0.58223	0.27871
2.72437	-0.25695
1.75531	-0.35899
-0.66735	0.30422
-2.27395	0.38074
-0.97337	0.15117
0.68424	-0.61406
0.14870	0.71234
0.81175	0.12566
0.37822	0.27871
-0.92237	0.78886
-0.46334	-1.68539
0.32721	0.22769
0.81175	0.30422
0.76074	-0.20594
0.55673	0.94191
-0.28482	1.22250
-0.08081	-0.12942
-0.05531	-0.15492
0.86275	0.25320
-0.08081	-0.33348
-1.61091	-0.10391
-1.81492	0.12566
-0.89686	0.02363
-0.02981	-0.15492
1.27078	0.10015
1.85731	0.12566
0.99026	0.10015
1.24527	1.47757
0.83725	-0.18043
0.53123	-0.25695
1.42379	0.63582
-0.82036	0.63582
-2.68198	-0.30797
0.09770	-0.35899
-0.20832	-0.63957
-1.15188	0.45726
-0.20832	1.06945
0.02119	0.81437
0.86275	-0.66508
2.74987	-0.92016
1.24527	-0.23145
0.50573	0.73785
-1.48340	2.01323
-0.87136	0.22769
-1.55991	0.15117
0.09770	-0.46102
1.55129	-0.05289
1.19427	0.63582
0.50573	0.50828
-0.48884	-0.48652
1.72980	-0.25695
0.32721	0.25320
-2.55447	-0.53754
-1.63641	-0.07840
0.68424	0.68683
2.01032	1.35003
1.34728	-0.46102
-0.61635	-0.10391
-1.07538	0.30422
1.19427	1.55410
-0.41233	-0.05289
-0.61635	-1.60887
-0.36133	-0.76711
1.44929	0.63582
0.48022	0.45726
0.07220	0.40625
0.48022	0.68683
1.19427	-0.23145
0.07220	1.27351
-1.50890	0.40625
-2.24845	-0.92016
0.70974	0.12566
1.29628	-0.41000
1.24527	0.43176
0.86275	1.12046
2.52035	-0.46102
1.72980	0.20219
-3.06450	0.40625
-4.11007	0.30422
0.53123	-0.43551
2.26534	-0.07840
1.21977	-0.38449
0.99026	0.30422
0.68424	0.38074
-0.61635	-0.12942
-1.38139	0.32972
0.93925	-1.02219
-0.46334	2.08976
-0.99887	-0.35899
0.65874	-0.28246
0.63323	0.43176
-0.66735	0.15117
0.70974	0.07465
1.11776	0.04914
0.14870	0.55929
0.19971	0.20219
-0.00431	0.81437
0.19971	-0.79262
0.73524	0.20219
-0.15732	0.66132
0.12320	0.04914
0.07220	-0.10391
0.12320	-0.20594
-0.20832	0.63582
-0.66735	0.50828
0.25071	0.43176
0.42922	-0.10391
0.60773	-0.00188
0.58223	0.76336
0.76074	-0.61406
0.02119	0.27871
0.25071	-0.25695
-1.10088	-0.23145
-1.63641	0.27871
0.88825	0.86539
0.93925	-0.07840
2.01032	0.25320
0.65874	0.20219
-0.97337	1.24800
-1.02437	-1.04770
-0.79486	0.22769
0.48022	0.43176
0.12320	-0.46102
1.32178	-0.18043
1.19427	0.76336
-0.38683	0.15117
0.17421	0.48277
0.30171	0.35523
1.29628	-0.33348
0.09770	-0.05289
-0.53984	0.30422
-1.20288	0.27871
-0.00431	0.25320
1.11776	0.35523
0.83725	0.81437
-1.81492	-0.53754
-1.50890	-0.35899
0.02119	-0.02739
1.39828	0.20219
1.75531	0.53379
0.48022	0.17668
0.50573	0.35523
0.27621	0.48277
0.45472	0.48277
0.48022	-0.05289
-0.89686	0.15117
-1.81492	-0.79262
-0.87136	0.78886
0.55673	0.07465
0.09770	0.43176
1.24527	-0.48652
1.47479	0.07465
0.60773	0.38074
-0.36133	0.15117
-1.35589	0.43176
1.47479	0.38074
2.03582	-0.18043
-0.89686	0.30422
-1.22839	0.12566
-0.18282	-0.66508
-0.28482	0.40625
0.22521	0.10015
1.16877	0.07465
0.27621	0.45726
-0.13181	0.50828
-0.66735	-0.18043
0.58223	-0.20594
1.29628	0.45726
0.42922	0.43176
-0.10631	-0.02739
-0.31033	0.15117
-0.33583	0.61031
0.99026	-0.89465
0.58223	0.32972
-0.99887	-0.15492
-0.48884	0.71234
0.81175	0.15117
-0.31033	0.15117
0.32721	-0.05289
-0.13181	0.07465
0.02119	-0.20594
1.14327	0.66132
0.35272	-0.15492
1.19427	-0.15492
0.88825	0.55929
0.32721	0.58480
1.21977	-0.23145
-0.53984	0.32972
-2.35046	0.55929
-1.53441	-0.07840
0.91375	-0.00188
0.27621	-0.61406
0.50573	0.61031
0.22521	0.32972
0.73524	-0.05289
1.09226	0.17668
-0.61635	0.55929
-0.28482	0.55929
1.27078	-0.51203
0.02119	-0.15492
-1.66191	1.09496
-1.43240	0.04914
1.37278	0.32972
1.42379	-0.53754
0.91375	-0.76711
0.70974	0.61031
0.25071	0.61031
-0.02981	0.22769
0.32721	0.40625
-0.15732	0.45726
-0.13181	-0.51203
0.37822	0.10015
-0.76936	0.73785
-0.15732	-0.35899
1.09226	-0.12942
0.40372	0.68683
-1.73842	0.07465
-1.02437	-0.28246
0.91375	0.22769
0.60773	-0.25695
1.65330	0.45726
1.16877	0.61031
0.09770	0.10015
0.09770	0.43176
1.60230	0.66132
0.35272	0.20219
-1.61091	-0.86914
-1.02437	-0.10391
0.02119	0.38074
-0.38683	0.89089
-0.08081	-0.38449
0.76074	0.40625
1.75531	0.43176
-0.05531	-0.10391
-0.94787	0.02363
0.17421	0.20219
1.06676	-0.23145
-0.33583	0.04914
0.35272	0.83988
0.58223	0.15117
-0.33583	-0.43551
-0.13181	0.02363
-0.84586	0.55929
-0.36133	0.20219
0.50573	0.02363
0.91375	-0.43551
1.55129	0.50828
0.76074	0.30422
-1.55991	0.17668
-1.17738	1.24800
0.50573	-0.33348
1.60230	0.94191
1.01576	-0.61406
0.91375	-0.12942
-0.74385	-0.35899
-1.33039	0.32972
0.53123	1.09496
0.32721	-0.74160
-0.08081	0.02363
-0.79486	-0.18043
0.50573	0.73785
1.47479	1.06945
0.93925	0.45726
1.24527	0.27871
0.02119	0.45726
-0.41233	-0.99668
-0.71835	0.04914
-0.36133	0.10015
-0.94787	-0.05289
0.09770	-0.35899
-0.02981	-0.05289
-0.38683	0.32972
0.48022	1.22250
1.01576	1.27351
0.63323	-0.30797
-0.20832	-0.66508
0.04670	1.17148
0.58223	-1.02219
1.57679	-0.05289
-1.40690	-0.05289
-1.15188	0.25320
0.88825	-0.41000
0.50573	0.61031
-0.51434	0.78886
0.83725	-0.38449
-0.18282	0.91640
-0.31033	-0.61406
0.42922	-0.00188
0.42922	0.86539
-1.33039	0.20219
-0.00431	-0.58856
0.93925	0.25320
2.18883	-0.18043
0.65874	-0.53754
0.53123	1.24800
-1.73842	-0.10391
-0.41233	0.15117
-2.52897	0.27871
0.68424	0.40625
1.16877	0.50828
1.47479	-0.71609
0.78624	0.30422
0.19971	0.07465
0.25071	0.07465
-0.89686	0.15117
0.19971	0.40625
-0.00431	-0.12942
-0.13181	0.40625
1.24527	0.68683
0.12320	0.45726
-1.73842	-1.07320
-2.12094	-0.66508
-0.28482	-0.43551
1.50029	0.55929
1.24527	0.66132
2.06133	0.83988
0.91375	0.43176
0.07220	0.04914
-0.89686	0.35523
-0.10631	0.45726
0.50573	1.55410
-0.08081	-1.22625
0.19971	0.30422
1.16877	-0.53754
-0.94787	-0.07840
-1.58541	0.35523
-0.56534	0.22769
1.09226	0.66132
0.48022	0.32972
-1.15188	0.30422
1.29628	-0.07840
1.19427	0.53379
-0.61635	-0.07840
-0.84586	-0.84363
1.93382	0.96742
-0.38683	0.10015
-1.02437	-0.38449
1.42379	0.04914
1.32178	-0.35899
0.27621	0.27871
0.09770	1.37554
-0.18282	0.76336
0.58223	-0.28246
-0.43783	-1.30277
-1.63641	0.22769
-1.91693	-0.56305
1.37278	-0.05289
1.44929	1.04394
0.17421	-0.76711
-0.46334	0.76336
0.93925	0.94191
0.53123	0.32972
-1.81492	-0.23145
-1.48340	-0.46102
1.19427	0.25320
2.90288	0.27871
1.32178	-0.35899
0.45472	0.48277
1.39828	0.12566
-0.28482	0.02363
-1.10088	0.10015
-2.27395	-0.02739
-1.66191	0.35523
0.12320	0.15117
1.27078	0.96742
1.34728	-0.00188
0.32721	0.07465
1.34728	0.15117
0.32721	0.35523
0.02119	-0.41000
-0.20832	-0.25695
0.58223	-0.18043
-0.18282	-0.00188
-0.28482	0.45726
0.30171	0.22769
-0.28482	0.04914
-0.10631	0.81437
0.93925	0.58480
-0.15732	0.71234
-1.17738	-0.07840
-0.53984	0.20219
0.32721	-0.33348
0.19971	0.30422
0.40372	-0.35899
0.76074	0.02363
1.47479	0.89089
0.81175	0.40625
-0.38683	0.12566
-0.18282	0.27871
0.63323	0.53379
-0.00431	-0.58856
0.53123	0.15117
-0.38683	0.12566
-0.33583	-0.48652
0.45472	0.10015
0.48022	-0.43551
-0.31033	0.40625
-0.46334	0.45726
0.40372	-0.07840
-0.23382	0.81437
0.17421	-0.30797
0.91375	-0.18043
-0.64185	0.55929
-0.25932	0.30422
-0.05531	-0.05289
0.96476	-0.12942
0.76074	0.25320
0.88825	-0.02739
0.60773	0.15117
1.27078	0.43176
0.02119	0.40625
-1.20288	0.20219
-0.94787	0.04914
0.09770	0.55929
0.30171	-1.09871
0.19971	-0.15492
0.91375	0.22769
0.07220	0.02363
-0.94787	0.55929
-0.79486	0.66132
0.42922	0.07465
1.24527	0.07465
1.55129	-0.23145
-0.33583	-0.05289
-1.84042	0.07465
-0.00431	0.30422
1.21977	0.12566
0.91375	-0.00188
0.53123	0.50828
-0.20832	-0.28246
-0.18282	0.71234
0.17421	0.22769
-0.48884	-1.78742
-0.05531	0.61031
-0.36133	0.07465
0.88825	0.68683
0.73524	0.73785
0.07220	0.63582
-0.69285	0.48277
-1.15188	-0.56305
0.93925	0.35523
0.48022	0.96742
0.35272	-0.30797
0.14870	0.02363
1.04126	-0.69059
-0.25932	-0.18043
-0.48884	0.35523
-0.33583	0.20219
0.35272	-0.15492
-0.00431	0.15117
0.55673	0.61031
1.85731	0.50828
0.07220	-0.07840
-1.94243	-0.05289
-2.04444	0.83988
0.35272	-1.37929
0.45472	-0.46102
2.18883	0.71234
1.09226	0.71234
0.63323	0.58480
-0.15732	0.10015
0.35272	0.25320
-0.53984	0.22769
-0.61635	-0.25695
-0.15732	0.73785
-0.00431	0.07465
1.09226	0.20219
1.67880	0.40625
-0.71835	-0.66508
-2.63097	-0.48652
-1.30489	-0.12942
0.73524	0.32972
1.55129	0.30422
1.24527	0.10015
0.93925	0.35523
1.50029	0.45726
0.55673	0.12566
-0.97337	-0.15492
-0.53984	0.50828
0.27621	0.96742
0.65874	-0.38449
-0.25932	-0.18043
0.19971	0.07465
-0.56534	0.73785
-0.51434	-0.35899
0.60773	0.12566
0.50573	-0.07840
1.70430	0.27871
-0.61635	0.50828
-3.16651	0.35523
-0.41233	-0.00188
1.24527	0.30422
2.16333	-0.97117
1.29628	-0.10391
-0.20832	1.32453
-0.76936	-0.15492
0.04670	0.15117
2.31634	0.15117
0.86275	0.35523
-1.48340	-0.76711
-1.73842	0.40625
0.07220	0.25320
1.09226	0.12566
1.70430	1.42656
0.14870	-1.30277
-0.20832	-0.15492
0.70974	0.15117
0.70974	0.73785
-1.17738	-0.23145
-1.35589	0.55929
0.09770	0.10015
0.25071	-0.38449
-0.00431	0.04914
0.55673	-0.25695
0.09770	0.20219
0.45472	0.30422
0.25071	0.40625
0.53123	0.66132
0.63323	-0.35899
1.09226	0.50828
-0.25932	0.15117
-0.59084	0.12566
-1.89143	0.22769
0.35272	-0.48652
0.42922	0.35523
0.81175	-0.05289
1.09226	-0.05289
0.96476	0.30422
-0.38683	0.43176
-0.08081	0.53379
1.67880	-0.02739
0.35272	-1.12422
-0.38683	0.04914
-1.84042	0.32972
-0.53984	0.20219
0.04670	-0.12942
0.02119	-0.25695
0.40372	0.58480
1.04126	0.86539
0.35272	0.25320
1.50029	-0.10391
-0.48884	0.32972
0.78624	0.83988
-0.69285	-0.58856
-0.61635	0.27871
0.22521	-0.48652
-0.28482	-0.23145
0.14870	0.30422
-0.18282	0.20219
0.93925	0.35523
0.68424	0.30422
1.44929	1.06945
0.37822	0.30422
-0.66735	-0.12942
-0.38683	-0.46102
0.37822	0.43176
0.17421	-0.18043
0.53123	0.02363
-0.94787	0.71234
-2.04444	-0.25695
0.14870	-0.41000
1.16877	0.38074
0.91375	0.40625
0.91375	0.43176
0.88825	0.10015
0.42922	0.10015
-0.25932	0.45726
0.50573	0.58480
-0.82036	0.10015
-1.45790	-0.07840
0.30171	-0.63957
0.53123	-0.18043
0.88825	0.89089
-0.25932	0.63582
0.30171	-0.15492
-0.56534	-0.28246
-0.10631	0.48277
0.58223	0.04914
0.99026	0.50828
0.83725	0.32972
1.19427	0.53379
0.83725	-0.12942
-1.58541	0.32972
-1.84042	0.02363
-0.00431	0.12566
0.50573	-0.07840
0.96476	0.25320
0.42922	-0.15492
1.14327	-0.33348
0.42922	0.96742
-0.64185	1.04394
-1.94243	-0.05289
-0.31033	-0.28246
1.24527	-0.71609
1.29628	0.22769
0.25071	-0.18043
0.27621	0.43176
-0.23382	0.17668
-0.89686	-0.05289
0.45472	0.48277
0.37822	0.32972
0.78624	-0.28246
0.32721	0.53379
-0.05531	0.96742
-0.28482	0.07465
-1.50890	0.15117
-0.69285	-0.25695
1.24527	-0.10391
0.58223	0.17668
0.68424	0.76336
0.58223	0.81437
0.83725	0.15117
0.27621	-1.35379
-0.79486	-0.43551
-0.66735	-0.00188
0.32721	0.35523
0.04670	0.35523
0.17421	-0.07840
0.76074	-0.00188
0.35272	1.68163
0.30171	-0.51203
0.78624	-0.66508
-1.61091	0.10015
-1.48340	1.12046
-0.69285	0.55929
2.06133	0.15117
1.01576	0.04914
0.14870	0.35523
-0.08081	0.22769
0.55673	0.04914
0.86275	-0.20594
-0.36133	1.06945
-1.53441	-0.97117
-0.48884	-1.25176
1.01576	-0.20594
0.63323	0.63582
0.17421	0.22769
0.04670	0.27871
0.53123	1.27351
1.50029	1.01843
-0.76936	0.45726
-1.91693	-0.35899
-0.20832	-0.61406
1.04126	-0.05289
1.14327	0.45726
-0.59084	0.32972
0.25071	1.06945
0.32721	-0.76711
0.45472	-0.18043
0.27621	-0.12942
0.07220	0.96742
-0.05531	0.02363
0.53123	0.76336
0.48022	0.04914
0.19971	-0.76711
0.55673	0.35523
-1.48340	0.66132
-1.22839	0.38074
1.21977	-0.33348
-0.31033	-0.43551
-0.66735	0.22769
0.63323	0.22769
1.95932	-0.20594
0.83725	0.12566
-1.30489	0.61031
0.02119	0.94191
0.93925	-0.46102
1.06676	-0.25695
0.09770	0.50828
-0.08081	0.35523
-0.00431	0.02363
0.76074	0.48277
-0.28482	0.04914
-1.04987	0.22769
-0.08081	-0.53754
0.02119	0.43176
0.63323	0.02363
0.78624	0.61031
-0.13181	0.38074
0.14870	-0.66508
-0.08081	0.02363
0.42922	0.25320
0.81175	0.53379
-0.08081	0.48277
-0.25932	0.45726
-1.04987	0.58480
0.12320	0.45726
1.14327	-1.58336
0.96476	0.68683
1.06676	-0.74160
0.09770	0.45726
-0.46334	0.20219
0.02119	-0.15492
-0.02981	1.32453
-0.15732	0.55929
0.19971	-0.00188
0.53123	-0.58856
-0.82036	-0.07840
-0.87136	-0.15492
0.40372	0.20219
0.96476	0.04914
0.93925	-0.35899
-1.27939	0.58480
0.70974	0.04914
1.06676	0.61031
-0.08081	1.78367
-0.89686	-1.35379
-0.13181	-0.05289
0.68424	0.10015
0.78624	0.45726
1.16877	-0.38449
0.48022	-0.74160
-0.43783	0.91640
0.07220	0.15117
-0.00431	0.53379
-0.13181	-0.05289
-0.05531	-0.05289
-0.05531	0.50828
0.17421	0.15117
-0.02981	0.25320
-0.02981	-0.41000
-0.20832	0.53379
0.27621	-0.33348
0.50573	-0.05289
0.22521	0.40625
0.93925	0.38074
-0.31033	0.04914
-0.00431	0.22769
1.14327	0.17668
-0.53984	0.30422
-1.12638	0.38074
-0.05531	-0.18043
0.91375	0.40625
1.29628	0.27871
0.86275	-0.76711
0.04670	0.04914
-0.31033	0.22769
0.42922	0.27871
0.30171	0.27871
0.17421	-0.10391
-0.18282	0.04914
-1.15188	0.48277
-2.17195	0.61031
0.76074	-0.53754
1.80631	0.35523
0.53123	0.12566
0.83725	0.86539
0.53123	-0.10391
-1.10088	-0.15492
-1.02437	0.04914
-0.41233	-0.02739
0.07220	-0.28246
0.27621	0.35523
1.50029	0.86539
0.86275	-0.05289
0.91375	-0.43551
1.14327	0.32972
-0.15732	0.04914
-0.36133	0.04914
-0.84586	1.24800
0.02119	-0.10391
0.22521	-0.18043
-0.08081	0.10015
-0.25932	0.25320
-0.99887	-0.58856
-0.20832	0.07465
0.83725	0.40625
0.35272	0.20219
0.37822	-0.43551
0.35272	-0.58856
-0.33583	0.83988
0.09770	0.78886
1.37278	-0.15492
0.55673	-0.18043
0.42922	0.35523
-1.55991	0.53379
-0.76936	-0.07840
1.39828	0.32972
1.04126	-1.02219
-0.28482	-0.20594
0.27621	0.48277
0.58223	0.66132
-1.02437	0.68683
-1.53441	0.10015
0.73524	0.10015
0.93925	0.35523
1.16877	-0.38449
1.39828	0.40625
0.88825	-0.12942
-0.18282	-0.23145
-0.23382	0.73785
-1.15188	0.22769
-0.25932	-0.56305
-0.94787	0.10015
-0.38683	-0.43551
0.50573	0.55929
0.53123	1.06945
-0.08081	0.58480
-0.23382	0.15117
2.13783	-0.69059
1.67880	-0.15492
-1.02437	0.53379
-1.61091	0.10015
0.22521	0.81437
1.29628	-0.43551
1.70430	-0.07840
-0.33583	0.61031
0.07220	-0.20594
0.53123	-0.25695
1.09226	0.40625
-0.53984	0.66132
-1.53441	0.86539
-1.63641	0.22769
0.40372	-1.12422
1.37278	0.15117
0.81175	0.53379
-0.59084	0.32972
0.58223	-0.38449
0.63323	0.66132
0.83725	0.43176
0.60773	-0.10391
0.42922	0.86539
-0.64185	1.19699
-1.07538	-1.65988
-0.76936	0.15117
0.81175	0.81437
0.37822	0.15117
0.63323	-0.20594
-0.33583	-0.33348
0.48022	0.73785
0.93925	0.76336
0.99026	-0.58856
-1.53441	0.04914
-2.37596	0.02363
-0.18282	-0.02739
2.23984	0.96742
1.24527	-0.07840
1.16877	0.40625
0.93925	0.22769
0.42922	0.17668
-1.04987	0.20219
-0.28482	0.04914
-0.08081	0.45726
0.07220	-0.05289
-0.64185	0.78886
-0.23382	-0.10391
0.19971	-1.43031
0.93925	0.61031
0.58223	0.25320
-0.05531	-0.00188
-0.53984	0.30422
-0.28482	0.35523
0.27621	0.48277
0.19971	-0.00188
0.55673	0.25320
0.37822	0.17668
-0.33583	-0.05289
-0.20832	0.02363
0.42922	0.58480
0.63323	0.27871
0.70974	-0.46102
0.45472	-0.05289
-0.02981	0.68683
0.07220	-0.20594
-1.17738	-0.02739
0.48022	-0.05289
0.70974	0.55929
0.32721	0.48277
1.19427	0.78886
-0.33583	-0.15492
-0.10631	-0.71609
-1.27939	-0.35899
-0.18282	0.30422
-0.59084	0.22769
0.53123	0.83988
1.52579	0.32972
0.96476	0.30422
0.73524	0.40625
0.53123	0.45726
-0.20832	0.78886
-0.25932	-0.38449
0.14870	-0.25695
-0.31033	-0.10391
-0.02981	-0.12942
0.88825	-0.41000
-0.13181	0.53379
-0.18282	-0.00188
0.02119	0.66132
-0.43783	0.20219
-0.02981	0.02363
-0.18282	-0.10391
-0.08081	-0.05289
1.11776	0.30422
0.12320	0.81437
0.83725	0.15117
1.01576	-0.46102
0.81175	0.22769
-0.43783	0.83988
-0.92237	-0.41000
0.58223	-0.25695
0.55673	-0.30797
0.25071	0.45726
-1.30489	0.94191
-0.53984	0.12566
0.78624	0.04914
1.01576	-0.43551
-0.66735	0.73785
-1.89143	0.32972
0.40372	-0.10391
1.11776	0.15117
1.52579	1.09496
1.21977	-0.02739
0.09770	-1.04770
-0.61635	-0.92016
-0.53984	0.45726
-0.13181	-0.30797
0.37822	0.58480
0.27621	0.94191
0.37822	1.24800
0.12320	-0.18043
-0.48884	-0.10391
-0.69285	1.12046
0.73524	-1.30277
0.63323	0.40625
0.60773	0.04914
-1.10088	-0.12942
0.30171	-0.05289
-0.87136	-0.15492
0.63323	0.20219
0.07220	0.89089
1.06676	0.17668
1.14327	-0.20594
0.53123	0.55929
0.17421	-0.02739
0.58223	-0.46102
0.27621	0.35523
-0.00431	0.12566
-0.97337	0.43176
-1.43240	0.15117
0.40372	1.09496
0.68424	-1.25176
0.04670	-0.12942
0.55673	-0.46102
0.30171	0.40625
-1.35589	0.32972
-1.30489	0.55929
0.96476	0.40625
0.96476	0.02363
0.63323	0.04914
0.45472	-0.28246
0.19971	0.22769
0.04670	-0.00188
-0.02981	-0.25695
0.04670	0.38074
0.02119	-0.05289
-0.10631	0.40625
0.50573	0.83988
0.35272	0.17668
-0.61635	-0.28246
-0.64185	-0.00188
-0.23382	-0.18043
0.65874	0.25320
0.50573	0.27871
0.60773	-0.12942
0.83725	0.27871
0.50573	0.30422
0.09770	0.58480
-0.28482	0.02363
-1.30489	-0.33348
-0.05531	1.01843
0.70974	-0.10391
1.39828	-0.30797
-0.74385	0.15117
-0.56534	0.48277
0.53123	-0.10391
0.78624	0.32972
0.63323	-0.02739
0.60773	0.02363
-0.08081	-0.18043
-0.28482	0.25320
0.02119	1.01843
0.50573	-0.51203
0.04670	0.78886
-1.71292	0.10015
-1.10088	-0.00188
0.68424	-0.15492
1.85731	0.22769
1.21977	0.45726
-0.61635	-0.00188
-0.74385	-0.12942
1.01576	-0.02739
1.14327	1.09496
-0.48884	0.63582
-0.31033	0.02363
0.37822	-0.05289
-0.18282	-1.32828
0.27621	0.53379
-0.48884	0.17668
1.01576	0.45726
-0.46334	-0.28246
0.35272	0.45726
0.32721	0.38074
0.53123	0.50828
0.17421	-0.12942
0.22521	0.15117
0.42922	0.07465
0.12320	0.04914
-0.92237	0.30422
-0.28482	0.02363
0.17421	0.53379
0.63323	0.66132
0.42922	0.02363
0.02119	-1.37929
-0.25932	-0.15492
0.37822	0.43176
0.73524	1.52859
0.14870	-0.56305
-0.08081	0.43176
-1.55991	0.32972
0.02119	0.12566
1.44929	0.07465
0.65874	-0.02739
-0.51434	0.22769
-0.38683	0.61031
0.73524	0.45726
0.37822	0.32972
0.40372	-0.43551
0.40372	-0.15492
0.60773	-0.25695
-0.02981	0.25320
-0.89686	0.58480
-0.53984	0.50828
0.14870	-0.61406
1.44929	0.04914
0.25071	-0.23145
-1.68742	0.86539
-1.02437	0.76336
0.88825	0.12566
1.95932	0.61031
0.65874	0.15117
-0.43783	-0.07840
-0.71835	0.12566
-0.02981	0.15117
1.70430	0.25320
0.35272	0.20219
-0.38683	0.17668
0.07220	0.22769
0.02119	-0.02739
-0.23382	-0.10391
0.48022	-0.00188
-0.05531	-0.18043
-0.48884	0.61031
0.60773	-0.07840
0.86275	-0.05289
-0.74385	0.17668
-0.92237	0.50828
1.06676	0.04914
-0.33583	0.40625
0.02119	0.04914
0.07220	0.30422
0.12320	-0.25695
0.73524	-0.23145
0.81175	0.55929
0.48022	0.50828
0.02119	-0.07840
-0.13181	0.07465
0.42922	0.17668
0.48022	0.07465
-0.33583	0.10015
-0.71835	1.17148
-0.31033	-0.41000
0.12320	-0.58856
0.22521	0.12566
-0.25932	-0.05289
0.12320	0.17668
0.91375	0.63582
0.12320	0.15117
-0.38683	0.25320
-0.97337	0.20219
0.58223	0.20219
1.60230	0.25320
0.73524	0.04914
0.27621	0.10015
0.07220	0.35523
-0.46334	0.04914
-0.66735	-0.53754
-0.10631	0.55929
0.91375	0.43176
0.76074	-0.20594
-0.66735	-0.00188
-1.17738	0.38074
-0.13181	-0.05289
0.48022	0.40625
0.45472	-0.33348
0.30171	-0.07840
1.39828	0.61031
0.88825	0.58480
-0.08081	0.07465
-1.99343	0.17668
-0.82036	-1.02219
0.12320	-0.10391
0.93925	0.45726
1.47479	0.55929
1.75531	-0.66508
-0.02981	0.45726
-0.94787	0.81437
-0.33583	0.53379
0.42922	0.35523
0.37822	-0.38449
0.60773	0.20219
-0.92237	0.32972
-1.55991	-0.00188
0.27621	-0.10391
0.88825	-0.20594
0.42922	-0.15492
0.48022	0.27871
0.60773	0.25320
0.17421	0.48277
-0.38683	-0.07840
0.40372	-0.23145
1.34728	0.10015
-0.20832	0.40625
-0.74385	-0.10391
-1.48340	0.15117
0.14870	0.55929
1.14327	0.43176
1.34728	-0.48652
-0.20832	-0.00188
-1.20288	1.24800
-0.36133	-0.99668
0.76074	0.55929
1.50029	0.73785
0.83725	-1.25176
0.83725	0.10015
-0.79486	-0.18043
-0.43783	0.50828
-1.25389	0.53379
0.40372	0.40625
0.93925	0.45726
0.93925	-0.35899
0.42922	-0.00188
-0.48884	0.40625
-0.10631	-0.00188
-1.10088	-0.00188
0.40372	0.30422
0.37822	-0.38449
0.22521	0.86539
1.24527	0.15117
0.42922	-0.28246
0.19971	-0.05289
-0.05531	0.38074
-0.23382	1.52859
-0.74385	0.66132
0.50573	-0.56305
0.07220	-0.07840
0.37822	-0.10391
-0.05531	0.30422
0.09770	0.32972
1.04126	-0.02739
0.93925	0.78886
-0.05531	0.32972
0.27621	-0.25695
-0.74385	-0.00188
-0.31033	0.27871
-0.23382	0.15117
-0.00431	-0.28246
-0.56534	0.38074
2.16333	0.35523
0.63323	0.17668
-0.66735	0.38074
-1.66191	0.63582
0.70974	-0.10391
-0.00431	-0.25695
0.48022	0.10015
1.44929	1.50308
2.21434	-0.35899
1.04126	-0.35899
-0.69285	0.30422
-1.55991	0.45726
0.02119	0.27871
-0.41233	0.20219
0.45472	-0.35899
0.35272	0.27871
0.07220	0.07465
0.02119	0.07465
0.02119	0.55929
-0.48884	-0.12942
-0.28482	-0.12942
1.24527	0.30422
-0.05531	0.15117
1.19427	0.50828
-0.20832	-0.07840
-0.33583	-0.12942
-1.66191	0.17668
-0.00431	0.32972
0.53123	-0.10391
0.68424	-0.41000
-0.00431	0.22769
0.93925	0.43176
0.65874	0.07465
1.60230	0.15117
-0.25932	0.22769
0.09770	0.12566
0.27621	-0.28246
0.07220	0.58480
-1.66191	1.65613
-0.25932	0.27871
1.52579	0.32972
0.17421	-0.94566
-0.38683	-1.37929
-0.53984	0.55929
-0.08081	0.27871
0.83725	0.15117
-0.18282	0.50828
-0.23382	0.55929
-0.08081	0.12566
0.60773	0.15117
0.42922	-0.20594
0.42922	-0.23145
0.42922	-0.00188
0.12320	0.50828
-0.25932	0.22769
0.14870	0.30422
0.78624	0.07465
-0.08081	-0.23145
-0.05531	-0.02739
-0.25932	0.45726
0.14870	0.43176
0.12320	0.04914
0.19971	-0.02739
0.37822	0.27871
-0.48884	-0.15492
-0.08081	-0.00188
0.37822	0.63582
0.70974	0.35523
0.48022	0.04914
0.27621	-0.02739
-0.89686	0.76336
0.04670	-0.07840
0.17421	-1.30277
0.27621	0.10015
0.32721	0.68683
0.35272	0.45726
1.37278	0.63582
0.35272	-0.23145
-1.30489	0.15117
-1.68742	-0.05289
0.37822	0.15117
1.01576	-0.53754
0.86275	0.38074
0.04670	1.35003
0.45472	-0.89465
0.70974	0.35523
-1.04987	-0.28246
-1.35589	0.07465
-0.13181	-0.30797
0.91375	0.53379
0.60773	0.35523
0.22521	-0.15492
0.35272	0.32972
0.63323	-0.05289
0.19971	0.12566
-0.20832	0.17668
-0.48884	0.40625
0.14870	0.30422
0.60773	0.43176
1.04126	-0.00188
-0.28482	0.07465
-0.51434	0.10015
-0.20832	0.04914
0.70974	0.02363
-0.38683	0.02363
-0.36133	-0.20594
0.09770	0.10015
1.11776	0.55929
0.63323	-0.58856
0.25071	0.07465
-0.43783	-0.25695
0.60773	0.48277
0.27621	0.30422
0.76074	0.30422
-0.53984	0.22769
-0.61635	-0.02739
-0.61635	0.27871
0.50573	0.50828
0.30171	0.25320
1.14327	-0.41000
0.60773	0.45726
0.53123	0.22769
-0.28482	-0.10391
-0.99887	-0.38449
0.22521	-0.05289
0.53123	0.55929
0.50573	-0.71609
0.73524	0.45726
-0.48884	0.04914
-1.71292	-0.10391
0.42922	0.78886
0.22521	1.12046
0.02119	0.15117
1.04126	-1.58336
1.04126	0.53379
0.93925	0.73785
0.40372	0.78886
0.19971	0.38074
0.19971	0.25320
0.50573	0.10015
0.50573	0.04914
-0.89686	-0.18043
-1.76392	0.17668
-0.64185	0.04914
0.76074	0.04914
1.44929	0.25320
-0.64185	0.35523
-0.74385	-0.07840
1.11776	-0.48652
1.14327	-0.38449
0.53123	0.53379
-0.20832	-0.00188
-0.66735	0.22769
-0.59084	0.30422
-0.00431	0.73785
0.53123	0.43176
1.01576	0.12566
1.01576	0.17668
0.96476	0.27871
0.19971	0.22769
-1.15188	0.22769
-0.92237	-0.00188
-0.28482	0.07465
0.63323	-0.23145
0.42922	0.10015
-0.99887	0.61031
-1.25389	-0.10391
1.06676	-0.00188
0.53123	-0.25695
0.70974	-0.15492
1.01576	1.17148
1.72980	0.20219
-1.22839	-1.86394
-1.63641	0.22769
-0.10631	0.43176
0.73524	0.83988
0.70974	0.58480
0.32721	0.40625
0.35272	0.76336
0.04670	0.12566
0.35272	-0.07840
0.22521	0.35523
-0.05531	-0.35899
0.40372	0.45726
-0.02981	0.04914
-0.94787	0.43176
-2.06994	-0.63957
0.78624	-0.00188
1.75531	0.22769
1.14327	0.32972
-0.59084	0.04914
0.42922	-0.07840
-0.28482	0.27871
-0.10631	0.43176
0.32721	0.15117
0.42922	0.04914
0.60773	0.35523
0.07220	0.15117
0.02119	-0.05289
0.12320	-0.35899
0.07220	0.10015
-0.23382	0.40625
0.81175	0.35523
0.02119	0.02363
-0.74385	0.22769
-0.69285	0.17668
0.58223	0.45726
0.68424	-0.56305
0.19971	-0.38449
0.09770	-0.23145
-0.79486	0.15117
-0.20832	0.10015
0.35272	0.35523
0.25071	-0.56305
0.53123	0.07465
0.22521	0.40625
0.19971	0.81437
0.22521	0.30422
0.99026	-0.05289
0.40372	0.99292
-1.04987	-0.23145
-0.99887	-0.38449
0.48022	0.50828
1.24527	0.66132
0.83725	-0.25695
0.27621	-0.33348
-0.28482	-0.23145
0.07220	0.12566
-0.18282	0.12566
-0.66735	-0.12942
-0.53984	0.17668
0.60773	-0.46102
0.91375	0.73785
0.12320	0.73785
-0.13181	-0.00188
0.07220	0.68683
0.60773	-0.79262
0.53123	0.66132
-0.13181	0.25320
0.45472	0.86539
0.07220	0.35523
-0.28482	-0.30797
-0.61635	-0.07840
0.53123	0.17668
0.86275	0.04914
0.76074	-0.69059
0.07220	0.22769
0.45472	0.30422
-0.38683	-0.02739
-0.25932	0.07465
-0.25932	0.10015
0.63323	0.45726
-0.08081	0.35523
-0.41233	0.02363
0.48022	0.63582
0.60773	-0.94566
0.17421	0.32972
-0.41233	0.63582
-0.69285	0.50828
0.88825	0.38074
0.68424	-0.18043
1.29628	1.01843
0.35272	-0.23145
-0.13181	0.40625
-0.15732	0.20219
0.22521	-0.25695
-0.18282	0.04914
-0.69285	-0.33348
-1.07538	-0.05289
0.19971	0.45726
1.09226	0.30422
1.50029	-0.12942
0.50573	0.48277
-1.71292	-0.28246
-0.92237	-0.69059
0.83725	0.55929
0.70974	0.63582
0.53123	0.63582
0.50573	0.50828
1.21977	0.73785
0.40372	-0.25695
-0.79486	-0.63957
-1.02437	-0.23145
0.22521	0.38074
0.53123	-0.05289
-0.13181	-0.10391
-0.38683	0.71234
-0.08081	0.30422
0.78624	0.40625
0.91375	-0.05289
0.19971	0.07465
-1.02437	-0.18043
-0.08081	0.94191
0.50573	0.25320
0.53123	0.20219
1.14327	-1.07320
-0.89686	0.30422
-1.22839	0.15117
1.42379	0.25320
1.50029	0.53379
-0.48884	0.43176
0.09770	0.53379
0.60773	-0.81812
0.09770	0.43176
-0.41233	0.50828
0.53123	-0.53754
-0.31033	-0.86914
0.14870	0.15117
-0.20832	1.91120
-0.76936	0.71234
-0.61635	-0.10391
1.14327	0.10015
1.32178	-0.18043
0.09770	0.02363
0.22521	-0.43551
0.53123	0.22769
0.25071	-0.07840
-0.48884	0.17668
-0.79486	0.38074
-0.31033	0.04914
0.12320	-0.15492
0.83725	1.01843
0.55673	-0.71609
0.22521	0.73785
0.07220	0.27871
0.30171	0.22769
0.48022	-0.76711
-0.20832	0.61031
-0.25932	-0.15492
0.07220	-0.28246
0.42922	0.15117
-0.64185	0.43176
0.58223	0.55929
-0.08081	-0.05289
0.22521	-0.58856
-0.36133	0.15117
0.83725	0.30422
1.01576	-0.18043
0.86275	0.81437
0.02119	0.27871
-0.46334	-0.02739
-0.18282	-0.07840
0.40372	0.78886
0.60773	0.35523
-0.36133	-1.14973
-0.51434	0.83988
-0.94787	-0.51203
0.55673	0.35523
-1.30489	0.66132
0.70974	-0.61406
1.90832	-0.02739
0.48022	0.25320
0.09770	0.32972
-0.79486	0.43176
0.25071	0.43176
0.50573	0.25320
0.27621	0.38074
1.14327	-0.12942
0.19971	-0.10391
0.55673	-0.10391
-0.28482	0.25320
-0.48884	0.07465
-0.64185	-0.05289
-0.02981	0.07465
0.09770	-0.05289
-0.08081	0.50828
-0.28482	0.07465
0.07220	0.02363
0.12320	-0.58856
0.53123	0.12566
0.68424	1.04394
0.58223	0.48277
0.19971	0.45726
0.19971	-0.35899
-0.00431	-0.10391
-0.69285	0.20219
-0.59084	0.40625
0.32721	-0.33348
1.11776	0.22769
0.12320	-0.10391
-0.46334	0.07465
-0.36133	0.12566
1.04126	0.45726
0.53123	0.53379
0.48022	-0.30797
0.83725	0.30422
0.48022	0.15117
-0.00431	0.17668
-0.41233	0.17668
-1.22839	0.27871
-0.66735	-0.30797
-0.13181	-0.61406
0.99026	0.35523
0.70974	0.58480
0.48022	0.17668
-0.13181	0.15117
-0.08081	0.12566
-0.41233	-0.94566
-0.00431	0.71234
0.48022	0.15117
0.27621	0.50828
0.02119	0.53379
0.19971	0.76336
0.30171	-0.46102
0.09770	-0.12942
0.58223	0.63582
1.14327	0.53379
-0.31033	0.38074
-1.53441	-0.51203
-0.25932	0.04914
1.60230	-0.12942
0.53123	-0.66508
-1.76392	0.25320
-1.48340	0.66132
0.78624	0.61031
1.57679	0.27871
0.86275	0.04914
0.58223	0.73785
0.17421	0.32972
0.65874	0.12566
-0.53984	-0.66508
0.37822	0.48277
-0.05531	0.45726
-0.51434	-0.00188
1.21977	-0.61406
-0.92237	-0.15492
-1.68742	0.17668
-0.87136	0.81437
1.09226	0.63582
0.88825	-0.56305
1.47479	-0.10391
0.68424	0.22769
0.09770	0.27871
0.50573	0.48277
0.48022	0.27871
-0.82036	-0.20594
-0.25932	0.43176
0.12320	0.20219
0.99026	0.45726
0.07220	-0.33348
-0.10631	-0.18043
-0.08081	0.20219
0.35272	0.35523
0.27621	0.27871
0.27621	0.30422
0.30171	0.07465
0.32721	0.07465
-0.53984	-0.18043
-0.38683	0.66132
0.12320	0.25320
0.63323	0.40625
1.11776	-0.74160
-0.33583	-0.35899
-1.27939	0.63582
-0.46334	-0.25695
1.01576	0.40625
0.88825	0.55929
1.98482	0.12566
0.63323	0.22769
-1.38139	-0.02739
-1.45790	0.43176
0.19971	0.02363
1.19427	-0.07840
-0.23382	-0.07840
-0.20832	-0.53754
0.48022	0.15117
0.37822	0.40625
0.83725	0.78886
0.78624	0.15117
-0.05531	0.27871
-0.48884	0.50828
-0.97337	-0.30797
-0.84586	-0.07840
0.55673	-0.33348
-0.02981	0.35523
0.40372	0.99292
0.65874	-0.84363
1.11776	0.66132
0.40372	0.12566
0.17421	-0.23145
-0.66735	-0.38449
-0.43783	0.58480
-0.23382	0.15117
0.53123	0.40625
-0.05531	0.48277
0.37822	0.58480
0.50573	0.07465
0.65874	-0.10391
-0.02981	0.35523
0.78624	-0.38449
-0.08081	0.40625
-0.13181	0.02363
-0.36133	-0.05289
0.96476	-0.10391
0.02119	0.10015
-0.92237	0.15117
-0.71835	0.89089
1.67880	-0.66508
0.91375	0.53379
0.50573	0.61031
-0.00431	-0.69059
-0.28482	-0.12942
0.19971	0.12566
0.27621	0.61031
-0.48884	0.04914
-0.99887	0.02363
0.17421	0.30422
1.55129	0.35523
-0.28482	0.30422
-0.94787	-0.25695
-0.66735	0.35523
0.65874	0.78886
0.91375	0.07465
0.73524	-0.63957
0.45472	-0.10391
0.32721	0.04914
0.68424	-0.02739
0.70974	0.17668
-0.82036	0.45726
-2.29945	0.48277
0.27621	-0.00188
0.68424	0.04914
0.58223	0.12566
0.55673	1.42656
0.19971	-1.04770
-0.05531	0.27871
-0.08081	0.27871
-0.20832	-0.05289
0.17421	0.15117
0.60773	0.02363
0.45472	0.35523
0.30171	0.20219
0.63323	0.22769
-0.59084	0.22769
-0.41233	0.25320
-0.56534	0.12566
-0.23382	-0.48652
0.60773	0.15117
2.08683	0.81437
0.30171	-0.41000
-0.13181	0.25320
-0.64185	-0.41000
-0.89686	-0.33348
0.09770	0.45726
0.73524	0.83988
0.73524	0.53379
0.22521	-0.07840
0.60773	0.89089
0.32721	1.06945
0.22521	-0.51203
-0.41233	-0.07840
0.40372	0.27871
0.88825	-0.10391
0.04670	0.27871
-1.43240	-0.99668
-0.71835	0.50828
0.07220	-0.30797
0.73524	0.07465
0.63323	0.04914
0.37822	0.25320
0.14870	0.63582
0.07220	0.45726
0.22521	0.30422
0.40372	0.15117
0.12320	0.22769
-0.28482	0.30422
-0.08081	-0.33348
0.60773	-0.43551
0.12320	0.20219
-0.28482	0.78886
-1.02437	-0.69059
-0.00431	0.45726
0.63323	0.43176
1.60230	0.99292
0.48022	0.12566
-0.51434	-0.00188
-0.18282	-0.00188
0.19971	0.25320
0.35272	0.76336
0.19971	-0.79262
0.25071	-0.12942
0.12320	0.02363
-0.74385	0.07465
-0.41233	0.15117
-0.15732	0.35523
0.40372	-0.07840
0.32721	0.27871
0.37822	0.43176
0.73524	0.35523
0.58223	0.48277
0.40372	-0.10391
-0.28482	0.07465
-0.10631	0.25320
-0.10631	0.45726
0.63323	-0.20594
-0.71835	0.15117
-1.17738	-0.66508
-0.05531	0.04914
0.48022	0.53379
1.06676	0.55929
0.55673	-0.63957
0.09770	0.17668
-0.18282	0.86539
0.48022	0.20219
-0.02981	0.22769
0.02119	0.40625
0.07220	-0.12942
0.32721	-0.05289
0.37822	-0.12942
0.22521	0.53379
0.17421	-0.25695
-0.31033	0.25320
-0.48884	0.25320
-0.13181	-0.00188
0.22521	0.04914
0.17421	0.02363
0.60773	0.12566
0.04670	0.02363
0.02119	0.25320
0.40372	0.15117
0.63323	0.61031
-0.13181	0.55929
-0.08081	-0.51203
-0.05531	0.12566
0.22521	0.12566
0.35272	0.48277
0.55673	-0.15492
-0.25932	-0.10391
0.48022	0.50828
0.58223	0.35523
-0.51434	0.10015
-0.74385	0.40625
-0.33583	-0.66508
0.48022	0.15117
0.73524	-0.66508
0.63323	0.40625
0.81175	0.04914
-0.38683	1.22250
-0.87136	0.35523
-0.28482	-0.05289
0.22521	-0.05289
0.27621	0.17668
0.76074	-0.10391
0.60773	0.48277
-0.25932	-0.35899
-0.66735	0.58480
0.12320	-0.07840
0.14870	-0.69059
-0.31033	0.17668
0.40372	0.61031
1.52579	0.30422
0.04670	-0.15492
-1.50890	0.53379
-0.36133	0.71234
0.91375	-0.46102
0.63323	-0.43551
1.14327	0.71234
0.30171	0.73785
-0.05531	0.02363
-0.94787	-0.23145
-1.43240	0.04914
0.42922	-0.07840
0.58223	0.27871
0.58223	0.68683
0.35272	0.15117
0.81175	-0.20594
0.35272	0.15117
0.30171	0.66132
-0.38683	0.17668
-0.43783	-0.18043
-0.31033	0.04914
0.53123	0.73785
0.02119	-0.48652
0.63323	-0.63957
-0.51434	0.07465
0.02119	1.40105
1.16877	0.68683
0.68424	0.30422
-0.25932	0.30422
-0.33583	-1.25176
1.21977	0.15117
-0.79486	0.25320
-0.69285	-0.05289
-0.48884	0.91640
0.48022	0.86539
0.32721	0.30422
0.58223	-0.30797
0.91375	-0.00188
0.55673	-0.10391
0.37822	0.45726
-0.15732	0.38074
-0.53984	-0.28246
0.45472	0.02363
0.32721	0.53379
0.17421	0.48277
-0.64185	-0.07840
0.40372	-0.07840
0.14870	0.30422
0.37822	-0.07840
0.63323	0.40625
0.02119	-0.20594
-0.82036	0.35523
-0.15732	0.15117
1.09226	0.25320
0.78624	0.07465
0.25071	0.68683
-0.51434	-0.61406
-0.31033	0.76336
-0.08081	-0.43551
0.70974	-0.10391
1.06676	0.30422
-0.28482	0.32972
-0.99887	0.07465
-0.25932	-0.00188
0.96476	0.20219
0.63323	0.20219
0.22521	-0.25695
0.04670	0.48277
0.22521	-0.05289
0.12320	-0.05289
0.68424	-0.00188
-0.51434	0.02363
-0.53984	0.30422
-0.33583	0.32972
0.09770	-0.02739
0.60773	-0.38449
0.42922	0.25320
0.35272	0.73785
-0.08081	0.15117
0.17421	-0.00188
0.93925	0.35523
0.32721	0.35523
0.09770	-0.02739
0.17421	0.38074
-0.18282	0.04914
-0.48884	-0.15492
-0.08081	0.20219
0.32721	-0.20594
0.53123	0.15117
0.35272	0.35523
-0.18282	0.55929
-0.20832	-0.35899
0.02119	0.20219
0.40372	0.58480
0.02119	-0.07840
0.17421	0.53379
0.50573	-0.02739
0.70974	-0.38449
0.91375	-0.38449
-0.74385	0.30422
-0.84586	0.27871
-0.15732	0.48277
1.34728	0.17668
0.65874	0.17668
0.40372	0.32972
-0.51434	0.86539
0.14870	-0.10391
0.22521	-0.58856
0.53123	0.20219
-0.10631	0.35523
-0.20832	0.17668
-0.05531	0.12566
0.48022	-0.15492
0.30171	0.43176
-0.10631	0.02363
0.12320	-0.05289
0.42922	0.30422
-0.08081	0.17668
-0.15732	0.12566
-0.08081	0.20219
0.88825	0.22769
0.70974	0.35523
0.27621	-0.25695
0.76074	0.22769
-0.05531	0.32972
-0.66735	0.15117
-1.10088	-0.28246
-0.18282	-0.15492
0.53123	0.40625
1.29628	0.35523
1.06676	0.66132
-0.51434	0.27871
-0.13181	0.07465
0.12320	0.04914
0.42922	0.07465
0.14870	0.22769
0.25071	0.32972
-0.23382	-0.10391
-0.48884	0.40625
0.48022	-0.35899
0.50573	-0.02739
-0.02981	0.04914
-0.51434	0.30422
0.63323	0.32972
0.02119	0.10015
0.32721	0.55929
-0.00431	0.20219
0.53123	-0.43551
0.68424	0.91640
0.63323	-0.46102
0.30171	-0.35899
-0.89686	0.25320
-1.02437	0.78886
-0.31033	0.04914
0.37822	0.32972
1.19427	0.40625
1.85731	-0.05289
-0.92237	0.22769
-0.59084	0.02363
-0.38683	0.15117
0.14870	0.35523
0.45472	0.12566
0.50573	-0.56305
0.42922	0.30422
0.63323	0.30422
0.50573	-0.02739
-0.20832	0.15117
-1.91693	0.32972
-0.79486	-0.28246
0.55673	0.15117
1.27078	0.20219
0.86275	0.17668
-0.48884	0.12566
-0.05531	-0.58856
0.04670	0.40625
0.07220	0.07465
0.14870	0.43176
0.12320	0.32972
0.02119	-0.48652
0.09770	0.25320
0.02119	0.35523
0.81175	0.25320
0.27621	-0.02739
0.04670	0.02363
0.48022	0.35523
0.27621	0.30422
-1.40690	0.68683
-1.25389	-0.05289
0.07220	0.10015
1.72980	0.10015
1.01576	-0.10391
0.32721	0.02363
-0.28482	0.63582
0.96476	0.63582
-0.43783	-0.63957
-1.27939	-0.07840
0.93925	0.27871
0.73524	0.48277
0.17421	0.04914
0.02119	-0.20594
0.60773	0.04914
0.50573	0.20219
0.19971	0.22769
0.19971	0.48277
-0.08081	0.27871
0.04670	-0.07840
-0.64185	0.48277
-0.82036	0.02363
-1.45790	-0.15492
0.37822	0.15117
1.16877	-0.07840
0.93925	1.68163
0.63323	-0.20594
0.19971	-0.66508
0.27621	-0.30797
0.40372	-0.15492
0.22521	0.38074
-0.05531	0.25320
-0.51434	-0.28246
-0.23382	0.66132
-0.20832	0.66132
0.12320	-0.10391
0.63323	-0.10391
1.44929	0.63582
0.07220	-0.00188
-1.55991	0.04914
-2.06994	-0.10391
1.06676	-0.66508
1.06676	0.15117
1.19427	1.12046
1.11776	-0.15492
-0.71835	0.22769
-0.69285	0.12566
0.02119	-0.10391
0.58223	0.86539
0.27621	0.02363
0.12320	-1.07320
-0.02981	0.27871
-0.02981	-0.00188
0.53123	-0.07840
0.17421	0.40625
0.17421	0.81437
-0.48884	0.91640
0.76074	-0.69059
0.35272	0.15117
-1.43240	0.40625
-1.63641	-0.28246
1.47479	-1.04770
1.72980	0.22769
-0.13181	1.17148
0.58223	0.22769
1.29628	0.12566
0.83725	0.83988
0.04670	0.04914
-0.20832	-0.51203
0.25071	-0.28246
-0.87136	0.17668
-1.27939	0.20219
-0.74385	-0.10391
0.81175	0.40625
1.01576	0.12566
0.63323	0.12566
0.12320	0.55929
-0.61635	0.15117
-0.99887	0.30422
-0.23382	-1.14973
0.63323	0.27871
1.24527	0.78886
1.57679	0.04914
1.62780	0.27871
-0.15732	0.45726
-1.45790	0.48277
-0.48884	-0.58856
0.86275	-0.07840
0.60773	0.20219
-1.27939	0.55929
0.17421	0.17668
1.09226	0.22769
1.11776	0.43176
-0.13181	0.20219
-0.48884	-0.00188
0.19971	-0.05289
2.01032	-0.00188
-0.51434	0.20219
-1.12638	-0.30797
-0.28482	0.53379
-0.66735	-0.46102
-1.17738	0.66132
0.70974	-0.38449
0.65874	0.12566
0.68424	0.89089
1.27078	-0.23145
1.37278	0.04914
-0.10631	0.25320
-0.43783	-0.43551
0.19971	1.06945
0.53123	0.55929
0.12320	-0.43551
-0.79486	-0.10391
-0.05531	0.10015
-0.18282	-0.05289
-0.74385	-0.05289
-0.15732	0.91640
-0.66735	0.86539
1.14327	-0.79262
0.73524	-0.18043
0.19971	0.71234
0.53123	0.43176
0.35272	-0.41000
0.40372	-0.18043
-0.15732	-0.10391
0.40372	0.40625
1.21977	0.35523
-0.33583	0.30422
-0.99887	0.07465
-0.76936	0.22769
0.83725	-0.07840
0.40372	0.04914
-0.53984	-0.05289
1.29628	0.17668
1.88281	0.12566
-1.10088	0.15117
-1.99343	0.20219
-0.13181	-0.25695
1.06676	0.45726
1.27078	0.22769
1.42379	0.22769
0.32721	0.17668
-0.43783	0.61031
-0.43783	0.07465
0.30171	-0.05289
0.37822	-0.94566
-0.23382	-0.00188
0.04670	0.53379
0.12320	0.43176
-0.61635	0.89089
-0.18282	-0.00188
0.32721	0.02363
0.65874	0.25320
0.65874	-0.38449
0.60773	0.38074
-0.59084	0.02363
-0.02981	-0.51203
0.02119	0.02363
0.17421	0.27871
0.73524	0.22769
0.37822	0.35523
0.91375	0.10015
0.58223	0.40625
-0.20832	0.02363
0.17421	0.20219
0.09770	-0.05289
0.04670	0.58480
-1.07538	-0.76711
-0.43783	-0.28246
0.83725	-0.18043
0.40372	0.55929
-1.45790	0.71234
-0.05531	0.22769
1.19427	-0.23145
1.21977	0.35523
0.50573	1.01843
-0.87136	0.20219
0.12320	-1.04770
0.63323	0.02363
-0.02981	0.20219
-0.00431	0.30422
0.60773	0.22769
0.60773	0.32972
0.02119	0.53379
-0.94787	0.38074
-0.00431	-0.51203
0.09770	-0.48652
-0.02981	-0.53754
-0.18282	0.45726
0.53123	0.86539
0.35272	0.48277
0.81175	0.22769
0.60773	0.48277
-0.36133	0.20219
-0.23382	0.15117
0.25071	-0.05289
0.27621	-0.51203
-0.59084	-0.07840
0.07220	0.25320
0.30171	0.43176
0.58223	-0.05289
0.91375	-0.10391
0.17421	0.43176
-1.10088	0.10015
-0.05531	0.25320
0.55673	-0.02739
1.24527	0.66132
-0.41233	-0.12942
-1.76392	-0.07840
-1.02437	0.10015
0.55673	0.12566
0.91375	0.10015
1.04126	0.40625
1.21977	0.30422
-0.00431	0.40625
-0.02981	0.15117
-0.18282	-0.15492
-0.76936	0.07465
-0.51434	0.40625
0.45472	0.35523
0.83725	-0.10391
0.48022	0.15117
0.02119	0.30422
0.48022	0.20219
0.40372	0.35523
