0.25071	0.22769
0.17421	0.15117
0.19971	0.15117
0.14870	0.20219
0.07220	0.07465
-0.05531	0.02363
-0.05531	0.15117
0.12320	-0.00188
0.19971	0.17668
0.32721	0.15117
0.27621	0.38074
0.22521	0.10015
0.14870	0.22769
0.02119	0.10015
0.09770	0.20219
0.14870	0.12566
0.04670	0.04914
0.04670	0.12566
0.14870	0.22769
0.25071	0.20219
0.19971	0.12566
0.22521	0.07465
0.09770	0.12566
0.12320	0.22769
0.19971	0.10015
0.07220	0.07465
0.02119	0.07465
0.12320	0.12566
0.19971	0.22769
0.25071	0.12566
0.07220	0.15117
0.12320	0.10015
0.14870	0.15117
0.19971	0.20219
0.19971	0.10015
0.12320	0.04914
0.02119	0.10015
0.09770	0.15117
0.17421	0.15117
0.17421	0.15117
0.17421	0.15117
0.25071	0.20219
0.22521	0.25320
0.07220	-0.05289
0.12320	0.07465
0.02119	0.12566
0.07220	0.17668
0.14870	0.12566
0.12320	0.15117
0.19971	0.15117
0.14870	0.25320
0.30171	0.20219
0.14870	0.12566
0.07220	0.12566
0.09770	0.15117
0.17421	0.12566
0.04670	0.07465
0.02119	0.12566
0.14870	0.20219
0.30171	0.15117
0.19971	0.20219
0.09770	0.10015
0.12320	0.17668
0.19971	0.17668
0.12320	0.10015
0.14870	0.10015
-0.08081	0.04914
0.07220	0.17668
0.02119	0.07465
0.27621	0.20219
0.19971	0.32972
0.27621	0.22769
0.17421	0.15117
0.07220	0.15117
0.07220	0.07465
0.07220	0.10015
0.02119	0.04914
0.07220	0.10015
0.12320	0.15117
0.25071	0.15117
0.19971	0.20219
0.22521	0.17668
0.22521	0.25320
0.12320	0.17668
0.14870	0.15117
0.14870	0.22769
0.02119	0.17668
0.17421	0.22769
0.22521	0.25320
0.32721	0.20219
0.25071	0.27871
0.12320	0.22769
0.22521	0.17668
0.17421	0.20219
0.19971	0.17668
0.17421	0.17668
0.09770	0.07465
0.04670	0.10015
0.07220	0.10015
0.22521	0.07465
0.19971	0.15117
0.22521	0.22769
0.17421	0.15117
0.02119	0.12566
0.02119	0.07465
0.17421	0.20219
0.04670	0.15117
0.12320	0.15117
0.07220	0.04914
0.14870	0.12566
0.19971	0.22769
0.22521	0.25320
0.25071	0.25320
0.19971	0.15117
0.17421	0.07465
0.07220	0.07465
0.04670	0.04914
0.04670	0.10015
0.12320	0.07465
0.14870	0.12566
0.25071	0.20219
0.19971	0.20219
0.14870	0.10015
0.12320	0.15117
0.12320	0.07465
0.04670	0.15117
0.12320	0.10015
0.09770	-0.00188
0.02119	0.10015
0.17421	0.04914
0.14870	0.22769
0.25071	0.22769
0.14870	0.15117
0.14870	0.15117
0.22521	0.12566
0.19971	0.20219
0.14870	0.10015
0.14870	0.17668
0.19971	0.15117
0.17421	0.04914
0.14870	0.04914
0.12320	0.07465
0.09770	0.04914
0.04670	0.15117
0.14870	0.12566
0.12320	0.15117
0.09770	0.15117
0.09770	0.15117
0.25071	0.25320
0.30171	0.10015
0.19971	0.17668
0.14870	0.15117
0.09770	0.12566
0.12320	0.20219
0.14870	0.20219
0.22521	0.17668
0.09770	0.04914
0.02119	0.04914
0.07220	0.15117
0.22521	0.17668
0.30171	0.22769
0.12320	0.12566
0.14870	0.15117
0.04670	0.10015
0.07220	0.04914
0.07220	0.07465
0.12320	0.12566
0.12320	0.17668
0.17421	0.22769
0.22521	0.22769
0.09770	0.15117
0.09770	-0.05289
0.25071	0.22769
0.14870	0.22769
0.07220	0.02363
0.25071	0.17668
0.02119	0.02363
0.14870	0.22769
0.22521	0.22769
-0.05531	0.07465
-0.15732	0.20219
0.17421	0.27871
0.37822	0.22769
0.25071	-0.02739
0.19971	0.12566
0.12320	0.17668
-0.00431	-0.02739
0.14870	0.17668
0.12320	0.17668
0.09770	0.04914
0.02119	0.07465
0.19971	0.17668
0.19971	0.22769
0.12320	0.17668
0.12320	0.25320
0.14870	0.17668
0.09770	0.15117
0.22521	0.15117
0.07220	0.02363
0.14870	-0.00188
0.25071	0.20219
0.30171	0.17668
0.17421	-0.00188
0.07220	0.22769
0.32721	0.43176
0.30171	-0.05289
-0.20832	0.27871
-0.46334	0.25320
-0.74385	-0.71609
0.22521	-0.02739
0.45472	0.38074
0.68424	0.45726
0.58223	0.38074
0.30171	0.17668
0.14870	0.32972
-0.02981	0.02363
-0.13181	0.04914
-0.02981	-0.30797
0.02119	0.22769
0.22521	0.30422
0.27621	0.07465
0.12320	0.22769
0.35272	0.30422
0.02119	0.22769
0.22521	0.27871
-0.10631	0.02363
0.14870	-0.05289
-0.08081	-0.20594
-0.05531	-0.00188
0.09770	-0.12942
0.40372	0.30422
-0.15732	0.30422
0.07220	0.63582
0.30171	0.04914
0.73524	-0.02739
0.45472	0.22769
-0.13181	0.04914
0.35272	0.17668
0.40372	0.22769
0.12320	0.22769
-0.48884	0.17668
0.25071	0.22769
0.48022	0.15117
0.37822	0.15117
0.30171	0.10015
0.32721	0.07465
0.27621	0.04914
-0.43783	-0.05289
-0.13181	0.15117
-0.08081	0.20219
0.19971	0.38074
0.68424	0.17668
0.30171	0.10015
-0.28482	0.04914
0.35272	0.07465
0.86275	0.07465
-0.10631	0.15117
-1.30489	0.12566
-1.10088	-0.15492
-0.00431	-0.07840
1.16877	0.35523
1.19427	0.53379
1.24527	0.25320
-0.15732	0.04914
-0.28482	0.10015
0.19971	0.04914
-0.28482	-0.30797
-0.10631	0.12566
-0.10631	0.32972
0.07220	0.15117
-0.02981	0.30422
-0.48884	-0.25695
0.19971	0.07465
0.32721	0.04914
0.30171	0.17668
0.42922	0.27871
1.16877	0.20219
0.30171	0.12566
-0.61635	-0.00188
-0.76936	0.02363
0.50573	0.35523
0.55673	0.25320
0.37822	0.63582
-0.13181	-0.20594
0.42922	-0.71609
0.63323	0.43176
0.81175	0.38074
-0.38683	0.43176
-1.63641	0.50828
0.48022	0.04914
0.78624	-0.10391
0.40372	0.17668
0.93925	0.43176
-0.97337	0.22769
1.39828	-0.12942
1.52579	-0.07840
-0.61635	0.32972
-1.43240	0.10015
1.52579	0.58480
-0.92237	-0.63957
-1.71292	-0.02739
-1.86593	0.15117
2.06133	0.43176
1.39828	0.55929
1.37278	0.73785
-0.13181	0.02363
-0.28482	-0.23145
0.09770	0.10015
0.02119	0.04914
0.22521	0.43176
0.53123	0.32972
0.42922	0.12566
-0.28482	0.25320
-0.61635	0.10015
0.07220	-0.20594
0.27621	-0.00188
0.42922	0.17668
-1.73842	-0.07840
-0.76936	1.04394
-0.13181	-0.71609
1.50029	0.10015
-0.20832	0.12566
1.34728	0.58480
2.13783	0.50828
-0.05531	-0.56305
-0.79486	0.66132
0.50573	0.17668
0.70974	-0.20594
2.29084	0.35523
0.02119	0.27871
-3.44703	-0.15492
-2.93700	-0.05289
0.19971	-0.10391
1.78081	0.43176
1.83181	-0.05289
1.47479	0.45726
-0.71835	-0.10391
0.32721	-0.00188
0.17421	0.20219
-1.84042	0.53379
-0.59084	0.04914
0.27621	-0.18043
1.80631	0.15117
0.12320	0.58480
-0.76936	0.02363
0.50573	0.02363
0.45472	-0.56305
1.50029	-0.18043
1.14327	1.09496
-1.43240	0.04914
-1.30489	0.20219
0.40372	0.07465
0.70974	0.20219
0.50573	-0.05289
0.35272	-0.41000
2.67337	-0.48652
0.30171	0.20219
-3.21751	0.83988
-4.16107	0.99292
-0.51434	0.02363
3.25990	0.43176
2.46935	-0.02739
1.50029	0.53379
0.48022	-0.86914
-1.53441	-0.18043
-1.22839	0.53379
-0.51434	0.40625
-0.28482	0.20219
2.06133	-0.23145
1.21977	-0.53754
-0.99887	0.17668
0.37822	0.53379
0.65874	1.01843
-1.43240	0.02363
-0.92237	0.35523
1.04126	-0.35899
1.65330	-0.05289
0.45472	-0.23145
-0.13181	0.30422
-0.15732	-0.74160
-0.36133	0.83988
0.48022	-0.00188
0.55673	0.55929
-0.38683	-0.00188
-1.40690	-0.12942
-1.45790	-0.15492
0.22521	0.50828
1.04126	0.48277
1.55129	-0.66508
0.55673	0.22769
0.76074	0.61031
-0.02981	0.12566
0.58223	0.50828
0.91375	0.20219
0.93925	0.27871
1.39828	0.02363
-0.94787	-1.27726
-1.99343	-0.66508
-0.41233	-0.46102
-0.38683	0.48277
0.14870	0.86539
1.09226	1.29902
0.86275	0.50828
-0.64185	-0.28246
1.24527	0.10015
-0.38683	0.22769
-1.76392	-0.33348
1.62780	-0.28246
0.99026	-0.05289
-0.46334	-0.05289
-1.38139	0.55929
-0.00431	2.16628
1.90832	-0.02739
0.50573	-0.15492
0.19971	-1.12422
1.80631	-0.35899
0.96476	-0.25695
-0.38683	0.12566
-1.76392	0.45726
-0.28482	0.66132
1.21977	0.58480
1.01576	-0.66508
-0.87136	0.40625
-1.38139	0.25320
-0.41233	-0.10391
1.14327	0.17668
0.53123	0.45726
-0.18282	1.14597
0.73524	0.53379
0.96476	-1.02219
0.32721	0.04914
-0.38683	0.71234
0.09770	-0.41000
0.86275	-0.28246
-0.94787	0.63582
-2.52897	0.35523
1.09226	0.45726
0.73524	-0.38449
-0.00431	0.22769
-0.46334	0.50828
-0.53984	-0.23145
-1.15188	0.30422
1.78081	-0.30797
2.54586	0.25320
0.99026	0.45726
-0.48884	0.32972
-1.63641	0.66132
0.96476	-0.66508
0.58223	-0.58856
0.93925	0.25320
0.27621	0.48277
-0.89686	-0.00188
-0.51434	0.40625
-1.30489	1.12046
1.50029	-0.18043
0.37822	0.17668
-2.04444	-0.00188
-2.63097	-0.48652
2.41835	-0.15492
1.85731	-0.12942
-1.10088	0.71234
-1.17738	-0.07840
2.18883	-0.23145
2.18883	-0.05289
1.47479	0.43176
1.16877	1.01843
-0.18282	0.04914
-0.51434	-0.00188
-0.64185	0.22769
-0.20832	0.76336
-0.48884	-0.56305
-0.43783	-0.15492
0.25071	-0.30797
-0.36133	0.61031
-0.28482	0.99292
0.45472	0.55929
1.32178	-0.58856
-2.19745	-0.15492
-3.47253	-0.38449
1.34728	0.38074
2.16333	-0.41000
1.95932	-0.02739
2.74987	-0.00188
1.04126	-0.00188
-1.61091	0.66132
-0.94787	0.35523
0.99026	0.30422
0.17421	0.61031
-0.97337	-0.05289
0.50573	0.15117
0.42922	0.15117
-0.08081	0.17668
2.13783	-0.20594
-1.71292	0.30422
-4.05907	0.12566
-0.79486	-0.07840
1.11776	-0.02739
1.34728	-0.51203
1.67880	0.32972
0.35272	1.68163
1.11776	-0.28246
-0.00431	-0.18043
-1.15188	-0.25695
-0.02981	0.17668
0.86275	0.32972
0.42922	0.02363
0.32721	-0.18043
-0.28482	-0.53754
-0.36133	0.32972
0.07220	0.04914
-0.31033	0.91640
0.12320	0.68683
0.42922	0.15117
-0.10631	0.32972
1.55129	-0.51203
2.85188	0.40625
-3.44703	-0.15492
-2.01894	-0.46102
1.52579	0.71234
0.88825	0.43176
-1.40690	-0.28246
-0.15732	0.66132
1.24527	1.63062
2.36734	-0.76711
1.01576	0.17668
0.09770	-0.46102
0.93925	0.15117
0.63323	0.22769
-1.45790	0.43176
-0.41233	0.07465
-1.22839	-0.23145
0.60773	0.27871
0.37822	0.32972
-0.13181	0.58480
0.40372	0.58480
0.96476	0.25320
0.35272	0.48277
2.26534	-0.71609
-0.23382	0.38074
-2.06994	0.61031
-1.89143	-0.07840
1.34728	0.35523
1.55129	-0.12942
1.01576	0.55929
0.02119	0.02363
0.14870	-0.43551
1.65330	0.38074
-0.53984	0.17668
-3.31952	-0.07840
-0.76936	-0.05289
1.67880	-0.02739
1.60230	1.93671
0.70974	0.50828
0.65874	-0.53754
-0.15732	0.10015
-1.07538	-0.07840
1.44929	0.35523
1.19427	-0.15492
-1.10088	0.43176
-2.55447	0.25320
0.30171	0.04914
0.93925	-0.25695
1.37278	0.30422
1.98482	0.55929
-0.13181	0.02363
-0.10631	-0.12942
-0.20832	-0.30797
-0.00431	0.12566
0.40372	0.35523
-0.92237	1.24800
-0.89686	-0.18043
0.81175	-0.20594
0.27621	0.96742
-0.18282	-0.28246
0.86275	-0.53754
0.65874	-0.38449
-0.69285	-0.41000
-0.94787	0.45726
0.65874	0.07465
1.52579	0.83988
-0.48884	-0.86914
0.25071	-0.00188
-0.05531	1.17148
0.32721	0.81437
0.48022	0.12566
0.17421	-0.43551
0.17421	-0.05289
0.73524	-0.53754
1.34728	2.14077
-0.51434	-0.20594
-2.27395	0.02363
-0.51434	-0.63957
0.81175	-0.10391
0.70974	-0.12942
0.53123	0.35523
0.65874	-0.02739
-0.18282	0.81437
0.99026	0.10015
-1.22839	-0.10391
-1.63641	-0.51203
0.17421	0.53379
1.19427	0.25320
0.83725	0.48277
0.68424	0.20219
1.50029	0.78886
0.37822	0.15117
-0.87136	-0.20594
-0.28482	-0.56305
0.12320	0.25320
-0.20832	0.10015
-0.00431	0.71234
0.35272	0.63582
1.42379	-0.18043
0.25071	0.22769
-1.02437	0.10015
-0.59084	0.45726
-0.89686	-0.05289
0.86275	0.61031
0.83725	-1.02219
0.48022	0.32972
0.48022	-0.35899
0.32721	0.43176
-0.25932	0.04914
0.19971	0.35523
0.42922	-0.15492
0.50573	0.22769
-0.89686	1.37554
-1.12638	-0.74160
-1.25389	-0.25695
0.91375	-0.10391
1.21977	0.68683
1.29628	-0.15492
0.40372	0.30422
-0.74385	0.04914
-2.12094	0.30422
0.50573	-0.10391
1.62780	0.30422
1.32178	0.20219
1.34728	0.35523
0.48022	0.45726
-0.08081	0.50828
-0.48884	0.20219
-0.69285	-0.28246
-0.20832	-0.25695
-0.18282	0.53379
-0.48884	0.22769
-0.33583	-0.30797
0.19971	0.38074
0.93925	0.12566
0.14870	0.45726
-0.87136	0.71234
0.27621	-0.35899
1.75531	0.38074
-0.56534	0.27871
-0.92237	-0.02739
1.16877	-0.41000
0.93925	-0.38449
0.50573	0.10015
0.42922	0.22769
0.32721	0.89089
0.02119	0.10015
-0.13181	0.04914
-0.61635	0.38074
-1.25389	0.25320
0.17421	0.78886
0.58223	-0.15492
0.65874	0.55929
0.76074	0.02363
0.37822	-0.61406
-1.30489	0.55929
-0.82036	0.81437
0.48022	-0.69059
1.11776	-1.55785
0.63323	0.83988
0.58223	0.35523
0.86275	0.83988
1.04126	-0.05289
-0.36133	-0.25695
-1.84042	0.81437
-1.20288	0.32972
0.53123	-0.07840
0.63323	-0.23145
0.40372	0.10015
0.12320	0.17668
1.72980	0.20219
1.32178	0.50828
-1.58541	-0.30797
-1.99343	0.25320
0.32721	-0.66508
0.83725	0.55929
1.60230	0.61031
0.65874	0.45726
-1.99343	-0.02739
0.09770	0.35523
0.65874	-0.33348
0.45472	0.22769
0.55673	0.17668
0.14870	0.30422
-0.18282	0.04914
0.55673	-0.20594
0.22521	-0.23145
-1.35589	0.78886
-0.41233	1.88570
0.37822	-0.71609
1.29628	-0.66508
0.42922	-0.07840
-0.10631	1.93671
0.22521	-0.58856
0.99026	-0.18043
0.07220	-0.56305
-1.25389	0.02363
-1.53441	0.40625
0.65874	0.48277
0.78624	0.50828
0.93925	0.15117
1.27078	0.27871
1.65330	-0.10391
-0.69285	-0.12942
0.19971	0.43176
-0.43783	-0.00188
-1.45790	0.27871
-0.38683	-0.20594
1.11776	0.35523
0.02119	0.25320
-0.13181	0.45726
0.53123	0.04914
0.32721	0.38074
1.24527	-0.12942
1.04126	-0.48652
-0.05531	0.02363
-0.28482	0.83988
0.55673	1.17148
-0.71835	-0.43551
-2.50347	0.50828
-0.99887	-1.02219
1.14327	-0.33348
1.14327	-0.30797
0.40372	-0.43551
1.06676	0.71234
1.09226	1.17148
-0.10631	0.48277
-0.18282	-0.41000
0.70974	0.17668
-1.17738	0.66132
-0.43783	0.10015
0.19971	-0.02739
0.22521	0.32972
0.37822	0.25320
1.09226	0.17668
-0.43783	-0.05289
-0.38683	0.40625
0.63323	-0.89465
-0.18282	0.86539
-0.46334	0.22769
0.25071	-0.61406
0.14870	-0.23145
-0.08081	0.04914
0.86275	0.15117
-0.05531	0.22769
0.17421	0.58480
0.14870	0.83988
0.02119	-0.30797
-0.18282	0.15117
-1.20288	-0.20594
0.96476	-0.15492
0.35272	0.17668
1.37278	0.43176
1.01576	0.32972
-0.89686	0.50828
-0.10631	-0.25695
-0.46334	-0.46102
0.02119	0.38074
-0.05531	0.30422
0.48022	0.55929
0.53123	-0.20594
-0.25932	-0.15492
-0.43783	-0.18043
0.37822	0.25320
-0.10631	0.94191
-0.84586	0.04914
1.78081	0.78886
1.34728	0.10015
-0.18282	0.27871
0.07220	-0.30797
0.27621	0.20219
0.07220	0.30422
-0.25932	-0.05289
0.02119	0.04914
0.02119	-0.00188
1.14327	0.10015
-0.69285	0.63582
-0.28482	0.22769
0.99026	0.17668
-0.10631	-0.28246
-0.74385	0.73785
0.35272	0.66132
0.30171	-0.41000
0.09770	-0.00188
0.12320	-0.43551
0.53123	-0.28246
0.78624	0.58480
0.73524	0.68683
-0.56534	0.45726
-0.33583	-0.51203
0.83725	0.25320
0.30171	-0.28246
0.04670	0.91640
0.30171	0.55929
-0.36133	0.02363
-1.07538	-0.53754
0.07220	0.22769
-0.59084	0.30422
0.68424	0.96742
0.73524	0.10015
0.35272	-0.25695
2.11233	-0.00188
0.50573	-0.02739
-1.50890	0.30422
-0.36133	0.07465
0.65874	0.04914
0.65874	-0.02739
0.70974	0.55929
0.63323	0.02363
-1.30489	0.43176
-0.43783	0.07465
0.02119	-0.00188
0.42922	0.22769
-0.00431	-0.05289
0.96476	0.63582
0.35272	-0.25695
-0.61635	-0.28246
-0.18282	0.58480
0.19971	0.22769
0.25071	0.32972
0.53123	0.15117
0.19971	0.48277
0.17421	-0.48652
0.02119	-0.58856
0.42922	0.30422
0.60773	0.07465
0.68424	0.55929
0.14870	0.38074
-1.10088	-0.05289
0.07220	-0.05289
0.48022	0.61031
-0.76936	-0.23145
0.76074	-0.41000
0.91375	0.58480
-0.15732	0.45726
-2.06994	0.04914
0.35272	-0.00188
1.24527	0.15117
0.22521	-0.25695
0.93925	0.12566
0.32721	0.27871
0.53123	-0.05289
0.42922	0.32972
-0.28482	0.76336
-0.94787	0.25320
-0.08081	0.04914
0.32721	0.58480
1.01576	-0.15492
-0.18282	-0.35899
-1.58541	0.76336
0.35272	-0.25695
0.60773	-0.35899
0.70974	0.58480
0.17421	0.17668
-0.15732	-0.51203
-0.99887	-0.02739
0.78624	0.78886
1.14327	0.17668
-0.82036	-0.10391
-0.33583	1.37554
0.99026	-0.15492
0.73524	0.02363
0.07220	-0.18043
-0.84586	-0.25695
0.14870	0.25320
0.32721	1.04394
1.39828	0.27871
0.12320	0.35523
-2.29945	-0.61406
-0.48884	-0.46102
-0.00431	1.32453
1.01576	0.07465
2.13783	-0.58856
1.21977	-0.58856
-0.23382	-0.46102
-1.17738	0.66132
-0.41233	0.96742
0.27621	-0.00188
0.17421	0.27871
0.02119	-0.38449
-0.53984	0.38074
0.25071	0.12566
0.22521	0.15117
0.25071	-0.71609
-0.00431	0.91640
-0.56534	0.32972
0.25071	-0.20594
0.63323	-0.15492
1.39828	0.55929
-0.10631	-0.15492
-0.31033	-0.33348
-0.20832	0.86539
-0.74385	0.58480
-0.61635	-0.35899
-0.79486	0.15117
1.24527	0.53379
1.62780	0.83988
0.70974	-0.84363
1.83181	0.35523
0.53123	0.71234
-0.82036	0.10015
-0.25932	-0.76711
-0.05531	0.12566
-0.41233	0.38074
0.04670	1.86019
0.14870	0.78886
0.60773	0.04914
-0.82036	-1.02219
-1.91693	-0.12942
-0.10631	0.17668
1.09226	0.10015
1.55129	0.17668
0.37822	-0.15492
0.12320	-0.15492
0.02119	0.30422
-0.10631	0.30422
0.37822	0.17668
0.60773	0.10015
1.04126	-0.00188
0.76074	0.32972
-1.02437	-0.00188
-0.51434	0.50828
0.07220	0.78886
-0.28482	-0.89465
-0.08081	-0.25695
0.37822	0.20219
0.81175	0.15117
1.14327	0.25320
-0.79486	0.27871
-1.91693	0.02363
-0.13181	0.91640
0.88825	0.25320
1.52579	-0.84363
0.37822	0.15117
0.17421	0.30422
0.86275	0.22769
-1.02437	0.15117
1.78081	1.27351
-0.05531	0.17668
-0.79486	0.58480
-0.53984	-0.69059
-0.53984	-0.46102
0.35272	0.15117
-0.00431	-0.00188
1.19427	0.53379
1.75531	-0.69059
-0.84586	-0.02739
-0.76936	1.06945
0.99026	0.38074
-0.46334	0.22769
-0.25932	0.10015
0.09770	0.17668
0.25071	0.30422
0.30171	0.12566
0.78624	0.35523
0.37822	0.17668
0.32721	0.27871
0.22521	0.17668
-0.02981	-0.18043
-0.10631	0.61031
-0.64185	0.35523
-1.12638	0.12566
0.30171	-0.58856
0.78624	-0.25695
0.96476	0.66132
0.55673	0.35523
-0.31033	0.73785
0.48022	0.63582
-0.51434	0.10015
-0.05531	0.10015
0.14870	-0.12942
-0.08081	-0.20594
1.14327	0.10015
0.96476	0.25320
1.04126	0.55929
0.48022	0.50828
-0.36133	0.20219
-0.46334	-0.63957
-0.08081	0.32972
0.27621	0.40625
-0.51434	0.04914
-0.08081	-0.00188
0.17421	0.25320
0.02119	0.55929
-2.63097	1.17148
0.53123	0.04914
0.83725	-0.61406
1.34728	0.15117
1.32178	-0.30797
0.78624	-0.25695
0.42922	0.17668
0.45472	0.96742
-0.10631	-0.51203
-0.15732	0.10015
-0.53984	0.53379
-0.46334	0.15117
-0.10631	0.86539
0.81175	-0.46102
-0.23382	-0.07840
-0.71835	0.22769
0.12320	0.12566
0.50573	0.32972
-0.02981	-0.00188
0.07220	0.04914
0.99026	0.27871
0.58223	1.06945
0.02119	-0.84363
-0.02981	0.25320
0.68424	-0.38449
-0.36133	0.02363
-0.71835	0.02363
-0.02981	0.15117
0.55673	0.43176
0.60773	1.17148
0.93925	0.15117
-1.20288	-0.35899
-0.02981	-0.58856
0.68424	0.63582
0.91375	-0.18043
0.63323	0.48277
0.32721	0.43176
0.14870	0.15117
0.07220	0.32972
0.53123	0.15117
-1.04987	-0.05289
-1.30489	-0.20594
-0.61635	0.48277
1.16877	0.27871
0.93925	0.20219
0.42922	0.07465
-0.02981	-0.00188
-0.66735	-0.25695
-0.18282	0.91640
0.63323	-0.15492
0.37822	0.55929
0.91375	-0.66508
1.60230	0.27871
-0.92237	0.89089
-2.04444	0.15117
0.42922	0.04914
1.04126	0.35523
0.17421	-1.04770
0.35272	-0.28246
0.78624	0.40625
-0.43783	0.71234
-0.20832	0.12566
0.25071	0.12566
0.73524	0.78886
0.07220	0.27871
-0.18282	0.32972
0.37822	-0.25695
0.25071	-0.00188
-0.08081	0.10015
-0.92237	0.15117
-0.36133	0.43176
0.83725	0.30422
0.91375	0.10015
0.14870	0.12566
-0.84586	-0.00188
-0.31033	0.35523
0.70974	0.17668
1.19427	-0.30797
-0.08081	0.25320
1.47479	0.91640
-0.33583	-0.69059
-0.76936	-0.20594
-0.89686	0.22769
1.44929	0.83988
0.14870	0.43176
0.27621	0.32972
0.68424	-0.18043
0.55673	-0.48652
-0.25932	0.48277
-0.18282	0.12566
-0.38683	-0.15492
0.83725	0.15117
0.93925	0.40625
-0.10631	0.86539
-1.40690	0.73785
-1.86593	0.02363
-0.20832	-0.63957
1.09226	-0.07840
1.34728	-0.02739
1.21977	0.20219
1.04126	0.12566
0.25071	-0.05289
-0.33583	0.02363
0.25071	0.17668
-0.20832	0.45726
0.12320	0.27871
0.53123	0.22769
-0.76936	1.17148
-0.00431	-0.07840
-0.13181	-0.07840
-0.56534	-0.05289
0.45472	0.02363
0.73524	-0.10391
0.81175	0.15117
0.14870	0.15117
0.19971	0.32972
0.37822	0.43176
0.25071	0.40625
0.55673	0.43176
-0.51434	-0.92016
-0.71835	0.32972
0.12320	0.22769
0.58223	-0.10391
-0.23382	0.63582
-0.02981	-0.20594
0.78624	0.07465
0.27621	0.30422
0.27621	0.15117
0.02119	0.30422
-0.23382	-0.05289
0.53123	0.12566
1.01576	-0.05289
-0.28482	0.20219
-1.33039	0.40625
-0.33583	-0.00188
0.45472	0.10015
1.04126	0.04914
0.73524	0.48277
0.50573	0.27871
-2.14644	0.20219
-1.33039	-0.66508
0.76074	-0.15492
0.96476	0.38074
1.34728	0.96742
0.37822	0.17668
-0.31033	-0.05289
0.70974	0.04914
0.73524	-0.00188
0.14870	0.40625
-0.87136	0.27871
-0.13181	-0.71609
-0.10631	0.86539
-0.10631	0.27871
0.35272	0.27871
0.73524	0.35523
-0.46334	0.71234
-0.51434	-0.38449
0.45472	-0.15492
0.35272	-0.30797
0.22521	0.25320
0.25071	0.50828
0.73524	-0.05289
-0.15732	-0.48652
-0.74385	0.30422
-0.64185	0.10015
1.27078	0.86539
1.29628	0.55929
-1.20288	-0.02739
-1.25389	0.10015
0.91375	0.17668
0.68424	0.02363
0.63323	0.02363
0.25071	0.17668
0.09770	-0.02739
0.22521	0.38074
0.37822	-0.28246
-0.00431	0.15117
-0.18282	0.10015
0.12320	-0.00188
0.32721	0.35523
0.32721	-0.00188
-0.18282	-0.35899
0.27621	0.27871
-0.15732	0.43176
0.45472	0.32972
0.27621	-0.20594
-0.28482	0.38074
-1.04987	-0.33348
1.09226	0.35523
0.58223	0.12566
0.50573	0.02363
0.88825	0.66132
-0.76936	1.14597
0.78624	-0.07840
2.57136	-0.10391
1.04126	0.15117
-2.14644	0.07465
-2.50347	-0.02739
0.81175	-0.05289
1.72980	0.12566
0.27621	0.32972
0.32721	0.10015
0.96476	0.55929
-0.97337	0.55929
-2.55447	0.12566
1.16877	-0.07840
0.37822	0.50828
0.83725	0.27871
0.19971	-0.12942
0.73524	-0.25695
1.11776	0.53379
0.04670	1.29902
0.07220	-0.12942
-0.28482	0.07465
-0.82036	-0.56305
0.48022	-0.94566
0.81175	0.12566
0.02119	1.17148
-0.74385	0.17668
-1.48340	-0.00188
0.65874	0.25320
1.42379	0.15117
0.12320	0.30422
-0.61635	0.35523
1.24527	-0.20594
0.14870	0.30422
0.60773	0.25320
-0.02981	-0.38449
-1.04987	-0.23145
0.45472	0.53379
0.42922	-0.35899
0.55673	0.53379
0.17421	-0.53754
0.07220	0.61031
0.12320	0.40625
-0.36133	0.15117
0.25071	0.22769
-0.66735	0.04914
-0.64185	0.58480
0.65874	0.53379
0.93925	0.10015
1.06676	-0.46102
0.30171	0.32972
-1.10088	-0.76711
-1.15188	0.32972
-0.05531	-0.41000
2.11233	0.55929
0.83725	0.12566
-1.10088	1.14597
0.58223	0.94191
0.96476	0.17668
0.09770	0.12566
-0.25932	-0.61406
-0.46334	-0.58856
0.32721	0.78886
-0.18282	-0.15492
-0.28482	-0.02739
0.60773	0.40625
1.27078	0.61031
-0.38683	-0.56305
-0.84586	0.35523
-1.04987	0.68683
1.39828	-0.63957
1.95932	0.02363
-2.35046	0.30422
-0.79486	0.66132
1.29628	0.17668
1.09226	0.10015
1.47479	0.48277
-0.23382	0.58480
0.81175	0.02363
0.25071	-0.48652
-0.87136	0.30422
0.53123	-0.28246
-0.20832	-0.05289
-0.38683	0.53379
0.25071	0.55929
-0.02981	0.27871
-0.05531	0.63582
0.30171	-0.48652
1.04126	0.10015
-0.84586	0.63582
-1.63641	-0.02739
0.60773	-0.66508
1.50029	0.30422
1.32178	0.76336
0.25071	0.91640
-0.53984	-0.25695
1.21977	0.27871
0.07220	-0.89465
-1.91693	0.81437
-0.36133	-0.05289
0.58223	-0.33348
0.27621	0.12566
0.25071	0.32972
0.58223	0.43176
0.91375	-0.20594
-0.33583	0.48277
0.27621	0.63582
1.04126	-0.35899
-0.46334	0.07465
-0.94787	-0.07840
0.02119	-0.74160
0.73524	0.38074
0.76074	0.55929
0.04670	0.94191
-1.04987	0.50828
0.81175	-0.63957
-0.02981	-0.07840
0.73524	0.25320
-0.66735	0.35523
-1.50890	0.30422
0.30171	-0.12942
1.90832	0.76336
1.29628	0.15117
0.60773	-0.35899
0.17421	0.10015
0.58223	0.04914
0.35272	0.22769
-0.08081	0.10015
-0.82036	-0.10391
-0.99887	-0.30797
-0.56534	0.73785
0.42922	0.17668
0.48022	0.76336
-0.59084	-0.30797
0.14870	-1.30277
1.11776	0.43176
0.32721	0.53379
-0.51434	0.17668
-0.46334	0.30422
0.53123	0.71234
0.78624	0.10015
0.25071	0.27871
1.14327	0.35523
-0.41233	-0.05289
-0.61635	-0.43551
0.55673	-0.15492
2.16333	0.86539
1.11776	0.02363
-1.81492	-0.20594
-0.53984	0.02363
0.25071	-0.05289
-0.92237	0.15117
-1.02437	0.17668
1.01576	0.02363
1.09226	0.63582
0.86275	0.45726
0.42922	0.50828
-0.10631	-0.02739
-0.66735	-0.05289
0.32721	0.43176
0.22521	0.55929
-0.51434	-0.94566
-0.18282	-0.48652
-0.05531	0.38074
0.70974	0.58480
0.55673	0.15117
0.93925	0.22769
-0.48884	-0.00188
-0.51434	0.58480
0.70974	-0.25695
0.14870	0.35523
0.73524	1.32453
0.42922	0.10015
-0.92237	0.12566
-0.69285	-0.33348
0.88825	-0.53754
1.01576	-0.05289
-0.66735	-0.25695
0.53123	0.04914
1.06676	-0.23145
1.21977	0.58480
-0.38683	0.38074
-0.08081	0.35523
-0.48884	-0.23145
0.70974	0.07465
-0.18282	0.15117
-1.10088	0.91640
-0.23382	0.71234
0.40372	-0.46102
-0.28482	0.40625
-0.25932	-0.30797
1.14327	-0.25695
1.34728	-0.10391
0.65874	0.10015
0.50573	0.63582
0.35272	0.94191
-0.18282	-0.10391
-0.84586	0.12566
-0.38683	-1.27726
0.04670	-0.76711
-0.02981	1.14597
0.27621	0.15117
0.30171	-0.10391
0.63323	-0.20594
0.14870	0.38074
0.96476	0.35523
0.76074	-0.15492
-0.76936	0.32972
-1.30489	-0.23145
0.45472	0.12566
0.55673	0.20219
0.53123	-1.12422
0.96476	1.17148
-0.15732	1.32453
-0.66735	-1.58336
0.07220	0.02363
0.93925	0.45726
0.91375	0.35523
0.14870	-0.79262
-0.28482	0.99292
-0.02981	0.86539
-0.61635	-0.23145
-1.84042	-0.56305
0.35272	0.07465
1.57679	0.15117
2.26534	0.40625
0.42922	0.66132
-0.05531	0.25320
0.73524	-0.28246
-0.46334	0.15117
-0.41233	0.71234
-0.59084	0.43176
0.32721	0.38074
0.32721	0.17668
0.76074	0.43176
0.53123	0.63582
-0.69285	-0.81812
-0.64185	-0.53754
0.14870	0.71234
0.45472	-0.23145
0.86275	-0.48652
0.40372	0.94191
0.96476	-0.30797
1.65330	0.96742
-1.17738	0.25320
-1.40690	0.50828
0.30171	1.37554
1.29628	-0.74160
-0.08081	-0.07840
1.52579	0.10015
1.50029	0.12566
-0.97337	-0.02739
0.42922	0.22769
-0.15732	0.27871
-0.71835	-0.41000
-1.35589	0.50828
-0.61635	-0.20594
0.02119	-0.00188
0.78624	-0.07840
0.55673	0.10015
1.83181	0.91640
-0.31033	0.68683
-0.31033	0.45726
0.96476	-0.35899
0.48022	-0.10391
-0.97337	-0.53754
-1.10088	0.38074
0.32721	0.10015
1.27078	-0.43551
0.81175	0.53379
-0.84586	1.04394
1.93382	0.73785
0.68424	0.02363
-0.00431	0.22769
-1.12638	-0.00188
-1.61091	0.27871
0.04670	0.02363
0.48022	-0.25695
1.21977	-0.02739
0.88825	-0.00188
0.70974	-0.07840
1.14327	0.45726
-0.79486	0.78886
-1.78942	-0.66508
-1.45790	-0.12942
-0.36133	0.40625
0.83725	0.17668
1.65330	0.50828
1.60230	0.32972
0.17421	0.38074
1.37278	-0.71609
-1.40690	0.20219
-1.48340	0.55929
0.22521	0.17668
0.37822	0.27871
0.73524	0.83988
0.73524	0.58480
0.19971	-0.30797
-0.46334	-0.38449
-0.23382	-0.00188
0.76074	0.45726
0.17421	-0.10391
0.22521	-0.15492
0.78624	0.48277
-0.59084	0.27871
-0.69285	-0.02739
1.88281	0.48277
-1.61091	0.25320
-0.89686	-0.63957
1.09226	0.40625
0.63323	0.32972
0.93925	0.35523
1.24527	-0.28246
0.93925	1.12046
0.07220	-0.51203
-0.08081	-0.02739
-0.38683	0.04914
-0.00431	0.38074
-1.17738	-0.56305
0.55673	0.32972
0.78624	0.55929
-0.76936	0.55929
-0.69285	0.55929
0.96476	-0.20594
0.78624	0.02363
-0.92237	-0.10391
-0.56534	0.81437
0.91375	-0.56305
0.68424	0.15117
0.14870	0.02363
0.91375	0.43176
1.04126	0.22769
1.75531	0.48277
0.83725	-0.61406
-1.40690	0.55929
-0.71835	0.76336
-0.79486	-1.14973
-2.22295	-0.12942
0.55673	0.32972
0.70974	0.15117
1.16877	0.38074
0.53123	0.48277
-0.25932	0.40625
-0.59084	-0.23145
0.65874	0.86539
-0.08081	-0.61406
-0.31033	0.58480
-0.20832	0.43176
1.37278	0.25320
-0.15732	0.55929
-0.38683	-0.18043
-0.10631	0.78886
0.60773	-0.20594
0.45472	-1.68539
1.39828	-0.07840
0.58223	0.53379
-0.69285	0.71234
-0.02981	0.40625
0.04670	0.20219
-0.28482	-0.33348
-0.74385	0.55929
-1.40690	0.07465
0.37822	-0.12942
0.35272	0.07465
1.09226	0.20219
0.55673	0.07465
1.27078	0.38074
-0.51434	0.15117
0.19971	-0.30797
-0.79486	-0.35899
0.30171	0.94191
0.70974	0.27871
0.63323	-0.61406
-0.74385	-0.56305
0.25071	0.07465
-0.10631	0.86539
-0.82036	-0.23145
-0.64185	0.86539
0.30171	0.66132
0.83725	0.61031
1.16877	0.12566
0.35272	-0.69059
0.53123	-0.41000
0.60773	0.02363
0.19971	1.47757
-0.28482	0.02363
-1.27939	-2.06800
-0.08081	0.40625
-0.02981	0.81437
-0.61635	-0.81812
0.50573	0.83988
0.70974	0.76336
1.44929	1.24800
-0.00431	-0.61406
-0.53984	-0.12942
-0.71835	0.35523
-0.71835	-0.25695
1.50029	0.55929
-0.05531	0.66132
-0.28482	0.58480
-0.13181	-0.30797
1.21977	-0.53754
0.60773	-0.56305
1.06676	0.15117
0.91375	0.48277
-0.41233	0.48277
-2.12094	0.30422
-0.25932	0.10015
0.68424	-0.10391
1.19427	0.71234
0.25071	0.71234
1.44929	0.22769
0.81175	-0.05289
-0.66735	0.07465
-0.87136	-0.07840
-0.33583	-0.48652
-0.00431	0.07465
0.81175	0.83988
-0.94787	-0.46102
-1.10088	0.50828
0.42922	0.53379
0.93925	-0.46102
-0.15732	-0.25695
0.14870	0.48277
0.93925	0.04914
0.96476	0.73785
1.11776	0.63582
0.42922	0.45726
-0.28482	-0.71609
-0.25932	-0.20594
0.07220	1.09496
-0.51434	-0.28246
-1.33039	-0.18043
-0.18282	0.22769
1.98482	-0.02739
0.53123	0.50828
-1.55991	0.68683
0.12320	0.73785
0.50573	-0.92016
1.09226	0.07465
1.11776	-0.23145
-1.27939	0.17668
1.44929	1.04394
0.02119	0.04914
0.50573	0.45726
-0.48884	-0.56305
-2.47797	-0.38449
-0.38683	0.61031
1.83181	0.83988
1.11776	0.20219
1.11776	0.25320
-0.02981	0.12566
-0.56534	-0.23145
-0.97337	-0.33348
0.73524	-0.00188
-0.38683	-0.51203
0.25071	0.22769
0.83725	0.35523
1.14327	0.89089
-0.33583	0.32972
-0.48884	0.12566
-0.02981	0.04914
-0.74385	0.55929
-0.79486	-0.00188
0.22521	-0.02739
-0.36133	-0.15492
0.19971	0.17668
0.76074	0.07465
1.32178	0.48277
0.50573	-0.12942
0.35272	0.40625
0.83725	0.78886
1.47479	0.61031
-0.28482	-0.86914
-2.12094	0.27871
-1.35589	-0.99668
-0.02981	0.12566
0.37822	0.10015
0.93925	0.86539
1.47479	0.71234
0.76074	-0.10391
0.32721	0.58480
-0.31033	0.20219
-0.51434	0.20219
0.48022	0.81437
0.58223	-1.04770
-0.69285	0.12566
-1.66191	0.12566
0.02119	0.48277
1.09226	-0.30797
0.40372	0.43176
0.02119	0.25320
0.83725	0.35523
1.01576	0.38074
0.48022	-0.71609
-0.66735	-0.28246
-0.13181	-0.71609
-0.59084	0.83988
1.24527	0.76336
1.01576	0.66132
0.07220	-0.18043
-1.40690	0.15117
0.04670	0.32972
-1.53441	0.02363
-0.38683	0.20219
0.88825	0.81437
0.68424	-1.68539
1.44929	-0.02739
-0.13181	0.55929
-0.99887	0.27871
0.88825	0.66132
0.91375	0.35523
0.02119	0.04914
-0.15732	0.89089
-0.13181	0.10015
-0.13181	0.43176
-0.10631	0.43176
0.99026	-0.20594
0.17421	-0.02739
-0.18282	-0.71609
0.14870	-0.12942
0.53123	0.43176
-0.08081	0.91640
0.27621	-0.02739
1.14327	-0.41000
-0.08081	0.04914
-0.38683	0.38074
-0.08081	0.63582
-0.84586	0.15117
0.83725	-0.38449
1.29628	0.32972
-1.50890	-0.18043
0.19971	0.76336
1.44929	0.27871
1.50029	-0.61406
-1.45790	0.38074
-2.45246	-0.28246
0.22521	0.32972
0.91375	-0.69059
0.73524	0.68683
1.14327	1.65613
1.47479	-0.43551
0.53123	-0.46102
-0.10631	0.02363
0.12320	0.71234
-0.38683	0.17668
-0.99887	0.35523
-0.08081	-0.15492
-0.94787	-0.20594
-0.31033	-0.20594
-0.05531	-0.33348
0.81175	0.91640
1.34728	0.32972
0.73524	0.50828
0.91375	0.45726
-0.08081	-0.18043
-2.24845	-0.20594
-0.74385	-0.25695
0.40372	0.40625
0.65874	0.43176
1.75531	0.25320
0.02119	-0.74160
-0.28482	0.99292
0.17421	0.68683
0.04670	-0.66508
-0.02981	0.27871
-0.82036	-0.00188
0.60773	-0.10391
0.83725	0.71234
0.17421	-0.18043
-0.43783	-0.18043
-0.08081	-0.05289
-0.46334	0.32972
-0.53984	0.53379
-0.25932	0.12566
3.23440	0.32972
-0.89686	-0.07840
-4.05907	0.68683
0.65874	0.07465
1.62780	-0.20594
0.93925	0.35523
0.88825	-0.48652
0.73524	-0.00188
0.99026	0.22769
0.14870	0.40625
-0.71835	0.32972
-0.48884	0.78886
-0.08081	0.43176
0.86275	-0.92016
-0.48884	-0.33348
-0.46334	0.66132
-0.18282	0.78886
0.02119	-0.56305
0.68424	0.25320
0.58223	-0.86914
0.27621	0.22769
0.27621	0.89089
0.14870	0.32972
-0.97337	0.30422
-0.23382	0.71234
0.58223	-0.02739
1.60230	0.02363
1.21977	-0.05289
0.27621	-0.23145
-1.22839	0.07465
-2.27395	0.17668
-0.08081	0.27871
2.08683	0.32972
0.73524	0.43176
0.96476	-0.25695
-0.76936	0.20219
-0.51434	0.27871
0.58223	-0.25695
0.12320	0.12566
0.17421	-0.71609
-0.51434	-0.74160
-1.84042	0.38074
1.04126	0.83988
1.14327	0.35523
0.55673	0.53379
0.40372	-0.23145
0.25071	0.73785
0.07220	-0.25695
-0.23382	-0.05289
-0.99887	0.04914
-0.08081	0.02363
0.27621	-0.30797
-0.28482	0.04914
0.63323	0.45726
0.60773	0.66132
1.04126	0.02363
1.14327	0.38074
-0.97337	0.07465
-0.89686	-0.10391
0.22521	0.40625
1.01576	-0.05289
0.42922	-0.53754
-0.69285	0.15117
0.04670	0.32972
0.63323	0.30422
0.73524	0.55929
0.14870	0.25320
0.12320	-0.51203
0.42922	0.02363
-0.02981	-0.15492
-0.61635	0.45726
-0.92237	0.27871
0.65874	0.27871
-0.84586	0.12566
0.12320	0.27871
0.73524	0.07465
0.86275	0.38074
1.21977	-0.05289
0.73524	0.15117
-0.76936	-0.02739
-1.27939	0.04914
0.60773	-0.00188
0.96476	-0.18043
0.58223	-0.00188
-0.10631	0.63582
0.30171	0.12566
0.42922	-0.12942
0.30171	0.17668
-1.71292	0.63582
-0.33583	0.04914
1.24527	0.58480
0.81175	0.17668
0.12320	0.30422
0.22521	-0.58856
0.60773	0.02363
-0.18282	0.20219
-1.07538	1.32453
-0.28482	-0.66508
-0.02981	-0.58856
0.48022	-0.02739
0.09770	0.89089
0.27621	0.38074
1.19427	0.35523
0.58223	0.25320
0.40372	-0.20594
1.37278	0.27871
-0.20832	-0.02739
-0.79486	0.30422
-0.66735	0.07465
-0.28482	-0.00188
0.02119	0.04914
0.19971	0.50828
0.14870	-0.10391
0.37822	-0.35899
0.37822	-0.05289
0.19971	-0.15492
0.19971	0.38074
0.09770	0.73785
0.07220	0.55929
-0.02981	0.17668
1.62780	0.04914
-0.64185	-0.05289
-2.73298	0.68683
0.02119	-0.63957
0.35272	0.02363
1.34728	0.07465
1.24527	0.20219
0.35272	0.38074
1.04126	0.10015
0.27621	-0.00188
-0.00431	-0.23145
-1.76392	-0.25695
-0.05531	0.63582
1.01576	0.55929
0.14870	0.12566
1.19427	1.37554
1.11776	-0.23145
-0.53984	-0.74160
-1.89143	-0.41000
0.25071	-0.38449
1.57679	0.45726
-0.18282	0.55929
-1.12638	0.50828
0.09770	0.86539
0.86275	0.22769
0.55673	-0.56305
0.60773	0.07465
-0.02981	0.22769
0.19971	-0.00188
0.14870	-0.15492
-0.08081	-0.05289
-0.18282	0.20219
-0.71835	0.55929
0.40372	-0.15492
0.37822	-0.56305
0.48022	0.32972
0.25071	0.38074
0.17421	1.12046
0.35272	-0.61406
-0.00431	0.48277
-0.28482	-0.71609
0.50573	0.43176
0.02119	0.55929
-0.41233	-0.12942
-0.48884	0.22769
2.01032	0.25320
0.22521	1.04394
-1.20288	-0.23145
-0.00431	-0.58856
0.32721	-0.10391
0.53123	-0.33348
0.81175	0.35523
0.17421	0.43176
0.04670	0.35523
1.34728	-0.15492
0.42922	0.32972
-0.31033	0.45726
0.25071	0.40625
-0.59084	0.63582
-0.71835	-0.58856
-0.23382	-0.20594
0.17421	-0.12942
-0.00431	-0.38449
0.30171	0.40625
0.45472	0.48277
0.45472	0.22769
0.07220	0.48277
0.22521	0.30422
0.17421	-0.15492
1.06676	-0.15492
0.14870	0.32972
-0.94787	0.32972
-0.10631	-0.99668
-0.38683	-0.25695
-0.15732	0.55929
1.70430	0.55929
-0.87136	0.30422
-1.50890	0.17668
1.29628	0.55929
1.44929	-0.43551
0.19971	-0.51203
-0.82036	0.12566
0.45472	1.19699
0.48022	0.02363
0.12320	0.30422
0.48022	0.20219
-0.28482	0.27871
-0.53984	0.76336
0.12320	-0.15492
0.48022	-0.79262
0.27621	0.10015
0.02119	0.38074
-0.18282	0.50828
-1.33039	0.17668
-0.18282	-0.25695
0.91375	0.27871
0.99026	0.12566
0.09770	-0.23145
0.12320	0.32972
0.73524	-0.15492
-0.23382	0.17668
-0.43783	1.06945
-0.41233	-0.18043
-0.08081	-0.20594
0.53123	0.35523
1.85731	-0.02739
-0.38683	-0.00188
-1.33039	0.96742
0.32721	0.22769
0.53123	-1.27726
0.83725	0.63582
-0.00431	0.27871
-0.43783	-0.56305
-0.28482	0.17668
0.53123	-0.38449
0.32721	0.58480
-0.23382	0.58480
0.07220	0.12566
-0.15732	0.02363
-0.25932	0.63582
0.73524	0.43176
-0.05531	0.02363
0.48022	0.04914
-0.99887	-0.15492
-1.91693	-0.07840
-0.87136	0.12566
1.67880	-0.02739
2.67337	0.43176
1.04126	-0.20594
-0.61635	0.73785
0.42922	0.15117
0.70974	-0.48652
0.35272	-0.00188
-0.48884	0.40625
0.58223	0.99292
0.40372	0.43176
-0.46334	-0.10391
-0.53984	-0.74160
0.12320	-0.33348
0.27621	0.68683
-0.31033	-0.00188
0.19971	0.50828
0.42922	0.35523
-0.92237	0.15117
-1.48340	-0.25695
-0.25932	0.96742
0.99026	0.22769
1.60230	-0.74160
0.65874	0.25320
0.58223	0.38074
0.50573	0.20219
0.30171	-0.41000
0.02119	0.91640
-0.05531	0.02363
-0.64185	-0.25695
-0.15732	-0.48652
0.88825	0.55929
0.68424	0.22769
0.37822	0.63582
-1.43240	0.17668
-1.78942	-0.25695
0.99026	-0.71609
0.86275	-0.00188
-1.99343	0.48277
-1.17738	0.55929
1.01576	-0.20594
1.75531	0.30422
1.19427	0.43176
0.78624	0.15117
0.42922	0.35523
0.07220	0.02363
0.14870	0.40625
-0.48884	-0.28246
-0.23382	0.10015
0.17421	-0.38449
0.65874	0.07465
-0.64185	-0.05289
-1.71292	0.35523
-0.43783	0.61031
0.78624	0.38074
0.58223	0.50828
0.86275	-0.76711
1.11776	-0.05289
0.65874	0.25320
-0.05531	-0.02739
-0.15732	-0.61406
-0.43783	0.53379
-0.82036	0.66132
0.40372	0.48277
0.48022	0.17668
-0.10631	-0.61406
0.76074	-0.05289
-0.00431	-0.18043
0.60773	0.61031
1.60230	1.60511
-0.31033	0.04914
-1.78942	-2.22105
0.12320	0.32972
-0.02981	0.38074
0.99026	0.48277
0.45472	0.30422
-0.59084	0.61031
-0.53984	0.30422
-0.38683	-0.30797
0.35272	0.30422
0.53123	-0.25695
1.55129	0.61031
0.78624	0.27871
-0.71835	-0.10391
-0.46334	-0.23145
-0.23382	-0.30797
0.30171	1.68163
1.65330	0.43176
-0.28482	-0.99668
-1.81492	-0.51203
-0.76936	0.12566
0.19971	0.25320
0.22521	0.38074
1.14327	0.15117
0.93925	0.50828
0.88825	0.12566
0.42922	-0.15492
0.70974	0.38074
0.60773	0.55929
-1.86593	-0.89465
-2.24845	0.04914
-0.28482	-0.05289
0.70974	0.15117
0.42922	0.17668
1.19427	0.55929
0.65874	0.40625
0.93925	-0.25695
0.14870	-0.43551
-0.25932	-0.12942
-0.23382	0.02363
0.14870	0.86539
-0.08081	0.27871
0.17421	0.15117
0.40372	0.22769
0.02119	-0.20594
-0.61635	-0.07840
-0.38683	0.04914
-0.05531	-0.05289
0.45472	0.58480
0.55673	-0.38449
0.76074	0.20219
0.19971	-0.15492
0.30171	0.40625
0.04670	0.53379
-0.46334	-0.28246
-0.38683	0.38074
0.22521	0.35523
0.96476	0.43176
0.37822	0.07465
-0.61635	-0.15492
-0.28482	0.43176
0.14870	0.50828
0.76074	-0.23145
-0.23382	-0.07840
0.25071	-0.10391
0.22521	-0.10391
0.27621	0.50828
-0.18282	0.53379
-0.13181	-0.05289
0.32721	0.15117
0.25071	0.38074
0.60773	0.45726
0.42922	-0.07840
0.40372	-0.41000
0.53123	1.68163
-0.74385	-0.38449
-0.74385	-1.30277
0.48022	0.12566
-0.69285	0.55929
-0.02981	0.10015
1.34728	0.15117
1.62780	-0.15492
-0.92237	0.50828
-1.10088	0.22769
0.17421	0.40625
1.11776	0.12566
0.73524	0.27871
-0.02981	-0.38449
-1.10088	-0.28246
-0.02981	0.61031
0.99026	0.20219
1.14327	-0.23145
0.50573	0.45726
0.30171	-0.63957
-0.74385	-0.00188
-1.15188	-0.18043
-0.61635	0.53379
0.58223	0.38074
0.37822	0.35523
-0.41233	0.40625
0.45472	0.10015
0.48022	0.12566
0.09770	0.48277
0.19971	-0.38449
0.83725	-0.18043
-0.28482	-0.15492
0.58223	0.30422
0.12320	0.15117
-1.20288	0.43176
-1.71292	0.02363
-0.48884	-0.33348
1.80631	0.12566
1.47479	0.25320
1.75531	0.45726
1.19427	0.12566
0.09770	0.12566
-0.13181	0.25320
-0.38683	0.02363
-0.76936	0.53379
-0.28482	0.30422
-0.15732	0.12566
0.40372	-0.25695
1.16877	0.50828
-0.18282	0.94191
-0.66735	-0.46102
0.19971	0.12566
0.70974	0.22769
0.32721	-0.18043
0.42922	0.20219
-0.10631	-0.35899
-0.00431	0.04914
0.27621	1.55410
0.60773	-0.58856
0.07220	-0.43551
-1.22839	-0.05289
-0.15732	0.32972
0.32721	0.07465
-0.20832	0.15117
0.83725	0.10015
0.78624	0.20219
0.78624	0.02363
-1.53441	0.89089
-1.76392	-0.05289
-0.69285	0.55929
1.11776	0.12566
1.37278	0.02363
1.06676	-0.46102
1.06676	0.15117
0.22521	0.35523
-0.38683	0.35523
-0.23382	-0.10391
-0.48884	0.15117
0.09770	0.15117
0.12320	0.53379
-0.28482	-0.00188
-0.76936	0.45726
-0.76936	-0.05289
-0.10631	-0.15492
0.63323	-0.20594
0.86275	-0.46102
-0.89686	0.73785
0.25071	0.40625
1.19427	0.12566
0.76074	-0.18043
0.86275	0.35523
0.60773	0.30422
0.63323	0.66132
-0.74385	-0.18043
-1.27939	-0.10391
0.48022	0.61031
0.02119	0.81437
-0.08081	0.12566
0.78624	-0.66508
0.12320	0.43176
1.37278	0.48277
0.53123	0.35523
-0.31033	-0.15492
-0.43783	0.43176
0.32721	0.27871
-0.28482	0.32972
0.58223	0.40625
-0.05531	-0.20594
-0.36133	0.43176
0.76074	0.38074
0.65874	-0.07840
0.53123	0.40625
0.58223	-0.35899
-0.05531	-0.61406
0.22521	-0.00188
0.32721	0.22769
-0.33583	0.35523
-1.12638	0.20219
-0.20832	-0.00188
0.99026	0.20219
0.86275	0.89089
-0.00431	-0.15492
-0.56534	-0.97117
0.83725	1.65613
-1.02437	-1.27726
0.55673	-0.30797
1.04126	0.45726
0.19971	0.45726
-0.36133	0.43176
0.53123	0.25320
0.68424	0.27871
0.22521	0.12566
0.27621	0.30422
-0.20832	-0.38449
0.22521	0.38074
-0.20832	1.04394
0.09770	-0.35899
0.37822	-0.41000
0.09770	0.86539
0.02119	0.15117
0.30171	-0.28246
0.42922	0.07465
-0.05531	0.30422
0.37822	0.25320
0.27621	0.22769
0.48022	0.63582
0.27621	-0.02739
0.32721	-0.86914
0.76074	0.50828
-0.87136	1.24800
-1.89143	0.02363
0.30171	-0.35899
1.52579	-0.41000
0.27621	0.02363
-0.10631	0.15117
0.12320	-0.00188
0.99026	0.73785
0.30171	-0.07840
0.50573	0.30422
0.58223	0.68683
0.42922	0.04914
-1.10088	0.66132
-0.56534	-0.74160
-0.20832	0.20219
0.55673	0.10015
0.88825	-0.23145
-0.89686	-0.05289
-0.46334	0.76336
1.19427	0.68683
-0.59084	0.12566
0.63323	0.55929
1.14327	-0.20594
1.21977	-0.02739
-0.13181	0.17668
1.24527	0.83988
-0.74385	-0.30797
-1.12638	-0.86914
0.48022	0.22769
1.19427	0.76336
0.91375	0.10015
0.14870	-0.02739
0.22521	0.50828
0.02119	0.30422
0.53123	-0.07840
-0.13181	0.38074
-0.48884	-0.30797
0.40372	0.25320
-0.71835	0.35523
-1.53441	0.20219
-0.20832	0.20219
1.50029	0.07465
1.55129	-0.15492
0.88825	-0.28246
0.63323	1.14597
0.96476	0.38074
-0.33583	0.53379
0.27621	-0.56305
0.19971	0.48277
0.48022	0.35523
-0.53984	-0.35899
-0.74385	1.32453
1.04126	-0.92016
-0.59084	-0.46102
-0.20832	0.25320
-0.41233	-0.15492
0.42922	0.30422
0.55673	0.55929
1.11776	0.22769
0.76074	0.61031
0.19971	0.25320
-0.56534	0.32972
-0.28482	-0.00188
0.63323	-0.63957
0.17421	0.45726
-0.05531	0.02363
-0.79486	0.10015
-0.25932	-0.20594
0.65874	0.07465
0.86275	0.07465
0.53123	0.66132
0.37822	0.07465
1.06676	-0.20594
-0.13181	-0.28246
-1.96793	0.02363
0.68424	-0.43551
-0.23382	0.45726
-0.92237	0.35523
0.48022	0.71234
0.99026	0.27871
0.83725	0.10015
0.68424	0.12566
-0.69285	-0.07840
-1.10088	0.04914
0.42922	0.15117
0.35272	0.25320
0.55673	-0.74160
0.48022	-0.66508
0.63323	1.01843
0.30171	1.22250
-0.23382	-0.61406
-0.15732	0.04914
0.07220	0.20219
-0.41233	0.43176
0.78624	-0.43551
0.07220	-0.12942
-1.17738	0.73785
-1.38139	-0.81812
1.01576	0.27871
0.96476	1.60511
0.93925	-0.46102
0.70974	-0.05289
0.60773	0.32972
0.32721	0.48277
0.53123	-0.23145
0.22521	-0.28246
-0.31033	0.35523
-0.84586	0.55929
-0.20832	-0.02739
0.12320	-0.18043
0.27621	0.10015
0.27621	0.07465
0.32721	0.10015
-0.10631	0.07465
0.32721	0.20219
0.42922	0.04914
0.07220	0.02363
0.19971	0.07465
0.14870	0.20219
0.70974	0.02363
1.04126	0.10015
-1.02437	0.35523
-1.25389	0.25320
-1.25389	0.20219
0.19971	0.94191
0.55673	-1.37929
1.32178	-1.94047
1.24527	0.53379
0.96476	-0.05289
0.53123	0.55929
0.07220	0.94191
0.12320	0.53379
-0.00431	0.83988
-0.36133	-0.12942
-0.10631	0.50828
-0.20832	0.27871
-0.23382	-0.15492
0.04670	0.07465
-0.43783	-0.02739
-0.20832	-0.05289
0.76074	-0.18043
0.50573	0.10015
0.55673	-0.23145
0.73524	-0.20594
-0.31033	0.35523
-1.04987	0.43176
-0.18282	-0.35899
0.40372	-0.43551
0.27621	0.15117
0.25071	0.45726
1.14327	0.25320
1.57679	0.53379
0.22521	0.63582
-0.33583	0.25320
0.04670	-0.33348
-0.18282	0.12566
-0.28482	0.43176
-0.00431	-0.84363
0.35272	0.61031
0.02119	0.63582
0.53123	0.27871
-0.25932	-0.33348
-0.25932	0.07465
0.58223	0.73785
0.07220	-0.23145
-0.69285	0.17668
-0.82036	-0.18043
1.37278	1.01843
1.39828	0.50828
-1.04987	-0.05289
-0.61635	0.35523
0.91375	-0.05289
1.65330	0.10015
0.17421	0.15117
-0.28482	0.10015
0.58223	-0.07840
0.12320	0.25320
-0.08081	0.15117
-0.02981	0.12566
0.14870	0.15117
0.17421	0.10015
0.12320	0.43176
-0.38683	0.30422
0.86275	-0.25695
-0.48884	0.27871
-1.33039	0.12566
-0.41233	0.43176
1.34728	-0.35899
1.75531	0.83988
1.21977	0.04914
-1.10088	-0.28246
-1.50890	0.12566
1.14327	0.27871
0.91375	-0.23145
0.17421	0.38074
-0.02981	0.45726
0.40372	0.12566
0.17421	-0.05289
0.45472	-0.58856
0.48022	0.94191
0.17421	-0.00188
-0.84586	0.15117
-0.56534	0.91640
-0.48884	-0.05289
0.42922	0.25320
0.58223	0.17668
0.30171	0.22769
-0.64185	0.25320
-0.43783	0.40625
1.27078	-0.05289
1.57679	-0.33348
1.27078	-0.25695
-1.12638	0.45726
-0.89686	0.27871
-0.76936	0.15117
0.42922	-0.10391
0.76074	0.61031
0.14870	0.50828
0.27621	-0.35899
0.58223	-0.05289
0.02119	-0.02739
1.27078	0.12566
-0.08081	0.20219
-2.12094	0.17668
-0.99887	0.40625
0.81175	-0.07840
1.16877	0.17668
0.88825	0.55929
0.22521	-0.43551
0.19971	0.10015
0.60773	0.30422
-0.38683	0.07465
-0.33583	0.38074
-1.07538	0.27871
0.14870	0.55929
0.22521	0.48277
0.32721	-0.10391
1.34728	-0.20594
1.19427	-0.15492
-0.56534	-0.20594
-1.04987	0.20219
0.53123	0.53379
0.27621	0.43176
0.53123	0.38074
0.12320	-0.25695
-0.69285	0.12566
0.27621	0.53379
0.60773	-0.28246
0.73524	-1.17523
0.48022	0.20219
-2.52897	0.22769
-1.04987	0.10015
0.37822	0.20219
1.14327	0.40625
0.83725	0.25320
0.50573	0.02363
0.55673	-0.12942
-0.00431	0.25320
0.17421	0.12566
0.37822	-0.25695
0.70974	0.15117
-1.43240	0.10015
-0.76936	0.68683
-0.15732	0.15117
0.42922	0.20219
0.63323	-0.07840
0.12320	0.10015
0.70974	0.02363
-0.00431	0.12566
-0.00431	0.55929
0.65874	-0.20594
-0.05531	0.32972
-1.07538	-0.33348
0.04670	-0.12942
0.60773	0.02363
1.21977	0.45726
1.34728	0.20219
-0.36133	-0.18043
0.19971	0.35523
0.02119	1.01843
0.37822	0.25320
0.19971	-0.15492
-0.13181	-0.35899
-0.46334	0.04914
-0.89686	0.15117
-0.10631	0.17668
0.53123	0.40625
0.70974	0.45726
0.55673	-0.30797
0.86275	-0.12942
0.02119	0.10015
-0.00431	0.66132
-0.59084	0.10015
-0.05531	-0.00188
0.35272	0.71234
0.50573	-0.12942
0.55673	0.81437
0.27621	-0.20594
0.30171	0.17668
0.27621	0.35523
0.58223	0.40625
0.02119	0.66132
-0.59084	-0.48652
-0.61635	0.15117
1.09226	-0.20594
0.63323	0.22769
-0.18282	0.15117
0.96476	0.12566
0.09770	0.58480
-0.64185	0.48277
0.07220	-0.63957
1.11776	-0.07840
0.07220	0.04914
-1.02437	0.50828
-0.25932	0.27871
0.09770	-0.10391
0.48022	0.15117
0.73524	0.07465
1.09226	-0.02739
0.35272	-0.15492
-0.20832	0.32972
0.22521	0.02363
0.04670	0.27871
-0.23382	0.63582
-0.69285	-0.02739
0.12320	-1.20074
-0.08081	0.10015
0.63323	0.02363
0.73524	0.71234
-0.00431	0.78886
0.07220	-0.05289
0.70974	0.02363
-0.28482	-0.20594
0.09770	0.76336
0.30171	0.35523
1.24527	-0.18043
-0.33583	-0.10391
-0.61635	0.78886
0.19971	0.30422
1.01576	-0.30797
0.12320	0.12566
-0.10631	0.40625
-0.15732	-0.10391
0.60773	-0.18043
0.35272	0.12566
-1.12638	0.04914
-0.69285	0.43176
0.65874	0.71234
1.83181	-0.28246
-0.79486	-0.12942
-1.91693	0.22769
-0.00431	-0.12942
1.09226	0.22769
1.06676	0.35523
0.96476	0.35523
1.67880	-0.28246
-1.53441	0.25320
-0.71835	0.35523
0.68424	0.22769
1.21977	-0.00188
-0.10631	1.22250
-0.99887	0.35523
-0.38683	0.58480
0.45472	-0.41000
0.50573	0.02363
0.55673	-0.00188
0.83725	0.17668
0.45472	-0.86914
-0.18282	0.12566
-0.10631	0.89089
0.19971	0.40625
-0.18282	-0.23145
-0.41233	0.38074
-0.25932	0.10015
0.12320	-0.51203
-0.28482	0.35523
-0.38683	-0.25695
1.39828	0.22769
0.73524	1.29902
-0.28482	0.07465
0.83725	0.73785
0.76074	-0.02739
0.60773	-0.20594
-0.00431	-0.38449
-0.18282	0.30422
-0.36133	-0.38449
0.58223	0.17668
0.45472	-0.05289
-0.38683	-0.12942
0.12320	-0.15492
-0.69285	-0.10391
0.14870	0.35523
0.42922	-0.10391
0.78624	0.35523
-0.74385	-0.23145
-1.86593	-0.10391
-0.82036	-0.07840
0.83725	0.76336
1.19427	-0.02739
0.17421	-0.12942
0.70974	0.71234
0.93925	0.53379
0.60773	0.04914
-0.28482	-0.66508
-0.18282	0.25320
-0.10631	0.38074
-0.13181	-0.18043
0.35272	-0.48652
0.60773	0.40625
-0.10631	1.29902
-0.99887	0.12566
0.12320	-0.00188
0.83725	0.12566
0.58223	-0.05289
0.09770	0.12566
0.30171	0.40625
0.04670	-0.30797
0.30171	0.61031
-0.08081	-0.25695
0.07220	0.32972
0.88825	0.35523
-0.00431	0.02363
-0.94787	0.27871
-1.38139	-0.02739
0.22521	-0.00188
0.91375	0.73785
-0.25932	-0.00188
0.09770	-0.53754
0.60773	0.20219
1.19427	0.20219
1.52579	-0.00188
0.27621	0.45726
-1.17738	0.20219
-1.20288	0.20219
0.04670	0.27871
0.96476	-0.10391
0.91375	0.17668
0.02119	0.55929
-0.28482	0.20219
-0.53984	-0.46102
0.30171	0.12566
0.02119	0.12566
0.30171	0.02363
-0.46334	1.14597
1.65330	-0.58856
-0.61635	0.35523
-1.10088	0.38074
-0.84586	-0.10391
1.55129	-0.02739
1.39828	-0.00188
0.81175	0.71234
0.55673	-0.28246
0.19971	-0.00188
-0.00431	0.76336
-0.82036	0.22769
-0.69285	0.25320
0.02119	0.30422
0.07220	0.04914
0.14870	-0.43551
0.12320	0.25320
0.32721	0.63582
0.25071	0.10015
0.40372	-0.46102
-0.00431	-0.30797
-0.41233	-0.15492
0.17421	0.66132
0.19971	-0.33348
0.48022	0.61031
0.63323	0.27871
-0.51434	-0.23145
0.22521	-0.58856
0.58223	1.14597
0.48022	0.43176
-0.31033	0.10015
-0.51434	-0.00188
-1.25389	0.61031
1.19427	0.15117
1.57679	-0.81812
0.63323	1.01843
-0.10631	0.15117
0.58223	-0.41000
-0.31033	0.12566
-0.48884	0.25320
-0.10631	0.25320
-0.08081	-0.10391
-0.20832	0.22769
0.83725	0.38074
0.81175	0.17668
-0.41233	0.78886
-1.50890	-0.41000
0.12320	-0.35899
0.55673	-0.30797
0.88825	0.25320
0.73524	0.63582
1.11776	-0.41000
-0.00431	0.45726
-0.97337	0.48277
-1.15188	0.38074
0.53123	-0.53754
0.53123	0.25320
0.70974	-0.23145
0.76074	0.32972
0.19971	0.43176
-0.28482	0.35523
0.14870	-0.41000
-0.33583	0.25320
-0.56534	0.22769
0.22521	-0.05289
0.27621	0.32972
1.16877	0.55929
0.63323	-0.12942
-1.81492	-0.12942
-1.68742	0.50828
0.45472	-0.18043
1.01576	-0.38449
0.83725	0.15117
0.73524	0.10015
0.53123	0.66132
0.45472	0.55929
0.60773	-0.02739
1.04126	0.48277
0.27621	0.10015
-2.04444	0.48277
-1.30489	0.35523
0.17421	0.20219
0.76074	0.12566
0.81175	-0.81812
0.78624	-0.02739
0.22521	0.35523
-0.31033	0.61031
0.55673	0.68683
-0.25932	0.07465
0.30171	-0.07840
0.35272	0.30422
-0.28482	-0.30797
-0.20832	0.55929
-0.10631	0.20219
0.76074	0.43176
0.99026	-0.12942
-0.36133	0.25320
0.07220	0.02363
0.63323	-0.61406
0.30171	-0.20594
-0.59084	0.76336
-0.20832	0.30422
0.12320	-0.02739
0.12320	-0.10391
-0.08081	0.15117
0.63323	0.53379
0.96476	0.68683
0.42922	-0.10391
0.37822	-0.10391
-0.18282	-0.12942
-0.46334	0.35523
0.58223	0.17668
-0.02981	-0.12942
-1.71292	0.17668
0.14870	0.17668
0.55673	-0.38449
0.45472	0.48277
0.50573	-0.00188
0.19971	0.15117
0.25071	0.35523
0.53123	-0.02739
0.45472	-0.02739
-0.53984	0.50828
-0.15732	-0.20594
0.37822	0.02363
0.45472	0.53379
0.99026	0.10015
-0.38683	0.15117
-0.76936	0.30422
-0.08081	0.83988
0.96476	-0.46102
0.58223	-0.43551
-0.38683	0.07465
0.83725	-0.07840
-0.05531	0.40625
-1.40690	0.45726
-0.66735	0.10015
1.01576	0.35523
0.65874	0.35523
0.99026	0.20219
1.24527	0.15117
0.35272	-0.15492
-0.28482	-0.20594
-0.23382	0.20219
-0.48884	0.10015
-0.28482	0.30422
0.04670	0.12566
0.09770	0.10015
-0.13181	0.12566
0.09770	-0.07840
1.21977	0.12566
-0.87136	0.43176
-1.61091	1.93671
-1.15188	-1.04770
0.73524	-1.81293
1.21977	-0.02739
1.06676	0.25320
1.39828	0.40625
0.93925	0.58480
0.53123	0.48277
0.12320	0.63582
-0.18282	0.61031
-0.10631	0.78886
-0.87136	-0.43551
0.17421	0.15117
-0.05531	-0.05289
-0.13181	-0.05289
-0.82036	-0.05289
-0.20832	0.02363
0.09770	-0.05289
0.02119	0.04914
0.81175	0.04914
1.09226	0.30422
0.76074	0.55929
0.30171	0.17668
1.62780	-0.38449
-2.01894	0.53379
-2.22295	0.83988
0.25071	-1.43031
1.01576	1.04394
1.19427	-0.33348
0.81175	-0.71609
0.22521	0.12566
0.58223	0.78886
0.70974	0.32972
0.37822	0.63582
-0.33583	0.55929
-0.74385	0.27871
0.27621	0.25320
0.07220	0.12566
0.12320	0.30422
-0.38683	-0.35899
0.63323	0.04914
0.40372	-0.18043
-0.64185	0.45726
-0.99887	-0.10391
0.42922	-0.10391
1.09226	0.07465
-0.08081	0.20219
-0.18282	0.12566
1.60230	-0.12942
0.12320	0.32972
-0.74385	0.40625
-0.64185	0.12566
-0.36133	0.07465
0.78624	0.71234
0.86275	0.07465
0.70974	0.66132
0.83725	-0.69059
0.45472	0.15117
-0.36133	-0.15492
-0.28482	-0.48652
-0.23382	0.40625
-0.25932	0.61031
0.04670	0.40625
-0.08081	0.22769
0.19971	0.15117
-0.02981	0.17668
-0.08081	0.22769
0.30171	-0.05289
0.30171	-0.25695
0.35272	0.43176
-0.00431	-0.41000
0.32721	-0.18043
-0.53984	-0.15492
0.37822	-0.02739
0.17421	0.30422
1.32178	1.22250
0.37822	0.53379
-0.51434	0.89089
0.60773	-0.56305
-0.36133	-0.10391
-0.31033	-0.81812
0.02119	-0.25695
0.86275	0.32972
1.19427	0.50828
0.32721	0.55929
0.07220	0.45726
1.21977	0.35523
-0.61635	0.22769
-0.46334	0.17668
-0.56534	-0.30797
0.30171	-0.43551
-0.08081	0.63582
-1.73842	0.30422
-1.20288	0.04914
1.42379	-0.18043
1.44929	0.38074
0.96476	0.35523
1.19427	-0.33348
0.60773	0.32972
0.09770	-0.00188
0.60773	0.45726
-0.33583	0.40625
