-0.23382	0.25320
0.09770	0.15117
0.25071	0.15117
0.22521	-0.02739
0.30171	0.15117
0.19971	0.25320
0.12320	0.38074
0.02119	0.27871
-0.00431	0.25320
0.07220	0.38074
0.22521	-0.00188
0.19971	0.02363
0.30171	0.04914
0.09770	-0.07840
0.12320	0.12566
0.35272	0.04914
0.27621	0.10015
0.02119	0.02363
0.09770	0.27871
-0.23382	0.32972
-0.18282	0.40625
0.12320	0.20219
0.45472	0.15117
0.19971	0.17668
0.19971	0.17668
0.12320	0.22769
0.12320	0.15117
0.27621	0.12566
0.32721	-0.02739
0.14870	0.07465
0.07220	0.12566
-0.08081	0.17668
0.02119	0.25320
0.07220	0.25320
0.07220	0.17668
0.17421	0.20219
0.14870	0.22769
0.22521	0.35523
0.32721	0.15117
0.07220	-0.20594
0.30171	0.43176
0.40372	0.32972
0.50573	0.30422
0.12320	0.12566
0.19971	0.04914
0.25071	0.12566
0.32721	0.04914
0.04670	0.22769
0.14870	0.35523
0.14870	0.22769
0.48022	0.10015
-0.31033	0.02363
-0.15732	0.04914
-0.05531	0.04914
0.42922	0.25320
0.35272	0.43176
0.35272	0.15117
0.17421	0.15117
0.07220	0.17668
0.12320	0.02363
0.22521	0.07465
0.12320	0.02363
0.30171	-0.00188
-0.05531	0.25320
-0.10631	0.15117
0.04670	0.12566
0.17421	0.17668
0.42922	-0.10391
-0.05531	0.17668
-0.02981	0.22769
0.04670	0.35523
0.09770	0.17668
0.22521	-0.05289
0.07220	0.30422
-0.28482	0.15117
-0.02981	0.04914
0.09770	-0.00188
0.55673	0.17668
0.42922	-0.30797
-0.05531	0.32972
-0.00431	0.20219
0.14870	0.22769
-0.13181	0.43176
0.04670	0.27871
-0.18282	0.35523
-0.28482	0.12566
0.25071	0.07465
1.01576	0.12566
0.37822	0.27871
0.30171	0.20219
0.19971	0.04914
-0.51434	0.07465
-0.38683	0.04914
0.02119	0.12566
0.65874	0.15117
0.99026	0.10015
0.60773	0.30422
-0.31033	0.17668
-0.53984	0.15117
-0.23382	0.30422
-0.02981	0.25320
0.22521	0.15117
0.27621	-0.10391
0.45472	0.10015
0.42922	0.30422
0.37822	0.50828
0.12320	-0.00188
0.09770	-0.05289
0.07220	0.04914
0.04670	0.43176
0.02119	0.27871
0.02119	-0.12942
0.19971	0.12566
0.17421	0.15117
0.30171	0.15117
0.19971	0.17668
0.12320	0.17668
0.07220	0.25320
-0.00431	0.25320
0.09770	0.35523
0.27621	0.17668
0.07220	-0.20594
0.12320	-0.02739
0.19971	-0.00188
0.42922	0.17668
0.30171	-0.00188
0.07220	0.07465
0.02119	0.25320
-0.18282	0.38074
-0.08081	0.45726
-0.25932	0.45726
-0.41233	-0.00188
1.14327	0.10015
0.32721	0.07465
0.12320	-0.05289
-0.69285	0.12566
0.48022	0.15117
0.70974	0.35523
0.35272	0.15117
0.22521	0.07465
0.22521	0.12566
0.32721	-0.00188
0.09770	0.02363
0.02119	0.17668
0.12320	0.22769
0.02119	-0.00188
-0.08081	0.22769
-0.10631	-0.15492
0.02119	0.27871
0.02119	0.22769
0.12320	0.15117
0.17421	0.22769
0.30171	0.04914
0.22521	-0.15492
0.25071	-0.10391
0.27621	0.15117
0.25071	0.20219
0.07220	0.15117
0.42922	0.25320
-0.00431	0.07465
-0.00431	0.17668
-0.08081	-0.00188
0.25071	-0.00188
0.22521	-0.02739
0.09770	0.15117
-0.00431	0.04914
-0.18282	0.27871
-0.00431	-0.05289
0.32721	0.15117
0.14870	0.15117
0.25071	0.25320
-0.46334	0.15117
0.14870	-0.00188
0.12320	0.27871
0.60773	0.17668
0.17421	-0.05289
-0.02981	0.10015
-0.08081	-0.00188
0.07220	0.15117
-0.02981	0.20219
-0.10631	0.17668
-0.02981	0.12566
-0.05531	0.22769
0.17421	0.07465
0.14870	0.20219
0.17421	0.20219
-0.05531	0.55929
0.12320	0.20219
0.30171	-0.23145
0.14870	0.15117
0.12320	0.30422
0.27621	0.12566
0.53123	0.04914
0.07220	0.45726
0.17421	0.15117
0.30171	0.04914
-0.23382	0.38074
-0.79486	-0.25695
0.02119	0.25320
0.53123	0.30422
-0.00431	0.40625
-0.02981	0.10015
0.50573	0.27871
0.55673	0.10015
0.86275	0.12566
0.68424	0.04914
-0.13181	0.12566
-0.13181	0.17668
-0.23382	0.20219
0.09770	0.17668
0.53123	0.27871
0.53123	0.10015
0.19971	0.25320
0.04670	0.04914
0.50573	0.10015
-0.38683	0.22769
0.17421	-0.00188
0.32721	-0.41000
0.55673	0.40625
-0.00431	0.27871
-0.18282	0.25320
-0.28482	0.17668
0.78624	-0.02739
0.27621	0.17668
-0.28482	0.30422
0.04670	0.55929
0.19971	-0.02739
0.37822	-0.18043
0.32721	-0.05289
-0.08081	0.30422
-0.23382	0.40625
0.32721	0.38074
0.27621	0.22769
0.32721	0.22769
1.09226	0.15117
-0.25932	0.04914
-1.10088	0.10015
0.14870	0.10015
0.70974	0.66132
0.40372	0.30422
-0.18282	-0.05289
-0.31033	-0.07840
0.60773	0.07465
1.32178	0.20219
1.14327	0.30422
-0.33583	0.25320
-0.53984	-0.05289
-0.00431	0.20219
-0.25932	0.15117
-0.20832	0.10015
-0.08081	0.22769
0.40372	0.55929
-0.33583	0.35523
0.42922	0.32972
0.45472	-0.12942
-0.02981	-0.30797
-0.41233	-0.05289
0.63323	0.27871
1.83181	0.12566
-0.36133	0.43176
-0.20832	0.48277
0.02119	0.12566
-0.38683	-0.05289
0.48022	0.25320
0.32721	0.10015
0.32721	0.22769
1.55129	-0.18043
0.17421	-0.00188
-1.04987	0.02363
0.55673	0.48277
-1.66191	0.25320
-0.89686	0.20219
0.12320	-0.28246
0.78624	0.12566
1.80631	0.38074
1.06676	0.38074
-1.27939	0.53379
-1.35589	-0.20594
1.72980	-0.30797
0.78624	-0.05289
0.53123	0.15117
-0.25932	0.50828
-0.00431	0.25320
-0.28482	-0.07840
-0.08081	0.30422
0.76074	0.32972
0.12320	0.25320
0.12320	0.15117
-0.13181	0.02363
0.27621	-0.18043
0.12320	0.10015
0.53123	0.96742
0.58223	-0.38449
-1.10088	0.25320
0.02119	0.50828
1.06676	-1.27726
-0.31033	0.32972
-1.96793	0.45726
0.35272	0.55929
1.27078	0.27871
2.03582	0.45726
0.73524	-0.12942
-0.53984	0.94191
-0.74385	0.58480
-1.04987	-0.38449
0.73524	-0.15492
1.83181	-0.18043
0.37822	0.07465
-0.89686	0.35523
0.65874	-0.35899
0.37822	0.25320
-1.50890	0.38074
-0.64185	0.53379
-0.99887	0.61031
-0.28482	0.50828
0.40372	0.43176
1.24527	-0.33348
1.78081	-0.74160
1.78081	0.15117
1.93382	0.10015
-0.79486	-0.00188
-2.04444	0.40625
-1.20288	0.35523
0.22521	0.04914
0.73524	0.10015
1.21977	0.48277
1.04126	-0.00188
0.12320	-0.02739
-0.69285	0.66132
-0.76936	0.04914
-0.28482	-0.20594
0.02119	0.35523
0.32721	0.12566
1.09226	0.04914
0.30171	0.10015
-0.13181	0.10015
-0.31033	0.48277
-1.04987	-0.12942
-0.13181	0.25320
1.14327	0.27871
0.50573	-0.05289
0.55673	0.22769
0.22521	0.58480
0.48022	0.55929
0.53123	0.15117
-0.02981	-0.30797
0.42922	-0.07840
0.63323	0.40625
0.12320	0.30422
-1.30489	0.38074
0.14870	-0.99668
0.83725	0.35523
-1.45790	0.15117
-0.59084	-0.07840
1.09226	0.66132
0.83725	0.20219
0.45472	-0.46102
1.52579	-0.05289
-0.31033	0.35523
-0.89686	0.83988
-0.05531	0.04914
0.12320	-0.12942
-0.15732	0.43176
0.50573	-0.23145
-0.00431	-0.07840
-1.07538	0.04914
-0.18282	0.38074
0.83725	0.25320
1.57679	0.17668
0.35272	0.17668
1.55129	-0.00188
-0.23382	0.48277
-2.32496	0.27871
-1.99343	0.20219
-0.87136	-0.43551
2.21434	0.27871
1.65330	-0.35899
0.42922	0.50828
-0.41233	0.22769
0.37822	0.91640
0.40372	0.25320
0.25071	1.06945
0.91375	-1.43031
-0.28482	-0.00188
-1.71292	-0.10391
1.34728	0.07465
-0.00431	-0.12942
-0.20832	0.76336
-1.71292	0.83988
-1.10088	-0.10391
0.83725	0.30422
1.37278	0.83988
1.34728	0.50828
1.67880	0.20219
0.17421	-0.41000
0.60773	-0.58856
-0.10631	0.07465
-0.99887	0.17668
-0.69285	-0.15492
-0.66735	-0.28246
-0.43783	0.27871
1.06676	0.94191
0.37822	0.76336
0.83725	-0.25695
-0.82036	0.12566
-0.69285	-1.12422
0.88825	-0.66508
1.14327	1.17148
0.58223	-0.58856
-0.51434	0.15117
0.02119	-0.05289
-0.08081	-0.15492
-0.00431	-0.35899
0.37822	1.14597
1.62780	0.35523
-0.94787	-0.25695
-0.51434	-0.48652
0.68424	0.68683
-1.45790	-0.46102
-0.74385	0.35523
0.88825	0.40625
1.24527	-0.07840
0.48022	0.53379
0.70974	-0.23145
0.99026	-0.18043
0.65874	0.38074
-0.28482	-0.23145
0.68424	0.22769
-0.38683	0.71234
-1.94243	-0.12942
0.07220	-1.32828
2.64786	-0.07840
0.02119	0.45726
-4.28858	0.55929
-2.45246	1.12046
3.00489	0.30422
2.36734	-0.10391
0.30171	0.45726
0.63323	-0.51203
1.98482	1.14597
1.85731	0.17668
-0.64185	-0.20594
-3.77855	0.43176
-0.66735	-0.05289
1.16877	0.15117
2.11233	-0.69059
-0.28482	-0.02739
-0.97337	-0.10391
1.90832	0.58480
0.63323	0.15117
-1.10088	0.45726
-0.53984	0.32972
-1.35589	0.71234
0.14870	-0.25695
1.44929	-0.63957
1.83181	0.30422
0.19971	-0.00188
-0.87136	0.38074
0.09770	-0.38449
0.70974	-0.00188
3.05589	0.07465
-3.19201	0.73785
-5.64017	-0.28246
-0.10631	0.99292
0.73524	0.50828
2.29084	-0.99668
1.57679	-0.38449
3.23440	0.40625
0.96476	0.81437
-1.81492	0.81437
-1.86593	0.25320
0.88825	0.50828
1.27078	0.15117
0.83725	0.45726
0.22521	-0.15492
-0.59084	-1.17523
-0.76936	0.68683
0.12320	-0.05289
-0.53984	0.07465
-0.15732	0.30422
-0.36133	-0.10391
2.36734	1.40105
3.94845	1.24800
-1.27939	-1.88945
-5.48716	-0.92016
-0.28482	0.40625
0.63323	-0.48652
1.06676	0.04914
-0.13181	0.96742
1.21977	0.25320
1.47479	-0.20594
1.06676	0.73785
-0.18282	-0.56305
-1.53441	-0.10391
0.04670	0.71234
1.09226	-0.18043
1.29628	0.00000
-0.66735	0.00000
0.25071	0.00000
-1.96793	0.00000
1.01576	0.25320
-0.74385	0.68683
-1.76392	-1.09871
-0.76936	-0.20594
2.59686	1.40105
2.77537	0.27871
-1.78942	-0.12942
-0.28482	-1.17523
0.96476	0.68683
-0.08081	-0.71609
0.83725	0.10015
1.29628	0.63582
-0.74385	0.91640
-1.53441	0.73785
-0.87136	-0.58856
-0.41233	-0.00188
1.24527	0.07465
2.34184	0.10015
0.12320	0.61031
-1.17738	-0.43551
-0.51434	-0.00188
0.19971	0.15117
-1.84042	-0.07840
0.40372	0.35523
1.83181	0.20219
1.44929	0.94191
-0.02981	-0.20594
0.19971	-0.63957
-0.31033	0.22769
0.22521	-0.46102
-0.08081	0.61031
-1.02437	0.86539
-0.51434	0.12566
-0.10631	0.12566
1.04126	-0.43551
0.35272	-0.15492
-0.25932	0.50828
0.68424	0.10015
-0.36133	0.40625
0.04670	-0.35899
0.63323	0.17668
0.19971	0.12566
0.73524	0.63582
2.31634	0.35523
-0.41233	0.40625
-2.06994	0.45726
-1.81492	-1.20074
-0.02981	-0.99668
2.23984	0.83988
0.93925	0.20219
0.12320	0.73785
0.27621	0.96742
-1.15188	0.30422
1.21977	0.02363
-0.08081	-0.74160
-0.28482	-0.38449
0.04670	0.91640
0.76074	0.35523
-0.33583	0.02363
0.14870	-0.20594
0.48022	0.86539
-0.28482	0.76336
0.25071	0.15117
1.52579	0.20219
1.32178	0.07465
1.01576	-0.81812
-0.79486	0.20219
0.86275	0.12566
-1.48340	-0.48652
-2.57997	0.10015
1.09226	0.48277
-2.98800	0.20219
-1.71292	-0.81812
2.29084	0.20219
1.11776	0.45726
0.83725	1.17148
1.95932	0.53379
1.09226	-0.51203
0.27621	-0.25695
0.48022	0.55929
0.58223	0.55929
-0.18282	0.66132
-0.56534	-0.10391
-1.35589	0.02363
-0.74385	-0.89465
-0.08081	-0.30797
2.11233	0.30422
0.53123	0.71234
0.42922	0.81437
-1.58541	-0.18043
-1.22839	0.55929
1.09226	0.43176
2.41835	-0.58856
-0.82036	0.20219
-1.53441	0.43176
2.34184	-0.05289
0.25071	-0.15492
-1.10088	0.78886
-0.59084	-0.99668
0.22521	-0.10391
1.01576	-0.12942
1.32178	1.80917
0.68424	0.12566
-0.38683	-0.28246
0.04670	0.22769
-0.02981	0.32972
-0.43783	-0.81812
-1.15188	-1.12422
0.14870	0.30422
0.02119	1.12046
-0.53984	0.96742
0.17421	1.27351
0.30171	0.50828
1.24527	-0.53754
1.42379	0.71234
0.09770	-0.23145
0.86275	-0.46102
-1.20288	0.27871
-1.07538	0.73785
-0.36133	-0.15492
1.98482	-0.38449
0.65874	0.35523
0.42922	-0.10391
0.35272	0.10015
-0.36133	0.53379
-0.23382	-0.53754
1.16877	0.76336
0.37822	1.01843
0.22521	-0.05289
-0.69285	-0.66508
-0.76936	-0.28246
-0.05531	0.89089
-0.56534	-0.15492
-0.59084	0.27871
0.88825	0.61031
1.47479	0.07465
0.91375	-0.02739
-0.79486	0.15117
0.35272	0.55929
0.83725	-0.41000
0.35272	0.66132
-0.31033	0.35523
1.14327	-1.40480
-0.84586	0.07465
-1.53441	0.10015
-1.12638	0.04914
0.32721	0.53379
0.32721	0.38074
1.50029	-0.56305
0.63323	-0.10391
1.34728	-0.05289
-1.27939	0.63582
-3.54903	0.61031
0.37822	-0.15492
1.44929	-0.07840
2.06133	0.15117
1.78081	-0.41000
-0.10631	-0.66508
-0.13181	0.55929
-0.46334	-0.41000
-0.20832	0.02363
0.09770	0.43176
0.86275	0.30422
-0.38683	0.38074
-0.08081	0.15117
0.55673	0.35523
-1.35589	0.58480
-2.55447	0.94191
-0.74385	-0.86914
0.63323	-1.71090
2.52035	0.58480
1.21977	0.63582
-0.10631	0.73785
1.16877	0.81437
0.83725	-0.51203
0.91375	0.22769
0.70974	0.63582
0.81175	0.38074
-0.99887	0.15117
-1.76392	1.45206
-0.99887	-2.19554
1.52579	-0.25695
0.09770	-0.15492
-2.52897	0.66132
-0.02981	-0.05289
2.77537	0.48277
-0.69285	0.76336
-1.27939	0.17668
0.86275	-0.20594
1.39828	-0.05289
1.62780	0.02363
2.46935	0.86539
0.35272	0.12566
-1.50890	-0.61406
-1.35589	-0.43551
0.50573	0.12566
1.14327	-0.38449
-1.17738	0.40625
-0.59084	0.48277
-0.69285	0.40625
-0.23382	0.22769
0.70974	0.30422
1.14327	0.10015
1.95932	0.02363
0.60773	-0.18043
-0.43783	0.43176
-1.20288	-0.00188
-1.48340	-0.12942
1.62780	-0.35899
1.52579	0.96742
0.53123	0.58480
-1.61091	-0.25695
-1.15188	0.63582
0.88825	-0.30797
1.93382	0.12566
1.27078	0.22769
0.48022	0.63582
0.19971	-0.51203
0.96476	-0.48652
-1.94243	0.50828
-2.14644	-0.23145
0.02119	0.40625
0.17421	-0.79262
0.53123	0.73785
0.45472	1.01843
0.55673	0.35523
1.75531	0.04914
1.62780	-0.25695
-0.33583	0.50828
-2.80949	0.02363
0.55673	0.12566
-0.33583	0.25320
-1.27939	-0.02739
0.70974	0.17668
1.95932	0.25320
1.52579	0.40625
0.93925	-0.25695
-0.46334	-0.12942
0.30171	-0.12942
0.42922	-0.48652
-0.61635	1.04394
-0.23382	0.76336
1.24527	-0.05289
-0.56534	0.17668
-3.75305	-0.07840
-0.10631	0.10015
1.42379	-0.30797
-0.69285	0.66132
0.14870	0.20219
-0.10631	0.63582
1.85731	-0.28246
1.65330	0.50828
-0.41233	0.22769
-0.66735	0.55929
0.53123	0.35523
1.65330	0.35523
1.32178	-0.51203
-0.15732	-0.30797
-0.79486	-0.10391
-0.82036	0.45726
0.04670	0.86539
0.45472	-0.10391
0.78624	-0.02739
1.42379	0.30422
-1.40690	0.35523
-0.00431	0.96742
0.40372	-0.89465
0.32721	-0.23145
0.83725	-0.02739
-0.76936	-0.30797
-0.28482	1.14597
0.09770	-0.05289
-0.28482	-0.00188
0.40372	0.83988
0.91375	-0.33348
0.81175	0.53379
0.76074	0.12566
-0.31033	-0.23145
-0.18282	-0.25695
0.19971	-0.25695
0.14870	0.71234
-0.31033	0.91640
0.14870	-0.66508
-0.66735	-0.02739
-1.02437	-0.51203
1.75531	0.73785
1.98482	-0.30797
1.55129	0.50828
-1.43240	1.32453
-2.52897	0.94191
0.42922	-0.81812
1.01576	-0.89465
-1.04987	0.04914
-0.08081	0.35523
0.91375	0.22769
0.81175	0.55929
1.60230	0.38074
2.13783	-0.07840
0.37822	-0.51203
-0.53984	0.20219
-1.96793	0.22769
-1.40690	0.04914
0.58223	0.53379
1.50029	0.32972
0.07220	0.89089
-0.51434	-0.07840
-0.97337	0.07465
0.04670	-0.02739
0.81175	-0.61406
0.93925	0.12566
0.32721	0.66132
-0.20832	0.27871
0.22521	-0.12942
0.12320	0.50828
-0.20832	1.01843
0.02119	-1.04770
1.01576	-0.05289
1.09226	0.76336
2.62236	0.35523
-3.14101	-0.56305
-4.84962	0.20219
1.50029	0.22769
1.65330	0.61031
2.23984	0.38074
1.27078	-0.00188
0.25071	-0.02739
1.32178	0.35523
-0.02981	0.63582
0.58223	0.07465
0.22521	-0.10391
-1.55991	-0.20594
-0.89686	-0.41000
-0.87136	-0.10391
2.13783	1.09496
-0.31033	0.71234
-2.93700	-0.10391
-0.15732	-0.15492
1.01576	0.68683
1.80631	1.45206
1.06676	-0.23145
1.27078	-0.41000
1.80631	0.27871
0.58223	0.25320
0.42922	-0.20594
-1.22839	0.48277
-2.80949	0.27871
-0.38683	0.25320
1.21977	-0.23145
1.72980	0.20219
-0.10631	-0.66508
-0.31033	0.07465
-0.69285	0.17668
0.35272	-0.69059
0.83725	1.01843
1.55129	0.50828
0.48022	0.04914
-3.03900	0.10015
-1.17738	0.81437
0.48022	0.04914
0.22521	0.73785
1.14327	-0.53754
1.29628	-1.07320
1.21977	-0.25695
0.78624	0.10015
-3.11551	0.58480
-0.97337	1.24800
2.52035	0.20219
3.23440	-0.53754
-1.40690	-0.38449
-1.17738	0.43176
-0.69285	1.27351
-1.43240	-0.76711
0.27621	-0.10391
3.18340	-0.18043
0.63323	0.55929
-0.00431	-0.00188
0.63323	0.35523
0.42922	0.76336
-1.25389	0.45726
-1.10088	-0.00188
-0.23382	1.35003
-0.87136	-1.35379
0.58223	-0.46102
-0.00431	0.15117
1.21977	0.73785
2.57136	0.48277
1.72980	0.71234
-1.61091	-0.02739
-1.94243	0.04914
0.70974	-0.30797
1.50029	0.61031
0.83725	0.43176
-0.59084	0.25320
1.11776	-0.12942
1.11776	-0.00188
-1.73842	0.22769
-1.12638	-0.89465
-1.71292	-0.89465
1.11776	0.55929
1.24527	0.45726
1.27078	1.01843
0.40372	0.35523
-1.33039	-0.05289
-0.56534	0.55929
0.60773	-0.00188
1.39828	0.66132
1.21977	0.32972
0.53123	-0.76711
0.76074	0.20219
1.95932	-0.41000
-1.66191	0.30422
-4.28858	0.96742
0.60773	0.04914
2.23984	0.38074
0.96476	0.45726
1.09226	0.20219
0.37822	-0.46102
-1.15188	0.32972
-1.86593	0.04914
0.12320	1.06945
1.39828	0.48277
0.22521	-0.58856
1.32178	0.25320
1.42379	0.35523
-0.87136	-0.05289
-0.76936	-0.25695
0.83725	-0.07840
0.73524	-0.28246
0.17421	0.99292
0.53123	0.35523
2.06133	0.20219
-0.41233	0.43176
-4.18658	0.50828
-2.50347	-1.14973
1.95932	0.10015
1.11776	0.53379
-0.13181	0.30422
1.34728	-0.41000
2.67337	0.27871
1.60230	0.07465
-0.23382	0.55929
-1.38139	-0.02739
0.83725	-0.41000
0.70974	0.12566
-0.56534	-0.15492
-0.59084	0.66132
0.48022	-0.38449
0.14870	0.12566
-2.42696	-0.20594
-0.41233	0.38074
0.53123	-0.05289
-0.08081	0.25320
0.86275	0.55929
1.16877	0.35523
2.18883	-0.46102
-1.25389	0.20219
-0.05531	0.43176
0.65874	-0.02739
0.32721	-0.12942
0.42922	0.55929
2.08683	0.20219
-2.47797	0.30422
-4.21208	-0.81812
1.14327	0.35523
2.26534	-0.15492
-0.28482	0.81437
0.02119	1.35003
2.31634	-0.43551
0.12320	-0.84363
-1.38139	0.61031
-0.56534	0.76336
1.55129	0.30422
3.94845	0.45726
-0.28482	0.63582
-1.81492	0.07465
-0.48884	0.20219
0.83725	0.48277
-0.51434	-0.20594
-1.12638	-0.18043
1.11776	-0.23145
1.27078	0.61031
-1.71292	-0.53754
-0.28482	-0.18043
0.68424	0.96742
2.90288	0.89089
0.19971	-0.92016
-1.63641	-0.94566
-0.25932	0.40625
-0.76936	0.15117
1.55129	-0.05289
0.65874	1.17148
-1.58541	0.66132
0.42922	-0.18043
0.30171	0.15117
0.53123	-0.53754
-1.25389	0.40625
-0.97337	-0.12942
1.24527	0.04914
0.65874	0.10015
0.83725	0.38074
1.09226	-0.07840
0.83725	-0.05289
-0.10631	0.02363
-0.61635	0.48277
1.67880	0.20219
-1.02437	0.12566
-2.75848	0.04914
-0.74385	-0.05289
0.83725	0.30422
1.06676	-0.02739
0.76074	0.55929
1.85731	0.96742
-0.15732	-0.81812
-0.69285	0.48277
0.19971	-0.18043
-0.28482	-0.25695
-0.20832	-0.66508
-0.53984	0.22769
0.83725	0.53379
0.19971	-0.30797
1.06676	0.96742
0.81175	0.32972
0.04670	-0.20594
-1.33039	0.17668
-1.43240	0.15117
1.06676	0.25320
0.70974	0.25320
-0.15732	0.53379
-0.53984	0.30422
0.27621	-1.48133
0.76074	0.35523
0.83725	0.53379
1.44929	0.15117
0.40372	0.55929
-0.41233	0.53379
-0.10631	0.43176
-0.64185	0.35523
-0.79486	-0.63957
-0.28482	-0.28246
0.73524	0.45726
0.40372	0.58480
-0.69285	-0.56305
-0.13181	-0.30797
0.81175	0.15117
-0.74385	0.61031
-1.63641	0.63582
0.60773	0.04914
2.95388	0.02363
-0.76936	-0.25695
-1.48340	-0.07840
1.11776	0.35523
0.99026	0.22769
0.73524	0.89089
1.65330	0.45726
0.42922	0.17668
0.48022	0.10015
-0.71835	-0.25695
-2.83499	0.68683
-0.10631	-0.35899
1.01576	-0.46102
1.39828	0.07465
-0.43783	0.32972
-1.04987	-0.00188
-0.00431	-0.05289
0.96476	0.35523
-0.00431	0.71234
-0.38683	-0.30797
0.37822	0.45726
1.19427	0.20219
1.06676	-0.35899
-0.92237	0.15117
-1.68742	0.61031
-0.18282	-0.53754
1.62780	-0.33348
1.83181	1.01843
-0.31033	0.58480
0.32721	-0.30797
-0.00431	-0.00188
0.88825	0.15117
-0.87136	0.27871
-2.35046	0.04914
-0.08081	-0.35899
0.78624	0.12566
0.32721	-0.10391
1.44929	0.50828
2.57136	0.27871
-1.25389	0.20219
-3.29402	0.89089
-0.46334	-0.89465
1.55129	0.25320
0.86275	-0.10391
0.78624	0.40625
1.01576	0.32972
0.83725	0.10015
0.27621	1.14597
-0.00431	0.07465
-0.28482	-0.07840
-0.43783	-0.00188
-1.22839	0.30422
0.12320	0.17668
0.22521	0.43176
-0.15732	0.27871
0.78624	-0.61406
-0.69285	0.48277
0.09770	-0.05289
1.55129	-0.23145
0.32721	0.04914
-1.38139	-0.18043
0.65874	-0.25695
1.04126	0.35523
0.48022	0.38074
-0.46334	1.52859
-0.99887	0.30422
0.35272	-1.30277
0.22521	-0.69059
0.42922	0.17668
-0.43783	0.22769
-1.04987	0.38074
-0.31033	-0.46102
1.27078	0.86539
2.46935	0.07465
-0.79486	-0.02739
-2.22295	-0.18043
0.73524	0.20219
1.39828	0.22769
0.65874	0.94191
0.81175	-1.78742
0.45472	-0.33348
-2.37596	1.06945
-0.59084	0.40625
2.21434	-0.43551
-1.10088	0.35523
-1.27939	0.91640
0.45472	0.32972
1.65330	0.25320
0.78624	0.30422
-1.48340	-1.32828
1.67880	0.76336
1.57679	0.50828
-0.18282	-0.00188
-1.78942	-0.15492
-0.38683	-0.15492
-0.25932	1.09496
1.24527	0.17668
0.35272	-0.53754
-0.00431	0.02363
1.80631	-0.35899
-0.20832	-0.05289
-3.57454	0.63582
-0.25932	0.81437
2.87738	0.68683
0.27621	-0.92016
-0.82036	0.32972
0.22521	0.78886
1.09226	1.04394
0.53123	-1.04770
-0.02981	-0.56305
0.48022	0.07465
0.48022	0.86539
0.02119	-0.07840
-1.81492	-0.15492
-1.53441	-0.05289
-0.02981	0.17668
1.47479	0.27871
1.52579	-0.15492
1.37278	0.73785
-0.64185	1.12046
-0.66735	0.53379
0.32721	-0.30797
-0.69285	-0.33348
1.42379	-0.92016
1.88281	0.02363
-0.94787	0.63582
0.32721	0.63582
1.52579	0.40625
-2.19745	0.27871
-2.52897	0.10015
0.58223	0.07465
1.11776	0.22769
0.73524	-0.10391
1.16877	0.20219
1.14327	-0.35899
0.93925	-0.02739
-0.23382	0.50828
-1.45790	0.32972
0.25071	-0.18043
0.73524	0.78886
0.14870	-0.43551
-0.05531	-0.23145
0.53123	0.76336
-2.40146	0.45726
-0.71835	-0.76711
2.01032	0.25320
0.12320	0.27871
-0.79486	1.17148
1.29628	0.50828
0.42922	-0.30797
0.70974	-0.25695
0.35272	-0.46102
1.34728	0.68683
-0.38683	0.81437
-2.19745	0.20219
0.22521	0.45726
0.37822	-0.33348
-0.31033	-0.35899
1.57679	-0.15492
0.93925	0.76336
-2.01894	0.66132
-0.51434	0.35523
0.32721	-0.07840
1.75531	-0.43551
2.41835	0.10015
1.14327	0.25320
-2.55447	0.43176
-2.96250	-0.15492
1.19427	0.45726
0.53123	-0.48652
-0.46334	0.10015
0.50573	0.40625
0.96476	0.55929
0.09770	0.25320
-1.96793	0.12566
0.32721	-0.35899
1.04126	-0.02739
1.19427	-0.56305
0.42922	0.91640
0.12320	0.30422
1.75531	0.63582
-0.89686	0.02363
-1.40690	-0.15492
0.22521	0.32972
0.60773	0.61031
-0.02981	0.83988
-0.87136	-0.58856
-0.69285	-0.56305
1.09226	0.53379
0.96476	-0.00188
0.63323	0.55929
0.07220	-0.41000
-0.74385	0.30422
0.63323	0.40625
1.55129	-0.05289
-0.84586	-0.15492
-1.55991	-0.48652
-1.81492	0.02363
-0.00431	0.40625
0.78624	-0.07840
1.70430	0.50828
1.09226	0.58480
1.62780	0.55929
0.53123	0.17668
-1.58541	-0.63957
-1.55991	0.27871
-0.05531	0.10015
0.60773	0.66132
1.65330	-0.35899
-0.02981	0.66132
-0.79486	-0.33348
-0.48884	-0.15492
1.29628	-0.07840
0.48022	0.55929
-2.47797	1.40105
0.12320	-0.43551
2.06133	-1.12422
0.48022	0.15117
0.99026	0.76336
0.35272	0.76336
-0.94787	0.20219
0.19971	0.35523
0.32721	-0.05289
0.35272	0.20219
1.16877	-0.23145
-0.59084	0.02363
-1.94243	-1.32828
-0.36133	0.20219
0.73524	0.71234
0.63323	0.83988
1.75531	-0.15492
0.12320	-0.15492
-2.83499	0.38074
-0.59084	0.78886
0.14870	-0.12942
1.04126	0.04914
1.52579	-0.33348
0.93925	0.22769
1.44929	0.02363
0.40372	0.32972
-0.23382	-0.53754
0.12320	0.71234
-1.12638	0.15117
-0.56534	1.14597
0.02119	-0.28246
0.14870	-0.12942
0.14870	-0.58856
0.12320	0.30422
1.24527	0.32972
-0.10631	0.10015
-1.17738	-0.30797
0.99026	-0.23145
-0.08081	0.20219
-2.32496	0.89089
0.50573	0.35523
2.57136	1.14597
-0.36133	-0.28246
0.63323	-0.00188
0.91375	0.27871
-0.15732	0.17668
0.70974	-0.56305
0.81175	0.25320
0.88825	-0.43551
-1.48340	-0.41000
-0.53984	-0.07840
-0.71835	0.07465
-0.41233	0.83988
0.58223	0.73785
0.99026	1.27351
-0.76936	0.55929
-0.76936	-0.56305
0.60773	-0.18043
0.42922	0.53379
0.30171	-0.23145
1.88281	0.17668
-0.41233	0.35523
-0.38683	-0.25695
0.37822	-0.41000
-0.00431	0.81437
0.04670	0.15117
0.14870	0.43176
1.78081	0.53379
-0.02981	-1.20074
-1.40690	-0.05289
-0.79486	0.02363
-0.31033	0.53379
0.04670	-0.02739
0.12320	0.15117
0.35272	-0.07840
0.68424	0.32972
1.90832	0.02363
0.22521	-0.66508
-3.77855	0.35523
-1.91693	0.45726
1.16877	-0.05289
1.78081	0.40625
2.23984	0.45726
-0.51434	-0.02739
-0.94787	0.53379
0.27621	0.07465
0.55673	-0.53754
1.24527	0.68683
-0.18282	-0.38449
-0.92237	0.27871
-0.20832	0.40625
0.12320	-0.15492
-0.46334	0.30422
0.96476	-0.43551
0.58223	0.30422
0.55673	0.94191
0.35272	0.17668
-1.17738	0.07465
0.27621	0.94191
1.09226	0.10015
1.14327	0.02363
0.60773	-0.58856
-1.04987	-0.07840
-1.35589	-0.07840
-1.04987	-0.15492
1.24527	0.07465
1.29628	0.78886
-0.74385	0.48277
0.02119	-0.00188
-0.23382	0.25320
1.55129	-0.97117
-0.84586	0.94191
-2.14644	-0.46102
0.48022	-0.33348
1.93382	0.50828
1.01576	0.43176
0.58223	0.48277
0.48022	0.91640
0.14870	-0.48652
-0.05531	0.15117
-0.20832	-0.38449
-0.99887	0.17668
-0.36133	0.27871
1.24527	0.12566
-0.33583	0.40625
-0.28482	-0.05289
0.37822	0.53379
-0.31033	0.12566
-0.48884	-0.84363
1.21977	0.53379
1.47479	0.25320
-1.76392	0.40625
-0.99887	0.40625
-1.25389	-0.76711
1.14327	-0.05289
1.98482	-0.28246
1.19427	0.22769
0.19971	0.91640
0.86275	0.25320
0.17421	0.04914
-0.23382	0.35523
-0.05531	-0.10391
0.04670	0.22769
0.53123	-0.41000
0.42922	0.17668
1.29628	0.61031
-3.80405	-0.20594
-1.10088	0.63582
0.48022	-0.89465
0.48022	0.15117
0.60773	0.38074
1.19427	-0.41000
1.24527	0.50828
0.48022	0.30422
-0.13181	0.45726
0.12320	-0.18043
0.76074	0.22769
-0.46334	0.12566
-0.84586	-0.35899
-0.46334	0.73785
0.37822	0.25320
0.27621	-0.28246
0.32721	0.73785
0.32721	0.30422
0.60773	-0.30797
1.55129	-0.30797
-2.42696	0.02363
-3.34502	-0.12942
0.53123	-0.15492
2.74987	0.10015
1.24527	1.40105
-1.02437	0.38074
0.27621	-1.40480
0.73524	-0.79262
-0.53984	0.32972
0.91375	0.73785
2.57136	0.20219
-0.15732	0.66132
-3.11551	0.25320
-1.17738	0.58480
1.34728	0.35523
0.88825	0.38074
0.25071	-0.25695
0.19971	0.15117
0.04670	0.71234
0.30171	-0.56305
1.16877	0.27871
-0.25932	0.32972
-0.64185	-0.94566
0.40372	0.78886
-0.25932	0.20219
-1.68742	-0.12942
-0.76936	0.63582
-0.66735	-0.46102
1.19427	0.38074
1.62780	0.04914
1.47479	0.58480
0.45472	-0.41000
-0.02981	-0.18043
-0.33583	0.76336
0.27621	-0.20594
0.30171	-0.07840
-0.51434	0.30422
0.02119	0.53379
0.99026	0.40625
0.12320	-0.35899
-0.97337	-0.05289
-0.82036	0.12566
0.17421	0.04914
-0.05531	0.25320
0.22521	0.53379
0.48022	0.07465
0.73524	0.76336
0.73524	-0.69059
0.02119	0.45726
0.65874	0.43176
0.04670	-0.23145
0.12320	0.12566
-2.01894	0.12566
-0.74385	-0.25695
1.60230	0.45726
1.85731	0.10015
1.19427	0.17668
0.37822	0.27871
0.27621	0.58480
-0.82036	0.27871
-0.15732	-0.76711
0.60773	0.32972
0.45472	0.12566
-1.04987	0.89089
-2.14644	-0.15492
0.42922	0.17668
0.40372	0.78886
1.14327	-0.02739
0.91375	-0.99668
0.60773	0.17668
-0.02981	0.02363
-0.38683	0.22769
0.37822	0.35523
0.07220	0.38074
-0.08081	-0.10391
0.81175	-0.30797
-0.38683	0.32972
-0.08081	0.50828
0.04670	0.68683
0.12320	-1.35379
1.72980	-0.15492
-1.53441	0.12566
-1.96793	0.04914
-0.05531	0.15117
1.34728	0.02363
0.19971	0.45726
0.45472	0.02363
0.78624	0.12566
0.27621	-0.43551
0.30171	0.20219
1.90832	0.99292
0.32721	-0.94566
-3.16651	0.40625
-0.64185	0.35523
1.04126	0.40625
0.68424	-0.00188
-0.13181	0.04914
1.01576	0.15117
1.44929	0.50828
1.42379	0.38074
-1.02437	0.89089
-2.35046	-0.30797
0.48022	-0.43551
0.12320	0.50828
0.35272	-0.15492
0.32721	0.30422
0.35272	-0.33348
0.22521	0.02363
-0.31033	0.25320
0.45472	0.50828
1.21977	0.63582
-0.41233	-0.05289
-0.51434	-0.25695
1.14327	0.10015
0.12320	0.15117
-0.89686	0.12566
0.19971	0.83988
-0.79486	0.53379
-1.10088	0.45726
0.63323	0.04914
0.99026	-0.61406
2.06133	0.32972
-0.13181	0.71234
-0.28482	-0.02739
-0.00431	-0.35899
0.65874	0.07465
0.45472	0.35523
0.45472	0.63582
0.04670	0.63582
-2.22295	-0.18043
-1.10088	0.30422
1.44929	0.66132
0.96476	-0.79262
1.44929	0.15117
-0.53984	-1.07320
-1.43240	0.38074
0.07220	0.91640
0.50573	-0.12942
0.42922	-0.58856
1.11776	-0.30797
0.42922	0.50828
-0.00431	0.91640
0.73524	-0.81812
0.25071	0.53379
-0.23382	0.94191
-0.82036	-0.38449
-0.48884	-0.02739
0.99026	-0.66508
1.83181	-0.25695
-1.22839	0.30422
-3.09000	1.12046
1.24527	0.76336
-0.25932	-0.43551
-0.33583	0.58480
1.72980	0.15117
2.06133	-0.58856
2.82638	0.20219
0.04670	0.22769
-1.94243	0.10015
0.19971	0.02363
0.37822	0.48277
0.42922	0.20219
0.30171	0.66132
-1.73842	-0.00188
-1.22839	0.07465
1.78081	-0.53754
1.37278	0.07465
0.17421	-0.25695
-1.10088	0.96742
-0.99887	-0.56305
-0.87136	-0.66508
0.45472	0.04914
0.19971	0.53379
0.60773	-0.12942
0.19971	0.76336
1.04126	0.96742
0.88825	0.50828
0.37822	0.35523
0.73524	0.07465
-0.05531	0.58480
-0.18282	-0.53754
0.86275	-0.41000
-3.39602	-0.10391
-3.26852	0.07465
1.39828	0.12566
1.83181	0.07465
0.93925	0.27871
0.96476	0.53379
0.60773	0.40625
-0.31033	-0.25695
0.58223	0.66132
1.29628	-0.66508
-0.66735	0.17668
-1.17738	0.71234
-0.84586	0.66132
1.32178	0.02363
0.37822	0.61031
-1.50890	-0.28246
-0.59084	0.15117
-0.10631	-0.30797
0.30171	-0.46102
0.37822	0.35523
1.78081	0.48277
0.81175	-0.28246
0.27621	0.61031
0.27621	0.45726
0.48022	0.12566
-0.13181	0.35523
-0.41233	0.30422
0.12320	-0.28246
0.19971	0.73785
0.70974	-0.79262
0.04670	0.38074
-0.84586	-0.51203
-1.10088	0.22769
0.88825	-0.00188
1.52579	0.12566
-0.48884	0.91640
-1.02437	0.32972
0.73524	-0.07840
0.27621	0.27871
2.59686	0.38074
-0.87136	0.32972
-2.83499	-0.05289
-1.63641	-0.05289
1.65330	0.35523
2.03582	-0.33348
0.32721	0.43176
-0.61635	-0.25695
1.06676	0.53379
0.88825	0.07465
-0.41233	0.68683
-0.13181	-0.20594
-1.38139	-0.51203
-1.43240	-0.46102
0.17421	0.48277
0.78624	-0.02739
1.72980	0.17668
0.53123	0.58480
-0.97337	0.58480
-0.46334	-0.48652
0.40372	-0.07840
-0.66735	0.58480
0.63323	0.30422
0.78624	-0.00188
0.37822	-0.00188
0.07220	-0.05289
0.07220	-0.35899
0.02119	0.17668
0.12320	0.02363
0.37822	0.83988
0.63323	0.45726
0.17421	0.73785
0.35272	0.15117
0.27621	-0.07840
0.07220	-0.07840
-0.51434	-1.63437
-1.33039	0.91640
-1.76392	0.50828
-0.46334	-0.23145
2.13783	0.35523
2.06133	-0.00188
1.06676	0.58480
0.14870	0.25320
0.58223	-0.25695
-0.13181	-0.00188
-0.59084	0.17668
-0.25932	0.76336
0.19971	0.27871
0.93925	0.38074
-0.59084	0.30422
0.65874	-0.48652
-1.04987	0.15117
-2.09544	-0.10391
0.17421	0.61031
0.65874	0.27871
0.81175	0.50828
0.83725	0.15117
1.34728	-0.56305
0.86275	0.15117
-0.31033	0.78886
0.73524	-0.84363
1.90832	0.10015
-2.52897	0.45726
-2.12094	0.45726
-0.00431	0.53379
1.19427	-0.63957
1.42379	0.22769
0.02119	-0.18043
1.11776	0.10015
-0.36133	-0.05289
-0.79486	0.12566
0.35272	0.58480
-0.31033	0.32972
0.02119	-0.05289
0.55673	0.43176
0.14870	0.22769
-0.25932	-0.23145
1.57679	0.58480
0.83725	0.22769
-0.10631	0.04914
-0.74385	0.61031
-1.27939	0.17668
0.25071	0.20219
1.21977	0.04914
0.70974	-0.07840
0.12320	-0.25695
-0.15732	0.40625
1.52579	0.25320
0.60773	-0.48652
-2.83499	0.43176
-0.48884	0.86539
0.50573	-0.07840
0.35272	-0.41000
1.11776	0.53379
0.65874	0.61031
1.60230	-0.07840
-0.05531	0.35523
-0.89686	0.02363
0.04670	0.15117
0.35272	0.55929
-0.59084	-0.56305
0.42922	0.48277
-0.43783	0.43176
-0.64185	-0.63957
2.69887	-0.15492
-0.56534	0.45726
-2.96250	-0.28246
0.53123	0.10015
2.21434	0.17668
1.34728	0.55929
-0.13181	0.07465
-0.23382	0.71234
0.78624	0.12566
0.37822	0.55929
-0.13181	-0.25695
-0.33583	-0.33348
-0.15732	0.17668
-0.05531	0.04914
0.40372	0.07465
0.68424	0.38074
-1.10088	0.25320
-1.53441	-0.15492
0.42922	-0.07840
0.50573	-0.56305
0.27621	0.71234
0.58223	0.17668
0.63323	0.35523
0.45472	0.10015
-0.13181	0.22769
0.04670	-0.18043
0.55673	0.50828
0.40372	-0.05289
-0.28482	-0.38449
-0.51434	0.22769
-1.17738	-0.15492
-0.00431	0.20219
0.70974	0.27871
0.86275	1.04394
1.06676	0.15117
1.98482	-0.02739
-1.17738	-0.20594
-3.19201	0.17668
-0.20832	-0.48652
1.52579	0.81437
1.95932	0.50828
0.45472	-1.07320
0.04670	0.27871
-0.10631	0.58480
-0.36133	0.07465
0.04670	0.45726
0.73524	0.32972
1.09226	0.32972
-0.76936	0.22769
-1.50890	-0.38449
0.30171	0.68683
0.17421	-0.05289
0.78624	-0.18043
1.72980	0.02363
-0.38683	0.20219
-1.27939	0.35523
0.42922	0.43176
0.63323	0.22769
-0.36133	0.17668
0.48022	0.73785
0.32721	-0.48652
1.14327	-0.76711
1.75531	0.30422
-0.05531	0.66132
-1.99343	1.06945
-0.99887	-0.56305
0.83725	-0.66508
1.39828	0.50828
0.68424	0.17668
-0.59084	0.55929
0.04670	0.15117
0.30171	0.17668
0.40372	-0.02739
-0.41233	0.55929
0.12320	-0.84363
0.32721	-0.18043
0.17421	0.40625
-0.05531	0.15117
1.24527	0.66132
0.30171	0.02363
-1.20288	-0.51203
-1.45790	0.38074
0.86275	0.45726
0.88825	0.20219
1.95932	-0.02739
0.55673	0.40625
-1.04987	-0.18043
1.37278	0.15117
-0.31033	-0.00188
0.83725	-0.05289
-0.59084	0.32972
0.42922	0.78886
0.83725	0.10015
-1.27939	0.22769
-0.05531	0.32972
-0.08081	0.48277
0.60773	-1.40480
0.12320	0.17668
-0.10631	0.50828
-0.82036	0.30422
-0.33583	0.48277
1.29628	0.02363
1.80631	0.04914
1.44929	0.53379
-0.59084	0.22769
-0.97337	-0.10391
-0.33583	-0.61406
0.32721	0.22769
0.35272	-0.02739
0.02119	0.53379
0.37822	-0.00188
-0.38683	0.55929
-0.13181	0.22769
0.55673	-0.12942
-0.46334	-0.07840
-0.15732	0.04914
2.41835	0.02363
-1.12638	0.30422
-0.84586	-0.02739
1.47479	0.81437
1.32178	0.22769
1.85731	-0.25695
-1.10088	0.96742
-1.66191	-0.97117
0.02119	-0.02739
-0.23382	0.83988
0.55673	0.12566
0.73524	0.45726
0.25071	-0.02739
0.40372	0.55929
-0.25932	-0.56305
-0.05531	0.04914
1.16877	0.10015
0.86275	-0.28246
-0.76936	-0.02739
-2.57997	0.71234
-0.05531	0.45726
2.69887	-0.15492
-0.56534	-0.15492
-0.59084	0.07465
-0.18282	0.30422
0.55673	-0.05289
0.04670	0.22769
0.58223	-0.18043
0.55673	-0.02739
0.99026	0.50828
-0.05531	-0.66508
-1.20288	-0.51203
-0.43783	0.25320
-0.38683	0.94191
0.99026	0.68683
0.14870	0.83988
0.68424	-0.07840
0.88825	0.10015
0.27621	-0.79262
-0.28482	0.35523
-1.30489	-0.23145
-0.08081	0.43176
1.27078	0.15117
0.48022	0.15117
1.19427	-0.18043
-0.53984	0.17668
-2.09544	0.38074
-0.13181	0.50828
1.95932	0.43176
1.06676	-0.66508
0.60773	-0.10391
0.91375	0.55929
-0.31033	0.40625
0.09770	-0.66508
-0.84586	0.17668
-0.20832	0.48277
1.34728	-0.20594
-1.25389	0.32972
-3.47253	-0.02739
0.58223	0.91640
1.16877	-0.51203
1.11776	0.30422
1.01576	0.38074
0.30171	0.22769
0.07220	-0.76711
1.14327	0.58480
-0.82036	-0.10391
-0.74385	0.43176
0.30171	0.15117
1.21977	-0.35899
0.04670	0.71234
-1.12638	-0.10391
-0.89686	0.68683
0.50573	0.40625
1.04126	-0.05289
1.72980	0.25320
1.06676	0.04914
-1.38139	-0.41000
-1.20288	-0.05289
0.19971	0.73785
0.83725	0.17668
0.55673	0.15117
-0.25932	0.43176
0.53123	-0.05289
0.42922	0.04914
-0.23382	0.76336
-1.10088	-0.61406
0.68424	-0.38449
-0.08081	0.32972
-0.00431	0.27871
1.47479	0.40625
1.04126	0.76336
-0.51434	0.32972
-2.19745	-0.38449
-0.28482	0.27871
0.91375	-0.05289
0.42922	-0.10391
0.53123	0.43176
0.48022	0.32972
-0.20832	-0.20594
-0.10631	0.02363
0.07220	0.45726
0.45472	0.22769
0.76074	0.12566
0.19971	0.20219
-0.13181	0.04914
-0.53984	0.02363
-0.18282	-0.89465
-0.20832	0.02363
0.73524	0.73785
0.25071	0.94191
0.02119	1.01843
0.02119	-1.04770
1.11776	0.20219
0.22521	0.25320
0.83725	0.04914
-0.15732	0.38074
-0.13181	-0.25695
-0.13181	0.04914
-2.01894	1.04394
0.04670	0.04914
1.70430	-1.58336
0.76074	0.20219
0.70974	0.35523
0.32721	0.96742
0.76074	-0.74160
0.81175	-0.41000
-2.12094	-0.18043
-2.78398	0.55929
0.55673	0.04914
1.16877	0.40625
1.27078	0.66132
0.63323	0.12566
-0.53984	-0.23145
0.27621	0.15117
1.52579	-0.07840
0.93925	-0.48652
-2.47797	0.35523
-2.19745	0.32972
0.81175	0.27871
1.09226	-0.00188
0.73524	-0.30797
0.30171	0.58480
1.24527	-0.92016
0.58223	0.30422
-0.08081	0.73785
0.22521	0.81437
-0.74385	-0.81812
0.73524	0.32972
-1.10088	0.04914
-1.04987	0.68683
-0.84586	0.35523
0.07220	-0.02739
1.67880	0.68683
1.47479	-0.33348
1.50029	0.17668
-0.10631	-0.02739
-1.61091	0.20219
0.32721	-0.10391
1.55129	0.40625
-0.66735	0.45726
-1.48340	-0.35899
1.11776	0.07465
1.27078	0.32972
-0.74385	0.30422
0.70974	0.32972
1.01576	-0.38449
-1.17738	-0.41000
-1.50890	-0.07840
0.30171	0.48277
1.34728	0.27871
0.50573	0.04914
1.39828	0.38074
1.47479	0.78886
0.17421	-1.22625
-1.04987	0.38074
0.83725	1.06945
-0.51434	0.66132
-1.58541	-0.05289
-1.07538	0.58480
0.48022	0.22769
0.55673	0.02363
1.42379	0.40625
0.40372	-0.46102
0.09770	-0.71609
-0.89686	0.30422
0.12320	0.45726
0.35272	0.02363
0.91375	0.15117
-0.36133	0.32972
-0.71835	-0.15492
0.78624	0.15117
0.07220	0.25320
0.32721	0.15117
-0.36133	0.27871
0.32721	-0.35899
0.48022	-0.15492
0.32721	0.43176
0.37822	0.63582
-0.59084	0.68683
0.42922	-0.46102
-0.38683	0.35523
-1.53441	0.20219
-0.79486	0.15117
1.39828	-0.10391
0.19971	0.25320
0.65874	-0.00188
1.04126	-0.51203
1.04126	-0.56305
0.04670	1.17148
-1.10088	-0.30797
-0.84586	0.25320
0.07220	0.78886
0.83725	0.30422
0.93925	-0.07840
0.93925	-0.00188
-0.84586	0.15117
-0.23382	0.25320
-0.13181	-0.05289
-0.56534	0.22769
1.21977	0.58480
0.91375	0.40625
-1.27939	-0.10391
-0.89686	-0.43551
0.48022	-0.38449
0.93925	0.45726
0.55673	0.86539
0.12320	-0.38449
0.60773	0.50828
0.91375	-0.46102
-0.33583	0.32972
-0.20832	0.78886
-0.13181	0.30422
-0.20832	-0.76711
-0.00431	0.07465
0.25071	0.63582
0.12320	0.17668
1.06676	0.50828
-0.41233	-0.33348
-0.15732	0.27871
2.39285	0.20219
-0.61635	0.71234
-3.75305	0.50828
0.40372	-0.56305
1.21977	0.04914
0.83725	0.35523
0.73524	0.07465
-0.02981	-0.35899
0.53123	0.55929
1.32178	-0.05289
-1.07538	0.30422
-1.91693	0.17668
0.58223	0.02363
0.55673	0.15117
0.88825	0.15117
0.78624	0.10015
0.53123	0.35523
0.27621	0.25320
0.07220	0.15117
0.07220	-0.35899
-0.38683	0.71234
0.07220	-0.05289
-0.76936	-0.92016
-0.10631	0.50828
1.32178	1.14597
-1.04987	0.61031
0.19971	-0.58856
-0.92237	-0.74160
-0.43783	0.10015
-0.59084	0.15117
0.35272	1.12046
1.67880	0.30422
1.52579	0.15117
0.76074	-0.05289
-0.31033	-0.00188
-0.87136	0.17668
0.42922	-0.25695
1.34728	0.12566
0.91375	0.20219
-1.50890	-0.23145
-1.33039	-0.12942
-0.00431	0.12566
0.40372	0.25320
0.58223	0.27871
0.12320	0.50828
-0.05531	-0.46102
0.09770	0.02363
0.14870	-0.20594
0.19971	0.35523
0.04670	0.38074
-0.10631	0.76336
1.34728	-0.56305
-0.61635	0.76336
-2.45246	-0.79262
1.32178	-0.56305
1.39828	-0.61406
-0.56534	0.55929
-1.12638	0.73785
-0.82036	0.35523
1.75531	0.53379
2.34184	0.86539
1.14327	0.20219
0.07220	-0.25695
0.60773	-0.00188
-0.25932	-0.12942
-0.76936	0.02363
-0.84586	0.10015
-0.28482	0.04914
0.40372	0.17668
-0.23382	0.04914
-0.08081	-0.10391
-0.00431	0.02363
-0.00431	0.12566
1.06676	0.38074
0.35272	0.53379
0.63323	0.12566
-1.25389	0.76336
-0.56534	0.53379
0.53123	-0.48652
0.88825	-0.46102
1.75531	-0.35899
-0.13181	0.25320
-0.79486	-0.30797
0.04670	1.04394
1.04126	0.43176
-0.02981	-0.30797
-0.38683	-0.05289
0.19971	0.40625
0.42922	0.71234
0.12320	0.48277
0.09770	0.30422
-1.17738	0.04914
-1.50890	-0.10391
1.06676	0.22769
0.88825	0.15117
0.48022	0.02363
1.44929	0.04914
1.62780	0.15117
-1.58541	-0.00188
-0.94787	0.55929
0.27621	-0.00188
-0.23382	0.35523
0.30171	-0.81812
1.16877	-0.30797
0.86275	0.48277
0.07220	0.94191
0.53123	0.15117
0.60773	0.38074
-2.22295	-0.28246
-1.50890	0.20219
1.24527	-0.46102
1.75531	0.53379
0.93925	-0.35899
-0.13181	-0.25695
-1.15188	0.55929
0.88825	0.53379
1.90832	0.25320
0.19971	0.61031
0.45472	0.02363
0.12320	-0.38449
-0.71835	0.20219
-1.35589	0.02363
-0.87136	0.12566
0.09770	0.32972
0.86275	0.63582
0.48022	0.73785
0.48022	-0.69059
0.86275	-0.20594
-0.08081	-0.18043
0.19971	0.20219
0.22521	0.30422
0.07220	0.04914
-0.46334	0.12566
-0.25932	0.02363
0.09770	0.43176
0.48022	-1.12422
0.96476	0.53379
0.68424	0.12566
-0.79486	0.45726
-0.61635	0.40625
1.65330	-0.38449
-0.33583	-0.30797
-1.73842	0.10015
-0.23382	-0.05289
1.72980	0.89089
-0.23382	0.38074
0.35272	0.07465
1.44929	0.02363
1.72980	-0.05289
-1.48340	0.35523
-2.12094	0.12566
-0.08081	0.40625
1.16877	-0.23145
0.93925	-0.20594
0.58223	0.53379
1.06676	0.25320
-1.10088	0.07465
0.37822	0.10015
0.55673	0.07465
0.12320	0.20219
-1.20288	0.25320
0.93925	0.76336
1.09226	-0.15492
-2.35046	-0.99668
-0.61635	0.78886
1.65330	-0.18043
0.78624	-0.99668
-0.43783	0.91640
0.60773	0.83988
1.04126	-0.33348
-2.52897	-0.61406
-1.50890	0.50828
0.07220	0.40625
1.14327	0.71234
2.06133	-0.02739
1.24527	0.02363
0.81175	-0.28246
-0.64185	0.43176
-0.89686	0.22769
0.99026	0.35523
-0.05531	0.15117
-1.50890	-0.58856
-0.97337	0.50828
0.42922	0.53379
0.53123	-0.38449
0.19971	-0.18043
-0.02981	0.10015
1.06676	0.02363
1.24527	1.70714
-0.82036	-0.79262
-2.22295	-0.02739
0.88825	-0.35899
1.57679	0.48277
0.35272	0.50828
-1.02437	0.55929
-0.15732	0.04914
0.65874	0.07465
0.73524	-0.07840
-0.13181	0.35523
0.58223	0.30422
1.44929	-0.15492
-1.30489	0.17668
-2.75848	-0.10391
0.32721	-0.38449
1.47479	-0.53754
0.12320	0.25320
0.09770	1.37554
-0.20832	-0.74160
1.11776	-0.10391
0.04670	-0.00188
0.25071	0.27871
0.12320	0.30422
0.42922	1.24800
-0.08081	0.04914
0.12320	-0.15492
0.27621	0.20219
0.48022	0.32972
0.65874	0.15117
0.09770	0.07465
-0.51434	0.15117
-0.61635	0.66132
-0.38683	-0.71609
0.37822	0.10015
2.16333	0.25320
-0.33583	0.15117
-1.17738	-0.23145
-0.89686	-0.15492
0.50573	0.40625
1.29628	0.40625
1.37278	0.17668
0.81175	0.48277
0.63323	-0.35899
-0.28482	-0.76711
-0.82036	1.17148
-0.66735	0.25320
0.65874	0.04914
-0.48884	0.30422
2.29084	-0.86914
0.25071	0.15117
-2.42696	0.38074
-0.28482	0.32972
0.86275	-0.12942
0.70974	0.78886
-0.05531	0.02363
0.53123	0.71234
0.78624	-0.33348
0.14870	-0.38449
-0.92237	-0.33348
0.63323	0.45726
0.76074	-0.07840
0.12320	0.66132
-0.43783	0.38074
-0.02981	0.50828
0.40372	0.07465
-0.31033	-0.46102
-0.18282	0.30422
-0.10631	0.20219
0.65874	0.40625
1.14327	-0.15492
0.17421	0.27871
0.30171	0.61031
-0.89686	-0.25695
0.70974	-0.05289
-0.15732	0.12566
-0.66735	0.50828
0.73524	0.17668
0.78624	0.22769
0.22521	0.53379
0.99026	-0.00188
0.88825	-0.20594
-1.12638	0.02363
-2.17195	-0.28246
0.07220	0.12566
1.72980	0.25320
0.53123	0.27871
1.42379	0.25320
-0.66735	-0.12942
-2.14644	0.32972
-0.46334	0.35523
1.34728	0.04914
1.19427	0.02363
0.53123	-0.07840
0.35272	0.50828
-0.10631	-0.35899
-0.23382	0.32972
-0.79486	0.96742
0.12320	1.01843
0.68424	-0.61406
-0.23382	1.45206
0.19971	-1.68539
0.70974	0.27871
0.37822	0.50828
-0.79486	-0.05289
0.17421	0.27871
1.55129	-0.07840
-0.28482	0.50828
-1.40690	-0.20594
0.04670	-0.00188
1.01576	0.27871
1.06676	0.61031
1.24527	0.20219
0.27621	0.07465
-1.20288	-0.18043
-0.56534	-0.33348
0.83725	0.02363
0.37822	-0.23145
0.93925	0.68683
-0.20832	0.63582
-3.34502	0.76336
-0.53984	-0.35899
1.65330	-0.43551
1.52579	-0.15492
1.27078	0.68683
1.11776	0.22769
0.88825	1.47757
-0.23382	-1.07320
-0.08081	0.35523
-0.79486	0.27871
-1.17738	-0.25695
0.02119	0.40625
0.50573	-0.23145
-2.60547	0.30422
-0.31033	0.40625
2.23984	0.78886
1.32178	0.43176
1.67880	-0.25695
0.07220	-0.53754
-1.20288	0.27871
-0.02981	-0.43551
1.09226	0.27871
0.45472	0.43176
-1.04987	0.22769
-0.89686	0.07465
0.04670	0.50828
0.45472	0.53379
0.42922	0.30422
1.01576	0.15117
1.67880	-0.38449
-0.53984	0.30422
-1.53441	0.50828
-0.02981	0.22769
-0.05531	0.22769
0.99026	0.04914
0.42922	-0.43551
1.11776	0.02363
0.37822	-0.30797
-2.68198	0.45726
-1.22839	0.58480
0.70974	-0.00188
1.09226	-0.30797
1.27078	0.38074
1.29628	-0.10391
0.12320	-0.10391
-0.33583	0.32972
-1.61091	0.07465
1.29628	0.17668
0.25071	0.99292
-0.10631	0.15117
0.25071	0.15117
0.22521	-0.10391
-0.89686	-0.58856
-0.15732	0.45726
0.40372	-0.48652
0.42922	-0.10391
0.42922	0.40625
0.12320	0.43176
0.12320	0.35523
0.50573	0.30422
0.63323	0.10015
0.45472	0.48277
0.07220	0.27871
-0.59084	-0.30797
0.02119	0.17668
0.27621	-0.00188
-0.48884	-0.15492
0.65874	0.32972
0.99026	-0.46102
0.30171	0.55929
-0.66735	0.55929
0.35272	0.20219
-0.48884	-0.35899
-0.31033	0.35523
1.27078	0.32972
0.40372	-0.15492
0.17421	0.22769
2.23984	-0.53754
0.40372	-0.10391
-2.17195	0.02363
-1.61091	0.55929
-0.48884	0.73785
1.21977	-0.51203
2.01032	0.04914
-1.71292	0.53379
-0.69285	0.40625
1.14327	0.22769
2.03582	0.17668
0.19971	-0.07840
-0.97337	0.12566
-0.20832	0.02363
0.12320	0.12566
0.07220	0.38074
-0.02981	-0.69059
0.76074	0.32972
0.50573	0.15117
-0.53984	0.40625
-1.17738	0.17668
-0.20832	0.12566
0.81175	0.22769
0.88825	0.17668
0.65874	0.17668
1.29628	0.10015
0.48022	0.04914
-1.63641	0.27871
0.12320	0.78886
0.58223	0.66132
-1.30489	-0.66508
1.16877	0.17668
0.68424	0.07465
1.09226	0.15117
-0.18282	0.10015
-0.20832	-1.12422
0.04670	-0.10391
-0.48884	1.19699
-1.50890	-0.51203
0.70974	0.73785
0.81175	0.50828
0.93925	-0.20594
0.22521	0.20219
-0.18282	0.40625
-0.84586	0.38074
1.24527	-0.15492
0.37822	-0.05289
-0.61635	-0.00188
0.12320	0.15117
0.86275	0.30422
-0.05531	0.02363
-0.89686	0.15117
-0.18282	-0.05289
0.65874	0.68683
0.50573	0.40625
0.40372	-0.00188
0.86275	-0.81812
-0.51434	0.38074
-0.79486	0.83988
0.86275	-0.20594
1.16877	0.32972
-0.18282	0.22769
-1.20288	-0.07840
0.02119	0.32972
-0.08081	0.10015
0.45472	-0.15492
0.40372	0.07465
-0.36133	0.40625
-0.02981	-0.10391
1.42379	0.27871
0.32721	-0.23145
-0.41233	0.96742
-0.28482	0.61031
0.83725	-0.99668
1.24527	0.15117
-0.53984	0.22769
-1.86593	-0.05289
0.04670	0.58480
0.63323	0.35523
0.45472	0.20219
0.76074	-0.28246
-0.28482	0.30422
-0.18282	0.12566
0.14870	0.35523
0.19971	-0.07840
0.60773	-0.28246
-0.00431	-0.07840
-0.51434	1.01843
1.47479	-0.30797
0.32721	-0.41000
-1.45790	0.35523
-0.99887	0.07465
0.60773	0.04914
0.88825	0.20219
1.34728	0.22769
0.83725	-0.05289
0.37822	0.89089
0.19971	-0.76711
-1.91693	0.02363
-0.97337	-0.25695
-0.48884	0.15117
1.01576	0.38074
1.09226	0.61031
0.65874	0.22769
-0.69285	-0.99668
-0.18282	-0.05289
0.25071	0.04914
1.52579	-0.18043
-0.02981	0.27871
-2.37596	0.71234
-0.02981	0.78886
1.11776	-0.66508
0.50573	-0.48652
0.83725	0.07465
0.04670	0.43176
0.14870	0.22769
-0.84586	0.30422
-0.33583	-0.07840
2.03582	-0.23145
-0.28482	0.17668
-1.89143	0.89089
-0.31033	0.15117
1.24527	0.10015
1.75531	0.61031
0.93925	-0.48652
-1.50890	0.04914
-0.94787	0.63582
1.57679	0.12566
1.39828	0.12566
-0.31033	-0.28246
0.14870	-0.02739
0.78624	0.25320
0.60773	-0.12942
-0.48884	0.94191
-0.02981	-0.46102
-0.82036	0.58480
-2.86049	-0.05289
-0.66735	0.63582
0.88825	0.15117
1.16877	-0.25695
2.44385	-0.05289
-0.28482	0.17668
-0.15732	0.30422
1.14327	0.91640
-0.25932	-0.25695
1.11776	0.12566
-0.92237	0.10015
-1.07538	-0.15492
0.02119	0.35523
1.14327	-0.15492
1.32178	-0.35899
-0.15732	0.27871
-1.17738	0.58480
0.32721	1.14597
0.27621	-0.89465
0.27621	0.15117
0.78624	0.02363
-0.25932	-0.30797
-0.79486	0.12566
-0.71835	0.35523
-0.00431	0.68683
1.37278	0.04914
0.30171	0.30422
0.19971	0.38074
0.27621	0.04914
-0.53984	0.40625
0.91375	0.89089
1.80631	-1.30277
-0.59084	0.48277
-2.17195	-0.23145
0.30171	-0.15492
-0.28482	-0.10391
0.60773	0.94191
1.44929	0.07465
0.58223	0.55929
0.53123	0.96742
-0.36133	-0.41000
-0.46334	0.89089
0.45472	0.07465
-0.13181	-0.02739
0.65874	-0.38449
1.16877	0.02363
2.06133	0.02363
-1.94243	-0.07840
-2.19745	0.66132
0.55673	0.50828
1.19427	0.35523
-0.05531	0.25320
-0.56534	0.02363
0.42922	-0.25695
1.62780	0.43176
-0.38683	0.78886
-0.28482	-0.51203
0.48022	0.02363
0.07220	0.10015
-0.15732	0.35523
0.25071	-0.05289
0.40372	0.04914
0.50573	0.12566
-0.02981	-0.05289
0.09770	1.09496
0.40372	-0.28246
-0.66735	-0.10391
-0.71835	0.27871
0.30171	0.53379
0.91375	0.61031
0.09770	0.20219
-0.20832	-0.61406
0.63323	-0.05289
1.16877	0.76336
-1.25389	0.81437
-0.74385	0.02363
0.73524	0.25320
0.63323	0.12566
2.06133	-0.10391
1.34728	-0.30797
-1.45790	0.25320
-1.45790	0.48277
-0.18282	-0.41000
-0.05531	0.20219
0.88825	0.81437
1.01576	-0.69059
-0.13181	-0.46102
-0.02981	0.86539
0.45472	0.63582
0.30171	-0.20594
-0.31033	0.20219
-0.48884	-0.00188
0.91375	0.38074
1.11776	-0.18043
0.35272	0.94191
0.17421	0.71234
-0.53984	-0.12942
-0.36133	0.32972
-0.97337	0.10015
-0.53984	0.15117
0.30171	-0.66508
1.70430	0.50828
0.09770	0.53379
1.11776	0.12566
0.65874	0.35523
-1.40690	0.32972
-0.23382	0.07465
1.04126	0.61031
0.12320	-0.94566
0.25071	-0.38449
1.24527	0.35523
0.70974	0.45726
-0.48884	0.81437
0.02119	0.81437
0.07220	0.35523
0.93925	0.50828
0.65874	0.27871
-0.59084	-0.76711
-1.89143	-0.58856
0.58223	-0.30797
0.35272	0.48277
0.09770	1.04394
-0.28482	0.35523
0.12320	0.30422
0.70974	-0.46102
0.22521	-0.25695
0.58223	0.25320
0.68424	0.27871
2.39285	0.61031
-0.99887	0.30422
-1.58541	0.10015
-0.59084	0.48277
0.73524	0.25320
0.76074	-0.38449
0.42922	-0.38449
0.27621	0.73785
0.81175	0.61031
0.32721	-0.61406
0.02119	0.45726
-0.31033	0.50828
-0.99887	-0.43551
-0.13181	-0.07840
0.68424	0.10015
0.53123	0.61031
0.07220	0.25320
-0.05531	0.15117
0.07220	-0.63957
0.07220	0.07465
-0.48884	0.32972
1.75531	-0.30797
1.52579	0.32972
-1.68742	0.76336
-3.31952	0.76336
-0.36133	0.35523
2.52035	-0.46102
2.36734	0.73785
0.91375	0.61031
-0.10631	0.15117
0.53123	-0.43551
1.14327	0.25320
-1.27939	-0.35899
-0.89686	0.20219
0.17421	0.22769
-1.12638	-0.30797
0.99026	0.12566
-0.51434	0.55929
-1.40690	0.48277
0.40372	0.04914
0.70974	-0.05289
0.83725	-0.15492
0.93925	0.38074
0.07220	0.86539
-0.94787	-0.92016
-0.89686	-0.05289
-0.18282	0.66132
1.21977	0.45726
1.80631	-0.05289
0.53123	0.30422
-1.12638	0.38074
0.12320	-0.63957
0.55673	-0.25695
0.02119	0.15117
0.14870	-0.07840
0.09770	0.76336
-0.41233	0.55929
0.17421	0.25320
-0.25932	0.50828
-0.51434	-0.46102
1.11776	-0.10391
0.50573	-0.10391
1.93382	0.17668
-0.74385	-0.46102
-1.17738	0.40625
0.53123	0.38074
2.16333	0.35523
-0.28482	0.30422
-0.66735	0.10015
-0.56534	0.02363
-0.20832	0.43176
1.72980	-0.18043
0.40372	0.40625
-0.56534	0.04914
-0.46334	0.12566
0.27621	-0.41000
-0.02981	0.12566
0.30171	0.40625
-0.28482	0.71234
0.78624	0.71234
0.99026	-0.46102
-0.00431	-0.63957
-0.84586	0.17668
-0.13181	-0.48652
0.30171	0.45726
-0.41233	0.83988
0.19971	0.66132
2.01032	-0.23145
1.06676	0.04914
-0.66735	-0.02739
-0.48884	0.40625
0.19971	-0.25695
0.65874	0.12566
-0.97337	0.27871
-0.46334	0.78886
-0.05531	-0.61406
1.11776	-0.10391
0.76074	-0.18043
0.22521	-0.12942
-1.20288	0.40625
-0.08081	0.17668
0.32721	0.58480
0.12320	0.94191
1.67880	0.66132
-0.23382	-1.04770
0.40372	-0.05289
1.34728	0.38074
-0.05531	0.02363
0.27621	0.45726
-0.61635	0.02363
-1.17738	0.12566
-1.12638	0.20219
0.53123	0.07465
0.99026	0.04914
-0.28482	0.40625
0.22521	0.10015
0.93925	0.15117
0.65874	0.20219
0.76074	0.25320
-0.13181	0.35523
-1.71292	-0.07840
0.91375	0.43176
0.93925	-0.46102
0.19971	-0.43551
-0.92237	0.27871
-0.56534	0.40625
0.78624	0.17668
0.58223	0.45726
-0.69285	0.22769
0.25071	0.04914
0.35272	-0.12942
0.68424	0.20219
0.19971	0.50828
0.48022	0.27871
-1.35589	0.20219
-0.08081	-0.86914
2.34184	-0.10391
-0.48884	0.83988
-0.99887	0.89089
-0.66735	0.15117
0.78624	-0.28246
-0.13181	0.27871
0.14870	-0.61406
0.22521	-0.35899
0.53123	0.32972
2.03582	0.58480
-0.53984	0.22769
-0.84586	0.32972
-0.10631	-0.23145
0.30171	0.02363
0.60773	0.50828
0.76074	0.76336
0.58223	0.25320
0.25071	-0.10391
-0.18282	-0.15492
0.07220	-0.58856
-0.25932	0.78886
-0.38683	0.15117
0.48022	0.30422
0.27621	-0.63957
-0.76936	0.25320
0.42922	0.63582
1.29628	0.53379
-1.53441	-0.20594
-0.64185	0.04914
-0.25932	0.45726
-0.43783	0.89089
0.99026	-0.74160
1.90832	-1.45582
0.53123	0.07465
0.37822	0.91640
0.78624	1.22250
-0.02981	0.35523
0.76074	-0.12942
-0.18282	-0.51203
-0.89686	0.22769
-0.25932	0.96742
-0.28482	-0.35899
0.37822	0.27871
1.04126	-0.02739
-0.69285	0.55929
-1.27939	-0.48652
1.88281	-0.99668
1.06676	0.38074
-0.97337	0.99292
-1.22839	0.58480
0.07220	0.40625
1.80631	-0.18043
1.88281	0.68683
0.40372	0.07465
1.55129	-0.41000
-0.46334	0.30422
-2.86049	-0.07840
-0.28482	0.02363
0.91375	-0.69059
1.67880	0.45726
0.42922	0.10015
0.78624	0.15117
-0.46334	0.32972
-1.30489	0.22769
0.04670	0.25320
0.48022	-0.38449
-0.51434	0.10015
0.19971	0.45726
0.27621	0.50828
0.50573	0.40625
0.63323	0.38074
-0.20832	0.55929
0.73524	-0.05289
0.50573	0.15117
-0.08081	-0.05289
0.27621	0.12566
-0.08081	0.04914
0.12320	0.35523
0.30171	-0.25695
0.48022	0.50828
0.14870	0.78886
-0.18282	0.17668
-0.18282	-0.53754
-1.25389	-0.07840
-0.53984	0.20219
2.03582	0.40625
-0.08081	0.40625
0.37822	0.38074
2.36734	1.12046
-0.82036	-0.58856
-0.79486	-0.71609
-0.76936	-0.05289
0.86275	0.78886
0.73524	0.53379
0.07220	-0.66508
0.02119	0.71234
-0.82036	0.50828
-0.79486	-0.46102
0.83725	0.30422
0.96476	0.32972
-0.64185	0.15117
-2.27395	-0.76711
-0.20832	0.25320
1.72980	0.66132
1.37278	0.12566
1.06676	0.10015
0.60773	-0.12942
