0.12320	0.32972
0.25071	0.30422
0.30171	0.10015
0.22521	0.17668
0.17421	0.17668
0.12320	0.20219
0.07220	0.12566
0.12320	0.15117
0.14870	0.10015
0.07220	0.10015
0.12320	0.15117
0.30171	0.10015
0.22521	0.12566
0.17421	0.07465
0.17421	0.10015
0.12320	0.12566
-0.00431	0.04914
-0.02981	0.12566
0.12320	0.35523
0.17421	0.20219
0.04670	0.17668
0.27621	0.17668
0.27621	0.17668
0.40372	0.15117
0.27621	0.04914
0.12320	0.07465
0.02119	0.02363
0.02119	-0.00188
-0.13181	0.10015
-0.00431	0.25320
-0.00431	0.25320
-0.18282	0.20219
0.53123	0.15117
0.07220	0.17668
0.14870	0.40625
0.42922	0.07465
0.27621	0.02363
0.22521	0.04914
0.04670	0.15117
0.09770	0.10015
-0.18282	0.25320
0.32721	0.12566
0.14870	0.22769
0.19971	0.20219
0.02119	0.10015
0.22521	0.15117
0.14870	0.15117
0.07220	0.17668
0.04670	0.12566
-0.02981	0.17668
0.12320	0.07465
0.17421	0.17668
0.30171	0.15117
0.32721	0.22769
0.32721	0.20219
0.12320	-0.10391
-0.02981	0.02363
0.04670	0.30422
0.12320	0.15117
0.09770	0.10015
0.09770	0.07465
0.12320	0.17668
0.25071	0.22769
0.37822	0.27871
0.32721	0.15117
0.04670	0.22769
0.17421	0.22769
0.02119	0.10015
0.04670	0.07465
0.12320	0.10015
0.17421	0.17668
0.17421	0.22769
0.22521	0.22769
0.25071	0.25320
0.19971	0.15117
0.09770	0.25320
0.27621	0.20219
0.09770	0.02363
-0.20832	0.04914
0.17421	-0.00188
-0.05531	0.02363
0.14870	0.30422
0.19971	0.22769
0.25071	0.22769
0.25071	0.17668
0.17421	0.12566
0.12320	0.17668
0.12320	0.07465
-0.02981	0.15117
0.14870	0.22769
0.12320	0.25320
0.19971	0.22769
0.22521	0.12566
0.22521	0.10015
0.22521	0.10015
0.12320	0.04914
0.09770	0.02363
0.12320	0.10015
-0.00431	0.04914
-0.08081	0.35523
0.12320	-0.00188
0.14870	0.30422
0.19971	0.35523
0.32721	0.27871
0.35272	0.15117
0.17421	0.20219
0.22521	0.15117
0.12320	0.15117
0.07220	0.10015
0.14870	0.10015
0.12320	0.15117
0.25071	0.15117
0.12320	0.12566
0.12320	0.15117
0.14870	0.07465
-0.00431	0.12566
0.04670	0.17668
0.07220	0.10015
-0.08081	0.25320
0.12320	0.25320
0.14870	0.22769
0.19971	0.20219
0.30171	0.15117
0.25071	0.22769
0.17421	0.04914
0.14870	0.10015
0.07220	0.10015
-0.00431	0.10015
0.09770	0.10015
0.02119	0.15117
0.09770	0.25320
0.27621	0.22769
0.30171	0.10015
0.19971	0.15117
0.14870	0.17668
0.12320	0.17668
0.04670	0.10015
0.12320	0.12566
-0.00431	0.15117
0.09770	0.17668
0.07220	0.17668
0.27621	0.20219
0.17421	0.30422
0.32721	0.07465
0.25071	0.15117
0.19971	0.12566
0.19971	0.07465
0.07220	0.10015
0.17421	0.25320
0.17421	0.15117
0.14870	0.15117
0.22521	0.10015
0.27621	0.12566
0.14870	0.10015
0.19971	0.20219
0.09770	0.20219
0.14870	0.02363
0.02119	0.15117
0.12320	0.15117
-0.00431	0.17668
0.07220	0.17668
0.19971	0.17668
0.19971	0.22769
0.19971	0.04914
0.12320	-0.05289
-0.05531	0.25320
0.19971	0.20219
0.07220	0.27871
0.09770	0.04914
0.09770	0.20219
0.09770	0.15117
0.19971	0.17668
0.27621	0.07465
0.12320	-0.00188
0.17421	0.20219
0.12320	0.22769
-0.15732	0.15117
0.02119	0.20219
0.12320	-0.15492
0.19971	0.07465
0.09770	0.38074
0.27621	0.04914
0.40372	0.32972
0.37822	0.17668
0.17421	0.27871
0.07220	0.04914
0.12320	0.02363
-0.08081	-0.20594
-0.05531	0.15117
-0.00431	0.17668
0.04670	0.25320
0.27621	0.27871
0.25071	0.32972
0.22521	-0.56305
0.17421	0.35523
0.12320	0.27871
0.02119	0.35523
0.14870	0.02363
0.02119	0.25320
0.09770	0.32972
0.17421	0.15117
0.30171	-0.00188
0.19971	0.07465
0.14870	0.15117
0.12320	0.20219
0.22521	0.12566
0.25071	0.25320
0.07220	0.43176
0.09770	-0.35899
0.02119	-0.53754
0.04670	0.22769
-0.05531	0.27871
0.27621	0.27871
0.19971	0.27871
-0.00431	0.20219
-0.18282	0.30422
0.19971	0.22769
0.53123	0.02363
0.40372	0.10015
0.30171	0.30422
-0.08081	0.38074
0.32721	0.15117
-0.23382	0.04914
0.37822	0.04914
0.63323	0.02363
0.50573	0.10015
-0.31033	-0.05289
-0.64185	0.15117
-0.61635	0.15117
0.50573	0.27871
0.48022	0.38074
0.45472	0.12566
-0.36133	0.07465
0.30171	0.30422
1.67880	0.30422
0.37822	-0.18043
-1.22839	-0.02739
-1.33039	-0.02739
-0.18282	0.12566
0.19971	-0.18043
0.12320	0.45726
1.24527	0.55929
1.09226	0.04914
0.09770	-0.02739
-0.43783	0.45726
0.19971	0.32972
0.50573	0.30422
0.91375	-0.15492
0.32721	0.10015
-0.18282	0.25320
-0.69285	0.15117
0.27621	0.04914
0.14870	0.02363
-0.05531	0.07465
-1.35589	0.15117
-0.00431	0.07465
0.93925	0.10015
1.04126	0.30422
0.27621	0.40625
-0.02981	-0.00188
-0.28482	-0.10391
0.60773	-0.02739
0.32721	0.43176
0.17421	0.35523
0.48022	0.25320
-0.89686	0.20219
-0.82036	0.07465
-0.05531	-0.23145
1.24527	0.15117
0.83725	0.45726
1.32178	0.07465
-0.13181	0.27871
-1.04987	-0.05289
-1.12638	-0.05289
1.57679	-0.28246
0.09770	0.07465
-0.89686	0.66132
0.99026	0.35523
0.76074	-0.20594
0.45472	-0.05289
-1.02437	0.30422
0.32721	0.15117
0.14870	0.32972
0.14870	0.38074
-0.10631	0.04914
0.53123	-0.20594
0.32721	0.58480
0.65874	-0.63957
1.21977	0.10015
-0.25932	0.22769
-2.42696	0.35523
-1.50890	0.30422
0.14870	0.07465
1.37278	0.07465
0.04670	0.20219
1.34728	0.17668
1.21977	-0.15492
1.24527	0.40625
-0.05531	0.15117
-0.69285	0.61031
-0.41233	-0.15492
-0.02981	-0.28246
0.22521	0.15117
0.37822	-0.05289
-0.56534	0.48277
-0.48884	0.07465
0.60773	0.38074
0.81175	0.07465
1.24527	-0.33348
-0.05531	0.10015
-0.43783	0.83988
-1.73842	0.25320
-1.45790	-0.63957
-0.74385	0.48277
1.67880	0.32972
2.77537	0.73785
0.73524	-0.05289
0.22521	-0.51203
-1.25389	-0.23145
-0.69285	0.35523
-0.23382	0.25320
1.09226	0.25320
1.04126	0.25320
0.45472	0.40625
0.32721	-0.10391
-0.00431	-0.05289
-0.71835	0.55929
-0.15732	-0.48652
0.78624	-0.53754
0.30171	0.32972
-0.61635	0.20219
-2.86049	0.12566
-2.01894	0.68683
2.03582	0.17668
2.87738	-0.07840
2.13783	-0.15492
0.19971	-0.05289
-1.71292	-0.00188
-2.22295	0.86539
0.02119	-0.00188
0.91375	0.32972
0.35272	-0.00188
1.78081	-0.12942
2.26534	0.04914
0.60773	0.02363
-0.99887	0.27871
-0.33583	0.73785
0.19971	0.04914
-0.41233	-0.51203
-0.36133	-0.51203
-0.59084	0.63582
0.40372	0.27871
0.09770	0.22769
-0.53984	0.61031
0.04670	0.17668
1.29628	0.15117
1.80631	-0.18043
-0.13181	0.12566
-0.71835	0.43176
0.02119	-0.02739
-0.56534	-0.41000
0.04670	0.04914
0.68424	0.35523
0.32721	1.17148
-0.46334	0.04914
-0.71835	-0.43551
1.01576	-0.15492
0.78624	-0.02739
-0.08081	0.22769
0.27621	0.12566
0.48022	0.12566
1.21977	0.27871
0.17421	0.40625
-0.05531	-0.00188
0.73524	-0.43551
1.34728	0.30422
-0.89686	0.25320
-0.76936	0.25320
-0.25932	-0.23145
-0.79486	0.27871
-1.10088	0.22769
-1.22839	0.35523
0.19971	0.30422
0.65874	-0.12942
1.29628	0.02363
1.04126	0.12566
-0.18282	0.15117
-0.02981	-0.12942
0.88825	0.48277
0.70974	0.15117
0.48022	0.45726
-0.38683	-0.05289
-0.38683	-0.07840
-0.15732	-0.15492
0.81175	0.58480
0.99026	-0.05289
0.27621	0.15117
-0.97337	0.68683
-1.20288	0.27871
0.78624	0.15117
0.81175	0.12566
0.48022	0.12566
0.83725	-0.05289
-0.74385	-0.00188
-0.59084	0.25320
0.12320	0.20219
-0.18282	0.15117
-0.10631	-0.25695
0.96476	-0.38449
0.96476	-0.25695
0.48022	0.58480
0.14870	0.76336
0.17421	0.04914
0.09770	0.25320
-0.13181	0.04914
0.58223	-0.33348
0.32721	-0.00188
-1.12638	0.76336
-2.01894	0.12566
0.14870	-0.10391
0.83725	0.10015
0.55673	0.30422
0.65874	0.10015
1.21977	0.12566
0.60773	0.15117
-0.51434	0.25320
-0.18282	0.17668
0.60773	0.04914
-0.94787	0.02363
-1.25389	0.02363
0.48022	0.07465
0.99026	0.17668
0.81175	0.25320
0.53123	0.22769
0.32721	0.32972
0.12320	0.35523
-0.25932	-0.38449
-0.33583	0.07465
0.09770	0.15117
0.02119	0.17668
0.02119	0.30422
0.17421	0.17668
0.30171	0.10015
-0.00431	0.20219
0.02119	0.45726
0.25071	0.04914
0.70974	0.02363
0.50573	-0.15492
-1.40690	0.27871
-1.45790	0.25320
0.81175	-0.20594
0.76074	0.20219
1.29628	0.12566
0.73524	-0.00188
-0.08081	0.38074
0.17421	0.12566
-0.23382	0.22769
-0.71835	0.02363
0.81175	0.27871
0.93925	0.25320
-0.59084	-0.12942
-0.36133	0.07465
0.40372	0.22769
-0.28482	0.45726
-0.48884	0.27871
0.60773	0.02363
1.11776	-0.05289
-0.18282	-0.00188
0.22521	-0.07840
0.55673	-0.07840
-0.25932	0.25320
-1.58541	0.15117
-0.10631	0.17668
1.01576	0.22769
1.04126	0.63582
1.14327	0.25320
-0.33583	0.12566
-0.31033	0.20219
0.12320	0.48277
0.19971	-0.18043
-0.00431	0.15117
0.19971	-0.56305
0.37822	0.32972
0.60773	0.10015
-0.99887	0.45726
-0.23382	0.25320
0.60773	-0.15492
-0.02981	-0.00188
-0.46334	0.12566
0.22521	0.22769
0.17421	0.22769
1.47479	0.25320
1.01576	0.22769
-0.97337	-0.20594
-0.33583	0.22769
0.53123	0.07465
1.09226	-0.30797
0.22521	0.53379
-0.20832	-0.10391
-0.79486	0.00000
-0.15732	0.71234
-0.74385	0.25320
-0.23382	0.30422
1.19427	-0.10391
1.01576	0.04914
1.62780	0.12566
0.65874	-0.05289
-0.41233	0.15117
-1.53441	0.27871
-0.59084	0.02363
-0.05531	0.02363
0.19971	-0.07840
0.58223	0.86539
0.73524	0.61031
0.55673	-0.00188
-0.10631	0.15117
-0.08081	0.02363
0.88825	0.04914
0.40372	-0.18043
-2.73298	0.02363
-1.40690	-0.02739
0.68424	0.22769
1.34728	0.73785
1.09226	0.02363
0.99026	-0.00188
0.88825	-0.18043
1.14327	0.22769
-0.84586	0.20219
-0.31033	0.25320
0.73524	0.20219
0.65874	0.17668
-1.10088	-0.46102
-2.12094	-0.07840
-1.10088	0.50828
1.34728	0.58480
2.29084	0.04914
-0.36133	0.20219
0.12320	0.50828
1.47479	0.32972
2.26534	-0.15492
0.37822	-0.02739
-4.54360	-0.51203
-2.37596	0.45726
0.22521	0.25320
1.85731	0.15117
1.55129	-0.35899
2.39285	-0.41000
1.50029	0.58480
-0.92237	0.38074
-1.58541	0.68683
-1.02437	0.17668
1.85731	0.35523
0.76074	0.17668
-1.55991	0.22769
-1.15188	0.17668
0.99026	-0.07840
0.37822	0.12566
0.78624	-0.05289
1.57679	0.35523
-0.99887	0.20219
-1.25389	-0.18043
-1.04987	-0.10391
3.76993	0.17668
1.75531	0.20219
-2.17195	0.63582
-1.40690	0.07465
1.52579	-0.20594
1.21977	-0.56305
-0.13181	0.12566
0.91375	0.91640
0.04670	0.61031
-0.02981	-0.30797
-0.36133	-0.51203
0.35272	0.55929
1.14327	0.12566
-0.89686	-0.18043
0.04670	0.91640
0.63323	-1.22625
-0.10631	0.02363
0.70974	0.17668
0.58223	1.09496
-1.66191	0.50828
-2.22295	0.58480
-1.10088	-0.02739
0.96476	-0.89465
3.18340	-0.23145
2.13783	-0.07840
-0.33583	0.12566
-0.71835	0.68683
1.42379	0.02363
-0.31033	0.04914
-2.32496	0.40625
0.09770	-0.63957
1.65330	0.45726
1.75531	0.15117
0.93925	0.83988
-2.37596	0.45726
-1.91693	-0.25695
0.32721	-0.00188
1.93382	0.50828
-0.46334	-0.30797
0.93925	-0.35899
1.21977	-0.07840
-0.36133	0.76336
-0.28482	-0.25695
-0.18282	-0.00188
-0.53984	0.35523
1.57679	1.19699
-0.13181	0.38074
-1.35589	-0.07840
0.68424	-0.48652
0.19971	0.04914
-1.96793	0.73785
-0.87136	0.10015
1.06676	-0.28246
1.57679	0.02363
1.70430	0.94191
1.65330	-0.38449
0.40372	0.27871
-1.12638	0.32972
2.11233	-0.05289
-0.89686	-0.00188
-2.80949	-0.35899
0.53123	0.43176
0.93925	0.27871
0.14870	0.55929
1.93382	0.91640
1.55129	-0.61406
-1.20288	-0.53754
-2.45246	0.22769
-1.43240	0.55929
0.83725	0.25320
2.31634	-0.35899
1.65330	0.20219
0.83725	-0.00188
-0.08081	-0.18043
-0.13181	0.35523
-1.43240	0.48277
0.07220	0.12566
0.37822	0.22769
0.76074	-0.79262
0.04670	-0.00188
0.19971	0.40625
-0.18282	0.22769
2.36734	0.10015
0.17421	-0.02739
-3.57454	0.58480
-5.18114	-0.69059
2.82638	-0.07840
2.36734	0.38074
0.60773	0.63582
0.88825	-0.07840
0.60773	0.76336
0.22521	-0.05289
1.04126	0.15117
0.73524	1.24800
0.78624	0.22769
0.78624	0.27871
0.17421	-0.20594
-0.69285	-0.81812
-0.53984	-0.33348
-0.20832	0.20219
-0.74385	0.27871
-1.02437	0.48277
0.68424	-0.12942
0.12320	-0.18043
-1.25389	0.15117
-1.38139	0.22769
0.88825	0.76336
1.60230	0.32972
1.14327	0.68683
2.16333	-0.53754
-0.43783	-0.05289
-0.71835	-0.00188
0.17421	0.63582
0.55673	0.53379
1.32178	-0.10391
0.88825	0.53379
-0.15732	-0.25695
-1.22839	0.04914
0.22521	0.15117
0.22521	-0.07840
0.07220	-0.46102
0.17421	0.20219
-0.18282	0.35523
-0.92237	0.27871
0.48022	0.53379
0.93925	0.43176
-1.27939	-0.07840
-0.43783	0.10015
-0.69285	-0.23145
0.73524	-0.05289
2.46935	0.12566
2.16333	-0.28246
-1.91693	-0.07840
-3.70204	0.25320
-1.10088	0.32972
2.59686	-0.12942
3.03039	0.35523
1.21977	0.61031
-0.31033	0.02363
-0.38683	-0.02739
0.19971	0.35523
0.04670	0.27871
-0.02981	0.27871
-0.08081	0.76336
-0.41233	0.66132
-0.36133	-0.89465
-0.41233	-0.56305
0.50573	0.32972
0.99026	-0.51203
-0.02981	0.40625
-1.43240	1.04394
-1.12638	-0.05289
1.67880	0.32972
1.34728	0.30422
-0.51434	0.10015
0.22521	0.35523
0.88825	-0.20594
-0.64185	0.20219
0.07220	0.35523
1.90832	-0.23145
0.50573	0.07465
-1.63641	-0.25695
-1.25389	0.38074
1.80631	-0.00188
1.34728	0.25320
-0.56534	0.22769
0.07220	0.32972
-1.61091	-0.12942
0.25071	0.38074
1.75531	0.73785
1.83181	-0.76711
-2.06994	0.30422
-1.91693	0.15117
0.91375	-0.15492
2.46935	0.25320
-0.48884	0.38074
-2.88599	0.32972
0.42922	-0.38449
1.90832	0.81437
1.78081	0.35523
0.76074	-0.33348
-0.53984	-0.48652
0.30171	0.02363
-0.31033	0.76336
0.17421	0.53379
0.53123	0.15117
1.44929	0.63582
-2.98800	-0.69059
-3.31952	0.22769
0.32721	-0.10391
2.54586	-0.10391
1.62780	0.07465
-1.20288	0.25320
-1.40690	1.35003
-0.53984	-0.92016
1.70430	-0.33348
1.80631	0.17668
0.93925	0.58480
-0.43783	0.04914
-0.13181	0.99292
2.21434	0.40625
-1.63641	-0.05289
-1.89143	-0.71609
0.07220	-0.10391
0.53123	0.15117
2.01032	0.61031
1.44929	-0.33348
-0.82036	0.22769
0.53123	0.17668
-0.28482	0.12566
-2.52897	0.40625
-0.89686	0.63582
1.19427	0.25320
0.91375	0.30422
0.96476	-0.23145
0.70974	0.22769
-0.10631	-0.51203
0.12320	-0.41000
0.17421	-0.28246
0.07220	0.61031
0.32721	0.07465
1.06676	-0.28246
-0.28482	-0.41000
-0.08081	0.91640
1.16877	0.20219
0.14870	0.53379
-1.50890	0.61031
-0.15732	0.12566
0.68424	0.71234
0.07220	0.68683
-1.43240	0.38074
-0.28482	-0.46102
0.76074	-0.56305
1.14327	-0.07840
0.81175	-0.35899
1.09226	-0.48652
1.37278	0.43176
-0.00431	0.50828
-1.22839	0.50828
0.58223	0.53379
1.47479	-0.18043
-1.12638	-0.28246
-2.22295	0.68683
-1.04987	0.17668
0.63323	0.40625
1.14327	-0.23145
1.16877	0.25320
-0.13181	0.55929
-0.94787	0.35523
0.76074	-0.35899
1.95932	0.30422
0.63323	0.02363
-0.43783	0.45726
-0.71835	-0.25695
-0.48884	0.17668
1.14327	0.10015
0.93925	0.35523
-1.35589	0.07465
-1.12638	0.20219
2.72437	0.02363
0.09770	-0.15492
-2.80949	0.73785
-0.74385	-0.30797
1.14327	-0.02739
1.52579	0.48277
1.90832	-0.38449
0.96476	-0.10391
-0.92237	-0.23145
-0.99887	0.58480
0.45472	0.68683
-1.43240	0.22769
-0.31033	1.06945
0.48022	0.15117
0.93925	-0.53754
1.11776	0.04914
-0.23382	0.10015
-0.92237	0.27871
1.24527	-0.38449
1.65330	-0.53754
0.53123	0.89089
-0.99887	0.27871
0.09770	0.50828
1.44929	0.58480
0.14870	-0.12942
-2.24845	0.22769
-1.20288	0.32972
1.01576	-0.07840
0.65874	-0.25695
1.32178	-0.25695
-0.05531	0.25320
0.22521	0.02363
-0.84586	0.71234
0.55673	0.35523
1.62780	-0.56305
1.85731	0.45726
-1.43240	0.43176
-2.70748	-0.35899
-1.15188	0.22769
0.78624	0.27871
0.09770	0.63582
1.44929	0.66132
0.45472	0.10015
-0.02981	-0.12942
1.01576	-0.71609
0.78624	-0.56305
-1.30489	-0.02739
-0.31033	0.86539
0.76074	0.78886
1.11776	0.30422
0.73524	0.66132
-1.04987	0.20219
-1.17738	0.58480
0.73524	-0.05289
1.70430	-0.71609
-1.68742	-0.23145
-3.39602	-0.46102
-0.31033	0.32972
2.06133	0.63582
-0.10631	0.63582
0.86275	0.32972
2.41835	-0.28246
1.57679	0.20219
0.07220	0.04914
0.48022	0.07465
0.73524	0.81437
-0.74385	-0.35899
-1.50890	-0.35899
-0.15732	0.61031
0.63323	0.20219
0.35272	0.48277
0.88825	0.25320
0.19971	-0.10391
-1.71292	0.17668
-1.73842	0.04914
0.68424	0.71234
0.73524	0.17668
0.37822	-1.02219
1.42379	-0.05289
2.39285	0.40625
-0.82036	0.04914
-1.50890	0.04914
1.34728	0.58480
0.37822	-0.05289
-2.01894	-0.48652
-1.07538	0.04914
1.75531	0.45726
1.72980	1.42656
0.17421	-0.56305
-0.38683	-0.07840
-0.25932	0.17668
0.40372	0.22769
0.60773	0.15117
0.37822	0.61031
-0.02981	-0.18043
-0.64185	0.17668
-0.59084	0.17668
0.78624	-0.35899
-0.36133	0.38074
-0.13181	0.30422
0.07220	-0.10391
-1.10088	0.32972
-0.33583	0.20219
1.34728	-0.02739
1.52579	-0.00188
-0.02981	0.66132
0.35272	-0.18043
1.04126	-0.15492
-0.46334	0.76336
-0.84586	0.10015
0.09770	0.73785
1.95932	-0.89465
1.04126	-0.05289
-1.07538	0.45726
-2.24845	0.73785
0.50573	0.20219
1.11776	-0.15492
0.73524	0.07465
1.01576	-0.35899
-0.41233	0.20219
-0.31033	0.40625
-0.87136	0.78886
-0.08081	0.35523
1.21977	0.27871
-0.05531	-0.00188
-1.10088	-0.02739
0.04670	-0.38449
0.76074	-0.48652
-0.48884	0.25320
-0.28482	0.25320
0.76074	0.30422
1.21977	0.20219
-0.10631	0.15117
0.07220	0.55929
0.48022	0.83988
-0.13181	0.20219
0.53123	-0.74160
-0.33583	-0.43551
-0.89686	0.10015
-0.10631	1.01843
1.01576	0.63582
1.57679	-0.28246
-0.71835	-0.25695
-0.15732	0.07465
-0.13181	0.61031
1.50029	-0.12942
-0.05531	0.22769
-0.84586	0.17668
-0.33583	0.45726
0.48022	0.86539
0.17421	-0.51203
-0.23382	-0.12942
1.78081	-0.10391
-0.05531	-0.07840
-1.84042	0.07465
-0.66735	0.40625
0.78624	0.38074
0.73524	0.15117
0.53123	0.48277
0.14870	-0.35899
1.19427	0.30422
0.22521	0.35523
-0.74385	0.58480
0.50573	-0.00188
0.45472	-0.28246
-0.66735	-0.00188
1.44929	0.10015
0.14870	0.94191
-1.91693	-0.30797
-2.17195	-0.35899
1.95932	0.15117
2.16333	0.35523
0.58223	0.35523
-0.25932	-0.58856
0.86275	0.40625
0.07220	0.71234
-0.61635	0.35523
-0.43783	0.04914
-0.02981	0.10015
0.32721	0.40625
-0.08081	0.17668
-1.20288	-0.18043
-0.59084	0.35523
-0.08081	-0.38449
0.63323	-0.48652
1.01576	0.20219
1.06676	0.27871
1.88281	0.25320
0.76074	0.38074
-0.43783	0.66132
-3.03900	0.25320
-1.43240	0.30422
1.01576	0.40625
0.86275	-1.25176
0.91375	0.58480
0.35272	0.32972
1.04126	0.12566
0.35272	-0.20594
0.45472	0.10015
-0.02981	0.15117
-0.51434	0.55929
-1.73842	-0.23145
-0.71835	0.50828
0.30171	0.07465
0.73524	0.04914
1.75531	0.30422
1.06676	0.10015
-1.50890	0.22769
1.32178	-0.12942
-0.79486	0.04914
-2.04444	-0.00188
0.02119	0.35523
1.37278	0.38074
1.60230	-0.00188
0.09770	0.15117
-0.00431	0.27871
0.83725	-0.05289
0.93925	-0.30797
1.24527	0.63582
-0.46334	0.66132
0.48022	-0.12942
0.53123	0.86539
-3.44703	-0.48652
-3.19201	-0.35899
-0.23382	0.22769
1.39828	0.07465
2.16333	0.73785
1.55129	0.04914
1.34728	0.53379
0.86275	-0.12942
-1.02437	0.15117
-1.86593	0.27871
0.27621	0.30422
1.24527	1.01843
0.68424	-0.53754
0.25071	-0.07840
0.91375	0.53379
0.42922	-0.00188
-1.50890	0.32972
-1.53441	0.25320
0.96476	-0.10391
-0.92237	0.96742
-0.79486	-1.22625
0.81175	-1.30277
1.04126	0.61031
1.75531	1.04394
0.68424	0.30422
-0.92237	0.86539
-0.36133	0.48277
1.98482	-0.23145
1.11776	0.15117
-0.69285	0.35523
-1.07538	-0.18043
0.30171	0.45726
-0.64185	-0.81812
-1.30489	0.53379
0.68424	0.04914
1.27078	-0.05289
1.09226	-0.05289
-0.25932	0.50828
-0.36133	-0.20594
0.17421	0.10015
0.27621	-0.23145
1.60230	0.04914
-0.36133	0.20219
-0.61635	0.55929
-0.20832	0.45726
-0.71835	-0.05289
0.50573	0.53379
0.53123	-0.25695
0.19971	0.81437
-1.43240	-0.18043
-0.79486	-0.00188
0.19971	0.48277
2.52035	-0.61406
2.06133	0.45726
0.12320	0.10015
0.30171	0.15117
-1.02437	0.22769
-0.13181	0.12566
0.22521	-0.12942
0.19971	0.17668
0.30171	0.15117
-0.00431	0.25320
-0.20832	-0.15492
0.32721	0.94191
-0.38683	-0.23145
-1.22839	-0.38449
0.63323	-0.33348
1.34728	0.96742
-0.36133	-0.23145
1.67880	-0.61406
-0.79486	-0.05289
-0.41233	0.22769
-1.40690	0.73785
1.21977	0.76336
1.52579	0.30422
-0.69285	0.12566
-0.61635	-0.25695
-0.13181	0.58480
0.22521	-0.92016
1.11776	0.86539
0.65874	-0.63957
0.81175	0.10015
0.53123	0.73785
0.19971	0.48277
-0.69285	0.35523
-0.64185	-0.48652
-0.84586	-0.18043
-0.28482	0.61031
0.07220	0.20219
0.12320	0.32972
0.45472	-0.02739
0.25071	0.25320
-0.43783	0.25320
0.53123	-0.15492
1.24527	-0.25695
-0.87136	-0.30797
-0.71835	0.45726
-0.18282	0.81437
0.83725	-0.28246
0.73524	-0.15492
-0.25932	0.07465
0.30171	0.22769
1.14327	0.32972
0.86275	-0.00188
0.58223	0.30422
-0.99887	0.45726
-0.66735	-0.48652
-0.13181	0.10015
0.37822	0.76336
0.45472	0.20219
-0.08081	-0.35899
0.68424	0.30422
-0.61635	0.20219
-1.40690	0.40625
-0.41233	-0.30797
1.50029	-0.28246
1.39828	0.10015
-0.20832	0.40625
-0.59084	0.50828
1.04126	0.94191
0.14870	0.04914
0.09770	0.07465
-0.05531	0.17668
0.53123	-0.00188
0.58223	0.40625
0.68424	0.35523
-0.51434	0.17668
-0.64185	0.04914
-0.13181	-0.02739
1.95932	0.10015
0.25071	-0.12942
-1.91693	-0.00188
-1.25389	1.12046
1.52579	-0.46102
1.47479	-0.10391
-0.79486	0.40625
-0.82036	0.04914
1.14327	0.10015
0.86275	0.20219
1.32178	0.20219
0.32721	0.35523
-0.71835	0.61031
-0.13181	0.07465
0.81175	-0.43551
0.53123	0.25320
-0.23382	0.10015
-1.20288	-0.05289
-2.52897	-0.10391
0.53123	0.15117
0.81175	0.35523
0.78624	0.48277
0.73524	-0.12942
1.75531	-0.02739
1.01576	0.35523
-0.99887	0.38074
-1.17738	0.15117
0.27621	-0.25695
0.60773	0.40625
1.21977	1.04394
0.96476	-0.25695
0.12320	-0.69059
-1.76392	0.43176
-1.94243	0.10015
-0.18282	-0.12942
1.42379	0.48277
1.70430	-0.12942
0.86275	0.10015
-0.61635	-0.51203
-0.69285	-0.00188
-0.97337	0.63582
0.68424	0.71234
0.17421	0.35523
1.04126	0.32972
0.53123	-0.15492
0.37822	-0.15492
0.12320	0.12566
0.73524	0.50828
0.12320	-0.05289
-1.17738	0.66132
-2.37596	-0.61406
0.58223	0.20219
1.06676	0.20219
0.76074	0.40625
0.63323	-0.15492
0.83725	-0.20594
0.93925	-0.00188
-1.35589	0.10015
-1.43240	0.61031
0.73524	-0.48652
-0.31033	0.02363
-1.04987	0.25320
2.18883	0.58480
1.98482	0.07465
0.19971	-0.48652
-0.76936	0.04914
-0.48884	-0.00188
-1.12638	0.15117
-0.15732	0.61031
0.55673	0.38074
0.60773	-0.38449
0.42922	-0.20594
0.60773	0.02363
0.09770	-0.41000
0.12320	0.35523
-0.08081	0.50828
-0.20832	0.40625
-0.38683	-0.20594
1.24527	-0.02739
0.25071	-0.23145
-0.61635	0.48277
-2.14644	0.38074
0.22521	0.50828
1.55129	0.50828
2.85188	0.32972
-1.43240	-0.30797
-0.69285	0.35523
-0.23382	-0.51203
-0.41233	-0.20594
0.27621	-0.00188
0.58223	0.66132
0.86275	0.15117
2.39285	0.40625
0.99026	0.15117
-1.38139	0.55929
-0.89686	-0.10391
0.04670	0.71234
0.09770	-0.58856
0.86275	-0.69059
0.32721	0.22769
0.58223	0.43176
0.78624	0.45726
-0.97337	0.53379
-1.61091	0.35523
-0.25932	0.73785
1.67880	-0.99668
0.86275	0.12566
-1.17738	-0.15492
-1.02437	-0.58856
0.22521	0.76336
-0.10631	-0.38449
2.31634	1.47757
0.27621	0.30422
0.07220	0.25320
0.35272	0.10015
0.93925	-0.07840
1.27078	-0.28246
-0.41233	-0.30797
0.22521	0.76336
0.63323	0.73785
-1.33039	0.02363
-1.48340	0.38074
-0.48884	-0.00188
0.19971	0.43176
0.76074	0.10015
1.34728	-0.12942
1.16877	-0.51203
1.85731	0.20219
1.78081	0.32972
0.14870	0.66132
-3.98256	-0.38449
-2.96250	0.30422
0.04670	-0.28246
1.55129	-0.23145
1.88281	0.63582
-0.43783	0.20219
0.48022	0.61031
0.65874	-0.00188
0.73524	0.17668
0.17421	0.25320
-0.71835	0.30422
-0.41233	0.17668
0.76074	0.25320
0.19971	-0.69059
-0.08081	0.22769
0.32721	-0.00188
0.40372	-0.07840
1.09226	0.25320
-0.76936	0.43176
-1.07538	0.53379
0.63323	0.20219
0.14870	-0.25695
0.12320	0.53379
0.27621	-0.28246
0.09770	-0.12942
0.48022	0.35523
0.68424	0.30422
0.04670	0.22769
0.45472	0.15117
0.45472	-0.00188
0.30171	0.66132
-0.82036	0.15117
-0.36133	0.15117
-0.79486	-0.20594
0.83725	-0.18043
1.11776	0.55929
-1.53441	-0.02739
-2.35046	0.66132
0.22521	-0.81812
2.06133	0.15117
1.72980	-0.41000
1.32178	-0.02739
0.76074	0.86539
0.81175	0.02363
-0.71835	-0.02739
-0.28482	0.43176
-0.13181	0.02363
-0.13181	0.30422
-0.48884	-0.15492
-0.10631	0.40625
0.19971	0.07465
0.12320	0.15117
0.68424	0.32972
-0.41233	-0.05289
-0.66735	0.17668
-0.46334	0.86539
0.88825	-0.35899
0.88825	-0.86914
0.68424	0.12566
0.42922	0.35523
0.27621	0.35523
0.22521	0.07465
0.22521	0.43176
0.12320	0.53379
0.14870	0.12566
0.07220	0.04914
0.93925	0.10015
-0.99887	0.15117
-0.82036	0.12566
-0.13181	0.38074
-0.69285	0.45726
-0.28482	-0.46102
2.06133	-0.20594
-0.43783	1.06945
-0.89686	-0.41000
1.04126	0.10015
1.37278	0.04914
0.68424	0.12566
0.07220	0.71234
-0.05531	-0.38449
0.48022	0.02363
-0.38683	0.58480
-0.48884	0.30422
-0.64185	0.10015
1.01576	0.25320
0.30171	0.20219
-0.18282	-0.56305
-0.18282	0.53379
0.50573	0.17668
0.14870	0.38074
0.17421	0.43176
0.02119	-0.69059
0.02119	-0.18043
0.40372	0.25320
0.78624	0.45726
0.63323	0.30422
0.22521	0.78886
-0.23382	-0.02739
-0.43783	-0.18043
-0.59084	0.15117
-0.00431	-0.30797
1.72980	0.04914
1.50029	0.63582
-1.63641	1.60511
-2.78398	-0.35899
0.17421	-0.05289
1.88281	0.17668
0.32721	-0.66508
0.40372	-0.46102
1.09226	0.30422
0.35272	0.50828
-0.15732	0.43176
0.48022	0.81437
-0.51434	-0.02739
0.07220	0.22769
0.35272	0.53379
0.27621	-0.02739
0.27621	0.12566
0.68424	0.04914
0.04670	0.04914
0.17421	-0.07840
-0.94787	0.07465
-0.87136	0.45726
-1.10088	0.89089
-0.25932	-0.33348
0.55673	-0.23145
2.46935	-0.15492
0.86275	0.17668
-0.02981	0.43176
-0.00431	0.27871
1.24527	0.22769
-0.10631	-0.33348
0.14870	0.02363
1.34728	-0.30797
-0.43783	0.45726
-1.25389	0.50828
-0.23382	0.73785
-1.10088	-1.22625
-0.53984	0.22769
-0.00431	0.17668
0.55673	0.30422
0.88825	0.35523
1.27078	0.10015
0.40372	-0.12942
-0.53984	-0.07840
-0.33583	0.10015
0.55673	0.55929
0.45472	-0.00188
0.48022	0.22769
0.86275	0.35523
-1.17738	-0.25695
-0.56534	0.45726
-0.00431	0.50828
0.42922	0.02363
0.73524	0.12566
-0.13181	-0.00188
-0.00431	-0.05289
0.88825	0.27871
0.70974	0.02363
0.55673	0.25320
-0.79486	-0.25695
-1.43240	0.53379
-0.00431	-0.20594
1.60230	0.10015
1.55129	0.50828
-1.02437	0.20219
-0.43783	-0.05289
-0.23382	0.02363
0.07220	0.02363
0.12320	0.40625
0.22521	0.73785
0.45472	-0.66508
0.09770	0.10015
0.04670	-0.18043
0.83725	0.53379
1.44929	0.66132
0.04670	-0.20594
-1.30489	0.35523
-0.99887	0.50828
0.02119	0.22769
0.76074	0.20219
0.68424	0.15117
0.76074	0.02363
0.40372	0.15117
0.02119	-0.07840
-0.13181	0.17668
0.30171	0.12566
0.68424	-0.23145
-0.10631	0.25320
-1.58541	-0.00188
0.09770	0.25320
0.27621	0.04914
0.96476	0.32972
-0.28482	0.22769
-0.51434	0.10015
0.76074	0.20219
0.02119	0.02363
0.63323	0.22769
0.76074	0.15117
0.50573	0.25320
0.60773	0.32972
0.45472	-0.00188
-0.46334	0.17668
-0.46334	0.02363
0.73524	-0.07840
0.40372	0.58480
-1.20288	-0.89465
-0.97337	0.30422
1.55129	0.55929
-0.94787	-0.05289
-1.61091	0.04914
0.99026	0.68683
2.49485	0.35523
0.48022	-0.15492
-0.15732	-0.18043
0.30171	0.83988
0.86275	-0.12942
-0.13181	-0.25695
-0.33583	-0.00188
-0.33583	0.30422
0.27621	0.30422
0.78624	0.43176
0.19971	0.20219
-0.79486	0.17668
-1.12638	0.27871
1.01576	-0.00188
0.78624	-0.15492
-0.05531	0.40625
-0.87136	-0.15492
-0.53984	-0.12942
0.73524	0.12566
0.99026	0.32972
0.88825	0.30422
0.58223	0.15117
0.73524	0.20219
-0.48884	-0.18043
-1.17738	0.04914
-0.28482	-0.15492
1.42379	0.50828
-0.53984	0.22769
-0.84586	0.40625
0.50573	0.45726
0.81175	-0.12942
1.60230	1.04394
0.30171	-0.66508
-1.12638	0.45726
-1.68742	0.02363
-0.10631	0.17668
0.91375	0.07465
1.50029	-0.02739
0.73524	0.22769
-0.33583	-0.12942
0.12320	0.27871
0.60773	0.66132
-0.41233	0.45726
-0.13181	0.04914
0.17421	-0.30797
0.14870	0.30422
0.73524	-0.23145
0.53123	-0.02739
-0.94787	-0.02739
-1.94243	0.45726
-0.10631	0.66132
0.63323	0.30422
0.86275	0.30422
0.73524	-0.02739
-0.28482	-0.43551
0.17421	-0.15492
1.04126	-0.35899
0.48022	1.12046
0.50573	0.45726
0.25071	-0.28246
-0.33583	0.10015
0.76074	-0.18043
0.63323	0.38074
-0.84586	0.78886
-2.04444	0.40625
0.19971	0.04914
0.65874	-0.76711
0.88825	0.10015
0.40372	0.38074
-0.76936	0.07465
0.02119	0.20219
-0.28482	0.17668
0.58223	-0.05289
0.93925	-0.02739
1.44929	0.35523
0.73524	0.17668
-0.48884	0.50828
-0.59084	-0.86914
-1.02437	-0.33348
-0.28482	0.45726
0.12320	0.17668
0.04670	0.58480
0.99026	0.27871
0.48022	-0.02739
0.48022	-0.10391
0.04670	0.45726
1.14327	0.27871
0.60773	0.12566
-0.99887	0.17668
-0.28482	0.15117
0.09770	-0.20594
0.22521	0.02363
0.35272	0.27871
-0.20832	0.27871
-0.41233	-0.18043
1.19427	-0.15492
-0.48884	0.07465
-1.30489	0.32972
-0.15732	0.83988
0.81175	0.10015
1.29628	0.53379
0.96476	-0.97117
0.73524	0.50828
0.37822	0.02363
-0.41233	0.22769
0.02119	0.32972
0.76074	0.15117
-0.82036	0.30422
-0.15732	0.38074
1.14327	0.30422
-0.25932	0.32972
-0.76936	-0.18043
0.09770	-0.33348
0.32721	-0.12942
0.83725	-0.02739
-0.23382	0.04914
-0.99887	0.50828
-0.33583	0.86539
0.88825	-0.15492
0.70974	-0.07840
-0.05531	-0.02739
0.65874	0.12566
0.58223	0.20219
1.55129	0.04914
-0.18282	-0.07840
0.37822	0.17668
-1.33039	-0.20594
-0.76936	0.32972
0.32721	0.20219
0.91375	0.25320
0.63323	0.73785
0.19971	-0.28246
-0.05531	0.20219
0.07220	0.15117
0.07220	0.48277
0.14870	-0.76711
-0.02981	0.04914
0.35272	0.07465
0.81175	0.61031
0.25071	-0.10391
-1.07538	0.53379
-1.76392	0.35523
0.07220	-0.00188
2.11233	-0.05289
1.95932	0.15117
-0.13181	0.12566
-0.66735	0.50828
0.09770	0.99292
0.99026	0.15117
-0.28482	-0.25695
-0.23382	-0.56305
0.32721	0.38074
0.81175	0.02363
0.07220	-0.02739
-0.43783	-0.12942
-0.59084	0.30422
-0.38683	0.10015
0.37822	-0.00188
0.81175	0.55929
0.99026	0.50828
0.27621	0.32972
0.02119	0.04914
-0.20832	-0.20594
-0.10631	0.20219
0.09770	0.38074
-0.02981	-0.05289
0.22521	0.55929
0.53123	-0.07840
-0.13181	-0.00188
0.07220	0.04914
0.70974	0.04914
-1.07538	0.12566
-0.89686	0.25320
0.45472	0.04914
1.14327	0.22769
0.78624	0.55929
0.58223	-0.12942
0.78624	-0.05289
-0.10631	0.02363
-0.76936	0.32972
0.07220	0.25320
0.12320	0.27871
0.53123	-0.25695
-0.74385	0.02363
-0.08081	0.58480
0.07220	-0.28246
0.40372	0.30422
1.72980	-0.12942
-0.18282	-0.07840
-2.83499	0.12566
-2.14644	0.58480
1.09226	0.15117
1.83181	-0.38449
1.83181	0.45726
-0.33583	-0.25695
0.27621	0.32972
0.19971	-0.12942
-0.41233	0.30422
0.60773	0.48277
0.22521	0.02363
0.07220	0.20219
0.35272	-0.30797
0.22521	0.20219
-0.23382	0.15117
0.53123	0.45726
0.78624	0.27871
-0.82036	0.50828
-2.24845	0.40625
0.02119	-0.61406
0.65874	-0.07840
0.96476	0.22769
0.88825	0.12566
0.19971	0.20219
-0.02981	0.40625
1.06676	0.50828
-0.28482	-0.25695
-1.12638	0.10015
-0.46334	0.07465
1.29628	0.48277
0.81175	-0.07840
1.09226	-0.07840
0.53123	-0.00188
-1.20288	0.66132
-0.84586	0.17668
0.42922	-0.02739
0.70974	-0.63957
-0.13181	-0.12942
0.09770	0.15117
-0.15732	0.30422
1.24527	0.53379
1.34728	0.45726
-0.76936	0.30422
-1.30489	-0.07840
-0.15732	0.15117
0.73524	0.35523
1.04126	0.30422
0.70974	0.12566
1.04126	0.22769
-0.89686	-0.15492
-1.22839	-0.12942
-0.94787	0.25320
0.78624	0.04914
1.24527	-0.10391
1.24527	-0.02739
-0.23382	0.22769
-0.33583	0.30422
0.07220	0.15117
0.76074	0.45726
0.14870	0.38074
-0.10631	0.04914
-0.00431	0.63582
0.60773	-0.43551
0.76074	0.17668
-0.51434	0.07465
-0.18282	0.22769
0.53123	-0.18043
-0.05531	0.22769
-0.94787	0.76336
-0.31033	0.17668
1.09226	-0.33348
0.55673	0.04914
-0.89686	0.53379
-0.15732	-0.00188
1.55129	0.35523
0.73524	-0.48652
-0.76936	0.30422
0.12320	-0.25695
0.35272	-0.00188
0.32721	0.53379
-0.66735	0.43176
0.09770	-0.07840
1.09226	0.50828
0.48022	0.50828
0.42922	-0.25695
1.06676	-0.10391
0.12320	0.10015
-1.43240	0.02363
-2.01894	-0.15492
-0.18282	0.30422
1.14327	0.94191
0.40372	0.15117
1.44929	0.53379
1.29628	0.02363
-0.25932	-0.07840
-1.04987	-0.20594
0.27621	0.38074
0.81175	0.61031
-0.10631	0.10015
-0.20832	-0.23145
-0.02981	0.27871
-0.46334	-0.41000
1.39828	0.50828
1.93382	0.25320
-0.48884	0.38074
-3.54903	0.15117
0.63323	0.12566
2.18883	0.25320
0.58223	0.22769
-1.04987	0.40625
0.12320	-0.05289
0.40372	0.07465
-0.02981	-0.00188
0.93925	0.25320
0.99026	-0.28246
0.40372	-0.18043
0.32721	0.25320
-0.31033	-0.02739
-0.23382	0.45726
0.19971	0.12566
-0.13181	0.07465
-0.15732	0.50828
-0.38683	0.53379
-0.18282	0.07465
-0.46334	-0.53754
-0.20832	0.55929
0.73524	0.04914
0.53123	-0.28246
0.07220	0.35523
0.32721	0.30422
1.27078	0.30422
0.35272	0.07465
0.73524	0.35523
0.09770	0.40625
-0.18282	0.12566
-0.23382	-0.30797
-0.79486	-0.35899
-1.38139	0.22769
-0.69285	0.32972
0.91375	0.12566
1.85731	0.07465
0.93925	0.25320
-0.13181	0.38074
-1.38139	0.07465
0.27621	0.43176
0.78624	0.32972
0.96476	0.10015
-0.33583	-0.18043
-0.15732	-0.20594
0.55673	0.22769
0.53123	0.02363
-0.08081	0.27871
-0.28482	0.63582
-1.63641	-0.00188
0.14870	-0.12942
-0.00431	0.22769
-0.02981	0.55929
0.58223	-0.28246
1.21977	-0.15492
0.40372	0.20219
-0.33583	0.02363
0.55673	-0.02739
0.17421	0.27871
0.14870	0.25320
0.35272	0.68683
1.16877	-0.81812
1.14327	0.53379
-0.38683	0.22769
-2.88599	0.27871
-0.18282	-0.25695
0.86275	-0.23145
0.91375	0.58480
0.58223	-0.18043
0.91375	-0.00188
-0.79486	-0.35899
-1.10088	0.53379
-0.38683	0.68683
1.11776	-0.02739
1.06676	0.89089
0.78624	-0.69059
0.32721	0.02363
0.83725	-0.05289
0.04670	0.50828
0.12320	0.02363
-0.61635	-0.12942
-1.91693	0.22769
-1.84042	0.10015
0.50573	0.32972
1.19427	0.22769
0.88825	0.32972
0.50573	0.15117
0.27621	0.32972
-0.31033	-0.15492
0.48022	-0.05289
0.30171	0.02363
-0.13181	0.20219
0.78624	-0.02739
1.32178	-0.00188
0.12320	0.15117
0.09770	0.40625
-0.66735	0.63582
-0.74385	0.12566
-0.20832	-0.12942
0.37822	-0.28246
-0.02981	-0.00188
0.07220	0.66132
0.09770	0.10015
0.70974	0.12566
-0.41233	0.43176
0.88825	0.12566
0.96476	-0.10391
0.99026	-0.05289
-1.48340	0.35523
-2.09544	0.10015
-0.56534	0.15117
1.09226	-0.41000
1.55129	0.27871
0.91375	0.15117
0.35272	0.12566
0.88825	0.76336
0.88825	-0.28246
0.07220	0.53379
-0.59084	0.32972
-1.40690	0.02363
-1.68742	-0.10391
-0.02981	0.45726
0.91375	-0.20594
0.32721	-0.25695
0.48022	0.25320
0.60773	0.61031
0.73524	0.20219
1.11776	0.40625
0.17421	-0.53754
-1.30489	0.22769
-1.02437	0.15117
0.65874	-0.18043
1.37278	0.25320
-0.05531	0.81437
0.78624	0.27871
-0.51434	-0.25695
-0.36133	-0.35899
-0.28482	0.04914
0.50573	0.32972
0.65874	0.71234
0.45472	-0.86914
0.83725	0.45726
0.22521	0.61031
-0.15732	0.40625
0.42922	-0.12942
0.53123	0.20219
-0.43783	0.22769
-0.71835	0.27871
-0.56534	0.53379
0.35272	-0.56305
0.32721	0.25320
0.30171	0.02363
0.50573	0.17668
-0.10631	0.07465
-0.00431	0.66132
1.09226	-0.20594
0.17421	-0.18043
-0.28482	-0.02739
-0.76936	0.25320
0.32721	0.35523
0.91375	0.20219
0.55673	0.07465
-0.13181	0.38074
-0.43783	0.12566
0.60773	0.22769
0.73524	-0.10391
0.32721	0.40625
-0.41233	0.20219
-0.64185	-0.10391
0.04670	0.04914
0.50573	0.07465
0.22521	0.04914
-0.28482	0.35523
-0.08081	0.10015
0.32721	0.15117
-0.20832	0.02363
0.53123	0.20219
1.75531	0.32972
0.45472	-0.28246
-0.33583	0.22769
-1.40690	0.91640
-0.08081	0.25320
0.68424	-0.35899
1.04126	-0.30797
-0.18282	-0.00188
0.02119	0.35523
1.01576	0.04914
-0.53984	0.04914
-0.82036	0.30422
0.50573	0.25320
0.22521	-0.00188
0.32721	0.07465
0.32721	0.45726
-0.31033	0.17668
0.17421	0.27871
0.12320	-0.12942
-1.22839	0.30422
-0.51434	0.07465
1.09226	0.30422
0.96476	0.40625
0.55673	-0.74160
1.09226	-0.00188
0.53123	0.25320
-1.66191	0.12566
-1.76392	-0.02739
1.16877	0.43176
1.01576	0.63582
-0.10631	0.91640
-0.08081	0.25320
-0.31033	-0.15492
0.14870	0.04914
0.70974	-0.18043
0.14870	-0.02739
0.96476	-0.02739
0.37822	0.04914
-0.02981	0.25320
-0.33583	0.17668
-1.61091	0.30422
-0.25932	-0.05289
0.65874	0.53379
1.39828	0.10015
0.27621	0.04914
0.32721	0.04914
0.88825	0.35523
0.04670	0.02363
-0.31033	0.10015
-0.25932	0.32972
-0.33583	0.15117
0.55673	0.10015
0.35272	-0.07840
0.02119	0.22769
-0.08081	0.20219
0.40372	0.45726
0.30171	-0.12942
-1.07538	-0.33348
-0.13181	-0.15492
-0.59084	0.35523
0.37822	0.04914
0.91375	0.17668
1.34728	0.68683
0.83725	0.73785
1.78081	-0.18043
-0.89686	-0.05289
-2.17195	0.27871
-0.71835	0.15117
0.40372	-0.63957
0.27621	-0.15492
0.50573	0.66132
0.32721	0.07465
0.55673	0.35523
0.88825	0.40625
0.58223	0.50828
-0.94787	-0.05289
-0.74385	0.45726
0.14870	0.40625
0.73524	-0.18043
1.04126	-0.05289
1.42379	-0.00188
-1.76392	0.10015
-2.01894	0.10015
0.04670	0.15117
1.80631	0.17668
0.93925	0.15117
0.30171	0.04914
-0.87136	0.04914
-0.10631	0.17668
0.73524	0.35523
0.55673	0.12566
0.45472	0.55929
0.35272	0.04914
0.12320	-0.07840
-0.00431	0.07465
-0.46334	0.22769
-0.74385	0.25320
0.02119	0.27871
0.63323	0.10015
0.25071	-0.05289
-0.00431	0.38074
-0.13181	1.52859
-0.18282	-0.05289
-0.00431	-0.76711
0.78624	0.32972
1.01576	-0.41000
1.01576	0.12566
-0.48884	-0.10391
-0.00431	0.78886
0.02119	0.32972
0.22521	-0.12942
-0.13181	0.43176
0.40372	0.40625
0.91375	0.12566
0.17421	0.10015
-0.97337	-0.02739
-0.13181	0.12566
0.32721	-0.10391
-0.84586	0.10015
-0.28482	-0.41000
0.93925	0.61031
0.09770	0.35523
0.12320	0.15117
0.91375	0.02363
0.86275	0.20219
0.12320	0.73785
0.42922	-0.10391
-0.08081	0.02363
0.22521	0.10015
-0.08081	0.22769
-0.13181	0.43176
-0.00431	0.25320
-0.36133	0.04914
-0.31033	0.43176
-0.13181	-0.07840
0.35272	0.12566
0.19971	0.22769
0.37822	0.55929
0.50573	-1.20074
1.06676	0.20219
1.04126	1.19699
0.12320	0.96742
-1.10088	-0.20594
-1.68742	0.15117
-0.23382	-0.41000
0.68424	-0.02739
1.19427	0.35523
0.65874	0.43176
0.53123	0.30422
0.45472	0.12566
0.19971	0.20219
-0.20832	-0.07840
-0.02981	0.25320
-0.41233	0.30422
-0.20832	0.17668
0.42922	-0.02739
0.58223	-0.07840
-0.53984	-0.05289
-0.38683	0.55929
-0.28482	-0.10391
0.42922	-0.00188
1.21977	0.35523
0.86275	0.48277
-0.59084	0.04914
-0.66735	0.25320
0.35272	0.17668
0.65874	-0.02739
0.55673	0.12566
-0.79486	-0.02739
-0.00431	0.35523
0.45472	-0.15492
0.96476	0.22769
0.99026	-0.05289
1.04126	0.76336
0.65874	0.02363
-0.56534	0.22769
-1.71292	-0.23145
-1.84042	-0.07840
1.21977	0.02363
0.96476	0.81437
0.76074	0.04914
0.22521	0.10015
0.09770	0.48277
0.22521	-0.63957
0.19971	0.12566
-0.02981	0.35523
-0.00431	0.35523
0.37822	-0.05289
0.14870	0.17668
-0.23382	0.15117
-0.31033	0.38074
0.30171	0.04914
0.68424	-0.05289
0.76074	0.15117
-0.71835	0.32972
-0.69285	-0.05289
-0.23382	0.20219
0.19971	0.02363
0.14870	0.32972
0.32721	-0.00188
1.44929	-0.05289
0.88825	0.12566
0.93925	0.22769
0.55673	0.22769
-0.69285	0.10015
-0.51434	0.27871
-0.20832	0.20219
0.17421	0.22769
-0.08081	-0.12942
0.14870	0.53379
0.27621	0.07465
0.32721	0.40625
-0.53984	-0.00188
-0.31033	0.04914
-0.10631	0.07465
0.07220	0.25320
0.76074	0.25320
0.81175	-0.07840
-0.05531	0.15117
0.81175	0.04914
-0.18282	0.38074
-1.53441	0.40625
-2.04444	0.17668
1.04126	0.15117
1.72980	0.04914
1.19427	-0.05289
0.60773	0.45726
0.60773	0.32972
0.63323	-0.18043
-0.02981	0.48277
-0.08081	-0.07840
-0.36133	0.17668
-0.18282	-0.10391
-0.10631	0.12566
0.12320	0.35523
-0.38683	-0.15492
0.40372	0.32972
-0.38683	0.07465
-0.71835	0.38074
0.09770	0.32972
1.09226	0.04914
0.73524	0.12566
0.19971	0.12566
0.55673	0.25320
0.50573	0.25320
0.27621	0.22769
0.07220	-0.18043
0.17421	0.07465
0.22521	0.40625
-0.00431	0.38074
0.17421	0.04914
-0.05531	0.27871
-0.02981	0.22769
0.53123	0.22769
0.02119	0.07465
-0.51434	0.04914
-0.08081	0.04914
0.53123	0.15117
-0.59084	0.10015
-0.61635	0.30422
1.01576	0.17668
1.06676	0.04914
0.12320	0.15117
0.14870	0.04914
0.63323	-0.07840
0.60773	0.58480
0.09770	0.25320
0.09770	0.43176
0.14870	-0.07840
0.02119	-0.12942
0.07220	0.02363
-0.00431	0.48277
-0.02981	0.17668
-0.20832	-0.53754
-0.94787	0.35523
-0.33583	0.83988
0.27621	0.45726
0.58223	-0.63957
0.83725	0.50828
0.50573	0.07465
0.65874	-0.35899
-0.28482	0.27871
-0.46334	0.32972
-0.31033	0.12566
0.14870	0.25320
0.30171	0.10015
0.60773	-0.10391
-0.13181	0.20219
0.48022	0.50828
0.32721	-0.10391
0.02119	-0.18043
0.55673	0.43176
0.40372	0.15117
-0.20832	0.81437
-1.63641	0.10015
-0.76936	-0.43551
0.17421	0.20219
0.68424	0.22769
0.60773	0.58480
0.17421	-0.48652
0.55673	0.32972
0.45472	0.20219
0.42922	0.12566
0.12320	0.30422
0.02119	-0.05289
-0.02981	0.27871
-0.10631	-0.30797
0.19971	0.22769
0.68424	0.12566
-0.23382	-0.30797
-0.59084	0.76336
-0.71835	-0.51203
0.40372	0.04914
0.63323	0.43176
0.58223	-0.05289
0.17421	-0.07840
1.21977	0.45726
-0.08081	0.22769
-1.50890	0.12566
-0.02981	0.10015
-0.02981	0.43176
-0.15732	-0.25695
0.42922	0.15117
0.88825	-0.07840
1.21977	-0.10391
1.04126	0.40625
-0.94787	0.78886
-1.76392	0.04914
0.22521	0.15117
1.50029	0.50828
-0.10631	-0.02739
-0.69285	0.22769
-0.20832	-0.10391
0.12320	-0.20594
1.01576	0.25320
1.04126	0.20219
0.04670	0.17668
-0.13181	0.55929
0.48022	-0.07840
-0.53984	-0.20594
-0.10631	0.25320
0.40372	0.32972
0.37822	0.20219
0.50573	-0.07840
1.19427	-0.10391
-0.99887	0.48277
-2.50347	-0.92016
-0.20832	0.30422
1.34728	1.14597
1.11776	-0.20594
-0.28482	-0.07840
0.09770	0.38074
0.68424	0.27871
1.14327	0.55929
1.57679	0.10015
-1.66191	-0.23145
-1.71292	-0.05289
-0.82036	0.38074
1.04126	0.10015
1.19427	0.15117
1.27078	0.02363
0.42922	0.20219
0.17421	-0.10391
-0.05531	0.07465
0.27621	-0.00188
0.22521	0.40625
-0.92237	0.25320
-0.48884	0.07465
0.25071	0.40625
0.68424	0.35523
0.14870	0.55929
0.04670	-0.23145
-0.00431	-0.15492
-0.13181	-0.02739
0.30171	0.25320
0.25071	-0.00188
0.45472	-0.05289
0.58223	0.10015
0.17421	0.61031
0.09770	0.45726
-0.56534	0.10015
-0.41233	-0.07840
1.04126	0.17668
-0.28482	0.38074
-0.20832	0.50828
0.37822	-0.51203
0.07220	-0.07840
0.99026	0.20219
0.42922	0.66132
-0.48884	-0.12942
0.17421	-0.02739
0.45472	0.22769
0.42922	0.27871
-0.02981	0.04914
-0.38683	0.04914
-0.15732	0.40625
0.63323	-0.07840
0.37822	-0.02739
-1.10088	0.30422
-0.59084	0.20219
0.37822	-0.58856
0.19971	0.32972
0.48022	0.48277
0.55673	0.15117
1.75531	-0.00188
0.02119	0.02363
-1.17738	0.07465
-1.25389	0.17668
0.78624	0.53379
0.73524	0.61031
0.30171	-0.10391
0.17421	-0.81812
0.32721	-0.05289
0.88825	0.50828
0.35272	0.20219
-0.15732	0.40625
0.45472	-0.05289
-0.13181	0.22769
-0.56534	0.15117
-0.89686	0.04914
0.14870	0.20219
-0.20832	0.02363
0.78624	0.22769
1.37278	-0.12942
0.35272	0.63582
0.50573	0.30422
-0.28482	0.32972
-0.56534	0.15117
-0.53984	-0.02739
-0.61635	-0.07840
1.01576	0.25320
1.19427	-0.30797
0.07220	0.12566
-0.46334	0.76336
0.63323	-0.00188
-0.28482	0.17668
-0.08081	0.02363
-0.02981	0.07465
0.78624	0.38074
0.42922	0.10015
0.12320	0.02363
-0.00431	-0.00188
-0.46334	0.15117
-0.36133	0.58480
0.12320	0.40625
-0.02981	-0.00188
0.17421	-0.15492
0.14870	0.10015
0.02119	0.12566
-0.02981	0.04914
0.63323	0.50828
1.01576	0.78886
0.70974	-0.51203
0.48022	-0.41000
-0.13181	-0.05289
-0.84586	0.07465
-0.92237	0.17668
0.40372	0.45726
0.83725	0.63582
0.45472	-0.48652
0.78624	0.20219
-0.13181	0.43176
-0.10631	0.68683
-0.08081	-0.15492
0.09770	-0.30797
-0.36133	-0.05289
-0.23382	0.27871
0.37822	0.15117
-0.10631	-0.02739
1.01576	0.25320
0.19971	0.32972
-0.74385	0.38074
-0.92237	0.25320
0.63323	-0.20594
0.73524	0.30422
-0.20832	0.15117
0.78624	-0.05289
0.19971	0.22769
0.14870	-0.02739
0.40372	0.30422
0.27621	0.35523
0.30171	0.71234
0.53123	0.30422
0.27621	0.07465
-0.02981	-0.51203
0.32721	0.04914
-0.23382	0.25320
-0.31033	0.15117
-0.02981	-0.10391
-0.05531	0.12566
0.25071	0.38074
0.22521	0.43176
0.04670	-0.10391
-0.02981	0.45726
0.45472	0.12566
0.50573	-0.25695
0.02119	0.04914
-0.41233	0.32972
0.27621	0.15117
0.32721	0.02363
0.12320	0.76336
0.81175	-0.20594
1.39828	0.20219
0.68424	0.20219
-1.25389	0.04914
-1.91693	0.22769
-0.08081	-0.05289
0.96476	0.30422
1.06676	0.04914
0.27621	0.30422
-0.38683	0.30422
0.09770	-0.00188
0.07220	-0.05289
0.91375	0.27871
-0.00431	0.30422
-0.74385	-0.35899
0.14870	0.30422
0.35272	0.07465
0.19971	0.20219
0.22521	0.07465
0.91375	0.15117
-0.28482	0.27871
-1.04987	0.71234
0.55673	0.02363
0.02119	-0.12942
-0.76936	0.04914
0.07220	-0.18043
0.37822	0.10015
1.32178	0.40625
1.16877	0.38074
0.42922	-0.15492
-0.02981	0.35523
-0.59084	0.35523
0.04670	-0.35899
0.37822	0.71234
0.32721	0.22769
-0.25932	0.04914
-0.05531	-0.12942
-0.18282	-0.18043
-0.18282	0.53379
-0.02981	0.32972
0.04670	0.15117
1.04126	0.02363
0.68424	-0.18043
-0.41233	0.12566
-0.36133	0.17668
-0.76936	0.15117
1.39828	0.40625
1.42379	0.22769
-0.13181	0.45726
-1.22839	0.07465
-0.46334	-0.41000
0.81175	-0.20594
0.60773	0.58480
0.32721	-0.07840
0.96476	0.12566
-0.38683	0.22769
-0.48884	0.25320
0.27621	0.73785
-0.13181	-0.07840
-0.38683	0.20219
0.42922	-0.00188
-0.28482	0.25320
-0.46334	0.15117
0.70974	0.10015
0.70974	0.12566
0.17421	-0.00188
-0.33583	0.40625
1.34728	-0.15492
-0.15732	0.15117
-0.59084	0.43176
-0.71835	0.12566
0.63323	0.15117
0.68424	0.27871
0.35272	-0.12942
-0.46334	0.10015
-0.18282	-0.07840
0.12320	-0.07840
0.88825	-0.18043
0.78624	0.35523
0.22521	0.71234
0.58223	0.50828
-0.56534	0.27871
-0.89686	-0.05289
-0.46334	0.10015
0.17421	-0.00188
0.22521	-0.18043
0.58223	-0.07840
0.63323	0.17668
0.60773	0.17668
0.25071	0.20219
0.40372	0.17668
0.53123	0.32972
-0.05531	0.02363
-0.51434	-0.02739
-0.89686	0.02363
0.09770	0.17668
-0.15732	0.89089
0.50573	-0.33348
0.88825	0.45726
-0.25932	0.17668
-0.23382	-0.05289
-0.33583	0.40625
-0.33583	-0.18043
1.52579	0.25320
0.93925	0.15117
0.70974	-0.05289
-0.53984	0.32972
-0.23382	0.38074
0.91375	0.10015
0.37822	0.32972
-0.43783	-0.15492
-0.87136	0.07465
0.25071	0.02363
0.78624	0.02363
0.78624	0.10015
0.30171	0.17668
0.14870	0.27871
-0.51434	0.40625
-0.74385	0.38074
-1.50890	-0.00188
1.32178	0.22769
1.29628	0.40625
0.30171	0.04914
0.17421	-0.02739
0.63323	0.04914
0.86275	-0.05289
0.53123	0.27871
-0.36133	0.35523
-0.74385	0.02363
-1.25389	0.02363
-0.74385	0.27871
0.53123	-0.07840
1.39828	0.10015
0.55673	0.53379
0.14870	0.38074
0.32721	0.45726
0.02119	-0.30797
0.02119	0.30422
0.27621	0.43176
0.07220	-0.25695
1.09226	0.02363
0.99026	0.61031
-0.99887	0.73785
-2.32496	0.02363
-0.20832	-0.38449
0.63323	-0.18043
0.50573	0.04914
0.73524	-0.00188
0.19971	0.12566
0.96476	0.22769
0.91375	0.07465
0.17421	0.66132
1.19427	0.25320
-0.89686	-0.00188
-2.37596	-0.18043
-0.66735	0.53379
0.73524	0.10015
0.83725	0.12566
1.32178	-0.20594
0.12320	0.32972
-0.64185	0.25320
-0.38683	0.17668
0.35272	0.10015
0.93925	-0.02739
0.19971	0.20219
0.04670	0.40625
-0.18282	0.27871
0.04670	0.04914
-0.08081	-0.18043
0.68424	0.38074
1.37278	0.40625
0.58223	0.30422
-1.76392	0.40625
-2.27395	-0.05289
-0.31033	0.07465
1.24527	-0.07840
1.60230	0.38074
1.62780	0.17668
0.83725	0.48277
-0.38683	0.17668
-0.38683	0.07465
0.22521	-0.56305
0.55673	0.10015
-0.41233	0.10015
-1.22839	0.43176
-1.10088	0.43176
0.70974	-0.05289
1.21977	0.30422
1.24527	0.43176
-0.43783	0.45726
-0.33583	0.04914
0.09770	-0.23145
-0.13181	0.35523
-0.05531	0.22769
0.25071	0.02363
-0.13181	-0.15492
0.48022	0.17668
0.55673	0.45726
0.14870	0.04914
0.73524	-0.10391
0.86275	0.25320
0.42922	0.27871
-0.51434	0.45726
-0.23382	-0.05289
0.02119	0.12566
-0.33583	-0.07840
-0.00431	0.02363
-0.20832	0.25320
-0.89686	0.20219
1.04126	-0.81812
-0.08081	0.53379
-1.76392	-0.00188
-0.61635	0.55929
1.16877	-0.12942
1.44929	-0.10391
0.83725	0.12566
1.65330	0.86539
0.73524	0.35523
-0.79486	-0.02739
-0.53984	-0.25695
0.73524	0.32972
0.12320	0.02363
-0.33583	-0.00188
-0.53984	0.30422
-0.20832	0.17668
0.76074	0.50828
0.50573	0.25320
-0.20832	-0.30797
-0.48884	0.15117
0.25071	0.35523
0.32721	0.10015
0.50573	-0.20594
0.76074	-0.28246
0.22521	0.50828
-1.33039	-0.07840
-0.41233	0.22769
0.14870	0.20219
0.35272	0.17668
0.35272	0.22769
0.88825	0.25320
0.88825	0.25320
0.65874	0.10015
-0.15732	-0.07840
-0.13181	0.27871
-0.89686	-0.05289
-1.76392	0.12566
0.70974	0.38074
0.63323	0.50828
-0.28482	0.61031
0.19971	-0.58856
1.16877	0.04914
1.14327	-0.25695
0.58223	0.02363
-0.00431	0.30422
-1.43240	0.02363
-0.56534	0.25320
0.17421	0.45726
0.07220	0.02363
0.09770	0.12566
0.91375	0.04914
1.75531	0.17668
0.78624	0.27871
1.01576	0.07465
-0.25932	0.04914
-1.68742	0.07465
-1.61091	-0.12942
0.65874	0.22769
1.24527	0.40625
0.50573	0.30422
0.09770	0.35523
-0.66735	0.61031
0.27621	-0.10391
0.27621	-0.10391
0.04670	0.02363
0.48022	0.04914
0.93925	0.25320
0.27621	0.22769
-0.33583	0.10015
-0.76936	0.27871
1.14327	0.30422
-0.02981	-0.02739
-1.22839	-0.02739
-0.38683	-0.02739
0.48022	0.04914
0.81175	-0.07840
0.37822	-0.07840
0.22521	0.20219
0.30171	0.58480
0.65874	0.30422
-0.00431	-0.07840
-0.18282	-0.23145
-0.82036	0.12566
0.70974	0.10015
0.27621	0.20219
0.17421	0.15117
-0.31033	0.25320
-0.76936	0.10015
0.09770	0.50828
-0.00431	-0.00188
1.09226	0.53379
1.14327	-0.18043
-0.59084	-0.12942
-0.71835	0.12566
0.73524	0.30422
0.65874	0.25320
-0.08081	-0.05289
0.02119	0.27871
0.32721	0.15117
0.99026	0.27871
0.07220	0.22769
-0.43783	0.10015
-0.13181	0.27871
-0.51434	0.81437
-0.59084	-0.00188
0.73524	-0.33348
0.63323	-0.25695
0.63323	0.17668
0.32721	0.20219
0.30171	0.30422
0.50573	0.12566
0.42922	0.30422
-0.53984	-0.25695
-0.48884	0.17668
-0.56534	0.35523
0.30171	0.38074
-0.23382	-0.02739
0.02119	-0.20594
0.93925	0.04914
0.73524	0.71234
0.14870	0.07465
0.45472	0.07465
-0.41233	0.02363
-0.84586	0.35523
0.53123	0.15117
1.04126	0.22769
0.35272	-0.46102
0.17421	-0.30797
0.42922	0.81437
-0.46334	-0.41000
-1.55991	0.32972
-0.18282	0.48277
0.81175	0.07465
0.76074	0.20219
-0.23382	0.45726
0.17421	-0.00188
0.83725	0.12566
0.81175	0.81437
-0.31033	-0.63957
0.19971	-0.30797
-0.46334	0.17668
1.34728	0.53379
-0.53984	0.20219
0.12320	-0.02739
-0.23382	0.25320
-0.36133	0.20219
-0.46334	0.32972
-0.66735	-0.00188
1.50029	0.10015
0.73524	0.35523
1.70430	0.02363
-0.28482	-0.23145
-1.35589	0.07465
-1.27939	0.78886
0.83725	-0.69059
0.65874	-0.25695
0.42922	-0.18043
0.91375	0.53379
0.55673	0.20219
0.14870	0.78886
-0.43783	1.14597
-0.18282	0.86539
0.27621	-1.76191
-0.00431	-0.10391
0.12320	0.30422
0.73524	0.58480
0.50573	0.15117
-1.66191	-0.41000
-2.04444	0.78886
2.23984	0.50828
2.26534	-0.53754
-0.43783	0.25320
-1.55991	0.38074
0.19971	0.35523
0.45472	0.17668
1.04126	0.15117
0.91375	0.55929
0.63323	0.22769
-0.05531	0.07465
0.27621	-0.23145
-0.00431	0.15117
0.88825	0.15117
0.02119	0.76336
-2.55447	0.35523
-1.63641	-0.18043
1.37278	-0.20594
2.39285	0.07465
0.93925	0.10015
-0.41233	0.25320
0.68424	0.25320
-0.38683	0.12566
-0.33583	0.04914
-0.20832	0.48277
-0.66735	0.32972
-1.30489	0.30422
0.93925	-0.02739
1.34728	0.25320
0.99026	0.40625
0.27621	0.04914
-0.13181	0.07465
0.53123	0.27871
0.68424	-0.25695
-0.59084	0.22769
-0.59084	0.04914
-0.15732	-0.30797
0.17421	-0.00188
0.73524	0.53379
0.86275	1.47757
0.48022	0.04914
-1.55991	-0.10391
-0.18282	-0.07840
-0.23382	-0.30797
0.70974	0.07465
1.37278	0.07465
1.75531	0.35523
0.48022	0.32972
-1.63641	0.02363
-1.10088	-0.02739
0.73524	0.32972
0.81175	0.20219
0.14870	0.27871
0.50573	0.12566
0.35272	-0.10391
0.45472	0.43176
0.07220	0.40625
-0.13181	-0.30797
-0.15732	0.07465
0.12320	0.30422
0.96476	0.48277
0.81175	-0.05289
-1.50890	-0.20594
-1.30489	0.53379
0.55673	0.35523
0.88825	-0.07840
-0.28482	0.35523
1.21977	1.14597
0.83725	0.12566
-0.31033	-0.89465
-0.59084	0.15117
0.70974	0.25320
0.22521	0.02363
0.73524	0.43176
0.58223	0.30422
1.01576	-0.07840
-0.10631	0.10015
-1.20288	0.07465
0.09770	-0.00188
0.42922	-0.02739
0.25071	0.58480
0.14870	0.07465
0.40372	0.40625
0.30171	0.22769
-0.51434	-0.02739
0.04670	-0.00188
-0.92237	0.20219
-0.18282	-0.41000
-0.53984	0.32972
-0.15732	0.45726
-0.28482	0.25320
1.65330	-0.00188
2.13783	-0.02739
2.18883	0.30422
1.57679	0.89089
-1.35589	0.48277
-1.94243	-0.00188
-0.08081	-0.15492
0.45472	-0.20594
0.42922	-0.25695
0.40372	0.91640
-0.25932	-0.46102
-0.20832	-0.00188
0.27621	0.50828
0.22521	0.61031
-0.38683	0.07465
0.35272	-0.43551
-0.02981	-0.12942
0.32721	0.58480
-0.66735	0.12566
1.11776	-0.56305
0.17421	0.53379
-0.38683	0.38074
-0.15732	0.43176
-0.10631	-0.43551
0.17421	0.27871
0.55673	-0.00188
1.21977	0.15117
0.86275	0.27871
0.68424	-0.00188
0.02119	0.45726
-1.07538	0.17668
-0.08081	0.20219
0.68424	0.20219
0.30171	0.20219
0.30171	-0.18043
-0.89686	0.27871
-1.25389	0.25320
-1.84042	-0.23145
-0.13181	0.55929
1.47479	0.40625
1.19427	0.04914
1.29628	-0.46102
1.90832	0.94191
1.37278	0.81437
0.22521	-0.05289
-3.24301	-0.71609
-3.37052	-0.61406
