0.14870	0.22769
0.22521	0.15117
0.14870	0.04914
0.09770	0.20219
0.22521	0.38074
0.12320	0.20219
0.12320	0.10015
0.07220	0.07465
0.14870	0.10015
0.17421	0.15117
0.17421	0.22769
0.12320	0.17668
0.19971	0.15117
0.14870	0.25320
0.09770	0.17668
0.14870	0.17668
0.09770	0.15117
0.09770	0.17668
0.14870	0.15117
0.14870	0.20219
0.14870	0.17668
0.14870	0.12566
0.22521	0.15117
0.12320	0.12566
0.12320	0.17668
0.07220	0.15117
0.12320	0.17668
0.25071	0.12566
0.22521	0.38074
0.19971	0.10015
0.14870	-0.00188
0.07220	0.10015
0.12320	0.25320
0.19971	0.12566
0.17421	0.07465
0.09770	0.12566
0.07220	0.20219
0.14870	0.25320
0.22521	0.20219
0.12320	0.20219
0.14870	0.04914
0.12320	0.04914
0.14870	0.20219
0.25071	0.25320
0.17421	0.10015
0.12320	0.07465
0.12320	0.12566
0.14870	0.22769
0.14870	0.22769
0.14870	0.15117
0.14870	0.02363
0.09770	0.12566
0.14870	0.17668
0.19971	0.25320
0.19971	0.15117
0.12320	0.17668
0.17421	0.10015
0.12320	0.17668
0.12320	0.22769
0.19971	0.10015
0.14870	0.02363
0.14870	0.12566
0.09770	0.12566
0.09770	0.17668
0.17421	0.17668
0.19971	0.32972
0.14870	0.17668
0.07220	0.04914
0.17421	0.17668
0.17421	0.17668
0.07220	0.04914
0.19971	0.12566
0.22521	0.12566
0.07220	0.07465
0.14870	0.15117
0.17421	0.22769
0.17421	0.17668
0.09770	0.17668
0.17421	0.22769
0.19971	0.15117
0.09770	0.12566
0.19971	0.17668
0.19971	0.12566
0.12320	0.07465
0.09770	0.15117
0.14870	0.25320
0.22521	0.20219
0.12320	0.20219
0.07220	0.15117
0.14870	0.20219
0.22521	0.10015
0.14870	-0.00188
0.09770	0.04914
0.12320	0.17668
0.19971	0.25320
0.19971	0.20219
0.14870	0.20219
0.07220	0.22769
0.14870	0.10015
0.22521	0.12566
0.14870	-0.00188
0.07220	0.20219
0.14870	0.35523
0.25071	0.02363
0.14870	0.02363
0.09770	0.15117
0.07220	0.25320
0.17421	0.17668
0.12320	0.15117
0.07220	0.12566
0.14870	0.15117
0.22521	0.15117
0.17421	0.15117
0.12320	0.07465
0.12320	0.12566
0.07220	0.20219
0.09770	0.22769
0.14870	0.12566
0.19971	0.20219
0.22521	0.04914
0.17421	0.10015
0.09770	0.10015
0.12320	0.15117
0.17421	0.17668
0.14870	0.10015
0.09770	0.15117
0.14870	0.20219
0.14870	0.20219
0.12320	0.17668
0.22521	0.10015
0.22521	0.02363
0.14870	-0.00188
0.12320	0.12566
0.12320	0.22769
0.22521	0.15117
0.14870	0.22769
0.09770	0.22769
0.19971	0.25320
0.25071	0.12566
0.09770	0.15117
0.07220	0.17668
0.19971	0.15117
0.22521	0.07465
0.07220	0.20219
0.09770	0.15117
0.22521	0.12566
0.12320	0.22769
0.19971	0.15117
0.25071	0.04914
0.12320	0.10015
0.14870	0.17668
0.19971	0.15117
0.09770	0.15117
0.19971	0.15117
0.12320	0.07465
0.14870	0.22769
0.19971	0.10015
0.07220	0.15117
0.22521	0.15117
0.12320	0.15117
0.17421	0.17668
0.12320	-0.00188
0.12320	0.15117
0.17421	0.22769
0.17421	0.10015
0.07220	0.20219
0.17421	0.15117
0.12320	0.12566
0.07220	0.17668
0.19971	0.17668
0.17421	0.12566
0.09770	0.17668
0.22521	0.20219
0.09770	0.15117
0.07220	0.22769
0.17421	0.25320
0.17421	0.10015
0.14870	0.04914
0.07220	0.12566
0.12320	0.12566
0.19971	0.07465
0.12320	0.07465
0.09770	0.15117
0.14870	0.20219
0.22521	0.20219
0.17421	0.15117
0.12320	0.22769
0.12320	0.22769
0.19971	0.15117
0.17421	0.10015
0.09770	0.07465
0.09770	0.15117
0.19971	0.17668
0.14870	0.17668
0.14870	0.20219
0.17421	0.07465
0.14870	0.17668
0.09770	0.35523
0.19971	0.04914
0.14870	0.07465
0.09770	0.04914
0.22521	0.02363
0.17421	0.12566
0.12320	0.17668
0.19971	0.20219
0.14870	0.25320
0.12320	0.15117
0.19971	0.15117
0.07220	0.22769
0.14870	0.15117
0.14870	0.20219
0.12320	0.15117
0.12320	0.15117
0.12320	0.12566
0.09770	0.17668
0.12320	0.22769
0.14870	0.15117
0.09770	0.17668
0.14870	0.12566
0.19971	0.22769
0.14870	0.04914
0.09770	0.07465
0.14870	0.10015
0.19971	0.07465
0.12320	0.17668
0.09770	0.27871
0.19971	0.12566
0.14870	0.17668
0.07220	0.15117
0.22521	0.10015
0.12320	0.07465
0.14870	0.15117
0.22521	0.15117
0.12320	0.15117
0.14870	0.22769
0.17421	0.20219
0.14870	0.12566
0.14870	0.22769
0.19971	0.10015
0.12320	0.15117
0.19971	0.27871
0.19971	0.04914
0.12320	-0.00188
0.09770	0.07465
0.17421	0.10015
0.12320	0.12566
0.07220	0.17668
0.07220	0.17668
0.22521	0.10015
0.12320	0.20219
0.07220	0.17668
0.14870	0.07465
0.17421	0.17668
0.07220	0.20219
0.09770	0.17668
0.14870	0.17668
0.22521	0.15117
0.14870	0.12566
0.07220	0.15117
0.12320	0.15117
0.12320	0.04914
0.07220	0.10015
0.12320	0.17668
0.25071	0.15117
0.19971	0.25320
0.12320	0.20219
0.09770	0.20219
0.12320	0.27871
0.22521	0.10015
0.22521	0.04914
0.04670	0.02363
0.17421	0.12566
0.12320	0.22769
0.17421	0.15117
0.14870	0.10015
0.12320	0.20219
0.14870	0.25320
0.17421	0.15117
0.19971	0.04914
0.17421	0.10015
0.14870	0.10015
0.14870	0.15117
0.22521	0.12566
0.17421	0.07465
0.07220	0.04914
0.14870	0.15117
0.14870	0.22769
0.19971	0.22769
0.19971	0.30422
0.14870	0.10015
0.07220	-0.02739
0.14870	0.15117
0.17421	0.20219
0.19971	0.12566
0.12320	0.15117
0.12320	0.15117
0.09770	0.17668
0.14870	0.22769
0.22521	0.22769
0.22521	0.15117
0.12320	0.04914
0.17421	0.07465
0.17421	0.20219
0.22521	0.25320
0.17421	0.17668
0.04670	0.15117
0.17421	0.22769
0.12320	0.12566
0.17421	0.02363
0.19971	0.12566
0.12320	0.17668
0.12320	0.17668
0.19971	0.20219
0.14870	0.10015
0.14870	0.15117
0.09770	0.17668
0.17421	0.25320
0.22521	0.17668
0.09770	0.04914
0.07220	0.15117
0.14870	0.07465
0.19971	0.07465
0.14870	0.12566
0.14870	0.27871
0.19971	0.17668
0.14870	0.07465
0.04670	0.17668
0.14870	0.17668
0.12320	0.07465
0.17421	0.15117
0.17421	0.15117
0.22521	0.07465
0.12320	0.07465
0.07220	0.12566
0.22521	0.38074
0.12320	0.22769
0.07220	0.04914
0.14870	0.10015
0.22521	0.15117
0.19971	0.20219
0.12320	0.04914
0.14870	0.10015
0.19971	0.25320
0.07220	0.20219
0.12320	0.15117
0.14870	0.17668
0.22521	0.12566
0.14870	0.07465
0.02119	0.12566
0.07220	0.20219
0.14870	0.15117
0.22521	0.04914
0.14870	0.20219
0.09770	0.12566
0.14870	0.20219
0.19971	0.25320
0.12320	0.10015
0.07220	0.17668
0.17421	0.20219
0.12320	0.15117
0.19971	0.10015
0.25071	0.02363
0.14870	0.15117
0.17421	0.17668
0.14870	0.17668
0.19971	0.20219
0.12320	0.15117
0.14870	0.10015
0.07220	0.12566
0.12320	0.12566
0.25071	0.10015
0.19971	0.12566
0.12320	0.12566
0.17421	0.15117
0.14870	0.15117
0.09770	0.30422
0.12320	0.22769
0.14870	0.04914
0.09770	0.04914
0.14870	0.15117
0.19971	0.15117
0.12320	0.15117
0.14870	0.10015
0.09770	0.20219
0.19971	0.12566
0.17421	0.15117
0.12320	0.35523
0.04670	0.15117
0.14870	0.02363
0.12320	0.04914
0.22521	0.02363
0.14870	-0.02739
0.09770	0.15117
0.14870	0.35523
0.17421	0.22769
0.17421	0.15117
0.07220	-0.12942
0.12320	-0.33348
0.14870	0.40625
0.19971	0.32972
0.14870	0.20219
0.07220	0.20219
0.09770	0.27871
0.14870	0.30422
0.19971	0.15117
0.25071	0.12566
0.22521	0.10015
0.12320	0.02363
0.04670	0.02363
0.07220	-0.00188
0.14870	0.17668
0.19971	0.17668
0.17421	0.20219
0.17421	0.10015
0.07220	0.20219
0.14870	0.22769
0.22521	0.27871
0.25071	0.22769
0.14870	0.10015
0.17421	0.10015
0.07220	0.02363
0.07220	0.10015
0.17421	0.10015
0.14870	0.17668
0.19971	0.25320
0.14870	0.15117
0.12320	0.12566
0.04670	0.07465
0.12320	0.15117
0.14870	0.38074
0.14870	0.17668
0.09770	-0.05289
0.17421	0.10015
0.19971	0.04914
0.12320	0.15117
0.09770	0.22769
0.14870	0.17668
0.19971	0.07465
0.14870	0.17668
0.07220	0.22769
0.17421	0.15117
0.22521	0.12566
0.12320	0.04914
0.14870	0.17668
0.07220	0.25320
0.12320	0.15117
0.12320	0.07465
0.07220	0.15117
0.14870	0.17668
0.22521	0.10015
0.14870	0.04914
0.09770	0.15117
0.22521	0.22769
0.14870	0.10015
0.12320	0.07465
0.14870	0.20219
0.14870	0.25320
0.14870	0.07465
0.07220	0.25320
0.22521	0.25320
0.14870	-0.00188
0.09770	0.15117
0.22521	0.12566
0.14870	0.04914
0.09770	0.12566
0.12320	0.17668
0.12320	0.15117
0.09770	0.20219
0.17421	0.12566
0.14870	0.07465
0.09770	0.22769
0.22521	0.04914
0.12320	0.15117
0.04670	0.25320
0.12320	0.12566
0.12320	0.17668
0.07220	0.25320
0.14870	0.22769
0.22521	0.04914
0.12320	0.12566
0.14870	0.15117
0.14870	0.12566
0.22521	-0.00188
0.12320	0.15117
0.09770	0.43176
0.17421	0.32972
0.22521	-0.10391
0.14870	0.04914
0.07220	0.04914
0.14870	0.20219
0.22521	0.17668
0.12320	0.12566
0.09770	0.15117
0.07220	0.25320
0.14870	0.25320
0.22521	0.17668
0.12320	0.17668
0.17421	0.12566
0.09770	0.15117
0.14870	0.00000
0.14870	0.17668
0.22521	0.10015
0.14870	0.12566
0.14870	0.10015
0.04670	0.15117
0.19971	0.17668
0.12320	0.22769
0.19971	0.12566
0.14870	0.10015
0.07220	0.12566
0.09770	0.10015
0.19971	0.17668
0.25071	0.12566
0.09770	0.10015
0.12320	0.12566
0.04670	0.17668
0.14870	0.22769
0.17421	0.20219
0.07220	0.20219
0.22521	0.15117
0.09770	0.12566
0.07220	0.07465
0.12320	0.07465
0.22521	0.20219
0.17421	0.15117
0.09770	0.12566
0.09770	0.04914
0.12320	0.20219
0.22521	0.27871
0.14870	0.15117
0.14870	0.10015
0.04670	0.07465
0.12320	0.10015
0.22521	0.15117
0.37822	0.15117
0.17421	0.25320
0.07220	0.15117
-0.00431	0.02363
0.14870	0.17668
0.12320	0.32972
0.12320	0.02363
0.22521	0.04914
0.17421	0.15117
0.07220	0.07465
0.12320	0.20219
0.32721	0.22769
0.17421	0.22769
0.04670	0.12566
0.12320	0.25320
0.22521	0.15117
0.07220	0.12566
0.07220	0.17668
0.12320	0.20219
0.22521	0.15117
0.12320	0.07465
0.04670	0.10015
0.07220	0.17668
0.14870	0.22769
0.14870	0.20219
0.22521	0.10015
0.22521	0.10015
0.25071	0.10015
0.07220	0.04914
0.07220	0.07465
0.12320	0.17668
0.19971	0.20219
0.22521	0.27871
0.19971	0.17668
0.12320	0.04914
0.19971	0.10015
0.09770	0.07465
0.07220	0.12566
0.14870	0.15117
0.14870	0.20219
0.22521	0.20219
0.19971	0.22769
0.19971	0.22769
0.14870	0.10015
0.07220	0.20219
0.17421	0.12566
0.17421	0.10015
0.22521	0.10015
0.17421	0.12566
0.17421	0.10015
0.07220	0.20219
0.12320	0.25320
0.19971	0.17668
0.14870	0.07465
0.09770	0.15117
0.14870	0.04914
0.19971	0.10015
0.25071	0.20219
0.12320	0.32972
0.04670	0.25320
0.09770	-0.02739
0.12320	0.20219
0.22521	0.30422
0.12320	0.15117
0.14870	0.10015
0.14870	0.07465
0.14870	0.15117
0.14870	0.15117
0.19971	0.20219
0.19971	0.22769
0.12320	0.20219
0.12320	0.12566
0.09770	0.10015
0.07220	0.12566
0.02119	0.15117
0.32721	0.25320
0.35272	0.17668
0.09770	0.10015
0.09770	0.12566
-0.02981	0.12566
0.09770	0.22769
0.14870	0.17668
0.09770	0.15117
0.19971	0.17668
0.19971	0.22769
0.17421	0.04914
0.04670	-0.02739
0.27621	0.10015
0.27621	0.07465
0.02119	0.04914
-0.00431	0.17668
0.19971	0.20219
0.12320	0.25320
0.14870	0.17668
0.30171	0.22769
0.22521	0.20219
0.09770	0.48277
0.12320	0.17668
0.02119	-0.35899
0.17421	-0.07840
0.12320	-1.12422
0.19971	0.22769
0.14870	0.55929
0.04670	1.04394
-0.00431	1.06945
0.27621	0.12566
0.09770	0.61031
0.09770	-0.12942
0.25071	-0.69059
0.09770	0.50828
0.25071	-0.53754
-0.00431	0.43176
0.42922	1.17148
0.27621	0.07465
0.07220	-0.58856
0.04670	-0.41000
-0.23382	0.68683
-0.10631	0.30422
0.32721	-1.63437
0.35272	0.76336
0.37822	1.19699
0.19971	0.96742
-0.13181	2.65093
-0.18282	-2.09351
-0.13181	-0.94566
0.35272	-3.44542
0.42922	1.63062
0.32721	1.68163
0.19971	-0.35899
0.09770	1.24800
0.02119	1.55410
0.14870	0.61031
0.09770	0.12566
0.12320	-1.04770
0.45472	-0.12942
0.02119	1.86019
0.14870	4.02835
0.19971	-3.21585
0.17421	-8.01131
0.30171	-6.30229
0.07220	2.14077
0.12320	2.90601
0.14870	3.49268
0.07220	2.49788
-0.08081	2.11527
-0.08081	1.55410
-0.08081	0.83988
0.42922	0.15117
0.78624	-0.41000
0.40372	-0.66508
-0.10631	-0.86914
-0.18282	-0.76711
0.27621	-0.48652
0.22521	-0.12942
-0.00431	0.86539
0.17421	1.04394
0.17421	-3.03730
0.40372	-1.45582
0.07220	-0.56305
0.02119	1.73265
0.14870	1.22250
0.17421	-0.86914
0.09770	2.16628
-0.05531	2.98253
0.07220	0.12566
0.12320	-1.07320
0.22521	-0.18043
0.37822	1.06945
0.14870	1.17148
0.02119	0.81437
0.17421	0.53379
0.04670	-0.30797
0.09770	-0.86914
0.07220	-0.35899
0.19971	-0.15492
0.12320	-0.46102
0.42922	-1.37929
0.27621	1.70714
0.17421	0.30422
0.09770	-2.11902
0.14870	-3.44542
-0.02981	1.12046
0.04670	2.31933
0.19971	1.55410
0.25071	-0.30797
-0.00431	1.04394
0.14870	1.98773
0.14870	-0.07840
0.25071	1.63062
0.30171	-0.63957
0.14870	0.20219
0.25071	-2.42511
0.14870	-0.97117
-0.05531	1.86019
-0.00431	1.68163
0.58223	-0.46102
-0.08081	0.45726
0.04670	-0.05289
-0.05531	0.50828
0.04670	1.57960
0.25071	-1.12422
0.27621	-1.86394
0.22521	0.40625
0.14870	0.50828
0.12320	0.96742
0.17421	0.55929
0.07220	0.22769
0.17421	0.10015
-0.00431	0.04914
0.32721	0.12566
0.22521	0.38074
0.17421	1.35003
0.04670	-0.41000
-0.02981	-1.91496
0.19971	-0.43551
-0.13181	0.68683
0.19971	1.60511
0.22521	-0.56305
0.19971	-0.15492
0.42922	-0.58856
0.12320	1.42656
0.07220	0.48277
-0.02981	1.17148
0.27621	0.71234
0.19971	0.50828
0.27621	0.66132
0.17421	0.02363
-0.00431	-0.86914
0.17421	-2.70570
0.12320	-0.92016
0.22521	-0.02739
0.12320	-0.92016
0.17421	2.24281
-0.02981	1.12046
0.12320	1.78367
0.09770	-0.18043
0.30171	0.99292
-0.08081	0.89089
0.19971	-0.71609
0.25071	0.25320
0.22521	-1.12422
0.09770	-0.86914
0.14870	0.71234
0.19971	-0.07840
0.22521	0.43176
0.19971	0.48277
0.22521	0.53379
-0.00431	-0.76711
0.12320	-0.74160
0.27621	-0.00188
0.14870	0.63582
0.12320	0.15117
-0.13181	0.94191
0.14870	-0.38449
0.19971	1.70714
0.14870	0.22769
0.14870	-1.30277
0.30171	-1.35379
0.14870	0.96742
-0.02981	1.45206
-0.18282	0.66132
-0.02981	-0.33348
0.35272	-0.15492
0.32721	1.27351
0.32721	0.91640
-0.05531	-1.14973
0.22521	-1.55785
0.25071	-0.15492
0.22521	-0.07840
0.04670	0.48277
0.02119	0.55929
-0.00431	-1.17523
0.12320	0.61031
0.35272	1.06945
0.17421	0.27871
0.12320	0.61031
0.14870	0.76336
0.17421	0.43176
-0.02981	0.27871
0.19971	-0.48652
0.14870	0.35523
0.17421	-1.65988
-0.02981	-0.07840
0.07220	0.81437
0.12320	1.63062
0.53123	0.15117
0.07220	-0.43551
-0.02981	-0.48652
0.22521	-0.15492
0.22521	1.27351
0.27621	0.61031
0.27621	-1.04770
0.17421	0.12566
0.07220	0.89089
-0.02981	0.12566
0.12320	0.68683
0.12320	1.22250
0.22521	-0.76711
0.14870	-0.48652
-0.02981	0.40625
0.25071	0.32972
0.19971	-1.04770
0.19971	-0.07840
0.04670	0.12566
0.32721	0.86539
0.32721	0.53379
0.09770	0.25320
-0.33583	0.96742
-0.18282	-0.61406
0.37822	-1.68539
0.35272	-0.25695
0.45472	0.17668
0.19971	1.04394
0.07220	1.24800
0.12320	0.81437
0.09770	0.30422
0.22521	0.25320
0.14870	-0.97117
-0.18282	-0.76711
-0.15732	0.32972
0.07220	0.86539
0.09770	-0.05289
0.27621	1.29902
0.42922	-0.12942
0.35272	-0.43551
0.22521	-1.20074
0.04670	1.04394
0.14870	0.40625
-0.02981	0.15117
0.02119	-1.04770
0.02119	-0.35899
0.32721	0.61031
0.37822	1.52859
0.09770	0.55929
-0.13181	-0.92016
0.14870	-0.46102
0.22521	0.20219
0.17421	0.61031
0.17421	-0.69059
0.02119	0.73785
0.02119	0.78886
0.12320	0.07465
0.25071	-0.41000
0.19971	0.15117
0.12320	0.89089
0.12320	-0.97117
0.17421	0.43176
0.22521	-0.12942
0.30171	0.89089
0.19971	0.55929
-0.00431	-0.97117
-0.05531	-0.05289
0.02119	-0.25695
0.40372	0.66132
0.32721	0.86539
0.19971	0.40625
0.12320	-0.28246
0.27621	0.35523
0.07220	0.35523
-0.10631	-1.17523
-0.05531	0.94191
0.17421	1.01843
0.19971	-0.71609
0.27621	0.55929
0.22521	-0.43551
0.07220	-0.74160
0.22521	0.78886
0.12320	0.86539
0.22521	0.99292
0.12320	0.61031
0.12320	0.48277
0.12320	0.02363
0.25071	0.10015
0.07220	-0.30797
0.30171	-0.20594
0.02119	-0.84363
0.17421	-0.00188
0.22521	0.61031
0.12320	1.12046
0.02119	0.04914
0.22521	0.15117
0.30171	-0.76711
-0.00431	-0.23145
-0.20832	0.73785
-0.08081	0.30422
0.58223	1.09496
0.25071	-0.02739
0.32721	-1.43031
0.02119	0.68683
-0.00431	0.73785
0.25071	1.75816
0.17421	-1.43031
-0.08081	0.58480
0.02119	-0.07840
0.25071	0.48277
0.22521	0.30422
0.17421	-0.23145
0.07220	0.27871
0.04670	0.43176
0.04670	0.22769
0.17421	-1.04770
0.12320	0.15117
0.09770	0.68683
0.09770	0.27871
0.19971	0.30422
0.22521	-0.35899
0.09770	0.15117
0.14870	-0.10391
0.22521	0.22769
0.04670	1.42656
0.14870	1.19699
0.12320	-0.23145
0.12320	-2.90976
0.25071	0.35523
0.14870	0.96742
0.09770	1.42656
0.04670	1.47757
0.22521	-1.43031
0.30171	0.35523
0.02119	0.53379
-0.33583	-0.12942
0.09770	0.45726
0.32721	-0.58856
0.45472	0.40625
0.25071	0.32972
0.12320	0.27871
0.19971	-0.18043
0.14870	-0.05289
-0.00431	-0.56305
-0.00431	0.38074
0.17421	0.68683
0.12320	0.32972
0.17421	0.43176
-0.13181	-0.23145
0.27621	0.32972
0.35272	-0.25695
0.30171	0.12566
0.37822	-0.66508
-0.02981	1.12046
-0.05531	0.22769
0.07220	-0.10391
0.22521	0.76336
-0.02981	0.94191
0.17421	0.35523
0.27621	-0.05289
0.17421	-0.07840
0.22521	-0.05289
0.14870	0.12566
0.22521	0.38074
0.14870	-0.41000
-0.28482	-0.86914
-0.18282	0.04914
0.27621	0.96742
0.48022	0.32972
0.42922	-1.04770
0.30171	0.68683
0.19971	1.65613
0.14870	0.12566
0.22521	0.02363
0.02119	-2.80773
0.07220	0.27871
0.07220	1.45206
0.22521	1.01843
0.12320	0.99292
0.12320	0.02363
-0.08081	0.27871
0.07220	0.10015
0.19971	0.73785
0.14870	-0.33348
0.27621	-1.27726
0.25071	-0.53754
0.17421	0.68683
0.17421	0.10015
0.02119	0.30422
0.25071	0.61031
0.09770	-0.00188
0.14870	0.35523
-0.10631	0.38074
0.32721	0.17668
0.14870	0.61031
0.17421	-1.30277
0.07220	-0.56305
0.32721	-0.66508
0.12320	1.50308
0.02119	1.68163
-0.25932	1.32453
-0.00431	-0.97117
0.30171	0.71234
0.45472	0.61031
0.35272	-0.33348
0.14870	-0.02739
0.07220	-0.33348
0.02119	-0.18043
0.12320	0.30422
0.14870	0.63582
0.02119	0.07465
0.17421	-0.35899
0.22521	-0.00188
0.22521	0.48277
0.22521	0.12566
0.12320	0.43176
0.17421	0.55929
0.07220	-0.30797
0.30171	-0.48652
0.02119	0.53379
-0.02981	0.91640
0.09770	0.96742
0.27621	-1.04770
0.30171	0.53379
0.30171	0.22769
0.07220	-0.63957
0.14870	-0.10391
0.04670	0.58480
0.09770	-0.23145
0.27621	0.73785
0.35272	1.37554
-0.15732	-0.56305
-0.23382	0.61031
0.12320	0.07465
0.27621	-0.28246
0.22521	-0.05289
0.30171	0.10015
0.35272	0.58480
0.17421	-0.20594
0.07220	-0.35899
0.12320	0.10015
0.04670	-0.86914
0.09770	0.35523
0.17421	0.45726
0.12320	0.96742
0.17421	0.10015
0.17421	-0.35899
0.12320	0.40625
0.22521	-0.25695
0.19971	-0.00188
-0.08081	0.45726
-0.00431	1.29902
0.17421	0.81437
0.17421	0.43176
0.04670	0.58480
0.14870	-0.33348
0.32721	-0.05289
0.27621	-0.84363
0.07220	0.04914
0.12320	-0.25695
0.25071	0.38074
0.25071	0.22769
-0.10631	0.32972
-0.02981	0.45726
0.07220	0.94191
0.27621	0.07465
0.12320	-2.39961
0.37822	0.40625
0.17421	0.35523
0.09770	2.11527
0.22521	-0.38449
0.12320	0.12566
0.07220	-0.99668
0.12320	0.35523
-0.00431	1.24800
0.17421	1.19699
0.14870	-0.28246
0.17421	-0.00188
0.14870	-0.00188
0.17421	0.50828
0.09770	0.04914
0.17421	0.07465
0.17421	0.20219
0.12320	-0.58856
0.25071	-0.84363
0.02119	0.30422
0.19971	-0.92016
0.07220	0.94191
0.22521	1.04394
0.25071	-0.28246
0.12320	0.22769
0.30171	0.53379
0.04670	0.15117
-0.05531	-0.86914
-0.15732	-0.61406
0.19971	1.17148
0.40372	1.09496
0.32721	0.71234
0.14870	0.25320
0.09770	0.15117
0.14870	0.04914
0.12320	0.10015
0.27621	-0.15492
0.22521	-0.46102
0.04670	-0.33348
-0.15732	-0.25695
0.02119	0.32972
0.12320	0.81437
0.19971	0.83988
0.32721	-1.09871
0.22521	0.48277
0.04670	-0.00188
0.30171	1.14597
0.19971	-0.63957
0.07220	0.61031
0.14870	0.15117
0.27621	-0.99668
0.27621	0.89089
0.22521	1.17148
0.22521	0.38074
0.19971	-0.20594
0.19971	-0.18043
0.14870	-0.46102
0.02119	0.15117
0.04670	0.02363
0.04670	0.27871
0.09770	0.17668
0.27621	-0.12942
0.17421	0.43176
0.19971	-0.33348
0.17421	0.81437
0.27621	0.07465
0.07220	0.25320
-0.20832	-1.58336
-0.10631	0.38074
0.40372	0.43176
0.22521	-0.00188
0.07220	0.76336
0.19971	0.04914
0.30171	-0.23145
0.30171	0.71234
0.17421	0.71234
0.09770	0.35523
0.07220	0.12566
0.22521	1.12046
0.07220	-0.86914
0.04670	-1.30277
0.22521	-1.17523
0.22521	0.86539
0.30171	0.68683
0.02119	0.96742
0.14870	0.58480
0.09770	0.53379
0.12320	-0.79262
0.22521	1.14597
0.07220	-1.78742
0.22521	0.38074
-0.05531	0.89089
0.09770	0.02363
0.19971	-0.25695
0.35272	0.07465
0.32721	0.10015
0.14870	0.55929
-0.05531	-0.12942
0.37822	0.58480
0.12320	0.83988
0.04670	0.02363
-0.05531	0.78886
0.07220	-0.86914
0.25071	-0.66508
0.27621	0.71234
0.25071	0.30422
0.12320	0.10015
0.17421	0.35523
0.14870	0.35523
0.02119	0.25320
0.07220	0.12566
0.12320	-0.05289
0.19971	-0.05289
0.09770	0.22769
0.07220	0.04914
0.22521	0.12566
0.09770	0.63582
0.04670	0.61031
0.07220	-0.05289
0.09770	-0.05289
0.27621	0.04914
0.09770	0.45726
0.09770	-0.43551
0.12320	-0.86914
0.14870	1.04394
0.25071	0.53379
0.12320	1.24800
0.12320	0.04914
0.35272	0.07465
0.04670	0.20219
-0.15732	0.15117
-0.20832	-0.15492
0.14870	-0.00188
0.40372	-0.00188
0.50573	0.04914
0.40372	0.02363
0.25071	0.32972
0.19971	-0.46102
-0.15732	-0.12942
0.07220	0.66132
0.14870	0.55929
0.14870	0.04914
0.17421	-0.15492
0.27621	0.35523
0.22521	0.15117
0.12320	0.76336
0.02119	0.76336
0.09770	0.10015
0.27621	0.35523
0.25071	0.25320
0.17421	-0.76711
-0.05531	0.27871
0.14870	-0.53754
0.19971	0.25320
0.14870	0.91640
0.19971	0.27871
0.17421	-0.18043
0.14870	0.15117
0.17421	0.61031
0.14870	0.91640
0.22521	-0.97117
0.27621	-0.61406
-0.08081	0.10015
0.02119	0.66132
0.22521	0.78886
0.32721	0.38074
0.30171	-0.28246
0.12320	-0.18043
0.07220	0.66132
0.17421	-0.76711
0.14870	0.99292
0.27621	-0.15492
0.22521	-0.05289
0.12320	0.76336
0.07220	0.20219
0.09770	0.25320
0.19971	0.12566
0.17421	0.45726
0.09770	-0.33348
-0.10631	-0.10391
0.27621	-0.63957
0.25071	0.20219
0.22521	0.40625
-0.05531	0.76336
0.19971	0.50828
0.32721	-0.66508
0.12320	0.20219
0.07220	0.35523
0.09770	0.48277
0.17421	0.48277
0.09770	-0.18043
0.25071	-0.99668
0.02119	0.91640
0.25071	0.73785
0.02119	-1.22625
-0.02981	-1.55785
-0.05531	0.55929
0.35272	2.01323
0.22521	0.81437
0.32721	-0.05289
0.14870	-0.15492
0.30171	0.32972
0.27621	0.20219
-0.00431	0.17668
-0.05531	-0.07840
0.25071	-0.28246
0.12320	-0.56305
0.19971	0.10015
0.17421	0.12566
0.09770	0.12566
0.19971	0.32972
0.12320	0.10015
0.07220	0.02363
0.14870	0.10015
0.27621	0.71234
0.12320	0.12566
0.17421	-0.89465
0.12320	0.43176
0.12320	0.45726
0.14870	0.38074
0.12320	0.73785
0.19971	0.43176
0.09770	0.07465
0.17421	-0.23145
0.04670	0.15117
0.12320	-0.76711
0.19971	-0.02739
0.37822	-0.00188
0.14870	0.89089
0.17421	0.12566
0.14870	-0.56305
-0.00431	0.55929
0.07220	0.12566
0.12320	1.17148
0.07220	0.91640
0.02119	-0.48652
0.14870	-0.56305
0.30171	-0.46102
0.32721	-0.58856
0.30171	0.58480
0.14870	0.66132
0.02119	0.55929
0.14870	0.40625
0.04670	-0.02739
-0.00431	-0.10391
0.04670	0.45726
0.12320	-0.10391
0.22521	-0.69059
0.14870	0.17668
-0.00431	-0.00188
0.14870	0.81437
0.22521	0.53379
0.14870	0.43176
0.07220	-0.25695
0.17421	-0.51203
0.14870	0.30422
0.22521	0.66132
0.32721	-0.20594
0.12320	-0.74160
-0.18282	0.73785
-0.13181	0.96742
0.22521	0.45726
0.30171	-0.07840
0.53123	-0.15492
0.04670	-0.18043
-0.10631	0.30422
0.19971	0.76336
0.17421	-0.35899
0.02119	-0.53754
0.19971	0.38074
0.07220	0.50828
0.19971	0.76336
0.22521	0.02363
0.17421	-0.18043
0.12320	-0.71609
-0.00431	0.30422
0.17421	0.61031
0.14870	-0.43551
0.12320	0.91640
0.22521	0.20219
0.25071	0.35523
0.19971	-0.05289
0.25071	-0.43551
0.25071	0.91640
0.14870	0.50828
0.17421	0.02363
-0.08081	0.27871
0.09770	0.27871
0.02119	-0.81812
0.25071	-0.46102
0.27621	0.78886
0.27621	0.68683
0.07220	0.45726
-0.10631	0.27871
-0.08081	-0.00188
0.14870	0.04914
0.42922	0.38074
0.35272	-0.18043
0.32721	-0.48652
0.19971	-0.35899
-0.08081	0.25320
-0.08081	1.01843
0.12320	-0.46102
0.14870	-0.25695
0.12320	0.91640
0.32721	0.50828
0.27621	0.35523
0.19971	0.30422
0.14870	-0.97117
0.07220	0.12566
0.19971	0.83988
0.22521	0.71234
0.19971	-0.10391
0.14870	-0.28246
0.12320	0.53379
0.12320	0.32972
0.07220	-0.23145
0.30171	-0.66508
0.32721	0.25320
0.09770	0.43176
-0.10631	0.45726
0.09770	0.38074
0.30171	0.17668
0.32721	-0.07840
0.35272	-0.07840
0.22521	0.71234
0.19971	0.15117
0.17421	-0.51203
0.12320	0.55929
-0.08081	0.12566
-0.05531	-0.05289
-0.08081	-0.23145
0.17421	-0.20594
0.30171	0.53379
0.30171	1.19699
0.12320	0.83988
0.22521	0.76336
0.12320	-1.32828
0.09770	0.12566
0.12320	0.10015
0.12320	0.07465
0.09770	0.38074
0.09770	-0.33348
0.25071	-0.05289
0.19971	0.22769
0.19971	0.27871
0.04670	-0.48652
0.14870	0.25320
-0.05531	0.15117
0.04670	0.48277
0.45472	0.07465
0.19971	0.83988
-0.15732	0.86539
-0.00431	-0.66508
0.50573	-1.09871
0.30171	-0.56305
0.02119	0.91640
0.17421	0.89089
0.19971	0.76336
0.25071	0.61031
0.17421	0.32972
-0.05531	-0.30797
-0.08081	-0.07840
0.22521	0.20219
0.19971	0.20219
0.04670	0.04914
0.12320	-0.02739
0.12320	-0.35899
0.27621	0.22769
0.25071	0.02363
0.17421	0.12566
0.25071	0.66132
0.04670	0.32972
0.09770	-0.07840
0.25071	0.17668
-0.02981	0.32972
0.14870	0.17668
0.17421	0.12566
0.12320	-0.58856
0.17421	0.45726
0.22521	0.10015
0.12320	0.66132
0.14870	-0.10391
0.07220	0.91640
0.17421	-0.48652
0.22521	0.35523
0.19971	0.45726
0.12320	0.40625
-0.00431	-0.07840
-0.02981	0.25320
0.09770	-0.10391
0.32721	0.17668
0.17421	0.43176
0.30171	-0.25695
0.14870	-0.05289
0.07220	0.10015
0.17421	0.04914
0.12320	0.35523
0.12320	0.25320
0.22521	0.35523
0.14870	0.17668
0.12320	-0.25695
-0.02981	-0.05289
-0.05531	0.22769
0.14870	-0.53754
0.27621	0.10015
0.40372	0.43176
0.25071	0.81437
0.02119	0.20219
0.04670	-0.02739
0.09770	-0.51203
0.30171	1.01843
0.12320	0.27871
0.07220	0.20219
0.09770	0.35523
0.22521	0.45726
0.04670	0.32972
0.17421	-0.41000
0.02119	-0.25695
0.40372	0.58480
0.19971	-0.63957
-0.05531	-0.18043
0.04670	0.53379
0.27621	0.38074
0.32721	-0.00188
0.25071	0.12566
0.19971	0.61031
0.12320	0.25320
-0.00431	-0.35899
0.02119	0.63582
0.07220	0.48277
0.09770	-1.17523
0.12320	0.53379
0.25071	0.94191
0.19971	1.32453
0.09770	-1.22625
0.02119	-0.58856
0.30171	0.40625
0.17421	0.89089
-0.10631	0.78886
0.02119	0.40625
0.30171	0.35523
0.19971	0.10015
0.17421	-0.25695
0.27621	-0.66508
0.19971	0.27871
0.17421	-0.07840
0.14870	0.12566
0.02119	-0.02739
0.12320	0.38074
0.14870	0.32972
0.09770	0.10015
0.25071	0.04914
-0.00431	0.22769
-0.13181	0.17668
0.09770	0.10015
0.45472	-0.74160
0.27621	0.73785
0.04670	0.73785
0.25071	0.78886
0.19971	0.10015
0.14870	0.58480
0.12320	-0.46102
0.14870	0.12566
0.17421	0.25320
0.04670	0.27871
0.17421	-0.05289
0.22521	-0.18043
0.07220	-0.18043
0.19971	0.35523
0.12320	0.32972
0.02119	-0.56305
0.12320	-0.41000
0.12320	0.10015
0.17421	0.83988
0.12320	0.68683
0.19971	0.35523
0.14870	-0.28246
0.22521	0.25320
0.04670	-0.38449
0.27621	0.27871
0.27621	0.71234
0.12320	0.15117
0.14870	0.76336
0.12320	1.14597
0.27621	-1.25176
0.19971	-1.17523
0.02119	0.48277
0.07220	1.65613
0.35272	-0.48652
0.17421	-0.51203
-0.15732	0.45726
-0.10631	0.40625
0.02119	0.32972
0.40372	0.76336
0.32721	-0.89465
0.19971	-0.56305
0.35272	-0.12942
0.12320	1.27351
0.12320	-0.74160
0.02119	-0.15492
0.09770	0.48277
0.19971	0.61031
-0.00431	0.35523
0.07220	0.27871
0.14870	0.32972
0.07220	0.58480
0.25071	-0.07840
0.22521	-0.23145
0.14870	-0.35899
0.25071	0.35523
0.14870	0.22769
0.22521	0.76336
0.19971	-0.56305
0.09770	-0.46102
0.09770	0.25320
0.19971	0.25320
0.22521	0.32972
0.42922	0.48277
-0.00431	0.58480
-0.31033	-0.20594
-0.02981	0.10015
0.30171	-1.48133
0.40372	0.86539
0.27621	1.40105
0.25071	-0.43551
0.25071	-0.94566
0.12320	0.61031
-0.02981	1.06945
0.19971	0.17668
0.12320	0.68683
0.14870	-0.51203
0.12320	0.27871
0.02119	0.27871
0.14870	0.25320
0.12320	0.25320
0.12320	-0.51203
0.12320	-0.12942
0.25071	-0.00188
0.17421	-0.05289
0.14870	-0.05289
0.25071	0.30422
-0.08081	0.61031
-0.00431	0.63582
0.25071	-0.53754
0.17421	-0.25695
0.22521	0.07465
0.19971	0.32972
0.12320	0.17668
0.22521	0.78886
0.07220	0.96742
0.27621	0.78886
0.09770	-0.46102
0.02119	0.32972
-0.02981	-0.12942
0.14870	0.04914
0.22521	0.61031
0.45472	-0.00188
0.45472	-0.97117
-0.08081	0.15117
-0.15732	0.22769
0.14870	-0.30797
0.30171	0.50828
0.30171	0.32972
-0.02981	0.58480
0.19971	0.45726
0.25071	-0.02739
0.12320	0.20219
0.04670	0.40625
0.09770	0.04914
0.12320	-0.41000
0.17421	0.25320
0.02119	-0.48652
0.14870	0.53379
0.22521	0.78886
0.12320	0.35523
0.07220	-0.76711
0.19971	0.61031
0.19971	0.02363
0.12320	-1.04770
0.19971	0.02363
0.14870	0.71234
0.19971	1.32453
0.14870	0.63582
0.12320	0.38074
0.02119	-0.23145
0.12320	0.12566
0.12320	0.35523
0.12320	-0.46102
0.14870	-0.15492
0.22521	-0.10391
0.12320	0.12566
0.02119	0.40625
0.17421	0.32972
0.27621	0.10015
0.14870	0.30422
0.14870	-0.02739
0.19971	-0.00188
0.19971	0.91640
0.17421	-0.05289
0.12320	-1.20074
0.07220	0.04914
0.22521	0.83988
0.07220	0.71234
0.12320	0.66132
0.14870	0.48277
0.09770	0.22769
0.14870	1.14597
0.19971	-0.92016
0.17421	-2.88425
0.17421	-0.07840
0.17421	1.32453
0.07220	0.81437
0.17421	1.04394
0.17421	0.55929
0.02119	0.38074
0.19971	-0.02739
0.12320	-0.35899
0.09770	1.17148
0.22521	-0.18043
0.19971	-1.25176
0.04670	-0.92016
0.17421	0.86539
0.27621	-0.12942
0.09770	0.35523
0.04670	0.66132
0.04670	0.58480
0.14870	0.50828
0.17421	0.10015
0.19971	0.55929
0.27621	-0.63957
0.07220	0.43176
0.02119	0.27871
-0.08081	-0.12942
0.22521	-0.07840
0.35272	-0.00188
0.25071	0.48277
0.07220	-0.30797
0.07220	-0.30797
0.17421	0.61031
0.12320	0.66132
0.22521	0.43176
0.07220	0.04914
0.09770	0.25320
0.22521	0.32972
0.09770	0.83988
0.02119	-1.07320
0.27621	-0.51203
0.17421	0.02363
0.02119	0.15117
0.27621	0.15117
0.12320	0.76336
0.04670	0.10015
0.22521	1.12046
0.22521	0.02363
0.14870	-0.76711
0.09770	-0.00188
0.12320	0.66132
0.22521	-0.02739
0.07220	-0.07840
0.14870	0.45726
0.12320	0.50828
0.12320	0.45726
-0.00431	0.43176
0.32721	-0.38449
0.25071	-0.51203
-0.13181	-0.15492
0.07220	0.15117
0.32721	0.55929
0.22521	0.48277
0.27621	0.17668
0.25071	0.25320
0.14870	-0.10391
0.07220	-0.53754
0.12320	0.66132
0.04670	0.55929
0.04670	0.17668
0.12320	0.50828
0.19971	0.20219
-0.05531	0.35523
0.12320	-0.92016
0.32721	0.50828
0.25071	0.17668
0.17421	-0.61406
0.17421	0.78886
0.19971	-0.38449
0.14870	0.83988
0.07220	0.68683
0.14870	0.71234
0.14870	-0.58856
0.19971	0.43176
0.19971	-0.41000
-0.00431	0.50828
0.17421	0.12566
0.30171	-0.20594
-0.08081	0.20219
0.07220	0.04914
0.12320	-0.00188
0.09770	0.55929
0.27621	0.53379
0.19971	-0.51203
0.14870	0.35523
0.14870	0.20219
0.32721	-0.30797
0.12320	0.32972
-0.13181	0.12566
-0.20832	0.63582
0.09770	0.63582
0.40372	0.22769
0.37822	0.12566
0.17421	-0.51203
0.09770	0.22769
0.04670	0.38074
0.32721	1.01843
0.17421	-2.17003
0.02119	0.38074
0.07220	0.55929
-0.02981	0.04914
0.19971	0.81437
0.25071	0.83988
0.19971	0.22769
0.14870	-0.12942
0.19971	0.15117
0.09770	-0.35899
0.12320	0.40625
0.17421	0.22769
0.17421	-0.07840
0.12320	-0.38449
0.04670	0.32972
0.17421	0.48277
0.22521	0.25320
0.19971	0.12566
0.17421	0.35523
0.19971	0.76336
0.04670	-0.18043
0.14870	-0.84363
0.25071	-0.02739
0.30171	0.71234
0.22521	0.38074
-0.10631	0.30422
-0.28482	-0.12942
0.07220	-0.05289
0.45472	0.81437
0.37822	0.32972
0.17421	-0.15492
0.07220	-0.76711
0.07220	0.25320
0.19971	0.58480
0.19971	0.61031
0.19971	0.96742
0.12320	0.55929
0.12320	-1.78742
0.04670	0.12566
0.07220	-0.25695
0.12320	-0.15492
0.17421	0.53379
0.17421	-0.23145
0.17421	1.19699
0.12320	-0.02739
0.17421	-0.12942
0.17421	0.71234
0.09770	0.30422
0.17421	0.48277
0.19971	0.35523
0.12320	0.63582
0.09770	-0.02739
0.32721	-0.51203
0.14870	-0.74160
0.07220	-0.33348
0.14870	-0.61406
-0.00431	0.86539
-0.23382	0.89089
0.04670	0.45726
0.40372	0.53379
0.35272	0.20219
0.17421	-0.10391
0.25071	-0.07840
0.09770	0.12566
0.07220	0.25320
0.12320	0.43176
0.07220	-0.18043
0.02119	0.35523
0.09770	0.04914
0.17421	-0.97117
-0.00431	0.63582
0.19971	0.78886
0.19971	-0.38449
0.19971	0.20219
0.14870	0.66132
0.19971	0.68683
0.12320	0.76336
0.27621	-0.51203
0.22521	-0.38449
0.14870	0.58480
0.19971	-0.18043
0.19971	-0.53754
0.04670	0.04914
0.12320	0.40625
0.25071	1.09496
0.09770	0.45726
-0.10631	-0.81812
-0.31033	-0.00188
-0.08081	0.96742
0.48022	0.07465
0.40372	-0.15492
0.22521	0.71234
0.22521	0.66132
0.22521	-0.25695
0.09770	-0.00188
0.17421	0.04914
0.09770	0.43176
0.02119	0.20219
0.04670	0.20219
0.17421	0.15117
0.19971	0.02363
0.22521	-0.07840
0.17421	0.35523
0.02119	-0.00188
0.12320	-0.12942
0.25071	0.76336
0.27621	0.94191
0.12320	-0.33348
0.12320	-1.02219
0.22521	0.61031
0.12320	-0.20594
0.02119	0.48277
0.19971	0.38074
0.07220	0.43176
0.22521	0.45726
0.07220	0.45726
-0.02981	-1.30277
0.02119	0.15117
0.25071	0.32972
0.22521	0.35523
0.14870	0.45726
0.14870	0.83988
0.30171	-0.38449
0.22521	-0.48652
0.02119	-0.15492
0.04670	-0.12942
0.17421	0.48277
0.17421	1.06945
0.14870	0.61031
0.12320	-1.07320
0.02119	0.04914
0.12320	0.89089
0.25071	1.14597
0.19971	0.45726
0.19971	-1.07320
-0.13181	0.04914
-0.20832	-0.33348
0.27621	0.30422
0.37822	0.30422
0.25071	1.06945
0.14870	0.45726
0.22521	0.02363
0.12320	0.17668
0.07220	0.45726
0.12320	0.22769
0.17421	-0.71609
0.12320	0.25320
0.04670	-1.12422
0.14870	0.55929
0.25071	0.45726
0.30171	0.53379
-0.00431	0.27871
-0.33583	0.20219
0.07220	0.27871
0.37822	0.63582
0.32721	-0.58856
0.32721	0.53379
0.27621	0.48277
0.14870	-0.51203
0.04670	-0.79262
0.09770	0.35523
0.27621	0.15117
0.02119	1.14597
0.19971	0.78886
0.17421	-1.12422
0.07220	0.58480
0.17421	0.45726
0.14870	-0.46102
0.19971	0.73785
0.17421	0.55929
0.14870	0.61031
0.32721	-0.10391
0.19971	0.17668
-0.08081	-0.28246
0.14870	-0.46102
0.14870	0.25320
-0.02981	0.61031
0.09770	-0.12942
0.37822	-0.25695
0.40372	0.35523
0.32721	0.50828
0.07220	0.32972
-0.13181	0.22769
0.30171	-0.00188
0.17421	0.17668
0.07220	0.22769
0.04670	0.15117
0.19971	0.32972
0.19971	0.66132
0.07220	-0.10391
0.12320	-1.20074
0.25071	-0.02739
0.12320	0.30422
0.07220	0.66132
0.12320	0.66132
0.19971	0.38074
0.12320	0.15117
0.14870	0.32972
0.12320	0.17668
0.09770	-0.79262
0.27621	0.35523
0.22521	0.35523
0.07220	-0.74160
0.07220	0.89089
0.02119	-0.02739
0.12320	0.30422
0.22521	0.43176
0.25071	0.25320
0.12320	0.35523
0.17421	-0.12942
0.22521	-0.63957
0.04670	0.17668
0.09770	0.63582
0.19971	0.76336
0.07220	0.53379
0.14870	-1.07320
0.14870	0.15117
-0.20832	-0.20594
0.14870	0.40625
0.37822	0.73785
0.30171	0.45726
0.27621	0.55929
0.22521	-0.63957
0.09770	0.50828
-0.00431	0.40625
0.07220	-0.66508
0.09770	-0.35899
0.09770	0.25320
0.19971	0.27871
0.12320	0.86539
0.14870	0.61031
0.14870	-0.23145
0.12320	0.25320
0.12320	-0.18043
0.12320	0.30422
0.32721	0.27871
0.14870	0.15117
0.02119	-0.86914
0.07220	0.30422
0.17421	0.10015
0.19971	0.73785
0.19971	-0.23145
0.22521	0.58480
0.25071	0.30422
0.09770	-0.43551
-0.00431	0.25320
0.02119	0.32972
0.25071	0.76336
0.14870	0.55929
-0.18282	0.66132
-0.05531	0.50828
0.30171	-0.58856
0.37822	-0.20594
0.25071	-1.88945
0.19971	0.50828
0.14870	0.20219
0.02119	0.63582
0.09770	0.15117
0.14870	0.66132
0.12320	0.45726
0.17421	0.35523
0.09770	-0.07840
0.19971	0.17668
0.09770	0.17668
0.09770	0.53379
0.17421	0.02363
0.22521	-1.53234
0.22521	-0.20594
0.12320	-0.05289
0.09770	0.58480
0.27621	0.32972
0.27621	0.91640
0.22521	0.91640
0.02119	0.10015
-0.05531	0.55929
0.02119	0.20219
0.25071	-0.63957
0.22521	-0.41000
0.09770	-0.41000
0.12320	0.50828
0.35272	0.55929
0.27621	0.63582
-0.13181	-0.28246
-0.02981	0.30422
0.19971	0.30422
0.30171	-0.00188
0.30171	0.45726
0.17421	-0.33348
0.17421	-0.35899
0.09770	0.15117
0.02119	-0.05289
0.12320	1.04394
0.12320	0.66132
0.19971	0.25320
0.12320	-0.05289
0.07220	-1.09871
0.27621	0.48277
0.19971	1.01843
0.07220	0.55929
0.12320	-0.20594
0.17421	-1.27726
0.27621	-0.23145
0.12320	1.32453
0.04670	-0.18043
0.02119	-0.07840
0.14870	0.50828
0.22521	0.63582
0.02119	0.43176
0.17421	0.43176
0.25071	0.20219
0.14870	-0.41000
0.19971	0.10015
0.17421	0.15117
0.07220	-0.15492
0.09770	0.20219
0.12320	0.48277
0.14870	0.02363
0.12320	-0.99668
-0.10631	0.25320
-0.02981	0.78886
0.25071	0.89089
0.35272	-0.02739
0.32721	-0.02739
0.14870	-0.12942
0.17421	0.15117
0.22521	0.22769
0.04670	0.04914
0.07220	0.22769
0.12320	0.38074
0.07220	0.25320
0.07220	0.27871
0.12320	0.32972
0.25071	0.20219
0.27621	0.22769
0.22521	-0.02739
0.12320	0.07465
0.17421	-0.61406
0.14870	0.10015
0.04670	0.12566
-0.00431	0.22769
0.14870	0.40625
0.25071	0.10015
0.32721	-0.46102
0.19971	0.45726
0.09770	0.30422
0.17421	0.30422
0.25071	0.40625
0.19971	0.43176
-0.15732	0.48277
-0.25932	-0.61406
0.12320	0.04914
0.37822	0.94191
0.30171	0.32972
0.19971	-2.09351
0.14870	0.20219
0.19971	1.01843
0.12320	0.12566
0.07220	0.50828
0.14870	0.58480
0.17421	0.48277
0.14870	0.50828
0.14870	0.15117
0.09770	0.02363
0.22521	0.15117
0.14870	-0.66508
0.02119	-0.28246
0.07220	-0.00188
0.27621	-0.10391
0.04670	-0.10391
0.12320	-0.10391
0.25071	0.15117
0.37822	0.61031
0.27621	0.53379
0.02119	0.43176
-0.00431	0.35523
0.14870	0.38074
0.19971	0.15117
0.09770	-0.00188
0.09770	0.38074
0.14870	-0.56305
0.19971	-0.51203
0.09770	0.76336
0.12320	0.02363
0.17421	-0.28246
0.17421	0.94191
0.12320	-0.63957
0.30171	0.43176
-0.28482	0.55929
-0.00431	0.53379
0.32721	-0.48652
0.35272	-0.20594
0.25071	0.35523
0.22521	0.12566
0.17421	0.35523
0.17421	0.22769
0.12320	0.12566
0.07220	0.04914
0.17421	0.04914
0.09770	0.07465
0.14870	0.22769
0.25071	0.35523
0.14870	-0.05289
0.07220	-0.74160
0.04670	0.63582
0.27621	-0.18043
0.19971	0.32972
0.04670	0.38074
-0.00431	-0.89465
0.37822	-0.10391
0.25071	0.76336
0.27621	1.32453
0.07220	0.71234
0.07220	0.10015
0.12320	0.45726
0.17421	0.04914
0.19971	-0.05289
0.12320	0.12566
0.09770	-0.35899
0.12320	-0.86914
-0.00431	-0.84363
0.12320	0.30422
0.17421	0.83988
0.14870	0.71234
0.32721	0.02363
0.09770	0.04914
-0.10631	0.12566
0.14870	0.63582
0.22521	0.38074
0.19971	0.22769
0.27621	0.02363
0.17421	-0.12942
0.22521	0.25320
0.14870	0.12566
0.14870	-0.15492
0.12320	0.22769
-0.00431	0.48277
-0.15732	-0.18043
0.02119	-0.23145
0.25071	0.73785
0.27621	0.50828
0.22521	-0.51203
0.09770	0.10015
0.12320	0.38074
0.19971	1.04394
0.17421	-0.02739
0.12320	0.35523
0.17421	-1.83844
0.07220	0.63582
0.27621	0.66132
0.14870	0.73785
-0.18282	-0.00188
-0.10631	0.22769
0.17421	0.89089
0.45472	-0.51203
0.27621	-1.09871
0.14870	-0.20594
0.19971	-0.02739
0.19971	0.12566
0.07220	0.55929
0.12320	0.73785
0.04670	0.35523
0.14870	0.30422
0.12320	-0.12942
0.17421	0.32972
0.09770	0.02363
0.19971	0.04914
0.12320	0.10015
0.12320	-0.25695
0.25071	-0.05289
0.09770	0.25320
-0.00431	0.73785
0.02119	-0.05289
0.27621	0.86539
0.30171	-0.30797
0.17421	0.35523
0.17421	-0.92016
0.09770	0.25320
0.09770	0.61031
0.09770	0.15117
0.12320	0.25320
0.22521	0.86539
0.22521	0.55929
0.14870	0.58480
0.14870	0.48277
0.14870	-0.63957
0.12320	-0.07840
-0.20832	0.07465
-0.02981	-0.23145
0.30171	0.15117
0.22521	-0.66508
0.32721	-0.25695
0.17421	0.78886
0.17421	0.71234
0.09770	0.48277
0.02119	0.38074
0.02119	0.35523
0.22521	0.81437
0.17421	-0.51203
0.17421	-0.23145
0.07220	-0.66508
0.17421	0.17668
0.19971	0.48277
0.12320	0.35523
0.09770	0.27871
0.12320	0.45726
0.27621	0.53379
-0.02981	-0.63957
0.12320	-1.32828
0.14870	0.55929
0.25071	0.86539
0.22521	0.76336
0.17421	-0.02739
0.17421	-0.05289
0.19971	0.68683
0.17421	0.10015
0.12320	-0.20594
0.30171	0.25320
0.09770	1.04394
-0.18282	-0.56305
-0.13181	-0.20594
0.14870	0.48277
0.37822	0.27871
0.42922	-0.20594
0.22521	0.15117
0.09770	-0.46102
0.25071	0.89089
0.14870	0.38074
0.14870	-0.35899
0.09770	-0.35899
0.07220	-1.09871
0.22521	-0.15492
0.17421	1.14597
0.19971	1.37554
0.09770	0.10015
0.12320	0.68683
0.14870	-0.15492
0.25071	0.48277
0.12320	-0.02739
-0.05531	-0.38449
0.09770	0.38074
0.27621	-0.07840
0.27621	0.12566
0.19971	0.12566
0.14870	-0.74160
0.14870	-0.07840
0.22521	0.38074
0.07220	0.40625
0.04670	0.45726
0.12320	0.68683
0.02119	0.43176
0.19971	0.27871
0.25071	0.20219
0.22521	-0.25695
0.07220	-0.00188
0.07220	-0.10391
0.14870	-1.04770
0.22521	0.12566
0.02119	0.63582
-0.23382	1.35003
-0.00431	0.68683
0.32721	-0.63957
0.40372	0.32972
0.27621	0.35523
0.12320	0.17668
0.12320	0.25320
0.22521	0.10015
-0.00431	-0.10391
0.09770	0.07465
0.17421	-0.18043
0.22521	0.22769
0.17421	-0.51203
0.09770	-0.02739
0.17421	0.63582
0.07220	0.10015
0.02119	-0.38449
0.17421	0.96742
0.27621	1.37554
0.22521	-0.05289
0.07220	-0.76711
0.12320	-0.76711
0.19971	1.04394
0.17421	0.86539
0.22521	0.04914
0.22521	-0.02739
0.04670	-0.00188
0.17421	-0.05289
0.07220	0.12566
0.07220	-0.02739
0.27621	-0.46102
0.04670	0.81437
-0.20832	0.63582
-0.00431	0.07465
0.25071	-0.25695
0.37822	0.12566
0.37822	0.12566
0.12320	0.22769
0.19971	0.02363
0.22521	0.12566
0.14870	-0.15492
0.04670	-0.20594
0.14870	-0.07840
0.17421	0.81437
0.09770	0.02363
0.19971	0.12566
0.19971	0.15117
-0.02981	0.83988
0.07220	0.55929
0.30171	-1.48133
0.22521	0.55929
0.22521	0.76336
0.19971	0.78886
0.14870	0.32972
0.17421	-0.10391
0.25071	-0.79262
0.19971	0.38074
0.02119	-0.18043
0.14870	0.45726
0.09770	-0.35899
-0.00431	0.35523
0.12320	0.61031
0.40372	0.50828
0.35272	0.22769
-0.02981	-0.02739
-0.05531	-0.33348
0.09770	0.35523
0.27621	0.20219
0.35272	0.25320
0.19971	0.40625
0.12320	0.17668
0.12320	0.45726
0.27621	-0.69059
-0.00431	0.04914
0.07220	0.63582
0.04670	-0.20594
0.17421	0.15117
0.19971	-0.10391
0.04670	-1.09871
0.02119	0.12566
0.17421	0.63582
0.19971	1.37554
0.27621	1.04394
0.17421	-0.07840
0.04670	0.40625
0.09770	0.20219
0.19971	-0.76711
0.17421	0.07465
0.12320	-0.56305
0.14870	0.38074
0.09770	-0.23145
0.12320	0.55929
0.09770	0.35523
0.12320	0.40625
0.12320	0.20219
0.14870	-0.35899
0.17421	-0.38449
0.22521	0.30422
0.40372	0.40625
0.09770	0.27871
-0.25932	0.04914
0.04670	0.25320
0.19971	0.43176
0.12320	0.07465
0.27621	0.50828
0.12320	0.22769
0.22521	-0.86914
0.12320	-0.94566
0.09770	-0.10391
0.14870	1.12046
0.07220	0.96742
0.07220	0.89089
0.12320	-0.38449
0.22521	-0.12942
0.17421	-0.05289
0.02119	0.58480
0.19971	0.45726
0.17421	0.10015
0.09770	-0.71609
0.30171	-0.00188
0.14870	-0.76711
0.02119	0.76336
0.32721	0.81437
0.19971	0.58480
0.04670	0.25320
0.19971	-0.10391
0.17421	-0.84363
0.07220	-0.15492
0.22521	0.68683
0.12320	0.76336
0.19971	-0.15492
0.12320	-0.12942
-0.23382	0.50828
-0.08081	0.40625
0.32721	0.15117
0.42922	1.17148
0.25071	-0.58856
0.32721	-0.35899
0.14870	0.55929
0.02119	-0.00188
0.17421	1.01843
0.09770	0.63582
-0.10631	-0.89465
