0.22521	0.20219
0.12320	0.17668
0.02119	0.15117
-0.08081	0.07465
-0.15732	0.07465
0.12320	0.07465
0.07220	0.20219
0.22521	0.20219
0.17421	0.17668
0.37822	0.20219
0.22521	0.04914
0.30171	0.15117
0.14870	0.02363
-0.02981	0.10015
-0.10631	0.04914
0.02119	0.07465
0.19971	0.17668
0.32721	0.15117
0.19971	0.27871
0.32721	0.20219
0.17421	0.20219
0.12320	0.17668
0.02119	0.04914
-0.08081	0.15117
0.02119	0.07465
0.02119	0.10015
0.25071	0.15117
0.09770	0.12566
0.32721	0.20219
0.30171	0.17668
0.32721	0.22769
0.17421	0.10015
-0.02981	0.12566
0.02119	0.04914
-0.10631	0.12566
0.14870	0.25320
0.17421	0.10015
0.19971	0.10015
0.32721	0.15117
0.22521	0.25320
0.27621	0.17668
0.12320	0.15117
0.02119	0.17668
0.09770	0.12566
-0.00431	0.07465
0.12320	0.17668
0.04670	0.15117
0.02119	0.07465
0.22521	0.22769
0.30171	0.10015
0.22521	0.17668
0.22521	0.15117
0.17421	0.15117
-0.02981	-0.00188
-0.08081	0.12566
0.07220	0.10015
0.07220	0.12566
0.14870	0.22769
0.40372	0.17668
0.37822	0.17668
0.25071	0.32972
0.27621	0.22769
0.09770	0.15117
-0.15732	0.12566
-0.18282	0.04914
0.07220	0.10015
0.07220	0.15117
0.22521	0.12566
0.30171	0.12566
0.25071	0.20219
0.30171	0.17668
0.27621	0.15117
0.02119	0.02363
0.04670	0.15117
-0.08081	-0.00188
0.22521	0.22769
0.12320	0.15117
0.19971	0.27871
0.07220	0.12566
0.27621	0.30422
0.14870	0.10015
0.25071	0.17668
0.02119	0.15117
-0.02981	-0.00188
-0.15732	-0.00188
0.12320	0.04914
0.14870	-0.00188
0.25071	0.22769
0.37822	0.10015
0.37822	0.25320
0.30171	0.17668
0.07220	0.22769
0.14870	0.04914
-0.18282	0.20219
-0.10631	0.02363
0.02119	0.22769
0.02119	0.17668
0.17421	0.25320
0.32721	0.12566
0.27621	0.27871
0.22521	0.10015
0.22521	0.15117
0.09770	0.02363
-0.00431	0.10015
-0.08081	0.02363
0.07220	0.17668
0.17421	0.10015
0.22521	0.20219
0.27621	0.17668
0.25071	0.17668
0.19971	0.22769
0.12320	0.07465
0.09770	0.15117
0.02119	0.10015
-0.02981	0.07465
0.07220	0.12566
0.09770	0.12566
0.22521	0.12566
0.35272	0.22769
0.22521	0.17668
0.25071	0.17668
0.09770	0.12566
0.09770	0.04914
0.04670	0.20219
-0.13181	0.15117
0.12320	0.12566
0.14870	0.20219
-0.00431	-0.02739
0.35272	0.12566
0.37822	0.22769
0.30171	0.17668
0.17421	0.15117
0.09770	0.15117
-0.10631	0.17668
-0.08081	0.04914
0.12320	0.15117
0.27621	0.04914
0.14870	0.15117
0.22521	0.30422
0.19971	0.27871
0.17421	0.15117
0.17421	0.10015
0.12320	0.15117
-0.00431	-0.12942
-0.13181	0.15117
0.12320	0.15117
0.12320	0.22769
0.14870	0.22769
0.22521	0.17668
0.32721	0.30422
0.42922	0.15117
0.27621	0.12566
0.22521	0.07465
-0.23382	-0.00188
-0.25932	-0.00188
0.04670	0.12566
0.02119	0.15117
0.30171	0.25320
0.42922	0.10015
0.35272	0.22769
0.30171	0.22769
-0.00431	0.27871
0.22521	0.17668
-0.23382	0.04914
-0.05531	0.10015
0.02119	-0.00188
-0.13181	0.15117
0.12320	0.12566
0.37822	0.17668
0.40372	0.22769
0.42922	0.15117
0.50573	0.10015
0.55673	0.04914
-0.08081	0.04914
-0.64185	0.15117
-0.69285	0.04914
0.40372	0.22769
0.83725	0.22769
0.53123	0.22769
0.30171	-0.10391
0.22521	0.43176
0.22521	0.15117
-0.28482	0.10015
-0.74385	0.15117
-0.02981	0.17668
0.37822	0.17668
0.30171	0.32972
0.17421	-0.05289
0.48022	0.17668
0.12320	-0.00188
-0.48884	0.30422
0.12320	0.02363
0.42922	0.17668
0.27621	0.12566
0.70974	0.48277
0.48022	-0.00188
-0.20832	-0.30797
-0.41233	-0.12942
0.53123	0.45726
0.32721	0.35523
0.37822	0.30422
0.70974	0.17668
-0.53984	0.20219
-0.84586	0.15117
0.04670	0.17668
0.30171	0.02363
-0.64185	0.27871
-0.25932	0.04914
1.14327	0.15117
0.30171	-0.18043
1.60230	-0.02739
1.55129	-0.10391
-0.33583	0.40625
-1.94243	0.40625
-1.07538	0.35523
0.48022	0.50828
1.55129	0.20219
1.34728	0.10015
0.22521	-0.05289
-0.64185	0.35523
-1.15188	0.30422
-1.96793	0.38074
0.12320	-0.30797
1.70430	0.15117
0.96476	0.10015
1.78081	-0.41000
0.63323	0.76336
1.39828	-0.12942
-0.31033	0.35523
-2.14644	0.15117
-1.50890	-0.30797
0.14870	0.68683
-0.05531	-0.41000
1.52579	0.66132
0.91375	0.15117
-1.04987	0.17668
0.32721	0.40625
0.07220	-0.30797
0.12320	0.10015
0.19971	-0.02739
1.70430	0.68683
-0.00431	-0.10391
-2.40146	0.17668
-1.04987	0.22769
1.09226	-0.23145
0.99026	-0.10391
0.78624	0.55929
-0.36133	0.02363
1.93382	0.20219
-1.89143	0.35523
-0.00431	0.10015
1.70430	0.58480
0.65874	0.27871
0.02119	-0.38449
-0.23382	0.02363
-1.99343	0.22769
-0.18282	-0.18043
0.86275	-0.15492
1.16877	0.40625
0.81175	0.45726
-1.50890	0.40625
-0.97337	0.35523
-2.68198	0.55929
-0.56534	0.10015
2.21434	-0.15492
2.80087	0.10015
1.90832	0.04914
-0.10631	-0.51203
0.37822	-0.18043
0.25071	0.30422
0.55673	0.25320
-2.37596	0.45726
0.25071	0.58480
-0.25932	-0.79262
0.35272	0.04914
1.24527	-0.10391
-0.99887	0.20219
-2.93700	0.58480
1.01576	0.38074
1.50029	0.48277
-0.38683	0.43176
-1.43240	0.12566
2.57136	-0.20594
3.08139	0.25320
-0.43783	0.27871
-0.99887	0.10015
-0.59084	0.15117
-0.02981	-0.18043
0.53123	-0.79262
-0.61635	-0.18043
-0.64185	0.78886
0.55673	0.40625
-0.69285	0.40625
1.04126	0.32972
1.24527	0.10015
-0.79486	0.10015
-0.38683	0.04914
0.25071	0.45726
0.12320	0.02363
3.64243	0.48277
1.98482	0.27871
-0.97337	0.04914
-1.27939	0.04914
-0.84586	0.04914
-2.27395	-0.28246
0.19971	-0.28246
0.42922	0.61031
0.19971	-0.41000
1.39828	0.53379
1.93382	0.35523
-4.36509	-0.25695
-1.40690	0.02363
1.85731	-0.20594
1.44929	-0.05289
1.62780	0.40625
1.70430	0.66132
1.32178	0.17668
-0.38683	0.22769
0.91375	0.73785
-1.48340	0.22769
-1.10088	0.55929
-0.84586	-0.05289
-0.31033	-0.20594
-2.91149	0.07465
0.81175	-0.41000
1.85731	-0.07840
2.11233	-0.00188
1.32178	0.15117
1.01576	0.27871
-0.31033	0.35523
-1.81492	0.02363
0.27621	0.20219
0.53123	0.55929
-0.46334	0.61031
-1.10088	-0.12942
2.03582	-0.43551
-0.36133	-0.20594
-0.13181	0.07465
1.34728	0.68683
0.27621	0.02363
-0.48884	0.27871
-0.74385	1.70714
0.42922	-0.05289
0.81175	0.17668
-0.05531	-0.00188
0.37822	-0.41000
1.42379	-0.35899
-3.67654	-0.00188
-1.91693	0.22769
0.42922	0.61031
1.83181	0.45726
1.80631	0.15117
-0.02981	-0.12942
-0.36133	0.86539
0.12320	-0.23145
0.76074	-0.25695
2.01032	0.53379
0.45472	-0.35899
-2.63097	0.43176
0.37822	0.45726
1.01576	0.10015
0.04670	0.35523
-1.94243	0.15117
1.11776	0.12566
2.49485	0.15117
2.46935	0.10015
-4.64560	0.04914
-2.93700	0.22769
2.18883	0.32972
1.09226	-1.12422
-1.20288	0.27871
3.05589	0.17668
3.25990	0.50828
0.32721	0.76336
0.02119	0.63582
-0.59084	-0.86914
-5.05363	0.76336
-0.41233	0.58480
2.82638	0.48277
0.02119	-0.30797
-0.28482	0.04914
-0.36133	0.20219
0.09770	-0.07840
0.53123	-0.10391
0.55673	0.04914
-1.20288	0.25320
-0.31033	-0.25695
0.30171	0.02363
2.23984	0.78886
1.98482	-0.00188
0.02119	0.71234
0.60773	0.04914
0.12320	-0.02739
1.55129	-0.05289
-0.92237	0.02363
-0.23382	0.15117
-5.74217	0.38074
1.90832	0.76336
1.09226	-0.12942
-0.25932	-0.48652
0.27621	-0.25695
0.02119	0.17668
1.85731	0.81437
0.96476	0.63582
-0.74385	-0.51203
-0.46334	-0.10391
0.88825	0.17668
0.19971	-0.02739
-0.43783	0.27871
1.85731	0.66132
-2.22295	-0.30797
-3.16651	0.15117
3.25990	0.12566
1.47479	0.22769
0.60773	-0.25695
-0.02981	0.32972
0.25071	0.55929
0.12320	0.38074
0.12320	-0.69059
-0.64185	0.86539
0.09770	-0.25695
-0.61635	0.15117
-2.68198	-0.07840
1.62780	0.20219
1.88281	0.15117
1.16877	0.04914
-0.99887	0.02363
1.52579	-0.15492
1.65330	0.48277
-2.40146	0.32972
-2.78398	0.40625
1.50029	0.25320
2.46935	0.04914
-0.89686	-0.30797
-2.19745	-0.10391
0.63323	0.27871
-3.14101	0.55929
1.52579	0.20219
3.84644	-0.05289
2.11233	-0.07840
1.60230	0.50828
0.42922	0.15117
0.42922	0.20219
-3.54903	-0.10391
-1.12638	0.20219
0.30171	0.81437
1.16877	-0.66508
-0.87136	-0.02739
-0.51434	0.15117
2.34184	0.32972
0.81175	0.63582
-0.79486	0.96742
-0.33583	-0.25695
-0.48884	-0.53754
-1.50890	0.20219
-0.74385	0.02363
1.39828	0.17668
1.78081	0.25320
1.75531	0.04914
1.34728	0.48277
0.02119	0.48277
1.80631	-0.18043
-2.55447	0.22769
-0.92237	-0.10391
-2.06994	-0.53754
-0.69285	0.20219
0.96476	0.12566
0.14870	0.17668
1.34728	0.50828
3.71893	0.38074
1.09226	0.43176
-3.19201	0.30422
-2.35046	0.20219
0.76074	-0.10391
0.19971	-0.15492
1.34728	0.40625
0.22521	-0.23145
-0.64185	0.53379
1.55129	-0.23145
0.60773	0.68683
-0.23382	-0.79262
0.02119	0.17668
0.53123	0.58480
-1.22839	0.20219
0.42922	0.17668
0.83725	0.02363
-0.76936	-0.18043
0.30171	-0.28246
1.24527	0.55929
-0.38683	0.02363
-0.00431	0.00000
-0.05531	0.00000
-0.53984	0.00000
1.19427	0.00000
1.70430	0.00000
0.42922	0.00000
-0.74385	0.00000
-0.23382	0.00000
-0.59084	0.00000
-0.13181	0.00000
-0.79486	0.55929
1.93382	0.68683
1.27078	0.17668
-0.66735	0.25320
-5.33415	-0.41000
0.88825	-0.02739
1.34728	0.17668
0.73524	0.40625
-0.36133	0.43176
2.01032	0.43176
1.90832	0.04914
2.01032	-0.25695
0.07220	0.07465
0.12320	-0.00188
0.14870	0.27871
1.19427	0.45726
-2.96250	0.04914
-0.89686	0.20219
-0.89686	0.10015
-4.46709	0.25320
3.69343	0.02363
3.69343	0.58480
1.75531	-0.10391
-1.12638	0.15117
-2.35046	0.17668
1.44929	-0.00188
0.73524	-0.86914
-1.15188	0.35523
-1.96793	0.40625
1.01576	0.58480
2.46935	0.27871
1.32178	-0.15492
-1.27939	-0.61406
-0.48884	-0.71609
2.11233	0.83988
-0.23382	0.73785
-2.80949	0.58480
-0.31033	0.04914
1.72980	0.02363
0.07220	-0.05289
0.53123	0.22769
0.27621	0.20219
-0.41233	-0.10391
1.14327	0.04914
1.65330	0.40625
-0.92237	0.04914
-0.36133	0.10015
-0.05531	-0.05289
-0.53984	0.10015
0.60773	0.27871
0.42922	-0.00188
0.07220	0.53379
-1.20288	-0.00188
0.25071	-0.25695
0.17421	0.02363
-1.10088	-0.10391
1.21977	-0.02739
1.72980	0.35523
1.24527	0.61031
0.76074	0.66132
-0.08081	0.63582
-0.51434	0.55929
-0.46334	0.35523
-0.13181	-0.02739
0.73524	-0.02739
-0.36133	-0.41000
1.27078	-0.25695
-0.46334	-0.33348
-1.61091	-0.35899
1.29628	-0.25695
2.11233	0.76336
-0.02981	0.17668
-2.93700	0.55929
-0.15732	0.30422
1.57679	0.48277
-0.28482	0.35523
-1.50890	0.12566
0.53123	-0.00188
1.27078	-0.15492
1.27078	0.04914
0.88825	0.32972
0.09770	0.04914
-0.43783	0.30422
1.14327	-0.84363
0.02119	0.17668
-1.73842	0.89089
0.88825	-0.02739
0.22521	0.25320
1.34728	0.76336
-1.71292	0.22769
-0.69285	-0.05289
0.48022	0.10015
1.90832	0.22769
1.09226	0.27871
-0.89686	-0.30797
-2.47797	-0.58856
-0.10631	0.38074
0.58223	-0.05289
0.58223	0.58480
1.42379	0.04914
0.12320	-0.02739
-2.01894	0.15117
0.76074	-0.00188
-0.10631	0.04914
0.86275	0.40625
1.37278	-1.02219
1.11776	1.22250
-0.87136	-0.12942
-1.78942	-0.07840
-2.29945	-0.10391
2.64786	0.32972
1.75531	0.22769
0.76074	0.61031
0.53123	0.63582
-0.28482	-0.00188
-0.43783	-0.38449
0.86275	0.53379
-0.64185	0.15117
-2.35046	-0.10391
0.30171	0.04914
1.19427	0.15117
-0.08081	-0.20594
0.04670	0.17668
0.17421	-0.05289
0.70974	0.40625
0.17421	0.40625
0.50573	0.20219
-0.10631	0.22769
-3.82955	0.25320
1.16877	0.38074
1.55129	0.15117
1.32178	0.27871
2.13783	-0.02739
0.35272	0.17668
-0.15732	0.30422
-0.31033	0.02363
0.19971	0.35523
-0.13181	-0.28246
-0.25932	-0.30797
-0.38683	0.15117
-1.12638	-0.51203
0.76074	0.48277
0.19971	0.55929
-2.09544	0.55929
1.14327	0.25320
1.24527	0.30422
0.45472	0.27871
1.50029	0.43176
0.19971	0.50828
0.19971	-0.02739
0.83725	0.17668
0.53123	0.04914
0.12320	0.04914
-0.41233	-0.12942
-0.18282	-0.07840
-0.02981	-0.05289
-1.20288	-0.28246
1.06676	0.22769
-0.97337	-0.15492
-2.86049	0.50828
1.01576	0.25320
1.44929	0.22769
0.91375	0.94191
3.25990	-0.46102
0.17421	0.38074
0.60773	0.61031
-1.78942	0.04914
-0.84586	-0.05289
0.19971	0.07465
0.22521	0.20219
0.25071	0.12566
0.58223	-0.00188
0.73524	0.04914
-1.10088	-0.07840
-0.31033	0.27871
-0.46334	0.04914
0.81175	0.35523
0.50573	0.20219
0.42922	0.20219
0.78624	0.40625
1.24527	0.30422
0.09770	-0.10391
-0.97337	0.15117
-0.38683	0.25320
0.40372	-0.18043
0.07220	0.40625
-0.23382	0.50828
-0.28482	0.12566
0.88825	-0.10391
0.73524	-0.12942
0.37822	-0.02739
-1.15188	0.66132
0.78624	0.35523
-0.38683	-0.15492
-0.05531	0.27871
1.78081	0.22769
1.55129	0.20219
-0.82036	-0.43551
0.53123	0.27871
0.76074	0.27871
-1.20288	0.63582
-3.39602	-0.05289
1.39828	0.48277
0.78624	-0.23145
0.93925	0.35523
0.32721	-0.15492
1.04126	-0.10391
1.24527	-0.05289
-0.89686	-0.02739
-0.48884	0.43176
0.32721	0.73785
-2.01894	0.35523
1.39828	0.25320
0.60773	-0.63957
-0.00431	-0.43551
0.58223	0.20219
2.57136	0.40625
0.68424	0.35523
-3.37052	0.43176
-1.04987	1.06945
0.78624	-1.30277
1.24527	0.25320
0.09770	-0.00188
0.70974	-0.23145
0.40372	-0.10391
0.55673	0.45726
0.07220	0.27871
0.14870	0.17668
-0.46334	0.15117
-0.89686	0.86539
-1.02437	-0.20594
1.62780	0.15117
0.58223	0.48277
-1.94243	-1.09871
-0.08081	-0.18043
1.14327	0.32972
1.80631	0.81437
-0.18282	0.17668
0.63323	0.45726
1.21977	0.22769
1.65330	0.30422
-0.66735	-0.02739
-0.10631	0.27871
-0.25932	-0.02739
-0.92237	0.02363
0.78624	0.30422
0.78624	-0.07840
-3.11551	-0.71609
0.07220	0.10015
1.21977	0.66132
0.76074	0.53379
1.72980	0.45726
-1.02437	-0.25695
-1.50890	-0.10391
-0.05531	0.20219
-0.20832	-0.05289
0.73524	0.04914
2.36734	0.27871
0.32721	0.45726
0.09770	0.32972
-0.36133	0.25320
0.22521	-0.23145
0.88825	-0.41000
-0.02981	0.22769
-1.02437	0.27871
-0.10631	0.25320
-1.43240	0.22769
-2.19745	0.22769
0.30171	0.32972
1.78081	0.12566
1.16877	0.53379
0.07220	-0.07840
0.83725	0.17668
-0.28482	0.07465
1.32178	0.27871
0.81175	-0.35899
-0.97337	0.07465
-0.59084	0.15117
-0.15732	0.27871
0.55673	0.48277
2.18883	0.15117
0.14870	-0.12942
-2.45246	0.12566
-0.76936	0.20219
0.37822	0.17668
0.88825	0.04914
-0.74385	0.55929
1.65330	0.02363
1.42379	0.22769
-2.65648	-0.12942
1.55129	0.40625
1.27078	-0.43551
-0.33583	0.61031
-0.53984	0.43176
-0.56534	-0.00188
2.46935	0.25320
0.99026	-0.00188
-2.93700	0.22769
-1.22839	0.02363
1.39828	0.04914
1.04126	0.40625
0.78624	0.43176
-0.23382	0.17668
-0.48884	-0.00188
-0.13181	0.15117
0.02119	-0.38449
-0.79486	0.45726
-0.18282	0.04914
1.11776	0.25320
1.34728	0.40625
0.35272	-0.61406
-1.10088	0.94191
0.96476	0.22769
0.99026	0.12566
-0.15732	-0.15492
-1.91693	0.12566
0.48022	0.12566
-0.02981	0.25320
0.37822	0.07465
2.95388	0.32972
0.68424	-0.30797
-0.92237	0.32972
0.32721	-0.00188
1.88281	0.30422
-3.95706	0.22769
-4.64560	0.35523
1.78081	0.20219
1.47479	0.20219
2.36734	-0.05289
0.53123	-0.20594
-0.87136	0.12566
0.65874	0.22769
1.62780	0.35523
1.39828	0.12566
-3.57454	-0.12942
-0.59084	0.30422
1.37278	-0.20594
2.16333	0.48277
0.32721	0.66132
-2.70748	0.04914
0.30171	0.30422
1.16877	0.02363
1.06676	-0.28246
-0.94787	0.27871
-0.08081	0.10015
0.50573	0.35523
0.83725	0.45726
0.53123	-0.12942
0.60773	0.20219
-0.08081	0.25320
0.07220	0.15117
0.22521	-0.74160
-1.17738	0.02363
0.60773	0.63582
0.25071	0.10015
0.02119	-0.07840
-0.64185	0.50828
0.32721	0.15117
0.96476	0.04914
-1.35589	0.35523
0.99026	0.25320
-0.61635	0.35523
1.65330	0.43176
1.55129	0.35523
-1.27939	0.07465
1.24527	0.30422
-0.43783	-0.00188
-3.14101	-0.23145
-0.18282	-0.35899
2.13783	0.04914
0.63323	-0.07840
0.17421	0.15117
0.78624	0.12566
0.83725	0.20219
-0.69285	0.20219
0.19971	0.55929
-0.02981	0.35523
-0.31033	0.20219
0.25071	0.22769
1.90832	0.58480
0.96476	0.10015
-3.90606	0.07465
-0.76936	0.12566
1.04126	0.22769
-0.38683	-0.10391
0.63323	-0.20594
1.21977	-0.30797
1.04126	-0.12942
0.65874	-0.07840
-1.43240	0.71234
0.14870	0.17668
1.52579	0.04914
-2.52897	0.22769
0.40372	0.38074
1.44929	-0.10391
0.65874	0.07465
-0.25932	0.30422
0.42922	-0.23145
-0.02981	0.07465
0.99026	0.45726
-0.53984	0.27871
0.32721	0.38074
-2.83499	0.25320
0.42922	-0.28246
0.07220	-0.15492
1.75531	0.22769
1.95932	0.02363
-0.20832	0.15117
-1.43240	0.22769
0.83725	0.27871
1.34728	-0.10391
-0.20832	0.27871
-2.63097	0.12566
-0.18282	-0.02739
1.16877	0.20219
1.78081	0.25320
0.35272	0.10015
0.02119	0.12566
-0.20832	0.30422
0.60773	-0.05289
0.58223	-0.02739
-1.17738	-0.56305
0.02119	0.27871
-0.94787	0.76336
-0.28482	0.45726
0.63323	-0.02739
0.68424	0.43176
1.62780	0.15117
1.44929	-0.41000
-1.33039	0.58480
-2.01894	-0.00188
0.32721	-0.20594
1.29628	0.22769
2.82638	0.07465
-3.11551	-0.35899
-2.01894	0.07465
0.91375	0.10015
2.44385	0.58480
1.60230	0.32972
0.40372	0.20219
-0.48884	0.15117
-0.15732	0.55929
-0.61635	-0.10391
0.07220	-0.25695
-0.18282	0.02363
-1.89143	0.04914
-0.92237	0.17668
1.16877	0.40625
-1.22839	0.43176
0.76074	0.17668
2.23984	0.22769
1.50029	-0.02739
0.83725	-0.15492
1.39828	0.12566
-0.51434	-0.48652
-1.22839	0.30422
-0.18282	0.22769
-0.13181	0.32972
0.78624	0.12566
0.68424	0.63582
-0.89686	0.15117
0.22521	-0.12942
1.09226	0.17668
-2.14644	0.20219
-0.69285	-0.02739
0.42922	0.10015
0.60773	0.07465
0.19971	0.25320
1.95932	-0.05289
0.83725	0.12566
-0.69285	0.22769
-1.89143	0.25320
0.78624	0.15117
1.65330	0.15117
-0.64185	0.61031
-0.33583	0.12566
-0.08081	-0.35899
0.78624	-0.25695
0.73524	0.20219
0.27621	0.35523
0.55673	0.53379
1.11776	0.17668
-0.64185	0.15117
-1.48340	-0.02739
0.42922	-0.20594
0.58223	0.25320
-0.59084	0.40625
0.04670	0.02363
0.78624	0.45726
0.68424	0.04914
-0.31033	-0.12942
-0.99887	-0.10391
0.30171	0.30422
0.32721	0.40625
0.42922	0.25320
0.32721	0.22769
0.55673	0.27871
0.73524	0.15117
-0.74385	0.02363
0.48022	-0.58856
-0.05531	0.35523
-2.27395	0.04914
0.88825	0.55929
1.32178	0.38074
2.29084	0.32972
-3.57454	0.20219
0.04670	-0.02739
1.65330	0.04914
1.39828	0.10015
0.45472	0.07465
-0.43783	0.15117
-0.28482	-0.00188
-0.20832	0.17668
-0.48884	-0.46102
0.99026	0.15117
0.02119	0.32972
0.35272	0.53379
-0.13181	0.43176
-3.42153	0.12566
0.02119	0.04914
2.01032	0.25320
1.67880	0.55929
0.78624	0.50828
0.17421	-0.25695
0.60773	-0.12942
0.22521	0.27871
-0.31033	0.15117
-0.31033	0.07465
-0.05531	0.32972
-0.23382	0.22769
0.17421	0.04914
0.27621	-0.25695
0.40372	0.20219
0.22521	0.30422
-1.27939	0.15117
-0.82036	0.04914
0.09770	0.35523
0.93925	0.12566
2.80087	0.02363
2.57136	0.35523
-0.38683	0.02363
-5.51266	-0.02739
-0.13181	0.25320
0.86275	0.20219
1.11776	-0.12942
0.40372	-0.12942
1.01576	0.32972
1.11776	0.07465
-0.59084	0.10015
0.27621	0.04914
0.30171	0.45726
0.73524	0.32972
-0.76936	0.30422
-0.25932	0.04914
-0.28482	-0.41000
0.63323	0.30422
0.07220	0.50828
0.07220	-0.61406
0.60773	-0.12942
0.58223	0.20219
0.86275	0.61031
-0.94787	0.22769
0.04670	0.58480
0.25071	0.35523
-0.25932	0.02363
-1.38139	-0.10391
0.76074	-0.28246
2.39285	-0.00188
0.02119	0.32972
-2.29945	-0.00188
-0.20832	0.43176
0.83725	-0.02739
1.72980	0.35523
0.78624	0.15117
-0.71835	0.20219
1.04126	0.10015
1.19427	-0.28246
-0.82036	-0.15492
-2.57997	0.38074
0.32721	0.45726
1.01576	0.38074
0.76074	0.25320
-0.20832	-0.23145
-0.56534	0.20219
0.91375	0.27871
-0.43783	-0.07840
1.04126	-0.07840
0.99026	0.15117
-0.20832	0.04914
-0.28482	0.07465
-1.25389	0.25320
0.07220	0.25320
0.91375	0.32972
0.35272	0.25320
1.01576	0.30422
-0.20832	-0.23145
1.34728	0.35523
1.06676	-0.02739
-0.15732	0.27871
-1.43240	0.27871
0.53123	-0.84363
-0.15732	0.35523
-0.79486	-0.12942
-0.43783	0.27871
-0.18282	0.10015
-0.18282	0.27871
1.75531	0.17668
2.13783	0.38074
-2.93700	-0.12942
-0.89686	0.40625
0.73524	0.40625
0.19971	0.02363
1.04126	0.48277
1.37278	-0.18043
1.19427	0.40625
-0.18282	-0.38449
1.83181	-0.05289
-2.40146	-0.18043
-2.17195	0.38074
0.88825	0.02363
1.04126	0.43176
-0.56534	0.15117
1.55129	0.15117
-0.97337	0.17668
0.81175	-0.00188
-0.48884	-0.63957
0.25071	0.50828
0.37822	0.40625
0.40372	0.25320
1.06676	0.48277
1.01576	0.32972
-2.60547	-0.00188
-1.27939	-0.38449
2.18883	-0.07840
2.67337	0.30422
-1.55991	0.71234
-3.19201	0.15117
0.83725	0.25320
1.01576	-0.18043
-0.79486	-0.00188
0.93925	0.40625
2.01032	0.12566
1.09226	0.25320
0.25071	0.55929
-0.10631	-0.00188
0.25071	-0.20594
-0.10631	0.12566
-1.63641	0.30422
-0.87136	0.04914
-0.31033	0.17668
0.60773	-0.00188
1.14327	0.32972
1.83181	0.32972
0.48022	0.27871
0.58223	-0.02739
-0.23382	0.02363
-3.26852	0.17668
-0.76936	-0.02739
0.45472	-0.07840
0.22521	-0.05289
0.53123	0.17668
2.49485	0.50828
-0.18282	0.68683
-1.91693	0.25320
0.76074	-0.15492
3.03039	-0.23145
0.83725	0.30422
-2.78398	0.30422
0.07220	-0.02739
1.04126	0.45726
1.29628	-0.23145
0.99026	0.15117
-0.08081	0.10015
-1.53441	0.10015
-1.10088	0.20219
0.60773	0.04914
0.53123	-0.07840
-0.38683	0.40625
0.40372	0.20219
0.68424	-0.02739
1.04126	0.32972
0.50573	0.35523
0.30171	-0.00188
-1.17738	0.07465
-0.82036	0.12566
-1.53441	0.12566
1.19427	0.55929
2.31634	-0.33348
1.04126	0.02363
-1.94243	0.48277
-0.51434	0.38074
0.35272	0.15117
0.32721	0.15117
1.55129	0.04914
2.39285	0.12566
-1.71292	-0.00188
-0.18282	0.15117
0.04670	-0.00188
-2.19745	-0.07840
0.35272	0.55929
0.91375	0.07465
0.91375	0.45726
0.60773	0.55929
0.17421	0.25320
-0.18282	0.22769
-0.20832	-0.23145
0.53123	0.04914
-0.00431	0.45726
-0.41233	0.32972
0.12320	-0.05289
0.42922	0.17668
-0.13181	0.04914
-0.13181	0.55929
-0.18282	-0.51203
-0.05531	0.22769
0.42922	-0.25695
0.25071	0.32972
1.14327	0.17668
1.42379	0.27871
1.14327	0.58480
-2.47797	0.35523
-1.35589	0.10015
-0.74385	0.10015
0.07220	0.04914
1.93382	-0.05289
2.03582	0.15117
1.37278	0.50828
0.25071	-0.07840
-0.36133	0.30422
0.45472	0.12566
-0.89686	-0.05289
-2.80949	0.02363
-0.28482	-0.10391
-0.15732	-0.10391
0.30171	0.10015
0.30171	0.02363
-1.50890	0.15117
0.96476	0.48277
1.67880	0.58480
1.42379	0.48277
0.63323	-0.25695
0.70974	0.68683
0.68424	-0.25695
0.42922	-0.02739
-0.71835	0.61031
-0.38683	-0.02739
0.19971	0.25320
-1.73842	-0.07840
-2.52897	0.17668
1.47479	-0.23145
1.55129	0.30422
1.14327	0.17668
-0.08081	0.17668
0.40372	-0.00188
-0.08081	-0.02739
-0.20832	0.12566
0.42922	-0.12942
0.70974	0.53379
-0.69285	0.30422
-0.51434	0.73785
0.65874	-0.35899
0.40372	-0.33348
-0.20832	0.55929
-0.59084	0.35523
0.32721	0.45726
1.60230	0.40625
0.19971	-0.05289
-0.36133	-0.12942
0.93925	0.53379
0.09770	0.40625
-1.71292	-0.28246
0.73524	0.58480
1.60230	-0.23145
1.16877	-0.28246
-1.20288	0.07465
-3.90606	0.02363
0.65874	0.20219
1.93382	0.40625
2.03582	0.15117
0.27621	0.45726
-0.84586	-0.10391
0.83725	-0.10391
0.60773	0.22769
0.30171	0.10015
-0.23382	0.30422
-1.10088	0.10015
-0.31033	-0.05289
1.11776	0.53379
-0.74385	0.22769
-0.36133	0.27871
0.83725	0.10015
0.32721	0.04914
-0.43783	0.10015
0.17421	0.15117
0.17421	0.30422
0.40372	0.07465
0.76074	-0.07840
0.83725	-0.07840
0.27621	0.45726
-3.06450	0.07465
0.53123	0.02363
1.88281	0.43176
0.55673	0.43176
-0.71835	-0.30797
0.83725	0.76336
1.16877	-0.05289
0.17421	0.27871
-1.10088	-0.07840
-0.15732	0.17668
0.53123	0.15117
1.06676	0.48277
1.04126	-0.35899
0.78624	-0.07840
-1.78942	0.35523
-3.16651	-0.12942
-0.33583	-0.15492
-0.69285	-0.10391
1.16877	0.40625
2.11233	0.71234
1.32178	0.02363
1.57679	0.58480
0.96476	-0.15492
-1.02437	0.17668
-0.89686	0.50828
0.22521	0.10015
0.19971	0.17668
-1.30489	-0.41000
-0.13181	0.12566
0.55673	0.04914
0.70974	0.30422
1.93382	0.22769
0.19971	0.40625
-0.84586	0.17668
0.65874	0.02363
-2.04444	-0.43551
0.07220	-0.58856
0.65874	0.40625
-0.69285	0.53379
-0.20832	0.63582
1.19427	0.50828
1.34728	0.20219
0.68424	0.17668
-0.02981	-0.25695
0.55673	0.38074
-0.97337	0.07465
0.88825	0.61031
-0.08081	0.10015
-0.84586	0.02363
0.93925	0.07465
-1.58541	-0.30797
1.11776	0.22769
1.34728	0.20219
1.11776	-0.25695
0.37822	0.25320
-0.74385	-0.05289
-3.34502	0.30422
-0.25932	0.17668
0.12320	0.12566
1.16877	0.63582
0.91375	-0.05289
1.11776	0.63582
1.01576	0.27871
0.65874	0.45726
0.27621	0.04914
-0.38683	-0.00188
-0.71835	0.15117
-0.23382	0.12566
0.55673	0.12566
1.04126	0.04914
-1.10088	-0.23145
-0.66735	0.04914
-0.89686	0.12566
1.24527	0.15117
1.65330	-0.28246
-0.97337	0.27871
-0.25932	0.38074
0.48022	0.32972
1.60230	0.35523
-0.82036	-0.05289
-0.69285	0.38074
1.04126	0.07465
0.68424	0.07465
-0.10631	-0.05289
0.63323	0.63582
0.09770	-0.20594
-0.41233	-0.02739
-0.59084	0.02363
1.34728	0.04914
-0.00431	0.25320
-1.61091	0.25320
-1.02437	0.15117
1.57679	0.25320
1.88281	0.27871
1.29628	0.12566
-3.88056	0.17668
-0.05531	0.12566
1.04126	-0.10391
1.21977	0.43176
1.29628	0.04914
0.88825	-0.07840
-0.79486	0.10015
-0.59084	0.35523
0.27621	0.32972
0.42922	0.30422
-0.43783	-0.20594
0.14870	0.15117
0.53123	0.32972
-0.08081	0.10015
-0.28482	-0.20594
0.42922	0.78886
0.30171	0.32972
0.19971	0.02363
-0.02981	-0.00188
0.12320	0.30422
0.65874	-0.18043
1.78081	0.10015
0.45472	-0.00188
-4.64560	-0.18043
0.09770	-0.00188
1.75531	0.48277
1.78081	-0.05289
-0.48884	0.40625
-2.40146	0.30422
0.50573	0.40625
1.34728	-0.05289
1.01576	0.02363
-0.66735	-0.10391
0.53123	0.22769
1.55129	0.38074
0.88825	0.55929
-0.56534	0.50828
-0.46334	-0.10391
0.30171	0.30422
0.60773	-0.15492
0.53123	-0.41000
-0.94787	0.15117
-3.24301	0.17668
-0.46334	-0.10391
1.16877	0.43176
1.29628	0.25320
1.06676	0.20219
1.98482	0.30422
0.25071	0.10015
-1.86593	-0.05289
-0.89686	-0.35899
1.70430	-0.00188
0.53123	0.48277
-0.51434	0.27871
0.55673	-0.15492
0.45472	0.20219
0.42922	0.30422
1.44929	0.66132
-0.28482	0.15117
-1.53441	0.22769
-1.53441	0.17668
-0.41233	0.12566
0.76074	0.17668
1.50029	-0.18043
2.16333	0.20219
0.32721	0.20219
-1.50890	-0.00188
-0.61635	-0.00188
0.07220	-0.38449
1.04126	-0.12942
0.58223	0.15117
0.55673	0.25320
-0.38683	0.35523
0.14870	0.20219
-0.59084	0.25320
0.88825	0.27871
-0.05531	-0.02739
-0.13181	0.55929
0.32721	0.50828
0.35272	0.12566
-0.71835	-0.28246
-0.15732	-0.20594
0.63323	0.02363
0.81175	-0.61406
0.32721	0.89089
-0.05531	0.07465
0.32721	0.32972
-0.36133	0.55929
0.76074	0.20219
0.32721	0.12566
-1.40690	-0.12942
0.88825	-0.25695
0.07220	-0.07840
-0.59084	0.15117
-0.05531	0.10015
1.24527	0.27871
1.47479	0.55929
-1.20288	0.15117
1.14327	0.07465
0.78624	0.04914
-0.46334	0.10015
-0.89686	0.43176
-0.71835	-0.00188
-0.36133	0.04914
0.83725	-0.15492
0.32721	0.15117
-0.25932	0.40625
-1.66191	0.48277
0.40372	-0.00188
2.72437	0.45726
2.01032	0.10015
-1.84042	0.02363
-0.89686	0.12566
0.83725	0.30422
0.81175	0.15117
0.70974	0.15117
1.01576	-0.15492
0.32721	0.07465
-1.43240	-0.12942
0.04670	0.12566
0.76074	0.12566
0.12320	0.45726
-0.25932	-0.05289
-0.84586	0.30422
0.27621	0.30422
-0.74385	0.17668
-0.59084	-0.20594
-0.25932	0.07465
0.53123	0.30422
0.93925	-0.15492
0.35272	0.27871
1.67880	0.25320
2.21434	-0.02739
-0.18282	0.17668
-1.33039	0.58480
-0.28482	0.17668
0.09770	0.25320
-0.23382	0.20219
0.19971	-0.12942
0.58223	-0.12942
0.86275	0.38074
-0.28482	0.25320
0.88825	-0.18043
0.04670	-0.05289
-2.93700	-0.10391
0.27621	0.68683
1.70430	0.43176
0.35272	0.30422
-1.61091	0.17668
0.19971	-0.00188
0.96476	-0.02739
1.50029	0.02363
1.57679	-0.18043
0.83725	0.35523
-2.22295	0.10015
0.70974	0.38074
0.35272	0.43176
-0.23382	0.43176
0.07220	0.07465
0.12320	-0.02739
-0.18282	-0.69059
0.70974	-0.00188
1.60230	0.61031
-0.99887	0.38074
-3.62554	0.12566
0.19971	0.27871
1.39828	0.15117
0.42922	-0.18043
1.19427	0.22769
0.60773	0.04914
-0.20832	0.17668
0.12320	0.10015
0.93925	-0.05289
-0.38683	0.22769
-1.61091	0.15117
-0.20832	0.40625
1.62780	0.38074
0.42922	0.07465
-0.15732	0.04914
0.45472	0.38074
-1.04987	-0.30797
-0.15732	0.43176
0.65874	0.04914
1.65330	0.15117
1.11776	0.32972
0.17421	0.07465
-0.25932	0.32972
-0.99887	-0.10391
-0.23382	0.17668
-1.55991	0.40625
-0.97337	-0.20594
1.14327	-0.33348
1.85731	0.07465
0.04670	0.22769
-2.37596	0.22769
0.96476	0.30422
2.21434	0.40625
-0.69285	0.25320
0.42922	0.22769
1.04126	0.15117
-0.48884	0.04914
0.02119	0.10015
0.09770	0.17668
0.60773	0.22769
0.73524	0.07465
0.48022	0.15117
-2.17195	-0.07840
-0.51434	0.04914
0.19971	-0.05289
1.04126	0.22769
-0.33583	0.17668
0.37822	0.20219
0.76074	0.15117
-1.99343	0.40625
1.27078	-0.10391
1.62780	0.25320
-0.69285	0.15117
-0.33583	0.20219
0.63323	0.02363
0.99026	0.43176
-0.15732	0.10015
-0.05531	0.04914
0.81175	0.10015
-0.56534	-0.05289
0.25071	0.25320
-0.00431	-0.28246
0.76074	0.99292
-1.53441	0.20219
0.65874	0.07465
0.07220	-0.35899
-0.59084	-0.00188
0.78624	0.25320
0.45472	0.15117
0.50573	0.12566
0.81175	-0.02739
-1.30489	0.04914
0.27621	0.53379
0.78624	0.50828
1.14327	0.35523
0.99026	0.02363
-0.82036	-0.18043
-2.93700	-0.18043
0.35272	0.25320
0.25071	-0.15492
1.57679	-0.15492
0.40372	0.35523
1.14327	0.25320
-0.25932	0.35523
0.50573	0.48277
0.42922	0.02363
-3.39602	-0.58856
-1.55991	0.10015
1.34728	-0.07840
1.52579	0.38074
1.65330	0.30422
1.32178	0.61031
0.30171	0.63582
-0.28482	-0.05289
-0.51434	0.20219
-0.59084	-0.10391
0.32721	-0.15492
0.73524	-0.10391
-0.56534	-0.00188
-0.25932	0.20219
0.09770	0.22769
0.78624	-0.15492
1.29628	0.07465
-0.59084	0.32972
-2.57997	0.02363
0.04670	0.32972
1.60230	0.17668
0.30171	0.17668
-0.53984	0.12566
1.19427	0.10015
1.65330	0.38074
0.14870	0.35523
0.63323	0.25320
-0.69285	-0.76711
-0.59084	-0.05289
-0.08081	0.10015
0.76074	0.07465
0.17421	0.68683
-1.78942	0.45726
0.70974	0.35523
0.99026	0.10015
-0.00431	0.30422
0.09770	0.25320
-0.28482	0.07465
0.86275	0.10015
0.91375	-0.23145
-0.79486	-0.05289
-0.10631	0.15117
1.04126	0.20219
0.55673	-0.07840
-0.66735	0.35523
-0.82036	0.27871
1.09226	0.07465
0.35272	0.30422
-0.59084	0.22769
-0.43783	0.17668
0.04670	-0.76711
0.73524	-0.38449
1.16877	0.02363
0.70974	0.48277
-0.02981	0.53379
-3.44703	0.50828
-0.31033	0.53379
1.04126	0.40625
2.13783	-0.15492
1.16877	-0.05289
-0.10631	0.02363
-0.02981	-0.25695
0.70974	-0.18043
0.70974	0.04914
-0.48884	0.15117
-2.91149	0.07465
-0.05531	0.45726
0.35272	-0.15492
0.83725	0.25320
0.07220	0.32972
0.25071	0.45726
0.09770	-0.28246
0.68424	0.30422
0.83725	0.20219
0.65874	0.25320
-1.02437	-0.00188
-0.48884	0.20219
-0.87136	0.02363
0.83725	-0.10391
1.19427	0.22769
1.09226	0.43176
0.32721	0.40625
0.22521	0.20219
0.19971	0.20219
0.09770	-0.48652
-0.18282	0.45726
-1.27939	-0.02739
-0.61635	-0.18043
0.27621	0.32972
0.91375	-0.10391
0.63323	-0.10391
-1.04987	0.07465
0.63323	0.50828
0.07220	0.20219
0.73524	0.61031
0.88825	-0.10391
0.02119	0.10015
-0.28482	0.15117
0.83725	0.10015
0.09770	0.15117
-0.02981	0.10015
-1.12638	0.12566
0.02119	-0.00188
-0.00431	0.12566
1.11776	0.10015
-0.48884	0.15117
-0.41233	-0.28246
0.70974	0.20219
0.83725	0.45726
1.04126	0.45726
0.19971	0.25320
0.17421	0.48277
-0.43783	-0.46102
-0.08081	-0.15492
0.65874	0.50828
-0.28482	0.15117
-0.99887	0.30422
-1.10088	-0.18043
0.22521	0.07465
2.26534	0.38074
1.60230	0.32972
-2.40146	-0.12942
-1.71292	-0.12942
0.53123	-0.18043
1.57679	0.35523
1.60230	0.40625
0.60773	0.27871
0.48022	0.04914
0.73524	0.20219
-0.23382	0.27871
-0.89686	0.32972
0.58223	-0.07840
-2.32496	0.20219
0.42922	0.35523
1.16877	-0.20594
0.37822	0.25320
0.42922	0.04914
0.25071	0.17668
0.27621	-0.66508
-0.02981	0.22769
-0.56534	0.12566
-0.13181	0.22769
0.19971	0.32972
0.60773	0.63582
0.81175	0.38074
0.37822	0.12566
-0.48884	-0.05289
-0.18282	0.04914
1.80631	-0.05289
1.52579	0.22769
-2.52897	0.17668
-2.52897	0.22769
0.65874	-0.05289
1.14327	0.35523
1.27078	0.48277
0.78624	-0.23145
0.32721	0.10015
0.93925	0.15117
0.88825	0.25320
-1.22839	0.07465
0.12320	-0.10391
0.17421	0.32972
-0.56534	0.15117
0.55673	-0.07840
-0.69285	0.40625
-1.10088	0.35523
-1.22839	0.20219
1.50029	0.30422
2.06133	0.04914
-0.18282	-0.15492
-0.46334	-0.00188
0.53123	0.07465
0.40372	0.02363
0.99026	0.25320
0.14870	0.30422
-1.10088	0.22769
-1.15188	0.43176
-0.02981	-0.00188
1.39828	0.04914
0.09770	0.22769
0.68424	-0.10391
-0.20832	-0.00188
0.53123	0.22769
0.63323	0.27871
0.63323	0.43176
-0.28482	0.17668
-0.20832	-0.02739
0.12320	-0.05289
0.40372	0.15117
0.40372	0.07465
-3.49803	-0.25695
-0.08081	-0.07840
0.76074	0.35523
1.09226	0.40625
1.34728	0.35523
0.65874	0.17668
-1.81492	-0.05289
1.19427	0.45726
1.34728	0.17668
0.93925	-0.07840
0.17421	-0.25695
-0.92237	-0.05289
-0.66735	0.48277
-0.99887	0.17668
0.76074	0.27871
0.25071	0.04914
0.02119	-0.99668
0.83725	0.53379
0.78624	0.22769
-0.69285	0.35523
-0.59084	0.27871
-0.28482	0.20219
0.19971	0.32972
0.53123	0.27871
0.70974	-0.05289
0.81175	0.35523
0.81175	0.20219
-0.00431	-0.02739
-0.02981	0.25320
-1.22839	-0.18043
-0.61635	-0.20594
0.68424	0.22769
1.14327	0.15117
0.78624	-0.02739
-0.71835	0.12566
0.37822	0.35523
-0.08081	0.35523
1.04126	0.27871
1.50029	0.30422
-1.96793	0.12566
-1.17738	0.22769
-1.02437	-0.18043
0.22521	0.12566
1.52579	-0.05289
-0.48884	0.17668
0.70974	0.35523
0.63323	0.20219
-0.18282	-0.43551
0.30171	-0.18043
0.12320	0.35523
0.17421	0.15117
-0.36133	0.55929
-0.25932	-0.33348
-0.00431	0.43176
-0.10631	0.43176
-0.05531	0.32972
1.06676	0.02363
1.34728	0.53379
0.53123	0.15117
-0.76936	-0.48652
-1.15188	0.22769
0.12320	0.02363
0.45472	0.04914
-0.00431	0.02363
1.27078	0.35523
1.52579	0.43176
-0.10631	0.10015
-2.93700	0.04914
-0.25932	-0.05289
1.65330	0.40625
1.21977	0.38074
-0.41233	0.12566
0.42922	0.25320
-0.59084	0.30422
0.58223	0.07465
0.55673	0.10015
0.48022	-0.02739
0.22521	0.04914
-2.35046	-0.00188
-0.92237	0.04914
0.48022	0.35523
0.37822	-0.25695
0.83725	0.02363
1.29628	0.10015
0.93925	0.53379
-0.48884	-0.05289
0.48022	0.12566
0.19971	0.55929
-0.76936	0.66132
0.50573	-0.18043
0.17421	-0.05289
-0.66735	-0.12942
-0.10631	0.30422
-0.08081	0.30422
0.99026	0.02363
0.73524	0.07465
0.07220	0.45726
-0.79486	-0.07840
0.78624	0.30422
0.17421	-0.02739
-0.66735	-0.00188
0.12320	0.15117
0.70974	0.22769
-0.74385	0.12566
0.65874	0.20219
0.91375	0.25320
-0.05531	0.04914
-0.05531	-0.02739
-0.28482	0.25320
0.70974	0.22769
0.96476	0.15117
-0.31033	0.15117
-0.08081	0.15117
0.37822	0.27871
0.25071	0.22769
-1.50890	-0.15492
0.50573	0.17668
0.99026	0.20219
-1.50890	-0.05289
0.25071	0.55929
2.41835	0.17668
-0.10631	0.07465
-1.50890	0.12566
0.19971	-0.18043
0.81175	0.04914
0.91375	0.15117
0.30171	0.07465
-0.15732	0.50828
-0.08081	0.27871
-0.56534	-0.35899
0.63323	0.04914
0.32721	0.35523
-0.94787	-0.23145
-0.59084	0.22769
-0.41233	0.86539
0.99026	0.40625
0.88825	0.35523
1.09226	0.04914
1.29628	-0.10391
0.93925	-0.25695
-1.45790	-0.41000
-0.94787	0.20219
-1.04987	0.07465
2.46935	0.66132
0.60773	-0.30797
-2.63097	-0.18043
0.93925	0.10015
-0.05531	0.50828
-0.10631	0.10015
1.34728	0.35523
1.04126	0.07465
0.88825	0.04914
0.58223	0.25320
-4.31408	0.04914
0.09770	0.04914
1.44929	0.45726
0.68424	-0.05289
1.24527	0.35523
0.35272	0.25320
-0.33583	0.07465
-0.13181	-0.28246
-0.48884	0.02363
-0.43783	-0.05289
1.32178	0.27871
0.76074	0.40625
0.07220	-0.30797
-0.59084	0.66132
0.60773	0.63582
0.53123	-0.20594
-0.13181	0.43176
-0.71835	-0.10391
-0.25932	-0.02739
0.30171	-0.00188
0.81175	0.32972
0.63323	0.07465
0.27621	0.27871
0.68424	0.27871
0.96476	0.27871
1.75531	0.20219
-1.76392	0.02363
-2.50347	0.25320
-4.95162	0.07465
1.83181	0.35523
3.28540	0.30422
2.92838	0.02363
1.67880	-0.38449
0.02119	0.22769
-1.35589	0.02363
-0.71835	0.15117
0.17421	0.40625
-0.43783	0.25320
-1.07538	0.02363
0.55673	0.35523
0.88825	0.45726
-0.36133	0.27871
-0.89686	0.15117
-0.94787	0.12566
0.60773	-0.28246
1.29628	-0.05289
1.27078	0.15117
1.75531	0.04914
-0.76936	0.12566
-1.48340	0.50828
0.30171	0.32972
0.88825	-0.00188
0.65874	0.55929
0.83725	0.17668
0.19971	-0.00188
0.04670	0.58480
-0.31033	-0.25695
-0.89686	-0.12942
-0.28482	0.45726
0.19971	0.04914
0.09770	-0.48652
-0.51434	0.22769
-0.15732	0.45726
1.65330	0.04914
1.55129	0.20219
0.83725	0.35523
-0.33583	-0.23145
-1.12638	-0.12942
0.58223	0.12566
-0.51434	0.43176
-0.31033	0.55929
1.34728	0.30422
-0.20832	0.32972
-1.22839	0.32972
1.24527	-0.15492
0.93925	-0.05289
0.19971	-0.05289
-0.31033	-0.02739
0.40372	0.40625
0.42922	0.12566
-1.43240	0.04914
-0.00431	0.10015
1.09226	0.25320
0.40372	0.07465
0.88825	0.43176
0.76074	-0.20594
-1.12638	0.32972
-0.28482	0.40625
-0.71835	0.10015
0.86275	-0.23145
0.81175	-0.05289
0.07220	0.02363
-1.73842	0.25320
0.96476	0.10015
0.60773	0.35523
0.42922	0.40625
0.17421	0.15117
0.58223	0.25320
0.32721	0.40625
-0.76936	-0.07840
-0.59084	-0.10391
-0.56534	0.07465
0.83725	0.22769
1.34728	0.38074
0.65874	0.04914
0.32721	-0.07840
-0.05531	-0.02739
-1.50890	0.07465
1.04126	0.04914
1.50029	0.40625
-0.48884	0.12566
-1.10088	0.30422
-0.23382	0.27871
0.88825	-0.05289
1.29628	0.25320
0.37822	0.20219
-0.08081	0.17668
-0.23382	-0.18043
-0.99887	0.35523
0.73524	0.55929
-0.33583	-0.02739
0.22521	0.12566
0.35272	0.04914
0.58223	0.07465
0.73524	0.15117
0.40372	0.76336
-0.46334	-1.17523
-0.89686	0.40625
0.37822	-0.20594
0.93925	0.27871
0.14870	0.27871
-0.20832	0.27871
-1.86593	0.45726
1.04126	0.76336
0.55673	-0.66508
1.34728	0.48277
1.55129	0.10015
-0.18282	0.10015
0.63323	0.30422
-0.28482	0.15117
-0.46334	-0.23145
-0.53984	0.10015
-0.10631	0.17668
0.02119	0.12566
0.02119	0.15117
-0.13181	0.17668
-0.00431	0.04914
-0.00431	0.02363
0.37822	0.25320
0.30171	-0.07840
0.55673	0.30422
0.04670	0.27871
1.06676	0.45726
0.55673	0.02363
-0.46334	0.15117
-0.61635	0.04914
0.63323	-0.02739
-0.84586	0.10015
-1.35589	0.04914
1.50029	0.35523
1.27078	-0.10391
-0.00431	-0.10391
0.83725	0.35523
1.16877	0.43176
-0.18282	0.30422
1.21977	0.45726
-0.15732	0.43176
-2.40146	0.25320
-1.10088	-0.00188
-0.56534	0.12566
1.19427	-0.05289
1.60230	0.04914
0.65874	-0.15492
0.25071	0.25320
0.19971	0.12566
-0.00431	0.17668
-0.89686	0.30422
-0.38683	-0.46102
0.40372	0.50828
0.37822	-0.00188
0.93925	0.20219
0.04670	0.10015
0.58223	0.40625
-0.18282	0.04914
-0.10631	0.71234
0.68424	0.66132
0.91375	-0.53754
0.63323	-0.15492
-3.29402	-0.30797
-1.84042	-0.15492
1.06676	-0.02739
1.98482	0.71234
1.72980	0.48277
0.09770	1.17148
0.96476	0.12566
0.70974	-0.10391
0.22521	-0.48652
-0.71835	0.45726
0.14870	-0.10391
-0.64185	-0.25695
-0.89686	-0.12942
0.25071	0.02363
-0.05531	0.22769
-0.02981	0.17668
-0.82036	0.25320
1.01576	0.50828
0.32721	0.04914
0.12320	-0.10391
-0.38683	-0.07840
1.29628	0.15117
0.78624	0.30422
1.09226	0.10015
0.63323	-0.02739
-1.17738	0.48277
-1.68742	-0.25695
0.09770	0.20219
0.40372	0.32972
0.02119	0.58480
0.35272	0.02363
1.39828	0.22769
-0.41233	0.53379
-0.92237	-0.28246
0.55673	-0.07840
0.55673	0.04914
1.29628	0.15117
0.53123	-0.61406
-0.33583	0.40625
-1.50890	0.25320
-0.08081	0.25320
0.58223	0.10015
0.04670	-0.05289
0.02119	-0.12942
-0.74385	0.55929
0.42922	0.12566
0.86275	0.66132
2.11233	0.25320
1.98482	-0.23145
-3.11551	-0.00188
-2.35046	0.17668
1.32178	0.07465
-0.23382	0.15117
0.50573	0.30422
1.14327	0.04914
1.27078	0.22769
0.53123	0.38074
0.07220	0.38074
-0.69285	-0.20594
-0.79486	-0.20594
0.35272	0.10015
0.07220	0.15117
0.73524	0.22769
0.53123	0.50828
-0.31033	0.12566
0.50573	0.50828
-0.00431	0.61031
-0.38683	-0.51203
0.22521	0.07465
-0.53984	-0.10391
-0.28482	0.58480
1.19427	0.45726
-0.64185	0.17668
-0.89686	-0.12942
1.85731	0.04914
1.29628	0.04914
0.60773	0.38074
0.07220	0.25320
0.73524	0.27871
-0.20832	0.04914
-2.45246	-0.07840
1.29628	-0.07840
1.24527	0.04914
0.37822	0.35523
0.70974	0.22769
-1.22839	0.50828
-3.52353	0.17668
1.04126	0.22769
0.99026	0.15117
0.45472	0.12566
1.52579	-0.18043
1.57679	0.12566
-2.45246	-0.20594
-1.68742	0.30422
1.29628	0.53379
1.55129	0.25320
1.50029	0.17668
0.40372	-0.28246
0.14870	-0.02739
-0.18282	-0.38449
0.02119	0.22769
-0.48884	0.22769
-0.15732	0.04914
-0.59084	0.50828
0.37822	0.58480
0.22521	0.35523
0.35272	0.12566
0.53123	-0.15492
0.68424	0.15117
0.83725	0.07465
0.32721	-0.02739
-1.07538	-0.00188
-0.61635	0.38074
-0.02981	0.30422
-0.69285	0.07465
1.32178	-0.53754
1.09226	0.02363
1.06676	0.10015
-1.35589	0.45726
-0.84586	0.20219
1.04126	0.53379
0.73524	-0.38449
0.07220	0.35523
0.32721	0.22769
1.39828	0.32972
1.21977	-0.15492
-1.17738	0.25320
-1.91693	-0.10391
-0.31033	0.25320
-0.02981	-0.00188
0.22521	-0.12942
0.81175	0.20219
-0.15732	0.15117
0.45472	0.38074
0.53123	0.32972
0.81175	0.30422
-0.33583	-0.15492
-0.13181	0.25320
0.04670	-0.00188
0.07220	0.20219
0.50573	0.22769
1.24527	0.12566
0.45472	0.20219
-1.71292	0.07465
-1.66191	-0.28246
1.21977	0.07465
1.65330	0.17668
0.12320	0.35523
0.14870	0.10015
0.55673	0.35523
0.12320	0.35523
-0.33583	0.20219
0.04670	0.27871
0.35272	0.12566
0.45472	0.07465
-0.59084	-0.10391
0.14870	-0.20594
0.22521	0.25320
0.19971	0.15117
-0.74385	-0.18043
0.19971	0.15117
0.58223	0.25320
-0.36133	0.15117
-0.48884	0.17668
0.83725	0.40625
0.91375	0.27871
0.70974	0.27871
-0.38683	0.07465
0.30171	0.30422
0.30171	0.12566
0.19971	0.12566
0.09770	-0.18043
-0.18282	0.10015
-0.23382	0.02363
0.19971	0.30422
0.68424	0.58480
1.04126	0.32972
-0.84586	0.27871
-0.74385	-0.15492
0.12320	0.15117
0.42922	0.30422
0.48022	-0.25695
-0.71835	0.25320
0.63323	0.38074
0.12320	0.20219
0.68424	-0.05289
0.70974	0.07465
0.35272	0.04914
-0.13181	-0.05289
-0.38683	0.17668
0.07220	0.27871
-0.10631	0.25320
0.27621	0.27871
0.22521	0.02363
0.25071	0.10015
0.37822	0.17668
-0.33583	0.22769
-0.76936	0.66132
0.86275	-1.17523
0.81175	0.48277
0.02119	-0.07840
-0.79486	0.38074
0.30171	0.38074
0.88825	0.22769
0.27621	0.38074
-1.68742	-0.15492
0.32721	0.40625
0.88825	-0.28246
0.27621	0.30422
0.32721	0.22769
0.37822	0.12566
0.45472	-0.00188
-0.08081	0.15117
0.70974	0.07465
-0.92237	-0.05289
0.22521	0.35523
-0.00431	0.02363
0.17421	0.50828
-0.13181	0.07465
0.50573	-0.10391
0.50573	0.02363
0.35272	0.27871
-2.29945	-0.20594
-0.08081	0.32972
0.83725	0.40625
0.83725	-0.10391
0.09770	0.20219
1.80631	0.30422
1.01576	0.25320
-0.82036	-0.12942
0.68424	0.15117
-1.04987	-0.25695
-2.40146	-0.00188
0.48022	0.04914
1.39828	0.25320
1.50029	0.40625
0.35272	0.22769
-0.33583	0.15117
-0.10631	0.17668
0.04670	0.15117
1.16877	0.10015
-0.36133	0.12566
-1.07538	-0.10391
0.09770	-0.51203
-0.15732	0.55929
0.83725	0.61031
1.19427	-0.25695
-0.74385	0.35523
-1.10088	0.83988
0.30171	0.10015
0.12320	0.17668
1.34728	0.12566
1.55129	-0.46102
0.42922	0.07465
-0.43783	0.22769
0.02119	0.17668
-0.33583	0.30422
0.37822	0.15117
-0.18282	0.40625
-0.48884	-0.58856
-1.02437	-0.18043
-0.10631	0.20219
0.70974	0.38074
1.44929	0.32972
1.39828	0.35523
0.78624	0.66132
0.14870	-0.12942
-2.09544	0.20219
0.45472	0.22769
-0.20832	-0.05289
0.04670	0.02363
0.09770	0.15117
0.09770	-0.00188
0.58223	0.15117
0.60773	0.17668
0.76074	-0.02739
0.27621	0.58480
-0.48884	0.02363
-0.33583	-0.20594
-0.13181	-0.05289
0.35272	0.02363
-0.18282	0.30422
-0.23382	0.38074
0.83725	0.25320
-0.36133	0.07465
0.09770	0.12566
0.68424	0.30422
0.35272	0.20219
0.63323	0.25320
-0.20832	0.12566
0.53123	0.30422
-0.38683	0.17668
0.53123	-0.05289
0.58223	-0.30797
-0.28482	0.40625
-0.74385	0.04914
0.48022	0.15117
0.53123	0.40625
-0.46334	0.02363
-0.15732	0.27871
0.37822	-0.15492
0.48022	0.55929
-0.08081	0.30422
-0.92237	-0.43551
0.83725	0.04914
1.98482	0.43176
-1.84042	0.02363
-0.89686	0.12566
1.34728	0.35523
1.21977	0.12566
0.78624	0.53379
0.27621	0.04914
-0.00431	0.10015
-0.28482	-0.20594
-0.51434	0.43176
-0.84586	0.43176
0.68424	0.07465
0.73524	-0.18043
0.27621	0.12566
-0.31033	0.25320
-0.08081	-0.12942
0.32721	-0.00188
-0.48884	-0.10391
0.07220	0.12566
-0.05531	0.53379
0.93925	0.45726
0.78624	0.25320
0.63323	0.17668
-0.28482	0.25320
-0.28482	-0.25695
-0.74385	0.20219
1.39828	-0.07840
0.73524	0.20219
-0.00431	0.32972
0.02119	0.10015
0.65874	0.12566
-1.30489	0.32972
-0.59084	0.12566
0.70974	-0.23145
0.48022	0.20219
0.07220	0.04914
0.25071	0.10015
0.25071	0.02363
-0.92237	0.22769
-0.31033	-0.07840
0.78624	0.30422
0.93925	0.45726
0.50573	0.40625
0.27621	0.30422
-0.23382	-0.02739
0.17421	0.15117
-0.51434	-0.35899
0.83725	0.30422
-0.02981	0.22769
-0.53984	0.02363
0.09770	0.10015
0.32721	0.17668
0.35272	0.30422
0.32721	0.12566
0.91375	0.38074
-0.31033	-0.02739
-0.48884	-0.05289
0.91375	0.25320
-0.76936	0.20219
-0.64185	-0.05289
0.50573	0.30422
1.04126	0.63582
0.73524	-0.51203
1.09226	0.38074
-2.60547	0.10015
-0.00431	-0.20594
0.53123	0.20219
1.09226	0.48277
-0.31033	0.22769
0.78624	0.25320
0.78624	-0.15492
1.04126	-0.00188
-0.89686	0.20219
-0.82036	-0.00188
-0.15732	-0.18043
0.60773	0.43176
-0.33583	0.15117
0.30171	0.17668
0.93925	0.32972
-1.94243	-0.61406
-0.66735	0.78886
1.47479	0.07465
1.14327	0.12566
-0.59084	-0.05289
0.12320	0.22769
0.76074	0.27871
0.12320	0.27871
0.76074	0.15117
0.50573	0.15117
-2.04444	-0.07840
0.17421	0.35523
0.02119	0.22769
0.63323	0.12566
0.25071	-0.05289
0.50573	0.04914
0.02119	-0.00188
0.68424	0.07465
0.81175	-0.20594
-0.84586	-0.23145
-0.08081	0.50828
-0.25932	0.38074
-0.00431	0.55929
0.50573	0.55929
0.37822	0.27871
0.78624	-0.10391
-0.20832	-0.02739
-0.20832	0.04914
0.65874	0.10015
0.50573	0.20219
-0.79486	0.55929
0.91375	0.40625
-0.13181	-0.10391
-0.71835	0.38074
-1.43240	-0.97117
0.76074	0.17668
1.47479	-0.07840
0.37822	-0.10391
0.30171	0.35523
1.55129	0.40625
-0.71835	0.22769
-0.53984	0.66132
0.17421	0.15117
0.12320	-0.05289
0.37822	-0.07840
-0.05531	0.04914
0.02119	0.02363
-0.13181	0.22769
0.02119	0.35523
0.04670	0.27871
-0.08081	-0.23145
0.53123	0.43176
0.14870	0.15117
0.73524	0.12566
-0.23382	0.25320
0.78624	0.04914
0.12320	0.22769
-0.61635	0.25320
0.35272	0.22769
0.93925	0.45726
1.75531	0.10015
0.12320	0.12566
-1.73842	-0.10391
-0.08081	0.04914
-1.02437	0.12566
0.09770	0.15117
-0.20832	0.15117
-0.33583	-0.38449
1.11776	0.20219
0.96476	0.15117
0.35272	0.35523
0.53123	0.17668
0.32721	0.50828
0.12320	0.43176
1.24527	-0.07840
-0.25932	-0.25695
-2.01894	-0.02739
-0.02981	0.35523
0.53123	-0.07840
1.14327	0.43176
0.09770	0.25320
-0.41233	0.32972
-0.79486	0.10015
1.47479	0.22769
0.17421	0.07465
-1.71292	-0.05289
1.19427	-0.23145
-0.23382	-0.12942
0.19971	0.10015
1.42379	0.25320
0.99026	0.22769
-0.61635	0.58480
-1.17738	0.20219
0.55673	-0.02739
0.12320	0.02363
0.86275	0.45726
-0.20832	0.15117
-0.15732	0.12566
0.04670	-0.05289
0.53123	-0.10391
0.45472	-0.10391
0.32721	0.30422
0.55673	0.35523
0.63323	0.91640
-0.48884	0.17668
-0.28482	0.20219
0.17421	-0.48652
0.22521	0.17668
0.32721	0.02363
-1.43240	-0.12942
-0.56534	-0.00188
0.78624	0.17668
1.21977	-0.05289
0.96476	0.63582
0.07220	0.25320
0.04670	0.22769
0.32721	-0.02739
-0.10631	-0.12942
-0.20832	-0.15492
-0.18282	0.40625
-0.20832	0.17668
0.48022	0.38074
-0.02981	0.17668
-0.46334	0.53379
0.73524	0.15117
1.16877	-0.18043
-1.27939	-0.05289
-0.05531	0.07465
0.27621	0.10015
-0.28482	0.22769
0.30171	0.02363
1.21977	0.20219
0.50573	0.25320
-0.25932	0.07465
-0.33583	0.40625
0.53123	0.07465
0.70974	0.30422
1.06676	0.04914
-0.28482	0.12566
-1.55991	0.02363
0.63323	0.20219
0.63323	0.04914
0.09770	0.15117
-0.23382	0.12566
0.02119	0.25320
0.25071	0.35523
-0.64185	-0.23145
-0.15732	0.22769
0.22521	-0.20594
0.32721	0.30422
0.58223	0.07465
1.39828	0.20219
1.01576	0.38074
-0.92237	-0.02739
-1.43240	-0.25695
-0.59084	0.30422
0.65874	0.35523
0.76074	-0.05289
-0.08081	-0.05289
-0.08081	0.50828
0.45472	0.10015
0.83725	0.17668
0.32721	0.25320
0.83725	0.22769
0.93925	0.15117
0.07220	0.17668
-1.40690	-0.00188
-1.63641	-0.15492
-0.31033	-0.00188
-0.10631	-0.05289
0.48022	0.27871
1.72980	0.48277
0.88825	0.25320
-0.87136	0.30422
0.17421	0.38074
0.58223	0.07465
0.50573	0.12566
0.07220	-0.05289
-0.23382	-0.15492
0.07220	0.27871
0.27621	0.20219
0.68424	0.15117
1.01576	0.40625
-0.79486	0.04914
-0.82036	0.17668
-0.08081	0.04914
-0.15732	-0.23145
0.76074	0.45726
1.24527	0.22769
1.24527	0.02363
-0.13181	0.38074
0.50573	0.07465
-0.08081	0.17668
-1.02437	-0.00188
-3.47253	-0.12942
0.37822	0.32972
1.72980	0.32972
1.98482	0.35523
0.81175	0.35523
0.09770	0.38074
0.37822	0.10015
0.14870	0.45726
-0.02981	-0.66508
-0.25932	0.30422
-0.38683	-0.07840
-0.66735	0.10015
-0.28482	0.10015
1.01576	0.12566
0.48022	0.22769
0.22521	0.30422
0.53123	0.07465
0.14870	-0.10391
0.86275	0.40625
-1.78942	0.04914
-0.87136	0.17668
-0.10631	-0.25695
2.13783	0.55929
2.77537	0.07465
-0.20832	-0.07840
-1.89143	0.35523
-1.20288	0.40625
0.40372	0.50828
0.70974	-0.18043
0.93925	-0.00188
0.40372	0.12566
0.32721	0.27871
0.09770	0.12566
-0.00431	-0.05289
-0.46334	0.04914
-0.89686	-0.05289
0.81175	0.58480
1.19427	0.02363
-0.38683	0.02363
0.19971	-0.02739
-0.71835	0.27871
0.14870	0.17668
0.63323	-0.07840
0.53123	0.22769
0.22521	0.15117
1.39828	0.40625
0.78624	0.17668
-0.79486	0.12566
-0.61635	0.04914
1.34728	0.50828
-0.76936	-0.23145
-1.38139	0.15117
-0.51434	-0.10391
0.91375	0.30422
-0.18282	0.17668
-0.10631	0.38074
2.13783	0.20219
1.32178	-0.07840
0.50573	0.35523
0.32721	0.20219
-0.00431	0.17668
-0.33583	-0.15492
-0.69285	0.15117
-0.18282	0.15117
-0.51434	0.07465
-0.10631	0.15117
0.40372	0.04914
0.40372	0.15117
1.01576	0.30422
-0.43783	-0.00188
0.09770	0.32972
0.63323	0.25320
-0.23382	-0.07840
0.09770	0.32972
-1.10088	0.12566
0.17421	0.07465
1.29628	0.27871
0.86275	-0.12942
0.73524	0.20219
-0.87136	0.10015
-1.04987	-0.00188
0.37822	0.25320
0.63323	0.30422
0.58223	0.30422
0.42922	-0.05289
0.91375	0.55929
-0.15732	0.32972
0.35272	-0.18043
0.60773	-0.00188
-0.64185	-0.00188
-1.27939	0.15117
-0.89686	0.27871
0.40372	0.12566
0.30171	0.15117
0.68424	0.32972
0.32721	0.10015
0.78624	-0.02739
0.78624	0.17668
0.09770	0.10015
-1.10088	0.15117
-0.71835	0.12566
0.78624	0.27871
0.60773	0.20219
0.99026	0.32972
0.07220	0.02363
-0.51434	0.04914
0.58223	0.17668
0.68424	0.15117
0.42922	0.27871
0.32721	0.10015
-0.48884	-0.25695
-0.79486	0.35523
0.09770	-0.02739
1.78081	-0.02739
0.27621	0.17668
-2.01894	-0.07840
0.09770	0.58480
-0.82036	0.55929
2.06133	0.20219
0.86275	0.15117
-1.33039	0.04914
-0.59084	-0.12942
0.32721	-0.25695
1.75531	0.25320
1.42379	0.17668
0.09770	0.40625
-0.51434	0.38074
-0.59084	0.15117
0.55673	-0.15492
0.48022	0.32972
-1.55991	0.15117
-0.00431	-0.12942
0.53123	0.10015
-0.38683	-0.07840
0.60773	0.45726
1.27078	0.12566
-2.12094	0.12566
-0.08081	0.30422
1.21977	-0.10391
1.01576	0.30422
0.45472	0.15117
0.02119	0.07465
0.53123	0.04914
0.19971	0.25320
-0.38683	0.30422
0.25071	0.27871
0.07220	0.25320
0.68424	0.20219
0.14870	0.10015
-0.56534	0.04914
-0.08081	0.25320
0.14870	-0.02739
-0.13181	-0.02739
-1.38139	0.02363
0.35272	0.45726
0.96476	-0.07840
0.65874	0.12566
1.29628	0.12566
1.42379	0.38074
0.48022	0.53379
-2.86049	0.02363
0.76074	0.12566
0.68424	0.20219
-0.20832	-0.10391
0.65874	0.32972
-0.08081	0.12566
-0.71835	-0.02739
0.81175	0.12566
0.27621	0.07465
0.19971	0.35523
-0.15732	0.04914
-0.66735	0.10015
-0.05531	-0.10391
1.04126	0.07465
-0.64185	0.12566
0.37822	0.45726
1.75531	0.20219
-0.59084	0.27871
-1.04987	0.22769
0.40372	0.30422
0.19971	0.32972
-0.53984	0.04914
0.22521	-0.15492
0.83725	-0.07840
0.86275	0.04914
0.32721	0.20219
-0.02981	0.17668
0.32721	0.43176
0.55673	0.25320
-1.20288	0.02363
-0.28482	0.07465
0.12320	-0.07840
0.60773	-0.00188
-0.13181	0.04914
-0.51434	0.04914
1.06676	0.27871
0.09770	0.22769
0.12320	0.25320
-0.18282	0.02363
1.14327	0.48277
1.44929	0.27871
-0.38683	-0.05289
-1.68742	-0.15492
-1.25389	0.15117
0.63323	0.04914
0.73524	0.12566
-0.25932	0.32972
0.81175	0.15117
1.09226	0.30422
1.16877	-0.00188
0.27621	-0.00188
-0.46334	0.02363
-0.41233	0.38074
-0.64185	0.07465
-1.71292	0.12566
-0.41233	0.22769
1.04126	0.30422
1.52579	0.25320
0.88825	0.02363
-0.43783	0.15117
0.32721	0.25320
-0.64185	0.15117
-0.02981	0.10015
0.96476	-0.28246
0.48022	0.15117
0.22521	0.07465
0.70974	0.32972
-1.71292	0.35523
-0.08081	0.55929
-0.31033	0.15117
0.50573	0.10015
1.01576	0.12566
0.96476	-0.10391
1.27078	0.22769
0.02119	-0.00188
-0.76936	0.04914
-1.15188	0.07465
0.35272	0.38074
0.83725	0.30422
-0.31033	0.02363
-1.43240	-0.02739
0.53123	0.22769
0.65874	0.04914
0.63323	0.22769
0.65874	0.02363
0.91375	-0.05289
1.32178	-0.05289
