0.09770	-0.25695
-1.04987	-0.25695
-0.43783	0.07465
0.63323	0.17668
0.93925	0.35523
0.53123	0.15117
-0.36133	0.25320
-0.05531	0.22769
-0.02981	0.22769
-0.08081	0.50828
0.09770	-0.12942
-0.18282	-0.00188
-0.00431	0.10015
1.04126	0.04914
0.25071	0.45726
0.78624	0.15117
1.34728	-0.15492
0.81175	0.35523
-2.78398	-0.12942
-1.25389	0.35523
0.50573	0.38074
0.58223	-0.02739
1.04126	0.86539
1.21977	0.71234
-0.61635	0.25320
-0.82036	-0.25695
1.34728	-0.33348
0.42922	-0.38449
1.21977	-0.63957
-0.41233	0.40625
-0.41233	0.02363
-0.02981	-0.51203
-0.71835	0.15117
-1.55991	0.27871
-0.36133	0.61031
0.96476	0.53379
1.32178	0.76336
1.78081	0.94191
0.93925	-0.07840
1.55129	-0.33348
0.68424	-0.38449
-2.17195	0.04914
-5.58916	0.15117
-0.25932	0.38074
1.55129	0.04914
1.06676	0.15117
1.04126	0.12566
1.42379	0.10015
1.14327	0.32972
0.78624	-0.18043
0.99026	0.15117
-0.00431	-0.02739
-2.52897	0.20219
-0.41233	0.17668
0.14870	0.15117
0.35272	-0.07840
0.37822	-0.15492
0.53123	0.89089
0.30171	0.25320
0.17421	0.15117
-0.61635	0.15117
-0.08081	0.17668
1.62780	0.15117
1.50029	-0.35899
-1.33039	0.02363
-2.29945	0.40625
0.53123	0.63582
0.12320	0.35523
0.96476	0.04914
0.63323	-0.18043
1.14327	0.04914
-0.02981	0.20219
-1.71292	-0.07840
1.09226	0.17668
1.14327	0.32972
0.17421	0.22769
0.02119	0.15117
0.40372	0.20219
0.04670	-0.00188
0.12320	0.04914
-0.31033	0.02363
-0.48884	0.22769
-0.18282	0.20219
-0.02981	0.20219
-0.00431	0.35523
0.32721	0.17668
0.25071	0.27871
0.55673	0.17668
0.30171	0.12566
0.09770	0.17668
0.07220	-0.23145
0.12320	-0.15492
0.12320	0.15117
0.12320	0.04914
0.07220	0.48277
0.12320	0.07465
0.32721	0.35523
0.40372	0.30422
0.22521	0.12566
-0.00431	0.35523
0.07220	0.12566
-0.18282	0.22769
0.70974	0.12566
0.22521	0.07465
-0.28482	0.10015
0.19971	0.17668
0.27621	0.04914
0.09770	0.02363
-0.08081	0.15117
-0.05531	0.07465
-0.00431	0.10015
-0.02981	0.15117
0.17421	0.35523
0.53123	-0.10391
0.91375	0.04914
0.30171	0.20219
-1.55991	0.27871
0.32721	0.30422
1.65330	0.15117
0.70974	0.27871
-0.48884	-0.20594
-0.74385	0.04914
0.25071	-0.10391
-0.64185	-0.10391
-1.27939	0.22769
1.34728	0.40625
1.11776	0.48277
1.01576	0.73785
0.63323	0.30422
0.27621	0.04914
0.02119	-0.12942
-0.18282	-0.33348
-0.56534	-0.12942
-0.28482	0.25320
-0.00431	0.20219
0.22521	0.35523
0.02119	0.17668
-0.33583	0.12566
0.14870	0.15117
0.53123	-0.00188
0.27621	-0.00188
0.25071	0.07465
0.32721	0.12566
0.27621	0.15117
0.07220	0.30422
0.07220	0.30422
0.17421	0.20219
0.07220	0.25320
-0.31033	-0.18043
0.37822	0.02363
1.14327	0.10015
0.12320	0.17668
-0.66735	0.22769
-0.33583	0.22769
0.35272	0.04914
-0.05531	-0.02739
-0.59084	-0.12942
-0.10631	0.22769
0.45472	0.45726
1.24527	0.25320
0.58223	0.50828
-0.02981	-0.10391
0.40372	-0.25695
1.16877	0.15117
0.42922	0.30422
-0.89686	0.30422
-0.48884	-0.15492
0.30171	0.02363
1.09226	0.76336
3.10689	0.99292
0.02119	-0.00188
-4.90062	-0.15492
-0.10631	-0.41000
-1.76392	-0.51203
-0.43783	-0.18043
1.75531	0.63582
2.06133	0.58480
1.52579	0.35523
1.21977	0.25320
0.73524	0.20219
-1.43240	-0.00188
0.96476	-0.02739
0.60773	0.17668
-2.50347	-0.20594
-1.50890	0.20219
0.68424	-0.05289
0.45472	0.30422
-3.34502	0.43176
0.25071	0.20219
4.38197	0.53379
3.23440	0.45726
0.76074	0.20219
-1.22839	-0.61406
-2.01894	-0.66508
-2.50347	-0.25695
-2.01894	0.53379
2.11233	0.63582
2.74987	1.06945
1.39828	0.58480
0.07220	0.12566
-0.28482	-0.53754
-0.28482	-0.25695
-2.09544	-0.56305
-0.38683	0.48277
1.39828	0.32972
2.13783	0.20219
1.29628	0.38074
0.58223	0.45726
-2.04444	0.02363
-0.48884	-0.07840
0.73524	-0.30797
1.21977	-0.12942
-0.36133	0.02363
-2.32496	0.22769
-1.38139	0.63582
-0.48884	0.40625
-0.15732	0.73785
1.70430	0.22769
1.88281	-0.02739
0.93925	-0.25695
1.04126	-0.25695
-0.66735	0.17668
0.27621	0.58480
0.81175	0.66132
1.04126	0.10015
-2.70748	0.20219
-0.99887	0.22769
2.13783	0.07465
1.80631	0.25320
-1.45790	-0.07840
-4.64560	-0.23145
1.14327	-0.46102
1.01576	0.96742
1.04126	0.10015
1.52579	0.20219
1.65330	-0.05289
0.22521	0.25320
-2.17195	0.66132
-0.43783	0.48277
0.76074	-0.02739
0.37822	0.17668
-0.08081	-0.28246
-0.87136	-0.25695
0.60773	-0.23145
1.09226	0.55929
0.07220	0.61031
-0.46334	0.32972
-0.15732	0.53379
0.09770	0.71234
1.16877	-0.05289
1.52579	-0.79262
-1.22839	0.15117
0.73524	-0.25695
1.34728	-0.25695
-0.79486	0.02363
-2.93700	0.71234
-0.89686	0.07465
-0.18282	0.10015
2.44385	0.48277
1.04126	0.02363
-1.17738	0.40625
1.16877	0.30422
1.24527	0.10015
0.04670	-0.35899
-0.02981	-0.05289
-0.08081	-0.25695
0.14870	0.04914
-0.94787	0.40625
-1.61091	0.45726
1.75531	-0.05289
2.44385	0.63582
0.58223	-0.66508
-0.61635	0.40625
-0.94787	0.10015
0.14870	0.55929
-1.12638	0.81437
-1.53441	-0.43551
1.06676	0.50828
1.65330	0.10015
0.99026	-0.23145
-1.27939	-0.02739
1.85731	0.20219
1.83181	0.27871
-1.33039	0.17668
-0.94787	-0.33348
-1.94243	-0.28246
-0.28482	0.58480
0.63323	0.35523
1.52579	0.17668
0.91375	-0.10391
-0.08081	0.12566
0.93925	0.22769
-0.36133	1.01843
-2.55447	-0.07840
-1.35589	-0.66508
1.52579	-0.02739
2.39285	0.55929
2.01032	0.48277
0.78624	0.66132
-0.97337	-0.58856
-1.81492	-0.23145
0.17421	0.17668
0.88825	-0.05289
1.24527	0.20219
-0.82036	0.22769
0.02119	0.17668
0.14870	-0.51203
0.22521	0.45726
0.76074	0.22769
2.26534	0.53379
-3.49803	0.35523
-4.95162	0.04914
1.04126	0.20219
1.21977	-0.38449
2.06133	0.30422
2.23984	0.07465
2.80087	0.22769
-0.38683	0.35523
-1.17738	0.99292
0.48022	-0.97117
-2.52897	0.10015
-0.41233	-0.10391
0.17421	-0.00188
1.70430	0.17668
1.29628	0.17668
0.17421	0.58480
-1.12638	0.02363
0.99026	0.63582
0.76074	0.45726
0.27621	0.55929
-0.10631	-0.58856
-0.53984	-0.18043
0.55673	-0.12942
1.55129	0.35523
-2.32496	-0.18043
-4.13557	0.04914
0.48022	-0.02739
2.54586	0.43176
3.20890	-0.18043
-2.86049	0.48277
0.58223	-0.25695
1.72980	0.22769
1.06676	0.35523
-0.18282	0.58480
-0.31033	0.32972
1.65330	0.35523
-0.23382	0.17668
0.63323	-0.25695
-0.02981	0.73785
-2.01894	-0.58856
-1.89143	0.30422
-0.38683	-0.46102
-2.83499	0.43176
3.33641	-0.07840
1.70430	-0.07840
1.42379	-0.10391
0.76074	0.73785
0.88825	0.73785
0.73524	0.89089
-0.31033	0.02363
-1.50890	0.45726
-0.92237	0.27871
-0.02981	-0.30797
0.70974	-0.02739
0.58223	0.30422
0.30171	0.40625
0.91375	0.15117
0.83725	-0.20594
0.12320	0.15117
1.32178	-0.10391
-2.47797	0.12566
-2.32496	-0.15492
0.37822	0.30422
1.04126	0.53379
0.93925	0.10015
-0.18282	0.43176
1.09226	0.10015
1.06676	1.04394
-0.00431	-0.94566
0.12320	0.71234
2.92838	-0.10391
-2.50347	0.12566
-6.20120	-0.05289
0.50573	0.15117
2.06133	-0.10391
2.39285	1.09496
0.96476	0.30422
1.98482	0.20219
0.83725	0.45726
0.30171	0.17668
-1.22839	0.17668
-0.94787	-0.30797
0.12320	0.22769
1.47479	-0.00188
-0.28482	-0.46102
-0.36133	0.15117
-3.72755	-0.25695
-2.19745	0.02363
0.81175	0.61031
2.23984	0.15117
1.55129	0.43176
0.73524	-0.53754
0.58223	0.22769
0.12320	0.32972
1.01576	0.61031
0.37822	0.15117
0.48022	0.55929
-1.35589	-0.12942
-0.71835	0.10015
0.73524	0.04914
0.70974	0.04914
-0.59084	0.15117
-2.70748	0.63582
-0.18282	-0.12942
1.65330	0.38074
2.21434	0.32972
1.52579	-0.07840
0.35272	0.04914
-0.87136	0.25320
-1.81492	-0.18043
-1.38139	-0.23145
0.48022	0.10015
0.65874	-0.25695
-0.33583	0.10015
1.95932	0.25320
3.99945	0.66132
-0.02981	0.10015
-3.49803	0.32972
1.37278	0.32972
1.14327	0.25320
0.68424	-0.05289
-2.63097	0.40625
-0.97337	-0.28246
-0.41233	-0.35899
2.26534	-0.00188
-1.76392	0.43176
-0.74385	0.35523
1.88281	0.71234
1.55129	0.10015
1.06676	0.12566
1.06676	0.10015
0.76074	-0.20594
0.65874	-0.35899
-4.54360	0.17668
-3.49803	0.45726
3.82094	0.25320
2.54586	0.04914
1.24527	-0.12942
0.48022	0.53379
-0.51434	0.35523
-1.63641	-0.00188
-1.84042	-0.05289
0.96476	0.40625
2.46935	0.32972
-0.69285	-0.07840
-1.15188	0.35523
1.01576	0.40625
0.32721	0.32972
-0.08081	-0.10391
-0.15732	-0.41000
-0.13181	-0.25695
-0.84586	-0.02739
1.01576	0.68683
0.96476	0.73785
0.27621	0.43176
1.19427	0.30422
0.65874	0.32972
0.37822	0.17668
-0.08081	-0.00188
0.17421	-0.79262
-3.95706	-0.15492
-3.09000	0.43176
2.18883	0.45726
2.67337	0.27871
-1.15188	0.04914
-1.20288	0.22769
2.31634	0.27871
1.50029	0.50828
1.85731	0.27871
-1.04987	-0.81812
-3.44703	0.55929
1.14327	-0.53754
0.70974	1.09496
0.91375	0.04914
0.78624	0.50828
0.96476	0.61031
0.30171	-0.12942
-0.84586	-0.05289
-0.13181	0.32972
1.47479	-0.30797
-0.92237	0.27871
-0.64185	0.55929
-1.30489	-0.53754
0.09770	0.71234
2.01032	0.25320
-0.15732	-0.25695
-0.82036	0.20219
1.83181	0.32972
-1.94243	-0.05289
-2.65648	0.00000
1.80631	0.04914
1.39828	0.91640
1.75531	-0.84363
0.88825	0.76336
1.16877	0.12566
1.14327	0.15117
-1.27939	0.25320
-0.79486	0.02363
0.60773	0.32972
0.27621	0.10015
-0.23382	0.07465
-2.32496	-0.10391
-0.89686	-0.07840
1.09226	-0.23145
1.29628	0.30422
0.30171	0.45726
1.32178	0.81437
0.70974	0.10015
0.02119	0.53379
-0.71835	-0.23145
-0.08081	0.78886
0.30171	-0.61406
-0.76936	0.20219
-0.74385	-0.25695
-1.22839	0.63582
2.44385	0.83988
3.87194	0.02363
-0.41233	0.15117
-4.03357	0.27871
0.27621	0.50828
3.46392	-0.41000
-0.56534	-0.02739
-1.68742	0.04914
-0.10631	0.17668
0.86275	-0.30797
-0.05531	0.12566
1.67880	0.22769
-0.15732	0.04914
-0.31033	0.43176
1.85731	0.38074
-3.70204	-0.23145
1.42379	0.38074
-0.08081	0.43176
-1.17738	-0.18043
-0.94787	-0.25695
3.97395	0.38074
0.58223	-0.00188
-3.16651	0.71234
1.24527	0.83988
2.31634	0.32972
1.65330	0.78886
-1.45790	-1.09871
-0.56534	-0.81812
0.78624	0.55929
0.83725	0.12566
0.22521	0.22769
-0.25932	0.10015
-0.48884	0.15117
0.07220	0.20219
0.12320	0.20219
-0.23382	0.35523
-1.30489	-0.41000
-2.93700	-0.28246
1.37278	0.68683
1.90832	0.38074
2.34184	-0.02739
2.18883	0.35523
1.06676	0.61031
0.27621	-0.53754
-2.78398	0.53379
-0.15732	-0.00188
1.55129	0.15117
0.83725	-0.12942
-2.88599	-0.05289
-4.21208	-0.43551
1.75531	0.40625
1.11776	0.27871
2.97938	0.61031
-2.01894	-0.05289
-0.76936	0.04914
2.16333	0.12566
1.95932	0.40625
0.22521	-0.05289
-0.00431	0.15117
1.27078	0.22769
-0.46334	-0.12942
-1.30489	-0.00188
-0.94787	0.27871
-0.79486	-0.10391
-0.05531	0.10015
0.78624	0.63582
-1.15188	0.10015
1.34728	-0.74160
0.53123	0.63582
0.09770	-0.12942
0.12320	1.06945
3.20890	-0.05289
0.55673	0.20219
-2.93700	-0.81812
-1.50890	0.35523
0.48022	0.10015
0.48022	0.32972
2.13783	0.27871
-0.00431	0.30422
1.11776	0.32972
0.27621	-0.02739
-1.02437	0.40625
0.25071	0.58480
-0.99887	-0.99668
1.65330	0.63582
-1.40690	-0.20594
-1.68742	0.04914
1.67880	0.27871
-0.43783	0.48277
-1.84042	0.17668
1.83181	0.22769
2.18883	-0.25695
0.88825	0.25320
0.30171	0.38074
0.35272	1.57960
-0.89686	0.55929
-0.79486	-0.35899
-0.48884	-0.61406
2.23984	-0.58856
1.57679	0.38074
-0.56534	-0.63957
-0.84586	0.76336
0.02119	0.50828
-0.15732	-0.12942
1.11776	0.25320
-1.71292	0.78886
-1.58541	0.07465
0.99026	0.58480
1.78081	0.58480
0.78624	0.27871
-0.23382	-0.48652
0.27621	-0.48652
2.72437	0.68683
-0.82036	0.55929
-2.14644	-0.69059
0.55673	-0.07840
1.44929	-0.23145
-0.79486	0.27871
-2.57997	-0.00188
0.76074	0.66132
0.73524	0.50828
0.48022	0.22769
0.17421	0.17668
0.73524	0.48277
-0.23382	0.45726
0.50573	0.43176
-0.15732	-0.66508
1.44929	-0.05289
0.96476	0.38074
-1.45790	-0.20594
0.40372	0.40625
0.50573	0.27871
-1.43240	0.32972
-0.94787	0.40625
1.44929	-0.10391
1.55129	0.10015
-0.43783	0.15117
-0.53984	-0.23145
1.04126	0.45726
-1.61091	-0.20594
-0.18282	0.40625
1.72980	0.22769
1.93382	0.58480
-0.02981	-0.15492
0.17421	0.04914
0.93925	-0.07840
0.53123	0.38074
-2.68198	0.04914
-1.27939	0.32972
0.96476	0.50828
0.53123	0.30422
-1.02437	0.12566
0.42922	0.35523
1.93382	0.10015
0.50573	0.20219
-1.94243	0.10015
-1.91693	0.22769
2.49485	-0.25695
2.67337	0.27871
1.04126	-0.25695
-0.28482	0.48277
-0.64185	-0.05289
-1.20288	0.07465
-1.58541	0.43176
0.91375	0.61031
1.57679	0.04914
0.91375	-0.25695
0.32721	-0.05289
-0.51434	0.20219
-0.13181	0.15117
0.30171	0.89089
0.93925	0.48277
0.83725	0.22769
0.53123	0.07465
-3.09000	-0.38449
-1.25389	-0.33348
0.35272	-1.25176
1.52579	0.76336
0.86275	0.15117
-0.41233	0.15117
-0.56534	-0.10391
1.57679	0.22769
0.73524	0.45726
0.63323	0.55929
-0.20832	0.40625
-1.61091	-0.02739
-0.48884	0.12566
1.57679	0.04914
0.30171	0.07465
1.24527	0.25320
-0.56534	0.25320
-3.03900	0.04914
0.83725	0.22769
0.99026	-0.05289
1.80631	-0.02739
0.88825	0.20219
0.73524	-0.20594
-0.10631	0.30422
0.12320	0.22769
-2.27395	0.83988
-0.82036	0.15117
0.32721	0.27871
1.60230	0.55929
1.34728	0.10015
-0.69285	-0.35899
-0.08081	0.15117
0.45472	-0.07840
-0.38683	-0.23145
0.73524	0.43176
0.68424	1.04394
0.68424	-1.45582
0.86275	0.45726
-1.20288	0.17668
-3.24301	0.27871
-0.00431	0.30422
-0.00431	0.15117
1.16877	-0.86914
3.54042	0.38074
0.27621	0.50828
-0.48884	0.25320
-0.79486	0.30422
-0.13181	0.30422
0.37822	0.04914
1.83181	0.17668
0.27621	0.02363
-2.78398	0.04914
1.72980	0.32972
0.83725	-0.07840
0.27621	-0.00188
-0.69285	0.35523
-0.10631	-0.51203
-0.38683	-0.53754
-1.30489	0.25320
1.09226	0.76336
1.29628	0.58480
0.63323	0.76336
0.83725	0.27871
0.93925	0.10015
-1.27939	-0.51203
-0.31033	0.38074
0.78624	-0.48652
0.88825	0.38074
-1.25389	0.43176
0.45472	-0.35899
0.60773	0.25320
1.19427	0.30422
-0.15732	0.38074
-3.19201	-0.20594
-3.95706	0.15117
1.39828	0.15117
2.52035	0.17668
2.13783	-0.43551
0.96476	0.10015
0.88825	0.61031
1.21977	0.50828
-0.33583	0.32972
-1.40690	0.53379
0.91375	-0.28246
2.54586	0.32972
-0.46334	-0.38449
-2.32496	-0.05289
-2.52897	-0.10391
0.07220	-0.18043
0.17421	0.25320
0.40372	0.71234
-0.64185	-0.30797
1.29628	-0.00188
1.95932	0.30422
1.78081	0.35523
-0.33583	-0.20594
-1.53441	0.22769
-0.69285	0.53379
1.29628	0.43176
-0.02981	-0.05289
0.32721	-0.05289
0.70974	0.22769
0.17421	0.27871
0.65874	-0.05289
0.48022	-0.02739
0.73524	0.58480
-0.36133	-0.28246
-0.10631	-0.10391
-0.97337	0.35523
-0.31033	0.25320
0.02119	0.25320
0.40372	-0.20594
-0.10631	0.43176
0.65874	0.58480
-0.05531	0.20219
-3.57454	-0.15492
1.21977	0.20219
1.85731	0.07465
1.39828	0.25320
1.75531	0.55929
1.09226	-0.23145
-2.09544	0.04914
-0.56534	-0.25695
-0.05531	0.53379
0.09770	0.10015
1.52579	0.45726
0.53123	-0.25695
0.25071	0.35523
-0.13181	-0.69059
1.19427	0.38074
-0.69285	0.61031
-5.43616	0.02363
0.12320	0.43176
0.96476	0.22769
1.44929	0.12566
1.32178	-0.02739
1.44929	0.32972
-0.97337	-0.10391
-0.33583	-0.12942
0.96476	0.22769
0.45472	0.15117
1.29628	0.45726
-0.33583	-0.00188
-0.64185	0.27871
0.50573	0.40625
-3.09000	-0.15492
-0.41233	0.43176
1.39828	-0.20594
2.08683	0.43176
0.73524	0.43176
-0.33583	0.04914
-0.31033	0.15117
-0.10631	-0.15492
0.14870	0.38074
1.34728	-0.46102
-1.58541	-0.25695
-0.38683	-0.46102
1.93382	0.89089
0.93925	0.71234
-1.50890	0.71234
0.30171	0.45726
-0.46334	-0.12942
0.73524	0.32972
1.06676	-0.74160
1.72980	0.30422
-1.43240	-0.15492
-3.54903	-0.00188
1.29628	0.45726
1.70430	0.40625
0.86275	0.25320
0.65874	0.25320
0.37822	-0.10391
2.26534	-0.41000
1.16877	-0.02739
-7.85881	0.15117
-1.76392	0.20219
1.65330	0.43176
2.77537	-0.05289
2.64786	0.10015
1.44929	0.35523
0.65874	0.17668
0.04670	0.15117
-1.76392	-0.02739
-0.97337	-0.12942
-0.66735	0.10015
0.83725	0.50828
0.25071	0.71234
-2.12094	0.10015
0.27621	0.78886
0.65874	0.25320
0.65874	-0.38449
0.40372	-0.28246
0.58223	0.07465
1.01576	0.10015
-0.05531	0.58480
-0.46334	-0.56305
1.88281	0.38074
1.14327	0.27871
0.37822	0.78886
-2.98800	0.48277
-0.48884	-0.30797
1.57679	-0.05289
1.70430	-0.05289
-1.40690	-0.20594
0.04670	0.53379
0.07220	0.40625
-0.00431	0.61031
1.19427	0.15117
0.60773	0.10015
-0.94787	-0.30797
0.91375	-0.18043
-0.18282	-0.56305
0.40372	-0.30797
-0.36133	0.22769
0.07220	0.35523
-1.17738	0.22769
0.09770	0.25320
1.24527	0.73785
1.55129	-0.38449
1.19427	0.20219
0.07220	-0.02739
-2.35046	0.27871
-0.02981	0.71234
1.32178	0.07465
0.65874	-0.35899
-1.45790	0.20219
-0.05531	0.53379
0.68424	0.04914
-1.68742	-0.05289
0.22521	0.04914
1.75531	0.17668
1.75531	0.32972
-0.13181	-0.15492
-0.59084	0.20219
-0.79486	-0.05289
0.60773	0.35523
1.60230	0.30422
0.96476	0.20219
0.02119	0.43176
-1.89143	-0.97117
0.35272	0.94191
3.08139	-0.38449
-0.66735	0.40625
-7.88431	-0.05289
-0.71835	0.02363
1.24527	0.02363
2.41835	0.30422
2.03582	0.63582
2.16333	0.35523
1.90832	0.40625
-0.61635	-0.05289
-1.07538	0.07465
1.55129	0.12566
0.50573	-0.23145
-0.33583	0.45726
0.04670	0.50828
-0.48884	0.43176
-0.92237	-0.56305
-0.38683	-0.07840
0.12320	0.15117
-0.25932	-0.10391
1.24527	0.20219
1.29628	0.38074
-2.27395	0.20219
0.25071	-0.10391
-0.05531	0.73785
1.34728	0.20219
1.27078	0.40625
1.19427	0.55929
0.83725	0.02363
-1.07538	-0.35899
-0.51434	-0.25695
-0.61635	-0.12942
0.65874	0.30422
0.12320	0.30422
-1.35589	0.38074
0.76074	-0.02739
1.24527	0.50828
0.65874	-0.18043
0.78624	-0.10391
0.35272	0.58480
-0.10631	-0.18043
-0.02981	0.02363
-0.05531	0.02363
-0.87136	-0.05289
0.40372	0.15117
0.63323	0.12566
-0.48884	0.25320
-0.08081	0.22769
0.63323	0.17668
1.57679	-0.05289
0.25071	0.61031
-4.67111	0.15117
0.65874	-0.12942
0.55673	0.27871
1.72980	0.10015
2.31634	0.22769
-0.02981	0.20219
-0.08081	0.22769
0.63323	-0.15492
-0.41233	0.17668
-1.25389	0.53379
0.42922	0.38074
-0.00431	0.20219
1.47479	0.40625
-0.08081	-0.86914
-1.58541	-0.94566
0.65874	0.43176
1.44929	0.78886
-2.52897	0.35523
-0.59084	-0.00188
0.25071	0.48277
1.29628	0.15117
0.19971	0.15117
0.78624	-0.25695
1.29628	0.15117
0.30171	0.45726
0.58223	0.35523
1.21977	-0.02739
0.68424	0.17668
-1.63641	-0.02739
-0.41233	-0.07840
-0.38683	0.30422
-0.51434	0.27871
-0.20832	0.43176
0.99026	-0.07840
0.42922	0.27871
-0.00431	-0.61406
1.60230	0.66132
2.03582	0.22769
-1.38139	0.20219
-0.92237	0.15117
-1.12638	0.38074
0.07220	-0.02739
0.04670	-0.33348
0.68424	0.30422
0.81175	0.25320
-0.36133	-0.00188
-0.48884	0.04914
0.58223	0.27871
1.19427	0.30422
0.65874	0.20219
-0.87136	0.22769
0.07220	-0.00188
0.50573	0.12566
1.47479	0.22769
0.37822	-0.41000
-0.48884	0.38074
-0.33583	0.04914
-1.25389	0.10015
0.81175	0.25320
-0.08081	0.22769
0.68424	-0.25695
-1.45790	0.61031
-0.38683	-0.12942
0.99026	0.32972
1.01576	0.45726
1.14327	0.15117
0.68424	0.22769
0.50573	0.22769
0.04670	0.25320
-0.02981	0.12566
-0.33583	-0.38449
0.14870	-0.25695
-0.18282	0.53379
-1.76392	-0.81812
-0.20832	0.32972
0.83725	0.30422
0.42922	0.04914
0.30171	0.50828
0.40372	0.53379
0.42922	0.43176
0.96476	-0.23145
0.04670	0.55929
-0.89686	0.02363
0.04670	-0.12942
-0.00431	0.58480
0.12320	0.15117
0.45472	-0.10391
0.68424	-0.07840
1.34728	0.07465
0.50573	0.12566
-1.02437	-0.05289
-0.56534	0.07465
-0.18282	0.12566
1.04126	0.20219
0.07220	0.32972
-0.08081	0.30422
0.27621	0.04914
-0.53984	0.04914
-0.02981	0.58480
0.73524	0.43176
0.53123	-0.48652
-2.37596	-0.02739
0.14870	0.02363
0.99026	0.07465
0.60773	0.76336
0.91375	-0.25695
0.88825	0.55929
0.50573	0.04914
0.93925	0.15117
-0.02981	-0.48652
-1.27939	0.91640
0.30171	0.20219
0.96476	-0.56305
-0.43783	0.32972
-0.05531	0.25320
0.88825	-0.20594
-1.58541	0.20219
-1.84042	0.53379
0.73524	-0.20594
0.68424	0.40625
1.57679	0.45726
0.83725	-0.15492
-0.59084	0.17668
0.25071	0.38074
1.37278	0.15117
-0.64185	0.38074
-0.89686	0.17668
0.14870	0.25320
0.14870	-0.10391
0.45472	-1.12422
1.50029	0.35523
-3.77855	-0.15492
-0.28482	0.10015
0.70974	0.10015
1.01576	0.63582
1.57679	0.89089
1.29628	-0.43551
0.70974	0.35523
-1.07538	0.45726
-0.28482	-0.25695
0.04670	-0.30797
1.65330	0.22769
-2.63097	0.02363
-2.55447	0.17668
1.11776	0.58480
0.50573	-1.04770
2.03582	0.63582
1.50029	-0.10391
0.60773	0.25320
0.19971	-0.51203
-0.13181	-0.20594
0.12320	0.35523
-0.61635	0.48277
-2.78398	0.81437
0.09770	-0.15492
1.95932	0.20219
1.04126	0.45726
0.48022	0.04914
0.70974	-0.48652
-1.84042	0.32972
-0.43783	0.32972
2.46935	-0.07840
3.20890	0.07465
-2.29945	0.20219
-1.86593	0.38074
0.40372	0.04914
0.19971	0.27871
0.37822	0.68683
0.32721	0.27871
0.07220	-0.05289
0.17421	-0.56305
0.35272	-0.05289
2.29084	0.35523
-0.66735	-0.84363
-3.57454	0.02363
1.50029	0.53379
1.01576	0.32972
0.19971	0.10015
0.93925	0.17668
0.37822	0.20219
0.50573	0.22769
0.63323	0.22769
-0.20832	0.15117
-0.64185	-0.25695
-0.15732	-0.18043
-1.15188	0.20219
0.93925	0.25320
-0.79486	0.38074
1.42379	0.94191
0.55673	-0.25695
-0.41233	0.50828
0.53123	-0.18043
-0.31033	-0.02739
-0.61635	-0.10391
-0.74385	-0.30797
1.67880	0.53379
0.58223	0.25320
-1.10088	0.58480
-0.38683	0.35523
1.14327	0.27871
1.60230	0.04914
2.21434	-0.00188
-1.94243	-0.43551
-2.50347	0.32972
0.53123	0.55929
1.88281	0.22769
0.86275	-0.05289
0.86275	-0.12942
0.48022	0.10015
-1.40690	-0.23145
0.42922	0.55929
0.12320	0.32972
-2.80949	0.12566
0.42922	0.10015
0.53123	0.25320
0.19971	0.17668
1.21977	0.10015
1.14327	0.53379
-0.18282	-0.84363
0.60773	0.76336
-0.51434	-0.10391
0.12320	-0.28246
1.88281	0.25320
0.37822	0.07465
-3.03900	0.32972
0.50573	0.10015
0.14870	0.43176
1.50029	0.25320
0.93925	0.55929
-0.10631	-0.18043
-0.94787	-0.12942
-0.20832	0.15117
0.70974	0.43176
-0.31033	0.04914
0.35272	0.10015
0.42922	0.07465
1.09226	0.15117
-0.53984	-0.00188
-1.96793	0.20219
-0.38683	-0.00188
1.44929	-0.10391
0.63323	0.32972
0.22521	-0.07840
0.37822	0.17668
1.50029	0.38074
1.19427	0.02363
-0.71835	0.76336
-1.10088	0.10015
-0.23382	0.35523
-0.28482	0.15117
0.32721	-0.05289
1.16877	-0.00188
-0.13181	-0.15492
-1.35589	0.10015
1.19427	-0.10391
0.55673	0.04914
-0.94787	0.32972
0.12320	0.43176
0.02119	0.22769
0.91375	-0.12942
0.60773	0.27871
0.37822	0.04914
0.27621	0.61031
-0.10631	-0.00188
-0.02981	0.27871
0.09770	-0.07840
0.45472	0.68683
0.09770	-0.05289
-0.23382	-0.20594
-0.08081	0.10015
-0.38683	-0.12942
-1.15188	-0.05289
-0.41233	0.66132
0.48022	0.20219
2.13783	-0.43551
1.27078	-0.00188
-0.28482	0.35523
-1.45790	0.40625
1.50029	0.45726
-0.08081	0.71234
-1.22839	-0.10391
0.93925	0.43176
0.76074	0.10015
0.37822	-0.28246
-0.23382	-0.23145
0.19971	0.43176
0.17421	0.35523
-2.70748	0.04914
1.19427	0.12566
1.34728	0.07465
0.76074	-0.30797
0.53123	0.55929
-0.25932	0.25320
0.30171	-0.25695
0.32721	0.25320
-0.02981	0.17668
-0.48884	0.32972
-1.50890	0.25320
1.06676	0.45726
0.37822	-0.35899
0.70974	-0.23145
0.68424	0.32972
1.11776	0.27871
0.60773	0.07465
-0.61635	0.63582
-1.40690	0.48277
0.55673	-0.35899
0.73524	-0.00188
-1.50890	-0.43551
-1.07538	0.32972
0.83725	0.55929
1.14327	0.10015
0.55673	0.04914
1.09226	-0.30797
1.09226	0.32972
0.88825	0.25320
-0.02981	0.17668
0.40372	0.30422
-0.20832	0.22769
-2.06994	-0.25695
-0.64185	-0.05289
0.22521	0.35523
0.37822	-0.15492
-0.36133	0.25320
0.30171	0.38074
0.70974	0.91640
1.75531	-0.10391
0.58223	-0.35899
0.50573	0.22769
-0.69285	-0.05289
-0.41233	0.10015
0.22521	0.12566
-0.31033	0.22769
0.42922	0.20219
0.27621	0.32972
-2.91149	-0.20594
1.01576	0.43176
1.01576	-0.05289
0.83725	0.10015
1.47479	0.38074
-1.15188	-0.12942
0.99026	-0.00188
1.01576	0.02363
-0.31033	0.17668
-2.17195	-0.00188
0.76074	0.66132
0.68424	0.22769
0.48022	0.68683
0.65874	0.20219
0.04670	-0.66508
-1.04987	0.32972
-0.46334	-0.07840
-0.20832	-0.20594
1.14327	0.25320
-0.02981	0.22769
0.30171	0.43176
0.22521	0.50828
-0.56534	0.22769
-0.36133	-0.05289
0.73524	-0.07840
0.91375	0.12566
0.58223	-0.07840
-0.46334	-0.02739
0.73524	0.15117
1.37278	0.04914
-0.84586	0.02363
-3.31952	0.27871
1.78081	0.35523
0.70974	0.45726
-2.86049	-0.00188
1.42379	0.32972
2.57136	-0.05289
-0.31033	-0.25695
1.42379	0.04914
0.14870	0.32972
-0.05531	0.12566
0.25071	-0.07840
-0.20832	0.10015
0.02119	0.43176
-0.59084	0.40625
-2.68198	-0.05289
0.27621	0.12566
1.14327	0.20219
-0.08081	-0.33348
0.27621	0.63582
1.19427	-0.46102
0.81175	0.91640
1.67880	0.25320
0.60773	0.43176
-2.93700	0.17668
-1.35589	-0.15492
0.58223	-0.51203
1.44929	0.02363
1.44929	-0.41000
1.50029	0.07465
0.88825	0.22769
-2.22295	0.07465
-0.13181	0.48277
0.48022	0.48277
-0.15732	0.12566
-0.00431	0.17668
-0.87136	0.25320
-0.99887	-0.10391
0.17421	0.40625
2.21434	-0.07840
1.83181	0.27871
-2.04444	-0.20594
-0.00431	0.10015
0.83725	0.04914
0.81175	0.17668
0.93925	0.15117
-0.23382	0.40625
-0.94787	0.15117
-0.33583	0.48277
0.27621	0.07465
0.60773	-0.15492
0.78624	0.20219
0.12320	0.17668
-0.15732	0.25320
0.73524	-0.48652
-2.24845	0.25320
0.53123	-0.12942
1.16877	0.58480
-0.15732	-0.20594
0.04670	0.91640
1.19427	0.30422
0.07220	-0.05289
0.70974	-0.00188
-0.33583	-0.00188
-0.64185	-0.02739
0.53123	-0.00188
0.32721	0.35523
-0.82036	0.12566
-0.33583	-0.28246
1.01576	0.53379
1.39828	-0.25695
-0.02981	0.94191
-0.46334	-0.28246
0.14870	0.55929
-0.28482	-0.00188
-1.35589	0.04914
1.16877	0.20219
0.65874	0.10015
0.19971	0.17668
1.24527	-0.12942
-0.18282	0.35523
-0.28482	0.20219
0.02119	0.15117
0.09770	0.43176
0.45472	-0.10391
0.42922	0.25320
-0.94787	-0.35899
-0.46334	0.27871
0.37822	0.17668
0.50573	-0.10391
1.11776	0.55929
0.58223	0.55929
0.37822	0.55929
-1.15188	-0.07840
-0.51434	-0.07840
0.42922	0.25320
-0.10631	-0.02739
0.19971	0.07465
-0.71835	0.22769
-0.31033	0.17668
1.24527	0.32972
0.81175	0.22769
0.30171	0.10015
0.09770	0.02363
1.44929	0.17668
0.25071	0.04914
-2.57997	0.27871
-0.92237	0.38074
1.11776	-0.43551
2.13783	0.50828
0.45472	0.45726
-0.89686	-0.12942
-0.46334	0.04914
-0.82036	0.04914
0.32721	0.20219
0.78624	-0.15492
0.70974	0.10015
-0.02981	0.35523
-0.36133	0.04914
-0.48884	0.20219
0.42922	0.15117
1.14327	0.35523
1.21977	0.07465
0.93925	0.63582
-0.36133	-1.35379
-4.03357	0.35523
-1.02437	-0.30797
1.57679	0.17668
1.11776	0.27871
1.04126	0.43176
-0.97337	0.43176
2.01032	0.20219
1.01576	0.76336
0.12320	-0.18043
0.02119	-0.25695
0.45472	0.32972
-0.71835	-0.07840
-0.08081	-0.18043
-0.43783	0.15117
-0.08081	0.22769
-0.00431	-0.00188
-0.51434	-0.12942
-0.18282	0.22769
0.22521	0.22769
0.70974	0.30422
0.58223	-0.02739
1.09226	0.20219
-2.12094	0.27871
-0.92237	0.40625
1.32178	0.35523
1.78081	0.04914
1.60230	0.30422
-0.05531	-0.00188
-1.27939	-0.20594
0.83725	0.07465
0.96476	0.30422
0.17421	-0.66508
-0.99887	0.15117
-0.36133	0.10015
1.47479	0.73785
-2.65648	0.48277
0.96476	0.81437
1.44929	-0.61406
0.40372	0.22769
-2.27395	-0.25695
1.50029	0.22769
0.30171	0.12566
-3.34502	0.07465
1.34728	0.30422
2.21434	0.15117
1.19427	0.15117
-0.28482	-0.00188
0.45472	0.10015
1.21977	0.12566
-0.13181	0.45726
0.12320	0.10015
0.45472	0.07465
0.22521	-0.15492
-0.59084	0.17668
1.62780	0.22769
0.99026	0.66132
-3.67654	-0.15492
-3.44703	-0.15492
-0.64185	0.10015
1.85731	0.27871
1.78081	0.17668
1.44929	0.12566
1.06676	0.25320
0.53123	0.07465
0.32721	0.20219
-0.51434	0.10015
0.27621	0.27871
0.73524	0.02363
0.55673	0.73785
-0.41233	0.71234
-0.94787	-0.89465
-0.69285	-0.30797
0.30171	-0.25695
0.19971	-0.02739
-0.46334	-0.07840
0.12320	0.50828
0.70974	0.63582
0.88825	0.50828
1.06676	0.38074
0.88825	0.25320
-0.08081	0.25320
0.60773	0.40625
-2.14644	-0.33348
0.19971	-0.12942
1.93382	-0.00188
-0.00431	0.20219
-1.61091	0.15117
-0.74385	-0.02739
0.99026	0.22769
1.50029	0.45726
-1.30489	0.30422
0.35272	0.25320
0.65874	0.10015
0.63323	0.04914
0.81175	0.20219
0.19971	0.12566
0.14870	0.53379
-0.31033	0.15117
-0.00431	0.02363
0.96476	0.15117
1.01576	-0.30797
-1.20288	0.35523
-2.83499	-0.02739
-0.99887	-0.46102
1.21977	0.25320
2.41835	0.45726
1.39828	0.32972
-1.27939	0.12566
-0.79486	-0.23145
1.55129	0.38074
0.09770	0.15117
-1.43240	-0.48652
0.32721	0.58480
0.37822	-0.74160
1.37278	0.55929
1.09226	0.32972
-2.27395	-0.05289
1.01576	0.15117
-0.31033	0.12566
0.70974	0.58480
0.99026	0.20219
0.48022	-0.02739
-2.29945	-0.69059
0.09770	0.68683
1.44929	0.17668
0.27621	0.30422
-1.25389	-0.35899
0.91375	0.55929
0.83725	0.10015
1.39828	0.17668
-1.50890	-0.15492
-2.55447	-0.12942
1.27078	0.10015
0.68424	0.38074
0.68424	-0.20594
0.02119	0.32972
1.32178	0.25320
0.50573	0.17668
0.35272	0.55929
0.09770	-0.15492
-0.38683	0.10015
-0.33583	-0.20594
0.07220	-0.00188
0.19971	0.02363
0.12320	0.17668
-0.69285	-0.02739
0.53123	0.40625
0.81175	0.40625
-0.43783	0.38074
-0.08081	-0.07840
0.32721	0.25320
-0.10631	0.04914
1.24527	-0.18043
0.35272	0.17668
-1.66191	0.45726
-0.61635	0.30422
0.27621	0.30422
2.46935	0.17668
2.21434	0.20219
0.22521	0.12566
-2.17195	0.38074
0.17421	-0.00188
0.81175	-0.33348
0.27621	0.10015
-0.28482	-0.20594
-0.76936	0.61031
0.12320	0.22769
-0.74385	0.25320
0.78624	-0.25695
0.65874	0.25320
0.14870	0.20219
0.25071	0.17668
0.09770	0.32972
-0.18282	-0.15492
0.93925	0.22769
0.88825	-0.02739
0.37822	0.10015
-0.61635	0.15117
-0.41233	0.22769
0.76074	0.12566
0.37822	0.02363
-0.23382	0.22769
-0.76936	0.15117
-0.10631	0.15117
0.96476	0.35523
-0.13181	0.45726
-0.41233	0.27871
1.29628	0.32972
0.63323	0.43176
-0.23382	-0.76711
-0.41233	-0.00188
-0.05531	0.15117
0.73524	0.12566
-0.08081	0.30422
0.30171	0.04914
0.22521	0.22769
-1.04987	0.32972
0.40372	0.35523
1.27078	-0.05289
0.40372	0.20219
0.83725	0.10015
-0.31033	-0.05289
-0.64185	0.73785
0.14870	-0.28246
0.30171	0.66132
0.07220	-0.00188
-0.31033	0.10015
0.40372	0.45726
0.48022	-0.46102
-1.30489	-0.02739
0.22521	0.07465
0.93925	0.04914
0.63323	0.45726
1.72980	0.12566
0.73524	0.20219
-4.82411	-0.25695
0.73524	-0.15492
1.29628	0.58480
0.93925	0.27871
0.02119	-0.07840
-0.31033	0.02363
0.73524	0.17668
0.22521	0.12566
0.32721	0.17668
-0.87136	0.61031
-0.69285	-0.48652
2.26534	0.10015
1.67880	0.30422
-2.32496	0.53379
-0.38683	0.04914
-0.05531	0.02363
1.16877	0.15117
0.99026	0.02363
-2.24845	0.25320
0.27621	0.07465
0.70974	0.22769
1.16877	0.30422
0.93925	0.10015
-1.71292	0.12566
-1.30489	0.10015
-0.48884	-0.48652
0.93925	-0.02739
1.72980	0.17668
1.32178	0.40625
-0.15732	0.73785
-1.53441	0.32972
0.04670	-0.30797
1.09226	0.04914
1.24527	0.48277
-0.61635	-0.07840
-0.82036	0.17668
-0.74385	0.04914
1.01576	-0.20594
1.88281	-0.02739
-1.86593	0.35523
-1.35589	0.27871
0.65874	0.38074
0.78624	0.20219
1.55129	0.61031
-1.02437	-0.48652
0.40372	-0.38449
1.16877	0.30422
-0.13181	-0.10391
-0.20832	0.25320
0.35272	0.45726
0.37822	0.38074
-0.33583	0.12566
-0.76936	0.17668
-0.23382	-0.10391
0.63323	0.04914
0.48022	-0.28246
1.78081	0.53379
1.70430	0.45726
-2.98800	-0.05289
-1.40690	0.12566
0.93925	0.30422
0.42922	-0.28246
0.14870	0.15117
-0.13181	0.40625
0.09770	0.07465
0.42922	-0.02739
1.39828	-0.05289
-0.05531	-0.25695
0.27621	0.27871
1.67880	0.50828
0.22521	0.27871
-1.20288	0.27871
-0.53984	0.30422
-0.79486	-0.02739
-1.22839	0.17668
1.95932	-0.18043
1.14327	0.17668
-1.91693	-0.05289
-0.10631	0.30422
1.65330	0.43176
1.27078	0.07465
-0.48884	0.38074
-0.89686	-0.25695
1.44929	-0.20594
0.86275	0.22769
0.37822	0.04914
-0.36133	0.20219
-1.27939	0.53379
-3.39602	-0.05289
1.67880	0.07465
1.83181	0.30422
1.21977	0.17668
-0.43783	0.40625
-1.53441	-0.00188
0.93925	0.25320
0.48022	-0.02739
0.55673	-0.05289
0.63323	0.12566
-0.00431	-0.00188
0.25071	0.15117
0.07220	0.15117
0.17421	0.27871
0.17421	0.20219
-0.79486	-0.33348
-0.15732	0.22769
-0.46334	0.02363
-0.20832	0.07465
0.83725	0.27871
0.53123	-0.02739
0.17421	0.15117
0.70974	0.07465
0.55673	0.86539
-0.69285	-0.28246
1.27078	0.15117
-0.18282	0.04914
-2.88599	-0.51203
0.60773	0.15117
0.50573	0.38074
-0.48884	0.32972
1.83181	0.17668
2.11233	0.71234
0.50573	-0.12942
-0.10631	0.55929
-0.36133	-0.15492
1.06676	-0.05289
-0.31033	-0.02739
-5.28315	-0.30797
0.12320	0.12566
0.86275	-0.00188
0.93925	0.68683
0.73524	-0.15492
0.78624	0.86539
1.37278	0.40625
0.19971	0.30422
-0.36133	0.10015
-0.05531	-0.33348
-0.05531	-0.02739
0.55673	0.10015
0.25071	0.25320
0.68424	-0.05289
0.48022	0.76336
-0.94787	-0.05289
-0.05531	0.35523
0.68424	0.04914
0.17421	0.17668
-0.69285	0.22769
-0.10631	-0.02739
1.32178	-0.25695
-0.46334	0.15117
-2.65648	0.12566
0.70974	-0.35899
1.90832	0.40625
0.70974	0.53379
0.63323	0.40625
1.21977	-0.00188
-0.25932	-0.02739
1.14327	0.10015
-0.53984	0.04914
-4.46709	0.07465
-0.46334	0.10015
1.04126	0.40625
2.23984	0.35523
2.92838	-0.00188
0.58223	0.10015
-1.63641	-0.25695
-0.59084	-0.20594
-0.25932	0.12566
0.14870	0.40625
-0.59084	0.10015
0.35272	0.12566
1.98482	0.38074
-0.41233	0.55929
-1.58541	-0.74160
0.99026	0.48277
0.22521	0.55929
0.09770	0.20219
0.22521	0.07465
0.73524	-0.00188
0.22521	0.10015
0.37822	-0.00188
0.22521	0.12566
-1.43240	0.10015
-0.48884	0.30422
0.50573	0.22769
1.78081	0.25320
1.52579	0.20219
-1.04987	-0.02739
-1.40690	0.04914
-0.74385	-0.10391
0.12320	0.07465
1.62780	0.45726
1.70430	0.38074
0.35272	0.20219
-0.69285	-0.28246
0.22521	0.32972
0.83725	-0.07840
0.22521	0.10015
-1.48340	0.15117
-3.67654	0.25320
-2.29945	-0.10391
2.16333	0.17668
1.72980	0.10015
1.85731	0.55929
1.93382	0.12566
0.96476	0.20219
0.70974	-0.38449
-0.53984	0.25320
-1.40690	0.10015
-0.33583	0.22769
0.73524	0.27871
0.09770	-0.12942
-0.08081	0.43176
-0.25932	0.10015
-0.08081	0.30422
0.48022	0.27871
0.53123	-0.28246
-0.84586	0.02363
-0.33583	0.27871
0.58223	-0.33348
0.30171	-0.23145
0.65874	0.66132
0.45472	0.17668
0.25071	0.07465
0.40372	0.55929
0.02119	-0.10391
0.93925	0.63582
0.68424	0.30422
-1.71292	-0.02739
-0.92237	0.10015
0.50573	-0.35899
1.04126	0.15117
-0.92237	0.25320
-0.84586	0.12566
1.90832	0.22769
1.34728	0.17668
0.73524	-0.00188
0.17421	-0.02739
-0.38683	0.10015
0.22521	0.15117
1.27078	0.22769
-0.13181	0.20219
-5.28315	0.25320
0.04670	0.15117
1.80631	0.61031
1.19427	-0.12942
0.73524	-0.15492
0.53123	0.22769
0.32721	0.04914
-0.61635	-0.05289
0.14870	0.15117
-0.56534	0.32972
1.11776	0.43176
0.96476	0.50828
0.30171	-0.43551
0.02119	0.61031
-0.02981	-0.00188
0.07220	-0.46102
0.27621	-0.18043
-0.28482	0.35523
-1.63641	0.30422
-0.84586	-0.00188
0.81175	0.22769
0.78624	0.27871
1.95932	-0.02739
1.24527	-0.05289
-0.00431	0.25320
0.32721	0.10015
0.17421	0.38074
-0.82036	-0.15492
-1.20288	-0.02739
0.99026	0.20219
0.58223	0.04914
-0.51434	0.02363
-0.59084	0.17668
-0.20832	0.48277
0.45472	0.07465
1.39828	0.10015
1.14327	-0.18043
0.22521	0.30422
-1.81492	0.25320
-0.92237	-0.46102
0.83725	0.45726
2.13783	0.53379
-0.36133	0.40625
-1.78942	0.12566
0.12320	-0.18043
0.81175	0.02363
1.47479	-0.25695
0.73524	0.22769
1.44929	0.10015
0.45472	0.07465
-3.16651	0.45726
0.32721	0.35523
1.39828	0.48277
-0.56534	-0.15492
0.07220	-0.05289
0.70974	-0.10391
-0.74385	0.10015
-1.63641	0.45726
-0.48884	-0.10391
2.06133	0.55929
2.01032	0.17668
0.73524	0.32972
-0.15732	-0.25695
-0.33583	0.22769
-0.92237	0.12566
-0.08081	-0.43551
0.02119	0.10015
-0.38683	0.38074
1.09226	0.25320
0.83725	0.68683
-0.33583	0.20219
0.40372	-0.18043
0.37822	0.25320
-0.99887	-0.10391
-1.38139	0.20219
1.27078	-0.12942
0.83725	-0.05289
-3.01350	0.30422
0.88825	0.02363
0.81175	0.32972
1.50029	-0.12942
1.19427	0.40625
-0.94787	0.12566
0.17421	-0.05289
-0.08081	0.10015
0.53123	0.15117
0.22521	0.15117
0.91375	0.22769
0.07220	0.55929
0.58223	0.17668
-0.08081	0.35523
-0.46334	0.50828
-1.02437	-0.48652
-0.84586	0.10015
0.86275	-0.00188
0.37822	-0.02739
0.68424	0.38074
0.76074	-0.00188
-0.89686	0.38074
-0.87136	-0.00188
1.14327	0.17668
1.62780	0.38074
0.86275	0.12566
-1.12638	0.07465
-0.79486	0.04914
1.27078	-0.02739
0.60773	0.02363
-0.89686	0.15117
0.88825	-0.05289
0.35272	0.48277
-1.35589	-0.05289
0.65874	0.45726
-0.51434	-0.58856
0.91375	0.81437
0.63323	0.43176
-0.66735	0.27871
1.04126	0.04914
0.37822	0.04914
-0.59084	0.17668
-0.89686	0.10015
-0.43783	-0.07840
1.24527	0.17668
0.68424	0.04914
-0.13181	0.22769
-0.59084	0.17668
0.25071	-0.02739
0.93925	0.22769
0.40372	0.10015
-0.48884	0.27871
-0.71835	0.27871
0.37822	-0.28246
1.09226	0.20219
1.85731	0.17668
-2.19745	0.10015
-1.10088	0.61031
-0.08081	-0.00188
0.73524	-0.07840
1.24527	0.43176
-0.15732	0.30422
1.11776	0.61031
1.04126	0.25320
0.25071	-0.41000
-0.79486	0.15117
-1.91693	-0.23145
-0.74385	-0.02739
1.78081	-0.28246
2.52035	0.45726
-0.53984	-0.07840
-0.10631	0.58480
0.32721	0.45726
-0.13181	0.27871
-1.02437	0.10015
-0.53984	-0.05289
-1.50890	-0.23145
-0.61635	0.43176
1.95932	-0.15492
1.72980	-0.02739
0.96476	0.04914
1.04126	0.43176
0.35272	0.04914
0.37822	0.17668
-0.48884	0.15117
-0.99887	0.50828
0.02119	0.10015
0.19971	-0.00188
0.37822	0.25320
0.09770	-0.00188
0.04670	0.17668
0.45472	0.17668
0.60773	0.17668
0.09770	-0.02739
-0.43783	0.25320
-0.05531	0.27871
0.91375	-0.05289
0.09770	-0.18043
-0.71835	0.32972
-0.18282	-0.00188
0.50573	0.15117
1.09226	0.02363
0.86275	0.48277
0.81175	0.02363
-1.25389	0.66132
-0.87136	0.17668
0.65874	0.38074
-0.41233	-0.15492
0.07220	0.12566
0.53123	0.17668
0.48022	-0.43551
0.70974	0.53379
0.53123	0.71234
-0.31033	-0.02739
-0.10631	0.25320
-0.48884	-0.00188
0.32721	0.04914
-0.10631	0.15117
0.40372	0.35523
0.63323	0.10015
0.12320	-0.25695
0.17421	0.12566
0.32721	0.30422
0.14870	0.20219
-0.53984	0.07465
-0.28482	0.32972
-0.41233	0.20219
0.53123	0.04914
0.53123	-0.05289
0.76074	0.04914
-0.10631	0.15117
0.40372	-0.05289
1.50029	0.38074
-1.04987	0.45726
-2.83499	-0.10391
-0.13181	-0.07840
0.48022	-0.02739
1.09226	0.02363
0.60773	-0.05289
0.55673	0.12566
0.50573	0.40625
0.19971	0.30422
0.22521	0.20219
0.73524	0.30422
0.35272	0.40625
-1.66191	-0.18043
-0.64185	0.10015
0.73524	0.40625
0.42922	0.02363
1.11776	-0.25695
0.42922	0.30422
0.09770	0.25320
-0.25932	0.22769
0.55673	0.53379
0.04670	-0.02739
-2.32496	0.12566
0.50573	0.27871
0.48022	-0.12942
-0.94787	-0.33348
1.21977	0.20219
1.34728	-0.07840
-0.82036	0.15117
0.12320	0.10015
1.44929	0.45726
1.42379	0.32972
0.14870	0.40625
-0.02981	0.32972
0.22521	-0.10391
-1.61091	0.15117
-1.10088	-0.05289
0.58223	-0.15492
-0.36133	0.66132
0.14870	-1.07320
1.72980	0.81437
1.01576	0.25320
-0.61635	0.15117
-1.71292	-0.07840
0.78624	0.20219
1.04126	-0.46102
0.83725	0.22769
0.42922	0.32972
-0.08081	0.22769
0.32721	0.48277
0.07220	-0.20594
0.25071	-0.56305
-0.02981	0.55929
-0.20832	0.12566
-0.20832	0.02363
-0.79486	0.04914
0.99026	0.17668
0.19971	0.55929
-2.60547	-0.20594
0.42922	0.12566
2.08683	0.04914
0.91375	0.25320
1.52579	0.25320
0.35272	0.32972
0.14870	-0.07840
-1.30489	0.20219
-0.89686	0.12566
0.19971	0.15117
0.65874	0.63582
-0.10631	-0.63957
-0.43783	0.55929
1.29628	0.55929
-0.53984	-0.02739
0.07220	0.35523
0.48022	-0.05289
1.19427	0.04914
0.70974	-0.05289
-0.15732	-0.33348
-0.69285	0.35523
0.09770	0.15117
-0.13181	0.45726
0.32721	-0.07840
0.22521	0.35523
0.25071	0.25320
0.25071	-0.05289
0.12320	0.17668
0.22521	0.02363
0.53123	0.10015
0.45472	-0.05289
-0.08081	0.25320
-0.33583	0.53379
-1.20288	-0.43551
0.50573	0.76336
0.63323	0.12566
-0.38683	0.25320
0.19971	-0.23145
1.16877	0.10015
1.14327	0.32972
0.09770	0.17668
0.12320	0.25320
0.12320	0.15117
0.12320	0.10015
-0.61635	0.10015
-0.13181	0.17668
1.14327	0.17668
0.48022	0.12566
-3.37052	-0.79262
-0.74385	0.53379
0.93925	0.04914
1.93382	0.45726
1.78081	-0.07840
0.40372	0.81437
-1.91693	0.32972
-0.13181	-0.12942
0.70974	-0.18043
0.12320	0.20219
-0.48884	0.07465
-0.66735	-0.38449
0.50573	0.55929
1.29628	0.38074
0.99026	0.02363
1.34728	0.12566
-0.20832	0.17668
-0.89686	0.17668
-0.89686	0.22769
-0.48884	0.25320
1.11776	-0.02739
0.96476	0.38074
0.50573	0.22769
-0.87136	-0.05289
0.63323	0.02363
1.16877	0.35523
0.91375	0.10015
-1.71292	-0.02739
-3.16651	0.17668
-0.46334	0.27871
1.01576	-0.51203
1.57679	0.55929
0.12320	0.02363
1.27078	-0.10391
0.53123	-0.00188
-0.00431	0.22769
1.16877	0.38074
0.25071	0.27871
0.09770	0.07465
-0.02981	0.07465
-0.51434	0.32972
0.55673	0.35523
0.07220	-0.02739
0.35272	0.07465
0.02119	0.04914
-2.52897	0.17668
-0.84586	0.17668
1.11776	0.53379
1.04126	-0.20594
0.73524	0.45726
0.58223	0.17668
0.25071	0.07465
1.14327	-0.43551
1.19427	0.15117
-1.35589	0.25320
-0.10631	0.50828
0.22521	0.38074
0.14870	-0.56305
-0.71835	0.58480
-0.08081	0.35523
0.63323	0.10015
0.19971	0.04914
0.63323	0.12566
-0.33583	-0.20594
-1.53441	0.02363
0.50573	0.40625
1.16877	0.32972
0.53123	0.12566
0.14870	-0.12942
-0.02981	0.43176
0.42922	-0.18043
0.27621	0.40625
0.17421	0.02363
-0.13181	0.25320
-0.51434	0.15117
-0.31033	-0.02739
0.30171	-0.18043
1.57679	0.35523
0.48022	0.15117
-1.02437	0.15117
0.12320	-0.02739
0.12320	0.04914
-0.25932	0.15117
0.40372	0.22769
-0.69285	-0.28246
0.76074	0.40625
0.09770	0.43176
-0.61635	-0.02739
0.65874	0.27871
0.81175	0.22769
0.65874	-0.28246
0.48022	0.20219
-0.69285	0.20219
-0.31033	-0.00188
0.22521	0.68683
0.25071	0.15117
0.53123	0.04914
0.07220	0.22769
-0.66735	0.10015
0.50573	-0.10391
-0.20832	0.04914
0.88825	0.66132
0.40372	0.22769
-0.59084	0.12566
-1.43240	0.02363
1.62780	0.22769
0.83725	0.10015
-0.36133	0.07465
0.63323	0.12566
0.55673	0.15117
-0.51434	-0.10391
0.50573	0.32972
-0.20832	-0.30797
-0.10631	0.35523
0.32721	0.10015
0.09770	-0.00188
0.45472	0.30422
-0.15732	0.25320
0.40372	-0.15492
0.63323	0.63582
-3.14101	-0.12942
0.25071	0.10015
0.83725	0.02363
1.37278	0.40625
0.91375	0.58480
0.65874	-0.53754
0.55673	0.32972
0.35272	0.10015
0.53123	0.02363
-0.05531	0.25320
-1.30489	-0.15492
-0.28482	-0.18043
-0.38683	0.45726
0.50573	-0.63957
-0.05531	0.38074
0.30171	0.40625
-0.02981	0.12566
0.37822	0.35523
0.19971	-0.15492
1.44929	0.32972
0.65874	0.27871
-0.64185	0.12566
-0.41233	0.02363
0.09770	0.15117
-0.28482	0.17668
0.55673	0.40625
-0.18282	-0.12942
-1.15188	0.20219
1.16877	-0.10391
1.27078	0.04914
-0.46334	0.22769
-0.41233	0.32972
0.09770	-0.18043
0.78624	0.61031
0.19971	-0.05289
0.76074	0.40625
-0.10631	-0.33348
0.32721	0.68683
-0.36133	0.17668
0.37822	0.22769
-0.05531	-0.25695
-0.46334	-0.43551
0.45472	0.48277
0.04670	0.15117
0.17421	0.45726
0.25071	0.27871
-0.08081	-0.00188
-0.31033	0.17668
0.12320	0.10015
1.75531	0.12566
-0.33583	0.22769
-1.91693	0.12566
-0.79486	0.25320
1.29628	0.35523
1.67880	0.04914
1.60230	0.76336
0.58223	-0.23145
0.30171	-0.05289
-0.28482	0.10015
-3.01350	0.04914
0.12320	0.15117
-0.08081	0.27871
-0.56534	0.45726
1.75531	-0.10391
1.67880	0.50828
1.32178	0.27871
-0.66735	0.20219
-0.56534	0.10015
-1.71292	-0.07840
0.04670	0.35523
0.70974	-0.05289
1.37278	-0.00188
-0.18282	0.30422
-2.04444	0.02363
0.81175	0.25320
0.93925	0.20219
-0.13181	0.22769
0.50573	0.10015
-0.10631	-0.48652
0.76074	0.35523
1.21977	0.40625
0.25071	0.35523
-0.43783	0.40625
0.12320	0.25320
0.32721	-0.00188
0.19971	0.04914
-0.43783	0.83988
-0.18282	-1.30277
-0.28482	0.61031
-1.10088	-0.12942
-0.13181	0.02363
0.68424	-0.05289
-0.00431	0.10015
1.44929	0.48277
1.19427	0.17668
-0.20832	0.63582
0.02119	-0.07840
1.34728	0.17668
0.19971	-0.18043
-0.64185	-0.05289
-0.05531	0.02363
-0.33583	0.15117
0.25071	0.38074
0.48022	0.17668
-0.56534	0.38074
-1.02437	-0.15492
0.42922	0.02363
0.37822	-0.00188
0.53123	0.30422
1.11776	0.20219
0.27621	0.15117
-1.25389	0.32972
-0.92237	0.20219
0.81175	0.12566
1.67880	0.20219
0.99026	0.12566
-0.94787	0.66132
-0.28482	-0.61406
2.01032	0.48277
2.23984	0.30422
-0.23382	0.15117
-0.76936	0.25320
-0.59084	0.10015
-0.66735	0.02363
-0.82036	0.15117
-0.02981	0.22769
0.17421	-0.20594
-0.20832	0.04914
0.04670	-0.15492
-0.15732	0.32972
0.37822	0.45726
0.65874	0.10015
0.65874	0.45726
0.93925	0.25320
0.22521	0.30422
0.58223	0.22769
0.07220	0.17668
0.02119	0.17668
-0.18282	-0.02739
-0.10631	-0.43551
-0.18282	-0.02739
-0.23382	0.43176
-1.71292	0.43176
1.14327	0.32972
0.76074	0.17668
1.19427	-0.23145
-0.28482	0.43176
0.32721	0.27871
-0.53984	0.48277
0.09770	-0.25695
-0.05531	0.04914
-0.00431	0.04914
-0.08081	-0.02739
0.68424	0.38074
0.40372	0.63582
1.39828	-0.02739
0.65874	0.20219
-0.82036	0.15117
-1.12638	0.20219
-0.46334	-0.05289
-0.46334	-0.07840
0.91375	-0.15492
0.99026	0.20219
0.63323	0.35523
-0.15732	0.71234
0.40372	0.17668
1.04126	-0.05289
0.35272	0.40625
-1.66191	0.10015
-0.79486	0.17668
0.04670	-0.35899
0.12320	0.22769
0.81175	0.55929
0.50573	0.12566
0.68424	0.17668
0.45472	0.12566
-0.10631	0.04914
0.09770	-0.07840
-1.86593	-0.07840
-1.81492	0.50828
0.81175	0.25320
1.50029	0.35523
1.52579	0.30422
1.24527	-0.07840
0.17421	0.04914
-0.38683	0.35523
0.63323	0.04914
-0.25932	0.15117
-1.45790	0.25320
0.73524	0.43176
-1.61091	-0.07840
-0.20832	-0.15492
1.47479	0.22769
1.21977	0.22769
-0.51434	0.40625
0.25071	-0.56305
0.55673	-0.43551
0.12320	0.55929
-0.89686	0.50828
-1.81492	0.04914
0.78624	0.20219
1.60230	-0.12942
0.93925	0.15117
0.48022	0.27871
-0.08081	0.17668
-0.53984	0.45726
0.25071	0.12566
-0.05531	-0.10391
-0.71835	-0.02739
0.58223	0.32972
-0.28482	0.20219
-0.05531	-0.35899
-0.64185	-0.07840
-0.13181	0.40625
1.60230	0.20219
1.06676	0.20219
0.32721	0.35523
0.09770	0.35523
0.70974	0.04914
-0.69285	-0.15492
-0.51434	0.38074
0.40372	0.17668
-0.36133	0.22769
1.21977	0.35523
0.70974	-0.07840
-2.19745	0.17668
0.48022	0.20219
0.73524	-0.18043
-0.38683	-0.53754
1.21977	0.45726
-0.28482	0.25320
-0.92237	0.04914
0.12320	0.66132
0.73524	0.15117
0.81175	0.07465
0.78624	0.50828
0.09770	0.04914
0.19971	-0.02739
-1.27939	-0.33348
-0.08081	0.32972
0.07220	0.15117
0.19971	0.35523
0.07220	-0.12942
0.88825	0.02363
0.99026	0.35523
0.45472	0.38074
0.02119	0.10015
-0.74385	0.17668
-0.05531	0.10015
0.81175	0.17668
0.68424	-0.15492
-0.84586	-0.05289
-1.02437	-0.05289
-0.36133	0.27871
0.19971	0.35523
0.68424	0.15117
2.11233	0.17668
0.25071	-0.15492
-1.38139	-0.38449
1.06676	0.45726
0.78624	0.58480
0.48022	-0.18043
-0.53984	0.20219
-1.35589	0.25320
0.02119	0.25320
0.99026	0.30422
0.99026	0.30422
-0.48884	-0.02739
-0.33583	0.07465
-0.10631	-0.02739
0.53123	0.20219
0.42922	0.10015
1.06676	0.38074
0.40372	0.32972
-0.00431	0.10015
-0.82036	0.86539
0.25071	0.07465
0.70974	-0.89465
1.09226	0.45726
0.14870	0.30422
-1.50890	0.25320
-0.43783	-0.20594
0.48022	-0.02739
0.99026	0.58480
1.21977	0.66132
0.04670	0.25320
-0.69285	0.12566
-0.56534	-0.15492
0.22521	0.27871
0.04670	-0.35899
0.55673	0.63582
0.42922	-0.15492
-0.36133	0.04914
-0.18282	0.10015
0.65874	-0.00188
-0.25932	0.27871
0.63323	0.38074
1.06676	0.20219
-0.94787	0.35523
-1.71292	0.58480
1.50029	-0.38449
1.88281	-0.00188
-1.30489	0.22769
-1.12638	0.15117
1.62780	0.43176
-0.38683	-0.20594
1.65330	0.10015
-0.51434	-0.33348
-0.41233	0.10015
-1.12638	0.63582
0.81175	0.02363
0.88825	-0.10391
1.27078	0.40625
-0.71835	0.12566
0.48022	0.50828
-2.17195	0.22769
0.53123	0.71234
1.14327	0.15117
0.07220	-0.28246
-0.33583	-0.58856
0.58223	0.22769
-0.20832	0.20219
1.01576	-0.18043
0.42922	0.30422
-0.59084	0.32972
0.48022	0.78886
0.63323	0.22769
0.45472	0.07465
0.42922	0.35523
-1.02437	0.07465
-0.20832	-0.05289
-0.25932	-0.07840
0.17421	0.10015
-0.05531	0.15117
-0.15732	-0.18043
1.80631	0.40625
1.47479	0.25320
-0.92237	0.53379
-3.34502	0.25320
-0.28482	-0.05289
3.41291	-0.05289
-0.89686	-0.53754
1.29628	0.43176
0.96476	0.45726
-1.53441	-0.02739
0.58223	-0.46102
0.91375	0.45726
-0.38683	0.55929
-0.56534	-0.15492
-0.25932	-0.07840
-0.25932	0.32972
0.63323	0.30422
0.32721	0.10015
0.32721	-0.25695
0.60773	0.55929
0.04670	0.43176
0.22521	0.27871
0.14870	-0.18043
0.30171	0.02363
0.48022	-0.05289
-1.61091	0.04914
-0.20832	0.25320
0.53123	0.35523
0.68424	0.04914
1.16877	0.12566
0.76074	0.04914
0.53123	0.27871
-1.33039	0.07465
-1.10088	0.15117
-0.10631	0.17668
0.83725	-0.02739
1.29628	0.40625
0.63323	0.48277
-0.51434	0.07465
0.07220	0.22769
0.48022	-0.92016
-0.25932	0.86539
-0.00431	0.10015
-0.00431	0.02363
0.12320	0.48277
-0.43783	0.10015
0.32721	0.40625
0.35272	-0.02739
0.35272	0.45726
0.93925	0.17668
0.12320	0.38074
-1.61091	-0.38449
0.32721	0.04914
1.42379	-0.02739
1.16877	0.30422
-0.84586	0.17668
-0.99887	0.25320
1.39828	0.15117
0.65874	0.15117
-0.46334	0.30422
-0.87136	-0.07840
0.93925	0.35523
0.88825	0.10015
-0.38683	0.12566
0.42922	0.07465
-0.69285	-0.07840
-0.25932	0.58480
-0.64185	-0.61406
0.78624	0.63582
0.37822	0.02363
0.27621	0.58480
0.58223	-0.05289
0.63323	0.04914
-0.13181	0.04914
0.65874	0.43176
-0.31033	-0.02739
-0.64185	-0.56305
-0.18282	0.27871
0.37822	0.76336
0.53123	0.25320
0.86275	0.04914
0.42922	0.35523
1.09226	0.45726
0.25071	0.20219
-1.71292	0.20219
-1.38139	-0.00188
1.01576	0.10015
0.50573	-0.35899
0.58223	0.04914
0.65874	0.32972
-0.20832	0.38074
0.58223	-0.12942
0.25071	0.15117
-1.04987	0.30422
0.09770	0.32972
-0.13181	-0.00188
0.07220	0.15117
0.48022	0.20219
-0.41233	0.10015
0.25071	0.50828
0.73524	-0.20594
0.32721	0.12566
0.09770	0.22769
0.40372	0.12566
-0.23382	0.27871
0.04670	0.55929
0.93925	-0.74160
1.47479	0.12566
-0.33583	0.30422
-1.96793	0.53379
-0.74385	0.22769
-0.36133	0.27871
2.36734	0.02363
1.16877	0.10015
-0.15732	0.15117
-0.02981	0.12566
-0.28482	0.10015
0.53123	0.25320
-0.23382	0.20219
0.40372	0.17668
0.45472	0.17668
0.02119	0.17668
-0.20832	0.04914
-0.38683	0.10015
-0.53984	0.02363
0.12320	-0.00188
-0.08081	0.35523
0.40372	0.32972
1.44929	0.27871
1.01576	0.22769
-0.76936	0.07465
0.63323	0.58480
0.14870	-0.58856
-0.41233	0.27871
-1.12638	-0.56305
0.91375	0.22769
-1.45790	-0.28246
0.42922	0.38074
1.80631	0.22769
0.91375	1.37554
0.78624	0.48277
0.42922	0.12566
0.60773	0.07465
0.60773	-0.15492
-0.28482	-0.05289
-1.10088	-0.05289
-1.38139	-0.07840
0.27621	0.17668
0.70974	0.15117
0.12320	-0.10391
-0.00431	0.30422
-0.23382	0.12566
-0.08081	0.22769
0.53123	0.22769
1.06676	0.25320
0.30171	0.17668
0.12320	0.02363
0.14870	0.04914
-0.94787	0.30422
-1.30489	0.15117
0.53123	0.10015
0.70974	0.22769
1.24527	0.10015
1.09226	-0.05289
0.50573	0.27871
0.02119	0.45726
-0.10631	0.17668
0.37822	0.40625
0.68424	-0.07840
-1.81492	-0.07840
-0.25932	0.10015
0.42922	0.17668
0.40372	0.25320
0.17421	-0.07840
0.37822	0.07465
0.32721	0.17668
0.07220	0.25320
0.35272	0.10015
-0.02981	0.32972
-0.94787	0.04914
-0.23382	0.07465
0.37822	0.17668
-0.02981	-0.00188
0.99026	0.15117
1.85731	0.43176
-0.69285	-0.20594
-2.06994	0.45726
0.58223	-0.12942
1.60230	0.78886
0.68424	-0.05289
0.81175	0.10015
-0.43783	0.20219
-1.55991	-0.12942
0.53123	0.12566
0.96476	0.35523
-0.18282	0.40625
-0.08081	0.04914
0.12320	0.25320
0.35272	0.15117
1.24527	-0.00188
0.12320	0.12566
-2.78398	-0.02739
0.12320	0.17668
-0.08081	0.43176
-0.10631	-0.79262
1.39828	0.25320
1.19427	0.32972
-0.15732	0.07465
1.21977	-0.12942
0.53123	0.50828
0.65874	0.83988
-0.31033	0.43176
-0.08081	-0.30797
0.09770	0.20219
-0.23382	-0.00188
-1.27939	-0.02739
-0.13181	0.27871
1.01576	0.66132
0.58223	-0.07840
0.22521	0.35523
0.09770	0.04914
-0.23382	-0.02739
0.48022	-0.00188
1.04126	0.04914
-0.20832	0.20219
-0.59084	0.02363
-0.46334	0.22769
-0.05531	0.22769
1.55129	0.20219
-0.28482	0.04914
0.40372	-0.07840
0.19971	0.22769
-0.56534	0.20219
0.35272	0.15117
0.45472	-0.02739
0.48022	0.27871
-0.97337	-0.02739
-0.69285	0.38074
-0.13181	0.66132
0.45472	0.40625
1.65330	0.25320
1.24527	-0.07840
0.99026	0.15117
0.53123	0.15117
-0.51434	0.15117
-0.61635	-0.51203
-0.28482	-0.25695
0.17421	0.22769
0.78624	0.55929
-0.00431	0.35523
-0.71835	0.30422
-0.18282	0.40625
0.32721	0.25320
-0.66735	-0.02739
0.27621	0.02363
1.09226	0.07465
1.14327	-0.05289
-0.53984	0.04914
-1.48340	-0.10391
0.40372	0.10015
1.55129	0.15117
1.14327	0.27871
-0.08081	0.10015
0.07220	0.25320
0.60773	0.25320
0.14870	-0.07840
0.07220	0.55929
-0.18282	-0.12942
-0.71835	0.53379
-0.25932	0.22769
-0.02981	0.15117
0.50573	0.30422
0.70974	-0.43551
-0.20832	0.35523
0.14870	-0.02739
0.53123	0.50828
0.04670	-0.12942
0.60773	0.32972
0.42922	0.07465
-0.20832	0.43176
0.65874	0.45726
0.12320	-0.48652
-2.57997	0.50828
-0.43783	0.04914
1.16877	-0.07840
1.14327	0.63582
1.16877	0.58480
0.50573	-0.20594
0.02119	0.48277
0.22521	-0.00188
1.34728	-0.02739
0.35272	-0.05289
