0.27621	0.22769
0.27621	0.15117
0.12320	0.10015
-0.00431	0.15117
0.07220	0.10015
0.02119	0.10015
0.04670	0.15117
0.27621	0.27871
0.37822	0.15117
0.27621	0.20219
0.25071	0.15117
0.17421	0.04914
-0.02981	0.10015
-0.05531	0.15117
-0.05531	0.10015
-0.05531	-0.02739
-0.00431	0.12566
0.09770	0.22769
0.30171	0.17668
0.32721	0.12566
0.27621	0.12566
0.19971	0.25320
0.27621	0.15117
0.14870	0.15117
-0.02981	0.15117
0.17421	0.15117
0.17421	0.07465
0.09770	0.12566
0.12320	0.25320
0.19971	0.15117
0.27621	0.17668
0.19971	0.15117
0.25071	0.04914
0.09770	-0.05289
-0.18282	0.10015
-0.00431	0.04914
0.14870	0.04914
0.12320	0.22769
0.14870	0.32972
0.42922	0.30422
0.32721	0.17668
0.25071	0.22769
0.22521	0.04914
-0.02981	-0.10391
-0.18282	0.04914
0.12320	0.12566
0.14870	0.20219
0.09770	0.35523
0.32721	0.30422
0.35272	0.12566
0.30171	0.12566
0.30171	0.07465
0.04670	-0.07840
-0.18282	-0.00188
-0.18282	0.02363
-0.05531	0.02363
0.04670	0.17668
0.14870	0.27871
0.27621	0.17668
0.25071	0.22769
0.32721	0.25320
0.32721	0.10015
0.12320	0.12566
-0.02981	0.15117
0.02119	0.04914
0.02119	0.10015
0.02119	0.22769
0.19971	0.07465
0.22521	0.20219
0.17421	0.22769
0.22521	0.15117
0.22521	0.20219
0.12320	0.20219
0.14870	0.04914
0.02119	0.02363
-0.02981	0.12566
0.04670	0.10015
0.12320	0.15117
0.07220	0.27871
0.25071	0.12566
0.37822	0.15117
0.22521	0.15117
0.22521	0.04914
-0.00431	0.15117
-0.08081	0.12566
0.07220	0.07465
0.07220	0.20219
0.17421	0.25320
0.27621	0.20219
0.19971	0.17668
0.35272	0.20219
0.32721	0.12566
0.07220	0.04914
0.04670	0.12566
0.02119	0.07465
0.02119	0.10015
0.04670	0.15117
0.04670	0.15117
0.12320	0.10015
0.17421	0.30422
0.37822	0.25320
0.30171	0.12566
0.09770	0.17668
0.12320	0.04914
-0.02981	0.04914
0.04670	0.17668
0.14870	0.25320
0.25071	0.12566
0.27621	0.25320
0.27621	0.30422
0.35272	0.15117
0.27621	0.04914
0.19971	0.04914
-0.10631	0.04914
-0.13181	0.04914
-0.08081	0.12566
0.09770	0.22769
0.25071	0.20219
0.22521	0.17668
0.25071	0.12566
0.27621	0.17668
0.25071	0.10015
0.09770	0.07465
-0.00431	0.15117
-0.02981	0.15117
-0.00431	0.17668
0.09770	0.25320
0.17421	0.17668
0.32721	0.15117
0.42922	0.20219
0.32721	0.27871
0.27621	0.07465
0.09770	0.04914
-0.10631	0.04914
-0.00431	0.02363
-0.00431	0.15117
0.07220	0.15117
0.19971	0.07465
0.19971	0.30422
0.30171	0.17668
0.27621	0.07465
0.14870	0.12566
0.07220	0.04914
0.04670	0.07465
-0.05531	0.25320
0.22521	0.20219
0.22521	0.17668
0.09770	0.30422
0.27621	0.20219
0.35272	0.17668
0.14870	0.20219
0.14870	0.12566
0.09770	-0.00188
-0.05531	0.10015
-0.10631	0.07465
0.04670	0.07465
0.09770	0.12566
0.25071	0.17668
0.25071	0.27871
0.30171	0.20219
0.32721	0.17668
0.19971	0.22769
0.17421	0.04914
0.02119	0.07465
-0.13181	0.04914
0.07220	0.04914
0.12320	0.17668
0.02119	0.15117
0.22521	0.20219
0.22521	0.17668
0.32721	0.12566
0.19971	0.15117
0.12320	0.02363
-0.00431	0.15117
-0.08081	0.10015
0.04670	0.07465
0.04670	0.25320
0.12320	0.20219
0.25071	0.25320
0.32721	0.20219
0.37822	0.04914
0.19971	0.12566
0.09770	0.10015
-0.05531	0.02363
-0.00431	0.15117
0.12320	0.10015
0.09770	0.15117
0.09770	0.27871
0.35272	0.17668
0.27621	0.22769
0.32721	0.22769
0.30171	0.17668
0.22521	0.25320
0.09770	0.07465
-0.18282	-0.02739
-0.08081	-0.00188
0.02119	-0.02739
-0.00431	0.17668
0.27621	0.20219
0.30171	0.12566
0.22521	0.25320
0.30171	0.17668
0.19971	0.15117
-0.00431	0.12566
0.04670	0.10015
0.04670	0.07465
0.07220	0.22769
0.27621	0.17668
0.27621	0.10015
0.19971	0.25320
0.32721	0.15117
0.12320	0.10015
0.17421	0.10015
0.09770	0.10015
-0.08081	0.02363
-0.05531	0.12566
0.19971	0.12566
0.04670	0.10015
0.09770	0.20219
0.22521	0.27871
0.27621	0.07465
0.17421	0.15117
0.19971	0.10015
0.09770	0.07465
-0.02981	0.25320
0.12320	0.15117
0.19971	0.07465
0.12320	0.15117
0.17421	0.15117
0.30171	0.12566
0.14870	0.10015
0.14870	0.15117
0.14870	0.04914
0.02119	0.04914
-0.10631	0.10015
-0.00431	0.20219
0.17421	0.15117
0.14870	0.27871
0.30171	0.32972
0.35272	0.20219
0.27621	0.20219
0.19971	0.15117
0.12320	0.04914
0.04670	-0.02739
-0.08081	0.04914
0.02119	0.20219
0.19971	0.17668
-0.05531	0.17668
0.12320	0.17668
0.22521	0.15117
0.17421	0.25320
0.32721	0.10015
0.22521	0.12566
0.02119	0.07465
0.04670	0.04914
-0.00431	0.10015
0.17421	0.04914
0.09770	0.20219
0.17421	0.25320
0.37822	0.15117
0.30171	0.20219
0.19971	0.22769
0.12320	0.07465
0.07220	-0.00188
-0.10631	0.04914
-0.08081	0.04914
0.14870	0.04914
0.09770	0.17668
0.14870	0.22769
0.32721	0.25320
0.37822	0.22769
0.27621	0.10015
0.12320	0.15117
0.07220	0.07465
-0.08081	0.04914
-0.10631	0.07465
0.12320	0.20219
0.22521	0.12566
0.22521	0.22769
0.35272	0.27871
0.30171	0.25320
0.22521	0.22769
0.09770	0.15117
-0.05531	0.04914
0.02119	0.02363
0.02119	0.02363
-0.00431	0.15117
0.14870	0.12566
0.19971	0.22769
0.19971	0.20219
0.30171	0.15117
0.19971	0.12566
0.09770	0.10015
0.09770	0.02363
-0.05531	0.20219
0.07220	0.04914
0.12320	0.27871
0.04670	0.35523
0.30171	0.25320
0.32721	0.15117
0.30171	0.04914
0.14870	-0.02739
0.02119	0.10015
0.04670	0.04914
-0.10631	0.12566
-0.00431	0.22769
0.14870	0.10015
0.14870	0.25320
0.32721	0.20219
0.27621	0.30422
0.30171	0.15117
0.22521	0.15117
0.12320	0.10015
0.07220	0.02363
-0.18282	0.02363
-0.02981	-0.05289
0.07220	0.17668
0.12320	0.27871
0.27621	0.22769
0.22521	0.35523
0.37822	0.27871
0.42922	0.20219
0.32721	0.02363
0.02119	-0.05289
-0.15732	-0.10391
-0.23382	-0.05289
-0.23382	0.20219
0.12320	0.20219
0.37822	0.30422
0.58223	0.45726
0.53123	0.25320
0.35272	0.12566
-0.00431	0.07465
-0.13181	-0.05289
-0.36133	0.12566
0.02119	-0.00188
0.04670	0.30422
0.35272	0.12566
0.32721	0.30422
0.25071	0.20219
0.35272	0.15117
0.48022	0.17668
0.17421	-0.02739
-0.02981	0.02363
-0.10631	0.04914
-0.18282	0.04914
-0.00431	0.25320
0.12320	0.20219
0.22521	0.20219
0.19971	0.30422
0.32721	0.15117
0.35272	0.27871
0.32721	0.12566
0.02119	0.10015
-0.08081	0.17668
0.14870	-0.05289
0.04670	0.07465
0.09770	0.15117
0.37822	0.20219
0.19971	0.27871
0.37822	0.20219
0.14870	0.27871
0.12320	0.12566
-0.02981	0.04914
-0.08081	0.02363
-0.10631	0.12566
0.04670	0.22769
0.27621	0.10015
0.27621	0.15117
0.32721	0.22769
0.32721	0.20219
0.12320	0.22769
0.22521	0.10015
0.09770	0.15117
0.14870	0.04914
-0.15732	-0.07840
0.04670	0.15117
0.09770	0.07465
0.12320	0.10015
0.30171	0.15117
0.22521	0.12566
0.07220	0.17668
0.12320	0.17668
0.17421	0.12566
0.04670	0.22769
0.12320	0.12566
0.27621	0.10015
0.04670	0.30422
0.12320	0.15117
0.27621	0.27871
0.30171	-0.07840
0.22521	0.22769
0.04670	0.04914
-0.08081	-0.00188
-0.10631	0.15117
0.12320	0.20219
0.19971	0.32972
0.22521	0.15117
0.22521	0.25320
0.32721	0.04914
-0.02981	0.12566
0.17421	-0.05289
0.12320	0.04914
0.04670	-0.10391
0.02119	0.04914
0.02119	0.02363
0.12320	0.25320
0.14870	0.35523
0.25071	0.20219
0.32721	0.20219
0.22521	0.20219
0.30171	0.10015
-0.00431	0.04914
0.12320	0.12566
-0.05531	0.02363
0.02119	-0.02739
-0.08081	0.17668
-0.15732	0.22769
0.63323	0.15117
0.40372	0.45726
0.73524	0.17668
0.48022	0.32972
0.30171	0.04914
-0.08081	0.04914
-0.13181	-0.15492
-0.00431	0.02363
-0.33583	-0.00188
-0.38683	0.12566
-0.97337	0.15117
0.25071	0.48277
1.52579	0.22769
0.55673	-0.00188
0.07220	-0.07840
-0.92237	-0.05289
0.02119	0.20219
0.12320	0.66132
0.70974	0.12566
0.93925	0.17668
0.53123	0.58480
-0.02981	0.27871
-0.87136	-0.61406
0.32721	0.45726
0.58223	0.02363
0.91375	0.02363
-0.18282	0.17668
-0.33583	-0.07840
-0.53984	-0.02739
0.30171	-0.02739
0.19971	0.32972
-0.10631	0.27871
0.42922	0.40625
0.48022	0.04914
0.09770	0.50828
-0.25932	-0.02739
-0.92237	0.15117
0.22521	0.07465
1.44929	0.12566
1.04126	-0.02739
-1.84042	-0.00188
-0.97337	0.45726
1.29628	-0.25695
1.50029	0.48277
0.78624	0.02363
0.30171	0.27871
0.14870	0.15117
0.02119	-0.00188
-0.28482	0.17668
-0.15732	0.38074
-0.20832	0.73785
0.04670	0.27871
0.53123	0.20219
0.83725	-0.28246
-1.02437	-0.89465
-0.71835	-0.25695
-0.64185	-0.20594
0.42922	0.94191
-0.10631	0.30422
0.48022	0.20219
1.37278	0.45726
1.32178	0.27871
0.73524	0.35523
1.34728	0.10015
-1.89143	-0.20594
-3.06450	0.02363
0.53123	0.25320
0.45472	0.83988
1.34728	0.02363
0.17421	-1.17523
1.39828	0.45726
-0.31033	0.68683
-0.33583	0.04914
0.81175	0.15117
1.62780	0.30422
-0.02981	-0.10391
0.19971	-0.02739
0.12320	-1.02219
-0.89686	0.40625
-1.89143	0.81437
0.65874	0.45726
0.70974	0.00000
-0.05531	-0.25695
-0.00431	-0.05289
-0.15732	0.12566
-0.74385	0.61031
0.73524	0.20219
0.42922	0.40625
-1.04987	-0.10391
0.40372	0.25320
1.78081	-0.28246
1.44929	-0.20594
2.44385	0.55929
-1.76392	0.10015
-1.68742	0.48277
0.42922	0.20219
-0.36133	0.20219
0.78624	-0.25695
0.88825	-0.30797
0.22521	-0.10391
0.99026	0.66132
1.78081	-0.20594
-1.84042	0.30422
-3.72755	0.10015
1.14327	0.63582
-0.20832	0.58480
-0.15732	-0.35899
0.78624	-0.69059
-0.10631	-0.18043
-0.10631	0.17668
1.21977	0.17668
1.93382	0.71234
1.70430	0.94191
0.76074	0.07465
-1.38139	0.30422
-3.82955	0.07465
-0.13181	0.04914
0.09770	-1.65988
3.82094	0.86539
1.44929	0.53379
1.09226	0.66132
0.42922	0.12566
-1.45790	0.30422
-0.51434	-0.05289
-0.46334	-0.15492
-0.71835	-0.25695
-0.15732	-0.28246
-0.25932	-0.07840
0.30171	0.25320
1.55129	-0.02739
-1.43240	0.68683
-1.91693	0.12566
-0.41233	0.02363
2.64786	0.38074
-0.10631	0.32972
0.96476	0.25320
0.48022	0.71234
1.09226	0.45726
1.44929	-0.43551
0.81175	0.35523
0.27621	-0.48652
0.86275	1.27351
0.93925	0.35523
-0.53984	-0.38449
-0.89686	-0.92016
-5.23214	-0.61406
-4.69661	-0.02739
1.75531	0.53379
3.46392	0.73785
2.16333	0.43176
0.96476	0.15117
0.42922	0.30422
0.93925	0.20219
-1.22839	0.15117
0.78624	0.12566
-0.20832	-0.02739
-1.71292	-0.89465
1.29628	0.02363
1.75531	0.15117
-2.24845	0.15117
-2.57997	0.15117
1.60230	0.61031
1.27078	0.73785
2.34184	-0.23145
0.48022	0.61031
-1.33039	0.53379
-2.91149	-0.23145
1.06676	0.07465
2.11233	-0.84363
1.57679	0.15117
0.32721	0.30422
-0.79486	0.32972
1.52579	0.15117
0.30171	0.55929
-4.08457	0.38074
-0.43783	0.40625
0.42922	-0.30797
0.37822	0.20219
3.00489	0.12566
-0.10631	0.17668
-1.15188	-0.35899
0.81175	-0.07840
0.60773	0.02363
-0.43783	0.30422
1.21977	0.55929
1.34728	0.53379
-0.51434	0.30422
-2.52897	-0.25695
-2.60547	-0.53754
0.99026	-0.33348
2.01032	0.48277
0.40372	0.17668
0.81175	0.76336
-1.38139	-0.18043
-1.25389	0.55929
1.16877	-0.07840
1.24527	0.35523
1.95932	0.07465
1.98482	0.12566
-3.06450	-0.12942
0.60773	0.61031
0.45472	1.17148
-1.78942	-0.69059
1.16877	-0.41000
1.24527	-0.38449
1.44929	0.02363
1.04126	0.35523
-0.74385	0.22769
-0.92237	0.40625
-1.50890	0.20219
-1.35589	-0.25695
-0.84586	-0.05289
0.65874	0.25320
1.44929	0.55929
-0.69285	-0.02739
0.70974	0.89089
-1.40690	-0.20594
-0.66735	-0.86914
2.46935	0.30422
3.18340	0.81437
2.69887	0.17668
0.53123	-0.15492
0.40372	0.27871
-0.38683	0.15117
-1.04987	0.17668
-0.33583	0.35523
-0.56534	0.27871
-0.38683	-0.20594
-0.61635	-1.12422
-1.58541	0.91640
1.34728	0.10015
1.83181	0.15117
-5.84418	0.71234
-1.63641	0.17668
2.64786	-0.28246
2.03582	-0.07840
1.95932	0.40625
1.52579	-0.10391
0.60773	0.07465
2.80087	0.40625
-0.53984	0.43176
-3.11551	0.38074
0.83725	0.04914
1.67880	0.17668
-0.43783	0.22769
-0.94787	0.10015
0.70974	-0.18043
0.48022	0.76336
-0.99887	0.27871
-3.88056	-1.53234
0.22521	0.10015
0.76074	0.61031
1.98482	0.35523
2.36734	0.30422
0.40372	0.30422
-0.36133	0.68683
0.63323	-0.35899
-0.10631	0.66132
0.09770	-0.43551
1.09226	-0.20594
-0.74385	-0.07840
-4.11007	0.12566
0.48022	-0.00188
1.60230	0.45726
1.95932	0.78886
1.04126	-0.02739
0.42922	0.32972
0.86275	0.15117
-1.02437	0.12566
-2.55447	0.53379
0.27621	0.32972
1.72980	0.17668
0.93925	0.12566
-0.25932	-0.00188
-0.15732	0.02363
1.01576	-0.02739
0.99026	-0.33348
-1.99343	-0.23145
-1.61091	0.27871
0.48022	0.20219
0.48022	0.17668
0.25071	-0.28246
0.58223	0.83988
2.36734	0.30422
1.85731	0.40625
-4.97713	0.38074
-2.50347	0.02363
2.08683	-0.33348
2.31634	-0.56305
1.24527	0.02363
-0.28482	0.27871
0.07220	0.53379
1.75531	0.22769
-0.94787	-0.20594
0.50573	0.15117
-0.89686	-0.15492
0.83725	-0.23145
-0.18282	0.38074
-0.69285	0.53379
-0.41233	0.68683
0.35272	0.20219
0.73524	0.96742
-1.04987	-0.28246
0.60773	-0.15492
-0.43783	-0.35899
-0.31033	0.12566
0.19971	-0.56305
0.88825	-0.05289
2.59686	0.30422
1.37278	-0.35899
1.93382	0.61031
-1.35589	0.27871
-10.15396	0.20219
1.95932	0.43176
2.34184	-0.15492
1.83181	0.15117
1.14327	0.32972
0.83725	0.32972
-1.10088	0.10015
0.22521	0.38074
0.99026	-0.12942
0.12320	0.15117
-0.69285	-0.02739
-0.00431	0.04914
1.04126	0.35523
-1.07538	-0.89465
-1.30489	0.73785
0.83725	-0.10391
0.50573	0.32972
-0.25932	0.17668
0.60773	0.10015
1.04126	0.30422
-0.61635	0.81437
-0.18282	0.04914
-0.82036	0.83988
0.27621	0.15117
0.53123	-0.28246
0.83725	0.25320
0.88825	-0.20594
-0.48884	-0.05289
-0.66735	0.32972
1.09226	0.35523
0.35272	0.66132
0.09770	0.20219
2.31634	0.12566
0.68424	0.15117
-1.99343	-0.30797
0.09770	-0.10391
-1.15188	-0.07840
-1.91693	-0.00188
0.63323	0.07465
1.04126	0.43176
0.96476	0.35523
1.37278	0.53379
0.73524	0.20219
2.41835	0.10015
-1.15188	-0.15492
-3.39602	-0.00188
-1.45790	-0.10391
0.86275	0.68683
0.88825	0.43176
1.24527	0.17668
1.85731	0.35523
1.32178	-0.10391
-1.33039	-0.30797
-2.83499	0.25320
-1.63641	0.07465
0.81175	0.53379
0.73524	-0.33348
1.65330	0.04914
2.21434	0.40625
0.83725	0.02363
0.09770	0.04914
0.53123	0.20219
0.50573	0.25320
-1.68742	0.12566
-1.48340	0.04914
-1.15188	-0.05289
-0.15732	0.10015
0.07220	0.15117
0.30171	-0.20594
1.27078	0.12566
1.93382	0.55929
-0.05531	0.22769
-2.93700	-0.33348
-0.56534	0.32972
1.29628	0.20219
1.06676	-0.05289
0.68424	0.40625
-0.51434	-0.05289
-1.10088	0.10015
0.42922	0.76336
1.80631	0.17668
1.83181	0.10015
1.04126	0.45726
-0.28482	-0.66508
-0.41233	-0.00188
-1.30489	0.20219
-0.02981	-0.33348
-0.48884	0.43176
-0.59084	0.25320
0.81175	0.07465
0.86275	0.27871
-1.61091	0.20219
0.22521	0.20219
0.30171	0.02363
0.63323	0.15117
0.88825	0.35523
-0.05531	0.30422
-0.48884	-0.10391
1.06676	-0.02739
-0.10631	0.48277
1.55129	0.30422
0.19971	0.55929
-0.74385	-0.00188
-0.23382	-0.58856
0.22521	0.32972
0.40372	0.07465
0.40372	0.43176
-0.79486	0.12566
0.99026	0.07465
0.76074	0.66132
-0.61635	0.20219
-0.20832	-0.05289
0.02119	-0.15492
-1.61091	-0.02739
-0.10631	-0.30797
0.19971	0.30422
1.01576	0.50828
1.32178	0.32972
1.14327	0.48277
-1.30489	0.10015
0.30171	-0.10391
0.50573	0.10015
0.58223	0.22769
-0.33583	0.15117
-0.28482	-0.51203
0.35272	0.43176
0.14870	-0.51203
-0.02981	0.66132
0.58223	0.38074
0.81175	0.32972
0.70974	0.27871
-1.81492	0.10015
0.25071	0.20219
0.50573	0.30422
0.07220	-0.15492
-0.97337	0.04914
-0.02981	-0.10391
1.29628	0.32972
0.78624	0.25320
1.44929	0.45726
1.65330	0.25320
0.02119	-0.15492
-2.12094	-0.02739
0.17421	0.02363
-0.79486	0.10015
0.68424	0.30422
1.47479	0.45726
1.75531	0.40625
-0.02981	-0.00188
-4.03357	0.12566
-1.86593	0.02363
0.96476	-0.18043
2.03582	0.61031
1.29628	0.35523
1.19427	0.22769
0.76074	-0.10391
0.35272	-0.15492
0.99026	0.15117
-0.84586	0.22769
-0.08081	-0.00188
0.35272	0.27871
-0.51434	-0.33348
-1.45790	0.50828
-0.79486	0.30422
0.88825	0.25320
1.70430	0.04914
-0.92237	-0.25695
-0.84586	-0.00188
1.62780	0.63582
-1.61091	0.27871
0.50573	0.30422
1.83181	0.27871
-0.43783	-0.07840
-0.82036	-0.20594
-0.48884	-0.48652
0.35272	0.10015
1.75531	0.58480
1.55129	0.73785
-0.99887	0.25320
-0.46334	0.78886
0.93925	-0.10391
1.04126	0.43176
0.88825	-0.20594
-1.15188	-0.38449
-1.81492	-0.33348
-0.20832	-0.12942
0.19971	0.04914
0.45472	0.02363
0.63323	-0.00188
1.21977	0.76336
-0.25932	0.20219
0.60773	0.66132
0.63323	0.53379
-1.35589	-0.30797
-0.84586	-0.46102
0.37822	-0.02739
0.19971	-0.15492
0.48022	0.30422
2.13783	0.38074
-0.66735	0.55929
-1.71292	0.43176
0.07220	-0.10391
2.36734	0.40625
2.13783	0.45726
1.65330	-0.41000
-3.29402	-0.25695
-3.06450	-0.05289
-0.33583	0.20219
0.78624	0.12566
2.41835	0.38074
0.60773	0.40625
-0.56534	0.02363
1.04126	0.15117
0.27621	-0.12942
0.68424	0.35523
0.63323	0.38074
-0.41233	0.22769
-0.56534	0.48277
-0.48884	-0.00188
-0.08081	0.07465
0.88825	0.07465
0.40372	-0.07840
0.32721	0.20219
-0.18282	-0.20594
-1.40690	0.07465
0.19971	0.35523
1.24527	0.02363
0.65874	-0.12942
-1.50890	0.63582
-2.09544	-0.76711
1.70430	0.68683
1.37278	-0.18043
0.65874	0.35523
1.11776	0.12566
1.67880	0.17668
-0.05531	0.38074
-1.07538	0.22769
-0.74385	-0.15492
-0.18282	0.32972
-1.68742	-0.07840
-0.56534	0.10015
0.14870	0.17668
1.42379	0.17668
1.72980	-0.15492
0.50573	0.32972
-0.13181	-0.10391
-0.02981	0.04914
-0.13181	0.27871
-0.41233	0.32972
-0.51434	0.07465
0.22521	0.55929
-0.10631	0.45726
3.41291	0.38074
-0.74385	-0.07840
-2.35046	-0.56305
0.50573	-0.51203
0.88825	0.04914
0.53123	0.66132
-0.33583	0.66132
0.14870	0.30422
0.12320	-0.23145
1.24527	0.43176
0.19971	0.22769
-1.99343	-0.12942
-0.08081	0.20219
-0.53984	0.10015
0.76074	-0.48652
0.76074	0.55929
0.50573	0.07465
0.68424	0.17668
0.32721	0.20219
0.60773	0.04914
-0.89686	0.15117
0.30171	-0.38449
0.40372	0.12566
-0.48884	0.32972
0.12320	0.22769
0.04670	0.15117
-0.64185	0.27871
0.37822	0.17668
2.18883	0.38074
0.17421	-0.23145
-3.54903	0.02363
-0.38683	0.07465
0.93925	-0.00188
0.63323	0.27871
1.65330	0.30422
2.13783	0.38074
-2.29945	-0.02739
-0.28482	0.20219
0.68424	0.07465
0.78624	0.12566
1.01576	0.35523
0.65874	0.02363
-0.76936	-0.30797
-0.48884	0.15117
-0.05531	0.10015
0.02119	-0.05289
-0.69285	-0.66508
-0.05531	0.73785
0.22521	0.32972
0.25071	-0.10391
0.58223	0.27871
-1.25389	0.12566
-0.71835	0.43176
0.53123	0.15117
1.75531	0.25320
0.17421	0.30422
1.01576	0.04914
1.42379	-0.10391
-0.15732	0.04914
0.32721	0.25320
0.22521	0.20219
-0.05531	0.17668
-2.09544	0.50828
-1.04987	0.35523
0.40372	-0.15492
0.93925	-0.33348
1.37278	0.02363
0.68424	-0.05289
-0.38683	0.22769
-0.18282	0.32972
-0.05531	0.07465
0.50573	0.12566
-0.31033	0.22769
-1.84042	0.30422
1.50029	-0.18043
0.40372	0.12566
0.17421	0.30422
0.02119	-0.00188
0.70974	0.22769
0.04670	0.17668
-0.20832	0.12566
0.22521	0.15117
-0.18282	0.20219
0.91375	0.63582
0.65874	-0.46102
0.53123	0.50828
-0.61635	0.10015
-0.36133	-0.56305
-0.46334	-0.15492
0.04670	0.63582
0.53123	0.53379
0.55673	0.17668
0.37822	0.17668
1.29628	0.07465
-0.71835	-0.05289
-0.74385	-0.46102
0.88825	0.07465
-0.08081	0.38074
-1.66191	0.71234
0.07220	0.04914
1.65330	-0.28246
-0.08081	0.25320
0.27621	0.07465
0.42922	0.20219
0.65874	0.27871
-0.13181	0.12566
-0.23382	-0.02739
0.81175	0.22769
-1.22839	0.53379
0.99026	-0.07840
0.32721	-0.07840
0.32721	0.04914
0.04670	0.15117
-0.25932	0.22769
0.12320	-0.30797
0.60773	0.53379
0.68424	0.27871
-0.46334	0.40625
-0.18282	0.20219
-0.94787	-0.23145
0.53123	0.12566
1.55129	-0.00188
0.02119	-0.05289
-0.76936	0.07465
0.50573	0.35523
0.99026	0.22769
-0.94787	-0.05289
-1.35589	0.25320
0.88825	-0.18043
1.16877	0.22769
-1.04987	0.48277
1.29628	0.94191
1.34728	-0.05289
-0.99887	-0.00188
0.60773	-0.18043
-0.79486	0.25320
0.53123	0.02363
1.16877	0.38074
-0.28482	0.25320
0.35272	0.15117
0.02119	0.04914
-0.36133	-0.18043
-0.20832	0.50828
-0.41233	0.40625
0.99026	-0.48652
1.60230	-0.18043
-2.83499	-0.20594
-2.93700	0.48277
2.21434	0.02363
0.35272	0.58480
1.34728	0.58480
1.70430	0.15117
1.42379	0.20219
-1.63641	-0.25695
0.50573	0.04914
1.29628	-0.02739
-0.08081	0.32972
-3.72755	-0.28246
-0.84586	0.27871
1.21977	-0.07840
1.52579	0.91640
0.58223	0.35523
1.39828	0.25320
-1.50890	0.07465
-1.78942	-0.46102
0.81175	-0.30797
0.91375	0.45726
0.78624	-0.15492
1.21977	0.12566
1.47479	0.66132
-1.30489	0.78886
-0.97337	0.12566
0.45472	-0.38449
0.04670	-0.30797
0.04670	0.22769
1.14327	0.43176
-0.15732	0.17668
-0.89686	0.15117
0.09770	0.17668
-1.27939	0.22769
0.93925	0.20219
1.55129	0.04914
1.44929	-0.02739
1.01576	0.15117
-2.60547	0.35523
0.25071	-0.00188
1.24527	0.25320
1.50029	0.66132
-1.10088	0.12566
-1.96793	0.04914
-0.18282	-0.15492
0.58223	0.12566
0.48022	-0.05289
1.14327	0.10015
1.57679	-0.02739
1.06676	0.73785
0.32721	0.17668
-0.82036	-0.35899
-0.76936	0.15117
-1.10088	0.17668
0.25071	0.15117
0.70974	0.32972
0.30171	0.10015
-0.84586	0.10015
-0.33583	0.45726
1.14327	0.04914
-0.18282	0.63582
-1.10088	-0.61406
0.93925	0.40625
0.32721	0.02363
0.73524	0.43176
0.17421	-0.30797
0.81175	0.50828
-0.36133	-0.07840
0.42922	0.25320
0.19971	0.27871
-0.23382	0.45726
1.24527	-0.38449
0.42922	0.71234
-1.53441	-0.07840
0.83725	0.02363
0.37822	0.22769
-0.05531	0.02363
1.85731	-0.05289
-0.02981	-0.20594
-2.04444	0.07465
-2.73298	0.32972
-0.76936	0.04914
0.78624	0.38074
1.42379	0.25320
2.16333	-0.05289
2.23984	-0.02739
0.42922	-0.05289
-0.08081	0.38074
0.12320	0.04914
-0.15732	0.15117
-1.22839	0.53379
-0.08081	0.48277
0.07220	-0.02739
-0.02981	0.40625
0.73524	0.25320
0.53123	0.17668
0.02119	-0.28246
-2.52897	0.07465
0.32721	0.25320
0.55673	-0.35899
1.34728	-0.10391
0.12320	-0.12942
0.12320	0.48277
-0.66735	0.55929
1.06676	0.50828
1.57679	0.20219
0.02119	0.35523
0.86275	0.15117
-0.18282	-0.05289
-2.73298	-0.28246
-0.69285	0.20219
0.63323	0.22769
0.83725	-0.25695
0.12320	0.35523
0.09770	0.35523
2.49485	0.32972
0.48022	0.30422
-2.47797	-0.05289
-1.40690	0.15117
0.83725	-0.15492
1.21977	0.15117
1.24527	0.22769
-1.15188	-0.00188
-0.13181	-0.07840
0.91375	0.15117
1.60230	0.17668
0.12320	0.45726
-1.22839	-0.05289
-1.96793	0.02363
0.12320	0.89089
0.91375	0.07465
0.86275	0.32972
0.93925	-0.43551
0.12320	0.73785
-0.10631	-0.25695
-0.23382	0.40625
-0.48884	-0.05289
0.55673	0.27871
-1.30489	0.12566
1.37278	0.30422
1.42379	0.20219
0.19971	0.07465
0.12320	0.02363
0.86275	-0.02739
-0.31033	0.50828
-1.30489	-0.07840
0.48022	-0.33348
0.22521	0.32972
-0.74385	0.40625
-0.00431	0.43176
0.91375	-0.10391
1.09226	0.35523
1.19427	-0.00188
0.02119	0.32972
-0.71835	0.12566
-1.71292	-0.25695
0.45472	0.38074
-1.22839	0.02363
-0.20832	0.30422
1.78081	0.10015
1.50029	0.38074
0.12320	-0.05289
0.93925	0.15117
-0.61635	0.10015
-0.38683	0.25320
0.53123	0.15117
0.40372	0.10015
-0.59084	0.38074
-0.56534	0.04914
-0.69285	0.07465
1.11776	-0.05289
1.19427	0.10015
0.99026	0.17668
-0.61635	0.35523
-0.89686	0.45726
0.76074	0.02363
0.30171	0.02363
-3.54903	-0.12942
0.42922	-0.38449
0.22521	0.35523
1.34728	0.43176
0.86275	0.53379
1.27078	0.58480
0.58223	-0.30797
-0.08081	-0.07840
0.65874	0.02363
0.48022	-0.15492
-0.31033	-0.41000
0.40372	1.04394
-0.76936	0.43176
-0.25932	0.12566
-0.61635	0.15117
-0.18282	0.04914
-0.10631	0.04914
0.83725	0.10015
0.60773	0.15117
0.37822	0.10015
-0.59084	0.04914
-1.10088	-0.02739
0.63323	0.02363
0.91375	0.32972
1.67880	-0.00188
0.78624	0.32972
0.73524	0.35523
-0.84586	0.30422
0.27621	0.17668
0.02119	0.02363
0.45472	-0.02739
-0.31033	0.17668
-1.10088	0.25320
-0.59084	0.35523
-0.61635	0.10015
0.76074	0.45726
1.16877	0.38074
0.27621	-0.15492
-0.18282	0.27871
0.02119	-0.15492
0.86275	-0.07840
0.81175	-0.10391
0.96476	0.12566
0.37822	0.20219
-2.32496	0.35523
-0.66735	0.48277
1.44929	0.02363
1.55129	0.07465
-1.73842	0.15117
-0.46334	-0.05289
0.45472	0.32972
1.72980	0.17668
0.91375	0.10015
-0.18282	0.38074
-0.13181	0.40625
-0.18282	0.17668
-0.25932	-0.15492
1.01576	-0.05289
-0.00431	-0.35899
-2.45246	-0.07840
-0.61635	-0.02739
1.06676	0.45726
0.88825	-0.00188
-0.20832	0.38074
0.19971	0.17668
0.68424	0.30422
0.86275	0.22769
0.81175	-0.00188
0.22521	-0.00188
0.63323	0.35523
-0.87136	-0.30797
-0.02981	-0.00188
2.52035	0.40625
-0.69285	0.12566
-3.75305	0.17668
0.60773	0.12566
0.37822	0.10015
0.63323	-0.00188
0.81175	0.32972
0.32721	0.15117
0.68424	-0.15492
0.53123	0.04914
-1.99343	0.17668
-0.28482	0.12566
0.53123	0.20219
0.50573	0.15117
1.29628	0.07465
1.44929	-0.43551
-0.28482	0.50828
-2.47797	0.17668
0.17421	0.30422
1.04126	0.53379
1.32178	0.30422
-0.92237	-0.00188
0.19971	0.35523
0.96476	0.02363
1.06676	-0.07840
0.99026	0.02363
-0.64185	0.15117
-1.30489	0.04914
-1.07538	0.10015
0.27621	0.15117
0.68424	0.04914
1.01576	0.32972
-0.99887	0.10015
2.41835	0.43176
1.67880	0.48277
-4.16107	0.38074
-1.10088	-0.12942
1.29628	-1.48133
0.99026	0.78886
0.91375	0.20219
0.07220	0.43176
0.17421	0.40625
0.93925	0.17668
-0.46334	0.04914
-0.48884	-0.00188
0.17421	-0.02739
0.42922	0.10015
0.27621	0.43176
-1.10088	0.10015
1.75531	0.15117
-0.20832	0.66132
-2.73298	-0.18043
-0.23382	0.04914
1.62780	0.20219
1.39828	-0.07840
-0.28482	0.15117
0.53123	0.20219
1.32178	0.32972
-0.53984	-0.46102
-0.43783	0.20219
-0.66735	0.40625
0.76074	0.32972
-0.02981	0.32972
0.40372	0.12566
1.06676	0.32972
0.25071	0.04914
0.68424	0.15117
-1.58541	-0.00188
-0.87136	0.22769
0.32721	0.25320
-0.48884	-0.20594
0.25071	-0.05289
1.70430	0.20219
1.39828	0.25320
1.24527	0.48277
-0.31033	0.15117
-1.66191	-0.02739
0.32721	-0.02739
0.50573	0.53379
0.35272	-0.89465
0.22521	0.32972
-0.79486	0.32972
-0.94787	0.61031
0.60773	0.40625
1.78081	0.45726
-0.74385	-0.48652
0.17421	0.53379
-0.15732	0.50828
1.19427	-0.30797
0.14870	0.17668
0.63323	-0.05289
-0.00431	0.07465
0.48022	-0.15492
0.07220	0.40625
-1.96793	0.27871
0.32721	0.04914
-0.64185	0.04914
0.42922	0.27871
1.57679	-0.18043
0.68424	0.27871
0.02119	0.20219
0.70974	0.15117
1.47479	0.15117
-0.36133	0.48277
-4.56910	-0.12942
-0.61635	-0.07840
1.42379	0.25320
1.04126	-0.00188
1.19427	-0.05289
1.27078	0.48277
1.11776	0.45726
-0.92237	0.10015
0.07220	-0.15492
-0.05531	0.66132
1.19427	0.10015
-0.31033	0.10015
0.17421	0.35523
-0.08081	-0.05289
-0.08081	0.12566
0.27621	0.30422
1.42379	0.50828
-2.52897	-0.33348
-1.40690	-0.43551
1.32178	0.76336
1.24527	0.12566
0.78624	0.15117
0.40372	0.32972
0.17421	0.10015
-0.23382	-0.38449
0.73524	0.12566
1.24527	0.38074
-0.92237	-0.02739
-1.55991	0.22769
0.68424	0.53379
-0.48884	0.04914
0.37822	-0.35899
1.95932	0.17668
-0.89686	0.38074
-3.37052	-0.15492
0.70974	0.35523
1.88281	0.43176
1.93382	-0.00188
1.37278	0.15117
0.02119	0.04914
0.22521	0.22769
-0.28482	0.30422
-0.61635	-0.12942
-0.89686	0.32972
-0.64185	-0.56305
0.37822	0.38074
0.40372	0.25320
0.63323	0.25320
0.09770	0.25320
0.07220	0.61031
0.60773	0.20219
-0.82036	-0.20594
0.65874	-0.02739
-1.63641	-0.20594
0.96476	0.27871
1.78081	-0.05289
-0.56534	0.30422
0.81175	0.25320
-0.51434	0.32972
0.09770	0.20219
-0.05531	0.07465
1.70430	0.35523
1.72980	0.38074
-0.31033	0.30422
-0.15732	-0.12942
0.55673	-0.15492
-2.01894	-0.20594
-2.70748	0.35523
0.07220	0.20219
1.88281	0.35523
1.67880	0.40625
-0.18282	0.10015
0.63323	0.10015
0.78624	-0.12942
-1.73842	0.10015
-2.09544	0.12566
0.22521	-0.00188
0.68424	0.40625
0.78624	0.22769
2.23984	0.61031
0.81175	-0.51203
0.37822	0.27871
-1.68742	0.10015
-2.93700	0.12566
-0.05531	0.30422
1.55129	0.12566
1.52579	0.22769
2.03582	0.55929
1.52579	0.50828
-1.78942	-0.23145
0.12320	-0.23145
0.19971	-0.10391
0.30171	0.10015
-1.45790	0.45726
-0.31033	0.12566
1.42379	-0.02739
0.42922	0.22769
-2.09544	-0.15492
-0.64185	-0.05289
1.47479	0.71234
1.04126	0.38074
0.86275	0.25320
0.91375	-0.20594
1.21977	0.02363
-1.61091	0.43176
-1.40690	-0.84363
-0.33583	0.10015
0.70974	0.53379
-0.59084	0.50828
0.45472	0.10015
1.06676	0.53379
0.86275	0.30422
1.27078	-0.48652
1.24527	-0.12942
-1.07538	0.15117
-0.69285	0.04914
0.53123	-0.02739
-0.05531	0.25320
-2.78398	0.38074
-0.69285	0.12566
1.11776	0.22769
-0.79486	0.07465
1.95932	0.10015
1.93382	0.15117
1.29628	0.04914
-2.52897	-0.15492
0.14870	-0.15492
0.37822	0.48277
1.52579	0.55929
0.50573	-0.25695
-0.36133	0.10015
-1.58541	-0.05289
-0.41233	0.15117
0.93925	0.66132
0.86275	-0.07840
0.02119	-0.10391
0.22521	-0.20594
0.96476	0.30422
-0.59084	0.50828
-1.10088	0.20219
-0.15732	0.55929
0.76074	-0.05289
1.50029	0.04914
0.73524	0.40625
-1.10088	-0.05289
0.55673	-0.05289
0.22521	0.30422
0.42922	0.22769
-1.07538	0.25320
0.63323	0.07465
0.68424	-0.07840
0.12320	-0.18043
0.50573	-0.10391
0.48022	0.86539
0.12320	-0.23145
0.22521	0.12566
0.78624	0.55929
-0.82036	0.17668
-1.66191	0.12566
-1.25389	0.25320
1.44929	0.12566
0.32721	-0.38449
1.39828	-0.07840
0.22521	-0.41000
-0.64185	0.53379
-1.33039	0.30422
1.60230	0.17668
0.53123	0.48277
-0.69285	-0.25695
-0.23382	-0.38449
0.93925	0.40625
1.27078	0.53379
0.91375	0.66132
1.70430	0.22769
-1.20288	0.35523
-0.20832	-0.25695
-0.08081	0.04914
-1.25389	0.27871
-0.41233	-0.00188
0.81175	0.43176
0.65874	0.30422
0.42922	0.25320
0.32721	0.10015
-0.00431	0.04914
-0.02981	0.07465
0.48022	0.10015
0.17421	-0.23145
-0.99887	-0.56305
0.07220	0.40625
0.76074	0.53379
0.48022	0.32972
0.12320	0.25320
0.30171	0.27871
0.22521	-0.02739
-0.18282	0.15117
-0.31033	0.22769
-0.46334	0.22769
0.91375	0.45726
1.01576	0.25320
-1.22839	0.17668
-0.74385	-0.33348
0.32721	0.07465
0.63323	0.15117
2.16333	0.53379
1.37278	0.40625
-1.71292	0.17668
-0.66735	-0.02739
0.45472	-0.10391
0.83725	0.02363
1.16877	-0.10391
0.07220	0.66132
-1.25389	0.71234
-1.25389	0.53379
-1.10088	-0.63957
0.53123	-0.15492
1.88281	0.04914
-0.10631	0.17668
-1.63641	0.07465
0.32721	0.15117
0.83725	0.12566
1.32178	0.32972
1.01576	0.32972
-0.18282	-0.20594
-0.71835	0.38074
0.83725	0.50828
0.50573	-0.33348
1.62780	0.30422
-2.29945	-0.07840
-2.06994	0.12566
1.06676	0.43176
1.21977	0.71234
0.73524	0.02363
0.09770	-0.10391
-0.18282	0.07465
1.19427	-0.28246
-0.00431	-0.05289
-1.15188	0.38074
-0.33583	0.04914
1.39828	0.40625
-0.02981	0.43176
0.40372	-0.25695
0.40372	-0.05289
-0.33583	0.12566
-0.51434	-0.05289
0.45472	0.66132
0.07220	0.15117
-1.35589	0.02363
0.99026	0.35523
0.76074	0.15117
0.83725	-0.18043
0.25071	0.50828
-1.22839	0.43176
1.09226	0.45726
1.52579	0.04914
0.48022	-0.10391
-0.13181	-0.10391
-0.51434	0.10015
0.22521	0.27871
-0.25932	0.40625
-0.48884	0.02363
-1.07538	0.04914
-0.02981	0.25320
1.42379	-0.07840
-0.33583	0.38074
-0.59084	0.20219
0.42922	0.02363
2.31634	0.25320
0.93925	-0.15492
-0.56534	0.04914
-3.70204	0.25320
0.37822	0.32972
1.47479	0.27871
1.80631	0.04914
0.83725	0.15117
-0.69285	-0.02739
0.40372	-0.07840
-0.59084	0.32972
-0.82036	-0.28246
0.17421	0.04914
1.09226	-0.25695
0.91375	0.71234
0.09770	0.40625
0.68424	0.22769
0.04670	0.12566
-1.86593	0.02363
-0.18282	0.58480
1.06676	-0.10391
-0.08081	0.04914
-0.25932	0.30422
0.99026	0.02363
0.55673	-0.05289
1.04126	0.32972
0.53123	0.12566
-0.43783	0.04914
-0.10631	0.15117
0.32721	-0.05289
-1.45790	0.07465
-1.27939	0.10015
1.32178	0.38074
0.86275	0.20219
-0.00431	0.58480
0.73524	0.12566
0.88825	0.04914
1.27078	0.20219
-2.24845	0.30422
-3.11551	0.10015
1.62780	-0.15492
1.75531	-0.15492
2.13783	-0.07840
0.73524	0.32972
0.02119	0.53379
0.09770	0.38074
-0.46334	0.25320
0.09770	-0.00188
0.02119	0.07465
0.02119	-0.00188
0.45472	-0.02739
0.37822	0.50828
-0.79486	0.76336
-1.99343	-0.56305
0.78624	-0.00188
0.68424	0.30422
0.70974	-0.02739
1.11776	0.04914
-0.94787	0.17668
-0.89686	-0.05289
0.91375	0.45726
1.24527	0.30422
1.09226	0.17668
0.70974	0.12566
-0.00431	0.17668
-0.74385	0.04914
0.65874	0.25320
0.40372	-0.00188
-2.96250	0.04914
-0.13181	0.22769
1.44929	0.17668
-2.22295	0.15117
0.27621	-0.10391
1.16877	0.07465
1.50029	0.53379
1.57679	-0.25695
0.63323	0.71234
-1.53441	0.25320
0.81175	-0.35899
-0.05531	0.07465
-1.81492	-0.25695
-0.69285	0.07465
0.60773	0.17668
1.83181	0.43176
1.42379	0.20219
0.09770	0.48277
1.11776	0.04914
-0.05531	0.07465
-2.93700	0.07465
0.58223	0.15117
-0.38683	-0.05289
0.02119	0.04914
0.40372	0.12566
0.86275	0.35523
0.14870	0.15117
1.14327	0.45726
0.48022	-0.38449
-0.53984	0.02363
-1.02437	0.40625
-0.74385	0.32972
0.42922	0.30422
0.30171	0.15117
0.78624	0.04914
0.48022	-0.18043
1.78081	0.35523
0.68424	0.25320
-1.71292	0.17668
-0.84586	0.02363
0.42922	-0.18043
1.14327	0.17668
-0.56534	0.35523
-1.53441	0.22769
0.07220	0.25320
0.22521	0.45726
0.68424	0.10015
-0.13181	-0.25695
0.17421	0.27871
1.21977	-0.05289
0.81175	0.17668
0.53123	0.22769
0.40372	0.35523
-0.20832	0.22769
0.35272	0.48277
0.30171	-0.02739
0.42922	0.35523
-1.71292	-0.25695
0.02119	-0.35899
0.55673	-0.02739
0.17421	0.25320
-1.38139	-0.18043
-1.40690	0.73785
1.19427	0.17668
1.29628	-0.48652
-0.23382	0.32972
0.93925	0.35523
1.42379	0.04914
0.96476	0.45726
-0.76936	-0.20594
-0.69285	0.48277
-0.41233	0.02363
0.40372	-0.00188
1.01576	0.22769
0.81175	0.27871
0.76074	0.04914
0.91375	-0.07840
-0.28482	0.10015
-1.94243	0.17668
-1.33039	-0.33348
-0.71835	0.22769
-0.99887	0.22769
0.48022	0.07465
1.29628	0.35523
1.37278	0.35523
1.39828	0.48277
0.53123	0.27871
-0.08081	0.27871
-0.05531	-0.35899
-0.59084	0.02363
-0.31033	0.25320
0.53123	0.38074
0.53123	0.15117
0.25071	-0.25695
-0.02981	-0.05289
0.07220	0.35523
-0.08081	0.48277
0.32721	-0.07840
0.35272	0.22769
-0.18282	-0.00188
-0.48884	0.25320
-0.87136	0.15117
-0.33583	0.38074
1.55129	0.02363
0.37822	0.15117
-1.12638	-0.12942
1.42379	-0.02739
1.80631	0.07465
0.42922	0.32972
-0.31033	-0.02739
-1.78942	0.30422
0.58223	0.20219
-0.59084	0.10015
0.09770	0.15117
0.65874	0.15117
0.91375	0.50828
1.24527	0.07465
1.37278	0.43176
-0.74385	0.32972
-0.15732	-0.00188
0.14870	-0.23145
-2.75848	-0.20594
-1.73842	0.32972
1.78081	0.10015
1.19427	0.27871
0.73524	0.22769
0.73524	0.15117
0.68424	0.02363
0.17421	-0.05289
-0.69285	0.17668
0.02119	0.40625
0.14870	0.15117
-0.31033	0.17668
-0.18282	-0.00188
-0.46334	0.20219
0.27621	-0.00188
0.86275	0.17668
0.96476	0.32972
-0.76936	-0.12942
-2.04444	0.38074
0.93925	0.04914
0.19971	-0.00188
1.21977	0.04914
1.55129	0.27871
0.83725	0.22769
-0.38683	0.32972
0.93925	0.10015
-0.48884	0.02363
-2.24845	0.35523
0.12320	0.15117
0.09770	0.17668
0.37822	-0.00188
0.83725	0.12566
0.27621	0.02363
-0.53984	0.15117
0.19971	0.10015
1.44929	-0.18043
0.76074	0.35523
-1.25389	0.43176
-1.40690	-0.05289
0.40372	0.17668
0.99026	0.17668
0.81175	0.20219
0.68424	0.55929
0.42922	0.17668
0.63323	0.17668
-0.00431	0.25320
-0.99887	0.02363
-0.13181	0.10015
1.04126	0.17668
0.96476	0.20219
-2.86049	0.10015
-2.83499	-0.48652
1.32178	0.07465
2.72437	0.53379
1.67880	0.50828
-3.21751	0.07465
1.27078	0.25320
0.91375	0.02363
1.34728	0.12566
1.42379	0.12566
-1.12638	-0.02739
-0.13181	0.04914
0.96476	0.07465
0.14870	0.53379
-1.61091	0.12566
-0.74385	-0.20594
0.58223	0.17668
0.48022	0.35523
0.53123	0.04914
0.27621	0.02363
-0.92237	0.04914
-0.36133	0.38074
0.55673	0.30422
-0.69285	0.32972
0.73524	0.30422
1.16877	-0.25695
0.58223	0.20219
0.81175	-0.15492
0.14870	0.38074
0.35272	-0.35899
-0.38683	0.71234
-0.64185	0.12566
1.11776	0.38074
-2.73298	0.40625
0.35272	-0.00188
2.31634	-0.15492
0.32721	-0.05289
-0.20832	0.04914
0.88825	0.38074
-0.00431	0.10015
-1.38139	0.02363
1.19427	0.10015
0.09770	0.20219
-0.74385	0.22769
-0.13181	0.20219
1.52579	0.58480
1.60230	0.30422
0.37822	0.22769
-0.48884	0.02363
0.50573	-0.46102
-0.38683	0.07465
-1.22839	0.25320
0.27621	0.38074
-0.15732	0.35523
-0.25932	0.07465
0.83725	0.15117
0.65874	0.07465
-0.61635	-0.07840
0.30171	0.32972
0.22521	0.35523
0.76074	0.22769
1.04126	0.10015
-0.69285	-0.02739
-0.94787	0.25320
0.93925	-0.12942
0.96476	0.20219
0.83725	0.35523
-1.15188	0.27871
-1.76392	-0.15492
0.70974	-0.38449
1.29628	0.30422
1.67880	0.15117
-0.56534	0.40625
-2.19745	0.30422
0.70974	-0.05289
2.36734	-0.02739
0.25071	0.66132
-1.30489	0.48277
0.22521	0.10015
0.37822	0.10015
0.70974	-0.25695
0.99026	-0.02739
-2.17195	0.02363
-0.33583	0.30422
0.53123	0.25320
-0.31033	0.48277
0.35272	0.38074
0.93925	0.22769
1.01576	-0.18043
0.09770	-0.00188
1.55129	0.38074
-1.91693	0.04914
-1.27939	-0.20594
1.29628	-0.00188
1.27078	0.25320
0.19971	0.73785
-0.87136	0.32972
0.70974	-0.28246
0.27621	-0.10391
-0.05531	-0.25695
0.12320	0.22769
0.07220	0.78886
0.17421	0.20219
0.53123	0.02363
0.40372	0.20219
0.19971	0.04914
-1.30489	-0.15492
0.27621	0.04914
0.25071	0.20219
-0.15732	0.10015
0.63323	0.38074
1.29628	-0.25695
0.60773	-0.00188
-0.97337	0.38074
-0.59084	0.35523
0.78624	0.38074
0.91375	0.04914
0.42922	0.32972
-0.15732	-0.30797
-0.51434	0.32972
-0.38683	0.32972
-0.18282	0.10015
0.83725	-0.10391
0.50573	0.02363
0.55673	0.07465
0.48022	0.45726
-0.59084	0.10015
-0.20832	-0.12942
-0.13181	0.30422
-0.92237	0.10015
0.30171	0.25320
0.27621	0.35523
1.42379	0.25320
1.24527	-0.05289
1.93382	0.45726
-1.71292	-0.07840
-1.81492	-0.20594
-0.10631	0.07465
-0.08081	0.20219
1.06676	0.32972
1.16877	0.10015
0.30171	0.27871
-0.59084	-0.05289
-0.25932	0.10015
0.68424	0.25320
0.35272	-0.33348
0.96476	0.25320
0.37822	0.35523
-0.97337	0.15117
-0.92237	0.12566
-0.20832	0.30422
0.55673	0.10015
0.53123	0.25320
0.73524	-0.05289
0.53123	0.02363
-0.33583	0.04914
0.48022	0.30422
-0.28482	0.20219
-0.61635	0.15117
-0.33583	-0.07840
1.11776	0.15117
0.83725	0.43176
-0.18282	0.43176
0.04670	0.04914
0.37822	0.12566
0.37822	-0.12942
-0.05531	0.10015
-0.74385	0.20219
0.37822	0.40625
0.30171	0.10015
0.14870	-0.18043
0.09770	0.30422
0.37822	0.32972
0.27621	0.30422
0.22521	0.04914
0.63323	0.04914
0.04670	0.12566
0.07220	0.27871
-0.18282	0.10015
0.07220	0.15117
-0.51434	-0.05289
-2.40146	-0.20594
-0.00431	0.27871
2.06133	-0.00188
1.78081	0.38074
1.60230	0.17668
-0.51434	0.25320
-1.76392	0.48277
1.14327	0.27871
0.42922	0.43176
0.14870	0.04914
-0.10631	-0.05289
-0.25932	0.02363
-0.02981	0.10015
0.19971	0.02363
0.07220	-0.00188
0.19971	0.17668
0.07220	0.35523
0.04670	0.27871
-1.02437	0.02363
0.65874	-0.02739
1.32178	0.20219
-0.38683	0.17668
-3.06450	0.15117
0.99026	-0.43551
0.91375	0.17668
1.34728	0.45726
0.55673	0.10015
0.91375	0.30422
0.93925	0.50828
0.14870	0.50828
-0.13181	0.22769
-0.20832	0.15117
0.27621	0.10015
0.25071	-0.10391
-0.15732	0.04914
-0.38683	0.04914
-0.51434	0.02363
-1.20288	-0.12942
0.02119	-0.10391
0.70974	0.12566
0.68424	0.25320
0.60773	0.17668
0.07220	0.10015
-0.69285	0.12566
0.65874	0.50828
0.48022	-0.20594
0.83725	0.22769
-0.08081	0.38074
-1.71292	0.25320
2.18883	0.25320
2.06133	-0.00188
-1.35589	-0.00188
-1.94243	0.15117
1.39828	0.27871
1.39828	0.27871
0.09770	0.43176
-0.13181	0.25320
0.50573	0.20219
-0.46334	0.12566
0.14870	-0.05289
0.32721	-0.05289
0.12320	-0.02739
-0.36133	-0.05289
0.88825	-0.05289
0.70974	-0.00188
-0.99887	0.25320
0.53123	0.35523
-1.12638	0.02363
-0.46334	0.27871
0.17421	0.43176
0.83725	0.30422
0.48022	0.07465
0.12320	-0.51203
0.83725	0.53379
0.32721	0.10015
-1.30489	0.17668
-1.50890	0.20219
1.09226	-0.30797
0.99026	0.22769
1.09226	0.43176
1.04126	0.45726
0.50573	0.45726
-0.10631	0.38074
1.09226	0.15117
-0.23382	0.10015
-0.66735	0.32972
-0.48884	-0.46102
0.35272	-0.12942
-0.02981	0.07465
-0.46334	0.02363
-0.28482	0.10015
0.02119	-0.20594
0.96476	0.43176
-1.66191	0.32972
0.60773	-0.10391
0.91375	0.50828
0.02119	-0.12942
0.96476	0.35523
0.32721	0.68683
0.65874	-0.18043
-0.38683	0.22769
-2.32496	0.25320
1.39828	0.40625
2.26534	-0.20594
-0.10631	-0.05289
-0.61635	0.07465
0.42922	0.17668
-0.02981	0.25320
0.32721	0.35523
0.37822	-0.10391
0.68424	0.22769
0.17421	0.07465
-0.69285	0.04914
0.35272	0.17668
0.68424	0.45726
-0.31033	-0.12942
-0.05531	-0.07840
-0.43783	0.07465
-1.86593	0.02363
0.07220	0.30422
1.24527	0.27871
1.29628	0.27871
1.50029	0.53379
1.11776	0.38074
-1.35589	-0.43551
-0.48884	-0.07840
0.04670	0.02363
0.78624	0.48277
1.16877	0.68683
-0.38683	0.30422
-0.84586	0.20219
0.04670	0.15117
-0.02981	0.12566
0.68424	-0.18043
0.45472	0.27871
1.11776	0.27871
0.04670	0.20219
0.32721	0.20219
-1.27939	-0.05289
-0.92237	0.15117
0.86275	0.10015
0.17421	0.15117
0.60773	0.17668
0.17421	0.22769
-0.08081	0.30422
0.32721	0.43176
-0.43783	-0.58856
0.55673	0.43176
0.73524	0.32972
1.04126	0.27871
-1.22839	-0.43551
-0.15732	0.22769
0.45472	0.22769
1.32178	0.48277
-0.25932	0.76336
-0.41233	-0.69059
0.63323	0.50828
0.02119	0.25320
-1.66191	-0.10391
0.02119	0.10015
1.34728	0.81437
0.81175	-0.71609
0.19971	0.27871
0.40372	0.43176
1.75531	0.30422
-2.42696	-0.12942
-1.84042	0.07465
0.58223	0.17668
0.86275	0.04914
0.73524	0.17668
0.70974	0.20219
0.68424	0.10015
-0.61635	0.32972
-0.33583	0.25320
0.65874	0.07465
1.34728	-0.12942
-0.36133	0.04914
0.68424	0.17668
-0.64185	0.27871
-3.52353	0.43176
0.70974	-0.38449
0.35272	-0.00188
1.52579	0.27871
0.68424	0.25320
1.21977	0.35523
0.37822	0.17668
0.22521	0.22769
-1.76392	0.15117
0.53123	0.15117
0.65874	-0.00188
0.02119	-0.05289
-0.08081	0.12566
0.50573	0.25320
0.30171	1.17148
-1.27939	-0.38449
-0.28482	-0.79262
0.78624	0.45726
0.53123	0.40625
0.73524	0.20219
0.53123	0.04914
-0.48884	0.12566
-0.92237	-0.05289
0.19971	0.15117
1.29628	0.50828
0.53123	0.20219
0.25071	0.20219
0.81175	-0.15492
0.17421	0.48277
-0.69285	0.12566
0.37822	0.30422
-0.53984	-0.66508
-0.46334	0.45726
0.93925	0.43176
0.63323	0.07465
-2.86049	0.07465
-0.23382	0.15117
0.42922	0.07465
0.02119	-0.05289
1.55129	-0.15492
2.06133	-0.10391
1.19427	0.27871
-0.08081	0.30422
0.19971	-0.12942
0.55673	0.30422
-0.87136	0.58480
-2.52897	-0.05289
0.96476	0.17668
1.11776	0.35523
-1.58541	0.10015
-0.41233	-0.05289
0.91375	0.07465
0.91375	0.22769
1.14327	0.43176
-0.13181	0.04914
0.42922	0.12566
0.45472	-0.00188
0.35272	0.04914
0.04670	0.25320
-1.02437	0.07465
0.02119	0.17668
0.42922	-0.12942
-0.25932	0.10015
-0.79486	0.20219
0.53123	0.15117
1.39828	0.68683
1.88281	0.04914
1.24527	-0.56305
-3.39602	0.17668
-1.17738	0.20219
1.55129	0.07465
1.72980	0.30422
0.78624	-0.15492
-0.59084	0.38074
-0.43783	0.07465
1.47479	0.25320
0.99026	0.40625
-3.34502	0.17668
-0.89686	0.25320
0.30171	-0.15492
0.83725	-0.35899
0.70974	0.17668
0.96476	0.25320
0.99026	0.35523
0.07220	0.35523
-0.00431	-0.00188
0.27621	0.17668
0.86275	0.10015
-0.13181	-0.07840
-1.81492	-0.20594
0.27621	0.32972
0.55673	0.12566
0.63323	0.35523
-0.08081	0.45726
0.12320	0.32972
0.37822	0.38074
-0.82036	0.10015
0.25071	-0.00188
0.73524	-0.10391
-0.13181	0.02363
-0.53984	0.07465
-0.08081	0.30422
1.09226	0.30422
1.04126	-0.00188
0.04670	-0.20594
0.50573	0.30422
1.24527	0.15117
-0.18282	0.55929
-2.55447	0.12566
-0.08081	-0.46102
1.83181	0.15117
0.27621	0.17668
-0.97337	0.25320
-0.00431	0.58480
0.73524	0.43176
0.60773	-0.10391
0.91375	0.07465
0.65874	0.25320
0.42922	-0.33348
-1.27939	-0.12942
0.02119	0.40625
1.01576	0.15117
-1.50890	-0.05289
-1.33039	0.25320
0.14870	0.32972
0.30171	0.35523
1.34728	0.45726
1.75531	0.22769
-0.53984	-0.48652
0.35272	-0.20594
0.70974	0.27871
-0.94787	0.22769
-0.71835	0.25320
0.27621	0.22769
-0.71835	0.15117
-0.08081	0.20219
1.65330	0.17668
1.83181	0.30422
1.62780	0.10015
-0.48884	0.35523
-0.64185	0.04914
-0.94787	-0.35899
0.22521	-0.18043
0.45472	0.43176
-0.51434	0.30422
1.83181	0.45726
1.65330	0.25320
-3.52353	0.17668
-2.98800	-0.00188
2.26534	-0.35899
1.75531	0.30422
0.45472	-0.05289
-0.94787	0.43176
-1.25389	0.20219
1.14327	-0.10391
1.47479	0.45726
1.01576	0.30422
0.78624	-0.12942
0.73524	0.04914
-0.46334	0.15117
-1.86593	0.15117
-1.20288	0.66132
0.42922	0.04914
0.99026	0.17668
0.93925	0.12566
0.78624	-0.35899
0.27621	0.15117
-0.05531	0.22769
0.50573	0.25320
-0.05531	0.04914
-1.27939	0.15117
-3.57454	-0.18043
1.47479	0.27871
2.01032	-0.00188
1.80631	0.27871
0.65874	0.10015
-1.04987	0.45726
-3.19201	-0.15492
0.73524	0.12566
2.26534	0.43176
-0.13181	-0.00188
0.04670	-0.15492
1.42379	0.30422
1.19427	0.30422
1.52579	0.38074
0.58223	0.30422
-3.24301	-0.05289
0.35272	-0.02739
1.32178	0.20219
-1.40690	-0.15492
-2.17195	0.17668
0.60773	-0.10391
0.73524	-0.00188
0.32721	0.04914
1.70430	0.22769
1.01576	0.35523
0.42922	0.45726
0.12320	0.53379
-0.71835	-0.35899
-0.13181	-0.00188
-0.05531	0.12566
-0.38683	0.04914
0.27621	0.20219
0.19971	0.35523
1.47479	0.32972
-0.10631	0.15117
-0.92237	0.22769
-0.25932	0.12566
0.53123	0.10015
-0.53984	0.10015
0.02119	-0.02739
0.73524	-0.20594
3.66793	0.20219
1.93382	0.61031
-7.24677	-0.12942
-0.51434	0.20219
2.77537	0.12566
1.52579	0.02363
-0.74385	0.15117
0.70974	-0.23145
0.42922	0.38074
0.55673	0.45726
-0.43783	0.50828
-0.43783	0.50828
-0.25932	-0.23145
0.37822	0.04914
0.81175	0.04914
0.32721	0.53379
0.04670	-0.02739
-2.70748	0.22769
0.45472	0.15117
0.04670	-0.05289
0.70974	0.17668
0.55673	0.25320
0.83725	0.04914
0.78624	0.20219
1.16877	0.20219
-0.36133	-0.00188
0.30171	-0.25695
0.09770	0.04914
-0.00431	0.17668
-0.31033	0.07465
0.17421	0.30422
-0.89686	0.32972
-1.99343	0.55929
1.60230	-0.38449
2.72437	0.40625
-1.15188	-0.07840
-2.96250	0.02363
2.18883	0.15117
1.42379	0.22769
-0.43783	0.12566
1.06676	0.73785
-0.08081	0.15117
0.14870	0.12566
0.91375	-0.05289
-0.25932	-0.38449
-0.46334	0.30422
-0.82036	-0.00188
-0.28482	0.22769
0.17421	0.20219
-0.48884	0.35523
0.09770	0.30422
1.01576	-0.00188
0.58223	0.22769
0.76074	-0.12942
1.93382	0.07465
-0.59084	0.35523
-3.39602	0.04914
0.40372	0.07465
1.29628	0.17668
1.42379	0.17668
0.48022	0.27871
-0.71835	0.20219
-0.64185	0.32972
-0.10631	-0.07840
0.09770	0.30422
1.39828	0.04914
0.40372	-0.00188
0.12320	0.02363
-0.33583	0.07465
0.02119	0.30422
0.58223	0.10015
-0.20832	0.32972
-1.30489	-0.25695
-0.56534	0.15117
0.42922	0.20219
-0.02981	0.10015
1.04126	0.12566
0.22521	0.35523
0.50573	0.43176
2.06133	-0.15492
-0.53984	0.12566
-2.93700	0.38074
0.81175	0.12566
1.62780	0.27871
0.96476	-0.35899
0.60773	0.17668
0.42922	0.04914
-0.08081	0.10015
-0.15732	0.15117
-0.02981	0.17668
-0.00431	0.15117
-0.92237	0.25320
-0.64185	0.30422
0.35272	0.17668
1.09226	-0.00188
0.60773	0.15117
-0.20832	-0.05289
-0.99887	0.17668
-1.17738	0.15117
1.55129	-0.07840
2.16333	0.32972
0.53123	0.35523
-2.09544	0.02363
1.37278	0.07465
-0.43783	0.02363
-0.28482	0.15117
0.40372	0.20219
1.04126	0.68683
0.65874	-0.56305
-0.28482	0.43176
0.45472	0.22769
-0.18282	-0.05289
-0.18282	0.15117
-2.96250	-0.05289
1.24527	0.27871
1.01576	0.04914
-0.15732	-0.20594
0.42922	0.27871
0.48022	0.15117
0.70974	0.50828
-0.10631	-0.02739
0.17421	0.10015
0.04670	-0.00188
0.32721	0.35523
-0.02981	0.02363
-0.48884	0.32972
-0.02981	0.25320
0.68424	0.20219
1.24527	0.22769
0.27621	0.12566
-1.35589	-0.10391
-0.25932	0.10015
1.65330	0.25320
1.85731	-0.23145
-0.20832	0.55929
-3.88056	0.04914
-0.59084	0.02363
1.21977	0.25320
0.91375	0.22769
0.27621	-0.56305
-0.08081	0.48277
1.70430	0.40625
2.13783	0.10015
1.06676	0.53379
-3.75305	0.04914
-2.60547	-0.18043
1.14327	0.15117
1.65330	0.43176
1.39828	-0.38449
-0.13181	0.20219
-0.89686	0.27871
0.93925	0.22769
0.55673	0.32972
0.17421	0.25320
0.40372	-0.20594
0.09770	0.07465
0.09770	0.25320
-0.18282	0.04914
0.02119	0.32972
0.02119	0.20219
0.09770	0.12566
-1.20288	-0.20594
0.48022	0.22769
-0.05531	0.30422
0.70974	0.35523
0.78624	0.12566
0.02119	0.17668
0.27621	0.25320
0.42922	-0.10391
0.17421	-0.35899
1.04126	0.27871
0.12320	0.07465
-0.23382	0.12566
-0.43783	0.22769
0.19971	0.15117
-0.84586	0.27871
-1.33039	0.20219
0.68424	0.32972
2.06133	-0.10391
0.96476	-0.12942
-0.69285	0.12566
-0.56534	0.15117
-0.10631	0.32972
-0.00431	0.22769
0.17421	0.07465
1.37278	0.12566
1.11776	0.10015
-1.40690	-0.10391
-0.28482	0.30422
0.40372	0.32972
-0.18282	-0.00188
0.37822	0.48277
0.93925	0.45726
1.01576	0.22769
0.42922	-0.00188
-0.28482	-0.25695
-0.56534	-0.05289
-0.28482	-0.02739
-0.08081	-0.05289
0.40372	0.50828
-0.02981	0.10015
-0.18282	0.02363
0.35272	0.20219
0.30171	0.32972
0.27621	0.20219
0.73524	0.53379
-0.36133	0.10015
-0.64185	-0.71609
0.04670	0.61031
-0.28482	0.25320
2.39285	-0.05289
-1.22839	0.12566
0.27621	0.12566
0.35272	0.38074
1.27078	0.04914
-0.43783	-0.00188
-1.25389	0.04914
0.17421	0.12566
-0.25932	0.04914
0.40372	0.04914
0.42922	0.22769
0.07220	0.30422
0.45472	0.20219
1.52579	0.12566
0.37822	0.22769
-0.87136	-0.02739
-0.36133	-0.00188
-1.27939	0.07465
0.50573	-0.07840
0.93925	0.66132
0.78624	0.25320
0.35272	0.40625
0.32721	0.17668
0.12320	0.25320
-0.23382	-0.41000
-0.46334	-0.00188
-1.10088	0.12566
0.19971	0.07465
0.73524	0.17668
0.04670	-0.00188
0.04670	0.27871
0.02119	0.17668
-0.00431	0.35523
0.40372	0.07465
1.19427	0.25320
1.50029	-0.28246
-0.87136	0.07465
-1.73842	-0.05289
0.70974	0.10015
0.63323	0.35523
-0.05531	0.32972
-0.48884	0.35523
-0.33583	0.15117
0.68424	0.30422
1.21977	-0.12942
0.53123	-0.02739
0.68424	0.22769
0.09770	0.12566
-0.76936	0.10015
0.14870	0.04914
0.50573	-0.02739
0.17421	0.12566
-0.61635	1.01843
-0.43783	-0.10391
0.27621	-0.12942
0.63323	0.10015
-1.07538	-0.00188
-0.89686	-0.12942
1.75531	0.12566
-1.30489	0.04914
-0.08081	0.02363
0.55673	0.30422
1.90832	0.53379
0.81175	0.43176
0.02119	0.30422
0.81175	0.25320
0.35272	0.04914
-0.28482	-0.12942
-0.46334	0.07465
0.35272	-0.07840
0.78624	0.20219
0.14870	0.25320
-0.74385	0.25320
-0.53984	0.25320
-0.28482	-0.25695
0.40372	-0.10391
0.91375	0.30422
-1.84042	-0.25695
-2.09544	0.30422
1.29628	0.02363
2.23984	0.27871
-1.04987	0.20219
1.24527	0.55929
1.37278	0.63582
-0.84586	0.22769
0.58223	-0.46102
1.01576	-0.18043
0.17421	0.10015
-0.13181	0.07465
0.42922	0.12566
-0.38683	0.20219
-0.10631	0.20219
-0.46334	0.27871
0.12320	0.43176
0.04670	-0.07840
0.73524	0.10015
0.40372	0.30422
-1.94243	-0.00188
-0.79486	-0.02739
1.55129	-0.25695
1.57679	-0.02739
0.40372	0.25320
-4.03357	-0.18043
-0.38683	0.53379
2.44385	0.55929
2.52035	0.40625
1.14327	0.07465
-1.04987	0.20219
-0.23382	-0.10391
0.35272	-0.12942
0.42922	0.17668
0.07220	0.22769
-0.02981	0.10015
-0.87136	0.25320
0.65874	0.45726
0.78624	0.12566
-0.66735	0.04914
-0.99887	-0.05289
-0.74385	-0.07840
-0.66735	0.07465
1.47479	-0.10391
1.65330	0.02363
-0.00431	0.61031
-0.15732	0.73785
0.73524	0.04914
0.60773	0.25320
-0.43783	0.04914
0.12320	-0.43551
-0.59084	-0.05289
-0.28482	0.07465
-0.18282	0.32972
0.63323	0.38074
2.62236	0.48277
0.93925	0.20219
-0.36133	-0.00188
-1.10088	0.38074
-0.43783	-0.02739
0.70974	-0.15492
-0.64185	-0.05289
0.09770	0.15117
0.91375	0.15117
-1.63641	0.02363
-1.02437	0.25320
0.45472	0.12566
1.50029	0.15117
1.34728	0.45726
0.35272	0.15117
0.12320	-0.20594
0.04670	-0.46102
0.42922	0.35523
0.02119	0.25320
-0.53984	0.45726
0.99026	0.38074
0.60773	0.40625
-0.18282	0.07465
0.32721	0.27871
-0.69285	0.30422
-0.64185	0.12566
-0.64185	-0.38449
-0.48884	0.38074
0.04670	-0.38449
0.70974	-0.07840
0.53123	0.71234
0.91375	0.22769
1.29628	0.35523
1.11776	0.12566
0.32721	0.20219
-1.07538	-0.33348
-0.92237	-0.02739
-0.10631	0.07465
-0.64185	0.25320
0.02119	0.12566
0.45472	0.15117
0.25071	0.40625
1.01576	0.55929
0.91375	0.15117
-0.79486	-0.30797
0.07220	0.12566
0.32721	0.04914
0.22521	-0.23145
0.73524	0.20219
0.70974	0.53379
-0.51434	-0.00188
0.45472	0.10015
0.32721	0.50828
-0.18282	0.22769
-0.89686	-0.20594
-0.69285	0.12566
-0.13181	0.27871
1.09226	-0.51203
0.73524	0.35523
-0.31033	0.25320
1.42379	0.27871
0.22521	0.20219
-0.28482	0.15117
-0.53984	0.25320
-0.02981	0.07465
-0.05531	0.12566
0.17421	0.22769
-0.13181	0.17668
0.09770	-0.05289
0.83725	0.15117
1.32178	0.30422
-1.10088	0.30422
-1.61091	-0.10391
0.73524	0.12566
1.34728	0.27871
1.14327	0.04914
1.14327	-0.10391
0.99026	0.07465
-0.31033	-0.00188
-0.23382	0.32972
-1.94243	0.25320
-2.12094	-0.12942
1.16877	0.22769
1.42379	0.55929
1.83181	0.07465
0.55673	0.04914
-0.15732	0.07465
-0.38683	-0.12942
-2.09544	-0.12942
0.02119	0.35523
0.58223	0.20219
-0.82036	-0.10391
1.01576	0.43176
0.83725	0.25320
0.65874	-0.02739
0.45472	0.40625
0.19971	0.30422
-0.02981	-0.00188
0.09770	0.02363
0.17421	0.22769
