0.48022	0.43176
0.02119	0.38074
0.42922	0.17668
0.02119	0.02363
-0.00431	0.07465
-0.10631	0.02363
0.19971	0.17668
0.19971	0.07465
0.30171	0.27871
0.27621	0.35523
0.09770	0.07465
-0.08081	0.02363
-0.08081	-0.12942
-0.15732	-0.00188
0.12320	0.12566
0.27621	0.38074
0.30171	-0.00188
0.37822	0.25320
0.27621	0.27871
0.27621	0.32972
0.19971	0.02363
0.27621	0.27871
0.02119	0.04914
-0.00431	-0.07840
-0.18282	0.32972
0.02119	0.10015
0.04670	-0.10391
0.27621	0.20219
0.14870	0.15117
0.48022	0.27871
0.27621	0.25320
0.02119	0.20219
-0.43783	-0.05289
-0.08081	-0.10391
0.53123	0.25320
0.32721	0.15117
0.53123	0.27871
0.17421	0.30422
0.14870	0.10015
-0.08081	0.15117
0.02119	0.07465
0.27621	-0.00188
0.12320	0.15117
0.12320	0.12566
-0.02981	0.27871
-0.05531	-0.05289
0.25071	0.25320
0.07220	0.15117
0.04670	0.17668
-0.08081	0.12566
0.14870	-0.02739
0.58223	0.17668
0.40372	0.12566
0.22521	0.04914
0.02119	0.25320
-0.00431	0.17668
0.14870	0.17668
0.02119	0.12566
0.17421	0.20219
0.19971	0.17668
0.17421	0.12566
0.22521	0.15117
0.07220	0.04914
-0.05531	-0.00188
-0.13181	0.20219
-0.08081	0.20219
0.09770	0.15117
0.12320	0.12566
0.30171	0.20219
0.22521	0.15117
0.42922	0.20219
0.37822	0.25320
0.12320	0.35523
-0.02981	0.32972
-0.08081	0.02363
-0.15732	-0.10391
0.02119	-0.07840
0.42922	0.17668
0.32721	0.04914
0.42922	0.20219
0.50573	0.43176
0.19971	0.22769
0.22521	0.15117
0.02119	0.17668
0.07220	0.07465
-0.41233	0.07465
-0.23382	0.04914
0.02119	0.12566
0.27621	0.10015
0.19971	0.25320
0.19971	0.25320
0.32721	0.04914
0.65874	0.27871
0.09770	0.17668
-0.20832	-0.02739
-0.02981	0.04914
0.37822	0.15117
0.09770	0.15117
0.02119	0.30422
0.22521	0.32972
0.12320	0.20219
0.12320	0.07465
0.48022	-0.02739
0.19971	0.07465
-0.31033	0.12566
-0.05531	0.25320
0.12320	0.12566
0.09770	0.38074
0.19971	0.32972
0.40372	0.10015
0.37822	0.10015
0.50573	0.22769
0.14870	0.12566
-0.48884	-0.10391
-0.79486	-0.15492
0.50573	0.07465
0.68424	0.20219
0.04670	0.25320
-0.31033	0.20219
0.35272	0.25320
0.30171	0.17668
0.19971	0.12566
0.12320	0.25320
0.07220	0.12566
-0.02981	-0.00188
0.02119	0.15117
0.30171	0.35523
0.25071	0.04914
0.25071	0.02363
0.22521	0.32972
0.12320	0.27871
0.19971	-0.00188
0.25071	0.07465
0.32721	0.12566
-0.31033	0.12566
-0.20832	-0.12942
0.25071	0.20219
0.09770	0.15117
0.25071	0.27871
0.30171	0.22769
0.40372	0.27871
0.25071	0.07465
0.27621	0.15117
-0.10631	0.12566
0.02119	-0.00188
-0.10631	0.02363
0.02119	0.12566
0.14870	0.22769
0.19971	0.10015
0.19971	0.25320
0.35272	0.12566
0.37822	0.17668
0.19971	0.07465
0.02119	0.12566
-0.05531	0.17668
-0.13181	0.10015
0.09770	0.02363
0.07220	0.15117
0.32721	0.25320
0.19971	0.17668
0.27621	0.27871
0.30171	0.25320
0.32721	-0.00188
-0.05531	0.04914
-0.18282	-0.02739
0.04670	0.10015
0.19971	0.15117
0.19971	0.27871
-0.00431	-0.00188
0.30171	0.22769
0.48022	0.17668
-0.38683	0.30422
-0.36133	0.10015
0.68424	0.20219
0.37822	-0.00188
0.22521	0.15117
-0.00431	0.04914
0.07220	0.32972
0.02119	0.12566
0.32721	0.27871
0.19971	0.45726
0.27621	-0.12942
0.02119	-0.23145
0.07220	0.25320
-0.18282	0.10015
0.02119	0.22769
0.12320	0.17668
0.30171	0.35523
-0.13181	0.02363
0.30171	0.17668
0.12320	0.04914
0.48022	0.30422
0.14870	0.07465
0.30171	0.04914
0.14870	0.22769
-0.18282	0.20219
-0.23382	-0.02739
0.45472	0.30422
-0.20832	0.07465
-0.20832	0.25320
0.22521	0.07465
0.78624	0.30422
0.48022	0.12566
0.50573	0.30422
0.02119	0.10015
0.70974	0.17668
-0.51434	0.07465
-0.97337	-0.12942
0.02119	0.04914
0.60773	0.30422
0.58223	-0.05289
0.73524	0.38074
0.12320	0.02363
0.14870	0.27871
-0.13181	0.02363
-0.08081	0.22769
0.12320	0.07465
0.19971	0.27871
0.04670	0.07465
0.14870	0.20219
0.02119	0.04914
0.19971	0.12566
0.12320	0.17668
0.04670	0.12566
-0.00431	0.17668
-0.00431	0.07465
0.27621	0.20219
0.25071	0.22769
0.48022	0.20219
0.25071	0.25320
0.14870	0.15117
0.32721	0.30422
0.12320	0.17668
-0.02981	0.12566
-0.15732	0.10015
-0.23382	-0.12942
0.12320	0.07465
0.35272	0.17668
0.12320	0.20219
0.17421	0.30422
0.12320	0.27871
-0.10631	0.12566
0.58223	0.30422
0.35272	0.20219
0.12320	0.15117
-0.38683	-0.33348
-0.13181	0.27871
0.14870	0.02363
0.02119	-0.02739
0.14870	0.22769
0.32721	0.15117
-0.36133	0.22769
0.63323	0.30422
0.93925	0.10015
0.02119	0.20219
-0.36133	-0.10391
-0.10631	0.04914
0.40372	0.35523
0.09770	0.32972
0.45472	0.27871
0.53123	0.25320
-0.15732	0.07465
-0.10631	-0.00188
-0.02981	0.02363
-0.10631	-0.05289
0.12320	0.04914
0.14870	0.12566
0.07220	0.12566
0.30171	0.30422
0.22521	0.10015
0.07220	0.15117
-0.00431	0.32972
0.32721	0.17668
0.27621	0.10015
0.12320	0.12566
-0.00431	-0.00188
0.04670	0.12566
0.22521	0.25320
0.37822	0.25320
0.02119	0.17668
0.17421	0.12566
0.25071	0.27871
0.02119	0.04914
-0.00431	0.10015
0.09770	0.04914
-0.05531	0.12566
0.12320	0.15117
0.30171	0.30422
0.40372	0.12566
0.48022	0.17668
0.22521	0.20219
-0.00431	0.27871
-0.13181	-0.00188
-0.10631	-0.12942
-0.31033	-0.07840
-0.48884	0.12566
-0.25932	-0.05289
0.09770	0.12566
0.32721	0.30422
0.86275	0.32972
0.70974	0.43176
0.73524	0.20219
0.35272	0.43176
-0.02981	0.02363
-0.36133	-0.02739
-0.31033	-0.02739
0.19971	0.10015
0.12320	0.04914
0.19971	0.04914
0.22521	0.27871
0.17421	0.20219
0.19971	0.22769
0.12320	0.25320
-0.08081	0.07465
-0.20832	0.04914
-0.20832	0.20219
-0.10631	0.04914
0.19971	0.15117
0.17421	0.25320
0.37822	0.17668
0.50573	0.22769
0.42922	0.22769
0.14870	0.40625
0.14870	-0.23145
0.17421	-0.18043
0.19971	0.17668
-0.25932	-0.02739
-0.28482	-0.10391
0.02119	0.22769
0.63323	0.63582
-0.00431	0.22769
0.63323	0.68683
0.83725	0.30422
0.35272	-0.12942
-0.69285	-0.23145
-0.31033	0.07465
-0.23382	0.07465
0.73524	-0.00188
0.58223	0.32972
0.09770	0.15117
-0.94787	0.20219
-0.51434	0.38074
1.47479	0.35523
0.53123	-0.05289
-1.48340	-0.20594
-0.76936	-0.18043
1.80631	0.35523
0.58223	0.71234
-0.53984	0.43176
-1.07538	-0.33348
0.93925	-0.10391
1.14327	0.45726
1.27078	-0.10391
-0.33583	0.15117
-0.74385	0.10015
0.35272	0.55929
0.55673	-0.28246
-0.10631	-0.20594
-0.99887	-0.15492
1.37278	0.35523
1.83181	0.66132
-1.10088	-0.25695
-3.85505	0.32972
-0.82036	-0.18043
1.78081	0.22769
1.32178	0.04914
0.93925	-0.07840
0.60773	0.25320
2.41835	0.25320
1.50029	0.86539
-4.18658	-0.69059
-2.24845	0.99292
-1.55991	-0.20594
0.68424	-0.00188
2.36734	-0.33348
2.23984	-0.28246
1.44929	0.25320
1.09226	-0.51203
0.22521	0.61031
-2.60547	0.45726
0.63323	0.12566
1.98482	0.58480
-0.79486	0.20219
-4.46709	-0.43551
0.19971	-0.35899
-1.12638	-0.02739
0.45472	0.17668
4.40748	0.58480
1.83181	0.81437
-1.30489	0.78886
-0.31033	-0.02739
0.53123	0.86539
0.78624	-1.73640
0.37822	0.43176
2.21434	-0.20594
0.32721	-0.48652
-4.26308	0.50828
-2.50347	0.22769
-0.10631	-0.33348
1.83181	-0.05289
2.90288	0.12566
0.30171	0.25320
-2.70748	0.45726
-0.05531	0.32972
0.50573	-0.20594
3.48942	0.86539
1.24527	0.43176
-2.57997	0.15117
-0.38683	0.22769
1.09226	-0.69059
2.54586	0.61031
-2.22295	0.71234
0.63323	0.73785
-1.12638	0.50828
-0.71835	-1.27726
-0.00431	-0.79262
1.19427	-0.58856
1.67880	0.20219
-1.40690	0.45726
-1.91693	0.02363
-0.08081	0.71234
2.74987	1.22250
4.15246	0.61031
0.32721	0.40625
-1.02437	0.20219
-0.61635	0.07465
0.32721	-0.69059
-0.31033	-0.12942
-3.14101	0.48277
0.42922	-0.48652
1.27078	0.15117
0.27621	0.10015
-0.82036	0.43176
0.37822	1.01843
-0.59084	-0.38449
-1.10088	0.02363
1.06676	-0.05289
2.11233	0.68683
1.09226	0.76336
1.67880	0.58480
0.42922	0.12566
-1.30489	-0.56305
-0.02981	-0.41000
-0.31033	-0.30797
-0.33583	0.10015
-0.28482	-0.02739
-0.36133	-0.02739
1.04126	0.76336
0.04670	0.35523
-0.69285	0.50828
-0.59084	0.27871
-0.76936	0.07465
0.09770	-0.20594
0.22521	0.15117
1.55129	-0.02739
2.82638	0.04914
2.16333	0.10015
-2.04444	0.89089
0.83725	-0.28246
-0.38683	0.50828
-0.94787	0.43176
0.22521	0.25320
0.32721	0.45726
0.12320	-0.00188
-0.84586	-0.51203
-0.13181	0.38074
-1.30489	-0.28246
-0.00431	-0.58856
0.14870	0.12566
0.32721	0.55929
1.44929	0.50828
3.48942	0.30422
-1.20288	0.27871
-4.69661	-0.05289
1.52579	-0.23145
2.46935	0.27871
1.90832	-0.38449
1.72980	0.30422
-2.63097	1.04394
-4.05907	-0.61406
-0.51434	0.50828
2.64786	-0.30797
-1.38139	-0.30797
-3.70204	0.10015
3.05589	-0.41000
2.92838	0.63582
2.06133	0.83988
0.58223	0.66132
-0.20832	0.45726
-0.36133	-0.10391
-1.78942	-0.25695
0.96476	0.40625
1.52579	0.20219
0.37822	0.50828
-0.66735	-0.53754
-0.51434	-0.07840
-1.04987	-0.07840
0.22521	0.22769
-0.92237	-0.07840
1.83181	0.15117
0.09770	0.12566
-0.94787	0.58480
-4.84962	-0.07840
0.88825	-0.10391
4.76450	0.32972
2.36734	-0.30797
0.73524	0.04914
0.19971	0.17668
-0.41233	0.78886
0.65874	1.19699
0.09770	-0.38449
1.47479	0.22769
-0.38683	-0.00188
-1.20288	0.48277
-3.11551	0.02363
-1.66191	-0.71609
-0.20832	-0.20594
0.70974	0.25320
1.55129	0.38074
1.42379	0.50828
2.41835	-0.35899
-0.20832	0.71234
-1.81492	0.30422
2.06133	-0.61406
0.32721	-0.41000
0.12320	-0.10391
-1.76392	0.78886
0.55673	0.22769
0.53123	0.55929
1.57679	0.20219
0.12320	0.35523
-0.56534	0.68683
-1.30489	-0.48652
1.16877	0.30422
0.02119	0.71234
-4.69661	-0.94566
-0.05531	-0.23145
3.99945	0.30422
2.34184	0.45726
0.25071	0.71234
1.24527	1.01843
1.67880	-0.53754
-0.02981	0.12566
1.06676	-0.66508
-0.48884	0.22769
-0.38683	0.10015
-1.55991	0.78886
-3.67654	-0.23145
-3.93156	0.78886
2.13783	0.30422
3.33641	0.45726
2.34184	0.91640
1.47479	0.35523
0.12320	-0.76711
1.85731	-0.46102
-0.05531	-1.20074
-4.41609	0.32972
-0.94787	1.09496
1.88281	0.71234
0.93925	0.66132
1.01576	0.50828
0.09770	0.04914
-0.05531	-0.51203
-0.41233	-0.23145
-3.67654	0.04914
0.93925	0.22769
1.65330	0.22769
-2.24845	0.04914
-1.15188	0.55929
0.27621	-0.41000
1.90832	0.17668
3.25990	0.48277
1.55129	0.66132
1.67880	-0.02739
-0.18282	0.12566
-0.15732	-0.05289
-0.66735	-0.07840
-0.18282	0.71234
-0.36133	-0.23145
-1.61091	-0.02739
-1.17738	1.17148
1.83181	-0.05289
2.18883	0.10015
-0.79486	-0.38449
-2.29945	-0.28246
-4.23758	0.15117
1.60230	-0.02739
0.42922	0.22769
4.94301	0.55929
2.31634	0.38074
-1.55991	-0.81812
0.93925	0.50828
0.88825	0.40625
-0.36133	0.55929
-2.88599	0.10015
0.86275	-0.38449
-0.23382	0.32972
1.24527	0.40625
-0.41233	0.32972
-1.38139	0.32972
0.83725	0.25320
1.19427	-0.33348
-0.08081	-0.51203
0.14870	0.32972
0.30171	-0.46102
-2.88599	-0.99668
-3.77855	0.81437
0.65874	0.94191
3.74443	-0.51203
3.28540	0.71234
1.90832	0.55929
-2.47797	-0.48652
1.27078	0.66132
0.99026	-0.05289
0.42922	0.30422
-0.66735	-0.30797
-1.99343	0.53379
-0.41233	-0.30797
0.19971	0.68683
1.09226	0.20219
1.27078	-0.02739
1.65330	0.30422
-0.46334	-0.33348
-1.63641	0.07465
-0.59084	0.63582
-0.00431	0.76336
-0.23382	0.12566
1.29628	-0.28246
2.13783	-0.00188
-0.36133	0.61031
-3.31952	-1.27726
-0.82036	0.20219
2.16333	0.55929
1.34728	0.15117
-1.30489	0.07465
1.34728	-0.05289
2.03582	0.40625
-0.28482	0.43176
0.48022	0.38074
3.36191	0.91640
-0.13181	-0.86914
-4.39059	-0.07840
-3.06450	-0.38449
0.45472	-0.18043
-0.41233	-0.05289
0.27621	-0.07840
2.08683	0.50828
2.18883	0.78886
-0.25932	0.04914
0.09770	0.78886
0.93925	-0.05289
1.44929	0.40625
-0.00431	-0.33348
-0.25932	-0.10391
0.48022	0.02363
-0.28482	0.32972
-1.45790	0.10015
-0.99887	0.38074
0.96476	0.45726
0.76074	0.10015
0.88825	-0.05289
-0.48884	0.15117
-1.50890	0.25320
0.60773	0.15117
1.50029	0.61031
2.11233	0.30422
-1.68742	0.07465
1.72980	0.32972
-1.61091	-0.63957
-1.99343	0.32972
1.29628	0.66132
-0.64185	0.25320
1.11776	0.68683
1.95932	-0.74160
1.98482	0.45726
-1.50890	-0.41000
-0.71835	-0.76711
0.07220	0.81437
-0.18282	0.10015
0.12320	0.58480
1.62780	0.20219
-0.79486	0.32972
-2.19745	0.58480
-0.25932	0.25320
-1.71292	0.12566
2.44385	-0.05289
0.42922	-0.33348
-0.92237	-0.30797
2.03582	0.45726
2.57136	-0.46102
-0.23382	1.17148
1.39828	0.48277
0.68424	0.61031
-0.64185	0.27871
-0.69285	0.53379
-1.15188	-0.94566
-0.69285	-0.10391
1.21977	0.58480
0.25071	0.12566
-1.84042	0.25320
-1.53441	-0.23145
0.09770	0.17668
1.39828	-0.69059
0.50573	0.25320
0.70974	-0.02739
-0.36133	0.50828
2.26534	0.17668
1.14327	0.15117
-0.66735	-0.25695
2.72437	0.91640
-0.92237	0.10015
-4.77311	-0.12942
1.52579	-0.12942
0.17421	0.30422
-0.13181	0.25320
0.96476	-0.20594
1.44929	0.17668
0.53123	-0.00188
0.22521	0.35523
-0.33583	-0.56305
-4.16107	0.30422
-0.10631	0.94191
1.52579	-0.20594
2.06133	0.20219
0.88825	0.63582
-0.10631	0.40625
-0.89686	0.25320
-3.09000	-0.74160
-1.30489	-0.18043
2.18883	-0.30797
2.18883	0.30422
0.60773	0.76336
2.13783	-0.28246
0.19971	0.61031
0.02119	0.50828
0.40372	0.25320
-0.89686	-0.71609
-1.45790	-0.25695
0.42922	0.83988
-2.52897	0.04914
-1.50890	-0.05289
0.99026	0.04914
1.88281	-0.46102
1.90832	0.53379
0.17421	0.68683
-1.20288	0.61031
2.21434	0.07465
0.17421	0.12566
-0.66735	-0.00188
-1.02437	0.10015
-1.25389	0.10015
1.57679	0.30422
1.24527	0.20219
0.19971	0.66132
0.45472	-0.28246
0.09770	-0.07840
-0.28482	0.30422
1.55129	0.12566
-0.69285	0.53379
-3.24301	-0.12942
-0.36133	0.20219
-0.20832	0.12566
0.53123	0.30422
1.60230	0.61031
2.92838	0.32972
1.21977	0.04914
-2.80949	-0.05289
-0.69285	0.45726
0.83725	-0.02739
1.55129	-0.61406
1.55129	0.53379
0.02119	0.55929
-0.13181	0.32972
2.01032	0.40625
-0.66735	0.17668
-4.67111	-0.00188
-0.31033	-0.10391
0.02119	0.35523
1.37278	-0.43551
1.78081	-0.25695
0.91375	0.76336
0.37822	-0.00188
0.09770	0.20219
-0.23382	0.45726
-0.23382	0.25320
-0.79486	0.68683
-0.13181	-1.43031
0.48022	0.25320
0.09770	0.10015
0.27621	0.86539
1.39828	0.48277
0.65874	0.35523
-2.55447	-0.02739
-0.48884	-0.05289
2.36734	-0.07840
1.04126	-0.02739
-1.63641	-0.15492
0.04670	-0.18043
0.76074	0.43176
-0.74385	0.20219
0.73524	1.09496
0.35272	0.58480
1.50029	0.12566
1.60230	-0.15492
-0.15732	-0.07840
-1.73842	-0.30797
-1.25389	-0.05289
2.77537	0.32972
-1.53441	-0.18043
-1.91693	0.25320
0.73524	0.25320
1.85731	0.91640
1.50029	-0.48652
-0.00431	-0.28246
-2.40146	0.32972
-0.28482	0.81437
0.86275	0.71234
1.21977	-0.97117
1.62780	0.17668
1.19427	0.17668
0.81175	0.12566
-0.64185	-0.51203
-0.79486	-0.00188
0.07220	0.25320
-0.28482	-0.00188
-0.61635	0.07465
-0.28482	-0.02739
0.63323	-0.53754
-0.23382	0.15117
-1.89143	0.20219
1.09226	0.73785
1.24527	0.45726
-1.35589	0.96742
1.83181	0.15117
1.95932	0.22769
0.14870	0.35523
0.88825	-0.56305
3.71893	-0.07840
-0.08081	-0.15492
-9.03189	0.04914
-2.73298	0.17668
3.18340	0.43176
3.28540	0.17668
1.95932	0.58480
0.96476	0.07465
0.12320	-0.33348
1.55129	0.04914
-0.69285	-0.89465
-3.06450	0.73785
-0.64185	-0.02739
0.60773	0.68683
1.29628	0.22769
0.42922	0.45726
-1.84042	0.25320
1.01576	0.12566
0.02119	0.48277
0.68424	-0.38449
1.52579	-0.30797
-0.51434	0.40625
-0.28482	0.32972
-0.25932	-0.05289
-0.53984	0.27871
1.01576	0.76336
0.93925	1.04394
0.73524	-0.05289
0.68424	0.10015
1.06676	-0.10391
-0.18282	-0.33348
-2.04444	-0.05289
-0.89686	-0.10391
0.50573	0.53379
-0.15732	-0.02739
-0.46334	0.30422
1.60230	0.50828
-0.59084	0.81437
-1.84042	-1.12422
1.44929	0.35523
1.55129	0.32972
1.01576	0.10015
-0.51434	-0.07840
-0.56534	-0.10391
1.37278	0.58480
-0.33583	0.55929
-0.33583	1.01843
-0.05531	0.20219
1.04126	-0.63957
0.60773	0.12566
-1.48340	0.02363
-0.15732	-0.10391
0.58223	-0.07840
0.88825	-0.18043
1.98482	-0.63957
1.70430	0.22769
-3.88056	0.61031
-4.87512	0.43176
1.42379	1.40105
3.00489	-0.46102
2.13783	0.32972
-0.20832	0.04914
0.63323	0.02363
0.32721	-0.30797
0.09770	0.35523
0.50573	0.53379
-0.18282	0.32972
-0.66735	-0.07840
0.17421	0.35523
-0.56534	0.07465
0.12320	-0.12942
0.37822	-0.18043
-0.28482	0.04914
-0.18282	0.81437
0.78624	-0.25695
2.36734	0.10015
-1.71292	0.55929
-1.17738	-0.53754
-0.56534	-0.15492
-0.15732	0.20219
1.52579	0.20219
2.06133	0.58480
0.73524	0.40625
0.07220	0.76336
0.78624	-0.02739
-0.08081	0.17668
-1.02437	-0.10391
0.02119	0.43176
1.16877	0.45726
1.14327	0.22769
-2.45246	-0.00188
-1.38139	-0.05289
1.11776	-0.18043
0.86275	-0.25695
0.58223	0.27871
0.27621	0.45726
-0.97337	-0.43551
1.37278	0.61031
1.39828	1.45206
-0.38683	-0.71609
-1.04987	-0.12942
0.83725	0.86539
-0.28482	-0.74160
-0.31033	0.27871
0.60773	0.43176
0.02119	-0.23145
0.42922	0.27871
0.42922	-0.20594
-0.76936	0.17668
-0.18282	0.43176
0.99026	0.32972
0.40372	-0.81812
0.55673	-0.33348
0.91375	-0.25695
-1.84042	0.76336
0.96476	0.81437
0.27621	0.45726
-0.74385	0.15117
0.91375	0.17668
0.70974	-0.10391
1.14327	-0.35899
0.22521	0.12566
-2.42696	0.83988
-0.87136	-0.25695
-1.12638	0.02363
-0.25932	0.02363
0.93925	-0.25695
1.29628	0.15117
0.83725	0.15117
-0.23382	0.73785
0.96476	0.76336
1.34728	0.15117
1.29628	0.73785
-0.53984	-0.61406
-1.12638	0.07465
-1.96793	0.38074
-0.23382	-0.05289
1.42379	-0.20594
1.44929	0.73785
0.53123	-0.30797
-0.36133	0.02363
0.27621	-0.12942
-1.02437	0.91640
-0.05531	0.50828
0.83725	0.32972
1.75531	0.30422
-1.40690	0.32972
0.76074	-0.05289
-1.02437	-0.38449
-1.55991	-0.05289
1.19427	0.30422
0.22521	0.71234
-0.51434	0.17668
2.16333	0.20219
0.35272	0.04914
-0.89686	-0.00188
0.81175	-0.00188
0.09770	0.43176
-0.23382	-0.30797
0.02119	0.15117
0.17421	0.40625
-0.00431	0.27871
-0.59084	-0.38449
0.40372	0.04914
-0.10631	0.07465
-0.02981	0.68683
-0.00431	0.76336
0.86275	0.22769
0.42922	-0.02739
-1.22839	-0.89465
0.02119	0.53379
1.34728	0.12566
-0.05531	0.17668
0.22521	0.78886
0.22521	0.35523
-0.87136	-0.23145
1.37278	0.04914
1.11776	-0.15492
0.04670	-0.20594
-0.82036	-0.12942
-0.51434	0.30422
0.19971	0.32972
0.25071	0.40625
0.78624	0.25320
0.27621	0.04914
0.04670	0.17668
-0.92237	0.27871
-1.58541	-0.56305
0.58223	0.22769
0.30171	0.63582
0.60773	-0.02739
0.27621	0.27871
-0.59084	0.12566
1.24527	-0.02739
1.14327	0.20219
0.65874	0.25320
0.45472	0.68683
-0.38683	0.61031
-0.31033	-0.46102
-0.36133	-0.46102
-0.89686	-0.02739
1.52579	0.07465
0.19971	-0.00188
0.22521	0.04914
0.14870	0.50828
0.12320	0.45726
0.07220	0.43176
-0.99887	0.35523
-0.66735	0.15117
1.06676	0.50828
0.83725	-0.18043
-0.33583	0.27871
-0.20832	-0.05289
0.55673	-0.02739
1.27078	0.40625
0.53123	-0.12942
-0.61635	-0.18043
-2.19745	-0.25695
-2.17195	0.94191
2.16333	-0.30797
1.52579	0.22769
1.42379	0.43176
1.32178	0.66132
0.07220	0.66132
0.37822	0.43176
-0.25932	-0.48652
-2.19745	-0.25695
-0.84586	-0.02739
2.46935	-0.35899
-0.05531	0.10015
-1.25389	0.63582
0.40372	0.76336
2.16333	0.76336
-0.61635	-0.20594
-2.52897	-0.35899
0.22521	0.30422
1.04126	0.40625
0.83725	0.12566
0.17421	-0.07840
1.04126	0.15117
-0.36133	-0.02739
0.58223	0.27871
-0.10631	0.35523
1.14327	0.15117
1.19427	-0.00188
-1.10088	0.68683
-1.25389	-0.12942
0.65874	-0.41000
0.12320	0.15117
-2.52897	0.58480
0.68424	0.25320
0.78624	0.71234
-0.79486	0.66132
1.06676	0.25320
2.08683	-0.63957
2.23984	0.20219
0.32721	0.35523
0.68424	-1.02219
1.39828	0.68683
-0.28482	-0.23145
-6.12470	0.35523
-1.12638	0.32972
2.67337	-0.30797
0.30171	-0.07840
-1.55991	1.06945
-0.13181	0.50828
-0.05531	-0.30797
2.57136	0.40625
1.57679	0.22769
-0.36133	0.17668
0.45472	-0.10391
0.22521	0.04914
0.91375	0.30422
1.65330	0.30422
1.39828	0.27871
-2.57997	0.35523
-2.80949	0.10015
0.73524	0.43176
-0.18282	-0.20594
-0.38683	0.10015
-1.27939	0.27871
1.19427	0.15117
1.50029	-0.05289
1.06676	-0.02739
0.93925	0.30422
0.88825	0.10015
0.73524	0.20219
0.17421	-0.38449
-2.29945	1.14597
-2.55447	-0.35899
0.25071	0.38074
1.19427	0.30422
1.44929	-0.63957
1.80631	0.99292
-0.51434	-0.25695
-0.48884	0.04914
0.02119	-0.15492
0.86275	0.40625
-0.66735	0.43176
1.44929	-0.05289
0.60773	0.55929
-2.40146	-0.02739
-0.76936	0.40625
0.50573	0.63582
1.04126	0.61031
1.11776	-0.23145
-2.01894	0.25320
0.83725	-0.33348
3.08139	-0.41000
-0.43783	0.04914
-5.25764	-0.46102
-0.38683	0.81437
2.74987	-0.66508
1.78081	-0.71609
1.65330	0.40625
0.99026	0.76336
-0.38683	0.32972
-0.66735	0.43176
-0.66735	0.76336
-0.99887	0.50828
0.12320	0.43176
0.88825	0.15117
0.45472	-0.30797
-0.23382	0.15117
-0.33583	-0.05289
-0.31033	0.12566
0.32721	0.32972
0.73524	-0.07840
0.93925	0.35523
0.50573	0.10015
2.18883	0.07465
-1.55991	-0.10391
-2.96250	-0.10391
0.09770	0.12566
0.50573	0.15117
0.58223	0.40625
1.60230	0.27871
2.03582	0.10015
1.55129	0.58480
-0.94787	0.32972
-0.76936	-0.69059
-0.79486	-0.10391
-0.13181	0.12566
-0.94787	0.71234
0.25071	-0.30797
0.40372	0.35523
0.14870	-0.00188
0.35272	0.25320
0.65874	-0.05289
-0.53984	-0.35899
-1.50890	0.22769
0.88825	-0.07840
0.09770	0.53379
0.30171	0.38074
2.26534	0.17668
1.04126	0.15117
-0.66735	-0.20594
-0.33583	-0.00188
-0.56534	0.10015
1.52579	0.38074
0.50573	-0.18043
1.44929	0.15117
0.42922	0.07465
-3.06450	0.76336
-1.71292	0.10015
0.58223	0.35523
-0.48884	0.73785
0.48022	-0.05289
0.63323	-0.43551
1.42379	-1.07320
1.70430	-0.25695
0.19971	0.15117
-0.99887	-0.30797
0.73524	0.55929
0.30171	0.12566
0.02119	0.81437
-1.20288	0.27871
0.37822	0.58480
0.32721	0.76336
-0.31033	0.02363
-0.10631	0.07465
-0.28482	0.32972
1.85731	-0.02739
0.58223	0.07465
-2.40146	0.20219
0.78624	-0.38449
1.14327	-0.46102
0.53123	-0.02739
1.27078	0.32972
0.22521	0.02363
-1.63641	0.63582
-0.97337	-0.02739
0.02119	-0.18043
0.60773	-0.35899
0.53123	0.94191
1.39828	0.38074
-0.20832	0.43176
-0.33583	-0.51203
0.04670	0.68683
0.37822	-0.02739
0.30171	0.35523
-0.08081	-0.12942
0.73524	-0.05289
0.37822	-0.00188
0.02119	-0.02739
-0.87136	0.30422
0.40372	0.45726
-0.46334	0.15117
0.86275	-0.02739
-0.33583	0.17668
-1.04987	-0.02739
0.30171	-0.97117
0.83725	0.25320
0.50573	0.63582
-0.20832	0.86539
1.27078	0.12566
1.11776	0.10015
-0.69285	-0.05289
-1.40690	-0.35899
0.63323	-0.79262
-0.25932	0.50828
0.81175	0.76336
0.76074	0.55929
0.76074	0.50828
-0.38683	-0.30797
-1.89143	-0.23145
0.55673	0.45726
0.58223	0.07465
0.99026	0.15117
-0.05531	0.12566
0.19971	0.35523
0.09770	0.10015
1.44929	0.43176
-0.97337	-0.30797
0.14870	0.10015
1.14327	0.32972
-0.10631	0.48277
-1.86593	0.22769
-1.53441	0.04914
0.50573	-0.05289
1.42379	-0.20594
1.14327	-0.07840
0.45472	0.35523
-0.87136	0.58480
0.53123	0.15117
1.06676	0.38074
0.68424	0.38074
-0.31033	0.17668
-0.59084	0.15117
-0.10631	-0.20594
1.85731	-0.07840
-0.02981	-0.18043
-1.40690	0.53379
2.62236	0.22769
-0.94787	0.27871
-3.57454	-0.07840
-0.25932	-0.30797
0.70974	-0.25695
1.83181	-0.63957
1.75531	-0.07840
1.16877	0.96742
-2.42696	0.45726
-0.33583	0.20219
1.93382	0.07465
1.09226	0.02363
-0.10631	0.43176
-1.02437	0.61031
0.60773	-0.10391
-0.18282	-0.00188
-0.66735	0.04914
2.26534	0.02363
-0.43783	0.02363
-1.76392	0.30422
0.22521	0.58480
0.68424	0.45726
0.30171	0.15117
0.27621	0.02363
-0.15732	-0.23145
0.12320	-0.61406
-0.61635	0.10015
-0.28482	0.32972
0.93925	0.10015
1.34728	-0.71609
1.06676	0.76336
0.17421	0.63582
-0.31033	0.35523
0.17421	0.17668
-0.59084	0.35523
-0.97337	0.43176
0.25071	-0.18043
0.60773	-0.38449
-0.38683	0.04914
-1.50890	0.04914
1.52579	0.81437
1.11776	0.15117
-1.43240	0.30422
-0.28482	0.12566
1.14327	-0.18043
2.67337	0.02363
0.93925	-0.23145
-1.48340	0.04914
-2.80949	0.40625
0.19971	0.35523
1.21977	0.45726
1.93382	0.53379
0.81175	-0.12942
0.25071	-0.23145
-0.28482	0.35523
-0.97337	0.25320
-0.38683	0.07465
0.42922	0.07465
0.14870	0.43176
0.50573	0.68683
0.02119	0.17668
0.63323	-0.12942
-0.28482	0.17668
-2.22295	0.50828
0.73524	0.15117
1.42379	0.04914
2.11233	-0.15492
-1.94243	-0.58856
-0.61635	-0.15492
1.32178	0.22769
1.29628	0.45726
-0.08081	0.07465
1.01576	0.55929
0.25071	0.45726
-0.53984	0.30422
-0.56534	-0.30797
-0.56534	0.12566
-0.28482	-0.35899
0.76074	0.35523
1.34728	-0.05289
0.65874	0.55929
-1.22839	0.04914
-0.10631	-0.02739
1.29628	0.35523
-1.53441	0.45726
-1.55991	0.17668
0.22521	-0.18043
1.21977	-0.10391
1.16877	-0.23145
0.42922	0.25320
-0.28482	0.22769
0.81175	-0.05289
1.09226	0.78886
0.37822	-0.38449
0.14870	0.22769
-1.63641	0.30422
-0.74385	0.20219
0.22521	0.02363
1.37278	0.15117
-0.25932	-0.71609
-0.33583	0.10015
1.11776	0.45726
2.49485	0.71234
-1.40690	0.53379
-5.35965	0.32972
0.81175	-0.18043
1.47479	-0.38449
1.95932	0.04914
1.52579	0.32972
1.06676	0.10015
0.68424	0.22769
-0.08081	0.07465
-0.89686	-0.25695
-0.20832	-0.02739
0.12320	-0.15492
-0.48884	0.17668
-0.25932	0.35523
-0.33583	-0.07840
2.01032	0.40625
1.24527	0.66132
-4.74761	0.35523
-2.70748	-0.07840
2.03582	-0.05289
2.74987	0.40625
0.81175	0.22769
0.32721	0.10015
0.86275	-0.02739
1.04126	-0.07840
0.02119	-0.18043
0.07220	-0.05289
-0.28482	0.07465
-0.05531	0.35523
-0.05531	0.35523
-0.13181	0.25320
-0.59084	-0.25695
-0.61635	0.35523
-0.05531	0.35523
-0.48884	0.04914
0.07220	-0.00188
1.11776	0.04914
1.47479	0.45726
-1.84042	0.61031
0.86275	-0.28246
1.55129	0.45726
1.27078	0.12566
-1.02437	-0.30797
-0.87136	-0.23145
-0.05531	-0.10391
0.83725	0.07465
-0.02981	0.58480
0.73524	0.48277
1.14327	0.25320
0.12320	0.27871
-2.19745	0.15117
-4.00806	-0.20594
0.81175	-0.12942
1.75531	0.22769
1.60230	0.25320
1.29628	-0.18043
0.83725	0.30422
0.40372	0.12566
0.37822	0.32972
0.22521	0.04914
-0.66735	-0.00188
-0.38683	0.27871
-1.43240	-0.02739
0.45472	0.45726
-0.18282	-0.35899
0.27621	0.02363
0.17421	0.30422
1.04126	0.76336
-0.18282	-0.76711
-0.84586	0.86539
1.34728	0.04914
0.25071	0.25320
0.02119	-0.58856
1.29628	-0.12942
0.12320	-0.58856
-1.58541	0.12566
0.19971	0.73785
1.29628	1.32453
1.24527	0.91640
0.45472	-0.05289
-1.68742	0.32972
-2.14644	-0.25695
0.32721	-0.74160
1.32178	-0.18043
1.06676	-0.28246
0.63323	0.32972
0.60773	-0.18043
-0.05531	0.25320
-1.91693	0.45726
0.37822	0.63582
1.62780	0.32972
0.83725	0.30422
-0.36133	0.30422
-0.48884	0.66132
-0.23382	-0.71609
-0.71835	-0.10391
0.22521	0.20219
0.91375	-0.15492
0.48022	0.48277
0.48022	-0.00188
-0.51434	-0.33348
-1.10088	-0.53754
0.14870	0.86539
0.78624	0.96742
1.24527	0.04914
0.09770	0.17668
0.09770	0.50828
-0.05531	-0.05289
0.70974	0.30422
-0.08081	-0.07840
0.91375	-0.05289
-0.53984	-0.18043
-0.79486	-0.89465
-0.15732	0.32972
-0.38683	0.94191
-0.97337	-0.05289
1.09226	-0.05289
2.31634	0.35523
0.93925	0.58480
-0.66735	0.15117
0.37822	0.63582
-0.89686	-0.48652
-0.76936	0.07465
-0.18282	-0.48652
-0.33583	0.30422
-1.04987	0.10015
0.35272	0.15117
1.34728	0.07465
1.88281	0.38074
-0.38683	0.91640
-1.61091	0.55929
0.70974	-0.18043
0.58223	0.04914
0.70974	-0.28246
1.44929	0.17668
0.42922	0.32972
-1.81492	0.10015
1.01576	0.02363
-0.23382	-0.02739
-2.09544	-0.07840
0.65874	0.15117
0.78624	0.27871
0.42922	0.20219
1.09226	0.86539
0.35272	0.12566
0.17421	0.02363
0.25071	-0.00188
0.12320	0.15117
-1.76392	0.53379
-1.48340	0.38074
1.75531	0.02363
0.73524	0.25320
-1.15188	-0.15492
1.27078	0.15117
0.76074	-0.05289
0.27621	-0.15492
-0.02981	-0.35899
1.55129	0.32972
1.21977	0.43176
-1.55991	0.35523
-1.96793	0.15117
0.45472	0.02363
1.06676	-0.10391
-0.71835	0.55929
0.50573	-0.05289
1.29628	-0.23145
0.19971	0.10015
0.02119	0.53379
-0.64185	-0.00188
1.75531	0.53379
0.96476	-0.33348
-2.52897	0.15117
-0.79486	-0.18043
-0.10631	0.20219
0.37822	0.30422
0.96476	0.38074
-0.00431	0.20219
0.50573	0.10015
1.55129	0.15117
0.93925	0.02363
0.09770	0.10015
-0.18282	0.04914
0.02119	-0.25695
-1.66191	0.04914
0.35272	-0.12942
0.48022	-0.07840
-0.20832	0.81437
-0.31033	0.35523
0.07220	0.58480
0.25071	0.50828
0.68424	-0.02739
1.85731	0.10015
-1.22839	-0.28246
-3.80405	0.38074
1.34728	-0.07840
2.18883	0.48277
1.06676	0.12566
0.37822	-0.00188
-0.10631	-0.05289
0.27621	0.27871
0.12320	0.38074
0.19971	-0.07840
-0.15732	0.35523
-0.48884	0.30422
2.13783	0.32972
-1.04987	-0.18043
-0.38683	0.15117
0.19971	0.07465
0.48022	-0.00188
0.22521	0.48277
-0.56534	0.32972
-0.02981	0.04914
1.47479	0.12566
-1.20288	-0.25695
-2.19745	0.17668
0.70974	0.27871
0.99026	0.17668
1.83181	0.38074
1.52579	0.30422
-0.28482	0.20219
0.19971	0.07465
1.04126	0.10015
-0.25932	-0.12942
-0.25932	0.20219
-0.97337	0.30422
-0.36133	0.17668
0.76074	-0.15492
0.50573	0.12566
-0.51434	0.02363
-0.08081	0.17668
-0.10631	0.40625
0.27621	0.55929
-0.71835	-0.66508
0.25071	0.50828
1.37278	0.50828
0.37822	0.48277
0.07220	-0.46102
0.25071	0.07465
0.81175	0.43176
-0.13181	0.45726
-0.89686	-0.61406
-0.51434	-0.18043
0.63323	0.12566
0.32721	0.89089
-0.61635	0.04914
1.47479	0.96742
1.09226	0.32972
-0.97337	-0.25695
-1.20288	-0.41000
0.19971	-0.46102
0.78624	-0.05289
0.42922	0.22769
1.16877	0.89089
-0.46334	-0.07840
-0.89686	0.15117
1.11776	0.22769
0.14870	-0.00188
-0.79486	0.48277
-2.35046	0.07465
1.70430	0.15117
1.72980	0.20219
0.60773	0.20219
-0.25932	0.12566
-1.38139	-0.35899
0.27621	0.20219
0.63323	0.27871
-0.46334	0.61031
-0.02981	0.20219
0.78624	0.17668
0.37822	-0.30797
1.37278	-0.20594
0.73524	0.32972
-1.78942	0.55929
-1.91693	0.76336
1.06676	0.40625
1.62780	-0.12942
0.19971	-0.07840
-1.20288	0.25320
-0.51434	-0.53754
1.34728	0.15117
0.91375	0.61031
0.22521	0.15117
-0.31033	-0.23145
0.14870	0.40625
-1.10088	0.15117
-0.08081	0.04914
2.01032	0.63582
-0.51434	-0.15492
-0.61635	-0.25695
0.42922	0.35523
0.04670	0.76336
0.81175	0.15117
-1.50890	0.55929
-0.71835	0.48277
1.60230	-0.07840
1.93382	0.22769
0.65874	-0.05289
-0.41233	0.22769
-0.94787	0.02363
0.53123	-0.02739
0.76074	-0.05289
-0.84586	0.27871
-0.64185	-0.12942
0.14870	0.15117
0.42922	-0.20594
1.14327	0.22769
-0.89686	0.73785
-0.18282	0.35523
0.37822	0.43176
0.35272	-0.38449
-0.13181	0.07465
0.19971	0.17668
0.65874	0.15117
0.04670	0.55929
0.27621	0.32972
-0.00431	-0.07840
-0.05531	-0.28246
0.02119	0.22769
0.96476	0.71234
0.86275	-0.69059
-0.56534	0.48277
-1.10088	0.22769
-0.46334	0.07465
-0.13181	-0.05289
1.70430	0.10015
0.50573	0.35523
-0.82036	0.27871
0.14870	0.45726
0.25071	0.02363
0.02119	-0.15492
0.48022	0.20219
0.25071	-0.53754
0.17421	0.55929
0.73524	0.27871
0.07220	0.15117
-0.51434	0.30422
-0.05531	0.15117
-0.05531	0.27871
0.60773	0.35523
1.90832	0.30422
-0.13181	0.10015
-2.01894	-0.71609
-0.59084	-0.15492
0.96476	-0.07840
1.39828	0.22769
-0.48884	0.38074
0.25071	0.58480
0.73524	0.30422
0.88825	0.04914
0.17421	0.20219
0.50573	0.35523
-0.48884	0.02363
-0.05531	0.15117
0.12320	-0.20594
-0.10631	-0.30797
-0.18282	0.73785
-0.61635	0.25320
0.37822	-0.05289
0.25071	0.04914
0.30171	0.22769
-0.00431	0.15117
-0.00431	0.22769
-0.89686	0.10015
0.73524	-0.10391
1.19427	0.43176
0.12320	-0.33348
-0.38683	0.30422
0.32721	-0.35899
0.58223	-0.12942
-1.15188	0.45726
0.86275	0.61031
0.76074	0.10015
0.50573	0.20219
-0.36133	0.30422
-0.71835	0.04914
-1.66191	-0.38449
0.50573	0.32972
1.44929	0.12566
2.67337	0.32972
-0.33583	0.10015
-1.91693	0.25320
0.60773	0.10015
0.17421	-0.07840
0.07220	0.04914
0.30171	-0.25695
1.57679	0.30422
0.02119	0.10015
-1.33039	0.61031
-0.25932	-0.46102
-0.38683	-0.05289
0.83725	0.38074
-0.89686	0.50828
0.60773	0.78886
0.70974	0.27871
-0.36133	-0.23145
0.32721	-0.46102
0.93925	-0.05289
0.83725	0.07465
0.22521	0.40625
-0.28482	0.10015
0.48022	0.38074
-0.28482	-0.35899
2.23984	-0.15492
-0.33583	0.27871
-5.56366	0.15117
-0.20832	-0.10391
1.55129	-0.02739
2.29084	0.86539
1.57679	0.35523
1.29628	0.45726
-0.36133	-0.05289
-0.23382	0.25320
0.14870	-0.12942
-0.74385	0.43176
-2.01894	-0.28246
-0.38683	0.04914
1.01576	0.20219
1.52579	-0.23145
0.25071	0.55929
0.27621	-0.30797
0.25071	0.30422
-0.53984	0.27871
-0.10631	0.30422
-0.10631	0.55929
0.63323	-0.15492
0.68424	0.55929
-0.15732	-0.18043
0.55673	0.38074
-0.05531	0.15117
-0.89686	-0.99668
1.52579	0.15117
0.53123	0.04914
-2.17195	0.15117
-0.89686	-0.00188
2.01032	0.15117
0.45472	0.99292
-0.15732	0.43176
1.50029	0.25320
0.93925	-0.00188
-1.10088	0.45726
-0.02981	0.04914
0.42922	-0.10391
0.12320	-0.12942
-0.36133	-0.20594
-0.13181	0.17668
0.35272	0.40625
-0.53984	0.27871
0.22521	-0.25695
0.19971	0.38074
0.07220	0.02363
0.60773	0.83988
-0.08081	0.45726
0.45472	-0.20594
-0.13181	-0.12942
0.27621	-0.00188
0.76074	0.12566
0.50573	0.02363
0.12320	0.25320
0.35272	0.50828
0.27621	0.32972
0.45472	-0.02739
-0.94787	-0.10391
-0.84586	-0.23145
1.04126	0.22769
1.27078	0.25320
-0.56534	-0.35899
-0.82036	0.27871
-0.76936	0.25320
0.76074	0.55929
0.68424	0.71234
0.48022	0.12566
0.53123	0.20219
0.07220	-0.23145
-0.28482	0.38074
-1.30489	-0.43551
0.48022	0.61031
1.44929	0.35523
1.90832	0.12566
-0.61635	-0.28246
-1.45790	0.38074
0.22521	0.10015
2.11233	-0.35899
-1.38139	0.17668
-3.90606	-0.35899
0.42922	0.22769
2.16333	0.07465
1.42379	0.61031
1.11776	0.71234
1.01576	0.45726
0.60773	0.58480
-0.20832	-0.30797
0.12320	0.30422
-1.33039	-0.33348
-0.51434	0.10015
0.35272	-0.33348
-0.36133	0.22769
-0.61635	0.55929
0.07220	-0.00188
1.04126	0.38074
-0.76936	0.20219
0.78624	0.25320
1.29628	0.22769
-0.15732	0.25320
-0.79486	0.38074
1.19427	-0.05289
0.27621	-0.28246
0.99026	0.27871
0.14870	-0.15492
-0.36133	0.02363
-0.94787	0.32972
0.65874	0.40625
0.45472	0.25320
0.48022	0.27871
-0.15732	0.10015
-0.33583	0.07465
0.63323	0.30422
0.37822	0.25320
1.34728	0.40625
-0.33583	0.10015
-2.35046	0.30422
-0.97337	0.15117
0.76074	-0.12942
0.60773	-0.12942
0.68424	-0.00188
0.53123	-0.18043
1.06676	0.40625
-0.23382	0.10015
-0.36133	0.89089
1.16877	0.15117
1.60230	-0.41000
-0.33583	0.15117
-1.12638	0.15117
-1.35589	0.10015
-0.46334	0.50828
0.83725	-0.25695
-0.41233	-0.00188
0.27621	0.04914
0.96476	0.27871
1.32178	0.12566
-0.08081	0.15117
-0.00431	0.15117
-0.28482	0.48277
-0.10631	0.12566
-1.81492	0.20219
1.32178	0.04914
0.35272	0.12566
0.30171	-0.02739
1.21977	0.35523
0.70974	0.58480
-0.05531	-0.23145
0.35272	0.15117
-0.69285	-0.02739
-0.84586	0.25320
-0.38683	-0.02739
0.09770	-0.05289
0.37822	0.30422
0.32721	0.20219
1.72980	0.02363
0.83725	0.27871
-1.25389	0.30422
-1.61091	0.27871
1.37278	0.12566
1.65330	0.58480
0.12320	-0.05289
-2.73298	0.10015
0.70974	-0.41000
0.88825	0.25320
2.01032	0.04914
0.32721	0.40625
0.12320	0.81437
0.93925	0.63582
-0.28482	-0.02739
-1.76392	-0.20594
-0.46334	0.07465
-0.87136	-0.23145
0.91375	0.58480
1.21977	0.02363
0.73524	0.15117
0.99026	-0.25695
0.19971	0.07465
-0.89686	-0.41000
-1.17738	0.43176
0.12320	0.07465
0.27621	0.10015
-0.25932	0.38074
0.48022	0.02363
0.65874	0.66132
1.29628	0.63582
1.42379	0.94191
-0.36133	-0.02739
-0.66735	0.40625
-0.89686	-0.20594
-0.38683	-0.53754
0.83725	-0.02739
-0.53984	0.25320
-0.87136	0.04914
1.19427	0.07465
0.78624	-0.12942
1.98482	0.20219
0.07220	0.27871
-0.76936	0.50828
0.32721	0.20219
-0.18282	-0.58856
0.35272	-0.00188
0.22521	0.50828
0.09770	0.45726
-1.35589	0.48277
-0.41233	0.48277
1.75531	0.25320
-0.13181	-0.38449
-0.89686	0.10015
0.96476	-0.23145
0.70974	0.20219
0.12320	0.17668
0.40372	0.48277
-0.02981	-0.15492
-0.25932	-0.25695
1.04126	0.04914
0.83725	-0.10391
-0.89686	0.17668
-1.55991	0.91640
0.76074	0.30422
0.99026	0.12566
0.50573	-0.12942
0.50573	0.30422
0.30171	0.12566
0.04670	0.20219
0.27621	0.53379
0.07220	-0.00188
-0.15732	-0.25695
-0.69285	0.53379
0.25071	-0.30797
-0.02981	0.04914
0.12320	0.55929
-0.18282	0.48277
0.09770	0.50828
1.37278	-0.56305
1.19427	0.22769
-1.71292	-0.12942
-0.48884	-0.10391
1.72980	0.12566
1.27078	0.48277
-1.27939	0.32972
-1.45790	0.35523
0.78624	0.58480
0.17421	-0.07840
0.14870	0.02363
0.25071	0.10015
0.83725	0.10015
0.73524	0.25320
1.24527	0.15117
-0.08081	0.20219
-0.99887	0.25320
-0.43783	0.27871
-0.25932	-0.00188
0.27621	-0.10391
0.45472	-0.02739
-1.10088	0.12566
-0.69285	0.40625
0.30171	0.32972
0.25071	0.10015
1.90832	0.15117
1.24527	0.48277
-0.76936	0.07465
0.35272	0.20219
-0.13181	-0.35899
-0.43783	-0.46102
0.88825	0.35523
0.73524	0.38074
-0.10631	0.20219
-0.53984	0.30422
-0.08081	0.04914
1.65330	-0.30797
0.32721	0.38074
-3.09000	0.58480
-0.84586	0.02363
1.37278	0.30422
1.21977	0.35523
1.78081	0.22769
0.60773	-0.28246
-1.20288	-0.18043
-0.02981	-0.18043
-1.04987	-0.12942
0.60773	0.53379
0.99026	0.32972
0.17421	0.07465
-0.38683	0.50828
-0.13181	0.25320
0.22521	0.17668
1.42379	0.48277
0.76074	-0.51203
-2.09544	-0.43551
-0.64185	0.32972
0.55673	0.55929
0.53123	0.15117
0.30171	-0.15492
0.27621	0.04914
-0.00431	0.12566
0.76074	0.50828
1.04126	0.53379
1.55129	0.38074
2.18883	0.22769
-3.14101	-0.18043
-2.91149	-0.61406
-0.33583	0.63582
0.45472	-0.10391
1.44929	-0.10391
0.91375	0.45726
1.27078	0.12566
1.24527	0.04914
-0.46334	0.61031
-1.20288	0.12566
-0.31033	-0.00188
0.68424	0.25320
0.65874	0.12566
0.32721	0.04914
0.12320	0.58480
0.12320	0.30422
-0.56534	0.35523
-0.28482	0.22769
-0.00431	-0.18043
0.42922	-0.30797
-0.64185	-0.23145
-0.33583	-0.15492
0.45472	0.43176
0.76074	0.17668
2.03582	0.02363
-1.12638	0.40625
-0.87136	0.30422
1.55129	0.32972
1.42379	-0.25695
0.42922	0.58480
-0.28482	0.04914
-0.18282	-0.12942
-0.71835	-0.10391
-0.31033	0.40625
-0.08081	0.40625
1.78081	0.25320
0.88825	0.25320
-2.12094	-0.05289
-0.99887	-0.30797
-0.61635	-0.02739
0.45472	-0.23145
1.11776	0.10015
1.44929	0.27871
-0.05531	-0.10391
0.70974	0.38074
-1.17738	0.10015
-0.89686	0.58480
1.62780	0.25320
-0.00431	0.35523
0.50573	-0.15492
-0.13181	-0.30797
-0.41233	0.04914
-0.48884	0.02363
0.25071	-0.05289
1.16877	0.32972
0.83725	0.20219
0.70974	0.20219
-0.08081	0.15117
-1.04987	0.27871
-0.02981	-0.15492
-0.00431	0.45726
0.27621	0.25320
0.68424	0.48277
-0.51434	0.58480
-1.25389	-0.25695
-0.00431	-0.35899
2.16333	0.20219
0.17421	-0.07840
-0.74385	0.38074
0.19971	0.15117
0.81175	-0.33348
1.04126	0.22769
-0.33583	0.10015
0.04670	0.25320
-0.05531	0.43176
0.81175	0.48277
0.96476	0.12566
0.32721	0.04914
-0.56534	0.27871
-1.33039	-0.30797
0.50573	0.04914
-0.08081	-0.05289
-0.99887	-0.07840
1.11776	0.63582
-0.33583	0.76336
-0.36133	-0.63957
1.55129	1.42656
0.12320	-0.10391
0.35272	-1.09871
0.40372	0.27871
0.12320	-0.46102
-0.15732	0.27871
0.19971	0.38074
0.58223	0.20219
-0.25932	0.17668
-0.05531	0.35523
1.44929	0.76336
1.04126	0.22769
-0.08081	0.25320
-2.55447	0.04914
-1.45790	-0.15492
0.73524	-0.28246
1.27078	-0.00188
0.40372	0.12566
-0.94787	0.02363
1.80631	0.12566
0.42922	-0.00188
0.40372	0.22769
-0.02981	0.22769
-0.84586	0.02363
0.32721	-0.15492
-0.38683	0.32972
-0.43783	0.38074
0.76074	0.61031
0.60773	0.38074
0.68424	0.35523
1.29628	0.07465
-0.41233	-0.15492
-2.12094	-0.18043
0.12320	0.25320
0.53123	0.38074
1.16877	0.32972
1.16877	0.25320
0.17421	-0.07840
-0.25932	0.30422
-0.02981	0.25320
0.17421	0.20219
-1.30489	-0.02739
0.45472	0.04914
0.83725	0.22769
-0.28482	-0.07840
0.73524	0.15117
0.19971	-0.07840
0.07220	-0.07840
-0.61635	0.27871
0.14870	0.22769
1.83181	0.38074
0.81175	-0.02739
-1.84042	0.22769
-1.17738	0.12566
0.30171	0.10015
0.88825	-0.15492
1.16877	0.48277
-0.53984	0.02363
0.42922	0.27871
0.53123	0.27871
-0.00431	0.04914
0.17421	0.30422
-0.28482	0.04914
0.37822	0.02363
0.48022	0.04914
-0.51434	0.25320
-0.56534	0.12566
0.96476	0.22769
0.04670	0.17668
0.73524	0.04914
0.22521	0.17668
-0.69285	0.22769
0.07220	0.17668
0.14870	0.30422
0.78624	0.04914
0.53123	-0.18043
-1.22839	-0.10391
-0.76936	0.55929
0.96476	0.22769
1.27078	0.30422
3.20890	0.15117
0.19971	-0.25695
-2.42696	0.55929
-0.97337	0.35523
-0.18282	0.15117
0.55673	-0.00188
1.24527	0.15117
0.50573	-0.18043
-0.84586	-0.05289
0.63323	0.22769
-0.31033	0.38074
-0.08081	0.12566
0.55673	0.10015
0.78624	-0.02739
0.58223	0.02363
-1.20288	0.38074
-1.17738	0.43176
1.37278	-0.51203
1.88281	0.25320
-0.28482	0.35523
-0.33583	0.02363
0.17421	0.48277
0.73524	0.25320
1.01576	0.22769
-1.61091	-0.97117
-2.75848	0.45726
0.19971	-0.07840
0.78624	-0.12942
1.01576	0.50828
0.65874	0.40625
-0.31033	0.04914
0.70974	0.35523
1.09226	-0.07840
-0.43783	-0.15492
0.19971	0.15117
0.37822	0.02363
0.12320	0.10015
0.35272	0.04914
-0.48884	0.17668
-0.36133	-0.02739
0.48022	0.04914
-0.41233	0.25320
0.55673	0.17668
0.30171	0.55929
-0.13181	0.25320
-0.46334	0.38074
-2.04444	0.15117
1.47479	0.25320
1.80631	0.71234
0.93925	-0.46102
0.50573	0.07465
0.99026	0.43176
-0.69285	-0.02739
-1.53441	-0.07840
-2.45246	0.02363
0.02119	-0.02739
1.65330	0.50828
0.14870	-0.33348
1.83181	0.12566
0.93925	0.45726
-0.05531	0.50828
2.01032	0.17668
0.12320	0.48277
-2.09544	-0.10391
-1.27939	0.38074
-0.82036	-0.05289
0.58223	0.12566
-0.61635	0.15117
0.17421	0.27871
1.65330	0.12566
1.72980	0.35523
0.88825	0.10015
0.48022	-0.20594
-0.43783	0.48277
0.19971	0.07465
-0.48884	0.07465
-0.48884	0.17668
-1.04987	-0.12942
0.04670	-0.07840
0.60773	0.12566
0.81175	0.20219
-0.23382	0.35523
-1.71292	-0.07840
1.01576	0.45726
2.36734	-0.07840
-0.79486	0.25320
-0.97337	0.12566
0.91375	0.22769
1.34728	0.17668
1.47479	0.73785
-0.05531	0.15117
0.27621	-0.18043
-0.76936	-0.15492
-0.53984	0.07465
-1.22839	-0.30797
1.01576	0.04914
0.12320	0.15117
0.30171	0.38074
-0.66735	0.27871
-0.31033	0.20219
0.68424	0.30422
0.53123	0.17668
-0.00431	0.04914
0.02119	0.38074
0.60773	0.10015
0.60773	-0.94566
-0.51434	-0.00188
-0.94787	-0.20594
-1.04987	0.55929
0.88825	0.61031
1.60230	0.66132
1.70430	0.25320
0.70974	-0.07840
0.35272	0.20219
-0.92237	-0.07840
-0.97337	-0.07840
0.45472	0.04914
0.37822	-0.07840
0.04670	0.30422
-1.68742	0.43176
-0.23382	0.20219
1.62780	0.32972
-1.22839	0.25320
-0.66735	0.02363
2.34184	0.10015
0.68424	-0.15492
0.07220	-0.10391
-0.00431	0.04914
-0.48884	0.12566
0.14870	0.25320
0.63323	0.71234
1.80631	0.15117
0.83725	-0.18043
-0.84586	-0.05289
-2.70748	0.07465
-0.59084	0.35523
0.60773	0.27871
0.63323	0.38074
-0.18282	0.25320
-0.02981	-0.05289
1.75531	-0.07840
1.01576	0.43176
-0.74385	0.02363
-0.38683	-0.07840
-0.23382	0.10015
0.14870	0.25320
0.60773	0.61031
0.55673	-0.48652
0.27621	0.30422
-0.43783	-0.00188
1.37278	0.22769
0.48022	0.40625
-1.84042	-0.07840
-0.59084	-0.00188
1.44929	0.15117
0.76074	0.07465
-1.40690	0.35523
-1.30489	0.17668
1.24527	0.35523
1.21977	0.12566
0.02119	0.04914
1.01576	0.04914
0.04670	-0.18043
-0.43783	0.10015
-0.79486	0.45726
-0.15732	0.07465
0.70974	0.17668
-0.66735	0.20219
0.76074	0.25320
0.91375	0.02363
0.53123	0.40625
0.22521	0.15117
0.32721	0.15117
-0.08081	-0.12942
-0.25932	-0.23145
0.22521	-0.07840
-0.10631	0.45726
-0.84586	0.25320
0.32721	0.45726
0.63323	0.30422
0.32721	-0.05289
-0.00431	0.12566
-0.02981	-0.23145
0.37822	-0.02739
0.93925	0.25320
0.53123	-0.00188
0.42922	0.04914
-0.18282	0.12566
-3.01350	0.12566
-0.87136	0.15117
1.55129	0.25320
0.83725	0.20219
0.93925	0.30422
0.65874	0.12566
-0.08081	0.10015
0.19971	0.15117
0.45472	0.04914
0.09770	0.22769
-0.02981	0.22769
0.58223	0.20219
0.42922	0.45726
-0.43783	0.40625
-0.59084	0.43176
-0.13181	-0.05289
0.63323	-0.41000
-0.25932	-0.05289
-0.89686	-0.28246
0.07220	0.15117
0.78624	0.30422
0.50573	0.32972
0.63323	0.25320
0.48022	0.78886
-0.48884	-0.00188
0.53123	0.20219
0.12320	0.38074
-0.41233	0.12566
1.09226	-0.05289
0.50573	0.07465
0.14870	-0.05289
-0.00431	-0.00188
0.12320	0.22769
0.30171	0.04914
-0.33583	0.02363
-0.97337	0.12566
-0.84586	0.10015
0.07220	0.15117
0.78624	0.22769
0.63323	0.25320
0.91375	0.48277
0.60773	0.30422
-1.76392	-0.00188
-0.66735	0.12566
0.70974	-0.15492
1.98482	-0.25695
-0.41233	-0.02739
0.17421	0.35523
0.76074	-0.25695
0.63323	0.50828
-0.76936	0.30422
-0.31033	0.22769
1.24527	0.58480
0.81175	0.55929
0.40372	0.35523
1.19427	-0.23145
-1.12638	-0.38449
-2.19745	0.25320
-0.71835	0.38074
0.42922	-0.38449
-0.41233	-0.18043
0.93925	-0.28246
1.60230	0.35523
1.29628	0.30422
-0.02981	0.53379
-1.71292	0.53379
-1.22839	0.25320
0.86275	-0.10391
0.93925	-0.07840
0.96476	0.07465
0.53123	0.20219
0.53123	0.04914
0.70974	0.15117
0.25071	0.20219
-1.76392	0.27871
-0.94787	0.04914
1.01576	-0.07840
0.88825	-0.28246
-0.53984	0.27871
-1.45790	0.45726
3.00489	0.35523
1.52579	-0.10391
-4.72211	0.35523
-1.38139	0.15117
4.81550	-0.07840
3.84644	-0.15492
-1.58541	0.40625
-4.64560	-0.18043
0.40372	-0.28246
2.39285	0.27871
0.73524	0.20219
-0.43783	-0.18043
1.44929	0.25320
1.44929	0.10015
0.09770	0.43176
-1.40690	0.55929
-1.30489	-0.05289
-0.53984	0.25320
0.55673	0.02363
0.68424	0.63582
0.30171	-0.30797
0.27621	0.15117
0.73524	0.40625
-0.41233	0.04914
0.04670	-0.07840
0.45472	0.07465
-0.66735	0.30422
-1.15188	0.40625
0.68424	-0.35899
0.96476	0.32972
1.11776	0.15117
0.60773	0.22769
1.37278	0.32972
-0.69285	-0.46102
-3.54903	0.10015
1.37278	-0.10391
0.07220	-0.00188
2.31634	0.45726
-0.99887	-0.05289
-3.39602	0.35523
1.47479	0.38074
2.34184	0.32972
0.99026	0.32972
0.12320	0.10015
0.09770	0.15117
0.30171	0.22769
-0.15732	-0.00188
-0.64185	-0.15492
-1.02437	-0.00188
-0.61635	0.58480
1.01576	0.02363
0.65874	-0.00188
1.83181	0.07465
-0.10631	0.40625
-2.50347	-0.25695
-0.28482	0.20219
0.30171	0.04914
0.83725	0.76336
1.01576	0.10015
1.75531	0.04914
0.22521	-0.25695
-1.38139	-0.23145
-0.13181	-0.02739
0.60773	0.27871
1.09226	0.27871
0.14870	0.40625
-0.53984	-0.00188
-0.10631	0.32972
0.04670	0.22769
0.07220	0.27871
1.14327	0.58480
-0.43783	-0.15492
-0.94787	-0.00188
1.01576	-0.10391
0.12320	-0.25695
-0.48884	0.45726
-0.18282	0.17668
-0.28482	0.04914
0.42922	0.40625
-0.00431	0.04914
0.25071	-0.43551
1.34728	0.32972
1.04126	0.45726
0.53123	0.30422
0.60773	0.81437
0.12320	-0.25695
-0.18282	0.12566
-0.36133	-0.10391
-0.38683	-0.48652
0.12320	0.22769
-0.00431	0.02363
-0.08081	0.25320
-1.20288	0.17668
0.09770	0.71234
0.45472	0.35523
0.42922	0.25320
0.53123	0.30422
0.76074	0.10015
0.19971	-0.43551
2.87738	0.07465
-1.99343	0.15117
-4.21208	0.20219
1.19427	0.07465
1.14327	0.96742
1.88281	0.50828
0.25071	-0.20594
0.68424	-0.48652
0.35272	-0.41000
0.81175	0.17668
-0.23382	-0.10391
-0.94787	0.27871
-0.18282	0.55929
0.12320	0.35523
0.22521	0.55929
0.27621	0.48277
-0.38683	-0.61406
-0.08081	-0.07840
-0.15732	0.15117
-0.48884	0.78886
1.01576	0.35523
0.53123	0.30422
1.24527	-0.35899
0.68424	0.04914
-1.45790	-0.18043
0.83725	-0.05289
0.22521	-0.15492
-0.59084	0.27871
-0.05531	0.45726
0.07220	0.25320
-0.02981	0.02363
1.21977	0.02363
0.68424	0.25320
0.53123	0.22769
0.14870	0.30422
0.83725	0.15117
0.14870	0.15117
-1.40690	0.53379
-2.22295	-0.30797
-0.38683	0.40625
0.88825	-0.38449
1.01576	-0.69059
1.88281	0.02363
-0.13181	0.25320
-2.04444	0.71234
0.70974	0.55929
1.44929	0.66132
0.73524	0.38074
0.40372	0.20219
-0.31033	-0.23145
-0.59084	-0.33348
0.68424	-0.23145
-0.25932	0.25320
0.12320	-0.30797
0.78624	0.30422
0.12320	0.30422
0.58223	0.10015
0.04670	0.07465
-0.31033	0.38074
-0.61635	0.25320
-0.28482	-0.63957
0.27621	0.20219
0.50573	0.17668
0.81175	0.22769
0.63323	0.58480
0.91375	-0.00188
0.27621	0.35523
-1.45790	0.38074
-0.08081	0.61031
0.48022	-0.05289
0.86275	-0.28246
-0.20832	-0.15492
0.40372	0.02363
1.42379	0.12566
-0.71835	0.40625
-1.15188	0.20219
0.35272	0.35523
-0.41233	-0.05289
-0.05531	-0.05289
1.11776	0.17668
1.14327	-0.00188
1.14327	0.32972
0.19971	0.25320
-0.20832	-0.05289
0.42922	0.40625
-0.28482	0.17668
-1.43240	-0.15492
-0.36133	0.02363
0.70974	0.10015
0.17421	0.55929
-0.20832	0.35523
0.40372	0.30422
1.04126	-0.02739
0.17421	0.20219
-0.74385	0.02363
-0.18282	0.04914
-0.05531	0.15117
0.60773	-0.00188
0.40372	-0.10391
0.63323	-0.15492
-0.31033	0.35523
1.21977	0.04914
-1.10088	0.25320
-1.66191	0.45726
1.62780	-0.02739
2.69887	0.55929
0.60773	0.04914
-0.61635	0.20219
-0.84586	-0.07840
-0.15732	-0.15492
-0.25932	-0.10391
0.42922	-0.05289
0.12320	0.40625
1.29628	0.30422
-0.25932	0.25320
-2.32496	0.30422
0.45472	-0.25695
0.91375	0.17668
-0.53984	-0.23145
1.75531	0.40625
0.09770	0.10015
-1.33039	0.17668
1.27078	0.38074
1.72980	0.55929
-0.33583	0.35523
-0.53984	0.45726
-0.10631	-0.48652
0.76074	-0.07840
-0.02981	-0.07840
-0.36133	-0.35899
0.48022	0.55929
1.19427	0.27871
-0.74385	0.25320
-0.76936	0.15117
0.86275	0.30422
0.65874	-0.71609
-1.12638	0.30422
-0.59084	0.73785
-0.31033	-0.43551
-0.05531	0.12566
0.96476	0.22769
0.76074	0.58480
0.42922	-0.15492
1.75531	0.63582
0.04670	0.20219
-3.31952	0.04914
0.12320	0.40625
1.50029	0.50828
1.75531	0.04914
0.48022	-0.28246
-1.04987	-0.48652
-0.84586	-0.12942
0.12320	-0.10391
0.25071	0.45726
1.37278	0.55929
0.93925	0.40625
-0.02981	0.83988
0.42922	-0.58856
-0.82036	0.17668
-3.49803	-0.20594
-0.23382	0.35523
1.11776	0.32972
2.39285	-0.05289
2.21434	0.45726
0.81175	0.30422
-2.19745	-0.00188
-2.40146	-0.10391
0.60773	-0.10391
1.14327	0.25320
0.96476	0.35523
-0.20832	0.12566
-0.08081	-0.25695
0.55673	0.48277
-0.36133	0.27871
-0.48884	-0.15492
0.12320	0.04914
1.57679	-0.02739
-0.05531	0.25320
-0.99887	-0.02739
-0.84586	0.27871
-0.99887	-0.07840
-0.20832	0.17668
1.11776	-0.02739
1.34728	0.20219
1.70430	0.58480
0.88825	0.27871
-0.61635	0.61031
1.04126	0.07465
0.53123	0.15117
-2.24845	-0.00188
-0.46334	-0.71609
-0.36133	0.27871
-0.89686	0.04914
1.14327	0.25320
1.70430	0.17668
0.63323	0.32972
-1.96793	-0.38449
-0.28482	0.17668
-0.05531	0.32972
1.14327	0.10015
1.57679	0.12566
0.32721	-0.00188
0.55673	0.32972
-0.02981	0.43176
-0.36133	0.07465
0.42922	0.10015
-1.25389	-0.46102
-1.20288	-0.10391
0.73524	0.43176
-0.00431	0.27871
0.04670	0.55929
0.14870	0.89089
0.48022	-0.25695
0.93925	-0.48652
0.81175	-0.12942
1.04126	0.32972
0.02119	-0.02739
-0.31033	0.25320
0.09770	-0.12942
-0.48884	-0.58856
-0.28482	0.27871
-1.71292	0.04914
0.12320	0.30422
1.09226	0.35523
3.10689	0.50828
0.35272	0.27871
-2.96250	0.17668
-0.15732	-0.05289
0.30171	-0.20594
0.12320	-0.18043
0.09770	0.40625
-0.71835	0.27871
1.62780	0.40625
1.75531	0.20219
0.65874	-0.33348
0.50573	0.10015
-0.10631	0.45726
-1.43240	0.55929
0.14870	-0.10391
-0.48884	0.30422
-1.20288	0.22769
-0.08081	0.04914
1.50029	-0.30797
1.60230	0.22769
0.09770	0.35523
0.32721	0.17668
0.88825	0.35523
0.07220	-0.02739
0.30171	0.30422
-1.96793	0.10015
0.09770	0.04914
1.24527	-0.07840
0.99026	0.17668
0.70974	0.38074
-0.02981	-0.05289
-1.86593	0.32972
-1.12638	0.12566
-0.02981	-0.12942
0.70974	-0.05289
0.53123	0.48277
1.04126	0.43176
0.60773	-0.12942
0.48022	0.43176
1.42379	0.53379
0.02119	0.35523
-2.06994	-0.07840
-0.87136	-0.10391
0.50573	-0.00188
0.99026	0.10015
0.70974	0.30422
-0.61635	-0.02739
1.09226	-0.28246
-0.33583	0.45726
-0.00431	0.66132
0.99026	-0.25695
-1.10088	0.38074
0.35272	-0.07840
0.63323	0.17668
0.58223	0.25320
-0.76936	0.25320
-0.92237	-0.10391
1.60230	0.12566
-0.79486	-0.07840
-0.84586	-0.10391
1.93382	0.50828
0.81175	0.58480
0.50573	0.15117
0.22521	-0.12942
-0.92237	0.12566
-1.10088	-0.20594
0.04670	0.22769
0.04670	0.45726
1.50029	0.43176
0.99026	0.40625
0.37822	0.04914
-0.33583	0.27871
-0.48884	-0.12942
0.32721	-0.46102
0.17421	0.25320
-0.61635	0.10015
-0.41233	0.38074
-0.53984	0.71234
0.68424	-0.30797
1.65330	0.17668
0.14870	-0.18043
-0.89686	0.40625
0.50573	0.43176
1.14327	0.38074
0.63323	0.38074
0.02119	-0.20594
0.19971	-0.10391
0.53123	0.04914
-0.51434	-0.18043
-0.10631	0.22769
-0.05531	0.45726
0.04670	-0.46102
-0.08081	0.55929
-0.82036	-0.00188
0.32721	0.27871
0.60773	0.10015
0.02119	0.20219
0.48022	0.35523
1.24527	0.45726
-0.69285	0.45726
-0.13181	-0.10391
-0.59084	-0.25695
-0.02981	0.30422
0.17421	0.15117
0.68424	-0.12942
0.60773	-0.05289
0.63323	0.20219
0.63323	0.12566
0.76074	0.68683
-0.13181	0.20219
0.19971	0.04914
-0.76936	0.12566
-0.38683	0.12566
0.02119	0.27871
0.53123	0.10015
0.58223	0.25320
-0.08081	-0.07840
-0.59084	-0.15492
0.55673	0.25320
1.47479	0.12566
-0.33583	0.35523
-2.47797	0.15117
0.22521	0.15117
0.27621	0.17668
-0.25932	0.22769
0.83725	0.20219
1.75531	0.12566
1.01576	-0.43551
0.17421	-0.15492
0.58223	0.58480
0.30171	0.55929
-0.51434	0.48277
-0.13181	-0.28246
-0.18282	-0.05289
-0.08081	0.02363
-0.18282	0.12566
-0.20832	0.38074
-0.51434	0.25320
0.55673	0.45726
1.04126	-0.00188
-0.66735	-0.00188
0.40372	0.10015
-0.13181	0.30422
-1.71292	0.10015
-0.08081	0.04914
1.42379	0.04914
0.76074	0.04914
0.86275	0.30422
