-0.99887	0.58480
-0.82036	-0.20594
-0.33583	-0.25695
0.78624	0.20219
1.95932	0.55929
2.67337	-0.30797
1.55129	0.73785
-1.66191	0.76336
-3.14101	-0.48652
-1.78942	-0.74160
0.09770	0.10015
1.44929	0.20219
1.75531	-0.02739
0.76074	0.71234
0.81175	0.17668
-0.76936	0.32972
-0.43783	0.15117
0.30171	-0.00188
1.04126	0.38074
0.63323	0.20219
-0.69285	-0.05289
-1.02437	0.07465
0.07220	-0.12942
-0.20832	-0.38449
0.42922	0.04914
0.93925	0.25320
0.99026	0.45726
0.60773	0.35523
0.09770	0.27871
0.02119	0.10015
-0.18282	0.10015
-0.71835	0.22769
-0.59084	-0.10391
-0.23382	-0.23145
0.27621	0.30422
0.32721	0.53379
0.37822	0.25320
0.40372	0.12566
0.55673	0.15117
1.24527	0.10015
0.70974	-0.30797
-0.48884	0.02363
-0.97337	0.53379
-0.08081	0.15117
-0.36133	0.48277
-0.71835	0.27871
1.55129	0.71234
1.67880	0.15117
-0.43783	0.12566
-1.71292	0.45726
0.65874	0.10015
2.80087	-0.05289
2.39285	-0.41000
-0.53984	0.04914
-3.62554	-0.56305
-0.28482	-0.00188
-0.13181	0.30422
-1.55991	0.10015
0.32721	0.53379
1.93382	0.55929
1.24527	0.35523
0.48022	0.22769
0.88825	0.25320
0.88825	0.27871
0.42922	0.04914
-2.27395	-0.56305
-0.25932	-0.25695
-0.05531	0.15117
0.19971	0.73785
0.40372	0.15117
-0.08081	0.43176
-1.45790	0.12566
-0.18282	-0.07840
1.32178	0.38074
1.29628	0.53379
0.93925	0.45726
0.81175	0.25320
0.60773	0.27871
0.42922	0.17668
-0.02981	-0.05289
-0.31033	0.04914
-0.41233	-0.00188
-0.66735	-0.15492
-0.25932	-0.07840
0.04670	0.04914
0.37822	0.27871
0.35272	0.61031
0.96476	-0.18043
0.99026	0.35523
-2.27395	-0.12942
-0.82036	-0.41000
0.09770	-0.15492
0.86275	0.22769
1.72980	0.86539
-0.82036	1.12046
-1.78942	0.27871
0.48022	0.22769
2.54586	0.22769
1.72980	-0.20594
0.45472	0.91640
-2.55447	0.35523
-0.69285	0.02363
0.50573	-0.76711
1.04126	-0.25695
0.09770	0.15117
2.52035	0.53379
0.53123	0.04914
-5.28315	-0.46102
-1.63641	0.17668
1.01576	-1.14973
1.24527	0.81437
1.72980	0.50828
1.78081	1.04394
2.29084	0.38074
2.34184	0.32972
-2.78398	0.10015
-3.19201	0.07465
1.14327	-0.79262
-2.83499	0.15117
-1.50890	0.02363
-0.46334	-0.18043
2.39285	0.50828
2.41835	1.04394
1.01576	0.91640
2.46935	1.17148
1.34728	-0.15492
0.30171	-0.58856
-1.89143	-0.51203
-2.98800	-1.96597
-1.45790	-0.30797
0.25071	0.10015
1.62780	0.48277
-0.99887	1.14597
0.81175	0.61031
1.75531	0.86539
1.24527	0.91640
0.83725	0.30422
3.54042	0.15117
1.24527	-0.71609
-3.70204	-0.10391
-3.80405	-1.09871
-2.19745	-0.86914
-2.01894	0.12566
-1.99343	0.02363
3.31091	0.71234
3.33641	1.14597
1.27078	0.43176
0.40372	0.58480
0.02119	0.94191
2.21434	0.35523
-3.14101	-0.51203
1.21977	-0.46102
1.95932	-0.28246
0.17421	-0.58856
-1.61091	0.02363
-2.04444	0.66132
-0.00431	0.35523
0.91375	1.27351
-0.31033	-0.18043
1.95932	0.17668
0.63323	0.45726
-3.47253	-0.43551
-1.20288	-0.48652
2.01032	-1.14973
4.07596	-0.99668
1.24527	1.35003
-0.18282	1.45206
-0.08081	1.22250
1.34728	0.63582
-0.20832	0.53379
-3.19201	0.45726
-4.44159	-0.15492
-2.52897	-1.45582
0.58223	-0.46102
2.57136	-0.48652
2.97938	-0.05289
3.48942	0.50828
2.44385	1.32453
0.45472	0.22769
-1.30489	-1.27726
1.78081	0.61031
-2.06994	-0.02739
-1.15188	0.07465
-1.33039	-0.33348
-3.52353	-0.18043
0.09770	0.66132
2.77537	0.96742
1.55129	0.61031
0.17421	0.61031
-0.51434	0.43176
0.30171	0.17668
0.02119	0.07465
-0.79486	-0.46102
1.65330	-0.58856
1.04126	-0.05289
-0.43783	0.45726
-0.94787	0.32972
-1.02437	-0.25695
1.24527	-0.00188
0.07220	0.20219
1.52579	-0.41000
1.62780	-0.12942
-0.38683	0.32972
-0.00431	0.25320
0.63323	0.71234
-0.74385	1.55410
-0.10631	0.71234
0.55673	0.40625
-2.57997	-0.23145
0.30171	0.38074
1.09226	-0.43551
1.55129	-0.48652
1.75531	-0.15492
-2.22295	0.12566
-3.06450	-1.60887
0.04670	0.89089
1.21977	0.73785
2.11233	-0.12942
2.01032	0.50828
0.07220	1.04394
0.50573	0.53379
-0.18282	0.30422
0.19971	-0.07840
-0.10631	0.20219
1.44929	-0.81812
-0.53984	0.30422
-3.65104	0.63582
1.04126	-0.30797
-0.10631	-0.79262
-2.01894	-0.76711
-1.22839	0.35523
2.67337	0.76336
2.85188	0.96742
1.78081	0.38074
1.21977	0.22769
-1.33039	-0.23145
-1.30489	0.15117
0.83725	0.71234
0.99026	0.27871
0.45472	0.25320
1.50029	-0.02739
1.80631	-0.05289
-5.81868	-0.51203
-5.89518	-0.00188
-0.10631	-0.10391
4.40748	0.04914
3.41291	0.53379
1.85731	0.04914
1.01576	0.63582
-0.13181	0.17668
-1.15188	0.48277
-0.46334	-1.37929
-0.13181	0.35523
-0.18282	-0.12942
-0.25932	0.50828
-0.48884	0.68683
1.32178	1.40105
0.35272	0.86539
-1.10088	0.02363
-0.00431	-0.05289
1.01576	-0.79262
-1.40690	-0.25695
-2.35046	-0.07840
0.88825	0.38074
1.14327	0.12566
3.18340	-0.18043
1.37278	-0.23145
-0.20832	-0.30797
1.14327	0.66132
0.93925	0.55929
-0.71835	0.04914
-0.82036	0.17668
-0.31033	0.55929
0.70974	-0.63957
-2.32496	0.02363
-4.11007	0.53379
0.86275	-0.15492
0.35272	0.48277
1.06676	-0.12942
1.72980	0.10015
1.85731	0.63582
0.73524	1.04394
-0.00431	-0.79262
1.47479	0.04914
-0.84586	0.73785
0.02119	0.32972
-0.48884	0.15117
-1.10088	0.25320
2.16333	-0.15492
2.44385	0.15117
0.40372	0.40625
-1.30489	-0.15492
-2.01894	0.32972
0.02119	-0.07840
1.50029	-0.00188
-1.53441	-0.41000
-1.71292	-0.53754
2.06133	-0.15492
1.34728	0.89089
-0.10631	0.15117
0.73524	0.10015
-0.38683	0.15117
-0.25932	0.40625
0.32721	0.53379
2.03582	0.12566
0.50573	0.38074
-0.18282	0.04914
-4.11007	-0.20594
1.34728	0.86539
1.75531	-2.22105
1.27078	0.32972
0.19971	0.32972
-0.13181	0.27871
-0.79486	0.83988
0.12320	1.22250
2.21434	-0.05289
-3.03900	0.50828
-0.28482	-0.25695
1.67880	-0.46102
2.18883	-0.25695
0.68424	0.45726
-5.10463	-0.12942
-0.38683	-0.12942
0.37822	-0.81812
-0.08081	-0.25695
0.25071	-0.00188
0.96476	0.12566
1.75531	0.86539
1.29628	0.22769
1.32178	1.04394
1.50029	1.01843
-0.46334	0.04914
-2.91149	-0.15492
0.04670	-0.86914
0.76074	0.40625
-3.29402	-0.20594
0.91375	0.38074
3.51492	0.27871
-1.33039	-0.23145
-0.92237	0.66132
0.86275	0.12566
0.93925	-0.25695
-0.64185	0.22769
1.29628	-0.10391
0.40372	-0.20594
-1.76392	0.61031
0.86275	-0.23145
0.88825	0.61031
0.17421	0.32972
1.29628	0.30422
-0.48884	-0.23145
0.19971	-0.18043
0.04670	0.07465
-1.91693	0.25320
-0.23382	-0.46102
1.14327	1.47757
1.06676	-1.02219
1.24527	0.78886
-0.23382	-0.05289
-1.81492	0.07465
0.73524	0.63582
1.32178	0.76336
-1.61091	0.58480
1.90832	0.32972
-0.69285	-0.02739
-1.89143	-0.07840
0.93925	-0.23145
1.19427	-0.23145
1.50029	0.17668
1.24527	0.43176
-0.33583	0.30422
-0.10631	-0.25695
-0.41233	0.22769
-0.08081	0.27871
1.29628	-0.05289
0.07220	0.30422
0.09770	0.27871
-0.97337	0.04914
-1.73842	0.15117
-0.36133	0.32972
3.99945	0.48277
0.76074	-0.25695
-6.37972	0.07465
-2.70748	-0.38449
1.29628	-0.74160
2.29084	1.55410
1.78081	-1.04770
1.06676	0.45726
2.18883	0.76336
3.41291	1.09496
1.04126	0.78886
-0.64185	0.45726
-1.66191	-0.02739
-5.51266	-0.56305
0.58223	-0.63957
1.39828	-0.48652
1.01576	0.10015
1.24527	0.81437
-0.31033	0.10015
0.55673	0.45726
1.50029	-0.58856
1.52579	0.22769
-1.96793	0.48277
-1.15188	0.17668
-0.48884	0.20219
-1.12638	-0.15492
1.19427	-0.07840
0.42922	0.58480
-0.53984	-0.05289
0.09770	0.55929
-2.91149	-0.35899
0.17421	0.53379
4.86651	0.38074
3.38741	0.07465
1.44929	0.71234
-2.14644	0.22769
0.86275	-0.35899
-0.46334	0.02363
0.09770	0.53379
0.60773	0.04914
-0.51434	-0.81812
-0.25932	-0.84363
-2.27395	0.10015
-0.59084	0.43176
0.30171	0.96742
0.70974	0.86539
2.72437	0.10015
0.04670	-0.07840
-7.75680	-0.74160
1.83181	0.02363
2.57136	-0.63957
2.57136	0.04914
2.03582	0.45726
2.29084	0.96742
0.19971	0.68683
-1.17738	0.76336
-0.94787	0.45726
1.70430	-0.25695
0.45472	0.17668
-2.80949	0.61031
-2.45246	0.04914
-0.31033	-0.38449
0.02119	-1.02219
-0.82036	-0.56305
3.28540	0.48277
0.63323	-0.10391
-0.79486	0.17668
-0.61635	0.73785
1.14327	0.94191
0.73524	-0.15492
-1.07538	0.35523
-1.96793	0.45726
2.08683	0.25320
1.93382	0.55929
-0.43783	-0.05289
-1.33039	0.12566
2.18883	-0.81812
1.55129	-0.46102
0.53123	0.12566
-0.94787	0.81437
-0.84586	0.50828
-1.66191	-0.10391
1.04126	0.22769
0.07220	0.53379
-0.97337	0.50828
-0.89686	-0.97117
1.44929	0.35523
0.45472	-0.10391
-1.17738	0.48277
0.50573	0.27871
2.54586	-0.15492
1.80631	-0.02739
-2.83499	-0.12942
-3.14101	-0.00188
2.64786	0.25320
1.57679	0.73785
0.91375	-0.02739
0.40372	0.20219
0.35272	0.73785
-3.37052	0.15117
0.25071	0.02363
1.21977	-0.86914
0.09770	0.17668
0.32721	0.02363
1.44929	0.58480
2.59686	0.94191
-3.77855	0.12566
-3.67654	-0.02739
2.80087	0.40625
2.74987	-0.00188
2.31634	0.32972
0.88825	-0.25695
-0.10631	-0.25695
-2.88599	-0.05289
-2.91149	-0.05289
0.19971	-0.12942
0.81175	0.50828
1.09226	0.76336
1.11776	0.22769
0.53123	0.40625
-1.20288	-0.20594
-0.25932	-0.79262
1.50029	-0.30797
0.25071	0.86539
-2.42696	0.27871
-0.79486	0.38074
2.01032	0.25320
1.24527	-0.20594
0.42922	0.30422
0.53123	0.40625
1.95932	0.25320
0.91375	-0.25695
-1.02437	-0.18043
-3.09000	-0.46102
-1.81492	0.30422
1.70430	0.66132
0.96476	0.66132
1.47479	1.12046
-1.15188	-0.48652
0.12320	-0.15492
1.09226	-1.07320
-0.76936	-0.92016
-0.38683	0.25320
-1.84042	0.35523
0.76074	0.81437
1.88281	0.71234
1.62780	0.30422
0.12320	0.38074
-0.79486	0.20219
-0.23382	-0.05289
-0.23382	0.07465
-0.74385	-0.25695
-1.20288	-0.00188
0.65874	0.32972
0.42922	-0.48652
0.99026	0.25320
0.78624	0.04914
1.24527	0.25320
1.67880	0.50828
0.76074	-0.10391
0.32721	-0.25695
-3.16651	0.15117
-3.80405	0.22769
0.50573	0.27871
1.42379	-0.48652
1.24527	0.27871
1.14327	0.22769
0.12320	0.25320
-1.12638	0.30422
-0.46334	0.58480
1.93382	-0.15492
1.34728	0.38074
0.42922	0.32972
-3.44703	-0.69059
-0.94787	-0.15492
3.28540	0.10015
2.46935	0.91640
-0.59084	-0.10391
-0.59084	0.53379
-0.00431	-0.33348
0.53123	0.50828
3.43841	-0.63957
-2.27395	-0.30797
-6.40522	0.35523
-1.68742	0.48277
0.65874	0.66132
2.13783	0.71234
2.39285	-0.07840
2.57136	-0.05289
1.80631	0.38074
-0.28482	0.50828
-1.58541	-0.41000
0.07220	-0.46102
2.16333	-0.28246
-2.75848	0.20219
-5.20664	0.50828
1.55129	0.76336
2.01032	0.17668
2.57136	0.58480
2.62236	0.43176
-0.18282	-0.20594
0.07220	-0.41000
-0.23382	-0.20594
-0.13181	-0.07840
-0.51434	0.66132
-0.53984	0.10015
-0.48884	-0.07840
-0.25932	0.10015
0.02119	0.02363
0.40372	0.32972
-0.00431	-0.25695
0.14870	0.55929
-2.01894	-0.12942
0.25071	0.17668
1.06676	0.38074
2.36734	0.02363
2.31634	0.25320
0.48022	0.58480
-2.57997	0.12566
-0.94787	0.55929
1.65330	0.07465
0.25071	-0.56305
-1.50890	0.15117
-1.07538	-0.43551
1.47479	0.35523
-0.10631	-0.43551
-0.23382	0.45726
1.39828	0.81437
-0.38683	0.73785
0.09770	-0.00188
0.88825	-1.04770
-0.38683	-0.51203
-0.48884	0.50828
2.06133	0.94191
-0.08081	0.17668
-0.43783	0.50828
0.12320	0.68683
1.01576	0.25320
0.78624	0.02363
-0.25932	0.27871
-0.84586	-0.23145
-0.13181	-0.84363
-0.38683	0.17668
-0.92237	0.61031
1.65330	0.20219
-0.23382	0.15117
-0.46334	-0.48652
-0.15732	0.17668
0.60773	-0.48652
1.52579	0.35523
0.40372	0.61031
-0.41233	0.76336
-1.15188	0.32972
-0.25932	0.68683
1.95932	0.91640
0.65874	-0.23145
-0.94787	-0.71609
0.35272	-0.48652
0.53123	-0.53754
1.09226	0.35523
-1.61091	0.48277
-1.30489	0.40625
0.53123	0.02363
0.91375	0.27871
1.01576	0.25320
0.99026	0.20219
-0.28482	0.10015
0.35272	-0.05289
0.65874	0.27871
-0.33583	0.58480
0.09770	-0.58856
-0.48884	0.10015
-0.92237	-0.12942
-2.50347	0.32972
0.93925	0.25320
0.88825	0.53379
1.29628	0.02363
1.04126	-0.00188
-0.08081	0.71234
1.52579	-0.86914
1.62780	0.86539
-1.91693	0.38074
-1.89143	-0.20594
1.70430	0.07465
0.73524	-0.18043
-0.18282	-0.07840
-0.23382	0.12566
0.60773	0.66132
0.32721	0.58480
1.06676	0.17668
-0.84586	-0.66508
-0.74385	0.15117
-0.51434	-0.18043
-0.05531	-0.15492
-0.10631	0.07465
0.68424	0.45726
1.72980	0.73785
1.09226	0.53379
1.19427	0.48277
0.02119	0.32972
-1.15188	-0.33348
-1.43240	-0.10391
-1.55991	-0.35899
-0.71835	0.15117
1.72980	-0.10391
2.21434	0.32972
0.35272	0.35523
-0.46334	0.32972
0.07220	0.38074
0.50573	0.20219
0.50573	-0.05289
0.55673	0.17668
-0.66735	-0.10391
-0.79486	-0.05289
0.45472	0.76336
0.17421	-0.74160
0.37822	0.32972
0.68424	0.27871
0.40372	0.25320
0.12320	0.30422
-0.43783	0.48277
-1.22839	0.71234
0.53123	-0.20594
-0.41233	-0.00188
0.99026	0.04914
0.53123	0.25320
0.81175	0.53379
-1.12638	0.30422
2.29084	0.15117
4.27997	-0.05289
-0.08081	-0.05289
-5.05363	-0.25695
-2.24845	-0.10391
1.80631	-0.18043
0.53123	0.61031
-1.20288	-0.66508
-0.31033	-0.05289
1.60230	0.20219
1.27078	0.17668
0.91375	0.58480
1.62780	1.14597
-1.50890	0.53379
-0.84586	0.27871
1.75531	-0.38449
-0.08081	0.30422
-1.50890	-0.20594
-0.25932	0.04914
2.06133	0.07465
-0.00431	0.04914
-2.68198	-0.23145
-1.55991	0.04914
0.65874	0.35523
1.78081	0.07465
1.52579	0.12566
1.11776	-0.12942
1.11776	0.58480
-0.05531	0.50828
-0.13181	0.63582
-0.10631	0.32972
0.12320	0.10015
0.09770	-0.25695
-2.93700	-1.45582
-2.52897	0.04914
1.37278	0.68683
1.29628	0.63582
1.37278	-0.46102
-0.59084	-0.15492
0.60773	0.55929
1.21977	0.83988
1.29628	0.81437
0.27621	0.15117
-1.07538	-0.15492
-0.05531	-0.02739
0.50573	0.50828
-0.66735	0.35523
-0.69285	-0.10391
0.58223	0.02363
0.53123	0.15117
-0.48884	0.02363
0.30171	-0.18043
1.01576	0.15117
0.35272	-0.10391
-1.71292	-0.10391
-0.08081	0.12566
1.67880	0.25320
-1.38139	0.53379
1.37278	-0.05289
1.09226	0.02363
2.44385	0.25320
0.40372	0.48277
-5.18114	0.22769
-2.86049	0.83988
1.19427	-0.02739
1.75531	-0.33348
1.29628	0.04914
0.93925	0.22769
1.11776	0.30422
1.37278	0.40625
0.30171	0.15117
0.45472	0.53379
0.83725	0.17668
-0.53984	-0.05289
-1.12638	-0.30797
-1.43240	-0.10391
-1.96793	-0.10391
-1.48340	0.20219
1.95932	0.17668
2.34184	0.17668
0.99026	0.61031
0.50573	0.20219
-0.89686	0.07465
-1.40690	0.27871
0.48022	0.38074
1.19427	0.10015
-0.02981	0.02363
-0.87136	-0.38449
0.91375	-0.02739
1.72980	0.02363
-2.04444	0.35523
-0.64185	-0.33348
-0.25932	0.53379
-0.84586	-0.18043
1.70430	-0.07840
0.53123	0.32972
0.19971	0.38074
1.72980	0.94191
2.06133	0.38074
1.98482	-0.02739
-1.33039	0.15117
-2.09544	0.15117
-0.28482	-0.28246
0.68424	-0.15492
-0.69285	-0.00188
-1.33039	-0.02739
-0.31033	-0.12942
0.17421	-0.18043
-0.41233	0.35523
0.63323	0.58480
1.37278	0.17668
2.69887	0.66132
-1.96793	0.48277
-0.15732	0.48277
0.22521	0.15117
0.55673	0.07465
0.88825	-0.69059
2.36734	0.12566
-3.77855	0.17668
-3.77855	0.12566
1.50029	1.06945
3.31091	-0.58856
1.42379	-0.15492
-0.13181	-0.07840
0.73524	0.07465
-1.10088	0.45726
-0.66735	0.17668
-0.56534	0.02363
-3.11551	0.25320
2.97938	0.53379
2.87738	-0.51203
0.09770	0.66132
-1.10088	0.66132
0.50573	-0.76711
1.27078	0.76336
0.27621	0.22769
1.09226	-0.33348
0.19971	0.68683
-1.68742	0.02363
-0.05531	0.02363
-0.99887	-0.18043
-1.89143	0.30422
-0.28482	0.78886
1.85731	0.43176
1.39828	0.35523
0.17421	-0.15492
0.37822	-0.05289
1.55129	0.12566
0.40372	-0.12942
-1.10088	0.02363
-0.38683	0.10015
-0.28482	-0.56305
0.37822	0.35523
1.27078	0.71234
-1.04987	0.83988
0.60773	0.45726
0.68424	0.25320
1.24527	0.22769
1.32178	0.02363
-1.02437	0.07465
-0.20832	-0.69059
-1.07538	-0.35899
-2.24845	-0.15492
-0.38683	0.43176
0.53123	0.04914
1.19427	0.25320
0.73524	0.73785
0.35272	0.38074
0.22521	0.35523
1.19427	0.81437
0.32721	-1.68539
-0.10631	0.40625
-1.40690	0.20219
1.37278	0.04914
-1.38139	0.15117
-1.61091	0.25320
0.50573	0.63582
1.14327	-0.20594
1.57679	0.66132
1.93382	-0.10391
-0.79486	0.40625
-1.48340	-0.02739
-0.61635	-0.07840
-0.64185	0.40625
0.32721	0.38074
1.67880	-0.12942
0.07220	-0.05289
0.02119	0.43176
0.96476	0.35523
0.99026	-0.07840
1.62780	-0.02739
-2.01894	-0.20594
-2.42696	-0.43551
0.09770	0.35523
2.26534	0.53379
0.53123	1.01843
-0.89686	-0.61406
-0.08081	0.76336
-0.41233	0.22769
0.86275	0.12566
1.72980	0.04914
2.03582	0.55929
-0.31033	-0.35899
-1.50890	-0.25695
-0.64185	0.25320
0.73524	-0.15492
1.52579	0.12566
-1.61091	0.35523
-0.05531	0.71234
-0.69285	0.89089
0.30171	0.10015
-0.28482	0.40625
1.44929	-0.28246
-0.02981	-1.40480
0.50573	0.02363
0.42922	-0.02739
0.09770	0.94191
-0.25932	0.04914
0.14870	1.50308
0.81175	0.81437
0.60773	-0.05289
-0.00431	-0.38449
-0.28482	-0.28246
-0.89686	-0.46102
-1.10088	0.15117
0.48022	0.25320
0.30171	-0.05289
-0.23382	0.04914
0.96476	0.58480
3.54042	0.63582
2.23984	0.40625
-3.52353	0.25320
-3.11551	-0.12942
-3.09000	-0.53754
-0.05531	-0.18043
2.54586	0.55929
3.36191	0.53379
3.05589	0.45726
1.85731	0.32972
-0.00431	0.15117
0.48022	0.02363
-0.89686	0.38074
-3.31952	0.43176
-0.87136	0.45726
0.22521	0.07465
-0.97337	-0.81812
0.60773	-0.61406
1.72980	-0.46102
-2.52897	0.38074
-2.78398	1.22250
1.75531	1.24800
2.46935	-0.89465
1.44929	0.50828
1.67880	-0.97117
2.03582	-0.07840
-1.40690	0.81437
-2.01894	0.12566
0.58223	0.50828
0.73524	0.30422
0.63323	-0.00188
0.60773	0.17668
-0.31033	-0.61406
-0.41233	-0.15492
1.90832	0.32972
-0.74385	0.35523
-0.51434	0.04914
-0.53984	0.17668
-1.68742	0.10015
2.23984	0.17668
1.44929	-0.63957
-3.75305	0.55929
-0.89686	0.17668
1.50029	0.15117
1.95932	0.32972
0.65874	0.50828
1.39828	0.43176
1.93382	0.27871
-2.01894	0.07465
-0.66735	-0.15492
0.88825	0.04914
2.06133	0.20219
1.65330	0.15117
-3.39602	0.04914
-4.33958	0.35523
0.17421	-0.28246
1.70430	-0.00188
3.31091	0.35523
-1.76392	0.15117
0.14870	0.71234
0.76074	0.35523
0.81175	0.04914
0.73524	-0.00188
-2.17195	-0.05289
1.11776	0.30422
1.04126	0.04914
-0.51434	0.45726
0.93925	0.25320
0.68424	-0.58856
-0.69285	0.45726
-0.92237	-0.07840
-0.38683	0.15117
1.72980	0.55929
2.44385	0.43176
-0.74385	-0.48652
-5.30865	0.15117
-0.89686	0.04914
1.83181	-0.15492
2.26534	0.20219
2.16333	0.55929
-0.20832	0.45726
-0.25932	0.25320
-0.25932	0.02363
-0.69285	0.32972
0.32721	-0.07840
2.16333	-0.18043
0.48022	-0.00188
-0.33583	0.20219
-0.41233	0.27871
0.17421	0.07465
-1.55991	0.20219
-2.57997	0.50828
-1.58541	0.04914
0.99026	-0.35899
2.16333	0.38074
0.37822	0.25320
0.37822	0.17668
1.19427	-0.07840
1.01576	-0.23145
0.42922	0.43176
0.73524	1.17148
2.72437	0.43176
-0.87136	-0.30797
-1.91693	-0.10391
-0.20832	-0.71609
-0.38683	0.38074
-1.27939	0.12566
0.73524	0.38074
0.37822	0.58480
0.93925	0.61031
0.83725	0.32972
-0.71835	0.17668
0.91375	-0.38449
0.48022	-0.66508
-0.28482	-0.05289
0.83725	-0.38449
0.02119	0.17668
-1.10088	0.40625
0.81175	0.53379
-0.13181	0.02363
1.19427	0.22769
1.11776	0.17668
-1.45790	0.35523
-2.40146	0.30422
-0.46334	-0.05289
0.83725	0.12566
0.40372	0.71234
1.21977	0.32972
0.78624	-0.25695
3.03039	0.15117
-0.02981	-0.46102
-2.42696	0.15117
0.48022	-0.10391
0.45472	0.96742
0.27621	0.71234
0.50573	-0.23145
-0.51434	0.53379
-0.46334	-0.20594
0.42922	-0.30797
1.09226	0.25320
-1.10088	-0.53754
-1.30489	0.25320
0.78624	0.45726
0.91375	0.15117
0.65874	-0.20594
-0.36133	0.27871
0.93925	0.04914
1.70430	-0.07840
-2.52897	-0.25695
-4.49259	0.25320
2.92838	0.63582
2.52035	0.22769
1.37278	-0.00188
-0.61635	-0.07840
-1.61091	0.02363
0.32721	0.20219
0.78624	0.12566
0.78624	0.78886
1.14327	-0.07840
-1.20288	-0.81812
-0.38683	-0.00188
0.17421	0.10015
-0.41233	0.04914
0.99026	0.04914
1.11776	0.45726
-0.79486	0.48277
-0.15732	1.14597
0.22521	-0.30797
-1.35589	-0.02739
0.81175	0.40625
2.08683	0.40625
1.72980	-0.10391
-1.66191	0.71234
-1.17738	0.53379
-0.48884	-0.53754
-0.71835	-0.48652
1.50029	-0.28246
1.42379	-0.30797
1.75531	-0.05289
0.93925	1.01843
-0.79486	0.50828
-1.10088	0.38074
-0.10631	0.48277
1.57679	-0.30797
-0.41233	0.04914
-0.66735	-0.07840
-1.48340	-0.05289
-3.90606	0.55929
-0.48884	0.10015
2.01032	-0.07840
3.76993	0.25320
2.85188	0.17668
0.53123	-0.05289
-0.20832	0.04914
-1.33039	-0.07840
-0.28482	0.25320
1.24527	0.63582
-1.20288	0.17668
-0.61635	0.25320
0.32721	0.32972
0.09770	0.22769
0.12320	-0.12942
1.47479	0.15117
-1.22839	0.66132
-2.83499	-0.12942
0.09770	-0.46102
0.86275	-0.15492
0.78624	-0.46102
0.53123	-0.10391
0.55673	0.45726
0.42922	0.78886
0.93925	0.68683
0.35272	0.96742
-0.20832	-0.18043
-0.31033	0.20219
-1.38139	-0.20594
0.40372	-0.20594
0.55673	0.15117
1.60230	0.25320
0.32721	0.35523
-0.25932	-0.25695
-0.48884	0.02363
1.29628	0.15117
-0.38683	0.32972
-2.27395	0.30422
-1.63641	0.07465
1.14327	0.12566
2.18883	0.15117
-0.66735	0.12566
-0.38683	0.40625
2.16333	-0.05289
-1.58541	0.20219
-1.78942	-0.10391
0.96476	0.22769
1.85731	0.35523
1.78081	-0.07840
1.04126	0.43176
0.32721	0.04914
0.68424	0.04914
0.07220	0.40625
0.19971	0.55929
-2.14644	0.45726
-0.79486	0.27871
-0.56534	-0.23145
-0.08081	-0.18043
0.14870	0.15117
0.30171	0.32972
0.65874	0.20219
1.29628	0.15117
1.01576	-0.00188
-1.89143	-0.53754
-1.48340	-0.18043
1.55129	-0.15492
1.21977	0.55929
0.32721	0.35523
0.58223	0.40625
-1.12638	0.10015
-0.05531	0.27871
1.57679	0.15117
1.14327	0.35523
-0.46334	0.15117
-1.81492	0.20219
0.02119	0.20219
1.60230	-0.15492
0.12320	0.02363
-1.04987	0.04914
1.60230	0.20219
0.53123	-0.02739
-0.99887	-0.05289
-0.13181	0.35523
-2.42696	-0.48652
1.09226	0.73785
2.31634	0.22769
0.70974	-0.23145
0.19971	0.30422
-0.02981	0.45726
0.22521	0.32972
-1.38139	-0.69059
-0.20832	0.63582
0.37822	0.68683
0.68424	0.15117
0.55673	0.83988
0.19971	0.38074
0.02119	-0.33348
-0.43783	-0.84363
-0.66735	-0.23145
0.50573	0.02363
-0.59084	-0.07840
-0.05531	0.71234
0.32721	0.32972
0.09770	0.66132
1.52579	0.12566
1.67880	0.12566
0.19971	-0.05289
-2.96250	-0.41000
-1.84042	0.15117
2.06133	-0.05289
0.70974	-0.41000
1.37278	0.53379
-0.41233	0.43176
0.68424	0.89089
0.42922	0.07465
0.48022	0.27871
-0.05531	-0.20594
0.17421	-0.12942
-1.22839	0.02363
-1.22839	-0.35899
-0.84586	0.30422
-0.53984	0.35523
2.06133	0.20219
1.80631	0.27871
0.86275	0.55929
0.70974	0.07465
0.09770	-0.05289
-0.41233	-0.99668
-0.13181	-0.02739
0.42922	0.43176
-1.12638	0.53379
-0.28482	0.15117
0.53123	-0.43551
1.32178	-0.23145
1.09226	0.61031
-0.89686	0.22769
-1.45790	0.35523
0.07220	0.27871
0.19971	0.17668
1.39828	0.12566
0.45472	0.40625
1.04126	-0.33348
-0.33583	0.38074
-3.57454	0.22769
-1.81492	0.10015
1.70430	0.38074
4.05045	0.20219
2.29084	0.25320
0.63323	-0.00188
0.07220	0.04914
-1.02437	-0.00188
-1.30489	-0.05289
-1.12638	-0.07840
-0.20832	0.20219
4.81550	0.04914
1.42379	-0.33348
-8.44535	1.65613
-4.95162	-1.17523
2.31634	0.07465
2.26534	-0.05289
2.13783	0.25320
1.90832	-0.15492
1.67880	1.17148
1.27078	-0.02739
0.63323	0.63582
-0.15732	0.40625
-0.51434	0.02363
-0.59084	-0.41000
-0.46334	-0.71609
-0.23382	-0.33348
-0.53984	0.40625
-1.66191	0.43176
0.60773	0.38074
0.48022	0.55929
1.09226	0.15117
0.88825	0.10015
0.55673	-0.10391
0.30171	0.25320
-0.36133	-0.10391
1.19427	0.20219
-3.52353	0.25320
-2.47797	0.35523
2.54586	0.55929
2.11233	0.02363
1.75531	-0.02739
1.50029	-0.00188
1.42379	-0.15492
-0.20832	-0.10391
-0.94787	0.25320
-0.15732	0.53379
0.27621	0.48277
-0.23382	0.38074
-0.28482	-0.51203
-0.08081	0.35523
-0.10631	0.22769
-1.17738	0.73785
1.37278	0.02363
0.60773	-0.69059
-3.47253	-0.18043
-0.02981	0.12566
0.88825	0.71234
2.08683	0.55929
1.37278	0.48277
3.48942	0.94191
0.58223	-0.43551
-2.06994	-1.43031
-2.50347	-0.51203
0.42922	0.40625
1.32178	0.61031
0.37822	0.43176
-0.53984	0.48277
1.11776	0.15117
0.45472	0.20219
-1.78942	0.43176
-0.64185	-0.20594
1.50029	0.17668
-0.18282	0.45726
1.06676	0.17668
0.37822	-0.00188
-0.33583	-0.00188
0.04670	0.22769
0.88825	-0.28246
-1.07538	0.25320
-2.17195	-0.05289
0.55673	-0.41000
1.24527	0.27871
1.11776	0.25320
0.73524	0.63582
0.19971	-0.00188
0.81175	0.71234
0.17421	0.07465
-1.02437	-0.05289
0.12320	0.63582
0.37822	0.17668
0.50573	-0.02739
0.45472	0.43176
-1.04987	-0.05289
0.55673	-0.28246
-0.48884	0.61031
-0.20832	-0.25695
2.36734	0.04914
1.39828	0.32972
-3.77855	0.32972
0.07220	0.27871
1.37278	-0.02739
0.93925	0.10015
-0.28482	-0.12942
0.50573	0.10015
0.07220	0.50828
-0.20832	-0.00188
0.76074	0.48277
0.42922	0.63582
1.21977	0.15117
0.07220	-0.12942
0.50573	-0.38449
1.01576	-0.05289
-0.48884	0.30422
-0.74385	0.30422
1.21977	-0.48652
0.19971	0.25320
-4.00806	0.30422
-1.15188	0.43176
1.72980	0.76336
1.72980	0.55929
1.32178	0.53379
0.65874	-0.20594
0.68424	0.07465
0.14870	0.30422
0.14870	-0.05289
0.09770	-0.30797
-0.20832	-0.76711
-0.76936	0.20219
-0.46334	-0.05289
0.60773	0.17668
1.55129	0.83988
0.35272	0.61031
-1.17738	-0.35899
-2.47797	0.22769
1.01576	-0.33348
1.24527	-0.02739
0.58223	0.32972
-0.13181	0.32972
1.21977	0.38074
-0.02981	0.48277
0.63323	-0.12942
1.85731	0.15117
-0.15732	0.45726
-3.65104	0.12566
0.81175	-0.20594
1.60230	-0.35899
-0.84586	0.20219
-1.61091	-0.20594
0.25071	-0.20594
1.60230	0.86539
1.04126	0.55929
0.65874	0.25320
-0.33583	-0.20594
0.48022	0.38074
-0.89686	0.32972
-1.58541	0.17668
1.24527	0.15117
1.34728	0.30422
-0.13181	-0.15492
-0.13181	-0.28246
0.50573	0.07465
0.19971	0.32972
-0.66735	0.32972
-0.84586	-0.05289
0.12320	0.15117
1.62780	-0.23145
-0.41233	0.10015
-2.65648	-0.10391
0.78624	0.25320
2.23984	0.78886
-1.17738	0.04914
1.16877	0.43176
2.08683	-0.23145
-0.41233	-0.05289
-1.55991	-0.35899
-0.48884	0.17668
1.44929	0.66132
0.63323	1.27351
0.63323	0.27871
0.45472	-0.10391
0.81175	0.07465
-0.28482	0.17668
-0.89686	0.15117
-1.20288	-0.38449
-1.50890	-0.69059
-0.79486	-0.69059
0.58223	0.32972
1.70430	0.30422
2.39285	0.61031
-0.28482	0.58480
-4.31408	0.10015
1.47479	0.12566
2.72437	0.53379
1.65330	0.43176
0.45472	0.15117
-0.46334	-0.12942
-0.13181	0.02363
0.04670	0.43176
0.09770	-0.07840
0.37822	0.07465
-0.08081	-0.18043
-0.48884	0.10015
-0.89686	0.40625
-0.31033	0.32972
0.17421	-0.23145
0.73524	0.12566
1.14327	0.17668
-1.48340	-0.07840
-0.66735	-0.15492
0.55673	0.30422
-0.08081	0.43176
2.13783	-0.10391
1.29628	0.83988
-0.02981	0.02363
0.22521	0.86539
-1.27939	0.45726
-0.56534	0.53379
0.50573	-0.51203
0.73524	-0.00188
0.12320	0.12566
-0.28482	0.02363
1.04126	-0.58856
1.80631	-0.46102
-1.07538	-0.07840
-3.60004	-0.81812
0.17421	0.86539
1.27078	0.38074
0.81175	0.55929
-0.76936	0.61031
0.60773	0.27871
-0.82036	0.53379
1.24527	0.61031
2.11233	0.12566
0.96476	-0.12942
1.14327	0.10015
-0.61635	-0.33348
-0.64185	-0.25695
-1.50890	-0.15492
-0.31033	0.07465
0.50573	-0.15492
0.73524	0.10015
0.25071	0.22769
-0.48884	0.10015
-0.31033	0.25320
-0.23382	-0.00188
0.53123	0.66132
0.22521	0.12566
0.50573	0.20219
0.58223	0.40625
0.48022	0.45726
0.12320	0.63582
0.07220	-0.05289
-0.48884	-0.20594
0.17421	-0.61406
0.73524	0.15117
0.12320	-0.61406
-2.52897	0.35523
-0.23382	-0.53754
1.04126	0.43176
2.67337	0.76336
1.11776	0.45726
-2.40146	0.27871
-0.79486	-0.02739
0.86275	0.17668
0.65874	0.02363
1.70430	0.25320
1.21977	0.32972
-1.45790	0.22769
-2.93700	0.35523
1.47479	0.07465
2.52035	-0.05289
-0.23382	-0.15492
-2.22295	0.12566
-1.07538	-0.35899
0.32721	-0.18043
1.04126	0.43176
1.42379	0.02363
0.73524	0.38074
0.86275	0.38074
-0.61635	0.66132
-0.64185	-0.00188
-0.33583	0.22769
0.68424	-0.05289
0.32721	0.35523
0.07220	0.45726
-0.00431	0.32972
0.42922	-0.23145
0.53123	-0.10391
-0.69285	-0.25695
0.45472	-0.56305
0.17421	1.01843
0.50573	0.17668
0.40372	0.71234
0.40372	0.22769
-0.43783	-0.48652
-0.05531	-0.15492
-1.10088	0.12566
-1.84042	0.07465
0.65874	0.32972
2.23984	0.86539
1.44929	-0.10391
0.73524	0.10015
1.52579	0.35523
-0.13181	-0.28246
-2.68198	0.32972
-0.66735	0.30422
1.27078	0.53379
0.12320	0.20219
-0.38683	-0.66508
0.78624	-0.00188
0.45472	-0.25695
0.19971	0.10015
0.12320	0.27871
-0.13181	-0.05289
-0.48884	0.12566
1.21977	0.10015
1.52579	0.30422
-2.70748	0.17668
-1.55991	0.32972
2.18883	0.25320
1.27078	0.40625
0.55673	0.81437
0.42922	-0.23145
1.57679	-0.18043
-1.55991	-0.35899
-3.06450	0.10015
0.25071	0.43176
1.55129	0.07465
1.70430	-0.23145
-0.13181	-0.00188
0.42922	0.40625
0.88825	0.43176
0.32721	0.55929
-0.08081	-0.00188
-1.48340	0.12566
-0.94787	-0.12942
-0.25932	0.04914
0.63323	0.15117
1.06676	0.22769
1.47479	0.61031
2.59686	0.73785
-1.99343	-0.43551
-3.11551	-0.02739
1.19427	-0.30797
0.04670	-0.43551
0.22521	-0.05289
0.76074	0.78886
0.68424	0.32972
0.70974	0.58480
0.58223	0.25320
-0.28482	-0.07840
-0.31033	-0.12942
-0.08081	0.27871
0.14870	0.66132
-0.61635	0.02363
1.04126	-0.00188
-0.13181	0.35523
-1.71292	0.25320
0.17421	-0.05289
1.04126	-0.02739
0.63323	-0.07840
0.30171	-0.07840
1.83181	0.25320
0.45472	0.22769
-1.78942	-0.07840
-0.79486	0.22769
1.19427	0.25320
0.86275	0.25320
1.65330	0.38074
-0.97337	0.07465
-0.84586	-0.28246
-0.61635	0.12566
-1.81492	0.58480
1.44929	0.12566
0.60773	0.20219
0.88825	-0.20594
2.26534	0.12566
0.42922	0.20219
-1.35589	0.22769
-1.89143	0.12566
0.37822	0.25320
0.91375	0.32972
0.81175	0.10015
0.60773	0.04914
0.17421	0.15117
-0.38683	-0.15492
-0.79486	0.45726
-0.00431	0.12566
1.14327	-0.07840
0.42922	0.66132
-0.05531	-0.15492
-0.00431	0.15117
1.11776	0.04914
0.55673	-0.25695
-2.63097	-0.28246
-2.37596	0.25320
0.91375	0.68683
1.47479	0.25320
1.50029	0.15117
0.32721	-0.18043
0.91375	0.50828
1.14327	0.43176
-1.53441	0.25320
-1.45790	0.07465
0.12320	-0.07840
1.29628	-0.35899
1.21977	-0.07840
0.55673	0.15117
-0.25932	0.38074
-0.02981	0.61031
0.42922	0.25320
-0.89686	-0.18043
-0.05531	0.20219
0.19971	0.15117
-0.46334	0.15117
-1.55991	0.02363
0.65874	0.43176
1.37278	0.25320
1.29628	0.15117
1.06676	0.25320
-0.25932	-0.74160
-0.92237	0.17668
1.62780	0.32972
0.70974	0.17668
-1.68742	0.12566
-0.05531	0.04914
0.25071	0.20219
-0.46334	0.25320
0.17421	0.55929
0.60773	0.25320
1.60230	0.35523
0.55673	-0.18043
-0.41233	-0.28246
-0.84586	-0.43551
0.37822	0.22769
-1.17738	-0.02739
0.86275	0.76336
1.09226	0.22769
0.50573	-0.02739
-0.20832	0.66132
0.76074	0.22769
-0.51434	0.48277
-1.22839	-0.33348
0.32721	0.12566
0.60773	-0.05289
1.70430	-0.48652
0.09770	0.40625
-0.51434	0.10015
-0.33583	0.35523
-1.38139	0.17668
1.75531	0.04914
0.58223	-0.12942
-1.27939	0.22769
-0.08081	0.27871
0.65874	0.25320
1.14327	0.45726
0.78624	0.12566
1.04126	-0.07840
0.48022	-0.05289
-1.33039	0.22769
-2.78398	0.32972
-0.61635	0.38074
0.88825	0.22769
1.37278	-0.38449
1.06676	0.35523
0.58223	-0.46102
0.32721	-0.51203
-1.27939	0.35523
-0.84586	0.73785
1.34728	0.73785
1.60230	0.53379
0.76074	0.22769
-0.20832	-0.25695
-0.56534	-0.48652
0.27621	-0.05289
-0.18282	0.17668
-0.02981	0.12566
-0.05531	0.17668
0.04670	0.10015
-0.48884	0.15117
1.06676	0.66132
-2.98800	0.40625
-0.08081	0.32972
1.29628	-0.10391
2.21434	-0.15492
0.25071	-0.20594
-0.59084	0.04914
0.30171	0.30422
1.04126	0.30422
1.24527	0.53379
0.14870	-0.35899
-0.20832	0.20219
0.07220	0.53379
-0.64185	0.27871
-1.76392	0.04914
-1.27939	-0.12942
1.16877	-0.38449
-0.13181	-0.12942
0.60773	-0.07840
1.42379	0.94191
1.80631	1.24800
0.55673	0.61031
-1.30489	-0.56305
-1.04987	-0.46102
-0.23382	-0.79262
0.17421	-0.05289
0.73524	0.12566
1.09226	0.43176
2.80087	0.58480
0.76074	0.63582
-6.45622	-0.10391
-0.94787	-0.02739
0.73524	-0.15492
1.09226	-0.35899
2.36734	0.17668
0.88825	0.53379
0.60773	0.83988
0.45472	0.04914
0.76074	0.25320
-0.23382	-0.92016
-1.35589	0.96742
-1.50890	0.27871
-0.46334	0.35523
0.12320	0.07465
0.12320	-0.35899
0.35272	-0.51203
0.78624	-0.20594
0.63323	-0.30797
0.40372	0.30422
0.68424	0.40625
0.32721	0.35523
1.09226	0.22769
2.39285	0.12566
-1.48340	0.30422
-5.20664	0.07465
-0.79486	-0.02739
2.23984	0.45726
2.03582	0.25320
0.76074	0.50828
1.70430	0.22769
0.68424	0.20219
-1.20288	-0.46102
-1.71292	0.04914
0.27621	0.15117
0.70974	0.91640
-0.18282	0.20219
0.53123	0.32972
0.81175	0.32972
-0.43783	0.10015
-1.20288	0.12566
0.65874	-0.10391
1.34728	0.04914
-0.36133	0.12566
0.07220	-0.28246
-0.28482	0.02363
-1.96793	0.12566
-0.02981	0.63582
0.37822	0.02363
3.18340	-0.10391
1.78081	0.96742
0.30171	0.10015
-0.20832	0.02363
0.88825	0.53379
0.78624	0.35523
-1.15188	0.15117
-3.52353	0.02363
-1.43240	-0.25695
0.93925	0.27871
1.11776	0.35523
1.78081	0.40625
1.19427	-0.41000
-0.66735	-0.15492
-0.89686	0.53379
1.11776	0.63582
0.53123	-0.35899
0.73524	0.38074
0.53123	0.12566
-0.99887	-0.02739
0.07220	0.22769
0.27621	-0.02739
0.12320	0.63582
0.32721	0.04914
0.22521	0.15117
1.39828	-0.07840
-0.23382	0.53379
-0.02981	-0.05289
0.25071	0.15117
-2.29945	0.55929
-1.68742	0.25320
0.63323	0.02363
1.78081	0.17668
3.18340	0.17668
2.21434	0.12566
1.29628	0.02363
-1.91693	0.35523
-3.44703	0.10015
0.04670	0.04914
1.47479	-0.05289
1.14327	-0.12942
0.78624	0.20219
0.30171	0.15117
-2.32496	0.20219
-0.87136	0.07465
0.70974	0.30422
0.68424	0.38074
-0.23382	0.02363
0.53123	0.20219
0.63323	0.10015
0.70974	0.25320
0.91375	0.38074
0.42922	0.38074
-0.41233	0.48277
0.02119	0.53379
-0.25932	-0.10391
-0.28482	0.10015
-0.10631	-0.38449
0.07220	-0.28246
0.19971	0.17668
0.09770	0.53379
0.48022	0.53379
0.73524	0.17668
1.50029	0.12566
0.68424	0.32972
-4.00806	0.25320
-1.48340	-0.15492
2.62236	0.63582
3.08139	0.15117
0.76074	-0.05289
-5.38515	0.17668
1.27078	0.32972
1.75531	0.17668
1.19427	0.30422
0.17421	-0.02739
1.09226	0.15117
-0.05531	0.12566
-0.23382	0.32972
-0.61635	0.32972
-0.20832	-0.12942
0.53123	-0.12942
-0.08081	-0.30797
-0.46334	0.55929
0.02119	-0.05289
0.02119	0.73785
0.25071	-0.02739
0.02119	0.61031
0.45472	0.73785
-0.13181	0.40625
-1.81492	-0.02739
0.48022	-0.38449
1.32178	-0.41000
1.57679	0.12566
1.34728	0.22769
0.76074	0.17668
-0.00431	0.07465
-2.78398	0.50828
-1.02437	-0.43551
-0.33583	-0.05289
3.03039	0.22769
0.91375	0.58480
-0.28482	0.35523
-0.79486	0.12566
0.32721	0.07465
-0.84586	0.07465
-0.41233	0.02363
0.88825	0.22769
0.40372	0.22769
1.55129	-0.18043
0.53123	0.07465
-1.30489	0.25320
-1.33039	0.02363
0.12320	-0.00188
0.63323	-0.30797
0.88825	0.22769
0.09770	-0.66508
0.35272	0.20219
0.19971	0.35523
-0.51434	0.50828
0.04670	0.07465
0.65874	0.17668
0.63323	0.32972
1.06676	0.50828
-0.64185	0.68683
-0.89686	-0.86914
3.46392	-0.28246
-1.91693	0.02363
-5.69117	0.04914
0.42922	-0.02739
3.54042	0.55929
2.21434	0.58480
2.13783	0.38074
-1.43240	0.30422
-1.02437	0.02363
1.14327	-0.18043
0.99026	-0.28246
-0.53984	0.55929
-0.82036	-0.15492
-0.53984	-0.02739
0.73524	0.04914
-0.18282	0.30422
-1.68742	0.58480
0.32721	-0.02739
1.27078	0.20219
1.72980	-0.35899
-2.04444	0.22769
-1.73842	0.22769
1.06676	0.58480
1.09226	0.35523
1.32178	-0.10391
1.01576	0.04914
1.62780	-0.12942
0.83725	0.91640
-1.50890	0.55929
-1.53441	-0.10391
-0.36133	0.10015
0.68424	0.30422
0.19971	0.07465
0.88825	-0.35899
1.01576	-0.12942
-1.07538	-0.00188
-3.34502	0.40625
2.18883	0.32972
0.93925	0.30422
0.42922	0.58480
0.04670	0.17668
0.50573	-0.00188
0.68424	0.04914
-1.71292	0.25320
0.86275	0.12566
1.16877	-0.05289
-0.00431	-0.53754
0.50573	0.12566
1.06676	0.45726
-1.58541	0.22769
-2.14644	0.10015
-0.28482	0.15117
-0.13181	0.10015
1.44929	0.55929
2.06133	0.07465
0.12320	0.17668
-0.05531	0.04914
0.96476	0.15117
-0.08081	0.27871
-0.15732	0.38074
0.09770	0.50828
0.22521	-1.04770
-0.33583	-0.43551
-0.94787	-0.74160
0.76074	0.48277
0.14870	0.89089
0.12320	0.96742
0.96476	0.58480
1.60230	0.32972
-0.89686	0.61031
-0.51434	-0.46102
1.14327	0.20219
-0.08081	-0.20594
-2.29945	-0.41000
-1.94243	-0.20594
2.62236	0.58480
1.78081	0.83988
1.09226	0.22769
0.19971	0.10015
0.32721	-0.05289
-0.48884	-0.15492
-0.38683	-0.05289
0.40372	-0.05289
-0.38683	0.17668
-1.76392	0.66132
-0.48884	-0.25695
1.47479	0.35523
0.91375	0.35523
-0.25932	0.35523
0.63323	-0.02739
1.16877	0.22769
-0.48884	0.15117
0.48022	0.15117
0.78624	0.10015
0.63323	-0.07840
0.25071	0.22769
-0.10631	0.27871
0.19971	0.02363
0.02119	0.27871
-0.10631	0.20219
-0.33583	-0.69059
-0.13181	0.45726
-0.13181	-0.05289
-0.48884	0.22769
-0.08081	0.30422
0.50573	0.22769
1.21977	0.71234
0.19971	-0.07840
0.58223	0.12566
0.25071	-0.10391
-0.48884	-0.02739
0.27621	0.25320
-1.22839	0.15117
1.37278	0.15117
1.24527	0.04914
-0.18282	0.15117
-2.17195	0.35523
0.32721	0.50828
1.06676	0.35523
1.55129	0.22769
0.12320	-0.18043
-0.46334	-0.12942
-0.20832	0.20219
-0.05531	-0.15492
-0.28482	0.04914
0.55673	0.55929
-1.30489	0.53379
0.58223	0.20219
1.57679	0.20219
0.70974	-0.15492
0.22521	0.12566
-0.51434	0.12566
0.73524	0.27871
-0.25932	-0.18043
-0.08081	-0.18043
-0.84586	-0.25695
-0.28482	0.20219
-0.05531	0.20219
-0.10631	0.58480
0.73524	0.55929
1.55129	0.07465
1.34728	-0.18043
-0.38683	-0.02739
-1.99343	0.02363
-0.20832	-0.00188
1.52579	-0.10391
0.70974	0.22769
-0.13181	0.22769
-0.00431	0.35523
1.55129	0.32972
0.86275	0.30422
-0.61635	0.15117
-0.99887	-0.23145
-0.05531	0.20219
0.14870	0.15117
-0.18282	-0.43551
0.53123	0.30422
-0.18282	0.15117
-0.84586	-0.05289
-0.51434	0.76336
0.55673	0.22769
0.68424	0.30422
0.32721	0.02363
1.11776	-0.15492
0.07220	-0.05289
-0.08081	0.15117
-0.05531	0.27871
-1.68742	0.32972
0.48022	0.22769
1.55129	0.15117
1.55129	0.07465
-0.08081	-0.28246
-0.61635	-0.07840
-0.00431	0.35523
0.02119	0.38074
0.32721	0.02363
0.65874	0.58480
-0.61635	0.40625
-0.05531	-0.28246
0.50573	-0.58856
-0.00431	-0.20594
-1.63641	0.66132
-1.66191	0.04914
0.96476	0.43176
1.75531	0.04914
1.42379	0.66132
1.65330	0.76336
0.19971	-0.15492
-1.30489	0.07465
-1.20288	0.25320
0.45472	-0.12942
0.02119	-0.20594
-0.46334	-0.10391
0.68424	0.22769
0.58223	0.20219
1.21977	-0.00188
0.27621	0.04914
-0.97337	0.43176
0.12320	0.22769
-0.18282	0.25320
-0.15732	0.07465
0.30171	0.07465
0.40372	0.38074
-0.33583	0.15117
0.53123	0.32972
0.50573	0.17668
0.12320	0.22769
-0.92237	-0.10391
-0.13181	-0.23145
0.48022	0.07465
0.14870	0.30422
0.07220	-0.00188
0.22521	0.35523
0.55673	-0.43551
-0.38683	0.30422
-0.36133	0.17668
0.14870	0.43176
2.11233	0.38074
0.37822	0.25320
-1.96793	-0.00188
-0.23382	-0.30797
0.53123	-0.20594
1.19427	0.17668
0.02119	0.58480
-0.56534	-0.51203
-0.15732	0.53379
0.65874	0.63582
0.40372	0.43176
-2.29945	0.22769
-0.36133	0.30422
0.70974	-0.35899
0.93925	-0.46102
1.39828	0.10015
2.18883	0.12566
-1.20288	0.40625
-1.96793	0.15117
1.34728	0.22769
1.65330	0.04914
0.14870	0.15117
-0.36133	0.15117
0.09770	0.25320
-1.04987	-0.25695
0.04670	-0.07840
1.78081	0.15117
0.02119	0.32972
-1.86593	0.50828
-1.48340	0.07465
1.47479	0.17668
0.35272	0.45726
0.88825	0.25320
1.06676	-0.58856
-0.25932	0.15117
-0.08081	0.17668
-0.56534	0.63582
0.83725	0.10015
0.60773	-0.07840
1.39828	0.04914
0.99026	-0.15492
0.02119	0.12566
-0.48884	-0.10391
-0.59084	0.40625
-1.07538	-0.10391
0.22521	0.53379
0.19971	0.20219
0.22521	0.22769
0.30171	0.07465
0.27621	0.15117
1.72980	0.20219
0.99026	-0.15492
-2.96250	0.22769
-2.19745	0.07465
1.04126	0.22769
1.65330	0.30422
1.09226	-0.25695
0.30171	0.32972
0.12320	0.50828
1.11776	0.32972
0.93925	0.35523
-1.55991	-0.18043
-1.20288	-0.07840
0.55673	-0.25695
0.81175	-0.05289
-0.08081	-0.05289
0.14870	0.25320
0.04670	0.20219
0.78624	0.12566
0.76074	0.22769
-1.91693	0.30422
-0.82036	-0.33348
0.42922	0.22769
0.40372	0.02363
0.07220	-0.07840
-0.15732	-0.02739
0.04670	0.02363
0.63323	0.43176
0.96476	0.55929
0.63323	0.10015
-1.12638	0.02363
0.09770	0.17668
0.17421	0.15117
-0.00431	0.04914
-0.51434	-0.61406
1.27078	0.02363
0.68424	-0.15492
-1.10088	0.22769
0.22521	0.35523
0.58223	0.07465
-0.00431	0.17668
0.91375	0.50828
0.37822	0.20219
-0.48884	-0.18043
-0.74385	0.12566
0.50573	-0.43551
-0.69285	0.20219
-0.05531	0.50828
0.81175	0.53379
0.88825	0.38074
0.09770	-0.05289
-0.18282	-0.18043
0.76074	-0.00188
-0.10631	0.35523
-0.18282	-0.18043
-0.28482	0.30422
-1.76392	0.27871
-1.30489	0.02363
1.47479	-0.10391
2.29084	0.22769
1.55129	0.45726
0.60773	0.20219
0.37822	0.30422
-0.10631	-0.05289
-0.05531	0.04914
-0.20832	-0.10391
-1.50890	0.10015
-0.41233	-0.18043
-0.56534	0.17668
0.42922	0.32972
1.27078	0.50828
0.83725	0.38074
-0.43783	0.10015
0.88825	-0.05289
0.07220	-0.18043
-1.84042	-0.38449
0.14870	-0.12942
1.11776	0.76336
-0.20832	0.35523
-0.61635	0.76336
0.40372	0.10015
1.44929	-0.05289
0.91375	-0.07840
-0.08081	0.12566
1.24527	-0.05289
-0.51434	0.30422
-0.87136	0.04914
0.07220	-0.00188
0.48022	0.40625
0.25071	-0.05289
0.02119	0.66132
0.27621	0.30422
0.73524	0.32972
0.04670	0.15117
-0.48884	-0.25695
-1.17738	-0.28246
-0.94787	-0.15492
0.37822	-0.00188
0.76074	0.27871
1.11776	0.78886
0.70974	0.20219
0.27621	0.22769
0.32721	-0.20594
0.58223	0.10015
-0.25932	-0.02739
-1.12638	0.12566
-1.38139	-0.18043
0.07220	0.07465
1.19427	0.66132
1.04126	0.58480
0.86275	0.53379
0.63323	-0.00188
-0.51434	-0.05289
0.12320	-0.10391
-0.89686	-0.00188
0.07220	-0.07840
1.65330	-0.07840
-1.10088	0.48277
-1.30489	0.35523
0.45472	-0.00188
0.93925	0.53379
1.42379	0.38074
-0.18282	-0.28246
-0.23382	0.04914
0.81175	0.25320
0.30171	-0.10391
-0.31033	0.07465
-2.45246	0.30422
0.68424	0.30422
1.39828	0.43176
1.11776	0.10015
1.85731	-0.15492
0.65874	-0.10391
-2.42696	0.25320
-0.87136	-0.12942
-0.00431	0.30422
0.48022	0.27871
0.19971	0.25320
0.37822	0.32972
0.12320	-0.12942
0.81175	-0.28246
0.53123	0.38074
-1.25389	0.27871
-1.02437	0.40625
0.88825	0.17668
0.99026	0.15117
0.48022	0.15117
0.63323	0.17668
0.30171	0.17668
-0.43783	0.32972
0.73524	0.12566
0.19971	-0.18043
-1.50890	-0.07840
-0.51434	0.12566
0.17421	0.35523
0.40372	0.15117
1.16877	-0.00188
1.09226	0.17668
0.02119	0.20219
0.86275	0.07465
-0.56534	0.22769
-1.20288	-0.02739
0.99026	-0.12942
-0.41233	0.25320
-1.12638	0.27871
1.39828	0.12566
0.91375	-0.23145
-0.33583	0.43176
0.25071	0.35523
-0.08081	0.50828
0.93925	0.30422
0.73524	-0.15492
0.32721	-0.63957
1.04126	0.45726
0.32721	0.10015
-0.76936	0.30422
-2.22295	0.02363
-0.97337	-0.05289
0.37822	0.25320
1.11776	0.25320
0.12320	0.55929
0.53123	0.43176
0.68424	0.12566
0.86275	0.07465
0.35272	0.43176
-0.46334	-0.15492
-1.35589	-0.33348
0.17421	-0.20594
0.70974	0.12566
0.68424	0.25320
0.60773	0.32972
0.70974	0.38074
0.30171	0.20219
-0.51434	0.25320
-1.12638	-0.63957
0.27621	0.58480
0.83725	0.30422
0.96476	-0.15492
-0.56534	0.27871
-2.45246	0.10015
0.86275	0.30422
1.44929	0.12566
0.78624	0.12566
-0.87136	-0.05289
-1.91693	-0.07840
1.93382	0.15117
1.21977	0.02363
0.07220	0.17668
0.02119	0.30422
0.93925	0.22769
-0.36133	0.43176
-1.43240	0.20219
0.02119	0.15117
-0.23382	-0.43551
-0.46334	0.53379
0.02119	0.02363
0.81175	0.25320
1.27078	0.04914
0.60773	-0.10391
0.12320	0.02363
0.25071	0.10015
0.30171	0.50828
0.37822	0.25320
1.93382	-0.41000
-1.73842	0.04914
-4.51810	0.04914
-0.20832	0.25320
0.81175	0.02363
1.65330	0.20219
1.16877	0.35523
1.16877	0.43176
1.32178	0.32972
-0.61635	0.38074
-0.59084	0.10015
0.12320	-0.05289
0.32721	0.02363
0.07220	-0.02739
-0.87136	-0.25695
0.12320	0.10015
0.22521	0.43176
0.27621	0.45726
0.58223	0.04914
-0.41233	0.10015
0.35272	0.30422
-0.48884	0.02363
-0.43783	-0.30797
1.37278	-0.25695
1.29628	0.20219
-1.91693	0.22769
0.27621	0.89089
2.18883	0.81437
0.70974	0.25320
-1.12638	-0.20594
-0.28482	-0.30797
0.50573	-0.10391
-0.64185	0.27871
0.42922	0.32972
0.93925	0.12566
-0.74385	-0.28246
0.14870	-0.23145
-0.10631	0.17668
0.88825	0.61031
0.50573	0.68683
-0.41233	0.43176
0.40372	0.43176
-0.15732	-0.63957
-0.89686	-0.05289
-0.41233	-0.51203
1.24527	-0.46102
0.50573	0.12566
-0.48884	0.68683
-0.56534	0.73785
0.63323	0.76336
2.29084	-0.15492
0.48022	-0.23145
-4.31408	-0.51203
-1.17738	-0.33348
0.93925	-0.30797
1.44929	0.43176
1.83181	0.76336
0.45472	0.71234
1.14327	0.22769
-0.02981	0.43176
-0.71835	0.20219
1.14327	0.12566
0.35272	0.07465
-2.22295	-0.53754
-1.86593	-0.05289
0.19971	-0.10391
1.14327	0.17668
2.26534	0.35523
-0.79486	-0.05289
-0.84586	0.27871
0.78624	0.38074
1.52579	0.48277
-0.33583	0.38074
-0.92237	-0.05289
0.83725	-0.05289
0.55673	-0.02739
0.27621	0.10015
0.25071	0.27871
-0.20832	0.02363
-0.20832	0.43176
-1.04987	0.35523
-0.61635	-0.66508
0.48022	-0.10391
1.27078	0.35523
1.21977	0.43176
-0.00431	0.63582
-0.82036	0.40625
1.14327	0.30422
0.09770	0.17668
0.12320	0.27871
-0.15732	-0.35899
1.29628	-0.07840
0.30171	-0.48652
-1.99343	0.35523
-1.30489	-0.15492
0.32721	0.07465
0.48022	0.35523
1.80631	0.10015
1.98482	0.55929
0.88825	0.53379
0.27621	0.40625
-1.86593	-0.20594
-0.76936	-0.12942
1.80631	-0.12942
0.83725	0.53379
-3.72755	0.12566
-2.14644	0.22769
0.96476	-0.05289
2.03582	0.02363
1.24527	0.27871
-0.13181	-0.02739
-0.08081	-0.00188
0.58223	0.45726
0.53123	0.43176
0.37822	0.35523
0.55673	0.45726
0.22521	0.15117
-0.05531	-0.35899
-0.13181	-0.28246
-0.18282	-0.00188
-0.20832	0.15117
-0.33583	0.50828
0.25071	0.35523
0.32721	0.35523
-1.22839	0.25320
0.63323	0.27871
2.59686	-0.15492
-0.36133	-0.51203
-4.46709	-0.74160
0.58223	0.38074
1.80631	0.66132
1.44929	0.71234
1.34728	-0.10391
2.69887	0.45726
0.04670	0.10015
-1.27939	0.15117
-1.25389	0.04914
0.88825	0.15117
1.21977	0.30422
-1.63641	0.15117
-3.39602	-0.12942
-0.31033	0.04914
2.69887	0.50828
1.27078	0.25320
-2.29945	0.02363
1.34728	0.10015
1.60230	0.15117
0.93925	0.10015
0.55673	0.12566
0.14870	0.25320
-0.23382	0.04914
-0.41233	0.02363
-0.38683	-0.25695
-0.46334	0.15117
-0.10631	0.30422
0.53123	0.04914
0.27621	0.32972
0.53123	-0.15492
0.25071	0.25320
-0.41233	0.38074
-0.18282	0.27871
1.21977	-0.00188
0.86275	-0.25695
-1.78942	-0.12942
-1.20288	0.78886
1.01576	0.38074
0.96476	-0.15492
1.21977	0.22769
0.32721	-0.20594
-0.25932	-0.33348
1.24527	0.53379
-0.38683	0.07465
-2.88599	0.10015
-0.92237	0.40625
2.01032	0.68683
1.50029	0.40625
2.31634	0.43176
1.34728	-0.56305
-1.12638	0.25320
-2.37596	0.10015
-1.58541	-0.05289
1.57679	-0.25695
1.27078	0.15117
-0.53984	0.17668
-0.36133	0.10015
-0.59084	-0.25695
1.04126	-0.71609
0.30171	0.17668
-0.00431	0.63582
-0.02981	0.83988
-0.69285	0.94191
0.40372	-0.07840
1.19427	-0.53754
-0.10631	0.04914
-0.02981	-0.23145
0.50573	0.35523
1.01576	0.55929
0.70974	0.63582
-0.38683	-0.48652
-1.91693	-0.18043
-0.25932	-0.05289
0.55673	-0.05289
0.40372	0.66132
0.22521	0.58480
1.65330	0.22769
1.37278	-0.05289
-1.91693	-0.41000
-1.96793	-0.43551
-0.43783	-0.25695
0.99026	0.15117
0.63323	0.07465
0.68424	0.63582
-0.05531	0.58480
1.95932	0.66132
2.29084	0.53379
-2.01894	0.10015
-4.36509	-0.48652
0.04670	0.10015
2.64786	-0.30797
0.86275	-0.33348
1.75531	0.25320
-0.84586	0.53379
-2.04444	0.35523
0.27621	0.25320
2.06133	0.15117
0.40372	-0.12942
-1.10088	0.30422
-0.08081	0.25320
0.25071	-0.15492
-0.28482	0.15117
-0.15732	0.43176
0.53123	-0.23145
1.14327	0.27871
0.17421	0.10015
0.12320	0.22769
-0.43783	-0.02739
3.00489	0.27871
0.45472	0.10015
-3.85505	0.50828
-0.33583	0.07465
0.68424	0.12566
0.35272	-0.41000
0.68424	-0.05289
1.16877	0.15117
-0.10631	0.32972
-0.71835	0.25320
-0.48884	0.27871
1.09226	1.01843
1.37278	0.55929
0.04670	-0.05289
-2.04444	-0.97117
-0.92237	-0.18043
0.12320	-0.89465
0.70974	0.27871
0.73524	0.53379
0.88825	0.94191
0.48022	1.32453
0.78624	0.15117
0.45472	-0.05289
0.12320	-0.33348
0.50573	-0.30797
-0.31033	0.04914
0.32721	-0.05289
-1.40690	0.20219
-0.87136	0.53379
-2.24845	0.30422
0.76074	0.15117
3.00489	-0.15492
1.14327	-0.35899
-1.81492	0.40625
-0.53984	0.04914
0.73524	0.12566
-0.59084	0.12566
0.81175	0.30422
2.34184	0.04914
1.21977	0.12566
-3.52353	-0.07840
-1.25389	0.20219
1.21977	0.43176
1.09226	0.40625
1.14327	0.22769
0.14870	0.04914
-0.38683	-0.25695
-0.15732	-0.30797
0.68424	0.15117
0.32721	0.45726
0.22521	0.66132
0.17421	0.30422
0.30171	0.22769
-1.04987	0.43176
-1.10088	-0.53754
1.60230	-0.69059
-0.18282	0.17668
-0.61635	-0.00188
0.73524	0.20219
0.58223	0.30422
0.91375	0.15117
0.32721	0.32972
-0.59084	0.45726
0.50573	0.94191
0.58223	0.15117
-0.53984	-0.02739
-0.97337	0.20219
-1.73842	0.04914
1.29628	-0.35899
2.08683	-0.30797
-0.38683	0.07465
-3.16651	0.12566
-0.25932	0.45726
2.41835	0.20219
1.70430	0.02363
0.65874	-0.12942
0.65874	-0.46102
1.83181	0.45726
-1.04987	0.38074
-2.22295	0.50828
0.07220	0.43176
1.19427	0.15117
1.27078	0.35523
-0.41233	0.22769
-1.38139	0.22769
-0.59084	-0.05289
0.19971	-0.00188
0.32721	-0.18043
0.65874	-0.25695
0.58223	0.15117
0.48022	0.63582
0.17421	0.71234
0.86275	0.78886
0.04670	0.40625
-0.20832	-0.48652
-0.08081	-0.35899
-1.02437	-0.20594
-0.28482	0.12566
0.70974	0.38074
0.68424	0.20219
2.36734	-0.15492
0.22521	0.25320
-1.68742	0.35523
-0.97337	0.53379
-1.33039	-0.18043
0.93925	-0.10391
2.67337	0.20219
0.73524	0.25320
-0.10631	0.07465
0.88825	0.02363
-0.82036	0.04914
-1.58541	0.25320
0.22521	0.27871
0.78624	0.22769
-1.04987	-0.30797
-1.38139	-0.23145
0.73524	0.20219
0.78624	0.50828
-0.89686	0.12566
-0.99887	-0.74160
1.83181	0.45726
1.88281	0.61031
1.34728	0.63582
0.58223	0.20219
0.07220	-0.07840
-0.25932	-0.00188
-0.84586	0.38074
-0.97337	0.02363
0.07220	0.02363
-0.23382	0.17668
0.09770	0.12566
0.37822	0.27871
0.65874	0.38074
-0.97337	0.15117
0.91375	-0.20594
0.09770	0.45726
-1.07538	-0.56305
-0.28482	-0.10391
1.44929	0.22769
0.17421	0.40625
0.42922	0.20219
-0.84586	0.58480
-0.02981	0.55929
2.29084	-0.51203
-0.23382	-0.28246
-1.50890	-0.07840
0.32721	0.02363
0.19971	0.45726
-0.89686	0.35523
0.27621	0.25320
1.78081	0.43176
0.88825	0.50828
0.19971	0.02363
0.19971	0.07465
0.32721	-0.18043
-2.73298	-0.20594
-1.58541	-0.63957
1.04126	-0.28246
0.68424	0.35523
0.60773	0.58480
0.68424	0.66132
0.42922	0.55929
0.48022	0.43176
-0.05531	0.55929
-0.61635	-0.05289
-0.18282	-0.12942
-0.33583	-0.15492
-1.53441	-0.41000
0.68424	-0.02739
1.44929	0.25320
1.93382	0.55929
0.14870	0.12566
0.14870	-0.12942
-0.15732	0.15117
-0.43783	0.17668
-0.02981	-0.00188
0.14870	0.25320
0.12320	0.20219
-0.08081	0.07465
0.02119	-0.07840
-0.79486	-0.07840
-0.20832	-0.02739
1.16877	0.45726
1.57679	0.17668
-0.56534	0.22769
-1.40690	0.35523
1.01576	0.35523
-0.20832	-0.10391
-0.41233	0.04914
1.04126	0.02363
1.55129	0.30422
-1.27939	0.35523
-0.87136	0.17668
-0.28482	-0.00188
0.50573	0.27871
0.76074	-0.30797
1.32178	0.04914
1.16877	0.35523
-0.53984	0.55929
-0.76936	0.38074
0.60773	0.17668
0.70974	-0.18043
-0.02981	-0.66508
-1.81492	-0.30797
-0.48884	0.38074
0.86275	0.25320
-0.33583	0.15117
-1.91693	-0.23145
-0.28482	0.02363
1.95932	0.50828
1.52579	0.55929
1.37278	0.35523
0.45472	0.07465
0.14870	0.22769
-0.61635	-0.25695
-1.61091	-0.05289
0.68424	0.07465
0.37822	0.48277
0.58223	0.32972
-0.08081	0.30422
-1.10088	0.17668
-0.56534	-0.30797
1.16877	0.27871
0.78624	-0.25695
-0.13181	-0.07840
-0.59084	-0.15492
-0.59084	-0.02739
2.06133	0.38074
-0.13181	0.83988
-0.20832	0.55929
1.01576	0.22769
1.62780	0.35523
0.30171	0.35523
-0.61635	0.53379
-0.92237	-0.10391
-1.96793	0.02363
-4.90062	-0.30797
1.09226	0.10015
2.21434	-0.28246
2.06133	-0.00188
1.37278	0.17668
0.99026	0.53379
-0.10631	0.04914
0.14870	0.68683
0.55673	0.12566
-0.53984	0.02363
-1.17738	-0.02739
-0.28482	-0.07840
-0.31033	0.04914
0.37822	0.30422
0.58223	0.32972
0.78624	0.25320
0.17421	0.32972
-0.00431	-0.05289
-0.82036	0.17668
-0.25932	-0.12942
1.29628	0.12566
0.96476	0.22769
-1.02437	-0.05289
1.29628	0.35523
-0.48884	0.20219
-1.84042	0.20219
-0.76936	0.15117
1.57679	0.35523
2.06133	0.27871
2.72437	0.15117
1.04126	0.15117
-5.28315	0.04914
-3.80405	-0.56305
2.08683	0.07465
2.97938	0.25320
1.42379	0.55929
0.81175	0.91640
0.81175	0.50828
0.02119	0.22769
-0.56534	-0.63957
-0.79486	-0.71609
-0.76936	-0.30797
-0.41233	0.68683
-0.20832	0.32972
0.78624	0.45726
0.30171	0.30422
-0.53984	0.17668
0.17421	0.17668
1.44929	-0.20594
0.02119	-0.15492
-2.09544	0.07465
0.14870	0.27871
1.70430	0.30422
1.78081	0.35523
0.09770	0.22769
0.22521	0.15117
0.02119	-0.05289
-0.59084	0.10015
-1.10088	-0.00188
0.22521	-0.07840
0.53123	-0.00188
0.58223	-0.02739
0.14870	0.02363
-0.05531	0.22769
0.04670	0.22769
0.14870	0.76336
0.73524	0.66132
-0.82036	-0.23145
-1.43240	-0.25695
0.09770	-0.12942
1.09226	0.45726
1.11776	0.12566
0.63323	0.63582
-0.05531	-0.51203
0.78624	-0.15492
0.07220	0.30422
0.27621	0.96742
0.25071	0.68683
0.30171	0.38074
-0.23382	0.35523
-0.33583	-0.02739
0.42922	-0.23145
0.27621	-0.05289
-1.73842	0.10015
0.07220	-0.07840
0.07220	0.12566
1.24527	0.02363
