0.19971	0.20219
0.22521	0.22769
0.12320	0.12566
0.22521	0.17668
0.30171	0.22769
0.07220	0.04914
0.12320	0.07465
0.12320	0.15117
-0.02981	0.10015
0.09770	0.15117
0.32721	0.10015
0.17421	0.10015
0.07220	0.15117
0.22521	0.25320
0.12320	0.12566
0.14870	0.15117
0.17421	0.22769
0.02119	0.10015
-0.00431	0.12566
0.12320	0.15117
0.07220	0.07465
0.14870	0.15117
0.19971	0.15117
0.17421	0.10015
0.25071	0.15117
0.19971	0.22769
0.12320	0.10015
0.07220	0.17668
-0.00431	0.10015
-0.00431	0.04914
0.07220	0.12566
0.17421	0.17668
0.25071	0.15117
0.12320	0.15117
0.25071	0.17668
0.22521	0.22769
0.12320	0.12566
-0.05531	-0.00188
-0.05531	0.12566
0.19971	0.20219
0.22521	0.12566
0.12320	0.22769
0.30171	0.22769
0.19971	0.15117
0.14870	0.17668
0.14870	0.20219
0.09770	0.12566
-0.02981	-0.00188
-0.05531	0.04914
0.17421	0.15117
0.12320	0.15117
0.09770	0.07465
0.19971	0.25320
0.40372	0.27871
0.27621	0.12566
0.12320	0.12566
0.07220	0.20219
0.02119	0.15117
-0.02981	0.02363
0.02119	0.12566
0.14870	0.22769
0.27621	0.20219
0.27621	0.10015
0.17421	0.22769
0.30171	0.17668
0.19971	0.10015
0.17421	0.04914
-0.05531	0.12566
-0.00431	0.20219
0.09770	-0.00188
0.14870	0.12566
0.09770	0.17668
0.25071	0.20219
0.32721	0.25320
0.30171	0.15117
0.14870	0.04914
-0.02981	0.10015
0.12320	0.17668
0.02119	0.12566
0.02119	-0.00188
0.14870	0.15117
0.19971	0.27871
0.22521	0.25320
0.25071	0.20219
0.14870	0.10015
0.12320	0.12566
0.12320	0.15117
0.02119	0.12566
-0.08081	0.04914
0.09770	0.12566
0.22521	0.25320
0.19971	0.15117
0.19971	0.04914
0.22521	0.15117
0.14870	0.17668
0.19971	0.17668
0.07220	0.04914
0.07220	0.17668
0.09770	0.22769
0.12320	0.15117
0.22521	0.15117
0.17421	0.20219
0.19971	0.10015
0.17421	0.15117
0.14870	0.20219
0.09770	0.20219
0.19971	0.17668
0.04670	0.07465
-0.05531	-0.00188
0.04670	0.07465
0.19971	0.20219
0.25071	0.15117
0.30171	0.10015
0.19971	0.20219
0.12320	0.15117
0.02119	0.10015
0.19971	0.20219
0.19971	0.25320
0.17421	0.12566
0.02119	0.04914
0.07220	0.15117
0.17421	0.20219
0.27621	0.12566
0.19971	0.10015
0.19971	0.15117
0.12320	0.22769
0.19971	0.17668
0.09770	0.07465
-0.10631	0.07465
0.04670	0.07465
0.22521	0.17668
0.25071	0.12566
0.19971	0.12566
0.09770	0.15117
0.22521	0.20219
0.22521	0.20219
0.17421	0.12566
0.12320	0.17668
0.04670	0.12566
0.04670	0.12566
0.02119	0.02363
-0.00431	0.15117
0.19971	0.22769
0.35272	0.22769
0.27621	0.20219
0.12320	0.07465
0.09770	0.15117
0.09770	0.10015
0.02119	0.04914
0.02119	0.12566
0.14870	0.25320
0.22521	0.20219
0.12320	0.12566
0.12320	0.12566
0.27621	0.17668
0.25071	0.20219
0.07220	0.07465
-0.00431	-0.05289
0.09770	0.12566
0.12320	0.25320
0.09770	0.20219
-0.02981	0.04914
0.12320	0.15117
0.37822	0.27871
0.30171	0.17668
0.19971	0.12566
0.12320	0.07465
-0.00431	0.04914
-0.08081	0.15117
0.19971	0.20219
0.19971	0.17668
0.22521	0.17668
0.25071	0.22769
0.25071	0.25320
0.17421	0.20219
0.07220	0.12566
-0.00431	0.02363
0.17421	0.15117
0.02119	-0.02739
0.14870	0.17668
0.07220	0.15117
-0.13181	0.04914
0.07220	0.20219
0.19971	0.27871
0.32721	0.17668
0.35272	0.12566
0.27621	0.12566
0.25071	0.15117
0.17421	0.20219
0.22521	0.10015
0.09770	0.04914
0.04670	0.07465
0.02119	0.22769
-0.08081	0.10015
-0.05531	0.12566
0.14870	0.10015
0.30171	0.10015
0.09770	0.17668
0.14870	0.15117
0.02119	0.10015
0.19971	0.30422
0.25071	0.22769
0.25071	0.07465
0.27621	0.20219
0.32721	0.17668
0.12320	0.12566
-0.15732	-0.00188
0.02119	0.04914
-0.05531	-0.00188
0.04670	0.15117
0.27621	0.17668
0.27621	0.25320
0.37822	0.35523
0.19971	0.20219
0.09770	0.10015
0.19971	0.17668
0.14870	0.12566
0.07220	0.15117
0.09770	0.10015
0.07220	-0.00188
0.17421	0.20219
0.07220	0.04914
0.12320	0.17668
0.12320	0.20219
0.14870	0.12566
0.17421	-0.00188
0.02119	0.02363
0.12320	0.25320
0.14870	0.20219
-0.08081	0.10015
0.22521	0.22769
0.32721	0.07465
0.32721	0.30422
0.17421	0.22769
-0.13181	-0.07840
0.27621	0.22769
0.30171	0.25320
0.42922	0.15117
0.09770	-0.00188
0.04670	0.07465
-0.15732	0.04914
0.12320	0.17668
0.12320	0.12566
0.22521	0.15117
0.19971	0.22769
0.14870	0.07465
0.12320	0.15117
-0.00431	0.10015
-0.10631	-0.10391
0.14870	0.22769
0.17421	0.07465
0.09770	0.32972
0.27621	0.32972
0.32721	0.32972
0.19971	0.30422
0.19971	0.15117
0.19971	-0.00188
0.02119	-0.02739
-0.02981	0.02363
0.07220	0.15117
0.04670	0.10015
0.12320	0.25320
0.27621	0.17668
0.25071	0.10015
0.22521	0.17668
0.27621	0.22769
0.12320	0.15117
-0.05531	-0.05289
0.07220	0.22769
0.17421	0.20219
0.27621	0.17668
0.32721	0.25320
0.22521	0.12566
-0.18282	-0.05289
-0.00431	0.10015
0.22521	0.25320
0.14870	0.17668
0.07220	0.12566
0.07220	0.20219
0.22521	0.10015
0.17421	0.04914
0.04670	0.15117
0.22521	0.27871
0.25071	0.10015
0.14870	0.04914
0.17421	0.15117
0.07220	0.10015
0.09770	0.22769
-0.00431	0.07465
0.09770	0.10015
0.12320	0.12566
0.07220	0.12566
0.32721	0.27871
0.32721	0.20219
0.27621	0.15117
0.02119	0.04914
0.09770	0.02363
0.04670	0.25320
-0.00431	0.17668
0.02119	0.20219
0.32721	0.22769
0.25071	-0.07840
0.17421	0.02363
0.22521	0.35523
0.09770	-0.00188
0.07220	-0.07840
0.55673	0.30422
0.42922	0.30422
-0.05531	0.22769
-1.04987	0.22769
-0.23382	-0.05289
0.40372	0.22769
0.35272	0.20219
0.78624	0.22769
0.48022	0.04914
0.60773	-0.51203
-0.28482	-0.00188
-0.43783	0.40625
-0.59084	0.30422
-0.28482	0.04914
0.58223	0.30422
0.07220	0.17668
0.42922	0.20219
0.73524	0.38074
1.04126	0.20219
0.63323	-0.12942
-0.36133	0.35523
-0.31033	0.02363
-0.64185	-0.33348
-0.33583	0.25320
-0.46334	0.38074
0.81175	-0.18043
0.88825	0.68683
0.35272	0.35523
0.09770	0.61031
0.30171	-0.58856
0.27621	0.07465
0.02119	-0.07840
-0.53984	-0.28246
0.02119	0.32972
0.19971	0.68683
-0.59084	-0.76711
0.88825	0.04914
0.25071	0.61031
0.12320	0.45726
-0.28482	-0.30797
0.83725	0.30422
0.19971	0.17668
0.40372	-0.15492
-0.20832	0.10015
0.63323	0.76336
0.63323	0.48277
0.60773	-0.43551
-0.10631	0.27871
-0.00431	-0.51203
0.04670	-0.10391
-2.65648	0.43176
-2.17195	0.12566
1.42379	0.35523
1.80631	0.50828
0.17421	-1.53234
0.60773	0.83988
2.72437	0.71234
1.55129	0.38074
-1.33039	0.22769
-4.59460	0.17668
-1.30489	-0.63957
1.14327	-0.61406
2.85188	0.58480
2.03582	0.71234
1.75531	0.35523
-0.43783	0.55929
-1.15188	0.32972
-0.13181	0.40625
0.73524	0.38074
-1.96793	-0.38449
-0.41233	-1.17523
0.35272	0.04914
1.29628	0.91640
-1.78942	0.38074
-1.10088	-0.74160
0.83725	0.17668
1.95932	0.04914
1.57679	0.91640
-0.23382	0.86539
-0.51434	0.07465
1.72980	-0.43551
1.09226	0.30422
-1.43240	-0.05289
-2.45246	0.35523
-0.71835	0.35523
1.72980	0.55929
0.19971	-0.84363
-1.89143	0.63582
0.48022	0.71234
0.86275	-0.53754
0.63323	-0.35899
0.37822	-0.35899
1.01576	-0.05289
0.19971	0.89089
-1.12638	0.53379
1.04126	0.81437
1.37278	0.76336
-0.41233	0.17668
-0.87136	0.07465
0.70974	-0.35899
0.02119	-1.12422
-0.20832	0.91640
0.63323	-0.53754
0.99026	-0.41000
-0.89686	0.58480
-0.20832	-0.48652
0.96476	0.15117
0.45472	0.63582
0.86275	0.55929
-0.46334	0.15117
-0.41233	0.55929
-1.76392	0.22769
-1.76392	0.27871
1.27078	0.35523
0.78624	0.04914
-1.86593	0.58480
1.52579	0.10015
2.23984	-0.25695
1.75531	0.04914
0.73524	0.02363
0.88825	0.20219
-1.35589	0.04914
-2.37596	-0.30797
-0.71835	0.07465
1.44929	0.43176
1.16877	0.48277
0.19971	0.35523
-0.61635	0.12566
-0.18282	-0.18043
1.72980	-0.46102
1.93382	0.25320
-3.44703	0.61031
-2.55447	-0.12942
0.07220	-0.15492
2.08683	0.15117
2.16333	0.43176
0.68424	1.50308
-0.10631	-0.20594
-0.28482	-0.69059
-0.05531	0.38074
2.03582	0.38074
-1.22839	-0.07840
-3.19201	0.30422
-0.71835	0.53379
0.60773	-0.28246
1.21977	-0.05289
-0.97337	-0.02739
1.24527	-0.07840
2.03582	0.30422
0.76074	0.35523
0.73524	0.50828
-0.46334	0.15117
-0.28482	0.27871
0.53123	-0.46102
-0.61635	-0.58856
-2.80949	-0.25695
0.04670	0.25320
0.63323	1.32453
2.54586	0.04914
-0.97337	-0.30797
-1.02437	0.94191
0.48022	0.53379
2.41835	0.38074
0.50573	-0.25695
-2.75848	-0.10391
0.22521	0.35523
1.16877	-0.02739
0.32721	0.04914
0.83725	-0.33348
0.32721	0.04914
-0.38683	0.25320
-2.04444	0.20219
-3.16651	-0.41000
1.09226	0.04914
2.92838	0.55929
2.59686	0.61031
0.91375	0.45726
0.86275	-0.00188
0.07220	0.35523
0.60773	0.15117
-1.96793	0.53379
-0.99887	0.07465
-2.22295	-0.12942
-1.20288	-0.48652
-1.25389	0.04914
-1.91693	0.63582
1.88281	0.10015
5.04502	-0.05289
2.49485	0.91640
-0.31033	-0.43551
-1.30489	-0.15492
0.27621	1.22250
0.14870	0.71234
-0.00431	-0.86914
0.60773	0.30422
0.14870	-0.18043
-0.33583	-0.38449
0.25071	0.63582
-0.20832	0.73785
-0.48884	0.27871
-0.51434	0.25320
0.19971	0.55929
0.27621	-0.05289
1.75531	-0.41000
-0.02981	0.20219
-1.53441	0.12566
0.37822	0.35523
1.47479	-0.41000
-3.93156	0.61031
-3.37052	-0.05289
3.59142	0.32972
2.67337	-0.18043
2.85188	-0.92016
0.70974	0.50828
-1.50890	0.40625
1.95932	0.68683
1.85731	0.58480
-0.53984	-0.10391
-3.34502	0.38074
-2.04444	0.35523
-0.66735	0.02363
-3.03900	-0.15492
-1.27939	0.12566
0.81175	0.07465
-1.35589	0.04914
2.57136	0.20219
3.31091	-0.05289
2.26534	0.32972
1.19427	0.58480
1.21977	-0.30797
0.50573	0.53379
-0.46334	0.30422
-1.15188	-0.84363
-0.66735	-0.12942
-0.82036	0.96742
-0.38683	-0.84363
0.32721	0.35523
-0.13181	0.35523
-1.58541	0.53379
0.83725	0.15117
1.34728	-0.18043
0.93925	-0.00188
0.22521	0.15117
0.32721	0.12566
1.21977	0.17668
0.19971	-0.07840
0.17421	-0.02739
0.60773	0.50828
-1.04987	0.15117
1.04126	-0.00188
-2.32496	-0.25695
-2.12094	0.02363
1.16877	0.20219
1.60230	0.45726
1.90832	-0.02739
0.99026	0.15117
1.09226	0.66132
-1.40690	0.53379
-0.48884	-0.02739
0.83725	0.04914
-0.25932	-0.79262
-1.53441	0.53379
0.40372	0.25320
0.22521	0.30422
0.65874	0.53379
1.85731	0.12566
0.55673	0.22769
0.25071	0.48277
0.42922	-0.41000
-0.46334	0.35523
-0.13181	0.04914
-0.59084	0.04914
-2.04444	0.12566
-0.38683	0.17668
0.88825	0.15117
0.86275	-0.05289
0.73524	-0.10391
0.76074	0.48277
0.93925	0.22769
0.19971	0.66132
-2.14644	0.02363
-0.05531	-0.12942
1.29628	0.25320
0.45472	0.22769
-0.25932	0.78886
0.70974	-0.05289
0.09770	-0.15492
1.39828	0.48277
0.40372	0.63582
-2.50347	0.43176
-0.92237	0.02363
-0.18282	-1.09871
0.30171	0.40625
1.34728	0.10015
0.81175	0.20219
0.53123	0.27871
1.21977	0.22769
0.60773	0.04914
0.99026	-0.00188
-1.63641	0.30422
-2.96250	-0.46102
0.70974	-0.02739
-0.15732	0.30422
0.83725	0.45726
0.65874	-0.69059
0.73524	0.99292
2.26534	0.25320
-0.48884	0.04914
-1.73842	0.30422
0.35272	0.38074
-1.04987	0.43176
-1.55991	-0.28246
1.19427	0.50828
1.98482	0.40625
1.75531	-0.28246
0.91375	-0.10391
-0.46334	0.20219
-0.05531	0.20219
0.50573	0.15117
-0.89686	0.02363
0.99026	0.40625
-0.28482	0.10015
-2.22295	-0.12942
1.34728	0.25320
1.34728	0.07465
-3.72755	-0.05289
-1.76392	0.35523
1.29628	0.07465
1.60230	0.48277
2.39285	0.25320
2.90288	-0.05289
0.68424	0.22769
-3.42153	-0.05289
-1.66191	0.20219
1.16877	-0.15492
2.39285	-0.76711
1.52579	0.50828
-0.18282	0.86539
-1.55991	0.61031
-0.71835	0.15117
0.14870	0.55929
0.58223	0.40625
1.80631	-0.25695
-2.24845	-0.35899
-0.79486	-0.07840
0.70974	0.10015
0.25071	-0.18043
0.50573	0.25320
0.78624	0.04914
-0.02981	-0.18043
0.60773	0.27871
-0.51434	-0.07840
0.14870	0.81437
0.04670	0.17668
-0.92237	-0.02739
0.42922	0.22769
1.75531	0.40625
0.55673	0.38074
-2.32496	-0.00188
-0.66735	-0.12942
2.16333	0.32972
2.39285	0.07465
1.60230	0.22769
-2.73298	0.32972
-0.48884	-0.12942
0.81175	-0.89465
0.02119	0.48277
-1.12638	-0.05289
0.04670	0.32972
0.76074	0.89089
0.32721	0.12566
-0.66735	0.17668
0.63323	-0.05289
0.86275	-0.18043
-0.28482	0.20219
-0.36133	0.10015
0.17421	0.15117
0.58223	-0.76711
0.35272	0.66132
-0.08081	-0.35899
0.73524	0.22769
-0.59084	0.35523
0.25071	-0.23145
-0.66735	-0.81812
-0.10631	0.20219
-0.56534	-0.07840
-1.15188	0.58480
1.55129	0.83988
2.29084	1.01843
0.50573	-0.05289
0.76074	-0.12942
2.13783	0.07465
-1.30489	0.27871
-5.58916	-0.02739
-1.40690	-0.10391
2.64786	0.43176
2.18883	-0.20594
-0.41233	0.15117
1.01576	-0.23145
0.09770	0.30422
0.58223	0.25320
0.40372	0.35523
-0.38683	0.12566
-0.25932	0.35523
-0.36133	-0.02739
0.65874	0.25320
0.04670	0.40625
-1.15188	-0.66508
-0.59084	0.10015
0.30171	0.40625
0.99026	0.32972
0.88825	-0.56305
0.73524	0.83988
0.45472	-0.15492
0.22521	0.38074
0.02119	-0.43551
0.22521	0.10015
-0.25932	0.78886
-0.46334	0.04914
0.78624	-0.00188
-0.20832	-0.25695
-0.48884	-0.25695
-0.13181	0.17668
0.04670	-0.30797
0.22521	0.55929
0.14870	-0.30797
0.30171	0.43176
1.57679	0.86539
1.06676	0.53379
-0.15732	0.43176
0.04670	0.04914
-0.99887	-0.20594
-0.15732	-0.66508
-0.05531	-0.07840
-1.78942	-0.02739
-1.20288	-0.00188
1.60230	0.17668
2.31634	0.17668
1.19427	0.53379
0.30171	0.25320
-0.56534	0.32972
1.83181	-0.02739
-0.59084	-0.07840
-1.38139	-0.18043
0.04670	0.12566
0.48022	0.68683
0.45472	0.43176
0.93925	0.17668
0.45472	-0.00188
-0.53984	0.10015
0.09770	0.15117
-0.69285	-0.07840
-0.36133	0.48277
0.25071	-0.66508
1.14327	0.27871
0.22521	0.15117
-2.52897	-0.05289
1.09226	0.04914
0.88825	0.53379
0.91375	0.38074
0.63323	-0.02739
-0.05531	-0.07840
-0.46334	0.63582
-0.05531	-0.00188
0.27621	0.10015
0.12320	0.25320
0.81175	0.35523
0.83725	-0.10391
0.07220	0.22769
-1.48340	-0.12942
-0.89686	-0.15492
-0.79486	0.32972
1.06676	0.27871
1.85731	-0.30797
0.40372	0.32972
-0.43783	0.40625
-0.18282	0.02363
1.04126	0.68683
1.06676	-0.05289
-0.43783	0.32972
0.83725	-0.12942
0.48022	-0.07840
-0.46334	0.35523
-0.08081	0.02363
-0.74385	-0.05289
-2.22295	0.04914
0.07220	0.38074
0.55673	0.96742
1.16877	-0.61406
1.27078	0.63582
0.73524	0.07465
-0.10631	-0.10391
-0.23382	0.12566
-0.66735	-0.51203
0.27621	0.48277
1.04126	0.50828
0.58223	0.32972
1.42379	0.04914
-0.33583	0.30422
-1.99343	0.15117
0.48022	0.07465
1.14327	-0.25695
-0.05531	0.20219
-1.63641	0.35523
-1.20288	-0.92016
0.88825	0.25320
1.27078	0.27871
1.19427	0.61031
1.47479	0.20219
1.21977	0.32972
-1.15188	0.45726
-1.02437	0.45726
0.68424	-0.30797
0.53123	-0.18043
0.81175	0.58480
-1.84042	-0.30797
0.17421	-0.43551
0.19971	0.12566
-0.23382	0.45726
0.12320	0.02363
0.50573	0.78886
0.37822	-0.25695
0.45472	0.58480
0.04670	0.61031
-0.02981	-0.86914
0.73524	0.10015
-0.23382	0.20219
-0.18282	0.25320
-0.10631	0.12566
0.55673	0.02363
-0.15732	0.12566
0.65874	0.12566
0.45472	0.12566
-1.02437	0.27871
0.96476	-0.25695
1.24527	0.38074
-1.86593	0.45726
0.55673	0.32972
2.11233	-0.02739
0.02119	-0.05289
-0.76936	0.04914
-0.69285	-0.00188
0.12320	-0.00188
0.55673	0.35523
1.11776	0.43176
0.76074	0.32972
0.50573	0.17668
-0.94787	0.76336
0.55673	-0.05289
-0.18282	-0.53754
0.19971	0.45726
0.32721	-0.05289
-0.05531	-0.43551
-0.28482	0.38074
-0.25932	-0.07840
0.14870	-0.02739
0.07220	0.27871
0.45472	0.50828
0.65874	-0.00188
0.22521	0.30422
0.53123	0.22769
0.27621	0.27871
-0.23382	-0.05289
-0.13181	0.38074
-0.31033	-0.18043
0.68424	0.45726
-0.13181	0.07465
-1.66191	0.35523
1.52579	0.27871
1.42379	-0.05289
1.24527	-0.05289
0.40372	0.55929
-1.99343	-0.71609
-1.40690	0.38074
-0.15732	-0.02739
1.09226	0.32972
0.99026	0.43176
0.30171	0.43176
0.48022	0.27871
0.58223	0.10015
-0.31033	-0.15492
-0.20832	0.30422
-0.00431	-0.35899
0.65874	-0.15492
0.45472	0.20219
-0.51434	0.17668
0.81175	0.22769
-0.53984	0.10015
-2.17195	0.02363
0.02119	0.10015
0.73524	0.30422
0.76074	0.17668
0.96476	0.58480
0.53123	-0.56305
0.63323	0.55929
0.60773	0.12566
0.09770	0.07465
-1.33039	0.53379
0.14870	-0.15492
0.09770	-0.25695
0.14870	0.27871
0.42922	0.25320
0.14870	-0.20594
-0.02981	0.50828
0.53123	0.48277
0.99026	0.38074
0.50573	0.32972
-1.20288	0.07465
-0.15732	-0.43551
-0.64185	0.20219
-1.50890	-0.00188
0.55673	-0.00188
1.52579	0.10015
0.99026	0.30422
1.62780	0.40625
1.37278	0.32972
0.32721	0.30422
0.25071	0.38074
-1.81492	-0.86914
-1.20288	0.38074
-0.89686	-0.10391
-0.36133	-0.05289
0.37822	0.25320
0.58223	0.43176
0.53123	-0.15492
0.12320	0.40625
0.30171	0.35523
0.63323	-0.12942
0.83725	1.06945
0.19971	-0.35899
0.93925	0.63582
0.32721	0.15117
-0.84586	-1.07320
-0.38683	-0.00188
-0.20832	0.25320
-1.91693	0.10015
1.47479	0.10015
0.83725	-0.12942
-0.48884	0.43176
0.60773	0.25320
0.70974	0.20219
1.09226	-0.18043
-0.05531	-0.12942
-1.25389	-0.02739
0.35272	0.04914
0.55673	0.17668
-0.08081	0.55929
0.14870	0.40625
1.75531	0.35523
1.57679	-0.07840
-3.29402	0.04914
-2.24845	0.32972
-0.18282	0.07465
1.83181	-0.43551
1.57679	0.02363
-1.15188	0.15117
-0.10631	-0.10391
0.70974	0.25320
1.14327	0.71234
1.90832	0.66132
-0.41233	0.25320
-3.03900	-0.15492
0.81175	0.43176
1.29628	0.15117
1.04126	-0.18043
-0.02981	0.15117
-0.33583	-0.05289
0.30171	0.17668
0.07220	-0.12942
-0.71835	-0.02739
0.30171	0.15117
0.02119	0.02363
-0.41233	0.15117
0.19971	0.15117
-0.13181	0.32972
0.27621	0.50828
0.35272	-0.02739
1.34728	-0.07840
-0.02981	0.27871
-1.38139	-0.25695
1.50029	0.43176
-1.66191	0.30422
-0.87136	0.12566
0.99026	0.22769
1.16877	0.32972
1.34728	-0.35899
0.55673	0.40625
-0.28482	0.40625
-1.12638	0.04914
0.14870	0.30422
1.29628	0.30422
0.50573	-0.12942
0.09770	-0.02739
1.70430	0.35523
-0.56534	-0.05289
-4.36509	-0.38449
0.63323	0.04914
1.83181	0.43176
-0.15732	0.25320
0.19971	0.68683
0.37822	-0.48652
0.65874	0.38074
0.30171	0.40625
0.07220	0.12566
0.14870	-0.23145
0.14870	0.32972
-0.10631	0.17668
0.53123	0.40625
-0.23382	0.02363
0.65874	0.40625
-0.13181	-0.00188
-1.04987	-0.18043
0.27621	-0.05289
0.93925	0.10015
-0.28482	0.15117
-1.22839	-0.00188
0.83725	0.63582
2.34184	0.15117
-0.94787	0.32972
-1.53441	0.15117
0.58223	0.07465
0.91375	-0.61406
0.93925	0.12566
1.01576	-0.23145
1.34728	0.04914
0.40372	0.17668
-1.40690	0.45726
-1.25389	0.30422
-0.64185	0.91640
-3.37052	-0.66508
0.86275	0.15117
1.57679	-0.23145
1.16877	0.25320
1.34728	0.55929
0.99026	0.10015
-0.59084	0.04914
-1.22839	0.17668
0.63323	0.20219
1.32178	0.07465
1.04126	0.10015
-0.51434	0.35523
-1.81492	-0.12942
-0.53984	-0.00188
0.76074	0.02363
0.37822	0.12566
0.32721	0.40625
0.78624	0.02363
0.70974	0.07465
-1.40690	0.20219
-0.00431	-0.35899
0.14870	0.15117
0.65874	0.71234
0.14870	0.15117
-0.31033	-0.00188
1.75531	-0.00188
-0.43783	0.17668
-0.38683	0.32972
-1.58541	0.12566
-1.15188	0.50828
3.20890	-0.25695
1.24527	-0.28246
-0.69285	-0.07840
0.17421	0.48277
1.24527	0.48277
1.55129	0.25320
-1.12638	-0.15492
-1.20288	0.04914
0.07220	-0.23145
0.32721	-0.18043
-0.79486	-0.00188
0.60773	0.48277
-0.41233	0.58480
1.04126	0.25320
0.81175	0.02363
-1.25389	-0.86914
0.93925	0.63582
1.24527	-0.20594
0.12320	0.53379
-0.59084	0.76336
0.27621	0.10015
1.01576	0.20219
0.07220	-0.00188
-1.04987	0.07465
0.86275	-0.33348
-0.74385	0.22769
-1.48340	0.10015
-0.71835	0.15117
0.48022	-0.15492
1.29628	0.04914
1.06676	0.38074
1.06676	-0.00188
0.58223	0.48277
-0.05531	0.15117
-0.02981	0.61031
0.32721	-0.74160
0.32721	0.35523
-0.38683	-0.07840
-1.50890	0.35523
0.63323	0.07465
-0.28482	-0.18043
-0.59084	-0.02739
0.93925	0.30422
0.50573	0.48277
-0.94787	0.40625
0.55673	0.35523
-0.23382	-0.00188
1.47479	0.12566
1.32178	0.02363
2.18883	-0.10391
-0.10631	0.04914
-1.99343	0.04914
-0.08081	0.50828
-0.61635	-0.30797
-0.89686	0.22769
-0.15732	0.66132
0.60773	-0.56305
1.01576	0.25320
1.29628	0.55929
-0.74385	0.43176
-1.96793	0.22769
-0.28482	0.30422
1.47479	0.10015
1.62780	-0.18043
-0.33583	-0.30797
0.09770	0.25320
0.50573	-0.05289
0.88825	0.07465
0.27621	0.68683
0.63323	0.35523
-0.18282	0.04914
-0.20832	0.02363
0.17421	-0.05289
-0.89686	0.17668
-1.84042	-0.07840
-0.33583	0.32972
1.01576	-0.10391
0.27621	0.25320
0.27621	0.22769
1.16877	0.38074
-0.08081	0.04914
0.37822	0.12566
0.63323	0.32972
0.14870	0.38074
-0.25932	0.17668
-0.79486	-0.81812
0.32721	0.43176
1.47479	0.32972
1.57679	0.45726
-0.92237	-0.18043
-0.59084	0.15117
-1.33039	-0.00188
0.19971	0.20219
0.63323	0.02363
0.45472	0.53379
0.45472	0.50828
0.19971	-0.33348
0.96476	0.27871
0.70974	0.35523
-0.02981	0.17668
-0.87136	-0.15492
-1.17738	0.07465
0.55673	0.25320
0.09770	0.12566
-0.23382	-0.05289
1.09226	0.55929
0.78624	-0.05289
-0.94787	0.35523
0.45472	0.35523
1.24527	0.12566
0.53123	0.40625
-0.76936	0.12566
-0.66735	0.12566
-1.22839	0.17668
1.27078	-0.58856
1.65330	-0.05289
-0.18282	0.20219
-0.46334	0.35523
0.63323	0.10015
0.14870	0.15117
0.86275	0.43176
-0.18282	0.17668
0.19971	0.17668
0.30171	0.17668
-0.18282	-0.33348
-0.53984	0.40625
0.09770	-0.02739
0.73524	0.17668
0.91375	0.17668
-1.66191	0.10015
-2.75848	-0.12942
1.29628	0.30422
1.57679	0.32972
1.11776	0.10015
0.35272	0.12566
-0.41233	0.10015
0.25071	0.20219
1.32178	-0.00188
-0.00431	0.66132
-0.69285	-0.07840
-0.15732	-0.07840
0.68424	0.32972
0.83725	0.10015
-0.28482	0.25320
-0.82036	0.27871
0.63323	-0.07840
-0.28482	0.07465
-0.94787	0.30422
1.21977	0.40625
1.90832	0.02363
0.76074	0.53379
-0.92237	-0.15492
-0.94787	0.10015
-0.41233	-0.07840
0.58223	0.22769
-0.18282	0.15117
0.93925	0.15117
0.09770	0.22769
0.63323	0.12566
-0.48884	0.10015
-1.17738	0.27871
0.70974	0.25320
1.04126	0.73785
0.73524	-0.48652
0.88825	-0.02739
-0.02981	-0.23145
-0.28482	0.12566
-0.69285	0.07465
-0.20832	0.07465
0.58223	0.61031
0.63323	0.40625
0.09770	0.35523
-0.87136	-0.38449
-1.10088	-0.12942
0.32721	-0.00188
0.78624	0.22769
1.24527	0.27871
1.42379	-0.28246
-1.38139	0.27871
-1.63641	-0.00188
0.78624	0.50828
0.32721	0.20219
-0.08081	0.04914
0.68424	0.20219
0.73524	0.15117
0.42922	0.25320
0.45472	-0.41000
1.50029	0.68683
-1.07538	0.35523
-1.43240	0.22769
-0.46334	-0.05289
0.76074	-0.18043
-0.53984	-0.12942
-0.00431	0.30422
0.65874	0.45726
0.73524	0.83988
-0.10631	-0.25695
1.34728	-0.00188
0.99026	-0.07840
0.04670	0.43176
-1.48340	-0.02739
-0.10631	0.04914
0.30171	0.15117
1.04126	0.32972
-0.13181	0.61031
-0.31033	-0.05289
-0.25932	-0.12942
0.58223	0.04914
0.14870	-0.38449
0.14870	0.30422
0.48022	0.53379
0.19971	0.45726
0.68424	0.22769
0.30171	-0.05289
-0.43783	-0.12942
-0.92237	-0.18043
-0.25932	0.38074
0.58223	0.12566
0.40372	0.12566
0.30171	0.22769
0.27621	0.22769
1.55129	0.43176
0.53123	0.04914
-0.23382	-0.05289
-0.46334	0.02363
-1.55991	0.55929
-0.15732	-0.15492
1.52579	-0.20594
1.80631	0.15117
-0.33583	0.32972
-1.17738	0.35523
0.22521	-0.07840
-0.10631	0.22769
1.19427	0.22769
0.53123	-0.05289
-1.25389	0.35523
0.07220	0.43176
0.30171	-0.10391
0.07220	-0.05289
1.19427	-0.46102
1.75531	0.61031
-0.84586	0.38074
-2.98800	-0.20594
0.53123	0.25320
1.09226	-0.00188
0.22521	0.22769
0.83725	0.40625
1.21977	-0.12942
-0.76936	0.38074
-0.56534	0.02363
2.36734	-0.02739
0.78624	0.43176
-3.95706	0.07465
-0.33583	-0.05289
1.44929	-0.05289
0.22521	0.20219
0.48022	0.38074
0.86275	-0.41000
1.80631	0.45726
0.86275	0.76336
-1.50890	0.15117
-0.25932	0.04914
-0.33583	-0.20594
-0.61635	0.17668
0.37822	-0.20594
0.22521	0.22769
1.55129	0.48277
-0.53984	0.12566
-2.45246	0.07465
1.21977	0.32972
0.60773	0.12566
0.91375	0.68683
1.04126	-0.15492
0.27621	-0.07840
-0.76936	0.48277
0.14870	-1.02219
0.09770	0.10015
0.88825	-0.02739
0.78624	0.35523
-0.38683	0.25320
0.50573	0.61031
0.17421	-0.02739
-1.66191	0.02363
-0.08081	0.32972
0.42922	0.15117
-0.84586	-0.46102
0.70974	-0.00188
1.21977	0.27871
0.96476	0.43176
1.90832	0.43176
1.09226	0.17668
-1.38139	-0.05289
-2.80949	-0.05289
0.09770	-0.00188
1.47479	0.15117
0.27621	-0.10391
-1.17738	0.32972
-0.08081	0.55929
1.98482	0.07465
0.55673	0.81437
0.07220	-0.66508
0.32721	0.15117
0.22521	-0.05289
-1.15188	0.30422
-0.51434	0.10015
0.73524	0.22769
0.63323	0.55929
0.48022	-0.00188
0.42922	-0.05289
-0.71835	-0.30797
0.35272	0.40625
-0.89686	-0.35899
0.42922	0.32972
0.35272	0.07465
0.22521	0.22769
0.93925	0.25320
1.62780	0.61031
1.19427	-0.56305
-0.23382	0.27871
-1.45790	0.25320
-2.68198	-0.12942
-0.56534	-0.51203
1.32178	0.32972
1.01576	0.53379
0.17421	0.99292
0.22521	0.07465
0.32721	0.02363
0.02119	0.20219
2.16333	0.20219
0.88825	0.15117
-0.38683	0.35523
-0.38683	0.12566
0.22521	0.17668
-0.97337	-0.15492
-3.67654	-0.41000
-0.28482	0.07465
0.63323	0.38074
1.85731	0.07465
2.36734	0.68683
1.19427	0.50828
-0.08081	0.20219
0.60773	0.15117
-0.10631	0.07465
-1.58541	-0.25695
0.37822	-0.02739
0.37822	0.15117
0.02119	0.22769
0.19971	-0.02739
1.27078	0.73785
0.27621	-0.48652
-2.42696	-0.25695
-2.86049	0.15117
-0.00431	0.38074
3.13239	0.76336
0.32721	0.25320
-1.40690	0.17668
1.19427	-0.00188
1.98482	-0.02739
1.90832	0.15117
0.35272	0.04914
-0.33583	-0.15492
-0.59084	0.30422
1.14327	0.58480
-0.69285	-0.35899
-1.78942	0.20219
-0.20832	-0.25695
0.02119	0.48277
-0.05531	0.20219
0.58223	0.20219
-0.05531	-0.05289
-0.20832	0.04914
0.07220	0.17668
1.85731	0.53379
-0.46334	0.73785
-2.22295	-0.02739
-0.13181	-0.61406
1.60230	-0.07840
2.57136	0.17668
1.11776	0.17668
-1.17738	0.04914
1.01576	0.02363
0.37822	0.20219
0.12320	0.15117
-1.81492	0.10015
-1.27939	0.20219
0.86275	0.30422
-0.79486	-0.10391
-0.31033	0.25320
1.27078	0.43176
0.68424	-0.30797
0.02119	-0.00188
-0.08081	0.25320
0.30171	-0.15492
0.65874	0.35523
-0.10631	0.25320
-0.38683	0.27871
0.32721	0.17668
0.40372	0.04914
-0.31033	-0.15492
0.60773	0.04914
-0.31033	0.45726
-0.53984	0.38074
-0.33583	0.04914
0.73524	0.04914
1.37278	0.25320
0.60773	0.02363
-1.40690	0.15117
-1.25389	0.15117
-0.08081	0.10015
2.69887	0.12566
1.78081	-0.02739
-0.53984	0.12566
-1.99343	-0.18043
-0.28482	0.22769
1.34728	0.12566
1.04126	0.45726
-1.96793	0.07465
0.81175	0.73785
1.19427	0.68683
1.34728	-0.41000
1.16877	-0.10391
-1.15188	0.30422
-1.63641	0.30422
-0.31033	0.48277
1.14327	0.12566
-0.64185	-0.05289
-2.29945	-0.05289
0.22521	0.27871
1.98482	0.35523
2.41835	0.02363
-0.00431	0.12566
-0.08081	0.27871
-0.28482	-0.18043
-1.04987	-0.35899
-0.08081	0.30422
0.91375	-0.10391
1.04126	0.12566
-0.99887	0.55929
-0.18282	0.38074
-0.71835	0.55929
-0.43783	-0.25695
2.01032	0.04914
1.14327	0.17668
0.53123	0.12566
0.88825	0.25320
-1.73842	0.02363
-2.35046	0.27871
0.48022	0.15117
0.76074	-0.05289
1.19427	0.04914
1.06676	-0.58856
0.30171	0.17668
0.12320	0.40625
-0.28482	0.58480
-0.51434	-0.02739
-0.15732	0.35523
-0.82036	0.20219
-0.33583	0.27871
0.22521	0.27871
0.65874	0.38074
1.57679	0.15117
1.04126	0.07465
0.19971	0.02363
0.09770	0.02363
0.19971	0.12566
0.14870	-0.56305
-0.69285	-0.02739
-0.92237	0.45726
-0.10631	0.20219
0.53123	0.43176
0.45472	0.38074
-0.36133	-0.05289
0.99026	0.30422
1.19427	-0.46102
-0.69285	0.22769
-1.73842	0.48277
-0.31033	0.02363
0.50573	0.35523
0.25071	0.20219
0.83725	0.25320
1.70430	-0.02739
1.37278	-0.05289
0.32721	-0.05289
-0.18282	0.35523
-0.94787	0.15117
-0.20832	-0.46102
0.68424	0.32972
-1.35589	0.32972
-1.30489	0.48277
0.65874	-0.15492
0.07220	0.20219
0.40372	0.30422
1.29628	0.15117
0.70974	0.15117
0.68424	0.17668
-0.38683	0.10015
-0.18282	0.30422
0.35272	0.48277
0.02119	0.22769
0.60773	0.04914
-0.13181	0.07465
0.78624	-0.00188
0.30171	-0.02739
-1.78942	-0.15492
-1.53441	-0.28246
0.50573	0.17668
0.91375	0.12566
1.06676	0.81437
-0.69285	0.43176
0.45472	-0.53754
0.58223	0.35523
1.50029	-0.07840
0.58223	0.22769
-2.27395	0.38074
-0.82036	0.48277
1.01576	0.22769
1.80631	-0.38449
0.27621	0.15117
-1.27939	-0.10391
-0.84586	0.07465
0.32721	0.25320
0.81175	0.12566
0.55673	0.17668
0.70974	-0.15492
0.37822	-0.23145
-0.13181	-0.25695
-0.51434	0.66132
-0.25932	0.15117
0.91375	0.78886
-0.64185	-0.15492
-1.25389	0.38074
0.58223	-0.25695
0.99026	0.38074
0.50573	-0.05289
0.37822	-0.05289
1.06676	0.17668
-0.05531	0.15117
-1.02437	-0.10391
0.07220	0.25320
1.44929	0.20219
-0.08081	0.04914
-1.22839	0.35523
-0.89686	-0.20594
-0.20832	0.17668
0.12320	0.20219
1.32178	0.35523
1.27078	-0.05289
0.63323	0.10015
-0.33583	0.02363
1.06676	0.32972
-0.15732	0.02363
-0.71835	0.04914
-0.48884	0.38074
0.48022	0.17668
0.32721	0.27871
0.25071	-0.23145
0.60773	-0.00188
-0.64185	0.76336
-0.79486	0.30422
-0.20832	0.02363
1.04126	0.02363
0.73524	-0.23145
0.19971	0.17668
-1.48340	0.07465
0.55673	-0.12942
1.21977	0.30422
-0.05531	0.35523
0.14870	0.25320
0.88825	-0.12942
0.12320	0.27871
-0.51434	-0.05289
0.68424	0.43176
0.99026	0.12566
-1.30489	0.15117
0.19971	-0.23145
0.48022	0.35523
0.37822	0.25320
-0.33583	0.10015
-2.65648	0.32972
0.37822	0.10015
1.47479	-0.05289
1.11776	0.30422
1.19427	0.04914
0.37822	-0.25695
1.04126	0.50828
-0.43783	0.27871
-0.18282	0.04914
-0.46334	0.07465
-0.05531	0.27871
0.32721	0.17668
-0.38683	0.20219
-0.28482	0.32972
-0.46334	-0.76711
0.40372	0.15117
0.04670	0.27871
-1.63641	0.04914
0.25071	-0.07840
2.03582	0.27871
1.24527	0.04914
-0.64185	0.27871
1.16877	0.50828
0.91375	0.22769
-1.86593	0.15117
0.73524	0.12566
0.93925	0.20219
-1.45790	-0.48652
-0.74385	0.02363
0.81175	0.32972
0.86275	0.02363
0.32721	0.53379
-0.20832	0.50828
0.22521	0.04914
1.29628	-0.43551
-0.02981	0.30422
-2.73298	-0.30797
0.07220	0.12566
0.22521	0.32972
0.93925	0.45726
1.01576	0.27871
1.24527	0.53379
1.16877	-0.23145
0.58223	-0.38449
-0.87136	0.35523
-1.86593	0.32972
-0.56534	0.07465
1.72980	0.32972
0.27621	-0.05289
-0.53984	0.17668
-0.59084	0.10015
-0.46334	0.12566
1.55129	0.55929
0.96476	0.04914
0.70974	0.27871
0.40372	0.43176
0.14870	-0.10391
-0.48884	-0.51203
0.42922	-0.41000
0.02119	-0.25695
-0.51434	0.55929
0.02119	0.96742
0.78624	0.32972
0.19971	0.22769
-0.38683	-0.00188
-0.99887	0.17668
-0.48884	-0.05289
1.75531	-0.12942
1.80631	0.55929
-1.61091	-0.05289
-0.61635	0.02363
0.86275	0.20219
1.60230	0.07465
1.67880	0.30422
-0.10631	0.55929
-1.07538	-0.25695
-1.10088	-0.38449
0.63323	0.15117
1.14327	0.53379
-0.43783	0.38074
0.07220	0.15117
0.48022	-0.12942
0.02119	0.27871
-0.18282	-0.02739
-0.13181	0.27871
0.37822	-0.05289
0.42922	0.04914
0.27621	0.04914
-0.33583	0.53379
-0.08081	0.10015
0.25071	0.38074
-0.13181	0.15117
0.40372	0.07465
0.02119	-0.18043
0.58223	0.12566
1.95932	0.07465
-1.02437	0.17668
-1.86593	-0.38449
0.50573	-0.05289
0.48022	0.25320
0.96476	0.32972
1.75531	0.04914
0.14870	0.35523
-2.83499	0.71234
-1.02437	-0.10391
0.88825	0.22769
1.37278	0.07465
0.45472	0.10015
-0.69285	0.15117
0.76074	0.07465
1.01576	0.32972
-0.36133	0.17668
-0.05531	0.17668
0.40372	-0.00188
-0.46334	-0.10391
0.32721	0.10015
0.55673	0.32972
-0.05531	-0.05289
-0.46334	0.04914
0.42922	0.71234
1.27078	0.04914
-0.43783	-0.38449
-2.88599	0.10015
0.81175	0.27871
0.40372	0.15117
-0.66735	0.27871
1.06676	0.58480
1.32178	0.17668
0.58223	0.43176
-0.00431	-0.35899
0.63323	-0.15492
0.27621	0.15117
0.35272	0.32972
1.47479	-0.15492
-0.56534	0.10015
-1.38139	0.35523
-0.00431	0.04914
0.58223	0.20219
-0.79486	0.07465
-0.18282	0.30422
0.30171	0.38074
0.14870	0.20219
0.58223	0.30422
-0.10631	-0.28246
0.42922	-0.00188
0.91375	0.04914
1.29628	0.63582
-1.27939	-0.63957
-0.38683	0.10015
0.60773	0.32972
1.04126	0.38074
0.93925	0.15117
-0.18282	0.12566
-0.53984	0.10015
-0.48884	0.12566
0.48022	0.27871
-0.84586	0.10015
-0.05531	0.15117
0.83725	0.22769
0.42922	-0.15492
-0.10631	0.25320
0.30171	0.43176
0.32721	-0.02739
0.25071	-0.28246
-0.08081	0.17668
0.25071	0.22769
0.73524	0.32972
0.17421	0.32972
-0.79486	0.04914
-0.92237	0.35523
-0.97337	0.20219
1.27078	-0.00188
0.63323	-0.05289
0.63323	0.07465
0.81175	0.20219
0.40372	0.04914
0.50573	0.30422
-0.66735	-0.18043
0.17421	0.30422
-0.10631	0.53379
-0.20832	0.07465
-0.02981	-0.07840
0.27621	0.12566
-0.08081	0.30422
-0.10631	0.20219
1.34728	0.04914
0.86275	-0.15492
-0.38683	0.12566
-1.15188	0.48277
-0.41233	0.35523
0.93925	0.55929
1.09226	0.35523
-1.63641	-0.25695
-0.66735	-0.71609
1.27078	0.53379
1.19427	-0.02739
0.27621	0.50828
1.47479	0.30422
0.12320	0.32972
-2.06994	-0.41000
0.55673	0.10015
-0.28482	-0.02739
2.59686	0.45726
0.55673	0.17668
-2.45246	-0.00188
-0.99887	0.12566
0.60773	0.30422
1.06676	-0.05289
-1.81492	0.15117
0.55673	0.15117
0.60773	0.22769
0.83725	-0.25695
1.37278	0.25320
-0.31033	0.07465
0.17421	-0.02739
-0.89686	0.30422
0.55673	0.38074
0.55673	0.02363
-2.06994	0.35523
0.22521	-0.12942
0.42922	-0.05289
1.95932	0.22769
1.24527	0.43176
-0.13181	0.04914
-0.48884	0.10015
0.12320	-0.25695
-0.33583	-0.10391
0.42922	0.30422
0.32721	0.25320
-0.05531	0.55929
-0.23382	-0.02739
0.32721	0.27871
-0.18282	0.30422
0.17421	-0.38449
-0.13181	0.04914
-1.35589	0.22769
-0.43783	0.68683
0.68424	0.43176
0.60773	-0.05289
1.75531	0.04914
-0.82036	-0.12942
-0.51434	0.32972
1.93382	0.20219
0.99026	-0.35899
0.91375	0.35523
-0.48884	0.38074
-0.89686	0.15117
1.37278	0.04914
-0.84586	0.22769
-2.83499	-0.05289
0.02119	0.02363
2.46935	0.40625
0.73524	0.40625
-0.94787	0.15117
0.19971	0.12566
0.53123	-0.02739
0.40372	-0.18043
0.78624	0.10015
0.37822	0.55929
-0.43783	0.32972
-0.89686	0.45726
-1.10088	-0.10391
1.19427	0.10015
1.11776	0.15117
0.40372	0.07465
0.81175	0.10015
-0.08081	-0.02739
-0.92237	-0.05289
0.17421	0.43176
1.78081	-0.15492
-0.51434	-0.07840
-3.42153	0.07465
1.24527	0.35523
2.77537	0.45726
0.22521	-0.02739
0.63323	0.27871
-0.05531	0.55929
-1.91693	0.53379
-0.31033	-0.25695
1.65330	0.02363
0.70974	-0.02739
0.27621	0.12566
0.32721	0.04914
-0.08081	-0.02739
0.19971	0.15117
0.32721	0.10015
-0.46334	-0.00188
-0.87136	-0.10391
-1.12638	0.30422
0.07220	0.55929
1.04126	0.66132
1.01576	-0.38449
0.91375	0.02363
0.12320	0.38074
-0.79486	0.30422
0.40372	0.38074
0.73524	-0.00188
0.27621	0.04914
0.07220	-0.15492
0.48022	0.12566
0.12320	0.27871
-1.71292	-0.02739
-0.33583	-0.05289
0.65874	0.76336
0.93925	-0.30797
0.58223	0.10015
0.48022	0.15117
-0.64185	-0.25695
-0.74385	0.35523
-0.46334	0.20219
0.88825	0.35523
1.09226	0.25320
0.78624	-0.00188
1.37278	0.12566
-0.64185	-0.00188
-1.45790	-0.02739
-0.05531	0.35523
0.32721	0.20219
0.02119	0.43176
-0.00431	-0.05289
1.42379	0.20219
-0.25932	-0.10391
-1.04987	-0.10391
0.40372	0.32972
1.11776	0.76336
0.48022	-0.00188
-0.64185	0.10015
1.37278	-0.51203
1.11776	0.15117
-1.27939	0.68683
-2.06994	0.17668
0.25071	0.25320
0.22521	0.12566
0.86275	0.40625
1.14327	0.27871
0.42922	-0.05289
0.07220	0.04914
-0.23382	0.02363
-0.00431	-0.28246
0.42922	0.45726
0.14870	0.68683
1.98482	-0.41000
-1.12638	0.76336
-1.96793	-0.00188
0.12320	-0.20594
-0.43783	-0.07840
0.19971	0.40625
1.55129	0.27871
0.53123	-0.05289
0.02119	0.04914
-0.18282	0.17668
-0.53984	0.45726
0.42922	0.32972
0.91375	-0.00188
-0.08081	-0.18043
0.73524	0.02363
0.86275	-0.02739
0.86275	0.25320
0.91375	0.38074
-1.10088	0.15117
-1.10088	0.10015
-0.28482	0.07465
1.21977	0.07465
-0.10631	0.04914
-0.59084	0.10015
0.12320	0.32972
-0.53984	0.53379
-0.53984	-0.43551
0.37822	0.61031
1.34728	0.20219
-0.08081	0.02363
-0.59084	-0.05289
-0.59084	-0.15492
1.37278	0.38074
0.91375	0.15117
1.24527	0.40625
0.27621	0.25320
-0.02981	-0.53754
0.19971	-0.00188
0.91375	0.32972
0.55673	0.35523
-1.35589	0.53379
-1.48340	-0.02739
-1.17738	-0.25695
-0.02981	-0.28246
0.55673	0.43176
0.73524	-0.10391
0.58223	0.81437
0.99026	0.27871
1.21977	-0.18043
0.42922	0.02363
-1.50890	0.12566
-0.18282	0.50828
0.53123	0.04914
1.19427	0.43176
0.14870	0.27871
-0.43783	0.07465
-0.51434	0.12566
0.55673	0.20219
-0.13181	0.15117
0.04670	0.15117
1.34728	0.20219
-0.13181	-0.05289
-0.79486	0.25320
-0.53984	-0.25695
0.04670	-0.10391
0.55673	0.10015
1.01576	-0.05289
0.68424	-0.05289
0.07220	0.76336
-0.71835	0.43176
0.81175	0.63582
-0.28482	0.50828
-0.61635	0.15117
0.22521	-0.25695
0.70974	-0.38449
0.37822	-0.10391
0.07220	-0.05289
-0.02981	0.10015
0.96476	0.15117
-0.41233	0.81437
-1.63641	0.61031
0.32721	0.30422
1.78081	-0.02739
0.02119	-0.07840
-1.20288	-0.05289
0.53123	0.12566
0.35272	0.15117
1.44929	0.22769
1.67880	0.07465
-0.33583	0.43176
-2.06994	0.35523
0.04670	-0.25695
0.40372	0.48277
0.45472	-0.05289
-0.28482	-0.61406
0.12320	0.07465
1.06676	0.22769
0.30171	0.35523
-0.28482	0.45726
0.40372	0.53379
0.58223	0.45726
-1.22839	-0.02739
0.93925	0.20219
0.58223	-0.25695
0.09770	-0.41000
-0.64185	-0.25695
-0.79486	0.15117
1.93382	0.40625
1.01576	0.61031
-2.04444	0.66132
0.65874	-0.12942
1.14327	-0.35899
0.96476	0.50828
0.22521	-0.30797
-0.53984	-0.23145
-1.12638	-0.10391
-0.13181	0.30422
0.27621	0.17668
1.06676	0.40625
1.60230	0.76336
-0.87136	0.04914
-1.45790	0.35523
0.37822	-0.02739
0.78624	-0.00188
1.50029	0.15117
-0.36133	-0.02739
-0.56534	0.32972
0.48022	0.32972
0.63323	0.04914
0.27621	0.32972
-0.46334	-0.02739
-1.96793	-0.18043
0.42922	-0.23145
2.59686	0.55929
-0.71835	0.35523
-0.94787	0.27871
-1.20288	-0.18043
1.11776	0.04914
0.86275	0.32972
0.09770	-0.38449
0.17421	1.14597
0.37822	-0.23145
2.08683	0.30422
0.12320	0.30422
-2.52897	0.61031
-0.08081	0.35523
0.53123	-0.20594
0.32721	-0.00188
0.93925	0.22769
1.32178	0.02363
-0.56534	-0.10391
-0.23382	0.04914
-0.28482	0.32972
0.22521	0.20219
0.04670	0.25320
-2.06994	-0.38449
1.06676	0.32972
2.13783	0.81437
-1.04987	0.15117
-1.50890	0.58480
1.52579	0.04914
0.86275	-0.58856
1.52579	0.20219
1.29628	0.32972
-1.58541	0.30422
-0.94787	-0.00188
0.93925	0.02363
0.63323	0.02363
-0.33583	0.40625
-0.05531	-0.38449
0.32721	-0.12942
0.37822	0.12566
-0.31033	0.32972
-0.53984	0.17668
-1.25389	-0.43551
-0.18282	0.35523
2.77537	0.04914
0.25071	0.20219
-0.89686	0.32972
0.81175	1.06945
0.37822	-0.20594
0.19971	0.02363
0.25071	0.45726
1.16877	-0.00188
-1.33039	0.04914
-1.55991	0.17668
0.55673	-0.05289
0.58223	0.02363
1.60230	0.32972
2.23984	-0.00188
-0.99887	0.27871
-1.84042	-0.05289
0.99026	0.02363
0.78624	0.38074
-0.94787	0.22769
-1.17738	0.20219
0.30171	0.30422
2.11233	0.07465
0.17421	0.15117
-0.94787	0.66132
1.19427	0.25320
0.70974	-0.10391
-1.04987	0.04914
0.35272	0.20219
0.88825	0.30422
0.09770	-0.07840
0.12320	0.17668
-0.87136	-0.23145
-0.64185	-0.15492
0.70974	0.38074
1.04126	0.40625
1.50029	0.17668
1.32178	0.30422
-1.12638	-0.05289
-2.12094	-0.05289
1.11776	0.40625
0.02119	0.45726
-0.48884	-0.07840
0.19971	0.04914
1.50029	0.40625
0.19971	0.04914
0.53123	0.10015
0.88825	-0.25695
-2.42696	0.17668
-2.40146	0.25320
1.75531	0.71234
2.39285	0.27871
1.14327	0.35523
-0.69285	-0.53754
0.48022	0.15117
1.95932	0.63582
-0.00431	-0.05289
-3.98256	0.02363
-1.12638	0.25320
1.06676	0.07465
1.50029	0.48277
1.01576	0.07465
-0.87136	-0.28246
0.81175	0.04914
1.14327	0.22769
0.02119	0.35523
-0.15732	0.30422
0.35272	0.20219
0.83725	0.22769
-0.41233	-0.05289
-0.71835	-0.00188
-0.23382	-0.25695
0.81175	0.43176
-0.84586	0.30422
-0.13181	0.20219
1.32178	0.12566
0.68424	0.17668
-0.53984	0.43176
-1.40690	-0.12942
0.78624	0.04914
1.32178	0.02363
1.60230	-0.10391
0.37822	0.45726
0.25071	0.27871
0.55673	0.71234
-0.13181	0.30422
-2.04444	0.43176
-0.56534	-0.30797
-0.33583	-0.25695
0.25071	0.04914
1.24527	-0.51203
0.86275	-0.15492
0.40372	0.40625
-0.64185	-0.00188
0.73524	0.55929
0.19971	0.61031
-0.48884	0.58480
0.91375	0.32972
-0.10631	-0.05289
-0.28482	-0.18043
-1.40690	-0.79262
0.60773	0.25320
2.06133	0.30422
0.58223	0.27871
-0.18282	0.15117
0.30171	0.45726
-1.43240	-0.05289
-0.46334	0.12566
1.42379	-0.28246
0.53123	0.32972
-3.14101	-0.53754
0.04670	0.20219
2.01032	0.48277
0.78624	0.71234
0.76074	0.02363
1.04126	-0.18043
-0.00431	0.48277
1.04126	0.43176
-0.23382	-0.02739
-2.06994	0.12566
-1.73842	0.27871
0.99026	-0.79262
-0.08081	0.22769
0.12320	0.76336
1.06676	0.04914
1.37278	-0.02739
0.93925	0.43176
-0.18282	-0.00188
0.25071	0.22769
0.04670	0.61031
-1.89143	-0.25695
-0.53984	-0.20594
1.01576	0.12566
1.24527	0.20219
-1.02437	-0.20594
-0.94787	1.17148
3.46392	-0.02739
-0.15732	-0.84363
-3.14101	0.71234
1.14327	-0.12942
1.52579	-0.58856
2.18883	0.58480
0.76074	0.32972
-1.53441	0.07465
-0.41233	0.45726
0.88825	0.25320
0.55673	-0.18043
-0.08081	-0.12942
-0.79486	0.07465
-1.33039	0.04914
0.02119	0.45726
2.16333	-0.07840
0.40372	0.40625
0.42922	0.53379
0.12320	0.25320
-0.25932	0.04914
0.35272	-0.43551
-0.20832	-0.61406
-0.20832	0.07465
-0.66735	0.04914
0.86275	0.94191
1.60230	0.17668
0.60773	0.38074
-4.39059	0.38074
0.60773	-0.71609
1.95932	0.45726
1.09226	-0.20594
0.88825	0.35523
1.14327	0.20219
0.96476	0.35523
-1.20288	-0.00188
-0.84586	-0.25695
-1.53441	-0.30797
1.14327	0.22769
0.12320	0.35523
0.35272	0.32972
0.65874	0.27871
-0.10631	0.22769
-0.28482	0.15117
-0.00431	0.32972
0.99026	0.32972
0.48022	-0.05289
-1.27939	-0.33348
-0.92237	0.27871
2.13783	0.17668
1.44929	-0.35899
0.02119	0.30422
-0.76936	0.55929
-0.00431	0.40625
-1.30489	-0.02739
-1.89143	-0.20594
0.86275	0.10015
0.93925	0.35523
-0.25932	-0.48652
1.42379	0.53379
1.70430	0.22769
-0.41233	0.55929
-0.25932	-0.15492
0.22521	0.25320
0.04670	-0.46102
-0.48884	-0.00188
-0.00431	0.20219
-0.00431	0.27871
0.32721	0.22769
0.83725	-0.05289
-1.07538	-0.02739
-0.64185	0.38074
1.55129	0.17668
0.40372	-0.00188
-0.41233	0.17668
-0.82036	0.07465
-1.30489	0.35523
0.83725	0.10015
0.99026	0.43176
-0.71835	0.17668
1.47479	-0.63957
0.68424	0.30422
1.85731	-0.07840
-0.64185	0.27871
-0.28482	0.40625
-0.02981	0.15117
-1.07538	-0.35899
0.60773	0.12566
0.30171	-0.02739
-0.33583	0.61031
-0.25932	0.86539
-0.23382	0.58480
0.73524	0.86539
0.32721	-1.48133
-0.20832	-0.05289
0.30171	-0.25695
1.11776	-0.05289
-0.18282	0.02363
-0.18282	0.38074
0.93925	0.27871
0.58223	0.04914
-0.64185	0.15117
-0.18282	0.10015
-0.38683	0.12566
0.68424	0.27871
-0.23382	0.40625
-0.20832	0.22769
0.45472	0.22769
0.73524	0.40625
1.11776	-0.61406
1.72980	0.43176
-0.89686	-0.05289
-1.25389	0.61031
-0.64185	0.20219
-0.99887	-0.71609
0.78624	0.10015
1.52579	-0.18043
0.78624	0.25320
-1.07538	-0.07840
0.65874	0.40625
0.73524	0.25320
0.12320	0.63582
-1.66191	0.27871
0.12320	0.50828
1.50029	0.07465
0.48022	0.12566
-0.33583	-0.02739
-1.33039	-0.02739
-0.00431	0.50828
1.16877	0.12566
1.93382	0.17668
0.53123	0.04914
-0.61635	0.04914
-0.00431	0.30422
0.96476	0.04914
-0.92237	0.10015
-1.45790	-0.18043
-0.79486	0.40625
0.70974	0.27871
1.37278	0.10015
0.68424	0.22769
-0.15732	0.12566
0.68424	0.25320
0.35272	-0.12942
-0.79486	-0.23145
-0.08081	-0.00188
-0.28482	0.58480
0.48022	-0.15492
1.11776	0.25320
-0.08081	0.15117
-1.76392	0.61031
0.70974	0.15117
0.76074	-0.18043
1.67880	0.12566
-0.53984	0.32972
-1.63641	-0.25695
1.21977	-0.25695
1.52579	0.17668
-0.08081	0.30422
-1.63641	-0.02739
0.19971	0.50828
0.73524	0.35523
0.55673	0.43176
0.48022	0.40625
0.19971	-0.71609
-1.20288	-0.35899
-1.07538	0.17668
0.68424	0.40625
1.90832	0.63582
1.27078	0.25320
0.32721	0.61031
0.45472	-0.28246
-0.02981	-0.18043
-0.18282	0.45726
-0.38683	0.27871
0.73524	-0.23145
-0.71835	-0.25695
-2.37596	0.35523
0.02119	0.30422
0.86275	0.25320
0.40372	-0.35899
0.93925	0.43176
1.06676	0.58480
1.75531	0.15117
0.12320	-0.61406
-2.17195	-0.02739
-3.65104	-0.28246
0.58223	0.20219
2.67337	0.43176
2.72437	0.43176
0.48022	0.35523
0.19971	0.40625
0.73524	0.20219
0.60773	-0.35899
-1.99343	0.07465
-3.34502	0.25320
0.14870	-0.20594
0.86275	0.30422
0.99026	0.27871
0.99026	0.43176
1.06676	-0.15492
0.86275	0.17668
-1.43240	0.17668
-0.08081	0.48277
-0.64185	-0.61406
0.25071	-0.05289
0.88825	0.43176
0.53123	0.30422
0.76074	0.07465
0.48022	-0.02739
-0.33583	0.04914
0.32721	0.35523
-1.30489	-0.30797
-1.15188	-0.10391
1.24527	0.07465
1.42379	0.35523
-0.20832	0.43176
-0.71835	0.30422
0.22521	-0.10391
0.42922	0.22769
0.88825	0.45726
0.42922	0.30422
-0.46334	0.15117
0.70974	-0.10391
-0.10631	-0.05289
0.14870	0.04914
-1.20288	0.15117
-1.27939	0.04914
1.29628	0.30422
1.01576	0.20219
-0.05531	0.15117
-1.15188	0.17668
0.99026	0.15117
1.06676	0.25320
0.30171	0.04914
0.42922	0.04914
0.40372	0.35523
-0.46334	-0.05289
0.17421	0.25320
-0.94787	0.48277
-0.43783	0.15117
0.78624	0.15117
0.37822	-0.61406
0.81175	0.55929
0.40372	0.30422
-0.69285	0.12566
-0.02981	0.10015
0.22521	0.20219
0.35272	0.35523
0.37822	0.32972
0.63323	0.10015
0.60773	-0.41000
-0.05531	0.20219
-0.89686	0.48277
0.30171	-0.12942
-0.28482	0.02363
-0.56534	0.32972
0.99026	0.32972
-0.13181	0.25320
0.40372	0.02363
0.55673	0.32972
0.83725	-0.35899
0.17421	0.04914
-1.04987	0.35523
0.42922	-0.07840
-0.48884	0.20219
0.07220	0.22769
-0.64185	0.17668
0.73524	0.20219
1.85731	0.10015
1.39828	0.25320
-1.76392	0.10015
-2.27395	0.22769
0.83725	-0.25695
1.21977	0.25320
0.04670	0.35523
-0.41233	0.02363
0.07220	-0.07840
1.04126	0.50828
0.78624	-0.05289
0.14870	0.63582
-0.10631	0.35523
-0.48884	-0.99668
-0.53984	-0.25695
0.02119	0.53379
0.12320	0.04914
0.65874	0.55929
1.06676	0.50828
-0.94787	-0.05289
-0.41233	0.30422
0.60773	0.38074
0.07220	0.12566
0.96476	-0.00188
1.14327	-0.05289
-0.28482	0.25320
-1.10088	-0.07840
0.40372	-0.05289
1.09226	0.07465
-0.46334	0.10015
-1.50890	0.15117
-1.15188	0.22769
0.99026	0.66132
0.91375	0.66132
0.40372	0.25320
0.65874	-0.12942
-0.00431	-0.02739
0.19971	-0.07840
0.02119	0.04914
0.12320	0.07465
-0.15732	0.45726
0.02119	0.15117
0.78624	0.55929
0.55673	0.25320
-0.56534	-0.33348
-0.84586	-0.66508
0.73524	-0.02739
0.76074	0.50828
0.73524	0.73785
0.68424	0.20219
-0.74385	0.15117
-1.15188	0.35523
0.78624	-0.05289
0.50573	0.10015
-0.66735	0.35523
0.25071	-0.58856
0.83725	-0.20594
0.70974	-0.12942
-0.87136	0.45726
-1.20288	0.53379
0.42922	0.30422
1.14327	0.43176
1.65330	0.07465
0.50573	0.20219
-0.38683	0.04914
0.02119	0.22769
0.12320	0.35523
-1.04987	-0.05289
-0.33583	0.12566
0.81175	-0.10391
0.93925	-0.02739
0.50573	0.04914
-0.82036	0.40625
0.07220	0.35523
-0.51434	0.20219
0.25071	-0.00188
0.42922	0.30422
0.32721	-0.81812
1.93382	0.45726
0.76074	0.58480
-2.52897	0.12566
-2.42696	-0.20594
1.04126	0.17668
1.72980	0.30422
0.99026	0.22769
0.53123	0.25320
0.07220	0.30422
-0.08081	-0.12942
-0.00431	0.04914
0.48022	0.38074
-0.48884	0.07465
-0.59084	0.66132
-0.00431	-0.25695
1.06676	0.30422
0.53123	0.12566
-0.48884	-0.12942
-0.61635	-0.18043
-0.00431	0.63582
0.22521	-0.07840
0.37822	-0.69059
0.63323	0.83988
0.40372	0.58480
-0.08081	-0.05289
-0.08081	0.22769
0.14870	0.27871
-0.41233	0.22769
0.30171	0.25320
1.32178	-0.00188
-1.30489	-0.28246
-0.00431	0.15117
0.93925	0.07465
2.11233	0.15117
0.42922	0.30422
-0.69285	0.10015
-0.89686	0.10015
-1.20288	0.04914
1.39828	0.20219
0.60773	0.17668
0.37822	0.30422
0.14870	0.22769
0.19971	0.12566
-0.66735	0.17668
0.07220	0.27871
0.32721	0.15117
-0.56534	0.71234
-1.30489	0.15117
0.91375	-0.51203
0.93925	-0.20594
1.47479	-0.46102
0.40372	0.20219
-1.38139	0.43176
0.12320	0.38074
1.06676	0.30422
0.93925	0.55929
0.22521	0.27871
-0.28482	-0.07840
0.12320	0.02363
-0.02981	-0.10391
0.63323	0.15117
-0.43783	0.35523
-0.38683	0.12566
0.96476	0.35523
-0.48884	-0.02739
-1.81492	0.20219
0.45472	-0.66508
0.42922	-0.02739
-1.04987	0.45726
1.65330	0.17668
1.50029	0.22769
1.09226	0.30422
0.02119	0.35523
-0.15732	0.30422
1.14327	-0.05289
0.22521	-0.02739
-1.38139	0.04914
-0.43783	-0.00188
0.02119	-0.00188
-0.48884	0.20219
-0.13181	0.04914
0.27621	0.10015
1.70430	0.61031
0.17421	0.02363
-1.84042	0.12566
0.40372	0.04914
1.09226	0.22769
1.11776	0.25320
0.04670	0.55929
-0.61635	-0.25695
0.40372	0.53379
0.37822	0.20219
1.24527	0.15117
0.93925	-0.07840
0.48022	-0.00188
-0.76936	0.07465
-1.58541	0.27871
-1.81492	0.38074
0.19971	-0.35899
1.32178	0.61031
1.50029	-0.43551
0.02119	0.58480
-0.89686	0.30422
0.68424	0.10015
-0.08081	0.27871
0.91375	0.35523
0.78624	0.17668
0.32721	-0.02739
-0.59084	0.22769
0.45472	0.25320
0.07220	0.07465
-0.94787	-0.07840
-0.38683	0.07465
-0.15732	-0.02739
0.63323	-0.25695
1.60230	0.43176
-1.17738	0.55929
0.27621	0.58480
0.17421	0.20219
-0.25932	-0.12942
0.14870	0.38074
0.73524	0.22769
0.53123	0.12566
0.09770	0.12566
0.02119	0.15117
0.09770	0.04914
-0.51434	-0.20594
-0.05531	0.20219
1.55129	0.04914
-0.00431	0.35523
-2.04444	-0.28246
-0.18282	0.32972
1.14327	0.15117
1.19427	-0.18043
1.44929	0.38074
0.96476	0.15117
-0.46334	0.40625
-0.36133	0.55929
-0.28482	-0.05289
-0.18282	0.07465
0.70974	0.04914
0.02119	-0.56305
-0.94787	-0.02739
0.42922	0.61031
-0.33583	0.17668
-0.13181	0.55929
-0.51434	0.61031
0.68424	-0.74160
0.83725	0.17668
1.19427	-0.02739
0.12320	-0.23145
-0.87136	0.55929
0.14870	0.27871
0.35272	0.53379
0.65874	0.04914
0.30171	0.10015
0.42922	0.12566
-0.59084	-0.23145
0.83725	0.15117
-0.05531	0.15117
-1.22839	0.53379
-0.00431	0.04914
0.78624	-0.00188
1.19427	0.35523
0.22521	0.40625
-0.61635	0.22769
-0.71835	0.12566
0.12320	0.04914
0.88825	0.22769
0.55673	-0.56305
0.04670	-0.20594
1.16877	0.02363
-1.17738	-0.15492
-2.27395	0.50828
0.73524	0.81437
1.27078	0.15117
0.83725	0.02363
0.83725	-0.02739
0.37822	0.20219
-0.31033	0.15117
-0.00431	-0.07840
0.55673	0.25320
-0.56534	0.38074
-0.48884	0.27871
-0.23382	0.25320
0.96476	0.07465
-0.59084	-0.02739
-0.18282	0.15117
0.83725	0.30422
0.45472	0.17668
0.88825	-0.28246
0.55673	0.45726
0.30171	0.25320
-0.18282	-0.00188
-0.99887	-0.53754
-0.61635	-0.20594
0.81175	-0.05289
0.25071	0.71234
0.27621	0.61031
0.91375	-0.05289
0.32721	0.71234
0.53123	-0.05289
-0.36133	0.04914
-2.65648	-0.15492
1.62780	0.17668
1.75531	-0.02739
-0.92237	0.25320
-0.41233	0.10015
0.88825	0.07465
0.70974	0.04914
0.37822	0.25320
-0.41233	0.12566
-0.05531	0.45726
0.22521	0.25320
-0.02981	-0.46102
0.48022	0.27871
-0.18282	0.30422
-0.38683	-0.02739
-0.33583	0.12566
0.70974	0.07465
1.11776	0.53379
0.50573	-0.15492
1.24527	0.48277
-0.41233	0.17668
-2.78398	-0.00188
-0.64185	0.07465
1.39828	0.45726
0.88825	0.35523
1.88281	-0.25695
0.42922	-0.53754
-0.48884	0.20219
-1.50890	-0.05289
-0.36133	0.22769
-1.20288	0.40625
1.21977	0.20219
1.47479	0.30422
-0.53984	-0.15492
-0.69285	-0.25695
1.67880	0.30422
0.93925	0.40625
-0.74385	0.58480
-0.46334	0.20219
1.83181	0.22769
0.83725	0.30422
-2.12094	0.12566
-0.82036	-0.41000
0.32721	-0.25695
0.07220	-0.23145
0.30171	0.38074
0.60773	0.35523
0.32721	0.45726
0.40372	0.10015
-0.20832	-0.07840
-0.08081	0.02363
1.11776	0.10015
-0.41233	0.15117
-0.64185	0.68683
0.04670	-0.07840
0.73524	0.17668
0.07220	-0.00188
0.53123	-0.05289
0.27621	-0.10391
0.42922	0.25320
0.30171	0.25320
0.09770	0.40625
0.14870	-0.10391
0.09770	0.30422
-0.10631	0.15117
-0.23382	0.02363
1.04126	0.25320
-0.56534	0.38074
-0.69285	-0.66508
0.60773	0.40625
-0.76936	-0.02739
0.25071	0.04914
1.19427	0.38074
0.48022	0.50828
-1.63641	0.17668
0.83725	-0.05289
1.06676	0.07465
0.55673	-0.07840
0.42922	0.15117
0.32721	-0.07840
0.19971	0.45726
0.07220	0.17668
-0.00431	0.17668
-0.36133	0.12566
-0.05531	-0.00188
0.35272	0.22769
-0.74385	-0.07840
-1.27939	0.12566
0.40372	0.53379
0.70974	0.20219
0.86275	0.10015
0.55673	0.27871
0.04670	0.10015
0.25071	-0.51203
0.32721	0.17668
1.24527	0.20219
0.12320	0.17668
-1.35589	0.25320
-2.63097	0.40625
0.48022	0.20219
1.83181	0.07465
1.14327	0.15117
1.85731	0.40625
0.04670	0.20219
-1.91693	0.12566
-0.13181	0.38074
0.58223	0.30422
1.04126	-0.05289
0.65874	0.25320
-0.38683	-0.07840
0.32721	0.15117
-1.04987	0.15117
0.63323	-0.00188
-0.10631	-0.05289
-0.89686	0.22769
0.02119	0.02363
0.73524	0.68683
0.14870	-0.18043
0.19971	0.15117
0.73524	0.12566
0.50573	0.38074
0.25071	0.73785
0.40372	0.15117
-0.05531	-0.25695
-0.38683	-0.43551
-0.87136	0.12566
0.53123	0.17668
0.22521	0.43176
0.25071	0.38074
0.40372	0.10015
0.32721	0.20219
0.53123	0.50828
0.32721	-0.12942
-0.05531	-0.02739
-0.00431	-0.05289
0.07220	0.17668
-0.33583	0.30422
-0.76936	0.30422
-0.02981	-0.43551
0.12320	0.27871
1.62780	0.25320
0.65874	0.12566
0.02119	0.15117
-0.18282	0.25320
0.12320	-0.00188
0.32721	0.66132
-0.69285	0.10015
-0.84586	-0.00188
0.65874	-0.35899
1.11776	-0.30797
0.73524	-0.00188
-1.40690	0.76336
0.30171	0.61031
0.73524	0.22769
0.32721	0.10015
0.22521	0.04914
