0.30171	0.20219
0.19971	0.10015
0.22521	0.15117
0.17421	0.15117
-0.00431	0.12566
0.02119	0.07465
-0.08081	0.10015
0.07220	-0.05289
0.14870	0.20219
0.25071	0.17668
0.19971	0.22769
0.30171	0.30422
0.27621	0.10015
0.07220	0.12566
0.09770	0.04914
-0.15732	-0.05289
-0.02981	0.17668
0.12320	0.15117
0.12320	0.15117
0.27621	0.25320
0.22521	0.17668
0.35272	0.22769
0.25071	0.12566
0.17421	0.12566
0.09770	0.17668
-0.08081	0.04914
0.04670	0.12566
0.17421	0.12566
0.14870	0.10015
0.25071	0.12566
0.14870	0.07465
0.27621	0.17668
0.22521	0.15117
0.12320	0.17668
0.09770	0.20219
-0.05531	0.04914
-0.10631	0.04914
0.09770	0.12566
0.17421	0.07465
0.14870	0.27871
0.35272	0.32972
0.30171	0.17668
0.19971	0.22769
0.22521	0.17668
-0.02981	0.12566
-0.02981	0.12566
-0.02981	0.04914
0.04670	0.02363
0.12320	0.20219
0.19971	0.10015
0.30171	0.20219
0.30171	0.30422
0.22521	0.10015
0.14870	0.22769
0.04670	0.04914
-0.10631	0.04914
-0.02981	0.15117
0.12320	0.10015
0.09770	0.07465
0.22521	0.25320
0.35272	0.20219
0.17421	0.22769
0.22521	0.25320
0.12320	0.07465
-0.05531	0.12566
-0.02981	0.15117
-0.02981	0.07465
0.14870	0.10015
0.22521	0.15117
0.14870	0.10015
0.30171	0.25320
0.37822	0.20219
0.14870	0.10015
0.22521	0.17668
0.02119	0.10015
-0.02981	0.04914
0.04670	0.17668
0.09770	0.04914
0.12320	0.10015
0.30171	0.17668
0.27621	0.12566
0.22521	0.20219
0.32721	0.20219
0.12320	0.04914
-0.02981	0.07465
0.02119	0.12566
-0.02981	0.04914
0.09770	0.12566
0.17421	0.17668
0.22521	0.17668
0.19971	0.12566
0.32721	0.27871
0.30171	0.27871
0.14870	0.12566
0.04670	0.10015
-0.00431	0.15117
-0.05531	0.04914
0.07220	0.07465
0.12320	0.17668
0.27621	0.17668
0.27621	0.10015
0.22521	0.25320
0.32721	0.15117
0.19971	0.07465
0.04670	0.22769
0.04670	0.10015
-0.05531	0.07465
0.12320	0.15117
0.19971	0.15117
0.17421	0.20219
0.32721	0.35523
0.35272	0.35523
0.19971	0.20219
0.09770	0.07465
0.07220	0.07465
-0.08081	0.04914
-0.05531	0.07465
0.14870	0.15117
0.12320	0.10015
0.22521	0.12566
0.35272	0.27871
0.27621	0.17668
0.27621	0.20219
0.25071	0.25320
0.04670	0.15117
-0.05531	0.07465
-0.02981	0.07465
0.09770	0.04914
0.09770	0.15117
0.14870	0.20219
0.22521	0.12566
0.32721	0.20219
0.25071	0.15117
0.07220	0.10015
0.09770	0.10015
-0.05531	0.10015
-0.02981	0.02363
0.09770	0.20219
0.22521	0.12566
0.12320	0.15117
0.32721	0.25320
0.40372	0.25320
0.22521	0.25320
0.14870	0.25320
0.12320	0.04914
-0.10631	0.02363
-0.00431	0.12566
0.12320	-0.00188
0.12320	0.10015
0.17421	0.20219
0.19971	0.17668
0.30171	0.25320
0.32721	0.15117
0.07220	0.15117
0.12320	0.15117
0.09770	0.07465
-0.02981	0.17668
0.09770	0.20219
0.12320	0.04914
0.14870	0.15117
0.27621	0.25320
0.32721	0.15117
0.27621	0.10015
0.14870	0.12566
0.12320	0.15117
-0.08081	0.04914
-0.15732	-0.00188
0.04670	0.04914
0.17421	0.17668
0.19971	0.10015
0.25071	0.17668
0.32721	0.27871
0.25071	0.04914
0.07220	0.15117
0.12320	0.10015
-0.00431	-0.00188
-0.08081	0.12566
0.07220	0.15117
0.14870	0.07465
0.25071	0.25320
0.30171	0.12566
0.22521	0.22769
0.35272	0.22769
0.14870	0.10015
0.02119	0.12566
0.02119	0.04914
-0.13181	0.07465
0.17421	0.15117
0.07220	0.15117
0.27621	0.15117
0.27621	0.20219
0.27621	0.20219
0.32721	0.22769
0.12320	0.10015
0.12320	0.15117
-0.15732	-0.07840
-0.08081	0.02363
0.12320	0.12566
0.09770	0.12566
0.30171	0.20219
0.22521	0.15117
0.32721	0.30422
0.30171	0.12566
0.17421	0.25320
0.12320	0.15117
-0.10631	0.04914
-0.02981	0.02363
0.02119	-0.05289
0.12320	0.20219
0.22521	0.15117
0.30171	0.22769
0.37822	0.22769
0.17421	0.10015
0.19971	0.15117
0.04670	0.15117
-0.02981	0.04914
0.02119	0.15117
0.04670	0.07465
0.12320	0.17668
0.19971	0.20219
0.22521	0.07465
0.32721	0.25320
0.27621	0.12566
0.12320	0.15117
0.12320	0.15117
-0.08081	0.04914
-0.08081	0.07465
0.17421	-0.00188
0.14870	0.12566
0.22521	0.27871
0.35272	0.22769
0.22521	0.22769
0.32721	0.25320
0.09770	0.12566
0.04670	0.10015
-0.02981	0.04914
-0.13181	-0.02739
0.12320	0.07465
0.14870	0.15117
0.19971	0.12566
0.40372	0.32972
0.32721	0.15117
0.19971	0.15117
0.12320	0.15117
-0.00431	0.02363
-0.13181	-0.00188
-0.13181	0.15117
0.17421	0.15117
0.17421	0.15117
0.19971	0.25320
0.37822	0.30422
0.42922	0.27871
0.17421	0.20219
0.09770	0.15117
0.07220	0.04914
-0.05531	-0.02739
-0.02981	0.10015
0.09770	0.02363
0.14870	0.22769
0.19971	0.12566
0.25071	0.22769
0.37822	0.22769
0.19971	0.15117
0.14870	0.20219
0.02119	0.12566
-0.13181	-0.00188
0.02119	0.20219
0.12320	0.07465
0.19971	0.25320
0.27621	0.15117
0.22521	0.15117
0.35272	0.15117
0.17421	0.12566
0.17421	0.12566
-0.05531	0.02363
-0.00431	0.15117
-0.13181	0.02363
0.17421	0.17668
0.14870	0.20219
0.32721	0.27871
0.22521	0.15117
0.37822	0.27871
0.22521	0.12566
0.09770	0.10015
0.07220	0.04914
-0.05531	0.12566
-0.15732	-0.05289
0.14870	0.12566
0.07220	0.10015
0.27621	0.30422
0.32721	0.20219
0.30171	0.30422
0.37822	0.25320
0.07220	-0.00188
-0.02981	0.04914
-0.13181	0.02363
-0.00431	0.10015
0.07220	0.17668
0.14870	0.12566
0.22521	0.17668
0.27621	0.12566
0.40372	0.30422
0.25071	0.15117
0.07220	0.20219
0.12320	0.10015
0.02119	-0.05289
-0.13181	0.07465
0.14870	0.15117
0.09770	0.10015
0.14870	0.20219
0.35272	0.20219
0.25071	0.22769
0.22521	0.22769
0.07220	-0.00188
-0.02981	0.10015
0.04670	0.10015
-0.05531	0.07465
0.19971	0.10015
-0.05531	0.02363
0.12320	0.12566
0.35272	0.25320
0.48022	0.30422
0.53123	0.12566
0.09770	0.15117
-0.18282	0.12566
-0.28482	-0.00188
0.09770	0.12566
0.25071	0.02363
0.12320	0.12566
0.17421	0.40625
0.30171	0.22769
0.32721	0.20219
0.27621	0.12566
0.04670	0.07465
-0.05531	0.15117
0.02119	-0.02739
-0.00431	0.10015
0.19971	0.04914
0.19971	0.15117
0.17421	0.15117
0.25071	0.02363
0.37822	0.27871
0.42922	0.20219
-0.15732	0.07465
-0.13181	0.17668
-0.13181	0.07465
-0.15732	0.12566
0.60773	0.15117
0.22521	0.22769
-0.31033	0.20219
0.09770	0.04914
1.01576	0.10015
-0.13181	0.12566
0.37822	0.32972
0.50573	0.20219
0.02119	-0.35899
-0.46334	-0.10391
-0.13181	0.10015
-0.02981	0.40625
0.35272	0.25320
0.14870	0.32972
0.58223	0.43176
0.42922	0.30422
-0.18282	-0.12942
0.02119	0.22769
0.76074	0.22769
0.91375	0.07465
0.09770	-0.20594
-1.12638	-0.15492
-0.10631	0.55929
-0.87136	0.04914
-0.08081	0.02363
0.45472	0.15117
0.88825	-0.20594
-0.02981	0.38074
0.86275	0.40625
0.70974	0.55929
0.45472	-0.07840
0.12320	0.20219
-1.22839	0.02363
-1.71292	-0.20594
1.11776	-0.07840
1.47479	0.25320
0.37822	0.40625
-0.08081	0.45726
0.60773	0.02363
1.11776	0.61031
0.02119	0.10015
-0.97337	0.02363
-1.35589	-0.23145
0.53123	0.02363
1.75531	0.10015
-1.76392	-0.25695
0.78624	0.58480
1.37278	0.12566
0.78624	-0.07840
-0.31033	0.40625
0.73524	0.17668
-1.04987	0.35523
-0.53984	0.02363
0.83725	0.43176
1.57679	0.55929
1.80631	0.17668
0.73524	-0.05289
-0.74385	-0.15492
-0.61635	-0.35899
-0.08081	-0.18043
-0.00431	-0.07840
0.04670	0.27871
-2.73298	0.50828
0.25071	0.91640
1.75531	0.15117
2.41835	0.53379
0.60773	-0.05289
-1.17738	-0.25695
0.19971	-1.04770
1.11776	0.25320
-0.46334	0.43176
-1.84042	0.58480
-1.12638	0.86539
-2.04444	0.35523
1.83181	-0.43551
3.36191	0.50828
1.57679	-0.43551
-0.00431	0.15117
-0.02981	0.10015
0.02119	-0.41000
-0.89686	0.07465
0.45472	0.40625
1.57679	0.35523
-1.02437	0.68683
-3.14101	0.20219
-0.84586	0.07465
-0.18282	0.10015
1.29628	0.86539
3.64243	0.50828
-0.13181	-0.58856
1.83181	-0.79262
-0.41233	0.22769
-1.20288	0.30422
-1.12638	0.04914
-0.05531	0.30422
1.29628	0.45726
0.42922	0.53379
-1.43240	0.45726
0.73524	-0.69059
-0.56534	-0.28246
-0.59084	-0.41000
1.70430	0.10015
0.48022	1.01843
1.14327	0.55929
1.90832	0.55929
0.07220	0.32972
1.52579	0.20219
0.09770	-0.05289
-5.02813	-0.25695
-2.98800	-0.86914
0.73524	-0.46102
1.60230	0.76336
1.75531	0.12566
0.25071	-0.02739
1.95932	0.61031
1.44929	1.01843
-0.71835	0.48277
-0.56534	0.48277
-1.20288	0.04914
0.19971	-0.28246
1.70430	-0.38449
-0.53984	-0.05289
0.65874	-0.28246
0.35272	0.25320
1.39828	0.15117
-1.12638	-0.07840
-1.33039	0.30422
-1.17738	0.68683
0.83725	0.22769
1.29628	-0.07840
1.37278	-0.23145
-0.08081	0.20219
1.19427	0.12566
-0.99887	0.07465
-1.94243	-0.18043
1.85731	0.02363
1.60230	0.38074
-1.91693	-0.07840
-0.56534	0.30422
0.27621	0.66132
0.68424	0.25320
0.63323	0.73785
0.73524	0.25320
0.42922	0.22769
-0.15732	0.25320
-0.10631	-0.41000
0.99026	0.17668
-0.41233	0.30422
-2.86049	-0.02739
0.76074	0.20219
0.91375	-0.35899
0.19971	-0.61406
1.50029	0.38074
-3.67654	0.45726
1.01576	0.48277
2.16333	0.22769
1.14327	-0.07840
1.39828	0.30422
0.55673	0.35523
-0.28482	-0.18043
-0.31033	-0.02739
-2.32496	-0.10391
-1.55991	-0.05289
-0.84586	0.55929
1.55129	-0.12942
1.19427	0.58480
1.11776	0.40625
-0.15732	0.07465
0.65874	0.30422
1.27078	0.30422
1.11776	0.12566
1.72980	0.40625
-2.42696	-0.61406
-4.67111	0.25320
-1.61091	-0.23145
2.29084	0.27871
2.64786	0.45726
0.53123	0.17668
1.09226	0.25320
0.50573	-0.10391
0.45472	0.35523
-0.20832	0.12566
-0.82036	0.17668
0.32721	0.02363
0.48022	-0.00188
0.32721	0.35523
-1.84042	0.22769
-1.61091	0.30422
-1.02437	-0.10391
1.70430	-0.20594
3.46392	-0.10391
-0.66735	0.20219
0.02119	0.32972
1.37278	0.76336
-3.60004	0.43176
0.88825	-0.12942
1.80631	0.20219
1.93382	0.07465
0.02119	0.15117
0.73524	0.10015
0.55673	0.15117
1.09226	-0.00188
-0.28482	-0.02739
-3.65104	-0.38449
0.19971	0.30422
-0.43783	0.25320
0.35272	0.02363
0.81175	0.02363
0.27621	0.15117
-0.15732	0.15117
0.68424	0.50828
0.76074	0.45726
0.14870	0.30422
0.25071	0.61031
0.91375	-0.12942
0.96476	-0.10391
-1.58541	-0.00188
-2.14644	-0.38449
1.29628	-0.02739
0.86275	0.04914
0.99026	0.40625
-0.05531	-0.15492
0.86275	0.04914
-1.07538	0.32972
-0.48884	0.61031
0.17421	0.40625
0.32721	0.43176
0.32721	0.30422
0.73524	0.32972
1.16877	-0.20594
0.42922	-0.46102
-0.33583	0.27871
-1.30489	-0.18043
-2.75848	0.10015
3.13239	0.07465
3.54042	-0.10391
0.81175	-0.07840
-0.41233	0.53379
-1.91693	0.25320
-0.87136	0.25320
-0.53984	0.45726
-0.08081	0.30422
0.32721	0.81437
-0.02981	0.12566
1.01576	-0.46102
0.42922	0.04914
-2.19745	0.25320
0.42922	-0.30797
2.82638	0.50828
0.50573	0.43176
-0.82036	-0.02739
0.42922	-0.00188
2.29084	-0.58856
-1.73842	0.35523
-1.10088	0.22769
1.55129	0.48277
1.47479	0.73785
-1.27939	0.48277
-0.23382	0.04914
0.88825	-0.15492
-0.82036	-0.71609
0.02119	0.22769
0.48022	-0.00188
-0.05531	0.35523
0.73524	0.91640
1.04126	0.91640
-1.35589	0.22769
-1.27939	0.04914
0.91375	-0.28246
2.23984	0.25320
-3.88056	0.10015
-0.51434	-0.18043
1.16877	-0.23145
1.75531	-0.25695
2.97938	0.53379
-2.45246	0.71234
0.48022	-0.05289
1.14327	-0.28246
0.63323	0.20219
0.12320	0.68683
-0.92237	0.20219
-1.96793	0.25320
-1.50890	-0.02739
1.39828	0.76336
0.70974	0.27871
1.04126	0.17668
0.50573	-0.02739
0.25071	-0.12942
-0.69285	-0.25695
0.63323	-0.25695
1.72980	0.15117
-1.17738	0.25320
-2.17195	0.04914
1.93382	0.30422
2.74987	0.83988
-3.03900	0.02363
0.81175	0.45726
0.12320	-0.07840
0.12320	-0.25695
0.37822	-1.12422
-3.06450	-0.20594
1.93382	0.55929
4.38197	1.01843
-1.91693	0.55929
-1.33039	0.30422
0.96476	0.04914
2.29084	-0.00188
-2.12094	-0.23145
-0.15732	0.45726
-0.74385	-0.20594
0.14870	0.50828
2.34184	-0.02739
0.60773	0.30422
-0.51434	0.25320
-0.00431	-0.05289
0.50573	0.50828
-0.97337	-0.15492
-0.66735	0.50828
-0.20832	0.25320
0.68424	0.27871
1.80631	-1.04770
-0.87136	0.35523
-1.96793	-0.28246
-0.33583	0.58480
1.55129	0.35523
1.06676	0.83988
0.42922	0.45726
1.19427	0.12566
0.58223	-0.23145
-0.43783	0.32972
-0.66735	0.04914
-0.89686	-0.46102
-1.58541	-0.00188
0.32721	-0.12942
-0.20832	-0.15492
2.95388	0.48277
-0.48884	0.12566
-0.10631	0.25320
-0.08081	-0.10391
-2.22295	0.45726
1.67880	0.07465
2.92838	0.45726
1.14327	0.66132
-1.58541	0.04914
-0.08081	0.04914
-2.63097	-0.97117
0.96476	-0.23145
1.06676	-0.07840
-0.08081	0.30422
0.30171	0.61031
0.32721	0.71234
0.50573	0.40625
-0.84586	0.10015
0.93925	0.07465
0.65874	0.04914
-0.05531	-0.12942
-0.28482	0.15117
-0.97337	0.48277
0.50573	0.30422
0.35272	0.27871
0.14870	-0.38449
1.09226	0.02363
0.53123	0.25320
-2.06994	-0.05289
0.30171	-0.18043
1.09226	-0.53754
0.78624	0.25320
0.78624	0.55929
0.45472	0.53379
-0.66735	0.76336
-0.87136	0.38074
2.34184	0.10015
0.65874	0.30422
-3.31952	0.20219
-0.28482	-0.15492
1.78081	0.43176
2.18883	-0.20594
-0.59084	0.43176
-2.63097	-0.00188
0.68424	-0.53754
0.76074	0.43176
-0.59084	-0.02739
-0.51434	0.20219
1.29628	0.40625
3.33641	0.91640
-0.23382	-0.43551
-1.96793	-0.51203
-0.56534	0.04914
0.19971	0.22769
0.60773	0.45726
0.37822	0.32972
-0.00431	0.35523
1.04126	-0.02739
0.83725	-0.25695
-1.12638	0.73785
-0.18282	0.10015
0.68424	-0.02739
0.17421	0.04914
0.48022	0.30422
-0.51434	0.27871
0.07220	0.20219
0.48022	0.15117
-1.33039	-0.30797
-0.18282	-0.25695
1.14327	0.12566
1.75531	-0.00188
-0.69285	0.35523
-0.79486	0.40625
1.19427	0.20219
0.14870	0.07465
-0.56534	0.48277
0.14870	-0.02739
-0.53984	0.15117
0.99026	0.40625
1.90832	0.04914
0.19971	-0.25695
0.22521	-0.43551
-2.37596	0.63582
-3.93156	0.10015
0.19971	-0.07840
2.21434	0.63582
1.06676	-0.07840
1.67880	0.73785
2.16333	0.10015
0.81175	0.63582
-2.35046	-0.23145
0.32721	-0.28246
0.22521	0.02363
0.40372	0.10015
-0.41233	0.35523
-0.38683	0.12566
0.99026	-0.18043
0.93925	-0.20594
-0.82036	0.58480
-1.71292	0.10015
1.24527	0.04914
0.42922	0.32972
1.75531	0.35523
-0.38683	-0.38449
-2.88599	-0.46102
-1.38139	-0.05289
4.17796	1.14597
1.55129	0.96742
-1.25389	-0.35899
-1.35589	0.55929
-0.15732	0.04914
0.93925	-0.15492
1.60230	-0.05289
1.06676	0.20219
-0.79486	-0.30797
-0.64185	0.15117
1.14327	0.45726
0.96476	0.40625
-0.79486	0.12566
-2.01894	-0.25695
0.42922	-0.48652
-0.66735	-0.15492
-0.18282	0.53379
1.24527	0.22769
1.65330	0.76336
1.14327	0.35523
0.86275	0.25320
0.91375	-0.18043
-1.38139	0.02363
-0.36133	0.32972
0.32721	-0.12942
0.02119	-0.51203
0.37822	0.04914
-2.04444	0.32972
0.55673	0.76336
0.70974	-0.18043
0.40372	-0.10391
0.99026	0.43176
-0.46334	0.30422
-0.28482	0.15117
-1.10088	0.48277
0.40372	0.04914
1.65330	-0.02739
1.06676	-0.10391
0.04670	-0.86914
-0.59084	0.94191
-0.31033	0.10015
0.63323	-0.25695
-0.23382	0.07465
0.22521	0.35523
0.81175	0.55929
-1.38139	0.50828
0.99026	0.04914
0.88825	0.30422
-0.76936	-0.15492
1.55129	0.12566
0.32721	0.30422
-3.37052	0.04914
0.58223	0.17668
-0.84586	-0.10391
1.04126	0.02363
1.37278	0.68683
0.91375	-0.20594
0.30171	-0.00188
0.50573	0.55929
0.32721	0.15117
-0.36133	0.25320
-0.84586	-0.00188
-0.20832	-0.00188
0.37822	0.27871
1.11776	-0.02739
0.09770	0.20219
-1.58541	0.15117
0.22521	0.35523
1.52579	-0.18043
0.45472	-0.20594
-2.52897	-0.20594
-0.82036	0.55929
1.88281	0.07465
3.08139	0.40625
0.68424	-0.28246
-1.30489	1.04394
-0.25932	0.94191
0.73524	0.45726
-0.08081	0.02363
-0.20832	-0.18043
-0.28482	-0.00188
-0.00431	-0.12942
0.96476	0.30422
0.93925	0.10015
0.45472	0.53379
-0.05531	-0.00188
-0.08081	0.20219
0.12320	0.15117
-1.20288	0.17668
0.58223	-0.05289
1.44929	0.15117
-0.64185	-0.00188
-2.45246	-0.15492
-0.28482	0.35523
1.14327	0.48277
2.59686	0.40625
1.47479	0.27871
0.14870	-0.48652
-3.90606	-0.02739
0.27621	-0.41000
0.65874	0.07465
-1.43240	0.63582
0.93925	0.71234
1.57679	0.53379
0.93925	0.04914
1.27078	0.17668
0.14870	0.30422
0.45472	-0.02739
-0.59084	-0.25695
-1.02437	0.20219
-0.00431	0.38074
1.75531	0.61031
-0.10631	-0.74160
-1.43240	0.02363
0.78624	0.50828
0.17421	-0.00188
1.57679	0.48277
-1.25389	0.30422
0.14870	0.25320
1.24527	-0.07840
-1.68742	0.07465
-0.56534	0.15117
1.14327	0.35523
1.19427	0.38074
-0.41233	0.25320
1.11776	0.50828
1.24527	-0.00188
0.78624	0.04914
-0.51434	0.04914
-2.12094	0.32972
-2.19745	0.10015
0.48022	-0.74160
2.44385	0.10015
1.78081	0.48277
-0.69285	0.25320
0.55673	0.45726
-1.27939	0.32972
1.85731	-0.07840
1.21977	-0.02739
-0.20832	-0.07840
-1.50890	0.04914
0.19971	1.12046
0.55673	0.27871
0.83725	-0.20594
0.14870	0.17668
-0.87136	-0.35899
-0.87136	0.40625
0.07220	0.38074
0.42922	0.25320
0.73524	-0.05289
-0.33583	0.15117
0.37822	0.12566
0.48022	0.10015
0.40372	0.78886
0.04670	-0.07840
0.50573	0.12566
0.17421	-0.15492
0.17421	0.04914
0.83725	0.07465
-0.38683	0.53379
-2.42696	0.17668
-0.82036	-0.00188
3.20890	-0.23145
2.74987	0.20219
-2.93700	0.12566
0.58223	0.38074
1.11776	0.15117
-0.18282	0.25320
-1.61091	0.20219
-0.36133	-0.05289
0.68424	-0.20594
1.52579	0.45726
0.14870	0.04914
-2.47797	-0.00188
1.32178	0.17668
0.40372	0.04914
0.17421	0.27871
0.68424	0.15117
1.32178	0.22769
1.39828	0.17668
0.91375	0.50828
-4.08457	-0.35899
-0.05531	0.35523
1.19427	-0.35899
1.24527	0.81437
0.32721	0.25320
-1.15188	0.17668
-0.28482	-0.15492
-0.02981	0.30422
0.93925	0.30422
0.68424	-0.30797
0.50573	0.22769
-0.41233	0.30422
0.35272	0.20219
-0.41233	-0.07840
-1.35589	-0.25695
1.32178	0.48277
1.24527	0.12566
-1.20288	-0.18043
1.19427	0.25320
0.37822	0.38074
-0.10631	0.35523
0.83725	0.53379
-1.55991	-0.18043
0.91375	0.17668
1.44929	0.10015
0.83725	-0.30797
-0.18282	-0.15492
-0.64185	0.45726
-0.43783	0.30422
0.32721	-0.15492
1.09226	-0.15492
-1.07538	0.30422
-2.32496	0.50828
-0.46334	-0.35899
0.99026	0.66132
1.72980	0.15117
2.11233	-0.12942
-0.00431	-0.00188
-0.48884	-0.41000
-0.31033	0.71234
1.09226	-0.05289
1.29628	0.45726
-1.07538	0.55929
-0.74385	0.25320
1.01576	0.35523
-0.43783	0.02363
-2.68198	-0.00188
1.85731	0.04914
-0.00431	-0.15492
-0.02981	-0.25695
1.98482	0.20219
0.93925	-0.10391
-1.33039	0.40625
-0.89686	0.22769
1.04126	0.10015
1.78081	0.17668
-0.02981	0.32972
-0.56534	-0.25695
0.78624	0.12566
-0.28482	0.32972
-0.89686	0.15117
-0.15732	0.27871
-1.07538	0.15117
-1.12638	-0.30797
0.30171	0.10015
1.39828	0.38074
1.27078	0.27871
-0.15732	0.40625
0.73524	0.17668
0.83725	0.55929
-0.31033	-0.41000
1.09226	-0.84363
0.09770	0.20219
-0.33583	0.10015
-0.71835	0.96742
0.53123	0.91640
-0.87136	0.20219
-0.94787	-0.30797
0.99026	0.45726
0.70974	-0.05289
0.48022	-0.05289
-0.13181	0.20219
0.30171	0.12566
-0.41233	0.12566
-1.58541	0.50828
0.02119	-0.18043
1.09226	0.50828
1.14327	-0.15492
1.19427	-0.20594
0.09770	0.04914
-0.48884	0.38074
0.96476	0.50828
0.78624	0.38074
0.70974	0.25320
0.48022	0.15117
-0.18282	0.04914
0.17421	-0.05289
-3.01350	-0.15492
-1.99343	-0.02739
0.76074	-0.05289
1.34728	0.50828
0.50573	0.25320
0.53123	0.35523
0.88825	-0.02739
1.34728	0.61031
0.09770	-0.05289
-0.99887	-0.15492
0.12320	0.04914
-0.28482	0.35523
0.48022	0.04914
0.12320	0.04914
1.27078	0.22769
1.34728	0.35523
0.68424	0.15117
-3.52353	0.02363
-0.84586	-0.07840
1.09226	0.32972
1.24527	-0.10391
1.24527	0.20219
0.17421	0.40625
0.68424	0.22769
-1.25389	0.04914
-0.25932	-0.07840
-0.20832	0.20219
-0.33583	0.63582
0.91375	0.20219
1.21977	0.04914
-0.18282	-0.02739
0.07220	0.02363
0.30171	-0.12942
0.25071	-0.00188
0.19971	0.20219
0.19971	0.07465
0.02119	0.45726
0.35272	0.38074
0.78624	-0.00188
-1.61091	0.04914
-1.61091	0.07465
-1.07538	-0.15492
1.67880	0.38074
3.61693	0.20219
-1.68742	0.27871
0.22521	0.02363
1.16877	0.71234
0.60773	0.32972
-0.28482	0.07465
-0.13181	-0.33348
-0.36133	-0.07840
-1.15188	-0.00188
-0.08081	-0.12942
0.19971	-0.05289
0.88825	0.02363
1.42379	0.32972
1.98482	0.27871
-3.75305	0.02363
-2.12094	-0.15492
0.91375	0.38074
1.52579	0.40625
2.11233	0.32972
0.12320	0.32972
-0.00431	0.04914
-0.76936	0.10015
-0.59084	-0.10391
0.96476	0.04914
0.22521	-0.05289
1.06676	0.02363
0.55673	0.27871
-0.38683	0.30422
-0.23382	-0.18043
0.32721	0.27871
0.07220	0.25320
-0.79486	0.30422
-0.61635	0.04914
0.37822	0.04914
0.63323	0.02363
0.14870	0.30422
0.25071	0.30422
0.30171	0.04914
0.63323	-0.25695
0.37822	-0.00188
-0.74385	0.32972
1.34728	0.35523
0.02119	0.61031
-0.71835	0.15117
1.11776	0.15117
1.06676	-0.41000
0.25071	0.17668
-1.10088	0.02363
-0.84586	0.53379
-1.20288	-0.15492
1.16877	-0.25695
0.60773	0.27871
0.86275	0.50828
0.48022	0.50828
0.14870	0.32972
0.30171	0.10015
0.07220	-0.12942
-0.53984	0.25320
-0.00431	-0.33348
0.58223	-0.15492
-1.30489	0.68683
-1.73842	0.10015
0.14870	0.30422
2.21434	0.40625
3.18340	-0.15492
-2.57997	-0.05289
-0.82036	-0.51203
1.78081	0.50828
0.53123	0.17668
0.42922	0.50828
0.73524	0.35523
0.73524	0.25320
0.99026	0.32972
-0.15732	-0.53754
-0.79486	-0.18043
-0.31033	-0.12942
-0.89686	0.12566
-0.92237	0.20219
-0.28482	0.43176
0.63323	0.27871
-0.76936	0.15117
0.76074	0.25320
1.42379	0.35523
1.80631	0.20219
-1.02437	0.04914
-1.30489	0.30422
0.30171	0.04914
1.57679	-0.07840
2.06133	-0.00188
-1.86593	-0.35899
-2.73298	0.27871
2.97938	0.73785
1.29628	0.86539
-0.15732	0.58480
1.70430	0.17668
-0.48884	0.07465
-0.28482	-1.55785
1.27078	0.04914
0.35272	0.15117
-4.31408	0.45726
0.27621	0.48277
1.50029	0.78886
0.76074	0.02363
0.32721	0.43176
0.42922	0.20219
-0.87136	-0.41000
0.76074	-0.10391
0.93925	0.15117
-0.38683	0.32972
-0.38683	0.12566
-0.02981	0.40625
0.17421	-0.28246
0.78624	0.32972
-0.53984	0.22769
1.32178	0.25320
1.80631	-0.25695
-1.81492	-0.23145
-0.76936	0.48277
-1.91693	-0.23145
0.37822	0.76336
0.73524	0.30422
1.29628	0.04914
1.88281	0.04914
0.81175	0.10015
0.22521	0.22769
-0.53984	0.40625
-1.91693	-0.28246
-0.20832	0.35523
0.22521	0.04914
0.60773	-0.15492
-0.28482	-0.18043
0.53123	-0.33348
0.45472	0.53379
0.81175	0.15117
-0.87136	0.12566
0.35272	0.43176
0.02119	0.25320
0.83725	0.20219
0.14870	0.22769
-0.64185	-0.10391
-0.18282	0.04914
0.25071	0.10015
0.25071	0.07465
0.81175	0.22769
-0.05531	0.30422
-1.27939	0.17668
-1.35589	0.12566
0.96476	0.12566
2.26534	0.20219
1.11776	-0.33348
-0.61635	0.17668
-0.18282	0.15117
-1.35589	0.07465
2.16333	0.25320
0.22521	0.04914
-0.31033	0.38074
0.53123	0.27871
0.17421	-0.02739
0.32721	0.07465
-0.69285	0.30422
-0.74385	0.25320
-0.10631	0.38074
1.21977	0.04914
-0.13181	0.30422
-0.00431	0.27871
-1.48340	-0.00188
1.65330	-0.20594
0.83725	-0.10391
-0.71835	0.22769
-0.89686	0.15117
-0.31033	0.04914
2.67337	0.25320
1.83181	0.04914
1.14327	0.02363
-0.36133	-0.12942
-3.52353	0.58480
-1.04987	0.50828
1.24527	-0.00188
0.68424	0.45726
0.32721	0.20219
1.14327	-0.00188
2.08683	-0.02739
-1.30489	-0.53754
-0.74385	0.15117
-0.25932	0.55929
0.09770	0.43176
1.04126	0.40625
-1.84042	-0.10391
-0.28482	-0.25695
1.21977	0.22769
1.09226	0.17668
1.37278	0.12566
-0.10631	0.86539
-0.76936	-0.28246
0.30171	-0.12942
-0.38683	0.02363
0.04670	0.17668
0.50573	0.12566
-1.89143	0.15117
0.14870	0.12566
0.88825	-0.12942
1.37278	0.25320
0.45472	0.73785
0.12320	0.55929
1.32178	0.07465
-0.46334	-0.12942
-1.89143	0.15117
-1.30489	-0.23145
-0.87136	0.12566
1.34728	0.20219
1.60230	0.30422
0.27621	-0.07840
1.34728	0.30422
1.01576	0.55929
-0.99887	-0.18043
0.70974	0.66132
-1.25389	-0.48652
-0.31033	0.15117
-0.25932	-0.05289
0.55673	-0.46102
0.32721	0.04914
0.27621	0.66132
0.60773	0.40625
0.25071	-0.00188
-0.20832	0.78886
-0.53984	0.17668
0.12320	-0.07840
0.09770	-0.18043
0.17421	0.10015
-0.74385	0.40625
1.19427	-0.00188
1.19427	0.02363
-1.63641	0.35523
0.86275	0.40625
1.06676	0.17668
-0.82036	-0.02739
0.09770	-0.05289
-0.33583	0.04914
0.58223	-0.15492
0.99026	0.04914
-4.51810	0.35523
1.83181	0.48277
2.62236	0.25320
0.37822	0.22769
-0.10631	0.20219
0.96476	0.22769
0.45472	-0.12942
-0.74385	0.15117
0.58223	0.20219
1.39828	0.48277
-0.18282	0.38074
-2.29945	0.38074
-0.74385	-0.05289
0.70974	-0.07840
0.53123	0.15117
0.37822	-0.10391
0.45472	0.15117
0.45472	0.32972
-0.05531	0.25320
1.29628	0.30422
0.88825	0.12566
-3.93156	-0.15492
-0.66735	-0.15492
1.14327	0.30422
2.16333	-0.00188
2.36734	0.12566
-0.31033	0.25320
-2.63097	0.25320
0.65874	-0.02739
0.35272	-0.35899
2.08683	0.20219
-0.89686	0.45726
-1.10088	0.73785
-0.13181	0.20219
-0.18282	0.17668
1.60230	-0.02739
-0.41233	0.25320
1.14327	0.12566
-0.43783	0.04914
-0.23382	-0.18043
0.19971	0.22769
1.24527	-0.07840
0.32721	0.53379
-0.43783	-0.28246
-0.20832	0.25320
0.48022	0.40625
0.45472	-0.10391
-0.69285	-0.48652
-0.25932	0.83988
-0.61635	-0.07840
0.83725	0.02363
0.73524	0.58480
0.17421	0.04914
-0.08081	0.32972
0.45472	0.76336
-1.30489	0.22769
0.60773	-0.43551
1.14327	-0.07840
2.03582	0.07465
-1.33039	-0.00188
-1.96793	-0.18043
0.17421	0.32972
0.63323	0.15117
1.37278	-0.02739
0.04670	0.35523
-0.23382	0.61031
-0.59084	-0.20594
-0.31033	-0.02739
0.09770	-0.00188
0.73524	0.25320
0.73524	0.43176
0.35272	0.81437
0.27621	0.27871
-0.25932	-0.15492
-0.13181	0.10015
0.22521	-0.56305
0.07220	-0.23145
-1.78942	-0.23145
-1.76392	0.96742
0.07220	0.48277
1.95932	0.35523
2.23984	0.43176
1.50029	0.12566
-0.46334	-0.00188
0.50573	0.30422
0.53123	-0.05289
-1.55991	-0.12942
0.27621	-0.41000
-0.08081	0.07465
-0.36133	0.45726
0.76074	0.25320
-0.28482	0.10015
-1.17738	0.22769
-0.56534	-0.02739
0.02119	0.30422
1.42379	0.15117
2.18883	0.22769
-0.71835	-0.20594
-2.37596	0.40625
-0.23382	-0.15492
1.01576	0.02363
1.14327	0.43176
1.75531	0.38074
0.91375	-0.05289
-1.04987	0.53379
0.48022	0.35523
-0.15732	-0.00188
-0.87136	-0.38449
0.50573	0.40625
0.37822	0.43176
0.04670	0.20219
0.48022	0.25320
0.48022	0.30422
-1.73842	0.10015
-1.43240	0.17668
1.27078	0.15117
0.17421	-0.20594
1.01576	-0.28246
-0.28482	0.32972
0.30171	0.50828
-0.38683	-0.07840
0.88825	0.53379
1.42379	-0.05289
-0.18282	0.07465
-0.74385	0.27871
0.83725	0.15117
-0.02981	-0.20594
0.53123	-0.28246
0.14870	0.55929
-0.13181	0.32972
-0.79486	0.12566
0.50573	0.38074
0.73524	0.12566
-0.82036	0.04914
-0.82036	-0.23145
-0.56534	-0.02739
0.42922	0.15117
0.27621	0.30422
1.83181	-0.07840
0.50573	0.38074
-0.00431	-0.30797
0.65874	0.35523
0.53123	0.30422
-1.43240	0.15117
0.22521	0.22769
0.83725	0.04914
-0.64185	0.10015
-0.28482	-0.00188
0.25071	0.12566
0.40372	-0.35899
0.48022	0.27871
0.02119	0.45726
-1.81492	0.17668
0.81175	0.25320
1.95932	0.04914
1.83181	0.10015
-2.17195	-0.18043
-2.63097	-0.33348
0.78624	0.35523
0.91375	0.43176
0.91375	0.04914
0.86275	0.40625
-0.05531	-0.05289
0.42922	0.66132
0.42922	0.07465
-0.00431	0.10015
-0.31033	0.10015
-0.69285	-0.18043
0.99026	-0.05289
-0.15732	0.45726
-0.43783	0.10015
0.86275	0.30422
0.19971	0.17668
-0.79486	0.32972
0.35272	0.30422
-0.59084	-0.15492
-0.05531	0.10015
1.11776	-0.05289
2.11233	0.22769
0.45472	0.27871
-2.75848	0.12566
-0.56534	0.27871
1.32178	0.25320
0.63323	0.17668
-0.38683	0.45726
0.73524	0.22769
1.34728	0.10015
-0.92237	-0.05289
-0.61635	-0.00188
0.12320	-0.02739
0.42922	0.02363
0.99026	0.35523
0.50573	-0.12942
-0.18282	0.30422
-2.01894	0.30422
-0.92237	0.32972
1.83181	0.04914
1.60230	0.50828
0.22521	-0.12942
-0.18282	0.25320
0.55673	0.55929
-0.53984	0.10015
-0.38683	0.38074
0.58223	0.02363
1.47479	-0.02739
-0.43783	-0.05289
-2.12094	-0.18043
0.88825	0.15117
0.63323	0.10015
-1.96793	-0.15492
0.63323	0.43176
0.91375	0.58480
1.62780	0.25320
0.27621	0.35523
0.88825	-0.05289
0.14870	-0.23145
-0.23382	-0.41000
-0.79486	0.66132
-0.05531	0.55929
0.35272	0.15117
0.55673	0.10015
-0.33583	-0.07840
-0.92237	-0.02739
0.68424	0.22769
1.39828	0.40625
0.12320	0.40625
0.19971	0.40625
-1.66191	0.04914
-0.53984	0.17668
2.36734	-0.35899
1.29628	-0.10391
-2.19745	0.15117
-0.02981	0.35523
1.75531	0.53379
1.65330	0.20219
-0.18282	0.22769
-0.61635	-0.07840
-0.25932	0.17668
-1.55991	-0.00188
-0.08081	0.22769
1.09226	-0.38449
1.95932	0.25320
-0.18282	0.15117
-3.01350	0.35523
1.06676	0.58480
-0.05531	0.63582
-0.02981	0.07465
1.19427	0.38074
0.50573	-0.12942
0.70974	-0.23145
1.67880	0.12566
1.80631	-0.15492
-3.09000	0.50828
-2.60547	0.27871
0.68424	-0.00188
0.83725	-0.12942
0.76074	0.63582
1.01576	-0.20594
2.54586	0.53379
0.07220	0.35523
-1.63641	0.15117
-0.02981	-0.33348
-2.57997	0.12566
1.37278	0.27871
0.50573	0.43176
-0.15732	0.25320
2.01032	0.17668
0.99026	0.25320
-2.75848	-0.35899
-2.42696	-0.74160
0.83725	-0.20594
1.65330	0.43176
2.06133	0.89089
4.05045	0.43176
2.39285	0.43176
-7.01726	0.02363
-5.41065	0.15117
1.80631	0.10015
2.49485	0.48277
3.66793	-0.10391
2.34184	0.25320
0.40372	0.38074
-0.51434	0.35523
-0.02981	0.27871
0.25071	-0.02739
-0.74385	0.20219
-2.45246	-0.51203
-0.74385	-0.00188
0.37822	-0.07840
1.14327	0.38074
-0.71835	0.35523
-0.10631	-0.23145
0.81175	0.02363
0.53123	0.15117
0.17421	0.50828
0.25071	0.17668
0.73524	0.68683
0.50573	-0.10391
-0.66735	0.07465
0.19971	-0.00188
0.76074	0.17668
-1.30489	0.35523
-0.36133	0.02363
1.14327	0.48277
-1.10088	-0.28246
1.32178	0.12566
0.63323	0.30422
-0.66735	0.04914
3.48942	-0.33348
3.43841	0.30422
-1.53441	0.30422
-1.91693	0.32972
-1.63641	0.43176
-0.10631	0.27871
-1.94243	0.17668
0.60773	0.17668
1.04126	-0.25695
1.06676	-0.23145
-1.81492	-0.02739
1.04126	0.32972
1.80631	0.32972
-1.48340	0.30422
0.53123	0.27871
0.70974	-0.33348
-0.13181	-0.15492
0.30171	0.45726
-0.15732	0.35523
0.27621	0.32972
0.73524	0.12566
0.63323	0.07465
0.50573	0.32972
-0.23382	0.38074
-0.92237	0.10015
0.22521	-0.00188
0.93925	-0.05289
-0.36133	-0.61406
0.17421	0.25320
0.09770	0.32972
-0.59084	0.02363
-0.15732	0.32972
1.19427	0.61031
-0.08081	0.17668
3.15790	0.48277
0.12320	0.25320
-2.96250	0.04914
-2.50347	0.12566
0.81175	0.02363
1.57679	-0.33348
0.83725	-0.18043
0.65874	0.07465
-1.02437	0.25320
0.99026	0.45726
1.19427	0.27871
0.86275	-0.07840
0.76074	0.35523
-1.35589	0.35523
-0.66735	0.02363
-0.38683	0.45726
0.53123	-0.05289
0.45472	0.07465
0.60773	0.45726
-0.02981	-0.25695
-1.20288	0.04914
0.22521	0.12566
0.58223	0.30422
0.45472	0.40625
0.22521	0.32972
1.24527	0.45726
0.48022	-0.35899
-0.92237	-0.48652
-0.38683	0.22769
0.58223	0.15117
0.14870	0.43176
0.53123	0.07465
0.07220	0.35523
0.17421	0.35523
-0.08081	-0.15492
0.25071	-0.15492
0.07220	0.04914
-0.61635	0.15117
1.32178	0.43176
0.53123	0.38074
0.55673	0.12566
0.25071	0.10015
-0.82036	0.22769
0.27621	0.10015
0.50573	-0.48652
-0.18282	0.15117
-1.25389	-0.23145
-1.76392	0.78886
0.76074	0.81437
1.93382	0.35523
0.50573	-0.35899
-0.38683	0.38074
0.99026	0.35523
0.37822	-0.18043
0.14870	-0.18043
0.07220	0.15117
0.09770	0.43176
1.21977	-0.10391
0.60773	0.35523
-3.57454	-0.30797
-0.38683	0.25320
1.42379	0.32972
1.14327	0.32972
-0.38683	-0.05289
-0.13181	0.20219
-0.20832	0.04914
0.91375	-0.05289
2.13783	0.25320
-0.18282	0.38074
-0.79486	0.17668
-0.48884	0.07465
0.60773	0.32972
1.83181	0.07465
-0.64185	0.20219
-0.71835	0.04914
-0.33583	0.20219
-0.13181	0.02363
0.70974	0.17668
0.27621	0.02363
1.21977	0.53379
2.01032	0.22769
-2.50347	-0.02739
-2.09544	0.61031
2.11233	0.07465
1.55129	0.22769
-0.28482	-0.07840
-2.24845	-0.00188
0.91375	0.27871
1.98482	0.15117
0.37822	0.20219
0.14870	0.53379
1.44929	0.22769
-0.97337	-0.05289
-1.73842	0.12566
0.78624	-0.25695
0.50573	-0.25695
-0.46334	-0.05289
0.12320	0.22769
0.63323	0.20219
-0.31033	0.32972
0.68424	0.83988
-0.46334	0.25320
0.76074	0.32972
0.40372	0.43176
-0.79486	0.35523
1.09226	0.71234
2.57136	-0.38449
-1.04987	-0.25695
-2.93700	-0.33348
0.07220	-0.02739
1.14327	-0.20594
-0.59084	0.48277
1.24527	-0.02739
0.58223	0.20219
0.93925	0.20219
-0.48884	0.43176
-1.66191	0.20219
1.19427	-0.05289
0.45472	0.45726
-1.50890	0.40625
0.32721	0.40625
0.48022	-0.35899
2.03582	0.43176
0.58223	-0.15492
0.53123	0.04914
-1.45790	0.15117
-1.10088	0.04914
1.04126	-0.25695
-0.28482	0.12566
0.55673	0.38074
0.99026	0.58480
-3.29402	0.48277
-0.61635	0.30422
1.39828	0.30422
0.93925	-0.05289
0.50573	0.17668
0.14870	0.04914
0.27621	-0.38449
-0.00431	0.55929
-1.07538	-0.12942
0.73524	-0.35899
1.75531	0.76336
0.78624	-0.35899
0.68424	0.32972
-1.86593	0.22769
-2.93700	0.35523
0.45472	-0.18043
1.50029	0.32972
3.03039	0.04914
-3.54903	0.25320
0.76074	-0.02739
0.22521	0.15117
1.57679	0.30422
0.30171	0.17668
-1.43240	0.38074
-0.82036	-0.38449
0.55673	-0.35899
1.32178	0.15117
1.42379	0.78886
-0.74385	-0.15492
-0.97337	0.10015
0.73524	0.35523
0.96476	0.50828
0.63323	0.27871
0.07220	-0.20594
-0.25932	-0.00188
0.37822	-0.05289
-0.64185	0.35523
-0.82036	-0.02739
0.40372	0.40625
1.01576	0.40625
0.02119	-0.56305
-1.20288	-0.07840
0.53123	0.12566
1.04126	0.83988
0.27621	0.25320
-1.35589	0.07465
0.48022	0.12566
-0.13181	-0.05289
0.25071	0.10015
0.04670	0.35523
1.93382	0.38074
1.83181	0.43176
0.40372	0.04914
-1.66191	0.10015
-0.48884	0.04914
0.63323	-0.23145
-0.82036	0.32972
0.19971	0.30422
0.55673	0.12566
0.32721	0.27871
0.40372	0.22769
0.48022	0.38074
-0.87136	0.02363
0.14870	0.17668
0.73524	-0.30797
-0.99887	0.45726
0.25071	0.38074
1.11776	0.20219
1.06676	0.27871
-1.55991	0.32972
-0.82036	0.02363
0.81175	-0.48652
1.80631	0.22769
1.65330	0.27871
-0.48884	-0.15492
0.02119	0.17668
-0.36133	0.20219
-1.63641	-0.15492
0.83725	-0.00188
1.47479	0.40625
0.35272	0.38074
0.42922	0.58480
0.37822	0.50828
-0.33583	0.20219
-0.87136	-0.25695
-0.59084	0.15117
-1.38139	0.40625
-0.43783	-0.48652
0.70974	0.12566
1.75531	0.35523
0.37822	0.15117
0.91375	0.53379
0.63323	0.45726
-1.71292	0.04914
-0.53984	0.12566
1.11776	-0.15492
0.73524	0.22769
0.12320	-0.35899
0.83725	0.27871
0.86275	0.17668
0.14870	0.58480
-1.86593	-0.43551
-0.02981	0.30422
0.73524	0.30422
-1.10088	0.02363
0.37822	0.25320
-0.38683	0.35523
0.68424	-0.05289
2.41835	0.07465
1.14327	0.22769
-2.24845	-0.05289
-2.29945	-0.15492
1.04126	0.15117
0.68424	0.10015
0.65874	-0.07840
0.70974	0.15117
-0.15732	0.15117
0.42922	0.38074
0.02119	0.10015
-0.13181	-0.05289
-0.41233	0.63582
-1.04987	-0.28246
-0.20832	0.55929
0.53123	-0.02739
0.42922	-0.00188
1.39828	0.25320
0.17421	0.38074
0.17421	0.04914
0.88825	0.22769
-0.59084	0.20219
0.58223	-0.00188
0.14870	-0.20594
-0.38683	0.50828
0.99026	-0.51203
1.16877	0.53379
-2.42696	0.40625
-2.75848	-0.07840
1.42379	0.22769
2.67337	0.53379
0.83725	-0.15492
-1.35589	-0.07840
0.42922	0.53379
0.32721	0.10015
-0.20832	-0.12942
0.37822	0.12566
0.93925	0.10015
0.30171	0.25320
-1.07538	0.30422
-1.94243	0.32972
0.86275	0.20219
1.01576	0.12566
1.55129	0.04914
0.70974	0.17668
-1.81492	0.17668
-1.10088	-0.35899
1.09226	0.17668
0.73524	0.32972
1.57679	0.10015
1.39828	0.35523
0.09770	0.53379
-0.36133	0.25320
0.22521	0.04914
-0.79486	-0.28246
-1.20288	0.20219
-0.46334	0.10015
1.72980	0.30422
-0.84586	0.07465
-1.20288	-0.00188
-0.28482	0.35523
1.14327	0.40625
2.36734	0.15117
2.11233	0.27871
0.68424	-0.15492
-1.22839	0.12566
-0.94787	-0.23145
0.73524	0.45726
-0.51434	-0.38449
0.32721	0.58480
1.80631	0.02363
-0.05531	0.27871
-0.64185	-0.10391
0.55673	0.27871
-1.20288	-0.00188
-0.25932	0.07465
-1.02437	-0.18043
-0.20832	0.45726
1.95932	0.07465
1.80631	0.35523
-1.43240	-0.18043
-2.24845	0.32972
0.30171	-0.18043
2.16333	0.22769
1.72980	-0.07840
1.39828	0.55929
0.73524	-0.05289
-1.02437	-0.05289
-0.89686	0.27871
-0.08081	0.15117
0.30171	-0.25695
0.17421	0.58480
0.17421	0.55929
0.30171	0.32972
-0.38683	0.15117
-0.66735	-0.07840
0.48022	-0.25695
0.19971	-0.18043
-0.20832	-0.05289
0.30171	0.53379
-0.94787	-0.23145
0.37822	0.89089
0.78624	0.32972
1.11776	-0.35899
1.78081	0.43176
-0.82036	0.45726
-1.43240	-0.23145
0.53123	-0.10391
0.35272	0.04914
-1.71292	0.22769
-0.08081	0.27871
1.11776	0.50828
1.21977	0.02363
1.37278	-0.00188
0.14870	-0.07840
-0.08081	0.45726
-2.35046	-0.10391
0.19971	0.15117
1.06676	0.27871
1.67880	0.30422
0.96476	0.10015
-1.76392	0.38074
-1.66191	0.04914
-1.73842	-0.07840
0.88825	0.02363
1.11776	-0.07840
0.42922	-0.12942
1.44929	0.45726
0.63323	0.22769
-0.31033	0.58480
-1.20288	0.04914
0.68424	0.22769
-0.02981	-0.02739
0.53123	0.12566
-0.46334	0.04914
0.12320	-0.05289
0.73524	0.25320
0.78624	0.40625
-0.00431	0.40625
-1.12638	-0.12942
-0.56534	0.04914
0.88825	-0.10391
0.17421	0.10015
-0.18282	0.58480
0.40372	0.50828
0.25071	0.04914
-1.61091	-0.10391
1.44929	0.07465
1.75531	0.25320
-1.17738	-0.43551
0.53123	0.17668
0.88825	0.04914
-0.94787	0.38074
-1.20288	0.27871
1.55129	-0.12942
0.99026	0.02363
0.60773	0.04914
-0.89686	0.53379
-0.28482	0.68683
1.60230	0.15117
-0.41233	0.02363
-1.84042	-0.25695
1.06676	0.43176
1.44929	0.48277
0.58223	0.07465
0.27621	-0.02739
-0.13181	0.15117
-1.68742	-0.07840
-0.51434	0.10015
-0.02981	0.04914
1.32178	-0.35899
1.78081	1.24800
-1.10088	-0.00188
-1.78942	0.04914
0.73524	0.12566
0.76074	-0.00188
1.14327	0.43176
-1.10088	-0.12942
0.42922	0.04914
1.32178	0.38074
0.83725	0.32972
-0.15732	0.25320
-1.73842	0.04914
-0.89686	-0.05289
1.01576	-0.30797
1.60230	0.30422
0.65874	0.38074
0.99026	0.48277
-0.89686	0.22769
-2.06994	0.35523
-0.56534	-0.38449
0.22521	-0.02739
0.17421	0.02363
0.45472	0.12566
0.65874	0.15117
1.24527	0.25320
-0.02981	0.35523
-0.61635	0.04914
0.40372	-0.05289
0.32721	-0.02739
0.40372	0.40625
-0.10631	-0.18043
1.32178	-0.00188
-0.76936	0.32972
-0.13181	0.25320
0.63323	0.15117
2.11233	0.63582
-0.99887	-0.07840
-3.44703	0.04914
-1.84042	-0.02739
0.76074	-0.15492
1.85731	0.20219
2.18883	0.40625
1.29628	0.43176
1.29628	0.17668
-0.36133	-0.15492
-0.33583	-0.02739
0.09770	0.04914
-0.74385	0.07465
-1.17738	-0.07840
0.53123	0.32972
1.04126	0.68683
-1.15188	0.10015
0.78624	-0.18043
0.48022	0.02363
0.50573	0.07465
0.04670	0.04914
0.45472	0.53379
0.45472	0.30422
-0.36133	0.12566
-0.48884	0.20219
-0.43783	0.45726
0.96476	-0.18043
-1.50890	0.27871
0.48022	0.07465
2.01032	-0.53754
1.29628	-0.10391
0.55673	0.02363
0.76074	0.25320
-0.25932	0.53379
-1.43240	0.25320
-0.61635	0.25320
0.09770	0.32972
0.55673	0.20219
0.35272	0.04914
-0.51434	0.25320
-0.71835	-0.28246
0.68424	0.17668
1.52579	0.15117
0.25071	0.04914
-1.76392	-0.20594
-0.20832	0.40625
-1.12638	0.32972
0.53123	0.48277
0.88825	0.45726
0.93925	-0.10391
0.42922	-0.07840
1.14327	-0.00188
1.11776	0.35523
0.02119	0.17668
-0.97337	0.15117
1.14327	0.58480
0.96476	0.12566
-0.59084	0.02363
-2.14644	-0.35899
-0.69285	-0.00188
0.02119	-0.05289
0.70974	0.50828
1.24527	0.02363
-1.02437	0.10015
-0.33583	0.32972
1.65330	0.38074
-0.00431	-0.12942
1.24527	0.66132
0.63323	0.50828
-0.48884	0.04914
-0.66735	-0.20594
1.24527	0.20219
-0.89686	0.25320
-1.86593	-0.56305
1.85731	0.32972
0.37822	0.10015
-0.13181	0.40625
1.14327	0.25320
0.68424	0.27871
-0.79486	0.20219
-0.59084	0.38074
-0.41233	0.07465
-0.02981	-0.25695
1.55129	0.25320
0.12320	0.07465
-0.20832	0.50828
0.45472	0.07465
0.70974	0.32972
0.48022	0.17668
0.63323	-0.30797
0.09770	0.12566
-0.61635	0.10015
-0.46334	0.02363
-2.06994	0.35523
0.35272	0.55929
0.17421	0.10015
1.47479	-0.05289
1.83181	0.10015
0.02119	0.15117
-1.02437	0.45726
0.50573	0.22769
0.40372	-0.51203
0.09770	-0.00188
0.22521	-0.43551
1.39828	-0.05289
-1.40690	0.61031
-2.09544	0.15117
1.01576	0.66132
1.34728	-0.00188
0.07220	0.50828
-0.79486	0.35523
-0.13181	0.17668
1.11776	0.38074
0.50573	-0.46102
0.50573	0.15117
-0.38683	0.12566
0.78624	-0.05289
0.73524	0.02363
0.12320	0.22769
-1.40690	0.02363
-1.20288	0.10015
0.45472	0.17668
0.83725	0.07465
0.99026	0.15117
0.32721	0.25320
1.50029	0.17668
0.35272	0.55929
-1.40690	0.07465
-0.33583	0.30422
0.07220	-0.05289
0.32721	-0.43551
0.48022	0.35523
0.22521	0.32972
0.42922	0.45726
0.42922	0.22769
0.78624	-0.07840
-0.46334	-0.15492
-1.10088	0.27871
-0.74385	-0.00188
1.29628	-0.02739
0.58223	-0.25695
0.35272	0.38074
-1.35589	0.35523
-0.41233	0.15117
0.78624	0.43176
0.70974	0.43176
1.27078	-0.05289
1.52579	0.15117
-0.31033	0.04914
-1.40690	0.10015
-0.33583	0.07465
-0.84586	-0.07840
0.40372	0.20219
0.93925	0.32972
0.91375	0.48277
0.30171	0.43176
0.07220	-0.05289
-0.38683	0.02363
-0.59084	0.02363
0.35272	-0.23145
0.25071	0.10015
0.73524	0.22769
0.50573	0.32972
-0.89686	0.48277
0.93925	0.04914
0.73524	0.55929
0.12320	-0.58856
-0.89686	0.15117
-1.43240	0.45726
0.83725	-0.05289
1.39828	-0.18043
-0.18282	0.20219
-3.60004	0.10015
1.44929	0.20219
2.72437	0.38074
1.55129	0.20219
1.80631	0.32972
-0.43783	0.10015
-1.50890	0.12566
-0.64185	0.07465
-1.55991	-0.10391
0.78624	0.04914
0.76074	0.02363
-1.78942	0.48277
-0.51434	0.30422
0.63323	0.07465
1.14327	-0.05289
1.47479	0.25320
0.93925	0.20219
0.27621	-0.43551
-0.23382	0.30422
-0.43783	-0.53754
0.25071	0.63582
-0.02981	0.40625
0.42922	0.50828
-0.99887	0.04914
0.65874	-0.05289
0.07220	-0.20594
-0.38683	0.35523
-0.36133	0.58480
-0.25932	0.15117
1.24527	0.30422
1.75531	-0.23145
1.44929	-0.25695
-1.63641	-0.00188
-0.53984	0.04914
1.24527	0.25320
-0.48884	0.12566
-1.38139	0.38074
0.09770	-0.00188
1.01576	0.27871
0.55673	-0.12942
0.22521	0.32972
0.83725	-0.10391
1.06676	0.45726
1.47479	0.30422
-2.32496	0.10015
-1.50890	0.45726
-0.02981	-0.15492
0.19971	-0.25695
1.04126	0.10015
0.17421	0.38074
-0.82036	0.04914
-0.41233	0.12566
0.93925	-0.05289
1.29628	0.25320
0.88825	0.35523
0.83725	-0.12942
0.25071	0.07465
-0.05531	0.22769
-0.05531	0.10015
-0.53984	0.02363
-0.08081	0.20219
-0.94787	0.43176
-0.13181	0.35523
0.91375	0.20219
-0.53984	0.25320
0.73524	0.10015
1.11776	0.25320
-1.40690	-0.20594
-1.43240	-0.15492
-0.15732	0.02363
1.78081	0.32972
1.98482	0.17668
1.57679	0.43176
-0.74385	0.20219
0.65874	0.12566
0.53123	0.22769
0.02119	0.02363
-0.74385	0.27871
-1.04987	-0.10391
-0.02981	0.10015
0.04670	0.22769
-0.69285	-0.07840
-0.33583	0.15117
1.55129	0.22769
0.88825	0.30422
-1.25389	-0.05289
0.73524	0.32972
1.11776	0.50828
-1.12638	-0.02739
0.48022	0.12566
0.76074	0.12566
0.81175	0.38074
0.19971	-0.02739
1.06676	-0.00188
2.18883	-0.35899
-3.01350	0.45726
-2.22295	0.30422
-0.43783	-0.05289
0.86275	0.35523
0.25071	0.07465
1.42379	0.38074
0.83725	0.15117
-1.45790	-0.05289
0.09770	0.25320
1.09226	-0.10391
0.32721	0.17668
-0.23382	0.27871
0.53123	0.07465
-0.33583	0.30422
-0.51434	0.17668
0.40372	0.53379
0.32721	0.17668
0.37822	-0.18043
-0.48884	-0.20594
0.07220	0.63582
1.55129	-0.10391
0.50573	-0.10391
-0.82036	-0.05289
-0.59084	0.61031
0.42922	0.17668
1.21977	0.15117
0.40372	-0.07840
-1.02437	-0.15492
-0.08081	0.76336
0.50573	0.50828
0.86275	0.12566
0.48022	0.20219
-0.13181	-0.30797
-0.76936	-0.05289
-0.20832	-0.33348
0.81175	0.25320
1.04126	0.48277
-0.25932	0.25320
-1.38139	0.55929
0.60773	0.40625
1.16877	-0.00188
0.14870	-0.00188
-0.18282	-0.00188
-0.08081	0.10015
0.27621	-0.05289
-0.61635	0.15117
-0.66735	-0.05289
1.14327	0.20219
1.16877	0.45726
-0.84586	0.10015
0.42922	0.27871
0.12320	0.32972
0.63323	-0.02739
-0.00431	-0.43551
0.09770	-0.02739
-0.10631	0.27871
0.81175	0.02363
1.16877	0.30422
-0.53984	0.15117
-0.00431	0.15117
-0.48884	0.25320
-0.00431	0.27871
-0.33583	-0.10391
0.22521	0.20219
0.78624	0.07465
0.63323	-0.20594
-1.33039	0.35523
-0.59084	0.40625
0.35272	0.07465
1.85731	0.78886
0.65874	0.04914
-0.46334	-0.07840
-0.25932	-0.07840
-0.15732	0.15117
0.42922	-0.05289
0.73524	0.17668
-0.10631	0.04914
0.63323	0.25320
1.52579	0.20219
-0.20832	0.45726
-3.19201	-0.05289
1.75531	0.17668
-0.61635	0.12566
-0.79486	-0.02739
0.30171	0.17668
0.78624	0.45726
0.78624	0.50828
0.50573	-0.07840
0.48022	0.32972
0.17421	0.15117
0.07220	0.45726
-0.38683	0.04914
0.30171	-0.05289
0.65874	0.30422
-1.04987	-0.25695
-1.73842	-0.23145
0.07220	0.10015
0.99026	0.35523
1.42379	0.20219
0.58223	-0.07840
0.32721	0.20219
0.25071	0.15117
0.17421	0.45726
-0.43783	0.48277
0.07220	-0.07840
0.14870	0.35523
0.12320	0.04914
0.04670	0.30422
-0.43783	0.25320
1.80631	0.15117
1.80631	-0.23145
-3.90606	0.15117
-2.86049	-0.05289
1.75531	0.15117
1.85731	0.10015
0.81175	0.17668
0.42922	0.27871
0.63323	0.53379
0.02119	-0.25695
1.52579	0.45726
-0.20832	0.35523
-1.86593	-0.15492
0.63323	0.04914
0.48022	-0.05289
-1.02437	-0.00188
-0.25932	0.17668
0.58223	0.48277
0.93925	0.04914
0.07220	0.02363
-0.28482	0.45726
-0.08081	0.10015
0.42922	0.02363
1.24527	0.07465
0.35272	-0.07840
-0.56534	0.22769
0.07220	0.10015
-0.02981	-0.43551
-1.25389	-0.12942
0.40372	0.63582
0.81175	0.12566
0.83725	0.58480
1.19427	0.04914
-1.61091	0.15117
0.04670	0.04914
0.30171	-0.05289
-0.31033	-0.00188
0.09770	0.07465
0.68424	-0.10391
-1.17738	0.04914
1.14327	0.48277
1.50029	-0.00188
0.37822	0.66132
-0.97337	-0.10391
0.50573	-0.15492
0.58223	0.17668
-1.02437	0.12566
0.30171	0.32972
-0.87136	0.55929
-0.94787	0.10015
0.81175	0.25320
2.08683	0.27871
1.29628	0.17668
0.68424	0.07465
0.04670	-0.20594
-1.04987	-0.05289
-0.23382	0.25320
-0.53984	0.22769
-0.74385	0.45726
0.17421	-0.38449
-0.08081	0.10015
1.27078	0.15117
1.04126	0.04914
-0.23382	0.40625
-0.18282	-0.07840
-0.20832	-0.15492
0.02119	-0.12942
0.70974	0.86539
1.11776	0.48277
0.19971	0.02363
-0.64185	0.07465
-0.61635	0.22769
-0.02981	0.22769
0.14870	0.07465
0.45472	-0.35899
0.45472	0.17668
0.35272	0.17668
-0.13181	0.30422
0.32721	-0.18043
0.45472	0.10015
-1.68742	0.17668
0.68424	0.32972
1.14327	0.25320
1.57679	0.48277
-1.07538	0.10015
-0.05531	-0.15492
-0.38683	0.02363
-0.64185	0.15117
0.22521	0.04914
0.07220	-0.00188
0.83725	0.30422
0.07220	0.25320
-0.84586	0.22769
1.32178	-0.05289
0.88825	0.17668
-2.70748	0.15117
-0.38683	-0.05289
0.99026	-0.07840
1.62780	0.55929
1.04126	0.07465
0.81175	0.20219
0.50573	0.27871
-2.01894	0.22769
-0.02981	0.30422
-0.23382	-0.18043
0.99026	0.40625
0.27621	-0.00188
-0.05531	0.22769
0.25071	-0.15492
0.19971	0.40625
0.48022	0.32972
0.40372	0.15117
-0.33583	-0.10391
-0.97337	-0.30797
-0.79486	-0.10391
1.09226	0.55929
2.11233	0.61031
0.02119	0.43176
-3.21751	-0.12942
0.96476	0.04914
1.14327	0.07465
1.80631	0.22769
-0.79486	0.04914
-0.33583	0.22769
0.48022	0.22769
0.53123	0.10015
1.27078	-0.30797
0.02119	0.22769
-1.50890	0.32972
-2.63097	0.73785
1.34728	-0.23145
2.34184	0.48277
0.53123	0.02363
-0.25932	-0.30797
-0.43783	-0.12942
-0.41233	-0.05289
-0.10631	0.38074
0.53123	0.22769
0.58223	0.71234
0.40372	0.02363
0.37822	0.27871
-1.10088	-0.07840
-0.53984	-0.00188
0.93925	-0.25695
-0.38683	0.22769
0.25071	0.35523
0.04670	0.22769
0.88825	-0.12942
0.30171	0.45726
0.68424	0.27871
0.25071	0.10015
-2.01894	-0.25695
0.78624	0.02363
1.34728	0.45726
0.60773	0.25320
0.07220	0.27871
-0.53984	-0.20594
-0.74385	-0.10391
-0.02981	0.15117
0.04670	0.02363
-0.00431	0.27871
0.19971	0.20219
0.22521	0.20219
0.07220	0.40625
0.25071	-0.35899
0.17421	0.04914
0.50573	0.50828
-0.08081	-0.02739
0.02119	0.12566
0.30171	0.55929
0.53123	-0.10391
0.50573	0.17668
-0.05531	-0.20594
0.63323	0.55929
0.45472	0.07465
-0.00431	-0.02739
-2.01894	-0.00188
-0.02981	-0.02739
1.60230	0.20219
1.29628	0.22769
-1.10088	0.20219
-1.17738	0.27871
1.39828	0.25320
1.88281	0.35523
0.81175	-0.41000
-1.84042	-0.02739
-0.97337	0.25320
-1.10088	-0.07840
0.91375	-0.00188
1.62780	0.40625
0.99026	0.38074
0.50573	0.35523
-1.04987	0.17668
-0.48884	-0.02739
0.42922	0.04914
-0.05531	-0.10391
0.22521	0.04914
0.63323	0.50828
0.88825	-0.07840
0.25071	0.48277
0.12320	0.10015
-0.05531	0.12566
-0.08081	-0.25695
-0.48884	-0.15492
-0.69285	0.12566
-0.05531	0.30422
0.83725	0.30422
0.91375	0.43176
-0.08081	0.35523
0.14870	-0.38449
0.45472	0.30422
0.27621	-0.05289
0.68424	0.30422
0.32721	0.15117
-0.99887	0.30422
0.37822	0.30422
-0.53984	-0.00188
0.50573	-0.38449
0.53123	0.40625
-0.31033	0.25320
0.53123	0.25320
0.88825	0.45726
-0.36133	-0.05289
-0.59084	0.48277
0.81175	0.02363
1.44929	0.10015
-0.28482	0.22769
-0.94787	0.15117
-0.36133	0.17668
0.37822	0.20219
1.62780	0.04914
1.11776	0.38074
-3.57454	0.20219
-0.38683	0.10015
1.44929	0.07465
0.91375	-0.00188
0.19971	-0.10391
0.30171	-0.07840
1.16877	-0.61406
0.40372	0.99292
-0.53984	0.30422
1.04126	0.32972
-0.51434	0.12566
-1.30489	0.07465
-0.13181	-0.18043
0.63323	0.15117
0.22521	0.20219
1.01576	0.45726
0.14870	0.25320
-0.31033	0.15117
0.73524	0.02363
0.68424	0.07465
-0.56534	0.04914
-0.59084	-0.02739
-0.10631	0.15117
0.07220	-0.05289
0.86275	0.22769
-0.15732	0.38074
0.53123	0.48277
0.22521	0.27871
0.73524	-0.02739
0.73524	-0.00188
-1.58541	0.15117
0.12320	0.02363
0.07220	0.04914
-0.00431	0.07465
-0.02981	-0.10391
0.12320	-0.20594
0.91375	0.58480
0.68424	0.30422
-0.48884	0.43176
0.22521	0.38074
1.09226	0.38074
-0.64185	0.20219
0.48022	-0.25695
0.78624	-0.25695
-1.43240	0.04914
-0.97337	-0.20594
0.65874	0.07465
0.76074	0.35523
0.12320	0.40625
0.96476	0.53379
-0.69285	-0.15492
0.88825	0.22769
0.35272	-0.07840
-0.00431	0.25320
0.19971	0.17668
-1.50890	0.07465
0.78624	0.20219
0.93925	-0.18043
0.37822	0.43176
-0.00431	-0.02739
0.12320	-0.02739
-0.38683	0.02363
-1.10088	0.10015
0.25071	-0.07840
0.73524	-0.07840
0.30171	0.71234
-0.18282	0.22769
0.88825	0.25320
0.93925	0.43176
0.35272	0.12566
0.68424	0.32972
-1.22839	-0.00188
0.12320	0.02363
0.60773	-0.12942
-0.36133	-0.10391
-0.94787	-0.05289
-0.23382	0.20219
0.50573	0.35523
1.72980	0.40625
0.58223	0.35523
-0.00431	-0.07840
-0.82036	-0.18043
-0.84586	-0.00188
0.63323	0.10015
-0.69285	0.12566
0.22521	0.30422
0.22521	0.35523
1.09226	0.61031
1.16877	0.25320
0.68424	0.15117
0.35272	-0.20594
-0.74385	-0.18043
-0.79486	0.22769
0.53123	0.32972
0.22521	0.30422
-0.87136	-0.25695
-0.74385	0.17668
0.55673	0.10015
1.14327	-0.00188
0.60773	0.20219
-1.20288	0.22769
-0.38683	-0.23145
0.12320	0.32972
0.02119	0.38074
0.63323	0.32972
0.73524	0.53379
1.16877	0.12566
0.22521	0.12566
0.04670	-0.12942
0.02119	0.30422
0.30171	0.50828
-0.08081	-0.10391
-0.33583	-0.33348
-1.22839	0.04914
-0.28482	-0.63957
0.17421	0.73785
0.25071	0.63582
0.78624	0.10015
0.99026	-0.02739
-0.08081	0.15117
0.09770	0.45726
0.53123	0.32972
-0.38683	-0.15492
-0.53984	0.10015
-0.33583	0.12566
0.04670	0.22769
0.22521	0.02363
1.14327	0.22769
0.76074	0.40625
0.12320	-0.02739
0.19971	0.30422
1.01576	0.02363
0.37822	-0.15492
-0.02981	0.17668
-2.63097	0.22769
-0.99887	0.10015
0.93925	0.17668
0.93925	0.10015
0.83725	0.04914
0.93925	0.32972
0.27621	-0.05289
-0.89686	0.43176
0.17421	0.04914
0.09770	-0.15492
0.22521	0.04914
-0.59084	0.17668
0.45472	0.07465
0.83725	0.02363
0.25071	0.55929
-0.23382	0.10015
-0.56534	0.35523
0.07220	0.10015
0.48022	0.04914
-0.20832	-0.02739
0.91375	-0.00188
-0.43783	-0.00188
0.25071	0.27871
0.78624	0.15117
0.70974	0.53379
-0.10631	0.07465
-0.33583	0.15117
0.25071	-0.15492
0.02119	-0.00188
-0.31033	-0.07840
0.91375	0.22769
-0.48884	0.45726
-0.20832	-0.10391
0.40372	0.48277
0.37822	-0.02739
0.45472	0.04914
-0.59084	-0.35899
-0.10631	0.45726
0.07220	0.17668
0.30171	0.17668
0.93925	0.43176
-0.25932	-0.43551
-0.10631	0.40625
-0.33583	0.25320
1.01576	0.30422
0.86275	0.20219
0.91375	0.25320
-1.43240	-0.23145
-1.99343	0.07465
1.11776	0.30422
0.78624	-0.10391
-0.53984	0.12566
-0.20832	0.27871
1.16877	0.25320
0.63323	0.27871
0.88825	0.30422
0.37822	-0.07840
0.30171	0.02363
-1.04987	-0.07840
-0.79486	-0.12942
0.42922	-0.05289
-0.61635	-0.05289
0.09770	0.35523
0.86275	0.40625
0.32721	0.38074
0.48022	0.30422
0.60773	0.25320
0.14870	0.12566
-0.69285	0.12566
-0.46334	0.07465
0.17421	0.15117
-0.08081	0.30422
-0.36133	-0.07840
0.40372	0.02363
0.58223	0.15117
1.04126	0.10015
-0.53984	-0.07840
0.14870	0.35523
-0.61635	0.15117
0.50573	-0.05289
1.29628	0.30422
1.16877	0.15117
0.83725	0.22769
-1.76392	0.35523
-1.12638	0.17668
-0.05531	0.10015
-0.46334	-0.61406
0.83725	0.53379
0.68424	0.17668
0.27621	0.32972
0.60773	0.48277
0.42922	0.10015
0.22521	-0.10391
-0.25932	0.25320
-0.48884	0.10015
0.22521	0.17668
-0.18282	0.02363
0.09770	0.15117
0.32721	0.07465
0.14870	0.10015
0.60773	0.25320
1.01576	0.02363
0.48022	0.10015
-1.15188	0.04914
-0.43783	0.15117
0.58223	0.25320
0.40372	0.27871
0.76074	0.17668
1.27078	0.04914
-1.33039	0.30422
-0.41233	-0.18043
-0.46334	0.40625
-0.36133	0.25320
1.14327	0.02363
0.09770	0.30422
-0.20832	0.20219
-0.00431	0.27871
-0.10631	0.35523
1.06676	-0.12942
1.24527	0.30422
0.04670	0.07465
0.04670	0.02363
