0.50573	0.38074
0.53123	0.63582
0.50573	0.63582
0.02119	0.32972
0.04670	0.02363
-0.08081	-0.18043
0.02119	-0.15492
0.02119	0.04914
0.12320	-0.00188
0.19971	-0.00188
0.27621	0.12566
0.09770	0.10015
0.09770	0.22769
0.17421	0.17668
-0.02981	0.10015
-0.13181	-0.02739
0.22521	0.04914
0.37822	0.25320
0.07220	0.22769
0.09770	0.38074
0.35272	0.25320
0.48022	0.32972
0.22521	0.15117
0.04670	0.02363
-0.08081	-0.00188
-0.15732	-0.00188
0.19971	0.38074
0.32721	0.38074
0.27621	0.22769
-0.05531	0.17668
0.04670	-0.07840
0.22521	0.04914
0.27621	-0.00188
0.14870	0.10015
0.22521	0.32972
-0.08081	0.10015
-0.00431	0.02363
0.25071	-0.18043
-0.10631	0.04914
0.42922	0.20219
0.35272	0.25320
0.50573	0.25320
0.12320	0.15117
-0.05531	0.12566
-0.20832	0.15117
-0.15732	0.07465
0.07220	0.15117
-0.08081	0.30422
0.27621	0.12566
0.70974	0.17668
0.27621	0.25320
0.42922	0.25320
0.32721	0.25320
0.17421	0.10015
-0.28482	-0.12942
-0.05531	0.07465
-0.10631	0.15117
-0.00431	0.04914
-0.02981	0.04914
0.42922	0.25320
0.88825	0.20219
0.45472	0.17668
0.09770	0.15117
-0.18282	0.22769
-0.31033	0.10015
-0.20832	-0.05289
-0.05531	0.12566
0.19971	0.35523
0.12320	0.27871
0.50573	0.22769
0.30171	0.22769
0.32721	0.22769
0.37822	0.10015
-0.00431	0.02363
0.02119	0.12566
0.27621	0.10015
0.14870	0.10015
-0.38683	-0.10391
0.02119	0.15117
0.12320	0.07465
0.58223	0.30422
0.27621	0.32972
0.50573	0.15117
0.50573	0.27871
-0.13181	0.22769
-0.48884	-0.15492
-0.13181	-0.05289
-0.05531	0.04914
0.27621	0.25320
0.09770	0.30422
0.37822	0.38074
0.27621	0.15117
0.53123	0.32972
0.40372	0.17668
-0.74385	-0.10391
-0.59084	-0.05289
-0.18282	0.02363
0.37822	0.04914
0.63323	0.04914
0.53123	0.25320
0.48022	0.30422
0.60773	0.48277
0.27621	0.17668
0.19971	0.10015
-0.00431	0.20219
0.02119	0.15117
-0.18282	0.15117
-0.13181	0.20219
-0.33583	-0.10391
0.25071	-0.07840
0.12320	-0.00188
0.35272	0.15117
0.27621	0.17668
0.07220	0.27871
-0.08081	0.30422
-0.25932	0.07465
-0.02981	-0.07840
0.14870	-0.05289
0.40372	0.30422
0.42922	0.38074
0.63323	0.38074
0.53123	0.27871
-0.53984	0.15117
-0.31033	0.15117
-0.08081	-0.15492
0.63323	0.04914
0.73524	0.22769
0.58223	0.25320
-0.25932	-0.05289
-0.23382	0.07465
0.07220	0.35523
0.09770	0.20219
0.22521	0.17668
-0.10631	0.20219
-0.20832	0.10015
-0.05531	-0.05289
0.19971	0.04914
0.27621	0.15117
0.53123	0.25320
0.53123	0.27871
0.63323	0.32972
0.53123	0.17668
-0.10631	-0.10391
-0.56534	-0.07840
-0.33583	0.12566
-0.10631	0.25320
0.25071	0.22769
0.12320	0.27871
0.27621	0.32972
0.27621	0.07465
0.48022	0.12566
0.40372	0.15117
0.25071	0.25320
-0.02981	0.07465
-0.38683	-0.05289
0.02119	0.04914
0.02119	0.07465
0.32721	0.17668
0.25071	0.22769
0.02119	0.04914
0.32721	0.25320
0.53123	0.32972
0.09770	0.17668
0.07220	0.20219
-0.08081	0.02363
0.04670	0.15117
0.27621	0.17668
0.17421	-0.00188
-0.00431	0.10015
0.12320	0.17668
0.09770	0.04914
0.09770	0.02363
-0.05531	0.10015
0.22521	0.27871
0.17421	0.50828
-0.02981	0.38074
0.17421	0.22769
0.14870	-0.07840
0.14870	-0.07840
0.22521	0.04914
0.17421	0.30422
0.81175	0.07465
0.53123	0.17668
0.27621	0.20219
-0.41233	0.27871
-0.64185	0.10015
-0.18282	-0.35899
0.22521	0.20219
0.81175	0.38074
0.42922	0.27871
0.02119	0.40625
-0.20832	0.35523
-0.18282	0.04914
0.63323	0.17668
0.30171	-0.10391
0.19971	0.04914
-0.05531	0.10015
-0.33583	0.10015
0.14870	0.20219
0.42922	0.20219
0.60773	0.30422
0.09770	0.30422
-0.18282	0.04914
-0.02981	0.07465
-0.08081	0.02363
0.07220	0.04914
0.07220	0.12566
0.22521	-0.28246
0.14870	0.32972
0.17421	0.20219
0.37822	0.20219
0.30171	0.45726
0.02119	0.22769
-0.02981	0.15117
-0.13181	0.15117
-0.00431	-0.02739
0.17421	0.04914
0.04670	0.07465
0.17421	0.22769
0.17421	0.35523
0.35272	0.35523
0.48022	0.17668
0.35272	0.04914
0.12320	0.10015
-0.23382	-0.05289
-0.20832	0.07465
-0.15732	0.02363
0.17421	0.22769
0.17421	0.10015
0.30171	0.25320
0.25071	0.10015
0.19971	0.15117
0.22521	0.17668
0.09770	0.02363
0.14870	0.20219
-0.05531	0.10015
0.12320	0.15117
0.02119	0.20219
0.14870	0.15117
0.22521	0.10015
0.32721	0.10015
0.60773	0.35523
0.25071	0.20219
0.09770	0.15117
-0.33583	-0.05289
-0.05531	0.02363
0.04670	0.12566
-0.25932	0.20219
0.50573	0.48277
0.58223	0.15117
0.25071	0.12566
0.17421	0.43176
0.12320	0.22769
-0.10631	-0.12942
-0.18282	-0.15492
-0.10631	0.20219
0.17421	0.35523
0.30171	0.38074
0.30171	0.15117
0.40372	0.12566
0.32721	0.04914
0.32721	0.10015
0.14870	0.12566
-0.02981	0.02363
-0.59084	-0.05289
-0.08081	0.02363
0.45472	0.15117
-0.10631	0.27871
-0.08081	0.25320
0.42922	0.35523
0.58223	0.25320
0.78624	0.20219
0.70974	0.20219
-0.05531	-0.05289
-0.23382	0.04914
-0.20832	-0.00188
-0.38683	-0.15492
-0.31033	0.32972
-0.97337	0.22769
0.12320	0.15117
0.78624	0.35523
1.32178	0.02363
1.04126	0.27871
0.12320	0.27871
-0.13181	0.10015
-0.18282	-0.58856
0.04670	-0.05289
0.14870	0.32972
0.22521	0.32972
0.17421	0.15117
-0.23382	0.10015
0.48022	0.35523
0.93925	0.32972
-0.02981	-0.15492
-1.02437	-0.07840
-0.51434	0.15117
-0.02981	0.15117
0.32721	0.25320
0.22521	-0.35899
0.42922	0.30422
0.88825	0.25320
0.53123	0.15117
-0.84586	0.30422
0.27621	-0.15492
0.48022	0.12566
-0.64185	0.32972
0.02119	-0.02739
1.50029	0.48277
1.34728	0.15117
-0.05531	0.22769
-1.10088	0.17668
-0.59084	0.32972
0.65874	0.27871
0.58223	0.43176
0.22521	-0.15492
-0.02981	-0.12942
-0.28482	-0.10391
0.45472	0.17668
0.32721	0.12566
-0.66735	0.17668
0.12320	0.25320
0.40372	0.22769
1.14327	-0.15492
0.45472	-0.12942
-0.74385	0.30422
0.58223	0.15117
0.60773	0.25320
0.65874	0.43176
-1.22839	0.27871
-0.71835	-0.41000
-0.61635	-0.05289
1.24527	0.45726
1.95932	0.91640
1.88281	0.45726
1.50029	-0.05289
-2.17195	-0.18043
-4.90062	-1.40480
-0.66735	-0.41000
2.18883	-0.18043
1.93382	0.48277
0.78624	0.68683
0.22521	0.81437
0.02119	1.19699
0.88825	0.55929
0.63323	-0.86914
-2.12094	-0.38449
-0.10631	0.53379
0.91375	0.66132
0.91375	-0.46102
1.67880	-0.86914
2.08683	1.06945
-1.45790	-0.66508
-5.81868	0.68683
-1.17738	0.35523
1.75531	-0.56305
0.76074	0.35523
1.85731	0.53379
1.09226	0.07465
-2.57997	0.10015
0.99026	0.10015
-0.46334	-0.69059
1.57679	0.35523
1.98482	1.01843
0.83725	-0.33348
-1.07538	-0.07840
-2.04444	0.48277
-1.45790	0.68683
-0.08081	0.66132
2.03582	-0.76711
-0.00431	0.68683
1.62780	-0.15492
2.26534	-0.69059
-0.59084	-0.33348
-1.48340	-1.07320
-1.58541	-0.15492
0.91375	0.76336
1.29628	1.22250
-1.17738	0.76336
-1.10088	0.45726
-0.69285	0.61031
-0.38683	-0.43551
2.77537	0.35523
2.97938	0.17668
0.14870	0.27871
-1.25389	-0.69059
-0.48884	-0.56305
0.04670	-0.38449
-0.33583	-0.18043
0.35272	0.71234
1.88281	0.76336
1.24527	0.76336
1.24527	0.15117
-1.15188	0.43176
-3.54903	0.30422
0.93925	-0.97117
1.47479	-0.41000
-0.33583	-0.56305
-1.25389	0.81437
1.85731	-0.20594
-0.61635	0.15117
-1.76392	0.02363
-1.04987	0.15117
1.37278	0.17668
2.11233	-0.23145
0.30171	0.73785
-0.94787	0.58480
1.24527	0.04914
2.72437	0.04914
0.17421	-0.05289
-4.87512	0.30422
1.65330	0.73785
2.34184	1.37554
2.67337	-1.17523
-0.89686	-0.25695
-2.06994	-0.28246
-0.56534	-0.56305
-0.71835	0.35523
-1.25389	0.55929
1.57679	0.30422
-0.33583	0.22769
-0.10631	0.71234
1.55129	1.01843
1.50029	0.78886
1.24527	0.12566
-0.08081	-0.02739
-0.13181	-0.05289
0.73524	-0.79262
0.81175	-0.94566
-1.45790	-0.25695
-6.15020	-0.07840
-1.53441	0.32972
3.51492	0.12566
2.97938	0.22769
-0.94787	0.68683
-0.82036	0.58480
0.50573	0.63582
0.86275	-0.46102
2.06133	-0.18043
0.81175	0.43176
-0.64185	0.04914
-1.45790	0.45726
0.19971	0.32972
0.68424	0.20219
0.17421	0.27871
-0.02981	-0.46102
1.01576	-0.35899
-0.23382	-0.66508
-3.11551	0.10015
-2.55447	0.43176
1.11776	0.58480
2.52035	0.81437
1.88281	0.30422
1.14327	-0.12942
2.26534	0.17668
1.80631	0.68683
-3.85505	0.81437
-2.83499	0.38074
0.88825	0.45726
0.37822	0.30422
-0.08081	-0.97117
-0.48884	-0.02739
2.11233	-0.02739
-0.69285	0.17668
-1.61091	-0.23145
1.75531	-0.12942
0.83725	0.02363
0.42922	0.53379
2.06133	0.43176
1.34728	0.48277
-1.17738	-0.30797
-4.97713	0.25320
0.30171	0.22769
1.93382	0.38074
0.45472	0.20219
1.14327	0.02363
2.11233	0.78886
1.65330	-0.30797
-5.92069	-0.35899
-1.68742	-0.81812
0.40372	-0.07840
1.75531	0.71234
2.67337	0.96742
1.60230	0.99292
-1.27939	0.10015
0.07220	-0.35899
-0.41233	-0.56305
0.63323	-0.25695
1.27078	0.89089
-0.71835	0.30422
0.12320	-0.02739
-0.92237	-0.12942
-2.42696	-0.25695
-0.76936	-0.23145
1.75531	-0.10391
2.67337	0.38074
2.31634	0.50828
-0.13181	0.81437
-2.14644	-0.25695
-2.35046	1.12046
1.75531	-0.79262
0.42922	0.04914
-0.20832	0.55929
2.16333	0.12566
1.93382	-0.05289
-2.01894	-0.10391
-0.99887	-0.61406
0.19971	-0.51203
-0.33583	0.12566
2.97938	1.45206
-0.76936	-0.10391
-2.63097	-0.02739
1.67880	0.91640
-0.59084	0.43176
-0.71835	0.55929
-0.74385	-1.48133
0.37822	-0.38449
2.26534	0.86539
1.37278	0.91640
0.04670	0.32972
1.09226	-0.10391
-0.38683	-0.07840
1.52579	0.71234
0.12320	-0.66508
-1.55991	-0.53754
0.96476	0.61031
1.14327	0.48277
-3.52353	0.20219
-2.57997	0.35523
-0.48884	-0.00188
-0.89686	0.48277
2.03582	-0.00188
3.00489	0.22769
3.25990	0.89089
1.01576	-0.81812
-1.50890	-0.69059
-0.84586	-0.28246
0.83725	0.27871
-1.40690	1.12046
-1.12638	1.01843
-0.20832	-0.69059
0.93925	0.45726
1.39828	-0.23145
2.52035	0.61031
0.68424	0.63582
-3.44703	0.25320
-1.86593	-0.05289
1.21977	0.02363
-0.71835	0.53379
-1.33039	-0.81812
1.95932	-0.07840
1.85731	0.30422
0.96476	0.20219
1.98482	0.50828
-1.27939	-0.07840
-1.89143	-0.02739
-0.20832	-0.20594
1.50029	0.04914
0.19971	0.35523
-1.07538	0.17668
-1.63641	0.25320
0.60773	1.04394
4.15246	0.76336
-0.48884	-0.18043
-1.15188	-0.30797
1.72980	0.15117
-2.57997	-0.89465
1.60230	0.32972
0.22521	0.04914
-0.28482	0.43176
1.72980	0.20219
0.35272	0.53379
0.35272	-0.02739
-0.38683	-0.58856
-0.64185	0.20219
-0.33583	0.32972
1.93382	0.71234
0.25071	-0.38449
0.22521	-0.46102
-2.47797	0.30422
-1.96793	-0.53754
2.54586	0.81437
1.83181	0.86539
0.58223	0.66132
0.04670	0.32972
-0.36133	-0.63957
0.86275	1.04394
0.40372	0.02363
0.60773	-0.58856
0.78624	0.04914
-2.22295	-0.10391
-0.23382	-0.05289
-0.46334	0.22769
0.32721	0.66132
1.75531	0.66132
0.78624	0.32972
0.50573	0.40625
-0.38683	-0.20594
-0.23382	0.32972
2.08683	0.30422
0.17421	-0.10391
-4.16107	-0.41000
-1.89143	-0.28246
2.06133	-0.00188
1.80631	-0.18043
0.17421	0.43176
0.73524	0.71234
1.14327	1.27351
-0.13181	-0.15492
0.12320	-0.10391
0.50573	0.20219
-0.94787	0.02363
1.11776	0.12566
-0.00431	-0.76711
-4.08457	0.58480
-1.91693	-0.05289
2.26534	0.53379
2.06133	0.20219
2.34184	0.66132
-0.59084	0.07465
-2.55447	-0.15492
2.34184	-0.07840
0.60773	0.04914
1.19427	0.20219
-0.74385	-0.02739
-1.61091	0.15117
-1.30489	-0.12942
0.50573	-0.18043
1.44929	0.55929
0.48022	-0.00188
0.50573	0.20219
1.44929	0.25320
0.30171	0.22769
-1.02437	0.04914
-0.82036	-0.00188
-0.46334	0.45726
-1.07538	0.71234
-0.08081	-0.63957
1.04126	0.35523
0.22521	0.40625
0.30171	0.02363
0.50573	0.12566
1.67880	-0.05289
0.37822	0.07465
-1.20288	-0.46102
-0.89686	0.45726
1.85731	0.04914
2.44385	0.91640
-1.45790	0.27871
-2.14644	-0.38449
-0.92237	-0.66508
-0.53984	-0.71609
0.37822	0.71234
2.36734	1.22250
2.62236	1.24800
1.93382	0.58480
-0.25932	-0.05289
-1.50890	-0.07840
2.39285	-0.48652
1.04126	0.22769
-8.29234	-0.23145
-0.82036	0.04914
1.52579	0.10015
3.28540	0.10015
1.19427	0.27871
1.19427	0.02363
-0.31033	0.15117
0.02119	0.45726
1.83181	-0.05289
-1.50890	0.35523
1.88281	0.38074
-2.06994	0.27871
-1.96793	0.07465
-0.33583	0.02363
0.81175	-0.18043
1.57679	-0.43551
0.83725	0.02363
0.76074	0.43176
-1.20288	0.45726
-0.82036	-0.15492
0.91375	-0.74160
0.12320	0.20219
-0.28482	0.50828
2.13783	0.22769
0.83725	0.32972
-3.21751	0.86539
-0.82036	0.63582
2.49485	0.02363
1.04126	0.04914
-1.58541	-0.69059
-0.99887	-0.05289
2.36734	0.35523
2.97938	0.15117
-2.01894	0.53379
-1.04987	0.10015
1.06676	0.04914
-0.59084	0.22769
-0.18282	0.04914
1.67880	-0.38449
1.52579	0.50828
-1.84042	0.17668
-0.66735	0.20219
0.91375	0.50828
0.48022	-0.00188
0.07220	0.02363
0.19971	0.17668
0.63323	0.15117
0.27621	-0.30797
-0.00431	0.04914
-2.52897	0.30422
-1.15188	-0.28246
1.85731	0.66132
3.23440	0.07465
-0.51434	0.32972
-1.99343	0.50828
-0.02981	0.04914
1.11776	0.27871
-0.89686	-0.05289
0.76074	0.15117
1.09226	-0.10391
1.78081	-0.43551
-0.36133	-0.23145
2.31634	-0.53754
1.27078	0.48277
-3.16651	0.35523
-2.86049	0.40625
-0.66735	0.30422
-0.00431	0.38074
1.06676	0.38074
1.85731	0.27871
-1.30489	-0.28246
0.12320	0.30422
2.49485	0.25320
-1.43240	0.35523
-3.72755	-0.20594
-0.20832	-0.18043
1.75531	0.07465
2.52035	-0.05289
1.39828	0.17668
-0.02981	0.78886
-0.92237	0.15117
0.99026	1.32453
0.17421	0.27871
1.14327	0.30422
-0.28482	0.25320
-1.48340	0.25320
-0.59084	0.40625
0.45472	-0.66508
0.83725	0.22769
-0.74385	-0.20594
-2.78398	-0.00188
-0.64185	-0.07840
1.42379	-0.00188
1.06676	0.25320
1.52579	-0.25695
0.93925	0.86539
0.65874	0.35523
0.22521	0.22769
-1.94243	0.12566
-0.02981	-0.05289
1.44929	-0.20594
0.68424	0.32972
0.55673	0.43176
0.07220	0.35523
0.58223	0.17668
-1.53441	0.35523
-2.60547	-0.28246
0.04670	-0.23145
-0.28482	0.07465
0.93925	0.15117
3.13239	-0.00188
-0.79486	-0.00188
-1.55991	0.40625
-0.56534	0.15117
1.37278	0.45726
0.73524	0.45726
1.55129	-0.46102
1.72980	0.32972
-0.38683	0.02363
-0.28482	-0.02739
0.40372	0.86539
-1.58541	0.30422
-1.50890	0.63582
-0.15732	-0.28246
-0.28482	-0.25695
0.63323	-0.46102
0.58223	0.40625
1.29628	-0.12942
0.58223	0.96742
0.12320	0.25320
-0.20832	0.38074
-1.89143	0.02363
0.58223	0.10015
1.14327	0.25320
0.91375	0.35523
0.42922	0.35523
-0.05531	0.30422
0.73524	-0.43551
-0.66735	0.27871
-0.48884	-0.48652
0.76074	-0.20594
0.14870	0.40625
-0.10631	0.63582
-0.02981	0.07465
0.09770	1.29902
-0.28482	0.07465
0.04670	-0.28246
0.50573	-0.10391
-1.10088	-0.10391
-0.51434	0.12566
0.96476	0.32972
1.34728	0.55929
0.25071	-0.43551
0.93925	0.38074
1.09226	-0.02739
0.40372	0.15117
-0.51434	0.15117
-0.15732	-0.61406
0.81175	0.58480
0.12320	-0.00188
0.68424	-0.56305
-1.61091	0.15117
-1.73842	0.96742
-0.59084	0.89089
2.23984	-0.46102
-0.10631	-0.76711
-0.15732	-0.18043
1.01576	0.38074
0.86275	0.66132
-1.27939	0.86539
-1.04987	0.10015
-2.65648	0.32972
0.76074	-0.46102
2.26534	0.07465
1.75531	0.04914
0.73524	0.15117
1.32178	0.10015
1.42379	0.30422
-1.73842	-0.30797
0.19971	0.04914
0.32721	0.10015
-1.81492	0.83988
0.93925	0.68683
0.68424	0.17668
0.04670	0.12566
0.70974	-0.00188
-2.24845	-0.48652
-2.65648	0.15117
1.11776	0.07465
1.42379	0.07465
-0.82036	0.04914
0.60773	-0.20594
0.65874	-0.02739
0.60773	0.22769
1.52579	1.40105
0.32721	0.17668
0.53123	-0.43551
0.76074	-0.23145
0.76074	0.10015
-1.55991	-0.28246
-0.05531	0.96742
1.34728	0.38074
-0.20832	0.38074
-1.78942	0.04914
-1.12638	-0.51203
1.50029	0.04914
-1.20288	0.20219
-1.61091	-0.56305
1.01576	0.71234
1.55129	0.22769
1.98482	-0.30797
1.93382	-0.20594
0.30171	0.83988
-0.89686	0.48277
-0.48884	0.07465
0.50573	0.10015
3.74443	-0.18043
-2.19745	-0.56305
-4.00806	-0.25695
-0.97337	0.20219
-0.56534	0.55929
2.46935	0.32972
2.64786	0.10015
1.29628	-0.00188
-1.12638	-0.58856
-0.59084	0.63582
-0.18282	-0.00188
0.48022	0.61031
1.78081	0.43176
0.48022	0.40625
-1.58541	0.35523
-1.96793	-0.02739
1.14327	0.25320
1.75531	0.04914
1.65330	-0.15492
-0.18282	0.07465
-0.38683	-0.20594
0.60773	-0.46102
-0.13181	-0.00188
-1.45790	0.30422
-1.17738	0.53379
2.23984	0.10015
0.88825	0.02363
-1.76392	0.20219
-1.96793	-0.00188
-0.59084	-0.33348
2.67337	0.38074
0.93925	0.58480
-0.31033	0.22769
-0.00431	0.40625
0.65874	-0.02739
0.42922	0.45726
1.11776	-0.10391
1.29628	0.32972
-0.48884	0.02363
0.30171	-0.61406
1.83181	0.63582
-0.38683	0.12566
-2.86049	0.02363
0.70974	-0.05289
0.22521	-0.25695
0.25071	0.27871
0.73524	0.35523
-1.22839	-0.02739
-1.61091	-0.51203
0.78624	0.55929
1.85731	-0.00188
0.60773	0.83988
-1.61091	0.55929
-1.68742	0.35523
2.21434	-0.18043
1.44929	-0.10391
1.65330	0.20219
1.57679	0.02363
0.17421	0.20219
-2.73298	0.61031
-0.43783	-0.07840
-1.38139	0.07465
0.78624	0.20219
0.68424	-0.10391
2.46935	0.10015
-0.25932	-0.25695
-2.04444	0.22769
0.53123	0.32972
0.48022	0.45726
-0.69285	0.12566
-0.08081	-0.12942
1.52579	0.04914
-1.81492	-0.05289
1.14327	0.22769
-0.79486	-0.28246
0.68424	0.45726
0.88825	-0.53754
0.42922	0.55929
0.55673	0.35523
-0.05531	0.61031
-0.71835	0.35523
-0.25932	0.02363
1.78081	0.43176
1.37278	0.38074
-3.60004	-0.61406
-0.31033	0.07465
1.01576	0.12566
0.02119	-0.74160
0.04670	0.27871
0.42922	0.25320
1.62780	0.45726
0.63323	-0.41000
1.65330	0.48277
-0.23382	-0.07840
-2.75848	0.35523
-0.13181	0.10015
0.81175	0.25320
1.37278	0.35523
1.09226	0.45726
0.30171	0.04914
-2.14644	-0.30797
-1.81492	-0.43551
0.37822	-0.00188
0.55673	-0.69059
1.62780	1.27351
1.55129	0.58480
0.32721	0.61031
0.76074	0.04914
0.70974	-0.46102
-0.84586	-0.18043
-2.50347	-0.20594
-0.97337	0.22769
-0.02981	0.27871
1.55129	0.27871
1.39828	0.27871
0.99026	0.27871
1.34728	0.35523
-0.46334	-0.25695
-2.17195	0.38074
0.12320	0.38074
2.08683	0.81437
1.47479	-0.51203
-4.36509	0.20219
-1.68742	-0.18043
2.41835	-1.12422
2.18883	0.48277
1.37278	-0.05289
1.01576	-0.00188
-0.79486	0.04914
-0.15732	-0.69059
-1.78942	-0.12942
-1.35589	0.86539
0.45472	1.04394
-0.51434	-0.20594
-0.79486	0.66132
1.78081	0.71234
1.34728	0.35523
-0.18282	-0.25695
1.32178	0.40625
1.19427	0.50828
-1.25389	-0.07840
-1.15188	-0.07840
0.17421	-0.25695
1.24527	-0.00188
1.11776	-0.12942
-0.33583	-0.30797
-1.30489	0.07465
0.45472	-0.23145
0.12320	0.17668
0.73524	0.55929
0.45472	0.63582
0.58223	-0.07840
-0.46334	0.32972
-0.05531	0.15117
1.83181	0.53379
-0.69285	0.78886
-4.05907	-0.10391
1.44929	0.38074
-0.76936	-0.28246
1.57679	-0.20594
1.24527	-0.18043
0.91375	0.53379
1.39828	0.71234
0.09770	0.55929
1.29628	0.30422
-0.48884	-0.58856
-0.87136	0.04914
-0.53984	-0.48652
0.50573	0.25320
0.09770	0.10015
-0.36133	-0.12942
0.96476	-0.05289
0.91375	0.43176
0.37822	0.07465
-1.33039	0.68683
-3.34502	0.22769
0.70974	0.17668
2.18883	0.43176
1.90832	0.12566
0.73524	0.02363
-1.50890	-0.05289
-0.71835	-0.33348
1.72980	-0.12942
1.14327	0.48277
-0.48884	-0.05289
-1.12638	0.02363
0.93925	0.27871
0.60773	0.38074
0.81175	0.07465
0.65874	0.30422
-2.19745	0.61031
-1.35589	-0.10391
0.40372	0.25320
0.58223	-0.41000
1.01576	0.07465
1.01576	-0.30797
-0.69285	-0.05289
-0.48884	0.30422
0.53123	0.25320
0.19971	0.68683
0.12320	0.45726
0.02119	0.32972
0.96476	1.27351
0.53123	-0.89465
0.78624	-0.46102
0.40372	0.07465
-1.30489	-0.69059
-0.84586	0.40625
0.91375	0.04914
0.19971	0.20219
-1.12638	0.50828
0.91375	0.35523
-0.08081	0.35523
0.27621	0.32972
0.65874	0.04914
-0.00431	-0.10391
0.35272	-0.12942
-0.18282	0.07465
-0.38683	-0.12942
0.14870	0.22769
-1.50890	0.17668
0.42922	0.07465
0.37822	-0.28246
0.55673	0.25320
1.57679	0.40625
1.29628	-0.18043
-0.87136	0.50828
-1.02437	0.58480
-1.02437	0.27871
-0.31033	-0.30797
0.83725	0.22769
1.34728	0.35523
1.21977	0.30422
0.58223	0.25320
-0.28482	0.15117
-0.38683	0.12566
-0.20832	-0.33348
-0.05531	0.15117
1.01576	0.71234
1.37278	0.40625
-1.40690	-0.58856
-2.32496	-0.48652
0.12320	0.20219
-0.59084	0.30422
0.81175	-0.38449
0.60773	1.04394
0.91375	0.94191
0.99026	0.35523
0.86275	0.20219
1.01576	-0.23145
-0.18282	0.02363
-2.12094	0.32972
0.22521	0.02363
1.95932	0.22769
0.04670	0.43176
-0.69285	-0.02739
-0.84586	-0.12942
-0.00431	-0.23145
1.78081	-0.15492
0.17421	0.25320
-1.48340	-0.25695
-0.71835	0.27871
0.48022	0.58480
0.37822	0.30422
-0.15732	0.50828
0.48022	-0.28246
0.86275	0.15117
0.70974	0.04914
0.32721	0.20219
0.04670	0.10015
-0.28482	0.04914
-0.13181	0.25320
-0.05531	0.43176
0.02119	-1.12422
0.30171	0.63582
0.55673	0.71234
0.48022	0.53379
1.06676	-0.23145
1.09226	0.25320
-1.66191	0.22769
-3.31952	0.12566
-1.10088	0.04914
0.50573	-0.15492
2.57136	-0.46102
2.13783	0.12566
0.02119	-0.00188
-0.82036	0.38074
0.19971	0.45726
1.75531	0.48277
-0.18282	0.35523
-0.43783	0.20219
-0.79486	0.27871
0.93925	0.02363
-0.31033	-0.07840
-1.02437	0.04914
0.70974	0.04914
-0.56534	-0.28246
-0.79486	0.22769
0.35272	0.53379
0.30171	-0.23145
0.07220	0.43176
1.19427	0.50828
1.44929	0.53379
0.63323	0.50828
-0.20832	-0.86914
-0.48884	-0.28246
-0.05531	0.25320
-0.08081	0.02363
-0.36133	0.73785
-0.00431	0.40625
0.58223	0.50828
0.48022	0.17668
-0.76936	-0.69059
-0.92237	0.07465
1.09226	-0.07840
2.41835	0.63582
-2.52897	0.27871
-0.48884	-0.02739
1.32178	0.35523
-0.36133	0.63582
0.27621	-0.92016
-0.48884	-1.12422
-0.08081	0.50828
1.75531	0.68683
-0.89686	0.78886
-1.71292	0.50828
1.42379	0.25320
3.48942	0.58480
0.22521	0.32972
-1.15188	-0.02739
-0.97337	0.02363
-0.69285	-0.15492
0.55673	-0.05289
-0.00431	0.10015
-0.10631	0.07465
0.58223	0.35523
0.73524	0.10015
0.32721	-0.46102
-0.43783	0.35523
0.60773	-0.02739
-0.48884	0.12566
-0.02981	0.32972
0.58223	0.45726
-0.48884	0.76336
-0.64185	0.10015
0.65874	-0.28246
0.99026	0.35523
-0.38683	0.27871
0.48022	0.32972
1.29628	0.55929
0.27621	-1.37929
-0.99887	0.61031
-0.13181	-0.61406
-0.97337	-0.02739
0.19971	0.07465
0.22521	0.35523
1.27078	0.45726
0.88825	0.35523
1.42379	-0.00188
-0.25932	0.32972
-1.55991	0.43176
-0.13181	0.55929
1.83181	-0.07840
-0.46334	-0.35899
-0.92237	-0.20594
0.88825	0.02363
-0.15732	0.22769
-2.06994	-0.00188
1.75531	0.50828
0.42922	0.38074
-0.48884	0.27871
-0.41233	-0.23145
0.88825	0.38074
0.99026	-0.25695
-0.61635	0.50828
0.65874	0.38074
0.55673	-0.07840
0.04670	0.32972
0.68424	0.12566
-0.51434	-0.66508
-0.61635	-0.02739
-0.31033	0.22769
-0.51434	0.76336
0.12320	0.25320
0.42922	-0.02739
0.76074	0.15117
0.37822	0.30422
1.11776	0.53379
1.44929	-0.10391
-0.64185	-0.15492
-0.92237	-0.00188
-0.79486	0.02363
-0.69285	0.15117
-0.20832	-0.00188
0.19971	0.02363
1.52579	0.15117
0.83725	0.66132
0.30171	-0.00188
1.75531	0.48277
-1.48340	0.07465
-1.81492	-0.12942
-0.08081	0.04914
0.83725	0.32972
1.29628	0.12566
0.27621	0.55929
-0.00431	0.07465
0.19971	0.15117
0.07220	-0.48652
0.58223	-0.15492
0.63323	-0.10391
-0.15732	0.32972
-0.46334	0.25320
-0.59084	0.32972
-0.28482	0.25320
0.93925	0.50828
0.68424	0.32972
-0.82036	0.12566
0.68424	0.10015
-0.53984	0.04914
-0.94787	-0.18043
1.14327	-0.10391
1.14327	0.04914
-0.59084	0.07465
-0.02981	0.50828
1.67880	0.15117
1.75531	0.83988
-1.68742	0.02363
-2.01894	-0.18043
0.48022	-0.07840
1.52579	0.48277
0.68424	-0.23145
0.35272	0.30422
0.07220	-0.07840
-1.12638	0.38074
-0.02981	-0.07840
-0.38683	0.10015
0.35272	0.27871
0.65874	0.48277
0.12320	0.50828
1.39828	-0.38449
0.45472	0.17668
-0.56534	-0.38449
0.07220	0.53379
-0.05531	0.38074
0.14870	0.27871
-0.08081	-0.43551
0.42922	-0.10391
-1.43240	0.15117
0.30171	0.50828
0.17421	0.04914
0.12320	0.32972
0.40372	0.07465
1.01576	0.22769
1.04126	0.02363
0.53123	-0.25695
-2.47797	0.32972
-1.84042	0.32972
1.55129	-0.00188
1.65330	0.55929
0.70974	0.43176
0.73524	0.04914
0.02119	-0.20594
0.83725	0.02363
-0.18282	-0.05289
-0.99887	0.48277
-1.73842	0.12566
-0.74385	-0.41000
0.83725	0.55929
0.68424	-0.30797
0.42922	0.12566
0.58223	0.50828
0.35272	0.27871
0.70974	-0.00188
-0.20832	0.43176
-1.61091	-0.51203
0.50573	-0.18043
2.13783	0.83988
1.50029	0.48277
-1.66191	0.12566
-0.76936	-0.02739
0.35272	-0.46102
0.76074	0.38074
0.53123	-0.15492
-0.08081	0.25320
-2.75848	-0.05289
-0.71835	0.12566
1.55129	0.76336
2.72437	0.38074
-0.28482	-0.05289
-1.07538	-0.15492
-0.23382	0.12566
0.53123	0.20219
0.83725	-0.10391
0.83725	-0.05289
-0.33583	0.32972
-0.59084	0.32972
0.09770	0.38074
-0.18282	0.35523
-1.17738	-0.35899
0.60773	0.04914
0.60773	0.40625
0.83725	0.07465
0.50573	-0.46102
-0.13181	0.12566
-0.43783	0.61031
1.34728	0.58480
0.78624	0.55929
0.65874	0.45726
-0.28482	-0.25695
-0.76936	-0.15492
0.42922	0.10015
0.02119	-0.35899
-1.58541	-0.12942
-1.10088	-0.10391
0.68424	0.68683
0.73524	0.43176
0.96476	0.45726
1.70430	0.15117
0.55673	-0.46102
0.32721	0.25320
-0.08081	-0.07840
-1.43240	0.10015
0.76074	0.30422
0.22521	0.43176
-1.71292	0.86539
0.25071	-0.30797
0.27621	0.45726
0.40372	0.25320
0.50573	-0.30797
0.40372	-0.18043
-0.05531	-0.10391
0.32721	-0.23145
-0.05531	0.50828
0.83725	0.25320
0.83725	0.66132
-1.50890	-0.35899
1.34728	0.20219
0.12320	-0.10391
1.27078	0.73785
0.73524	-0.05289
-0.84586	0.07465
-0.99887	-0.66508
0.09770	-0.05289
0.04670	0.07465
0.50573	0.50828
0.93925	0.35523
0.48022	-0.28246
-0.08081	0.04914
0.12320	-0.23145
-0.61635	0.15117
-1.53441	0.55929
0.27621	0.55929
1.14327	0.22769
0.50573	0.20219
0.86275	-0.07840
2.21434	0.25320
-1.91693	0.32972
-2.60547	0.61031
0.78624	0.27871
1.24527	0.66132
1.01576	-0.86914
0.45472	-0.00188
0.14870	-0.02739
0.35272	0.04914
0.19971	0.32972
-0.74385	0.02363
0.07220	0.10015
-0.08081	-0.56305
0.32721	1.09496
0.22521	-0.46102
0.25071	0.76336
-0.02981	0.10015
0.37822	0.35523
-0.00431	-0.02739
0.32721	0.10015
0.53123	0.20219
0.81175	0.76336
-0.00431	0.35523
-0.87136	0.25320
1.04126	-0.12942
0.19971	-0.74160
-1.43240	-0.05289
0.19971	0.17668
0.53123	0.32972
0.17421	-0.25695
2.49485	0.81437
-2.70748	0.04914
-0.89686	0.20219
0.32721	-0.02739
1.11776	0.07465
1.21977	0.27871
0.73524	0.45726
0.48022	0.02363
0.09770	0.15117
-1.66191	0.25320
-0.00431	0.25320
0.65874	0.25320
0.88825	0.02363
0.63323	-0.02739
-0.08081	0.10015
-0.43783	-0.00188
-0.25932	0.07465
-0.08081	0.04914
-0.13181	-0.00188
0.07220	0.38074
-0.05531	0.30422
0.68424	-0.05289
0.81175	0.35523
0.58223	-0.15492
-0.10631	0.40625
-0.20832	0.50828
-0.28482	-0.05289
0.48022	-0.15492
0.91375	0.04914
-0.43783	-0.05289
0.50573	0.15117
-0.71835	0.27871
-0.20832	0.40625
0.25071	-0.48652
0.96476	0.50828
-0.36133	0.17668
-0.38683	0.07465
0.42922	-0.23145
0.40372	-0.23145
0.27621	0.20219
0.63323	0.58480
0.78624	0.35523
0.19971	0.35523
-0.38683	0.38074
-0.00431	0.04914
-0.56534	-0.28246
0.04670	-0.12942
0.12320	-0.28246
1.14327	-0.02739
-1.61091	-0.20594
0.19971	0.20219
0.42922	0.20219
-0.43783	0.38074
0.81175	0.30422
0.40372	0.63582
0.93925	-0.28246
1.32178	0.48277
0.32721	0.17668
-1.17738	0.04914
1.70430	0.43176
0.07220	-0.00188
-1.55991	0.30422
0.76074	0.27871
-0.89686	-0.15492
-0.18282	-0.15492
-0.15732	-0.05289
0.63323	0.15117
0.58223	0.45726
-0.51434	-0.33348
-0.36133	-0.10391
1.65330	0.86539
0.83725	0.04914
-0.56534	0.35523
0.35272	0.04914
-0.51434	0.15117
-0.79486	0.04914
0.07220	0.04914
0.68424	0.66132
0.37822	-0.05289
0.42922	-0.18043
0.70974	0.63582
-0.00431	0.35523
1.32178	0.38074
0.19971	0.02363
-0.13181	0.04914
-0.84586	0.10015
-1.10088	-0.66508
-0.74385	-0.00188
-0.28482	0.35523
0.53123	0.20219
1.21977	0.15117
1.19427	0.12566
0.27621	0.55929
-1.55991	-0.02739
1.16877	-0.10391
0.30171	0.30422
0.25071	0.12566
0.40372	-0.00188
0.25071	0.27871
0.58223	0.40625
0.04670	0.04914
-1.33039	0.40625
0.22521	0.02363
1.27078	0.17668
0.76074	0.48277
-1.48340	-0.35899
-1.84042	-0.25695
0.78624	-0.18043
0.76074	-0.23145
1.72980	0.71234
0.53123	0.30422
-0.84586	0.94191
0.32721	0.07465
0.81175	-0.23145
-0.66735	-0.86914
-1.17738	0.58480
0.22521	0.27871
0.40372	-0.10391
0.04670	-0.15492
1.57679	0.25320
0.83725	0.35523
0.93925	0.76336
-0.10631	-0.15492
-0.71835	0.38074
1.04126	-0.05289
0.07220	-0.81812
-1.68742	0.53379
-0.56534	-0.02739
0.37822	0.35523
0.93925	0.35523
1.29628	0.86539
0.14870	-0.23145
-0.69285	-0.20594
0.48022	0.22769
1.29628	0.04914
0.12320	0.02363
-0.56534	0.12566
-0.82036	0.17668
0.40372	0.04914
0.60773	-0.10391
0.60773	-0.18043
0.14870	0.45726
0.25071	0.45726
-0.79486	0.32972
0.27621	-0.66508
0.19971	0.53379
-0.59084	0.61031
0.19971	0.10015
0.55673	0.27871
0.83725	-0.58856
0.86275	-0.18043
-0.36133	0.86539
-1.07538	0.48277
0.22521	0.58480
1.21977	0.15117
0.19971	-0.18043
0.73524	-0.15492
-0.97337	-0.35899
-1.07538	-0.18043
-0.94787	0.53379
0.17421	0.35523
3.05589	0.15117
-0.53984	0.25320
-0.48884	0.15117
0.76074	0.25320
0.22521	0.15117
-0.02981	-0.10391
0.40372	0.12566
-0.08081	-0.02739
-0.25932	0.04914
0.42922	0.22769
1.72980	-0.35899
-1.27939	0.58480
-3.44703	-0.25695
0.32721	0.02363
1.34728	0.63582
1.37278	0.53379
0.96476	0.32972
0.63323	0.04914
0.68424	-0.07840
0.07220	0.25320
0.02119	0.20219
-0.36133	-0.10391
-0.41233	0.10015
-0.23382	-0.02739
1.06676	0.32972
-0.74385	0.30422
-2.35046	-0.00188
1.14327	-0.43551
1.90832	0.15117
-1.50890	-0.18043
0.91375	0.22769
1.57679	0.55929
0.50573	0.40625
-1.66191	0.10015
0.30171	0.45726
0.53123	0.30422
-0.05531	-0.15492
0.53123	0.17668
-0.59084	0.50828
0.50573	0.17668
-0.46334	0.40625
0.76074	0.40625
1.62780	-0.12942
-1.17738	-0.33348
-1.53441	-0.30797
0.14870	-0.15492
0.96476	0.22769
0.70974	0.25320
1.01576	0.43176
0.81175	0.25320
-0.23382	0.48277
-0.84586	0.20219
-0.02981	0.22769
0.83725	0.32972
-0.66735	-0.05289
-0.13181	-0.02739
0.53123	0.20219
0.73524	0.02363
-1.12638	-0.02739
-0.61635	0.15117
0.55673	0.50828
2.03582	0.15117
-0.38683	-0.02739
-2.22295	0.48277
0.48022	-0.35899
0.96476	0.07465
1.01576	0.12566
1.34728	-0.15492
0.17421	0.76336
-0.79486	1.04394
-0.97337	-0.86914
0.48022	-0.43551
0.02119	-0.12942
0.07220	0.02363
0.81175	0.71234
0.07220	0.35523
-1.61091	0.50828
1.57679	0.30422
0.58223	0.10015
0.42922	-0.15492
-0.18282	0.12566
-0.74385	0.32972
0.25071	0.10015
1.24527	0.38074
0.27621	0.35523
-1.78942	-0.66508
0.12320	0.22769
0.58223	0.12566
1.11776	0.12566
0.60773	0.25320
0.04670	0.30422
1.24527	-0.05289
0.70974	0.02363
-2.12094	0.12566
-1.66191	-0.00188
0.22521	0.25320
0.07220	-0.07840
-0.18282	0.71234
2.06133	0.76336
1.85731	0.43176
0.86275	-0.28246
-1.45790	0.30422
-0.02981	0.32972
1.29628	-0.00188
-0.64185	0.22769
-1.10088	-0.30797
0.83725	0.07465
-0.00431	-0.05289
-1.33039	0.30422
0.83725	0.12566
1.21977	0.12566
0.25071	-0.02739
0.45472	0.04914
0.09770	-0.20594
1.04126	0.22769
-0.02981	0.63582
-2.45246	0.02363
-0.43783	-0.28246
0.55673	0.12566
1.06676	0.53379
0.22521	0.10015
0.14870	0.58480
0.99026	0.48277
1.01576	0.55929
-0.15732	-0.76711
-0.43783	-0.23145
-0.66735	-0.02739
-0.08081	0.17668
0.63323	0.27871
0.96476	0.30422
-0.08081	0.38074
-0.20832	0.12566
0.42922	-0.20594
-0.48884	-0.18043
-1.15188	0.71234
1.62780	-0.10391
0.19971	0.20219
-0.18282	0.45726
0.93925	-0.23145
1.62780	0.40625
0.12320	0.04914
-1.10088	0.25320
0.32721	0.07465
0.12320	0.02363
0.68424	0.02363
0.42922	-0.18043
-0.84586	0.04914
0.19971	0.53379
0.37822	0.30422
-1.12638	-0.00188
-0.97337	0.55929
1.52579	0.02363
0.12320	0.12566
-1.33039	0.27871
0.73524	0.22769
1.14327	-0.07840
0.86275	0.12566
0.60773	-0.20594
0.02119	0.35523
0.73524	0.27871
-0.79486	0.30422
-1.10088	0.02363
-0.02981	-0.12942
0.32721	-0.05289
0.25071	0.10015
0.07220	0.55929
-0.48884	0.04914
0.73524	-0.05289
1.16877	0.38074
1.21977	0.15117
0.37822	0.25320
-0.74385	0.25320
-2.22295	0.22769
0.50573	0.10015
-0.59084	-0.12942
0.50573	-0.18043
0.37822	0.12566
-0.61635	0.50828
-0.48884	0.50828
1.75531	0.35523
1.24527	-0.05289
0.60773	-0.58856
0.40372	0.35523
0.53123	0.25320
-0.38683	0.43176
-0.84586	0.02363
0.19971	0.12566
0.68424	0.32972
0.07220	-0.20594
0.55673	0.61031
0.04670	0.20219
-0.69285	-0.66508
0.27621	0.66132
0.27621	0.27871
-1.17738	-0.12942
-0.33583	-0.41000
0.22521	0.07465
0.58223	0.43176
-0.08081	0.48277
0.76074	0.30422
0.81175	0.22769
1.16877	0.48277
0.70974	0.12566
-0.94787	0.15117
-0.41233	-0.10391
-0.84586	-0.18043
0.25071	-0.35899
-0.25932	0.53379
0.70974	-0.48652
1.14327	0.66132
0.30171	-0.02739
0.25071	0.38074
-0.10631	0.48277
-0.25932	0.32972
0.14870	0.04914
-0.05531	-0.10391
-0.38683	-0.00188
0.09770	-0.20594
0.53123	0.07465
0.86275	-0.00188
0.55673	0.61031
0.04670	0.61031
-0.48884	0.27871
0.07220	0.15117
-0.08081	0.10015
0.22521	-0.30797
0.53123	-0.00188
0.48022	0.48277
0.53123	0.48277
0.25071	-0.33348
-0.41233	0.20219
-0.31033	0.48277
-0.46334	0.61031
0.96476	-0.00188
1.04126	-0.38449
-1.71292	0.04914
-1.17738	-0.12942
1.44929	0.27871
0.27621	0.27871
1.01576	-0.00188
0.70974	0.25320
-0.28482	0.04914
-0.28482	0.61031
0.45472	0.40625
-0.25932	0.20219
0.50573	-0.33348
0.40372	-0.00188
-1.84042	-0.38449
-0.00431	-0.00188
1.39828	0.43176
0.93925	0.68683
-0.48884	0.20219
-0.56534	-0.23145
2.08683	0.17668
0.37822	0.02363
-0.41233	0.15117
-1.20288	0.27871
-0.20832	0.53379
0.78624	0.35523
1.14327	0.27871
0.86275	0.02363
0.25071	-0.00188
-0.13181	0.43176
-0.23382	0.12566
-0.10631	-0.15492
-0.20832	0.15117
0.07220	0.12566
1.37278	0.32972
-0.36133	-0.23145
-0.23382	0.27871
0.02119	0.32972
-0.46334	0.22769
0.09770	0.25320
0.14870	0.12566
0.19971	0.17668
0.58223	0.50828
0.73524	0.15117
-0.13181	-1.04770
0.09770	1.19699
1.14327	0.17668
-0.36133	0.12566
-1.55991	0.20219
1.14327	-0.20594
2.23984	0.25320
0.35272	0.45726
-1.81492	-0.15492
-0.15732	0.63582
0.99026	-0.07840
1.19427	-0.30797
0.78624	0.12566
-0.59084	0.25320
-1.94243	0.38074
-0.79486	0.27871
0.09770	0.12566
0.68424	0.25320
1.72980	0.04914
0.68424	0.12566
-1.02437	-0.33348
0.19971	-0.05289
1.37278	0.04914
0.48022	0.38074
-0.00431	0.25320
-0.76936	0.12566
-0.38683	-0.00188
-1.30489	0.07465
1.19427	0.61031
1.55129	0.35523
0.78624	0.45726
0.07220	0.27871
-1.53441	-0.12942
-0.61635	-0.18043
0.50573	0.43176
0.81175	-0.10391
1.34728	0.17668
-1.33039	-0.00188
0.12320	-0.02739
0.83725	0.22769
0.53123	0.32972
0.19971	-0.66508
0.48022	0.12566
-0.41233	0.40625
-0.02981	0.35523
0.42922	0.55929
0.93925	0.35523
-0.41233	-0.07840
-0.82036	-0.00188
-0.51434	-0.12942
0.58223	0.02363
0.42922	-0.02739
0.81175	0.02363
-0.71835	0.55929
-0.25932	0.20219
0.60773	0.04914
-0.10631	0.04914
0.70974	0.12566
0.60773	0.04914
-0.08081	0.20219
0.25071	-0.10391
0.09770	0.15117
-0.48884	0.76336
-0.33583	0.58480
2.16333	0.02363
0.45472	-0.20594
-2.22295	-0.38449
-0.89686	0.30422
0.83725	0.45726
0.12320	-0.35899
0.68424	0.02363
0.07220	0.07465
0.22521	0.48277
1.80631	0.40625
0.19971	0.25320
-0.82036	0.32972
0.32721	0.43176
0.17421	0.25320
-0.48884	-0.38449
0.32721	0.61031
1.14327	-0.25695
0.37822	0.15117
-1.07538	-0.61406
0.37822	0.04914
-0.48884	0.20219
-0.05531	0.43176
-0.64185	0.30422
-1.89143	0.25320
1.39828	0.15117
1.01576	-0.05289
0.70974	0.12566
0.96476	-0.41000
1.57679	0.32972
0.83725	-0.02739
-0.38683	0.35523
-2.32496	0.71234
-0.59084	-0.05289
1.06676	0.61031
1.24527	0.25320
0.07220	0.45726
-0.94787	-0.15492
-0.59084	-0.15492
1.01576	0.43176
0.42922	0.22769
0.40372	0.10015
1.29628	0.10015
0.09770	-0.02739
-1.10088	0.27871
-0.20832	0.04914
-0.61635	-0.10391
0.48022	0.32972
0.58223	0.25320
-0.08081	0.04914
1.11776	0.17668
0.58223	0.55929
-0.51434	0.10015
-0.79486	-0.41000
1.39828	0.38074
1.19427	0.15117
-1.81492	-0.12942
-0.84586	0.50828
-0.02981	0.25320
0.58223	0.17668
0.35272	0.07465
0.60773	-0.15492
0.50573	-0.10391
0.58223	0.63582
0.37822	0.20219
-0.48884	0.17668
-0.69285	-0.05289
0.60773	-0.02739
0.17421	0.02363
-0.48884	0.25320
1.24527	0.40625
-0.08081	0.17668
-0.74385	0.30422
-0.25932	0.02363
1.67880	-0.18043
-0.31033	-0.02739
-1.53441	-0.48652
0.68424	0.63582
1.27078	0.45726
0.93925	0.40625
0.50573	0.12566
0.53123	-0.15492
0.04670	0.27871
-0.08081	0.15117
0.65874	-0.35899
-1.38139	0.32972
-3.47253	-0.15492
0.40372	0.53379
1.44929	0.20219
0.76074	0.30422
1.62780	0.04914
0.60773	0.15117
0.12320	-0.18043
0.07220	0.38074
0.76074	-0.10391
0.09770	0.27871
-0.66735	0.20219
0.09770	0.27871
-0.46334	0.07465
-0.18282	0.04914
1.04126	0.10015
0.60773	0.04914
0.19971	0.55929
-1.07538	0.38074
-1.20288	0.17668
0.22521	-0.20594
0.65874	0.12566
0.65874	-0.23145
1.01576	0.02363
-0.02981	0.22769
-0.20832	0.61031
0.09770	0.35523
0.83725	0.22769
0.07220	-0.41000
-0.84586	-0.41000
0.22521	0.10015
-0.13181	0.43176
-0.02981	0.53379
0.63323	0.35523
0.35272	0.30422
0.65874	0.15117
-0.08081	-0.25695
0.02119	0.04914
0.50573	0.35523
-1.15188	0.27871
-0.10631	0.20219
0.19971	0.12566
0.65874	-0.05289
0.40372	0.04914
0.93925	-0.02739
-0.59084	-0.12942
-0.74385	0.58480
0.53123	0.12566
0.83725	0.32972
-0.08081	0.27871
0.02119	0.12566
0.68424	0.20219
-0.00431	0.10015
0.07220	0.35523
0.50573	0.07465
0.81175	0.78886
-0.13181	0.25320
-0.94787	-0.02739
0.30171	0.35523
0.63323	-0.12942
0.17421	-0.20594
0.42922	0.25320
-1.84042	0.04914
-1.02437	0.15117
0.35272	0.32972
1.37278	0.17668
1.21977	0.04914
-1.12638	0.32972
1.11776	-0.15492
1.60230	0.10015
0.30171	-0.10391
-0.38683	0.43176
0.12320	0.30422
0.32721	0.25320
-0.00431	-0.00188
-0.38683	-0.12942
-0.18282	0.07465
1.16877	-0.07840
-1.27939	-0.07840
-0.20832	0.25320
0.99026	0.30422
0.12320	0.27871
-1.10088	-0.00188
-0.38683	0.20219
1.65330	0.25320
0.68424	-0.66508
0.86275	0.27871
0.58223	0.25320
-0.89686	0.04914
-0.59084	-0.07840
0.02119	0.40625
0.48022	0.50828
0.96476	0.17668
0.50573	0.17668
-0.56534	0.27871
-1.76392	0.15117
0.27621	0.53379
0.58223	-0.63957
0.32721	-0.23145
-0.08081	-0.35899
-0.02981	-0.35899
-0.28482	0.35523
1.39828	0.35523
0.12320	0.91640
0.88825	-0.41000
0.93925	0.48277
0.02119	-0.02739
-0.48884	0.12566
-0.02981	-0.07840
0.12320	-0.12942
-0.46334	0.07465
-0.48884	0.27871
0.17421	0.35523
0.50573	0.58480
-0.18282	0.58480
-0.08081	0.30422
1.32178	0.02363
1.19427	0.22769
-0.69285	-0.20594
-0.89686	-0.20594
-0.94787	-0.35899
0.22521	0.04914
0.68424	-0.07840
0.81175	-0.05289
0.48022	0.17668
-0.97337	-0.02739
0.91375	0.43176
0.53123	0.22769
0.68424	0.55929
0.02119	-0.25695
-0.18282	0.12566
-0.94787	0.25320
-0.69285	-0.02739
0.27621	0.30422
0.63323	0.43176
0.83725	0.53379
0.53123	0.17668
0.30171	-0.12942
0.07220	-0.53754
-0.28482	0.17668
-0.20832	-0.02739
-0.10631	-0.00188
0.65874	0.81437
0.14870	-0.15492
-0.25932	0.25320
0.76074	0.32972
1.34728	0.25320
-1.22839	0.30422
-1.86593	-0.07840
1.42379	0.04914
-0.61635	0.15117
-0.20832	-0.05289
1.01576	-0.00188
1.39828	0.45726
0.76074	0.27871
0.50573	-0.05289
-0.05531	0.58480
-0.69285	0.02363
0.22521	0.04914
-0.18282	0.22769
-1.27939	-0.05289
0.35272	0.25320
1.16877	0.22769
0.42922	0.32972
0.83725	0.17668
-0.71835	0.25320
-0.92237	0.30422
0.73524	0.20219
0.45472	-0.02739
-0.08081	-0.02739
0.91375	0.10015
0.12320	0.17668
-0.92237	0.02363
-0.00431	-0.71609
1.06676	0.61031
0.70974	0.15117
1.95932	0.35523
-0.84586	0.15117
-3.14101	-0.07840
-0.53984	0.20219
1.14327	0.35523
0.78624	0.15117
0.73524	0.15117
0.65874	-0.00188
0.53123	0.17668
1.21977	0.25320
0.22521	0.02363
-1.96793	-0.00188
-0.13181	0.50828
0.14870	0.02363
0.60773	0.25320
0.19971	0.32972
-0.33583	0.12566
0.27621	0.04914
0.22521	0.20219
0.04670	-0.12942
0.27621	-0.12942
0.63323	0.20219
0.35272	0.20219
0.25071	-0.18043
-0.48884	0.22769
-0.71835	-0.00188
-1.10088	0.02363
0.14870	0.91640
1.34728	0.40625
0.81175	-0.28246
0.37822	-0.05289
1.32178	-0.07840
0.19971	0.25320
-2.37596	-0.12942
0.19971	0.40625
0.78624	0.35523
0.37822	0.76336
0.14870	-0.41000
0.45472	0.38074
-0.43783	-0.12942
-0.71835	0.12566
-0.53984	-0.02739
1.06676	0.22769
-0.79486	-0.23145
0.42922	0.40625
1.44929	0.22769
0.86275	0.20219
0.65874	0.43176
0.09770	-0.48652
-0.94787	0.43176
-2.09544	0.27871
1.04126	0.30422
0.73524	0.30422
0.81175	-0.41000
0.35272	0.27871
0.53123	-0.02739
0.14870	0.25320
0.17421	0.25320
0.48022	0.48277
1.29628	0.22769
-0.53984	0.22769
-1.84042	0.07465
-0.69285	-0.00188
-0.31033	0.20219
0.81175	0.02363
1.32178	0.04914
0.12320	-0.63957
0.27621	-0.23145
0.02119	0.10015
0.50573	0.73785
0.53123	0.50828
1.47479	0.55929
-0.20832	0.71234
-1.61091	-0.18043
-0.00431	0.30422
-0.20832	0.02363
-0.76936	-0.66508
0.86275	-0.25695
2.06133	0.04914
0.09770	0.55929
-1.35589	-0.15492
0.70974	0.76336
0.58223	0.53379
-0.00431	-0.48652
-0.71835	0.22769
0.45472	0.12566
0.53123	-0.18043
-0.05531	0.04914
0.68424	0.22769
0.99026	0.12566
-0.08081	0.27871
-0.33583	-0.25695
1.34728	0.20219
0.40372	0.07465
-2.24845	0.30422
-1.15188	0.32972
0.53123	0.22769
0.70974	0.45726
0.17421	-0.25695
0.27621	0.83988
1.09226	0.27871
0.76074	-0.02739
0.17421	0.02363
-0.08081	-0.00188
-0.18282	-0.07840
-0.28482	-0.30797
0.37822	0.35523
-0.25932	-0.58856
-0.33583	1.01843
-0.23382	0.20219
0.53123	0.07465
0.55673	0.43176
0.22521	0.22769
-0.02981	0.04914
0.32721	0.10015
-0.28482	0.10015
-0.48884	-0.15492
0.50573	-0.05289
1.16877	0.48277
1.72980	0.20219
0.73524	0.02363
-3.24301	0.22769
0.02119	0.17668
0.60773	0.27871
-0.94787	0.10015
0.35272	0.15117
1.39828	0.25320
1.04126	0.17668
0.32721	0.07465
-0.13181	0.07465
0.35272	0.25320
-0.43783	-0.00188
-0.99887	-0.00188
-0.41233	-0.18043
0.91375	0.35523
0.37822	0.50828
-0.36133	0.02363
0.55673	0.25320
0.30171	0.10015
0.32721	0.22769
0.14870	-0.10391
-0.99887	0.20219
0.99026	0.20219
0.12320	0.53379
0.32721	0.35523
0.25071	-0.25695
0.53123	0.20219
1.47479	-0.48652
-1.55991	0.40625
-1.91693	-0.05289
1.14327	0.10015
0.76074	0.17668
-0.43783	-0.02739
-0.00431	0.30422
-0.97337	0.35523
0.99026	0.35523
1.14327	0.35523
0.55673	-0.12942
-0.20832	-0.15492
-0.05531	0.15117
-0.08081	-0.05289
1.52579	-0.02739
-0.00431	0.02363
-2.32496	0.35523
-0.20832	-0.00188
1.80631	0.55929
1.37278	0.35523
-0.61635	0.04914
-0.28482	-0.07840
0.17421	0.30422
0.60773	-0.25695
0.50573	0.27871
0.45472	-0.23145
-1.61091	0.35523
-0.08081	0.25320
-0.08081	0.22769
0.73524	0.20219
0.68424	-0.00188
0.53123	0.20219
0.93925	0.35523
1.11776	-0.25695
-0.87136	0.22769
-1.99343	-0.18043
-0.61635	0.55929
1.04126	-0.10391
0.27621	0.20219
0.45472	0.30422
0.27621	-0.15492
0.73524	0.38074
0.02119	0.17668
0.42922	0.38074
0.32721	0.15117
-0.25932	0.10015
0.12320	0.04914
-0.28482	0.15117
-0.84586	0.02363
1.16877	-0.05289
-0.51434	0.07465
0.55673	0.38074
0.60773	0.22769
0.40372	0.53379
0.30171	-0.69059
-0.33583	-0.10391
0.14870	0.43176
-1.27939	-0.05289
-0.97337	0.38074
0.48022	-0.25695
0.81175	0.48277
0.50573	0.10015
1.29628	0.30422
0.93925	0.30422
-1.30489	0.15117
-0.20832	-0.18043
0.37822	-0.10391
-1.02437	0.07465
-0.18282	-0.07840
1.44929	0.10015
1.50029	0.76336
-1.30489	0.30422
0.40372	0.17668
0.32721	0.15117
0.78624	0.10015
0.53123	0.07465
-0.38683	0.04914
-0.05531	0.27871
0.19971	0.35523
-0.28482	0.07465
0.12320	0.07465
0.50573	0.22769
1.47479	-0.05289
-0.43783	-0.25695
-0.53984	0.27871
-0.99887	0.04914
-0.00431	0.15117
-0.43783	0.45726
0.48022	0.25320
0.91375	-0.38449
1.60230	0.68683
-0.48884	-0.46102
-0.82036	0.10015
1.29628	0.22769
0.12320	0.12566
-0.51434	0.27871
0.14870	0.15117
0.70974	0.04914
0.65874	0.73785
-0.97337	0.02363
-0.36133	0.25320
0.58223	0.22769
0.37822	-0.00188
0.73524	0.12566
-0.13181	0.20219
0.30171	0.20219
1.19427	0.32972
-0.79486	0.15117
-2.40146	-0.02739
0.37822	0.35523
0.70974	-0.41000
1.42379	0.12566
1.11776	0.10015
-0.46334	0.12566
0.22521	0.40625
-0.36133	0.12566
-0.59084	0.17668
0.88825	0.12566
0.91375	0.04914
-0.87136	-0.12942
0.07220	0.17668
0.78624	0.35523
-1.91693	0.10015
-1.33039	0.15117
0.93925	0.32972
1.47479	0.04914
1.01576	-0.00188
0.68424	0.43176
0.58223	0.78886
-0.08081	-0.02739
0.32721	-0.79262
1.32178	0.81437
1.29628	0.12566
-0.56534	-0.07840
-4.08457	0.32972
-1.38139	-0.05289
0.88825	-0.05289
0.99026	0.02363
1.21977	0.38074
0.68424	0.35523
-0.18282	0.32972
0.27621	0.63582
1.65330	0.15117
0.37822	-0.20594
-0.48884	0.35523
-0.20832	-0.66508
0.17421	0.66132
0.32721	-0.02739
0.27621	-0.38449
-1.58541	0.17668
-0.94787	-0.02739
0.42922	-0.07840
0.45472	0.40625
1.11776	0.38074
1.14327	0.30422
-1.61091	0.25320
-0.38683	0.25320
0.37822	-0.10391
2.41835	-0.00188
0.27621	0.86539
-1.91693	-0.30797
0.32721	-0.30797
1.50029	0.40625
0.68424	0.38074
-0.13181	0.25320
0.50573	0.07465
0.48022	-0.05289
-0.56534	0.04914
-0.89686	0.25320
-0.00431	-0.23145
-0.69285	-0.12942
0.48022	0.66132
0.35272	0.53379
-0.10631	0.43176
0.70974	-0.05289
0.40372	-0.20594
0.22521	0.22769
0.17421	-0.05289
-0.28482	0.50828
-0.05531	0.04914
1.16877	0.15117
1.65330	0.35523
-1.17738	0.43176
-0.79486	-0.10391
0.50573	0.48277
-1.10088	0.02363
0.53123	0.10015
1.67880	-0.12942
0.83725	0.20219
-0.05531	-0.00188
0.22521	-0.02739
-1.40690	0.10015
0.53123	0.32972
0.60773	0.35523
0.30171	0.68683
0.27621	0.22769
-0.46334	-0.48652
-0.76936	0.15117
1.04126	0.04914
-0.33583	0.43176
-0.00431	0.20219
0.27621	-0.00188
0.50573	0.40625
-0.08081	0.25320
0.65874	-0.05289
0.48022	0.25320
-0.13181	0.20219
-0.15732	0.04914
-0.00431	0.04914
1.01576	0.20219
0.02119	0.07465
0.76074	0.17668
0.02119	0.45726
-0.97337	-0.53754
0.32721	0.86539
0.32721	-0.05289
0.12320	-0.10391
0.53123	-0.10391
-0.56534	-0.05289
-1.91693	-0.05289
1.88281	0.43176
1.34728	0.76336
-0.38683	0.53379
0.17421	-0.25695
0.60773	-0.02739
0.22521	-0.00188
0.09770	0.12566
-0.02981	0.22769
-0.23382	0.20219
-0.36133	0.15117
0.22521	-0.38449
0.91375	0.15117
0.45472	0.25320
-0.46334	0.20219
0.35272	0.50828
0.37822	-0.07840
0.88825	0.27871
0.37822	0.22769
-1.53441	0.07465
-1.43240	0.30422
-0.28482	-0.02739
1.29628	-0.00188
1.75531	0.27871
0.73524	0.40625
0.70974	-0.15492
0.88825	0.02363
-1.35589	0.07465
-1.61091	0.35523
0.14870	0.17668
0.53123	-0.25695
0.35272	0.48277
0.58223	0.17668
0.09770	0.10015
-0.02981	0.22769
1.14327	0.35523
0.73524	0.10015
-0.28482	0.04914
0.70974	0.61031
-0.87136	-0.02739
-0.48884	0.12566
0.02119	-0.35899
0.45472	0.15117
0.53123	0.20219
0.14870	0.22769
0.30171	0.66132
-0.05531	-0.05289
0.12320	0.17668
-0.89686	0.04914
-0.59084	0.10015
0.12320	-0.30797
1.09226	0.30422
0.99026	0.02363
0.88825	0.32972
0.78624	0.04914
-1.33039	-0.02739
-0.25932	0.12566
0.53123	0.17668
-0.25932	0.17668
0.35272	-0.05289
0.68424	0.32972
0.78624	0.30422
-0.25932	0.32972
-0.51434	-0.15492
0.37822	0.30422
0.55673	0.10015
-1.89143	-0.28246
-1.45790	-0.35899
0.32721	0.50828
1.06676	0.17668
2.06133	0.66132
1.24527	0.63582
1.55129	0.07465
0.53123	-0.12942
-1.35589	-0.02739
-1.07538	0.07465
-1.10088	0.35523
-0.94787	0.25320
0.58223	0.07465
0.60773	0.20219
1.24527	-0.10391
0.22521	0.12566
-1.73842	0.07465
0.63323	0.07465
0.91375	-0.15492
0.68424	0.61031
0.53123	0.38074
0.42922	0.43176
-0.08081	0.22769
0.02119	0.22769
0.12320	0.15117
0.09770	-0.20594
0.40372	0.35523
0.22521	0.04914
0.70974	0.25320
-0.53984	0.22769
-2.65648	0.22769
0.02119	-0.43551
1.90832	0.07465
0.50573	-0.05289
0.32721	-0.05289
1.09226	-0.15492
0.91375	0.66132
-1.61091	0.61031
-1.81492	0.20219
0.65874	0.25320
0.86275	-0.58856
0.40372	-0.15492
-0.15732	0.04914
1.70430	0.89089
1.09226	-0.18043
-0.20832	0.40625
-0.69285	0.35523
-1.10088	0.02363
0.63323	-0.07840
2.72437	0.22769
0.76074	-0.25695
-4.82411	-0.05289
-3.01350	0.10015
1.85731	0.20219
1.60230	0.25320
1.52579	0.27871
0.81175	-0.25695
0.63323	0.66132
0.78624	0.25320
0.14870	0.15117
-0.28482	-0.66508
-0.51434	0.76336
-0.38683	-0.05289
-0.13181	-0.23145
-0.38683	0.27871
0.14870	0.25320
1.24527	0.73785
1.04126	0.45726
0.40372	-0.25695
-0.56534	-0.05289
-0.97337	-0.20594
-1.45790	0.07465
0.91375	0.04914
0.48022	0.22769
1.90832	0.40625
0.58223	0.38074
-0.94787	0.22769
1.29628	0.35523
0.09770	0.10015
0.60773	0.20219
-0.48884	0.17668
-0.59084	-0.28246
0.83725	-0.07840
-0.15732	0.04914
0.04670	-0.10391
-0.20832	0.17668
0.09770	-0.15492
-0.28482	0.55929
0.42922	0.38074
0.83725	0.22769
0.48022	0.45726
-0.05531	0.27871
-0.10631	0.04914
0.70974	-0.02739
-1.04987	-0.38449
-0.31033	0.50828
1.16877	0.22769
1.16877	0.25320
0.48022	0.22769
-0.41233	-0.07840
0.19971	0.55929
-0.89686	-0.46102
-0.28482	0.30422
0.53123	-0.02739
0.40372	0.15117
0.04670	0.07465
0.14870	0.45726
1.50029	-0.23145
-0.25932	0.38074
-1.53441	0.04914
0.12320	0.20219
0.58223	0.12566
0.93925	0.50828
0.30171	0.15117
-0.31033	-0.15492
0.68424	0.53379
-1.78942	0.15117
-0.41233	-0.02739
1.19427	0.30422
1.67880	0.48277
-0.08081	0.25320
-0.08081	-0.51203
0.17421	-0.23145
1.14327	0.81437
-0.79486	-0.05289
-0.28482	0.15117
0.37822	0.15117
0.14870	0.17668
-0.69285	0.50828
0.45472	-1.14973
0.42922	0.40625
-0.36133	0.48277
0.73524	-0.05289
0.04670	0.35523
-2.70748	0.07465
0.37822	0.61031
0.88825	0.25320
1.32178	-0.10391
0.96476	0.43176
1.19427	0.10015
0.48022	0.20219
-0.00431	0.07465
-1.45790	-0.05289
-0.79486	-0.41000
0.27621	0.32972
0.88825	0.43176
0.35272	0.43176
-0.05531	0.10015
0.63323	0.66132
0.48022	-0.28246
0.45472	0.02363
-0.69285	-0.38449
-0.76936	-0.35899
-0.28482	0.15117
0.19971	0.15117
1.11776	0.45726
0.45472	0.20219
-0.02981	0.20219
0.19971	0.04914
0.45472	0.25320
0.42922	0.04914
-0.84586	0.12566
-0.38683	-0.00188
0.55673	0.07465
0.25071	0.53379
1.55129	-0.15492
1.14327	1.19699
-0.13181	-0.76711
-0.61635	-0.10391
-1.50890	0.20219
0.45472	0.04914
0.93925	0.10015
-0.00431	0.20219
0.04670	0.10015
1.75531	0.12566
0.19971	0.12566
-3.39602	-0.20594
-0.74385	0.43176
0.81175	0.76336
1.06676	-0.35899
0.83725	0.25320
0.83725	-0.33348
1.01576	0.61031
-0.10631	-0.38449
0.22521	0.35523
-0.64185	-0.00188
0.02119	0.63582
0.53123	0.02363
1.01576	0.30422
-1.58541	0.15117
-0.46334	-0.25695
-0.15732	0.38074
0.78624	-0.05289
0.14870	-0.15492
0.09770	0.02363
-0.51434	-0.05289
0.88825	0.50828
0.99026	0.63582
0.53123	0.04914
0.88825	0.35523
-0.43783	0.02363
0.02119	0.02363
-0.23382	0.02363
-0.48884	0.20219
-0.36133	0.15117
-0.18282	0.17668
0.50573	-0.10391
1.04126	0.86539
1.27078	0.25320
-0.20832	0.10015
-0.43783	-0.18043
0.73524	0.12566
-0.46334	0.20219
-1.12638	-0.00188
-1.20288	0.35523
1.16877	-0.41000
0.96476	0.45726
0.07220	0.25320
0.07220	0.48277
0.35272	-0.00188
0.35272	0.63582
0.22521	-1.12422
0.19971	0.22769
0.19971	0.15117
0.32721	0.35523
-0.64185	0.20219
-0.48884	0.35523
1.06676	0.45726
-0.20832	0.20219
-0.87136	0.12566
-0.38683	0.17668
-0.36133	-0.38449
0.83725	0.20219
1.34728	-0.23145
1.19427	0.50828
-0.53984	0.12566
-0.64185	-0.02739
0.32721	0.81437
1.06676	-0.35899
0.53123	0.15117
0.83725	0.07465
-0.02981	0.07465
-1.50890	0.12566
-0.25932	-0.18043
0.14870	0.53379
-0.64185	0.12566
-0.33583	0.02363
1.42379	-0.05289
1.50029	0.32972
1.24527	0.40625
-0.43783	-0.10391
-1.68742	0.30422
0.93925	-0.00188
0.88825	0.10015
-1.40690	-0.00188
0.27621	0.40625
0.50573	0.27871
0.93925	0.25320
0.73524	0.55929
0.32721	0.68683
-0.08081	-0.61406
-0.10631	-0.10391
-0.61635	-0.25695
-0.53984	0.76336
0.40372	-0.07840
-0.00431	-0.00188
0.42922	0.15117
0.65874	0.63582
0.19971	0.30422
0.09770	0.22769
1.29628	-0.07840
0.04670	0.15117
-2.42696	0.12566
1.50029	0.02363
-0.20832	0.35523
-1.33039	0.04914
0.86275	-0.00188
1.55129	0.10015
-0.61635	0.10015
1.42379	0.20219
-0.46334	0.04914
-0.13181	-0.07840
0.55673	0.30422
0.99026	0.15117
0.83725	0.35523
-0.31033	-0.05289
0.02119	0.07465
0.22521	0.22769
-0.82036	0.17668
-1.55991	-0.00188
0.09770	0.38074
0.12320	-0.05289
-0.36133	0.20219
0.81175	0.63582
0.27621	-0.25695
0.70974	0.07465
0.60773	0.66132
-0.18282	-0.07840
0.60773	0.32972
1.44929	-0.07840
-0.92237	-0.33348
0.48022	0.02363
0.40372	0.15117
-0.18282	0.07465
-0.94787	0.43176
-0.02981	0.10015
0.88825	0.25320
-0.66735	0.35523
-2.24845	0.12566
0.91375	0.12566
1.57679	0.17668
1.04126	-0.02739
0.68424	-0.15492
0.53123	0.07465
-0.94787	0.32972
0.07220	0.58480
0.19971	0.25320
0.65874	-0.41000
-0.00431	0.04914
-0.69285	0.17668
-0.69285	0.10015
-0.38683	0.04914
0.63323	0.17668
-0.41233	-0.15492
-0.38683	0.55929
1.01576	-0.33348
0.48022	0.40625
1.19427	0.12566
0.60773	0.48277
-0.53984	-0.05289
0.25071	-0.02739
0.78624	0.04914
0.40372	0.30422
-1.43240	0.35523
-0.51434	-0.20594
0.91375	0.25320
0.07220	0.40625
0.32721	0.22769
0.58223	0.04914
0.81175	0.45726
-0.28482	0.15117
-0.28482	-0.10391
0.27621	0.25320
-0.41233	-0.20594
-0.25932	0.15117
0.07220	0.40625
