0.22521	0.20219
0.12320	0.17668
0.09770	0.20219
0.09770	0.10015
0.14870	0.15117
0.19971	0.12566
0.12320	0.10015
0.07220	-0.00188
0.12320	0.07465
0.25071	0.15117
0.12320	0.27871
0.12320	0.20219
0.14870	0.25320
0.19971	0.17668
0.12320	0.04914
0.12320	-0.00188
0.07220	0.04914
0.09770	0.15117
0.07220	0.10015
0.17421	0.10015
0.19971	0.17668
0.22521	0.20219
0.22521	0.15117
0.14870	0.04914
0.04670	-0.05289
0.14870	0.22769
0.12320	0.30422
0.17421	0.20219
0.14870	0.07465
0.07220	0.15117
0.14870	0.17668
0.19971	0.10015
0.12320	0.04914
0.07220	0.12566
0.22521	0.12566
0.17421	0.04914
0.12320	0.10015
0.07220	0.07465
0.17421	0.20219
0.19971	0.25320
0.27621	0.25320
0.09770	0.15117
0.14870	0.07465
0.04670	-0.00188
0.14870	0.04914
0.22521	0.10015
0.14870	0.12566
0.09770	0.20219
0.07220	0.27871
0.25071	0.27871
0.19971	0.04914
0.09770	-0.02739
0.12320	0.10015
0.14870	0.32972
0.17421	0.10015
0.12320	0.12566
0.09770	0.17668
0.19971	0.10015
0.14870	0.12566
0.14870	0.10015
0.12320	0.17668
0.22521	0.10015
0.12320	0.04914
0.14870	0.12566
0.19971	0.25320
0.17421	0.17668
0.09770	0.22769
0.19971	0.30422
0.09770	0.15117
0.17421	-0.02739
0.22521	0.10015
0.07220	0.12566
-0.00431	0.15117
0.17421	0.07465
0.25071	0.25320
0.17421	0.12566
0.14870	0.12566
0.22521	0.25320
0.07220	0.10015
0.12320	0.12566
0.22521	0.10015
0.14870	0.07465
0.14870	0.20219
0.14870	0.15117
0.17421	0.10015
0.19971	0.22769
0.07220	0.02363
0.12320	0.10015
0.12320	0.15117
0.09770	0.10015
0.22521	0.22769
0.09770	0.15117
0.14870	0.15117
0.09770	0.12566
0.07220	0.07465
0.12320	0.25320
0.12320	0.12566
0.12320	0.22769
0.14870	0.07465
0.09770	-0.02739
0.12320	0.38074
0.14870	0.10015
0.07220	0.02363
0.19971	0.02363
0.09770	0.20219
0.14870	0.32972
0.12320	0.27871
0.02119	0.15117
0.25071	0.17668
0.09770	0.07465
0.14870	0.15117
0.17421	0.10015
0.07220	0.04914
0.22521	0.20219
0.14870	0.15117
0.14870	0.12566
0.17421	0.15117
0.14870	0.12566
0.07220	0.10015
0.17421	0.20219
0.22521	0.10015
0.09770	0.17668
0.09770	0.20219
0.02119	0.15117
0.12320	0.17668
0.19971	0.20219
0.19971	0.15117
0.07220	0.04914
0.17421	0.12566
0.17421	0.25320
0.09770	0.15117
0.14870	0.17668
0.17421	0.20219
0.12320	0.07465
0.07220	0.02363
0.19971	0.20219
0.12320	0.15117
0.04670	0.15117
0.14870	0.22769
0.14870	0.07465
0.14870	0.20219
0.27621	0.25320
0.09770	0.12566
0.19971	0.15117
0.12320	0.02363
0.12320	0.15117
0.12320	0.15117
0.02119	0.15117
0.22521	0.20219
0.17421	0.15117
0.17421	0.22769
0.22521	0.17668
0.09770	0.20219
0.14870	0.20219
0.12320	0.12566
0.12320	0.02363
0.19971	0.10015
0.04670	0.17668
0.12320	0.07465
0.17421	0.22769
0.09770	0.10015
0.17421	0.17668
0.09770	0.30422
0.04670	0.07465
0.19971	0.15117
0.25071	0.10015
0.09770	0.22769
0.12320	0.15117
0.14870	0.10015
0.07220	0.07465
0.14870	0.32972
0.14870	0.15117
0.12320	0.22769
0.25071	0.22769
0.09770	-0.00188
0.09770	0.10015
0.19971	0.07465
0.07220	-0.02739
0.12320	-0.00188
0.30171	0.30422
0.17421	0.10015
0.07220	0.35523
0.12320	0.12566
0.27621	0.15117
0.17421	-0.07840
0.09770	0.07465
0.19971	0.35523
0.17421	0.30422
0.04670	0.27871
0.12320	0.25320
0.19971	0.20219
0.12320	-0.00188
0.19971	0.22769
0.22521	0.10015
0.14870	0.07465
0.12320	-0.07840
0.19971	0.15117
0.09770	0.20219
0.09770	0.15117
0.14870	0.17668
0.14870	0.02363
0.04670	0.04914
0.12320	0.12566
0.19971	0.22769
0.07220	-0.12942
0.17421	0.45726
0.14870	0.25320
0.07220	0.02363
0.17421	0.07465
0.22521	-0.28246
0.17421	-0.23145
0.04670	0.32972
0.14870	0.58480
0.22521	0.38074
0.07220	0.12566
0.22521	0.35523
0.22521	0.20219
0.07220	0.45726
0.19971	-0.18043
0.17421	-0.20594
0.07220	-0.18043
0.14870	0.48277
0.12320	-0.10391
0.02119	-0.02739
0.22521	-0.10391
0.12320	0.20219
0.14870	0.12566
0.32721	0.45726
0.19971	0.43176
0.02119	0.15117
0.14870	0.45726
0.12320	0.20219
0.17421	0.07465
0.22521	-0.05289
0.12320	-0.05289
0.07220	0.27871
0.17421	0.20219
0.22521	0.10015
0.04670	-0.23145
0.22521	-0.02739
0.12320	0.07465
0.17421	0.40625
0.12320	0.43176
0.09770	0.15117
0.22521	0.20219
0.02119	0.22769
0.19971	0.10015
0.25071	0.40625
0.02119	0.12566
0.09770	0.20219
0.42922	0.10015
-0.10631	-0.46102
0.17421	-0.20594
0.25071	-0.33348
0.25071	0.68683
0.12320	0.45726
0.42922	0.58480
-0.02981	0.10015
0.07220	0.15117
-0.00431	0.10015
0.25071	0.20219
0.27621	0.10015
0.19971	0.55929
-0.00431	0.02363
0.12320	-0.15492
0.22521	-0.25695
-0.10631	-0.00188
-0.13181	0.30422
0.76074	0.25320
0.30171	0.10015
0.22521	0.25320
0.02119	0.27871
-0.10631	0.27871
-0.08081	0.25320
-0.02981	-0.00188
0.19971	0.02363
0.22521	0.04914
0.32721	-0.02739
0.45472	0.22769
-0.13181	0.35523
0.02119	0.30422
0.25071	-0.07840
-0.00431	0.02363
-0.13181	0.15117
0.65874	0.32972
1.01576	0.27871
-0.08081	0.35523
0.19971	-0.00188
0.25071	-0.43551
-0.43783	-0.05289
-0.28482	0.55929
-0.15732	0.15117
-0.28482	-0.12942
-0.10631	-0.28246
0.48022	0.32972
0.42922	0.73785
0.30171	0.50828
0.58223	0.35523
0.12320	0.15117
0.27621	-0.12942
0.27621	0.22769
0.32721	-0.28246
0.22521	-0.30797
-0.05531	-0.33348
0.09770	0.07465
0.07220	0.32972
-0.10631	0.53379
0.09770	0.76336
-0.38683	0.76336
0.07220	0.25320
0.37822	0.35523
0.48022	-0.05289
-0.59084	-0.18043
-0.28482	-0.07840
0.04670	0.04914
1.52579	-0.05289
0.93925	0.22769
-0.15732	-0.12942
0.65874	-0.02739
-0.02981	-0.10391
-0.51434	0.12566
0.07220	0.30422
-0.94787	0.27871
-0.69285	0.22769
0.19971	0.25320
0.55673	0.30422
0.73524	0.27871
0.60773	0.35523
0.22521	0.10015
0.22521	0.02363
0.25071	0.25320
0.19971	-0.00188
0.22521	0.10015
0.09770	-0.12942
0.02119	0.22769
-0.10631	-0.12942
0.12320	-0.02739
0.30171	0.25320
0.22521	0.48277
-0.18282	0.96742
0.17421	0.02363
0.17421	0.10015
0.22521	0.04914
0.19971	0.02363
0.12320	-0.25695
0.17421	0.17668
0.19971	0.32972
0.32721	0.38074
0.12320	-0.10391
-0.20832	-0.00188
0.30171	-0.33348
0.40372	0.55929
0.12320	0.04914
-0.53984	0.10015
-0.13181	0.25320
0.45472	0.35523
0.53123	0.55929
0.12320	0.15117
-0.08081	-0.18043
0.53123	0.15117
0.55673	-0.10391
0.42922	-0.35899
-0.23382	0.15117
0.12320	0.25320
0.17421	0.55929
-0.28482	0.38074
-0.00431	0.17668
0.30171	-0.05289
0.40372	-0.15492
0.45472	0.25320
-0.28482	-0.05289
-0.13181	0.07465
-0.02981	0.35523
-0.00431	0.17668
0.32721	0.25320
0.53123	0.20219
0.17421	-0.05289
0.14870	0.04914
0.19971	0.15117
0.19971	0.30422
-0.08081	-0.15492
0.12320	-0.00188
0.12320	0.27871
0.32721	0.27871
0.22521	0.40625
0.17421	0.25320
0.07220	0.10015
0.02119	0.32972
-0.20832	0.02363
-0.18282	0.12566
-0.13181	0.43176
0.70974	0.12566
0.65874	-0.20594
0.04670	-0.15492
0.07220	-0.20594
-0.05531	0.30422
-0.10631	0.25320
0.17421	0.53379
0.22521	-0.05289
0.45472	0.40625
0.25071	0.50828
0.32721	0.43176
0.07220	0.22769
0.12320	0.02363
0.27621	-0.10391
-0.15732	0.02363
-0.41233	0.15117
0.17421	0.30422
0.32721	0.15117
0.42922	-0.43551
0.50573	-0.15492
-0.38683	0.35523
0.35272	0.53379
0.25071	0.22769
0.12320	0.15117
0.14870	0.12566
0.12320	0.22769
0.07220	-0.10391
0.12320	-0.02739
0.17421	0.25320
0.14870	0.04914
0.17421	0.43176
0.09770	0.12566
0.25071	0.02363
0.09770	0.17668
0.07220	0.04914
0.25071	0.12566
0.30171	-0.07840
0.09770	-0.05289
0.37822	0.45726
0.02119	0.38074
0.12320	1.37554
-0.00431	-0.35899
0.19971	-0.38449
0.14870	-0.92016
-0.20832	0.15117
0.02119	-0.05289
0.25071	0.35523
0.60773	0.38074
0.27621	0.58480
-0.10631	0.48277
0.02119	0.17668
0.32721	0.20219
-0.08081	-0.15492
0.07220	0.35523
-0.10631	0.17668
0.14870	0.15117
0.42922	-0.25695
1.06676	0.04914
0.02119	-0.05289
0.25071	0.10015
0.50573	0.04914
0.02119	0.35523
-0.20832	0.43176
-0.43783	0.04914
0.04670	-0.07840
0.12320	-0.02739
0.09770	0.20219
0.17421	0.45726
0.17421	0.22769
0.22521	0.27871
0.45472	0.07465
0.50573	0.30422
0.22521	-0.07840
-0.08081	0.07465
-0.43783	-0.05289
0.19971	-0.25695
0.32721	-0.00188
0.27621	0.58480
0.17421	0.32972
0.04670	-0.25695
0.14870	0.27871
0.22521	0.15117
0.17421	0.43176
0.07220	0.63582
-0.00431	0.22769
0.14870	-0.00188
0.09770	0.50828
-0.08081	-0.53754
0.22521	-0.15492
-0.00431	-0.20594
0.35272	0.15117
0.40372	-0.00188
0.19971	0.35523
0.09770	0.20219
0.04670	0.27871
0.30171	0.40625
0.07220	0.12566
-0.05531	0.22769
0.07220	-0.23145
0.19971	0.25320
-0.00431	0.25320
-0.28482	0.17668
0.58223	0.22769
0.17421	0.27871
0.32721	0.22769
0.35272	0.10015
0.12320	-0.00188
0.60773	0.10015
-0.08081	0.02363
-0.20832	0.30422
0.12320	-0.00188
0.07220	-0.25695
0.04670	0.22769
-0.28482	0.45726
0.12320	0.48277
0.27621	-0.15492
0.07220	0.04914
0.48022	0.12566
0.35272	0.50828
0.35272	0.32972
0.09770	0.07465
0.14870	0.15117
0.07220	0.22769
0.12320	0.17668
0.12320	-0.05289
-0.13181	-0.07840
0.02119	0.02363
0.19971	0.38074
0.27621	0.50828
0.19971	-0.18043
0.19971	-0.43551
0.07220	0.32972
0.04670	0.45726
0.17421	-0.15492
0.17421	-0.23145
0.14870	0.32972
0.22521	0.22769
-0.02981	-0.18043
0.17421	0.38074
0.09770	0.40625
0.04670	0.58480
0.04670	0.15117
0.12320	-0.15492
0.32721	-0.10391
0.14870	0.12566
0.25071	0.32972
0.30171	0.02363
-0.13181	0.15117
-0.10631	0.25320
0.22521	0.15117
0.32721	-0.05289
0.09770	0.10015
-0.02981	-0.07840
0.32721	0.27871
-0.10631	0.15117
0.14870	0.30422
0.48022	0.04914
0.63323	0.38074
-0.00431	0.07465
-0.28482	0.25320
-0.36133	0.02363
0.35272	0.35523
-0.08081	0.07465
0.53123	0.15117
0.19971	-0.23145
-0.00431	0.25320
0.09770	-0.12942
0.22521	0.32972
0.32721	0.30422
0.35272	0.07465
0.48022	0.25320
-0.43783	-0.05289
-0.46334	0.25320
-0.00431	0.07465
0.25071	1.32453
0.32721	-0.43551
0.50573	-0.28246
0.02119	-0.69059
0.22521	0.40625
0.14870	0.22769
-0.00431	0.17668
-0.02981	0.66132
0.48022	0.61031
0.14870	0.12566
0.37822	-0.38449
-0.18282	-0.41000
-0.18282	0.07465
0.32721	0.38074
0.32721	0.32972
0.48022	0.99292
-0.02981	0.61031
-0.36133	0.10015
-0.08081	-0.25695
0.48022	-0.66508
0.14870	0.02363
0.22521	-0.10391
0.42922	0.32972
0.30171	0.25320
0.22521	0.53379
0.04670	0.35523
0.04670	0.40625
0.14870	0.10015
0.09770	0.22769
0.14870	0.04914
0.14870	-0.18043
0.07220	-0.38449
0.27621	0.25320
0.19971	0.15117
-0.05531	0.25320
-0.38683	0.20219
0.07220	0.48277
0.22521	0.25320
0.32721	-0.07840
0.81175	0.20219
0.09770	0.15117
0.14870	0.25320
-0.18282	0.35523
0.45472	0.30422
0.12320	0.40625
-0.76936	-0.05289
-0.15732	-0.23145
0.81175	0.04914
0.27621	0.17668
0.42922	0.22769
1.04126	-0.05289
0.09770	0.02363
-0.71835	0.30422
0.09770	0.45726
0.30171	0.27871
0.12320	0.30422
-0.25932	0.30422
0.27621	0.50828
0.76074	-0.89465
0.07220	0.20219
-0.69285	-0.84363
-0.25932	0.38074
0.27621	-0.28246
0.55673	0.83988
0.22521	0.45726
0.04670	0.89089
0.35272	0.25320
0.12320	0.17668
0.12320	-0.00188
0.25071	-0.30797
0.12320	0.10015
0.12320	-0.33348
0.14870	0.55929
0.27621	0.50828
0.07220	-0.00188
0.40372	0.38074
0.19971	0.25320
-0.20832	-0.07840
-0.13181	-0.25695
0.09770	-0.35899
-0.05531	0.22769
0.17421	0.55929
0.35272	0.15117
0.42922	-0.05289
0.42922	0.07465
-0.05531	0.30422
0.32721	0.32972
0.42922	0.22769
0.63323	0.35523
0.17421	0.15117
-0.51434	0.20219
-0.08081	0.07465
0.42922	-0.02739
0.35272	0.10015
0.04670	-0.28246
-0.76936	0.17668
-0.15732	0.43176
-0.05531	0.22769
0.22521	0.30422
0.37822	0.02363
0.73524	-0.00188
0.22521	0.25320
0.19971	0.15117
0.12320	0.10015
0.27621	0.04914
0.30171	0.30422
-0.00431	0.12566
0.09770	0.07465
-0.08081	0.25320
0.04670	-0.02739
0.32721	0.32972
0.19971	0.17668
0.02119	0.58480
0.14870	-0.18043
0.32721	-0.33348
-0.20832	-0.30797
-0.33583	0.40625
0.02119	0.55929
0.09770	-0.02739
0.35272	-0.02739
0.35272	-0.02739
0.50573	0.53379
0.37822	0.45726
0.14870	0.43176
-0.15732	0.32972
-0.23382	0.02363
0.27621	-0.02739
0.22521	-0.05289
0.25071	0.17668
0.81175	0.22769
0.35272	0.20219
-0.56534	0.04914
-0.59084	-0.46102
0.42922	-0.10391
0.60773	0.27871
0.19971	0.55929
0.32721	0.20219
0.04670	0.12566
0.04670	0.12566
0.02119	0.25320
-0.02981	0.35523
0.07220	0.25320
0.63323	0.48277
-0.25932	0.02363
0.09770	-0.10391
-0.08081	-0.25695
0.40372	0.38074
0.48022	0.48277
0.30171	0.15117
0.09770	0.27871
-0.08081	0.02363
0.09770	-0.25695
0.22521	-0.05289
0.27621	0.07465
0.19971	0.68683
0.02119	0.66132
0.04670	-0.15492
0.07220	-0.00188
0.25071	-0.07840
0.14870	0.04914
0.17421	0.22769
0.12320	-0.56305
-0.08081	0.43176
0.09770	0.68683
0.19971	0.40625
0.65874	0.43176
0.02119	-0.23145
-0.05531	-0.18043
0.32721	0.32972
0.04670	-0.66508
-0.10631	0.38074
0.42922	0.25320
0.35272	0.15117
-0.13181	0.66132
-0.05531	0.50828
0.12320	0.12566
0.07220	0.04914
0.12320	-0.12942
0.22521	-0.25695
0.22521	0.15117
-0.00431	0.12566
0.32721	-0.20594
0.19971	-0.02739
0.22521	0.20219
0.17421	0.20219
0.58223	0.35523
-0.13181	0.32972
-0.20832	0.43176
0.27621	0.30422
0.19971	-0.10391
0.48022	-0.02739
0.02119	0.17668
-0.00431	0.07465
-0.13181	0.25320
-0.23382	0.22769
0.63323	0.12566
0.42922	0.32972
0.17421	0.12566
-0.08081	-0.30797
0.09770	0.07465
0.07220	0.30422
0.27621	0.25320
0.45472	-0.02739
0.14870	-0.33348
-0.33583	-0.15492
0.12320	0.43176
0.37822	0.58480
0.14870	0.48277
0.12320	0.89089
-0.15732	-0.18043
0.09770	-0.35899
0.53123	0.25320
0.32721	0.12566
0.14870	-0.20594
-0.15732	-0.28246
-0.13181	0.07465
-0.10631	0.20219
0.45472	0.58480
0.55673	0.66132
0.17421	0.30422
-0.10631	-0.20594
0.17421	0.15117
0.48022	-0.63957
-0.38683	0.61031
-0.38683	0.15117
0.76074	0.27871
0.37822	-0.10391
0.19971	0.22769
0.07220	0.61031
0.02119	-0.00188
0.27621	0.10015
0.19971	0.17668
-0.18282	-0.05289
-0.46334	-0.35899
0.19971	0.10015
0.37822	0.50828
0.58223	0.27871
0.35272	-0.12942
0.32721	-0.07840
0.17421	0.35523
-0.18282	0.55929
-0.10631	0.45726
0.02119	0.25320
0.40372	0.22769
0.53123	-0.28246
-0.08081	-0.05289
0.09770	0.20219
0.58223	0.22769
-0.05531	-0.15492
-0.20832	0.12566
-0.18282	0.35523
0.37822	0.27871
0.17421	0.25320
-0.25932	0.17668
0.53123	-0.02739
0.63323	0.32972
0.12320	0.10015
0.14870	-0.00188
0.25071	0.04914
0.40372	0.10015
-0.84586	0.04914
-0.59084	0.07465
-0.20832	0.35523
0.88825	0.43176
1.01576	-0.07840
-0.05531	0.12566
0.07220	0.07465
0.09770	0.22769
0.22521	-0.10391
0.48022	0.40625
0.55673	0.32972
-0.08081	0.40625
-0.71835	-0.07840
-0.10631	-0.18043
0.53123	-0.18043
0.42922	0.48277
0.07220	0.55929
0.12320	0.43176
0.25071	-0.33348
0.27621	-0.20594
0.09770	-0.12942
0.02119	-0.10391
-0.23382	0.35523
0.27621	0.48277
0.55673	-0.02739
0.42922	1.06945
-0.00431	0.02363
0.12320	-0.43551
-0.08081	-0.10391
-0.02981	0.12566
0.04670	0.55929
0.58223	0.61031
0.19971	-0.07840
0.09770	-0.02739
-0.25932	0.02363
0.12320	0.25320
0.45472	0.10015
0.14870	0.12566
0.22521	-0.07840
0.32721	-0.02739
0.02119	-0.05289
-0.33583	0.43176
-0.08081	0.43176
0.19971	0.43176
0.27621	0.07465
-0.13181	0.15117
0.58223	0.17668
0.42922	-0.10391
0.09770	0.25320
0.17421	0.35523
0.25071	-0.05289
-0.10631	0.10015
-0.15732	-0.05289
0.19971	0.15117
0.19971	0.17668
0.17421	-0.15492
0.12320	-0.23145
-0.00431	0.43176
0.42922	0.61031
0.22521	0.04914
0.09770	0.25320
-0.08081	0.32972
0.30171	0.15117
-0.00431	-0.12942
0.14870	-0.07840
0.12320	-0.07840
-0.02981	0.66132
0.58223	0.40625
0.40372	-0.05289
0.17421	-0.00188
-0.18282	-0.69059
-0.08081	-0.12942
0.04670	0.22769
0.27621	0.71234
-0.00431	0.22769
0.58223	0.45726
0.45472	0.32972
-0.33583	0.76336
-0.05531	0.12566
0.30171	0.15117
0.40372	-0.15492
0.02119	-0.25695
-0.59084	0.15117
0.09770	0.25320
-0.51434	0.02363
0.70974	0.10015
0.70974	0.07465
0.45472	-0.12942
0.53123	0.35523
0.02119	0.27871
0.02119	0.43176
0.02119	0.25320
-0.33583	0.12566
0.14870	0.07465
0.30171	0.07465
0.12320	0.10015
-0.05531	-0.07840
0.07220	0.38074
0.37822	0.20219
1.11776	0.25320
0.50573	0.15117
-0.23382	0.15117
-0.84586	-0.05289
-0.31033	0.15117
0.22521	0.20219
0.02119	-0.18043
0.42922	0.10015
0.60773	0.20219
0.30171	0.53379
-0.25932	0.50828
0.22521	0.66132
0.32721	-0.18043
0.09770	-0.43551
0.09770	-0.12942
0.17421	0.15117
0.09770	0.04914
0.09770	0.73785
0.17421	0.25320
0.27621	0.22769
0.19971	0.38074
0.07220	-0.07840
0.22521	0.07465
0.17421	-0.12942
-0.10631	-0.10391
-0.36133	0.10015
0.50573	0.27871
0.76074	0.63582
-0.33583	0.15117
0.07220	-0.05289
0.48022	0.38074
0.30171	0.07465
0.14870	-0.10391
0.09770	-0.10391
-0.08081	0.04914
0.04670	0.22769
-0.20832	0.43176
0.65874	0.22769
0.09770	0.20219
0.04670	-0.12942
0.68424	-0.00188
0.53123	-0.07840
-0.69285	0.45726
-0.51434	0.32972
0.40372	0.25320
0.14870	-0.00188
0.02119	-0.15492
0.27621	0.12566
1.04126	0.45726
0.40372	0.15117
-0.51434	-0.18043
-0.41233	0.07465
0.14870	0.61031
0.40372	-0.07840
0.30171	-0.18043
0.22521	0.27871
0.35272	0.66132
-0.28482	0.02363
0.09770	-0.00188
-0.00431	-0.18043
0.19971	-0.00188
0.22521	-0.15492
0.19971	0.45726
0.17421	0.50828
-0.36133	0.02363
1.14327	-0.15492
0.09770	-0.18043
-0.20832	0.10015
-0.05531	0.40625
0.40372	0.55929
-0.00431	0.40625
0.32721	0.50828
0.27621	-0.25695
0.58223	0.22769
0.40372	-0.43551
-0.38683	0.27871
-0.08081	0.02363
0.73524	0.10015
-0.00431	-0.20594
-0.74385	0.20219
-0.41233	0.10015
0.65874	0.27871
0.88825	0.50828
-0.10631	0.10015
0.42922	-0.00188
0.12320	0.17668
0.09770	0.22769
0.27621	0.15117
0.19971	0.12566
0.14870	0.10015
0.40372	0.15117
0.17421	0.17668
-0.08081	0.22769
-0.23382	0.04914
0.02119	0.10015
0.35272	0.17668
0.27621	-0.23145
0.32721	0.25320
0.22521	0.22769
0.04670	0.38074
0.32721	0.22769
-0.08081	0.17668
-0.13181	0.02363
-0.00431	0.35523
0.19971	0.25320
-0.36133	0.25320
-0.10631	-0.58856
0.42922	-0.15492
0.60773	-0.35899
0.19971	0.30422
0.09770	1.19699
0.09770	0.10015
0.19971	-0.02739
0.14870	-0.25695
0.58223	0.58480
0.07220	0.25320
0.22521	-0.35899
0.27621	0.40625
-0.48884	0.43176
0.14870	0.43176
0.27621	0.17668
-0.38683	0.07465
0.22521	-0.25695
0.70974	-0.35899
-0.18282	-0.02739
0.22521	0.12566
-0.51434	0.04914
0.55673	0.48277
0.93925	0.48277
0.02119	0.25320
0.19971	0.15117
-0.13181	-0.02739
0.37822	-0.15492
0.25071	-0.05289
-0.08081	0.10015
-0.18282	-0.00188
-0.36133	0.43176
-0.05531	0.32972
-0.13181	0.15117
0.55673	0.22769
0.73524	0.02363
0.12320	0.15117
0.07220	0.10015
0.60773	0.17668
0.22521	0.15117
-0.15732	0.25320
0.14870	0.17668
0.19971	-0.05289
-0.18282	-0.15492
-0.23382	0.35523
0.45472	0.17668
0.19971	0.07465
0.14870	-0.25695
0.22521	-0.00188
0.09770	0.63582
0.02119	0.35523
0.09770	0.50828
-0.08081	-0.07840
0.76074	-0.25695
0.14870	0.32972
0.12320	0.43176
0.19971	0.04914
-0.08081	0.07465
0.22521	0.20219
-0.10631	0.07465
0.12320	0.07465
0.73524	0.17668
0.22521	0.61031
0.35272	-0.28246
-0.48884	-0.61406
-0.36133	-0.38449
0.30171	0.73785
0.32721	0.45726
0.19971	0.45726
0.42922	0.61031
-0.05531	0.45726
0.27621	0.15117
0.83725	0.02363
0.12320	-0.00188
-0.08081	0.10015
0.12320	0.07465
0.30171	0.02363
0.07220	0.02363
-0.13181	-0.00188
0.32721	0.10015
0.07220	0.32972
0.19971	0.22769
-0.15732	-0.15492
-0.43783	0.04914
0.91375	-0.05289
0.07220	0.30422
0.37822	0.25320
0.19971	0.50828
-0.08081	0.38074
0.04670	0.04914
0.27621	0.55929
0.53123	0.20219
0.12320	-0.23145
0.09770	-0.48652
0.27621	-0.25695
0.12320	0.32972
0.09770	0.45726
-0.25932	0.20219
-0.00431	-0.12942
0.32721	0.58480
0.37822	0.45726
0.76074	-0.05289
0.07220	0.04914
-0.10631	-0.02739
-0.02981	0.25320
0.12320	0.27871
0.04670	-0.05289
-0.31033	0.12566
0.14870	-0.00188
0.12320	0.07465
-0.18282	-0.05289
0.50573	0.30422
0.22521	-0.05289
-0.20832	0.15117
1.44929	0.30422
0.55673	0.58480
-0.53984	0.32972
-0.15732	0.04914
0.07220	-0.02739
0.09770	0.15117
-0.08081	0.15117
0.32721	0.27871
0.12320	-0.07840
0.02119	-0.12942
0.30171	-0.38449
0.17421	0.35523
0.27621	0.40625
0.19971	0.22769
0.14870	-0.38449
0.17421	0.43176
-0.08081	0.48277
-0.05531	0.17668
0.45472	0.07465
0.53123	0.25320
0.12320	0.25320
-0.05531	0.76336
-0.15732	-0.53754
0.25071	0.45726
0.19971	0.32972
0.09770	-0.05289
0.17421	0.02363
0.12320	-0.30797
0.12320	0.20219
-0.00431	0.10015
0.14870	0.32972
0.32721	0.43176
0.14870	0.07465
0.12320	0.17668
0.37822	0.25320
0.50573	0.20219
0.63323	0.04914
-0.69285	0.02363
0.14870	0.07465
0.60773	0.30422
0.14870	0.15117
-0.53984	-0.02739
-0.33583	-0.00188
0.30171	-0.00188
0.63323	0.35523
-0.20832	0.17668
0.04670	0.27871
0.27621	0.20219
0.19971	0.32972
0.48022	0.15117
0.27621	0.17668
0.14870	-0.05289
0.35272	-0.00188
0.40372	0.04914
0.02119	0.22769
-0.02981	0.76336
-0.05531	0.35523
0.09770	-0.35899
0.22521	-0.74160
0.14870	-0.23145
-0.41233	0.50828
0.04670	0.50828
0.55673	0.94191
0.27621	0.12566
-0.00431	0.27871
0.40372	0.25320
0.17421	-0.25695
-0.13181	-0.07840
0.12320	0.66132
0.32721	-0.00188
0.07220	-0.23145
0.04670	-0.30797
-0.05531	0.63582
0.30171	0.07465
0.17421	-0.66508
-0.02981	0.40625
0.58223	0.89089
-0.10631	0.43176
0.04670	0.35523
0.12320	0.04914
0.02119	-0.12942
-0.08081	0.12566
0.48022	-0.05289
-0.00431	-0.02739
0.17421	-0.15492
0.53123	0.10015
0.40372	0.27871
0.22521	0.43176
-0.20832	0.20219
0.22521	0.17668
0.22521	0.20219
-0.43783	0.15117
0.07220	0.43176
0.93925	0.22769
-0.02981	0.15117
-0.13181	0.07465
0.45472	-0.00188
0.09770	0.02363
0.25071	0.22769
0.17421	0.15117
-0.23382	0.15117
0.02119	0.35523
-0.08081	-0.33348
0.07220	-0.23145
0.60773	0.17668
0.53123	0.35523
-0.10631	0.45726
0.02119	0.43176
-0.02981	0.63582
0.19971	0.02363
0.14870	-0.25695
0.22521	-0.15492
0.14870	-0.07840
0.17421	0.50828
0.32721	0.25320
0.17421	-0.33348
-0.13181	0.25320
-0.10631	0.43176
0.30171	0.35523
0.60773	0.30422
0.02119	-0.23145
-0.53984	-0.51203
0.02119	-0.20594
0.81175	0.66132
0.78624	0.50828
0.14870	0.27871
-0.18282	-0.00188
-0.20832	0.20219
0.07220	0.32972
0.37822	0.38074
-0.00431	-0.12942
0.37822	-0.23145
-0.41233	0.07465
-0.02981	0.12566
0.48022	0.10015
0.93925	-0.00188
0.30171	0.53379
-0.38683	0.32972
-0.64185	0.27871
0.35272	0.35523
0.35272	-0.00188
0.35272	0.17668
-0.02981	0.07465
0.50573	0.30422
0.32721	-0.05289
0.09770	0.50828
-0.10631	-0.28246
-0.08081	0.02363
0.12320	0.02363
0.04670	0.25320
0.50573	0.48277
-0.08081	0.68683
0.17421	-0.02739
0.22521	-0.30797
0.12320	-0.18043
-0.10631	0.20219
0.17421	0.20219
0.02119	0.10015
0.37822	0.53379
-0.02981	0.63582
0.12320	0.02363
0.04670	0.81437
0.14870	-0.38449
0.48022	-0.30797
0.35272	-0.51203
0.42922	0.61031
-1.22839	0.43176
-0.05531	0.22769
1.34728	0.40625
0.09770	0.02363
0.02119	0.15117
0.25071	0.02363
0.40372	0.04914
-0.33583	-0.00188
0.17421	-0.23145
0.96476	0.22769
0.27621	0.35523
-0.48884	0.35523
-0.28482	0.27871
0.35272	0.35523
0.27621	0.35523
0.09770	0.20219
0.09770	0.07465
-0.02981	0.02363
0.30171	-0.18043
0.17421	0.12566
0.09770	0.35523
0.19971	-0.12942
0.12320	0.04914
0.35272	0.20219
0.37822	0.40625
-0.20832	0.20219
0.14870	0.15117
0.27621	0.04914
0.22521	0.20219
0.30171	0.20219
0.32721	0.25320
-0.41233	-0.15492
0.14870	0.02363
0.19971	0.38074
-0.00431	0.04914
0.32721	0.27871
0.17421	0.04914
0.17421	0.22769
0.12320	-0.00188
0.12320	-0.15492
0.25071	-0.51203
-0.00431	-0.02739
0.09770	0.45726
0.27621	0.91640
0.22521	0.48277
-0.05531	0.27871
-0.02981	0.38074
0.42922	0.17668
0.07220	-0.41000
0.09770	-0.23145
-0.02981	0.22769
0.02119	-0.53754
0.14870	-0.15492
0.25071	0.20219
0.30171	0.55929
0.04670	0.35523
0.17421	0.35523
-0.48884	0.40625
0.58223	0.04914
0.86275	0.07465
0.12320	0.04914
0.12320	0.30422
0.22521	0.22769
-0.13181	0.04914
-0.41233	0.04914
-0.20832	-0.00188
0.68424	0.10015
0.27621	-0.07840
0.02119	0.20219
0.12320	0.22769
0.14870	0.20219
0.12320	0.07465
0.25071	0.17668
0.27621	0.20219
0.09770	0.22769
0.04670	0.15117
0.35272	0.38074
0.40372	-0.00188
0.12320	0.15117
0.09770	0.22769
-0.15732	-0.20594
0.25071	0.25320
-0.10631	0.15117
0.12320	-0.38449
0.19971	0.63582
0.25071	1.04394
0.25071	-0.12942
0.19971	-0.38449
0.09770	-0.56305
-0.05531	0.32972
0.27621	0.86539
0.35272	0.32972
-0.36133	0.15117
0.19971	0.38074
-0.08081	-0.12942
0.02119	-0.05289
0.12320	0.30422
0.25071	-0.15492
-0.08081	-0.05289
0.76074	0.25320
0.40372	0.50828
0.25071	-0.00188
-0.05531	-0.05289
-0.43783	-0.07840
0.73524	-0.25695
0.53123	-0.10391
-0.56534	0.15117
-0.10631	0.94191
0.42922	0.32972
0.19971	0.25320
0.27621	0.25320
-0.10631	0.10015
-0.10631	-0.15492
0.25071	-0.02739
0.07220	0.32972
0.14870	0.30422
0.60773	0.15117
0.27621	-0.05289
0.09770	-0.07840
-0.43783	0.25320
0.25071	0.15117
0.63323	0.45726
0.40372	0.53379
-0.00431	0.22769
-0.00431	-0.15492
-0.13181	0.17668
0.22521	-0.56305
0.09770	-0.15492
0.58223	0.02363
0.17421	1.09496
-0.08081	0.25320
0.12320	0.10015
-0.28482	0.22769
0.25071	0.20219
0.27621	-0.12942
0.40372	-0.00188
0.04670	0.22769
0.02119	-0.23145
0.60773	0.15117
0.09770	0.43176
0.09770	0.43176
0.14870	-0.05289
0.25071	0.07465
0.12320	0.35523
0.22521	0.30422
0.07220	-0.05289
-0.43783	0.10015
-0.38683	0.35523
0.78624	-0.23145
-0.05531	0.02363
0.45472	0.17668
0.73524	0.15117
-0.15732	0.55929
-0.41233	0.12566
0.12320	0.07465
0.30171	0.17668
-0.28482	-0.00188
0.19971	0.27871
0.30171	0.12566
0.09770	0.10015
0.19971	0.07465
0.55673	0.20219
0.27621	0.17668
0.27621	0.17668
0.04670	0.20219
-0.15732	0.15117
0.27621	0.12566
0.04670	0.12566
0.19971	0.25320
0.12320	-0.18043
0.22521	0.10015
0.12320	0.17668
0.12320	0.15117
0.07220	-0.15492
0.02119	0.35523
0.25071	0.07465
-0.02981	0.04914
0.22521	0.17668
0.09770	0.45726
0.12320	0.38074
-0.10631	0.20219
0.37822	-0.56305
0.14870	0.12566
-0.43783	0.30422
0.14870	0.45726
0.48022	0.25320
0.22521	-0.05289
0.25071	0.25320
0.73524	0.20219
0.58223	0.35523
-0.48884	0.07465
0.02119	0.17668
-0.00431	0.35523
-0.23382	0.02363
0.22521	-0.20594
0.04670	0.04914
0.02119	0.27871
0.32721	0.27871
0.02119	0.20219
-0.25932	0.25320
0.35272	0.15117
0.58223	-0.00188
0.53123	0.27871
-0.13181	0.07465
0.32721	0.30422
-0.15732	-0.15492
0.14870	-0.25695
0.22521	0.40625
0.02119	0.32972
-0.23382	0.12566
0.22521	0.20219
0.02119	0.43176
0.22521	0.20219
0.22521	-0.07840
0.07220	0.43176
0.09770	0.12566
0.09770	-0.00188
0.42922	0.25320
0.35272	0.12566
0.14870	-0.05289
0.17421	-0.20594
0.09770	0.73785
0.17421	0.55929
-0.02981	0.20219
0.48022	0.17668
-0.00431	-0.05289
0.25071	0.12566
0.14870	0.10015
-0.10631	-0.07840
-0.25932	-0.00188
0.22521	-0.20594
0.32721	-0.28246
0.63323	0.27871
0.02119	0.53379
0.55673	0.43176
0.37822	0.61031
-0.48884	0.10015
-0.48884	0.15117
0.09770	0.10015
0.42922	0.25320
0.53123	0.20219
0.27621	0.35523
-0.28482	-0.23145
-0.00431	-0.30797
0.12320	0.48277
0.40372	-0.20594
0.30171	-0.05289
0.27621	0.25320
0.07220	0.55929
0.07220	0.10015
0.40372	0.02363
0.02119	-0.35899
-0.25932	0.27871
0.42922	0.66132
0.12320	0.38074
0.22521	0.45726
0.09770	0.55929
0.14870	-0.48652
0.02119	-0.51203
0.09770	0.40625
0.37822	-0.30797
-0.08081	-0.10391
-0.13181	0.10015
0.70974	0.61031
0.37822	0.55929
0.22521	0.30422
-0.28482	-0.15492
-0.18282	0.12566
0.70974	0.40625
-0.08081	0.04914
0.09770	0.30422
0.12320	0.04914
0.04670	0.12566
0.02119	-0.20594
0.53123	-0.28246
-0.33583	-0.18043
0.22521	0.20219
0.27621	0.81437
-0.00431	0.15117
0.22521	0.12566
0.45472	0.25320
0.14870	0.27871
0.17421	0.30422
0.50573	0.50828
-0.18282	-0.30797
-0.46334	-0.02739
0.22521	-0.41000
0.40372	0.38074
0.09770	0.55929
-0.02981	0.66132
0.07220	-0.12942
-0.08081	-0.07840
0.12320	-0.46102
0.35272	0.35523
0.07220	0.55929
0.17421	0.17668
0.22521	0.17668
0.14870	-0.02739
0.02119	0.07465
-0.08081	0.68683
0.17421	0.27871
0.35272	-0.28246
0.27621	-0.25695
0.19971	-0.71609
0.19971	0.35523
-0.02981	0.32972
0.48022	0.63582
0.40372	0.38074
-0.43783	0.50828
-0.05531	0.38074
-0.00431	0.25320
0.32721	0.04914
0.22521	-0.15492
0.17421	-0.35899
0.22521	-0.18043
0.35272	0.68683
0.14870	0.02363
-0.00431	0.10015
-0.33583	0.38074
0.07220	0.38074
-0.18282	0.30422
0.48022	-0.05289
0.78624	0.04914
0.22521	0.10015
-0.08081	-0.05289
0.19971	-0.05289
0.32721	0.22769
-0.15732	0.22769
0.32721	0.43176
0.14870	0.35523
0.22521	-0.00188
0.07220	-0.25695
-0.13181	-0.12942
-0.33583	0.17668
0.27621	1.22250
-0.08081	0.32972
-0.18282	-0.51203
0.73524	-0.30797
0.40372	-0.00188
0.35272	0.30422
0.30171	0.30422
0.12320	0.27871
-0.00431	0.04914
0.30171	0.38074
0.12320	0.89089
0.02119	0.04914
0.22521	-0.35899
0.09770	0.50828
-0.41233	-0.38449
0.09770	-0.30797
0.45472	0.27871
0.19971	0.38074
0.12320	0.50828
-0.28482	0.45726
0.32721	-0.10391
0.35272	-0.20594
-0.05531	0.10015
0.07220	0.40625
0.30171	0.63582
0.27621	0.12566
0.37822	0.02363
-0.02981	0.25320
0.37822	-0.05289
0.40372	-0.10391
-0.43783	-0.18043
-0.41233	0.30422
-0.00431	0.30422
0.48022	0.22769
0.02119	0.10015
0.35272	0.12566
0.30171	0.22769
0.02119	0.40625
-0.33583	-0.02739
0.14870	-0.46102
0.22521	-0.05289
0.37822	0.25320
0.50573	0.61031
0.19971	0.10015
-0.15732	-0.23145
0.27621	0.25320
0.12320	0.50828
0.22521	0.27871
0.25071	-0.20594
0.04670	0.25320
-0.08081	-0.20594
-0.05531	0.71234
0.30171	-0.18043
0.25071	-0.02739
-0.08081	-0.05289
0.02119	0.45726
0.07220	0.68683
0.02119	0.17668
0.70974	-0.10391
0.07220	0.22769
0.14870	0.45726
0.17421	-0.00188
0.04670	-0.74160
0.32721	-0.46102
0.40372	-0.00188
-0.25932	0.45726
-0.23382	0.61031
0.81175	0.48277
0.12320	0.45726
-0.48884	0.15117
0.22521	-0.00188
-0.28482	-0.00188
0.32721	0.12566
-0.15732	0.27871
0.68424	0.20219
0.58223	0.17668
-0.08081	-0.07840
0.04670	0.02363
0.48022	-0.07840
0.30171	0.20219
-0.38683	0.10015
-0.41233	0.40625
0.37822	0.04914
0.53123	0.22769
0.30171	0.25320
-0.08081	0.15117
-0.10631	0.04914
-0.02981	0.32972
0.30171	-0.02739
0.17421	0.22769
0.14870	0.25320
0.40372	0.10015
0.32721	0.76336
0.35272	-0.56305
-0.20832	-0.28246
0.14870	-0.48652
0.07220	0.17668
0.25071	0.50828
0.14870	0.55929
0.25071	0.78886
-0.15732	0.04914
-0.25932	0.38074
0.32721	0.27871
0.02119	0.15117
0.42922	-0.07840
0.50573	-0.05289
0.07220	0.48277
-0.08081	-0.12942
0.09770	-0.30797
0.25071	-0.81812
0.25071	0.20219
-0.13181	0.55929
0.27621	0.73785
0.58223	0.25320
-0.08081	-0.10391
-0.23382	-0.15492
0.17421	0.30422
-0.10631	0.20219
0.70974	0.45726
0.25071	0.07465
-0.36133	0.04914
-0.08081	-0.12942
0.17421	0.20219
0.12320	0.17668
0.25071	0.04914
-0.31033	0.07465
0.60773	0.15117
0.60773	0.25320
-0.00431	0.02363
0.30171	-0.07840
0.27621	0.32972
0.25071	0.22769
-0.23382	0.04914
-0.08081	0.27871
0.32721	0.22769
-0.08081	-0.05289
0.42922	0.22769
-0.08081	0.04914
0.22521	0.38074
-0.08081	0.27871
-0.02981	-0.43551
-0.05531	-0.35899
0.55673	0.32972
0.40372	0.15117
0.19971	0.35523
0.02119	0.55929
-0.18282	0.45726
0.32721	-0.10391
0.32721	0.38074
0.09770	0.17668
0.32721	-0.43551
0.45472	-0.05289
0.17421	0.32972
-0.76936	-0.07840
-0.15732	-0.20594
0.27621	0.38074
0.42922	0.43176
0.22521	-0.00188
0.17421	-0.05289
0.53123	-0.25695
0.12320	-0.23145
0.04670	0.30422
0.02119	-0.00188
-0.10631	0.27871
0.37822	0.73785
0.32721	0.40625
0.37822	0.12566
-0.13181	-0.02739
-0.20832	0.10015
0.37822	0.20219
0.04670	0.15117
-0.43783	0.32972
0.17421	0.15117
0.30171	0.04914
0.12320	0.02363
0.86275	0.32972
0.30171	-0.15492
-0.36133	0.04914
0.07220	0.25320
0.35272	0.45726
0.58223	0.25320
-0.05531	-0.15492
0.27621	-0.07840
0.32721	0.15117
0.19971	0.38074
-0.00431	0.38074
-0.64185	0.15117
-0.31033	0.43176
-0.05531	0.10015
0.09770	-0.18043
0.40372	0.15117
0.32721	0.55929
0.53123	-0.00188
0.25071	-0.25695
0.19971	0.25320
0.35272	0.66132
0.17421	0.25320
0.12320	0.25320
-0.53984	-0.05289
0.22521	-0.07840
0.40372	-0.48652
0.35272	-0.12942
-0.20832	0.35523
-0.15732	0.94191
1.14327	0.27871
0.53123	-0.25695
-0.69285	-0.38449
-0.23382	0.50828
-0.08081	0.32972
0.58223	0.35523
0.14870	0.10015
0.17421	-0.20594
0.07220	0.40625
0.30171	-0.07840
0.32721	0.30422
0.07220	0.02363
-0.48884	0.07465
0.22521	0.32972
0.12320	0.50828
0.42922	-0.25695
0.02119	-0.35899
0.58223	-0.02739
0.32721	0.15117
-0.00431	0.38074
0.02119	0.35523
-0.15732	0.27871
0.19971	0.50828
0.35272	0.25320
0.55673	0.10015
-0.08081	0.04914
0.12320	0.20219
0.32721	-0.00188
-0.13181	0.12566
0.02119	0.20219
-0.13181	-0.07840
0.09770	0.07465
0.12320	0.30422
0.32721	0.04914
0.07220	-0.00188
0.37822	0.35523
0.78624	0.27871
0.14870	0.53379
-0.25932	-0.38449
-0.00431	0.22769
0.19971	0.45726
0.07220	0.15117
0.09770	0.71234
-0.38683	-0.07840
0.12320	-0.30797
0.81175	0.15117
-0.18282	0.30422
0.19971	0.30422
0.22521	0.30422
0.48022	0.20219
0.12320	-0.10391
0.12320	-0.15492
0.02119	0.17668
0.07220	0.17668
0.19971	0.43176
-0.13181	-0.02739
0.25071	-0.20594
0.55673	0.20219
0.02119	0.40625
-0.13181	-0.02739
0.50573	0.25320
-0.00431	0.25320
-0.20832	0.35523
-0.08081	-0.10391
0.09770	0.15117
0.37822	0.17668
0.25071	0.50828
0.42922	0.15117
-0.00431	-0.58856
-0.10631	-0.00188
-0.51434	0.53379
0.30171	0.58480
0.17421	-0.15492
0.50573	0.35523
0.14870	0.22769
0.35272	0.86539
0.53123	0.15117
0.32721	-0.25695
-0.10631	-0.30797
-0.08081	0.20219
-0.25932	-0.20594
0.02119	0.12566
0.86275	0.38074
0.32721	0.27871
-0.20832	0.15117
0.02119	0.35523
0.27621	0.02363
-0.33583	-0.02739
0.22521	-0.02739
0.12320	0.63582
0.42922	-0.15492
0.07220	0.02363
0.50573	0.25320
-0.13181	0.20219
-0.18282	0.22769
1.04126	0.45726
0.53123	0.12566
0.02119	0.15117
-0.38683	-0.28246
-0.28482	0.91640
0.30171	-0.05289
0.27621	-0.05289
0.19971	0.35523
0.19971	0.12566
0.19971	0.27871
0.02119	-0.18043
0.53123	0.45726
0.19971	-0.02739
-0.48884	-0.10391
0.19971	0.55929
0.83725	-0.18043
0.53123	0.02363
-0.20832	0.22769
-0.25932	0.38074
0.02119	-0.00188
0.53123	-0.07840
0.04670	0.27871
-0.23382	0.32972
-0.43783	0.04914
1.27078	-0.18043
0.45472	-0.07840
-0.08081	0.43176
0.04670	0.32972
0.25071	0.55929
-0.02981	-0.35899
-0.08081	-0.23145
-0.00431	0.10015
0.32721	0.35523
0.07220	0.73785
0.30171	0.27871
0.04670	-0.61406
0.22521	0.25320
0.09770	0.40625
-0.00431	0.25320
0.19971	0.25320
0.60773	0.38074
0.14870	0.12566
0.12320	-0.05289
0.02119	-0.30797
-0.48884	0.10015
0.17421	0.40625
0.35272	0.25320
0.58223	-0.00188
0.53123	0.27871
0.45472	0.12566
0.04670	0.17668
-0.25932	-0.00188
-0.28482	0.38074
0.12320	0.27871
-0.10631	-0.05289
0.40372	-0.18043
0.40372	-0.33348
0.32721	-0.05289
0.02119	0.17668
0.07220	0.58480
0.19971	0.45726
0.09770	0.63582
0.02119	0.48277
-0.02981	0.07465
0.30171	0.02363
0.17421	-0.07840
-0.08081	0.04914
-0.05531	-0.02739
0.58223	0.25320
0.27621	0.02363
0.27621	-0.05289
0.19971	0.94191
-0.18282	-0.84363
0.42922	-0.18043
0.32721	-0.05289
-0.25932	0.32972
0.04670	0.78886
0.12320	0.15117
0.07220	0.40625
-0.18282	0.12566
0.30171	0.22769
0.70974	0.20219
0.53123	0.22769
0.40372	0.04914
-0.15732	-0.10391
-0.13181	0.10015
0.09770	-0.05289
-0.02981	-0.41000
-0.08081	0.22769
0.12320	0.43176
0.40372	0.43176
0.02119	0.22769
0.04670	-0.02739
0.30171	-0.10391
-0.05531	0.17668
0.14870	0.20219
-0.25932	0.27871
0.22521	0.25320
0.35272	-0.12942
0.42922	-0.05289
0.30171	0.25320
0.02119	0.32972
-0.05531	0.15117
0.22521	0.20219
-0.28482	0.12566
0.50573	-0.76711
0.30171	0.55929
0.02119	0.27871
0.02119	0.27871
0.42922	0.61031
0.32721	-0.05289
-0.59084	-0.07840
-0.33583	0.10015
0.02119	0.43176
0.09770	-0.07840
0.48022	0.10015
0.50573	0.20219
0.48022	0.17668
0.37822	0.04914
0.22521	-0.18043
0.14870	0.15117
-0.18282	0.15117
-0.08081	0.50828
0.09770	0.38074
0.25071	-0.41000
0.07220	0.35523
0.32721	0.25320
0.12320	0.15117
0.07220	-0.12942
-0.43783	-0.00188
-0.18282	0.43176
1.16877	0.55929
0.42922	0.32972
-0.02981	0.04914
-0.10631	0.20219
0.35272	-0.05289
0.12320	0.12566
0.22521	0.17668
0.50573	0.15117
-0.05531	-0.15492
-0.05531	0.04914
0.12320	0.20219
0.09770	-0.20594
0.12320	0.02363
0.14870	0.89089
0.07220	0.07465
-0.08081	-0.20594
0.09770	-0.15492
0.53123	0.45726
0.32721	0.45726
0.27621	0.35523
-0.84586	0.20219
0.22521	0.30422
0.42922	-0.18043
0.42922	-0.18043
0.07220	-0.33348
0.37822	0.66132
0.19971	0.71234
-0.10631	0.50828
0.14870	0.20219
-0.18282	-0.15492
0.22521	-0.02739
0.22521	0.12566
0.30171	0.22769
-0.15732	0.04914
0.07220	0.04914
0.37822	0.27871
0.14870	0.12566
-0.05531	-0.10391
0.45472	-0.15492
0.07220	-0.02739
0.27621	0.30422
0.02119	0.38074
-0.10631	0.27871
0.32721	0.66132
0.30171	0.38074
-0.13181	-0.23145
-0.10631	-0.56305
0.19971	0.48277
0.19971	0.15117
-0.18282	0.53379
0.30171	0.71234
0.73524	0.25320
0.19971	0.35523
-0.02981	-0.43551
0.14870	0.07465
-0.05531	0.15117
0.32721	0.07465
0.07220	0.12566
0.09770	0.17668
-0.00431	0.15117
0.02119	0.15117
0.22521	0.55929
0.14870	0.07465
0.37822	0.04914
0.02119	-0.12942
0.22521	0.04914
0.17421	0.04914
-0.02981	0.63582
-0.00431	0.25320
0.17421	0.17668
0.02119	0.61031
-0.20832	-0.12942
0.32721	-0.15492
0.70974	-0.05289
0.68424	-0.25695
0.07220	0.02363
0.22521	0.15117
-0.15732	0.63582
-0.25932	0.38074
-0.28482	0.15117
0.45472	0.07465
-0.08081	-0.02739
0.42922	0.15117
0.37822	0.32972
-0.18282	0.04914
0.27621	0.15117
-0.20832	0.17668
0.12320	-0.05289
0.50573	0.20219
0.63323	0.30422
0.55673	0.10015
0.32721	0.20219
-0.05531	0.10015
-0.38683	0.10015
-0.25932	0.22769
0.12320	0.22769
0.09770	0.20219
0.40372	0.20219
0.17421	0.30422
0.50573	-0.00188
0.50573	-0.05289
0.07220	0.17668
-0.15732	0.50828
-0.18282	-0.15492
-0.02981	-0.48652
0.12320	0.73785
0.19971	0.04914
0.25071	0.25320
0.14870	-0.20594
0.09770	0.58480
0.04670	0.35523
0.27621	0.50828
0.25071	0.02363
-0.05531	-0.25695
0.32721	-0.00188
0.22521	0.35523
0.27621	0.25320
-0.00431	0.32972
0.27621	0.35523
0.09770	-0.00188
0.35272	-0.56305
0.30171	-0.05289
-0.10631	0.27871
0.07220	0.20219
0.35272	0.30422
-0.71835	-0.05289
0.19971	0.15117
0.22521	0.22769
-0.05531	0.25320
0.42922	0.45726
0.42922	-0.15492
0.88825	0.12566
-0.10631	0.07465
-0.53984	0.15117
0.25071	0.25320
0.22521	-0.02739
0.09770	0.10015
-0.23382	-0.00188
0.35272	0.32972
0.30171	0.15117
0.09770	0.25320
0.02119	0.30422
0.27621	0.71234
0.27621	0.02363
0.14870	0.73785
0.14870	-0.35899
0.07220	-0.56305
0.14870	-1.20074
0.32721	0.89089
0.14870	0.81437
0.02119	0.45726
0.02119	-0.41000
0.25071	0.30422
0.19971	0.43176
-0.05531	-0.18043
0.12320	0.66132
0.09770	0.20219
0.50573	-0.43551
0.27621	-0.51203
-0.10631	0.32972
-0.00431	0.27871
-0.36133	0.27871
0.30171	0.15117
0.50573	0.12566
0.30171	0.15117
0.02119	0.04914
-0.25932	-0.12942
0.37822	0.30422
0.45472	0.32972
0.30171	0.17668
-1.25389	0.15117
0.37822	-0.02739
1.19427	0.12566
-0.08081	0.20219
-0.18282	-0.12942
-0.08081	0.07465
-0.08081	0.27871
0.25071	0.25320
0.53123	0.25320
0.12320	0.20219
0.42922	0.15117
-0.08081	-0.02739
-0.10631	-0.18043
0.09770	0.17668
0.14870	0.43176
0.19971	0.25320
0.07220	0.25320
0.40372	0.25320
0.22521	0.10015
-0.28482	0.25320
0.22521	0.35523
0.25071	-0.02739
0.22521	-0.05289
0.35272	-0.05289
0.48022	-0.25695
-0.28482	0.04914
-0.56534	0.22769
0.53123	0.20219
0.58223	0.71234
0.02119	0.22769
-0.41233	-0.07840
0.25071	0.78886
0.40372	-0.12942
0.12320	-0.05289
0.22521	0.17668
0.12320	0.73785
0.19971	0.32972
0.22521	-0.84363
0.12320	-1.17523
-0.05531	0.45726
-0.33583	0.50828
0.30171	0.63582
0.30171	0.58480
0.17421	0.12566
0.27621	0.12566
0.42922	0.17668
-0.00431	0.30422
-0.33583	0.10015
1.50029	-0.20594
0.30171	0.04914
-0.33583	0.17668
-0.71835	-0.15492
0.27621	-0.18043
0.17421	0.45726
-0.02981	0.71234
-0.00431	0.32972
0.12320	-0.07840
0.48022	-0.07840
0.40372	0.04914
0.27621	0.22769
0.27621	0.27871
0.14870	0.55929
-0.20832	0.17668
-0.20832	-0.00188
0.27621	-0.35899
0.35272	0.22769
0.17421	0.35523
-0.15732	-0.00188
0.27621	-0.12942
0.42922	-0.10391
0.63323	0.73785
-0.13181	-0.25695
-0.25932	0.20219
-0.31033	0.27871
0.37822	0.35523
1.01576	0.45726
-0.46334	0.27871
0.14870	-0.23145
0.14870	0.32972
-0.28482	0.15117
0.19971	0.25320
0.27621	0.35523
0.35272	-0.18043
0.22521	0.02363
0.25071	-0.00188
-0.00431	-0.15492
-0.25932	0.15117
0.19971	0.10015
0.09770	0.32972
0.48022	0.38074
0.35272	0.38074
0.35272	0.30422
0.25071	-0.38449
0.07220	-0.69059
-0.10631	0.04914
-0.05531	0.48277
-0.08081	0.63582
-0.18282	0.27871
0.37822	0.15117
0.55673	0.30422
0.40372	0.45726
0.09770	0.30422
-0.28482	0.15117
0.07220	0.20219
0.14870	-0.38449
0.32721	-0.28246
0.68424	-0.23145
0.30171	0.07465
-0.05531	0.20219
-0.00431	0.45726
-0.20832	0.25320
-0.28482	0.22769
0.42922	0.32972
0.65874	0.04914
0.14870	0.53379
-0.05531	0.83988
0.25071	-0.99668
-0.05531	-0.66508
0.60773	0.12566
0.17421	0.63582
0.12320	0.61031
-0.36133	0.30422
-0.23382	0.45726
0.12320	0.35523
0.19971	0.25320
0.25071	0.25320
0.12320	-0.41000
0.53123	0.10015
0.02119	0.15117
0.07220	0.04914
-0.00431	-0.10391
0.02119	0.07465
0.40372	0.10015
0.27621	0.10015
-0.20832	0.25320
0.40372	0.32972
-0.38683	0.32972
0.30171	0.10015
0.22521	-0.05289
0.22521	0.48277
0.25071	-0.48652
-0.08081	0.02363
0.50573	0.35523
-0.20832	0.63582
0.12320	0.43176
0.45472	0.43176
-0.10631	-0.05289
0.07220	0.15117
-0.15732	-0.10391
-0.33583	0.07465
0.17421	0.04914
0.58223	-0.20594
0.32721	0.17668
0.40372	0.30422
-0.23382	0.40625
0.09770	-0.15492
0.02119	-0.18043
0.37822	-0.05289
0.63323	0.40625
-0.31033	0.53379
-0.08081	0.15117
0.42922	0.15117
0.07220	0.15117
-0.13181	0.02363
-0.02981	0.02363
0.19971	0.15117
0.42922	0.76336
-0.05531	0.20219
-0.00431	-0.89465
0.50573	-0.48652
0.07220	0.12566
0.40372	1.01843
0.32721	1.04394
0.04670	-0.25695
-0.18282	-0.05289
0.19971	0.12566
0.14870	0.10015
0.09770	0.38074
0.32721	0.07465
0.07220	0.32972
0.22521	0.12566
0.12320	0.25320
0.19971	-0.05289
-0.31033	0.15117
-0.10631	0.20219
0.50573	0.38074
0.48022	-0.41000
-0.33583	0.07465
0.42922	-0.02739
1.01576	0.04914
-0.38683	0.66132
-0.61635	0.55929
0.32721	-0.02739
0.12320	-0.23145
0.22521	0.38074
0.42922	0.30422
0.48022	0.30422
0.27621	0.10015
-0.31033	-0.02739
-0.00431	0.22769
0.25071	-0.18043
-0.05531	-0.18043
0.02119	0.15117
0.30171	0.40625
0.32721	-0.10391
0.02119	0.40625
0.12320	0.30422
0.09770	0.30422
0.30171	0.04914
0.22521	0.12566
0.48022	-0.00188
0.22521	0.30422
0.02119	0.25320
-0.23382	0.10015
-0.05531	-0.07840
0.14870	0.12566
0.22521	0.22769
0.19971	-0.15492
0.04670	0.89089
0.25071	-0.05289
0.37822	-0.05289
0.19971	0.02363
0.25071	0.22769
0.35272	0.10015
-0.51434	0.04914
0.02119	0.15117
0.45472	0.27871
0.17421	0.25320
0.17421	0.22769
0.17421	0.10015
0.35272	0.43176
-0.20832	-0.33348
0.45472	-0.12942
0.48022	-0.05289
-0.02981	0.45726
-0.05531	0.04914
0.22521	0.20219
-0.31033	0.20219
0.37822	0.25320
0.37822	0.17668
-0.02981	0.25320
0.09770	-0.05289
0.17421	0.10015
0.09770	0.38074
0.17421	0.17668
0.09770	0.32972
0.12320	0.10015
-0.02981	0.04914
0.40372	-0.25695
0.22521	0.20219
0.19971	0.50828
0.12320	0.12566
0.19971	-0.38449
0.02119	0.45726
0.07220	0.66132
0.30171	0.04914
0.17421	0.02363
0.07220	0.17668
0.12320	0.10015
0.22521	0.02363
0.12320	-0.18043
0.09770	0.30422
0.04670	0.12566
0.48022	0.38074
0.25071	0.20219
0.27621	-0.48652
-0.00431	-0.05289
0.14870	0.35523
-0.10631	0.45726
0.04670	0.22769
0.07220	0.12566
0.35272	-0.41000
-0.28482	-0.05289
0.22521	0.45726
0.37822	0.40625
0.48022	0.25320
0.02119	0.15117
-0.23382	0.15117
0.09770	0.04914
0.07220	0.10015
0.63323	0.04914
0.02119	0.12566
-0.41233	0.48277
0.22521	-0.05289
0.09770	-0.25695
0.42922	0.68683
0.37822	0.35523
0.42922	0.20219
0.07220	-0.02739
0.02119	0.25320
-0.00431	-0.35899
0.04670	0.58480
-0.10631	0.43176
0.09770	0.15117
-0.15732	0.35523
0.02119	-0.18043
0.48022	0.10015
0.27621	-0.02739
0.27621	0.66132
0.50573	0.12566
0.27621	0.48277
-0.10631	-0.18043
-0.08081	0.15117
0.32721	0.35523
0.22521	0.17668
-0.08081	-0.02739
0.07220	-0.02739
0.02119	-0.00188
0.50573	-0.02739
0.22521	-0.12942
0.14870	0.32972
-0.00431	0.15117
-0.56534	0.20219
-0.51434	0.32972
1.27078	0.07465
0.58223	0.66132
0.22521	0.02363
-0.00431	0.02363
-0.10631	-0.07840
0.27621	0.58480
-0.00431	0.32972
0.14870	0.32972
0.19971	0.02363
-0.13181	-0.20594
-0.02981	0.30422
0.09770	0.07465
0.32721	0.30422
0.27621	0.25320
0.12320	-0.12942
0.32721	-0.25695
0.02119	-0.07840
-0.10631	0.35523
-0.28482	-0.00188
0.40372	0.61031
0.27621	-0.23145
0.50573	0.25320
-0.15732	0.04914
0.09770	0.61031
0.12320	-0.05289
-0.08081	0.78886
0.45472	-0.30797
0.55673	-0.20594
0.37822	0.45726
0.14870	0.53379
-0.00431	0.25320
0.07220	-0.10391
0.07220	-0.46102
0.32721	0.22769
0.19971	0.15117
-0.02981	0.20219
-0.25932	0.53379
-0.18282	-0.10391
0.14870	0.20219
0.09770	-0.07840
0.32721	-0.02739
0.27621	0.20219
0.50573	0.20219
0.30171	0.25320
0.22521	0.07465
0.42922	0.50828
0.22521	0.12566
-0.33583	-0.00188
-0.43783	-0.18043
0.27621	0.32972
0.30171	0.20219
0.40372	0.10015
0.09770	-0.05289
0.17421	0.55929
0.12320	0.27871
0.17421	0.02363
0.07220	-0.00188
0.32721	0.32972
0.27621	0.20219
-0.10631	0.27871
0.04670	0.27871
0.35272	0.15117
0.02119	0.35523
0.27621	0.15117
0.37822	0.25320
0.48022	-0.10391
0.30171	-0.48652
-0.08081	0.32972
-0.38683	0.17668
0.02119	-0.00188
0.30171	0.45726
0.37822	0.35523
0.25071	0.48277
0.17421	0.27871
0.40372	-0.07840
0.32721	0.43176
0.07220	0.48277
-0.10631	-0.30797
-0.15732	-0.23145
0.73524	0.27871
-0.28482	-0.05289
-0.08081	-0.00188
0.25071	0.30422
0.25071	0.04914
0.22521	0.27871
0.42922	0.38074
-0.28482	0.32972
0.14870	0.50828
0.42922	-0.15492
-0.05531	0.22769
-0.38683	0.30422
0.93925	0.35523
0.58223	0.07465
0.07220	-0.18043
-0.18282	-0.23145
0.22521	0.07465
0.32721	0.32972
0.27621	0.25320
0.14870	-0.07840
-0.71835	0.20219
-0.69285	0.25320
0.40372	0.27871
0.30171	0.15117
0.40372	0.20219
0.53123	0.20219
0.25071	0.25320
0.22521	0.20219
0.37822	-0.02739
0.50573	0.04914
-0.53984	-0.05289
-0.18282	0.04914
0.14870	0.25320
0.19971	0.45726
0.42922	0.66132
0.17421	0.22769
0.09770	0.78886
0.02119	-1.27726
0.30171	-0.28246
0.07220	0.10015
0.35272	0.25320
0.25071	0.50828
-0.02981	0.58480
-0.25932	0.27871
0.09770	-0.05289
0.25071	0.20219
0.19971	0.02363
0.27621	0.81437
0.17421	-0.84363
0.27621	-0.48652
0.04670	0.22769
0.17421	0.40625
0.35272	0.50828
-0.05531	0.43176
-0.08081	0.32972
0.70974	-0.05289
0.30171	0.07465
-0.64185	0.22769
-0.92237	0.15117
0.55673	0.10015
0.42922	0.07465
0.07220	-0.48652
-0.23382	-0.25695
1.75531	0.30422
0.12320	0.25320
-0.08081	0.15117
0.19971	0.48277
-0.36133	0.17668
-0.10631	0.25320
0.25071	0.22769
0.22521	0.17668
0.35272	0.15117
0.32721	0.22769
-0.48884	0.15117
0.32721	-0.05289
0.35272	0.32972
0.37822	0.17668
0.17421	0.20219
0.25071	-0.86914
0.04670	-0.33348
0.17421	0.07465
-0.13181	0.12566
-0.41233	0.30422
0.17421	0.86539
0.76074	0.81437
0.32721	0.17668
0.17421	-0.25695
0.22521	0.50828
0.12320	0.91640
0.02119	-0.84363
-0.10631	-0.53754
0.22521	0.27871
0.07220	-0.15492
0.04670	-0.76711
0.27621	0.27871
0.48022	1.06945
0.14870	0.43176
-0.31033	0.32972
0.14870	0.71234
-0.25932	-0.41000
-0.00431	-0.56305
1.24527	-0.41000
0.27621	0.32972
0.12320	0.40625
-0.10631	0.40625
-0.02981	0.40625
-0.23382	0.15117
0.73524	0.17668
-0.00431	0.20219
0.14870	-0.10391
0.14870	0.15117
0.07220	0.12566
-0.25932	0.22769
-0.23382	0.02363
0.50573	0.15117
1.21977	0.17668
0.35272	0.04914
-0.18282	0.30422
-0.05531	0.02363
-0.08081	-0.02739
-0.20832	0.17668
-0.31033	0.30422
0.37822	0.38074
0.63323	-0.05289
0.09770	0.15117
-0.05531	-0.10391
0.17421	0.07465
0.12320	-0.15492
0.25071	-0.07840
0.12320	0.43176
0.07220	0.78886
0.25071	0.55929
0.07220	0.32972
-0.15732	-0.05289
0.37822	-0.35899
0.19971	0.55929
-0.00431	0.45726
0.19971	0.22769
0.30171	-0.41000
-0.36133	-0.35899
0.58223	-1.09871
0.45472	0.71234
-0.10631	0.20219
0.17421	0.91640
-0.15732	-0.00188
-0.33583	0.83988
-0.33583	0.76336
0.30171	0.30422
0.68424	-0.07840
0.99026	0.10015
-0.38683	0.17668
0.02119	-0.10391
0.65874	0.02363
-0.18282	-0.05289
0.14870	-0.05289
0.50573	0.10015
0.25071	0.17668
-0.05531	0.12566
0.45472	0.15117
-0.61635	0.20219
0.17421	0.22769
-0.15732	0.22769
0.25071	0.25320
0.70974	0.15117
-0.02981	0.07465
-0.02981	0.25320
0.19971	0.25320
0.09770	0.32972
0.40372	0.30422
0.27621	-0.00188
0.35272	-0.18043
0.12320	0.12566
-0.36133	-0.10391
0.22521	0.07465
0.48022	0.15117
-0.43783	-0.28246
0.42922	0.12566
0.30171	0.32972
0.07220	-0.07840
0.12320	0.50828
0.48022	0.61031
0.22521	0.58480
0.02119	0.22769
-0.05531	-0.10391
0.09770	0.10015
0.19971	-0.05289
-0.05531	-0.56305
-0.08081	0.20219
-0.18282	0.30422
0.12320	-0.33348
0.58223	0.10015
0.63323	1.12046
-0.13181	-0.02739
0.07220	-0.00188
0.22521	0.04914
0.14870	0.30422
-0.02981	-0.00188
-0.02981	0.22769
0.19971	0.50828
0.12320	-0.56305
1.01576	0.04914
0.32721	-0.00188
-0.79486	-0.15492
-0.20832	0.43176
0.40372	0.45726
0.17421	0.55929
0.07220	0.20219
0.40372	0.22769
-0.23382	-0.38449
-0.56534	0.17668
0.81175	-0.00188
1.04126	0.40625
-0.10631	0.32972
0.12320	0.40625
0.37822	0.10015
-0.00431	0.02363
0.17421	0.22769
-0.31033	0.04914
0.17421	0.10015
-0.08081	0.86539
0.19971	-0.33348
0.22521	-0.18043
0.19971	0.12566
0.12320	0.15117
0.37822	0.35523
0.30171	0.32972
-0.08081	0.02363
0.09770	0.17668
0.14870	0.63582
0.19971	0.61031
0.40372	0.30422
0.37822	0.02363
0.42922	0.10015
0.48022	-0.18043
-0.56534	-0.15492
-0.74385	-0.63957
-0.15732	0.43176
0.50573	0.20219
0.45472	-0.05289
0.27621	-0.18043
0.27621	-0.07840
0.14870	0.71234
0.27621	0.43176
0.73524	0.30422
-0.28482	0.25320
-0.74385	0.15117
0.09770	0.30422
0.96476	0.04914
0.32721	0.10015
0.19971	0.07465
-0.00431	-0.10391
-0.02981	0.02363
0.22521	0.15117
-0.13181	0.30422
0.27621	0.27871
0.04670	-0.35899
0.12320	0.45726
0.42922	-0.56305
-0.08081	0.40625
0.27621	0.66132
0.07220	0.53379
-0.23382	0.07465
0.27621	-0.07840
0.12320	0.17668
0.14870	0.15117
0.32721	0.22769
0.37822	0.27871
0.17421	0.17668
0.07220	-0.25695
-0.02981	-0.05289
-0.13181	0.38074
0.12320	0.12566
0.65874	-0.07840
0.76074	0.07465
-0.41233	0.20219
-0.08081	0.45726
0.70974	0.53379
-0.10631	0.53379
-0.08081	-0.05289
0.27621	-0.33348
-0.00431	-0.10391
0.30171	0.50828
0.48022	-0.15492
-0.02981	0.07465
0.04670	0.17668
0.02119	0.27871
0.04670	0.45726
0.19971	0.15117
0.09770	0.10015
0.30171	0.12566
0.50573	0.12566
0.32721	-0.00188
0.19971	0.22769
0.07220	0.15117
0.37822	-0.07840
-0.08081	0.15117
-0.02981	0.07465
-0.18282	0.04914
-0.02981	0.15117
0.48022	0.48277
-0.05531	0.50828
0.22521	0.15117
0.37822	-0.07840
0.17421	-0.05289
0.30171	-0.25695
0.09770	-0.10391
-0.28482	0.48277
0.09770	0.32972
0.30171	0.94191
0.32721	0.71234
0.48022	-0.28246
-0.33583	-0.71609
0.17421	0.22769
0.27621	0.32972
0.17421	0.17668
0.04670	0.35523
0.14870	0.04914
0.25071	0.25320
-0.36133	-0.46102
-0.18282	-0.12942
0.53123	0.02363
0.91375	0.38074
-0.15732	0.30422
-0.36133	0.53379
0.07220	0.02363
0.02119	0.07465
0.73524	0.38074
0.40372	0.68683
0.02119	-0.02739
0.02119	0.02363
-0.13181	-0.38449
-0.00431	0.04914
0.25071	0.30422
0.35272	0.15117
-0.13181	0.12566
0.12320	0.35523
-0.28482	0.61031
0.76074	0.25320
0.65874	0.73785
0.07220	-0.38449
0.09770	-0.30797
-0.18282	-0.38449
0.12320	0.58480
0.22521	0.48277
0.17421	0.50828
0.22521	0.02363
0.12320	0.07465
0.22521	0.17668
-0.00431	0.22769
-0.05531	-0.05289
0.25071	0.04914
0.30171	-0.20594
-0.20832	0.02363
0.35272	0.53379
0.35272	0.38074
0.53123	0.20219
0.07220	-0.00188
0.17421	0.53379
-0.28482	-0.20594
-0.13181	-0.15492
0.48022	0.30422
-0.20832	0.15117
-0.36133	-0.20594
0.58223	0.15117
