0.17421	0.25320
0.12320	-0.41000
0.12320	0.58480
0.14870	0.50828
0.17421	-1.04770
0.07220	0.89089
0.07220	0.45726
0.07220	0.20219
0.12320	-0.58856
0.12320	0.45726
0.27621	0.35523
0.32721	0.20219
0.25071	0.25320
0.12320	-0.76711
0.07220	-0.12942
0.02119	1.04394
0.04670	0.40625
0.12320	0.15117
0.12320	0.20219
0.17421	0.30422
0.22521	-0.23145
0.27621	-0.76711
0.19971	-0.20594
0.12320	-0.00188
0.07220	0.83988
0.14870	0.68683
-0.02981	0.68683
-0.10631	-0.00188
0.14870	0.20219
0.40372	-0.63957
0.25071	0.63582
0.07220	0.63582
0.14870	-0.51203
0.30171	-0.05289
0.22521	0.78886
0.12320	0.04914
0.04670	-0.15492
-0.00431	-0.43551
-0.05531	0.68683
0.19971	0.83988
0.27621	-0.33348
0.27621	0.02363
0.19971	0.68683
0.12320	-0.10391
0.14870	0.07465
0.14870	-0.35899
0.12320	0.22769
-0.05531	1.78367
-0.05531	0.02363
0.19971	-0.35899
0.37822	-0.15492
0.27621	-0.18043
0.27621	0.15117
0.19971	-0.28246
0.07220	0.38074
0.04670	1.09496
0.09770	0.10015
0.04670	-0.35899
0.14870	0.12566
0.32721	0.02363
0.19971	-0.05289
0.14870	0.35523
0.22521	0.17668
0.19971	0.25320
0.09770	-0.07840
0.04670	0.53379
0.14870	1.09496
0.07220	0.17668
0.02119	-0.43551
0.19971	-0.41000
0.27621	0.32972
0.12320	-0.00188
0.42922	0.25320
0.14870	-0.18043
0.04670	-0.35899
-0.00431	0.63582
-0.08081	-0.30797
-0.05531	0.40625
0.07220	1.17148
0.22521	-0.20594
0.32721	0.40625
0.12320	-0.38449
0.22521	0.07465
0.35272	-0.18043
0.12320	-0.12942
0.09770	0.35523
0.09770	0.53379
-0.02981	-0.02739
0.12320	0.38074
0.12320	-0.12942
0.14870	0.02363
0.27621	0.48277
0.17421	0.22769
0.17421	-0.10391
0.14870	0.63582
-0.00431	-0.05289
0.02119	0.43176
0.04670	0.66132
0.09770	-0.15492
0.32721	-0.15492
0.37822	-0.25695
0.17421	-0.41000
0.12320	-0.12942
0.09770	0.71234
0.17421	0.22769
0.17421	0.48277
0.02119	0.02363
-0.00431	0.04914
0.09770	0.10015
0.30171	-0.00188
0.14870	0.15117
0.19971	0.17668
0.30171	0.04914
0.30171	-0.05289
0.09770	-0.00188
0.04670	1.27351
-0.10631	0.17668
-0.00431	-0.25695
0.07220	-0.69059
0.27621	0.68683
0.30171	0.30422
0.37822	-0.18043
0.22521	0.35523
0.12320	0.45726
0.12320	-0.02739
0.19971	-0.15492
0.02119	0.17668
-0.02981	0.17668
0.09770	0.04914
0.30171	0.20219
0.25071	-0.33348
0.22521	0.25320
0.17421	0.43176
0.09770	0.40625
0.12320	0.43176
0.02119	0.30422
-0.00431	-0.02739
0.07220	-0.43551
0.19971	-0.25695
0.17421	0.55929
0.22521	0.20219
0.30171	0.35523
0.19971	-1.40480
0.25071	1.57960
0.12320	0.78886
0.02119	0.04914
0.07220	0.15117
-0.00431	-0.15492
0.12320	-0.43551
0.12320	-0.23145
0.27621	0.91640
0.30171	-0.38449
0.17421	-0.20594
0.14870	0.58480
0.07220	0.32972
0.04670	0.38074
0.07220	0.22769
0.12320	0.55929
0.09770	0.35523
0.14870	-0.46102
0.12320	-0.43551
0.42922	0.83988
0.27621	0.12566
0.12320	-0.07840
0.14870	-0.53754
0.12320	0.81437
0.12320	0.20219
-0.05531	0.02363
0.02119	-0.02739
0.27621	-0.35899
0.27621	1.04394
0.27621	0.25320
0.19971	-0.33348
0.19971	-0.43551
0.07220	0.04914
-0.00431	0.30422
0.12320	0.10015
0.07220	0.50828
0.14870	0.32972
0.32721	0.02363
0.22521	0.22769
0.32721	0.15117
0.25071	0.15117
0.02119	0.07465
0.12320	0.07465
0.04670	0.27871
0.14870	0.43176
0.02119	0.30422
0.14870	-0.10391
0.22521	0.20219
0.17421	-0.18043
0.19971	-0.10391
0.17421	0.53379
0.19971	0.15117
0.37822	-0.33348
0.02119	0.40625
-0.10631	0.81437
0.07220	0.53379
0.04670	-0.43551
0.07220	0.43176
0.48022	0.76336
0.22521	-0.58856
0.22521	-0.05289
0.07220	-0.10391
-0.00431	0.81437
0.02119	0.22769
-0.08081	0.35523
0.14870	-0.15492
0.25071	-0.53754
0.32721	0.30422
0.30171	-0.15492
0.25071	-0.28246
0.27621	0.20219
-0.08081	0.43176
0.09770	0.53379
0.07220	0.50828
-0.02981	0.27871
0.02119	0.15117
0.19971	-0.41000
0.17421	1.01843
0.25071	-0.10391
0.30171	0.30422
0.19971	0.17668
0.22521	-0.38449
0.14870	-0.86914
-0.00431	-0.43551
-0.08081	0.15117
0.09770	0.86539
-0.00431	1.17148
0.22521	-0.07840
0.12320	-0.23145
0.30171	-0.10391
0.32721	-0.30797
0.14870	0.55929
0.14870	0.81437
0.02119	1.24800
0.02119	-0.41000
-0.00431	-1.30277
0.04670	0.76336
0.25071	-0.28246
0.22521	-0.07840
0.25071	0.40625
0.27621	0.04914
0.27621	0.22769
0.09770	0.50828
0.09770	0.20219
0.17421	0.17668
-0.25932	0.07465
-0.05531	0.04914
0.32721	0.35523
0.30171	0.32972
0.27621	-0.41000
0.30171	-0.25695
0.07220	-0.15492
0.12320	0.35523
-0.00431	1.78367
-0.15732	-0.18043
-0.10631	-1.12422
0.25071	0.66132
0.48022	0.10015
0.42922	-0.92016
0.76074	0.38074
0.09770	0.94191
-0.05531	0.71234
-0.18282	0.35523
-0.20832	0.22769
-0.05531	0.43176
-0.08081	0.43176
0.09770	-1.09871
0.14870	-0.43551
0.53123	0.55929
0.42922	-0.35899
0.35272	-0.66508
0.22521	-0.20594
0.12320	0.20219
0.07220	0.86539
-0.18282	0.66132
0.12320	0.30422
0.12320	1.47757
0.02119	0.27871
0.25071	-1.12422
0.14870	-0.10391
0.02119	0.02363
0.14870	0.30422
0.19971	1.14597
0.27621	-0.63957
-0.02981	-0.48652
-0.08081	0.43176
0.07220	0.81437
0.58223	0.17668
0.32721	0.17668
0.32721	0.43176
0.07220	0.20219
0.07220	-0.12942
0.04670	-0.51203
-0.08081	-0.35899
-0.00431	0.76336
-0.10631	-0.51203
-0.08081	-0.25695
0.32721	1.06945
0.22521	-0.00188
0.58223	0.30422
0.42922	0.68683
0.42922	1.35003
0.12320	0.71234
-0.33583	-0.43551
-0.25932	-1.17523
0.48022	-0.43551
0.63323	-0.05289
0.22521	0.40625
-0.25932	1.27351
-0.61635	0.76336
-0.18282	-0.66508
0.19971	-1.14973
0.60773	0.55929
0.50573	0.58480
0.27621	-0.28246
0.42922	0.58480
0.14870	0.17668
-0.10631	0.35523
-0.20832	0.04914
-0.10631	0.63582
0.53123	-0.05289
0.81175	-0.35899
0.12320	-0.23145
-0.23382	-0.41000
-0.36133	0.58480
-0.08081	0.25320
0.17421	-0.18043
0.22521	0.66132
0.17421	0.86539
0.60773	0.73785
0.07220	-0.25695
0.40372	0.30422
0.14870	0.22769
0.04670	-0.05289
0.17421	-1.37929
-0.31033	-2.22105
-0.25932	0.63582
-0.28482	0.78886
0.58223	0.96742
0.42922	0.78886
0.76074	1.04394
-0.20832	0.58480
-0.18282	-0.51203
0.30171	0.25320
0.27621	0.68683
-0.00431	0.55929
0.09770	0.07465
0.60773	-1.07320
0.53123	-0.51203
0.30171	-0.89465
-0.25932	-0.89465
-0.56534	1.04394
-1.10088	0.25320
-0.00431	0.04914
0.99026	0.71234
0.88825	2.19179
0.86275	-0.18043
0.25071	-2.09351
-0.33583	0.15117
-0.18282	0.68683
-0.31033	1.88570
-0.28482	0.55929
0.14870	-2.88425
0.76074	-1.12422
1.24527	0.73785
0.37822	0.10015
-0.20832	-0.15492
-0.33583	1.35003
-0.20832	0.91640
0.22521	0.68683
0.09770	0.32972
-0.36133	0.99292
0.02119	-0.53754
0.25071	-1.30277
0.32721	0.15117
0.37822	0.10015
0.25071	1.09496
0.12320	-0.10391
-0.05531	-2.37410
0.02119	-1.45582
0.42922	-0.18043
0.22521	0.48277
0.53123	1.75816
1.65330	1.04394
0.07220	0.76336
-0.89686	0.68683
-1.02437	0.71234
-0.43783	0.30422
-0.13181	-0.66508
0.25071	0.10015
0.04670	-1.94047
0.09770	-0.84363
0.27621	1.04394
0.58223	1.19699
1.09226	0.96742
0.81175	0.81437
0.37822	0.10015
0.37822	0.07465
-0.25932	-2.27207
-0.05531	-0.84363
-0.15732	0.71234
-0.74385	2.11527
-0.71835	0.22769
-0.82036	-0.92016
-0.13181	-0.38449
1.34728	1.14597
1.85731	1.50308
0.63323	-0.94566
0.12320	-1.17523
-0.61635	0.40625
-0.31033	0.45726
-0.48884	0.91640
0.25071	0.68683
0.63323	0.53379
1.44929	0.15117
0.09770	0.20219
0.27621	-0.48652
-0.15732	-0.25695
-0.59084	-0.18043
-0.69285	0.15117
-0.56534	-0.58856
0.09770	0.38074
1.04126	-1.58336
0.63323	-1.25176
0.07220	0.63582
-0.18282	0.91640
-0.33583	1.57960
-0.23382	0.55929
-0.31033	0.15117
0.86275	0.27871
1.52579	0.22769
1.98482	0.61031
1.14327	0.20219
-0.56534	-1.40480
-0.51434	-1.96597
-1.04987	1.04394
-1.73842	1.88570
-1.02437	1.24800
0.32721	-0.71609
1.21977	-1.27726
1.16877	0.78886
0.27621	0.50828
-0.33583	-1.30277
-0.97337	0.04914
-0.79486	1.24800
1.14327	0.58480
1.67880	-0.84363
1.42379	0.96742
-0.20832	1.78367
-0.25932	-0.18043
-0.56534	-0.15492
-1.17738	-0.56305
-0.36133	-1.91496
0.99026	0.50828
1.57679	-0.10391
0.65874	-1.12422
-0.15732	1.45206
-0.36133	1.47757
-0.74385	-0.18043
-0.48884	-1.50683
0.14870	0.12566
0.42922	0.73785
1.32178	0.94191
0.88825	0.58480
-0.20832	0.73785
-0.28482	0.30422
-0.53984	0.55929
-0.08081	-1.07320
-0.15732	-2.24656
-0.08081	-0.15492
0.22521	0.66132
0.78624	0.35523
0.78624	0.61031
0.35272	1.47757
-0.28482	0.53379
0.30171	-0.35899
-0.25932	0.76336
-0.02981	-0.41000
0.04670	-0.05289
0.17421	-0.43551
0.30171	-0.43551
0.48022	0.32972
0.93925	0.53379
0.12320	1.52859
-0.59084	0.86539
-0.71835	-1.35379
-0.76936	-0.89465
-0.20832	0.17668
0.91375	0.55929
0.53123	0.20219
0.70974	0.45726
-0.15732	1.14597
0.30171	1.35003
0.35272	0.00000
-0.08081	0.00000
-0.08081	0.00000
-0.36133	0.00000
-0.00431	0.00000
-0.18282	-0.89465
0.63323	-1.04770
1.55129	1.06945
0.99026	0.71234
-0.59084	-1.20074
-0.59084	-1.17523
-0.00431	0.35523
0.40372	1.24800
0.12320	0.91640
0.14870	2.01323
-0.10631	-0.66508
0.48022	-1.17523
0.35272	0.58480
-0.74385	-0.94566
-0.56534	-1.07320
0.53123	0.63582
0.68424	1.09496
0.55673	0.68683
0.02119	0.02363
-0.00431	0.07465
0.09770	-0.00188
-0.38683	0.91640
-0.69285	0.17668
0.35272	-0.71609
1.21977	0.81437
2.06133	-2.29757
0.91375	-0.56305
-0.36133	0.50828
-0.89686	0.81437
-0.92237	0.89089
-0.41233	1.14597
-0.28482	1.22250
0.25071	-0.10391
0.70974	-0.84363
0.65874	-0.69059
0.37822	-0.69059
-0.13181	-0.56305
-0.02981	0.35523
-0.23382	0.71234
-0.31033	1.09496
0.14870	1.98773
0.63323	-0.53754
1.37278	-0.38449
0.48022	0.07465
0.40372	-0.43551
0.02119	-1.14973
-0.41233	-0.02739
-0.20832	0.55929
-0.33583	0.58480
-0.51434	0.27871
-0.13181	0.35523
0.48022	1.04394
0.83725	0.55929
-0.00431	-0.46102
0.58223	-0.94566
0.45472	-0.46102
0.68424	0.04914
0.37822	0.76336
-0.31033	1.47757
-0.38683	1.12046
-0.64185	-0.84363
-0.76936	-2.06800
0.12320	0.07465
-0.00431	0.55929
0.48022	0.73785
0.12320	2.19179
0.50573	0.68683
0.73524	-0.51203
0.48022	-0.69059
0.53123	-0.71609
1.04126	-0.56305
0.32721	0.35523
0.07220	0.25320
-0.48884	1.14597
-0.69285	0.38074
-0.48884	-0.94566
-0.20832	0.99292
-0.08081	0.66132
0.30171	-0.30797
0.19971	-0.15492
0.50573	0.38074
0.48022	-1.30277
-0.10631	-1.14973
0.58223	0.66132
0.78624	1.04394
0.93925	0.86539
-0.23382	0.20219
-0.38683	0.61031
-0.61635	0.30422
-0.61635	-1.40480
-0.28482	-0.38449
0.02119	2.19179
0.63323	-0.56305
0.63323	-1.50683
0.58223	0.40625
0.73524	1.01843
0.32721	2.24281
-0.23382	-0.99668
-0.53984	-1.12422
0.02119	0.71234
0.53123	0.89089
-0.25932	-0.76711
-0.33583	-0.81812
0.27621	0.40625
0.48022	0.43176
0.53123	0.40625
0.45472	0.73785
-0.18282	0.17668
-0.20832	-0.53754
0.12320	1.32453
0.02119	-1.09871
-0.00431	-0.61406
0.55673	-0.41000
0.58223	-0.00188
0.37822	-0.23145
0.19971	-0.66508
0.32721	0.86539
0.04670	2.11527
-0.43783	1.50308
-0.31033	1.17148
-0.31033	0.78886
-0.08081	-0.20594
0.53123	-0.25695
1.24527	-0.81812
0.19971	-0.58856
-0.28482	-0.58856
-0.23382	0.25320
-0.38683	-0.20594
-0.20832	-0.56305
0.32721	0.25320
0.91375	0.17668
0.50573	0.50828
0.12320	0.10015
-0.08081	0.10015
-0.18282	-0.18043
-0.05531	2.19179
-0.08081	-0.10391
-0.15732	-1.83844
0.40372	0.35523
0.63323	0.53379
0.30171	0.66132
0.09770	0.55929
0.32721	1.86019
0.86275	0.50828
1.44929	-0.30797
0.19971	0.27871
-0.48884	-1.88945
-0.76936	-2.52714
-0.89686	0.68683
-0.31033	1.35003
-0.08081	1.12046
0.17421	1.06945
0.35272	0.40625
0.35272	0.53379
1.16877	0.04914
0.91375	-0.10391
-0.08081	-0.79262
-0.28482	-0.51203
-0.43783	0.02363
-0.41233	-0.12942
-0.38683	0.17668
0.07220	1.14597
0.30171	-0.07840
0.35272	-0.89465
0.48022	0.10015
0.42922	0.86539
0.73524	2.67644
0.07220	-2.27207
0.04670	-1.55785
0.53123	0.35523
1.04126	2.03874
0.27621	1.78367
-0.31033	-1.27726
-0.31033	-0.99668
-0.36133	0.58480
-0.02981	1.01843
-0.18282	0.38074
-0.43783	0.07465
-0.38683	0.22769
0.02119	0.10015
0.58223	0.66132
0.48022	-0.18043
-0.00431	-0.84363
0.30171	-0.41000
0.48022	0.04914
0.91375	0.68683
0.48022	-0.07840
-0.36133	-0.56305
-0.10631	0.30422
-0.36133	0.22769
-0.59084	0.04914
-0.08081	0.04914
1.16877	1.06945
1.52579	0.96742
1.39828	0.15117
-0.33583	-0.25695
-0.61635	0.15117
-0.56534	0.43176
-0.53984	0.07465
-0.48884	1.55410
0.04670	-1.12422
0.17421	-1.88945
0.45472	0.71234
0.60773	0.07465
0.55673	0.35523
0.50573	0.55929
0.81175	1.19699
-0.00431	0.86539
-0.74385	0.55929
-0.18282	-0.43551
0.53123	-1.27726
0.40372	0.17668
0.30171	0.38074
-0.74385	-0.23145
0.27621	-0.07840
0.50573	0.53379
0.53123	-0.05289
-0.76936	-0.58856
-0.38683	0.35523
0.50573	0.68683
0.07220	0.53379
-0.08081	0.02363
0.09770	-0.12942
0.40372	-0.15492
0.96476	0.25320
0.99026	0.78886
0.70974	0.27871
0.58223	-0.15492
0.12320	0.53379
-0.46334	1.37554
-0.53984	-0.94566
-0.71835	-1.55785
-0.51434	-0.71609
-0.33583	0.76336
-0.46334	2.06425
0.73524	-0.07840
1.47479	-0.84363
1.39828	0.32972
-0.00431	0.48277
-0.66735	0.63582
-0.33583	0.63582
-0.61635	0.53379
-0.20832	0.22769
-0.10631	-0.58856
0.83725	0.17668
1.04126	0.32972
1.04126	-1.68539
0.27621	-0.94566
-0.51434	0.50828
-0.56534	0.68683
-0.46334	0.81437
-0.02981	0.96742
0.73524	0.25320
0.07220	0.25320
0.14870	-0.53754
0.50573	-0.25695
0.88825	0.10015
0.93925	0.20219
0.09770	0.94191
-0.94787	-0.23145
-0.84586	0.04914
-0.82036	0.55929
-0.28482	-0.20594
0.65874	-0.10391
1.39828	0.96742
0.30171	0.30422
0.02119	-0.48652
0.14870	-1.48133
0.30171	-0.25695
0.09770	0.61031
-0.05531	0.83988
-0.08081	1.17148
0.12320	1.04394
0.19971	0.38074
1.11776	0.66132
0.93925	-1.45582
0.07220	-1.37929
-0.79486	-0.18043
-0.92237	0.68683
-0.56534	0.73785
0.04670	0.76336
0.32721	0.61031
0.63323	-0.10391
1.16877	1.40105
1.16877	-0.12942
0.30171	-0.84363
0.25071	0.02363
-0.59084	-0.28246
-0.87136	-0.10391
-0.69285	0.50828
0.07220	0.83988
1.04126	0.73785
1.19427	0.50828
0.19971	0.02363
-0.43783	0.58480
-1.07538	0.10015
-0.10631	-1.27726
0.83725	-0.79262
1.09226	0.58480
1.32178	0.15117
0.32721	0.35523
-0.38683	1.12046
-0.51434	0.71234
-0.64185	0.02363
-0.74385	0.81437
-0.51434	0.73785
0.65874	-0.56305
1.55129	-2.75671
1.27078	-0.12942
0.32721	1.24800
-0.28482	0.55929
-0.43783	0.10015
-0.18282	0.78886
-0.71835	0.22769
-0.66735	-0.35899
0.07220	0.89089
1.16877	0.43176
1.34728	-0.56305
1.11776	-0.02739
0.53123	0.35523
-0.13181	0.02363
-0.84586	0.66132
-1.02437	0.07465
-0.94787	-0.18043
0.60773	0.25320
2.01032	1.19699
0.86275	-0.28246
-0.28482	-1.22625
-0.71835	-0.99668
0.17421	0.68683
0.73524	0.35523
-0.43783	0.53379
-1.30489	0.81437
-0.61635	0.76336
0.37822	0.35523
1.90832	0.32972
1.50029	0.25320
0.55673	0.12566
-0.51434	0.07465
-1.04987	-0.15492
-0.48884	-0.05289
0.83725	-0.02739
0.81175	-0.02739
0.58223	-0.00188
-0.10631	0.99292
-0.25932	-0.02739
-0.25932	-0.07840
-0.20832	-0.25695
-0.20832	0.86539
-0.05531	-1.04770
0.37822	-0.86914
1.04126	0.66132
0.88825	0.86539
0.32721	1.35003
-0.31033	0.91640
-0.33583	1.52859
-0.23382	-0.48652
0.02119	-1.25176
0.02119	-0.25695
0.09770	0.10015
0.40372	0.32972
0.12320	-1.02219
0.12320	-0.23145
0.45472	0.86539
0.60773	0.55929
1.01576	0.96742
0.30171	0.15117
-0.38683	-0.05289
-1.10088	-0.05289
-1.10088	-0.48652
0.81175	-0.15492
1.95932	0.35523
2.36734	0.94191
-0.18282	0.12566
-1.25389	-0.10391
-1.40690	0.32972
-1.25389	0.25320
-0.71835	-0.15492
-0.15732	-0.18043
0.27621	-0.07840
0.55673	-0.46102
0.91375	0.20219
0.88825	0.55929
0.70974	0.94191
0.73524	0.86539
0.42922	0.25320
0.37822	-0.18043
0.25071	-0.66508
-0.33583	-0.05289
0.35272	1.22250
0.12320	-0.15492
0.04670	-0.10391
-0.46334	-0.00188
-0.69285	0.04914
-0.53984	1.65613
-0.10631	-0.79262
0.02119	-1.09871
-0.10631	0.20219
-0.33583	-0.38449
0.70974	0.15117
1.42379	0.45726
1.95932	0.63582
1.24527	0.83988
0.17421	0.53379
-0.15732	1.68163
-1.12638	-0.05289
-0.89686	-3.24136
-1.02437	-1.40480
-0.18282	-0.23145
0.73524	1.27351
1.37278	1.68163
0.73524	1.29902
0.32721	0.10015
-0.61635	-0.20594
-0.51434	1.50308
-0.41233	-0.33348
-0.00431	-2.50164
0.42922	-0.33348
0.76074	0.71234
0.60773	0.61031
-0.00431	0.38074
-0.05531	0.48277
-0.08081	0.55929
0.30171	0.40625
0.14870	0.32972
0.30171	-0.43551
0.63323	-0.63957
0.70974	0.48277
0.50573	-0.05289
-0.10631	-0.46102
-0.41233	1.04394
-0.74385	-0.56305
-0.66735	-0.05289
-0.08081	-0.05289
0.27621	0.25320
0.27621	0.15117
1.29628	0.38074
1.27078	0.53379
0.70974	0.17668
-0.15732	1.01843
-0.94787	0.38074
-0.92237	0.10015
-0.51434	0.22769
-0.25932	-0.51203
0.25071	-0.30797
0.96476	0.50828
0.78624	-0.05289
0.27621	-0.48652
0.30171	-0.41000
0.50573	0.22769
0.63323	0.68683
0.14870	0.40625
0.02119	0.48277
-0.23382	0.02363
-0.20832	-0.15492
-0.02981	0.32972
-0.18282	0.15117
0.73524	1.12046
0.70974	0.53379
1.11776	-1.25176
-0.18282	-0.79262
-0.59084	0.22769
-0.87136	0.55929
-0.71835	0.55929
-0.23382	0.66132
0.14870	0.40625
0.40372	0.12566
0.42922	-0.12942
0.78624	0.02363
0.65874	-0.00188
0.30171	0.12566
-0.13181	0.17668
0.12320	0.30422
0.60773	0.04914
1.09226	0.71234
0.76074	0.96742
0.12320	-1.43031
-0.66735	-0.71609
-0.94787	0.12566
-0.66735	0.45726
-0.43783	0.30422
-0.36133	0.86539
0.60773	0.71234
1.04126	0.43176
1.75531	-0.05289
0.53123	1.19699
-0.25932	-0.92016
0.04670	-1.17523
0.02119	-0.10391
0.09770	0.43176
-0.10631	0.68683
-0.38683	0.73785
-0.66735	0.22769
-0.20832	0.15117
0.42922	0.61031
0.48022	-0.53754
0.27621	-0.58856
0.37822	0.96742
0.30171	-0.48652
0.27621	-1.09871
0.25071	0.61031
0.17421	0.83988
0.09770	0.81437
-0.02981	0.27871
0.09770	0.04914
0.37822	0.20219
0.48022	0.35523
0.09770	-0.02739
0.07220	0.10015
-0.15732	0.99292
-0.31033	0.35523
-0.02981	-1.04770
0.53123	-1.09871
0.88825	0.25320
-0.10631	1.09496
-0.38683	0.10015
-0.61635	-0.51203
-0.53984	0.40625
-0.33583	0.35523
1.27078	0.61031
0.93925	0.43176
1.14327	0.43176
0.07220	0.63582
-0.71835	-0.46102
-0.28482	-0.28246
-0.18282	-0.38449
-0.18282	0.48277
-0.38683	0.04914
0.25071	-1.50683
1.24527	0.04914
1.85731	1.09496
0.37822	0.86539
-0.18282	0.53379
-0.69285	1.17148
-0.59084	0.17668
-0.53984	-1.04770
-0.28482	-0.35899
-0.13181	0.58480
0.07220	0.73785
0.50573	-0.35899
0.76074	-0.66508
1.39828	0.63582
1.21977	0.43176
0.35272	0.53379
-0.56534	0.04914
-0.56534	-0.76711
-0.56534	0.22769
-0.48884	0.32972
-0.66735	0.30422
0.12320	0.07465
1.34728	1.09496
1.04126	-0.12942
0.68424	-0.99668
-0.33583	0.38074
-0.64185	0.22769
-0.41233	-0.00188
-0.00431	0.68683
-0.05531	-0.05289
0.04670	-0.15492
0.40372	0.61031
1.16877	0.07465
0.76074	-0.00188
-0.23382	0.27871
-0.23382	0.17668
0.19971	0.07465
0.96476	0.35523
0.50573	0.15117
-0.31033	0.17668
-0.74385	0.10015
-0.33583	0.02363
-0.02981	1.04394
0.30171	-0.20594
0.12320	-0.76711
0.12320	-0.05289
0.30171	-0.23145
0.76074	0.86539
0.76074	0.17668
0.14870	-0.07840
-0.10631	0.50828
-0.38683	0.43176
-0.10631	0.38074
0.02119	0.55929
0.25071	0.86539
0.22521	-0.66508
-0.05531	-0.71609
-0.00431	1.37554
-0.05531	-0.76711
0.35272	-0.76711
0.96476	0.81437
0.70974	0.32972
0.25071	0.40625
-0.53984	0.27871
-0.61635	0.17668
0.07220	0.66132
0.55673	0.94191
1.06676	-1.27726
0.50573	-1.43031
-0.02981	0.12566
-0.15732	0.78886
-0.61635	0.55929
-0.76936	0.53379
-0.43783	0.43176
-0.15732	1.12046
0.14870	0.04914
0.60773	-1.04770
0.73524	-0.07840
0.78624	0.07465
0.86275	0.45726
0.42922	0.58480
-0.33583	0.45726
-0.20832	0.81437
-0.15732	0.35523
-0.13181	-0.56305
0.22521	-0.51203
0.32721	0.86539
0.25071	-0.53754
0.25071	-0.25695
-0.18282	0.40625
0.02119	0.76336
0.12320	0.76336
-0.08081	-0.07840
0.12320	-0.02739
0.30171	0.32972
0.83725	0.10015
0.50573	-0.28246
0.19971	-0.43551
-0.18282	0.07465
-0.69285	0.27871
-0.25932	0.10015
0.55673	0.35523
1.09226	0.73785
0.58223	0.17668
-0.13181	-0.07840
-0.53984	0.12566
-0.25932	0.53379
0.04670	-0.51203
0.40372	-0.71609
-0.28482	0.15117
-0.31033	1.32453
0.45472	-0.02739
1.37278	-0.97117
0.91375	0.53379
0.48022	0.66132
0.19971	0.25320
-0.43783	0.43176
-0.69285	0.02363
-0.53984	-0.10391
-0.48884	0.12566
-0.33583	0.27871
0.09770	0.35523
0.96476	0.38074
1.11776	-0.53754
1.14327	0.55929
1.09226	1.04394
-0.02981	0.25320
-0.74385	-0.84363
-0.61635	0.04914
-0.61635	-0.10391
-0.74385	0.22769
0.02119	-0.35899
0.70974	0.10015
1.29628	0.99292
0.68424	0.83988
0.81175	0.20219
0.02119	-0.58856
-0.46334	0.20219
-0.66735	-0.18043
-1.02437	-0.00188
-1.20288	0.53379
0.25071	0.55929
1.62780	-0.23145
2.49485	-0.66508
0.76074	0.58480
0.09770	0.61031
-0.69285	-0.71609
-0.87136	-0.33348
-0.51434	0.76336
-0.48884	0.71234
-0.53984	0.22769
0.22521	0.04914
0.99026	0.53379
1.32178	0.53379
0.83725	-0.51203
0.42922	-0.28246
0.63323	1.09496
0.02119	0.94191
-0.51434	-2.19554
-0.64185	-2.04250
-0.36133	0.71234
0.07220	1.37554
0.04670	0.91640
-0.23382	0.45726
0.22521	0.73785
0.60773	0.04914
1.44929	-0.25695
0.53123	-0.23145
0.12320	0.07465
-0.33583	0.35523
-0.46334	1.22250
-0.64185	-0.66508
-0.61635	-0.97117
0.40372	-0.30797
0.70974	-0.41000
1.29628	0.58480
0.27621	0.53379
-0.28482	0.73785
0.09770	0.35523
0.07220	0.17668
-0.00431	0.07465
-0.18282	0.10015
0.02119	0.12566
0.32721	0.66132
0.32721	0.22769
0.09770	0.50828
0.12320	-0.18043
0.19971	-0.99668
0.45472	-0.05289
-0.00431	-0.02739
-0.02981	-0.35899
0.04670	0.53379
0.48022	1.75816
0.78624	0.55929
0.35272	-0.71609
0.04670	0.81437
-0.33583	0.10015
-0.53984	0.12566
-0.25932	0.30422
-0.31033	-0.10391
-0.13181	-0.15492
0.19971	0.32972
0.42922	0.48277
0.55673	-0.18043
0.42922	-0.76711
0.27621	-0.61406
0.76074	1.45206
0.86275	0.50828
0.32721	-1.02219
-0.18282	-0.35899
-0.25932	1.06945
-0.33583	0.86539
-0.46334	0.07465
-0.33583	0.04914
0.14870	1.70714
-0.05531	-1.37929
0.40372	-1.22625
0.96476	1.04394
0.81175	0.20219
0.22521	-0.05289
-0.23382	0.55929
-0.28482	-0.05289
-0.02981	0.96742
-0.28482	0.30422
-0.20832	-1.27726
0.35272	-0.51203
0.96476	0.43176
1.04126	0.83988
0.07220	0.15117
-0.38683	0.10015
-0.51434	0.10015
-0.28482	0.25320
0.37822	0.15117
-0.10631	0.20219
0.91375	0.76336
0.50573	0.94191
0.25071	-1.35379
-0.31033	-1.30277
-0.05531	0.15117
0.02119	0.81437
0.63323	1.17148
0.19971	-0.69059
-0.08081	0.45726
-0.59084	0.43176
-0.10631	-0.10391
0.37822	-0.00188
0.93925	0.81437
0.37822	0.04914
0.30171	0.40625
-0.33583	-0.25695
-0.38683	-1.32828
-0.25932	-0.15492
0.30171	1.06945
0.32721	0.76336
0.30171	0.73785
0.04670	-0.10391
0.32721	-0.56305
0.48022	0.40625
0.73524	0.38074
0.48022	-0.07840
-0.25932	0.04914
-0.36133	0.61031
-0.25932	-0.02739
0.07220	-0.43551
0.30171	0.40625
-0.08081	0.15117
0.32721	0.61031
0.19971	-0.33348
0.68424	0.04914
0.78624	-0.02739
0.60773	0.30422
-0.64185	0.43176
-0.33583	0.63582
-0.38683	0.66132
-0.13181	-0.18043
0.22521	0.20219
0.07220	-0.30797
-0.20832	-1.37929
-0.13181	-0.30797
0.40372	0.81437
0.14870	1.27351
0.42922	-0.51203
1.04126	1.01843
1.06676	1.55410
0.58223	0.66132
-0.18282	-1.43031
-0.18282	0.07465
-0.20832	0.30422
0.04670	0.12566
-0.43783	0.07465
-0.23382	-0.02739
-0.13181	0.04914
-0.13181	0.17668
0.02119	0.20219
0.53123	0.43176
1.34728	0.15117
0.19971	0.50828
-0.59084	0.20219
0.25071	-0.97117
0.63323	-0.38449
-0.08081	0.22769
-0.28482	0.45726
0.02119	0.61031
-0.08081	0.15117
0.30171	0.35523
0.83725	1.14597
0.65874	0.76336
0.14870	-1.65988
-0.08081	-0.46102
-0.59084	-0.10391
-0.53984	0.25320
-0.15732	0.81437
0.25071	-0.28246
0.50573	0.43176
0.70974	0.63582
0.70974	0.81437
0.37822	1.17148
-0.08081	0.30422
-0.46334	-1.65988
-0.10631	-1.37929
0.55673	0.53379
0.81175	1.06945
0.42922	0.38074
-0.25932	-0.25695
-0.38683	0.40625
-0.38683	0.27871
-0.18282	0.27871
0.22521	0.22769
0.30171	0.07465
0.25071	-0.20594
0.30171	-0.05289
0.35272	0.35523
0.35272	-0.15492
0.40372	-0.07840
0.35272	0.45726
0.14870	0.76336
-0.25932	-0.05289
-0.36133	-0.84363
-0.53984	0.15117
0.32721	0.66132
0.50573	0.12566
0.78624	-0.02739
0.83725	-0.07840
0.63323	0.50828
-0.25932	0.35523
-0.31033	0.71234
0.02119	-0.12942
-0.15732	-0.28246
-0.23382	-0.25695
-0.08081	-0.07840
-0.23382	0.25320
0.14870	0.76336
0.02119	0.76336
0.35272	-0.46102
0.86275	-0.86914
1.72980	0.43176
0.86275	0.61031
-0.43783	0.55929
-0.41233	-0.20594
-0.61635	-0.41000
-0.41233	0.55929
-0.33583	0.32972
-0.31033	-0.18043
0.65874	-0.23145
1.55129	0.32972
1.21977	0.94191
0.60773	-0.00188
-0.33583	-1.17523
-0.76936	-0.05289
-0.92237	0.27871
-1.02437	0.27871
-0.66735	0.27871
0.65874	0.83988
1.24527	0.50828
0.99026	0.71234
0.07220	-1.02219
0.14870	-1.02219
0.48022	0.32972
0.12320	0.38074
-0.20832	0.76336
-0.13181	0.50828
-0.10631	0.99292
0.07220	-0.25695
0.17421	-1.07320
0.32721	1.06945
0.27621	0.17668
0.32721	-1.30277
0.63323	0.81437
0.70974	0.55929
0.12320	0.45726
-0.51434	0.17668
-0.61635	0.25320
0.02119	0.04914
0.88825	0.38074
0.83725	0.38074
0.07220	-0.43551
-0.33583	-1.20074
-0.38683	-0.05289
0.02119	0.12566
-0.38683	0.17668
0.12320	0.38074
0.70974	0.89089
0.58223	0.17668
0.04670	0.20219
0.17421	0.63582
-0.05531	1.45206
0.45472	1.83468
0.27621	-2.80773
0.48022	-3.47093
0.35272	-0.10391
0.19971	1.12046
-0.28482	1.17148
-0.43783	1.57960
-0.38683	1.42656
0.17421	-0.35899
0.27621	-0.94566
0.45472	-0.58856
0.25071	0.07465
0.19971	0.32972
0.09770	0.55929
-0.08081	0.32972
0.17421	0.45726
0.30171	0.25320
0.19971	0.53379
-0.08081	0.02363
0.81175	-0.12942
1.16877	-1.27726
0.88825	-0.56305
-0.48884	-0.02739
-0.61635	0.68683
-0.51434	0.15117
-0.28482	0.91640
-0.28482	0.27871
-0.89686	0.12566
-0.08081	1.24800
0.81175	0.20219
2.13783	-1.12422
0.99026	-0.56305
0.22521	0.25320
-0.64185	0.58480
-0.43783	0.55929
-0.33583	0.96742
-0.08081	0.22769
-0.00431	1.04394
0.12320	-0.18043
0.81175	-1.50683
0.50573	-1.40480
0.27621	-0.43551
-0.15732	0.43176
-0.05531	1.47757
-0.13181	1.27351
-0.00431	0.55929
0.17421	0.35523
0.27621	0.55929
-0.02981	-0.15492
0.22521	-0.56305
0.19971	-0.28246
0.40372	-0.05289
0.42922	0.30422
0.32721	0.81437
-0.00431	0.35523
-0.28482	0.68683
0.04670	0.07465
1.11776	-0.86914
1.60230	0.53379
0.76074	-0.56305
-0.87136	-0.81812
-1.12638	-0.10391
-1.12638	0.40625
-1.12638	1.19699
-0.74385	2.42136
-0.23382	-1.99148
1.50029	-0.15492
2.52035	0.50828
2.52035	-0.00188
0.27621	-0.61406
-0.82036	-0.35899
-0.94787	1.27351
-0.74385	1.50308
-1.17738	0.96742
-0.53984	0.43176
0.19971	-0.58856
1.34728	-0.99668
1.34728	-0.43551
0.83725	0.38074
0.27621	0.38074
-0.20832	0.12566
-0.43783	0.17668
-0.13181	0.73785
-0.00431	0.53379
-0.36133	-0.99668
-0.23382	-1.86394
0.45472	-0.30797
0.60773	0.43176
1.21977	0.89089
0.96476	1.12046
0.65874	0.91640
-0.48884	0.63582
-1.35589	0.22769
-0.97337	0.25320
0.12320	-0.41000
0.86275	-0.99668
1.50029	-1.35379
0.68424	0.48277
0.30171	1.35003
-0.76936	0.61031
-1.02437	0.86539
-0.82036	0.48277
-0.51434	-0.10391
0.83725	-1.07320
1.27078	0.02363
1.09226	-0.02739
0.35272	-0.33348
-0.02981	0.63582
-0.28482	-0.23145
-0.33583	-0.35899
0.12320	1.09496
0.14870	0.83988
0.22521	0.43176
0.12320	0.12566
-0.10631	0.91640
0.04670	0.20219
0.81175	-1.60887
0.65874	-0.61406
0.73524	0.53379
0.25071	0.76336
0.02119	0.48277
-0.28482	0.12566
-0.31033	0.04914
-0.25932	0.38074
-0.41233	0.40625
-0.25932	-0.25695
0.07220	-0.02739
0.32721	0.27871
0.63323	0.38074
1.19427	0.89089
1.01576	-0.28246
0.42922	-0.15492
-0.15732	-0.23145
-0.56534	0.30422
-0.79486	-0.76711
-0.89686	-0.76711
-0.20832	0.48277
0.70974	0.81437
0.68424	1.27351
0.55673	0.15117
0.45472	0.71234
0.22521	-0.63957
-0.20832	-1.68539
-0.10631	0.83988
-0.10631	0.35523
-0.02981	0.35523
0.14870	-0.35899
0.70974	0.20219
1.14327	1.14597
0.27621	0.94191
0.09770	0.22769
-0.15732	-0.38449
-0.48884	-0.30797
-0.66735	0.04914
-0.56534	0.15117
-0.00431	-0.51203
1.01576	0.38074
1.65330	-0.00188
0.58223	0.96742
0.17421	0.43176
-0.15732	-0.63957
-0.28482	-0.00188
-0.43783	-0.53754
-0.56534	0.38074
0.17421	0.45726
0.40372	0.10015
0.50573	0.10015
0.19971	0.30422
0.12320	0.71234
-0.05531	0.12566
0.42922	0.91640
0.07220	-0.23145
-0.02981	-0.23145
0.40372	0.55929
0.70974	-0.92016
0.37822	-0.76711
-0.02981	-0.07840
-0.36133	0.63582
-0.69285	1.35003
-0.23382	0.76336
0.17421	0.40625
0.48022	0.12566
0.63323	-0.12942
0.50573	0.35523
0.04670	0.15117
-0.05531	-0.10391
0.02119	0.35523
-0.05531	-0.05289
0.09770	-0.10391
0.32721	0.38074
0.55673	1.19699
0.93925	-0.99668
1.90832	-1.04770
0.53123	0.40625
-0.92237	0.17668
-1.58541	0.50828
-1.10088	0.81437
-0.61635	0.99292
-0.20832	0.25320
0.25071	0.07465
0.83725	0.81437
0.86275	-0.76711
1.14327	-1.27726
1.24527	-0.02739
0.14870	0.40625
-0.46334	0.76336
-0.51434	-0.76711
-0.41233	0.25320
-0.76936	0.89089
-0.33583	0.68683
0.88825	0.45726
2.26534	0.20219
1.19427	0.25320
-0.36133	0.12566
-0.69285	-0.05289
-0.61635	-0.02739
-0.33583	-0.66508
-0.08081	-1.02219
0.04670	0.38074
-0.25932	-0.25695
0.17421	0.91640
0.63323	0.91640
1.44929	-0.10391
1.27078	-0.61406
0.27621	0.30422
-0.28482	0.78886
-0.53984	0.22769
-0.56534	0.45726
-0.36133	0.35523
0.07220	0.50828
0.12320	0.55929
0.07220	0.45726
-0.23382	-1.17523
-0.25932	-0.71609
0.27621	-0.43551
0.27621	-0.81812
1.27078	0.35523
1.57679	1.24800
0.35272	0.12566
-0.51434	-0.07840
-0.46334	1.14597
0.12320	-0.43551
0.07220	-0.41000
-0.33583	0.73785
-0.74385	-0.51203
-0.02981	0.53379
0.65874	1.14597
0.42922	-0.07840
0.35272	1.01843
0.17421	0.30422
-0.08081	-0.43551
-0.08081	-0.66508
0.37822	-1.30277
0.86275	-0.46102
1.29628	0.83988
0.22521	0.91640
-0.02981	0.94191
-0.38683	0.58480
-0.66735	0.40625
-0.56534	0.25320
-0.38683	-0.05289
-0.28482	0.43176
0.07220	-0.97117
0.32721	-1.04770
0.37822	-0.76711
0.50573	1.52859
0.27621	-0.07840
0.35272	0.43176
0.68424	0.78886
0.55673	0.89089
0.58223	0.58480
-0.38683	-0.02739
-0.41233	0.02363
0.32721	-1.45582
0.60773	-0.43551
0.40372	0.48277
-0.13181	0.76336
-0.31033	0.50828
-0.61635	0.55929
-0.33583	2.16628
-0.31033	-1.17523
-0.46334	-2.80773
0.63323	0.04914
1.27078	1.06945
1.34728	-1.45582
0.81175	-0.94566
-0.08081	1.24800
-0.51434	1.19699
-0.89686	1.09496
-0.99887	1.04394
0.19971	0.91640
1.04126	-0.00188
1.80631	-0.23145
0.65874	-0.20594
-0.15732	-0.10391
-0.25932	-0.81812
-0.82036	-0.56305
-0.69285	0.63582
-0.46334	0.35523
0.40372	-0.84363
0.73524	-0.69059
0.48022	0.02363
0.48022	0.68683
0.35272	0.91640
-0.02981	0.63582
0.22521	0.83988
0.12320	0.71234
0.02119	0.50828
0.17421	0.35523
-0.28482	0.10015
0.25071	1.17148
0.19971	-0.61406
0.91375	-2.55265
1.06676	-0.51203
-0.10631	0.10015
-0.74385	0.43176
-0.56534	2.16628
-0.31033	0.43176
0.04670	-1.04770
0.14870	0.10015
0.22521	0.81437
0.17421	0.96742
0.17421	-0.25695
0.14870	-0.66508
0.86275	0.58480
0.40372	0.02363
-0.02981	-0.05289
0.25071	1.14597
0.42922	0.35523
0.14870	-0.15492
0.19971	-0.05289
0.17421	0.76336
0.14870	1.01843
-0.10631	-1.30277
-0.15732	-1.17523
0.12320	0.50828
0.42922	1.17148
0.02119	0.43176
-0.00431	0.22769
-0.28482	-1.14973
0.14870	-0.71609
0.25071	0.53379
0.37822	1.68163
0.30171	-0.10391
0.42922	-0.30797
0.25071	0.71234
-0.20832	0.61031
-0.43783	0.68683
-0.43783	0.50828
0.02119	0.76336
0.50573	-1.07320
0.30171	-0.79262
0.65874	0.50828
0.12320	-0.10391
0.02119	-0.51203
-0.08081	0.68683
0.73524	1.17148
0.55673	0.04914
0.25071	-0.86914
-0.15732	-0.02739
-0.05531	0.15117
0.17421	0.50828
0.63323	0.61031
-0.28482	0.45726
-0.48884	0.61031
-0.28482	0.68683
0.45472	-0.38449
-0.18282	-0.86914
0.48022	0.25320
0.63323	-0.48652
1.44929	0.15117
0.37822	0.53379
-1.04987	1.04394
-0.94787	-0.25695
-0.36133	-1.53234
-0.33583	-0.38449
0.02119	1.14597
0.50573	0.76336
0.91375	0.32972
0.60773	-0.07840
0.68424	0.66132
0.55673	0.25320
0.07220	-1.27726
-0.05531	0.63582
-0.46334	0.10015
-0.20832	-0.15492
0.27621	0.89089
0.45472	0.83988
0.25071	-0.43551
0.45472	0.35523
0.22521	-0.00188
-0.18282	-1.25176
-0.46334	-0.10391
-0.13181	-0.00188
0.45472	0.53379
0.42922	0.96742
-0.20832	0.76336
0.12320	-0.18043
0.14870	-0.94566
0.09770	-0.18043
0.22521	0.20219
-0.05531	0.25320
-0.41233	1.04394
0.32721	0.50828
0.88825	-0.38449
0.60773	0.43176
0.22521	1.06945
0.32721	-0.18043
-0.02981	-0.81812
-0.18282	-0.79262
0.27621	0.55929
0.19971	0.07465
-0.23382	0.30422
-0.31033	0.66132
-0.18282	0.43176
0.27621	0.40625
0.48022	-0.35899
0.53123	0.07465
0.42922	0.22769
0.25071	0.02363
-0.00431	0.25320
0.02119	-0.25695
0.09770	1.14597
0.32721	-0.66508
0.02119	-0.46102
0.07220	-0.35899
-0.02981	0.15117
0.30171	0.48277
0.09770	0.35523
0.09770	1.47757
0.12320	0.53379
0.12320	-0.30797
-0.36133	0.04914
-0.15732	-0.00188
0.14870	0.78886
0.58223	0.10015
0.53123	-0.07840
0.55673	0.10015
0.73524	0.25320
0.09770	0.55929
-0.15732	0.40625
-0.64185	-0.97117
-0.23382	-0.69059
-0.28482	-0.61406
-0.43783	0.35523
0.42922	0.58480
1.27078	0.63582
0.93925	0.55929
0.17421	0.55929
-0.18282	0.55929
-0.23382	0.17668
-0.15732	-0.43551
-0.20832	0.17668
-0.02981	0.17668
0.04670	-0.30797
0.25071	-0.74160
0.42922	0.04914
0.91375	0.78886
0.48022	0.83988
0.09770	0.66132
-0.13181	0.76336
-0.31033	-0.00188
-0.13181	-0.30797
0.27621	-0.28246
0.58223	-0.15492
0.50573	0.45726
0.32721	0.20219
0.40372	0.76336
-0.43783	-0.46102
-0.23382	-1.12422
-0.43783	0.02363
-0.38683	0.43176
-0.00431	1.37554
0.07220	-0.38449
0.32721	-0.23145
0.25071	0.50828
0.42922	0.66132
0.58223	0.89089
-0.08081	0.12566
0.35272	-0.30797
0.93925	0.32972
1.34728	0.38074
-0.02981	-0.10391
-0.92237	-0.25695
-0.87136	0.07465
-0.61635	0.10015
-0.28482	0.38074
0.32721	0.96742
0.86275	-0.86914
0.70974	-0.56305
0.14870	-0.12942
-0.05531	0.35523
-0.00431	0.58480
0.14870	0.78886
-0.08081	0.20219
0.45472	0.02363
0.40372	0.22769
0.25071	0.22769
0.07220	0.02363
0.32721	0.04914
-0.02981	0.40625
-0.46334	-0.35899
-0.33583	-0.30797
0.07220	0.15117
0.07220	0.07465
0.09770	0.27871
-0.00431	-0.56305
0.60773	0.17668
0.93925	0.45726
1.01576	1.32453
0.12320	-0.02739
-0.38683	0.04914
-0.53984	0.04914
-0.08081	0.86539
0.02119	-1.17523
0.19971	-0.05289
-0.38683	0.15117
0.27621	0.43176
0.48022	1.73265
1.04126	0.43176
0.27621	-0.35899
-0.13181	0.02363
-0.13181	-0.00188
0.04670	0.45726
0.37822	-0.81812
-0.08081	-1.07320
-0.02981	0.22769
-0.08081	0.66132
-0.02981	0.63582
0.27621	0.32972
0.40372	0.20219
0.37822	0.35523
0.02119	0.17668
0.09770	-0.00188
0.32721	-0.18043
0.14870	0.25320
-0.05531	-0.66508
-0.38683	-0.15492
0.14870	0.58480
0.50573	1.01843
0.81175	0.63582
0.68424	-0.12942
0.07220	-0.25695
-0.28482	-0.05289
-0.33583	0.02363
-0.69285	0.22769
-0.79486	-0.56305
-0.10631	-0.05289
0.60773	0.66132
1.16877	1.12046
1.42379	0.58480
0.76074	-0.18043
-0.33583	0.17668
-0.94787	-0.05289
-0.79486	0.15117
0.37822	-0.15492
1.14327	0.04914
1.01576	1.01843
0.02119	-0.25695
-0.02981	-0.10391
-0.25932	-0.66508
-0.53984	0.17668
-0.38683	-0.20594
-0.20832	-0.23145
-0.38683	0.10015
-0.13181	0.22769
0.22521	0.55929
1.37278	0.76336
1.34728	0.71234
0.88825	0.02363
-0.13181	0.10015
-0.20832	0.04914
0.07220	0.43176
-0.10631	-0.10391
-0.13181	-0.05289
-0.18282	-0.10391
0.53123	0.45726
-0.00431	-0.20594
0.22521	0.25320
-0.61635	0.30422
-0.48884	0.10015
-0.15732	-0.69059
0.27621	-0.56305
0.45472	1.01843
0.45472	-0.69059
0.37822	1.12046
0.37822	0.71234
0.50573	0.12566
0.96476	0.96742
0.42922	0.81437
-0.13181	-0.38449
-0.15732	-0.99668
-0.84586	-0.41000
-0.59084	0.32972
0.35272	-0.10391
1.24527	0.20219
1.60230	0.61031
0.83725	0.15117
0.07220	0.38074
-0.92237	0.12566
-0.92237	0.04914
-0.97337	-0.38449
-0.64185	-0.15492
-0.38683	-0.18043
0.04670	-0.00188
0.65874	0.48277
1.01576	0.63582
0.83725	0.86539
0.45472	0.07465
0.37822	-0.00188
0.22521	0.38074
0.19971	-0.15492
-0.00431	0.20219
-0.02981	-0.38449
0.22521	-0.05289
0.07220	0.86539
0.07220	-0.12942
0.30171	-0.28246
0.81175	0.45726
0.58223	1.22250
-0.23382	-0.05289
-0.38683	-0.76711
-0.56534	-0.25695
-0.33583	0.50828
-0.33583	0.27871
-0.41233	0.12566
-0.43783	0.78886
0.70974	0.07465
1.52579	-0.28246
2.46935	-0.00188
0.78624	0.10015
-0.10631	0.71234
-0.64185	0.30422
-1.10088	0.20219
-0.89686	-0.63957
-0.79486	0.10015
-0.23382	0.27871
0.19971	-0.18043
0.81175	0.12566
1.21977	0.43176
1.47479	0.25320
0.91375	0.68683
-0.31033	-0.43551
-0.61635	-0.25695
-0.31033	0.20219
-0.23382	-0.05289
0.04670	0.25320
-0.31033	0.86539
0.27621	0.94191
0.55673	0.25320
0.73524	-0.25695
0.14870	-0.76711
-0.28482	0.10015
-0.31033	0.40625
-0.23382	-0.41000
-0.08081	-0.15492
0.35272	0.58480
0.37822	0.68683
0.55673	-0.05289
0.58223	-0.48652
0.27621	0.25320
0.22521	0.53379
0.07220	0.53379
0.12320	-0.63957
0.19971	-0.76711
-0.02981	0.25320
-0.10631	0.58480
-0.10631	0.48277
0.27621	0.32972
0.22521	0.55929
-0.08081	-0.05289
0.17421	-0.07840
0.04670	0.38074
0.12320	0.10015
0.40372	-0.25695
-0.00431	0.30422
0.07220	0.07465
0.12320	-0.61406
0.02119	0.89089
0.17421	0.53379
0.63323	-1.12422
0.93925	0.76336
0.40372	0.38074
-0.51434	0.35523
-0.36133	-0.00188
-0.08081	-0.33348
0.12320	0.55929
-0.08081	0.40625
-0.23382	0.35523
0.45472	1.06945
1.09226	-0.53754
1.11776	-0.76711
0.22521	0.15117
-0.43783	-0.18043
-0.59084	0.30422
-0.51434	0.27871
0.12320	0.35523
0.17421	0.12566
0.27621	0.43176
0.22521	0.61031
0.25071	-0.25695
0.32721	-0.48652
0.35272	-0.89465
0.14870	-0.25695
0.07220	1.04394
0.12320	0.55929
0.07220	0.50828
0.09770	0.55929
0.22521	0.38074
0.37822	-0.00188
0.22521	0.27871
0.25071	0.17668
0.12320	-0.25695
-0.18282	0.04914
-0.46334	0.58480
-0.69285	-0.30797
-0.69285	-0.41000
0.35272	0.22769
1.37278	-0.35899
1.70430	-0.18043
1.09226	1.04394
-0.13181	0.58480
-0.87136	0.71234
-0.64185	0.55929
-0.25932	-0.99668
0.07220	-1.78742
-0.13181	0.55929
0.37822	0.61031
0.65874	0.68683
0.37822	0.48277
-0.05531	0.63582
0.02119	0.50828
0.12320	1.09496
0.14870	0.20219
0.22521	-1.45582
0.14870	-0.43551
0.40372	0.43176
0.25071	0.02363
-0.00431	0.35523
-0.08081	0.68683
-0.05531	-0.05289
0.35272	-0.15492
1.04126	0.40625
0.27621	0.38074
-0.20832	0.48277
-0.71835	-0.20594
-0.82036	-0.02739
-0.28482	0.43176
0.22521	-0.20594
0.78624	-0.43551
1.11776	0.76336
1.52579	0.58480
0.12320	-0.18043
-0.51434	0.32972
-0.76936	0.40625
-0.87136	0.02363
-0.36133	0.53379
-0.05531	0.04914
0.04670	-0.02739
0.48022	0.63582
0.91375	-0.51203
1.27078	-0.43551
0.83725	-0.48652
0.19971	0.61031
-0.25932	0.91640
-0.41233	0.78886
-0.38683	0.02363
0.17421	-1.20074
-0.05531	0.12566
0.25071	0.71234
0.48022	0.94191
0.14870	0.58480
0.04670	0.38074
0.12320	-0.10391
-0.13181	-0.18043
0.14870	0.22769
0.40372	-0.28246
0.04670	-0.07840
-0.23382	-0.46102
0.14870	-0.00188
0.76074	0.38074
0.55673	0.50828
0.25071	0.35523
0.55673	0.30422
-0.28482	-0.02739
0.02119	0.04914
-0.10631	0.25320
0.32721	0.25320
-0.18282	0.30422
-0.71835	0.12566
-0.41233	0.02363
0.25071	0.17668
0.76074	-0.02739
0.65874	0.50828
0.12320	0.07465
0.27621	0.38074
0.42922	0.55929
0.35272	-0.76711
-0.05531	-0.30797
-0.46334	0.50828
-0.10631	0.27871
0.37822	-0.20594
0.19971	0.53379
-0.05531	-0.69059
0.32721	-0.56305
0.42922	1.24800
0.37822	1.14597
0.58223	-0.02739
0.17421	0.40625
-0.46334	0.22769
-0.41233	0.10015
-0.31033	0.27871
-0.02981	-0.43551
0.27621	-0.71609
0.53123	-0.35899
0.50573	0.35523
0.32721	0.30422
0.40372	0.50828
-0.08081	0.25320
-0.28482	0.17668
-0.15732	0.17668
0.27621	0.15117
0.35272	0.10015
0.12320	0.15117
0.12320	0.15117
0.27621	0.15117
0.04670	0.25320
0.17421	0.40625
0.25071	-0.28246
0.19971	0.38074
0.40372	0.20219
0.53123	-0.28246
0.58223	0.76336
-0.08081	-0.07840
-0.71835	-0.02739
-0.18282	0.63582
0.12320	0.22769
0.50573	-0.61406
0.81175	-1.60887
0.14870	-0.12942
0.19971	1.01843
-0.31033	1.09496
-0.61635	1.06945
-0.36133	0.53379
-0.18282	0.43176
0.40372	-0.25695
0.12320	-0.51203
0.42922	0.02363
0.42922	0.27871
1.09226	0.25320
0.60773	-0.00188
0.30171	0.12566
-0.15732	-0.07840
-0.28482	-0.18043
-0.20832	0.15117
-0.08081	0.55929
0.19971	0.61031
0.30171	-0.61406
-0.05531	-0.46102
0.12320	0.45726
0.12320	0.66132
0.12320	0.63582
0.09770	-0.48652
0.40372	0.32972
0.42922	0.58480
0.25071	0.12566
-0.00431	0.02363
-0.18282	0.91640
-0.48884	0.83988
-0.48884	-1.48133
0.42922	-0.89465
1.60230	1.47757
1.52579	-0.10391
0.58223	-0.79262
-0.48884	0.02363
-0.53984	0.89089
-0.69285	0.30422
-0.89686	0.30422
-0.51434	0.58480
-0.13181	0.73785
0.42922	-0.18043
0.81175	-0.05289
0.99026	-0.20594
0.78624	-0.07840
0.40372	0.38074
0.09770	-0.05289
-0.28482	-0.33348
0.40372	0.89089
0.55673	0.04914
0.09770	-0.25695
-0.13181	0.55929
-0.36133	0.40625
-0.43783	-0.10391
-0.18282	-0.23145
0.22521	0.02363
0.50573	0.86539
0.22521	0.35523
0.22521	-0.30797
-0.20832	0.48277
0.32721	0.89089
0.12320	0.55929
0.32721	1.01843
0.32721	-0.66508
0.19971	-2.34859
0.50573	-0.15492
0.12320	0.53379
-0.41233	0.94191
0.07220	1.37554
0.32721	0.25320
0.78624	-0.05289
0.14870	-0.05289
-0.25932	0.53379
-0.18282	-0.05289
0.04670	-0.46102
0.14870	0.07465
0.27621	0.53379
-0.10631	0.15117
-0.10631	-0.43551
0.17421	0.15117
0.14870	0.17668
0.42922	0.32972
0.70974	0.50828
0.50573	0.40625
0.09770	-0.15492
-0.18282	-0.53754
-0.15732	-0.23145
-0.10631	0.45726
-0.33583	0.71234
0.14870	0.07465
0.60773	-0.12942
0.86275	0.55929
0.25071	0.94191
-0.08081	0.50828
-0.66735	0.25320
-0.25932	-0.48652
-0.05531	-0.38449
0.83725	0.12566
0.63323	0.10015
-0.02981	-0.35899
-0.08081	-0.56305
-0.08081	1.12046
0.14870	-0.12942
1.11776	-0.56305
1.19427	0.86539
0.12320	0.63582
-0.51434	0.12566
-0.13181	0.02363
0.22521	0.73785
-0.08081	0.66132
-0.84586	-0.12942
-0.46334	-1.14973
0.14870	-1.02219
0.60773	0.35523
0.63323	0.61031
-0.02981	0.61031
0.35272	0.45726
0.86275	0.27871
0.70974	0.27871
0.07220	0.40625
-0.08081	-0.15492
0.12320	0.53379
-0.05531	-0.15492
-0.33583	0.63582
-0.66735	-0.41000
-0.41233	-1.40480
0.22521	-0.33348
1.11776	0.81437
0.37822	0.83988
-0.00431	0.55929
-0.25932	0.61031
-0.08081	0.73785
0.22521	-0.79262
0.50573	-0.28246
0.83725	0.68683
0.93925	0.40625
0.65874	0.32972
0.32721	0.15117
0.02119	0.40625
-0.82036	-0.25695
-0.79486	0.48277
-0.33583	0.40625
0.09770	-1.86394
0.17421	-1.22625
0.30171	0.50828
0.53123	0.76336
0.35272	0.94191
-0.05531	1.27351
0.14870	0.02363
0.40372	0.10015
0.37822	0.30422
-0.10631	0.27871
0.12320	0.22769
-0.08081	-0.35899
0.55673	0.04914
0.68424	-0.00188
0.42922	0.22769
-0.33583	0.12566
-0.31033	0.15117
-0.18282	0.22769
-0.18282	0.25320
-0.18282	0.32972
-0.15732	-0.33348
-0.28482	-1.09871
0.68424	-0.38449
1.37278	-0.61406
1.32178	0.68683
0.48022	1.75816
0.12320	1.27351
-0.28482	1.01843
-0.61635	-0.25695
-0.79486	-1.45582
-0.23382	0.30422
0.17421	0.61031
0.32721	0.99292
1.04126	-0.25695
0.68424	-0.97117
0.83725	0.22769
0.19971	0.58480
-0.41233	0.35523
-0.51434	0.12566
-1.02437	-0.53754
-0.76936	-0.63957
-0.33583	-0.43551
0.35272	0.53379
0.68424	1.50308
1.14327	-0.25695
0.65874	-0.15492
0.58223	0.35523
0.17421	0.78886
-0.08081	0.43176
0.02119	-0.38449
0.12320	-0.00188
0.19971	0.50828
0.04670	-0.05289
0.02119	0.27871
0.17421	0.35523
0.14870	0.89089
0.40372	0.07465
0.30171	0.15117
0.09770	-0.89465
-0.05531	-0.35899
-0.28482	-0.69059
-0.00431	0.50828
0.12320	0.96742
-0.28482	-0.33348
0.04670	-0.00188
0.76074	1.09496
0.93925	0.58480
0.22521	0.43176
0.22521	0.78886
-0.02981	-0.48652
-0.15732	-1.30277
0.27621	-0.15492
0.42922	0.38074
0.07220	0.35523
-0.59084	0.66132
-0.59084	0.43176
0.04670	0.25320
0.60773	0.83988
0.63323	0.43176
0.09770	-1.02219
0.19971	-0.30797
0.22521	-0.43551
0.12320	0.17668
0.32721	0.38074
0.17421	0.35523
0.19971	0.89089
0.30171	0.04914
0.32721	0.55929
0.37822	-0.15492
-0.18282	-1.32828
-0.15732	0.27871
-0.02981	0.43176
0.30171	1.57960
-0.13181	0.12566
-0.10631	-0.25695
0.27621	1.01843
0.30171	0.50828
0.09770	-0.18043
0.07220	-0.35899
-0.05531	-0.28246
0.17421	-0.81812
0.73524	0.35523
0.70974	0.48277
-0.13181	-0.30797
0.19971	0.78886
0.55673	0.83988
0.73524	0.50828
0.07220	0.25320
-0.61635	0.12566
-0.79486	0.32972
-0.61635	-0.56305
0.02119	-0.28246
0.12320	-0.58856
0.30171	-0.23145
0.53123	0.40625
0.70974	0.73785
0.19971	0.81437
-0.08081	0.38074
0.09770	-0.53754
-0.23382	-0.07840
0.25071	0.50828
0.27621	0.96742
0.60773	-0.20594
0.45472	-0.76711
0.83725	0.32972
0.37822	0.43176
-0.38683	0.27871
-0.53984	1.06945
-0.18282	-0.48652
-0.00431	-0.89465
-0.08081	0.10015
0.09770	0.27871
0.19971	0.22769
0.19971	0.63582
0.22521	0.86539
-0.00431	-0.25695
0.55673	-0.02739
0.42922	-0.30797
0.35272	-0.46102
-0.18282	0.50828
-0.00431	0.58480
0.02119	0.32972
-0.31033	0.12566
-0.38683	0.40625
-0.28482	-0.46102
0.14870	-0.30797
0.48022	0.61031
0.48022	0.48277
0.50573	0.17668
0.53123	0.25320
0.48022	0.22769
0.42922	-0.05289
0.53123	0.35523
0.27621	0.04914
-0.00431	0.10015
-0.69285	0.10015
-0.51434	-0.10391
-0.08081	-0.07840
0.68424	0.10015
0.99026	0.76336
-0.23382	0.04914
-0.36133	-0.25695
-0.28482	0.25320
-0.41233	-0.25695
-0.28482	0.45726
0.12320	1.04394
0.65874	0.71234
1.04126	-0.76711
0.63323	-0.23145
0.58223	0.71234
-0.10631	0.50828
-0.38683	0.32972
-0.08081	1.24800
-0.43783	-0.89465
-0.20832	-1.37929
0.22521	0.55929
0.81175	0.86539
0.76074	0.45726
0.19971	-0.56305
0.19971	-0.23145
-0.10631	0.91640
-0.28482	0.40625
0.07220	0.53379
-0.10631	0.45726
-0.08081	-0.02739
0.32721	-0.28246
0.81175	-0.23145
1.11776	0.40625
-0.08081	0.22769
-0.64185	0.10015
-0.64185	0.10015
-0.23382	0.15117
-0.00431	0.12566
0.55673	-0.23145
0.48022	-0.00188
0.40372	-0.10391
-0.02981	-0.76711
0.14870	0.43176
0.09770	1.27351
0.14870	0.61031
0.42922	0.12566
0.27621	0.25320
0.60773	-0.12942
0.63323	0.02363
0.14870	0.12566
-0.69285	0.86539
-0.69285	0.66132
-0.51434	-0.53754
-0.23382	-0.66508
0.02119	0.81437
0.50573	0.35523
1.01576	0.17668
1.11776	0.76336
0.30171	-0.66508
-0.23382	-0.79262
0.12320	0.45726
0.22521	0.17668
0.19971	-0.05289
-0.15732	0.71234
-0.41233	1.06945
0.37822	0.07465
0.25071	-0.53754
0.63323	0.55929
-0.08081	-0.20594
-0.28482	-0.07840
0.07220	0.45726
0.02119	0.30422
0.07220	-0.07840
0.12320	-0.02739
0.02119	0.20219
-0.02981	-0.10391
0.27621	0.45726
0.37822	0.96742
0.19971	-0.00188
0.42922	-1.27726
0.63323	-0.76711
0.83725	0.45726
0.30171	0.40625
0.22521	0.81437
0.09770	0.66132
-0.28482	1.24800
-0.48884	0.02363
-0.38683	-1.07320
-0.23382	-0.53754
-0.08081	0.45726
0.22521	0.20219
0.60773	-0.02739
0.42922	1.17148
0.04670	0.25320
0.37822	-0.07840
0.42922	-0.12942
0.25071	0.15117
-0.20832	0.43176
0.17421	1.37554
-0.00431	-0.30797
0.22521	-1.63437
0.35272	0.48277
0.04670	-0.18043
-0.10631	0.07465
0.19971	0.30422
0.25071	0.86539
0.07220	0.61031
-0.23382	0.81437
0.12320	0.45726
0.09770	-0.41000
0.50573	-0.94566
0.58223	-1.27726
0.42922	0.81437
0.22521	1.12046
0.12320	0.10015
0.19971	0.35523
-0.15732	0.20219
-0.33583	-0.02739
0.02119	-0.00188
0.60773	0.38074
0.83725	0.86539
-0.38683	0.30422
-0.41233	-0.56305
0.12320	-0.23145
0.22521	0.17668
0.12320	0.30422
-0.25932	0.89089
0.17421	-0.35899
0.53123	-0.56305
0.22521	0.25320
-0.00431	0.78886
0.53123	-1.37929
0.60773	0.71234
0.22521	0.83988
-0.53984	0.76336
-0.61635	0.17668
-0.20832	-0.25695
-0.18282	1.27351
0.58223	-0.69059
1.04126	-1.68539
1.04126	0.45726
0.55673	0.83988
0.09770	0.04914
-0.23382	0.07465
-0.46334	0.35523
-0.41233	0.15117
-0.23382	0.04914
-0.48884	0.04914
-0.23382	1.19699
0.02119	-0.25695
0.68424	-1.53234
1.01576	-0.53754
1.11776	0.30422
0.50573	0.50828
0.02119	1.32453
-0.28482	0.58480
-0.38683	0.10015
-0.28482	-0.15492
0.17421	-0.05289
0.88825	0.02363
0.96476	0.20219
0.22521	-0.00188
-0.31033	0.38074
-0.38683	0.17668
-0.18282	0.53379
-0.28482	-0.12942
-0.38683	-0.28246
-0.28482	-0.02739
0.19971	-0.41000
0.32721	0.45726
0.45472	0.15117
0.65874	0.22769
0.22521	-0.15492
0.60773	1.01843
0.53123	0.53379
0.25071	-0.43551
0.12320	-0.53754
-0.00431	0.27871
0.04670	0.48277
-0.15732	0.22769
-0.23382	0.63582
-0.10631	1.37554
0.19971	-0.63957
0.63323	-0.12942
0.81175	-0.02739
0.32721	-0.15492
-0.43783	0.17668
-0.31033	-0.46102
-0.48884	-0.46102
-0.18282	0.22769
-0.20832	0.86539
-0.08081	0.43176
0.55673	1.06945
1.09226	0.48277
1.52579	0.10015
0.76074	0.32972
-0.05531	-0.35899
-0.48884	-0.94566
-0.48884	-0.05289
-0.20832	0.10015
-0.48884	0.30422
0.02119	0.81437
0.45472	0.20219
1.14327	0.35523
0.55673	0.38074
0.42922	-0.66508
0.09770	-0.35899
-0.31033	0.40625
-0.43783	0.45726
-0.46334	0.40625
-0.33583	0.17668
0.35272	0.45726
0.63323	0.22769
0.58223	-0.66508
0.45472	0.07465
0.42922	0.45726
0.45472	0.40625
0.17421	0.20219
-0.13181	-0.00188
-0.25932	0.25320
0.04670	1.24800
0.12320	-0.81812
0.17421	-0.35899
0.17421	-0.15492
0.02119	0.30422
0.04670	0.38074
0.14870	-0.76711
-0.02981	-0.02739
0.12320	0.53379
0.14870	0.91640
0.42922	0.10015
0.27621	-0.18043
0.55673	0.43176
0.22521	0.17668
0.55673	0.53379
-0.05531	0.20219
0.04670	-0.35899
-0.25932	-0.51203
-0.00431	0.99292
0.25071	-0.41000
-0.05531	-0.79262
-0.43783	0.25320
-0.25932	0.30422
0.30171	0.68683
0.55673	0.89089
0.32721	0.04914
0.35272	-0.25695
0.58223	0.22769
-0.18282	0.15117
-0.46334	-0.66508
-0.23382	-0.00188
0.32721	0.66132
0.83725	0.30422
0.86275	-0.15492
0.14870	0.12566
0.02119	0.66132
-0.00431	-0.10391
-0.13181	-0.79262
0.12320	0.22769
0.42922	0.55929
0.12320	0.15117
0.14870	-0.02739
-0.08081	0.58480
-0.59084	0.89089
-0.41233	0.50828
0.30171	-0.63957
0.73524	-0.38449
0.60773	0.40625
0.19971	1.09496
-0.31033	-0.07840
-0.53984	-0.66508
0.25071	1.14597
0.81175	-0.00188
0.99026	-0.79262
0.19971	-0.02739
-0.18282	0.48277
-0.05531	0.40625
0.42922	0.50828
0.19971	0.15117
-0.05531	-0.00188
-0.05531	-0.89465
-0.28482	0.27871
-0.71835	0.76336
-0.59084	0.20219
0.19971	0.32972
0.70974	-0.15492
1.57679	0.10015
1.55129	0.81437
0.73524	0.71234
-0.48884	-0.71609
-1.02437	-0.63957
-0.97337	0.15117
-0.56534	-0.30797
-0.48884	0.02363
-0.18282	0.76336
0.45472	0.43176
0.99026	-0.00188
1.75531	0.12566
1.60230	0.53379
0.81175	0.76336
-0.31033	0.20219
-0.92237	0.04914
-0.84586	-0.07840
-0.51434	0.50828
0.22521	-0.66508
0.37822	-0.07840
0.07220	-0.53754
0.30171	-0.12942
0.30171	-0.07840
0.40372	0.53379
-0.05531	0.91640
0.27621	0.81437
-0.08081	1.09496
-0.08081	-0.07840
0.19971	-0.07840
0.32721	-0.23145
-0.08081	-0.15492
-0.08081	-0.41000
0.53123	-0.38449
0.83725	1.27351
0.93925	0.99292
-0.28482	-1.25176
-0.33583	1.96222
-0.28482	0.30422
-0.31033	-2.09351
-0.28482	0.27871
0.22521	-0.10391
0.68424	-0.58856
-0.00431	0.27871
-0.51434	-0.10391
0.48022	1.27351
0.76074	1.70714
0.70974	3.28862
0.14870	-0.10391
0.02119	0.48277
-0.05531	2.29382
-0.13181	-3.08831
0.14870	-3.44542
0.40372	-0.51203
0.42922	-0.20594
0.19971	1.68163
0.35272	1.14597
0.04670	0.71234
-0.33583	1.27351
-0.38683	0.58480
-0.18282	-1.37929
-0.18282	-0.81812
-0.02981	-0.02739
0.09770	0.48277
0.09770	1.06945
0.40372	-0.25695
0.60773	-1.30277
0.68424	-0.63957
1.16877	0.22769
0.40372	0.76336
-0.18282	0.71234
-0.13181	0.83988
0.12320	0.38074
-0.20832	0.30422
-0.64185	0.07465
-0.08081	0.04914
-0.10631	0.22769
0.12320	0.30422
0.02119	0.07465
0.04670	0.25320
0.19971	0.10015
0.63323	-0.51203
0.30171	0.91640
0.14870	-0.43551
0.32721	-1.88945
-0.13181	0.55929
0.65874	-0.28246
0.68424	-0.15492
1.01576	1.68163
0.19971	0.22769
-0.71835	0.10015
-0.79486	1.06945
-0.59084	1.01843
-0.51434	-0.25695
-0.31033	0.96742
-0.05531	1.14597
0.58223	-2.96078
0.83725	-0.76711
1.16877	0.73785
0.81175	0.63582
0.12320	0.58480
0.09770	0.40625
-0.20832	0.55929
-0.18282	0.04914
-0.13181	-0.18043
0.17421	0.15117
0.17421	-0.05289
0.30171	0.07465
0.02119	0.55929
-0.13181	-0.23145
-0.31033	-0.18043
0.37822	0.45726
0.53123	0.71234
0.53123	-0.74160
0.19971	0.17668
-0.05531	0.50828
-0.00431	-0.71609
-0.46334	0.43176
-0.51434	0.53379
-0.02981	0.43176
0.50573	1.57960
0.68424	-0.25695
0.53123	-1.27726
0.81175	-0.12942
0.60773	0.45726
-0.18282	1.32453
-0.28482	-0.12942
-0.48884	-0.76711
-0.64185	0.04914
-0.13181	0.25320
0.42922	0.27871
0.83725	0.17668
0.78624	-0.15492
0.55673	0.50828
0.19971	-0.86914
-0.02981	-0.92016
-0.20832	1.29902
-0.25932	0.86539
-0.25932	0.96742
-0.05531	0.68683
0.32721	-0.25695
0.70974	-0.23145
0.63323	-1.25176
0.40372	-0.25695
-0.20832	0.15117
