0.17421	0.55929
-0.02981	0.73785
-0.08081	0.12566
0.14870	0.12566
0.37822	0.17668
0.32721	-0.02739
0.22521	0.07465
0.17421	0.02363
0.09770	0.02363
0.07220	0.04914
0.19971	0.02363
0.07220	0.10015
-0.08081	-0.10391
0.12320	0.15117
0.02119	0.20219
0.30171	0.25320
0.22521	0.40625
0.17421	0.58480
0.35272	0.48277
0.14870	-0.28246
0.19971	-0.38449
0.32721	-0.15492
0.17421	0.27871
0.09770	0.61031
-0.46334	0.38074
-0.05531	0.12566
0.02119	-0.02739
0.32721	0.20219
0.32721	0.12566
0.32721	0.17668
0.22521	0.17668
-0.00431	0.10015
-0.18282	-0.20594
0.07220	0.10015
-0.02981	0.35523
0.40372	0.22769
0.32721	-0.28246
0.78624	-0.15492
0.76074	0.25320
-0.13181	0.50828
-0.36133	0.30422
-0.20832	-0.02739
0.02119	-0.58856
0.12320	0.68683
0.42922	0.76336
0.07220	0.04914
-0.18282	-0.86914
0.12320	-1.14973
0.14870	0.96742
0.09770	0.89089
-0.05531	0.38074
0.32721	0.32972
0.63323	0.53379
0.12320	0.66132
0.14870	0.38074
-0.18282	0.12566
0.73524	0.68683
0.17421	0.30422
0.73524	-0.51203
-0.00431	-1.88945
0.14870	-0.92016
-0.05531	-0.23145
-0.33583	0.81437
-0.38683	1.12046
0.04670	0.71234
0.40372	0.38074
0.09770	0.04914
0.17421	-0.07840
0.30171	-0.15492
1.11776	0.45726
0.19971	0.50828
-0.28482	0.15117
-0.05531	0.12566
-0.08081	0.17668
-0.08081	0.15117
0.17421	0.17668
-0.02981	0.10015
0.14870	1.01843
0.14870	-0.00188
0.14870	-1.91496
0.14870	-1.07320
0.25071	0.25320
0.42922	0.55929
0.60773	1.19699
0.70974	1.35003
0.14870	1.09496
-0.25932	0.55929
-0.41233	0.10015
-0.46334	-0.53754
-0.00431	-0.25695
0.17421	-0.12942
0.76074	-0.10391
0.02119	-0.15492
-0.33583	-0.07840
-0.33583	0.35523
0.42922	0.17668
0.37822	-0.12942
0.88825	0.27871
0.83725	0.61031
0.65874	0.27871
-0.79486	0.58480
-0.84586	-0.53754
-0.05531	-1.22625
0.32721	0.12566
0.04670	0.83988
-0.08081	-0.10391
0.37822	0.22769
0.53123	1.04394
0.27621	0.94191
0.83725	1.01843
0.58223	-0.18043
0.12320	-0.41000
-0.33583	-0.51203
-0.23382	0.38074
-0.53984	-0.12942
-0.43783	-0.46102
0.22521	-0.00188
0.76074	0.32972
-0.00431	0.27871
0.04670	0.30422
-0.05531	-0.23145
0.19971	-0.07840
0.37822	0.20219
0.35272	0.71234
0.65874	-0.00188
0.91375	-0.71609
0.09770	0.48277
0.09770	0.58480
-0.51434	-0.25695
-0.53984	0.68683
-0.02981	1.01843
0.68424	0.32972
0.32721	-0.66508
0.12320	0.66132
-0.25932	0.04914
-0.31033	-0.66508
0.30171	-0.30797
0.60773	0.71234
0.22521	0.17668
0.12320	0.10015
0.22521	0.32972
-0.66735	-0.66508
-0.94787	0.66132
0.22521	0.22769
1.37278	0.78886
0.78624	0.17668
0.27621	-0.79262
0.02119	0.48277
-0.08081	0.73785
-0.15732	-1.58336
0.30171	0.04914
0.48022	0.83988
-0.51434	-0.12942
-0.31033	0.99292
0.02119	0.17668
0.37822	-0.30797
-0.00431	0.30422
0.32721	0.66132
0.50573	-0.00188
0.32721	-0.53754
0.93925	0.66132
0.35272	0.78886
0.12320	-1.04770
-0.41233	-0.79262
-0.00431	0.68683
0.22521	0.22769
0.09770	0.94191
0.09770	0.45726
-0.15732	0.73785
0.50573	1.06945
-0.23382	0.43176
-1.10088	-0.86914
-0.99887	-1.50683
0.99026	-0.05289
1.83181	0.38074
1.65330	0.15117
0.42922	0.66132
-0.20832	4.18139
-0.33583	-0.43551
-0.51434	-4.92487
-0.79486	-3.41992
0.22521	-0.18043
0.19971	1.14597
0.55673	1.63062
0.58223	2.08976
0.63323	1.29902
0.53123	2.29382
0.58223	1.88570
0.09770	1.63062
-0.33583	-0.81812
-0.66735	-2.55265
-0.28482	-3.72601
-0.79486	-0.07840
-0.82036	0.38074
0.12320	1.40105
0.81175	0.53379
1.47479	-0.18043
0.65874	-0.66508
1.21977	0.40625
0.12320	0.10015
-0.41233	-0.07840
-1.20288	1.45206
-0.84586	-0.05289
0.81175	-0.28246
1.09226	0.38074
0.68424	-0.51203
1.60230	0.55929
0.60773	0.20219
0.60773	0.94191
-0.25932	0.94191
-1.53441	1.93671
-1.45790	0.45726
-1.04987	-2.11902
0.14870	-2.37410
1.11776	-1.14973
0.73524	1.45206
0.48022	1.50308
0.09770	1.57960
0.81175	-1.58336
0.42922	0.15117
-0.28482	-0.07840
-0.38683	-0.76711
-0.69285	-0.61406
0.09770	0.83988
0.22521	1.73265
-0.15732	1.57960
0.81175	1.32453
2.06133	-0.48652
0.86275	-0.69059
-0.00431	-0.25695
-0.61635	-0.51203
-0.71835	0.50828
-0.53984	1.68163
-0.38683	-0.58856
-0.08081	0.48277
0.25071	-0.58856
1.19427	-0.41000
2.16333	-1.27726
0.91375	-2.70570
-0.43783	-1.04770
-1.25389	2.42136
-0.69285	2.54890
-0.25932	0.63582
-0.10631	0.71234
-0.13181	1.98773
-0.13181	1.47757
0.86275	-0.25695
1.11776	1.42656
0.30171	-0.86914
0.02119	-2.83324
0.04670	0.48277
0.37822	-1.71090
0.04670	-1.32828
-0.20832	0.66132
-0.18282	1.47757
0.42922	0.58480
0.48022	-0.48652
0.68424	-0.02739
0.22521	1.52859
-0.18282	1.60511
-0.00431	-0.76711
-0.25932	0.58480
-0.00431	0.89089
-0.36133	-1.43031
0.60773	-0.38449
0.02119	-0.43551
0.02119	-0.89465
0.09770	0.30422
0.19971	1.57960
-0.38683	1.37554
0.81175	1.01843
0.81175	0.86539
0.02119	-1.12422
-0.38683	-1.22625
0.73524	-0.23145
0.60773	0.04914
0.02119	1.19699
-0.41233	-0.89465
-0.15732	-1.68539
-0.59084	1.06945
-0.15732	0.81437
-0.18282	0.48277
-0.23382	0.35523
0.68424	1.24800
0.76074	0.02363
-0.10631	-1.22625
-0.00431	-0.61406
0.07220	-0.00188
0.93925	-0.56305
0.53123	0.27871
0.30171	0.81437
-0.20832	0.94191
0.83725	1.86019
0.17421	-1.07320
0.40372	-0.02739
-0.53984	0.66132
-0.69285	-0.63957
-0.10631	-0.97117
-0.05531	1.17148
-0.41233	0.73785
0.19971	-0.81812
0.96476	1.27351
0.17421	-0.46102
0.73524	-1.65988
0.53123	0.99292
-0.18282	1.22250
-0.23382	0.89089
0.09770	0.68683
0.04670	0.17668
-0.38683	-0.76711
0.12320	-0.89465
0.55673	1.01843
1.04126	-0.25695
-0.00431	-2.09351
-0.31033	-0.92016
-0.48884	1.06945
-0.48884	1.55410
-0.23382	0.83988
0.78624	0.91640
1.65330	0.30422
0.02119	1.98773
-0.33583	-0.12942
-0.31033	-3.67499
0.14870	-0.10391
0.86275	0.63582
1.04126	0.45726
-0.31033	1.42656
-0.48884	0.76336
-0.43783	0.99292
-0.10631	0.35523
-0.15732	-0.69059
-0.02981	0.17668
0.19971	-0.76711
0.93925	-1.22625
0.76074	-0.51203
-0.10631	0.71234
-0.08081	1.75816
0.12320	3.16108
0.63323	-0.84363
0.73524	-1.27726
1.11776	-0.94566
0.12320	-0.18043
-0.94787	0.50828
-0.89686	0.78886
-0.84586	1.01843
-0.25932	0.96742
-0.00431	1.60511
-0.10631	0.35523
0.45472	-0.46102
1.01576	0.45726
1.72980	-0.61406
0.07220	-1.48133
0.25071	-2.29757
0.48022	-0.56305
0.65874	1.32453
-0.36133	1.47757
-0.13181	1.17148
-0.38683	0.86539
-0.23382	0.48277
-0.23382	2.06425
-0.25932	-1.14973
-0.36133	-1.83844
0.30171	1.57960
1.09226	0.76336
0.78624	-1.83844
-0.00431	-1.27726
0.09770	0.35523
-0.48884	0.48277
-0.46334	0.89089
0.37822	1.14597
0.86275	0.48277
0.76074	0.61031
-0.28482	0.96742
-0.02981	-0.33348
0.45472	0.86539
-0.05531	0.15117
0.53123	-1.78742
-0.18282	0.25320
-0.48884	-0.25695
0.09770	1.29902
0.30171	-0.18043
-0.38683	-3.70050
0.02119	-0.43551
0.96476	1.78367
0.27621	1.52859
0.68424	0.73785
0.53123	0.38074
-0.20832	0.91640
-0.82036	0.22769
-0.02981	-0.05289
-0.51434	0.53379
0.35272	0.02363
0.12320	0.81437
0.09770	-2.09351
0.32721	-1.53234
0.07220	-0.02739
0.40372	0.48277
0.86275	1.09496
0.78624	0.55929
0.19971	3.67124
0.22521	0.12566
-0.20832	-4.72081
-0.41233	-0.84363
-0.79486	0.58480
-0.23382	1.17148
0.96476	2.34484
1.52579	0.94191
-0.00431	-0.41000
0.48022	0.66132
-0.51434	1.52859
-0.48884	-0.46102
-0.28482	0.07465
-0.33583	-1.48133
0.12320	-1.17523
0.37822	-1.81293
0.37822	0.73785
0.60773	1.75816
0.81175	1.96222
0.07220	2.85499
-0.36133	-0.33348
-0.28482	-2.42511
0.60773	0.02363
0.68424	1.42656
0.12320	1.17148
0.48022	-1.73640
-0.10631	-0.74160
-0.71835	0.81437
-0.20832	1.55410
-0.02981	0.12566
-0.08081	-2.09351
-0.25932	-0.20594
0.55673	1.09496
1.55129	0.38074
1.44929	0.02363
-0.48884	0.27871
-0.23382	0.78886
0.37822	0.89089
-0.46334	2.49788
-0.51434	-0.97117
-0.02981	-2.04250
0.32721	-1.02219
0.93925	-1.17523
0.35272	1.27351
0.65874	0.91640
-0.33583	0.55929
-0.41233	0.35523
-0.23382	0.55929
-0.10631	-0.25695
0.12320	1.04394
-0.00431	0.45726
0.40372	0.66132
0.42922	0.07465
0.22521	-1.60887
-0.28482	-0.28246
0.02119	0.63582
-0.31033	0.32972
0.50573	0.43176
1.44929	0.40625
0.86275	0.38074
-0.08081	-0.33348
-0.51434	0.50828
-0.13181	0.30422
-0.25932	-1.60887
-0.08081	-0.25695
0.55673	-0.07840
0.68424	1.12046
0.04670	1.73265
0.02119	1.27351
0.07220	-0.28246
0.07220	-0.71609
0.30171	0.86539
0.09770	0.30422
-0.00431	-0.99668
-0.31033	0.22769
-0.41233	0.27871
0.22521	0.61031
0.32721	3.74776
0.19971	1.35003
0.17421	-3.95558
0.25071	-3.06281
0.76074	-0.30797
0.65874	0.25320
1.09226	2.08976
0.70974	2.06425
0.02119	1.78367
-0.28482	1.14597
-0.20832	1.50308
-0.66735	0.40625
-0.64185	-0.74160
-1.30489	-2.60367
0.55673	-1.73640
1.62780	-0.18043
1.06676	0.12566
-0.33583	-0.84363
-0.28482	1.47757
0.17421	1.29902
0.12320	1.37554
-0.28482	0.91640
-0.53984	-0.66508
0.88825	0.73785
1.98482	-0.05289
1.06676	0.10015
-0.18282	-0.38449
-0.99887	0.43176
-0.99887	-0.18043
-0.51434	-0.86914
-0.31033	0.15117
-0.15732	0.40625
0.35272	0.17668
0.60773	0.96742
1.34728	1.24800
0.65874	-1.48133
-0.13181	-1.50683
-0.20832	1.32453
-0.25932	1.93671
-0.00431	-1.20074
1.62780	1.04394
1.01576	0.32972
0.02119	-0.86914
-0.59084	0.50828
-0.71835	0.96742
-0.46334	-0.53754
-0.43783	-0.00188
-0.38683	0.53379
-0.20832	0.81437
0.60773	0.25320
1.32178	-0.63957
1.34728	-1.14973
0.14870	0.10015
-0.15732	0.53379
-0.43783	0.50828
-0.48884	0.76336
0.37822	0.25320
0.55673	0.81437
0.14870	-0.79262
-0.08081	-1.22625
-0.13181	0.27871
0.27621	0.30422
-0.33583	0.27871
0.19971	0.96742
0.53123	0.40625
0.14870	-0.38449
0.42922	-0.35899
0.12320	0.86539
0.73524	1.14597
-0.23382	0.10015
-0.08081	-3.01179
0.19971	-0.20594
0.48022	1.68163
0.37822	0.68683
0.17421	-0.74160
-0.23382	2.39585
-0.48884	1.83468
-0.36133	-3.57296
-0.18282	-1.50683
0.65874	0.66132
0.73524	0.76336
0.40372	0.76336
0.22521	0.63582
0.27621	0.63582
0.17421	0.50828
0.14870	0.15117
-0.28482	-0.00188
0.32721	-0.25695
0.22521	0.20219
-0.02981	0.68683
0.04670	-0.66508
-0.36133	-2.01699
0.65874	-0.05289
0.27621	-0.10391
0.48022	0.66132
-0.31033	1.52859
-0.48884	2.90601
0.30171	-1.27726
0.68424	-2.01699
0.83725	0.48277
-0.20832	0.76336
-0.31033	2.67644
-0.15732	1.27351
-0.00431	-1.55785
-0.05531	-0.02739
-0.43783	0.71234
-0.20832	0.45726
0.19971	-0.33348
1.14327	0.66132
1.14327	0.12566
0.70974	-1.14973
0.07220	-0.10391
-0.28482	0.35523
-0.08081	3.74776
0.12320	-2.17003
0.07220	-3.44542
0.55673	0.43176
0.32721	0.30422
-0.92237	1.75816
-0.05531	1.14597
0.30171	0.48277
0.12320	0.96742
-0.10631	1.14597
-0.43783	-0.25695
-0.08081	-0.43551
0.70974	-0.66508
0.60773	-1.14973
-0.08081	0.10015
-0.10631	0.66132
0.07220	0.94191
0.40372	0.02363
0.37822	0.32972
0.30171	0.32972
0.58223	-0.00188
0.32721	-0.00188
0.30171	-0.23145
-0.36133	-0.23145
-0.08081	-0.97117
0.27621	0.45726
0.04670	0.68683
-0.25932	1.22250
-0.76936	1.35003
-0.56534	-1.22625
0.48022	1.27351
1.24527	-0.66508
0.53123	-1.96597
-0.25932	-0.10391
0.07220	0.25320
0.22521	0.91640
-0.10631	0.76336
0.04670	0.89089
0.22521	1.09496
-0.48884	-0.25695
0.37822	-0.25695
1.19427	0.48277
1.42379	-0.05289
0.88825	-1.20074
-0.20832	1.80917
-0.36133	-1.07320
-0.76936	-0.94566
-0.74385	0.53379
-0.28482	0.38074
-0.46334	-0.05289
0.22521	0.25320
0.27621	-0.12942
0.40372	0.45726
0.58223	0.48277
0.58223	0.81437
-0.10631	1.12046
0.02119	0.20219
0.60773	-0.92016
0.68424	-1.40480
0.35272	-1.55785
0.02119	-0.05289
-0.56534	1.40105
0.12320	0.68683
0.86275	0.12566
0.81175	1.04394
-0.08081	1.06945
-0.59084	0.89089
-0.51434	0.15117
-0.79486	-0.61406
-0.05531	-1.99148
0.12320	-0.38449
1.01576	-0.81812
0.63323	0.12566
0.32721	0.89089
0.02119	1.29902
0.53123	1.78367
-0.25932	2.82948
0.32721	0.86539
0.19971	-5.20546
0.02119	-2.11902
-0.13181	0.83988
0.19971	1.40105
-0.15732	1.27351
-0.23382	0.55929
0.02119	1.42656
-0.02981	0.89089
0.22521	-1.63437
0.25071	-0.41000
0.88825	0.45726
1.16877	-0.61406
0.27621	-0.74160
0.09770	0.43176
-0.18282	1.14597
-0.33583	-0.33348
-0.41233	0.22769
-0.25932	0.25320
-0.25932	0.48277
0.78624	0.91640
1.09226	0.02363
0.12320	-0.20594
-0.00431	0.58480
-0.61635	-0.38449
-0.51434	-1.35379
-0.48884	0.78886
0.30171	0.32972
0.55673	-1.12422
1.42379	0.81437
0.40372	0.17668
0.37822	0.25320
0.02119	0.40625
-0.10631	0.07465
-0.05531	0.40625
-0.43783	1.17148
-0.20832	-0.10391
-0.18282	0.32972
-0.05531	0.04914
0.14870	-1.83844
0.09770	1.14597
0.73524	-0.92016
1.39828	-1.86394
1.06676	1.19699
-0.15732	1.73265
-0.41233	1.55410
-0.33583	1.04394
-0.25932	0.45726
-0.38683	0.61031
-0.20832	0.27871
0.02119	0.32972
0.07220	-1.45582
0.50573	-1.68539
0.99026	0.35523
0.53123	0.43176
0.12320	0.35523
0.12320	0.73785
-0.33583	0.68683
-0.69285	0.66132
-0.10631	0.48277
0.48022	0.10015
1.14327	-0.10391
1.50029	0.04914
0.55673	-0.02739
-0.36133	0.30422
-0.66735	-0.46102
-0.94787	1.09496
-0.84586	-0.58856
-0.56534	-0.63957
-0.20832	0.63582
0.65874	-0.41000
1.39828	-0.79262
1.04126	0.40625
0.93925	1.24800
0.02119	1.70714
0.04670	0.78886
-0.15732	0.10015
-0.69285	0.50828
-0.51434	-0.99668
-0.13181	-1.27726
0.50573	0.83988
0.68424	-0.92016
1.34728	-1.76191
0.32721	0.12566
-0.38683	1.17148
-0.38683	1.50308
-0.46334	0.50828
-0.10631	1.50308
-0.18282	0.27871
0.09770	-0.84363
0.48022	-0.33348
0.99026	-0.15492
0.12320	-0.33348
0.09770	0.73785
-0.10631	0.66132
0.30171	-0.38449
0.27621	0.10015
0.27621	-0.35899
0.32721	0.96742
-0.48884	-0.35899
-0.48884	-0.05289
0.07220	0.53379
1.09226	-1.27726
0.19971	0.35523
0.22521	0.89089
-0.38683	0.43176
-0.51434	0.55929
-0.28482	0.50828
0.17421	0.32972
0.63323	0.50828
1.29628	1.01843
0.27621	-0.74160
-0.20832	-0.74160
0.17421	-0.46102
0.30171	0.25320
0.40372	0.43176
-0.46334	-0.15492
-0.10631	-0.84363
0.09770	0.27871
0.02119	0.83988
-0.02981	1.01843
0.30171	0.73785
0.48022	0.78886
0.45472	0.35523
0.48022	-1.09871
-0.28482	-0.71609
-0.25932	-0.46102
-0.33583	0.40625
-0.02981	0.45726
0.19971	0.25320
1.19427	0.68683
1.01576	0.43176
0.63323	1.27351
-0.02981	-0.53754
-0.74385	-1.40480
-0.41233	0.22769
-0.25932	-0.20594
0.27621	-0.41000
0.02119	1.01843
-0.25932	0.10015
-0.00431	0.07465
0.07220	0.30422
0.09770	0.04914
1.04126	2.31933
0.91375	-0.61406
1.06676	-2.47613
0.14870	-0.25695
-0.46334	-0.25695
-0.43783	1.78367
-0.38683	1.45206
-0.23382	-0.69059
0.09770	-0.20594
0.19971	-1.40480
0.12320	0.04914
0.50573	0.81437
0.42922	1.17148
0.30171	0.83988
-0.23382	0.38074
-0.15732	0.10015
0.12320	0.17668
0.27621	0.30422
0.42922	-0.15492
0.58223	-0.05289
1.29628	-0.99668
0.73524	-0.99668
0.09770	0.43176
-0.61635	0.45726
-0.92237	0.45726
-0.94787	0.02363
-0.28482	0.02363
0.25071	0.40625
0.42922	0.50828
0.32721	0.66132
-0.08081	-0.35899
-0.36133	-0.33348
0.93925	-0.07840
1.04126	0.43176
0.93925	0.35523
-0.64185	-0.00188
0.04670	0.91640
0.35272	0.61031
0.17421	-0.20594
0.04670	-0.33348
0.02119	1.19699
-0.05531	0.83988
-0.15732	-1.22625
-0.05531	-1.50683
0.07220	-0.61406
0.55673	0.53379
0.27621	0.48277
0.48022	1.17148
0.42922	1.29902
0.09770	0.58480
0.09770	1.68163
0.48022	-0.02739
-0.56534	-1.48133
-0.43783	-1.14973
0.30171	0.10015
0.60773	0.96742
-0.28482	-0.43551
-0.00431	-0.51203
0.48022	0.71234
0.25071	0.58480
0.19971	0.73785
0.17421	-0.25695
-0.10631	-0.66508
0.42922	-0.30797
0.55673	0.40625
0.37822	0.61031
-0.18282	0.48277
-0.28482	0.35523
-0.48884	0.17668
-0.05531	0.32972
0.42922	0.35523
0.65874	0.07465
0.09770	-0.20594
-0.20832	0.58480
-0.05531	0.20219
0.25071	-1.50683
0.27621	-0.71609
0.83725	0.94191
0.53123	0.78886
-0.15732	0.12566
0.12320	0.40625
0.22521	0.50828
-0.15732	0.58480
-0.41233	0.30422
-0.05531	-0.84363
0.32721	-0.74160
0.55673	-0.02739
-0.00431	0.81437
-0.02981	0.58480
-0.08081	-0.20594
0.40372	0.20219
-0.10631	0.45726
-0.41233	0.40625
-0.02981	-0.84363
1.19427	-0.00188
0.65874	-0.86914
0.50573	0.73785
-0.10631	0.58480
0.02119	0.96742
-0.13181	0.15117
-0.38683	0.07465
-0.25932	-0.58856
0.45472	0.04914
0.22521	0.25320
0.07220	-0.61406
-0.10631	0.02363
0.19971	0.76336
0.04670	0.76336
-0.28482	0.94191
-0.10631	-0.76711
1.09226	-0.30797
1.65330	0.55929
0.63323	-0.12942
-0.43783	-0.15492
-0.56534	-0.48652
-0.38683	0.22769
-0.36133	1.22250
-0.08081	1.12046
0.19971	0.78886
0.40372	-0.35899
-0.02981	-1.65988
0.48022	-1.25176
1.29628	0.78886
1.04126	1.93671
-0.66735	-0.05289
-0.66735	1.01843
-0.25932	1.17148
0.22521	-1.50683
0.35272	-1.48133
0.35272	-0.23145
-0.20832	0.43176
-0.00431	2.70194
-0.13181	0.71234
-0.23382	-1.32828
-0.61635	-0.56305
-0.41233	0.25320
0.32721	0.53379
2.08683	0.78886
1.44929	0.63582
0.58223	-0.12942
-0.08081	-0.12942
-0.46334	0.10015
-0.41233	-0.33348
-0.51434	-0.25695
-0.25932	0.10015
-0.02981	0.35523
0.17421	0.40625
0.42922	1.68163
0.53123	-0.92016
0.27621	-2.11902
-0.08081	-0.05289
-0.08081	1.27351
0.25071	1.14597
0.09770	-0.41000
0.22521	1.45206
-0.20832	-0.15492
0.53123	0.40625
1.06676	0.58480
0.09770	-1.68539
-0.48884	0.04914
-0.56534	0.20219
-0.59084	0.35523
-0.33583	0.78886
0.48022	-0.10391
1.11776	0.20219
0.88825	0.17668
-0.33583	-0.07840
0.02119	-0.15492
-0.25932	-0.69059
-0.23382	-0.25695
0.55673	0.61031
0.50573	0.73785
-0.20832	0.25320
0.12320	-0.97117
0.09770	0.58480
-0.05531	1.55410
0.53123	0.12566
0.48022	-1.99148
0.60773	0.07465
0.40372	0.86539
0.07220	0.58480
-0.64185	1.06945
-0.31033	-0.48652
0.02119	0.38074
0.12320	0.35523
0.22521	-0.00188
0.35272	0.25320
0.42922	0.35523
0.25071	0.58480
0.12320	-0.10391
0.07220	-0.63957
0.04670	-0.35899
-0.02981	0.22769
-0.08081	-0.18043
0.37822	0.15117
0.42922	0.38074
0.17421	0.63582
-0.02981	0.73785
0.02119	0.22769
-0.02981	-0.99668
0.14870	-0.23145
0.09770	0.81437
0.81175	0.45726
0.07220	0.58480
0.09770	0.53379
0.50573	0.66132
-0.38683	-1.22625
-0.46334	-0.05289
-0.38683	0.50828
-0.69285	0.63582
-0.18282	0.35523
1.19427	0.71234
1.14327	-0.10391
0.88825	0.30422
0.19971	-0.15492
0.02119	-1.58336
0.25071	-0.30797
0.02119	1.27351
-0.41233	-1.04770
-0.18282	-0.18043
-0.13181	0.45726
0.25071	0.76336
0.17421	0.86539
0.09770	1.52859
0.32721	-1.20074
0.19971	-1.09871
0.30171	0.73785
0.35272	0.66132
0.25071	0.76336
0.04670	1.06945
0.14870	-1.94047
0.40372	-0.38449
0.25071	-0.35899
-0.25932	0.22769
-0.38683	1.52859
-0.20832	0.32972
0.14870	0.35523
-0.08081	-0.12942
0.42922	0.35523
0.65874	0.81437
0.55673	-0.66508
-0.13181	-0.33348
0.17421	-0.28246
0.19971	0.48277
0.73524	1.14597
0.60773	-0.25695
-0.28482	-0.61406
-0.92237	-0.43551
-0.28482	0.04914
0.45472	0.32972
0.32721	0.76336
0.30171	0.07465
0.22521	0.35523
0.22521	1.12046
-0.15732	-0.00188
0.02119	-0.38449
0.48022	0.25320
0.09770	0.63582
0.07220	0.02363
0.40372	-0.02739
0.45472	-0.38449
0.55673	-0.30797
-0.20832	0.61031
0.25071	1.06945
0.14870	-1.71090
-0.33583	-0.33348
0.09770	0.99292
0.12320	0.71234
-0.02981	0.38074
0.14870	-0.58856
-0.13181	-0.61406
-0.00431	0.43176
0.73524	0.55929
1.47479	0.50828
-0.10631	0.22769
-0.41233	1.04394
-0.18282	0.94191
-0.10631	-0.30797
0.40372	-1.37929
0.30171	-0.10391
0.50573	0.22769
-0.25932	-0.02739
-0.25932	0.81437
-0.38683	0.38074
-0.33583	0.99292
0.02119	0.20219
0.09770	-1.09871
0.37822	0.58480
0.83725	0.35523
1.37278	0.15117
0.42922	0.20219
0.14870	0.07465
0.04670	0.07465
-0.23382	0.40625
-0.28482	1.04394
-0.23382	-0.15492
-0.18282	-1.02219
0.22521	-0.28246
0.37822	-0.20594
0.58223	-0.61406
0.19971	1.60511
-0.13181	0.17668
-0.00431	0.12566
0.19971	-0.35899
0.37822	-0.41000
0.70974	1.29902
-0.46334	0.12566
-0.59084	-0.02739
-0.23382	0.63582
-0.36133	0.96742
0.81175	-0.97117
1.16877	-0.84363
0.76074	-0.79262
-0.05531	0.27871
-0.48884	0.15117
-0.46334	0.66132
-0.18282	0.61031
0.27621	0.40625
0.32721	0.45726
0.25071	0.45726
0.27621	0.07465
0.68424	-0.18043
0.42922	0.50828
0.14870	-0.58856
-0.18282	-1.20074
-0.28482	-0.46102
-0.33583	0.58480
0.07220	1.52859
0.35272	0.38074
0.40372	-0.10391
0.19971	0.27871
0.02119	-0.20594
-0.05531	0.22769
-0.15732	0.58480
0.17421	-0.10391
0.42922	1.37554
0.42922	0.96742
0.14870	-2.09351
0.17421	-1.78742
0.02119	0.50828
0.19971	0.94191
-0.02981	1.27351
-0.28482	0.68683
-0.41233	0.73785
0.86275	-1.35379
0.78624	-0.46102
0.83725	0.86539
-0.13181	0.22769
-0.28482	-0.25695
-0.18282	0.45726
-0.05531	0.25320
-0.18282	0.94191
-0.18282	-0.58856
-0.25932	-1.27726
0.30171	0.55929
0.78624	1.06945
0.63323	-0.97117
0.40372	0.17668
0.48022	0.58480
0.17421	0.32972
0.02119	-0.18043
0.22521	0.25320
0.45472	0.66132
-0.15732	1.78367
-0.10631	0.07465
-0.28482	-1.27726
-0.41233	-0.46102
-0.38683	0.35523
-0.02981	0.53379
0.37822	0.61031
0.60773	0.32972
1.06676	0.35523
0.42922	0.66132
-0.18282	-0.15492
-0.33583	0.15117
-0.15732	-0.18043
0.07220	-0.28246
-0.08081	0.04914
0.02119	-1.04770
0.91375	-1.12422
1.19427	1.17148
0.53123	1.50308
0.30171	0.91640
-0.28482	0.58480
-0.66735	0.30422
-0.31033	-0.92016
-0.48884	0.17668
-0.31033	0.50828
0.14870	-0.12942
0.68424	0.17668
1.19427	0.07465
0.53123	-0.28246
0.09770	0.58480
-0.43783	0.83988
-0.82036	-0.20594
-0.15732	-0.53754
0.30171	-1.43031
0.60773	0.89089
0.76074	0.45726
0.81175	0.15117
0.14870	0.81437
0.22521	0.76336
-0.33583	0.27871
-0.74385	0.48277
0.12320	0.25320
0.50573	-0.12942
0.35272	-0.86914
0.30171	-0.76711
0.68424	0.15117
0.19971	0.45726
0.12320	0.71234
-0.15732	0.32972
-0.46334	-0.89465
-0.28482	0.48277
0.02119	0.10015
0.42922	0.96742
1.06676	-0.02739
0.35272	-1.17523
-0.18282	0.27871
0.04670	0.48277
-0.20832	-0.89465
0.07220	0.38074
0.48022	0.91640
0.93925	0.53379
0.93925	0.25320
0.53123	0.15117
-0.59084	0.35523
-1.04987	-0.76711
-1.04987	-0.02739
-0.48884	0.83988
-0.08081	0.53379
0.55673	-0.05289
0.78624	0.45726
0.83725	1.17148
0.17421	-2.22105
0.65874	-1.53234
0.42922	0.81437
0.63323	0.94191
-0.25932	0.48277
-0.20832	0.27871
-0.10631	0.78886
0.17421	0.55929
-0.08081	-0.56305
-0.13181	-0.41000
0.19971	0.35523
0.22521	1.01843
0.27621	0.25320
0.25071	-0.99668
0.07220	0.27871
0.17421	0.94191
0.22521	-0.18043
-0.31033	-0.58856
0.07220	0.58480
0.25071	-0.28246
0.78624	0.27871
-0.08081	0.73785
0.60773	-0.05289
0.40372	0.27871
0.32721	3.46718
-0.25932	-1.48133
-0.25932	-2.75671
-0.31033	0.30422
-0.56534	0.66132
0.19971	-0.30797
0.12320	0.10015
-0.43783	1.57960
0.25071	1.27351
1.16877	0.81437
1.37278	0.35523
0.55673	0.66132
-0.23382	-1.20074
-0.41233	-1.02219
-0.05531	0.02363
-0.33583	-0.12942
-0.31033	-0.00188
-0.08081	0.76336
0.70974	0.15117
0.22521	-1.07320
0.60773	0.04914
0.55673	1.01843
-0.18282	0.38074
-0.46334	0.58480
-0.25932	0.38074
0.45472	-1.91496
0.78624	0.43176
0.58223	1.14597
0.53123	0.12566
0.12320	0.61031
-0.41233	1.37554
-0.36133	-0.07840
-0.51434	-0.81812
-0.48884	-0.07840
0.25071	0.04914
0.42922	1.19699
0.53123	-0.35899
-0.02981	-0.71609
-0.08081	-0.23145
0.48022	1.45206
0.48022	0.81437
0.45472	-1.50683
0.30171	0.48277
0.55673	0.15117
-0.05531	-0.94566
0.09770	-0.23145
-0.05531	0.58480
0.32721	1.09496
-0.20832	1.09496
0.02119	1.12046
-0.59084	0.15117
0.25071	0.20219
0.83725	0.20219
0.42922	0.66132
-0.00431	-1.96597
-0.00431	-0.66508
-0.05531	0.22769
-0.36133	-0.05289
-0.28482	-0.81812
0.48022	0.53379
0.68424	1.52859
0.83725	1.42656
0.12320	-2.32308
0.55673	0.43176
0.32721	1.32453
-0.28482	1.17148
-0.28482	0.86539
-0.10631	-0.05289
0.53123	-0.56305
0.27621	0.10015
0.37822	-1.30277
-0.38683	-0.76711
-0.15732	0.55929
-0.08081	0.68683
-0.10631	0.50828
-0.36133	0.86539
0.22521	0.02363
0.81175	0.43176
0.48022	-0.69059
0.45472	-1.58336
0.53123	0.02363
0.32721	0.66132
0.04670	0.86539
-0.05531	0.94191
-0.13181	0.02363
-0.18282	-0.07840
-0.20832	0.25320
0.07220	0.27871
0.53123	0.15117
0.53123	0.45726
0.04670	1.70714
0.50573	-1.88945
-0.13181	-2.88425
-0.25932	1.68163
-0.43783	-0.35899
-0.08081	-0.28246
0.40372	1.22250
0.68424	1.01843
0.81175	2.19179
0.42922	0.22769
-0.13181	-1.27726
-0.08081	-0.00188
-0.46334	0.22769
-0.33583	0.15117
-0.59084	0.89089
-0.36133	-0.79262
0.50573	-0.76711
0.91375	0.02363
0.93925	0.38074
0.53123	0.53379
0.12320	0.07465
-0.08081	1.01843
0.30171	0.02363
-0.10631	-0.89465
-0.02981	0.35523
-0.00431	1.88570
-0.28482	-0.30797
-0.00431	-1.86394
0.68424	0.78886
0.25071	1.01843
0.02119	0.50828
0.32721	-0.23145
0.19971	0.04914
-0.02981	0.61031
-0.13181	1.75816
0.50573	-0.46102
0.73524	-1.12422
-0.10631	-0.02739
0.17421	0.58480
0.17421	0.61031
0.63323	0.43176
0.53123	0.45726
0.22521	-0.02739
-0.48884	-0.05289
-1.10088	-0.51203
-0.23382	-1.14973
0.30171	0.02363
0.48022	0.38074
-0.31033	1.37554
-0.43783	-0.33348
0.14870	-0.63957
0.70974	0.58480
0.83725	1.19699
0.45472	0.68683
0.65874	-0.38449
0.37822	-0.07840
0.17421	0.22769
0.25071	0.71234
0.09770	0.45726
0.09770	-0.20594
0.12320	0.12566
0.04670	0.02363
0.02119	1.22250
-0.36133	0.45726
-0.59084	-1.50683
0.25071	-1.53234
0.93925	0.58480
0.60773	0.96742
-0.15732	0.66132
-0.05531	0.22769
-0.41233	0.89089
-0.66735	-0.46102
0.07220	0.48277
1.29628	0.63582
1.21977	-0.25695
-0.10631	-1.37929
0.27621	0.68683
0.25071	0.04914
-0.28482	0.04914
-0.33583	0.61031
-0.31033	0.27871
0.04670	0.30422
-0.20832	0.20219
0.04670	0.12566
0.78624	0.25320
0.42922	0.40625
0.55673	-1.60887
0.55673	-0.51203
0.45472	0.66132
0.04670	0.91640
-0.25932	0.20219
-0.20832	0.83988
-0.13181	-0.99668
0.02119	-0.69059
0.09770	0.63582
-0.02981	0.91640
0.14870	0.86539
0.17421	0.04914
0.83725	-1.50683
0.40372	0.20219
0.40372	0.68683
-0.08081	0.15117
-0.05531	1.27351
-0.05531	0.99292
-0.25932	-1.22625
-0.00431	0.25320
-0.46334	-0.18043
-0.51434	0.02363
-0.48884	-1.27726
0.88825	0.02363
1.90832	0.68683
2.01032	0.86539
0.02119	0.45726
-0.84586	-0.02739
-0.71835	0.22769
-0.71835	-0.15492
-0.56534	-0.00188
-0.36133	-0.38449
0.48022	0.73785
1.37278	0.32972
0.73524	0.04914
0.50573	-0.10391
-0.05531	0.86539
-0.00431	0.50828
0.17421	-0.56305
-0.15732	0.50828
-0.08081	-0.07840
-0.02981	-0.41000
0.35272	0.27871
0.14870	1.47757
0.22521	0.73785
0.22521	-1.27726
0.22521	-0.58856
0.48022	0.94191
0.09770	0.35523
-0.02981	0.35523
0.02119	0.81437
-0.28482	-0.63957
-0.23382	-1.25176
1.01576	0.25320
0.37822	0.38074
0.45472	0.58480
-0.10631	0.35523
-0.56534	-0.05289
-0.02981	0.22769
0.27621	-1.35379
0.37822	0.66132
0.19971	0.15117
-0.41233	0.50828
-0.15732	0.96742
0.17421	0.17668
0.25071	-0.15492
0.32721	-0.38449
0.40372	0.22769
0.42922	0.71234
0.32721	-0.20594
-0.20832	0.17668
0.07220	-0.25695
0.09770	-1.20074
0.45472	0.30422
0.83725	0.55929
0.48022	0.30422
-0.10631	0.78886
-0.28482	0.86539
-0.05531	-0.18043
-0.02981	-1.45582
-0.46334	-0.28246
-0.08081	0.50828
0.37822	0.48277
0.70974	0.83988
0.55673	0.27871
0.42922	-0.15492
-0.02981	-0.00188
-0.66735	-0.00188
-0.41233	0.15117
0.02119	0.25320
0.40372	-0.25695
1.01576	0.63582
0.30171	-0.35899
-0.18282	-0.00188
-0.02981	0.38074
0.22521	0.35523
0.12320	0.55929
-0.02981	0.71234
0.25071	-0.38449
0.35272	-0.66508
0.37822	-1.30277
0.09770	-0.69059
-0.02981	1.37554
0.65874	1.63062
0.55673	0.99292
0.07220	0.71234
-0.23382	0.66132
-0.36133	-0.20594
-0.31033	-0.07840
-0.10631	-0.58856
-0.00431	-0.81812
0.40372	0.20219
0.32721	1.98773
0.65874	-2.45062
0.83725	-1.78742
0.07220	0.30422
-0.18282	0.94191
-0.15732	0.55929
-0.18282	0.89089
-0.08081	0.66132
0.25071	1.01843
0.25071	0.10015
-0.00431	-1.43031
0.19971	0.30422
0.45472	0.73785
0.53123	0.40625
0.07220	-0.05289
-0.28482	-0.46102
0.07220	0.35523
0.17421	0.55929
-0.31033	-0.38449
-0.38683	-0.48652
0.32721	1.52859
1.24527	0.45726
1.19427	-1.35379
0.35272	0.20219
-0.28482	0.30422
-0.13181	-0.84363
0.14870	0.78886
-0.61635	0.76336
-0.25932	1.14597
0.12320	0.17668
0.22521	-0.05289
0.02119	0.53379
-0.08081	-0.10391
0.04670	-0.79262
0.42922	0.89089
0.37822	-0.56305
0.40372	-1.20074
0.58223	0.30422
0.32721	0.58480
0.09770	1.06945
-0.08081	0.50828
-0.15732	-0.46102
-0.15732	-0.20594
0.04670	0.07465
0.22521	-0.00188
0.02119	0.32972
0.27621	0.55929
0.22521	0.68683
-0.10631	0.45726
0.02119	-0.18043
1.57679	0.86539
0.96476	-0.28246
-0.28482	-0.33348
-0.25932	-0.20594
-0.71835	-2.04250
-0.61635	0.78886
-0.08081	0.81437
-0.15732	0.91640
-0.18282	0.32972
0.93925	0.68683
1.14327	1.55410
-0.02981	-0.79262
0.22521	-1.43031
0.35272	1.75816
0.83725	-0.25695
0.45472	-0.48652
-0.46334	-0.48652
-0.51434	-0.00188
-0.38683	0.38074
0.45472	1.12046
0.27621	0.10015
0.07220	0.07465
-0.10631	0.50828
0.17421	1.47757
-0.18282	0.25320
-0.64185	-1.17523
-0.02981	-1.12422
1.24527	-0.69059
1.42379	0.43176
0.53123	0.76336
0.12320	0.40625
-0.08081	0.81437
-0.41233	0.43176
-0.18282	0.35523
-0.28482	-0.30797
-0.08081	-0.05289
0.12320	-0.48652
0.37822	0.71234
0.14870	-0.53754
0.07220	-0.71609
-0.23382	0.91640
0.25071	3.03355
0.40372	-0.56305
0.81175	-2.80773
1.50029	-0.71609
1.16877	0.83988
-0.13181	1.42656
-1.10088	1.01843
-1.02437	1.37554
-0.64185	0.61031
0.02119	-0.97117
0.22521	-0.48652
0.30171	0.99292
0.42922	-0.51203
0.17421	-0.35899
0.12320	-0.30797
0.63323	-0.28246
0.73524	0.73785
0.02119	0.48277
-0.08081	0.94191
0.07220	-0.58856
0.86275	-0.74160
0.60773	0.76336
-0.13181	0.38074
-0.28482	0.12566
-0.36133	0.35523
-0.41233	0.53379
-0.43783	-0.56305
0.04670	0.76336
0.63323	-0.18043
0.37822	-0.86914
0.50573	0.35523
0.25071	1.42656
0.12320	0.30422
0.14870	-0.71609
0.32721	0.35523
0.07220	0.43176
-0.00431	0.53379
-0.05531	0.94191
0.32721	-0.92016
0.40372	-0.30797
0.53123	0.55929
0.17421	0.78886
0.27621	1.09496
-0.05531	-1.22625
-0.46334	-1.43031
-0.76936	-0.12942
-0.05531	0.17668
1.42379	0.91640
-0.20832	0.78886
-0.41233	0.89089
0.22521	0.35523
1.14327	0.83988
1.52579	0.17668
0.50573	-1.27726
-0.18282	-0.56305
-0.82036	0.61031
-0.82036	-0.15492
-0.64185	0.20219
0.17421	1.01843
0.35272	-0.74160
0.86275	-0.58856
0.53123	0.78886
0.19971	0.73785
-0.15732	-0.00188
-0.08081	-0.33348
0.40372	0.86539
0.93925	2.01323
0.45472	-0.58856
-0.28482	-1.73640
-0.33583	0.27871
0.04670	0.58480
0.22521	0.86539
0.25071	1.04394
0.02119	-0.79262
-0.10631	-0.38449
-0.05531	0.27871
0.17421	0.78886
0.30171	0.45726
0.65874	-0.92016
0.53123	-0.61406
0.81175	0.48277
-0.00431	0.17668
-0.48884	0.78886
-0.61635	0.25320
-0.79486	0.66132
-0.48884	-0.28246
-0.53984	0.04914
0.45472	-0.12942
1.11776	-0.81812
0.96476	0.20219
0.45472	0.66132
0.86275	1.55410
0.40372	-0.02739
-0.05531	-1.17523
-0.36133	-0.20594
-0.25932	0.73785
-0.18282	0.02363
0.12320	0.12566
0.40372	0.91640
-0.08081	0.76336
-0.13181	0.12566
0.32721	-0.05289
0.40372	-0.12942
0.17421	0.12566
-0.13181	0.04914
0.35272	0.12566
0.63323	0.17668
0.55673	-0.58856
0.17421	-0.00188
-0.36133	-0.00188
-0.18282	0.35523
-0.08081	0.35523
-0.20832	0.48277
-0.10631	0.17668
0.14870	0.25320
0.37822	-0.48652
0.04670	0.35523
-0.20832	0.10015
0.02119	0.15117
0.83725	0.25320
0.81175	0.22769
0.53123	0.63582
-0.00431	0.58480
-0.23382	-0.35899
-0.20832	0.22769
0.07220	0.12566
0.17421	0.02363
0.02119	0.12566
-0.00431	0.10015
-0.18282	-0.35899
0.09770	0.22769
0.53123	0.20219
1.44929	0.63582
0.45472	0.68683
-0.31033	-0.43551
-0.15732	0.04914
0.02119	0.71234
-0.56534	-1.02219
-0.59084	-1.02219
-0.02981	0.53379
0.91375	1.06945
0.96476	1.68163
0.19971	1.52859
-0.18282	-0.41000
0.17421	-0.92016
0.09770	-1.02219
0.32721	0.12566
-0.15732	0.38074
-0.69285	0.12566
0.37822	0.53379
1.19427	0.40625
0.37822	0.99292
0.30171	0.12566
-0.05531	-1.68539
-0.15732	0.20219
-0.18282	0.35523
-0.05531	0.07465
-0.08081	0.43176
-0.20832	0.22769
-0.08081	0.17668
0.37822	0.10015
0.30171	0.12566
0.09770	0.48277
0.42922	0.40625
0.73524	-0.23145
1.85731	0.89089
0.09770	0.22769
-0.28482	-1.25176
-0.33583	0.04914
-0.33583	0.48277
-0.41233	0.43176
0.07220	0.71234
0.32721	0.63582
-0.28482	-1.48133
1.06676	-0.81812
1.16877	0.48277
0.09770	1.01843
-0.64185	0.63582
-0.53984	0.25320
-0.51434	0.76336
-0.18282	0.20219
0.07220	-0.15492
0.68424	0.27871
1.01576	-0.43551
0.32721	-0.53754
0.45472	0.58480
0.14870	-0.25695
-0.10631	-0.18043
-0.43783	0.22769
-0.18282	0.27871
0.65874	0.02363
0.53123	0.15117
-0.02981	0.04914
-0.10631	-0.00188
-0.18282	0.55929
-0.00431	0.61031
0.19971	-0.10391
0.37822	0.38074
0.09770	0.10015
0.37822	0.12566
0.30171	-0.00188
-0.31033	1.19699
0.14870	0.12566
0.88825	-0.00188
0.32721	-1.07320
-0.20832	-1.58336
0.30171	1.17148
-0.28482	1.12046
-0.64185	-0.05289
-0.33583	-0.63957
0.45472	0.48277
0.73524	0.53379
0.63323	0.61031
0.42922	0.68683
-0.25932	0.55929
-0.33583	-0.12942
-0.31033	-0.05289
0.42922	0.15117
0.93925	-0.41000
0.45472	0.04914
-0.02981	-0.18043
0.12320	-0.12942
-0.08081	0.55929
0.02119	-0.18043
-0.28482	-0.30797
-0.08081	0.61031
0.02119	0.32972
0.04670	0.55929
0.09770	0.53379
0.40372	0.15117
0.14870	-0.89465
0.30171	0.63582
0.22521	0.94191
0.50573	0.45726
0.81175	-1.35379
0.45472	-0.86914
0.76074	0.91640
-0.64185	0.25320
-0.74385	0.30422
-0.48884	0.40625
-0.20832	0.38074
-0.48884	0.55929
0.45472	2.88050
1.44929	-1.86394
1.04126	-3.11382
-0.38683	-0.05289
-0.43783	0.53379
-0.15732	1.04394
-0.02981	0.99292
-0.18282	1.06945
0.12320	0.35523
0.48022	-0.89465
1.32178	0.22769
0.81175	0.40625
0.07220	0.12566
-0.15732	-0.05289
-0.13181	0.12566
-0.31033	-0.25695
-0.74385	0.35523
-0.25932	-0.28246
0.02119	-0.07840
0.70974	0.45726
0.48022	0.25320
0.60773	0.96742
0.81175	-1.04770
0.22521	-0.86914
-0.43783	0.63582
-0.46334	1.06945
-0.53984	0.43176
-0.33583	0.83988
0.09770	0.50828
0.55673	-0.69059
1.55129	0.07465
1.83181	0.25320
0.37822	-0.46102
-0.76936	0.86539
-0.87136	-0.10391
-0.61635	0.76336
-0.64185	-0.07840
-0.38683	-0.30797
0.70974	1.09496
1.04126	-0.10391
0.17421	-0.28246
-0.13181	-0.25695
0.09770	0.40625
0.83725	0.15117
0.73524	0.38074
0.25071	0.35523
-0.51434	0.20219
-0.66735	-0.00188
-0.18282	0.12566
0.30171	0.58480
0.53123	0.25320
0.53123	-0.66508
0.32721	-0.48652
0.40372	0.35523
0.22521	0.68683
-0.38683	0.35523
-0.38683	0.02363
0.12320	0.10015
0.58223	1.45206
0.07220	0.10015
0.37822	-0.58856
0.70974	0.86539
0.17421	0.10015
-0.00431	0.10015
-0.05531	0.83988
-0.23382	-0.38449
-0.94787	-0.25695
-0.10631	0.73785
0.58223	-0.15492
1.11776	-0.58856
1.14327	0.30422
1.55129	0.86539
-0.41233	1.37554
-0.97337	-0.25695
-0.61635	-1.35379
-0.36133	0.73785
0.09770	0.86539
-0.05531	-0.48652
0.40372	0.17668
0.81175	0.94191
0.53123	0.17668
-0.13181	-0.02739
-0.20832	0.66132
-0.08081	-0.63957
0.42922	-1.40480
0.70974	0.04914
0.58223	0.12566
-0.08081	0.58480
-0.20832	0.45726
-0.13181	0.61031
-0.10631	0.76336
0.25071	0.43176
0.19971	-0.53754
0.02119	-0.25695
0.17421	0.45726
0.27621	-0.48652
-0.05531	-0.05289
0.09770	0.45726
0.12320	0.61031
-0.20832	0.55929
0.17421	-0.15492
0.70974	-0.12942
0.63323	1.27351
0.55673	-0.23145
0.53123	-0.99668
0.09770	0.76336
-0.53984	0.17668
-1.15188	-0.38449
-0.15732	0.68683
0.93925	0.71234
0.40372	0.35523
0.04670	1.50308
-0.13181	-0.46102
-0.13181	-0.94566
0.02119	0.43176
-0.13181	0.30422
0.19971	-0.25695
1.04126	-0.12942
0.99026	0.71234
0.50573	0.27871
-0.08081	-0.86914
-0.33583	0.30422
-0.25932	0.30422
-0.00431	-0.18043
0.09770	0.25320
0.04670	0.48277
0.22521	0.68683
0.30171	0.50828
0.30171	0.71234
0.14870	0.40625
0.04670	-0.61406
0.50573	-0.25695
1.50029	0.04914
0.88825	1.09496
-0.71835	-1.30277
-0.84586	-1.14973
-0.89686	0.12566
-0.74385	0.76336
-0.46334	0.81437
0.09770	1.04394
0.96476	0.15117
0.81175	0.58480
0.60773	-0.38449
0.35272	0.15117
0.37822	0.55929
0.09770	-1.22625
-0.28482	0.15117
-0.33583	0.15117
-0.23382	0.25320
0.07220	-0.38449
0.35272	-0.23145
0.37822	1.01843
0.73524	0.94191
0.63323	-0.41000
-0.13181	-0.23145
-0.36133	0.15117
-0.08081	0.68683
-0.18282	0.35523
0.04670	0.76336
0.30171	0.15117
0.55673	-0.63957
0.02119	0.30422
0.14870	-0.92016
1.01576	-0.18043
0.22521	0.25320
-0.48884	0.12566
-0.36133	0.22769
-0.08081	0.38074
0.17421	1.37554
0.09770	0.04914
-0.36133	-1.50683
0.22521	-0.25695
0.78624	0.10015
1.21977	0.50828
-0.18282	0.38074
-0.13181	0.66132
-0.28482	-0.05289
-0.38683	0.89089
-0.10631	0.35523
0.50573	-0.41000
0.78624	0.12566
0.73524	-0.28246
-0.13181	0.20219
0.09770	-0.07840
-0.46334	-0.86914
-0.13181	0.38074
-0.28482	0.96742
-0.15732	0.04914
0.04670	-0.38449
0.40372	0.91640
0.68424	0.12566
0.93925	1.09496
0.50573	-0.46102
0.91375	-0.97117
0.40372	0.27871
-0.69285	0.32972
-0.43783	0.53379
-0.38683	0.40625
-0.20832	0.48277
-0.02981	0.27871
0.09770	0.45726
0.30171	0.15117
0.30171	-0.99668
0.70974	-0.30797
0.76074	0.22769
0.48022	0.35523
-0.33583	0.12566
-0.46334	0.94191
-0.25932	0.38074
-0.53984	0.15117
-0.46334	0.45726
0.42922	-0.33348
1.39828	-0.35899
1.47479	-0.56305
0.32721	-0.53754
0.09770	0.81437
0.02119	0.07465
-0.66735	0.25320
-0.59084	1.80917
-0.48884	-0.23145
-0.41233	-0.28246
-0.18282	-0.02739
0.37822	0.12566
1.01576	0.27871
0.93925	0.20219
0.30171	0.02363
0.12320	0.30422
-0.05531	0.10015
-0.02981	0.50828
0.12320	0.61031
0.07220	-1.35379
-0.05531	-0.10391
-0.10631	-0.10391
0.45472	-0.23145
0.88825	-0.12942
1.16877	0.43176
0.53123	0.68683
-0.43783	0.63582
-0.79486	0.38074
-0.69285	0.50828
-0.48884	0.55929
-0.53984	-0.56305
0.27621	-0.79262
0.53123	0.86539
0.73524	-0.35899
0.12320	-1.48133
0.19971	0.66132
0.19971	1.27351
0.35272	1.22250
0.32721	0.25320
0.88825	0.30422
0.96476	-0.43551
0.48022	0.17668
-0.31033	0.48277
-0.33583	-0.46102
-0.23382	-0.63957
-0.46334	0.35523
-0.51434	0.32972
-0.46334	0.53379
0.42922	0.15117
0.93925	-0.23145
0.63323	-0.15492
0.32721	0.63582
-0.08081	1.19699
-0.28482	-0.30797
0.27621	-0.97117
0.96476	-0.05289
0.04670	0.48277
-0.23382	0.20219
-0.15732	0.27871
0.09770	0.50828
0.19971	0.68683
0.22521	0.45726
0.19971	0.32972
-0.05531	0.73785
0.09770	-0.25695
0.58223	-0.92016
1.32178	0.58480
0.35272	0.35523
-0.33583	-0.23145
-0.20832	0.10015
-0.08081	-0.97117
-0.69285	-0.20594
-0.59084	1.12046
-0.46334	0.45726
0.37822	0.45726
0.88825	-0.33348
1.55129	-0.30797
0.12320	0.45726
-0.18282	0.94191
-0.05531	1.01843
-0.02981	0.12566
0.09770	0.53379
-0.08081	-0.35899
0.09770	-0.43551
0.02119	0.55929
0.14870	0.02363
0.63323	-1.30277
1.37278	-0.12942
0.53123	0.22769
-0.36133	0.32972
-0.48884	0.22769
-0.31033	-0.25695
0.07220	0.66132
-0.23382	0.61031
-0.36133	0.25320
-0.00431	0.07465
0.22521	-0.10391
0.19971	-0.33348
0.48022	0.27871
0.58223	0.50828
0.55673	1.01843
0.09770	0.20219
0.35272	-0.23145
1.06676	0.50828
0.88825	-0.28246
-1.40690	-1.27726
-1.20288	-0.43551
-0.00431	-0.20594
1.93382	1.29902
0.40372	1.06945
-0.59084	0.04914
-0.82036	0.20219
-0.20832	0.40625
-0.00431	0.66132
-0.10631	1.22250
-0.23382	-1.20074
0.22521	-1.12422
1.19427	0.15117
1.57679	0.50828
0.78624	0.63582
0.53123	0.73785
-0.10631	-0.05289
-0.41233	1.04394
-0.71835	-0.00188
-0.76936	-0.71609
-0.66735	-2.04250
0.42922	-1.30277
1.52579	0.04914
0.96476	2.03874
0.17421	1.78367
-0.28482	1.40105
-0.46334	0.81437
-0.38683	0.38074
-0.10631	-0.00188
0.30171	-0.18043
-0.08081	-0.35899
-0.23382	-0.28246
0.25071	-0.10391
0.91375	-0.48652
0.93925	-0.51203
0.25071	0.25320
-0.02981	0.30422
-0.28482	0.20219
-0.51434	0.27871
0.04670	0.38074
1.01576	0.66132
0.50573	-0.56305
0.55673	0.02363
-0.02981	0.32972
-0.43783	0.66132
-0.13181	0.45726
-0.20832	0.61031
0.17421	0.12566
0.78624	0.53379
0.12320	0.55929
-0.51434	-0.43551
-0.20832	-2.42511
0.65874	0.22769
0.12320	-0.74160
-0.23382	-0.10391
0.04670	1.75816
0.09770	1.52859
0.55673	1.73265
0.42922	1.09496
0.02119	-0.46102
0.32721	-0.99668
0.50573	-0.89465
-0.31033	-0.48652
-0.23382	0.35523
0.14870	0.43176
0.37822	0.53379
0.27621	0.32972
0.17421	1.09496
-0.02981	0.38074
0.30171	-0.89465
0.73524	-1.22625
0.30171	-0.25695
-0.05531	0.27871
-0.28482	0.78886
-0.66735	0.71234
-0.43783	0.63582
-0.08081	1.78367
1.21977	-0.66508
1.67880	-1.81293
1.19427	-0.12942
-0.76936	0.61031
-1.20288	0.45726
-0.92237	0.86539
-0.79486	0.45726
-0.23382	0.40625
0.48022	0.25320
0.65874	-0.02739
0.99026	0.58480
1.04126	-0.41000
0.50573	-1.02219
0.04670	-0.07840
-0.08081	-0.00188
-0.08081	0.22769
-0.08081	0.25320
0.12320	0.55929
0.17421	0.35523
0.58223	0.25320
0.48022	0.25320
0.32721	-0.25695
-0.15732	-0.15492
-0.48884	0.73785
-0.36133	-0.38449
-0.15732	0.45726
0.14870	1.01843
0.65874	-2.06800
0.35272	0.02363
0.48022	1.27351
0.12320	-0.12942
0.22521	0.66132
0.53123	0.10015
0.40372	-0.66508
-0.31033	0.22769
-0.74385	0.89089
-0.46334	0.76336
0.07220	0.53379
0.30171	0.17668
0.70974	0.04914
0.19971	-0.15492
0.12320	-0.25695
-0.02981	-0.07840
0.83725	-0.20594
0.76074	0.45726
-0.08081	-0.20594
-0.31033	-0.43551
-0.28482	0.12566
-0.00431	-0.02739
0.22521	0.25320
0.35272	0.63582
0.25071	0.35523
-0.02981	0.58480
0.02119	0.86539
-0.00431	0.71234
0.14870	-1.78742
0.40372	-0.66508
0.35272	0.32972
1.14327	0.45726
0.60773	0.53379
-0.20832	1.55410
-0.53984	1.22250
-0.56534	-0.84363
-0.59084	-0.66508
-0.15732	-0.10391
0.04670	-0.35899
1.55129	0.63582
1.04126	0.43176
0.86275	0.50828
-0.20832	0.12566
-0.51434	0.02363
-0.59084	0.10015
-0.38683	-0.05289
-0.25932	0.07465
0.04670	-0.12942
-0.02981	-0.02739
0.27621	-0.02739
0.35272	0.43176
0.65874	0.66132
0.70974	0.40625
0.76074	-1.12422
0.42922	-0.46102
-0.02981	0.99292
-0.28482	1.04394
-0.13181	0.07465
-0.38683	0.38074
-0.00431	0.61031
0.40372	-0.20594
1.04126	-0.92016
0.50573	0.83988
0.04670	0.20219
-0.36133	0.55929
-0.56534	0.35523
-0.69285	0.63582
-0.76936	0.22769
-0.23382	-1.27726
0.86275	-1.40480
1.34728	-0.15492
0.68424	0.17668
0.27621	1.27351
0.09770	0.17668
0.14870	0.63582
-0.38683	0.86539
-0.59084	0.48277
-0.08081	0.40625
0.53123	0.27871
1.50029	-0.30797
1.04126	-0.12942
1.14327	-0.05289
-0.28482	-0.56305
-0.92237	0.04914
-1.07538	0.81437
-0.84586	-0.84363
-0.74385	0.50828
-0.20832	0.10015
0.48022	0.20219
1.27078	-0.15492
0.73524	0.38074
0.35272	0.86539
0.25071	1.86019
0.32721	-0.35899
0.32721	-2.96078
-0.05531	-0.84363
0.09770	0.86539
0.50573	1.09496
-0.00431	1.42656
-0.18282	1.42656
-0.08081	0.66132
-0.00431	-0.07840
-0.02981	-0.25695
0.42922	-0.25695
0.22521	-0.23145
0.07220	0.02363
0.09770	-0.18043
-0.46334	0.02363
-0.08081	-0.35899
0.35272	0.12566
0.55673	0.20219
0.58223	0.22769
0.86275	0.38074
0.70974	-0.76711
-0.23382	0.30422
-0.69285	0.53379
-0.41233	1.32453
-0.25932	0.04914
-0.08081	-0.25695
-0.28482	0.96742
-0.08081	0.81437
0.63323	0.25320
1.39828	-2.73121
1.14327	-1.37929
0.35272	1.14597
-0.20832	0.68683
-0.89686	1.19699
-0.51434	1.35003
-0.25932	1.70714
0.02119	0.83988
0.09770	0.73785
0.17421	-0.56305
0.50573	-1.99148
0.48022	-0.71609
1.16877	1.01843
0.27621	-0.15492
-0.18282	-1.60887
-0.28482	0.35523
-0.20832	0.10015
-0.18282	0.17668
0.45472	0.76336
0.58223	0.43176
0.37822	1.45206
-0.05531	-1.14973
-0.10631	-1.53234
0.30171	0.86539
-0.02981	0.35523
0.09770	0.17668
0.40372	0.83988
-0.25932	1.40105
-0.36133	0.25320
0.12320	-0.33348
0.32721	-0.43551
0.50573	-0.89465
0.07220	0.15117
0.12320	0.50828
0.35272	0.30422
0.25071	0.10015
0.09770	0.27871
0.09770	0.04914
0.25071	0.43176
0.53123	0.30422
0.30171	-0.46102
-0.02981	-0.02739
-0.08081	-0.10391
-0.08081	0.04914
-0.08081	1.24800
0.32721	-0.38449
0.86275	0.78886
0.27621	1.09496
-0.00431	-0.81812
0.30171	-2.01699
-0.05531	-0.00188
-0.13181	0.55929
0.22521	0.55929
-0.02981	1.17148
-0.84586	-0.43551
-0.53984	-0.10391
-0.05531	0.35523
0.53123	1.06945
0.27621	0.94191
0.22521	1.06945
0.73524	-0.56305
0.81175	-0.51203
0.81175	-0.00188
0.32721	1.32453
-0.05531	-1.09871
-0.56534	-1.43031
-0.18282	-2.42511
0.35272	-0.76711
0.55673	1.65613
0.17421	1.29902
0.19971	0.15117
-0.05531	0.76336
-0.56534	1.52859
-0.15732	-0.00188
0.04670	1.55410
-0.08081	-1.22625
0.04670	-2.90976
0.35272	1.55410
0.42922	0.12566
0.76074	0.83988
0.76074	0.86539
0.27621	0.81437
-0.56534	0.20219
-0.20832	0.96742
0.70974	-0.51203
1.01576	-1.12422
-0.08081	0.12566
-0.51434	0.22769
-0.31033	0.53379
-0.25932	0.27871
-0.23382	-0.61406
-0.02981	-0.05289
0.04670	0.10015
0.35272	-0.58856
0.68424	2.08976
0.88825	0.68683
0.53123	-2.45062
-0.08081	-0.71609
-0.15732	1.06945
-0.13181	1.35003
-0.13181	2.57441
-0.13181	1.01843
0.02119	-0.89465
0.37822	-1.25176
0.30171	-0.18043
0.35272	-0.00188
-0.00431	-1.02219
0.48022	1.45206
0.88825	1.55410
0.02119	0.99292
0.14870	0.27871
0.35272	1.14597
-0.33583	-0.92016
-0.59084	-1.12422
0.07220	0.35523
0.27621	0.68683
-0.00431	-0.15492
-0.05531	-1.12422
0.02119	-0.12942
0.22521	0.73785
0.83725	-0.63957
0.45472	-0.38449
-0.18282	0.94191
0.17421	1.22250
0.32721	0.02363
0.30171	1.22250
-0.28482	-1.68539
-0.02981	-1.35379
-0.23382	0.99292
0.17421	1.75816
0.19971	1.68163
0.32721	-0.69059
0.53123	-1.14973
0.60773	0.17668
-0.61635	0.22769
-0.46334	1.35003
0.27621	-0.05289
0.40372	-1.58336
0.25071	0.40625
0.48022	0.40625
0.40372	0.68683
-0.02981	0.27871
0.22521	0.35523
0.12320	0.17668
-0.10631	0.40625
-0.28482	-0.12942
-0.05531	2.11527
0.22521	-0.61406
-0.13181	-3.49644
0.19971	-0.79262
0.35272	0.71234
0.58223	0.40625
0.40372	1.04394
0.76074	2.03874
0.17421	0.30422
-0.13181	0.32972
-0.15732	-0.23145
-0.10631	0.53379
-0.18282	0.02363
-0.23382	0.55929
-0.33583	-0.46102
0.30171	-0.02739
0.70974	-0.00188
1.29628	0.40625
1.09226	0.17668
0.22521	-1.96597
-0.82036	0.61031
-0.84586	0.38074
-0.48884	0.22769
-0.08081	0.81437
0.45472	1.27351
0.99026	-0.02739
0.50573	0.20219
0.45472	1.78367
-0.08081	0.66132
-0.13181	-1.76191
-0.13181	-2.29757
0.09770	0.61031
0.04670	0.68683
0.30171	0.99292
0.32721	0.48277
0.14870	0.35523
0.27621	0.50828
0.09770	-0.69059
-0.02981	0.76336
-0.05531	1.09496
-0.18282	-0.56305
0.42922	-1.32828
1.06676	0.96742
0.99026	-0.56305
-0.02981	-0.30797
0.09770	0.61031
-0.74385	0.12566
-0.69285	0.38074
-0.20832	0.30422
-0.23382	0.12566
0.53123	0.76336
0.50573	0.99292
0.45472	1.52859
0.40372	-0.97117
0.32721	-1.07320
0.07220	-1.07320
0.42922	-0.12942
-0.18282	0.63582
-0.23382	-0.53754
0.14870	-0.61406
0.30171	1.57960
0.22521	1.19699
0.22521	0.53379
0.30171	0.55929
0.17421	0.45726
-0.00431	-0.92016
-0.20832	-0.00188
0.32721	0.04914
0.58223	0.04914
0.63323	0.30422
0.12320	0.30422
-0.02981	-0.33348
-0.48884	-1.45582
-0.38683	0.94191
-0.08081	0.83988
0.53123	0.22769
0.32721	-0.05289
0.37822	-0.02739
0.12320	-0.23145
0.35272	0.35523
-0.08081	0.43176
0.07220	1.19699
-0.08081	0.12566
-0.00431	0.78886
0.53123	0.50828
0.35272	-0.61406
0.22521	-2.42511
0.12320	0.10015
0.27621	0.55929
-0.00431	0.53379
0.07220	0.78886
-0.10631	0.81437
-0.10631	-0.48652
-0.00431	-0.53754
0.25071	0.78886
0.73524	0.96742
0.96476	0.76336
0.53123	-0.84363
-0.48884	-0.30797
-0.92237	-0.23145
-0.61635	0.81437
-0.15732	-0.00188
0.37822	0.71234
0.70974	0.15117
0.86275	-0.94566
0.50573	-0.84363
0.27621	0.68683
-0.18282	0.86539
-0.10631	0.48277
-0.10631	0.40625
0.09770	0.32972
0.27621	0.45726
0.48022	0.10015
0.68424	0.45726
0.12320	-0.23145
-0.02981	-1.76191
-0.25932	-0.66508
-0.10631	0.66132
-0.08081	0.58480
0.22521	0.99292
0.12320	0.55929
-0.10631	0.27871
0.19971	0.35523
0.78624	0.83988
0.40372	0.94191
0.19971	-0.56305
0.09770	-1.78742
-0.23382	-0.81812
-0.05531	0.96742
-0.28482	-0.46102
-0.08081	0.10015
0.17421	2.80397
0.14870	-0.51203
0.32721	-1.58336
0.60773	0.32972
0.35272	0.81437
0.35272	0.20219
0.25071	-1.04770
-0.02981	0.25320
-0.00431	1.50308
-0.20832	0.63582
-0.05531	-0.41000
0.07220	0.40625
0.19971	0.71234
0.12320	-0.18043
0.22521	-0.48652
0.37822	-0.00188
0.45472	-0.53754
0.53123	0.40625
0.35272	0.86539
-0.38683	-1.73640
-0.59084	-0.76711
-0.28482	0.17668
0.96476	0.96742
1.34728	1.04394
1.55129	0.78886
0.09770	0.40625
-1.15188	0.07465
-1.07538	0.48277
-0.94787	0.78886
-0.51434	-1.68539
-0.05531	-0.28246
0.07220	0.10015
0.32721	0.45726
0.65874	1.09496
1.14327	0.35523
1.27078	-0.51203
0.63323	-1.37929
0.48022	-0.15492
0.19971	0.86539
-0.41233	0.99292
-0.08081	-1.17523
-0.20832	-0.07840
-0.18282	1.73265
-0.23382	0.43176
-0.10631	-0.53754
-0.00431	0.55929
0.19971	0.78886
0.19971	-0.48652
0.32721	-0.46102
-0.00431	0.12566
0.14870	0.38074
0.27621	0.32972
0.40372	0.12566
0.07220	0.32972
-0.00431	0.17668
0.09770	-0.46102
0.76074	0.71234
0.50573	-0.56305
0.91375	-0.84363
-0.20832	-0.48652
-0.28482	0.45726
-0.46334	0.81437
-0.38683	0.55929
0.04670	0.45726
0.70974	0.22769
0.42922	0.22769
-0.33583	-0.15492
-0.38683	0.27871
-0.41233	0.07465
0.09770	0.07465
0.53123	0.20219
0.73524	-0.30797
0.45472	0.10015
0.37822	-0.07840
0.14870	-0.76711
0.30171	0.99292
0.30171	0.17668
0.19971	0.81437
0.09770	-0.97117
-0.10631	-1.02219
0.17421	-0.23145
0.09770	1.24800
-0.02981	0.81437
0.12320	0.96742
0.09770	0.96742
-0.02981	0.63582
-0.08081	-1.48133
-0.28482	-0.43551
0.32721	0.32972
0.42922	0.20219
0.48022	0.10015
0.07220	0.15117
0.48022	-0.12942
0.22521	0.15117
0.19971	0.91640
0.25071	-0.46102
0.37822	-0.48652
-0.56534	-0.35899
-0.69285	0.12566
-0.64185	1.06945
-0.18282	0.20219
0.40372	-0.05289
0.63323	-0.00188
0.60773	0.17668
0.48022	0.22769
0.32721	0.45726
0.04670	0.27871
0.42922	0.55929
0.02119	-0.18043
-0.15732	-0.15492
0.32721	-0.30797
0.35272	-0.43551
0.37822	1.27351
0.12320	0.83988
-0.18282	-0.25695
-0.20832	-1.27726
0.22521	-0.05289
0.07220	0.76336
-0.08081	0.66132
0.02119	0.53379
0.19971	0.45726
0.14870	0.32972
-0.00431	0.43176
0.02119	0.50828
0.53123	-1.35379
0.50573	-0.48652
0.45472	0.38074
-0.05531	0.83988
-0.10631	-0.51203
0.27621	0.02363
0.73524	0.96742
0.37822	0.50828
-0.41233	0.43176
-0.43783	0.48277
0.17421	0.76336
0.04670	0.22769
0.07220	-0.56305
-0.10631	-0.86914
-0.10631	-1.83844
-0.31033	0.63582
-0.00431	0.58480
0.70974	2.65093
1.11776	0.25320
1.62780	-2.01699
0.17421	0.30422
-0.18282	1.37554
-0.51434	1.19699
-0.43783	0.99292
-0.25932	0.40625
-0.48884	0.43176
-0.46334	0.76336
0.55673	-0.63957
1.80631	-3.13933
0.81175	-0.76711
0.32721	0.71234
-0.79486	1.22250
-0.79486	-0.12942
-0.56534	0.35523
-0.05531	1.04394
0.07220	0.43176
-0.18282	0.35523
0.68424	0.61031
1.32178	0.25320
0.60773	-0.94566
0.04670	-0.48652
0.02119	0.43176
0.19971	0.35523
-0.25932	0.61031
-0.23382	0.27871
-0.33583	-0.33348
-0.10631	0.83988
0.14870	-0.69059
0.60773	-0.41000
1.11776	-0.61406
0.68424	0.40625
0.14870	1.24800
-0.48884	0.89089
-0.48884	0.58480
-0.31033	0.12566
-0.36133	-1.40480
0.60773	-1.50683
0.32721	0.17668
0.60773	0.81437
0.45472	1.29902
0.04670	0.73785
-0.02981	-0.69059
-0.10631	-0.10391
0.19971	0.68683
0.04670	0.22769
-0.18282	0.45726
-0.25932	0.45726
0.14870	0.30422
0.68424	-0.99668
1.29628	-1.99148
0.73524	-0.15492
-0.15732	0.35523
-0.41233	0.43176
-0.53984	0.40625
-0.61635	0.25320
-0.38683	0.15117
0.22521	1.01843
0.55673	-0.38449
0.81175	-0.07840
1.80631	0.25320
0.27621	0.68683
-0.79486	-0.00188
-0.69285	1.06945
-0.38683	-0.07840
-0.18282	-0.89465
-0.08081	0.30422
0.30171	2.42136
0.40372	-1.17523
0.35272	-3.41992
0.63323	1.24800
0.65874	1.78367
0.37822	0.89089
0.02119	1.52859
0.02119	0.10015
-0.23382	-1.25176
-0.02981	0.50828
0.07220	1.04394
-0.18282	1.32453
0.17421	-1.48133
0.22521	-0.94566
0.73524	-0.05289
0.93925	0.48277
0.58223	0.04914
-0.82036	0.38074
-1.04987	0.61031
-0.71835	1.42656
-0.18282	1.78367
0.99026	-0.89465
0.86275	-2.01699
0.58223	-1.09871
1.04126	0.66132
0.32721	1.17148
-0.23382	0.45726
-0.59084	0.15117
-0.59084	1.98773
-0.61635	0.55929
-0.20832	-0.84363
0.09770	-0.66508
0.35272	0.27871
1.24527	0.40625
1.16877	0.17668
0.42922	0.07465
0.09770	0.61031
-0.02981	-0.12942
-0.23382	-0.30797
-0.28482	0.61031
0.07220	0.55929
0.02119	-0.38449
0.19971	-0.43551
0.35272	-0.18043
0.30171	0.63582
0.09770	0.10015
-0.08081	0.35523
0.09770	0.20219
0.27621	0.68683
-0.02981	1.09496
-0.10631	0.81437
0.27621	-1.02219
0.35272	-2.45062
0.68424	-0.86914
0.55673	1.73265
0.93925	0.25320
-0.18282	0.83988
-0.71835	1.22250
-0.71835	-0.15492
-0.56534	0.71234
0.02119	2.44687
0.02119	-1.91496
0.93925	-2.37410
1.27078	1.27351
0.45472	0.27871
-0.36133	0.27871
-0.02981	0.94191
-0.05531	0.45726
-0.23382	-0.69059
-0.43783	-0.15492
-0.13181	0.55929
0.42922	0.53379
1.24527	0.30422
1.27078	0.50828
0.60773	-0.69059
0.19971	0.50828
-0.64185	0.35523
-0.76936	-0.76711
-0.38683	1.42656
0.04670	1.52859
0.04670	-2.50164
0.37822	-3.34339
0.02119	1.29902
