0.45472	0.27871
0.60773	0.30422
0.32721	0.38074
0.14870	0.07465
0.17421	-0.74160
-0.02981	-0.71609
-0.20832	-0.20594
-0.15732	0.58480
-0.15732	0.63582
0.22521	0.55929
0.63323	0.55929
0.42922	0.40625
0.32721	0.22769
0.22521	0.12566
0.07220	0.10015
-0.05531	-0.07840
-0.05531	0.02363
-0.28482	0.20219
-0.08081	-0.00188
0.14870	-0.07840
0.55673	0.10015
0.48022	0.20219
0.45472	0.12566
0.63323	0.15117
-0.05531	-0.02739
-0.00431	-0.15492
-0.31033	0.10015
-0.31033	0.22769
-0.33583	0.27871
0.32721	0.58480
0.50573	0.35523
0.65874	-0.00188
0.12320	-0.23145
-0.38683	0.53379
-0.15732	0.43176
0.35272	-0.38449
0.88825	-0.28246
0.30171	0.15117
-0.02981	0.20219
0.17421	0.20219
-0.13181	0.40625
-0.28482	0.27871
0.04670	0.17668
0.17421	0.20219
0.45472	0.20219
0.32721	-0.20594
0.40372	-0.25695
-0.13181	0.15117
-0.41233	-0.02739
-0.00431	-0.05289
0.32721	0.55929
0.65874	-0.10391
0.73524	-0.00188
0.30171	0.17668
-0.13181	0.86539
-0.33583	0.12566
-0.18282	0.04914
-0.08081	-0.20594
0.22521	-0.10391
0.12320	0.50828
-0.13181	-0.00188
0.30171	0.32972
0.60773	0.27871
0.73524	0.32972
-0.08081	0.02363
-0.05531	0.40625
-0.05531	-0.02739
-0.05531	-0.99668
-0.10631	-0.30797
0.12320	0.17668
0.50573	0.63582
0.35272	0.61031
0.14870	0.43176
-0.05531	0.35523
-0.13181	0.20219
0.12320	-0.10391
0.12320	0.22769
-0.00431	0.30422
0.32721	0.38074
0.12320	-0.10391
0.86275	0.10015
0.48022	-0.20594
0.42922	-0.74160
0.19971	0.12566
-0.33583	0.61031
-0.08081	0.02363
-0.18282	-0.61406
0.32721	0.94191
-0.20832	0.71234
-0.08081	0.38074
-0.18282	0.02363
0.22521	-0.00188
-0.10631	-0.41000
0.25071	0.50828
0.63323	0.30422
1.06676	0.02363
0.50573	0.94191
0.30171	0.20219
0.09770	-0.84363
-0.79486	-0.71609
-0.79486	0.66132
-0.38683	-0.10391
1.01576	-0.20594
1.52579	-0.05289
0.78624	0.25320
-0.43783	0.48277
-0.31033	0.45726
-0.51434	0.45726
-0.59084	0.78886
-0.25932	0.10015
0.32721	-0.41000
0.22521	-0.12942
0.22521	0.07465
0.55673	-0.00188
1.21977	0.32972
0.55673	0.12566
0.68424	0.40625
-0.48884	0.04914
-0.46334	0.04914
-0.18282	0.38074
0.40372	0.17668
0.19971	-0.61406
-0.13181	0.07465
-0.02981	0.17668
-0.08081	0.17668
-0.41233	0.45726
-0.15732	1.17148
0.73524	0.45726
1.44929	-0.86914
1.06676	-0.74160
0.14870	0.96742
-0.64185	0.32972
-0.41233	-0.12942
-0.56534	0.30422
0.02119	0.07465
0.42922	-0.79262
0.73524	-0.43551
-0.00431	0.86539
-0.48884	1.27351
-0.28482	0.86539
-0.08081	0.02363
0.02119	0.25320
0.70974	-0.30797
1.93382	-0.41000
1.11776	-0.25695
-0.02981	-0.05289
-0.10631	0.07465
-0.33583	0.73785
-0.74385	0.10015
-0.59084	0.38074
-0.66735	0.30422
-0.53984	-0.28246
-0.05531	-0.38449
1.27078	0.17668
1.27078	-0.89465
1.04126	0.73785
-0.41233	2.24281
-0.08081	-0.35899
-0.31033	0.12566
0.88825	0.71234
1.55129	0.04914
0.14870	0.12566
-0.76936	-0.20594
-0.99887	1.17148
-1.35589	0.22769
-0.46334	-1.09871
0.32721	-0.56305
1.37278	0.20219
1.67880	0.68683
0.37822	-0.00188
0.12320	0.78886
-0.13181	-0.20594
-0.02981	-0.05289
0.12320	0.63582
-0.00431	0.20219
-0.08081	-0.51203
0.37822	-1.65988
0.04670	-0.71609
-1.27939	0.86539
-1.17738	0.94191
0.68424	1.75816
1.93382	1.75816
1.21977	-1.22625
0.73524	-1.37929
-0.18282	0.63582
-0.38683	0.17668
-0.23382	0.04914
-0.33583	-0.56305
-0.66735	1.19699
-0.31033	0.66132
0.73524	-0.02739
1.14327	-0.18043
0.60773	0.02363
0.04670	0.25320
0.37822	0.76336
0.32721	0.35523
0.53123	1.35003
-0.38683	-2.14453
-0.59084	-2.19554
-0.82036	-0.28246
-0.10631	0.63582
1.44929	1.47757
1.14327	0.61031
1.75531	-1.07320
0.02119	-0.35899
-1.07538	0.66132
-1.45790	0.20219
-1.33039	0.48277
0.22521	1.27351
1.70430	-0.74160
0.40372	0.20219
-0.41233	1.83468
-0.20832	-0.25695
0.14870	-1.40480
0.14870	-0.15492
0.70974	0.63582
1.34728	-1.12422
1.75531	0.78886
-0.23382	0.55929
-0.64185	0.35523
-1.10088	0.86539
-0.84586	0.91640
0.22521	0.22769
0.48022	-1.17523
0.68424	-0.46102
0.48022	0.38074
1.34728	1.88570
-0.15732	-1.20074
-0.36133	-2.06800
-0.38683	1.78367
-0.51434	1.29902
-0.46334	-3.36890
0.19971	-0.92016
1.19427	1.17148
1.85731	1.29902
0.99026	1.57960
-0.31033	1.14597
-0.71835	0.07465
-1.17738	0.83988
-1.10088	0.76336
-0.56534	0.40625
0.07220	-1.58336
1.85731	-0.56305
1.62780	-0.89465
0.70974	0.55929
-0.18282	0.83988
-0.31033	-1.25176
-0.36133	-0.41000
-0.94787	1.06945
-0.84586	-0.99668
0.37822	-0.76711
1.75531	0.99292
1.34728	1.68163
1.21977	0.73785
-0.05531	-1.27726
-0.38683	-0.63957
-0.92237	1.35003
-1.22839	0.15117
-0.61635	0.30422
0.35272	0.78886
0.86275	0.20219
1.57679	0.61031
1.44929	0.78886
-0.38683	-1.68539
-0.53984	-0.61406
-0.41233	1.14597
-0.20832	-0.15492
-0.56534	-1.30277
-0.23382	0.04914
-0.13181	-0.18043
0.78624	0.61031
0.02119	0.35523
0.19971	0.71234
1.06676	1.22250
2.08683	1.01843
1.21977	2.65093
-0.38683	-1.60887
-0.87136	-2.45062
-0.89686	-0.56305
-0.84586	0.53379
0.35272	0.12566
0.27621	-0.02739
0.48022	1.88570
-0.10631	-1.40480
0.35272	-1.45582
0.25071	1.17148
-0.00431	0.76336
-0.18282	1.35003
-0.43783	0.40625
-0.84586	2.42136
0.27621	-0.46102
1.24527	-2.85874
3.03039	-0.48652
0.65874	-0.84363
0.22521	0.68683
-0.89686	0.81437
-1.07538	0.94191
-1.07538	0.53379
-0.48884	-1.02219
0.35272	0.63582
0.65874	1.37554
0.53123	-0.56305
-0.05531	-0.92016
-0.05531	1.52859
-0.15732	-1.25176
0.53123	-0.71609
0.88825	1.09496
1.11776	0.68683
0.27621	0.96742
-0.53984	0.22769
-0.00431	0.66132
0.12320	-0.84363
-0.00431	0.86539
-0.23382	-3.36890
-0.64185	-0.69059
0.09770	0.45726
1.32178	0.81437
1.39828	0.94191
-0.08081	2.70194
-0.48884	0.78886
-0.59084	-0.46102
-0.28482	0.02363
0.12320	-0.92016
0.32721	-0.43551
0.78624	-2.01699
0.58223	-0.51203
1.11776	0.86539
-0.25932	1.32453
-0.84586	1.55410
-0.69285	0.50828
-0.20832	0.43176
-0.00431	3.13558
0.14870	-1.30277
0.27621	-6.20026
0.17421	-0.00188
0.07220	0.25320
1.98482	0.02363
2.08683	1.78367
0.22521	1.88570
-0.41233	0.48277
-0.92237	2.49788
-1.17738	0.20219
-0.79486	0.32972
-0.61635	-0.38449
0.22521	-3.90456
0.83725	-2.85874
1.39828	0.07465
0.96476	2.65093
-0.46334	3.05905
-0.59084	1.06945
-0.08081	0.61031
0.17421	0.73785
-0.00431	-1.78742
-0.05531	-0.69059
0.58223	-0.18043
1.60230	0.38074
0.96476	0.40625
-0.20832	0.53379
-0.56534	0.32972
-0.99887	2.39585
-0.69285	-0.41000
-1.22839	-3.16484
0.37822	-0.02739
2.08683	-0.30797
2.72437	0.30422
0.65874	0.35523
-0.56534	0.66132
-1.15188	3.67124
-1.33039	0.35523
-1.07538	-4.46573
-0.82036	-1.14973
0.42922	1.06945
3.48942	1.88570
2.18883	3.21210
0.25071	-0.46102
-0.53984	-0.30797
-1.38139	-1.40480
-1.55991	-0.10391
-0.74385	1.88570
0.70974	1.17148
1.24527	-1.55785
0.63323	-0.25695
0.12320	-0.00188
-0.00431	-0.10391
-0.10631	-0.53754
-0.61635	-0.76711
-0.69285	0.86539
0.70974	1.55410
2.11233	2.08976
0.93925	-0.86914
-0.56534	-1.12422
-0.02981	1.78367
-0.25932	1.42656
-1.45790	-2.88425
-0.25932	-2.14453
0.37822	0.55929
1.60230	0.91640
1.34728	1.47757
-0.28482	1.52859
-0.71835	0.48277
-0.53984	0.27871
-0.08081	0.99292
0.30171	0.50828
-0.08081	-1.32828
0.07220	-1.27726
0.91375	-2.19554
1.44929	0.25320
1.04126	1.42656
-0.46334	0.76336
-0.38683	-0.66508
-0.33583	0.25320
-0.33583	0.55929
-0.41233	0.61031
0.12320	2.98253
0.04670	-1.71090
0.53123	-1.37929
0.40372	0.45726
0.83725	0.22769
0.37822	2.29382
0.22521	-0.81812
-0.53984	-0.18043
-0.00431	1.70714
-0.33583	0.66132
-0.53984	-2.27207
-0.28482	-2.65468
0.60773	-1.12422
1.55129	0.89089
1.44929	1.75816
-0.13181	1.57960
-0.64185	1.27351
-0.33583	0.25320
-0.53984	1.63062
-0.69285	-1.50683
-0.53984	-0.51203
-0.28482	-0.56305
0.81175	0.53379
1.83181	-0.56305
1.32178	-0.66508
0.02119	0.53379
-0.41233	0.83988
-0.41233	1.42656
-0.69285	0.68683
-0.28482	-1.45582
0.68424	0.53379
1.72980	-0.51203
0.58223	-1.04770
-0.48884	-0.51203
-0.71835	0.15117
-0.41233	1.14597
0.55673	0.86539
0.14870	1.37554
-0.10631	1.60511
-0.05531	0.20219
-0.05531	-0.53754
0.53123	1.17148
0.70974	-3.59847
0.58223	-1.78742
0.09770	-0.10391
0.76074	1.17148
0.45472	0.50828
-0.61635	2.19179
-0.97337	2.24281
-0.66735	-0.89465
-0.28482	-0.99668
-0.38683	-1.43031
0.65874	-1.32828
1.39828	1.24800
2.18883	1.88570
0.17421	1.88570
-0.69285	1.40105
-0.84586	1.22250
-0.23382	-1.02219
0.02119	-0.86914
0.68424	-0.25695
1.11776	-1.30277
0.63323	-0.58856
0.25071	0.22769
0.22521	1.12046
-0.82036	1.45206
-1.30489	-3.06281
-1.50890	-2.22105
0.63323	-0.48652
1.70430	1.98773
2.18883	2.52339
0.42922	4.00284
0.09770	-1.07320
-0.69285	-1.96597
-1.10088	0.83988
-0.79486	2.16628
0.50573	0.27871
0.96476	-1.53234
1.67880	0.63582
0.68424	0.45726
-0.53984	0.10015
-0.71835	-0.23145
-0.82036	0.04914
-0.23382	-0.79262
0.70974	0.15117
0.58223	0.00000
0.78624	0.00000
0.35272	0.07465
-0.15732	0.10015
-0.02981	2.08976
-0.41233	0.78886
-0.33583	-4.26167
0.04670	1.35003
0.93925	-0.61406
0.81175	-0.35899
0.19971	2.03874
-0.38683	-0.92016
-0.25932	0.61031
-0.23382	2.29382
-0.10631	0.86539
0.17421	-0.35899
0.37822	-0.66508
1.44929	0.76336
0.55673	-0.30797
0.27621	0.89089
0.02119	0.78886
-0.31033	0.38074
-0.59084	-0.02739
-0.25932	-0.41000
-0.13181	-0.97117
0.09770	0.45726
0.04670	0.25320
-0.25932	-0.20594
0.55673	-1.02219
0.70974	-0.56305
0.35272	0.17668
0.32721	0.96742
-0.00431	-0.56305
-0.53984	0.63582
0.35272	1.06945
0.88825	0.94191
0.83725	1.22250
0.53123	0.66132
-0.41233	-2.47613
-0.89686	-1.40480
-0.59084	0.43176
-0.10631	3.00804
-0.10631	-0.25695
-0.28482	-1.30277
0.30171	0.45726
1.83181	2.16628
2.21434	-1.43031
0.50573	-1.12422
-0.59084	0.76336
-0.87136	0.40625
-0.74385	1.75816
-0.84586	1.42656
-0.59084	-1.14973
0.60773	-0.86914
0.99026	0.45726
1.34728	0.20219
0.99026	1.68163
-0.08081	-1.09871
-0.59084	-2.73121
-0.69285	0.30422
-0.66735	1.01843
-0.20832	2.11527
0.70974	0.96742
1.55129	-0.10391
0.73524	-0.18043
0.35272	2.06425
-0.00431	0.27871
-0.76936	-3.41992
-0.48884	-1.63437
0.09770	0.48277
-0.20832	2.57441
-0.02981	0.53379
0.22521	-0.25695
0.63323	0.71234
0.27621	-2.22105
0.12320	-0.48652
0.40372	0.12566
0.25071	1.29902
0.50573	2.01323
0.37822	1.40105
-0.23382	0.48277
0.04670	1.17148
-0.36133	-0.00188
-0.64185	0.96742
-0.13181	-3.34339
0.83725	-2.39961
0.65874	-0.56305
-0.41233	-0.02739
0.07220	1.45206
-0.25932	1.17148
-0.28482	0.40625
0.35272	0.32972
1.29628	-0.05289
0.83725	1.14597
0.37822	-0.53754
-0.48884	-1.43031
-0.31033	0.17668
-0.08081	1.06945
0.27621	-0.89465
0.48022	0.58480
0.19971	0.76336
0.02119	0.35523
-0.00431	0.83988
0.22521	0.61031
0.25071	-0.00188
0.22521	0.55929
0.63323	-1.71090
0.78624	-2.14453
-0.10631	0.22769
-0.10631	1.98773
-0.69285	-0.18043
-0.41233	-0.12942
-0.10631	2.08976
0.22521	1.52859
-0.25932	-1.71090
-0.23382	-0.99668
1.11776	1.45206
1.67880	-0.38449
0.86275	-0.48652
0.37822	0.78886
-0.46334	0.66132
-0.92237	0.76336
-0.33583	-0.02739
-0.51434	-0.02739
-0.13181	-0.10391
0.30171	-0.18043
0.73524	0.43176
1.24527	-1.30277
0.83725	0.48277
0.32721	0.55929
-0.13181	-0.61406
-0.56534	0.35523
-0.69285	0.68683
-0.46334	0.20219
-0.43783	0.40625
0.09770	0.78886
1.19427	-0.25695
1.47479	-0.30797
0.58223	0.55929
0.07220	-0.07840
-0.64185	-0.86914
-0.41233	0.99292
-0.43783	1.14597
-0.38683	-2.70570
0.32721	-0.46102
1.24527	0.99292
0.32721	1.57960
0.02119	1.04394
0.14870	1.55410
-0.08081	-0.15492
-0.46334	-1.07320
-0.25932	-1.12422
0.50573	0.32972
0.30171	0.20219
0.12320	1.09496
0.76074	0.96742
1.06676	-1.22625
0.86275	-1.71090
-0.31033	0.68683
-0.38683	0.38074
-0.20832	-0.12942
-0.31033	0.02363
-0.41233	0.35523
-0.33583	0.43176
-0.10631	0.55929
0.07220	1.27351
-0.15732	0.35523
0.22521	-0.00188
1.09226	1.19699
1.50029	-1.30277
0.12320	-1.53234
-0.00431	1.06945
0.09770	0.63582
0.04670	-1.37929
0.50573	-0.35899
0.58223	1.19699
-0.25932	0.61031
-0.10631	0.48277
-0.48884	2.01323
-0.51434	0.15117
-0.33583	-2.50164
0.07220	-0.76711
0.07220	-2.34859
0.53123	-0.84363
0.99026	1.86019
1.29628	2.31933
0.83725	1.88570
-0.41233	-0.97117
-1.15188	0.55929
-1.20288	-0.12942
-0.18282	-0.18043
1.24527	0.38074
1.39828	0.12566
0.65874	0.27871
0.19971	-0.20594
-0.53984	0.07465
-0.66735	-0.02739
-0.61635	-1.12422
-0.41233	-0.10391
0.02119	0.61031
0.19971	-0.15492
0.65874	-0.15492
1.32178	0.66132
1.24527	0.66132
0.42922	0.96742
-0.36133	0.27871
-0.36133	0.04914
-0.08081	-0.18043
-0.33583	-1.12422
-0.08081	0.66132
-0.18282	0.91640
0.37822	1.78367
0.07220	0.22769
0.27621	-1.58336
0.19971	-0.63957
-0.00431	0.10015
-0.08081	-1.43031
0.96476	2.06425
1.09226	0.66132
0.60773	-0.02739
-0.46334	0.38074
-0.74385	0.12566
-0.38683	0.07465
0.07220	-0.12942
0.02119	-0.10391
0.04670	0.55929
0.68424	0.30422
0.96476	1.35003
0.40372	-0.02739
-0.61635	-2.34859
-0.66735	-1.45582
0.17421	1.24800
0.02119	0.96742
-0.05531	-0.10391
1.16877	1.78367
1.19427	-0.46102
0.73524	-1.09871
0.22521	1.42656
-0.48884	1.40105
-0.51434	-1.17523
-0.69285	-1.32828
-0.59084	0.96742
-0.20832	0.96742
0.07220	0.68683
0.60773	0.40625
0.68424	0.07465
1.01576	-0.43551
1.04126	-0.81812
0.55673	0.78886
-0.53984	0.35523
-1.12638	-1.25176
-0.61635	-0.25695
0.22521	1.17148
0.53123	-0.28246
0.55673	-0.28246
0.96476	0.61031
0.04670	0.63582
-0.20832	0.04914
-0.23382	0.55929
0.09770	0.81437
-0.13181	0.76336
-0.13181	-0.84363
-0.59084	-0.12942
0.25071	0.07465
1.04126	-0.38449
1.32178	-0.51203
0.53123	0.73785
-0.48884	-0.15492
-0.38683	0.50828
-0.41233	0.94191
-0.05531	0.91640
-0.23382	0.30422
0.04670	-2.01699
0.63323	-0.48652
0.68424	1.50308
0.63323	-0.12942
0.58223	-0.02739
0.02119	1.42656
-0.20832	0.55929
-0.79486	-1.12422
-0.79486	-1.58336
0.07220	-1.17523
1.06676	1.29902
1.21977	0.76336
-0.08081	0.76336
0.09770	1.22250
0.14870	0.73785
-0.08081	-0.86914
-0.05531	-1.07320
-0.18282	1.37554
-0.53984	0.66132
-0.02981	-3.01179
0.81175	0.78886
1.14327	1.01843
0.19971	-0.35899
-0.25932	-0.02739
-0.05531	-0.41000
0.37822	0.81437
0.30171	0.96742
0.37822	0.25320
0.07220	0.15117
-0.74385	0.58480
-0.51434	-0.07840
0.02119	0.53379
0.25071	-0.66508
0.78624	-1.22625
1.75531	0.94191
0.86275	1.19699
-0.13181	0.15117
-0.92237	0.10015
-1.02437	-2.45062
-0.99887	-0.15492
-1.02437	1.14597
0.48022	2.39585
1.85731	-0.76711
1.98482	-0.38449
0.93925	2.21730
-0.18282	1.14597
-0.89686	-1.35379
-0.46334	-0.92016
-0.53984	0.32972
-0.61635	1.06945
0.02119	0.48277
1.27078	-1.12422
1.95932	-1.32828
0.81175	0.76336
-0.33583	0.66132
-0.84586	0.40625
-1.15188	-0.20594
-0.31033	-0.25695
0.40372	1.01843
0.68424	-0.05289
0.32721	-0.71609
-0.00431	-0.00188
0.19971	0.30422
0.19971	1.47757
-0.08081	-0.94566
0.07220	-0.99668
0.35272	-0.00188
0.12320	1.88570
0.04670	0.43176
0.50573	-0.71609
0.37822	-0.20594
0.37822	-0.00188
0.14870	0.86539
-0.25932	0.32972
-0.18282	0.17668
-0.25932	-0.97117
-0.02981	-0.25695
0.22521	1.09496
0.32721	0.12566
0.19971	-0.51203
0.04670	0.48277
0.68424	0.10015
0.17421	-0.05289
0.02119	1.75816
-0.43783	0.55929
-0.02981	0.94191
0.45472	-1.83844
0.22521	-5.56257
0.58223	0.43176
0.25071	1.27351
0.07220	2.06425
0.35272	1.14597
-0.66735	1.35003
0.04670	1.04394
0.02119	0.02363
0.22521	-0.35899
0.40372	0.68683
0.45472	-0.15492
0.12320	-1.12422
-0.31033	-0.18043
-0.28482	-0.30797
-0.31033	0.35523
0.50573	1.06945
1.34728	0.04914
1.39828	-0.66508
1.06676	-2.14453
-0.25932	1.78367
-0.33583	-0.79262
-1.04987	-0.66508
-1.25389	1.47757
-0.76936	1.96222
0.42922	1.27351
0.86275	0.07465
0.76074	-0.81812
0.40372	0.53379
-0.25932	0.96742
-0.13181	0.43176
0.68424	-2.88425
0.81175	-0.76711
0.22521	0.30422
-0.79486	-0.23145
0.37822	0.48277
0.78624	0.91640
0.96476	1.12046
-0.08081	1.24800
-0.46334	-0.61406
-0.82036	-2.09351
-0.38683	-0.12942
0.30171	0.83988
0.30171	0.22769
0.27621	2.42136
0.48022	-0.23145
0.42922	-1.63437
0.37822	0.94191
0.27621	1.12046
-0.25932	1.29902
0.17421	-0.86914
0.58223	-1.27726
0.86275	-0.30797
0.40372	0.50828
-0.31033	0.32972
-0.84586	0.58480
-0.94787	2.08976
-0.74385	-0.86914
0.09770	-1.48133
0.99026	1.32453
0.73524	-0.10391
0.37822	-0.76711
-0.05531	-0.53754
0.37822	0.12566
0.37822	1.27351
0.30171	1.04394
-0.10631	2.29382
0.48022	-1.35379
0.50573	-0.66508
0.02119	-0.69059
-0.08081	0.91640
-0.10631	1.04394
-0.51434	-1.94047
0.04670	-0.53754
0.07220	-0.02739
0.58223	1.55410
0.40372	1.57960
0.12320	0.17668
-0.00431	0.25320
-0.13181	0.53379
-0.28482	0.02363
-0.08081	0.35523
0.63323	-0.30797
0.48022	-0.05289
0.60773	-0.71609
0.78624	-0.76711
0.17421	-1.17523
-0.53984	0.96742
-0.28482	0.30422
0.02119	0.43176
0.12320	0.99292
-0.31033	0.99292
-0.10631	0.55929
0.27621	0.66132
1.11776	-1.78742
0.02119	-0.74160
0.25071	0.55929
0.50573	0.96742
0.32721	1.32453
0.58223	1.40105
-0.18282	0.20219
-0.59084	-3.06281
-0.43783	-2.14453
-0.36133	0.55929
-0.28482	-0.07840
0.17421	-0.23145
1.21977	2.65093
1.34728	1.09496
0.35272	0.27871
-0.08081	0.68683
-0.66735	-0.05289
-0.89686	1.29902
0.19971	-0.76711
1.37278	-2.52714
0.93925	0.10015
0.14870	0.22769
-0.48884	0.61031
-0.66735	0.27871
0.02119	-0.38449
0.02119	0.96742
-0.00431	-0.15492
-0.05531	-0.41000
-0.05531	1.17148
0.02119	0.43176
0.60773	-0.00188
1.19427	-1.94047
1.11776	0.02363
0.12320	0.91640
0.37822	1.55410
-0.43783	1.22250
-0.61635	0.15117
-0.41233	1.32453
-0.69285	1.55410
-0.36133	-3.39441
0.35272	-2.75671
1.34728	1.27351
0.50573	-0.12942
0.68424	2.14077
0.60773	0.12566
-0.20832	-0.38449
-0.36133	0.81437
-0.64185	-1.78742
0.19971	1.68163
0.32721	-0.05289
0.42922	-0.66508
0.70974	0.48277
0.63323	1.57960
0.19971	0.73785
-0.53984	-2.04250
-0.84586	-1.63437
-0.71835	0.53379
-0.28482	1.63062
-0.18282	1.17148
0.25071	-0.58856
0.68424	-1.22625
1.70430	1.12046
1.47479	1.04394
0.55673	0.66132
-0.15732	-0.69059
-0.36133	0.15117
-0.87136	-0.63957
0.19971	1.78367
-0.18282	0.43176
-0.05531	-0.74160
-0.02981	0.76336
-0.02981	0.22769
0.63323	1.24800
1.78081	-0.86914
1.39828	-1.50683
-0.64185	0.50828
-0.82036	0.38074
-0.97337	0.58480
-0.76936	0.71234
-0.23382	1.45206
0.12320	-0.99668
0.32721	-1.27726
0.91375	0.35523
0.93925	-0.05289
0.53123	-2.19554
1.01576	-0.20594
0.14870	0.94191
-0.74385	1.55410
-0.94787	1.52859
-0.82036	1.45206
-0.51434	0.55929
0.07220	-0.38449
1.32178	-0.43551
1.83181	-1.20074
1.24527	0.20219
0.60773	-0.12942
-0.10631	0.43176
-0.28482	0.17668
-0.99887	-0.99668
-0.94787	0.22769
-0.66735	0.25320
-0.08081	2.47238
0.17421	1.12046
1.27078	-4.38921
1.55129	-3.31788
0.93925	0.73785
-0.23382	2.26831
-0.56534	1.78367
-0.61635	1.32453
-0.74385	2.01323
-0.20832	-0.02739
0.17421	-1.55785
0.48022	0.55929
0.58223	0.55929
0.78624	-1.07320
0.60773	0.07465
0.48022	-0.23145
0.50573	-0.66508
0.37822	0.12566
-0.87136	0.45726
-0.89686	-0.07840
-0.79486	0.91640
-0.18282	0.76336
0.58223	-0.53754
0.93925	3.36515
0.60773	-1.22625
0.22521	-6.68491
-0.10631	0.12566
-0.00431	0.94191
0.22521	2.57441
-0.05531	3.51819
-0.13181	0.81437
0.14870	-0.63957
0.53123	-0.46102
0.55673	1.14597
-0.13181	1.78367
0.30171	-0.76711
-0.20832	-1.91496
0.19971	0.48277
0.30171	0.22769
-0.00431	0.73785
0.78624	1.04394
0.40372	-0.89465
-0.31033	0.45726
-0.61635	-0.43551
-0.76936	-2.90976
-0.25932	-0.71609
0.73524	0.96742
1.14327	1.50308
0.70974	1.04394
-0.28482	2.19179
-0.08081	0.71234
-0.43783	-0.69059
-0.87136	-0.89465
0.27621	0.17668
1.95932	0.17668
2.57136	0.07465
0.14870	0.25320
-1.35589	0.25320
-0.99887	0.22769
-0.69285	-0.35899
-0.18282	1.35003
0.09770	-0.79262
0.22521	-0.12942
0.58223	-0.18043
0.50573	0.58480
0.32721	0.68683
0.35272	-0.10391
0.12320	-0.05289
0.07220	0.89089
0.22521	-0.86914
0.30171	-0.33348
0.27621	0.71234
0.07220	0.94191
0.07220	0.89089
0.76074	-0.86914
1.21977	-1.22625
-0.56534	0.66132
-1.27939	-0.38449
-0.94787	1.60511
-0.10631	0.89089
-0.61635	1.29902
0.53123	-1.04770
0.93925	-0.48652
1.29628	1.24800
0.50573	0.83988
-0.13181	-0.10391
0.32721	-0.12942
0.12320	-0.35899
-0.15732	-0.02739
-0.08081	-0.10391
-0.10631	-0.48652
-0.10631	-0.63957
0.09770	0.32972
0.83725	1.75816
0.91375	-3.03730
0.93925	-1.25176
-0.13181	1.47757
-0.38683	1.88570
-0.66735	1.27351
-0.46334	0.96742
0.07220	1.50308
0.02119	-0.23145
-0.05531	-0.58856
0.45472	-1.35379
0.68424	-0.79262
0.78624	0.17668
0.09770	-0.61406
0.19971	0.12566
0.27621	0.32972
-0.41233	-0.05289
-0.33583	1.73265
-0.31033	0.15117
0.42922	-1.71090
0.42922	0.22769
0.65874	-2.24656
0.40372	1.14597
0.14870	2.47238
-0.15732	-0.02739
-0.38683	-0.71609
-0.69285	0.58480
-0.15732	0.91640
0.53123	1.83468
0.60773	0.61031
1.09226	-1.91496
-0.08081	-1.73640
-0.51434	-0.20594
-0.36133	0.89089
0.12320	0.10015
0.83725	0.02363
0.40372	0.53379
0.70974	0.66132
-0.10631	1.22250
0.27621	0.50828
-0.41233	-1.12422
-0.38683	-0.48652
0.02119	0.20219
-0.33583	2.29382
0.25071	-0.20594
0.14870	-4.69530
0.91375	0.48277
0.73524	0.83988
0.17421	2.65093
-0.23382	0.91640
-0.00431	-1.73640
0.68424	-0.81812
-0.00431	0.81437
0.07220	0.61031
-0.38683	1.60511
-0.13181	0.38074
-0.25932	-1.37929
0.12320	0.07465
0.04670	0.20219
0.32721	0.38074
0.37822	0.71234
0.07220	0.45726
0.12320	0.48277
0.04670	-0.99668
0.09770	-1.22625
0.19971	-0.46102
0.45472	0.73785
0.53123	0.17668
0.55673	0.15117
0.65874	0.76336
0.55673	-0.51203
-0.23382	0.15117
-0.28482	0.94191
-0.56534	1.27351
0.70974	1.17148
0.48022	-0.89465
0.02119	-2.83324
-0.28482	-0.02739
-0.92237	0.58480
-0.99887	1.55410
-0.08081	0.89089
0.81175	0.38074
1.34728	1.57960
0.88825	0.61031
-0.43783	-3.08831
-0.02981	-1.88945
0.14870	0.76336
0.25071	1.01843
0.27621	1.22250
-0.23382	0.73785
0.07220	2.34484
0.65874	-0.25695
0.35272	-2.47613
0.53123	0.22769
-0.00431	0.53379
-0.41233	0.27871
-0.20832	0.58480
-0.02981	0.71234
0.19971	0.63582
0.50573	0.61031
0.37822	-1.07320
0.60773	-0.81812
0.63323	0.02363
-0.33583	0.15117
-0.48884	0.99292
-0.02981	-0.25695
0.81175	-1.20074
0.73524	1.88570
0.17421	0.10015
-0.08081	-0.12942
-0.46334	-0.33348
-0.00431	-0.35899
0.17421	-0.15492
-0.00431	2.08976
-0.48884	0.55929
-0.82036	-1.25176
0.22521	1.35003
1.09226	1.17148
1.14327	-1.12422
0.70974	-0.10391
0.55673	-0.05289
-0.08081	0.30422
-0.25932	0.38074
-0.15732	0.48277
-0.38683	-0.38449
-0.13181	-1.88945
0.40372	0.22769
0.93925	0.86539
0.22521	1.04394
0.37822	0.22769
-0.02981	-0.07840
-0.53984	0.32972
-0.33583	-0.15492
-0.66735	0.96742
-0.59084	-0.38449
0.50573	-0.89465
1.09226	0.22769
1.72980	0.55929
0.68424	0.83988
-0.15732	0.83988
-0.28482	0.50828
-1.10088	-1.40480
-0.38683	0.50828
0.63323	0.43176
1.06676	-0.58856
0.14870	-0.05289
-0.33583	0.81437
-0.20832	0.76336
-0.05531	0.07465
0.04670	0.38074
0.25071	-0.20594
0.50573	0.81437
0.45472	0.55929
0.19971	-2.37410
0.63323	-1.68539
0.50573	-0.10391
0.07220	1.78367
-0.05531	-0.10391
0.09770	0.55929
-0.05531	0.89089
-0.41233	0.89089
-0.59084	0.48277
-0.05531	0.02363
0.37822	0.04914
0.60773	0.15117
1.14327	0.22769
0.91375	1.06945
-0.48884	-1.37929
-0.74385	-2.14453
-0.28482	-0.10391
0.42922	0.55929
0.60773	4.23241
0.58223	-0.74160
0.04670	-2.29757
-0.38683	0.17668
-0.08081	-0.15492
-0.08081	1.12046
0.30171	0.30422
0.58223	0.91640
0.19971	0.81437
-0.18282	0.53379
0.07220	0.94191
0.30171	0.38074
0.32721	-0.41000
0.45472	-2.55265
0.27621	-0.48652
-0.28482	0.35523
-0.23382	0.73785
0.12320	0.30422
0.09770	-0.97117
0.30171	0.10015
0.14870	0.78886
0.58223	0.45726
0.53123	0.48277
0.02119	0.15117
-0.61635	1.06945
-0.38683	0.04914
-0.61635	-1.09871
-0.28482	0.58480
0.42922	0.99292
0.42922	-1.14973
1.37278	1.27351
1.01576	-0.05289
0.55673	-0.79262
-0.08081	-0.00188
-0.48884	0.53379
-0.38683	0.32972
-0.18282	2.06425
-0.48884	1.27351
-0.08081	-3.64948
0.09770	-1.09871
0.78624	0.45726
0.93925	1.73265
0.76074	1.29902
-0.33583	-1.99148
-0.74385	2.08976
-0.10631	-1.20074
0.63323	-0.25695
0.78624	-0.05289
-0.20832	0.35523
-0.28482	0.86539
0.22521	1.42656
0.99026	0.83988
0.76074	-0.43551
-0.08081	-1.07320
-0.71835	-1.43031
-0.64185	-0.76711
-0.33583	-0.56305
0.04670	0.86539
0.93925	2.06425
0.27621	0.66132
0.53123	-1.30277
0.58223	-0.20594
0.32721	1.83468
-0.18282	0.12566
-0.41233	-1.58336
-0.25932	0.83988
0.42922	-0.20594
0.88825	-0.79262
0.73524	0.53379
0.09770	0.83988
-0.18282	0.38074
-0.15732	0.76336
-0.28482	-0.66508
-0.10631	-0.63957
0.27621	0.25320
1.21977	-0.30797
0.65874	-0.00188
0.40372	-0.07840
0.37822	0.27871
-0.31033	1.14597
-0.38683	0.76336
-0.71835	-0.56305
-0.71835	-0.94566
-0.05531	0.27871
0.58223	-0.89465
0.91375	0.86539
0.58223	0.50828
0.22521	0.30422
0.78624	1.32453
0.96476	0.81437
0.04670	0.55929
-0.46334	0.35523
-0.41233	-1.40480
-0.00431	-0.00188
-0.28482	-0.05289
-0.08081	0.20219
-0.00431	-0.28246
0.22521	0.45726
0.37822	-0.20594
0.53123	0.45726
0.53123	0.86539
0.25071	-1.04770
-0.25932	-0.71609
-0.02981	0.61031
-0.36133	0.66132
0.19971	0.63582
0.55673	0.73785
1.14327	-0.02739
1.04126	1.60511
0.60773	-0.20594
-0.25932	-2.09351
-0.76936	-0.02739
-0.89686	1.29902
-0.46334	-0.71609
-0.76936	-1.43031
-0.51434	1.12046
4.58599	-21.91303
6.32010	9.02787
2.90288	-1.58336
-1.55991	-3.34339
-4.33958	-2.62918
-4.62010	-2.78222
-4.16107	-0.86914
-3.03900	0.02363
-1.86593	0.45726
-0.46334	1.50308
1.32178	1.55410
3.23440	1.04394
4.96851	1.19699
4.68799	1.78367
2.77537	0.40625
0.68424	0.04914
-0.28482	-0.35899
-0.76936	-0.02739
-0.64185	-0.41000
-0.66735	-2.50164
-0.08081	0.15117
-0.15732	0.25320
-0.82036	1.04394
-1.15188	0.76336
-1.30489	1.35003
-0.69285	-0.30797
-0.94787	-1.14973
-0.92237	-1.30277
-0.59084	0.15117
0.32721	-1.14973
0.93925	-0.53754
1.34728	1.40105
0.04670	1.55410
-0.33583	1.19699
-0.00431	0.91640
0.32721	2.77847
0.35272	-1.17523
-0.31033	-3.49644
-0.23382	-0.15492
0.53123	0.48277
1.09226	1.09496
1.01576	0.91640
0.22521	1.06945
0.09770	0.02363
-0.00431	-1.09871
0.22521	-0.00188
0.07220	1.17148
-0.41233	-1.83844
0.02119	-0.20594
0.99026	1.37554
0.81175	-1.04770
-0.76936	-0.56305
-0.64185	0.96742
-0.64185	0.83988
-0.36133	1.06945
0.22521	0.63582
0.40372	-0.25695
0.02119	-0.18043
-0.18282	-1.02219
0.81175	0.10015
1.95932	1.83468
0.73524	0.66132
0.09770	-1.22625
-0.41233	-1.83844
-0.46334	1.19699
-0.13181	0.35523
-0.13181	0.22769
-0.38683	0.45726
-0.13181	0.53379
0.32721	0.89089
0.07220	1.14597
0.48022	-0.28246
0.55673	-1.78742
1.09226	-1.25176
0.45472	0.27871
0.40372	0.99292
-0.02981	1.98773
0.04670	0.43176
-0.48884	0.30422
-0.66735	-0.18043
-0.56534	-0.48652
-0.51434	0.83988
-0.48884	0.04914
0.55673	-0.99668
1.62780	0.81437
0.91375	0.55929
0.50573	-1.35379
-0.71835	0.04914
-0.18282	1.14597
-0.41233	0.45726
0.02119	-0.18043
0.60773	-0.10391
0.96476	0.99292
1.14327	0.02363
0.04670	-0.28246
-0.08081	-0.18043
-0.13181	-0.28246
0.19971	2.06425
-0.20832	-1.35379
-0.53984	-2.14453
-0.05531	0.68683
-0.18282	1.27351
-0.00431	1.45206
0.68424	1.04394
0.68424	0.20219
0.50573	-0.25695
0.19971	-0.18043
0.09770	0.07465
-0.41233	0.68683
-0.13181	1.75816
0.02119	-2.09351
0.37822	-2.50164
0.45472	0.32972
0.99026	1.04394
0.40372	0.63582
-0.02981	0.94191
-0.69285	0.66132
-0.33583	0.32972
-0.15732	0.53379
-0.18282	0.43176
-0.08081	-1.55785
0.73524	-0.76711
1.01576	0.20219
0.86275	1.04394
0.22521	0.55929
0.17421	0.32972
-0.38683	0.48277
-0.87136	0.32972
-0.51434	0.32972
-0.05531	-0.58856
0.55673	-0.71609
0.76074	0.04914
0.88825	1.42656
0.40372	0.63582
-0.05531	-1.30277
-0.02981	0.10015
-0.00431	0.76336
0.04670	0.10015
-0.13181	1.47757
-0.38683	4.74256
0.12320	-4.13413
0.32721	-6.37881
0.07220	0.43176
0.81175	1.73265
1.47479	3.08456
0.93925	0.71234
0.02119	-0.71609
-1.25389	1.09496
-1.12638	0.81437
-0.64185	0.73785
0.07220	0.53379
0.14870	0.10015
0.19971	-0.61406
0.70974	0.12566
1.01576	-1.55785
0.27621	-0.99668
0.09770	0.48277
0.17421	0.04914
-0.00431	0.12566
-0.18282	1.17148
0.07220	-0.58856
-0.38683	-0.92016
0.30171	1.17148
0.07220	0.83988
0.55673	-0.05289
1.34728	0.73785
2.03582	0.55929
0.60773	-0.43551
-1.07538	-0.38449
-1.45790	1.29902
-0.89686	-0.05289
-0.56534	0.55929
-0.20832	-0.76711
0.27621	-1.14973
0.30171	0.78886
0.65874	1.01843
0.99026	-0.97117
1.14327	-0.00188
0.14870	-0.02739
-0.18282	0.10015
-0.02981	0.83988
-0.25932	0.71234
-0.33583	0.45726
-0.02981	0.04914
0.53123	-0.05289
0.83725	0.58480
-0.23382	-0.46102
-0.38683	-0.84363
-0.02981	-0.46102
0.81175	-0.05289
0.32721	0.61031
0.42922	1.17148
-0.02981	0.55929
-0.28482	1.22250
-0.36133	-1.14973
-0.02981	-1.04770
0.42922	0.86539
-0.13181	0.22769
-0.28482	-0.10391
-0.36133	0.66132
0.35272	0.78886
1.32178	0.68683
1.04126	-0.94566
0.55673	-1.04770
-0.08081	0.07465
-0.51434	0.55929
-0.33583	1.04394
-0.23382	2.03874
0.27621	-0.92016
0.19971	-1.12422
0.35272	1.17148
0.30171	1.04394
0.12320	-3.13933
-0.13181	-1.14973
-0.00431	1.09496
-0.05531	1.60511
0.04670	1.22250
-0.02981	1.06945
0.40372	0.32972
0.93925	-0.76711
0.68424	-0.10391
0.12320	0.02363
-0.10631	-0.30797
-0.05531	0.48277
-0.02981	0.45726
0.07220	-1.17523
-0.08081	0.71234
0.04670	-0.12942
-0.18282	-0.15492
0.07220	0.17668
0.32721	-0.05289
0.55673	1.32453
0.68424	1.01843
0.53123	0.96742
0.07220	-1.12422
0.12320	-1.22625
-0.53984	1.04394
-0.08081	-0.05289
-0.18282	-0.58856
0.48022	0.73785
0.22521	1.63062
-0.05531	-0.33348
-0.15732	-1.14973
-0.15732	0.07465
0.19971	0.66132
1.01576	-0.33348
0.70974	0.07465
-0.20832	0.04914
-0.13181	2.16628
0.17421	-0.28246
0.19971	-2.55265
0.19971	0.81437
0.35272	0.20219
0.32721	0.25320
0.12320	1.68163
-0.20832	0.48277
-0.61635	-0.43551
-0.41233	-0.71609
0.14870	-0.25695
0.70974	0.89089
0.70974	0.96742
0.58223	-0.28246
0.65874	0.10015
0.35272	0.04914
-0.66735	0.27871
-0.13181	4.05386
-0.20832	-2.78222
0.25071	-4.56776
-0.05531	1.35003
-0.13181	0.27871
0.27621	2.59991
0.17421	0.38074
-0.13181	-1.22625
0.07220	0.20219
0.55673	0.86539
0.55673	0.81437
-0.05531	1.19699
-0.15732	-1.53234
-0.02981	-0.56305
0.27621	-0.00188
0.63323	0.50828
0.48022	0.40625
0.04670	0.20219
0.25071	0.15117
0.17421	-0.46102
0.07220	0.35523
-0.28482	-0.10391
-0.66735	0.17668
0.04670	0.35523
0.83725	-1.12422
0.93925	0.76336
0.09770	0.61031
0.19971	0.89089
0.07220	1.04394
-0.36133	-0.81812
-0.41233	-0.58856
-0.48884	0.58480
-0.48884	0.35523
0.19971	0.76336
0.35272	-0.38449
0.68424	-0.10391
0.32721	-0.66508
0.48022	-0.12942
0.96476	0.76336
0.68424	0.91640
0.17421	-0.58856
-0.28482	-0.35899
-0.02981	0.02363
-0.38683	0.35523
-0.28482	0.83988
-0.28482	0.35523
-0.13181	1.47757
0.58223	0.10015
0.65874	-2.57816
1.39828	-1.58336
1.06676	0.86539
-0.02981	0.83988
-0.61635	1.29902
-0.92237	0.76336
-1.07538	0.71234
-0.36133	0.66132
0.35272	-0.10391
0.68424	0.17668
0.96476	0.22769
0.78624	1.96222
0.12320	-2.34859
-0.13181	-3.47093
0.27621	0.35523
0.32721	0.63582
0.07220	0.83988
0.07220	0.89089
0.02119	1.04394
-0.18282	0.25320
-0.05531	0.43176
-0.10631	1.09496
-0.08081	0.76336
0.02119	-1.20074
0.42922	-0.89465
0.65874	0.43176
-0.31033	0.40625
-0.20832	-0.00188
0.48022	0.63582
0.58223	0.30422
0.81175	-0.23145
0.45472	0.73785
-0.36133	0.53379
-0.59084	-1.40480
0.04670	-0.12942
0.48022	0.45726
0.25071	-0.10391
-0.31033	0.66132
-0.46334	1.55410
-0.05531	1.42656
-0.10631	-1.32828
0.12320	-2.06800
0.35272	0.50828
0.17421	0.43176
-0.28482	1.17148
0.99026	1.63062
1.83181	-0.76711
1.42379	-0.12942
0.22521	0.22769
-0.61635	0.20219
-1.15188	1.42656
-1.20288	-0.41000
-0.15732	-2.29757
0.14870	-0.00188
0.40372	0.35523
0.22521	0.71234
0.07220	0.89089
0.37822	-0.30797
0.27621	-0.33348
0.35272	1.50308
0.45472	-0.30797
0.37822	-0.05289
0.55673	-1.09871
0.88825	-0.05289
0.50573	1.73265
-0.51434	0.07465
-0.25932	0.15117
-0.18282	-0.05289
-0.33583	0.25320
-0.43783	0.96742
-0.51434	0.55929
-0.02981	0.07465
0.83725	-0.18043
1.04126	-0.92016
0.88825	0.55929
0.12320	0.55929
-0.23382	-0.56305
0.27621	-0.20594
-0.00431	0.96742
0.22521	0.76336
0.68424	-0.46102
0.22521	1.55410
-0.53984	-2.65468
-0.56534	-1.14973
-0.13181	0.30422
-0.43783	0.96742
-0.59084	1.01843
0.02119	0.96742
0.27621	0.81437
1.93382	1.29902
2.67337	0.58480
2.16333	-0.35899
0.07220	-0.84363
-1.33039	-2.06800
-1.66191	0.83988
-1.43240	1.17148
-1.30489	0.12566
-0.69285	0.22769
0.12320	0.55929
0.65874	0.17668
0.78624	0.35523
0.93925	0.12566
0.58223	-0.15492
1.11776	-0.07840
0.37822	-0.18043
0.78624	0.17668
0.35272	-1.12422
-0.20832	0.78886
-0.46334	0.99292
-0.28482	0.86539
0.17421	-0.05289
0.45472	0.17668
-0.28482	-0.07840
-0.76936	0.17668
-0.56534	1.88570
-0.43783	-3.54745
0.27621	-1.91496
1.14327	0.53379
1.52579	0.94191
0.55673	1.22250
-0.05531	1.65613
0.09770	0.96742
-0.10631	0.02363
-1.27939	-1.07320
-1.22839	0.83988
-0.46334	1.37554
-0.02981	-1.09871
1.67880	-2.04250
1.72980	0.73785
1.29628	-0.76711
0.32721	1.47757
-0.28482	0.32972
-0.76936	-0.02739
-0.53984	1.60511
0.02119	-0.58856
-0.59084	-1.40480
-0.31033	-0.51203
0.53123	1.04394
1.06676	0.10015
0.35272	0.27871
0.40372	0.78886
0.55673	0.73785
0.19971	0.07465
-0.28482	-0.76711
-0.28482	-0.58856
-0.51434	0.12566
-0.25932	0.35523
0.30171	0.63582
1.21977	1.63062
0.73524	0.15117
-0.13181	-0.00188
-0.31033	-1.27726
-0.61635	-1.37929
-0.48884	0.40625
-0.02981	0.38074
0.73524	0.96742
0.45472	0.89089
0.86275	0.66132
-0.00431	-0.79262
-0.33583	-0.33348
-0.25932	0.94191
-0.18282	0.76336
0.19971	0.35523
0.58223	-1.22625
0.86275	-0.48652
1.09226	0.96742
0.14870	0.32972
-0.76936	0.96742
-0.13181	1.27351
0.09770	-2.22105
-0.20832	-2.47613
0.04670	1.27351
0.09770	0.27871
0.27621	0.73785
0.07220	1.06945
0.14870	0.91640
0.02119	0.71234
0.04670	0.25320
0.25071	0.53379
0.53123	-0.38449
0.60773	-0.30797
0.25071	-0.33348
0.12320	-1.30277
0.32721	0.17668
-0.36133	1.75816
-0.48884	-0.07840
-0.59084	-3.29238
-0.15732	0.99292
0.48022	3.03355
0.17421	-0.25695
0.37822	-1.53234
0.27621	0.94191
0.25071	1.37554
0.63323	-0.38449
0.50573	-1.65988
0.30171	0.83988
-0.20832	0.89089
0.07220	0.73785
0.70974	0.43176
0.53123	0.58480
-0.00431	0.81437
-0.46334	-1.60887
-0.48884	-0.79262
-0.41233	-0.00188
-0.31033	0.07465
-0.61635	0.32972
0.32721	0.15117
1.24527	-0.02739
1.34728	0.25320
0.35272	-0.05289
0.76074	0.55929
0.48022	0.63582
-0.94787	0.07465
-1.12638	0.27871
-0.46334	0.99292
0.19971	0.35523
0.12320	-0.92016
-0.23382	-0.58856
0.58223	-0.25695
0.81175	-2.47613
1.04126	0.99292
0.63323	2.03874
-0.18282	1.14597
-0.33583	1.50308
-0.31033	-0.56305
-0.10631	-0.18043
0.12320	-0.46102
0.22521	0.63582
0.37822	-0.71609
0.86275	-0.20594
0.37822	0.15117
0.27621	0.66132
-0.05531	-0.00188
0.02119	0.15117
-0.28482	0.40625
-0.23382	-0.28246
-0.15732	-0.43551
-0.05531	0.12566
0.09770	1.04394
-0.13181	2.14077
0.55673	-0.69059
1.44929	-3.08831
1.55129	-0.00188
-0.05531	1.06945
-0.87136	1.32453
-1.04987	1.63062
-0.99887	-1.65988
-0.05531	-1.04770
0.78624	2.08976
0.63323	1.57960
0.12320	-2.29757
0.32721	-2.01699
0.02119	0.91640
-0.02981	1.06945
-0.15732	1.24800
0.14870	0.76336
-0.23382	0.20219
0.42922	-0.05289
1.44929	0.17668
0.37822	0.10015
-0.00431	-0.53754
-0.10631	0.02363
-0.38683	-0.25695
0.27621	-0.41000
0.81175	-0.41000
0.35272	0.58480
-0.02981	0.63582
-0.43783	0.40625
-0.61635	0.32972
-0.25932	-0.20594
0.27621	-0.58856
0.50573	0.55929
0.25071	0.40625
-0.20832	0.55929
0.35272	0.99292
0.65874	0.63582
1.04126	-0.41000
0.02119	1.55410
-0.18282	-0.94566
-0.18282	-2.17003
0.09770	0.17668
0.25071	0.66132
0.14870	0.83988
0.25071	0.73785
0.14870	0.71234
0.14870	0.53379
-0.08081	-0.69059
-0.02981	1.17148
-0.02981	0.07465
-0.28482	-2.01699
-0.13181	-1.48133
0.88825	1.24800
0.76074	1.17148
0.50573	-0.53754
0.27621	1.75816
-0.05531	1.04394
0.07220	-0.48652
-0.33583	-0.35899
0.12320	0.61031
0.09770	-0.18043
-0.48884	0.12566
-0.51434	0.38074
-0.00431	0.17668
1.24527	-0.07840
1.24527	0.61031
0.45472	-0.25695
-0.48884	-0.46102
-0.74385	0.61031
-0.38683	-0.66508
0.25071	-0.00188
0.65874	0.50828
0.42922	0.38074
0.27621	0.86539
1.01576	0.27871
-0.08081	-0.35899
-0.36133	0.22769
-0.33583	0.25320
-0.00431	0.20219
0.02119	-0.20594
-0.08081	-0.05289
0.32721	0.38074
1.04126	0.12566
0.96476	0.50828
0.50573	0.94191
-0.15732	-1.99148
-0.59084	-0.38449
-0.43783	0.43176
-0.43783	0.58480
-0.51434	1.12046
0.02119	0.20219
0.53123	0.12566
0.91375	0.02363
1.44929	-0.15492
1.60230	0.96742
-0.10631	1.01843
-1.38139	-0.86914
-1.50890	-1.65988
-0.76936	0.02363
0.12320	-0.28246
1.27078	1.22250
1.06676	0.76336
1.04126	0.02363
0.40372	1.14597
0.19971	1.83468
-0.87136	-0.97117
-1.48340	-1.63437
-1.07538	1.96222
0.86275	-1.12422
1.29628	-1.12422
1.85731	0.50828
0.32721	-0.10391
0.22521	-1.17523
-0.46334	2.29382
-0.31033	0.96742
-0.13181	-0.28246
0.32721	0.94191
-0.53984	0.99292
-0.41233	0.43176
0.30171	0.45726
0.63323	-0.56305
0.19971	-0.56305
0.32721	0.15117
0.17421	-0.38449
0.76074	-0.43551
0.93925	1.50308
0.78624	-1.07320
-0.15732	-0.69059
-0.69285	0.32972
-0.38683	0.71234
-0.64185	0.30422
-0.43783	0.55929
-0.61635	0.48277
0.32721	2.08976
1.47479	-1.02219
2.03582	-3.11382
0.93925	1.06945
-0.28482	0.78886
-0.43783	0.04914
-0.53984	0.58480
-0.61635	0.78886
-0.05531	0.81437
-0.33583	0.53379
0.37822	1.93671
0.53123	-0.20594
0.83725	-2.98628
-0.20832	-1.22625
-0.51434	-0.28246
-0.02981	0.94191
0.07220	0.10015
0.88825	0.83988
1.19427	0.58480
0.83725	1.80917
0.17421	0.25320
-0.43783	-0.86914
-0.66735	-0.38449
-0.38683	-0.25695
-0.36133	0.10015
0.35272	1.60511
0.73524	-0.18043
0.96476	-1.68539
0.14870	0.48277
-0.43783	1.17148
-0.33583	0.86539
-0.59084	-0.84363
-0.28482	0.20219
0.22521	-1.58336
0.76074	0.02363
0.53123	0.94191
0.37822	1.06945
0.58223	1.65613
0.22521	0.55929
0.07220	-1.55785
-0.00431	0.55929
-0.61635	0.48277
-0.25932	-1.37929
0.42922	0.15117
1.11776	0.53379
-0.05531	-0.18043
0.04670	1.47757
0.07220	0.02363
0.30171	-1.55785
0.07220	0.61031
-0.33583	0.25320
0.25071	0.76336
0.12320	0.71234
0.22521	-0.58856
-0.00431	-0.89465
0.30171	0.83988
-0.13181	0.10015
0.04670	-0.23145
0.14870	0.27871
0.63323	0.78886
0.40372	0.45726
0.17421	0.25320
-0.36133	0.22769
-0.05531	1.60511
0.19971	-1.48133
0.19971	-1.09871
0.25071	0.32972
0.22521	-0.38449
0.25071	0.76336
0.25071	0.83988
0.22521	1.68163
-0.18282	0.17668
0.07220	-0.86914
0.42922	-0.61406
-0.10631	-2.19554
-0.15732	0.35523
0.09770	0.99292
0.09770	0.73785
0.09770	1.19699
0.17421	0.99292
0.09770	1.04394
0.17421	-0.53754
0.22521	-0.58856
0.27621	0.04914
0.02119	0.12566
0.30171	0.15117
0.27621	0.73785
0.32721	-0.33348
-0.48884	-0.61406
0.32721	0.25320
0.02119	-0.66508
0.12320	0.35523
0.32721	0.61031
0.53123	0.61031
0.30171	-0.33348
-0.46334	-0.61406
-0.05531	0.83988
-0.05531	0.71234
-0.23382	0.32972
0.70974	-0.28246
0.99026	-0.97117
0.58223	1.86019
0.25071	0.99292
-0.46334	-0.23145
-0.87136	-0.30797
-0.92237	-1.07320
-0.05531	0.71234
0.48022	0.71234
0.48022	0.61031
0.91375	0.32972
1.80631	0.15117
0.78624	0.15117
-0.61635	-0.35899
-0.79486	-0.38449
-0.31033	-0.23145
-0.00431	0.10015
0.25071	0.12566
0.17421	0.25320
0.12320	0.66132
0.30171	0.35523
-0.05531	-0.69059
-0.28482	0.04914
0.07220	-0.38449
0.32721	0.45726
0.55673	-0.05289
0.53123	-0.43551
0.68424	1.14597
0.60773	2.21730
-0.13181	-0.35899
-0.38683	0.04914
-0.25932	0.89089
-0.13181	-0.35899
0.04670	-0.15492
0.55673	0.10015
-0.00431	0.50828
-0.31033	1.24800
0.02119	0.22769
0.12320	-2.57816
0.19971	-0.20594
0.35272	0.86539
0.27621	0.10015
0.35272	0.25320
0.17421	0.32972
0.12320	0.07465
0.27621	0.32972
0.27621	0.17668
0.09770	1.70714
0.40372	-1.14973
0.30171	-1.07320
0.30171	0.94191
-0.15732	-0.02739
0.07220	-0.10391
-0.38683	0.91640
-0.46334	-0.30797
0.25071	-0.58856
-0.08081	0.55929
-0.66735	0.50828
0.22521	1.22250
0.91375	0.71234
0.76074	0.02363
0.22521	-1.04770
-0.10631	-0.79262
0.09770	0.81437
0.25071	0.38074
0.07220	0.83988
-0.13181	0.12566
0.25071	-0.99668
0.27621	-0.35899
0.27621	-0.28246
0.30171	0.45726
-0.00431	1.22250
0.14870	0.32972
0.27621	-0.69059
0.17421	0.30422
-0.13181	0.30422
-0.08081	0.38074
0.02119	0.61031
0.07220	0.30422
-0.25932	0.15117
0.25071	-0.12942
0.70974	0.45726
0.88825	0.10015
0.68424	-0.15492
-0.28482	0.43176
-0.15732	-0.86914
-0.13181	-2.29757
-0.10631	-0.79262
-0.36133	1.27351
-0.25932	0.94191
0.37822	1.17148
0.96476	2.37034
0.04670	1.17148
-0.00431	-1.40480
-0.31033	-0.56305
-0.05531	0.12566
0.30171	0.48277
0.07220	0.15117
0.22521	0.35523
0.45472	0.61031
0.48022	0.45726
0.32721	-1.68539
-0.00431	0.22769
0.09770	0.30422
0.04670	0.10015
-0.43783	-0.05289
-0.41233	0.22769
0.65874	0.27871
1.65330	0.43176
0.63323	1.14597
0.04670	-0.48652
-0.25932	-0.51203
0.09770	-0.28246
-0.31033	-0.07840
-0.00431	0.68683
-0.28482	1.55410
-0.69285	-0.56305
0.09770	-0.15492
1.29628	-0.38449
1.04126	0.10015
-0.59084	1.04394
-0.64185	1.14597
-0.20832	-1.37929
0.50573	-1.43031
0.93925	0.91640
-0.10631	0.66132
-0.20832	0.94191
0.60773	-0.25695
-0.51434	0.07465
-0.25932	-0.30797
1.04126	1.22250
1.24527	-1.14973
0.55673	0.02363
0.42922	0.30422
-0.02981	0.45726
-0.02981	0.61031
-0.15732	0.48277
-0.20832	0.25320
-0.36133	-0.56305
-0.43783	-0.69059
-0.18282	0.71234
0.17421	-0.25695
0.37822	-0.38449
0.60773	0.20219
0.25071	0.30422
0.12320	0.58480
0.25071	0.45726
0.81175	0.20219
0.37822	0.71234
-0.00431	0.17668
-0.18282	-0.66508
-0.41233	-0.56305
-0.10631	0.86539
-0.13181	1.14597
-0.23382	-0.51203
-0.05531	-1.48133
1.24527	0.53379
1.01576	0.40625
0.65874	0.96742
0.37822	-0.66508
-0.79486	-0.00188
-0.69285	1.04394
-0.53984	-0.18043
-0.41233	-0.07840
0.50573	0.12566
0.88825	0.22769
0.83725	0.53379
0.22521	0.83988
-0.15732	-1.14973
-0.25932	0.22769
0.17421	0.27871
0.04670	0.32972
0.22521	-0.28246
0.32721	-0.23145
0.09770	0.20219
0.35272	0.96742
0.42922	-0.66508
0.93925	0.10015
0.42922	1.73265
-0.41233	-2.29757
-0.59084	-0.92016
-0.41233	0.89089
-0.15732	1.37554
-0.28482	1.55410
0.12320	-0.51203
0.22521	-0.25695
0.25071	0.50828
0.25071	0.10015
-0.02981	0.45726
0.32721	0.53379
0.93925	0.02363
0.78624	0.43176
0.88825	-0.66508
-0.08081	-0.43551
-0.41233	0.04914
-0.69285	0.17668
-0.41233	0.32972
0.37822	1.37554
0.22521	-0.58856
0.22521	-1.78742
0.22521	0.35523
-0.05531	-0.15492
0.17421	0.86539
0.09770	0.78886
0.14870	-0.05289
0.37822	0.76336
0.73524	0.50828
0.45472	0.48277
0.14870	0.38074
-0.38683	-0.71609
-0.13181	-0.63957
0.17421	0.15117
0.27621	-0.23145
0.27621	-0.28246
0.37822	0.55929
-0.15732	0.04914
-0.33583	1.50308
-0.15732	0.66132
-0.15732	-0.38449
-0.56534	-0.12942
-0.05531	0.58480
0.32721	-0.92016
1.34728	-1.02219
1.52579	0.48277
1.62780	0.61031
-0.08081	0.68683
-0.92237	0.43176
-1.15188	0.02363
-1.10088	0.20219
-0.89686	-0.35899
0.35272	-1.17523
0.68424	-0.51203
1.27078	0.83988
1.95932	0.99292
1.14327	0.91640
-0.15732	0.40625
-0.89686	0.55929
-0.71835	-0.58856
-0.43783	-1.30277
0.30171	0.20219
-0.00431	-1.04770
0.35272	1.45206
0.63323	0.43176
1.27078	0.02363
0.48022	0.55929
-0.64185	0.99292
-0.74385	-0.23145
-0.28482	-0.56305
0.09770	-0.15492
0.40372	-0.07840
0.58223	0.48277
0.35272	0.20219
0.22521	0.48277
0.14870	0.45726
-0.02981	0.45726
0.17421	0.76336
0.27621	-0.12942
0.04670	-1.48133
0.32721	0.25320
0.65874	0.53379
0.86275	0.38074
0.04670	0.53379
-0.74385	0.02363
-0.64185	1.01843
0.07220	0.07465
0.12320	-0.76711
0.09770	-0.99668
0.17421	-0.23145
0.83725	1.01843
-0.05531	0.38074
-0.08081	1.96222
-0.31033	-0.46102
0.12320	-0.25695
0.32721	0.35523
0.12320	-0.81812
0.14870	-0.89465
0.78624	0.45726
0.93925	0.86539
0.68424	0.86539
-0.08081	0.45726
-0.18282	0.50828
-0.05531	0.32972
-0.15732	0.45726
0.09770	-0.07840
0.17421	-2.39961
-0.18282	0.15117
-0.18282	-0.20594
0.48022	0.61031
0.25071	0.12566
-0.02981	-0.00188
0.42922	0.94191
0.27621	0.86539
0.19971	0.50828
-0.33583	-0.74160
-0.02981	-1.43031
0.78624	0.73785
0.83725	0.66132
0.58223	0.50828
0.60773	0.15117
-0.38683	0.15117
-0.71835	0.32972
-1.02437	-0.00188
-0.51434	0.71234
0.14870	-0.71609
0.37822	-1.27726
0.25071	-0.51203
0.27621	0.71234
0.32721	0.50828
0.50573	0.15117
0.65874	0.76336
0.48022	0.86539
0.42922	0.10015
0.09770	-0.05289
-0.02981	1.29902
-0.08081	-0.46102
0.22521	0.27871
-0.00431	-0.35899
-0.05531	-3.03730
0.32721	0.94191
0.09770	1.37554
0.17421	0.38074
0.70974	0.81437
0.88825	1.06945
-0.53984	0.86539
-0.51434	1.37554
-0.59084	-1.73640
-0.33583	-1.58336
-0.02981	-0.35899
-0.05531	0.20219
-0.05531	0.50828
0.35272	0.86539
1.42379	0.20219
1.85731	0.38074
0.96476	0.68683
-0.28482	-0.69059
-0.56534	-0.15492
-0.61635	-0.10391
-0.31033	0.17668
-0.48884	0.22769
-0.48884	0.78886
-0.20832	0.30422
0.12320	-0.35899
0.58223	0.35523
0.88825	0.15117
0.93925	0.89089
0.22521	0.17668
-0.15732	0.27871
0.22521	0.30422
0.37822	-1.09871
0.14870	0.40625
0.07220	-1.55785
-0.28482	-0.63957
-0.25932	0.99292
-0.10631	0.73785
-0.15732	1.22250
0.02119	0.71234
0.12320	0.68683
0.19971	0.86539
0.53123	-0.46102
0.55673	-1.12422
0.32721	0.91640
0.02119	-0.35899
0.02119	-0.66508
0.25071	0.35523
0.14870	0.96742
0.02119	0.30422
0.48022	-1.96597
0.68424	0.15117
0.19971	0.96742
-0.53984	0.27871
-0.15732	-0.12942
-0.15732	0.43176
-0.05531	0.66132
-0.08081	0.76336
0.55673	0.10015
0.27621	0.99292
-0.15732	-0.63957
0.48022	-0.12942
0.12320	-0.41000
-0.02981	-0.38449
0.17421	0.17668
0.17421	-0.89465
0.22521	0.58480
0.09770	1.63062
-0.23382	0.04914
-0.08081	-0.00188
0.02119	0.53379
0.55673	0.50828
0.83725	-0.12942
1.01576	-0.10391
0.81175	-0.10391
-0.10631	0.40625
-0.02981	0.12566
-0.20832	0.27871
-0.46334	0.76336
-0.79486	-0.76711
-0.46334	-0.97117
0.04670	0.15117
0.32721	0.40625
0.50573	0.10015
0.50573	0.48277
0.78624	0.38074
0.40372	0.02363
-0.08081	0.40625
-0.15732	0.81437
-0.38683	0.15117
-0.20832	-0.69059
-0.02981	0.45726
0.78624	0.12566
0.86275	0.10015
1.16877	0.04914
0.58223	0.53379
-0.20832	0.35523
-0.64185	0.68683
-0.79486	-0.74160
-1.12638	-1.12422
-0.23382	0.45726
0.50573	0.53379
1.29628	0.94191
0.81175	0.61031
-0.00431	0.45726
-0.28482	0.71234
-0.23382	0.35523
0.25071	-1.68539
0.22521	-0.94566
0.04670	0.15117
0.22521	0.35523
0.40372	0.96742
0.70974	0.66132
0.27621	0.86539
0.12320	0.48277
0.14870	-0.02739
0.02119	-0.41000
-0.31033	0.38074
-0.41233	-0.58856
-0.10631	-0.86914
0.17421	0.94191
0.55673	-0.63957
0.37822	0.43176
0.12320	1.52859
0.60773	1.42656
0.07220	-0.97117
-0.41233	-1.45582
0.35272	1.32453
0.88825	1.09496
0.81175	-0.76711
0.02119	-0.51203
0.12320	0.30422
-0.28482	0.55929
-0.79486	-0.05289
-0.64185	-0.33348
-0.00431	1.75816
-0.00431	-1.22625
0.30171	-1.76191
0.17421	-0.25695
-0.08081	0.81437
0.35272	0.76336
1.19427	1.32453
0.81175	-0.53754
0.93925	-0.58856
0.68424	0.35523
0.45472	1.42656
-0.38683	-0.38449
-0.89686	0.02363
-0.61635	0.61031
-0.53984	-0.07840
-0.36133	0.32972
0.32721	0.20219
0.25071	-0.18043
0.17421	1.55410
0.02119	-0.53754
0.93925	-1.40480
1.60230	0.55929
0.78624	0.04914
-0.00431	0.58480
-0.84586	-0.07840
-0.43783	0.17668
-0.23382	0.32972
-0.36133	-0.07840
-0.28482	0.78886
0.32721	0.22769
0.55673	-0.61406
0.91375	-0.18043
0.63323	0.02363
0.76074	0.35523
0.07220	-0.18043
-0.28482	0.38074
-0.66735	0.63582
-0.48884	0.73785
-0.02981	0.35523
0.27621	1.83468
0.58223	-0.84363
0.17421	-2.47613
0.12320	0.35523
0.40372	0.48277
0.09770	0.81437
0.12320	0.94191
0.32721	0.40625
0.32721	-0.15492
0.25071	-0.63957
0.22521	0.02363
-0.18282	0.45726
0.02119	0.81437
0.32721	0.68683
0.70974	-0.18043
0.58223	-0.38449
0.48022	-0.66508
0.02119	0.63582
-0.74385	0.50828
-1.27939	0.66132
-0.82036	0.32972
-0.08081	-0.89465
0.76074	-0.25695
0.78624	-0.12942
0.76074	0.50828
-0.25932	0.96742
-0.13181	1.01843
0.19971	-0.58856
0.27621	-1.04770
0.50573	-0.33348
0.53123	0.68683
0.55673	0.07465
-0.13181	0.25320
0.27621	1.04394
0.60773	0.43176
0.45472	0.40625
-0.25932	0.10015
-0.25932	-0.18043
-0.05531	0.20219
-0.28482	-0.00188
-0.20832	-0.33348
0.02119	-0.15492
0.04670	0.17668
0.25071	0.25320
0.22521	-0.10391
0.25071	-0.38449
0.48022	0.58480
0.42922	0.78886
0.27621	-0.15492
0.17421	0.38074
0.22521	-0.05289
0.32721	-0.66508
-0.10631	0.86539
-0.08081	0.17668
-0.13181	-0.56305
0.22521	0.55929
0.30171	0.07465
0.09770	1.14597
0.37822	0.66132
0.53123	-0.10391
0.35272	0.68683
-0.41233	-0.10391
-0.18282	-0.71609
-0.36133	0.55929
-0.00431	0.63582
-0.02981	-0.53754
-0.08081	-1.22625
0.27621	0.12566
0.68424	0.15117
0.68424	0.83988
0.70974	0.68683
0.25071	0.89089
-0.10631	0.96742
0.07220	-1.37929
0.14870	-0.94566
0.12320	0.66132
0.09770	2.14077
0.22521	-0.84363
-0.08081	-1.12422
0.07220	1.42656
-0.00431	0.73785
-0.38683	-1.22625
-0.05531	-0.07840
0.50573	-0.07840
0.68424	0.68683
0.02119	0.58480
0.25071	0.68683
0.30171	0.50828
0.17421	0.45726
-0.10631	0.32972
-0.18282	-0.05289
-0.00431	0.10015
0.25071	-0.99668
0.32721	-0.76711
0.14870	0.02363
0.53123	0.43176
0.07220	0.83988
0.09770	0.66132
-0.23382	-0.35899
-0.25932	0.20219
0.50573	0.45726
1.52579	0.50828
1.32178	1.14597
-0.28482	-1.94047
-0.71835	-0.84363
-1.43240	0.45726
-0.66735	1.27351
0.07220	0.48277
0.70974	0.22769
1.01576	0.58480
0.40372	-0.35899
0.78624	-0.99668
0.02119	0.68683
0.17421	1.27351
-0.13181	-0.25695
0.09770	-0.51203
-0.10631	-0.10391
0.17421	0.25320
0.02119	0.25320
0.12320	0.04914
0.02119	-0.33348
0.04670	1.06945
0.12320	0.38074
-0.10631	-0.43551
-0.10631	0.25320
-0.00431	0.35523
0.93925	0.50828
1.60230	0.35523
0.70974	0.30422
-0.59084	0.50828
-0.33583	-0.48652
-0.28482	-0.05289
0.42922	0.02363
0.02119	0.20219
0.22521	-0.58856
-0.31033	-0.15492
-0.79486	-0.05289
-0.41233	1.06945
-0.28482	0.66132
0.32721	-0.23145
0.68424	0.91640
0.50573	-1.71090
0.78624	-0.48652
1.09226	0.96742
1.04126	1.09496
-0.15732	0.53379
-0.48884	0.58480
-0.38683	0.68683
-0.08081	0.40625
-0.02981	-0.66508
0.02119	0.48277
-0.10631	-1.27726
0.09770	-0.66508
0.70974	0.30422
0.30171	1.09496
-0.18282	0.91640
-0.33583	0.15117
0.17421	0.12566
0.30171	-0.53754
0.19971	-1.02219
-0.25932	0.68683
0.25071	0.22769
1.14327	1.17148
1.04126	0.89089
0.45472	0.22769
-0.00431	0.20219
-0.31033	0.25320
-0.69285	0.55929
-0.87136	-0.28246
-0.92237	-0.66508
-0.48884	0.12566
1.01576	0.20219
1.34728	-1.30277
1.01576	-0.53754
-0.00431	0.38074
-0.25932	0.55929
0.22521	1.17148
0.30171	0.50828
0.09770	0.58480
-0.18282	1.27351
-0.02981	-2.45062
0.42922	-0.92016
0.17421	0.30422
0.37822	1.17148
0.25071	0.94191
-0.00431	0.25320
0.19971	0.55929
0.12320	0.43176
0.22521	0.35523
0.04670	0.63582
-0.25932	-0.46102
-0.05531	-0.46102
0.19971	-1.14973
-0.23382	-0.20594
0.22521	-0.25695
0.55673	0.63582
0.53123	0.50828
-0.36133	0.55929
0.02119	0.58480
0.63323	0.63582
0.78624	0.17668
0.12320	0.32972
-0.43783	-0.07840
0.19971	-1.83844
0.19971	0.07465
-0.13181	1.52859
-0.41233	0.20219
-0.23382	0.71234
-0.05531	0.17668
0.14870	-0.23145
0.32721	1.37554
0.37822	2.57441
0.32721	-2.68019
0.42922	-2.57816
0.60773	-0.18043
1.04126	0.76336
0.37822	1.35003
-0.41233	1.42656
-0.59084	-0.76711
-0.38683	0.20219
-0.10631	-0.43551
-0.08081	0.63582
0.45472	1.12046
1.06676	-1.40480
0.68424	-0.05289
0.02119	-1.45582
-0.74385	0.10015
-0.38683	2.21730
-0.05531	0.91640
0.22521	1.22250
0.53123	0.50828
0.17421	-0.66508
-0.10631	-0.89465
-0.08081	-0.00188
0.27621	0.43176
0.37822	1.14597
0.19971	-0.61406
0.25071	-0.25695
-0.08081	0.35523
0.14870	0.66132
0.45472	0.55929
0.73524	-2.17003
0.30171	0.40625
0.09770	0.25320
-0.10631	0.55929
-0.25932	1.37554
0.04670	-0.02739
0.27621	-0.58856
-0.00431	1.47757
-0.10631	-0.63957
0.30171	-0.66508
0.07220	0.83988
0.37822	0.32972
-0.00431	-0.43551
0.14870	-0.56305
0.04670	-0.61406
-0.08081	2.08976
-0.08081	-0.66508
0.14870	-0.38449
0.65874	1.24800
0.50573	0.45726
0.02119	0.89089
0.78624	0.38074
0.42922	0.04914
0.53123	-0.84363
-0.08081	0.17668
-0.23382	0.30422
-0.38683	-0.10391
-0.84586	0.10015
-0.28482	0.40625
0.12320	0.02363
-0.00431	-0.38449
0.14870	-0.35899
0.32721	-0.15492
0.19971	-0.10391
0.17421	-0.02739
0.40372	-0.07840
0.88825	2.01323
0.42922	0.89089
0.50573	1.29902
0.25071	-4.13413
0.17421	-1.78742
-0.08081	1.50308
0.09770	1.75816
0.17421	0.30422
-0.43783	0.76336
-0.79486	1.70714
-0.61635	0.22769
-0.13181	-1.14973
0.73524	0.25320
0.58223	0.15117
0.55673	0.25320
0.70974	0.02363
0.53123	-0.07840
-0.23382	-0.56305
