0.22521	0.22769
0.07220	0.10015
0.22521	0.22769
0.17421	0.15117
0.12320	0.12566
0.07220	0.15117
-0.00431	-0.00188
0.12320	0.15117
0.12320	0.12566
0.25071	0.17668
0.25071	0.25320
0.12320	0.12566
0.25071	0.25320
0.14870	0.15117
0.09770	0.07465
0.12320	0.17668
-0.05531	0.04914
0.02119	0.10015
0.12320	0.15117
0.27621	0.12566
0.22521	0.25320
0.12320	0.02363
0.17421	0.55929
0.19971	0.12566
0.07220	-0.10391
0.12320	-0.10391
0.12320	0.15117
-0.08081	0.20219
0.12320	0.17668
0.32721	0.25320
0.19971	0.10015
0.09770	0.07465
0.19971	0.17668
0.19971	0.20219
0.14870	0.15117
0.07220	0.07465
-0.02981	0.07465
0.02119	0.15117
0.14870	0.27871
0.37822	0.17668
0.09770	0.12566
0.17421	0.12566
0.19971	0.17668
0.14870	0.04914
0.07220	0.10015
0.07220	0.17668
0.09770	0.04914
-0.00431	0.04914
0.12320	0.20219
0.37822	0.30422
0.27621	0.15117
0.22521	0.12566
0.22521	0.17668
0.12320	0.10015
0.02119	-0.00188
0.02119	0.02363
0.07220	0.12566
0.02119	0.04914
0.04670	0.15117
0.40372	0.27871
0.22521	0.22769
0.17421	0.12566
0.17421	0.25320
0.17421	0.12566
0.07220	0.15117
0.04670	0.12566
0.09770	0.04914
0.07220	0.45726
0.09770	0.07465
0.27621	0.12566
0.27621	0.20219
0.19971	0.04914
0.14870	0.15117
0.22521	0.17668
0.07220	0.02363
0.02119	0.04914
0.04670	0.20219
0.07220	0.17668
0.07220	0.17668
0.32721	0.17668
0.22521	0.10015
0.22521	0.12566
0.25071	0.12566
0.12320	0.15117
0.12320	0.17668
0.02119	0.10015
0.02119	0.12566
0.07220	0.10015
0.04670	0.17668
0.30171	0.25320
0.25071	0.15117
0.25071	0.07465
0.27621	0.25320
0.12320	0.07465
0.12320	0.10015
0.07220	0.12566
-0.00431	0.07465
0.12320	0.15117
0.14870	0.17668
0.19971	0.04914
0.27621	0.30422
0.22521	0.17668
0.12320	0.04914
0.22521	0.17668
0.12320	0.15117
0.07220	0.10015
0.04670	0.12566
-0.08081	0.02363
0.07220	0.12566
0.30171	0.20219
0.14870	0.12566
0.22521	0.25320
0.17421	0.15117
0.09770	0.04914
0.12320	0.07465
0.12320	0.10015
-0.08081	0.04914
-0.02981	0.15117
0.22521	0.30422
0.53123	0.15117
0.30171	0.10015
0.42922	0.20219
0.12320	0.20219
-0.05531	0.12566
-0.18282	0.10015
-0.08081	0.15117
-0.02981	0.07465
0.02119	0.04914
0.14870	0.25320
0.40372	0.25320
0.22521	0.15117
0.22521	0.17668
0.32721	0.12566
0.09770	0.04914
0.09770	0.15117
0.14870	0.10015
0.04670	0.12566
0.04670	0.20219
0.17421	0.10015
0.27621	0.17668
0.30171	-0.05289
0.09770	0.38074
0.09770	0.25320
0.17421	0.17668
0.12320	0.12566
-0.00431	0.20219
0.07220	0.02363
-0.02981	-0.18043
0.09770	-0.15492
0.32721	0.25320
0.27621	0.30422
0.17421	0.22769
0.19971	0.50828
0.14870	0.30422
-0.00431	0.15117
0.12320	-0.00188
-0.00431	0.10015
-0.05531	0.04914
0.12320	0.07465
0.42922	0.20219
0.35272	0.17668
0.17421	0.17668
0.25071	0.10015
0.14870	0.15117
-0.10631	0.04914
0.09770	0.15117
0.04670	0.04914
0.14870	0.17668
0.35272	0.07465
0.17421	0.12566
0.32721	0.35523
0.09770	0.20219
-0.00431	0.15117
0.12320	0.17668
0.32721	0.04914
-0.02981	0.15117
0.17421	0.12566
-0.10631	0.04914
0.04670	0.15117
0.25071	0.10015
0.53123	0.25320
0.35272	0.25320
0.02119	0.04914
0.02119	0.12566
-0.10631	-0.00188
-0.05531	0.15117
0.02119	0.22769
-0.02981	-0.02739
0.42922	-0.05289
0.73524	0.38074
0.48022	0.25320
0.17421	0.32972
-0.08081	0.40625
-0.05531	0.04914
0.02119	-0.25695
-0.10631	-0.20594
-0.08081	0.04914
-0.05531	0.20219
0.53123	0.35523
0.22521	0.12566
0.32721	0.32972
0.02119	0.20219
-0.13181	0.17668
0.04670	0.12566
0.17421	0.07465
0.32721	0.45726
0.12320	0.15117
-0.08081	-0.46102
0.19971	-0.81812
0.42922	0.12566
0.25071	0.22769
0.17421	0.99292
0.25071	0.76336
-0.02981	0.15117
0.22521	-0.23145
0.02119	0.22769
-0.20832	0.43176
-0.33583	0.04914
-0.00431	-0.28246
0.55673	0.04914
0.76074	-0.07840
0.53123	0.38074
0.19971	0.48277
0.09770	0.53379
-0.05531	0.12566
-0.51434	-0.02739
-0.13181	-0.35899
-0.46334	-0.46102
0.32721	0.22769
0.48022	0.55929
0.53123	0.81437
0.35272	0.17668
0.30171	-0.63957
-0.15732	-0.35899
0.02119	0.07465
0.50573	0.20219
0.50573	0.83988
0.37822	1.04394
-0.00431	1.04394
-0.23382	0.15117
-0.08081	-0.46102
0.19971	-0.33348
-0.20832	-0.46102
-0.00431	0.30422
0.32721	-0.18043
0.48022	0.68683
0.35272	0.53379
0.60773	-1.40480
-0.10631	-1.45582
0.17421	0.61031
0.14870	0.96742
0.12320	0.86539
-0.18282	1.47757
-0.08081	1.17148
-0.33583	-0.66508
-0.02981	-0.05289
0.27621	-0.41000
0.09770	0.04914
0.37822	-0.33348
1.06676	-1.07320
0.60773	-0.05289
-0.15732	0.58480
-0.48884	0.40625
-0.10631	0.63582
-0.23382	0.38074
0.25071	0.04914
0.27621	0.15117
-0.05531	0.25320
0.12320	-0.05289
0.73524	0.35523
0.68424	0.12566
0.55673	0.02363
0.09770	0.12566
-0.46334	0.07465
-0.28482	-0.30797
0.02119	0.15117
-0.05531	-0.30797
0.12320	-0.48652
-0.13181	-0.00188
-0.02981	0.22769
0.35272	0.91640
0.09770	0.76336
0.55673	0.76336
1.06676	0.50828
0.73524	0.25320
-0.02981	0.32972
-0.61635	-0.00188
0.04670	-0.35899
-0.13181	-0.18043
0.04670	-0.05289
0.17421	0.86539
-0.23382	-0.63957
0.27621	-1.17523
-0.08081	0.27871
-0.02981	0.53379
-0.02981	0.58480
0.19971	0.22769
0.42922	0.35523
0.27621	0.38074
0.40372	0.38074
0.27621	1.37554
0.73524	0.35523
1.11776	-0.92016
-0.43783	-1.71090
-0.61635	0.04914
-0.61635	0.63582
-0.82036	0.76336
-0.05531	0.53379
0.45472	-0.05289
0.88825	1.52859
0.55673	-0.23145
0.12320	-2.32308
0.14870	-0.33348
-0.20832	0.96742
-0.10631	0.76336
0.22521	0.20219
0.19971	-0.18043
0.96476	0.94191
0.93925	0.48277
0.76074	0.61031
-0.69285	-0.15492
-0.89686	-0.86914
-1.35589	0.25320
-0.43783	0.89089
-0.28482	0.73785
0.22521	0.27871
0.53123	-0.15492
0.76074	-1.53234
0.88825	-0.23145
0.93925	1.37554
0.70974	0.10015
0.30171	-0.43551
-0.20832	-0.58856
-0.41233	0.96742
-0.53984	0.17668
-0.10631	0.27871
0.27621	0.81437
1.24527	1.42656
-0.05531	0.12566
-0.46334	-0.00188
-0.20832	-1.88945
0.70974	-2.06800
0.81175	0.30422
0.09770	0.73785
-0.18282	1.80917
-0.20832	1.42656
-0.48884	0.96742
-0.61635	-0.48652
0.48022	-0.38449
1.90832	-0.10391
0.70974	-0.00188
-0.20832	0.99292
0.02119	0.12566
0.02119	-0.25695
-0.36133	1.17148
-0.33583	-1.68539
-0.31033	-2.37410
0.70974	-0.35899
1.06676	1.12046
1.04126	1.42656
-0.33583	-0.46102
0.14870	0.45726
0.02119	1.32453
-0.33583	0.71234
-0.79486	0.15117
-0.28482	2.42136
-0.15732	-1.17523
1.14327	-2.85874
0.99026	-0.97117
0.55673	-0.20594
0.12320	0.99292
0.40372	1.35003
0.19971	1.01843
0.12320	1.40105
-0.31033	1.17148
-0.38683	-1.43031
-0.25932	-2.06800
0.58223	0.35523
0.70974	1.35003
0.55673	0.10015
-0.20832	0.43176
-0.53984	0.45726
-0.28482	0.68683
-0.38683	0.50828
0.42922	0.35523
0.78624	-0.23145
0.63323	0.35523
-0.25932	-0.28246
0.37822	-0.46102
0.25071	0.78886
0.02119	0.27871
0.35272	-1.17523
0.30171	0.25320
0.09770	-0.51203
-0.13181	-1.30277
-0.36133	0.91640
-0.00431	1.06945
0.37822	1.09496
0.25071	1.09496
0.37822	0.40625
0.17421	-0.71609
0.07220	0.07465
0.14870	0.40625
0.07220	0.32972
0.09770	-0.86914
0.22521	-0.76711
0.12320	0.48277
-0.10631	-0.30797
0.19971	0.04914
0.88825	0.25320
0.37822	0.45726
-0.02981	0.50828
-0.69285	-0.56305
-0.00431	0.78886
1.34728	-0.58856
1.55129	-1.02219
-0.38683	0.53379
-0.28482	0.91640
-0.69285	0.38074
-0.33583	0.58480
-0.46334	0.40625
-0.18282	1.78367
0.02119	-1.09871
0.73524	-1.12422
0.78624	-0.33348
1.24527	-0.97117
-0.00431	0.04914
-0.18282	1.37554
-0.08081	1.88570
-0.41233	0.17668
-0.05531	-0.48652
0.96476	-0.12942
1.90832	1.55410
0.09770	0.83988
-0.53984	-2.70570
-0.38683	-1.20074
-0.51434	0.71234
-0.61635	1.01843
-0.31033	1.65613
-0.08081	0.89089
1.04126	-0.12942
1.24527	-0.58856
0.65874	-0.15492
0.45472	0.27871
0.14870	0.38074
-0.43783	0.20219
-0.82036	0.66132
-0.89686	-0.46102
0.04670	-1.60887
0.86275	0.07465
1.09226	0.83988
0.40372	0.89089
0.81175	1.83468
0.40372	-1.17523
-0.69285	-1.37929
-0.61635	0.38074
-0.74385	0.63582
-0.23382	0.25320
0.32721	-0.48652
1.42379	0.99292
1.06676	1.04394
0.45472	0.25320
-0.05531	0.17668
-0.69285	-0.20594
-0.66735	0.27871
-0.10631	-0.61406
1.24527	-0.46102
0.78624	0.30422
-0.20832	-0.05289
-0.20832	-0.07840
0.32721	0.30422
-0.41233	0.40625
-0.18282	0.35523
-0.31033	1.50308
0.02119	-0.10391
0.55673	-2.88425
0.70974	0.15117
0.48022	0.78886
-0.10631	1.96222
-0.08081	0.27871
-0.20832	-0.92016
-0.05531	1.78367
0.30171	0.94191
0.58223	-0.86914
0.40372	-1.99148
0.58223	-0.35899
0.14870	1.06945
-0.46334	0.68683
-0.56534	0.78886
0.12320	0.71234
0.27621	0.58480
0.37822	0.35523
0.17421	-0.92016
0.04670	0.40625
0.09770	-0.05289
0.91375	-0.41000
-0.38683	-0.20594
0.25071	0.58480
0.30171	-0.30797
0.53123	-0.81812
0.12320	0.61031
-0.13181	0.50828
-0.51434	0.68683
-0.18282	0.99292
0.40372	-0.56305
1.16877	-0.02739
0.02119	0.63582
0.19971	0.02363
0.32721	-0.41000
-0.28482	0.20219
-0.28482	0.30422
-0.13181	0.55929
0.22521	0.58480
0.30171	0.71234
-0.00431	-0.53754
0.42922	-0.41000
0.50573	0.32972
0.17421	-0.46102
0.63323	-0.53754
0.53123	-0.12942
0.73524	1.55410
0.12320	1.01843
-0.41233	-0.23145
-0.41233	-0.00188
-0.25932	-0.12942
-0.13181	0.32972
0.09770	0.20219
-0.00431	0.40625
0.42922	0.25320
0.37822	0.20219
0.30171	0.12566
0.27621	0.02363
0.32721	-0.05289
0.58223	0.12566
1.04126	0.15117
0.17421	-0.25695
-0.69285	-0.38449
-0.43783	-0.20594
-0.28482	0.22769
-0.18282	0.58480
0.35272	1.22250
0.53123	-0.28246
0.32721	-0.53754
0.45472	0.45726
0.37822	0.81437
-0.38683	-0.02739
-0.18282	0.55929
0.17421	0.12566
0.07220	0.32972
0.25071	-0.23145
0.53123	0.02363
0.25071	1.06945
0.27621	0.02363
0.04670	-0.25695
-0.13181	-0.33348
0.12320	-0.25695
0.83725	0.45726
0.22521	0.15117
-0.38683	0.25320
-0.10631	0.68683
-0.13181	0.43176
-0.13181	0.38074
0.48022	-0.48652
0.70974	-0.46102
0.02119	-0.38449
-0.23382	-0.15492
0.32721	0.48277
0.58223	0.68683
0.14870	0.86539
-0.00431	0.30422
0.19971	1.06945
0.12320	-0.58856
-0.10631	-1.09871
-0.00431	0.50828
0.45472	0.99292
0.42922	1.14597
-0.46334	-0.18043
-0.13181	-1.17523
-0.13181	-1.45582
0.22521	0.71234
0.32721	0.96742
0.53123	1.52859
0.30171	0.07465
0.35272	-0.07840
0.50573	0.30422
0.17421	-0.53754
0.04670	0.07465
0.04670	0.35523
0.25071	0.53379
0.09770	0.66132
0.09770	0.20219
-0.43783	-0.30797
-0.31033	0.30422
0.35272	-0.07840
0.63323	-0.66508
0.73524	0.02363
0.53123	0.55929
-0.51434	0.02363
-0.36133	1.17148
-0.02981	0.61031
0.12320	-0.02739
-0.05531	0.35523
0.42922	-0.33348
1.21977	-0.05289
0.91375	-0.35899
0.02119	0.96742
-0.02981	0.43176
-0.48884	-0.51203
-0.18282	0.32972
-0.25932	0.66132
-0.18282	1.06945
0.32721	-0.30797
0.40372	-1.20074
0.86275	0.43176
0.14870	-0.33348
0.07220	-0.35899
-0.13181	0.20219
-0.25932	0.71234
0.32721	0.38074
0.55673	0.15117
0.04670	0.43176
-0.05531	0.43176
0.19971	-0.35899
0.63323	2.03874
0.12320	-0.69059
0.12320	-2.96078
0.37822	-0.48652
-0.43783	0.50828
-0.08081	1.45206
0.32721	1.88570
-0.02981	0.94191
0.14870	-0.46102
0.22521	-0.23145
0.22521	0.35523
-0.05531	0.27871
-0.33583	0.20219
0.22521	-0.53754
0.96476	-0.07840
0.17421	0.12566
0.17421	-0.05289
-0.23382	1.01843
-0.36133	-0.56305
0.25071	-2.04250
0.35272	0.35523
0.83725	1.24800
-0.23382	0.89089
0.58223	-0.12942
-0.15732	-0.41000
0.22521	0.15117
0.02119	1.78367
0.14870	0.53379
-0.08081	-0.35899
-0.48884	0.04914
-0.05531	-0.15492
0.12320	0.10015
1.32178	0.76336
0.22521	-0.25695
-0.13181	-0.84363
0.04670	-0.20594
0.48022	0.15117
0.32721	0.02363
0.14870	0.22769
-0.08081	0.89089
-0.25932	-0.12942
-0.23382	-0.38449
-0.56534	0.25320
-0.00431	-0.07840
0.91375	2.52339
1.52579	-0.35899
0.25071	-2.68019
-0.13181	0.35523
-0.08081	0.55929
-0.02981	1.35003
-0.13181	0.94191
-0.10631	0.61031
0.45472	-0.12942
0.50573	-0.94566
1.39828	0.22769
-0.02981	-0.20594
-0.13181	0.55929
-0.48884	0.20219
-0.74385	0.17668
-0.31033	0.38074
-0.36133	0.30422
-0.64185	0.35523
0.48022	-0.20594
1.14327	-0.15492
1.80631	-0.07840
0.42922	-0.25695
0.14870	0.71234
-0.10631	0.35523
-0.10631	0.40625
-0.48884	0.32972
-0.05531	-0.05289
-0.56534	-0.12942
0.32721	0.02363
0.76074	-0.56305
1.52579	0.58480
-0.38683	-0.02739
-0.28482	0.45726
-0.33583	0.78886
-0.25932	0.99292
0.12320	0.83988
0.17421	-0.25695
0.32721	0.76336
0.30171	-1.12422
0.40372	-0.05289
0.02119	-1.09871
-0.05531	-0.48652
0.19971	0.45726
0.42922	0.48277
0.12320	0.89089
-0.15732	0.61031
0.30171	-0.00188
0.30171	-0.10391
-0.41233	1.24800
-0.48884	-0.28246
-0.56534	-1.07320
1.01576	-0.56305
0.70974	-0.76711
0.63323	1.09496
-0.28482	0.66132
-0.18282	0.55929
-0.00431	0.53379
0.22521	0.78886
0.17421	-0.35899
0.53123	-0.07840
0.68424	0.96742
1.09226	-0.61406
0.83725	-1.27726
0.25071	0.35523
-0.79486	1.45206
-0.59084	0.78886
-0.56534	0.04914
-0.61635	0.15117
-0.05531	-0.10391
-0.05531	0.10015
-0.33583	0.04914
0.30171	0.17668
1.14327	-0.10391
2.03582	-0.38449
0.60773	0.15117
0.12320	0.12566
-0.33583	-0.07840
-0.74385	0.50828
-0.38683	1.24800
-0.41233	0.27871
-0.43783	-1.20074
-0.48884	-0.38449
0.30171	-0.51203
1.67880	0.02363
1.50029	-0.05289
0.68424	0.89089
-0.20832	1.65613
-0.43783	1.93671
-0.69285	-0.12942
-0.64185	-0.63957
-0.51434	0.02363
-0.08081	0.63582
0.73524	-0.05289
1.37278	-1.68539
0.76074	-0.18043
-0.33583	-0.00188
-0.41233	-0.41000
0.12320	0.55929
0.17421	0.17668
-0.05531	0.71234
0.07220	0.10015
-0.02981	0.30422
0.53123	0.45726
0.70974	0.48277
0.68424	0.61031
-0.13181	-0.69059
-0.05531	0.07465
-0.05531	0.30422
-0.02981	-0.69059
-0.20832	-0.20594
-0.15732	0.71234
-0.23382	1.35003
-0.28482	-0.10391
0.07220	-0.48652
0.50573	1.50308
0.48022	0.78886
0.17421	-1.14973
0.55673	-1.20074
0.07220	0.63582
0.02119	-0.10391
-0.25932	0.43176
0.22521	0.89089
0.22521	0.50828
0.14870	0.55929
0.19971	0.10015
0.22521	-0.43551
-0.20832	-0.53754
-0.02981	0.12566
0.60773	0.10015
0.76074	-0.99668
0.35272	0.32972
-0.33583	0.55929
-0.64185	0.12566
-0.18282	0.78886
0.27621	0.35523
0.68424	0.02363
0.60773	0.76336
-0.13181	-0.89465
0.22521	0.15117
-0.13181	1.01843
-0.33583	-0.18043
0.07220	-0.58856
0.42922	0.73785
0.53123	1.06945
0.04670	0.27871
0.53123	-1.27726
0.07220	-0.58856
-0.18282	0.89089
-0.15732	0.43176
0.60773	0.89089
0.42922	0.76336
-0.05531	0.86539
-0.28482	-0.25695
-0.23382	-1.07320
0.58223	-0.07840
0.22521	0.10015
-0.36133	0.48277
-0.13181	0.35523
0.25071	0.22769
-0.00431	0.07465
-0.10631	-0.84363
0.35272	0.20219
0.70974	-0.23145
0.40372	-1.04770
0.45472	0.83988
0.48022	0.91640
0.30171	0.68683
0.17421	0.73785
-0.41233	-0.02739
-0.33583	0.38074
-0.48884	-0.25695
-0.08081	0.45726
0.32721	1.19699
0.91375	-1.32828
0.55673	-1.58336
0.17421	0.89089
-0.53984	-1.71090
-0.08081	-0.20594
-0.13181	0.96742
0.12320	1.04394
-0.10631	0.76336
0.17421	0.55929
0.12320	0.40625
0.32721	0.04914
0.32721	-0.33348
0.32721	-0.18043
0.40372	0.02363
0.02119	-0.07840
0.12320	0.20219
0.22521	-0.07840
0.12320	0.50828
-0.10631	0.25320
0.32721	0.45726
0.40372	0.12566
0.53123	-0.56305
-0.08081	-0.05289
0.07220	0.43176
-0.41233	0.02363
-0.08081	1.04394
-0.00431	0.10015
-0.08081	-0.18043
0.09770	0.45726
0.48022	1.70714
0.88825	0.12566
0.22521	-0.66508
0.02119	0.25320
0.30171	-0.30797
-0.18282	0.43176
-0.10631	-0.28246
0.17421	-0.56305
0.60773	0.10015
0.27621	0.89089
0.45472	0.43176
-0.08081	-0.05289
-0.13181	0.73785
-0.10631	0.25320
-0.23382	0.17668
0.12320	-0.12942
0.42922	-0.28246
0.37822	0.10015
0.07220	0.40625
-0.15732	0.04914
-0.10631	0.32972
0.50573	-0.20594
1.04126	-0.97117
0.91375	0.45726
-0.18282	0.20219
-0.28482	-0.79262
-0.33583	0.81437
-0.43783	1.78367
-0.38683	0.40625
-0.02981	-0.43551
0.35272	-0.48652
0.70974	0.78886
0.45472	-0.99668
-0.02981	0.45726
-0.08081	0.50828
0.37822	0.04914
0.32721	-0.07840
0.30171	-0.15492
-0.15732	0.81437
0.02119	0.53379
0.04670	-0.46102
0.04670	0.71234
0.02119	-0.23145
0.12320	-1.09871
0.22521	-0.38449
0.53123	0.96742
0.88825	2.34484
-0.13181	-0.56305
-0.05531	-1.68539
-0.00431	-0.23145
-0.00431	0.78886
0.25071	0.32972
-0.02981	0.38074
0.60773	1.37554
0.19971	0.61031
-0.15732	-0.25695
-0.46334	-0.92016
-0.08081	-0.53754
0.42922	0.45726
0.48022	-0.25695
0.35272	-0.10391
0.32721	1.06945
-0.13181	-0.76711
-0.02981	1.12046
0.27621	1.27351
0.27621	-0.53754
0.07220	-0.38449
0.09770	-0.20594
0.22521	0.40625
0.32721	0.61031
0.07220	0.30422
0.09770	0.10015
-0.28482	-0.20594
0.19971	-0.07840
0.63323	0.04914
0.35272	0.45726
0.02119	1.09496
-0.00431	0.17668
0.19971	-0.94566
-0.71835	-0.84363
-0.18282	-0.53754
0.25071	-0.69059
1.44929	1.35003
0.73524	0.61031
0.12320	0.53379
0.02119	0.73785
-0.46334	0.07465
-0.71835	-0.05289
-0.59084	0.30422
0.07220	0.22769
0.53123	-0.15492
1.04126	0.50828
0.50573	-0.35899
0.99026	0.48277
-0.00431	-0.25695
-0.33583	-1.20074
-0.38683	-0.18043
-0.23382	0.45726
0.02119	0.58480
0.07220	0.40625
0.60773	0.07465
1.52579	0.61031
0.73524	0.86539
-0.43783	-0.05289
-0.41233	-1.37929
-0.33583	-0.76711
0.02119	0.48277
-0.41233	0.78886
-0.20832	1.50308
0.14870	-0.76711
0.53123	-1.30277
0.65874	0.04914
0.68424	1.19699
0.53123	1.19699
-0.51434	0.63582
-0.33583	1.19699
0.12320	-0.48652
0.93925	-0.76711
-0.02981	-0.00188
-0.08081	0.68683
-0.15732	-0.61406
-0.43783	-1.30277
-0.00431	0.43176
0.32721	0.94191
0.55673	0.55929
0.19971	-0.35899
0.22521	-0.02739
0.53123	1.14597
0.17421	-0.33348
0.25071	0.12566
-0.10631	0.73785
-0.15732	0.07465
0.17421	-0.05289
0.12320	0.45726
0.12320	0.76336
-0.00431	-0.63957
0.07220	-0.28246
0.53123	0.73785
0.32721	-0.20594
-0.15732	-0.61406
0.63323	0.40625
0.19971	-0.74160
0.25071	0.48277
-0.08081	1.06945
-0.20832	0.20219
-0.25932	0.32972
0.07220	0.73785
0.32721	-0.28246
-0.15732	-0.18043
-0.08081	0.04914
0.30171	-0.33348
0.07220	0.07465
0.60773	-0.30797
0.78624	-0.30797
0.37822	0.91640
0.02119	0.81437
-0.28482	1.42656
-0.18282	-0.51203
0.12320	-1.68539
0.12320	-0.46102
0.04670	0.50828
0.30171	0.71234
0.58223	0.55929
0.65874	0.17668
0.02119	0.78886
-0.79486	0.22769
-0.15732	0.07465
0.14870	-0.02739
0.02119	-0.10391
0.48022	0.99292
0.14870	-1.27726
0.07220	-1.27726
-0.00431	-1.17523
0.93925	-0.41000
0.73524	1.40105
0.30171	1.06945
-0.69285	0.35523
-0.89686	0.40625
-0.48884	1.01843
-0.20832	0.53379
0.58223	0.15117
0.93925	-0.43551
0.93925	-0.76711
0.50573	0.66132
-0.20832	-0.10391
-0.28482	0.15117
-0.00431	0.43176
-0.28482	0.45726
-0.08081	-0.61406
0.63323	-0.38449
0.65874	0.15117
0.88825	0.53379
-0.15732	-0.56305
-0.23382	-0.71609
-0.08081	0.86539
-0.51434	1.24800
-0.02981	0.94191
0.09770	0.48277
0.76074	-0.23145
0.07220	0.10015
0.58223	0.25320
-0.00431	-0.92016
0.81175	0.20219
0.07220	-0.12942
0.04670	0.73785
-0.41233	0.32972
-0.53984	0.20219
0.22521	0.50828
0.73524	0.02363
0.37822	0.12566
-0.05531	-0.20594
-0.25932	0.10015
0.35272	0.35523
0.19971	-0.53754
0.42922	0.02363
0.19971	0.04914
0.22521	1.09496
0.07220	0.12566
0.22521	-0.48652
-0.02981	-0.18043
0.09770	0.15117
0.19971	-0.41000
0.32721	0.61031
-0.23382	0.71234
-0.38683	0.45726
0.09770	0.78886
0.70974	0.58480
1.78081	1.45206
0.48022	-0.30797
-0.23382	-2.11902
-0.79486	-0.71609
-0.31033	0.30422
-0.43783	0.12566
-0.00431	0.91640
0.27621	0.63582
0.48022	-0.35899
0.19971	-0.25695
-0.23382	0.83988
-0.10631	-1.14973
0.14870	0.15117
0.30171	0.38074
0.88825	0.73785
0.91375	1.06945
0.25071	0.10015
-0.18282	-0.53754
0.30171	0.76336
0.25071	-0.86914
0.32721	-0.53754
-0.59084	-0.10391
0.02119	1.65613
-0.10631	0.66132
-0.28482	-0.33348
-0.33583	0.22769
-0.08081	0.61031
0.68424	-0.63957
0.63323	-0.46102
0.73524	0.58480
-0.05531	-1.35379
-0.33583	0.45726
-0.18282	0.63582
-0.02981	1.17148
0.07220	0.35523
0.30171	0.32972
0.45472	-0.41000
0.78624	0.02363
0.27621	0.27871
-0.00431	0.66132
0.17421	-0.74160
-0.28482	-0.10391
-0.31033	0.10015
-0.08081	0.30422
0.83725	0.96742
0.78624	0.66132
-0.18282	0.99292
-0.25932	-2.04250
0.02119	-0.69059
-0.02981	1.37554
0.58223	1.14597
-0.31033	-1.53234
0.27621	-0.56305
-0.10631	0.63582
0.27621	1.24800
0.04670	0.99292
0.25071	-0.05289
0.48022	0.45726
0.37822	-0.56305
0.45472	-0.81812
-0.10631	-0.92016
-0.08081	0.32972
0.30171	0.58480
0.27621	0.99292
-0.13181	0.86539
-0.02981	0.58480
-0.28482	-0.35899
0.04670	-0.41000
0.22521	-0.15492
0.12320	-0.23145
0.40372	0.38074
0.73524	-0.00188
1.09226	0.32972
-0.05531	1.47757
-0.25932	-1.22625
-0.51434	-1.71090
-0.15732	1.01843
-0.33583	0.63582
-0.08081	0.02363
0.09770	0.04914
0.14870	0.73785
-0.13181	0.96742
0.70974	0.76336
1.06676	-0.58856
1.06676	-0.89465
0.35272	0.32972
-0.10631	0.71234
-0.13181	0.81437
-0.33583	0.40625
-0.51434	-0.48652
-0.25932	0.10015
-0.13181	-0.05289
0.40372	-1.04770
0.48022	0.40625
0.35272	0.32972
0.25071	0.35523
0.27621	0.35523
0.17421	0.76336
0.02119	-0.20594
0.02119	-0.07840
0.07220	0.25320
-0.13181	0.25320
0.02119	0.12566
0.37822	0.10015
0.81175	-0.23145
1.24527	-0.20594
-0.08081	0.76336
-0.82036	-0.02739
-0.25932	-0.05289
-0.10631	0.96742
0.09770	-0.20594
-0.08081	-0.28246
-0.00431	0.38074
0.32721	-0.12942
0.09770	0.53379
0.07220	0.40625
0.53123	-0.12942
0.65874	-0.38449
1.11776	0.38074
0.32721	0.99292
0.19971	-0.20594
-0.05531	-0.28246
-0.41233	0.30422
-0.51434	0.68683
-0.33583	0.63582
0.09770	-0.30797
0.07220	-1.50683
0.30171	0.27871
0.50573	0.55929
0.14870	0.50828
-0.05531	0.86539
0.25071	0.83988
0.40372	-0.33348
0.12320	-0.20594
0.14870	-0.07840
0.02119	0.07465
0.32721	0.12566
0.19971	0.86539
0.37822	0.25320
-0.02981	-1.68539
-0.08081	-0.28246
0.02119	0.55929
0.09770	0.91640
0.12320	0.81437
0.27621	0.63582
-0.10631	-0.02739
0.09770	0.50828
0.32721	-0.28246
0.86275	-0.66508
1.24527	0.15117
0.58223	-0.00188
-0.71835	0.83988
-0.79486	-0.43551
-1.02437	-0.86914
-0.48884	1.04394
0.02119	0.50828
0.99026	-0.71609
1.32178	1.06945
0.45472	1.04394
-0.38683	-0.84363
-0.00431	-0.12942
0.19971	0.81437
0.02119	-0.07840
-0.08081	0.07465
0.09770	0.30422
0.22521	0.20219
0.30171	0.25320
0.45472	0.83988
0.14870	-0.23145
-0.15732	-0.23145
0.14870	0.27871
0.17421	-1.40480
-0.10631	-0.48652
0.02119	0.94191
0.07220	1.17148
-0.18282	-0.00188
0.32721	-0.10391
0.32721	-0.28246
0.37822	0.83988
0.60773	0.78886
1.06676	-0.51203
-0.20832	0.17668
-0.66735	1.17148
-0.69285	-0.92016
-0.20832	-1.22625
-0.02981	0.35523
0.04670	0.17668
0.30171	0.20219
0.65874	0.61031
0.53123	0.48277
0.25071	-0.33348
0.35272	0.53379
0.42922	0.50828
-0.18282	-0.28246
0.42922	0.27871
0.27621	0.25320
-0.33583	0.04914
-0.23382	0.38074
-0.23382	0.22769
0.07220	-0.30797
0.12320	-1.02219
0.19971	-1.09871
0.17421	0.55929
0.17421	1.50308
0.02119	0.17668
0.04670	-0.66508
0.53123	0.73785
0.32721	0.45726
0.22521	0.81437
0.30171	0.38074
-0.00431	0.07465
0.42922	-0.92016
0.45472	0.38074
-0.02981	0.25320
0.12320	-1.30277
-0.66735	-0.07840
-0.36133	0.22769
-0.08081	0.55929
0.14870	0.40625
-0.05531	0.20219
0.30171	0.63582
0.63323	0.25320
0.65874	0.12566
0.14870	1.06945
0.53123	0.32972
0.17421	-0.63957
0.25071	-0.20594
0.14870	0.04914
-0.23382	0.94191
-0.08081	0.43176
0.19971	-0.58856
0.22521	-0.53754
-0.18282	0.15117
0.07220	0.27871
0.14870	0.35523
-0.08081	0.15117
0.04670	0.32972
0.32721	0.38074
0.27621	0.66132
-0.02981	-0.10391
0.25071	-0.46102
0.48022	-0.53754
0.88825	0.76336
0.27621	0.43176
0.32721	0.20219
-0.18282	0.22769
-0.33583	-0.28246
-0.33583	-0.15492
-0.20832	0.17668
0.53123	1.24800
0.04670	-0.58856
0.17421	-0.43551
-0.18282	0.04914
-0.00431	0.30422
0.42922	0.53379
0.65874	0.76336
0.60773	0.17668
0.53123	0.15117
0.14870	0.27871
-0.23382	0.43176
-0.36133	-0.18043
-0.02981	-1.37929
-0.18282	0.45726
0.53123	0.35523
0.50573	0.35523
0.48022	0.43176
-0.18282	0.32972
-0.00431	1.01843
-0.36133	-0.81812
-0.05531	-0.61406
0.27621	-0.05289
0.32721	0.48277
0.32721	0.50828
0.37822	0.04914
0.12320	0.38074
0.09770	0.43176
-0.10631	0.68683
-0.05531	0.02363
0.07220	-1.07320
0.60773	-0.15492
-0.25932	-0.18043
0.12320	0.35523
0.53123	0.04914
0.55673	0.40625
0.02119	0.99292
-0.13181	-0.15492
0.02119	0.07465
-0.02981	0.61031
-0.10631	-0.41000
-0.02981	-0.61406
0.45472	0.96742
0.53123	0.15117
-0.08081	-0.74160
0.12320	0.76336
0.83725	1.40105
0.50573	0.15117
-0.02981	-0.10391
-0.08081	0.17668
0.07220	-0.18043
-0.15732	-0.41000
-0.05531	0.17668
-0.25932	0.76336
-0.41233	-0.18043
-0.13181	-0.38449
0.55673	0.27871
0.83725	0.20219
0.45472	-0.30797
0.14870	0.68683
0.30171	0.07465
0.32721	0.12566
0.58223	0.53379
0.37822	0.22769
-0.38683	0.25320
-0.38683	0.55929
-0.18282	0.32972
-0.05531	0.45726
0.17421	-0.33348
-0.15732	-0.84363
0.12320	-1.12422
0.88825	0.45726
0.58223	0.73785
0.02119	0.53379
-0.05531	1.04394
0.17421	0.32972
0.02119	0.45726
-0.18282	0.07465
-0.10631	-1.76191
0.65874	-0.63957
0.93925	0.73785
0.02119	0.50828
0.02119	1.37554
-0.33583	0.20219
-0.38683	-0.53754
-0.33583	0.27871
0.12320	0.45726
0.32721	-0.10391
0.35272	0.07465
0.81175	0.04914
0.50573	-0.07840
0.37822	0.12566
-0.02981	-0.51203
0.30171	0.02363
-0.28482	0.66132
-0.20832	0.96742
-0.23382	0.35523
-0.31033	-0.07840
-0.02981	-0.15492
0.45472	0.27871
0.65874	1.09496
0.35272	-1.27726
1.06676	-1.09871
0.68424	-0.05289
-0.05531	0.94191
-0.23382	1.14597
-0.41233	0.99292
-0.46334	0.61031
-0.20832	0.15117
0.09770	0.02363
0.09770	-0.66508
0.93925	-0.00188
0.27621	-0.25695
0.19971	0.04914
0.04670	0.22769
0.02119	0.58480
0.22521	-0.28246
0.12320	-0.15492
0.32721	0.58480
0.19971	0.73785
0.63323	-0.66508
-0.18282	-0.97117
-0.23382	0.68683
0.12320	0.68683
0.42922	-0.00188
-0.02981	0.66132
-0.13181	0.81437
0.19971	-0.81812
0.91375	-0.46102
0.27621	0.55929
-0.05531	0.71234
-0.33583	-0.41000
-0.05531	-0.63957
-0.08081	-0.23145
-0.38683	1.12046
0.42922	0.40625
0.86275	-1.27726
1.19427	-0.28246
0.12320	1.06945
-0.10631	1.17148
-0.28482	-0.18043
-0.48884	-0.25695
-0.38683	-0.25695
-0.00431	0.27871
0.04670	-0.00188
0.42922	-0.10391
0.99026	0.12566
0.55673	0.27871
0.55673	-0.02739
-0.08081	0.25320
-0.53984	0.38074
-0.25932	-0.76711
0.04670	-0.56305
0.12320	0.99292
-0.15732	-0.89465
0.19971	-0.20594
0.37822	0.20219
0.55673	1.40105
0.32721	0.48277
-0.02981	0.50828
-0.08081	-0.18043
0.42922	0.30422
0.91375	0.94191
0.09770	-0.05289
-0.53984	0.17668
-0.05531	-0.76711
0.17421	-1.48133
-0.15732	-0.07840
-0.05531	0.89089
0.53123	0.83988
-0.18282	-1.20074
-0.25932	0.55929
-0.28482	-0.05289
0.14870	0.43176
0.45472	0.94191
0.70974	0.73785
0.96476	-0.00188
-0.31033	0.04914
0.09770	0.83988
0.88825	-0.51203
0.48022	-0.63957
-0.48884	-1.09871
-0.46334	-0.25695
-0.59084	-0.38449
-0.15732	0.94191
-0.28482	0.43176
0.50573	0.63582
1.09226	0.96742
0.30171	0.81437
0.07220	-0.12942
0.12320	-0.10391
0.55673	-0.07840
-0.46334	-0.25695
-0.28482	-1.25176
0.22521	-0.63957
0.99026	0.91640
0.07220	0.76336
-0.08081	0.53379
-0.23382	0.07465
-0.18282	1.32453
-0.23382	2.31933
0.14870	-2.62918
0.22521	-1.09871
0.76074	0.27871
0.40372	0.30422
0.17421	1.01843
0.30171	1.24800
0.09770	-0.25695
0.12320	-0.53754
-0.02981	0.02363
0.22521	0.68683
0.58223	-0.38449
0.22521	0.07465
-0.20832	0.02363
-0.53984	-0.05289
-0.15732	0.63582
0.14870	0.76336
0.02119	1.17148
0.32721	-0.56305
1.04126	-0.05289
0.91375	-0.74160
0.58223	-0.76711
-0.18282	0.32972
-0.25932	0.76336
-0.53984	0.96742
-0.43783	0.55929
-0.05531	-0.41000
-0.10631	0.66132
0.32721	0.38074
0.73524	-0.76711
0.99026	-0.07840
-0.00431	-0.05289
-0.13181	0.07465
0.17421	0.38074
0.14870	-0.10391
0.07220	1.01843
0.12320	0.07465
-0.00431	-0.58856
0.22521	0.07465
0.30171	1.45206
-0.10631	1.37554
-0.00431	-1.53234
-0.18282	-0.56305
0.65874	-0.76711
0.78624	-0.20594
0.73524	1.24800
-0.23382	1.37554
-0.13181	0.96742
-0.46334	0.17668
-0.38683	-0.25695
0.09770	0.22769
0.40372	0.27871
0.19971	-0.43551
-0.13181	-0.86914
0.22521	-0.30797
0.93925	0.78886
0.07220	1.09496
0.14870	0.38074
0.48022	-0.79262
0.04670	-0.58856
-0.23382	0.20219
-0.25932	0.53379
-0.05531	-0.76711
0.73524	-0.25695
0.48022	0.30422
0.40372	0.73785
0.32721	1.45206
0.12320	0.15117
0.02119	-0.15492
-0.15732	0.32972
-0.10631	-0.02739
-0.18282	0.10015
0.17421	0.43176
-0.25932	-1.02219
0.02119	-1.02219
0.83725	0.48277
1.27078	0.50828
0.12320	0.78886
-0.18282	0.76336
-0.13181	-0.56305
-0.18282	-0.20594
-0.18282	-0.15492
-0.23382	-0.10391
0.02119	0.25320
0.42922	0.96742
0.40372	0.73785
0.50573	0.15117
0.48022	-0.41000
0.63323	-1.37929
0.14870	-0.05289
-0.18282	1.17148
-0.74385	0.55929
-0.41233	0.38074
-0.05531	0.83988
0.32721	0.10015
0.37822	-0.02739
0.19971	-1.73640
0.14870	-0.58856
0.32721	-0.33348
0.27621	0.40625
-0.08081	1.27351
-0.05531	0.99292
-0.05531	0.73785
0.22521	1.65613
0.35272	0.81437
0.58223	-1.99148
0.42922	-1.45582
0.12320	0.94191
-0.18282	0.55929
-0.05531	-0.10391
0.04670	-0.00188
-0.28482	0.53379
0.02119	0.53379
-0.15732	0.45726
-0.13181	-0.30797
0.30171	0.83988
0.91375	0.53379
0.99026	-1.22625
0.09770	0.50828
-0.28482	0.12566
-0.13181	-1.55785
-0.20832	0.10015
-0.43783	1.47757
-0.20832	-0.48652
0.65874	0.12566
0.70974	0.68683
-0.10631	1.14597
0.55673	0.66132
0.32721	-0.99668
0.09770	-1.02219
-0.51434	0.48277
-0.25932	0.50828
-0.13181	0.86539
-0.15732	0.35523
0.22521	0.25320
0.99026	-1.94047
1.01576	-0.56305
0.37822	0.63582
-0.18282	0.53379
-0.48884	-0.48652
-0.02981	0.63582
0.19971	1.55410
0.04670	-0.20594
-0.10631	-0.30797
-0.61635	0.76336
0.70974	0.76336
1.04126	-1.73640
1.55129	0.02363
0.04670	0.89089
-0.28482	0.68683
-0.66735	0.15117
-0.53984	1.73265
-0.69285	-0.35899
-0.69285	-0.81812
0.09770	0.10015
0.48022	0.58480
1.65330	-0.51203
1.34728	-1.35379
0.55673	0.25320
-0.08081	-0.18043
0.07220	0.68683
-0.23382	0.50828
-0.56534	2.26831
-0.51434	-1.04770
-1.04987	-0.53754
0.27621	0.27871
1.14327	-0.66508
2.36734	-0.66508
-0.23382	0.71234
-0.43783	1.12046
-0.43783	1.12046
-0.59084	-0.81812
-0.31033	-0.05289
0.09770	0.48277
0.73524	0.43176
0.40372	-1.07320
0.42922	-0.35899
0.48022	0.04914
0.09770	-1.04770
0.22521	0.94191
-0.10631	1.17148
-0.08081	0.25320
0.02119	0.40625
-0.18282	0.38074
-0.02981	0.53379
0.17421	0.38074
0.22521	-0.28246
0.45472	-0.51203
0.68424	0.30422
0.65874	0.22769
0.07220	-0.86914
0.30171	-1.22625
0.02119	2.06425
-0.64185	0.96742
-0.48884	-0.63957
-0.33583	0.58480
0.07220	-2.27207
0.07220	-1.88945
0.12320	0.50828
1.50029	1.78367
1.50029	2.19179
0.02119	2.08976
-0.79486	0.71234
-0.69285	1.06945
-0.28482	-0.23145
-0.13181	-2.50164
0.58223	-1.63437
0.81175	-0.46102
1.11776	0.27871
0.32721	-0.10391
-0.00431	0.45726
-0.18282	0.38074
-0.08081	1.29902
-0.56534	1.06945
-0.43783	0.63582
0.17421	0.94191
0.81175	0.94191
0.76074	-1.02219
0.30171	-0.69059
0.27621	-1.35379
-0.02981	-0.10391
-0.28482	0.35523
-0.23382	0.43176
-0.05531	0.91640
0.02119	0.86539
-0.25932	-2.22105
0.32721	-0.63957
1.24527	0.73785
0.48022	0.53379
-0.66735	-0.18043
0.17421	0.48277
0.30171	0.30422
0.35272	1.40105
-0.28482	-0.76711
-0.36133	0.04914
-0.15732	0.30422
0.42922	0.45726
0.60773	1.04394
0.17421	1.93671
0.30171	-0.48652
0.42922	-3.90456
0.76074	-0.97117
0.37822	0.94191
-0.38683	0.32972
-0.61635	0.55929
-0.31033	0.32972
0.07220	1.98773
0.12320	0.12566
0.37822	-0.79262
0.37822	0.07465
0.02119	-0.89465
0.17421	0.86539
0.30171	1.19699
-0.00431	-0.35899
-0.23382	-0.28246
0.19971	0.91640
0.48022	0.45726
0.58223	1.01843
0.48022	-0.69059
0.48022	-0.48652
0.27621	0.81437
-0.13181	0.45726
-0.31033	0.17668
0.04670	0.58480
0.25071	-0.20594
-0.15732	0.30422
-0.10631	0.45726
0.73524	0.66132
0.32721	-1.07320
0.09770	-0.56305
-0.28482	0.71234
-0.36133	-0.89465
-0.10631	0.94191
0.04670	0.86539
0.53123	2.16628
0.48022	-0.10391
-0.28482	-0.41000
0.17421	-2.27207
0.68424	-1.48133
1.65330	1.27351
-0.08081	0.48277
-0.66735	0.86539
-0.43783	0.32972
0.04670	0.43176
0.19971	0.76336
0.19971	-0.05289
0.35272	1.42656
0.25071	0.04914
-0.28482	-0.69059
-0.08081	-0.25695
-0.00431	-2.42511
0.93925	0.76336
0.53123	0.76336
0.19971	-0.53754
0.07220	0.86539
-0.13181	2.88050
-0.41233	1.06945
-0.66735	-1.65988
0.07220	-1.99148
1.09226	-1.02219
1.37278	0.73785
-0.00431	1.35003
-0.53984	0.99292
-0.51434	0.76336
-0.36133	0.45726
0.02119	0.30422
0.63323	-0.02739
0.76074	0.15117
0.27621	-0.15492
0.42922	-0.81812
0.86275	-0.66508
-0.13181	-0.18043
-0.51434	-0.66508
-0.36133	0.71234
0.12320	2.37034
0.27621	-1.58336
0.88825	-0.30797
0.12320	-0.12942
0.35272	0.22769
0.83725	0.66132
-0.48884	1.40105
-0.64185	-0.25695
-0.20832	0.04914
-0.43783	0.78886
0.02119	-0.41000
0.35272	-0.48652
0.60773	1.24800
0.55673	0.32972
0.37822	-1.04770
0.30171	-0.99668
0.09770	0.71234
0.04670	0.76336
0.04670	0.66132
0.53123	0.22769
-0.41233	-1.48133
-0.25932	-0.66508
0.17421	-0.51203
0.07220	1.19699
-0.31033	0.91640
0.07220	0.35523
1.06676	-0.05289
1.04126	1.35003
0.96476	-0.66508
-0.51434	-1.65988
-0.69285	1.12046
-0.20832	0.50828
-0.43783	-0.02739
-0.20832	-0.76711
0.25071	-0.66508
0.63323	0.89089
1.34728	1.88570
1.21977	0.71234
-0.28482	-0.30797
-0.84586	0.58480
-0.59084	0.71234
-0.33583	-0.20594
-0.28482	-0.63957
-0.08081	-0.41000
0.32721	-1.17523
0.63323	2.21730
1.34728	-1.17523
0.53123	-2.80773
1.06676	1.09496
-0.43783	2.62542
-0.53984	0.71234
-0.51434	-0.81812
-0.53984	0.40625
-0.20832	0.76336
0.40372	0.20219
1.04126	0.43176
0.88825	-0.05289
-0.00431	0.40625
0.09770	0.20219
0.04670	0.07465
0.60773	0.53379
-0.33583	-0.00188
-0.41233	-2.47613
-0.53984	-1.27726
0.40372	1.06945
0.25071	0.38074
0.09770	0.68683
0.14870	1.29902
0.22521	-1.27726
0.50573	-0.10391
0.32721	0.81437
0.30171	0.12566
0.12320	-0.07840
0.35272	0.38074
0.27621	1.37554
0.68424	1.06945
0.17421	0.22769
-0.46334	-0.02739
-0.41233	1.17148
-0.46334	0.07465
-0.10631	-3.29238
0.25071	-0.25695
0.32721	-0.79262
0.30171	-0.23145
0.58223	1.37554
0.78624	1.45206
0.04670	0.94191
-0.13181	0.38074
-0.41233	-0.00188
-0.59084	0.27871
0.30171	0.20219
1.24527	-0.74160
1.14327	0.02363
0.53123	0.53379
-0.10631	0.71234
-0.38683	0.15117
-0.53984	0.50828
-0.38683	-1.09871
0.19971	0.61031
0.40372	-0.43551
0.09770	-0.10391
-0.08081	-0.20594
0.63323	-0.30797
0.65874	1.55410
0.96476	0.89089
0.09770	0.55929
0.02119	0.43176
-0.41233	-1.55785
-0.59084	0.53379
-0.20832	-0.15492
-0.15732	-2.17003
0.73524	1.60511
0.81175	1.45206
0.88825	-0.30797
-0.18282	0.55929
0.04670	0.20219
-0.31033	-0.79262
-0.43783	0.71234
-0.46334	-0.25695
0.14870	-0.81812
0.04670	0.32972
0.48022	0.71234
0.48022	0.35523
1.14327	0.35523
0.12320	-0.15492
0.68424	0.61031
0.30171	-1.17523
-0.00431	1.65613
-0.46334	-0.81812
-0.02981	-1.17523
-0.20832	0.55929
-0.15732	-0.35899
0.25071	1.45206
0.14870	1.40105
0.40372	0.96742
-0.13181	-0.05289
0.27621	-0.53754
0.53123	-1.12422
1.06676	0.96742
0.70974	0.73785
-0.59084	-0.48652
-0.56534	-0.41000
-0.10631	-0.51203
-0.05531	0.86539
-0.36133	0.20219
0.07220	-0.23145
0.48022	-0.25695
1.29628	0.48277
0.35272	0.35523
0.02119	-0.10391
-0.36133	0.45726
-0.23382	0.32972
-0.20832	0.81437
0.22521	1.45206
0.53123	-1.71090
0.55673	-1.83844
0.25071	0.35523
0.27621	0.83988
-0.00431	0.12566
-0.18282	2.95702
0.32721	0.40625
0.17421	-2.70570
-0.20832	0.43176
-0.13181	-0.61406
0.17421	-0.58856
0.35272	2.29382
0.30171	2.08976
0.30171	-0.33348
0.50573	-0.28246
0.63323	0.25320
-0.28482	0.76336
-0.36133	-0.58856
-0.00431	-1.27726
0.09770	0.22769
0.42922	1.22250
0.14870	-0.81812
-0.15732	-1.02219
0.02119	0.50828
-0.25932	1.06945
-0.28482	0.32972
0.37822	-1.07320
1.21977	0.61031
1.11776	0.66132
-0.02981	0.30422
-0.46334	0.02363
-0.18282	1.01843
-0.69285	-0.69059
-0.18282	0.55929
-0.13181	0.96742
0.17421	0.48277
0.42922	-2.39961
0.27621	-0.28246
0.12320	0.27871
0.70974	0.66132
0.93925	0.71234
0.73524	0.40625
0.53123	0.81437
0.04670	-0.07840
-0.38683	0.35523
-0.36133	-0.84363
-0.33583	-0.92016
-0.53984	0.40625
0.22521	0.48277
0.60773	0.58480
0.83725	0.86539
0.25071	0.15117
0.02119	-0.74160
-0.36133	-1.12422
-0.08081	0.04914
0.09770	0.30422
-0.23382	0.02363
0.48022	0.78886
0.70974	0.32972
0.65874	1.19699
0.60773	0.89089
0.42922	-0.48652
-0.28482	-0.58856
-0.48884	2.34484
-0.64185	-0.99668
-0.41233	-1.99148
-0.15732	-0.15492
0.27621	0.55929
0.48022	0.73785
1.32178	-0.35899
1.04126	0.45726
0.60773	0.48277
-0.64185	0.30422
-0.46334	0.61031
-0.31033	-0.30797
-0.38683	-0.25695
-0.02981	0.89089
0.30171	-0.10391
0.76074	-0.51203
0.22521	0.22769
0.14870	0.20219
0.25071	0.81437
0.32721	0.10015
-0.00431	-0.48652
-0.15732	0.30422
-0.38683	1.37554
-0.18282	-2.19554
0.30171	-1.09871
0.96476	0.25320
1.44929	1.55410
-0.18282	0.12566
-0.43783	1.78367
-0.43783	1.01843
-0.38683	-0.30797
0.07220	-0.35899
-0.33583	0.17668
-0.02981	0.17668
0.65874	0.30422
1.27078	-0.20594
0.73524	-0.28246
-0.10631	0.27871
-0.31033	-0.25695
-0.18282	-0.86914
-0.00431	-0.46102
-0.20832	0.53379
-0.33583	0.96742
-0.15732	0.04914
0.42922	0.10015
0.32721	0.35523
0.42922	0.58480
0.32721	0.22769
0.70974	-0.10391
0.91375	1.06945
0.83725	-0.51203
-0.33583	-1.09871
-0.92237	0.10015
-0.66735	0.15117
-0.10631	0.48277
-0.51434	-0.25695
0.45472	1.27351
0.70974	2.29382
0.37822	-1.53234
0.42922	-0.81812
0.65874	1.42656
-0.20832	-0.30797
-0.28482	0.25320
-0.13181	-0.66508
0.32721	-0.30797
0.58223	1.29902
0.48022	0.61031
0.73524	0.15117
0.17421	-0.48652
-0.25932	0.81437
-0.38683	0.55929
-0.61635	-0.48652
-0.08081	0.07465
0.04670	0.10015
0.17421	0.71234
0.50573	0.45726
0.86275	-0.48652
0.58223	-0.30797
0.09770	-0.20594
-0.02981	0.63582
-0.43783	1.40105
-0.23382	-1.43031
-0.00431	-1.22625
0.07220	1.47757
0.37822	0.50828
0.30171	0.20219
0.93925	0.91640
0.58223	-0.12942
-0.02981	0.07465
-0.25932	0.96742
-0.51434	0.38074
-0.69285	-0.35899
-0.08081	0.25320
0.17421	0.22769
0.73524	-1.43031
0.58223	-0.43551
0.91375	0.76336
0.53123	0.91640
0.12320	1.93671
-0.02981	0.63582
-0.10631	-2.93527
-0.28482	-0.12942
-0.36133	0.78886
-0.05531	1.45206
-0.41233	0.17668
0.91375	-0.25695
1.39828	0.12566
1.34728	0.50828
-0.59084	0.17668
-0.94787	-0.71609
-0.69285	-0.00188
-0.71835	0.45726
-0.43783	1.09496
0.40372	-0.28246
1.06676	-0.20594
0.91375	-0.02739
0.88825	0.17668
0.32721	0.53379
0.04670	0.07465
-0.05531	1.14597
-0.33583	-1.20074
-0.20832	-0.10391
0.07220	0.07465
-0.10631	1.01843
0.35272	-0.86914
0.53123	-1.83844
0.58223	0.71234
0.63323	0.45726
-0.10631	0.94191
-0.25932	1.78367
-0.31033	-0.61406
-0.18282	-0.97117
0.30171	0.61031
0.99026	1.52859
0.32721	0.68683
0.12320	0.91640
-0.20832	-0.28246
-0.66735	-0.58856
-0.20832	0.25320
-0.13181	0.02363
0.04670	-0.18043
-0.18282	-0.38449
0.22521	-0.35899
0.63323	0.12566
0.88825	-0.69059
0.76074	0.10015
0.32721	1.57960
0.04670	0.89089
-0.02981	0.02363
-0.28482	-1.65988
-0.59084	-1.68539
0.48022	2.03874
0.83725	0.07465
0.30171	0.10015
-0.36133	0.94191
-0.28482	1.09496
-0.20832	1.19699
-0.08081	0.04914
-0.28482	-0.81812
0.22521	1.70714
0.50573	0.07465
0.78624	-2.45062
0.48022	-0.66508
0.27621	-1.07320
0.68424	2.42136
-0.13181	0.04914
-0.48884	-0.07840
-0.43783	0.89089
-0.71835	-0.05289
-0.13181	2.16628
0.93925	-0.38449
1.06676	-3.98109
0.42922	-0.28246
-0.05531	0.30422
-0.08081	1.35003
-0.05531	1.96222
-0.18282	1.55410
-0.08081	0.76336
-0.18282	0.78886
-0.20832	-1.53234
0.37822	0.45726
0.83725	-0.30797
0.14870	-1.02219
0.63323	-0.30797
0.02119	0.10015
0.25071	0.43176
0.09770	0.25320
0.04670	0.55929
-0.00431	0.12566
-0.05531	0.12566
0.25071	0.07465
0.14870	-0.05289
-0.05531	0.15117
-0.20832	-0.25695
0.09770	0.76336
0.22521	2.34484
0.09770	-1.35379
0.25071	-2.55265
0.40372	0.45726
0.96476	1.32453
0.53123	1.27351
-0.23382	0.17668
-0.48884	0.48277
-0.61635	0.22769
0.14870	0.86539
0.35272	0.17668
0.70974	-2.60367
0.09770	-0.38449
-0.00431	1.17148
-0.13181	0.78886
0.30171	0.12566
-0.02981	-0.00188
-0.02981	2.24281
-0.10631	-1.86394
0.53123	-1.30277
0.25071	1.19699
-0.08081	0.27871
0.30171	-0.48652
0.86275	0.81437
0.27621	0.48277
-0.23382	0.55929
0.04670	0.86539
0.07220	1.35003
0.25071	-1.20074
-0.00431	0.25320
-0.18282	-1.12422
-0.05531	-2.70570
0.65874	0.96742
0.27621	1.47757
-0.10631	0.86539
0.14870	0.63582
0.09770	1.06945
0.22521	0.25320
-0.08081	-1.55785
-0.08081	-0.00188
0.07220	0.78886
0.25071	0.48277
0.09770	-0.48652
0.25071	-0.05289
0.40372	0.22769
0.27621	0.15117
-0.08081	-0.05289
0.37822	0.71234
0.42922	0.04914
0.30171	0.12566
0.12320	0.43176
-0.28482	0.53379
-0.33583	-1.02219
0.17421	0.40625
0.37822	2.29382
0.04670	-1.22625
-0.02981	-3.03730
0.55673	-0.07840
-0.10631	1.45206
-0.10631	1.91120
0.22521	0.76336
0.27621	-0.41000
0.35272	0.12566
-0.00431	1.24800
-0.23382	0.17668
0.40372	-0.51203
0.68424	-0.66508
1.04126	-0.53754
-0.25932	-0.28246
-0.38683	1.09496
-0.38683	0.68683
0.02119	-0.00188
0.04670	0.15117
0.35272	0.12566
0.42922	0.22769
0.02119	-0.35899
0.32721	-0.15492
0.42922	0.27871
0.27621	0.55929
-0.20832	-0.53754
0.14870	-1.45582
0.50573	0.12566
0.32721	1.19699
0.09770	1.06945
0.30171	0.15117
0.12320	-0.53754
-0.23382	1.01843
-0.05531	0.12566
-0.08081	0.30422
-0.08081	-0.07840
0.32721	0.71234
0.45472	-0.07840
0.35272	-0.46102
0.17421	0.63582
0.19971	-0.35899
0.09770	-0.38449
0.19971	0.10015
0.02119	0.35523
-0.05531	-0.05289
0.04670	-0.15492
0.09770	1.65613
0.40372	-0.46102
0.53123	0.04914
0.42922	0.07465
0.07220	0.32972
0.07220	-0.35899
-0.15732	-0.94566
-0.53984	1.19699
-0.10631	0.66132
0.53123	0.89089
0.35272	0.43176
0.19971	0.63582
0.07220	0.07465
-0.00431	-1.04770
0.07220	-0.48652
0.58223	0.25320
-0.00431	0.71234
-0.13181	0.66132
0.07220	-0.46102
0.25071	-1.37929
0.37822	0.55929
0.53123	0.76336
0.22521	0.81437
-0.48884	-0.18043
-0.41233	-0.41000
0.37822	0.63582
0.63323	0.94191
0.55673	1.83468
0.65874	-2.34859
-0.28482	-3.47093
-0.51434	0.45726
-0.46334	1.40105
-0.05531	1.45206
0.40372	1.06945
0.48022	0.99292
0.37822	0.96742
0.04670	-0.33348
0.27621	-0.33348
0.04670	-0.35899
-0.08081	-1.02219
0.48022	0.02363
0.09770	0.76336
-0.20832	-0.33348
0.32721	-0.33348
0.83725	0.10015
0.27621	1.24800
-0.15732	0.04914
-0.33583	-1.20074
0.27621	-0.35899
0.09770	1.09496
-0.43783	2.70194
0.19971	-1.55785
0.40372	-1.22625
0.30171	0.81437
0.02119	0.30422
0.17421	-1.12422
-0.05531	1.45206
0.53123	1.96222
0.30171	-0.92016
0.32721	-1.04770
0.50573	0.55929
0.53123	0.15117
-0.00431	0.48277
-0.46334	0.63582
-0.46334	-0.15492
-0.15732	-0.51203
0.14870	0.30422
0.07220	-0.05289
0.22521	-0.07840
-0.10631	0.53379
0.12320	0.35523
0.58223	0.35523
0.50573	0.35523
0.55673	0.35523
0.09770	-0.12942
-0.02981	-0.35899
-0.41233	-0.18043
-0.36133	0.58480
0.35272	-0.00188
0.07220	-0.10391
0.14870	-0.05289
0.27621	0.76336
0.32721	0.02363
0.04670	0.48277
-0.13181	0.35523
0.02119	-0.56305
0.17421	-0.89465
0.22521	1.06945
0.37822	0.63582
0.02119	-0.63957
0.14870	0.94191
0.45472	0.20219
0.42922	-0.05289
-0.15732	-0.18043
-0.05531	0.27871
0.19971	0.02363
-0.13181	0.04914
0.37822	0.58480
0.14870	-0.18043
-0.28482	-0.71609
-0.20832	0.61031
0.12320	0.20219
0.73524	0.04914
0.27621	-0.20594
0.50573	0.96742
-0.05531	0.17668
-0.38683	-0.61406
0.07220	0.40625
-0.02981	0.53379
0.32721	-0.43551
0.35272	0.63582
0.37822	0.02363
0.02119	-0.86914
0.14870	0.27871
0.07220	0.91640
0.17421	0.25320
-0.18282	-0.38449
0.09770	0.35523
-0.15732	-0.46102
0.65874	0.35523
1.06676	0.76336
0.17421	0.99292
-0.31033	-0.81812
-0.05531	0.15117
-0.28482	0.07465
0.22521	0.02363
0.37822	0.43176
-0.25932	0.32972
-0.20832	0.63582
0.04670	-0.00188
0.35272	-1.22625
0.19971	-0.25695
0.55673	0.91640
0.76074	-0.33348
0.73524	0.38074
0.09770	0.12566
-0.36133	-0.07840
-0.18282	0.40625
-0.23382	0.38074
-0.20832	0.81437
-0.05531	-0.15492
0.42922	-0.07840
0.27621	-1.07320
0.45472	-0.79262
0.40372	-0.07840
-0.08081	1.52859
-0.51434	1.19699
0.22521	-0.02739
0.50573	0.25320
0.63323	0.38074
0.14870	-0.02739
0.17421	1.04394
0.25071	-0.66508
-0.41233	-1.58336
-0.08081	1.12046
0.30171	1.12046
-0.28482	-0.23145
-0.48884	0.63582
0.19971	-0.97117
0.70974	-0.61406
0.83725	3.21210
0.22521	0.96742
0.07220	-3.93007
0.35272	-1.78742
0.27621	0.66132
0.09770	2.14077
-0.10631	1.57960
-0.43783	1.37554
-0.28482	1.09496
-0.33583	0.38074
0.19971	-0.35899
1.06676	-0.25695
0.60773	-0.15492
0.42922	-0.15492
-0.05531	-0.07840
-0.41233	-0.38449
0.19971	0.94191
0.25071	-0.05289
-0.20832	-1.07320
0.17421	-0.66508
0.48022	0.83988
0.78624	0.53379
-0.02981	0.83988
-0.28482	0.40625
-0.08081	1.29902
0.04670	-0.46102
0.25071	-0.51203
0.17421	1.19699
0.22521	-0.71609
0.35272	-0.12942
0.81175	1.19699
0.22521	0.66132
-0.33583	-0.89465
-0.15732	-0.35899
0.12320	0.66132
-0.02981	0.66132
-0.23382	-0.00188
-0.13181	0.25320
0.25071	-0.02739
0.30171	-0.02739
0.32721	-0.41000
0.35272	1.42656
0.65874	-1.04770
0.65874	-0.79262
0.63323	0.43176
-0.38683	1.09496
-0.00431	-0.12942
0.09770	-0.35899
0.86275	-0.18043
-0.64185	1.01843
-0.76936	0.38074
-0.43783	0.83988
-0.02981	1.19699
0.19971	0.04914
0.35272	-1.99148
0.09770	-0.66508
0.68424	0.96742
0.60773	0.73785
0.53123	0.86539
-0.02981	-0.23145
0.07220	-1.04770
0.09770	-0.33348
-0.15732	0.55929
0.37822	0.83988
0.99026	0.66132
0.76074	-0.25695
-0.23382	0.40625
-0.48884	0.27871
-0.61635	-0.02739
-0.38683	0.04914
-0.00431	0.07465
0.17421	0.66132
0.27621	0.04914
0.81175	-0.30797
0.42922	-1.68539
0.27621	-0.35899
-0.18282	0.45726
-0.36133	0.86539
-0.08081	0.91640
0.25071	0.96742
0.32721	0.02363
0.17421	0.32972
0.07220	0.25320
0.35272	1.14597
0.42922	-0.66508
0.02119	-1.35379
-0.05531	0.55929
-0.05531	0.99292
-0.13181	0.04914
0.17421	-2.11902
0.50573	-0.66508
0.12320	-0.02739
0.12320	0.45726
0.12320	0.63582
0.32721	1.01843
-0.05531	1.27351
-0.05531	1.80917
-0.10631	-0.81812
-0.10631	-2.45062
0.09770	0.45726
0.32721	0.61031
0.32721	0.71234
0.25071	-0.18043
0.07220	0.04914
0.55673	0.78886
0.76074	-0.71609
0.70974	-0.35899
-0.13181	0.45726
-0.31033	0.35523
-0.53984	0.96742
-0.13181	0.71234
0.32721	-0.00188
0.27621	-0.38449
0.19971	-0.10391
-0.05531	-0.10391
-0.08081	0.61031
0.60773	0.61031
0.83725	-1.32828
0.37822	-0.35899
-0.23382	0.76336
-0.31033	0.78886
-0.05531	0.71234
-0.15732	0.48277
0.27621	0.91640
0.45472	-0.07840
0.40372	0.20219
0.53123	-1.27726
0.32721	-0.81812
-0.10631	-0.61406
-0.13181	1.75816
-0.43783	-0.25695
-0.20832	-0.18043
0.30171	0.76336
0.12320	0.38074
0.60773	0.58480
1.21977	-0.15492
1.29628	0.25320
0.02119	-0.20594
-0.64185	-0.58856
-1.10088	0.76336
-1.25389	-1.22625
0.09770	0.55929
1.24527	0.76336
1.44929	-0.07840
0.30171	-1.45582
-0.28482	0.25320
-0.41233	0.48277
-0.08081	1.04394
-0.00431	0.99292
-0.15732	0.38074
-0.18282	0.32972
0.27621	-0.25695
1.24527	0.20219
1.16877	0.66132
0.78624	0.43176
0.07220	-0.48652
-0.25932	-0.94566
-0.69285	0.30422
-0.76936	0.07465
-0.48884	-0.05289
0.19971	0.40625
0.88825	1.93671
0.27621	-0.84363
-0.33583	-1.22625
0.12320	0.12566
0.40372	0.02363
0.65874	1.17148
0.14870	0.78886
-0.15732	-0.10391
-0.13181	0.61031
0.22521	0.99292
0.37822	0.96742
0.32721	-0.05289
0.09770	-1.37929
0.12320	-1.07320
-0.05531	0.27871
0.35272	0.45726
0.60773	0.27871
0.12320	0.45726
0.14870	0.35523
-0.23382	0.25320
-0.00431	-0.25695
0.02119	-0.12942
-0.51434	0.61031
0.07220	-0.41000
0.22521	-0.76711
0.60773	0.15117
0.04670	0.50828
0.53123	0.40625
0.32721	0.66132
-0.15732	1.83468
-0.05531	-1.07320
0.12320	-2.39961
0.42922	-0.05289
0.40372	1.14597
0.32721	0.22769
0.19971	-0.00188
0.09770	1.63062
-0.31033	-0.23145
-0.08081	-0.58856
0.17421	0.63582
0.45472	0.02363
0.04670	-0.07840
-0.33583	0.50828
0.14870	-0.63957
0.86275	0.12566
1.04126	0.22769
-0.25932	0.15117
-0.18282	0.30422
-0.38683	0.30422
-0.10631	-0.35899
0.12320	0.25320
0.37822	-0.76711
-0.10631	-0.41000
0.32721	0.66132
0.32721	0.71234
0.48022	0.48277
-0.15732	0.17668
-0.10631	-0.41000
-0.20832	-0.00188
0.17421	-0.12942
0.53123	0.83988
0.55673	0.89089
0.22521	-1.53234
0.60773	-0.23145
0.63323	0.20219
-0.02981	1.14597
-0.69285	1.01843
-0.53984	0.83988
-0.43783	-0.05289
0.22521	0.20219
0.55673	0.40625
0.27621	0.78886
0.40372	-0.53754
-0.13181	-2.27207
0.35272	0.12566
0.63323	-0.00188
0.48022	-0.38449
0.30171	0.35523
-0.02981	0.68683
-0.25932	0.66132
-0.23382	0.63582
-0.20832	1.09496
0.27621	-0.71609
0.48022	0.02363
0.30171	0.17668
0.14870	0.15117
0.27621	0.12566
-0.18282	-0.35899
-0.15732	0.35523
-0.31033	0.27871
-0.10631	0.15117
0.30171	1.01843
0.73524	0.15117
1.04126	-0.07840
1.14327	-0.07840
-0.05531	-0.94566
-0.28482	0.96742
-0.28482	0.25320
-0.31033	0.78886
-0.48884	0.15117
-0.00431	-0.56305
0.14870	0.12566
0.07220	0.45726
0.60773	0.76336
0.60773	0.45726
0.37822	-0.38449
0.22521	-0.35899
0.48022	-0.05289
-0.00431	0.25320
-0.33583	-0.05289
-0.02981	1.14597
-0.18282	-0.86914
0.09770	-0.92016
0.35272	0.40625
0.30171	1.06945
0.19971	0.27871
0.22521	-0.51203
-0.08081	0.40625
-0.02981	0.76336
-0.00431	1.06945
0.40372	0.68683
0.09770	-1.17523
0.30171	-0.81812
0.63323	0.22769
0.50573	0.17668
0.32721	0.66132
-0.46334	0.02363
-0.10631	1.37554
-0.28482	-0.56305
-0.46334	-1.78742
0.37822	0.17668
0.42922	0.43176
0.19971	0.22769
0.19971	0.61031
0.48022	1.19699
0.96476	-0.51203
-0.00431	-0.79262
-0.15732	0.15117
-0.76936	0.12566
-0.13181	1.01843
0.42922	-0.43551
0.45472	-0.76711
0.12320	0.66132
0.02119	0.45726
0.22521	0.66132
0.04670	0.91640
0.25071	0.45726
0.30171	-0.41000
0.04670	-1.25176
-0.00431	-0.66508
0.09770	0.38074
0.65874	0.76336
-0.00431	0.35523
0.09770	0.55929
0.32721	0.30422
0.35272	0.02363
0.37822	0.89089
0.17421	-0.12942
-0.59084	-1.14973
-0.38683	0.04914
0.22521	0.30422
-0.02981	0.48277
0.35272	0.81437
0.58223	0.96742
0.42922	-0.92016
-0.08081	-0.02739
0.27621	0.76336
-0.28482	-0.71609
-0.23382	-0.35899
-0.18282	0.22769
0.42922	0.53379
0.81175	0.96742
0.48022	1.68163
-0.13181	0.35523
-0.25932	0.07465
0.02119	0.15117
0.50573	-2.90976
0.32721	-0.41000
-0.00431	0.83988
-0.00431	0.35523
0.22521	-0.18043
0.09770	0.73785
0.19971	0.89089
0.17421	0.91640
0.42922	-0.12942
0.48022	-0.41000
0.32721	0.66132
-0.69285	-0.97117
-0.48884	0.12566
-0.00431	0.20219
1.06676	0.38074
0.40372	0.76336
-0.13181	-0.43551
0.17421	-0.25695
0.12320	0.20219
0.42922	0.15117
0.30171	0.25320
-0.20832	-0.05289
-0.64185	0.07465
-0.33583	-0.12942
-0.23382	-0.23145
0.35272	0.32972
1.57679	0.55929
1.65330	0.61031
0.55673	0.02363
-0.46334	-0.12942
-0.53984	0.48277
-0.74385	-0.00188
-0.41233	0.12566
-0.20832	0.50828
0.40372	1.73265
0.48022	-0.99668
0.63323	-0.97117
0.53123	0.35523
0.22521	-0.05289
0.09770	-0.00188
0.09770	0.83988
0.17421	-0.02739
0.09770	-0.18043
0.32721	1.27351
0.45472	-0.12942
0.83725	-0.00188
-0.31033	0.83988
-0.46334	-0.71609
-0.10631	0.22769
-0.10631	0.32972
-0.18282	0.25320
-0.05531	-0.38449
0.04670	-0.43551
-0.18282	-0.15492
-0.08081	-0.10391
0.55673	0.86539
0.65874	-0.02739
1.39828	-0.05289
0.53123	-0.28246
0.32721	-0.00188
0.02119	0.55929
-0.43783	1.17148
-0.33583	-0.33348
-0.48884	-1.53234
0.14870	0.40625
0.42922	1.45206
0.63323	0.32972
0.25071	0.66132
0.12320	0.78886
0.09770	-1.65988
0.22521	-0.71609
0.17421	0.61031
-0.25932	0.48277
-0.23382	1.12046
0.35272	0.50828
0.78624	-0.69059
0.42922	0.55929
0.04670	0.48277
-0.23382	-0.02739
-0.13181	0.02363
-0.08081	0.30422
0.42922	-0.07840
-0.05531	-0.41000
0.17421	0.07465
0.45472	0.20219
0.42922	0.35523
0.22521	0.30422
0.02119	0.10015
0.04670	0.04914
0.02119	0.35523
-0.53984	0.50828
-0.18282	-0.12942
0.55673	-1.30277
1.11776	0.12566
0.65874	0.66132
0.42922	1.24800
-0.13181	1.98773
-0.33583	-0.25695
-0.53984	-2.78222
-0.33583	0.15117
0.12320	0.53379
0.22521	0.78886
0.96476	0.89089
0.53123	0.15117
0.02119	0.32972
-0.02981	0.38074
0.14870	0.32972
-0.00431	0.32972
0.37822	0.58480
0.32721	-1.22625
0.14870	-1.04770
0.04670	0.22769
-0.25932	0.58480
-0.08081	0.71234
0.04670	-0.30797
-0.15732	-0.07840
-0.02981	0.32972
0.19971	0.38074
0.55673	0.55929
0.81175	0.30422
1.16877	0.55929
0.19971	0.32972
-0.10631	1.32453
-0.31033	-1.37929
-0.41233	-1.86394
-0.41233	0.61031
-0.08081	0.17668
-0.02981	0.15117
0.25071	0.30422
0.37822	0.71234
0.32721	1.63062
0.40372	0.15117
0.22521	-0.18043
