0.25071	-0.51203
0.22521	1.17148
0.40372	-0.38449
0.25071	-0.56305
0.19971	-0.33348
0.02119	-0.58856
-0.10631	0.76336
-0.02981	0.15117
0.02119	0.10015
0.02119	0.32972
0.27621	0.91640
0.27621	0.15117
0.37822	-0.02739
0.30171	-0.00188
0.07220	0.53379
0.02119	0.15117
0.12320	-0.63957
-0.05531	0.45726
0.02119	0.15117
0.09770	0.35523
0.19971	0.15117
0.32721	0.66132
0.25071	0.48277
0.19971	-0.76711
0.22521	-0.43551
0.04670	0.55929
0.07220	0.71234
-0.05531	-0.61406
-0.00431	0.43176
0.25071	0.53379
0.32721	-0.58856
0.17421	-0.07840
0.25071	0.73785
0.17421	0.15117
0.02119	-0.02739
0.12320	-0.33348
-0.08081	0.30422
-0.10631	0.55929
0.19971	0.94191
0.22521	-0.18043
0.25071	-0.30797
0.27621	0.27871
0.35272	0.22769
0.19971	-0.28246
0.19971	-0.12942
0.14870	0.89089
0.02119	0.43176
-0.10631	-0.23145
-0.00431	0.30422
0.12320	-0.25695
0.25071	-0.81812
0.27621	0.55929
0.30171	0.89089
0.30171	0.66132
0.17421	-0.30797
0.07220	0.20219
0.09770	-0.35899
-0.05531	-0.41000
0.07220	0.22769
0.14870	0.61031
0.25071	0.45726
0.25071	-0.51203
0.14870	1.65613
0.17421	0.58480
0.09770	-0.76711
0.04670	-0.20594
0.19971	0.12566
0.09770	0.40625
-0.08081	-0.71609
0.22521	0.27871
0.27621	-0.35899
0.17421	1.06945
0.22521	0.32972
0.19971	-0.61406
0.07220	0.40625
0.02119	-0.35899
0.07220	-0.15492
-0.05531	0.20219
0.02119	0.53379
0.09770	0.45726
0.19971	0.22769
0.32721	-0.92016
0.40372	1.78367
0.12320	1.14597
0.14870	-0.51203
0.12320	-0.71609
0.02119	-0.51203
-0.10631	-0.05289
-0.13181	0.68683
0.22521	0.78886
0.25071	0.10015
0.22521	-0.35899
0.48022	-0.56305
0.30171	0.02363
0.02119	-0.30797
0.02119	1.19699
0.12320	0.53379
-0.05531	-0.56305
-0.05531	1.93671
0.07220	-0.63957
0.22521	-0.63957
0.32721	1.06945
0.30171	-0.92016
0.19971	-0.18043
0.09770	0.38074
0.12320	0.20219
0.12320	0.02363
-0.02981	-0.00188
-0.00431	0.17668
0.02119	0.58480
0.25071	-1.20074
0.27621	1.35003
0.32721	1.42656
0.14870	-0.46102
-0.00431	-0.35899
0.04670	-0.30797
0.14870	0.27871
0.14870	0.10015
0.09770	0.43176
-0.02981	-0.15492
0.19971	-0.12942
0.27621	0.38074
0.19971	0.32972
0.14870	-0.05289
0.09770	0.40625
0.09770	0.71234
0.12320	0.04914
-0.00431	0.22769
-0.00431	-0.28246
0.14870	-0.66508
0.35272	0.02363
0.32721	0.58480
0.27621	0.35523
0.17421	0.27871
0.17421	0.10015
0.09770	0.17668
0.07220	-1.60887
0.07220	1.12046
0.07220	2.26831
-0.00431	-0.81812
0.27621	0.04914
0.30171	-0.20594
0.32721	-0.18043
0.12320	-0.51203
0.04670	0.45726
0.19971	0.22769
-0.00431	-0.07840
0.09770	0.17668
0.02119	0.43176
0.14870	0.50828
0.22521	-0.05289
0.42922	-0.18043
0.22521	-0.53754
0.22521	0.66132
0.22521	0.48277
-0.05531	1.04394
0.07220	0.27871
-0.02981	-0.58856
-0.10631	0.20219
0.22521	-0.94566
0.35272	1.12046
0.25071	0.20219
0.27621	-0.20594
0.12320	0.30422
0.32721	1.47757
-0.00431	-1.20074
0.12320	-0.35899
-0.08081	0.83988
0.07220	-0.02739
0.07220	0.04914
0.27621	0.04914
0.27621	0.20219
0.37822	0.27871
0.14870	-0.97117
0.19971	0.71234
0.07220	0.53379
-0.02981	0.32972
0.04670	0.02363
-0.05531	0.15117
0.09770	0.63582
0.30171	0.25320
0.19971	-0.02739
0.22521	-0.02739
0.17421	-0.10391
0.12320	-0.15492
0.22521	0.66132
0.07220	-0.30797
0.04670	0.10015
-0.05531	0.15117
0.02119	0.10015
0.25071	0.35523
0.27621	-0.10391
0.25071	-0.07840
0.30171	0.86539
0.07220	0.27871
0.09770	0.10015
0.12320	0.10015
-0.05531	-0.46102
0.12320	-0.23145
0.07220	0.89089
0.27621	-0.10391
0.22521	-0.23145
0.32721	0.20219
0.19971	0.27871
0.12320	0.81437
0.04670	0.35523
-0.02981	0.53379
0.02119	0.04914
0.02119	-1.48133
0.12320	-0.05289
0.32721	2.39585
0.14870	0.55929
0.17421	-0.35899
0.14870	0.30422
0.12320	0.27871
0.12320	-0.74160
0.12320	-0.20594
-0.00431	-0.02739
0.12320	0.48277
0.12320	-0.25695
0.27621	0.78886
0.32721	0.81437
0.22521	-0.18043
0.25071	-0.02739
0.07220	0.15117
0.12320	0.20219
0.09770	0.15117
0.02119	-0.38449
0.04670	0.63582
0.02119	0.32972
0.14870	-0.28246
0.32721	0.38074
0.22521	-0.15492
0.09770	-0.02739
0.19971	-0.05289
0.02119	-0.92016
0.07220	0.45726
0.07220	1.12046
-0.00431	0.30422
0.04670	0.02363
0.30171	0.25320
0.42922	-0.25695
0.32721	0.07465
0.27621	-0.02739
0.02119	0.40625
0.14870	-0.10391
0.04670	-0.56305
0.02119	0.81437
-0.08081	0.50828
0.02119	0.55929
0.30171	0.25320
0.25071	0.12566
0.27621	-0.20594
0.27621	0.12566
0.14870	-0.07840
0.12320	0.30422
0.02119	0.04914
-0.10631	-0.56305
-0.05531	0.04914
0.19971	0.68683
0.17421	-0.00188
0.32721	0.12566
0.40372	0.22769
0.27621	0.30422
0.17421	-0.15492
0.09770	0.73785
0.07220	0.45726
-0.02981	-1.07320
-0.08081	0.63582
0.19971	0.25320
0.25071	0.15117
0.27621	0.04914
0.27621	0.04914
0.09770	0.04914
0.14870	0.25320
0.17421	0.07465
-0.02981	0.20219
0.07220	0.20219
-0.00431	0.07465
0.14870	0.68683
0.25071	-0.00188
0.09770	-0.51203
0.22521	0.35523
0.37822	0.38074
0.17421	-0.00188
0.25071	-0.00188
0.07220	-0.05289
-0.25932	0.55929
0.02119	0.22769
0.12320	-0.94566
0.27621	0.43176
0.45472	0.45726
0.37822	0.32972
0.17421	0.35523
0.12320	0.48277
-0.08081	0.25320
-0.00431	-0.23145
0.02119	-0.05289
0.02119	0.07465
0.07220	0.04914
0.32721	0.91640
0.27621	-0.58856
0.19971	-0.66508
0.19971	0.53379
0.04670	0.15117
0.17421	0.35523
0.22521	0.20219
0.14870	0.22769
-0.20832	0.27871
-0.10631	1.24800
0.17421	1.01843
0.27621	-1.25176
0.22521	-1.14973
0.22521	-0.15492
0.30171	-0.18043
0.17421	1.19699
-0.00431	0.66132
-0.05531	0.43176
0.07220	-0.30797
0.12320	-0.10391
0.30171	-0.86914
0.22521	0.43176
0.12320	1.37554
0.32721	1.78367
0.02119	-1.12422
0.40372	-0.86914
-0.10631	-0.15492
-0.28482	-0.46102
0.12320	0.40625
0.02119	0.53379
0.17421	0.63582
0.09770	0.35523
0.19971	-0.86914
0.32721	-0.61406
0.22521	0.71234
0.37822	0.53379
0.40372	0.15117
0.02119	0.45726
-0.13181	-0.15492
-0.00431	0.96742
0.30171	2.24281
0.17421	-2.17003
0.32721	-3.59847
0.02119	-1.35379
0.30171	1.78367
0.35272	1.88570
-0.18282	0.55929
-0.36133	1.19699
-0.02981	0.91640
0.19971	0.76336
0.48022	0.35523
0.83725	-0.30797
-0.28482	-0.81812
-0.10631	-0.76711
0.32721	0.43176
0.07220	0.61031
-0.02981	-2.19554
0.42922	-0.56305
0.19971	0.91640
-0.18282	1.68163
-0.00431	1.17148
0.04670	-0.25695
0.58223	0.45726
0.35272	0.94191
0.04670	-0.18043
-0.08081	-0.86914
-0.05531	-1.91496
0.22521	0.91640
0.83725	-0.07840
0.40372	-0.69059
0.42922	0.99292
-0.02981	-0.02739
-0.48884	1.55410
-0.08081	0.89089
0.22521	-0.43551
0.22521	0.30422
0.53123	-1.25176
-0.15732	-0.46102
0.32721	1.47757
0.17421	-0.15492
0.58223	-0.15492
0.42922	0.32972
-0.08081	1.73265
-0.13181	0.20219
-0.33583	-0.66508
-0.59084	1.86019
-0.05531	-0.43551
0.17421	-2.01699
0.48022	-0.00188
0.78624	-1.27726
-0.51434	0.96742
0.25071	2.75296
0.45472	-0.00188
1.21977	-2.93527
1.60230	0.55929
-0.08081	0.50828
-0.38683	-0.71609
-0.18282	1.17148
-0.48884	1.24800
-1.07538	0.10015
-0.31033	0.30422
0.02119	-0.46102
-0.23382	-0.15492
0.14870	0.50828
0.53123	-0.12942
1.80631	0.27871
1.32178	0.25320
0.32721	1.12046
-0.43783	-0.51203
-0.38683	0.78886
-0.20832	-0.25695
0.27621	-1.76191
0.58223	-0.69059
0.45472	0.94191
-0.13181	-0.07840
-0.64185	0.86539
-0.51434	-0.71609
-0.10631	0.94191
0.14870	0.76336
-0.00431	0.32972
0.45472	1.04394
0.88825	0.86539
-0.10631	0.32972
0.27621	0.91640
0.35272	-1.14973
0.32721	-0.46102
-0.15732	-1.22625
0.02119	-0.94566
0.07220	0.66132
0.78624	0.68683
0.63323	1.01843
-0.00431	0.89089
-0.38683	1.14597
-0.53984	0.25320
-0.33583	-2.52714
-0.31033	-1.07320
0.76074	0.48277
0.76074	1.04394
0.93925	0.99292
0.14870	0.86539
-0.51434	1.50308
-0.31033	0.07465
0.04670	-1.12422
0.27621	1.47757
0.73524	0.86539
0.35272	-3.72601
-0.02981	-0.97117
0.07220	-0.66508
-0.33583	0.76336
0.12320	4.43647
-0.13181	1.27351
-0.18282	-1.53234
0.25071	0.40625
0.73524	-0.30797
0.99026	0.45726
0.32721	-0.25695
-0.28482	0.02363
-0.08081	0.45726
0.04670	0.32972
-0.08081	1.40105
-0.66735	0.40625
-0.64185	0.91640
0.14870	0.02363
0.60773	-2.32308
1.11776	-2.52714
0.83725	-0.38449
0.76074	0.73785
0.32721	1.73265
-0.79486	1.93671
-1.35589	1.45206
-0.00431	3.77327
0.78624	-2.75671
1.72980	-6.22577
1.01576	-1.17523
-0.18282	0.89089
-0.89686	1.04394
-0.08081	3.46718
0.02119	1.55410
-0.99887	-1.07320
-1.17738	0.53379
-0.33583	1.37554
1.52579	-1.48133
2.01032	-0.99668
1.88281	1.01843
-0.25932	-0.99668
-0.84586	-0.84363
-0.99887	-0.00188
-1.20288	0.89089
-0.48884	0.63582
0.70974	0.22769
1.75531	0.10015
1.57679	0.66132
0.73524	0.04914
0.19971	0.35523
-0.79486	-1.68539
-0.82036	-1.04770
-0.28482	1.68163
0.22521	0.45726
0.09770	-1.65988
0.25071	1.22250
0.58223	0.73785
-0.05531	1.22250
-0.56534	0.04914
-0.28482	0.40625
0.60773	0.76336
-0.05531	-2.11902
0.14870	0.71234
0.14870	1.35003
0.50573	-1.14973
1.27078	1.17148
0.91375	-0.38449
0.78624	-0.23145
-0.18282	0.15117
-0.51434	1.22250
-0.53984	-1.58336
0.25071	-0.69059
0.42922	1.04394
-0.08081	1.35003
-0.51434	0.73785
-0.69285	0.30422
-0.38683	-0.48652
-0.10631	0.53379
0.63323	1.60511
0.58223	-0.86914
0.63323	-0.86914
0.96476	-0.48652
0.02119	0.25320
-0.18282	-3.72601
0.07220	1.17148
1.04126	2.65093
1.47479	0.45726
-0.20832	1.52859
-0.71835	0.22769
-0.61635	-0.33348
-0.59084	0.55929
-0.33583	-0.46102
0.04670	-0.20594
0.07220	0.20219
0.27621	-0.15492
1.11776	0.83988
0.83725	1.73265
0.30171	-0.07840
0.55673	-0.05289
0.04670	-2.29757
0.83725	-2.14453
0.42922	0.02363
-0.41233	0.43176
-1.10088	1.55410
-1.12638	1.73265
-0.64185	0.78886
0.04670	2.01323
-0.00431	-1.02219
-0.13181	2.93151
0.32721	-3.95558
0.83725	-4.33819
1.11776	0.76336
1.98482	1.42656
1.78081	1.70714
0.07220	4.46198
-0.82036	0.48277
-0.59084	-2.50164
-0.51434	-0.99668
-0.56534	-0.15492
-0.25932	0.63582
-0.28482	0.66132
-0.18282	0.68683
-0.23382	-0.99668
0.55673	0.20219
1.65330	1.22250
2.03582	1.14597
0.58223	-0.33348
0.19971	0.83988
-0.64185	0.27871
-1.10088	0.55929
-0.92237	-3.90456
-0.48884	-0.71609
0.68424	0.07465
0.73524	-0.10391
-0.43783	2.54890
-0.82036	1.06945
-0.66735	-1.83844
0.22521	1.17148
1.27078	0.96742
0.53123	2.85499
0.68424	-2.32308
0.81175	-2.17003
1.50029	0.55929
0.30171	0.91640
-0.69285	0.68683
-0.69285	0.53379
-0.10631	0.35523
-0.28482	0.07465
-0.76936	-0.05289
-0.38683	-0.51203
0.12320	-0.05289
1.42379	-0.15492
1.21977	0.48277
0.63323	-2.83324
-0.20832	-1.58336
-0.61635	1.01843
-0.69285	2.85499
-0.53984	2.52339
-0.18282	-1.94047
1.27078	-0.05289
0.91375	0.32972
1.37278	1.04394
0.12320	1.37554
-0.46334	1.24800
-0.94787	-1.48133
-0.36133	-0.07840
0.78624	-0.05289
1.27078	1.42656
-0.43783	0.04914
-0.61635	-1.71090
0.35272	-1.63437
1.27078	0.12566
-0.69285	0.45726
-0.53984	1.27351
-0.13181	2.93151
0.02119	-1.09871
-0.33583	-1.91496
0.73524	1.65613
1.34728	0.83988
1.01576	0.10015
1.21977	0.58480
0.09770	-0.02739
-0.97337	1.86019
-1.63641	1.17148
-1.76392	-1.22625
-1.66191	-3.31788
0.35272	-4.10862
1.95932	1.78367
2.23984	2.16628
1.93382	4.38546
0.53123	-0.38449
-0.31033	-1.53234
-0.66735	1.57960
-0.97337	1.83468
-0.61635	-1.02219
-0.84586	-1.88945
0.53123	-0.71609
1.42379	0.25320
0.88825	0.35523
0.93925	2.57441
0.04670	1.19699
-0.15732	-2.88425
-0.79486	-0.97117
-1.55991	0.91640
-0.94787	-0.07840
0.45472	0.76336
1.29628	2.03874
2.03582	-1.22625
0.65874	-2.98628
-0.08081	0.43176
0.22521	2.29382
-0.59084	2.11527
-0.89686	1.52859
-2.14644	-1.40480
-0.84586	-0.92016
0.12320	0.02363
1.32178	-1.07320
2.44385	1.86019
2.49485	1.65613
1.42379	-1.60887
-0.48884	0.48277
-1.17738	1.04394
-1.55991	-0.38449
-0.89686	0.07465
-0.33583	0.71234
-0.05531	-0.25695
0.37822	-1.94047
0.37822	-0.66508
0.68424	0.86539
0.60773	0.35523
-0.02981	0.10015
0.53123	1.52859
0.96476	6.91072
1.29628	-3.70050
-0.02981	-5.48604
-0.10631	1.17148
0.14870	0.76336
0.17421	-0.25695
-1.43240	0.91640
-1.07538	2.08976
-0.33583	1.65613
-0.25932	-0.23145
-0.10631	1.06945
-0.36133	-0.76711
0.65874	-0.02739
0.93925	-0.00188
0.70974	-1.20074
1.24527	0.61031
1.67880	1.06945
0.12320	-1.91496
-0.84586	-2.70570
-0.74385	1.52859
-0.15732	-0.05289
1.21977	2.90601
1.04126	2.65093
0.48022	-4.72081
-0.15732	-0.74160
-0.94787	0.99292
-0.89686	1.47757
-0.53984	-0.61406
-0.33583	1.06945
-0.13181	2.49788
0.02119	1.63062
0.30171	0.83988
1.14327	-1.48133
0.88825	0.48277
1.27078	-0.25695
1.32178	-1.35379
0.30171	-0.43551
-0.38683	-0.53754
-0.46334	0.40625
-0.92237	1.42656
-0.97337	0.17668
-1.58541	-3.03730
-0.38683	0.32972
1.01576	-0.97117
2.90288	0.12566
1.39828	1.29902
0.40372	3.11007
-0.61635	-0.48652
-0.38683	-0.69059
-0.25932	0.83988
-0.28482	0.17668
-0.53984	0.86539
-0.46334	1.09496
0.17421	-0.84363
0.55673	-1.17523
0.70974	-0.20594
0.12320	0.55929
-0.10631	0.58480
0.07220	0.73785
0.78624	0.30422
0.45472	2.85499
0.35272	-1.07320
0.14870	-3.19035
-0.23382	-0.79262
0.09770	-1.12422
-0.02981	0.83988
0.30171	2.08976
0.12320	-0.28246
0.40372	0.61031
-0.05531	1.80917
-0.64185	-2.14453
-0.87136	0.04914
-0.43783	1.17148
0.22521	1.27351
0.50573	0.96742
0.63323	1.78367
0.63323	-0.94566
0.91375	-0.07840
0.12320	-0.56305
-0.53984	0.40625
-0.13181	-4.13413
0.42922	-1.71090
1.04126	0.76336
1.32178	1.65613
-0.13181	1.45206
-0.56534	3.03355
-0.36133	-0.69059
-0.20832	0.02363
-0.13181	-0.25695
-0.59084	1.14597
0.04670	-0.74160
0.86275	-2.65468
1.57679	0.99292
0.22521	0.10015
0.27621	1.50308
-0.20832	1.29902
-0.56534	1.57960
-0.56534	-2.50164
-0.61635	-2.55265
-0.66735	2.29382
0.73524	-1.04770
0.45472	-0.05289
0.35272	4.00284
0.42922	-0.51203
1.21977	-0.25695
1.42379	1.06945
0.50573	-0.25695
-0.20832	0.76336
-0.36133	0.45726
-0.71835	0.07465
-0.84586	-0.84363
0.58223	-0.33348
0.45472	-0.99668
1.11776	-0.38449
0.14870	1.19699
-0.48884	-0.28246
0.07220	-1.17523
0.37822	-0.00188
-0.20832	0.76336
-0.59084	0.96742
-0.28482	0.61031
-0.43783	1.70714
0.27621	-0.25695
1.11776	-2.22105
1.16877	-3.29238
1.32178	0.04914
-0.18282	2.39585
-0.51434	1.42656
-0.13181	0.63582
-0.64185	-0.94566
-0.38683	-0.94566
-0.33583	2.01323
-0.00431	0.22769
0.53123	-0.02739
0.83725	-1.27726
0.60773	-1.07320
0.48022	0.48277
0.42922	1.17148
0.19971	0.40625
-0.64185	2.77847
0.19971	-1.37929
-0.28482	-2.68019
0.17421	0.30422
0.73524	1.55410
0.27621	-0.71609
0.14870	1.78367
-0.00431	-1.50683
0.25071	-1.68539
0.22521	0.86539
-0.28482	0.25320
-0.59084	1.55410
-0.36133	1.75816
-0.05531	-0.30797
-0.23382	-0.30797
-0.20832	-1.83844
0.37822	0.15117
0.93925	1.65613
0.70974	0.89089
0.76074	-2.22105
1.01576	0.55929
0.17421	1.22250
-0.18282	1.37554
-0.69285	0.71234
-0.05531	1.63062
0.07220	-0.10391
-0.36133	-2.39961
-0.08081	-1.37929
0.07220	-0.48652
0.25071	-1.12422
0.81175	1.22250
0.63323	1.27351
-0.02981	0.81437
-0.08081	1.14597
-0.02981	0.99292
0.32721	-0.69059
0.35272	0.58480
0.32721	0.68683
0.02119	-2.11902
-0.13181	-0.76711
-0.51434	-0.48652
-0.20832	0.10015
-0.28482	1.04394
-0.56534	1.24800
0.60773	0.68683
0.93925	-0.15492
1.39828	-0.51203
0.45472	-1.68539
0.60773	2.54890
-0.02981	-0.51203
-0.15732	-1.30277
-0.10631	0.53379
-0.76936	1.09496
-0.00431	1.22250
-0.28482	2.67644
0.37822	-2.73121
0.32721	-0.15492
0.40372	0.50828
0.53123	0.76336
0.12320	0.68683
-0.23382	-1.86394
-0.89686	0.48277
0.19971	-0.58856
0.53123	-1.53234
0.83725	-1.02219
0.53123	0.91640
-0.36133	1.52859
0.19971	1.22250
-0.15732	-0.48652
0.53123	0.32972
0.32721	1.60511
0.30171	-0.56305
-0.13181	-2.88425
0.22521	1.63062
-0.18282	-1.32828
0.68424	0.32972
-0.25932	0.71234
-0.28482	0.27871
-0.05531	0.45726
-0.18282	1.78367
0.04670	0.73785
0.09770	-0.92016
-0.02981	1.83468
0.02119	-1.99148
0.70974	-2.17003
1.37278	0.91640
0.78624	1.04394
0.22521	1.70714
-0.41233	-0.53754
-0.00431	-2.73121
0.07220	-0.76711
-0.28482	2.59991
-0.74385	1.98773
-0.23382	-0.56305
0.02119	1.37554
0.37822	0.22769
1.01576	0.43176
1.90832	-1.14973
0.99026	-1.07320
0.25071	1.24800
-0.87136	0.12566
-0.97337	-1.32828
-0.71835	0.32972
-0.43783	0.94191
0.32721	1.35003
-0.66735	-0.15492
-0.71835	-0.61406
-0.00431	0.25320
0.32721	-1.07320
1.29628	-0.30797
1.67880	0.15117
1.75531	3.21210
0.73524	0.22769
-0.48884	-2.06800
-0.76936	-1.32828
-0.43783	-0.28246
-0.38683	1.37554
-0.10631	1.40105
-0.28482	0.61031
0.45472	2.67644
0.86275	0.71234
0.02119	-4.03210
-0.13181	-0.56305
-0.18282	4.51299
-0.36133	-1.68539
0.42922	-5.61358
0.81175	0.15117
0.58223	0.86539
0.27621	0.89089
-0.10631	2.59991
-0.71835	0.35523
-0.99887	0.02363
-0.20832	0.81437
1.37278	0.35523
1.47479	0.32972
0.93925	1.40105
0.09770	-1.35379
-0.38683	-2.09351
-0.74385	1.83468
-0.41233	-1.73640
0.02119	-2.50164
0.14870	0.38074
-0.13181	1.09496
0.25071	1.35003
0.22521	2.11527
0.32721	0.91640
0.17421	0.40625
-0.25932	0.43176
-0.05531	-2.80773
0.30171	-0.25695
0.65874	1.50308
0.73524	1.27351
1.09226	-1.17523
0.63323	-0.18043
-0.13181	0.04914
-0.10631	0.04914
-0.18282	0.73785
-0.74385	-1.25176
-0.31033	-1.40480
0.53123	0.83988
0.25071	1.83468
-0.05531	1.27351
-0.48884	-0.25695
-0.18282	-0.38449
-0.15732	-0.05289
1.19427	0.53379
0.99026	-1.32828
1.37278	0.17668
0.09770	-0.28246
-0.51434	0.86539
-0.41233	1.29902
-0.89686	0.83988
-0.69285	0.40625
-0.51434	0.91640
0.07220	3.03355
0.70974	-3.06281
0.81175	-4.44022
0.30171	0.38074
0.22521	1.45206
-0.20832	0.02363
0.02119	0.76336
0.35272	1.96222
0.42922	-1.12422
0.42922	-0.23145
0.17421	0.45726
0.32721	-0.71609
1.09226	1.22250
1.88281	1.17148
0.93925	-0.89465
-1.12638	-0.12942
-1.38139	-0.35899
-1.10088	0.07465
-0.53984	1.37554
-0.08081	0.86539
-0.33583	0.76336
-0.33583	-1.86394
0.09770	-2.60367
2.23984	1.14597
1.19427	0.94191
0.70974	0.94191
0.19971	0.38074
-0.43783	-0.07840
-0.53984	0.81437
-0.79486	0.58480
-0.38683	0.66132
0.14870	-0.07840
0.70974	-0.10391
0.58223	-1.43031
0.68424	-0.30797
0.42922	0.45726
0.02119	2.14077
-0.64185	-1.63437
-0.74385	-0.86914
-0.25932	1.42656
0.37822	2.52339
0.40372	-0.79262
0.63323	-0.43551
0.63323	-0.97117
0.42922	0.76336
0.70974	1.09496
1.52579	-0.71609
0.76074	0.22769
-0.08081	0.30422
-0.94787	0.76336
-1.35589	0.68683
-0.97337	2.26831
-0.64185	-0.63957
-0.99887	-0.33348
0.73524	-2.04250
1.24527	0.20219
1.55129	0.50828
0.93925	0.53379
0.78624	-0.05289
-0.18282	0.04914
-0.74385	0.32972
-0.31033	0.68683
0.17421	0.55929
0.27621	-0.18043
0.19971	0.38074
-0.66735	-0.30797
0.58223	0.55929
0.14870	0.04914
0.27621	-1.32828
0.40372	-0.25695
0.27621	-0.38449
0.63323	0.58480
-0.08081	0.43176
0.14870	-0.51203
-0.20832	0.99292
-0.36133	0.96742
-0.23382	0.94191
-0.13181	0.76336
0.04670	-0.38449
0.14870	-0.12942
0.96476	-0.05289
1.32178	0.94191
1.50029	-0.00188
-0.46334	-0.71609
-0.71835	-0.53754
-0.51434	1.40105
-0.56534	-3.24136
-0.08081	-0.10391
-0.18282	0.66132
0.83725	1.70714
0.58223	0.45726
0.50573	-0.25695
0.42922	0.94191
-0.71835	0.15117
-0.41233	0.30422
0.02119	1.01843
0.25071	-0.15492
0.35272	-0.43551
0.17421	0.48277
0.09770	0.27871
0.27621	-0.94566
0.73524	-0.10391
0.32721	0.07465
0.17421	-0.33348
-0.38683	0.32972
-0.23382	1.12046
0.30171	1.32453
0.53123	-1.37929
0.50573	-0.25695
-0.33583	0.48277
-0.25932	0.48277
0.73524	0.35523
0.63323	-1.09871
-0.05531	0.04914
-0.48884	-0.15492
-0.48884	1.22250
-0.15732	0.94191
-0.13181	0.63582
-0.13181	0.30422
-0.02981	0.22769
0.12320	0.15117
0.83725	-0.35899
0.78624	-0.53754
0.32721	-0.46102
0.50573	1.60511
0.07220	-1.55785
0.83725	-1.63437
0.22521	0.81437
-0.10631	1.12046
0.25071	-0.61406
0.50573	-2.57816
0.60773	1.22250
0.40372	2.21730
-1.02437	0.15117
-1.33039	1.83468
-0.61635	1.32453
0.09770	-1.30277
0.78624	0.04914
0.09770	-0.33348
0.22521	1.27351
0.55673	0.25320
0.32721	-1.94047
0.32721	-0.05289
-0.36133	0.22769
-0.69285	0.53379
0.42922	1.50308
0.58223	-0.69059
1.37278	-1.50683
1.01576	1.06945
0.83725	0.66132
-0.31033	-0.28246
-0.51434	-0.41000
-0.31033	0.45726
-0.15732	1.01843
-0.36133	-0.02739
-0.08081	-0.07840
0.25071	1.57960
0.37822	1.91120
0.19971	-2.96078
-0.25932	-1.37929
0.35272	0.45726
0.37822	-1.27726
0.19971	1.35003
0.09770	1.35003
0.53123	1.27351
0.70974	2.37034
0.22521	-1.48133
0.42922	-1.25176
0.02119	0.61031
-0.28482	0.89089
-1.02437	-0.05289
-0.89686	-0.35899
-0.02981	0.58480
0.70974	-0.71609
0.99026	-0.05289
0.17421	0.25320
0.53123	-0.05289
0.32721	-0.18043
-0.00431	0.40625
-0.38683	0.48277
-0.00431	1.12046
0.53123	0.25320
0.99026	0.71234
0.32721	0.17668
-0.05531	-1.96597
-0.00431	-0.86914
-0.08081	0.30422
-0.36133	0.40625
-0.53984	0.38074
-0.59084	3.00804
0.27621	-0.41000
1.34728	-2.50164
1.98482	2.59991
0.73524	-2.70570
0.07220	-0.15492
-0.41233	1.24800
-0.79486	2.34484
-0.92237	-0.12942
-1.02437	-0.18043
-0.46334	0.10015
0.07220	0.17668
0.73524	0.17668
1.34728	-0.51203
1.57679	0.30422
0.83725	0.61031
-0.23382	-0.74160
-0.87136	-1.27726
-0.00431	-0.12942
0.02119	0.25320
0.09770	0.43176
-0.13181	1.57960
-0.10631	0.04914
0.27621	-1.60887
0.50573	0.71234
1.04126	-0.00188
-0.05531	0.45726
-0.74385	0.68683
-0.02981	-0.46102
0.30171	2.24281
0.86275	-0.92016
0.19971	-1.37929
-0.59084	-0.46102
-0.51434	0.76336
-0.02981	1.37554
0.17421	-0.46102
0.19971	1.09496
0.19971	-0.97117
-0.08081	-0.69059
0.04670	-0.30797
0.45472	0.86539
0.42922	0.86539
0.99026	0.55929
1.21977	0.15117
0.04670	0.20219
-0.61635	-0.07840
-0.46334	-0.43551
0.25071	0.61031
-0.10631	-0.94566
0.22521	-0.94566
0.07220	-0.25695
-0.28482	0.86539
-0.08081	1.04394
-0.08081	0.55929
-0.61635	-0.00188
-0.41233	0.27871
0.27621	0.32972
0.32721	0.48277
1.14327	0.32972
1.50029	-0.15492
0.73524	-0.46102
0.07220	0.27871
-0.31033	2.03874
-0.48884	0.48277
-0.18282	-2.52714
0.60773	-1.27726
0.19971	2.47238
-0.05531	1.45206
-0.28482	-2.96078
-0.56534	-0.15492
-0.69285	3.11007
-0.25932	0.73785
0.42922	-1.07320
1.09226	0.12566
0.99026	3.87530
0.53123	-4.18515
0.07220	-2.73121
0.30171	1.86019
0.50573	1.98773
0.76074	1.04394
-0.10631	2.54890
-0.89686	-0.61406
-0.92237	-4.00659
0.02119	-0.46102
0.30171	0.10015
0.17421	0.76336
0.17421	0.27871
0.65874	0.20219
0.63323	0.45726
0.45472	0.71234
0.09770	0.17668
-0.33583	2.21730
-0.41233	-1.58336
0.58223	-3.31788
0.63323	-0.84363
0.73524	1.42656
0.19971	0.12566
-0.02981	1.57960
-0.10631	1.45206
-0.36133	0.94191
-0.89686	1.63062
-0.76936	-0.56305
-0.94787	-1.81293
0.14870	0.76336
0.83725	0.22769
1.32178	0.27871
1.55129	-0.20594
1.11776	-1.27726
0.73524	0.55929
-0.18282	-0.41000
-0.41233	-0.56305
-0.25932	0.89089
-0.08081	0.73785
-0.08081	0.25320
-0.02981	0.32972
-0.15732	0.73785
-0.23382	-0.38449
-0.25932	-0.76711
0.22521	0.07465
0.32721	0.73785
0.30171	0.30422
0.53123	-0.02739
0.19971	-1.45582
0.17421	-0.74160
0.07220	0.94191
0.04670	2.59991
0.17421	0.91640
0.35272	-1.37929
0.70974	-0.86914
1.01576	0.63582
0.53123	-0.63957
-0.18282	2.44687
-0.82036	0.35523
-0.38683	0.25320
-0.08081	0.76336
0.17421	-1.35379
-0.48884	-0.74160
-0.10631	-0.35899
0.45472	0.22769
0.73524	0.55929
0.07220	0.45726
0.07220	0.61031
-0.10631	0.35523
0.14870	0.73785
0.65874	0.71234
0.55673	-1.94047
-0.23382	-0.63957
0.09770	0.22769
0.35272	1.04394
0.63323	-0.48652
-0.00431	-1.88945
0.12320	1.24800
0.37822	1.63062
-0.02981	1.80917
0.14870	0.12566
0.09770	-0.99668
-0.51434	-0.05289
-0.43783	0.25320
-0.23382	0.10015
0.37822	1.55410
0.50573	-1.09871
0.19971	-1.17523
-0.00431	0.73785
0.32721	0.15117
0.55673	-0.25695
0.35272	0.76336
-0.18282	0.43176
0.48022	-1.04770
-0.08081	-0.48652
0.35272	1.14597
0.60773	0.91640
0.19971	1.17148
-0.18282	-0.79262
0.07220	-0.61406
-0.28482	0.91640
-0.41233	1.40105
-0.13181	-0.35899
0.07220	-1.12422
0.86275	1.04394
0.73524	0.73785
0.09770	-0.94566
-0.28482	-0.25695
-0.18282	1.09496
0.42922	-0.35899
0.55673	0.50828
0.19971	-0.63957
0.12320	0.12566
-0.13181	1.01843
0.04670	0.45726
0.17421	-1.22625
0.04670	0.45726
-0.05531	1.06945
-0.00431	-0.51203
-0.08081	-0.02739
0.58223	0.76336
0.83725	0.71234
0.96476	-0.00188
-0.23382	-0.28246
-0.61635	1.88570
-0.31033	-2.06800
0.07220	-0.58856
0.14870	0.81437
0.35272	-0.07840
0.19971	-0.18043
0.25071	1.52859
0.27621	-0.41000
-0.28482	-0.48652
0.76074	2.26831
0.65874	-0.23145
-0.00431	-1.45582
-0.13181	0.43176
-0.43783	0.45726
-0.38683	0.86539
-0.13181	0.25320
0.22521	0.99292
0.81175	-0.05289
1.44929	-1.25176
0.60773	-0.25695
-0.20832	0.15117
-0.59084	0.55929
-0.53984	0.45726
-0.28482	-2.22105
0.09770	1.37554
0.25071	-0.61406
0.45472	-2.04250
0.53123	2.06425
-0.02981	0.96742
-0.28482	0.17668
0.07220	0.94191
0.12320	1.65613
0.19971	-0.86914
0.88825	-0.84363
1.09226	0.89089
0.53123	0.17668
0.04670	-0.33348
-1.07538	0.55929
-0.74385	-1.40480
0.09770	0.22769
0.70974	0.45726
0.04670	-0.25695
-0.15732	-0.38449
-0.13181	0.45726
0.14870	0.50828
0.42922	0.66132
0.14870	0.73785
0.09770	-0.02739
-0.28482	0.76336
-0.33583	-0.63957
0.48022	-0.02739
0.55673	1.27351
1.52579	-0.48652
0.73524	-1.22625
0.12320	0.83988
-0.13181	2.90601
-0.64185	-1.81293
-0.33583	-1.96597
-0.13181	0.38074
0.32721	2.85499
-0.36133	-0.07840
0.14870	0.50828
0.65874	0.86539
0.22521	-0.18043
0.25071	0.71234
0.12320	0.50828
-0.18282	0.27871
-0.41233	-0.66508
-0.23382	-0.69059
0.19971	0.25320
0.40372	-0.15492
0.32721	-0.63957
-0.00431	0.17668
0.22521	0.53379
0.81175	-0.66508
0.70974	0.15117
0.45472	0.12566
0.02119	0.43176
-0.25932	0.61031
-0.33583	1.60511
-0.05531	0.35523
0.07220	-1.58336
0.12320	0.35523
0.09770	1.12046
0.09770	0.35523
0.30171	0.58480
0.60773	1.57960
0.58223	-2.27207
0.42922	-2.39961
-0.08081	-0.63957
-0.18282	0.50828
-0.97337	1.14597
-0.02981	1.60511
0.37822	1.45206
1.21977	0.96742
1.11776	1.29902
0.37822	0.43176
-0.41233	-0.51203
-0.94787	-1.63437
-1.20288	-1.32828
-0.00431	-0.25695
0.42922	0.02363
0.91375	0.78886
0.40372	0.71234
0.32721	1.63062
0.02119	-2.39961
-0.00431	-0.81812
0.22521	1.29902
0.12320	1.45206
0.42922	-1.27726
0.07220	0.12566
0.60773	0.73785
0.73524	1.60511
0.02119	1.14597
-0.18282	-0.56305
-0.02981	-0.18043
0.32721	0.43176
0.25071	0.35523
0.35272	-0.43551
-0.10631	-0.99668
-0.28482	0.35523
-0.38683	0.76336
-0.59084	-1.71090
-0.20832	-0.69059
0.48022	1.80917
0.55673	-0.02739
0.32721	-0.53754
0.60773	1.40105
1.67880	0.61031
1.47479	0.17668
-0.13181	-1.02219
-0.48884	0.35523
-1.40690	-0.05289
-0.69285	0.17668
-0.08081	-0.15492
0.09770	0.40625
0.40372	1.27351
-0.41233	0.91640
-0.18282	-0.66508
0.22521	-0.20594
1.04126	0.38074
0.99026	0.30422
0.17421	1.06945
0.19971	0.22769
0.22521	-4.36370
0.53123	-0.99668
0.60773	1.01843
0.32721	2.37034
-0.13181	1.47757
-0.23382	1.01843
-0.53984	-0.12942
-0.20832	0.53379
0.02119	-0.43551
0.07220	0.48277
0.02119	0.40625
0.27621	-0.76711
0.32721	-0.86914
0.45472	0.50828
-0.05531	1.93671
-0.36133	-1.37929
0.35272	-0.71609
0.68424	-0.18043
0.83725	0.55929
0.96476	0.61031
0.60773	0.32972
0.02119	1.09496
-1.02437	0.86539
-1.55991	0.83988
-1.38139	-0.02739
-0.23382	-1.37929
1.39828	-0.12942
1.98482	0.25320
1.42379	-0.61406
0.25071	1.01843
-1.40690	0.83988
-0.69285	-0.30797
-0.89686	-0.07840
-0.00431	1.12046
0.68424	0.71234
1.29628	-0.74160
1.37278	-0.02739
0.81175	-0.02739
-0.10631	1.04394
-0.38683	0.32972
-0.69285	-2.01699
-0.79486	0.02363
-0.28482	-2.60367
0.55673	1.01843
0.40372	1.57960
0.63323	1.70714
0.65874	1.45206
0.14870	0.76336
0.12320	-1.04770
-0.00431	-0.66508
-0.13181	1.09496
-0.18282	-0.25695
-0.38683	0.12566
-0.02981	0.45726
0.50573	0.10015
0.91375	1.06945
0.88825	-0.58856
0.25071	-1.07320
-0.48884	-0.41000
-0.28482	0.22769
-0.43783	-1.25176
-0.74385	0.91640
-0.38683	1.01843
0.42922	1.27351
0.42922	0.02363
1.09226	0.22769
1.06676	-0.48652
0.25071	-0.53754
0.96476	0.68683
-0.31033	0.35523
-0.69285	0.43176
-0.74385	0.20219
-0.53984	2.49788
0.04670	-3.49644
0.45472	-0.25695
1.11776	-0.46102
0.83725	-1.25176
0.63323	2.14077
-0.28482	1.57960
-0.18282	1.78367
-0.43783	0.07465
-0.02981	-0.12942
0.22521	0.30422
0.60773	1.29902
-0.08081	-0.56305
-0.02981	-1.96597
-0.00431	-0.18043
0.78624	0.89089
0.17421	-0.28246
-0.20832	0.40625
0.14870	0.53379
0.53123	-0.66508
0.17421	-0.69059
0.27621	-0.41000
0.19971	1.24800
-0.41233	0.43176
-0.46334	0.86539
-0.15732	0.86539
-0.18282	0.81437
0.12320	-1.02219
0.37822	-1.53234
0.70974	0.94191
0.60773	0.48277
0.14870	0.25320
1.32178	2.77847
0.50573	-0.25695
0.17421	-1.81293
0.02119	0.76336
-0.53984	-1.50683
-1.20288	-1.17523
-0.28482	-0.00188
0.32721	1.57960
0.73524	0.68683
0.86275	0.50828
-0.18282	0.99292
-0.64185	-0.48652
-0.31033	1.80917
-0.10631	-1.40480
0.37822	-1.20074
0.40372	-0.97117
0.09770	0.12566
0.25071	0.81437
0.30171	1.60511
0.88825	0.76336
0.27621	-0.30797
-0.08081	0.15117
-0.28482	0.17668
0.12320	-0.38449
0.40372	1.04394
-0.00431	0.10015
-0.28482	-1.71090
-0.00431	-0.43551
0.12320	0.45726
0.17421	-0.07840
0.60773	1.50308
0.65874	-0.12942
0.27621	-0.66508
0.09770	0.89089
-0.00431	1.60511
-0.76936	-0.46102
0.02119	-1.09871
-0.20832	0.10015
0.12320	2.01323
0.45472	0.63582
0.93925	-2.78222
0.65874	-0.58856
0.48022	0.45726
-0.13181	1.37554
-0.76936	1.27351
-0.36133	0.35523
-0.33583	-0.25695
0.14870	1.06945
0.45472	-0.58856
1.24527	-0.69059
0.88825	0.02363
0.58223	0.50828
0.14870	-0.53754
-0.25932	-0.66508
-0.99887	0.40625
-0.53984	1.01843
-0.25932	0.45726
0.14870	-1.02219
0.09770	0.53379
0.55673	0.99292
0.93925	1.19699
0.83725	0.17668
0.14870	-0.46102
0.02119	-0.20594
-0.51434	-0.89465
-0.28482	-0.51203
0.07220	1.73265
-0.02981	1.12046
0.12320	-1.37929
0.40372	-1.12422
0.40372	0.43176
0.32721	1.01843
0.50573	1.19699
0.65874	1.65613
0.42922	-0.18043
-0.33583	0.12566
0.27621	-1.45582
0.27621	-0.81812
-0.25932	0.63582
0.07220	1.06945
-0.08081	0.71234
0.04670	-0.58856
0.02119	0.30422
0.09770	0.17668
-0.38683	0.07465
-0.36133	-0.00188
-0.25932	0.40625
0.53123	1.42656
0.99026	-1.88945
0.91375	0.32972
0.76074	-0.48652
-0.43783	-1.73640
-0.59084	1.24800
-0.18282	0.25320
-0.20832	0.43176
0.02119	1.37554
0.27621	1.37554
0.27621	1.27351
0.40372	1.40105
0.63323	-1.37929
0.53123	-0.86914
0.37822	-0.38449
0.02119	-0.89465
-0.18282	0.17668
-0.28482	-0.28246
-0.33583	0.83988
-0.05531	2.31933
-0.13181	-0.76711
-0.20832	0.15117
0.53123	-0.05289
0.86275	-0.23145
0.91375	-0.20594
0.58223	1.04394
-0.18282	-0.23145
-0.38683	-0.41000
-0.71835	1.19699
0.19971	0.71234
0.53123	-0.69059
0.42922	0.30422
0.14870	0.61031
-0.33583	0.45726
-0.31033	0.66132
-0.33583	-0.38449
0.25071	-0.74160
0.58223	-1.25176
0.78624	0.40625
0.12320	0.07465
-0.18282	0.53379
-0.02981	0.27871
0.50573	-0.02739
0.04670	1.22250
0.25071	0.68683
-0.31033	-0.05289
-0.10631	0.02363
0.19971	0.96742
0.12320	-0.25695
0.30171	0.30422
0.50573	-2.55265
-0.02981	0.40625
0.12320	0.04914
-0.05531	0.12566
0.27621	0.96742
0.45472	0.76336
0.30171	0.76336
0.37822	0.76336
0.17421	-0.15492
-0.28482	-0.71609
-0.02981	0.38074
0.07220	-0.79262
0.14870	1.09496
0.02119	-0.58856
0.17421	0.04914
0.30171	1.22250
-0.38683	-0.12942
-0.13181	-0.05289
-0.05531	0.20219
0.53123	-0.74160
1.32178	0.04914
1.24527	1.37554
0.40372	0.27871
-0.38683	-0.33348
-0.94787	0.30422
-1.17738	0.32972
-0.71835	0.63582
-0.23382	-0.05289
0.35272	-0.07840
0.93925	0.22769
0.81175	0.40625
0.70974	0.71234
0.60773	0.30422
0.22521	-1.20074
-0.02981	-0.28246
-0.02981	0.25320
0.25071	-0.66508
0.22521	0.32972
-0.08081	1.73265
-0.28482	-0.84363
0.02119	-0.20594
-0.28482	1.19699
0.68424	0.73785
0.27621	0.86539
0.35272	1.73265
0.19971	-1.58336
-0.28482	-1.43031
-0.00431	0.30422
-0.13181	0.50828
0.12320	1.19699
0.55673	-1.20074
0.60773	-0.38449
0.02119	1.06945
0.12320	0.50828
-0.71835	-1.07320
-0.38683	0.15117
0.30171	-0.12942
0.81175	0.17668
0.76074	0.45726
0.12320	0.89089
0.27621	0.38074
-0.10631	-0.02739
-0.05531	0.15117
-0.18282	0.78886
-0.05531	1.50308
-0.25932	-1.91496
-0.15732	-2.34859
0.53123	-1.27726
0.81175	0.43176
1.01576	1.70714
0.12320	1.65613
-0.31033	0.48277
-0.23382	2.37034
0.07220	-0.25695
0.25071	-1.35379
0.12320	-1.30277
0.30171	1.19699
0.30171	-0.71609
-0.36133	-0.58856
-0.36133	0.71234
0.50573	1.04394
0.45472	-0.15492
0.12320	1.40105
-0.41233	-0.79262
-0.00431	-0.02739
0.22521	0.99292
0.14870	0.73785
0.91375	0.10015
-0.33583	-1.71090
-0.20832	-1.71090
0.93925	1.06945
0.91375	0.99292
0.63323	0.81437
-0.28482	0.48277
-0.89686	0.71234
-0.94787	1.57960
-0.66735	-0.79262
0.12320	-2.04250
0.50573	0.07465
0.83725	-0.15492
0.73524	-0.35899
1.32178	0.71234
0.17421	0.61031
-0.33583	0.68683
-0.15732	0.58480
0.17421	0.45726
0.19971	3.33964
-0.31033	-1.58336
-0.61635	-3.49644
0.07220	1.17148
0.12320	0.25320
0.53123	-0.76711
0.73524	-0.33348
0.96476	0.83988
0.40372	1.01843
-0.38683	1.42656
-0.28482	0.83988
-0.61635	0.32972
-0.71835	0.48277
0.50573	-0.30797
0.76074	-0.43551
0.68424	-0.58856
0.22521	-0.74160
0.07220	0.10015
0.48022	0.38074
0.22521	0.25320
0.53123	0.58480
-0.28482	-0.07840
-0.41233	-0.02739
-0.56534	1.14597
-0.13181	0.89089
-0.13181	-1.88945
-0.41233	0.99292
0.12320	-0.28246
1.11776	-2.22105
1.57679	-0.61406
1.67880	1.88570
-0.25932	1.24800
-0.87136	1.19699
-0.61635	0.94191
-0.46334	1.19699
-0.13181	-0.25695
0.12320	-1.09871
0.35272	-0.23145
0.14870	-0.15492
0.32721	1.27351
0.68424	-0.53754
0.63323	-1.09871
0.58223	1.37554
0.50573	-0.05289
0.35272	-1.02219
-0.59084	0.45726
-0.18282	-0.35899
0.07220	-0.46102
-0.28482	0.91640
-0.20832	1.09496
-0.13181	0.45726
-0.28482	0.43176
-0.08081	0.07465
0.14870	1.55410
0.99026	-0.30797
0.83725	-0.94566
0.73524	1.42656
-0.23382	-2.22105
0.35272	-1.91496
-0.00431	1.73265
-0.53984	0.55929
-1.12638	1.27351
-0.05531	-0.33348
0.63323	-2.17003
1.72980	0.99292
0.93925	0.20219
-0.18282	1.47757
-0.74385	0.32972
-0.59084	0.30422
-0.13181	0.40625
-0.05531	0.17668
-0.00431	-0.05289
0.35272	-0.30797
0.70974	0.45726
1.14327	-0.86914
1.21977	-0.15492
0.02119	1.50308
-0.43783	-1.35379
-0.79486	-1.22625
-0.59084	0.55929
-0.99887	0.38074
0.32721	0.73785
0.68424	0.55929
0.14870	0.76336
0.50573	1.40105
0.83725	0.27871
0.93925	-0.97117
0.48022	-1.02219
-0.33583	0.27871
-1.35589	0.48277
-0.36133	2.67644
-0.28482	0.73785
0.25071	-3.77702
1.32178	0.96742
0.83725	-0.69059
0.42922	-0.76711
0.19971	0.94191
-0.08081	-0.56305
-0.59084	1.19699
-0.28482	1.65613
-0.33583	0.94191
-0.23382	-0.33348
0.40372	-0.61406
0.81175	-0.20594
0.96476	0.04914
0.12320	-0.46102
-0.08081	-0.51203
0.12320	0.35523
0.25071	0.68683
0.35272	-1.20074
0.02119	-0.58856
-0.20832	0.48277
-0.36133	0.40625
0.12320	0.20219
-0.02981	0.45726
-0.00431	0.58480
0.70974	0.20219
1.06676	0.68683
1.27078	1.70714
-0.02981	-2.50164
0.25071	-0.99668
-0.79486	0.30422
-1.04987	0.43176
-1.07538	0.45726
-0.46334	1.68163
0.17421	0.15117
0.42922	-1.68539
0.91375	-0.12942
1.24527	0.83988
0.93925	1.19699
0.65874	-0.05289
0.12320	0.63582
-0.23382	0.27871
-0.20832	-0.07840
-0.18282	0.40625
-0.33583	-0.86914
0.09770	-0.33348
0.35272	0.91640
0.70974	-0.18043
0.42922	0.04914
-0.18282	0.99292
-0.69285	0.20219
0.25071	0.17668
0.02119	1.75816
-0.10631	-3.82804
0.22521	-1.65988
0.65874	0.68683
0.60773	2.70194
0.32721	0.17668
0.12320	1.24800
0.81175	0.04914
0.50573	-0.18043
-0.15732	0.50828
-0.66735	0.25320
-0.41233	0.58480
-0.23382	0.45726
-0.23382	-1.58336
-0.28482	0.43176
0.32721	-0.07840
0.35272	0.53379
0.76074	-0.41000
0.55673	-0.92016
0.91375	0.38074
0.19971	0.55929
0.12320	0.48277
-0.64185	0.12566
-0.43783	0.76336
-0.18282	1.19699
0.02119	0.15117
0.22521	-1.25176
0.35272	0.12566
0.25071	-0.69059
0.53123	0.78886
0.81175	1.75816
0.17421	-0.25695
0.09770	0.25320
-0.10631	-0.53754
-0.20832	-0.76711
-0.28482	1.01843
-0.05531	0.68683
0.86275	-0.51203
1.32178	2.93151
-0.10631	-0.69059
-0.94787	-2.11902
-0.41233	0.15117
-0.15732	0.73785
-0.08081	1.52859
0.32721	0.73785
0.32721	-1.12422
0.53123	-0.61406
0.40372	-0.05289
0.19971	0.32972
0.32721	0.76336
0.91375	0.53379
0.83725	-0.76711
0.02119	-0.38449
-0.31033	0.43176
-0.59084	0.22769
-0.41233	0.78886
-0.38683	0.25320
-0.08081	0.61031
0.14870	-0.56305
0.27621	-1.40480
0.42922	0.35523
0.68424	0.76336
0.60773	0.32972
0.35272	0.45726
0.19971	0.91640
0.14870	1.55410
-0.13181	-0.41000
-0.13181	-3.21585
-0.13181	0.76336
0.73524	0.12566
0.53123	2.82948
0.09770	0.48277
-0.59084	-3.06281
-0.36133	0.50828
0.42922	-0.41000
0.27621	1.14597
0.60773	1.17148
0.04670	0.81437
0.22521	0.58480
-0.43783	0.27871
-0.20832	1.68163
-0.23382	-1.40480
-0.08081	-1.63437
0.14870	-0.61406
0.76074	0.15117
0.73524	0.32972
0.42922	1.14597
0.32721	0.68683
-0.02981	-0.81812
0.09770	-0.56305
0.30171	0.55929
-0.20832	0.04914
-0.08081	-0.28246
0.40372	1.50308
0.83725	0.73785
0.22521	-0.43551
0.27621	-0.25695
-0.43783	0.30422
0.07220	0.53379
-0.64185	1.29902
-0.89686	-0.12942
-0.48884	-1.76191
0.35272	0.99292
0.25071	0.30422
0.58223	-0.79262
1.04126	0.32972
1.01576	0.66132
0.40372	0.35523
-0.13181	-0.35899
-0.38683	-0.07840
-0.48884	1.57960
-0.23382	0.73785
0.09770	-2.22105
0.45472	-0.12942
0.73524	0.40625
0.86275	0.55929
0.32721	-0.66508
-0.15732	0.40625
-0.28482	0.63582
-0.53984	0.27871
-0.33583	0.30422
0.22521	1.14597
0.32721	1.52859
0.53123	-2.06800
0.37822	-0.94566
0.35272	-0.18043
0.37822	0.43176
0.02119	-0.30797
0.12320	0.15117
-0.10631	-0.18043
0.22521	0.58480
0.40372	0.91640
0.30171	0.81437
-0.13181	0.83988
-0.23382	-0.05289
0.02119	-0.48652
0.22521	-0.35899
-0.20832	0.15117
-0.15732	-0.84363
-0.13181	0.76336
0.99026	-0.46102
1.21977	0.91640
0.09770	-0.89465
-0.05531	0.12566
-0.53984	0.35523
-0.10631	0.66132
-0.31033	-0.58856
-0.28482	0.38074
0.53123	1.47757
0.40372	0.25320
0.68424	1.57960
0.68424	-0.81812
0.55673	-2.06800
0.68424	0.25320
-0.23382	0.83988
-0.64185	3.49268
-0.38683	-1.60887
-0.00431	-1.99148
0.27621	-1.99148
0.27621	0.07465
0.17421	0.89089
0.65874	1.68163
0.91375	2.21730
0.22521	0.83988
-0.64185	-0.81812
-0.79486	0.20219
-0.48884	-0.23145
0.14870	-0.46102
0.50573	0.63582
0.42922	-0.23145
1.16877	-0.74160
0.48022	-0.46102
0.40372	0.20219
0.25071	-0.07840
-0.28482	-0.07840
-0.71835	0.96742
-0.36133	0.63582
-0.20832	-0.79262
-0.36133	0.15117
-0.28482	1.70714
0.73524	-0.94566
1.44929	-0.63957
1.88281	0.96742
0.32721	0.12566
-0.25932	0.12566
-0.82036	0.02363
-0.51434	0.58480
-0.00431	1.29902
0.27621	-0.46102
0.12320	-0.86914
-0.15732	-0.25695
0.45472	-1.48133
0.63323	0.45726
1.01576	0.07465
-0.02981	1.32453
0.27621	0.76336
-0.08081	1.06945
-0.79486	-0.41000
-0.71835	0.15117
-0.41233	0.04914
-0.15732	-0.89465
0.12320	0.53379
0.55673	0.17668
0.91375	-0.05289
0.70974	-0.05289
0.83725	1.47757
0.32721	-0.92016
0.07220	-1.63437
0.17421	0.27871
-0.20832	0.63582
-0.00431	0.86539
0.45472	0.91640
0.22521	-0.38449
0.07220	-0.46102
-0.02981	0.94191
-0.51434	0.76336
0.07220	-1.17523
0.35272	-0.89465
-0.05531	-0.53754
0.19971	0.68683
0.83725	1.09496
0.12320	1.17148
-0.23382	0.48277
-0.33583	3.62022
-0.51434	-2.45062
0.12320	-7.52666
0.53123	0.81437
0.53123	1.91120
0.55673	1.78367
0.40372	1.78367
0.91375	0.55929
0.37822	-0.30797
0.73524	0.86539
0.09770	0.12566
-0.28482	-0.38449
-0.64185	-0.23145
-0.69285	-0.20594
-0.18282	-0.25695
0.32721	-0.23145
0.27621	-1.37929
0.12320	-0.30797
0.42922	0.76336
0.30171	0.99292
0.22521	0.68683
0.32721	0.04914
-0.08081	0.78886
-0.23382	0.17668
0.53123	0.02363
0.32721	1.01843
0.93925	-1.63437
0.32721	-1.40480
-0.10631	1.60511
-0.23382	0.45726
-0.74385	0.22769
-0.23382	0.81437
-0.05531	1.50308
-0.20832	0.10015
0.09770	-0.30797
0.45472	-0.05289
0.50573	-1.86394
0.86275	0.40625
1.11776	0.78886
0.83725	0.45726
-0.13181	0.71234
-0.56534	-0.05289
-0.38683	0.17668
-0.61635	1.96222
-0.20832	-0.71609
-0.23382	-3.36890
0.48022	0.22769
0.27621	0.81437
0.48022	0.73785
0.91375	1.04394
1.50029	1.70714
0.32721	0.04914
-0.10631	0.15117
-0.82036	0.04914
-0.43783	-1.60887
-0.59084	-0.76711
-0.36133	0.83988
-0.08081	0.73785
0.17421	-0.38449
0.53123	0.15117
0.58223	0.25320
0.60773	1.27351
0.27621	-0.35899
0.55673	-0.12942
0.60773	0.48277
0.27621	0.86539
-0.20832	-1.14973
-0.79486	-1.17523
0.12320	0.78886
-0.00431	0.50828
0.27621	0.50828
0.55673	0.32972
0.30171	-0.05289
0.73524	0.15117
0.32721	-0.10391
-0.66735	0.07465
-0.99887	-0.05289
-0.69285	0.15117
0.40372	0.30422
0.30171	0.15117
0.60773	0.30422
0.81175	0.15117
0.68424	0.58480
0.19971	0.35523
-0.10631	-0.46102
0.12320	-0.48652
-0.00431	-1.07320
-0.00431	-0.56305
0.37822	0.83988
0.37822	1.09496
0.14870	0.89089
0.09770	1.04394
0.02119	0.68683
-0.28482	0.55929
0.14870	-0.43551
0.40372	-0.43551
0.83725	-3.13933
0.68424	-0.61406
0.32721	0.50828
-0.46334	0.81437
-0.74385	1.06945
-0.46334	0.73785
-0.38683	1.01843
-0.31033	0.55929
-0.00431	1.86019
0.50573	-0.30797
0.70974	-2.68019
1.27078	-0.10391
1.37278	0.15117
0.63323	0.68683
-0.28482	0.66132
-0.61635	1.37554
-0.61635	-0.69059
-0.82036	-0.94566
-0.08081	-0.05289
0.32721	-0.86914
0.73524	0.38074
1.06676	0.71234
0.63323	0.96742
0.04670	0.81437
-0.43783	0.78886
-0.33583	0.61031
-0.13181	-0.30797
-0.25932	-0.56305
0.32721	0.63582
0.55673	0.27871
0.50573	0.61031
-0.02981	-0.76711
0.09770	-2.80773
0.37822	0.20219
0.14870	0.94191
-0.18282	1.17148
-0.13181	1.19699
0.14870	0.12566
0.17421	0.20219
0.04670	0.15117
0.14870	0.15117
0.07220	0.04914
0.30171	0.53379
0.45472	2.49788
0.35272	-1.78742
0.48022	-4.77183
0.25071	0.10015
0.04670	0.94191
-0.00431	1.88570
-0.36133	1.65613
-0.28482	-0.53754
-0.00431	0.89089
0.19971	1.06945
0.17421	-0.76711
0.27621	-0.15492
0.25071	0.81437
-0.02981	-0.41000
0.09770	1.86019
1.21977	-0.69059
0.88825	-2.75671
-0.36133	-0.33348
-0.08081	1.22250
-0.48884	-0.10391
0.22521	0.78886
0.04670	2.39585
0.12320	2.93151
0.02119	-5.12893
0.30171	-2.09351
0.63323	0.02363
0.12320	0.32972
0.55673	1.06945
-0.15732	0.86539
-0.46334	1.42656
-0.41233	1.29902
-0.02981	-1.14973
0.12320	0.53379
0.96476	0.10015
0.19971	-0.25695
0.30171	1.17148
0.40372	0.15117
0.35272	-0.99668
-0.05531	-0.79262
0.04670	-1.07320
0.25071	1.17148
0.09770	0.07465
-0.02981	1.35003
0.19971	0.86539
0.09770	-0.61406
0.04670	0.32972
0.07220	0.78886
-0.00431	0.48277
-0.10631	0.35523
0.19971	0.91640
0.14870	2.77847
0.42922	-1.43031
0.68424	-4.46573
0.37822	-1.09871
-0.08081	0.10015
-0.23382	1.32453
-0.33583	0.99292
-0.33583	1.83468
-0.25932	0.94191
0.14870	-0.02739
0.88825	0.32972
0.73524	1.01843
0.37822	-0.63957
0.02119	0.25320
-0.23382	-0.15492
0.04670	-0.07840
0.07220	0.17668
-0.02981	-0.89465
-0.08081	-0.10391
0.40372	0.38074
0.27621	0.10015
0.83725	0.22769
-0.05531	0.76336
-0.08081	0.20219
-0.05531	-0.63957
-0.10631	-0.18043
-0.15732	0.45726
-0.05531	0.50828
0.19971	0.78886
0.50573	0.86539
0.42922	-0.43551
0.48022	0.15117
0.14870	-0.86914
0.09770	0.02363
-0.05531	1.52859
-0.33583	-0.25695
-0.08081	-0.61406
0.22521	1.19699
0.78624	0.35523
0.42922	-0.92016
0.27621	1.73265
-0.25932	-0.61406
-0.25932	-2.04250
-0.18282	0.86539
0.55673	1.01843
0.35272	1.14597
0.17421	0.55929
-0.10631	-0.15492
0.09770	-0.48652
-0.13181	2.03874
-0.02981	0.15117
0.02119	-1.78742
0.48022	-1.27726
0.63323	0.35523
0.37822	0.68683
-0.00431	0.86539
-0.28482	0.83988
-0.00431	-0.20594
0.07220	0.07465
0.42922	0.43176
0.04670	0.30422
0.02119	0.12566
0.19971	0.83988
0.48022	-0.53754
0.53123	-0.05289
0.53123	0.22769
0.37822	-2.75671
-0.05531	-0.35899
-0.46334	0.81437
-0.61635	0.78886
-0.23382	1.65613
-0.10631	0.76336
0.12320	1.01843
0.04670	0.32972
0.14870	-1.37929
0.17421	-0.18043
0.50573	1.12046
0.81175	0.04914
0.50573	-0.66508
0.53123	0.76336
0.30171	0.45726
-0.00431	-1.04770
0.22521	0.45726
-0.15732	-1.12422
-0.46334	1.60511
-0.41233	0.02363
0.14870	0.55929
0.37822	-0.23145
0.19971	-1.68539
0.32721	0.91640
0.35272	1.19699
0.14870	0.71234
-0.15732	0.76336
-0.08081	0.40625
-0.02981	0.40625
-0.48884	1.17148
0.27621	-1.22625
0.88825	-1.71090
1.83181	0.40625
0.25071	-0.66508
0.19971	-0.92016
-0.13181	0.91640
-0.48884	1.01843
-0.25932	0.25320
-0.23382	0.55929
-0.25932	0.15117
-0.20832	0.30422
0.32721	-0.35899
0.48022	0.40625
0.48022	1.19699
0.42922	-1.48133
0.19971	0.55929
0.09770	-0.07840
0.37822	-0.07840
0.45472	0.43176
0.40372	0.35523
0.12320	0.22769
0.25071	0.38074
0.17421	0.45726
0.04670	0.27871
-0.51434	-0.33348
-0.41233	-0.86914
-0.28482	0.96742
-0.02981	0.66132
0.19971	-0.10391
0.48022	-0.28246
0.32721	-0.25695
0.53123	-0.63957
0.40372	2.57441
0.40372	-0.33348
0.40372	-0.71609
0.53123	0.12566
0.19971	0.45726
-0.10631	0.10015
0.02119	-0.28246
-0.15732	0.43176
-0.10631	0.43176
-0.08081	-0.48652
0.22521	-0.48652
0.17421	-0.74160
0.30171	1.01843
0.32721	0.96742
0.22521	0.15117
-0.23382	1.37554
-0.13181	-0.84363
0.09770	-2.09351
0.65874	0.32972
0.40372	0.89089
-0.13181	1.09496
-0.15732	-0.25695
0.88825	-0.56305
0.27621	0.38074
-0.41233	0.55929
-0.13181	0.50828
0.12320	-0.41000
0.68424	0.73785
0.30171	0.91640
-0.08081	-0.18043
-0.20832	-0.35899
-0.13181	-1.04770
-0.15732	0.30422
0.19971	-0.53754
0.35272	0.73785
0.19971	1.40105
0.12320	-0.51203
0.45472	0.30422
0.73524	-0.15492
-0.00431	0.22769
-0.08081	0.02363
0.14870	0.22769
0.07220	0.48277
-0.15732	1.37554
0.12320	0.25320
0.09770	-0.66508
1.06676	-1.25176
0.40372	0.35523
-0.08081	0.35523
-0.36133	0.68683
-0.43783	0.94191
-0.25932	-0.51203
-0.43783	0.83988
0.09770	-1.22625
0.63323	-1.43031
0.53123	0.73785
0.40372	0.40625
0.30171	0.53379
0.40372	0.83988
0.04670	0.48277
0.09770	0.71234
0.35272	1.86019
0.45472	-2.29757
0.35272	-1.65988
-0.05531	1.09496
0.02119	0.53379
0.22521	-0.63957
-0.20832	0.83988
-0.31033	1.17148
-0.38683	-0.63957
-0.08081	1.19699
0.27621	-0.43551
0.37822	-0.76711
0.14870	0.30422
-0.13181	-0.23145
0.68424	0.76336
0.60773	0.53379
0.68424	-0.97117
-0.41233	1.57960
-0.33583	0.12566
0.12320	-0.86914
0.81175	0.12566
0.48022	0.68683
-0.36133	0.55929
-0.10631	0.94191
0.02119	0.27871
0.25071	1.47757
-0.41233	-2.06800
-0.18282	-1.58336
0.22521	0.55929
0.96476	0.63582
0.40372	0.61031
0.25071	0.40625
-0.13181	-0.28246
-0.25932	0.40625
-0.13181	0.07465
0.02119	-0.05289
0.04670	1.04394
0.55673	1.78367
0.32721	-2.52714
0.63323	-2.68019
0.73524	0.78886
0.63323	2.98253
-0.02981	0.58480
-0.05531	-2.27207
-0.20832	1.47757
-0.08081	-0.41000
-0.41233	1.09496
-0.64185	0.40625
-0.48884	-1.09871
0.42922	1.04394
1.09226	0.91640
0.91375	0.71234
0.27621	0.53379
0.09770	0.58480
-0.23382	-1.48133
-0.28482	-1.27726
-0.48884	0.32972
0.02119	0.10015
0.76074	0.17668
1.14327	0.58480
0.60773	0.73785
0.14870	-0.35899
-0.53984	-0.18043
0.14870	-0.84363
-0.10631	1.37554
-0.33583	0.53379
-0.53984	1.12046
0.02119	-0.69059
0.27621	-1.17523
0.93925	0.38074
0.86275	0.53379
0.70974	1.14597
0.27621	0.61031
-0.08081	0.02363
-0.46334	0.53379
-0.76936	0.32972
-0.84586	0.76336
-0.23382	-1.27726
0.42922	-2.04250
0.99026	0.12566
1.14327	1.01843
1.29628	0.99292
0.42922	0.32972
0.07220	0.43176
-0.48884	0.22769
-0.66735	-0.10391
-0.46334	0.15117
-0.28482	-0.02739
-0.00431	-0.46102
0.27621	-0.30797
0.65874	0.43176
0.76074	1.22250
0.83725	0.48277
0.22521	-1.65988
0.04670	-0.35899
-0.08081	1.35003
-0.13181	1.73265
-0.51434	-1.35379
0.17421	-0.81812
0.14870	0.89089
0.22521	1.22250
0.22521	1.52859
0.55673	-0.61406
0.55673	-1.07320
0.09770	0.22769
0.07220	0.61031
-0.10631	0.02363
-0.28482	-0.18043
-0.23382	-0.05289
-0.02981	0.43176
-0.25932	0.35523
0.78624	0.35523
0.42922	0.35523
0.09770	-0.02739
0.40372	0.38074
0.40372	0.78886
0.14870	-1.14973
0.07220	-0.00188
-0.23382	0.10015
-0.20832	1.73265
0.09770	0.99292
0.55673	-1.53234
0.70974	-2.45062
0.17421	1.27351
-0.18282	0.78886
-0.43783	0.94191
-0.25932	1.78367
0.07220	-0.00188
-0.25932	-0.79262
-0.10631	0.10015
0.58223	0.17668
0.96476	0.53379
0.96476	0.15117
0.42922	-0.48652
0.07220	-0.61406
-0.43783	0.86539
-0.23382	-0.00188
0.09770	-0.66508
0.30171	0.30422
-0.10631	0.89089
0.45472	-0.28246
0.22521	-0.15492
-0.23382	0.61031
-0.08081	0.25320
-0.08081	0.32972
0.07220	0.22769
0.27621	0.43176
0.63323	0.66132
0.35272	-0.89465
0.19971	-0.28246
-0.18282	0.45726
-0.18282	1.29902
0.25071	0.20219
0.65874	-1.32828
0.32721	-0.05289
-0.10631	0.61031
-0.13181	0.27871
-0.43783	-0.05289
0.32721	0.55929
0.12320	0.30422
0.48022	0.48277
0.07220	0.53379
0.42922	2.24281
0.68424	-0.99668
-0.20832	-3.90456
-0.28482	0.07465
-0.36133	0.76336
-0.05531	1.09496
0.27621	1.01843
0.48022	1.42656
0.17421	0.58480
0.48022	1.22250
1.04126	-0.79262
0.63323	-2.29757
-0.13181	-1.22625
-0.66735	-0.07840
-0.59084	0.81437
-0.38683	0.76336
-0.02981	1.14597
0.27621	0.94191
0.37822	0.61031
0.37822	-0.07840
0.42922	-0.25695
0.68424	0.12566
0.30171	0.22769
0.07220	-0.43551
-0.08081	-0.35899
0.07220	0.32972
-0.31033	0.04914
-0.28482	0.04914
0.42922	1.47757
0.19971	-1.07320
0.19971	-0.92016
0.32721	0.81437
-0.18282	0.30422
0.30171	0.81437
0.19971	-1.07320
0.37822	-0.38449
-0.08081	2.19179
-0.20832	-0.89465
-0.08081	0.25320
0.22521	0.30422
0.12320	0.99292
0.27621	-0.20594
0.17421	-0.28246
0.50573	0.66132
0.63323	0.30422
0.14870	-0.15492
0.07220	0.55929
-0.25932	-0.12942
-0.36133	-0.58856
-0.18282	-0.35899
-0.13181	1.01843
0.09770	-1.58336
0.22521	-0.97117
0.40372	0.94191
0.45472	0.86539
0.42922	0.45726
0.58223	0.58480
0.53123	0.50828
0.30171	0.35523
0.17421	1.35003
-0.05531	0.15117
0.02119	-1.81293
0.22521	-1.27726
0.17421	-0.12942
-0.46334	0.32972
-0.56534	0.89089
-0.43783	0.45726
-0.51434	0.91640
0.22521	2.54890
0.42922	-1.86394
0.68424	-2.24656
0.60773	-0.20594
0.50573	0.91640
0.48022	0.58480
0.35272	0.96742
0.02119	-0.00188
-0.13181	0.30422
-0.25932	0.17668
-0.18282	0.15117
0.19971	0.66132
0.68424	-0.35899
0.58223	-1.17523
0.30171	1.06945
-0.41233	-0.35899
-0.05531	-0.71609
0.27621	0.30422
0.02119	0.53379
0.25071	0.86539
0.07220	0.04914
-0.08081	0.96742
-0.02981	-0.35899
0.09770	-0.07840
-0.36133	2.06425
0.02119	-2.22105
0.30171	-1.14973
0.68424	0.61031
0.55673	1.40105
0.17421	0.83988
-0.02981	0.25320
-0.02981	0.20219
0.42922	0.10015
0.65874	0.04914
0.91375	0.15117
0.55673	0.25320
0.17421	-0.84363
-0.94787	0.61031
-0.87136	0.32972
-0.71835	-0.15492
-0.15732	-1.73640
0.07220	-0.28246
0.70974	0.91640
0.14870	0.32972
0.45472	0.89089
0.53123	0.76336
0.68424	0.17668
0.19971	0.40625
-0.08081	0.12566
-0.33583	0.12566
0.12320	0.12566
0.14870	0.22769
-0.08081	0.22769
0.32721	0.22769
0.40372	-0.23145
0.48022	-0.07840
0.04670	0.07465
0.12320	-0.28246
-0.10631	0.76336
-0.02981	-0.35899
0.35272	0.17668
0.32721	0.20219
0.04670	-0.81812
0.12320	1.29902
-0.02981	0.61031
-0.05531	-0.41000
0.09770	1.14597
0.09770	-1.27726
0.42922	-0.41000
0.76074	0.58480
0.53123	0.17668
0.22521	0.89089
-0.13181	1.63062
-0.69285	-1.12422
-0.36133	-1.12422
-0.02981	0.25320
0.45472	0.40625
0.27621	0.50828
0.60773	0.78886
0.58223	-0.20594
0.14870	-0.63957
-0.53984	-1.27726
-0.41233	-0.30797
-0.08081	0.96742
0.53123	1.19699
0.45472	0.22769
0.37822	-0.23145
-0.05531	-0.18043
0.63323	-0.46102
-0.28482	0.55929
0.27621	1.06945
0.09770	-0.15492
-0.15732	-0.35899
-0.13181	0.48277
0.30171	0.45726
0.86275	0.53379
0.50573	0.58480
-0.48884	-0.48652
-0.59084	-1.27726
-0.28482	-0.18043
0.35272	0.38074
0.12320	0.55929
0.02119	0.40625
0.55673	0.15117
0.14870	0.04914
0.65874	1.14597
0.48022	0.40625
0.27621	0.45726
0.30171	-0.10391
-0.10631	-0.02739
0.04670	0.58480
0.25071	0.35523
-0.08081	-0.84363
-0.23382	-0.69059
-0.10631	1.47757
0.02119	0.38074
0.09770	-1.55785
0.12320	2.37034
0.40372	-2.50164
-0.05531	-1.32828
0.17421	0.15117
0.58223	1.27351
0.32721	1.78367
0.30171	1.27351
0.45472	0.04914
0.22521	0.22769
-0.08081	0.91640
-0.08081	-0.66508
-0.38683	-0.28246
-0.31033	-0.92016
0.12320	-0.86914
0.73524	0.35523
0.83725	0.99292
0.04670	0.73785
0.19971	0.10015
0.22521	-0.20594
0.25071	-1.22625
-0.13181	-0.46102
-0.31033	0.96742
0.02119	0.96742
0.07220	0.55929
0.17421	0.71234
0.02119	0.61031
-0.15732	0.99292
-0.02981	-1.53234
0.50573	0.25320
0.83725	0.43176
0.48022	-1.20074
0.09770	0.45726
-0.00431	-0.41000
0.42922	0.71234
0.50573	2.39585
-0.15732	0.30422
-0.25932	0.50828
0.04670	-3.21585
0.32721	-0.56305
-0.08081	0.68683
-0.08081	1.24800
-0.20832	1.68163
