0.12320	0.22769
0.09770	0.27871
-0.05531	-0.07840
-0.10631	0.30422
0.09770	0.40625
0.32721	0.07465
0.32721	0.10015
0.32721	0.07465
0.12320	0.07465
0.02119	0.04914
-0.02981	0.15117
0.12320	0.32972
0.04670	0.15117
-0.00431	0.02363
0.02119	0.25320
0.19971	0.12566
0.32721	0.25320
0.35272	0.10015
0.19971	-0.18043
0.12320	0.02363
0.12320	0.27871
0.04670	0.35523
-0.02981	0.20219
0.04670	0.25320
0.14870	0.35523
0.22521	-0.00188
0.19971	0.02363
0.17421	-0.00188
0.22521	0.02363
0.30171	0.25320
0.09770	0.25320
0.02119	0.27871
0.02119	0.12566
-0.05531	0.07465
0.17421	0.12566
0.37822	0.07465
0.35272	0.15117
0.27621	0.12566
0.12320	0.15117
0.14870	0.20219
0.04670	0.12566
0.07220	0.17668
-0.00431	0.25320
0.02119	0.17668
0.02119	0.15117
0.14870	0.10015
0.30171	0.12566
0.30171	0.12566
0.32721	0.07465
0.12320	0.15117
0.12320	0.25320
0.12320	0.25320
0.04670	-0.05289
-0.08081	0.17668
0.14870	0.35523
0.19971	0.04914
0.22521	-0.00188
0.19971	-0.05289
0.07220	0.12566
0.30171	0.10015
0.19971	-0.02739
0.37822	0.25320
0.04670	0.25320
-0.25932	0.15117
-0.10631	0.04914
0.07220	0.27871
0.25071	0.15117
0.27621	0.50828
0.50573	0.27871
0.27621	-0.15492
0.17421	-0.23145
-0.08081	0.22769
-0.00431	0.30422
-0.05531	0.25320
-0.05531	0.25320
0.19971	0.15117
0.42922	0.02363
0.19971	0.12566
0.17421	0.15117
0.25071	0.12566
0.30171	0.12566
0.12320	-0.12942
0.14870	-0.10391
-0.02981	0.68683
0.02119	0.30422
0.09770	0.15117
0.07220	-0.07840
0.19971	0.02363
-0.05531	0.07465
0.14870	0.10015
0.30171	0.15117
0.50573	0.25320
0.58223	0.20219
-0.15732	0.35523
-0.38683	0.32972
-0.00431	0.22769
0.02119	0.20219
0.22521	0.10015
0.42922	-0.53754
0.19971	0.32972
0.02119	0.63582
0.04670	-0.20594
0.14870	-0.30797
0.12320	0.40625
0.17421	0.40625
0.17421	-0.48652
0.22521	-0.43551
0.14870	1.50308
0.27621	0.63582
0.32721	0.20219
0.17421	-0.00188
-0.02981	-0.12942
0.02119	0.02363
0.02119	0.20219
0.12320	-0.05289
0.25071	-0.33348
0.22521	0.12566
0.19971	0.02363
0.19971	0.02363
0.09770	0.32972
0.19971	0.35523
-0.05531	0.22769
0.19971	0.10015
-0.08081	0.63582
0.02119	0.40625
0.22521	-0.05289
0.25071	-0.12942
0.09770	0.17668
0.22521	0.15117
0.32721	0.04914
0.02119	-0.00188
-0.05531	-0.05289
0.30171	0.30422
0.30171	0.32972
0.09770	0.12566
0.02119	0.10015
0.27621	0.04914
0.17421	0.25320
0.19971	0.22769
0.14870	0.12566
0.07220	-0.12942
0.14870	0.68683
0.07220	0.10015
0.02119	0.12566
-0.13181	0.10015
0.17421	0.04914
0.48022	-0.07840
0.12320	0.10015
0.07220	0.15117
0.22521	0.12566
0.32721	0.15117
0.32721	0.27871
0.07220	0.20219
0.07220	-0.00188
-0.13181	-0.12942
-0.02981	0.12566
0.37822	0.27871
0.60773	0.22769
0.19971	0.04914
-0.43783	0.15117
-0.38683	0.25320
0.14870	0.30422
0.12320	0.27871
0.12320	-0.05289
-0.13181	0.04914
0.35272	0.17668
0.73524	0.02363
0.91375	0.15117
0.22521	0.10015
-0.20832	0.07465
0.19971	0.17668
-0.13181	0.20219
-0.05531	0.02363
-0.08081	0.20219
-0.13181	0.81437
0.14870	0.40625
0.53123	-0.48652
0.32721	-0.66508
0.07220	0.25320
0.40372	0.40625
0.22521	0.15117
0.02119	0.53379
-0.25932	0.43176
-0.20832	-0.43551
-0.08081	-0.07840
0.32721	0.40625
0.07220	0.22769
0.12320	-0.15492
0.55673	0.45726
1.04126	-0.00188
0.53123	0.22769
0.53123	0.53379
-0.56534	-0.00188
-0.48884	-0.10391
-0.51434	-0.46102
0.32721	0.20219
0.48022	0.40625
0.02119	0.20219
-0.08081	-0.02739
-0.13181	0.17668
0.19971	0.35523
0.30171	0.10015
0.19971	0.40625
-0.02981	0.40625
-0.08081	-0.07840
0.32721	-0.43551
0.48022	-0.97117
0.48022	-0.58856
0.22521	0.25320
-0.25932	0.99292
0.53123	1.06945
0.12320	1.04394
-0.38683	1.14597
-0.97337	-0.15492
-0.23382	-0.18043
0.78624	-0.69059
1.19427	-0.84363
0.07220	-0.12942
-0.33583	0.61031
-0.00431	0.53379
-0.10631	0.12566
0.35272	-0.18043
0.42922	0.10015
0.12320	0.40625
0.27621	0.02363
0.22521	0.17668
-0.13181	0.58480
0.37822	0.15117
0.35272	-0.10391
0.96476	-0.20594
-0.08081	-0.20594
-1.07538	0.81437
-0.61635	1.32453
-0.36133	-1.09871
0.02119	-1.12422
0.02119	-0.02739
0.30171	-0.69059
0.86275	0.17668
0.88825	1.27351
0.76074	0.99292
0.73524	1.17148
-0.15732	1.29902
-0.18282	0.50828
0.09770	-0.48652
0.30171	-0.25695
-0.20832	-0.12942
-0.15732	0.27871
-0.89686	-0.20594
-0.28482	-0.99668
1.11776	1.04394
0.55673	1.29902
-0.10631	-3.08831
0.14870	-2.52714
0.07220	-0.07840
-0.53984	-1.04770
-0.28482	0.89089
0.63323	2.08976
1.50029	1.98773
1.06676	2.16628
0.14870	1.86019
0.07220	0.02363
-0.05531	0.27871
-0.97337	-0.56305
-0.92237	0.10015
-0.18282	0.25320
0.40372	-0.51203
0.55673	-2.19554
0.30171	-1.76191
0.30171	-0.18043
0.40372	0.35523
0.40372	0.73785
0.27621	1.06945
-0.02981	0.55929
-0.20832	0.07465
0.25071	0.30422
0.17421	0.61031
0.19971	0.45726
0.37822	0.55929
0.37822	-0.58856
-0.02981	-0.53754
-0.46334	-1.76191
-0.18282	-1.68539
0.04670	0.83988
0.91375	2.03874
0.53123	1.68163
0.50573	0.71234
0.22521	0.99292
-0.00431	0.27871
0.04670	-0.07840
-0.41233	-0.10391
-0.66735	-0.56305
-0.74385	-0.18043
-0.74385	1.29902
-0.28482	-1.27726
0.83725	-1.17523
1.04126	-0.66508
1.55129	-0.76711
1.24527	0.86539
-0.15732	1.52859
-0.61635	0.48277
-0.28482	0.40625
-0.13181	-0.46102
0.65874	0.32972
0.73524	0.86539
-0.79486	1.12046
-0.15732	-0.02739
0.37822	-1.09871
0.12320	0.45726
-0.13181	0.45726
0.07220	-2.11902
0.50573	-0.69059
0.63323	1.01843
1.09226	1.17148
-0.25932	1.09496
-0.69285	-0.15492
-0.31033	-0.15492
0.14870	0.25320
0.25071	0.25320
0.50573	0.66132
0.35272	0.20219
-0.15732	-0.46102
0.17421	1.27351
0.19971	-0.51203
-0.10631	-1.30277
0.07220	0.10015
0.81175	0.35523
0.96476	-0.58856
0.19971	-0.18043
0.12320	1.50308
0.19971	-0.07840
-0.41233	1.42656
-0.84586	0.89089
-0.71835	1.04394
-0.10631	-0.23145
0.09770	-1.04770
0.30171	0.55929
0.02119	0.53379
0.25071	-0.07840
0.48022	-1.55785
1.04126	-0.86914
1.06676	2.90601
0.53123	2.16628
0.02119	-0.89465
-0.43783	-3.52195
-0.64185	-1.91496
-0.23382	1.80917
0.14870	1.86019
-0.05531	0.91640
1.06676	1.98773
1.44929	0.50828
0.14870	0.20219
-0.51434	-0.23145
-0.82036	0.20219
-0.36133	0.58480
-0.51434	-0.18043
-0.48884	-0.86914
0.68424	-2.70570
1.50029	-0.76711
0.37822	1.42656
-0.28482	1.73265
0.35272	1.27351
1.09226	1.68163
0.58223	0.38074
-0.08081	0.27871
-0.59084	-0.25695
-0.99887	0.76336
-0.84586	-0.97117
-0.08081	-3.13933
0.50573	0.20219
1.11776	1.06945
1.11776	0.94191
0.88825	0.96742
0.04670	0.66132
-0.82036	1.06945
-0.94787	-0.69059
-0.05531	0.71234
0.04670	-0.07840
0.65874	-3.85355
0.42922	-0.99668
1.01576	1.47757
0.37822	2.16628
-0.15732	-0.76711
0.19971	1.57960
0.78624	2.52339
-0.33583	0.15117
-0.20832	-1.88945
0.02119	1.55410
-0.05531	-1.55785
0.48022	0.76336
0.70974	0.99292
-0.15732	0.07465
-0.41233	0.73785
-0.08081	-1.22625
0.04670	-0.46102
0.02119	0.55929
0.63323	-0.41000
0.58223	1.80917
0.32721	1.98773
-0.25932	-1.76191
0.30171	-0.38449
0.02119	0.63582
0.35272	0.55929
-0.33583	-0.38449
-0.15732	0.40625
0.02119	0.30422
-0.13181	0.48277
0.30171	-0.05289
-0.18282	-0.74160
0.17421	0.35523
0.68424	0.25320
1.14327	0.25320
0.58223	-0.58856
-0.31033	-2.75671
-0.56534	0.12566
-0.41233	1.19699
0.25071	1.35003
0.63323	1.35003
1.01576	1.22250
0.30171	0.43176
0.22521	1.19699
-0.59084	-0.05289
-0.61635	-2.24656
-0.66735	-0.79262
-0.36133	0.53379
0.09770	0.25320
0.48022	2.49788
0.73524	0.22769
0.81175	-2.88425
0.32721	0.02363
0.27621	1.35003
0.27621	0.53379
0.12320	1.14597
-0.33583	0.76336
-0.71835	-2.01699
-0.25932	1.40105
0.86275	-0.38449
1.39828	-0.51203
0.25071	2.93151
-0.28482	-0.66508
-0.08081	-2.45062
-0.18282	0.07465
0.22521	-0.48652
-0.13181	0.61031
-0.28482	1.32453
-0.53984	1.57960
0.07220	-0.35899
0.02119	-1.04770
0.63323	0.10015
1.37278	0.63582
1.04126	0.15117
0.14870	0.61031
-0.23382	0.12566
-0.33583	-0.63957
0.12320	-0.25695
0.02119	0.02363
-0.10631	1.22250
-0.36133	0.78886
0.70974	-3.67499
0.42922	-0.33348
0.25071	2.16628
-0.02981	0.38074
-0.31033	-0.20594
-0.18282	0.96742
0.68424	1.65613
0.17421	0.63582
0.17421	0.30422
0.09770	0.58480
-0.00431	0.38074
0.32721	-0.61406
0.63323	-0.46102
0.14870	-0.20594
0.17421	0.50828
-0.38683	-1.20074
-0.10631	0.66132
-0.10631	-1.83844
-0.00431	-1.63437
0.58223	1.57960
0.42922	2.70194
0.60773	-0.10391
1.01576	-0.61406
-0.02981	1.96222
-0.71835	-1.32828
-1.22839	0.25320
-0.18282	1.22250
0.09770	1.04394
0.65874	0.71234
-0.23382	3.64573
0.22521	-0.97117
0.30171	-3.95558
0.73524	-0.76711
0.35272	0.78886
0.14870	0.91640
0.37822	0.12566
0.17421	-0.07840
0.83725	0.53379
0.42922	0.00000
-0.15732	0.00000
-0.13181	0.00000
0.22521	0.00000
-0.02981	0.00000
-0.38683	2.19179
-0.51434	0.58480
-0.36133	-0.56305
0.37822	-0.66508
1.24527	-0.84363
0.96476	0.86539
0.27621	-1.02219
-0.25932	0.35523
-0.48884	1.86019
-0.66735	0.15117
-0.28482	-1.96597
0.53123	-0.23145
0.81175	0.55929
0.50573	-0.69059
0.22521	1.24800
0.55673	1.17148
0.14870	0.91640
-0.23382	0.32972
-0.23382	2.39585
-0.10631	-1.71090
-0.15732	-1.43031
0.60773	0.99292
1.19427	-1.94047
0.50573	-0.61406
-0.41233	-1.14973
-0.08081	-0.02739
-0.36133	0.53379
0.07220	1.55410
-0.13181	1.14597
0.32721	0.78886
0.12320	1.01843
0.70974	1.83468
0.04670	-1.50683
-0.23382	-0.99668
0.27621	1.42656
-0.00431	-2.52714
0.27621	1.37554
0.32721	2.11527
0.14870	-2.17003
0.02119	-3.41992
0.04670	-1.32828
0.35272	0.63582
-0.28482	2.59991
0.37822	2.14077
1.14327	4.94663
0.60773	-1.09871
-0.59084	-1.73640
-0.51434	0.38074
-0.53984	0.66132
0.37822	0.15117
0.45472	-1.60887
-0.10631	1.27351
0.37822	-0.38449
0.50573	-1.73640
0.93925	0.32972
-0.00431	0.76336
-0.38683	2.19179
-0.20832	2.26831
-0.59084	-2.37410
-0.99887	-2.83324
0.30171	0.45726
1.16877	1.01843
1.06676	1.35003
0.45472	1.45206
0.12320	0.94191
-0.41233	1.60511
-0.23382	-1.63437
-0.36133	-3.06281
0.42922	-0.00188
1.44929	0.35523
0.40372	-0.10391
0.25071	2.08976
-0.02981	0.38074
-0.28482	0.12566
-0.69285	0.20219
-0.53984	0.96742
0.42922	0.30422
0.50573	-0.15492
1.19427	0.10015
0.37822	-0.25695
0.58223	0.55929
-0.41233	-1.09871
-0.41233	-0.10391
-0.59084	0.99292
-1.02437	-1.30277
-0.56534	-1.07320
0.93925	2.01323
1.75531	-1.25176
1.19427	-1.14973
0.37822	0.83988
-0.38683	0.50828
0.02119	1.96222
0.22521	1.45206
-0.38683	1.22250
-0.99887	-0.07840
-0.41233	-0.02739
0.17421	0.30422
0.04670	0.91640
0.42922	-2.19554
1.06676	-2.32308
1.32178	-0.41000
0.58223	1.91120
0.07220	1.83468
-0.51434	-1.55785
-0.51434	0.04914
-0.66735	0.63582
0.27621	0.99292
1.27078	0.45726
0.68424	-0.58856
-0.02981	0.25320
-0.38683	0.68683
-0.08081	0.66132
-0.43783	-0.25695
0.40372	1.14597
-0.10631	-1.58336
0.99026	-0.35899
0.81175	1.75816
-0.18282	0.76336
-0.23382	-1.86394
-0.48884	-1.71090
-0.38683	-1.14973
-0.15732	0.15117
-0.02981	1.37554
0.50573	0.35523
1.44929	3.31413
0.88825	0.15117
0.81175	-2.50164
-0.08081	0.17668
-0.23382	1.35003
-0.48884	0.50828
-0.46334	0.86539
-0.48884	-1.20074
-0.20832	-0.48652
0.14870	1.09496
1.27078	0.76336
0.99026	-1.48133
0.58223	-3.49644
-0.13181	-0.63957
-0.38683	0.58480
0.04670	1.32453
-0.08081	2.31933
-0.71835	1.35003
0.17421	2.34484
1.34728	-1.22625
0.70974	-3.08831
0.17421	2.06425
-0.02981	-1.02219
-0.02981	-2.70570
0.09770	1.98773
-0.08081	1.57960
-0.28482	2.29382
-0.36133	0.45726
-0.61635	-1.50683
0.07220	1.73265
0.53123	-1.73640
1.29628	-0.92016
1.32178	0.66132
0.30171	-0.99668
-0.18282	0.40625
-0.36133	3.28862
-0.13181	-0.84363
0.27621	-0.48652
-0.41233	-0.94566
-0.28482	-0.66508
-0.69285	-0.30797
0.91375	0.45726
1.34728	0.99292
0.04670	1.78367
-0.00431	1.32453
-0.25932	0.25320
0.81175	0.94191
0.17421	0.20219
-0.18282	-2.98628
-0.31033	2.49788
-0.36133	-2.90976
-0.23382	-3.82804
0.63323	1.70714
0.70974	1.83468
0.32721	0.10015
0.09770	3.03355
0.76074	0.91640
0.45472	-1.86394
-0.33583	-1.99148
0.04670	0.58480
-0.43783	1.19699
-0.18282	1.75816
-0.25932	0.81437
-1.35589	1.14597
0.42922	-0.05289
2.16333	-1.88945
1.93382	-3.11382
-0.23382	-2.14453
0.14870	-0.41000
-0.61635	1.55410
-0.69285	2.31933
-0.64185	2.08976
-0.82036	2.54890
0.12320	1.47757
0.65874	-1.81293
1.83181	-0.35899
0.55673	-2.29757
-0.08081	0.12566
-0.71835	-0.05289
-0.46334	0.58480
0.02119	1.37554
0.07220	0.55929
0.02119	0.91640
0.19971	2.49788
0.07220	-3.16484
1.62780	-4.87386
1.52579	0.35523
1.11776	1.68163
-0.20832	2.11527
-1.53441	-1.20074
-1.30489	0.38074
-0.89686	1.52859
-0.08081	1.40105
0.32721	1.14597
2.26534	1.78367
0.96476	-0.66508
0.88825	-0.84363
-0.74385	-0.25695
-0.61635	-1.63437
-0.79486	-1.35379
-0.53984	-0.71609
-0.28482	1.27351
0.35272	1.75816
1.09226	-0.10391
1.11776	-0.63957
0.65874	0.78886
-0.08081	0.40625
0.50573	-1.40480
0.45472	2.26831
-0.02981	0.45726
-0.59084	-0.74160
-0.59084	0.38074
-0.10631	0.99292
0.12320	0.91640
0.58223	2.34484
0.70974	-1.02219
0.76074	0.02363
-0.00431	-3.64948
-0.25932	-1.07320
-0.08081	-0.10391
0.12320	0.76336
-0.41233	1.65613
-0.46334	0.04914
0.37822	1.19699
0.83725	-0.25695
0.14870	0.45726
0.22521	0.94191
0.17421	-0.30797
0.48022	-1.55785
0.02119	-0.86914
-0.41233	0.55929
-0.08081	-0.56305
0.27621	0.02363
0.42922	1.27351
0.04670	1.09496
0.12320	0.91640
0.30171	0.83988
0.91375	-1.73640
0.07220	0.04914
-0.48884	3.92632
-0.10631	-1.22625
0.02119	-7.09303
0.48022	-0.58856
0.48022	1.32453
0.30171	1.57960
-0.15732	1.47757
-0.41233	2.75296
-0.13181	1.65613
-0.59084	-1.78742
-0.74385	-1.45582
0.55673	1.47757
1.83181	-1.04770
1.93382	-0.89465
0.55673	1.06945
-0.25932	-0.63957
-0.51434	-0.38449
-1.22839	1.37554
-0.53984	-0.48652
-0.79486	-1.30277
-0.59084	2.29382
0.68424	3.21210
1.14327	-1.88945
0.68424	-3.44542
1.04126	1.24800
0.55673	0.10015
0.04670	1.32453
-0.10631	0.17668
0.50573	1.14597
0.50573	0.99292
-0.66735	-1.58336
-0.25932	-1.65988
-0.02981	-0.41000
0.07220	1.60511
0.45472	0.86539
0.48022	-0.51203
0.17421	0.07465
-0.61635	0.55929
-0.13181	1.37554
0.07220	0.10015
0.17421	0.20219
-0.64185	-1.32828
0.17421	-1.68539
1.24527	0.45726
1.44929	-0.07840
0.22521	-0.99668
-0.05531	0.81437
0.02119	1.73265
-0.28482	-0.10391
-0.59084	0.96742
-0.38683	3.82429
-0.59084	-1.83844
-0.00431	-2.45062
0.27621	0.99292
0.70974	0.55929
1.50029	-0.41000
1.60230	0.81437
0.42922	0.12566
-0.18282	0.25320
-0.74385	0.30422
-0.79486	0.78886
0.32721	0.43176
-0.31033	-0.51203
-0.18282	-2.11902
0.65874	0.35523
1.27078	0.78886
0.07220	-0.12942
0.17421	2.14077
-0.28482	0.07465
-0.76936	-2.29757
-0.28482	0.55929
0.14870	0.25320
0.70974	-0.00188
0.42922	1.68163
0.14870	1.78367
0.48022	1.86019
0.58223	0.61031
0.40372	-4.26167
-0.15732	-0.79262
-0.02981	0.55929
-0.56534	0.58480
-0.43783	0.81437
-0.08081	0.83988
0.14870	2.57441
0.19971	-1.99148
-0.64185	-2.70570
0.53123	1.01843
1.01576	-0.30797
1.88281	0.48277
0.60773	1.29902
0.04670	1.01843
-0.69285	0.55929
-0.48884	1.19699
-0.51434	-1.27726
-0.48884	-0.33348
0.04670	0.48277
1.16877	-1.53234
1.65330	-0.23145
0.76074	1.12046
-0.31033	0.35523
-1.27939	0.45726
-0.89686	-0.86914
-0.41233	-0.05289
0.68424	3.44167
0.50573	-1.50683
0.63323	-1.25176
-0.05531	0.94191
0.27621	0.07465
-0.18282	0.20219
-0.08081	0.45726
0.50573	1.86019
0.73524	0.07465
0.42922	0.45726
1.06676	0.45726
0.73524	-2.04250
0.32721	-2.06800
-0.76936	0.20219
-0.71835	-0.46102
-0.43783	2.14077
-0.71835	1.57960
-0.79486	-0.76711
-0.23382	0.48277
0.42922	0.89089
2.01032	-0.43551
1.32178	-3.03730
0.17421	-0.46102
0.12320	3.49268
-0.10631	2.82948
-0.89686	-6.17475
-0.00431	0.86539
-0.05531	1.52859
0.81175	2.16628
-0.25932	-1.40480
0.30171	0.48277
0.88825	-0.74160
0.22521	0.78886
-0.33583	1.60511
-0.31033	0.25320
-0.38683	-0.20594
0.02119	0.76336
0.45472	0.10015
1.11776	-1.37929
0.17421	-0.18043
0.07220	-1.04770
-0.05531	-0.51203
-0.08081	0.68683
0.12320	0.55929
-0.41233	0.71234
-0.51434	1.47757
0.40372	0.48277
1.85731	0.86539
0.70974	-0.02739
-0.08081	0.63582
-0.92237	-2.78222
-0.61635	-2.39961
0.25071	1.50308
0.40372	2.67644
0.22521	1.04394
0.12320	1.70714
-0.23382	-0.69059
0.09770	-0.02739
0.73524	-0.51203
1.24527	1.42656
-0.05531	1.06945
-0.48884	-2.04250
0.50573	-0.76711
0.35272	0.91640
0.19971	0.73785
-0.51434	0.81437
-0.36133	0.45726
0.07220	-0.51203
1.55129	-0.00188
0.27621	0.22769
-0.46334	-0.61406
-0.87136	-1.22625
-0.23382	1.17148
0.19971	0.22769
0.09770	2.21730
0.32721	0.91640
-0.10631	-1.02219
0.12320	-2.14453
0.81175	-2.27207
1.29628	-1.40480
0.50573	1.93671
0.30171	-0.23145
-0.13181	2.34484
-0.28482	2.16628
-0.59084	1.42656
-0.84586	0.63582
-0.61635	0.50828
0.83725	1.73265
1.14327	-2.11902
0.42922	-1.37929
0.35272	-3.64948
0.68424	-0.97117
0.09770	1.09496
-0.51434	1.24800
-0.48884	2.29382
-0.43783	-1.30277
-0.89686	-2.09351
0.45472	0.94191
1.75531	1.63062
1.88281	0.61031
0.04670	2.08976
-1.10088	-0.99668
-1.02437	-0.53754
-0.05531	1.57960
0.45472	0.32972
0.37822	-0.25695
0.19971	-1.25176
0.63323	1.86019
0.53123	0.68683
0.17421	-1.30277
-0.43783	-1.63437
-0.89686	0.63582
-0.61635	0.43176
0.19971	0.07465
0.96476	0.78886
1.39828	1.68163
0.45472	0.15117
-0.71835	-0.92016
-0.05531	0.99292
0.17421	2.24281
-0.31033	-0.30797
-0.15732	-4.13413
1.24527	-0.94566
2.03582	1.83468
0.12320	-0.20594
-0.79486	1.01843
-0.53984	1.17148
-0.23382	2.24281
-0.00431	-0.10391
-0.20832	-1.35379
0.12320	0.10015
0.68424	-0.07840
-0.08081	-1.68539
0.58223	0.45726
1.09226	-0.05289
0.68424	0.89089
-0.28482	1.98773
-0.76936	0.25320
-0.51434	-0.94566
-0.08081	0.17668
0.17421	-1.35379
0.19971	-1.35379
0.12320	0.45726
0.48022	3.31413
0.17421	-1.17523
0.27621	0.02363
0.76074	0.15117
0.83725	0.07465
1.24527	1.35003
-0.71835	-0.25695
-0.51434	-0.86914
-0.28482	-0.86914
-0.31033	-1.60887
-0.33583	1.14597
-0.02981	2.03874
0.30171	0.71234
0.19971	0.22769
0.58223	-0.12942
0.09770	-0.20594
0.35272	0.30422
0.12320	-0.76711
0.17421	-0.38449
0.73524	0.78886
1.16877	-0.25695
0.55673	0.25320
-0.66735	0.30422
-0.23382	0.66132
-0.28482	0.63582
-0.46334	0.48277
-0.53984	-0.86914
-0.38683	0.02363
-0.15732	-1.14973
0.35272	-0.41000
1.19427	0.12566
1.85731	2.72745
0.86275	1.52859
-0.23382	-2.39961
-0.76936	-1.65988
-0.56534	2.16628
-0.51434	2.85499
-0.23382	-3.06281
-0.02981	-2.73121
0.86275	-0.00188
0.99026	2.70194
0.63323	2.03874
0.81175	1.14597
0.88825	3.84979
-0.31033	-3.47093
-1.20288	-0.66508
-1.58541	1.47757
-0.28482	-3.93007
0.93925	-2.83324
1.60230	0.73785
1.21977	0.61031
0.35272	0.04914
-1.30489	1.17148
-1.02437	0.96742
-0.13181	0.73785
0.58223	0.61031
0.04670	0.12566
0.60773	1.09496
0.25071	0.55929
0.09770	-1.53234
0.19971	3.49268
-0.28482	-3.21585
0.14870	-6.91448
1.09226	1.65613
0.60773	1.42656
0.45472	2.19179
-0.08081	1.68163
-0.02981	1.80917
-0.13181	2.47238
-0.31033	0.15117
-0.18282	-0.25695
1.09226	-1.09871
1.83181	-0.56305
-0.31033	0.35523
-0.82036	0.12566
-0.89686	-1.14973
-0.46334	0.45726
-0.43783	-1.30277
0.50573	0.17668
0.96476	2.62542
1.50029	-1.78742
0.17421	-0.46102
0.04670	-1.02219
-0.28482	0.71234
-0.48884	1.19699
-0.74385	2.06425
-0.25932	1.42656
-0.33583	1.09496
1.16877	1.04394
2.21434	0.99292
2.11233	-1.73640
-0.10631	-0.89465
-1.07538	0.25320
-1.73842	-1.71090
-1.48340	-2.17003
-0.64185	-1.25176
0.48022	2.67644
1.09226	1.40105
1.06676	0.99292
0.76074	-1.12422
0.53123	-0.86914
0.27621	0.73785
0.04670	1.14597
-0.18282	1.29902
-0.71835	-0.56305
-0.28482	0.35523
0.09770	0.25320
1.11776	-0.61406
0.48022	-0.61406
-0.08081	-0.25695
0.25071	0.66132
-0.02981	1.24800
-0.23382	0.20219
-0.10631	0.76336
-0.02981	-1.63437
-0.25932	-1.60887
0.32721	1.47757
0.50573	0.66132
0.55673	0.12566
0.19971	0.83988
0.22521	0.20219
-0.15732	1.14597
-0.13181	-1.48133
0.53123	-0.84363
0.73524	0.25320
0.02119	0.76336
-0.28482	1.06945
-0.10631	2.03874
-0.05531	-0.63957
-0.61635	-1.58336
0.04670	-0.71609
0.83725	1.06945
0.63323	-0.30797
0.63323	2.06425
0.81175	-0.97117
-0.41233	-1.76191
-0.51434	0.86539
0.35272	0.20219
0.42922	1.06945
0.30171	0.48277
-0.41233	-0.07840
-0.23382	0.30422
0.12320	0.43176
-0.18282	0.55929
-0.00431	1.27351
0.53123	-0.30797
0.93925	-1.09871
0.78624	0.10015
0.22521	-0.38449
-0.00431	-2.42511
-0.13181	1.45206
-0.20832	0.61031
0.02119	1.01843
-0.13181	1.60511
-0.33583	-1.60887
-0.53984	-0.71609
0.35272	3.21210
0.76074	-0.66508
1.14327	-2.39961
0.40372	0.71234
0.22521	0.04914
0.02119	0.83988
0.12320	1.63062
-0.13181	0.86539
-0.18282	0.45726
0.07220	-0.86914
0.07220	-1.55785
-0.08081	-1.48133
0.25071	0.73785
0.78624	0.86539
0.42922	2.26831
0.30171	0.96742
-0.38683	-0.20594
-0.61635	-1.83844
0.19971	-2.32308
0.70974	1.50308
-0.08081	0.30422
0.02119	1.22250
0.07220	-0.15492
-0.20832	1.06945
-0.05531	-0.66508
0.58223	-1.17523
0.53123	-0.25695
0.12320	0.53379
0.17421	1.27351
-0.20832	-0.89465
0.07220	0.32972
0.22521	1.32453
0.19971	0.81437
0.25071	-1.60887
1.16877	0.55929
0.78624	1.57960
-0.56534	0.83988
-0.61635	-3.39441
-0.23382	-0.28246
-0.05531	0.63582
0.37822	1.14597
0.22521	0.02363
-0.28482	-0.35899
0.35272	0.35523
0.91375	0.15117
0.83725	1.14597
-0.15732	0.35523
-0.56534	-0.20594
-0.41233	-0.15492
-0.46334	0.17668
-0.02981	0.96742
0.27621	-0.15492
0.42922	-1.04770
0.30171	2.93151
1.47479	-3.06281
0.45472	-2.83324
0.37822	0.83988
-0.38683	1.55410
-0.64185	1.80917
-0.28482	0.73785
0.04670	0.96742
0.68424	0.89089
1.29628	0.71234
0.09770	0.81437
-0.51434	-1.04770
-0.46334	1.65613
-0.23382	-1.73640
-0.25932	-3.75152
-0.05531	-0.51203
0.78624	2.21730
1.29628	-0.02739
0.58223	0.83988
-0.08081	0.02363
0.04670	0.17668
-0.15732	1.35003
-0.71835	1.12046
-0.33583	0.71234
0.07220	-1.68539
0.63323	-1.68539
0.42922	0.04914
-0.18282	0.94191
0.35272	1.35003
0.53123	0.86539
0.12320	-0.33348
-0.38683	1.12046
-0.00431	-0.58856
0.50573	-0.35899
1.39828	0.38074
0.48022	-0.46102
-0.18282	0.35523
-0.61635	-0.18043
-0.48884	0.17668
0.04670	0.99292
-0.08081	0.27871
0.19971	-0.02739
0.30171	0.12566
0.22521	0.86539
-0.02981	-0.33348
0.45472	-0.28246
0.65874	-0.97117
0.32721	0.53379
-0.18282	1.14597
0.17421	0.89089
-0.31033	-3.34339
0.32721	-1.37929
0.99026	1.68163
0.40372	0.99292
-0.18282	0.71234
-0.08081	2.21730
-0.46334	-0.10391
-1.04987	-0.99668
-0.10631	0.71234
0.35272	0.25320
0.48022	0.53379
0.70974	-0.02739
0.88825	-0.92016
0.35272	0.25320
0.22521	1.47757
0.48022	0.04914
-0.76936	-0.25695
-0.71835	0.04914
-0.41233	-0.28246
0.14870	0.02363
0.65874	0.58480
1.21977	-0.41000
0.48022	-0.23145
0.58223	0.40625
-0.10631	0.55929
-0.20832	-0.61406
-0.48884	0.38074
-0.71835	0.27871
-0.20832	1.45206
0.76074	-0.35899
1.04126	-0.46102
0.35272	0.04914
-0.02981	-0.10391
0.04670	1.73265
0.09770	-2.19554
0.19971	0.76336
-0.41233	-0.10391
-0.08081	1.14597
0.19971	2.01323
0.17421	-0.10391
0.40372	-0.00188
0.25071	0.04914
0.12320	-0.18043
0.42922	-1.04770
0.78624	-0.86914
0.12320	0.07465
-0.59084	-0.97117
-0.46334	-0.18043
-0.10631	0.38074
-0.23382	1.24800
0.02119	1.27351
0.27621	0.83988
0.07220	1.96222
0.22521	-0.76711
0.55673	-0.35899
1.01576	-0.66508
1.37278	-2.19554
0.93925	-0.20594
0.45472	0.58480
-1.38139	1.80917
-1.15188	-0.35899
-0.76936	1.88570
-0.48884	0.25320
0.22521	-0.79262
-0.05531	0.15117
0.68424	-2.06800
0.78624	0.20219
0.32721	1.80917
0.48022	0.04914
0.35272	0.89089
0.27621	0.96742
0.27621	0.43176
0.42922	-0.35899
0.09770	-0.15492
0.19971	-0.56305
0.96476	-0.38449
0.30171	0.58480
-0.84586	0.07465
-0.76936	0.76336
-0.53984	0.17668
-0.10631	-0.12942
0.07220	-1.65988
0.40372	-0.07840
0.63323	1.12046
0.19971	0.81437
0.07220	-0.81812
0.88825	-0.20594
0.55673	2.52339
0.04670	2.44687
-0.05531	0.38074
0.22521	-2.37410
0.09770	1.32453
0.19971	-0.86914
-0.23382	-1.43031
0.55673	0.43176
-0.00431	0.12566
0.55673	1.73265
0.07220	1.22250
-0.13181	0.81437
-0.05531	0.99292
-0.20832	-0.15492
-0.48884	-0.99668
-0.00431	-0.41000
0.48022	0.45726
0.88825	-0.12942
0.68424	-1.17523
0.50573	-1.37929
0.12320	1.09496
-0.33583	-0.94566
-0.41233	-0.20594
0.30171	2.34484
0.96476	1.27351
-0.18282	-0.92016
-0.48884	0.50828
0.02119	0.89089
0.25071	-0.18043
0.07220	0.45726
-0.53984	0.63582
0.32721	0.45726
0.88825	0.30422
1.65330	-0.23145
0.40372	-0.69059
-0.23382	-2.90976
-0.33583	1.65613
-0.38683	-0.10391
-0.66735	-0.02739
-0.36133	0.94191
-0.25932	-0.15492
0.40372	0.50828
0.25071	0.78886
1.16877	0.76336
1.24527	-0.25695
0.81175	0.61031
0.12320	0.58480
-0.61635	-3.80253
-0.82036	-0.71609
-0.74385	1.98773
-0.10631	0.94191
0.42922	1.01843
0.65874	-1.20074
0.55673	1.17148
0.17421	-0.35899
-0.02981	-1.43031
0.19971	2.75296
0.50573	-0.15492
-0.00431	0.53379
-0.38683	0.86539
-0.15732	-0.25695
0.58223	-0.15492
0.81175	0.50828
0.02119	-0.07840
0.02119	-0.30797
0.25071	-0.25695
-0.02981	0.04914
-0.28482	-0.05289
-0.20832	-0.30797
-0.00431	-0.18043
0.09770	0.66132
0.27621	0.15117
0.48022	-0.15492
0.42922	0.66132
0.30171	0.68683
0.07220	0.63582
0.19971	0.78886
0.78624	-1.55785
-0.05531	-2.39961
-0.51434	0.25320
-0.02981	0.50828
0.32721	0.17668
0.07220	2.62542
0.22521	2.08976
0.17421	0.91640
0.19971	0.55929
0.04670	-0.79262
-0.05531	-0.05289
0.35272	-0.79262
0.73524	0.22769
-0.46334	-0.00188
-0.08081	-3.82804
0.30171	-1.48133
1.19427	0.96742
0.30171	1.32453
-0.46334	1.45206
-0.51434	0.73785
-0.31033	-0.33348
0.27621	0.38074
0.07220	0.61031
0.09770	1.27351
-0.08081	-0.05289
0.48022	-0.41000
1.24527	-0.76711
1.27078	1.47757
-0.23382	0.99292
-0.31033	-1.76191
0.04670	-0.00188
-0.25932	1.09496
-0.36133	0.53379
0.12320	-0.35899
0.48022	0.15117
0.58223	0.38074
0.99026	0.43176
0.37822	0.89089
-0.41233	0.32972
-0.79486	-0.15492
-0.48884	0.02363
-0.41233	-0.07840
-0.43783	-0.07840
-0.20832	0.63582
1.52579	-0.48652
1.98482	-0.97117
0.93925	-1.88945
-0.13181	0.76336
-0.33583	1.09496
-0.36133	1.80917
-0.66735	0.20219
-0.76936	0.12566
-0.48884	0.15117
0.42922	-1.63437
1.50029	0.40625
1.44929	1.60511
0.27621	0.38074
0.12320	0.81437
-0.15732	-0.46102
-0.46334	-0.10391
-0.53984	0.45726
-0.23382	0.17668
-0.28482	0.15117
-0.08081	0.04914
0.40372	-0.30797
0.96476	-0.02739
1.09226	0.22769
0.17421	-0.15492
-0.31033	0.27871
0.14870	0.12566
0.04670	1.37554
0.04670	-0.46102
-0.31033	-1.45582
-0.28482	1.19699
-0.53984	-1.14973
0.55673	-0.79262
1.50029	0.76336
1.24527	0.55929
-0.31033	1.06945
-0.41233	0.96742
-0.69285	1.37554
-0.38683	0.32972
-0.25932	-0.43551
0.12320	-0.84363
0.78624	1.60511
0.83725	-1.65988
0.35272	-1.30277
0.22521	0.32972
0.63323	0.73785
-0.31033	0.73785
-0.43783	0.61031
-0.15732	0.10015
-0.41233	-0.38449
-0.43783	-0.07840
0.17421	2.06425
0.81175	-0.25695
0.96476	-2.62918
0.99026	-0.20594
0.22521	1.09496
0.35272	1.06945
0.07220	1.52859
-0.23382	-0.30797
-0.56534	-0.66508
-0.48884	-0.33348
-0.13181	1.35003
-0.36133	-1.37929
-0.08081	0.45726
0.55673	-0.00188
0.32721	0.43176
0.86275	0.78886
0.32721	0.20219
0.12320	0.32972
0.25071	0.76336
0.07220	-0.43551
0.22521	-0.99668
0.22521	-0.07840
-0.10631	1.83468
-0.10631	3.84979
0.48022	-3.29238
0.63323	-4.33819
0.14870	-0.48652
-0.05531	1.09496
-0.08081	2.52339
-0.43783	1.29902
0.04670	0.81437
0.25071	1.09496
-0.08081	0.38074
0.04670	-0.25695
0.55673	0.30422
0.55673	0.10015
0.19971	-0.89465
0.14870	-1.25176
-0.20832	-0.41000
0.02119	0.22769
0.37822	0.63582
0.12320	1.04394
-0.18282	0.10015
-0.28482	0.30422
0.63323	0.73785
1.19427	-0.46102
0.48022	-1.58336
-0.23382	0.25320
-0.28482	0.40625
-0.51434	0.68683
-0.61635	1.55410
-0.08081	0.17668
0.42922	-0.61406
0.65874	0.73785
0.48022	2.06425
0.09770	-1.88945
0.04670	-1.81293
0.25071	0.55929
0.40372	0.78886
0.14870	1.47757
-0.00431	0.55929
0.17421	-0.56305
0.12320	0.43176
0.27621	0.20219
0.17421	1.12046
-0.10631	-0.99668
-0.53984	-0.25695
0.27621	-0.97117
0.91375	-0.79262
1.09226	2.19179
-0.10631	0.71234
-0.02981	-0.71609
-0.64185	-0.05289
-0.51434	1.04394
-0.25932	0.58480
0.27621	1.35003
0.45472	-0.92016
0.25071	-1.40480
-0.08081	0.30422
0.48022	0.61031
1.27078	0.50828
1.01576	0.55929
0.25071	1.73265
-0.46334	-0.61406
-1.12638	-3.16484
-0.51434	0.25320
0.07220	0.66132
0.78624	0.55929
0.99026	0.81437
0.07220	0.83988
0.14870	-0.38449
0.02119	0.17668
-0.38683	0.04914
-0.33583	-0.23145
-0.02981	0.86539
0.14870	1.63062
0.37822	-1.32828
0.42922	-1.96597
0.48022	0.43176
0.30171	0.22769
0.48022	0.86539
0.32721	0.76336
0.22521	1.17148
0.30171	-0.46102
-0.05531	1.86019
-0.56534	-0.81812
-0.53984	-2.68019
-0.28482	0.76336
-0.10631	3.00804
0.35272	-1.88945
0.99026	-2.22105
1.70430	0.63582
0.12320	1.22250
-0.33583	1.83468
-0.33583	1.65613
-0.28482	0.89089
-0.08081	-1.35379
-0.00431	-1.83844
0.17421	-0.28246
-0.20832	0.61031
0.04670	0.55929
0.22521	0.91640
0.50573	-0.02739
0.88825	0.04914
0.99026	0.55929
0.14870	-1.22625
0.27621	0.20219
-0.25932	0.17668
-0.13181	-0.61406
-0.13181	0.94191
-0.08081	-0.05289
0.17421	-1.55785
0.07220	0.35523
-0.23382	0.53379
0.07220	1.01843
0.45472	0.35523
0.30171	-0.05289
0.12320	0.96742
-0.41233	0.15117
0.02119	-0.89465
0.37822	0.86539
0.63323	0.30422
0.70974	-1.45582
0.53123	0.04914
-0.02981	0.30422
-0.41233	0.27871
-0.43783	0.20219
-0.02981	0.71234
-0.08081	0.40625
0.07220	0.22769
0.22521	0.22769
0.45472	2.42136
0.60773	-2.17003
0.58223	-2.39961
0.76074	0.55929
0.22521	-0.20594
-0.20832	0.53379
-0.56534	1.04394
-0.69285	1.06945
-0.00431	1.63062
0.63323	0.15117
0.68424	0.15117
0.25071	1.45206
0.09770	-1.50683
-0.13181	-2.04250
-0.00431	0.55929
-0.13181	0.66132
-0.00431	-1.12422
0.12320	-0.30797
0.07220	0.43176
0.37822	0.68683
-0.13181	0.50828
0.02119	0.15117
0.30171	2.42136
0.83725	-0.99668
0.35272	-1.94047
0.60773	-0.79262
0.45472	-0.00188
0.50573	1.93671
-0.23382	0.10015
-0.51434	2.90601
-0.59084	-0.25695
-0.28482	-0.41000
-0.05531	0.66132
-0.02981	0.04914
0.27621	1.70714
0.45472	-3.90456
0.88825	-1.73640
0.55673	0.35523
0.07220	0.91640
-0.28482	1.55410
-0.33583	1.60511
0.50573	0.83988
0.73524	0.91640
0.86275	0.71234
-0.36133	-1.91496
-0.20832	-0.51203
-0.41233	0.04914
-0.97337	0.81437
-0.51434	0.30422
-0.18282	-1.17523
0.22521	-0.63957
0.50573	0.35523
0.70974	0.81437
1.09226	1.06945
0.96476	0.38074
0.50573	0.96742
0.02119	-0.89465
-0.20832	0.30422
-0.28482	-0.74160
0.04670	1.40105
-0.00431	-0.48652
-0.13181	-0.81812
-0.23382	0.22769
0.12320	-0.05289
1.04126	1.96222
0.42922	1.80917
-0.82036	-2.09351
-0.38683	-0.92016
0.63323	0.15117
1.60230	-0.53754
-0.20832	0.99292
-0.46334	0.35523
0.04670	0.53379
0.07220	1.12046
0.02119	0.07465
0.27621	-0.23145
0.45472	0.48277
0.12320	0.30422
-0.28482	0.35523
0.30171	-0.53754
0.48022	-0.48652
0.50573	-0.10391
0.35272	0.35523
-0.00431	0.27871
-0.08081	0.30422
0.04670	0.50828
0.02119	1.29902
0.19971	-0.71609
-0.08081	-0.92016
0.04670	-1.17523
0.04670	0.78886
0.30171	0.86539
0.27621	0.53379
0.86275	-0.00188
0.09770	0.07465
-0.28482	0.53379
0.12320	1.55410
-0.00431	-1.14973
0.02119	-1.40480
0.04670	0.96742
0.42922	0.48277
1.06676	0.68683
0.53123	0.89089
0.02119	2.29382
-0.18282	-1.88945
-0.46334	-2.45062
-0.51434	-0.05289
-0.13181	1.04394
-0.13181	1.06945
0.14870	1.17148
0.60773	0.45726
1.24527	-0.07840
0.93925	-0.02739
-0.08081	0.15117
-0.48884	0.10015
-0.33583	0.22769
-0.13181	-1.27726
-0.13181	0.35523
0.09770	-0.30797
0.81175	0.43176
1.34728	0.73785
-0.02981	-0.61406
-0.20832	-0.25695
-0.36133	1.09496
-0.15732	0.22769
-0.02981	-0.10391
0.22521	0.96742
-0.28482	0.35523
0.09770	-1.65988
0.68424	-2.09351
1.29628	2.03874
0.88825	0.91640
-0.08081	0.15117
-0.48884	0.04914
-0.64185	0.53379
-0.13181	0.43176
-0.13181	2.21730
0.07220	-0.56305
0.07220	-2.78222
0.42922	1.45206
0.27621	-0.20594
0.12320	-0.58856
0.22521	0.50828
0.40372	3.11007
0.30171	-1.43031
0.40372	-3.08831
0.19971	-0.20594
0.22521	1.27351
-0.20832	1.09496
-0.76936	0.66132
-0.53984	0.07465
-0.43783	0.61031
0.45472	0.45726
0.99026	0.45726
0.99026	1.06945
0.19971	-0.18043
-0.18282	-1.37929
-0.00431	0.12566
-0.15732	0.55929
-0.23382	0.17668
0.17421	-1.14973
0.12320	-0.05289
0.48022	-0.12942
1.04126	-0.33348
1.06676	1.42656
-0.56534	0.40625
-0.56534	0.35523
-0.46334	0.25320
-0.13181	-0.05289
0.09770	0.58480
0.27621	0.76336
0.37822	0.22769
0.22521	-0.23145
0.19971	-0.02739
0.27621	-0.58856
0.25071	1.60511
-0.08081	-2.09351
0.30171	-0.99668
0.37822	-0.02739
0.32721	-0.10391
-0.02981	1.12046
0.02119	0.35523
0.25071	0.17668
-0.28482	0.55929
0.07220	-0.28246
-0.05531	1.29902
0.40372	1.83468
-0.15732	-1.53234
0.12320	0.27871
0.35272	0.07465
0.32721	0.30422
0.07220	0.30422
0.14870	0.25320
-0.02981	-0.07840
-0.38683	0.02363
-0.00431	-0.69059
0.02119	-0.23145
0.22521	0.35523
0.65874	-0.00188
1.24527	-1.63437
0.58223	0.63582
0.40372	-1.60887
-0.05531	0.89089
-0.59084	1.24800
-0.41233	1.80917
0.09770	1.04394
0.60773	-0.23145
-0.00431	2.49788
-0.48884	-1.07320
0.07220	-1.55785
0.53123	1.32453
0.07220	-0.25695
-0.10631	1.06945
0.02119	-1.04770
0.07220	-0.81812
0.40372	0.66132
0.60773	0.25320
0.42922	0.58480
0.22521	1.75816
0.12320	-1.68539
-0.53984	-2.98628
0.30171	1.14597
0.40372	1.42656
0.09770	1.17148
0.19971	0.94191
0.02119	0.50828
-0.00431	0.68683
-0.23382	-0.00188
0.17421	-1.27726
0.76074	-0.12942
0.96476	-0.15492
0.65874	0.04914
-0.15732	0.17668
0.12320	0.17668
-0.38683	0.45726
-0.74385	0.53379
-0.69285	-0.69059
0.02119	-0.92016
-0.18282	-0.41000
0.42922	-2.17003
0.76074	0.63582
0.55673	4.64053
0.63323	-0.69059
0.25071	-0.86914
-0.05531	1.35003
-0.02981	3.79878
-0.02981	-1.14973
0.02119	-1.78742
0.17421	-0.97117
0.58223	0.48277
-0.00431	1.42656
0.25071	0.04914
0.25071	1.17148
0.76074	-2.42511
0.32721	0.25320
0.04670	0.10015
-0.48884	-1.12422
-0.25932	0.76336
-0.41233	0.96742
-0.33583	0.32972
0.02119	0.27871
0.35272	0.58480
0.55673	-0.48652
0.42922	-0.10391
0.19971	0.07465
-0.02981	0.17668
0.50573	0.40625
0.37822	0.02363
-0.18282	0.99292
0.45472	-0.28246
1.24527	-1.48133
0.58223	0.68683
-0.38683	0.27871
-0.71835	0.35523
-1.07538	1.35003
-0.48884	0.15117
0.17421	-0.61406
1.14327	-0.30797
0.58223	1.47757
0.32721	-1.04770
-0.08081	-0.33348
-0.02981	1.01843
-0.15732	1.52859
-0.18282	-0.33348
0.07220	0.27871
0.53123	0.45726
0.45472	-1.68539
0.55673	-0.92016
0.68424	-0.20594
-0.05531	1.65613
-0.23382	0.99292
-0.20832	1.70714
0.02119	-0.35899
0.02119	-1.04770
0.02119	1.19699
-0.33583	-1.17523
0.22521	0.58480
0.93925	0.17668
0.58223	-0.92016
-0.31033	0.50828
0.17421	0.50828
0.07220	0.22769
-0.48884	1.68163
0.25071	0.96742
0.81175	-4.23616
0.96476	-0.86914
-0.33583	-0.05289
-0.51434	1.29902
-0.41233	1.04394
-0.15732	0.94191
0.45472	1.12046
0.93925	0.76336
0.02119	0.22769
-0.13181	0.04914
0.14870	0.76336
0.45472	0.61031
0.02119	-4.10862
0.07220	-1.12422
0.30171	0.73785
-0.10631	0.35523
-0.36133	0.48277
-0.08081	1.22250
0.27621	1.27351
0.63323	0.43176
0.63323	0.83988
0.30171	-1.48133
0.07220	-0.99668
-0.10631	0.38074
0.09770	0.55929
0.02119	-0.00188
0.14870	1.24800
-0.00431	0.12566
-0.10631	0.04914
0.55673	-0.28246
0.86275	-0.46102
0.86275	1.75816
-0.46334	1.88570
-0.66735	-3.95558
-0.10631	-0.99668
-0.18282	0.76336
-0.02981	0.99292
0.27621	0.50828
0.53123	0.73785
0.17421	1.98773
0.30171	-1.09871
-0.13181	-0.66508
-0.31033	-0.71609
0.22521	0.17668
0.88825	0.50828
-0.15732	0.15117
-0.10631	0.15117
0.09770	1.24800
0.32721	1.32453
0.22521	-1.27726
0.35272	-1.48133
0.27621	-0.38449
-0.08081	-0.56305
-0.25932	3.46718
0.14870	-1.17523
0.22521	-2.09351
0.58223	0.63582
0.60773	1.29902
0.17421	1.47757
-0.15732	0.35523
-0.00431	0.61031
-0.02981	0.68683
0.04670	0.53379
0.09770	0.17668
-0.36133	-0.99668
0.07220	0.02363
0.70974	-0.76711
1.39828	-2.75671
0.02119	0.10015
-0.25932	0.73785
-0.18282	1.06945
-0.38683	0.53379
-0.31033	0.71234
-0.48884	0.32972
0.19971	1.24800
1.44929	-0.84363
1.34728	0.20219
0.48022	-0.66508
-0.15732	-0.38449
-0.64185	1.14597
-0.59084	-0.28246
-0.25932	0.04914
0.02119	0.61031
0.14870	0.94191
0.27621	-0.02739
0.50573	-0.41000
0.12320	0.30422
0.17421	0.48277
0.58223	0.50828
0.83725	0.12566
0.40372	0.04914
-0.08081	-0.56305
-0.20832	-0.74160
-0.38683	0.48277
-0.23382	0.66132
0.19971	-0.00188
0.19971	-0.48652
0.30171	0.30422
0.22521	0.45726
0.17421	0.81437
-0.02981	2.44687
-0.15732	-2.17003
0.50573	-0.94566
1.01576	5.45678
-0.33583	-2.37410
-0.20832	-6.96549
0.60773	0.58480
0.58223	1.65613
-0.15732	2.39585
-0.51434	1.96222
-0.84586	1.06945
-0.33583	0.61031
0.12320	0.15117
0.83725	-0.12942
0.65874	-0.30797
0.81175	-0.38449
0.42922	0.12566
0.27621	-1.12422
0.48022	-0.25695
-0.10631	-0.66508
-0.23382	0.81437
-0.33583	0.30422
0.12320	-0.41000
0.53123	-0.58856
-0.00431	-0.30797
-0.10631	1.06945
-0.10631	1.27351
0.07220	0.15117
0.37822	0.40625
0.35272	0.61031
0.12320	0.78886
0.30171	0.10015
0.27621	0.55929
-0.15732	-2.29757
-0.08081	0.35523
0.73524	0.22769
0.55673	-0.35899
0.07220	1.27351
-0.25932	0.55929
-0.31033	0.04914
0.12320	-0.46102
-0.02981	0.45726
0.53123	0.43176
0.40372	0.20219
0.63323	-0.41000
-0.25932	0.04914
-0.48884	-0.28246
-0.25932	1.68163
-0.23382	-0.30797
0.12320	-0.51203
0.27621	0.86539
0.30171	-2.14453
0.19971	0.25320
0.12320	1.27351
0.30171	0.15117
0.96476	-1.45582
1.39828	0.63582
0.48022	1.14597
-0.13181	1.65613
-0.61635	-0.46102
-0.79486	0.94191
-0.31033	0.45726
-0.23382	-0.43551
0.50573	-0.79262
0.30171	0.43176
0.55673	-0.05289
-0.00431	-0.74160
-0.18282	0.04914
-0.02981	1.17148
0.53123	0.32972
0.02119	-1.12422
-0.10631	0.53379
0.19971	0.55929
0.17421	0.96742
0.12320	-1.37929
0.12320	0.04914
0.14870	0.07465
0.22521	0.15117
0.17421	0.94191
0.27621	0.17668
0.22521	0.32972
0.14870	0.43176
-0.00431	0.15117
0.58223	0.63582
0.91375	-0.02739
0.42922	-1.02219
-0.38683	0.30422
-0.05531	0.66132
-0.43783	0.04914
-0.18282	0.02363
-0.08081	0.53379
-0.13181	-0.48652
0.04670	0.86539
0.09770	1.09496
0.19971	-1.96597
0.42922	-0.99668
0.88825	1.73265
0.78624	0.61031
0.55673	0.91640
-0.20832	0.66132
0.30171	-0.33348
-0.18282	0.12566
-0.43783	0.61031
0.07220	-1.02219
-0.15732	-0.10391
-0.41233	0.35523
-0.05531	-0.51203
0.55673	0.20219
0.81175	0.38074
-0.00431	0.43176
-0.13181	0.27871
0.07220	-0.35899
0.53123	1.93671
0.25071	-0.05289
-0.15732	-1.45582
0.40372	0.73785
0.88825	0.02363
0.40372	0.22769
-0.33583	1.27351
-0.33583	0.38074
-0.08081	-0.53754
0.40372	1.12046
-0.10631	-1.71090
-0.02981	1.22250
0.04670	-0.02739
-0.13181	-0.25695
0.17421	0.96742
0.30171	0.55929
-0.02981	0.07465
0.32721	0.53379
0.68424	1.24800
0.60773	-2.47613
-0.00431	0.07465
0.25071	0.35523
0.09770	0.02363
-0.20832	0.32972
-0.10631	0.53379
-0.02981	0.89089
-0.08081	-0.43551
0.55673	0.50828
0.40372	-0.63957
-0.08081	-0.56305
-0.46334	0.12566
-0.02981	1.19699
0.22521	-0.28246
0.37822	-0.25695
0.53123	1.68163
0.17421	0.86539
0.42922	-1.22625
-0.25932	-1.43031
-0.25932	1.37554
-0.05531	-0.46102
0.22521	0.35523
0.63323	1.86019
0.37822	-1.40480
-0.53984	-0.41000
-0.33583	0.22769
0.55673	0.43176
1.27078	0.22769
0.25071	0.91640
-0.02981	0.17668
-0.36133	-0.30797
-0.02981	-0.25695
-0.08081	-0.76711
-0.18282	1.55410
-0.53984	2.26831
0.12320	-0.99668
0.17421	-5.35850
0.88825	-0.02739
0.60773	1.65613
0.45472	1.52859
-0.23382	1.42656
-0.23382	1.19699
0.02119	0.10015
-0.08081	0.50828
0.07220	0.55929
0.42922	-1.07320
0.91375	1.55410
0.25071	-0.33348
0.32721	-1.88945
0.17421	-0.92016
0.02119	-0.23145
-0.74385	0.66132
-0.48884	1.24800
-0.23382	1.86019
0.12320	-0.58856
0.42922	-0.66508
0.09770	1.09496
0.30171	-1.25176
0.63323	0.27871
0.76074	0.53379
0.27621	0.71234
-0.10631	0.73785
0.12320	0.40625
-0.18282	0.02363
-0.38683	-0.76711
-0.25932	-0.12942
-0.08081	-1.20074
0.83725	-0.28246
0.76074	0.91640
1.04126	2.67644
-0.18282	-0.89465
-0.59084	-1.37929
-0.08081	0.48277
0.02119	0.86539
-0.15732	1.12046
-0.20832	1.14597
0.27621	0.22769
0.48022	-1.09871
0.81175	-1.32828
0.27621	-0.07840
-0.08081	0.45726
-0.33583	0.30422
-0.23382	0.30422
0.37822	1.04394
0.78624	0.63582
0.45472	0.76336
0.42922	-1.12422
-0.05531	-1.22625
-0.00431	-0.23145
-0.08081	0.38074
0.12320	0.68683
0.02119	0.76336
0.02119	0.40625
-0.08081	0.38074
0.12320	1.17148
0.55673	2.67644
-0.10631	-2.90976
0.19971	-3.03730
0.37822	0.40625
0.88825	1.29902
-0.13181	0.35523
-0.25932	0.43176
-0.61635	0.63582
-0.79486	0.58480
-0.33583	0.63582
0.73524	0.12566
1.44929	0.25320
1.75531	1.24800
0.73524	0.04914
-0.28482	-1.96597
-0.64185	-0.46102
-1.07538	0.55929
-0.84586	-1.78742
-0.36133	0.53379
-0.05531	1.27351
0.86275	0.66132
1.75531	1.17148
0.93925	1.24800
0.32721	-1.20074
-0.08081	0.53379
-0.41233	0.25320
-0.28482	0.25320
-0.38683	0.22769
-0.13181	-0.30797
0.19971	0.04914
0.50573	0.38074
0.25071	0.07465
-0.02981	-0.05289
0.30171	0.07465
0.60773	-0.84363
0.45472	-0.25695
0.19971	0.71234
-0.13181	-0.23145
-0.18282	0.63582
0.07220	1.09496
-0.05531	1.22250
-0.20832	-0.30797
0.45472	-0.48652
0.53123	0.25320
0.25071	-2.14453
-0.13181	0.07465
-0.18282	1.06945
0.02119	0.20219
-0.56534	0.86539
0.04670	0.17668
0.96476	0.32972
0.76074	0.73785
0.40372	0.99292
0.17421	-0.33348
-0.05531	-0.97117
0.30171	0.30422
-0.20832	-0.18043
-0.36133	-0.51203
-0.51434	0.48277
-0.02981	0.61031
0.65874	-0.07840
0.48022	-0.69059
1.01576	0.27871
0.65874	-0.97117
0.07220	-0.35899
-0.71835	0.55929
-0.20832	1.75816
0.09770	0.22769
0.45472	-0.12942
0.09770	1.19699
-0.25932	0.81437
-0.13181	-0.18043
0.14870	0.04914
0.83725	-0.07840
0.88825	-0.00188
0.50573	0.96742
-0.13181	-1.07320
-0.20832	-0.69059
0.04670	1.06945
-0.18282	0.73785
-0.05531	-1.55785
-0.28482	-1.73640
0.07220	0.99292
0.12320	1.70714
0.30171	1.42656
-0.15732	-0.02739
0.04670	1.35003
0.93925	0.38074
1.57679	-3.72601
0.76074	2.70194
0.78624	-0.79262
-0.87136	-1.96597
-0.71835	0.66132
-0.76936	1.52859
-0.51434	-0.56305
-0.08081	0.30422
-0.13181	0.91640
0.37822	1.12046
0.22521	0.89089
1.29628	-1.35379
0.70974	-0.07840
0.91375	0.45726
0.02119	0.45726
-0.33583	-0.20594
-0.28482	-0.25695
-0.33583	-0.79262
-0.20832	-0.33348
-0.31033	0.48277
-0.33583	0.43176
0.48022	0.58480
1.55129	0.68683
0.93925	-0.02739
0.07220	-0.69059
-0.13181	0.76336
-0.48884	0.35523
-0.10631	0.45726
-0.00431	-0.23145
0.53123	1.88570
0.25071	-1.48133
0.07220	-0.43551
-0.00431	1.42656
0.27621	-0.51203
0.40372	0.27871
0.19971	0.12566
-0.15732	0.22769
-0.08081	4.20690
-0.15732	-3.11382
0.02119	-2.29757
0.48022	-0.51203
-0.02981	0.45726
0.14870	0.96742
0.76074	2.39585
1.67880	0.99292
0.53123	0.27871
-0.20832	-0.58856
-0.69285	-0.81812
-0.41233	0.55929
-0.74385	-1.09871
-0.46334	1.04394
-0.02981	0.96742
0.73524	-1.37929
0.88825	-0.48652
0.78624	0.32972
-0.13181	0.78886
-0.08081	0.40625
0.19971	0.02363
-0.28482	0.02363
-0.51434	1.70714
0.45472	-2.88425
0.30171	-0.00188
0.42922	-1.02219
0.53123	0.48277
0.58223	1.65613
0.04670	1.42656
-0.02981	1.12046
-0.20832	0.86539
-0.23382	0.17668
-0.13181	-0.35899
0.09770	-0.28246
0.42922	0.02363
0.27621	0.25320
0.37822	0.73785
0.40372	-2.11902
0.32721	-1.27726
-0.08081	0.12566
-0.28482	0.55929
0.22521	0.35523
0.73524	0.35523
0.73524	0.91640
0.83725	0.76336
-0.36133	-0.66508
-0.87136	-0.38449
-0.61635	0.58480
-0.31033	1.86019
0.42922	-1.04770
0.32721	0.66132
0.53123	-2.24656
0.73524	-0.86914
0.35272	1.24800
-0.20832	0.99292
-0.15732	1.88570
-0.36133	-1.78742
0.32721	0.17668
0.68424	0.53379
0.78624	0.78886
0.48022	-0.05289
0.19971	-1.09871
0.04670	1.86019
-0.59084	-1.07320
-0.18282	-1.65988
0.17421	1.96222
0.70974	0.25320
0.68424	-1.17523
0.27621	-0.81812
-0.13181	1.17148
-0.08081	1.68163
0.12320	-0.89465
-0.08081	0.40625
-0.31033	0.38074
-0.05531	0.48277
-0.08081	-0.86914
-0.08081	0.40625
0.65874	0.40625
0.88825	0.12566
0.93925	0.86539
-0.28482	-0.33348
-0.31033	-0.43551
-0.25932	0.35523
-0.08081	-0.35899
0.14870	0.20219
0.50573	-0.20594
0.73524	0.17668
0.86275	0.55929
-0.15732	0.55929
-0.59084	0.45726
-0.46334	0.27871
-0.23382	0.12566
-0.05531	-0.28246
0.09770	-0.25695
0.40372	1.24800
0.55673	-0.25695
0.50573	0.78886
0.30171	-2.11902
0.02119	-1.63437
0.32721	0.53379
0.14870	0.86539
0.58223	2.21730
0.37822	-0.10391
-0.02981	-1.20074
-0.20832	1.75816
-0.00431	0.25320
-0.20832	0.32972
0.12320	0.91640
-0.23382	0.71234
-0.48884	-0.15492
-0.20832	-0.15492
0.45472	-1.02219
0.86275	-1.45582
0.22521	0.40625
-0.10631	-0.25695
0.27621	0.53379
0.58223	0.53379
0.73524	1.12046
0.32721	0.45726
0.19971	0.61031
0.02119	1.40105
-0.51434	-2.17003
-0.51434	-1.88945
-0.23382	0.04914
0.27621	1.63062
0.48022	0.96742
0.45472	1.17148
0.07220	0.68683
-0.05531	3.00804
0.22521	-1.07320
0.02119	-3.72601
0.37822	-0.15492
0.35272	0.40625
0.30171	1.24800
-0.13181	0.53379
0.07220	-0.41000
0.37822	0.45726
0.63323	0.96742
0.81175	-1.09871
-0.00431	1.42656
-0.23382	-1.20074
-0.20832	-1.91496
-0.28482	0.50828
-0.05531	0.61031
0.02119	1.01843
-0.20832	1.52859
0.19971	-0.79262
0.35272	-1.83844
0.93925	0.35523
0.32721	0.66132
0.50573	0.76336
-0.05531	0.40625
-0.23382	0.61031
-0.51434	1.91120
-0.46334	-0.99668
0.12320	-1.73640
0.60773	0.45726
1.01576	0.99292
0.27621	-0.28246
-0.10631	-0.53754
0.12320	0.35523
0.12320	0.15117
0.02119	0.04914
0.14870	2.42136
-0.08081	-0.28246
0.22521	-3.13933
-0.08081	0.50828
0.27621	0.15117
0.76074	0.38074
0.81175	1.27351
-0.18282	0.96742
-0.18282	1.68163
0.12320	0.55929
-0.46334	-1.83844
-0.18282	-0.38449
0.35272	0.55929
0.45472	0.63582
0.04670	0.22769
0.32721	-0.15492
-0.00431	0.04914
-0.02981	1.19699
0.12320	-0.05289
-0.20832	-2.01699
0.04670	1.40105
0.58223	-0.41000
0.32721	-1.65988
0.32721	0.73785
0.27621	1.57960
0.09770	1.17148
0.48022	-1.37929
0.02119	0.89089
-0.28482	0.45726
-0.23382	-0.25695
0.22521	0.45726
0.30171	0.10015
0.37822	-0.12942
0.22521	-0.25695
0.19971	1.45206
0.02119	-0.15492
0.25071	0.86539
0.30171	-1.60887
0.35272	-2.70570
-0.41233	0.86539
-0.36133	0.94191
0.09770	0.99292
0.78624	0.76336
0.40372	-0.23145
0.17421	1.32453
-0.20832	-0.28246
0.02119	-0.23145
0.02119	0.35523
0.04670	0.02363
-0.10631	-0.02739
0.02119	0.17668
0.27621	0.02363
0.99026	0.63582
0.93925	0.43176
0.12320	0.43176
-0.15732	0.66132
-0.10631	-3.19035
0.07220	-2.42511
-0.00431	0.81437
-0.00431	2.67644
-0.20832	2.01323
0.14870	-1.12422
0.30171	0.50828
-0.18282	0.27871
0.22521	2.08976
0.42922	0.07465
0.55673	-0.79262
0.32721	0.04914
-0.18282	-0.66508
-0.08081	-0.18043
-0.33583	0.35523
-0.53984	0.10015
0.37822	0.50828
1.21977	-0.61406
0.99026	0.55929
0.40372	-0.10391
0.14870	-0.43551
-0.43783	1.22250
-0.74385	-0.00188
-0.48884	-0.66508
-0.13181	0.58480
-0.28482	0.35523
0.22521	0.04914
0.32721	-0.07840
0.42922	0.43176
1.19427	0.43176
0.58223	0.91640
0.22521	-1.04770
-0.18282	0.66132
-0.18282	0.07465
-0.00431	-0.18043
0.63323	-0.33348
0.02119	0.22769
-0.15732	0.45726
0.02119	0.38074
0.14870	0.07465
-0.00431	-0.25695
0.07220	0.32972
0.14870	0.32972
0.09770	0.10015
0.19971	-0.25695
0.17421	-0.25695
0.48022	1.75816
0.12320	-0.76711
-0.02981	-1.32828
-0.13181	0.76336
0.30171	3.18659
0.45472	-1.73640
0.60773	-1.88945
0.65874	-1.22625
0.04670	0.43176
-0.18282	1.88570
-0.33583	1.04394
-0.61635	1.14597
-0.71835	0.66132
-0.31033	0.27871
0.99026	-0.07840
1.39828	0.02363
0.60773	-0.25695
-0.15732	-0.35899
-0.56534	0.32972
-0.25932	0.25320
0.22521	-1.78742
0.63323	-0.43551
0.42922	-0.46102
0.09770	0.83988
0.12320	0.76336
-0.18282	-0.25695
-0.18282	0.86539
0.04670	0.94191
0.37822	0.91640
0.42922	1.12046
0.22521	0.07465
0.19971	-1.86394
0.17421	0.12566
0.25071	0.45726
0.02119	1.27351
-0.13181	-0.69059
0.12320	-0.25695
0.17421	0.71234
-0.18282	0.66132
-0.10631	0.27871
0.04670	-0.05289
0.93925	0.07465
1.01576	0.20219
0.27621	-0.23145
-0.08081	1.42656
-0.38683	-1.68539
-0.51434	0.50828
-0.41233	-0.66508
-0.18282	-0.30797
-0.02981	0.07465
0.32721	-0.41000
0.68424	1.55410
1.11776	0.73785
0.78624	0.22769
0.14870	1.50308
-0.08081	0.40625
-0.36133	-0.53754
-0.31033	1.01843
-0.08081	-2.45062
-0.10631	-2.62918
0.48022	1.06945
1.29628	1.17148
0.68424	0.96742
-0.18282	1.37554
-0.56534	0.35523
-0.33583	-0.00188
-0.41233	0.61031
0.07220	-0.23145
0.14870	-0.53754
0.02119	0.20219
0.76074	0.66132
0.91375	0.32972
0.63323	0.15117
-0.20832	-2.65468
0.19971	0.25320
-0.18282	-0.35899
-0.15732	-0.10391
-0.20832	0.76336
-0.08081	0.91640
-0.25932	0.78886
0.50573	0.55929
0.76074	0.55929
0.48022	0.48277
0.22521	0.10015
-0.10631	0.73785
0.17421	-0.63957
-0.23382	-1.07320
-0.05531	0.61031
0.12320	0.53379
0.42922	0.68683
0.55673	0.96742
0.12320	-3.75152
0.02119	-0.56305
0.04670	1.04394
-0.02981	1.57960
0.17421	1.57960
0.32721	-0.15492
0.09770	0.81437
0.25071	0.91640
0.63323	0.76336
-0.00431	-0.69059
-0.51434	-0.56305
-0.48884	0.35523
0.99026	1.52859
0.27621	-1.30277
-0.13181	-1.04770
-0.02981	1.04394
0.22521	-1.32828
0.30171	-0.48652
0.17421	0.71234
0.17421	1.04394
0.17421	1.06945
0.19971	0.71234
0.27621	0.25320
0.45472	0.55929
0.32721	0.10015
0.32721	-0.07840
-0.08081	0.04914
0.32721	-0.58856
-0.36133	0.86539
-0.69285	-0.05289
-0.51434	-1.76191
0.12320	-0.92016
1.24527	0.07465
0.86275	0.48277
0.12320	1.17148
-0.23382	1.29902
-0.20832	1.27351
0.09770	-0.10391
0.17421	-1.40480
0.25071	0.55929
0.09770	2.57441
0.12320	-0.71609
0.09770	-2.42511
0.14870	-0.76711
0.27621	0.58480
0.32721	0.81437
0.37822	1.35003
-0.10631	0.86539
-0.25932	-2.45062
0.19971	0.94191
-0.15732	1.06945
-0.51434	-1.88945
0.12320	0.35523
0.42922	0.35523
0.88825	1.04394
0.86275	0.58480
0.09770	0.83988
0.07220	0.12566
-0.33583	0.15117
-0.08081	-0.61406
0.09770	-0.35899
0.25071	-0.10391
0.32721	-0.58856
0.58223	1.55410
0.17421	0.17668
-0.13181	-1.65988
-0.02981	1.14597
-0.18282	0.04914
0.27621	-0.18043
0.50573	0.61031
0.42922	0.48277
0.04670	0.50828
0.02119	0.40625
-0.15732	1.32453
0.12320	-0.56305
0.09770	-1.45582
0.02119	-0.00188
0.14870	0.20219
0.42922	2.01323
0.22521	2.80397
0.12320	-4.72081
0.02119	-2.85874
0.48022	0.32972
0.12320	1.19699
-0.02981	1.47757
-0.10631	1.60511
0.02119	0.76336
0.02119	0.15117
0.07220	2.26831
-0.00431	-0.20594
-0.31033	-2.90976
0.25071	-0.86914
0.68424	0.40625
1.11776	0.66132
0.48022	1.47757
0.50573	-0.25695
0.02119	0.04914
-0.41233	0.35523
-0.53984	0.25320
-0.33583	0.71234
-0.13181	0.30422
-0.28482	0.30422
0.32721	-0.41000
1.14327	-1.88945
1.09226	-0.00188
0.30171	0.73785
-0.38683	1.24800
-0.02981	0.12566
0.09770	0.25320
-0.00431	0.73785
0.19971	-0.51203
-0.48884	0.94191
0.60773	0.17668
0.53123	-0.43551
0.27621	-0.48652
-0.02981	-0.89465
-0.18282	1.73265
-0.05531	1.50308
-0.10631	-2.19554
0.30171	-0.99668
0.68424	0.50828
0.19971	0.58480
0.32721	0.38074
0.19971	1.19699
0.32721	-0.35899
0.04670	-0.76711
0.50573	0.02363
-0.02981	0.78886
-0.15732	1.57960
-0.28482	-0.05289
-0.64185	-1.25176
-0.43783	-0.30797
0.32721	-0.46102
0.55673	-0.25695
0.73524	1.45206
0.19971	0.48277
-0.02981	1.24800
0.22521	-0.35899
0.42922	-1.07320
0.60773	0.12566
0.68424	0.53379
-0.41233	-0.84363
-0.10631	1.12046
0.14870	-0.25695
0.60773	-1.37929
-0.23382	0.58480
-0.23382	0.76336
0.02119	0.25320
-0.05531	0.66132
-0.02981	0.45726
0.12320	0.89089
0.42922	-0.38449
0.12320	-0.41000
-0.05531	-0.46102
0.70974	-0.02739
1.01576	0.04914
0.48022	0.40625
-0.23382	0.40625
-0.28482	0.66132
-0.38683	-0.10391
-0.43783	-0.74160
0.42922	1.65613
0.73524	-0.02739
0.58223	-1.37929
-0.10631	-0.61406
-0.28482	2.19179
-0.08081	0.35523
0.50573	-1.88945
0.07220	0.04914
0.09770	1.55410
0.17421	0.17668
0.14870	-0.61406
0.04670	0.53379
-0.20832	1.45206
0.17421	-0.92016
0.09770	-0.05289
0.37822	0.63582
0.17421	0.53379
0.45472	0.30422
0.48022	0.73785
-0.02981	-0.30797
-0.15732	-0.25695
0.07220	-0.15492
0.60773	-0.79262
0.40372	-0.10391
0.12320	-0.05289
-0.10631	0.32972
-0.53984	-0.05289
-0.23382	0.07465
0.02119	0.43176
0.09770	0.32972
0.12320	0.45726
0.17421	0.32972
0.60773	0.43176
0.19971	0.20219
0.37822	-1.04770
0.37822	-0.05289
-0.13181	1.04394
0.30171	1.19699
-0.02981	-2.04250
0.09770	0.63582
0.35272	0.53379
0.17421	-0.79262
0.14870	0.40625
0.02119	0.61031
-0.25932	0.53379
0.22521	0.81437
0.68424	0.53379
0.60773	0.32972
-0.33583	0.12566
-0.51434	0.55929
-0.13181	0.15117
