0.07220	0.25320
-0.00431	0.17668
-0.08081	0.07465
0.12320	0.15117
0.35272	0.32972
0.12320	0.10015
0.19971	0.12566
0.22521	0.17668
0.14870	0.07465
0.07220	0.07465
0.12320	0.12566
0.09770	0.12566
0.14870	0.12566
0.19971	0.27871
0.27621	0.17668
0.12320	0.10015
0.17421	0.12566
0.25071	0.25320
0.22521	0.20219
-0.20832	0.02363
0.07220	0.30422
0.12320	0.15117
0.12320	-0.63957
0.17421	-0.43551
0.45472	0.38074
0.12320	0.35523
0.02119	0.50828
0.12320	0.48277
0.12320	0.45726
0.02119	-0.05289
-0.00431	-0.02739
0.12320	0.10015
0.07220	-0.00188
0.12320	0.12566
0.37822	-0.05289
0.19971	0.15117
0.53123	0.27871
0.25071	0.22769
-0.31033	-0.46102
-0.15732	-0.15492
0.27621	0.20219
0.37822	0.04914
0.09770	0.38074
0.22521	0.68683
0.30171	0.17668
-0.05531	0.12566
0.07220	-0.30797
0.37822	0.38074
0.12320	0.30422
0.22521	-0.51203
-0.18282	0.07465
0.07220	0.86539
-0.18282	0.04914
-0.05531	-0.81812
-0.00431	-1.07320
0.37822	1.17148
1.24527	1.17148
0.93925	1.60511
0.76074	-0.30797
-0.08081	-1.63437
-0.41233	-1.17523
-0.59084	-0.20594
-0.31033	1.68163
-0.56534	1.17148
0.42922	0.58480
0.09770	-0.20594
0.25071	-1.63437
0.12320	-0.15492
0.42922	1.80917
0.50573	0.35523
0.68424	-0.86914
0.76074	-1.25176
-0.00431	-0.46102
-0.74385	-0.15492
-0.18282	1.01843
0.25071	0.94191
0.17421	-0.07840
-0.59084	0.86539
0.53123	0.48277
0.30171	-0.12942
0.99026	1.35003
0.32721	0.73785
0.53123	-1.32828
-0.05531	-1.32828
-1.20288	-0.74160
-0.38683	0.73785
-0.02981	2.01323
1.39828	0.76336
0.91375	-1.91496
-0.61635	-2.04250
-0.23382	0.86539
-0.53984	0.38074
-1.17738	1.27351
0.14870	1.52859
0.88825	0.35523
1.57679	-0.25695
0.40372	-0.00188
0.30171	-0.05289
-0.25932	0.25320
-0.56534	1.14597
-0.36133	0.86539
0.93925	0.99292
1.85731	-0.97117
0.07220	-3.03730
-0.25932	-1.37929
-0.08081	0.32972
-0.51434	1.12046
-0.08081	1.83468
-0.15732	2.03874
-0.92237	-0.84363
0.22521	0.38074
1.11776	0.30422
0.99026	-1.78742
0.12320	-0.97117
-0.25932	0.63582
-0.33583	0.55929
0.32721	0.10015
0.53123	0.55929
-0.31033	0.40625
-0.69285	0.02363
-0.00431	0.07465
-0.23382	1.50308
-0.31033	-0.71609
0.81175	-0.74160
1.04126	0.35523
1.21977	-0.10391
1.01576	1.45206
0.60773	-1.73640
-0.23382	-2.04250
-0.25932	0.83988
-0.20832	1.50308
-1.07538	-0.46102
-1.02437	0.66132
-0.02981	1.35003
0.25071	0.78886
1.14327	1.06945
0.65874	-0.15492
0.53123	-0.07840
-0.02981	0.15117
0.70974	0.25320
0.19971	0.25320
-0.38683	-1.71090
-0.69285	-1.60887
-0.97337	-0.20594
-0.36133	0.04914
0.65874	0.43176
1.80631	1.01843
0.58223	1.06945
-0.02981	0.55929
0.09770	0.04914
0.07220	1.12046
-0.18282	1.09496
-0.15732	0.07465
-0.15732	0.22769
0.60773	-1.25176
0.27621	-2.37410
0.45472	1.45206
0.07220	1.63062
-0.18282	-1.81293
-0.41233	-0.99668
-0.10631	3.28862
0.19971	1.63062
0.58223	-0.79262
0.65874	-0.30797
0.73524	-1.99148
-0.10631	-1.25176
-0.28482	2.37034
-0.33583	2.49788
-0.02981	1.98773
0.50573	0.71234
1.42379	-0.00188
0.07220	-1.58336
-0.25932	-0.18043
0.12320	0.20219
-0.38683	1.04394
-0.71835	-1.45582
-0.38683	-0.99668
0.58223	-0.15492
0.19971	0.10015
1.14327	0.91640
0.70974	0.58480
-0.02981	0.76336
-1.17738	1.06945
-0.87136	0.55929
-0.28482	-0.43551
0.73524	-0.33348
0.81175	-1.22625
1.32178	0.81437
0.25071	-1.12422
0.17421	-0.76711
0.25071	2.14077
-0.15732	2.57441
-0.41233	0.76336
-0.28482	-4.66979
0.93925	-3.49644
0.91375	-0.23145
0.17421	2.11527
-0.25932	4.05386
-0.94787	0.73785
-0.46334	-1.78742
-0.02981	-0.18043
-0.23382	0.22769
0.19971	3.87530
1.50029	1.01843
0.35272	-4.08312
-0.48884	-3.49644
-0.53984	-0.58856
0.68424	-0.20594
0.83725	1.93671
0.60773	0.58480
-0.48884	1.52859
-0.36133	1.24800
-0.74385	-0.28246
-0.02981	-0.66508
0.09770	-1.65988
0.35272	-0.69059
0.58223	1.78367
0.73524	4.38546
0.88825	0.94191
0.60773	-0.33348
0.09770	2.34484
-0.20832	-4.77183
-0.38683	-1.17523
0.07220	0.55929
0.02119	0.55929
-0.10631	1.27351
0.14870	1.06945
-0.02981	0.43176
0.73524	1.40105
0.91375	2.44687
-0.00431	-6.02170
-0.79486	-5.02690
-0.20832	1.27351
-0.02981	1.45206
-0.28482	2.16628
0.09770	2.39585
0.37822	1.19699
1.04126	0.81437
0.70974	-0.07840
0.76074	-2.37410
0.02119	-0.41000
-0.33583	0.32972
-0.61635	0.48277
-0.41233	0.76336
0.19971	1.57960
-0.00431	0.12566
0.40372	-2.60367
0.60773	-0.86914
0.32721	0.25320
0.19971	3.13558
-0.28482	-0.43551
0.07220	-4.21066
-0.36133	-1.20074
0.50573	1.04394
0.68424	-0.00188
0.50573	1.50308
0.04670	2.59991
-0.33583	1.47757
-0.38683	0.71234
-0.69285	3.62022
0.17421	-2.57816
0.63323	-2.96078
0.91375	-0.15492
0.09770	-0.66508
0.14870	1.04394
0.17421	0.81437
-0.31033	0.81437
-0.05531	0.27871
0.42922	1.22250
0.78624	0.04914
-0.08081	-1.17523
0.12320	-0.58856
0.53123	-0.30797
-0.53984	0.45726
-0.36133	0.89089
-0.53984	0.91640
0.12320	-0.92016
1.24527	-0.51203
0.88825	-0.43551
0.17421	2.03874
-0.46334	-0.86914
0.02119	-0.58856
-0.00431	1.17148
-0.28482	0.12566
-0.13181	1.27351
0.48022	0.99292
0.32721	1.50308
0.83725	-0.25695
-0.20832	-1.37929
0.02119	-1.27726
0.32721	0.73785
0.27621	-0.79262
-0.23382	-1.88945
-0.10631	2.47238
0.32721	1.42656
-0.20832	-1.27726
0.45472	-1.91496
0.50573	0.45726
0.02119	1.01843
-0.25932	1.78367
0.19971	0.12566
0.02119	0.45726
-0.31033	1.68163
-0.18282	-1.12422
0.53123	-0.30797
1.19427	0.43176
0.99026	0.73785
0.12320	-0.46102
-0.13181	-1.91496
-0.31033	1.29902
-0.46334	0.04914
-0.15732	0.22769
0.19971	1.98773
-0.13181	-2.62918
-0.41233	-1.37929
0.40372	1.55410
0.37822	2.03874
0.12320	-0.07840
0.68424	-0.84363
0.40372	1.78367
0.04670	1.68163
0.27621	-1.14973
0.42922	-1.12422
0.17421	3.67124
0.12320	-0.76711
-0.25932	-2.88425
-0.48884	-1.65988
0.37822	0.20219
0.27621	1.19699
0.09770	-0.28246
-0.31033	1.37554
-0.13181	1.40105
0.63323	1.35003
0.42922	0.71234
0.25071	1.70714
0.83725	-1.43031
0.50573	-1.86394
0.19971	-0.30797
-0.38683	0.04914
-1.15188	-0.53754
-0.66735	0.58480
-0.23382	0.02363
-0.05531	-0.33348
0.99026	0.58480
1.19427	0.83988
0.63323	-0.81812
0.78624	1.80917
0.04670	0.40625
-0.43783	-1.32828
-0.20832	0.15117
-0.10631	-0.00188
-0.31033	2.65093
0.02119	-1.76191
0.68424	-1.50683
0.22521	0.45726
0.22521	3.05905
-0.28482	2.26831
0.09770	-4.56776
-0.38683	-1.07320
0.22521	1.47757
0.78624	0.68683
1.04126	0.50828
-0.28482	0.53379
-0.43783	-0.35899
-0.51434	1.19699
0.22521	-0.07840
0.91375	-0.25695
0.30171	-0.51203
0.45472	0.07465
0.09770	1.06945
-0.08081	0.91640
-0.46334	-1.55785
-0.28482	-1.07320
0.25071	0.61031
0.32721	1.80917
0.17421	1.96222
0.40372	-4.41472
0.53123	-1.76191
0.27621	1.47757
0.19971	2.06425
-0.13181	1.68163
0.07220	-0.71609
-0.20832	0.81437
-0.28482	0.40625
-0.10631	0.20219
0.04670	0.50828
0.32721	0.50828
0.70974	0.17668
1.42379	-1.35379
0.93925	-0.33348
0.45472	0.55929
-0.36133	1.60511
-1.27939	-0.20594
-0.94787	-2.50164
0.22521	-0.76711
0.42922	-0.89465
0.48022	1.60511
0.12320	0.78886
0.12320	0.89089
0.04670	0.76336
0.02119	2.26831
-0.18282	0.58480
0.17421	-3.67499
1.24527	0.12566
1.67880	0.50828
0.45472	0.96742
-0.48884	0.48277
-0.20832	0.76336
-0.53984	1.57960
-0.59084	0.50828
-0.56534	-2.09351
-0.61635	-0.97117
0.86275	1.40105
1.21977	-0.53754
0.81175	-2.50164
0.17421	0.89089
-0.18282	1.17148
0.14870	1.17148
-0.10631	1.80917
-0.23382	-0.20594
-0.28482	0.45726
-0.02981	0.20219
0.53123	-3.19035
0.50573	-0.66508
1.47479	0.91640
0.04670	0.48277
-0.08081	0.04914
0.09770	0.76336
-0.02981	1.83468
-0.25932	0.32972
-0.56534	0.07465
-0.61635	1.29902
-0.82036	-0.33348
-0.43783	0.99292
1.37278	-3.31788
1.85731	-4.87386
0.81175	1.27351
0.04670	2.52339
-0.08081	1.19699
-0.00431	2.62542
-0.15732	-0.86914
-0.25932	-0.61406
-0.53984	1.12046
-0.61635	-0.74160
0.32721	0.30422
0.96476	0.68683
0.93925	0.04914
-0.25932	0.20219
0.35272	0.99292
-0.13181	-0.51203
0.07220	-0.35899
0.02119	2.90601
0.48022	-0.30797
0.53123	-5.38401
0.70974	0.73785
-0.31033	-0.48652
-0.64185	0.32972
0.04670	-0.74160
0.07220	0.55929
0.48022	2.06425
-0.02981	1.83468
-0.64185	1.24800
-0.46334	1.83468
0.37822	0.20219
1.04126	-1.68539
1.14327	-0.74160
0.25071	1.01843
-0.10631	-1.81293
-0.31033	-1.37929
0.35272	0.43176
-0.02981	2.31933
-0.38683	0.25320
-0.31033	-2.39961
0.17421	-0.99668
0.76074	0.17668
0.86275	1.80917
0.42922	1.04394
0.02119	0.96742
-0.59084	1.14597
-0.69285	0.02363
-0.38683	-1.48133
-0.00431	1.27351
0.76074	-0.28246
0.99026	-0.92016
1.04126	-0.76711
0.83725	-0.51203
-0.00431	1.47757
-0.15732	0.99292
-0.38683	1.93671
-0.59084	2.44687
-0.64185	-4.21066
-0.92237	-3.49644
-0.05531	0.45726
1.57679	1.29902
1.88281	1.52859
1.21977	1.96222
-0.13181	1.60511
-0.79486	0.61031
-0.46334	-0.35899
-0.33583	1.50308
0.19971	0.86539
0.02119	-3.72601
0.17421	-3.16484
0.22521	-0.33348
0.25071	0.43176
0.50573	2.44687
-0.25932	1.42656
-0.02981	-0.97117
0.60773	-2.27207
0.78624	0.76336
0.32721	0.81437
-0.36133	0.27871
-0.38683	1.19699
-0.20832	0.32972
0.42922	0.58480
0.02119	1.27351
0.32721	-0.66508
0.32721	0.20219
0.35272	2.34484
0.50573	-2.68019
-0.28482	-3.70050
-0.00431	2.31933
-0.38683	1.27351
-0.46334	0.78886
0.63323	1.47757
0.76074	-4.44022
0.32721	-2.37410
0.42922	2.08976
-0.31033	3.44167
-0.41233	0.61031
-0.36133	0.10015
-0.00431	0.94191
0.12320	0.07465
0.63323	0.25320
1.21977	-0.00188
0.81175	0.30422
0.53123	0.45726
-0.13181	-0.48652
-0.33583	0.66132
-0.89686	0.07465
-0.28482	1.50308
0.25071	2.01323
1.14327	-7.32260
0.50573	-5.12893
0.65874	1.63062
-0.18282	2.39585
-0.79486	2.88050
-0.48884	3.59471
-0.69285	1.47757
0.35272	-0.86914
0.76074	-0.30797
0.42922	-0.99668
0.35272	0.15117
0.60773	0.96742
0.09770	-0.38449
-0.23382	0.55929
0.27621	-1.60887
0.76074	-0.05289
0.22521	0.17668
0.27621	0.32972
0.02119	2.16628
-0.41233	-0.30797
-0.28482	-2.83324
-0.08081	-0.25695
-0.38683	0.55929
-0.02981	1.27351
0.37822	1.68163
0.30171	-1.12422
0.99026	0.55929
0.63323	2.29382
-0.08081	1.80917
-0.08081	-3.87905
0.45472	-1.94047
-0.23382	-0.94566
-0.43783	0.22769
0.02119	1.40105
-0.18282	1.91120
-0.00431	2.29382
0.42922	0.32972
0.17421	0.15117
0.40372	0.61031
0.63323	0.61031
0.63323	-2.09351
0.30171	-2.04250
-0.18282	-0.76711
0.22521	0.96742
-0.13181	0.83988
-0.53984	-0.51203
-0.31033	0.45726
0.09770	0.27871
-0.00431	-0.18043
0.40372	0.73785
0.73524	0.86539
1.04126	-1.45582
0.70974	-0.58856
0.14870	0.99292
-0.20832	1.93671
-0.48884	0.12566
-0.66735	-1.50683
-0.20832	-0.69059
0.27621	3.64573
0.02119	-1.04770
0.58223	-1.58336
-0.18282	-0.58856
0.12320	0.71234
0.19971	1.04394
0.22521	3.59471
0.22521	-1.71090
0.91375	-2.73121
1.04126	-0.30797
0.30171	-0.53754
0.02119	0.63582
-0.31033	1.06945
-0.15732	0.61031
-0.18282	0.71234
-0.71835	1.52859
-0.28482	1.35003
0.19971	-2.80773
1.04126	-1.99148
0.93925	0.53379
0.22521	0.27871
-0.08081	0.86539
-0.38683	1.60511
-0.46334	-0.25695
-0.08081	-2.83324
0.65874	1.09496
0.68424	0.38074
0.42922	0.76336
0.32721	0.94191
0.19971	0.78886
-0.18282	0.63582
-0.28482	0.25320
-0.38683	-0.25695
0.27621	0.02363
-0.10631	-1.94047
0.70974	-2.80773
1.55129	1.42656
0.50573	1.27351
-0.64185	0.45726
-0.46334	1.70714
-0.31033	0.76336
-0.51434	-1.48133
-0.00431	0.07465
0.88825	2.06425
0.48022	0.86539
0.83725	-3.64948
0.42922	0.30422
0.45472	0.04914
-0.38683	-0.74160
-0.48884	1.63062
-1.04987	1.22250
-0.08081	-0.12942
0.93925	0.58480
0.91375	-0.23145
0.83725	0.71234
0.04670	2.34484
-0.18282	-2.73121
-0.05531	-0.76711
-0.28482	0.15117
0.27621	0.38074
0.53123	0.96742
0.37822	0.76336
-0.31033	-0.66508
-0.28482	0.15117
0.04670	-0.02739
-0.02981	0.15117
0.96476	0.15117
1.27078	0.07465
0.68424	-0.28246
-0.87136	-0.23145
-0.61635	-0.20594
0.04670	1.78367
0.02119	0.71234
0.19971	-0.10391
-0.10631	-0.28246
-0.31033	-1.76191
0.35272	0.66132
1.27078	0.35523
1.37278	0.32972
0.81175	1.32453
-0.33583	0.91640
-0.51434	0.91640
-0.87136	-0.02739
-0.71835	0.15117
-0.28482	-0.35899
0.09770	-1.68539
0.68424	1.60511
0.55673	0.50828
0.32721	-2.14453
0.45472	-0.58856
0.45472	1.14597
0.53123	1.83468
-0.28482	1.91120
0.19971	-0.56305
0.60773	-2.37410
1.34728	0.50828
-0.10631	0.35523
-0.71835	-0.12942
-0.13181	1.50308
-0.36133	0.81437
-0.28482	0.35523
-0.64185	0.15117
-0.33583	0.68683
0.42922	-0.35899
0.73524	-1.83844
0.60773	0.22769
0.78624	0.66132
0.32721	0.25320
0.58223	0.15117
-0.10631	1.57960
-0.20832	-0.38449
-0.48884	-1.17523
0.09770	0.55929
0.30171	1.09496
0.45472	-0.84363
0.32721	0.55929
0.27621	1.37554
0.22521	-2.04250
0.02119	0.45726
-0.13181	1.80917
0.40372	0.76336
0.22521	-1.43031
-0.13181	-1.30277
-0.00431	0.61031
-0.25932	1.22250
-0.13181	2.06425
0.04670	0.89089
0.09770	-0.53754
1.14327	-0.53754
1.42379	-0.23145
0.78624	0.35523
-0.59084	0.43176
-1.04987	-0.10391
-0.97337	-0.58856
-0.28482	0.10015
0.02119	0.66132
0.86275	1.27351
0.73524	0.27871
1.34728	-1.86394
-0.20832	-1.83844
-0.23382	3.36515
0.22521	-2.68019
-0.08081	-1.68539
-0.10631	1.57960
0.02119	1.96222
0.42922	1.83468
0.50573	2.21730
0.32721	0.35523
-0.08081	-2.01699
0.17421	-0.48652
0.02119	0.66132
-0.41233	-0.66508
0.04670	-0.79262
0.70974	0.66132
0.55673	1.01843
-0.69285	-0.46102
0.32721	-0.74160
0.14870	-0.02739
0.07220	0.10015
0.60773	0.45726
-0.02981	1.63062
0.55673	0.40625
-0.33583	-1.58336
-0.18282	0.89089
0.25071	1.86019
0.04670	-2.09351
0.09770	-0.20594
0.17421	0.76336
0.09770	-0.81812
0.17421	0.99292
0.68424	0.68683
0.42922	0.66132
0.25071	1.73265
0.02119	-0.05289
0.30171	-2.39961
0.32721	-0.07840
0.37822	1.70714
-0.00431	-0.43551
-0.59084	0.40625
-0.76936	-0.79262
0.19971	-0.20594
0.27621	0.25320
0.68424	0.32972
-0.00431	0.68683
0.25071	1.52859
-0.15732	1.01843
0.07220	-2.52714
0.22521	-1.73640
0.45472	1.37554
0.42922	0.43176
0.09770	-0.15492
-0.10631	0.76336
0.12320	0.83988
0.37822	1.63062
0.27621	0.83988
-0.33583	-1.68539
-0.23382	-0.23145
0.30171	-0.00188
0.58223	-0.84363
0.42922	0.71234
-0.28482	0.63582
-0.38683	-0.12942
0.17421	1.42656
0.17421	0.02363
0.17421	-1.60887
0.22521	-0.10391
0.78624	-0.00188
0.63323	2.65093
0.27621	-0.84363
-0.61635	-1.37929
-0.71835	0.22769
0.25071	1.57960
0.63323	0.10015
0.22521	1.29902
0.12320	-0.99668
-0.00431	-1.07320
0.12320	0.40625
-0.00431	1.04394
0.04670	0.27871
0.22521	0.20219
0.04670	0.32972
0.63323	1.29902
0.37822	-0.76711
0.53123	-1.91496
-0.25932	0.04914
0.40372	0.96742
0.07220	1.57960
-0.08081	-0.94566
-0.61635	-1.50683
0.02119	1.75816
0.45472	1.04394
0.91375	-1.91496
0.04670	0.48277
-0.36133	0.35523
-0.31033	-0.05289
0.19971	0.02363
0.22521	1.32453
0.63323	1.04394
0.12320	0.10015
-0.15732	0.38074
0.12320	-0.18043
-0.02981	-0.41000
0.42922	-0.58856
-0.18282	0.25320
0.32721	-0.43551
0.96476	0.73785
-0.00431	0.50828
0.09770	-0.41000
-0.41233	0.45726
-0.20832	0.76336
-0.08081	0.78886
-0.02981	-0.79262
0.17421	0.86539
-0.18282	-0.10391
0.48022	-1.86394
0.93925	-0.18043
0.93925	0.81437
0.48022	1.24800
0.14870	1.75816
-0.05531	0.43176
0.02119	-1.96597
-0.25932	0.38074
-0.43783	1.37554
-0.59084	-1.09871
0.30171	0.30422
1.19427	1.19699
0.48022	1.06945
-0.15732	0.63582
0.02119	-0.00188
0.14870	-0.46102
-0.02981	0.17668
-0.02981	-1.32828
-0.02981	0.71234
-0.36133	-0.35899
0.35272	-0.43551
0.81175	-1.37929
0.27621	1.47757
0.35272	1.78367
-0.00431	0.99292
-0.23382	-0.94566
0.19971	1.86019
0.32721	1.22250
-0.28482	-2.06800
0.04670	-1.63437
0.19971	-1.58336
0.27621	0.66132
0.19971	0.96742
0.35272	1.70714
0.07220	1.14597
0.76074	2.88050
0.42922	0.81437
0.45472	-3.62398
-0.38683	-3.39441
-0.56534	1.32453
-0.71835	0.55929
0.04670	1.29902
0.07220	1.78367
0.42922	0.20219
0.19971	0.63582
0.27621	0.55929
-0.00431	-2.06800
0.55673	-1.48133
0.53123	0.45726
0.37822	1.17148
-0.69285	-0.00188
-0.36133	-0.74160
0.73524	1.17148
1.11776	0.71234
0.32721	0.25320
-0.31033	1.96222
-0.28482	-1.22625
-0.38683	0.30422
-0.36133	0.15117
-0.66735	-2.55265
0.55673	0.58480
1.19427	-0.05289
1.16877	0.12566
0.25071	0.73785
-0.10631	0.86539
-0.33583	2.31933
-0.48884	-1.35379
-0.41233	-0.15492
-0.02981	1.29902
1.11776	-0.15492
0.83725	-1.22625
0.12320	-0.76711
0.22521	1.42656
0.02119	0.83988
-0.53984	-1.20074
-0.33583	-0.76711
0.17421	0.96742
-0.00431	0.04914
-0.20832	-0.02739
0.17421	0.43176
0.32721	1.40105
0.50573	1.22250
0.22521	-1.09871
0.48022	-0.61406
0.86275	-0.05289
1.42379	1.22250
-0.08081	-0.35899
-0.53984	0.15117
-0.61635	-0.10391
-0.94787	-2.55265
-0.66735	-1.63437
0.22521	1.68163
0.60773	0.55929
0.70974	0.78886
0.58223	1.40105
0.73524	0.96742
-0.56534	0.61031
-0.51434	0.30422
0.37822	1.55410
1.06676	0.20219
0.09770	-1.17523
0.40372	-1.45582
-0.20832	0.10015
-0.31033	-0.05289
-0.59084	0.96742
-0.61635	0.63582
0.19971	-3.16484
0.81175	0.89089
1.29628	0.45726
0.19971	-1.30277
0.17421	0.76336
-0.20832	0.76336
-0.18282	1.50308
-0.79486	1.88570
0.17421	3.41616
1.14327	-1.71090
1.72980	-3.49644
0.35272	0.48277
-0.38683	0.38074
-0.69285	0.71234
-0.76936	1.80917
-0.28482	-0.66508
-0.13181	0.12566
-0.10631	0.04914
0.22521	0.55929
0.88825	-0.58856
0.50573	-0.46102
0.68424	-0.69059
-0.28482	-1.30277
-0.15732	0.17668
0.78624	1.78367
0.63323	0.43176
0.07220	0.10015
-0.51434	0.76336
0.25071	-0.46102
0.25071	-0.30797
-0.74385	-0.79262
-0.79486	-0.41000
-0.00431	0.86539
0.58223	0.66132
0.83725	0.53379
0.48022	1.83468
-0.02981	1.98773
0.19971	-1.88945
0.35272	-2.96078
1.16877	1.47757
-0.53984	-0.86914
-0.53984	0.96742
-0.48884	1.19699
-0.02981	0.20219
0.83725	0.96742
0.76074	1.40105
0.99026	-0.74160
0.14870	-1.50683
-0.36133	0.17668
-0.51434	0.07465
-0.31033	0.96742
-0.23382	0.20219
0.14870	0.38074
0.02119	-0.25695
0.63323	-0.84363
0.53123	-0.23145
1.11776	0.32972
0.19971	1.12046
0.37822	0.81437
-0.18282	0.07465
-0.05531	0.73785
-0.18282	0.53379
-0.46334	0.78886
-0.20832	-0.18043
0.17421	-0.81812
0.99026	-1.40480
0.83725	-0.35899
0.53123	-0.46102
0.07220	1.45206
-0.89686	1.27351
-0.53984	0.76336
-0.28482	0.35523
0.53123	-0.63957
0.12320	-1.02219
1.21977	0.55929
0.86275	0.45726
-0.08081	1.09496
-0.61635	-0.18043
-0.92237	0.68683
0.02119	-0.43551
0.30171	-1.53234
0.83725	0.99292
0.70974	4.28343
0.02119	-3.52195
-0.18282	-2.11902
0.22521	0.35523
0.60773	0.66132
0.22521	1.24800
0.35272	1.29902
-0.13181	0.35523
0.14870	0.38074
0.02119	1.75816
-0.33583	0.35523
-0.13181	-1.76191
0.09770	-0.48652
0.30171	0.20219
0.73524	2.39585
0.04670	-1.22625
-0.18282	-2.29757
0.09770	0.12566
-0.00431	0.43176
0.17421	0.71234
0.30171	1.65613
0.27621	0.12566
0.17421	-0.58856
0.35272	0.38074
0.12320	0.48277
0.60773	0.22769
0.40372	0.91640
0.09770	0.66132
-0.38683	-2.09351
-0.31033	-0.66508
-0.23382	0.04914
-0.31033	0.66132
-0.10631	0.76336
0.27621	0.76336
0.09770	0.99292
0.60773	2.29382
0.45472	-1.91496
0.42922	-4.08312
0.27621	0.04914
0.19971	1.52859
0.53123	0.40625
0.30171	1.14597
0.19971	1.37554
-0.02981	1.47757
0.09770	0.76336
0.25071	1.04394
0.04670	-1.14973
-0.64185	-3.06281
-0.20832	-1.17523
0.14870	0.78886
-0.51434	0.12566
-0.15732	0.68683
0.53123	0.89089
0.63323	1.09496
0.68424	0.15117
0.73524	1.09496
-0.13181	0.25320
-1.02437	-2.52714
0.07220	-0.33348
0.58223	0.63582
0.76074	0.81437
0.42922	-0.15492
-0.23382	-0.12942
-0.08081	2.93151
0.02119	-1.86394
0.09770	-1.43031
0.50573	1.12046
0.14870	1.88570
-0.08081	1.78367
-0.10631	-0.23145
-0.00431	-0.66508
0.27621	0.04914
0.60773	0.50828
0.25071	0.86539
-0.25932	-0.02739
0.09770	-0.35899
0.25071	-2.17003
0.60773	-1.12422
-0.05531	0.76336
-0.20832	0.43176
-0.20832	0.58480
0.25071	0.83988
0.32721	1.35003
1.04126	-0.18043
-0.41233	-0.12942
-0.28482	0.12566
0.02119	1.17148
0.04670	-0.97117
0.02119	-0.28246
0.32721	0.04914
0.42922	-0.28246
-0.13181	0.02363
0.22521	1.60511
0.40372	0.02363
0.04670	-2.37410
0.35272	1.14597
0.45472	0.10015
0.09770	0.50828
0.12320	0.76336
-0.02981	1.06945
-0.15732	0.45726
-0.43783	-0.58856
-0.05531	-0.66508
0.27621	-1.32828
1.44929	2.88050
1.19427	-0.00188
-0.02981	-1.40480
-0.56534	-0.53754
-0.64185	-0.00188
-0.61635	0.48277
-0.25932	0.66132
0.27621	1.57960
0.58223	-0.46102
0.37822	-1.32828
0.70974	0.15117
0.58223	0.38074
0.14870	1.73265
-0.05531	0.17668
-0.18282	-0.94566
-0.25932	1.09496
-0.36133	-1.60887
0.19971	-0.38449
0.58223	0.55929
0.19971	1.12046
0.27621	0.61031
0.53123	1.37554
-0.08081	-1.12422
0.58223	-1.40480
-0.08081	0.53379
0.12320	0.55929
0.07220	0.71234
-0.48884	0.15117
-0.13181	0.86539
0.17421	0.66132
0.25071	-0.15492
-0.00431	-0.33348
0.60773	-0.28246
0.76074	1.04394
0.17421	-0.71609
-0.51434	-1.48133
-0.28482	2.44687
-0.05531	0.07465
-0.10631	-1.17523
0.25071	-1.09871
0.53123	-0.71609
0.42922	0.43176
0.58223	1.19699
0.60773	1.57960
0.02119	0.73785
-0.20832	1.01843
-0.05531	2.42136
0.02119	-2.04250
-0.18282	-4.28718
0.32721	0.58480
0.42922	0.63582
0.63323	1.47757
-0.38683	1.01843
-0.56534	-0.35899
0.04670	-0.76711
0.65874	0.35523
0.40372	0.55929
-0.15732	2.08976
-0.02981	-2.50164
-0.36133	-1.83844
0.02119	0.86539
0.12320	0.96742
0.09770	0.61031
0.32721	1.73265
0.22521	-0.66508
0.60773	0.89089
0.58223	0.17668
0.30171	-3.21585
0.02119	-0.51203
0.07220	0.86539
-0.05531	1.14597
0.04670	0.89089
0.19971	1.06945
0.27621	1.01843
-0.25932	-0.43551
-0.23382	0.04914
-0.41233	-0.33348
-0.10631	-1.96597
0.37822	0.66132
0.65874	0.73785
0.53123	0.96742
0.93925	-0.10391
-0.61635	-0.15492
0.17421	0.10015
0.48022	-0.00188
-0.00431	0.07465
-0.18282	-0.30797
-0.18282	0.38074
0.42922	0.04914
0.12320	1.47757
0.25071	-0.28246
-0.05531	0.68683
0.02119	-0.89465
0.07220	-1.22625
-0.20832	1.75816
0.32721	0.78886
0.22521	-0.53754
0.42922	-0.94566
1.09226	-0.33348
0.68424	2.67644
-0.00431	0.17668
-0.48884	-2.37410
-0.00431	0.45726
-0.08081	1.75816
-0.28482	0.50828
-0.33583	0.04914
-0.41233	0.22769
-0.13181	-0.00188
0.27621	-0.35899
1.01576	0.22769
1.34728	-0.86914
1.37278	-0.20594
-0.13181	0.71234
-0.66735	-1.55785
-0.74385	-0.79262
-0.64185	0.89089
-0.41233	1.55410
-0.02981	-0.48652
0.45472	0.02363
1.09226	0.61031
1.24527	0.45726
0.55673	0.55929
-0.25932	0.63582
-0.79486	0.12566
-0.48884	1.06945
-0.38683	-0.18043
-0.38683	-1.99148
0.32721	0.25320
0.53123	1.24800
0.88825	-0.71609
0.93925	-0.81812
0.83725	0.25320
0.17421	0.83988
-0.28482	3.26312
-0.43783	-0.15492
-0.53984	-2.93527
-0.46334	-0.30797
0.09770	1.17148
0.12320	0.15117
0.22521	0.66132
0.65874	0.02363
1.09226	-0.97117
0.76074	0.91640
-0.02981	1.17148
-0.08081	-0.02739
-0.41233	-0.00188
-0.23382	0.68683
-0.02981	-0.07840
0.35272	1.91120
0.45472	0.12566
-0.31033	-3.24136
0.09770	-0.89465
0.45472	0.25320
0.42922	0.76336
0.32721	0.94191
-0.08081	0.45726
-0.36133	-0.10391
-0.20832	0.76336
0.02119	0.15117
0.35272	-1.09871
0.76074	-0.53754
1.72980	1.50308
0.60773	0.22769
-0.59084	0.58480
-0.51434	0.15117
-0.48884	0.12566
-0.10631	0.02363
-0.28482	0.10015
-0.18282	0.22769
0.14870	0.43176
0.22521	0.78886
0.68424	2.72745
0.37822	-2.09351
0.78624	-3.21585
0.99026	-1.45582
0.04670	-0.07840
-0.28482	1.57960
-0.25932	1.86019
-0.10631	1.60511
-0.46334	0.81437
-0.10631	2.59991
-0.23382	-0.69059
0.25071	-2.39961
1.11776	-1.48133
0.65874	-0.51203
-0.02981	0.35523
-0.23382	1.88570
-0.33583	-0.23145
-0.20832	0.40625
-0.00431	-0.18043
-0.05531	0.68683
1.09226	0.07465
1.47479	-1.12422
0.78624	-0.25695
-0.00431	0.45726
-0.56534	0.43176
-0.84586	0.35523
-0.66735	0.63582
-0.33583	1.45206
0.42922	0.55929
0.37822	0.12566
0.60773	-2.04250
0.73524	-1.48133
0.76074	0.40625
0.40372	0.83988
0.12320	1.06945
-0.74385	0.91640
-0.13181	0.76336
-0.41233	-0.07840
-0.20832	0.22769
0.19971	2.65093
0.58223	-0.74160
0.68424	-1.99148
0.68424	-2.39961
0.40372	-0.41000
0.25071	1.06945
0.19971	2.11527
-0.59084	0.43176
-0.92237	0.27871
-0.23382	0.71234
0.91375	1.06945
0.93925	-0.35899
0.73524	-0.05289
-0.10631	0.12566
0.14870	-0.10391
-0.48884	-0.25695
-0.36133	-0.00188
-0.18282	0.04914
0.30171	1.06945
0.27621	-1.20074
0.19971	-0.35899
0.22521	0.99292
1.39828	0.96742
1.14327	0.25320
0.40372	-1.30277
-0.25932	0.63582
-0.76936	0.35523
-0.89686	-0.20594
-0.23382	2.98253
-0.10631	-0.30797
0.04670	-2.55265
0.70974	-0.84363
0.35272	-0.28246
0.35272	1.27351
0.22521	2.62542
0.09770	1.24800
0.17421	-2.83324
0.04670	0.25320
0.40372	0.53379
0.83725	0.45726
0.68424	1.55410
1.01576	-0.15492
-0.10631	-0.76711
-0.38683	-1.02219
-0.76936	-0.02739
-0.89686	0.68683
-0.28482	-1.07320
0.32721	-0.02739
0.73524	0.94191
0.55673	1.29902
0.48022	-0.48652
-0.02981	-0.92016
-0.00431	0.32972
0.25071	0.86539
0.17421	0.04914
-0.00431	1.06945
-0.23382	0.07465
-0.61635	-1.12422
0.32721	1.29902
1.24527	-0.41000
1.67880	-1.20074
0.04670	0.25320
0.14870	1.22250
-0.13181	1.14597
-0.31033	-0.18043
-0.84586	-0.74160
-0.61635	-0.02739
-0.13181	0.10015
0.30171	0.10015
0.53123	0.61031
0.53123	0.81437
0.35272	-1.35379
0.17421	-0.28246
0.40372	0.30422
0.19971	0.43176
0.45472	0.68683
0.32721	0.40625
0.32721	0.53379
0.27621	1.68163
0.09770	-0.05289
0.02119	-3.29238
-0.66735	-3.47093
-0.08081	1.32453
0.32721	1.73265
0.25071	1.47757
-0.20832	1.63062
-0.28482	0.25320
-0.10631	-0.25695
0.07220	0.12566
0.25071	-0.15492
0.86275	1.14597
0.27621	-1.37929
0.35272	-0.58856
0.09770	0.30422
0.12320	0.04914
0.22521	0.15117
-0.05531	0.10015
-0.13181	0.15117
-0.13181	0.58480
0.60773	0.02363
0.70974	0.68683
0.81175	-0.84363
-0.31033	0.10015
-0.31033	0.12566
-0.02981	-0.30797
0.30171	0.35523
0.22521	0.12566
-0.08081	1.32453
0.02119	1.29902
-0.02981	0.10015
-0.38683	-2.34859
-0.05531	-0.63957
0.25071	1.04394
0.60773	1.12046
0.60773	1.37554
0.42922	-1.37929
0.27621	-0.79262
-0.18282	1.37554
-0.38683	-0.38449
0.35272	-1.43031
0.37822	0.38074
-0.08081	0.50828
-0.02981	0.35523
-0.00431	0.43176
0.99026	0.58480
0.63323	1.19699
-0.00431	-0.18043
-1.30489	-1.07320
-0.56534	0.45726
0.22521	1.06945
0.63323	0.55929
0.58223	-1.83844
0.48022	-0.76711
0.50573	0.86539
0.14870	-0.25695
-0.10631	-1.22625
0.09770	0.30422
-0.10631	1.27351
-0.00431	0.61031
0.35272	1.57960
0.55673	1.04394
0.07220	-0.07840
0.12320	-0.15492
-0.00431	0.40625
0.22521	0.12566
-0.38683	-0.81812
-0.41233	-0.18043
0.27621	-0.63957
0.19971	-0.15492
0.91375	-0.10391
0.42922	0.71234
-0.13181	3.11007
0.04670	-1.22625
0.22521	-3.41992
0.22521	-0.53754
0.02119	1.29902
-0.10631	1.14597
0.70974	1.55410
-0.10631	1.12046
-0.15732	-0.12942
-0.23382	-1.02219
0.22521	0.04914
0.04670	0.53379
0.02119	0.81437
0.19971	-0.20594
-0.28482	-1.04770
0.63323	0.22769
0.68424	-0.30797
0.73524	0.12566
0.22521	0.45726
0.09770	0.94191
-0.48884	0.73785
0.02119	0.04914
-0.05531	-0.20594
0.30171	-1.14973
0.27621	-0.05289
0.30171	-0.63957
-0.31033	0.55929
0.04670	0.53379
0.53123	0.66132
-0.00431	1.01843
-0.38683	0.61031
0.19971	-0.28246
0.63323	0.76336
0.32721	0.20219
0.27621	-0.10391
0.35272	-1.20074
0.42922	-2.27207
-0.23382	-0.18043
-0.08081	1.52859
-0.20832	0.73785
-0.23382	-0.69059
-0.00431	1.57960
0.27621	0.71234
0.35272	1.78367
0.73524	-0.23145
-0.28482	-0.69059
0.07220	0.04914
0.37822	0.91640
0.65874	0.68683
0.22521	-1.94047
0.32721	-0.51203
0.25071	0.38074
-0.02981	-0.12942
-0.13181	-2.11902
0.45472	0.94191
0.17421	0.94191
-0.10631	1.45206
-0.18282	1.68163
-0.18282	-0.28246
-0.28482	-0.66508
0.40372	0.25320
0.63323	0.38074
-0.02981	0.25320
0.37822	0.35523
0.48022	-0.43551
0.42922	-0.05289
0.09770	0.12566
-0.36133	0.17668
-0.36133	-0.48652
-0.31033	-1.14973
0.07220	0.68683
0.45472	0.61031
0.96476	0.43176
0.45472	0.15117
-0.08081	0.17668
-0.38683	1.14597
0.14870	-0.25695
-0.13181	-1.68539
0.22521	1.73265
0.17421	0.71234
0.42922	-0.05289
0.45472	0.10015
0.37822	-0.94566
0.63323	-0.38449
0.14870	0.73785
0.02119	0.78886
-0.10631	0.86539
-0.33583	0.96742
-0.28482	-1.04770
-0.08081	-0.10391
0.48022	1.37554
0.73524	-0.07840
0.48022	-0.86914
0.19971	0.32972
-0.31033	0.38074
-0.33583	0.40625
-0.20832	0.71234
0.32721	-0.28246
-0.02981	-1.12422
0.25071	-0.05289
0.14870	0.04914
0.12320	1.19699
0.73524	0.43176
0.27621	-0.20594
0.14870	0.15117
-0.20832	-0.43551
0.12320	0.17668
0.09770	0.68683
0.22521	0.94191
-0.00431	-0.43551
0.35272	-0.46102
0.30171	0.43176
0.04670	0.45726
-0.15732	1.88570
0.04670	-1.27726
0.02119	-2.22105
0.17421	0.30422
0.12320	0.89089
0.45472	0.94191
0.35272	1.01843
0.70974	0.71234
0.45472	0.25320
0.12320	0.91640
-0.25932	-2.42511
-0.51434	0.04914
-0.69285	1.19699
0.19971	-1.14973
0.81175	-2.09351
0.86275	0.45726
-0.20832	1.04394
-0.25932	1.50308
-0.23382	1.45206
0.02119	-0.84363
0.58223	-0.35899
0.35272	1.12046
0.35272	-0.15492
0.83725	-1.09871
0.63323	-0.10391
-0.38683	0.30422
-0.33583	0.50828
0.14870	0.53379
-0.28482	0.10015
0.17421	0.66132
-0.15732	0.83988
0.32721	-0.46102
0.58223	-1.58336
0.65874	0.71234
-0.18282	-0.20594
0.37822	0.22769
0.17421	1.98773
-0.28482	-1.68539
-0.08081	0.12566
0.22521	1.55410
0.32721	0.53379
-0.00431	0.15117
0.17421	-0.05289
0.30171	-0.12942
0.40372	0.53379
-0.08081	-0.07840
-0.00431	0.12566
0.32721	-1.20074
0.12320	-1.07320
0.22521	1.06945
0.12320	-0.07840
0.04670	0.10015
-0.00431	0.96742
0.02119	1.12046
0.35272	0.66132
-0.25932	-0.71609
0.02119	0.61031
0.35272	0.25320
1.09226	-0.25695
0.02119	1.19699
-0.43783	-0.35899
-0.10631	-1.43031
0.07220	-0.76711
-0.05531	0.15117
0.14870	1.35003
0.27621	-0.51203
0.30171	0.43176
0.86275	0.76336
0.55673	0.81437
0.55673	0.73785
-0.18282	0.22769
-0.10631	-0.46102
-0.28482	0.94191
-0.74385	-0.71609
-0.20832	-1.76191
0.63323	0.71234
0.22521	0.81437
0.40372	-1.17523
0.42922	0.86539
0.40372	0.76336
0.02119	-0.38449
0.04670	0.58480
-0.05531	0.48277
-0.18282	1.35003
-0.31033	0.25320
-0.15732	-1.30277
0.40372	-0.46102
1.19427	0.45726
1.11776	0.63582
0.30171	-0.46102
-0.18282	0.38074
-0.69285	-0.46102
-0.56534	0.53379
-0.18282	0.55929
0.17421	0.48277
0.09770	0.30422
0.17421	0.35523
0.53123	0.58480
0.53123	-0.05289
0.53123	0.96742
0.14870	-0.81812
0.42922	-1.09871
0.02119	0.07465
-0.13181	0.30422
-0.02981	0.07465
0.53123	0.91640
-0.41233	-0.76711
-0.18282	0.25320
0.68424	0.99292
0.04670	-0.28246
-0.23382	0.25320
0.12320	0.66132
-0.31033	0.43176
-0.28482	0.91640
-0.05531	0.15117
0.42922	-2.04250
0.53123	0.32972
0.76074	0.58480
0.48022	0.35523
0.40372	0.58480
0.32721	0.73785
-0.31033	-0.48652
-0.43783	1.47757
-0.08081	-0.15492
-0.05531	-0.10391
0.09770	-2.93527
0.17421	-0.28246
0.58223	1.29902
0.70974	1.37554
0.73524	1.93671
-0.46334	0.20219
-0.23382	-0.71609
-0.25932	-0.46102
-0.48884	-0.61406
-0.08081	0.20219
0.27621	1.24800
0.30171	-0.69059
0.53123	-0.99668
0.86275	0.53379
0.40372	-0.10391
-0.13181	0.45726
-0.18282	0.63582
-0.23382	0.50828
0.07220	0.25320
-0.28482	0.10015
0.12320	0.27871
0.48022	0.45726
1.16877	0.02363
0.83725	-1.07320
0.12320	0.53379
-0.33583	-0.25695
-0.48884	-0.30797
-0.31033	0.35523
-0.05531	0.68683
0.09770	0.25320
0.42922	0.22769
0.55673	0.55929
0.22521	0.32972
-0.02981	0.66132
0.12320	-0.56305
0.17421	-0.66508
0.27621	0.63582
0.04670	0.50828
0.22521	-0.63957
-0.15732	-0.61406
0.42922	1.22250
0.17421	-1.20074
0.91375	0.73785
0.48022	0.81437
0.12320	0.53379
-0.36133	0.04914
-0.48884	0.40625
-0.61635	-0.43551
-0.05531	1.37554
0.32721	-0.94566
0.09770	-0.99668
0.78624	0.78886
1.09226	-1.43031
0.53123	1.19699
0.22521	0.15117
-0.15732	-0.18043
-0.10631	1.32453
-0.10631	0.04914
-0.13181	-0.66508
-0.36133	0.20219
0.32721	0.27871
0.22521	0.04914
0.88825	0.40625
0.37822	0.66132
-0.13181	-0.05289
-0.18282	-0.30797
-0.15732	0.35523
-0.23382	0.12566
0.12320	-0.33348
0.63323	-0.15492
1.11776	0.10015
0.17421	1.06945
0.35272	0.20219
0.19971	0.04914
0.09770	0.40625
-0.76936	0.35523
-0.71835	-0.12942
-0.61635	0.20219
0.09770	0.25320
0.09770	-0.94566
1.67880	0.38074
0.73524	-0.00188
0.91375	-0.30797
-0.23382	0.55929
-0.36133	1.98773
-0.23382	-0.97117
-0.20832	0.12566
-0.38683	0.71234
-0.33583	0.30422
0.17421	-0.10391
0.70974	0.45726
0.96476	0.50828
0.35272	0.43176
-0.13181	-0.30797
-0.15732	-0.10391
0.42922	-0.41000
0.50573	-0.15492
-0.08081	0.20219
-0.71835	0.02363
0.02119	-0.51203
0.53123	0.78886
0.86275	-0.00188
0.40372	0.58480
-0.28482	0.10015
-0.15732	0.07465
-0.28482	0.55929
-0.23382	0.30422
0.07220	-0.05289
0.48022	0.04914
0.58223	0.07465
0.30171	1.96222
0.25071	-0.79262
0.32721	-1.96597
-0.13181	0.40625
-0.02981	0.91640
-0.25932	1.60511
-0.18282	1.12046
0.17421	-0.86914
0.27621	-3.16484
0.37822	0.25320
0.68424	0.55929
1.09226	2.08976
-0.15732	1.04394
-0.00431	0.04914
-0.02981	-0.12942
0.12320	0.78886
-0.41233	0.58480
-0.61635	-0.94566
-0.41233	-0.84363
0.93925	0.30422
0.70974	0.15117
0.55673	0.63582
0.22521	0.43176
-0.05531	-1.17523
-0.46334	-0.46102
-0.00431	0.76336
0.53123	0.73785
0.12320	0.32972
0.14870	0.25320
0.73524	-0.38449
0.25071	0.30422
-0.59084	0.04914
-0.20832	0.15117
-0.59084	0.55929
0.53123	0.91640
0.58223	-0.56305
0.93925	0.55929
-0.02981	-0.00188
0.17421	-0.58856
-0.10631	0.35523
0.27621	0.10015
-0.05531	2.65093
0.02119	-1.43031
0.27621	-1.88945
0.42922	0.66132
0.32721	0.58480
0.02119	1.63062
-0.10631	0.10015
-0.08081	0.04914
-0.18282	-0.02739
0.48022	-0.84363
0.50573	0.20219
1.24527	0.83988
-0.08081	0.63582
-0.48884	0.78886
-0.20832	-1.07320
0.40372	-0.56305
0.22521	0.38074
-0.64185	0.55929
-0.20832	0.71234
0.09770	-0.43551
0.30171	-0.15492
0.78624	0.17668
0.96476	0.25320
0.73524	0.50828
-0.05531	-0.23145
-0.23382	0.53379
-0.41233	0.07465
-0.38683	0.43176
-0.61635	0.15117
0.02119	0.76336
0.35272	-0.84363
0.42922	-0.99668
0.30171	-0.02739
1.09226	1.42656
0.48022	-0.81812
-0.23382	0.07465
0.02119	1.45206
-0.10631	0.10015
0.58223	0.61031
0.04670	0.27871
0.04670	-1.30277
0.32721	0.83988
-0.08081	0.35523
-0.31033	0.32972
-0.18282	0.76336
0.14870	-0.00188
0.27621	-0.53754
0.22521	0.91640
-0.02981	0.53379
0.09770	-0.92016
0.17421	-1.32828
0.73524	-0.12942
1.50029	1.12046
0.27621	0.83988
-0.64185	0.61031
-0.48884	0.76336
-0.23382	-0.25695
-0.13181	-0.18043
0.68424	0.89089
0.27621	0.25320
0.19971	-0.46102
0.42922	1.93671
-0.02981	-1.14973
-0.48884	-1.55785
0.14870	0.53379
-0.02981	0.25320
-0.18282	1.01843
-0.00431	1.57960
0.02119	-1.32828
0.27621	-0.94566
0.68424	1.12046
0.91375	0.30422
0.70974	0.86539
-0.02981	0.66132
0.14870	-1.02219
0.19971	-0.05289
0.09770	0.45726
-0.15732	0.83988
-0.38683	-0.20594
-0.74385	-1.48133
0.25071	0.58480
0.48022	-0.02739
0.40372	0.94191
-0.02981	0.48277
-0.10631	0.78886
0.32721	-0.28246
0.50573	-0.35899
-0.15732	1.27351
-0.23382	0.25320
0.14870	-1.12422
0.35272	-1.48133
0.58223	-0.02739
-0.13181	1.04394
0.02119	0.53379
0.30171	0.40625
0.58223	0.71234
0.91375	-0.48652
-0.25932	-0.10391
-0.23382	0.10015
-0.28482	0.15117
-0.00431	0.43176
-0.02981	0.78886
-0.02981	1.19699
0.19971	-1.40480
0.07220	0.20219
0.45472	-0.41000
0.53123	-1.60887
0.30171	0.10015
-0.00431	0.63582
-0.18282	0.76336
-0.15732	0.81437
0.27621	0.61031
0.99026	0.76336
0.70974	0.35523
-0.08081	-0.00188
-0.51434	0.32972
-0.28482	-0.53754
-0.18282	-0.69059
0.19971	0.10015
0.30171	0.27871
0.25071	-0.00188
0.48022	0.10015
0.42922	0.73785
0.12320	0.30422
-0.18282	-0.51203
0.40372	-1.20074
0.45472	0.48277
0.78624	0.78886
-0.31033	0.89089
-0.61635	0.61031
-0.10631	0.86539
0.27621	0.12566
0.07220	-0.23145
0.19971	1.22250
-0.13181	0.83988
-0.25932	-1.09871
0.37822	-3.11382
0.76074	-0.66508
0.40372	0.86539
-0.02981	1.52859
0.09770	1.91120
0.32721	-0.10391
0.30171	-0.10391
0.07220	1.06945
0.07220	0.50828
-0.31033	-0.20594
-0.13181	-0.15492
0.14870	-0.43551
0.17421	0.32972
0.27621	1.24800
0.48022	-0.86914
0.14870	-0.69059
0.02119	0.55929
0.12320	0.02363
0.45472	-0.23145
-0.18282	0.35523
-0.10631	0.35523
0.53123	0.32972
0.40372	0.32972
0.02119	0.50828
0.07220	0.53379
0.12320	-0.07840
0.09770	0.53379
-0.23382	0.12566
0.17421	0.15117
-0.10631	-0.00188
-0.10631	0.10015
0.35272	0.02363
0.45472	-1.17523
0.73524	0.30422
1.06676	1.37554
0.04670	0.02363
-0.48884	0.50828
-0.20832	-1.04770
-0.05531	-0.48652
-0.23382	0.58480
-0.13181	-0.12942
0.07220	0.78886
0.78624	1.27351
0.83725	0.66132
0.27621	0.02363
0.12320	-0.58856
-0.10631	-0.79262
-0.28482	1.04394
0.25071	0.17668
0.22521	-0.28246
0.14870	0.45726
0.27621	0.30422
-0.08081	0.66132
0.50573	0.15117
-0.05531	-0.46102
0.32721	0.45726
0.04670	0.27871
-0.02981	-0.61406
-0.25932	0.68683
0.04670	0.68683
0.35272	-0.51203
0.19971	-0.48652
0.22521	0.35523
0.09770	-0.35899
-0.10631	0.68683
0.09770	0.86539
0.99026	0.63582
1.11776	0.48277
0.55673	0.43176
-0.31033	-1.32828
-0.56534	-0.20594
-0.31033	1.35003
-0.46334	-0.35899
-0.74385	-1.37929
0.27621	0.27871
1.14327	0.02363
1.65330	0.96742
0.42922	-0.10391
-0.51434	-0.25695
-0.46334	0.55929
-0.59084	0.27871
-0.28482	0.15117
-0.05531	0.22769
0.14870	0.07465
-0.10631	0.38074
0.63323	-0.18043
1.47479	0.66132
1.39828	-0.05289
-0.18282	-0.56305
-0.36133	0.15117
-0.10631	0.50828
-0.36133	0.68683
-0.53984	1.27351
-0.31033	0.55929
0.48022	-1.76191
0.19971	-2.57816
0.55673	1.19699
0.63323	1.27351
0.02119	0.55929
-0.48884	0.25320
-0.28482	1.47757
0.19971	-0.05289
0.48022	-0.20594
1.01576	0.12566
0.76074	0.45726
0.65874	-0.92016
-0.02981	-0.10391
-0.59084	0.27871
-0.53984	0.66132
-0.51434	0.30422
-0.31033	-0.71609
0.07220	0.15117
0.55673	0.22769
0.83725	1.09496
0.53123	0.40625
0.17421	1.04394
0.22521	-1.32828
0.63323	-0.35899
0.22521	-0.00188
-0.08081	-0.23145
-0.05531	-0.66508
-0.08081	0.91640
-0.08081	0.53379
-0.02981	0.30422
0.04670	0.71234
0.04670	0.76336
0.32721	1.32453
0.55673	-1.94047
0.58223	-1.30277
-0.10631	0.61031
0.22521	0.22769
0.32721	-0.43551
-0.02981	-0.25695
-0.18282	0.68683
-0.38683	0.78886
0.25071	0.78886
0.22521	-0.28246
0.27621	0.25320
0.22521	0.32972
0.04670	0.50828
0.14870	0.20219
0.55673	-0.74160
0.14870	-0.05289
-0.08081	0.27871
0.12320	1.09496
0.25071	-0.61406
0.50573	0.12566
-0.05531	0.17668
-0.02981	0.40625
-0.02981	0.25320
0.12320	0.30422
0.27621	0.27871
0.04670	-0.23145
0.42922	-0.30797
0.53123	0.58480
0.45472	0.71234
-0.08081	0.30422
-0.48884	0.86539
-0.05531	-0.10391
0.02119	-1.45582
0.37822	-0.71609
-0.05531	0.22769
0.02119	0.48277
0.12320	1.04394
0.37822	0.86539
0.35272	0.73785
1.01576	-0.94566
-0.08081	-0.92016
-0.15732	0.15117
-0.33583	0.38074
-0.13181	0.66132
-0.18282	0.32972
0.12320	1.19699
0.22521	-0.38449
0.40372	0.78886
0.45472	-0.18043
1.04126	-1.83844
0.32721	-0.41000
-0.02981	0.22769
-0.51434	0.27871
0.02119	0.96742
0.53123	1.47757
0.40372	0.55929
-0.10631	-0.38449
0.70974	0.73785
-0.66735	0.10015
-0.36133	0.25320
-0.13181	-0.58856
-0.00431	-0.89465
-0.00431	0.38074
-0.33583	-0.51203
0.27621	-0.00188
0.60773	1.09496
1.32178	-0.63957
0.86275	-0.46102
0.09770	0.27871
-0.48884	0.58480
-0.10631	0.30422
0.12320	0.35523
-0.00431	0.12566
0.19971	0.68683
-0.56534	-0.07840
-0.05531	0.17668
0.22521	0.17668
0.25071	0.04914
0.07220	-0.10391
0.45472	-0.41000
0.58223	0.73785
0.37822	0.96742
0.48022	-1.07320
0.12320	-0.46102
-0.15732	0.96742
-0.13181	0.68683
-0.25932	0.71234
0.30171	0.58480
0.37822	-0.20594
-0.18282	-0.53754
0.50573	0.22769
0.53123	1.12046
0.32721	0.86539
-0.59084	-0.79262
-0.25932	-1.27726
-0.59084	-1.65988
0.63323	0.66132
0.83725	0.83988
0.99026	1.24800
-0.28482	1.22250
0.14870	0.22769
-0.00431	-0.69059
-0.05531	-0.25695
0.07220	0.12566
0.02119	0.48277
-0.38683	0.10015
0.04670	0.12566
0.32721	0.30422
0.65874	-0.20594
0.12320	0.17668
0.07220	0.61031
-0.02981	0.58480
0.37822	-0.43551
0.63323	-0.51203
0.73524	-0.25695
-0.43783	-0.23145
-0.28482	1.17148
-0.10631	1.37554
0.07220	-0.05289
0.35272	0.32972
0.42922	-0.15492
0.53123	-0.25695
-0.13181	0.63582
-0.15732	0.22769
-0.13181	0.45726
0.07220	0.07465
0.19971	-0.30797
0.12320	0.63582
0.40372	0.38074
0.25071	-0.53754
0.17421	-0.05289
0.09770	0.30422
0.04670	0.17668
0.02119	0.38074
0.25071	0.35523
0.14870	0.04914
0.19971	-0.07840
0.45472	0.40625
0.07220	-0.58856
0.40372	0.50828
-0.02981	0.78886
0.12320	0.25320
-0.41233	-0.02739
-0.18282	0.07465
0.07220	-1.58336
0.86275	0.66132
-0.02981	0.15117
0.32721	-0.30797
0.42922	0.48277
0.37822	0.66132
0.17421	1.32453
-0.43783	-0.28246
-0.25932	-0.25695
-0.13181	-0.05289
-0.05531	0.22769
0.27621	0.45726
0.42922	0.10015
0.60773	0.10015
0.58223	0.02363
0.25071	-0.00188
-0.08081	-0.02739
0.04670	0.30422
0.17421	-0.07840
-0.13181	-0.46102
0.04670	-0.63957
0.07220	0.22769
0.35272	0.12566
0.14870	0.61031
0.30171	0.89089
-0.20832	0.20219
-0.23382	0.96742
0.02119	0.27871
0.12320	-1.09871
0.22521	0.81437
0.22521	0.53379
-0.05531	0.43176
0.42922	-0.35899
0.73524	-1.45582
0.50573	0.10015
0.12320	0.73785
-0.08081	0.99292
-0.31033	-0.25695
-0.69285	-0.00188
0.02119	-0.05289
0.78624	0.61031
0.60773	0.22769
-0.15732	-0.12942
-0.05531	0.20219
0.30171	0.22769
0.68424	0.12566
0.14870	0.10015
-0.08081	0.32972
-0.18282	-0.05289
0.27621	0.07465
0.04670	0.17668
0.09770	-0.63957
-0.08081	-0.05289
0.22521	1.12046
0.12320	-0.10391
0.30171	-0.05289
0.14870	-0.61406
-0.08081	-0.63957
0.27621	-0.12942
0.78624	1.52859
0.40372	0.96742
-0.23382	0.68683
-0.13181	0.76336
-0.33583	-0.02739
-0.18282	0.35523
0.81175	0.38074
0.96476	-1.73640
0.55673	-1.07320
-0.15732	0.32972
-0.46334	-0.28246
-0.38683	0.71234
-0.51434	0.63582
-0.38683	0.43176
0.02119	0.55929
0.25071	0.35523
0.60773	0.68683
0.76074	0.45726
0.68424	-0.69059
0.25071	-0.48652
0.14870	0.04914
0.02119	0.12566
-0.20832	0.55929
-0.28482	1.19699
-0.00431	-1.48133
0.37822	-0.18043
0.40372	0.68683
0.07220	0.15117
0.25071	0.83988
-0.31033	0.53379
0.09770	0.02363
0.17421	-0.84363
0.22521	0.20219
0.12320	0.63582
0.58223	1.93671
-0.00431	-0.28246
-0.18282	-2.09351
0.27621	0.81437
0.53123	-0.99668
-0.10631	-0.20594
0.12320	0.55929
0.35272	0.22769
-0.23382	0.78886
-0.13181	0.71234
0.27621	0.50828
0.42922	0.61031
0.02119	0.25320
-0.18282	-0.23145
0.25071	-0.38449
0.25071	-0.94566
-0.13181	0.02363
0.14870	0.73785
0.32721	0.15117
0.42922	-0.12942
0.68424	0.43176
0.35272	0.83988
0.07220	0.61031
-0.28482	0.22769
-0.31033	0.66132
0.42922	-0.33348
0.27621	-1.91496
-0.08081	0.35523
-0.20832	1.27351
0.42922	1.09496
0.50573	-1.63437
0.42922	-0.02739
0.17421	1.06945
-0.00431	0.94191
-0.48884	0.10015
-0.23382	0.55929
0.19971	-0.02739
0.53123	0.53379
0.04670	1.22250
-0.15732	-3.13933
0.65874	-0.69059
0.70974	0.81437
0.81175	0.86539
-0.13181	0.73785
-0.18282	1.29902
-0.51434	0.66132
-0.43783	-1.12422
0.30171	-0.86914
0.53123	-0.23145
0.04670	0.55929
0.02119	1.01843
0.07220	-1.02219
0.14870	0.71234
0.35272	0.15117
0.17421	0.32972
0.19971	-0.46102
0.09770	0.71234
0.42922	1.01843
0.12320	-0.05289
-0.10631	-1.71090
0.35272	-0.61406
0.30171	0.66132
0.22521	1.09496
-0.38683	1.06945
-0.20832	0.86539
0.19971	0.43176
1.19427	-0.35899
0.53123	-0.30797
-0.76936	-0.15492
-0.56534	-0.86914
-0.00431	-0.00188
0.30171	1.01843
-0.00431	0.17668
-0.23382	-0.38449
0.32721	0.45726
1.01576	-0.12942
0.83725	0.30422
-0.13181	0.96742
-0.48884	-0.66508
0.02119	-0.35899
0.48022	1.93671
0.32721	-0.66508
-0.18282	-0.99668
-0.02981	0.78886
0.17421	1.42656
0.27621	-0.46102
0.07220	-0.69059
-0.00431	-1.22625
0.37822	0.71234
0.35272	0.71234
0.09770	0.22769
0.02119	0.17668
0.42922	0.61031
0.78624	0.32972
0.14870	0.45726
-0.23382	0.76336
-0.33583	1.19699
-0.10631	-0.56305
-0.08081	-1.91496
0.12320	-0.33348
-0.25932	0.35523
0.19971	0.61031
0.22521	0.55929
1.14327	0.45726
0.68424	-0.07840
-0.02981	-0.35899
-0.48884	-0.10391
-0.31033	1.17148
-0.38683	-0.00188
0.73524	-0.86914
0.73524	0.38074
0.58223	0.38074
-0.15732	0.43176
-0.59084	0.45726
-0.18282	0.50828
0.22521	0.66132
0.30171	0.81437
0.19971	0.07465
0.22521	0.10015
0.53123	-0.30797
0.12320	-1.83844
-0.20832	-0.66508
0.32721	0.76336
0.09770	-0.30797
0.81175	-0.07840
0.30171	0.68683
0.35272	0.76336
-0.15732	0.94191
-0.69285	0.71234
-0.61635	0.30422
0.14870	0.20219
0.53123	-0.35899
0.17421	-0.38449
0.12320	-0.15492
0.12320	0.27871
0.02119	-0.56305
0.07220	-0.28246
0.25071	0.43176
0.63323	0.40625
0.42922	0.15117
-0.13181	-0.00188
0.07220	0.25320
0.02119	0.45726
0.25071	0.99292
0.25071	-0.05289
0.30171	0.35523
0.42922	1.40105
-0.48884	-1.22625
-0.61635	-0.92016
0.04670	0.55929
0.60773	0.53379
0.14870	0.53379
-0.05531	-0.02739
0.22521	0.43176
0.63323	-0.00188
1.09226	0.53379
0.09770	0.43176
-0.66735	-0.63957
-0.41233	0.27871
-0.10631	-0.56305
0.73524	0.78886
0.50573	0.15117
0.27621	-0.61406
-0.33583	-0.28246
-0.00431	0.63582
0.12320	0.68683
0.19971	0.32972
-0.28482	-0.15492
-0.05531	0.04914
0.07220	-0.56305
0.55673	-0.18043
0.32721	0.50828
0.32721	0.86539
0.32721	1.01843
0.50573	-0.05289
0.32721	-0.05289
0.14870	-0.20594
-0.38683	0.04914
-0.33583	0.10015
-0.05531	-0.38449
0.07220	0.45726
0.09770	0.71234
0.35272	1.14597
-0.33583	-0.18043
0.19971	-1.09871
0.99026	-0.15492
0.81175	0.15117
-0.33583	0.50828
-0.02981	0.43176
0.04670	-0.05289
0.45472	-0.00188
-0.18282	0.83988
-0.31033	-0.74160
-0.05531	0.61031
0.02119	-1.22625
0.19971	-0.89465
0.17421	0.61031
0.14870	1.06945
0.17421	0.66132
0.30171	1.35003
0.30171	0.66132
0.32721	0.15117
0.14870	-1.58336
0.48022	-0.15492
0.32721	0.86539
0.12320	0.53379
0.02119	-0.10391
-0.28482	0.40625
-0.00431	0.15117
-0.08081	-0.41000
0.30171	0.76336
-0.00431	-0.15492
-0.05531	-0.35899
-0.00431	0.50828
-0.20832	0.07465
-0.15732	0.12566
0.53123	0.25320
0.58223	0.27871
0.32721	0.76336
0.65874	-0.86914
0.93925	-0.84363
-0.10631	0.58480
-0.25932	0.55929
-0.08081	0.38074
0.27621	0.07465
-0.28482	0.71234
-0.02981	0.48277
-0.25932	-0.35899
-0.00431	-0.05289
0.42922	0.38074
0.65874	0.68683
0.55673	0.25320
0.40372	-1.09871
0.32721	-0.71609
0.17421	0.96742
-0.08081	-0.48652
-0.41233	0.40625
0.02119	0.04914
-0.10631	0.25320
0.22521	-0.18043
0.02119	-0.46102
-0.20832	0.30422
0.25071	1.12046
0.30171	1.09496
0.27621	0.89089
0.12320	-0.15492
0.14870	-0.92016
0.02119	0.15117
0.04670	0.27871
0.22521	-0.12942
0.58223	0.25320
0.12320	-0.00188
0.09770	-0.10391
0.22521	0.20219
-0.18282	0.04914
-0.15732	0.04914
0.12320	0.30422
0.09770	0.20219
0.25071	-0.41000
0.22521	1.17148
0.27621	-0.43551
0.02119	-0.41000
-0.00431	0.43176
0.09770	0.25320
0.12320	0.32972
0.14870	0.10015
0.83725	1.24800
0.27621	0.40625
0.32721	-0.20594
-0.15732	0.40625
-0.15732	0.12566
-0.00431	0.17668
-0.20832	-0.58856
0.27621	-0.69059
0.22521	1.22250
0.12320	0.07465
0.12320	-1.73640
0.14870	-0.58856
0.30171	0.96742
0.50573	0.83988
0.50573	0.22769
-0.23382	0.35523
0.53123	0.81437
0.81175	0.76336
-0.25932	-0.35899
-0.53984	0.27871
-0.56534	-0.33348
-0.36133	-0.33348
0.09770	0.15117
0.40372	0.22769
0.37822	0.22769
0.32721	0.32972
0.35272	0.43176
0.55673	0.04914
0.50573	-0.56305
0.22521	-0.05289
0.09770	0.38074
-0.00431	0.58480
-0.43783	1.32453
-0.08081	-0.33348
0.02119	-1.88945
0.78624	0.40625
0.50573	0.50828
-0.10631	-0.12942
-0.48884	-0.20594
-0.00431	0.43176
0.12320	0.35523
-0.02981	0.78886
0.81175	0.48277
0.19971	-0.35899
0.76074	0.78886
0.27621	0.12566
0.27621	0.27871
-0.33583	0.22769
-0.20832	-0.00188
-0.15732	-0.20594
0.02119	-0.46102
-0.28482	-0.20594
0.09770	0.10015
0.40372	0.48277
0.58223	-0.10391
0.14870	0.22769
-0.13181	0.86539
0.30171	-0.46102
1.04126	-0.35899
1.01576	-0.43551
0.12320	-0.18043
-0.41233	1.06945
-0.51434	1.45206
-0.23382	1.12046
-0.05531	-0.15492
0.14870	-0.38449
-0.02981	0.91640
0.04670	-0.61406
-0.25932	-0.86914
0.42922	0.45726
0.65874	0.35523
0.55673	0.25320
-0.08081	0.53379
0.02119	-0.53754
0.30171	-0.23145
0.12320	0.15117
-0.02981	0.12566
0.27621	0.25320
-0.13181	0.45726
0.45472	0.30422
0.14870	0.17668
0.27621	-0.15492
-0.28482	0.07465
0.12320	0.25320
0.48022	-0.18043
-0.13181	-0.63957
0.04670	1.17148
0.14870	0.35523
0.02119	-0.48652
0.04670	0.15117
0.02119	0.66132
0.12320	0.35523
0.73524	0.17668
0.32721	0.50828
-0.05531	-0.12942
0.22521	-1.07320
0.35272	-1.27726
0.27621	0.35523
-0.08081	1.24800
-0.05531	0.99292
-0.28482	0.55929
-0.00431	0.71234
0.14870	0.55929
0.22521	-1.09871
0.45472	-0.00188
0.32721	0.43176
0.12320	-0.81812
-0.08081	0.10015
0.22521	0.43176
0.35272	-0.63957
0.58223	0.07465
-0.02981	0.55929
-0.18282	-0.18043
0.12320	0.83988
-0.02981	0.63582
-0.00431	0.15117
0.53123	0.38074
0.35272	0.71234
-0.20832	1.19699
-0.18282	-1.22625
0.17421	-2.32308
0.12320	-0.33348
0.12320	0.66132
0.12320	0.96742
0.19971	1.50308
0.22521	-0.33348
0.35272	0.45726
0.53123	0.48277
0.12320	0.45726
0.02119	-0.41000
0.04670	-0.12942
-0.00431	-0.25695
-0.25932	0.15117
0.40372	-0.20594
0.68424	-0.35899
0.22521	1.17148
-0.08081	0.71234
0.14870	-1.14973
0.12320	-1.20074
-0.18282	-0.66508
-0.33583	1.22250
-0.31033	2.21730
0.09770	0.81437
0.63323	-2.85874
0.96476	-0.07840
0.86275	1.22250
0.22521	1.37554
0.02119	-0.56305
-0.20832	-0.23145
-0.36133	0.43176
-0.43783	1.04394
-0.18282	0.58480
0.02119	0.27871
0.73524	0.35523
0.53123	-0.76711
0.55673	0.43176
0.02119	0.12566
0.14870	-1.88945
-0.00431	-0.86914
0.02119	0.25320
0.02119	0.71234
0.04670	0.86539
0.40372	1.35003
-0.02981	-0.99668
0.02119	-1.12422
0.22521	0.78886
0.40372	0.76336
0.42922	0.53379
0.12320	0.22769
0.14870	0.99292
-0.05531	1.27351
-0.25932	-1.45582
0.02119	-1.20074
0.37822	0.45726
0.42922	0.83988
0.48022	-0.46102
-0.13181	-1.02219
0.22521	0.83988
0.25071	1.04394
-0.13181	0.32972
-0.20832	1.45206
-0.20832	-1.65988
-0.10631	0.02363
0.37822	1.24800
0.76074	-1.60887
0.96476	0.35523
0.48022	1.09496
-0.10631	0.20219
-0.41233	-0.66508
-0.31033	0.12566
-0.10631	0.30422
-0.13181	1.27351
0.40372	-0.12942
0.02119	-0.84363
0.09770	-0.25695
0.55673	0.38074
1.06676	0.61031
0.91375	0.45726
-0.36133	0.32972
-1.15188	0.04914
-0.51434	0.48277
0.32721	0.32972
0.27621	-0.20594
0.45472	-0.58856
0.32721	-0.41000
0.40372	0.45726
0.22521	0.12566
0.12320	0.40625
0.17421	1.45206
-0.13181	-1.88945
-0.05531	-0.10391
0.09770	0.89089
0.09770	0.68683
0.40372	0.71234
0.17421	0.48277
0.30171	0.50828
0.42922	0.10015
0.40372	-0.02739
-0.05531	-0.66508
-0.28482	-0.35899
-0.18282	0.04914
-0.13181	-0.02739
-0.20832	0.07465
0.04670	0.68683
0.25071	0.94191
0.68424	-1.55785
0.68424	-0.46102
0.83725	0.68683
-0.08081	0.35523
-0.36133	0.10015
-0.02981	0.94191
-0.38683	0.32972
-0.25932	0.17668
0.12320	0.50828
0.32721	0.38074
0.19971	0.07465
0.14870	0.17668
0.02119	0.20219
0.14870	-0.56305
0.42922	-0.53754
0.22521	-0.35899
0.45472	1.29902
0.04670	-0.00188
-0.00431	-0.92016
0.19971	0.07465
0.02119	0.55929
0.02119	0.81437
0.42922	0.27871
0.32721	0.22769
-0.18282	-0.12942
-0.10631	0.30422
-0.18282	0.73785
0.09770	0.15117
0.40372	0.40625
0.14870	0.20219
0.17421	-0.41000
0.14870	-0.41000
0.17421	0.17668
0.12320	0.61031
0.40372	0.40625
0.53123	-0.66508
0.09770	-0.38449
-0.31033	0.38074
-0.46334	0.40625
0.22521	0.10015
0.02119	0.17668
0.55673	0.81437
0.07220	-0.07840
0.12320	-0.84363
0.04670	0.30422
0.30171	0.63582
0.09770	1.14597
0.22521	-0.02739
0.02119	-0.43551
0.48022	-0.28246
0.12320	0.20219
0.27621	0.04914
0.09770	-1.37929
0.12320	0.45726
-0.10631	2.16628
-0.38683	3.18659
0.02119	-2.62918
0.09770	-1.81293
0.17421	0.50828
0.14870	0.25320
0.42922	0.83988
0.50573	1.17148
0.32721	0.55929
0.25071	0.63582
0.12320	0.17668
-0.33583	0.43176
-0.20832	0.04914
0.42922	-1.71090
0.73524	-1.09871
0.30171	0.48277
-0.15732	0.38074
-0.15732	-0.00188
-0.05531	0.50828
0.25071	0.68683
0.22521	0.71234
0.17421	0.32972
0.30171	-1.27726
-0.05531	-0.48652
0.02119	1.14597
-0.02981	0.17668
0.14870	0.50828
0.30171	1.17148
0.50573	0.38074
-0.00431	-0.18043
-0.10631	0.78886
0.14870	-0.46102
0.60773	-0.30797
0.42922	-1.43031
0.42922	0.02363
0.04670	0.35523
-0.05531	1.09496
-0.28482	0.94191
-0.02981	0.63582
-0.20832	0.55929
-0.08081	0.10015
0.07220	-0.86914
0.22521	-0.66508
0.27621	0.45726
0.07220	0.30422
0.50573	0.10015
0.70974	-0.05289
1.09226	0.91640
0.14870	-0.38449
-0.13181	-0.33348
-0.36133	0.81437
-0.36133	1.45206
-0.51434	-0.86914
0.17421	-1.99148
0.45472	-1.48133
0.12320	0.91640
0.14870	1.45206
-0.05531	1.14597
0.25071	0.22769
