0.35272	0.35523
0.12320	1.04394
0.09770	0.61031
0.07220	-0.15492
-0.02981	0.04914
0.04670	-0.02739
-0.05531	0.15117
0.30171	-0.46102
0.22521	0.15117
0.27621	0.38074
0.12320	-0.56305
0.09770	1.17148
0.19971	-0.46102
0.19971	0.50828
-0.10631	0.27871
0.02119	-0.05289
0.04670	0.38074
0.27621	-0.05289
0.32721	-0.86914
0.17421	-0.18043
0.19971	0.68683
0.14870	0.02363
0.09770	0.22769
0.09770	1.50308
0.02119	0.12566
-0.02981	-0.38449
0.17421	-0.61406
0.19971	1.27351
0.27621	1.19699
0.37822	-0.25695
0.19971	-0.86914
0.19971	-0.05289
0.04670	0.10015
0.14870	-0.12942
-0.02981	0.71234
-0.13181	0.12566
0.14870	-0.28246
0.19971	-0.33348
0.22521	2.31933
0.25071	-0.61406
0.17421	-1.65988
0.14870	0.66132
-0.00431	-0.00188
0.07220	0.71234
0.09770	0.48277
0.04670	-0.15492
0.19971	1.09496
0.25071	0.04914
0.30171	0.04914
0.27621	0.48277
0.14870	-0.56305
0.22521	0.53379
0.07220	-0.69059
0.14870	-0.10391
-0.02981	0.53379
-0.00431	-0.63957
0.07220	0.45726
0.19971	1.17148
0.25071	-0.33348
0.17421	0.12566
0.17421	-0.81812
0.04670	-0.12942
0.19971	0.55929
-0.08081	0.35523
0.12320	0.25320
0.07220	0.32972
0.12320	-0.02739
0.32721	0.68683
0.14870	0.38074
0.19971	-0.05289
0.32721	0.50828
0.25071	0.04914
0.22521	-0.48652
-0.00431	0.53379
0.04670	-0.89465
-0.10631	-0.53754
0.09770	-0.56305
0.19971	3.00804
0.25071	0.86539
0.32721	-0.28246
0.27621	-0.53754
0.22521	-0.66508
0.02119	0.15117
0.04670	-0.05289
0.02119	-0.20594
0.02119	0.02363
0.09770	0.58480
0.25071	0.22769
0.37822	0.17668
0.19971	0.15117
0.22521	0.10015
0.19971	0.15117
0.14870	0.35523
0.07220	0.12566
0.02119	-0.23145
0.04670	0.55929
-0.00431	0.53379
0.25071	0.43176
0.32721	0.04914
0.37822	0.25320
0.09770	0.17668
0.30171	-0.07840
0.02119	-0.02739
0.09770	-0.15492
-0.05531	-0.07840
0.07220	0.04914
-0.02981	0.86539
0.19971	0.17668
0.14870	0.10015
0.32721	-0.07840
0.50573	-0.23145
0.14870	0.71234
0.19971	-0.28246
0.09770	-0.12942
-0.00431	0.32972
-0.00431	0.43176
0.02119	0.99292
0.27621	0.63582
0.32721	-0.51203
0.09770	-0.10391
0.22521	0.02363
0.19971	0.58480
0.07220	-0.15492
0.07220	0.20219
-0.05531	-0.20594
0.04670	0.12566
0.04670	0.50828
0.14870	0.12566
0.32721	0.12566
0.37822	0.04914
0.17421	0.15117
0.12320	0.02363
0.07220	0.10015
-0.00431	0.07465
-0.00431	0.15117
0.04670	0.27871
-0.00431	0.22769
0.22521	0.20219
0.32721	0.07465
0.12320	0.27871
0.30171	0.25320
0.32721	0.10015
0.12320	-0.10391
0.02119	0.50828
0.09770	0.07465
-0.08081	0.04914
0.04670	0.38074
0.27621	-0.15492
0.27621	-0.02739
0.22521	0.68683
0.30171	-0.63957
0.12320	0.10015
0.09770	0.27871
0.19971	-0.07840
-0.02981	0.17668
-0.10631	0.38074
0.04670	0.78886
0.19971	-0.56305
0.19971	0.25320
0.37822	0.40625
0.35272	0.27871
0.17421	-0.28246
0.04670	-0.28246
0.02119	-0.18043
0.12320	-0.28246
-0.08081	0.20219
-0.02981	0.40625
0.30171	0.73785
0.32721	0.53379
0.19971	-0.56305
0.27621	-0.46102
-0.00431	0.35523
-0.10631	0.76336
0.32721	-0.56305
0.14870	0.10015
-0.05531	0.38074
-0.00431	0.32972
-0.00431	1.14597
0.30171	0.12566
0.48022	-0.63957
0.22521	0.17668
0.22521	-0.23145
0.17421	-0.35899
-0.05531	0.55929
-0.00431	0.22769
0.02119	0.15117
0.12320	0.55929
0.32721	0.07465
0.35272	-0.48652
0.22521	0.07465
0.32721	0.53379
0.17421	0.20219
-0.05531	0.83988
-0.02981	0.53379
-0.13181	-0.48652
0.02119	-0.28246
0.19971	-0.58856
0.17421	-0.23145
0.30171	0.53379
0.19971	0.38074
0.12320	0.63582
0.17421	0.27871
0.12320	0.15117
0.09770	0.10015
0.19971	0.58480
0.14870	-0.53754
0.02119	-0.46102
0.02119	1.06945
0.19971	0.07465
0.37822	-0.63957
0.07220	0.25320
0.02119	0.04914
0.19971	0.89089
0.12320	0.55929
0.27621	0.10015
0.17421	-0.20594
-0.05531	0.17668
0.02119	0.73785
0.12320	1.24800
0.25071	0.96742
0.25071	-2.19554
0.48022	-1.30277
-0.23382	-0.46102
-0.10631	1.29902
0.42922	0.83988
0.22521	0.61031
0.60773	1.68163
0.22521	-0.79262
-0.25932	-1.58336
-0.23382	-0.05289
-0.23382	0.86539
-0.00431	0.76336
0.42922	0.81437
0.50573	0.40625
0.63323	0.27871
0.27621	-0.86914
-0.13181	-1.58336
0.04670	0.27871
-0.13181	-0.23145
-0.25932	1.01843
0.07220	1.06945
0.12320	1.57960
0.42922	-1.32828
0.48022	-1.12422
0.02119	-0.02739
0.14870	0.10015
0.14870	1.32453
0.02119	0.68683
0.48022	-0.76711
0.40372	-0.41000
-0.41233	0.61031
-0.00431	0.61031
0.68424	1.06945
0.73524	1.83468
0.60773	-0.81812
-0.33583	0.02363
-1.04987	0.35523
-0.18282	-4.64429
0.25071	-1.50683
0.14870	1.80917
0.37822	2.95702
0.04670	0.10015
-0.10631	1.65613
0.45472	-0.56305
0.55673	0.12566
0.45472	0.30422
0.32721	-0.18043
0.04670	0.55929
-0.10631	-0.94566
0.09770	0.53379
-0.28482	-0.28246
0.02119	-2.90976
0.63323	0.63582
0.83725	0.66132
0.68424	1.19699
-0.28482	2.19179
-0.61635	-0.38449
0.25071	0.40625
0.19971	0.25320
0.07220	0.07465
-0.18282	-0.00188
-0.41233	1.24800
0.12320	-1.45582
0.40372	-2.01699
0.32721	-0.05289
0.19971	0.83988
0.55673	0.91640
0.53123	0.96742
0.19971	1.04394
-0.15732	-1.02219
-0.00431	-1.43031
0.17421	0.32972
0.55673	-0.48652
0.70974	0.40625
-0.46334	1.17148
-0.51434	-0.38449
-0.28482	3.16108
-0.08081	-1.09871
-0.05531	-1.83844
0.17421	0.10015
0.65874	0.40625
0.96476	0.71234
0.55673	1.75816
-0.41233	-1.02219
-0.23382	-1.20074
-0.25932	1.29902
0.91375	1.55410
0.91375	-1.02219
0.27621	-0.71609
0.09770	0.83988
-0.20832	-1.73640
-0.33583	-2.96078
-0.74385	1.88570
-0.23382	-0.53754
0.27621	1.83468
0.30171	0.68683
0.78624	2.54890
0.35272	0.86539
-0.28482	-1.94047
0.14870	0.04914
0.09770	3.49268
0.65874	-1.37929
0.22521	-2.32308
-0.28482	1.75816
0.04670	-1.07320
-0.18282	-2.70570
-0.56534	0.96742
-0.05531	-0.25695
0.02119	1.47757
1.19427	1.93671
0.93925	1.19699
0.32721	0.73785
0.22521	-0.12942
0.32721	0.32972
0.53123	-0.79262
0.04670	-0.43551
-0.69285	1.93671
-1.12638	-0.00188
-1.20288	-3.49644
0.27621	-2.55265
1.29628	2.11527
1.95932	0.35523
0.48022	-0.28246
-0.69285	1.83468
-0.66735	1.78367
0.14870	2.52339
0.35272	0.07465
0.32721	-2.39961
0.55673	-1.40480
0.86275	0.48277
0.93925	2.08976
0.07220	1.29902
-0.89686	-0.81812
-0.92237	0.10015
-0.89686	1.63062
-0.46334	-0.48652
0.27621	-1.99148
0.07220	-0.18043
0.53123	1.06945
0.73524	0.25320
0.93925	-0.92016
1.44929	0.63582
0.17421	1.06945
-0.41233	1.01843
-0.00431	-1.02219
0.30171	1.09496
1.29628	-2.65468
0.88825	1.70714
0.02119	0.12566
-0.79486	-2.85874
-1.30489	0.07465
-0.66735	1.55410
-0.28482	3.16108
0.14870	-0.79262
-0.79486	0.35523
-0.97337	1.57960
1.16877	-0.23145
1.90832	0.12566
2.16333	0.35523
1.09226	-0.25695
-0.13181	0.40625
-0.41233	-0.48652
-0.59084	-0.61406
-0.66735	-0.66508
-0.43783	-0.20594
-0.02981	-0.25695
0.45472	-0.56305
0.12320	1.09496
0.42922	0.02363
-0.48884	-1.43031
-0.23382	1.27351
0.14870	0.99292
0.63323	2.90601
0.78624	-1.73640
0.30171	-2.01699
0.68424	0.38074
0.45472	1.75816
0.27621	2.34484
-0.13181	-1.58336
-0.64185	-0.00188
-0.28482	4.38546
0.22521	-4.66979
0.17421	-6.17475
0.42922	-0.23145
0.42922	2.34484
-0.15732	2.90601
-0.02981	2.82948
0.09770	1.93671
0.09770	0.45726
-0.05531	-0.15492
0.02119	-0.18043
1.14327	-1.58336
0.88825	-2.39961
0.76074	-0.05289
-0.31033	0.25320
-0.87136	-1.07320
-0.76936	0.30422
-0.48884	0.15117
0.07220	1.55410
0.50573	-0.23145
0.48022	0.45726
0.55673	-0.53754
-0.00431	0.50828
0.07220	1.04394
0.37822	0.53379
1.09226	2.01323
0.86275	2.57441
0.27621	-4.36370
-0.51434	-0.97117
-0.71835	-1.65988
0.22521	1.32453
0.35272	0.73785
0.22521	1.09496
0.17421	0.53379
0.35272	0.25320
0.14870	1.22250
-0.71835	2.24281
-0.66735	-0.33348
-0.18282	-3.85355
0.12320	-4.18515
0.09770	0.61031
0.19971	-0.48652
0.30171	0.04914
0.70974	2.39585
1.24527	2.42136
0.37822	1.40105
-0.20832	1.73265
-0.74385	2.19179
0.12320	2.54890
0.88825	-4.18515
1.01576	-4.95038
0.22521	-2.22105
-0.13181	0.71234
-0.87136	1.52859
-0.87136	1.96222
-0.59084	3.44167
-0.28482	0.07465
0.35272	-0.38449
0.96476	-0.18043
1.55129	0.22769
1.24527	0.68683
0.14870	0.53379
-0.48884	-0.53754
-0.89686	0.02363
-0.87136	-0.10391
0.22521	-0.25695
0.96476	-1.09871
1.27078	-1.12422
0.25071	0.68683
-0.20832	0.89089
-0.13181	0.58480
-0.13181	0.86539
-0.28482	-0.28246
-0.79486	1.29902
-0.66735	1.91120
0.48022	1.40105
0.99026	-6.53186
1.29628	-2.55265
1.09226	2.08976
0.50573	2.70194
-0.18282	2.29382
-0.53984	1.88570
-0.43783	1.70714
-0.10631	-0.76711
0.09770	-0.97117
-0.00431	-2.17003
0.88825	-0.74160
0.93925	-0.30797
-0.02981	1.83468
0.19971	1.17148
-0.31033	-1.58336
-0.18282	-0.20594
-0.31033	0.45726
-0.56534	0.48277
-0.10631	-0.20594
-0.08081	0.20219
0.45472	0.04914
1.39828	0.76336
1.34728	3.05905
1.11776	0.00000
-0.08081	-0.66508
-0.51434	-3.72601
-0.69285	-0.23145
-1.04987	1.37554
-1.04987	1.04394
-0.28482	-0.43551
1.04126	1.45206
1.65330	-0.25695
0.91375	-0.53754
0.19971	0.12566
0.04670	2.19179
-0.31033	1.24800
-0.76936	-4.08312
-0.56534	-3.93007
-0.05531	0.40625
-0.33583	0.68683
0.53123	2.21730
1.70430	2.08976
1.72980	-1.25176
1.55129	1.70714
0.30171	2.06425
-0.59084	-1.17523
-1.38139	-0.71609
-1.12638	0.48277
-0.25932	0.50828
-0.51434	0.58480
-0.08081	-0.48652
0.81175	-0.69059
1.14327	0.12566
0.32721	0.91640
0.19971	-0.74160
-0.00431	-0.63957
0.25071	0.40625
0.02119	1.06945
-0.25932	-0.41000
-0.05531	-1.22625
0.65874	0.40625
0.91375	0.38074
0.42922	1.12046
0.58223	2.67644
-0.13181	-1.88945
-0.79486	-0.71609
-0.46334	1.06945
-0.59084	2.26831
-0.59084	0.02363
0.19971	0.04914
1.01576	-3.16484
1.55129	-1.68539
1.14327	0.73785
0.14870	2.31933
-0.59084	1.22250
-0.64185	-0.51203
-0.66735	1.52859
-0.64185	-0.61406
0.35272	-0.61406
1.04126	0.45726
0.19971	-1.40480
0.45472	-1.68539
0.63323	0.68683
0.02119	1.52859
-0.25932	1.63062
-0.69285	0.96742
0.17421	0.76336
0.30171	-1.27726
1.16877	-0.66508
0.55673	-1.40480
0.40372	1.04394
0.09770	0.71234
-0.41233	1.12046
-0.48884	1.60511
-0.48884	-0.76711
-0.36133	0.78886
-0.05531	-0.35899
-0.18282	-0.81812
0.55673	-0.48652
0.99026	-0.99668
2.06133	1.27351
0.91375	0.27871
-0.15732	-0.74160
-0.51434	0.94191
-0.92237	1.24800
-0.69285	0.86539
-0.59084	-0.69059
-0.05531	-0.41000
0.35272	0.53379
0.58223	0.30422
1.75531	0.22769
0.78624	-0.43551
0.35272	0.20219
-0.43783	-0.66508
-0.33583	-0.00188
-0.18282	0.96742
-0.48884	0.40625
-0.28482	0.55929
-0.13181	-1.12422
0.22521	-0.56305
0.58223	0.50828
0.76074	0.12566
1.27078	0.22769
1.34728	0.61031
0.07220	2.54890
-0.99887	-1.27726
-1.12638	-0.69059
-0.56534	3.54370
-0.13181	-0.92016
0.22521	-3.67499
0.40372	-0.79262
0.35272	-1.78742
0.32721	1.35003
0.22521	0.89089
0.27621	1.42656
0.14870	2.47238
-0.00431	1.27351
0.50573	-0.61406
0.81175	-0.12942
1.09226	-0.15492
-0.05531	0.17668
-0.53984	-0.10391
-0.43783	-1.14973
-0.48884	-0.89465
-0.13181	0.89089
-0.05531	1.12046
-0.13181	-1.32828
0.53123	-1.02219
0.53123	0.07465
0.42922	-0.15492
0.50573	0.48277
0.65874	1.09496
0.30171	1.65613
-0.38683	1.57960
-0.23382	2.19179
-0.28482	-1.88945
-0.08081	-3.26687
0.37822	1.60511
0.42922	0.53379
0.04670	-1.91496
0.19971	-0.89465
-0.13181	1.19699
-0.05531	1.19699
0.19971	0.53379
0.35272	0.58480
0.45472	0.86539
0.93925	0.02363
0.65874	-0.51203
0.02119	-0.63957
-0.66735	1.19699
-0.61635	-0.58856
-0.08081	-0.56305
0.02119	1.45206
-0.15732	-0.66508
0.07220	-1.14973
0.37822	-0.07840
0.83725	0.07465
0.63323	1.50308
0.35272	1.22250
-0.23382	-0.99668
-0.28482	1.27351
-0.08081	0.91640
-0.05531	-2.11902
0.22521	-1.09871
0.02119	0.71234
0.22521	1.86019
0.45472	0.32972
0.86275	0.48277
0.32721	1.60511
-0.08081	-0.41000
-0.28482	-1.27726
-0.31033	-1.07320
-0.48884	0.25320
0.53123	0.38074
1.34728	-0.38449
0.93925	0.96742
-0.18282	1.09496
-0.20832	1.24800
0.27621	0.17668
0.04670	-0.66508
-0.94787	-0.53754
-0.84586	0.04914
-0.61635	0.53379
0.32721	1.57960
1.09226	0.32972
1.24527	-3.67499
0.65874	0.25320
-0.08081	1.37554
-0.28482	-0.46102
-0.00431	-0.43551
0.12320	1.17148
0.25071	-0.48652
-0.08081	0.78886
-0.23382	0.78886
0.14870	0.96742
0.17421	2.57441
0.42922	-0.35899
0.09770	-4.10862
0.25071	0.04914
0.55673	0.68683
0.76074	-1.37929
1.52579	1.32453
0.50573	1.22250
-0.41233	1.37554
-0.64185	0.61031
-0.64185	0.45726
-0.89686	0.96742
-0.82036	-0.35899
-0.28482	-1.94047
-0.18282	-0.76711
0.50573	0.71234
0.86275	-0.25695
0.91375	0.25320
0.93925	1.06945
0.27621	0.35523
-0.36133	-0.51203
-0.25932	0.48277
-0.18282	0.27871
0.25071	-0.43551
0.35272	-0.10391
0.76074	0.30422
0.32721	-1.58336
-0.08081	-1.27726
-0.10631	1.57960
-0.08081	1.86019
0.04670	0.61031
-0.46334	0.30422
-0.69285	0.50828
-0.69285	0.02363
0.81175	-0.25695
1.95932	0.20219
1.52579	0.15117
0.35272	-0.18043
-0.08081	-0.58856
-0.28482	1.47757
-0.48884	-1.63437
-0.53984	0.25320
-0.46334	0.10015
-0.33583	-1.12422
-0.05531	0.15117
0.32721	1.42656
0.65874	1.06945
0.76074	1.45206
0.48022	0.83988
0.17421	-0.71609
0.02119	0.32972
-0.13181	1.17148
0.78624	0.32972
0.32721	-1.27726
0.32721	-1.88945
0.17421	1.57960
0.53123	-0.23145
-0.48884	-1.63437
-0.56534	0.43176
0.04670	1.09496
0.37822	1.17148
-0.23382	1.22250
-0.18282	0.10015
-0.59084	-0.63957
-0.48884	-0.23145
-0.05531	0.12566
0.65874	1.24800
0.96476	-0.38449
1.34728	-0.35899
1.80631	-0.10391
1.42379	-0.12942
-0.08081	2.75296
-0.71835	-0.69059
-1.12638	0.10015
-0.92237	-1.09871
-0.69285	-0.41000
-0.46334	-1.35379
-0.31033	-0.30797
0.27621	1.12046
0.93925	0.20219
1.78081	-0.02739
1.47479	1.70714
0.50573	1.78367
-0.38683	1.04394
-1.12638	-0.79262
-0.89686	0.40625
-0.66735	-0.18043
0.07220	-1.12422
0.99026	-1.45582
1.11776	0.10015
0.68424	0.25320
0.19971	0.40625
-0.31033	0.04914
-0.23382	0.27871
-0.00431	0.04914
0.12320	0.10015
-0.31033	-0.00188
0.27621	0.55929
0.50573	0.55929
1.04126	2.39585
0.96476	-0.25695
-0.05531	-2.57816
-0.38683	-0.86914
-0.71835	0.40625
-0.28482	0.89089
-0.05531	1.47757
-0.31033	0.94191
0.02119	-0.48652
0.50573	0.25320
0.86275	0.35523
1.01576	0.55929
0.55673	0.15117
0.27621	-0.10391
-0.18282	1.04394
-0.48884	-0.71609
-0.71835	-1.68539
0.04670	-0.07840
0.40372	0.50828
0.88825	-0.63957
0.40372	-0.00188
-0.08081	0.35523
0.07220	1.12046
-0.10631	0.50828
-0.13181	-0.51203
-0.15732	-0.12942
-0.36133	0.50828
-0.00431	0.53379
0.48022	0.38074
1.04126	0.48277
0.27621	1.35003
0.40372	0.40625
0.07220	-0.18043
0.30171	0.61031
0.60773	-1.94047
-0.23382	-0.48652
-0.33583	-0.63957
-0.31033	0.32972
-0.13181	0.63582
-0.15732	0.40625
-0.33583	-0.20594
0.12320	0.81437
0.45472	2.59991
0.45472	0.07465
0.91375	-1.68539
1.09226	0.38074
0.53123	0.02363
0.30171	0.40625
-0.10631	0.53379
-0.43783	0.38074
-0.59084	-0.07840
-0.18282	0.10015
0.32721	-0.28246
0.14870	-0.20594
0.09770	-0.02739
0.30171	-0.12942
0.22521	0.71234
-0.18282	1.52859
0.09770	-1.94047
0.07220	-1.09871
0.35272	0.71234
0.12320	0.63582
0.60773	0.78886
1.34728	1.37554
1.24527	0.32972
-0.00431	-0.10391
-1.33039	0.94191
-1.25389	3.21210
-0.76936	-3.11382
-0.33583	-5.51155
0.27621	-0.05289
0.83725	1.29902
1.11776	1.80917
0.73524	0.86539
0.02119	0.30422
-0.18282	0.50828
-0.10631	0.55929
0.19971	0.12566
0.32721	0.35523
0.25071	-0.18043
0.22521	-0.10391
0.02119	0.22769
0.12320	-0.43551
0.22521	-0.51203
0.30171	0.22769
0.48022	-1.22625
0.07220	0.55929
-0.05531	0.17668
-0.25932	-0.20594
-0.05531	1.04394
-0.48884	1.45206
-0.13181	-0.46102
-0.05531	-0.25695
-0.02981	0.63582
0.09770	-0.43551
0.48022	-1.50683
0.96476	0.91640
0.19971	2.34484
0.35272	-0.07840
0.27621	-1.27726
0.17421	0.83988
-0.02981	0.99292
0.02119	-0.30797
-0.10631	-0.86914
-0.51434	-0.51203
-0.23382	2.08976
0.37822	-1.53234
0.58223	-1.20074
0.68424	1.01843
0.50573	1.24800
0.58223	0.86539
0.04670	0.25320
-0.28482	0.15117
-0.18282	-0.02739
-0.05531	-0.05289
0.07220	0.12566
0.09770	0.10015
-0.02981	-0.41000
0.02119	1.12046
0.22521	-0.30797
0.42922	-2.29757
0.53123	-0.12942
0.19971	1.91120
0.02119	-0.20594
-0.10631	0.12566
-0.10631	0.63582
0.14870	0.89089
0.30171	1.12046
0.25071	0.45726
-0.28482	-0.23145
0.09770	0.07465
0.42922	-0.12942
0.91375	0.55929
0.68424	-0.81812
0.12320	-1.91496
-0.36133	-0.33348
-0.08081	0.32972
-0.00431	1.29902
-0.02981	0.40625
-0.23382	0.30422
0.17421	0.66132
0.48022	0.63582
0.48022	0.50828
-0.08081	0.25320
-0.51434	-0.07840
-0.28482	-0.15492
-0.08081	0.68683
0.65874	1.04394
0.73524	-2.80773
0.53123	-1.73640
0.27621	1.68163
0.12320	-0.00188
-0.02981	-1.04770
-0.15732	0.94191
0.02119	1.17148
-0.13181	2.21730
-0.15732	-1.07320
0.09770	-0.79262
0.58223	0.83988
0.86275	0.63582
0.53123	0.38074
0.04670	0.83988
-0.15732	0.40625
0.07220	-0.61406
0.19971	-0.81812
0.17421	-0.63957
-0.31033	-0.00188
-0.28482	0.30422
-0.28482	0.15117
0.02119	0.43176
0.27621	0.71234
0.22521	0.53379
0.22521	0.53379
-0.15732	-0.74160
-0.02981	0.07465
0.45472	0.71234
0.42922	-1.63437
1.24527	0.32972
1.34728	1.75816
0.45472	0.12566
-0.31033	-1.50683
-0.38683	0.68683
-0.36133	1.27351
-0.66735	0.10015
-1.40690	0.25320
-1.02437	1.42656
0.25071	-1.78742
1.60230	-0.51203
1.90832	0.40625
1.19427	0.58480
0.68424	1.24800
-0.31033	-0.48652
-1.04987	-0.10391
-0.99887	2.42136
-0.59084	-1.48133
0.42922	-1.91496
1.16877	-1.09871
0.70974	0.22769
0.17421	0.32972
-0.10631	1.04394
-0.25932	1.09496
-0.46334	1.57960
-0.94787	0.48277
-0.61635	-1.27726
0.81175	-0.20594
2.59686	1.37554
2.03582	0.12566
0.12320	-0.33348
-0.15732	-0.23145
-0.56534	-0.53754
-0.71835	1.57960
-0.79486	-0.05289
-0.48884	-2.90976
0.25071	-0.61406
0.48022	0.45726
0.53123	0.71234
0.58223	1.75816
0.35272	0.25320
-0.18282	-0.48652
0.37822	2.59991
0.09770	0.81437
-0.18282	-2.52714
-0.13181	0.94191
-0.02981	-0.02739
-0.20832	0.30422
0.12320	-1.65988
0.42922	-0.92016
0.70974	0.53379
0.37822	1.98773
0.42922	0.91640
0.50573	-0.48652
0.35272	0.20219
0.30171	0.66132
-0.33583	1.83468
-1.07538	-0.43551
-0.20832	-1.83844
0.88825	-0.66508
1.06676	0.12566
0.53123	-0.00188
-0.23382	0.86539
-0.36133	0.83988
-0.56534	1.06945
-0.18282	-0.58856
-0.13181	0.22769
-0.23382	1.14597
0.07220	-2.04250
0.37822	-1.32828
1.34728	1.40105
1.24527	0.04914
0.96476	0.78886
0.22521	0.89089
-0.18282	1.93671
-0.56534	0.99292
-0.51434	-1.45582
0.04670	-1.81293
0.30171	1.75816
0.09770	-0.38449
0.55673	-2.57816
0.83725	-0.00188
0.32721	0.78886
0.30171	3.16108
-0.64185	0.43176
-0.94787	-0.56305
-0.69285	-2.50164
-0.59084	0.38074
0.02119	0.66132
0.65874	1.35003
1.14327	1.86019
1.50029	-0.46102
0.93925	-1.86394
0.35272	-0.33348
-0.13181	0.04914
-0.71835	1.50308
-0.89686	-0.07840
-0.59084	-0.51203
-0.43783	1.52859
0.35272	0.32972
0.19971	-2.55265
0.42922	-1.17523
1.06676	-0.92016
0.78624	2.14077
0.96476	1.63062
0.37822	0.02363
-0.36133	1.19699
-0.74385	1.19699
-0.38683	0.45726
-0.56534	-1.07320
0.02119	-0.66508
0.70974	0.15117
1.34728	0.12566
0.96476	1.86019
0.09770	-0.97117
-0.28482	-1.07320
-0.46334	0.71234
-0.53984	-1.45582
-0.48884	0.04914
-0.02981	1.75816
0.25071	-1.76191
0.73524	0.99292
0.45472	0.96742
0.27621	-0.10391
0.14870	0.99292
0.02119	0.68683
0.12320	0.53379
0.50573	1.37554
0.30171	0.91640
-0.02981	-0.58856
-0.13181	-1.07320
0.40372	0.25320
0.17421	-0.58856
0.12320	0.48277
-0.05531	1.73265
0.02119	-0.71609
0.07220	-2.01699
0.17421	0.17668
0.30171	0.86539
0.02119	0.91640
0.02119	0.43176
0.19971	0.15117
0.53123	-0.46102
0.78624	0.38074
0.73524	0.91640
-0.02981	0.40625
-0.10631	0.30422
-0.31033	-0.07840
-0.18282	1.29902
-0.38683	1.04394
-0.53984	-2.78222
-0.66735	-1.71090
0.07220	-0.35899
0.53123	0.86539
1.60230	1.68163
1.44929	2.21730
1.01576	0.58480
-0.84586	1.55410
-0.51434	-1.35379
-0.31033	-0.92016
-0.28482	-0.12942
-0.25932	-0.66508
-0.51434	0.04914
0.07220	1.12046
0.60773	0.68683
1.01576	-0.15492
0.91375	0.66132
0.07220	-0.23145
0.32721	-0.10391
-0.08081	0.76336
0.02119	0.94191
0.12320	-0.46102
0.22521	0.50828
-0.23382	1.29902
0.14870	-1.17523
0.02119	-1.09871
-0.08081	-0.48652
0.42922	0.02363
0.09770	0.27871
-0.59084	0.61031
-0.05531	1.50308
0.50573	1.17148
1.37278	-1.50683
0.32721	-0.10391
-0.33583	0.81437
-0.61635	-0.46102
-0.13181	-0.07840
0.27621	-0.10391
0.14870	0.45726
-0.46334	0.48277
-0.36133	0.61031
-0.13181	-0.18043
0.58223	0.76336
1.27078	-1.35379
2.13783	0.94191
0.73524	0.48277
-0.28482	-0.00188
-0.61635	-0.76711
-0.48884	0.55929
-0.61635	0.83988
-0.89686	0.66132
-0.18282	0.66132
0.37822	0.07465
0.88825	0.27871
0.30171	-0.05289
0.37822	0.53379
0.60773	-1.30277
0.83725	-0.66508
0.42922	0.32972
-0.59084	0.22769
-0.71835	2.14077
-0.13181	-0.18043
0.86275	-2.04250
1.09226	-0.05289
0.42922	0.27871
-0.71835	0.83988
-0.79486	0.78886
-0.41233	1.19699
-0.13181	0.22769
-0.38683	0.12566
0.17421	0.66132
0.55673	-3.26687
0.93925	-0.10391
0.86275	0.89089
0.83725	0.73785
0.63323	2.21730
0.12320	-0.38449
0.02119	-1.30277
-0.74385	-0.84363
-0.59084	0.73785
-0.00431	0.58480
0.81175	0.73785
0.37822	0.53379
0.02119	-0.53754
-0.02981	0.83988
-0.08081	-0.76711
-0.02981	0.17668
-0.20832	-0.05289
0.09770	-0.35899
0.07220	0.15117
0.86275	0.17668
0.96476	0.40625
1.29628	1.04394
-0.31033	0.35523
-0.53984	0.15117
-0.13181	0.15117
0.02119	0.53379
-0.36133	-0.61406
-0.51434	0.76336
0.07220	1.22250
0.35272	-1.86394
0.63323	-2.06800
0.63323	0.63582
0.60773	1.63062
0.09770	0.73785
0.12320	0.35523
-0.02981	0.55929
-0.48884	0.50828
-0.23382	-0.43551
0.09770	0.30422
-0.13181	-0.12942
0.12320	-0.00188
0.22521	0.55929
0.50573	-0.38449
0.55673	-0.38449
0.45472	0.25320
0.22521	0.32972
-0.23382	0.35523
0.12320	0.78886
0.04670	-2.04250
0.12320	-0.41000
0.22521	0.55929
0.07220	1.17148
0.27621	1.35003
0.17421	0.91640
0.02119	1.14597
-0.15732	-0.18043
-0.18282	-0.74160
-0.13181	-0.69059
0.32721	-0.30797
0.17421	0.38074
0.25071	-0.41000
0.42922	0.53379
0.40372	0.76336
0.12320	0.35523
-0.31033	-0.79262
-0.20832	-0.61406
-0.08081	0.10015
-0.18282	0.32972
0.19971	1.04394
0.37822	0.76336
0.53123	0.40625
0.73524	0.63582
1.11776	0.53379
0.65874	-0.99668
-0.02981	-0.81812
-0.51434	1.86019
-0.31033	-0.53754
-0.56534	-2.17003
0.02119	0.22769
0.27621	0.81437
0.32721	1.01843
0.17421	1.19699
0.02119	0.38074
0.04670	-0.61406
0.22521	1.01843
0.30171	0.53379
0.63323	-1.09871
0.27621	-0.41000
-0.05531	0.27871
-0.41233	0.27871
-0.28482	0.45726
0.19971	0.55929
0.30171	0.07465
0.70974	0.91640
0.78624	-0.46102
-0.10631	-0.66508
-0.28482	-0.56305
-0.28482	-0.25695
-0.15732	0.15117
0.12320	0.71234
-0.20832	0.96742
0.32721	2.03874
0.32721	-0.56305
0.78624	-2.06800
0.40372	0.12566
0.63323	0.15117
0.48022	0.71234
0.12320	1.12046
-0.59084	1.06945
-0.56534	0.38074
-0.51434	-1.17523
0.48022	-2.50164
0.48022	-0.15492
0.50573	0.78886
0.22521	0.76336
0.02119	0.81437
-0.08081	0.63582
-0.28482	0.30422
-0.25932	-0.07840
-0.05531	-0.00188
0.55673	-0.56305
0.60773	0.30422
0.12320	1.68163
0.02119	-1.02219
-0.13181	-1.94047
0.63323	0.20219
0.65874	1.80917
0.53123	0.10015
-0.43783	-0.51203
-0.31033	-0.58856
-0.08081	0.10015
0.02119	1.32453
-0.05531	0.78886
-0.02981	0.81437
0.60773	0.50828
0.73524	-0.46102
0.58223	-0.43551
0.37822	0.30422
0.02119	-0.25695
-0.43783	-0.05289
-0.13181	0.17668
-0.33583	0.94191
-0.38683	0.30422
0.27621	-2.22105
0.55673	-0.58856
0.76074	0.63582
-0.02981	1.12046
-0.18282	0.86539
0.02119	-0.23145
0.30171	0.78886
0.68424	1.47757
0.73524	-1.04770
0.30171	-0.74160
0.30171	-0.10391
-0.33583	1.17148
-0.48884	-0.56305
-0.43783	-0.81812
-0.43783	0.20219
0.14870	0.86539
0.17421	0.50828
0.78624	1.12046
0.22521	0.22769
0.83725	-0.56305
0.25071	0.53379
0.14870	-0.56305
-0.18282	0.22769
-0.33583	-1.17523
0.02119	-0.56305
0.07220	0.76336
0.50573	0.43176
0.45472	0.81437
0.19971	1.14597
-0.02981	0.94191
0.12320	-0.97117
0.22521	-1.07320
0.07220	0.45726
-0.10631	0.43176
-0.20832	0.61031
-0.05531	0.58480
0.17421	0.17668
0.60773	0.45726
0.50573	-1.22625
0.32721	0.55929
0.02119	-0.43551
-0.05531	0.30422
0.14870	-0.07840
0.22521	0.43176
0.37822	0.71234
0.22521	0.68683
-0.41233	0.89089
0.14870	-1.30277
-0.02981	-0.53754
0.42922	0.27871
0.25071	0.20219
0.17421	1.12046
-0.05531	0.30422
0.09770	0.27871
-0.08081	0.15117
-0.18282	-0.35899
-0.31033	-0.00188
-0.10631	0.43176
0.14870	-0.33348
0.68424	0.17668
1.21977	0.66132
0.09770	3.23761
1.06676	-2.37410
0.37822	-3.19035
-0.18282	-0.33348
-0.89686	1.06945
-0.61635	0.91640
-0.23382	1.17148
-0.20832	1.14597
0.19971	1.68163
0.35272	0.99292
0.37822	-1.55785
0.65874	-0.53754
0.73524	0.07465
0.35272	0.71234
-0.25932	-0.58856
-0.53984	-0.38449
-0.08081	0.30422
0.48022	0.45726
0.83725	0.35523
0.78624	-0.46102
0.91375	0.71234
0.19971	0.07465
-0.56534	0.35523
-0.71835	0.30422
-0.69285	-1.07320
-0.25932	-0.30797
0.60773	1.52859
0.32721	0.20219
0.09770	-0.76711
0.53123	0.45726
0.04670	0.30422
-0.25932	0.38074
0.09770	0.50828
0.63323	1.37554
0.83725	0.32972
0.02119	-2.06800
-0.10631	-1.17523
0.07220	1.86019
0.35272	-0.15492
0.27621	-1.53234
0.22521	-0.02739
-0.20832	1.17148
-0.25932	0.86539
0.37822	0.63582
-0.10631	0.38074
0.55673	0.25320
0.14870	-0.00188
0.14870	1.50308
0.07220	-1.12422
0.04670	-1.43031
0.14870	1.24800
0.50573	-0.58856
-0.02981	-1.99148
-0.10631	0.68683
0.14870	0.50828
0.22521	0.66132
0.50573	1.22250
0.17421	0.50828
-0.18282	-0.05289
0.12320	0.58480
-0.02981	-0.05289
0.09770	-0.43551
0.30171	0.45726
0.25071	3.41616
0.37822	0.53379
0.17421	-7.29709
0.12320	-1.02219
0.30171	0.63582
0.32721	0.99292
-0.23382	4.46198
-0.23382	-0.23145
0.25071	-1.96597
0.53123	1.47757
0.35272	-0.05289
-0.33583	0.63582
-0.71835	0.02363
-0.00431	-0.00188
0.53123	0.89089
0.73524	0.30422
1.04126	-0.74160
0.93925	2.82948
0.53123	-2.88425
-0.23382	-2.24656
-0.43783	-0.74160
-1.12638	-0.15492
-0.48884	3.36515
0.25071	-1.50683
0.09770	-0.99668
0.53123	2.21730
0.14870	1.86019
0.37822	-0.15492
0.32721	-0.76711
0.53123	0.68683
0.60773	2.39585
-0.28482	-0.30797
-0.46334	-0.71609
0.14870	0.66132
0.40372	-3.29238
0.70974	-1.04770
0.37822	0.99292
-0.05531	1.47757
-0.38683	1.24800
-0.56534	0.53379
0.07220	0.55929
0.53123	1.01843
0.50573	0.53379
0.35272	-0.46102
0.42922	0.61031
0.70974	-0.23145
0.63323	-0.63957
-0.48884	-0.66508
-0.33583	-0.02739
-0.10631	0.04914
-0.08081	0.25320
-0.18282	0.48277
0.02119	-0.15492
0.37822	0.68683
-0.08081	0.55929
-0.20832	0.27871
0.04670	-0.02739
0.12320	-0.18043
0.19971	0.35523
0.45472	2.11527
0.78624	-1.45582
0.86275	-1.25176
0.60773	1.04394
0.32721	0.35523
-0.20832	-0.92016
-0.25932	2.06425
0.02119	0.04914
-0.00431	-2.11902
0.14870	0.66132
-0.08081	1.57960
-0.56534	0.25320
-0.31033	-0.18043
0.27621	1.22250
1.01576	-1.45582
0.19971	-0.69059
0.27621	0.86539
0.32721	1.12046
0.07220	-0.28246
0.35272	-0.81812
0.42922	-0.71609
0.65874	0.45726
-0.38683	0.78886
-0.99887	1.35003
-1.12638	0.25320
0.02119	-1.27726
0.68424	0.50828
1.34728	0.40625
1.34728	0.38074
0.55673	0.12566
-0.28482	-0.33348
-0.46334	0.02363
-0.59084	0.04914
-0.69285	0.58480
0.22521	1.14597
0.35272	-1.99148
0.65874	-1.88945
0.78624	0.99292
0.45472	1.04394
-0.05531	1.47757
0.09770	1.06945
-0.20832	-0.48652
-0.33583	-0.61406
0.09770	0.38074
0.37822	0.83988
0.32721	3.05905
0.14870	-1.53234
0.17421	-2.11902
0.37822	-1.45582
0.14870	-0.79262
-0.20832	-0.02739
0.30171	2.19179
0.63323	0.83988
-0.38683	-0.18043
0.27621	1.47757
-0.31033	0.12566
-0.08081	-0.12942
0.50573	0.25320
0.55673	1.57960
0.55673	-0.33348
-0.10631	-3.52195
-0.51434	1.09496
-0.38683	0.71234
-0.36133	-0.56305
-0.25932	-1.53234
0.09770	-0.66508
0.81175	1.65613
0.70974	1.22250
0.86275	1.63062
0.58223	0.71234
0.22521	-1.32828
-0.10631	-1.14973
-0.02981	0.43176
-0.15732	0.25320
-0.00431	0.73785
0.19971	0.55929
0.25071	-0.00188
0.17421	0.25320
0.02119	0.07465
0.19971	2.70194
-0.02981	-1.94047
-0.05531	-2.42511
0.07220	0.15117
-0.00431	0.15117
0.25071	0.35523
0.14870	0.25320
0.22521	0.66132
0.58223	0.78886
0.30171	1.55410
0.19971	0.50828
-0.10631	-0.30797
-0.41233	-0.18043
-0.33583	-1.94047
0.04670	0.25320
0.50573	0.53379
0.73524	1.37554
0.70974	1.63062
0.04670	-0.69059
-0.28482	-0.23145
-0.20832	-1.35379
-0.08081	0.89089
0.35272	0.40625
0.53123	-0.02739
0.73524	0.10015
0.58223	0.17668
-0.18282	0.15117
-0.38683	0.02363
-0.51434	1.01843
-0.76936	0.58480
-0.05531	-1.76191
0.91375	0.02363
0.78624	0.15117
0.60773	-0.69059
0.68424	0.50828
0.12320	0.78886
-0.23382	0.50828
-0.13181	1.27351
-0.18282	0.48277
-0.02981	-0.18043
-0.00431	-1.27726
-0.05531	-0.84363
-0.20832	2.16628
-0.10631	-0.71609
0.37822	-1.17523
1.16877	0.63582
0.35272	0.86539
0.48022	0.45726
0.25071	0.78886
0.07220	0.20219
-0.28482	-0.05289
-0.53984	-0.23145
-0.28482	0.25320
0.60773	0.53379
0.93925	0.38074
0.48022	-0.63957
-0.31033	-1.02219
-0.18282	0.02363
-0.23382	0.53379
-0.25932	1.17148
-0.02981	-0.46102
-0.13181	-0.53754
0.17421	0.86539
0.27621	0.48277
0.68424	-0.25695
0.96476	-0.56305
0.86275	1.19699
0.91375	0.38074
0.60773	1.68163
-0.28482	0.10015
-0.89686	-0.58856
-0.82036	0.15117
-0.38683	0.50828
-0.23382	0.94191
-0.20832	-1.37929
0.58223	-0.51203
1.21977	-0.00188
1.37278	0.15117
-0.41233	0.45726
-0.53984	0.45726
-0.46334	0.04914
-0.15732	0.15117
0.32721	1.32453
0.45472	-0.20594
0.73524	-1.58336
0.55673	0.27871
0.19971	0.89089
0.22521	0.91640
0.12320	1.73265
-0.28482	-0.97117
-0.59084	-0.94566
-0.02981	0.35523
0.48022	0.58480
0.48022	-0.35899
0.12320	0.40625
0.09770	0.50828
0.35272	0.66132
0.42922	0.25320
0.55673	-0.35899
1.04126	0.20219
0.27621	-2.29757
-0.71835	-0.30797
-0.64185	-0.25695
-0.25932	1.57960
0.14870	2.54890
0.14870	-1.27726
-0.10631	-2.32308
0.02119	0.25320
0.17421	0.76336
0.30171	1.09496
0.70974	0.86539
0.50573	0.43176
0.63323	0.63582
0.19971	-0.25695
-0.02981	-0.56305
0.04670	0.12566
0.04670	-0.07840
0.09770	0.07465
0.09770	-0.15492
-0.02981	-0.23145
0.40372	0.04914
0.14870	0.45726
-0.46334	-0.02739
-0.69285	-0.05289
-0.02981	0.43176
0.63323	1.04394
0.53123	-1.07320
0.42922	-0.41000
0.12320	0.32972
0.22521	1.63062
-0.18282	0.12566
0.02119	1.55410
0.32721	0.04914
0.58223	-3.70050
0.42922	-0.46102
-0.33583	3.41616
0.19971	0.10015
0.53123	-2.29757
0.32721	1.12046
0.42922	1.57960
-0.02981	0.86539
-0.79486	-0.30797
-0.31033	0.35523
-0.08081	0.04914
0.37822	0.32972
0.60773	0.55929
0.48022	-1.37929
-0.41233	-0.53754
-0.20832	-0.07840
0.32721	0.12566
0.58223	0.17668
0.37822	0.38074
0.14870	0.30422
0.02119	0.35523
-0.02981	0.40625
0.25071	0.17668
0.30171	-0.38449
0.09770	-0.48652
-0.02981	0.38074
-0.20832	0.68683
0.09770	1.29902
0.04670	-0.66508
0.14870	-1.09871
0.32721	0.91640
0.50573	0.78886
0.17421	0.40625
0.35272	1.12046
0.12320	0.12566
0.58223	-1.22625
0.25071	-1.83844
0.14870	0.68683
-0.08081	1.22250
-0.31033	0.83988
-0.51434	0.91640
-0.13181	-1.81293
0.30171	1.12046
0.88825	0.78886
0.07220	-1.09871
-0.00431	0.04914
0.22521	-0.33348
0.12320	0.55929
-0.00431	0.71234
0.12320	0.15117
0.02119	0.22769
-0.00431	0.17668
-0.13181	-0.23145
0.19971	0.32972
1.19427	-0.33348
1.42379	-0.07840
-0.38683	0.25320
-0.89686	0.86539
-0.76936	0.17668
-0.31033	-0.58856
0.27621	-0.58856
0.53123	1.78367
0.73524	0.38074
0.02119	-1.07320
0.37822	-0.84363
0.53123	2.08976
0.65874	-0.00188
0.27621	-1.25176
0.02119	1.78367
-0.23382	1.75816
-0.25932	0.07465
-0.28482	-1.68539
0.02119	-1.40480
0.19971	1.17148
-0.00431	3.18659
0.04670	-0.97117
-0.08081	-1.81293
-0.28482	0.55929
0.14870	0.07465
1.04126	0.12566
0.91375	0.81437
0.53123	0.58480
0.48022	-0.69059
0.58223	0.89089
-0.00431	1.19699
-0.69285	-2.24656
-0.51434	-1.14973
-0.64185	0.40625
-0.71835	0.48277
0.09770	0.66132
0.45472	0.50828
0.91375	0.40625
0.53123	0.30422
1.11776	0.55929
0.37822	1.37554
-0.13181	-0.46102
-0.48884	-1.40480
-0.05531	0.45726
0.42922	-0.10391
0.53123	0.27871
-0.28482	-0.61406
-0.25932	0.35523
0.09770	0.91640
0.19971	1.83468
0.22521	0.02363
0.12320	-1.12422
0.09770	-0.48652
-0.15732	-1.12422
-0.00431	0.81437
0.35272	1.42656
0.88825	0.61031
1.44929	0.43176
0.14870	-2.62918
-0.69285	-0.15492
-1.02437	0.91640
-0.71835	0.73785
-0.41233	1.06945
0.12320	0.76336
0.35272	-1.25176
0.30171	-0.18043
0.58223	-0.10391
0.93925	0.30422
0.83725	0.32972
0.91375	0.43176
0.42922	0.61031
-0.23382	0.48277
-0.38683	-0.69059
-0.31033	-1.35379
0.60773	1.29902
0.32721	-0.05289
0.60773	-1.17523
-0.48884	0.53379
-0.84586	0.12566
-0.84586	0.63582
-0.41233	1.32453
-0.18282	1.17148
0.14870	-0.53754
0.58223	0.38074
0.53123	-0.15492
-0.02981	-0.10391
0.55673	0.58480
1.01576	0.81437
0.93925	-0.12942
0.68424	-1.02219
-0.13181	0.53379
0.19971	-0.28246
-0.48884	0.12566
-0.23382	0.81437
-0.02981	-0.86914
0.30171	-1.63437
0.14870	1.35003
-0.02981	0.35523
-0.10631	-0.35899
-0.15732	1.19699
0.35272	0.38074
0.27621	1.17148
0.14870	-0.71609
0.02119	0.02363
0.19971	-0.12942
-0.02981	0.55929
0.12320	0.22769
0.40372	0.35523
0.27621	0.32972
0.22521	0.22769
0.76074	-0.89465
0.32721	-0.92016
0.32721	0.68683
-0.38683	0.91640
0.07220	0.61031
0.27621	0.38074
0.30171	-0.84363
-0.18282	-1.48133
-0.48884	0.73785
-0.51434	1.22250
-0.25932	0.30422
0.19971	-0.38449
0.76074	1.17148
0.78624	-1.88945
0.42922	-0.41000
0.45472	3.64573
-0.08081	0.15117
-0.51434	-2.85874
-0.84586	1.01843
0.50573	1.91120
0.65874	1.22250
1.06676	0.96742
0.30171	-0.12942
-0.36133	0.17668
0.30171	-0.56305
-0.13181	-1.14973
-0.33583	-1.04770
0.02119	0.45726
0.35272	0.96742
0.27621	-0.30797
0.27621	-0.76711
0.22521	0.27871
-0.28482	0.86539
-0.20832	-0.25695
0.17421	-0.48652
0.96476	0.48277
0.76074	0.96742
0.76074	0.89089
-0.20832	0.73785
-0.61635	-0.23145
-0.56534	0.43176
-0.51434	-0.66508
-0.23382	-0.00188
0.58223	-0.56305
1.06676	0.25320
1.27078	-0.07840
0.19971	0.66132
-0.64185	0.15117
-0.84586	-0.38449
-0.46334	2.08976
0.07220	-1.94047
0.53123	-0.15492
0.93925	1.04394
1.06676	0.32972
0.63323	0.02363
-0.28482	0.22769
-0.59084	-1.07320
0.02119	-0.79262
0.32721	0.96742
-0.00431	0.48277
-0.28482	-0.00188
0.27621	0.99292
-0.38683	0.20219
0.68424	0.22769
0.58223	0.63582
0.63323	-0.30797
-0.23382	0.55929
-0.71835	-0.48652
0.02119	-1.65988
0.58223	0.15117
0.81175	0.45726
0.48022	1.29902
0.32721	0.61031
-0.46334	-1.25176
-1.30489	-0.30797
-0.36133	0.20219
0.73524	0.76336
1.19427	-1.02219
0.55673	-0.63957
-0.08081	1.12046
0.07220	1.55410
-0.38683	0.55929
-0.36133	0.86539
-0.38683	3.00804
0.02119	-2.04250
-0.02981	-5.53706
1.24527	0.20219
1.44929	1.45206
1.04126	1.22250
0.02119	0.78886
-0.92237	0.53379
-1.10088	0.94191
-0.31033	0.45726
0.14870	-1.07320
0.48022	1.06945
0.83725	0.15117
0.53123	-1.12422
-0.25932	0.15117
-0.08081	-0.20594
-0.20832	-1.02219
0.53123	-0.07840
0.55673	1.27351
0.14870	1.40105
-0.00431	-0.28246
0.22521	-0.41000
-0.00431	0.94191
0.12320	1.09496
-0.08081	-1.07320
-0.43783	-0.46102
-0.10631	0.53379
0.25071	0.78886
0.32721	0.38074
1.24527	0.15117
0.86275	0.86539
0.88825	-0.20594
-0.31033	-0.66508
-0.69285	-0.86914
-0.74385	-0.89465
-0.56534	0.04914
-0.23382	1.37554
0.93925	0.78886
0.76074	-0.07840
0.32721	0.32972
0.63323	0.12566
0.22521	0.35523
-0.51434	0.17668
-0.79486	1.32453
-0.48884	0.78886
0.07220	-1.27726
0.17421	-1.22625
0.19971	-0.63957
0.50573	-0.10391
0.68424	2.57441
0.70974	-0.76711
0.60773	-0.28246
0.35272	2.14077
0.22521	-0.46102
0.02119	-1.09871
-0.25932	1.14597
-0.38683	0.32972
0.12320	0.22769
0.86275	0.02363
1.14327	0.48277
-0.05531	0.02363
-0.79486	-0.10391
-0.79486	0.15117
-0.51434	-0.10391
-0.18282	-0.76711
0.09770	-0.51203
0.63323	0.58480
0.48022	0.35523
0.45472	0.61031
0.12320	1.70714
0.40372	-2.50164
0.91375	-0.10391
0.88825	-0.18043
0.22521	0.86539
-0.28482	0.43176
-0.51434	1.06945
0.07220	0.22769
-0.31033	-0.12942
-0.46334	-0.23145
-0.18282	0.73785
0.63323	-0.66508
0.42922	-0.56305
0.25071	-0.18043
-0.02981	0.63582
0.32721	1.50308
0.78624	0.86539
0.58223	0.32972
0.12320	-0.20594
0.09770	-1.20074
-0.00431	-0.10391
0.07220	0.30422
0.04670	-0.00188
0.14870	0.61031
-0.13181	0.76336
-0.23382	-1.30277
-0.20832	-0.61406
0.02119	0.63582
0.30171	1.01843
0.53123	0.48277
0.48022	0.66132
-0.10631	0.12566
-0.23382	-0.56305
0.37822	0.35523
0.68424	0.25320
0.22521	-0.07840
0.30171	0.22769
-0.08081	1.19699
0.35272	-0.99668
0.09770	-1.86394
-0.00431	0.20219
-0.13181	1.22250
-0.10631	0.66132
0.04670	-0.76711
0.02119	0.73785
0.25071	1.22250
0.32721	0.45726
0.86275	0.25320
0.02119	0.22769
0.22521	-0.02739
0.45472	-0.18043
0.99026	0.61031
0.30171	-0.51203
-0.41233	-1.37929
-0.92237	-0.61406
-0.94787	0.38074
-0.15732	0.48277
0.14870	1.01843
0.68424	0.71234
0.76074	-1.32828
0.25071	0.10015
0.09770	0.58480
-0.05531	0.10015
0.37822	0.30422
0.19971	0.35523
-0.05531	0.25320
0.48022	0.55929
0.96476	1.17148
0.30171	0.38074
-0.13181	-1.37929
-0.25932	-1.20074
-0.48884	1.37554
-0.18282	0.25320
-0.23382	-0.94566
0.40372	-1.40480
-0.10631	0.71234
0.27621	0.55929
0.27621	0.45726
0.63323	0.48277
0.48022	0.78886
0.14870	0.96742
0.22521	-0.25695
0.27621	-0.38449
0.27621	0.66132
-0.08081	0.83988
-0.28482	-0.76711
0.02119	-0.51203
0.30171	-0.53754
0.40372	0.22769
0.45472	0.30422
0.19971	0.83988
-0.28482	0.45726
-0.31033	-0.46102
-0.18282	-0.20594
0.37822	0.22769
0.60773	0.53379
0.40372	0.55929
0.14870	1.65613
-0.20832	0.17668
-0.28482	-1.65988
0.04670	-0.41000
0.81175	-0.00188
0.63323	-0.00188
0.02119	1.06945
0.32721	0.96742
-0.25932	-0.05289
-0.56534	-0.30797
0.07220	0.17668
0.37822	0.53379
0.07220	1.37554
0.53123	-0.58856
0.32721	-1.99148
0.19971	0.20219
-0.25932	0.45726
-0.28482	0.25320
0.17421	1.01843
0.07220	0.63582
0.42922	-0.61406
0.88825	-0.00188
1.16877	0.48277
0.86275	0.61031
0.09770	0.99292
-0.51434	0.66132
-1.02437	0.17668
-0.79486	-2.11902
-0.36133	0.83988
0.25071	-0.18043
0.27621	-2.45062
0.50573	0.35523
1.21977	1.57960
0.83725	1.27351
0.09770	1.37554
-0.25932	0.40625
-0.51434	-0.10391
-0.61635	-0.56305
-0.46334	-0.41000
0.32721	-0.18043
0.45472	1.04394
1.04126	-0.35899
1.09226	-0.12942
0.81175	0.53379
0.07220	-0.71609
-0.94787	0.27871
-0.64185	-0.74160
0.02119	-0.05289
-0.05531	0.35523
0.32721	0.71234
0.30171	0.48277
0.12320	0.35523
0.02119	0.12566
0.02119	0.22769
0.22521	0.78886
0.19971	1.45206
0.19971	-2.50164
0.09770	-1.88945
0.60773	2.21730
0.07220	0.48277
0.30171	-1.43031
0.30171	-0.61406
0.48022	1.22250
0.53123	1.98773
-0.02981	-0.00188
-0.31033	-0.43551
-0.46334	0.78886
-0.41233	-0.05289
-0.18282	-0.56305
0.25071	0.20219
0.81175	0.89089
0.78624	0.76336
0.17421	-0.81812
-0.08081	-0.38449
0.02119	0.12566
-0.15732	-0.38449
-0.18282	-0.05289
0.02119	0.40625
0.30171	0.50828
0.81175	0.71234
0.58223	0.91640
0.76074	0.12566
0.40372	-0.20594
-0.66735	0.15117
-0.53984	0.45726
0.02119	0.07465
-0.20832	0.02363
-0.25932	-0.02739
0.02119	-0.41000
0.45472	-0.07840
0.65874	0.45726
-0.13181	0.76336
0.63323	-0.51203
0.12320	-0.53754
0.12320	0.94191
0.09770	-0.10391
0.02119	0.25320
0.48022	0.43176
0.32721	1.83468
0.37822	-0.00188
0.25071	-2.47613
0.12320	0.02363
-0.05531	0.15117
-0.15732	0.35523
-0.31033	0.55929
-0.05531	0.58480
0.07220	0.76336
-0.00431	-0.43551
0.09770	-0.92016
0.30171	0.45726
0.32721	0.22769
0.60773	0.73785
0.07220	1.98773
-0.15732	-2.90976
0.65874	-1.27726
0.58223	-0.58856
0.65874	0.94191
0.22521	1.91120
-0.20832	-0.28246
-0.10631	0.45726
-0.28482	0.63582
0.02119	1.37554
-0.18282	0.68683
0.19971	0.07465
0.48022	-0.18043
0.27621	-0.10391
0.07220	-0.46102
-0.15732	-0.81812
-0.13181	0.02363
0.09770	0.66132
0.17421	-0.63957
0.27621	-0.35899
0.63323	0.63582
0.42922	-0.05289
0.02119	0.04914
0.35272	0.91640
0.50573	0.61031
0.09770	-0.28246
-0.38683	0.63582
-0.20832	0.35523
0.12320	-0.25695
0.09770	0.58480
0.35272	0.32972
-0.00431	0.50828
0.12320	0.99292
-0.00431	-1.27726
0.32721	-1.73640
0.32721	0.55929
0.40372	0.53379
0.27621	0.96742
0.50573	1.73265
-0.13181	-0.71609
-0.18282	-1.60887
0.12320	0.81437
0.25071	-0.00188
0.35272	0.02363
0.32721	0.55929
-0.18282	0.83988
-0.31033	0.04914
-0.43783	0.20219
-0.15732	-0.43551
-0.18282	-0.79262
0.53123	0.38074
0.73524	0.78886
1.04126	0.66132
0.58223	1.63062
0.02119	-2.17003
0.09770	0.07465
-0.33583	-0.97117
-0.23382	-1.50683
-0.15732	0.55929
0.22521	1.93671
0.12320	0.50828
0.27621	0.04914
0.45472	0.35523
-0.46334	0.35523
-0.48884	0.30422
-0.15732	0.35523
0.02119	-0.35899
0.55673	-0.94566
0.91375	0.58480
1.34728	0.27871
0.65874	0.61031
-0.02981	0.78886
-0.38683	0.53379
-0.64185	-1.37929
-0.64185	-0.30797
-0.25932	-0.46102
-0.08081	0.25320
0.30171	0.58480
0.93925	0.78886
0.88825	0.04914
0.70974	0.10015
-0.15732	0.10015
-0.31033	0.61031
-0.08081	0.22769
0.25071	0.91640
-0.13181	0.40625
0.12320	-0.86914
0.96476	-1.12422
0.91375	0.12566
-0.15732	0.35523
-0.69285	2.16628
-0.82036	-0.38449
-0.36133	-0.81812
-0.02981	0.10015
0.04670	0.07465
-0.00431	0.81437
0.81175	1.09496
0.96476	-0.30797
0.73524	-0.38449
0.45472	0.22769
0.32721	0.78886
0.12320	-0.58856
-0.10631	-1.14973
-0.33583	1.09496
-0.28482	1.45206
0.04670	0.20219
0.09770	-2.50164
0.19971	-0.05289
0.53123	1.80917
0.25071	1.37554
0.07220	-0.53754
0.14870	-0.58856
-0.41233	0.15117
-0.53984	0.43176
0.42922	0.45726
0.53123	0.10015
0.88825	0.15117
0.27621	-0.07840
0.48022	0.96742
0.12320	0.10015
-0.56534	-1.50683
-0.18282	0.63582
0.14870	-0.02739
-0.08081	2.08976
-0.43783	-0.71609
-0.08081	-1.30277
0.17421	0.45726
0.32721	1.47757
0.58223	0.40625
0.37822	-0.18043
0.22521	1.60511
0.25071	0.10015
0.27621	-0.46102
0.37822	-4.10862
0.86275	-1.09871
0.65874	0.66132
0.50573	1.91120
0.02119	2.03874
-0.69285	1.40105
-0.89686	0.96742
-0.71835	0.83988
-0.13181	0.43176
0.14870	-0.84363
0.07220	-1.27726
-0.00431	-1.65988
0.04670	-1.58336
0.58223	0.53379
1.19427	0.96742
0.93925	0.99292
0.45472	0.48277
0.35272	0.35523
0.32721	0.66132
-0.25932	0.07465
-0.25932	-0.66508
-0.10631	0.04914
-0.38683	-0.00188
-0.10631	1.19699
0.02119	0.78886
-0.18282	-0.92016
-0.00431	-0.74160
0.04670	0.83988
0.35272	-0.92016
0.37822	-1.30277
0.78624	1.19699
0.55673	0.71234
0.37822	1.29902
-0.13181	1.68163
-0.02981	0.66132
0.12320	-1.22625
0.53123	-0.94566
0.27621	-0.00188
0.19971	1.35003
0.09770	-0.41000
-0.23382	-0.58856
-0.18282	-0.05289
-0.25932	-0.53754
-0.08081	-0.02739
-0.02981	-0.15492
0.25071	0.71234
0.30171	0.71234
0.25071	0.43176
0.58223	0.22769
0.32721	0.78886
0.27621	-0.66508
0.40372	-0.15492
-0.13181	0.48277
-0.10631	-0.02739
-0.23382	0.15117
-0.02981	0.63582
0.32721	-0.07840
0.27621	-0.07840
0.53123	0.15117
0.27621	0.07465
-0.31033	0.43176
-0.31033	0.48277
0.07220	1.29902
0.68424	-0.25695
0.65874	-1.81293
1.27078	-1.09871
0.32721	-1.12422
-0.15732	1.29902
-0.56534	1.78367
-0.23382	2.70194
-0.02981	-0.33348
-0.74385	-2.93527
-0.53984	0.68683
0.35272	0.66132
1.01576	0.50828
0.88825	0.35523
0.17421	-0.18043
0.07220	-0.74160
0.30171	0.43176
-0.23382	0.35523
0.09770	0.12566
0.65874	0.04914
0.65874	0.04914
-0.15732	0.55929
-0.66735	0.17668
-0.51434	-0.15492
-0.08081	0.04914
-0.05531	-0.00188
0.60773	0.55929
0.83725	-0.07840
0.53123	-0.56305
0.58223	-0.18043
-0.10631	0.27871
0.07220	0.61031
-0.23382	-0.46102
0.09770	0.43176
-0.00431	0.86539
0.48022	1.24800
0.19971	0.89089
-0.10631	-0.79262
-0.18282	0.25320
-0.33583	-0.97117
-0.38683	-2.60367
0.37822	0.10015
0.91375	1.52859
0.58223	0.55929
0.19971	1.01843
0.37822	2.62542
0.40372	-1.22625
0.22521	-1.04770
-0.23382	0.96742
-0.10631	0.20219
0.17421	0.83988
0.22521	0.96742
0.19971	0.66132
-0.23382	-0.84363
-0.23382	-2.27207
0.50573	-0.48652
0.70974	-0.15492
0.35272	0.55929
-0.25932	0.66132
-0.28482	0.58480
-0.28482	-1.17523
-0.08081	0.86539
0.07220	0.86539
0.27621	-0.05289
0.53123	0.86539
0.40372	1.29902
0.32721	0.04914
0.37822	-0.28246
0.22521	0.22769
0.02119	0.94191
-0.20832	-0.71609
-0.31033	-1.04770
0.42922	0.76336
0.81175	-0.25695
1.24527	0.02363
0.70974	-0.71609
-0.46334	-1.20074
-0.51434	0.89089
-0.59084	0.43176
-0.36133	-0.00188
-0.15732	1.01843
-0.59084	-0.00188
0.04670	0.61031
0.68424	0.48277
1.06676	0.25320
0.73524	0.35523
0.09770	0.02363
-0.10631	0.45726
-0.13181	-0.43551
-0.31033	-0.15492
0.19971	-0.02739
0.35272	0.25320
0.22521	2.11527
0.37822	-0.53754
0.76074	-2.39961
0.86275	-1.20074
-0.05531	-0.15492
-0.43783	0.83988
-0.82036	2.06425
-0.53984	1.14597
-0.31033	-0.48652
-0.05531	1.75816
0.25071	0.04914
0.40372	-2.19554
0.55673	0.02363
0.83725	0.68683
0.22521	0.66132
0.14870	0.32972
-0.02981	0.61031
-0.15732	1.01843
0.14870	-0.89465
0.35272	-1.63437
0.09770	-0.84363
0.09770	0.63582
0.19971	0.63582
0.53123	0.91640
0.65874	1.17148
0.07220	-0.00188
-0.51434	0.07465
-0.28482	-0.30797
-0.05531	-0.12942
0.32721	0.10015
0.22521	0.35523
0.22521	0.38074
-0.13181	0.61031
0.09770	-0.07840
0.73524	0.25320
0.37822	0.96742
-0.08081	-0.97117
-0.02981	-1.30277
-0.28482	0.25320
-0.28482	0.53379
0.32721	0.45726
1.32178	0.48277
0.70974	1.45206
-0.25932	-1.02219
-0.23382	-0.07840
0.07220	0.32972
0.07220	0.15117
0.02119	0.58480
-0.28482	0.76336
-0.23382	0.20219
0.12320	-0.23145
0.70974	0.04914
0.93925	-0.69059
0.73524	0.35523
0.45472	0.32972
0.32721	1.40105
-0.28482	-1.32828
-0.41233	-1.02219
-0.33583	0.66132
-0.28482	0.20219
-0.23382	0.25320
0.19971	1.68163
0.14870	0.22769
0.37822	0.02363
0.65874	0.53379
0.32721	-0.05289
0.25071	-0.12942
0.19971	0.30422
-0.10631	1.55410
-0.28482	-0.84363
0.25071	-1.71090
0.50573	-0.12942
0.14870	0.35523
0.04670	0.89089
-0.02981	0.66132
0.14870	0.68683
0.19971	0.32972
0.35272	-0.58856
0.02119	0.15117
-0.28482	-0.05289
-0.28482	0.17668
-0.28482	0.66132
0.14870	-0.05289
0.58223	0.15117
0.96476	0.45726
0.78624	-0.12942
0.02119	-0.25695
-0.25932	0.30422
-0.23382	-0.51203
-0.13181	-0.30797
0.12320	1.12046
0.22521	0.50828
0.19971	0.02363
0.19971	0.27871
0.30171	0.22769
0.58223	1.40105
0.42922	-0.69059
0.32721	-0.97117
-0.05531	-0.02739
-0.33583	-0.58856
-0.20832	0.78886
-0.05531	0.63582
0.02119	0.43176
0.04670	2.62542
0.70974	-1.27726
0.53123	-1.94047
0.12320	-0.48652
-0.31033	0.02363
-0.31033	0.71234
-0.25932	0.94191
-0.25932	-0.33348
0.32721	-0.63957
1.37278	1.04394
1.34728	1.55410
0.35272	-0.12942
-0.33583	-1.40480
-0.18282	-0.76711
-0.33583	0.43176
-0.53984	0.71234
-0.23382	0.63582
0.22521	0.58480
0.32721	0.15117
0.53123	0.15117
0.60773	0.12566
0.63323	-0.74160
0.32721	-0.71609
-0.28482	0.12566
-0.36133	0.22769
-0.23382	0.35523
-0.20832	0.38074
0.14870	0.20219
0.58223	0.48277
0.91375	1.35003
0.32721	-1.27726
0.04670	-1.20074
0.22521	1.32453
0.14870	-1.12422
-0.38683	-0.35899
-0.46334	0.86539
-0.23382	0.78886
0.07220	0.73785
0.17421	0.38074
0.27621	0.12566
0.68424	0.10015
0.37822	0.27871
0.68424	0.12566
-0.02981	-0.30797
-0.05531	-0.56305
0.09770	-0.51203
-0.18282	0.20219
0.07220	1.47757
0.42922	0.45726
0.02119	-1.09871
-0.05531	-0.51203
0.37822	1.40105
0.76074	-0.15492
0.14870	-0.10391
-0.15732	-1.12422
-0.10631	0.38074
-0.00431	0.61031
-0.05531	1.17148
0.45472	0.71234
0.30171	2.34484
0.22521	-0.71609
0.19971	-2.17003
0.63323	0.43176
0.42922	-0.10391
-0.05531	0.07465
-0.41233	0.94191
-0.31033	0.38074
0.12320	-0.02739
0.17421	0.35523
0.22521	0.53379
0.19971	-0.30797
0.04670	-0.48652
0.19971	0.30422
-0.05531	0.68683
-0.02981	0.10015
0.02119	-0.56305
-0.31033	0.61031
0.60773	0.20219
0.63323	-0.25695
1.06676	0.76336
0.96476	1.01843
0.19971	0.22769
0.30171	0.17668
-0.53984	-1.20074
-1.02437	-0.05289
-0.71835	0.20219
-0.13181	0.12566
0.22521	-0.20594
0.42922	-0.46102
0.58223	0.53379
0.50573	0.94191
0.50573	1.52859
0.25071	1.65613
-0.43783	-0.53754
-0.71835	-0.25695
-0.53984	0.07465
0.58223	-1.07320
1.34728	-0.94566
1.34728	0.04914
0.55673	1.22250
-0.13181	1.17148
-0.28482	-1.27726
-0.08081	-1.04770
-0.31033	0.25320
-0.38683	0.91640
-0.51434	0.32972
-0.38683	0.32972
0.42922	0.40625
0.58223	0.30422
0.93925	0.27871
0.70974	0.17668
0.81175	0.02363
0.35272	-0.30797
-0.43783	-0.10391
-0.64185	0.10015
-0.43783	0.25320
-0.08081	0.71234
0.09770	-0.25695
0.35272	-0.81812
0.50573	0.61031
0.35272	0.17668
0.09770	1.17148
0.04670	0.02363
0.04670	-0.61406
-0.20832	-0.46102
-0.15732	0.04914
-0.02981	0.76336
0.25071	0.55929
0.19971	0.71234
0.14870	0.86539
0.73524	-0.05289
0.83725	-0.02739
0.83725	-0.15492
1.27078	0.25320
-0.13181	-0.28246
-0.94787	-0.99668
-0.89686	0.15117
-0.48884	1.09496
-0.00431	-0.07840
-0.28482	-0.41000
-0.18282	0.66132
0.04670	0.53379
0.65874	0.55929
0.73524	0.55929
0.25071	2.19179
-0.00431	-1.50683
0.14870	-2.57816
0.37822	0.25320
0.70974	1.27351
0.04670	0.40625
0.04670	-0.25695
0.07220	0.04914
-0.18282	0.63582
-0.02981	0.25320
0.12320	0.04914
0.09770	0.12566
0.25071	0.86539
0.35272	0.20219
0.19971	-0.97117
0.02119	-0.05289
0.22521	0.58480
0.12320	1.29902
0.07220	-1.17523
-0.31033	-0.58856
-0.08081	0.68683
-0.23382	2.14077
-0.05531	-0.89465
0.25071	-1.94047
0.65874	1.60511
0.50573	-0.43551
0.30171	0.12566
0.02119	0.43176
0.19971	0.32972
0.63323	0.35523
0.17421	0.15117
0.45472	0.58480
-0.05531	-0.05289
-0.13181	-0.46102
-0.43783	0.07465
-0.59084	0.25320
-0.23382	0.45726
0.09770	-0.28246
0.25071	0.04914
0.55673	0.32972
0.58223	-0.18043
0.14870	0.27871
-0.02981	0.86539
0.12320	0.55929
0.12320	-1.48133
0.14870	-0.35899
0.48022	0.43176
0.53123	0.73785
0.25071	0.45726
0.02119	0.58480
-0.13181	0.38074
-0.00431	0.38074
-0.36133	-0.00188
-0.08081	0.45726
0.32721	0.83988
0.22521	0.27871
0.32721	-1.71090
-0.02981	-1.37929
0.58223	0.10015
0.04670	0.89089
0.07220	1.09496
-0.41233	1.37554
-0.53984	-0.41000
0.14870	-0.92016
0.48022	0.71234
0.76074	0.48277
0.42922	0.43176
0.40372	0.25320
0.42922	0.43176
0.48022	0.63582
-0.20832	0.27871
-0.59084	-2.24656
-0.38683	-0.25695
-0.33583	1.42656
-0.13181	-0.35899
0.07220	-1.14973
0.48022	0.20219
1.06676	0.96742
0.78624	2.14077
0.63323	0.30422
-0.13181	-0.76711
-0.43783	0.38074
-0.08081	0.38074
0.37822	0.25320
0.88825	1.27351
0.17421	0.10015
0.04670	-1.20074
-0.08081	-0.99668
-0.51434	0.27871
-0.71835	-0.43551
-0.33583	-0.94566
-0.08081	0.81437
0.04670	0.78886
0.53123	1.06945
0.73524	0.17668
0.17421	1.01843
0.65874	0.78886
0.91375	-0.25695
1.06676	-0.20594
0.12320	-0.28246
0.22521	-0.20594
-0.51434	-0.10391
-0.97337	-0.02739
-0.46334	0.66132
0.22521	-0.05289
0.14870	-0.15492
0.35272	0.35523
0.04670	1.91120
0.30171	-0.89465
0.27621	-1.65988
0.40372	-0.84363
0.58223	0.78886
0.35272	2.03874
-0.48884	0.68683
-0.46334	-0.61406
0.42922	0.76336
0.65874	1.60511
0.55673	0.55929
0.14870	-2.19554
-0.33583	-0.25695
-0.31033	0.66132
-0.38683	0.86539
-0.43783	-0.20594
-0.25932	-0.89465
0.27621	0.02363
0.40372	1.55410
0.50573	-0.43551
0.53123	-2.85874
1.21977	0.02363
0.93925	0.15117
0.63323	1.68163
0.14870	2.26831
-0.31033	1.12046
-0.46334	-0.25695
-0.97337	0.07465
-0.00431	-0.02739
0.12320	-0.15492
-0.08081	0.02363
0.19971	0.02363
0.53123	0.10015
0.30171	0.22769
-0.25932	-1.30277
-0.46334	0.91640
-0.05531	0.61031
0.42922	-0.41000
0.73524	-1.48133
1.27078	-0.89465
1.11776	1.29902
0.40372	1.37554
-0.48884	1.47757
-0.59084	1.27351
-0.89686	-0.41000
-0.82036	-0.33348
-0.66735	-0.20594
0.17421	0.12566
0.53123	0.07465
1.27078	-0.69059
0.83725	-0.66508
0.83725	1.29902
0.50573	-0.58856
-0.15732	-0.66508
-0.36133	0.71234
-0.31033	0.25320
-0.23382	0.15117
-0.13181	-0.00188
-0.13181	0.35523
0.19971	0.61031
0.53123	0.02363
0.40372	0.68683
0.07220	-0.28246
0.04670	0.15117
0.07220	-0.74160
0.14870	-0.74160
0.22521	0.38074
0.32721	0.38074
0.14870	1.01843
0.09770	1.14597
0.19971	-0.94566
0.17421	0.15117
-0.38683	0.99292
-0.51434	-1.07320
-0.53984	-1.48133
0.70974	0.12566
0.70974	3.74776
0.14870	-1.02219
0.37822	-2.27207
0.93925	0.20219
1.01576	0.25320
0.02119	1.19699
-0.82036	0.71234
-0.97337	1.27351
-0.38683	0.91640
-0.00431	-0.97117
0.53123	0.15117
0.27621	-0.15492
0.48022	-0.18043
0.32721	0.76336
0.53123	-0.46102
0.19971	-0.79262
-0.10631	0.43176
-0.13181	0.45726
0.09770	0.25320
0.32721	0.12566
0.35272	-0.48652
0.09770	0.02363
0.42922	0.94191
0.45472	2.19179
0.22521	-1.86394
-0.28482	-2.60367
-0.31033	0.40625
0.09770	0.58480
0.04670	1.32453
-0.08081	1.96222
0.12320	2.44687
0.40372	-0.71609
