0.27621	0.38074
0.17421	-0.02739
0.25071	-0.20594
0.12320	0.10015
-0.08081	0.15117
-0.00431	0.02363
0.02119	-0.00188
0.12320	-0.33348
0.09770	0.27871
0.37822	0.63582
0.25071	-0.38449
0.19971	0.73785
0.19971	0.30422
0.07220	-0.33348
0.09770	-0.25695
0.02119	0.61031
0.12320	0.40625
0.12320	-0.71609
0.19971	0.76336
0.27621	-0.05289
0.19971	0.07465
0.19971	0.15117
0.12320	0.10015
0.07220	-0.41000
0.12320	1.12046
-0.00431	0.07465
0.14870	-0.28246
-0.00431	0.02363
0.19971	0.15117
0.22521	0.22769
0.25071	0.32972
0.14870	0.20219
0.14870	0.15117
0.09770	0.15117
0.04670	0.30422
0.09770	0.02363
0.12320	0.07465
0.02119	-0.18043
0.27621	-0.18043
0.32721	0.25320
0.30171	0.43176
0.14870	0.35523
0.02119	0.15117
0.07220	0.25320
0.04670	0.15117
0.04670	-0.25695
0.12320	-0.15492
-0.00431	0.30422
0.19971	0.20219
0.32721	0.32972
0.30171	0.81437
0.30171	0.15117
0.14870	-0.43551
-0.02981	-0.07840
0.04670	-0.02739
-0.20832	0.53379
0.19971	0.10015
0.09770	-0.51203
0.30171	0.15117
0.14870	0.02363
0.19971	0.53379
-0.02981	1.80917
-0.00431	-0.15492
0.02119	-1.78742
0.27621	-0.00188
0.19971	0.07465
0.07220	0.86539
-0.00431	0.45726
0.19971	0.53379
0.32721	0.35523
0.30171	0.12566
0.27621	0.12566
0.35272	0.48277
0.22521	0.40625
-0.18282	-0.81812
-0.02981	-1.50683
-0.02981	0.32972
0.04670	0.63582
0.04670	-0.05289
0.22521	-0.74160
0.14870	0.83988
0.19971	1.40105
0.30171	-0.12942
0.12320	-0.28246
0.22521	-0.41000
0.22521	0.53379
0.07220	0.55929
0.12320	0.20219
-0.02981	0.25320
0.09770	0.89089
0.35272	-0.15492
0.40372	0.61031
0.09770	-0.07840
-0.28482	-1.09871
-0.20832	0.71234
0.07220	0.27871
-0.02981	-0.53754
0.02119	-0.43551
0.53123	0.66132
1.01576	0.32972
0.14870	0.50828
0.19971	0.02363
-0.28482	-0.51203
-0.33583	1.40105
-0.15732	0.50828
0.22521	0.04914
0.27621	-0.05289
0.25071	0.30422
0.37822	0.07465
0.32721	-0.12942
0.42922	0.94191
0.17421	-0.28246
0.27621	-0.35899
0.02119	1.96222
-0.08081	1.70714
-0.08081	-0.51203
-0.31033	-3.44542
0.53123	-1.30277
0.02119	-0.71609
0.32721	0.27871
0.25071	2.19179
0.19971	4.30893
0.07220	-1.78742
-0.00431	-4.08312
0.40372	0.40625
0.07220	1.42656
0.02119	2.19179
-0.10631	1.73265
-0.15732	-1.22625
-0.08081	-0.71609
0.32721	0.32972
0.58223	0.30422
0.55673	0.99292
0.30171	-1.58336
-0.08081	0.35523
-0.10631	-1.68539
-0.00431	-1.30277
0.04670	1.12046
0.27621	1.42656
-0.38683	1.60511
-0.23382	1.96222
0.63323	0.12566
0.73524	-2.01699
0.27621	0.12566
0.35272	3.23761
-0.25932	-2.65468
0.17421	-4.51675
0.14870	0.71234
0.30171	1.55410
0.37822	1.06945
-0.31033	-0.18043
-0.20832	1.65613
-0.05531	-0.25695
-0.08081	-0.05289
-0.05531	0.04914
0.12320	-0.15492
0.22521	1.96222
0.14870	1.24800
0.42922	0.81437
0.35272	-1.07320
0.12320	-3.26687
0.27621	-1.60887
0.37822	0.91640
-0.10631	0.27871
-0.05531	2.67644
-0.23382	2.29382
0.02119	-1.58336
0.25071	-1.04770
0.02119	-0.92016
0.07220	-0.12942
0.27621	0.83988
0.22521	-1.27726
0.45472	1.32453
0.78624	0.15117
0.70974	1.04394
0.25071	0.25320
-0.99887	1.52859
-0.61635	-0.51203
-0.08081	0.61031
0.09770	-0.05289
-0.13181	-0.61406
0.48022	-2.19554
0.65874	-1.35379
0.63323	0.91640
-0.33583	2.95702
-0.18282	1.35003
-0.00431	1.45206
0.30171	0.15117
0.83725	-1.14973
-0.05531	-1.65988
-0.53984	0.35523
0.12320	-0.18043
0.12320	0.32972
0.09770	1.32453
-0.08081	-0.43551
0.70974	0.40625
0.83725	0.55929
0.70974	-0.00188
-0.48884	0.40625
0.09770	0.58480
-0.71835	-3.24136
-0.18282	1.06945
0.04670	-0.18043
0.22521	-0.28246
0.50573	0.58480
0.42922	2.19179
0.45472	0.32972
0.12320	0.17668
-0.13181	-0.05289
-0.31033	1.22250
0.09770	-0.20594
0.27621	-2.01699
0.04670	-0.23145
-0.00431	0.99292
-0.08081	0.48277
0.17421	0.58480
0.55673	1.42656
0.48022	0.10015
0.76074	-3.87905
0.70974	-0.89465
0.27621	-0.10391
-0.36133	0.63582
-0.05531	3.31413
-0.69285	0.04914
-0.48884	-2.11902
-0.20832	1.14597
0.04670	-0.05289
0.53123	-0.15492
0.40372	0.32972
0.12320	1.42656
0.09770	0.15117
0.17421	0.83988
0.42922	1.32453
0.91375	-0.35899
0.45472	-2.80773
0.55673	0.50828
-0.02981	-0.69059
-0.41233	1.06945
-0.18282	1.01843
-0.28482	0.04914
-0.97337	0.07465
-0.31033	2.54890
0.09770	0.55929
1.16877	0.58480
0.86275	-0.79262
0.12320	-2.83324
0.30171	-0.46102
0.02119	1.98773
-0.08081	0.66132
0.02119	1.09496
-0.00431	0.91640
-0.20832	-1.48133
0.19971	0.78886
0.37822	0.07465
-0.05531	-0.41000
0.42922	0.15117
0.48022	0.81437
-0.08081	1.04394
0.12320	0.17668
0.42922	1.29902
0.42922	-1.22625
-0.15732	-1.68539
-0.51434	-1.17523
-0.48884	3.00804
0.35272	-2.70570
0.12320	-1.58336
0.42922	0.22769
0.12320	-1.60887
-0.00431	1.91120
0.25071	3.05905
0.60773	0.53379
1.27078	0.20219
-0.02981	1.01843
-0.31033	-1.76191
-0.51434	-0.12942
0.22521	0.58480
0.25071	0.78886
0.73524	-0.38449
-0.69285	-0.97117
0.07220	-0.02739
0.02119	0.22769
0.04670	2.82948
-0.05531	-0.81812
0.22521	-9.13365
0.09770	-0.28246
-0.43783	1.47757
0.37822	3.16108
0.19971	2.21730
0.86275	0.81437
0.60773	1.68163
-0.33583	-0.15492
0.63323	-1.30277
0.32721	0.35523
-0.43783	0.94191
-0.08081	0.17668
0.35272	-1.17523
0.73524	-1.60887
0.19971	0.38074
-0.15732	1.24800
0.17421	0.17668
-0.18282	-0.92016
-0.28482	1.63062
-0.18282	-0.76711
0.17421	-0.94566
0.09770	1.27351
0.70974	-1.63437
0.09770	-1.04770
0.60773	-0.35899
-0.05531	2.93151
-0.33583	1.91120
-0.41233	-1.86394
0.40372	0.66132
0.78624	0.40625
1.06676	0.76336
1.01576	1.50308
-0.10631	-0.10391
-1.12638	-0.25695
-1.20288	-0.12942
-0.43783	-2.09351
0.93925	-0.41000
1.24527	0.32972
0.60773	0.73785
0.02119	1.52859
-0.43783	0.78886
-0.82036	-2.27207
-0.41233	2.19179
1.11776	-2.22105
1.32178	-2.88425
1.11776	0.38074
0.14870	1.57960
-0.00431	2.52339
-0.41233	1.45206
-0.66735	1.22250
-0.33583	-3.41992
-0.13181	-0.51203
0.02119	0.32972
0.53123	0.63582
0.14870	1.06945
0.42922	0.38074
0.32721	1.01843
0.14870	-0.74160
0.07220	-0.10391
-0.10631	0.02363
0.07220	0.89089
0.09770	0.63582
0.19971	4.20690
0.12320	-4.97589
0.17421	-7.19506
1.27078	0.81437
0.45472	0.99292
0.02119	2.82948
-0.43783	1.22250
-0.36133	1.01843
-0.38683	1.68163
0.09770	0.20219
0.60773	0.45726
0.68424	-0.71609
-0.18282	-0.05289
-0.23382	0.02363
-0.10631	-0.92016
-0.15732	0.55929
-0.20832	0.17668
-0.00431	-0.63957
0.70974	0.45726
0.48022	0.58480
1.11776	-0.23145
0.02119	-0.74160
0.02119	1.24800
0.09770	0.25320
-0.33583	0.78886
-0.33583	-0.79262
-0.41233	-1.30277
1.09226	-0.02739
0.19971	0.91640
0.14870	-0.23145
0.19971	2.26831
-0.08081	-0.35899
-0.53984	0.30422
-0.13181	0.12566
0.07220	-0.28246
0.32721	1.14597
0.14870	-0.00188
0.78624	-0.05289
0.45472	0.07465
0.63323	0.02363
-0.20832	-0.30797
-0.05531	-0.33348
-0.00431	1.12046
0.09770	-1.50683
-0.05531	-0.86914
-0.28482	1.14597
0.09770	0.22769
0.60773	-0.35899
0.50573	1.17148
0.60773	1.29902
0.22521	1.17148
-0.36133	0.61031
-0.15732	1.83468
-0.08081	-2.70570
-0.10631	-1.45582
0.19971	-0.12942
0.40372	0.30422
0.27621	1.37554
-0.08081	-0.86914
0.32721	-0.63957
1.16877	1.22250
0.78624	2.37034
-0.38683	-1.27726
0.02119	-1.76191
-0.41233	1.01843
-0.41233	0.94191
-0.51434	0.27871
0.12320	2.57441
0.12320	1.29902
0.73524	-3.57296
0.91375	-3.80253
0.60773	1.65613
0.07220	1.37554
-0.13181	-0.43551
0.07220	0.73785
-0.10631	2.19179
0.12320	1.50308
0.37822	-2.65468
0.58223	0.04914
0.48022	1.14597
0.02119	0.53379
-0.89686	-0.35899
-0.64185	0.99292
-0.53984	0.63582
-0.13181	-0.10391
0.19971	-2.80773
0.73524	-0.61406
1.01576	1.32453
0.88825	1.37554
0.48022	1.52859
0.17421	1.37554
0.12320	-0.41000
-0.00431	2.21730
0.45472	-5.40952
0.60773	-2.09351
0.12320	1.78367
-0.89686	1.68163
-0.87136	2.06425
-1.27939	1.32453
-0.82036	1.12046
0.68424	0.78886
1.47479	-1.81293
1.14327	0.50828
0.60773	-1.55785
0.63323	0.10015
0.53123	1.37554
-0.00431	-0.15492
-0.59084	-0.69059
-0.69285	0.96742
-0.41233	1.47757
0.30171	-2.50164
0.07220	-0.05289
-0.05531	-1.04770
-0.13181	0.58480
0.88825	1.88570
1.01576	4.79358
1.37278	-1.14973
-0.31033	-3.47093
-0.10631	-1.73640
-0.38683	4.51299
-0.13181	-0.81812
-0.87136	-2.80773
0.12320	1.19699
0.53123	0.99292
1.14327	1.01843
0.17421	2.19179
-0.08081	0.07465
-0.15732	-0.15492
-0.31033	0.04914
-0.51434	1.42656
-0.05531	-3.29238
1.04126	-2.09351
1.19427	-0.69059
0.50573	0.25320
-0.18282	0.76336
-0.02981	1.60511
0.17421	2.29382
0.04670	0.76336
-0.13181	-1.20074
-0.23382	-1.76191
0.02119	-0.97117
0.40372	0.91640
0.09770	1.78367
0.30171	0.58480
0.27621	-0.10391
0.07220	0.55929
0.02119	0.22769
0.32721	0.76336
0.35272	0.35523
0.76074	0.12566
0.42922	0.99292
-0.31033	-2.22105
-1.04987	-0.89465
-0.71835	0.61031
-0.41233	-0.20594
0.37822	1.68163
0.17421	0.76336
0.55673	-0.00188
0.12320	-0.99668
1.19427	-0.71609
1.39828	-0.33348
1.55129	2.80397
-0.31033	-1.73640
-0.43783	-1.07320
-0.18282	1.93671
-0.69285	0.50828
-0.92237	0.61031
-0.53984	1.17148
0.09770	-0.38449
0.73524	1.98773
0.91375	-2.62918
0.07220	-1.12422
0.14870	0.38074
0.27621	0.86539
0.48022	-0.02739
-0.41233	0.61031
-0.28482	1.12046
0.02119	-0.58856
0.83725	0.02363
0.65874	-0.48652
0.45472	-0.00188
-0.13181	0.10015
-0.64185	1.01843
-0.87136	0.53379
-0.82036	-0.28246
0.12320	0.25320
0.37822	0.96742
0.99026	-0.71609
0.65874	-0.02739
1.01576	-0.10391
1.27078	2.90601
0.60773	-0.43551
-0.08081	-4.87386
-0.56534	1.29902
-0.69285	1.68163
-0.74385	1.65613
-0.56534	0.43176
0.07220	-0.28246
0.42922	-1.58336
0.32721	1.06945
0.02119	0.86539
0.14870	0.89089
0.55673	-0.18043
0.22521	-1.83844
0.60773	-0.15492
0.22521	0.50828
0.55673	1.96222
0.50573	0.73785
-0.08081	-1.30277
-0.00431	0.15117
-0.20832	-0.20594
-0.05531	0.43176
-0.48884	0.71234
-0.46334	-0.56305
0.07220	1.60511
-0.02981	0.50828
-0.15732	-2.78222
0.25071	1.98773
0.70974	-0.05289
0.42922	2.29382
1.29628	-3.03730
0.99026	-1.68539
0.55673	0.81437
-0.13181	1.19699
0.02119	1.57960
-0.28482	1.37554
-0.94787	1.06945
-0.74385	1.80917
-0.48884	-1.76191
0.32721	-1.53234
0.83725	1.12046
0.17421	-0.76711
0.65874	-1.65988
0.19971	0.61031
0.17421	-0.00188
-0.33583	0.66132
-0.48884	0.63582
-0.08081	1.45206
0.09770	-0.10391
0.86275	-1.17523
0.83725	-1.88945
0.60773	-0.28246
0.27621	1.96222
-0.08081	-0.71609
-0.02981	1.78367
-0.02981	0.55929
-0.23382	1.65613
0.07220	0.45726
0.30171	0.71234
0.53123	-0.41000
0.12320	-1.81293
-0.41233	-0.69059
-0.20832	0.04914
0.07220	0.45726
-0.15732	-0.05289
0.35272	0.58480
0.70974	-0.20594
0.60773	1.17148
0.53123	-0.71609
-0.38683	-2.32308
-0.71835	0.50828
-1.07538	0.61031
-0.46334	0.61031
0.22521	1.73265
0.17421	-0.46102
0.42922	-0.84363
0.22521	-0.05289
0.48022	1.37554
0.70974	1.60511
1.34728	-0.76711
1.01576	-1.07320
1.01576	2.21730
-0.41233	0.04914
-0.71835	0.48277
-0.43783	-1.88945
-0.38683	-2.90976
-0.28482	1.57960
0.40372	0.40625
0.27621	1.01843
0.14870	0.20219
-0.18282	0.38074
-0.05531	-0.76711
0.17421	1.83468
0.30171	-0.86914
0.04670	2.24281
0.45472	-0.58856
0.17421	-1.35379
0.93925	-0.23145
0.53123	-0.38449
0.04670	0.81437
-0.46334	0.43176
-0.87136	0.53379
-0.48884	0.38074
-0.48884	0.40625
-0.05531	1.52859
0.68424	0.58480
0.73524	-3.90456
1.34728	-0.25695
0.73524	-0.63957
0.78624	0.68683
-0.13181	1.73265
-0.02981	0.50828
-0.43783	-0.76711
-0.10631	1.60511
-0.15732	-1.37929
0.27621	0.27871
0.19971	0.45726
0.27621	0.53379
0.02119	0.32972
0.19971	-0.56305
-0.33583	0.30422
-0.20832	0.38074
-0.08081	-0.58856
0.53123	-1.20074
0.50573	-1.32828
0.81175	1.93671
0.32721	1.17148
-0.28482	-0.07840
-0.94787	0.20219
0.37822	0.94191
0.53123	1.80917
0.45472	0.66132
0.22521	-0.48652
-0.05531	-1.12422
0.65874	-0.48652
-0.13181	-0.05289
-0.33583	0.04914
-0.31033	1.65613
-0.69285	-0.28246
0.07220	-1.78742
0.99026	0.43176
0.70974	0.53379
0.42922	-0.66508
1.39828	-0.28246
0.27621	0.81437
-0.38683	1.35003
-1.15188	0.78886
-0.69285	1.19699
-0.23382	0.22769
-0.02981	0.10015
0.07220	0.22769
-0.02981	-0.15492
0.27621	-1.76191
0.14870	-0.74160
1.29628	0.71234
1.01576	0.86539
1.24527	0.68683
0.70974	0.66132
-0.08081	0.50828
-0.64185	0.66132
-0.48884	2.03874
-0.71835	-1.37929
-0.71835	-4.54226
0.25071	0.35523
0.86275	1.65613
0.63323	1.37554
0.73524	0.71234
0.19971	-0.30797
-0.23382	1.57960
-0.89686	1.37554
-0.61635	1.19699
-0.25932	-0.46102
0.88825	-3.64948
0.76074	-2.47613
1.06676	0.32972
0.53123	1.47757
-0.02981	1.45206
-0.89686	0.99292
-0.18282	0.96742
0.27621	0.30422
0.63323	0.15117
-0.10631	1.52859
-0.23382	-0.33348
-0.25932	-2.45062
1.06676	-1.09871
0.25071	0.35523
0.45472	0.73785
0.17421	0.78886
0.55673	1.96222
0.25071	0.35523
0.12320	-0.35899
-0.71835	-0.69059
-1.30489	-0.48652
-1.04987	0.22769
-0.28482	0.73785
0.42922	2.11527
0.42922	0.02363
1.24527	-3.57296
1.11776	1.47757
0.83725	0.61031
-0.05531	0.45726
-0.08081	0.50828
0.14870	1.52859
0.17421	0.20219
0.17421	-0.71609
-0.02981	0.68683
-0.25932	0.94191
-0.18282	-0.05289
0.07220	-0.18043
0.53123	1.01843
0.83725	-2.52714
0.07220	-1.48133
-0.48884	0.63582
-0.43783	0.71234
-0.08081	1.60511
0.12320	1.01843
0.32721	0.71234
0.02119	-0.20594
0.09770	-1.99148
0.50573	-0.41000
0.65874	0.48277
0.53123	1.24800
-0.10631	0.45726
-0.13181	0.02363
0.17421	1.63062
0.48022	1.37554
-0.05531	-1.12422
0.27621	-1.71090
0.76074	-0.61406
0.60773	-0.71609
-0.23382	0.73785
-0.28482	0.61031
-0.82036	1.17148
-0.84586	0.32972
-0.43783	0.38074
0.48022	0.76336
0.83725	-1.63437
1.50029	-1.22625
1.57679	-0.25695
1.09226	0.17668
-0.25932	1.27351
-0.82036	0.96742
-1.12638	1.04394
-1.50890	3.77327
-0.94787	-3.62398
0.37822	-0.51203
1.27078	-1.32828
2.36734	0.71234
1.47479	0.76336
0.60773	-0.10391
-0.76936	0.76336
-1.53441	0.55929
-1.25389	0.83988
-0.38683	0.61031
-0.10631	-0.92016
0.22521	-0.41000
0.78624	-0.84363
0.93925	-0.43551
1.11776	0.45726
0.17421	1.19699
0.07220	0.99292
-0.15732	0.58480
-0.00431	-2.45062
0.42922	-1.86394
0.63323	3.03355
-0.66735	1.14597
-0.18282	-2.96078
0.37822	1.04394
0.88825	2.06425
-0.23382	1.37554
-0.18282	0.53379
-0.20832	-0.20594
-0.15732	0.48277
-0.10631	0.02363
0.14870	0.48277
-0.00431	0.89089
0.48022	-0.41000
0.14870	-1.32828
0.76074	-2.06800
1.06676	-0.00188
0.96476	0.43176
0.07220	0.38074
-0.53984	1.60511
-0.69285	1.40105
-0.56534	0.43176
-0.43783	-0.23145
-0.46334	-3.21585
0.60773	-0.66508
0.86275	0.63582
0.58223	1.57960
0.22521	2.39585
0.17421	0.81437
-0.15732	0.25320
-0.28482	-0.33348
0.25071	0.50828
0.48022	0.35523
-0.10631	-3.13933
0.32721	-1.17523
0.32721	0.78886
0.17421	1.68163
0.14870	-0.99668
0.40372	0.94191
-0.28482	0.04914
0.04670	1.40105
0.50573	-0.00188
0.25071	-1.17523
-0.20832	1.42656
-0.05531	0.81437
-0.38683	-1.76191
0.04670	-1.17523
0.76074	-0.99668
0.81175	1.45206
0.22521	2.29382
-0.15732	0.25320
0.02119	0.07465
0.60773	0.68683
0.78624	0.30422
-0.15732	0.38074
-0.38683	-0.56305
-0.18282	0.04914
-0.25932	-0.86914
-0.28482	1.40105
0.17421	-0.58856
0.14870	-1.78742
0.32721	1.50308
0.12320	0.81437
-0.02981	0.25320
0.63323	-0.86914
0.37822	0.40625
0.99026	0.66132
0.32721	0.48277
0.30171	0.83988
0.02119	1.45206
-0.31033	-0.10391
-0.74385	-1.55785
-0.02981	0.32972
0.70974	0.53379
0.40372	-0.53754
0.48022	1.93671
-0.18282	-2.01699
0.25071	-1.68539
-0.61635	-0.07840
-0.25932	1.78367
-0.18282	-0.35899
-0.08081	0.94191
0.25071	1.37554
0.55673	1.45206
0.96476	-0.12942
0.68424	0.89089
-0.00431	-0.63957
0.22521	-5.17995
0.42922	0.27871
-0.02981	2.03874
-0.59084	1.93671
0.12320	-1.88945
0.19971	0.20219
0.35272	0.83988
-0.00431	1.68163
0.04670	1.96222
-0.18282	-3.11382
0.45472	-0.71609
0.30171	-0.07840
0.19971	-0.00188
-0.31033	-0.15492
-0.18282	1.14597
-0.25932	0.94191
0.25071	1.06945
0.68424	1.63062
1.04126	-0.66508
1.24527	-1.50683
-0.05531	1.09496
-0.02981	-0.61406
-0.33583	-3.52195
-0.43783	-0.41000
-0.38683	2.01323
-0.28482	1.19699
-0.08081	0.86539
-0.00431	0.27871
0.27621	3.13558
0.68424	-0.89465
0.22521	-5.35850
0.96476	0.73785
0.45472	0.91640
-0.66735	2.16628
0.04670	1.27351
-0.61635	0.04914
-0.25932	1.40105
-0.08081	-2.14453
0.70974	-1.07320
1.83181	0.86539
0.76074	0.12566
-0.05531	-2.45062
-0.00431	-0.35899
-0.51434	1.42656
-0.69285	1.73265
-0.00431	2.37034
0.02119	1.45206
0.09770	-2.27207
0.42922	1.63062
0.50573	-3.77702
0.12320	-0.25695
0.53123	0.86539
0.07220	0.55929
0.25071	0.91640
0.09770	-0.20594
0.45472	0.71234
0.12320	0.55929
0.22521	1.12046
-0.51434	0.07465
-0.41233	-2.11902
-0.38683	-1.81293
0.09770	0.15117
0.42922	1.83468
0.63323	0.83988
0.14870	1.78367
-0.00431	-2.78222
0.22521	-2.24656
0.58223	0.86539
0.88825	1.32453
0.48022	1.88570
-0.41233	0.91640
-0.48884	0.25320
-0.13181	0.27871
-0.23382	-0.05289
-0.05531	-0.12942
0.02119	-0.23145
0.04670	-1.25176
0.76074	1.50308
0.91375	0.27871
0.30171	-1.37929
0.42922	-1.81293
0.32721	-0.58856
0.32721	0.30422
-0.48884	1.98773
-0.46334	3.59471
-0.31033	-1.71090
-0.05531	-2.17003
0.40372	0.86539
0.53123	0.35523
0.48022	0.17668
-0.00431	1.52859
-0.59084	0.35523
-0.41233	-0.12942
-0.64185	-1.81293
0.09770	1.86019
0.73524	-1.37929
1.44929	0.81437
0.76074	0.04914
0.73524	0.30422
0.14870	-0.05289
-0.20832	0.71234
-0.23382	0.22769
-0.28482	0.55929
-0.10631	1.22250
-0.13181	-1.63437
-0.28482	-1.55785
0.63323	0.20219
1.24527	1.27351
1.14327	3.64573
0.27621	-1.63437
-0.48884	-3.41992
-0.51434	1.04394
-0.66735	2.37034
-0.25932	-0.97117
0.22521	-0.23145
0.32721	2.39585
0.19971	-0.86914
0.50573	-1.12422
0.40372	0.38074
-0.20832	0.45726
-0.31033	0.81437
-0.71835	0.40625
-0.23382	1.68163
0.22521	-0.07840
0.60773	-3.31788
0.99026	0.10015
0.88825	-0.07840
1.44929	-0.41000
0.70974	0.76336
0.02119	1.04394
-0.43783	0.38074
-0.74385	-0.15492
-0.56534	1.19699
-0.51434	1.88570
-0.82036	-1.63437
-0.10631	-0.00188
0.35272	-5.07792
1.65330	-1.07320
1.21977	2.08976
0.53123	1.47757
-0.28482	1.75816
-0.74385	1.35003
-0.38683	1.19699
0.09770	0.20219
0.55673	2.37034
0.17421	0.99292
-0.08081	-4.26167
0.45472	-3.31788
0.30171	-1.60887
0.07220	0.32972
-0.08081	1.68163
0.19971	1.50308
0.32721	1.32453
0.40372	1.45206
0.42922	0.15117
0.88825	0.94191
-0.08081	0.43176
-0.84586	-0.94566
-0.84586	-1.25176
-0.61635	-0.79262
-0.23382	-0.25695
0.65874	0.99292
0.76074	-0.35899
0.37822	0.91640
0.42922	1.01843
0.30171	0.25320
0.42922	0.25320
0.73524	1.98773
0.32721	-2.90976
0.14870	-1.71090
-0.23382	1.17148
-0.05531	0.96742
-0.41233	2.19179
-0.25932	1.80917
0.32721	0.48277
0.22521	-0.41000
0.48022	0.83988
0.73524	-1.27726
1.09226	-1.53234
0.40372	0.63582
-0.71835	-1.04770
-0.13181	-0.74160
-0.82036	0.94191
-0.87136	0.35523
-0.33583	0.32972
0.25071	0.94191
0.32721	-0.15492
0.73524	-0.53754
0.83725	0.81437
1.19427	1.52859
0.60773	-0.10391
0.27621	-3.34339
0.58223	-1.40480
-0.18282	1.57960
-0.51434	2.42136
-0.23382	1.68163
-0.84586	-0.56305
-0.13181	-0.66508
-0.02981	0.61031
0.35272	0.48277
0.50573	0.63582
0.70974	0.48277
0.50573	-2.60367
-0.36133	0.22769
-0.71835	0.81437
0.53123	0.04914
0.40372	0.58480
1.75531	0.73785
1.16877	-0.63957
0.22521	0.48277
0.09770	-0.74160
-0.87136	-1.76191
-0.66735	1.01843
-0.53984	1.32453
-0.64185	0.10015
-0.82036	0.02363
0.22521	0.73785
0.99026	-1.81293
1.83181	-0.20594
0.53123	1.27351
-0.46334	0.71234
-0.61635	2.31933
-0.23382	1.52859
0.09770	-1.37929
0.19971	-2.73121
0.93925	0.71234
1.57679	1.47757
1.44929	-0.92016
-0.10631	-0.58856
-0.64185	0.15117
-0.89686	0.15117
-0.79486	0.35523
-0.59084	0.58480
-0.15732	-0.07840
0.17421	-0.20594
0.50573	0.40625
0.60773	1.78367
0.70974	-0.56305
0.48022	-2.14453
0.81175	0.66132
0.45472	0.25320
0.50573	1.12046
-0.43783	-0.92016
-0.84586	-0.30797
-0.53984	0.78886
-0.18282	2.39585
0.93925	0.48277
0.86275	-0.99668
0.40372	-2.93527
-0.25932	-0.58856
-0.33583	1.91120
0.07220	1.27351
-0.33583	0.96742
-0.41233	0.22769
-0.13181	2.88050
0.55673	1.09496
1.04126	-4.33819
0.86275	-2.09351
0.65874	0.27871
0.02119	0.32972
-0.38683	1.35003
-0.23382	0.30422
-0.28482	1.24800
0.14870	0.17668
0.42922	-0.48652
0.58223	0.22769
0.53123	-0.48652
-0.02981	0.50828
0.14870	0.32972
0.27621	0.20219
-0.08081	1.22250
-0.20832	-0.28246
-0.41233	0.04914
0.17421	-0.53754
0.02119	0.10015
0.58223	-1.53234
0.19971	-0.53754
0.99026	1.37554
-0.10631	1.27351
-0.59084	0.35523
-0.18282	1.04394
-0.15732	1.57960
0.19971	2.39585
0.42922	-1.25176
0.65874	-2.06800
0.22521	-0.61406
0.58223	-0.05289
0.42922	-0.53754
0.12320	-0.05289
-0.69285	0.63582
-0.53984	0.96742
-0.20832	0.53379
0.45472	0.30422
0.42922	1.86019
0.35272	-0.53754
0.76074	0.04914
0.42922	0.55929
0.22521	-2.22105
-0.05531	-0.71609
0.32721	0.78886
-0.23382	1.45206
-0.20832	0.55929
-0.10631	-0.38449
0.17421	1.04394
0.07220	-2.62918
0.09770	1.09496
0.02119	0.17668
-0.20832	-0.10391
0.12320	1.14597
0.09770	-0.15492
0.73524	0.76336
0.50573	0.68683
0.12320	1.04394
-0.38683	0.81437
-0.53984	-0.20594
-0.25932	-0.30797
0.76074	-0.15492
0.78624	-1.50683
1.39828	1.09496
0.22521	-0.38449
-0.08081	0.15117
-0.46334	0.89089
-0.64185	0.66132
-0.00431	-1.40480
0.30171	-1.40480
0.25071	1.01843
0.60773	0.96742
0.53123	1.19699
0.35272	1.19699
-0.20832	-0.71609
-0.43783	-0.41000
0.07220	-0.23145
0.14870	0.04914
0.04670	0.99292
0.07220	-0.20594
0.07220	-0.58856
0.22521	0.50828
0.17421	-0.05289
-0.00431	-1.91496
0.70974	1.19699
0.40372	1.09496
0.40372	0.71234
0.32721	0.50828
0.37822	-0.18043
-0.08081	-1.48133
-0.05531	1.78367
0.02119	0.27871
-0.38683	-0.41000
-0.15732	0.81437
0.12320	-0.35899
0.30171	-0.10391
0.53123	0.12566
0.02119	0.55929
-0.20832	0.73785
0.32721	-0.71609
0.50573	-0.43551
0.50573	-0.35899
0.60773	0.38074
-0.43783	-0.25695
-0.10631	0.91640
0.22521	2.19179
-0.28482	-0.46102
-0.38683	-0.76711
0.12320	0.55929
0.50573	1.12046
1.42379	-1.04770
0.30171	-0.07840
-0.46334	0.35523
-0.66735	0.48277
-0.00431	0.35523
0.22521	0.68683
-0.02981	-0.23145
0.63323	-1.12422
0.40372	0.35523
0.27621	0.55929
-0.08081	0.96742
0.25071	-0.81812
0.42922	-0.89465
0.04670	0.35523
-0.00431	0.94191
0.02119	0.27871
0.22521	0.15117
0.17421	1.98773
0.32721	-0.10391
0.40372	-0.58856
0.55673	-1.81293
1.01576	-0.81812
0.02119	1.40105
-0.82036	1.01843
-1.04987	-0.20594
-0.92237	2.21730
-0.10631	1.63062
0.14870	-1.99148
0.50573	-3.21585
0.12320	-1.27726
0.60773	0.96742
0.55673	2.75296
0.55673	1.88570
0.42922	-0.58856
1.14327	-0.79262
0.12320	0.35523
0.19971	0.32972
0.07220	0.83988
-0.31033	-0.25695
-0.61635	-1.27726
-0.02981	1.06945
-0.02981	0.55929
-0.10631	-0.05289
-0.10631	0.07465
-0.02981	-2.14453
0.48022	-0.10391
0.53123	0.81437
0.91375	0.83988
0.37822	1.06945
0.14870	0.76336
-0.43783	1.09496
-0.33583	-0.05289
-0.10631	-0.79262
0.40372	0.83988
0.83725	0.99292
-0.05531	-1.22625
0.09770	-1.99148
-0.15732	0.17668
0.17421	0.32972
0.02119	1.93671
0.30171	0.78886
-0.10631	0.17668
0.37822	-1.35379
0.88825	0.48277
0.73524	1.14597
-0.23382	-0.74160
-0.31033	-0.41000
-0.46334	0.25320
-0.08081	0.66132
0.14870	0.55929
-0.00431	-0.74160
0.25071	0.48277
0.45472	0.50828
0.63323	-0.71609
0.65874	2.59991
0.30171	-0.33348
-0.53984	-3.13933
-0.31033	-0.51203
-0.31033	0.35523
-0.02981	0.45726
0.45472	0.63582
0.58223	0.78886
0.19971	-0.00188
0.58223	1.32453
-0.33583	1.29902
-0.53984	2.03874
-0.10631	-3.11382
0.68424	-1.55785
0.45472	0.27871
-0.61635	0.55929
0.17421	0.73785
0.73524	0.63582
0.60773	0.53379
0.17421	0.89089
0.12320	-0.99668
-0.18282	-0.86914
0.40372	1.14597
0.17421	1.32453
0.50573	-1.04770
-0.13181	-2.19554
0.12320	0.02363
-0.13181	-0.30797
-0.23382	0.61031
-0.02981	1.19699
0.17421	0.94191
0.40372	0.27871
0.09770	1.29902
-0.33583	0.30422
-0.08081	0.27871
0.45472	1.17148
0.55673	0.73785
0.53123	-3.24136
-0.00431	0.55929
0.25071	-0.07840
-0.02981	0.12566
-0.15732	0.68683
-0.20832	0.58480
0.81175	0.89089
0.22521	-1.22625
0.48022	-0.30797
0.09770	0.35523
-0.23382	0.25320
-0.38683	1.24800
-0.23382	-0.12942
-0.08081	-1.81293
0.30171	0.66132
0.73524	1.22250
-0.23382	1.75816
0.30171	-3.01179
0.96476	-0.63957
1.19427	0.17668
0.73524	1.35003
-0.43783	1.17148
-0.74385	1.22250
-0.48884	1.06945
-0.46334	0.94191
-0.13181	0.76336
0.12320	-2.83324
0.02119	-4.05761
0.22521	-1.09871
0.70974	1.78367
0.68424	1.60511
0.40372	1.65613
0.02119	0.66132
0.02119	1.52859
0.04670	1.45206
0.04670	-1.81293
0.12320	-1.68539
-0.51434	-0.89465
0.58223	0.02363
0.73524	1.12046
0.99026	0.30422
0.63323	1.93671
-0.23382	-1.94047
0.02119	0.96742
-0.64185	-0.25695
-0.38683	-0.02739
-0.56534	0.38074
-0.56534	1.96222
0.22521	-1.86394
0.91375	-0.84363
0.55673	0.83988
0.25071	1.40105
0.40372	0.96742
0.19971	0.73785
-0.43783	0.10015
-0.59084	0.58480
-0.20832	1.06945
0.60773	-1.53234
1.09226	-1.65988
1.21977	0.20219
0.53123	0.58480
0.12320	-0.00188
-0.25932	0.35523
-0.38683	1.65613
-0.41233	-0.56305
-0.20832	-0.66508
0.37822	-0.23145
-0.08081	-0.86914
0.19971	0.96742
0.07220	0.91640
0.32721	1.29902
0.68424	0.86539
0.53123	0.15117
0.30171	-1.83844
-0.18282	0.50828
-0.13181	0.55929
-0.20832	2.08976
-0.15732	0.04914
0.32721	-2.45062
0.32721	-1.88945
0.27621	1.12046
0.48022	1.42656
0.02119	1.24800
0.14870	1.37554
0.02119	1.17148
0.25071	-0.23145
0.02119	-1.83844
0.45472	0.20219
0.42922	0.63582
-0.13181	0.61031
-0.13181	-2.17003
-0.13181	-1.83844
-0.18282	0.96742
-0.31033	0.76336
-0.08081	1.14597
0.78624	-0.20594
0.63323	0.76336
0.12320	0.45726
-0.00431	0.50828
0.25071	-0.10391
0.17421	0.48277
0.42922	0.25320
0.04670	0.04914
-0.20832	0.55929
-0.18282	-0.15492
0.02119	-0.48652
0.42922	-0.23145
0.42922	0.32972
0.68424	-0.69059
0.68424	-0.43551
0.17421	0.63582
0.07220	2.72745
-0.71835	0.68683
-0.56534	-3.93007
0.25071	0.73785
0.70974	1.29902
0.86275	-0.15492
-0.10631	-0.25695
-0.51434	1.27351
-0.48884	1.29902
-0.18282	-0.46102
-0.05531	0.25320
0.09770	-0.07840
0.22521	-0.00188
0.73524	0.38074
0.42922	-0.71609
0.68424	-0.53754
0.60773	0.63582
0.60773	2.49788
0.45472	-1.07320
0.02119	-1.58336
-0.00431	-1.37929
0.04670	-0.66508
-0.08081	0.63582
-0.53984	2.06425
-0.13181	2.29382
-0.13181	0.02363
-0.08081	0.94191
-0.00431	-0.92016
0.17421	-0.07840
0.63323	0.40625
0.53123	1.78367
0.65874	-0.74160
0.68424	-1.04770
0.58223	0.12566
-0.51434	0.07465
-0.31033	1.14597
-0.51434	-0.25695
-0.10631	-1.43031
-0.08081	-0.43551
-0.02981	0.07465
0.07220	0.53379
-0.33583	0.73785
0.12320	0.55929
0.55673	0.78886
1.27078	1.06945
0.65874	-0.97117
0.09770	-1.17523
-0.02981	1.04394
-0.20832	-0.53754
0.04670	-1.07320
0.58223	1.24800
0.73524	1.47757
-0.15732	-0.23145
-0.20832	0.38074
-0.61635	-0.05289
-0.23382	0.27871
0.27621	0.35523
0.68424	0.43176
0.30171	0.15117
0.04670	0.53379
0.04670	-2.27207
-0.05531	-0.05289
0.45472	0.55929
0.63323	0.94191
0.22521	1.24800
0.02119	-1.17523
-0.15732	-1.20074
-0.28482	-0.05289
-0.31033	-0.20594
0.42922	0.76336
0.14870	-0.18043
0.30171	2.19179
0.02119	-0.28246
0.30171	-0.35899
0.12320	0.32972
-0.05531	0.66132
-0.05531	0.81437
0.02119	-0.18043
0.60773	-0.25695
0.81175	0.04914
0.19971	0.22769
0.07220	0.10015
-0.05531	-0.00188
0.19971	0.38074
0.14870	-0.05289
-0.00431	-0.56305
0.14870	0.12566
-0.13181	0.04914
0.25071	0.25320
0.22521	0.43176
0.14870	0.27871
0.12320	-0.25695
0.07220	-0.02739
-0.05531	0.50828
0.27621	0.48277
-0.05531	0.07465
0.42922	1.86019
0.35272	0.12566
0.42922	-2.73121
-0.15732	-0.00188
-0.15732	0.38074
-0.05531	1.01843
-0.31033	-0.79262
0.04670	1.06945
0.12320	1.47757
0.19971	-0.51203
0.32721	-0.35899
0.81175	0.38074
0.37822	0.50828
0.37822	0.50828
0.04670	1.01843
0.17421	-0.25695
0.12320	-2.90976
0.50573	0.15117
0.22521	-0.74160
-0.00431	0.27871
-0.82036	1.04394
-0.69285	0.61031
-0.23382	0.40625
0.30171	1.06945
0.68424	1.55410
0.58223	0.22769
0.14870	-2.04250
0.25071	0.71234
0.17421	0.89089
0.02119	-0.07840
0.07220	-2.24656
0.25071	-0.28246
0.58223	0.58480
0.70974	2.03874
-0.05531	-0.71609
-0.05531	0.07465
-0.20832	0.99292
-0.69285	-0.61406
-0.38683	0.17668
0.12320	-0.20594
0.55673	0.38074
0.68424	0.91640
0.78624	-0.05289
0.76074	0.27871
0.30171	0.55929
-0.10631	-0.84363
-0.33583	0.32972
-0.28482	-0.25695
0.17421	-0.71609
-0.13181	-0.05289
0.55673	0.07465
0.17421	0.61031
0.17421	0.71234
-0.43783	0.94191
-0.23382	0.02363
0.04670	1.88570
0.45472	-0.46102
0.40372	-1.43031
0.65874	-0.86914
0.17421	-0.10391
-0.13181	0.15117
0.22521	-0.61406
0.42922	0.53379
0.50573	1.65613
0.45472	1.86019
0.04670	-0.61406
0.09770	1.17148
0.12320	-2.09351
0.07220	-0.46102
-0.36133	-0.84363
-0.51434	0.20219
-0.25932	2.16628
0.58223	0.96742
0.12320	-1.55785
0.17421	-0.18043
0.30171	-0.35899
0.53123	0.50828
0.35272	1.50308
-0.31033	0.94191
-0.48884	-0.79262
0.04670	-0.71609
0.50573	1.14597
1.06676	-0.05289
0.27621	-0.30797
0.04670	0.48277
0.02119	-0.07840
0.17421	0.68683
-0.25932	0.43176
0.04670	-0.71609
0.09770	-0.25695
0.22521	0.81437
0.35272	0.66132
0.30171	-1.50683
0.14870	0.63582
0.83725	3.31413
0.30171	-4.36370
0.32721	-0.99668
0.07220	0.91640
-0.33583	1.17148
-0.84586	1.50308
-0.59084	0.76336
-0.05531	-0.58856
0.55673	0.68683
0.40372	0.55929
0.73524	-0.05289
0.30171	-0.76711
0.12320	-1.60887
0.91375	3.23761
-0.15732	0.02363
0.02119	-1.22625
0.22521	-0.92016
-0.53984	-0.33348
-0.05531	1.17148
0.22521	0.96742
1.06676	1.01843
0.22521	-0.51203
-0.46334	0.66132
-0.41233	0.55929
-0.28482	0.86539
-0.08081	-1.07320
0.04670	0.30422
0.37822	0.07465
0.68424	-0.66508
0.65874	-1.43031
0.70974	0.43176
0.27621	0.20219
0.17421	0.45726
0.07220	0.81437
-0.10631	1.80917
-0.00431	-1.27726
-0.38683	-0.74160
-0.41233	0.35523
-0.13181	0.04914
0.07220	0.02363
1.01576	0.68683
0.73524	1.09496
0.63323	1.63062
-0.13181	-2.06800
-1.10088	-0.33348
-0.46334	1.73265
0.02119	2.16628
0.42922	-2.83324
0.88825	-1.76191
0.30171	0.25320
0.19971	-0.02739
0.07220	0.55929
0.27621	1.27351
0.37822	1.17148
-0.05531	2.03874
-0.15732	0.17668
0.17421	-2.09351
0.32721	-0.92016
0.68424	-1.02219
0.60773	1.06945
0.02119	0.81437
-0.05531	0.40625
-0.33583	0.66132
-0.38683	0.35523
0.07220	0.53379
-0.28482	-0.25695
-0.00431	-1.48133
0.65874	-0.15492
0.14870	0.04914
0.42922	0.68683
0.17421	0.45726
0.30171	1.06945
0.14870	0.66132
0.19971	-0.12942
0.30171	0.63582
-0.08081	-0.66508
0.19971	-0.79262
0.27621	1.06945
0.07220	-1.07320
0.14870	-0.23145
-0.10631	0.73785
-0.00431	0.35523
0.76074	1.98773
0.32721	-0.00188
0.32721	-1.30277
-0.13181	-0.74160
-0.71835	1.14597
-0.71835	-0.38449
-0.41233	0.43176
0.02119	0.48277
0.78624	0.15117
1.09226	-0.48652
1.06676	-1.17523
0.14870	0.15117
0.12320	1.14597
0.19971	1.63062
-0.48884	1.37554
-0.36133	-0.61406
-0.13181	-2.17003
0.19971	0.66132
1.29628	0.43176
1.04126	0.48277
0.70974	1.06945
-0.05531	0.58480
-0.25932	1.37554
-0.76936	-0.33348
-1.04987	-1.68539
-0.94787	-0.89465
-0.25932	-0.12942
0.30171	1.04394
1.06676	-1.22625
0.93925	0.15117
1.01576	0.40625
0.65874	1.68163
0.09770	2.42136
-0.31033	-2.85874
-0.59084	-1.27726
-0.46334	1.04394
0.19971	0.86539
0.42922	1.04394
0.45472	2.37034
0.45472	-0.61406
-0.00431	-2.19554
-0.20832	0.53379
0.02119	-0.56305
0.60773	0.04914
0.53123	-0.99668
1.06676	1.35003
-0.13181	0.55929
-0.15732	0.83988
-0.31033	0.86539
-0.59084	0.17668
-0.36133	0.17668
-0.25932	-0.00188
-0.08081	-0.56305
-0.10631	0.17668
0.76074	0.53379
0.42922	-1.07320
0.88825	-0.35899
0.99026	-0.41000
0.58223	0.63582
0.55673	0.94191
0.37822	-0.02739
0.14870	-0.05289
-1.55991	0.89089
-1.25389	-0.05289
-0.28482	-0.28246
0.63323	0.71234
0.68424	0.58480
0.04670	-0.23145
0.14870	-0.48652
0.30171	2.08976
0.40372	-0.97117
0.09770	-0.66508
0.30171	1.01843
0.04670	-1.37929
-0.23382	-2.09351
0.30171	0.96742
0.58223	1.78367
0.96476	1.70714
0.78624	1.40105
0.07220	0.50828
-0.64185	-0.10391
-0.43783	0.22769
0.12320	1.47757
-0.10631	-1.99148
0.12320	-2.65468
0.22521	-0.38449
0.14870	0.58480
-0.00431	0.50828
0.19971	1.17148
0.50573	0.66132
0.70974	0.22769
-0.05531	-0.05289
-0.02981	-0.71609
-0.08081	0.55929
0.25071	-0.10391
-0.31033	0.99292
-0.08081	0.35523
-0.33583	-1.88945
0.17421	0.58480
0.19971	0.71234
0.73524	2.26831
0.86275	-0.84363
0.70974	-1.58336
0.37822	0.76336
-0.15732	1.32453
-0.18282	-0.25695
-0.18282	-0.48652
-0.36133	0.53379
-0.28482	-0.00188
0.32721	0.53379
0.27621	1.86019
0.40372	-1.50683
0.48022	-0.76711
0.17421	0.71234
-0.13181	0.30422
-0.38683	1.22250
-0.20832	-1.02219
-0.23382	-1.83844
-0.02981	0.71234
0.48022	0.83988
0.73524	0.78886
1.34728	-0.53754
0.65874	0.99292
0.12320	0.86539
-0.38683	0.38074
-0.82036	-1.78742
-0.53984	-0.00188
0.09770	-0.00188
0.63323	0.66132
0.42922	0.53379
0.96476	0.81437
0.12320	0.32972
0.19971	1.52859
-0.28482	-1.20074
-0.61635	-1.40480
-0.08081	0.25320
0.09770	0.30422
0.40372	1.22250
0.32721	-0.23145
0.32721	-0.05289
0.27621	-0.48652
0.27621	0.89089
0.04670	1.04394
-0.23382	0.43176
-0.33583	0.30422
0.42922	-0.63957
0.63323	0.86539
0.48022	0.15117
-0.23382	0.17668
-0.46334	0.53379
0.14870	-2.19554
0.27621	-1.73640
-0.05531	1.75816
0.09770	1.19699
0.27621	-0.12942
0.78624	0.25320
0.60773	0.04914
0.12320	1.06945
-0.10631	0.45726
0.17421	0.58480
0.30171	0.35523
-0.69285	-0.15492
-0.56534	-0.07840
-0.05531	0.58480
0.07220	0.40625
0.19971	-1.07320
0.53123	-2.57816
0.02119	0.58480
0.25071	1.45206
0.48022	0.71234
0.25071	-0.35899
0.40372	-0.00188
0.32721	0.43176
0.73524	0.61031
0.35272	0.61031
-0.28482	1.78367
-0.13181	-0.30797
-0.38683	-1.02219
-0.31033	0.40625
0.04670	-0.86914
0.09770	1.17148
0.32721	0.12566
0.58223	-2.34859
0.32721	0.50828
-0.20832	0.86539
-0.08081	1.01843
0.17421	1.37554
0.30171	0.66132
0.27621	-0.02739
-0.13181	-0.33348
0.42922	0.12566
0.60773	0.61031
0.83725	0.30422
0.42922	-0.23145
-0.13181	-0.79262
-0.56534	-0.12942
-0.46334	-0.20594
-0.38683	0.17668
0.02119	1.06945
-0.13181	-0.33348
0.02119	-0.12942
0.32721	0.12566
0.65874	-0.10391
0.22521	0.45726
0.19971	1.24800
-0.00431	-0.18043
0.73524	0.76336
0.63323	0.43176
0.91375	-0.02739
-0.10631	-0.38449
-0.36133	0.25320
-0.53984	0.78886
-0.51434	-1.09871
-0.15732	-0.97117
-0.05531	0.73785
0.30171	0.63582
0.19971	0.71234
0.40372	-0.25695
0.22521	0.83988
0.45472	0.53379
-0.13181	-0.10391
-0.02981	-1.35379
0.12320	0.71234
-0.00431	0.99292
0.53123	-1.25176
0.63323	0.68683
0.93925	-0.79262
0.40372	1.80917
0.35272	1.14597
-0.10631	-2.47613
-0.33583	-0.10391
-0.10631	2.54890
0.14870	0.30422
-0.31033	-2.34859
-0.15732	0.68683
-0.00431	-0.18043
0.32721	-0.25695
0.83725	1.01843
0.53123	0.55929
0.12320	0.78886
-0.18282	0.35523
0.19971	0.10015
0.17421	0.10015
0.17421	-0.84363
-0.00431	0.40625
-0.48884	-0.15492
0.19971	-1.88945
0.73524	0.83988
0.63323	0.99292
0.32721	0.30422
-0.08081	-0.28246
-0.08081	-1.83844
-0.38683	0.32972
-0.20832	1.86019
-0.46334	0.07465
-0.46334	0.27871
0.35272	1.17148
0.25071	0.12566
0.35272	1.75816
0.99026	-0.10391
1.21977	-1.94047
1.09226	-0.28246
0.73524	3.33964
-0.51434	-1.81293
-0.79486	-2.04250
-0.89686	0.40625
-0.61635	0.25320
0.12320	2.03874
0.42922	1.42656
0.88825	-0.35899
0.40372	-1.40480
0.37822	-0.79262
0.25071	0.76336
-0.20832	0.91640
-0.31033	0.96742
-0.18282	0.38074
-0.05531	-0.66508
0.25071	0.81437
0.32721	0.04914
0.37822	-0.20594
0.70974	0.07465
0.42922	-0.25695
-0.05531	0.27871
-0.15732	0.99292
-0.28482	-0.86914
-0.53984	-1.48133
0.17421	0.71234
0.58223	0.35523
1.19427	0.53379
0.22521	0.86539
0.19971	2.39585
-0.00431	-1.20074
-0.08081	-0.69059
0.12320	-0.25695
0.27621	0.61031
-0.23382	0.10015
-0.46334	0.22769
-0.51434	1.04394
-0.08081	1.57960
0.30171	-0.66508
0.65874	-0.12942
0.76074	-0.30797
0.19971	-1.60887
-0.05531	0.73785
0.27621	0.43176
0.53123	-0.66508
0.35272	-0.28246
0.22521	1.17148
0.12320	1.17148
-0.18282	-0.86914
-0.41233	-0.94566
-0.38683	0.91640
-0.00431	0.83988
0.04670	-1.76191
0.35272	0.66132
0.37822	0.96742
0.65874	1.17148
0.81175	0.58480
0.45472	0.04914
-0.25932	0.12566
-0.43783	0.30422
-0.61635	-0.25695
-0.02981	0.04914
0.35272	0.35523
0.50573	-1.68539
-0.02981	-1.32828
-0.33583	0.07465
0.37822	0.78886
0.32721	0.55929
0.50573	1.22250
-0.00431	1.32453
-0.15732	-0.18043
0.37822	-2.01699
0.22521	0.30422
0.27621	1.06945
0.35272	0.10015
0.27621	0.94191
-0.05531	1.47757
-0.20832	1.86019
0.14870	-2.24656
-0.10631	-1.12422
0.35272	-0.18043
-0.31033	0.40625
-0.20832	0.81437
0.30171	0.32972
0.37822	0.27871
0.70974	0.17668
0.42922	-0.51203
0.12320	0.40625
-0.28482	0.12566
-0.05531	0.27871
-0.05531	0.38074
0.58223	0.30422
0.22521	-0.51203
0.25071	-0.07840
-0.05531	1.14597
-0.66735	-1.50683
-0.28482	-0.18043
-0.08081	2.01323
0.22521	-1.68539
0.42922	-1.73640
0.58223	2.37034
0.63323	1.35003
0.70974	-0.25695
0.35272	-1.09871
0.27621	0.86539
-0.13181	0.02363
-0.15732	1.12046
0.02119	0.55929
0.02119	0.45726
0.12320	0.22769
-0.13181	0.40625
-0.20832	1.14597
0.42922	-0.99668
0.22521	-2.57816
0.22521	0.04914
0.45472	0.35523
0.32721	0.45726
0.07220	-0.35899
0.22521	1.73265
0.12320	0.12566
-0.18282	-0.48652
-0.13181	-1.14973
-0.05531	0.71234
-0.20832	1.47757
0.12320	0.25320
0.02119	-0.84363
0.48022	0.61031
0.53123	1.17148
0.40372	0.89089
0.32721	0.32972
0.30171	-2.42511
0.14870	0.25320
0.22521	0.32972
-0.31033	0.38074
-0.31033	0.35523
-0.31033	0.66132
0.37822	0.30422
0.63323	-0.33348
-0.00431	-0.94566
0.02119	1.27351
-0.05531	-0.20594
-0.02981	-2.24656
0.37822	1.17148
-0.13181	0.40625
-0.18282	-1.40480
0.53123	1.37554
0.48022	0.99292
-0.02981	1.37554
0.27621	-0.43551
-0.02981	0.04914
0.96476	0.22769
0.37822	0.10015
0.22521	0.30422
-0.28482	1.52859
-0.43783	-0.63957
-0.53984	-2.70570
-0.08081	1.45206
0.73524	0.76336
1.16877	-3.72601
1.11776	1.06945
-0.00431	1.47757
-0.38683	2.34484
-0.74385	-0.30797
-0.56534	0.04914
-0.48884	0.25320
-0.10631	0.38074
0.58223	1.57960
1.01576	-0.18043
0.60773	-1.83844
0.40372	-1.09871
0.14870	0.25320
0.40372	1.19699
-0.10631	0.20219
-0.05531	0.02363
0.02119	-0.15492
-0.10631	1.04394
0.12320	-0.00188
0.40372	-0.43551
0.88825	-1.07320
0.96476	1.22250
0.22521	0.94191
-0.36133	0.32972
-0.94787	0.96742
-0.76936	0.50828
-0.36133	-2.70570
0.14870	0.68683
0.73524	0.63582
0.68424	-0.66508
0.55673	0.86539
0.14870	-0.53754
-0.23382	0.53379
-0.13181	0.25320
-0.15732	-0.30797
0.19971	1.24800
0.88825	0.10015
0.78624	1.29902
0.02119	-0.10391
0.53123	-0.18043
0.78624	-0.02739
-0.20832	0.20219
-0.10631	0.32972
-0.18282	0.25320
0.25071	0.04914
-0.41233	-0.02739
-0.79486	-1.99148
-0.53984	-1.27726
0.37822	-1.40480
0.30171	1.45206
0.45472	1.45206
0.07220	1.83468
0.40372	0.15117
0.37822	-0.15492
0.65874	0.78886
0.63323	1.01843
0.48022	0.50828
0.17421	-1.17523
0.09770	-0.25695
-0.08081	-0.05289
-0.08081	0.10015
-0.05531	0.30422
-0.20832	0.27871
-0.10631	-0.15492
-0.36133	-1.37929
-0.10631	-0.10391
0.78624	1.37554
0.55673	-0.05289
0.45472	1.40105
0.50573	-0.56305
0.14870	-0.41000
-0.31033	1.60511
-0.20832	0.32972
-0.38683	-0.71609
-0.31033	-1.68539
-0.05531	0.71234
-0.08081	0.86539
0.83725	1.35003
1.11776	0.45726
0.48022	-0.00188
0.30171	-0.07840
-0.36133	-0.86914
-0.33583	-0.51203
-0.20832	0.50828
0.37822	-1.88945
0.63323	-0.00188
0.53123	0.94191
-0.15732	0.86539
-0.10631	1.12046
-0.20832	0.83988
0.27621	0.48277
0.12320	-0.00188
0.22521	-0.41000
0.35272	-0.18043
-0.02981	0.04914
-0.10631	-0.46102
0.27621	1.37554
0.58223	0.50828
0.53123	-2.29757
0.25071	-0.38449
0.48022	0.86539
-0.38683	1.09496
-0.15732	0.96742
0.09770	-1.27726
0.02119	0.83988
-0.13181	0.94191
-0.20832	-0.81812
-0.15732	-0.63957
-0.02981	0.96742
0.22521	2.16628
0.68424	1.60511
0.25071	-1.58336
0.53123	-3.24136
0.12320	0.07465
0.48022	0.78886
0.27621	2.06425
0.22521	1.50308
-0.08081	-0.58856
0.12320	-1.53234
0.45472	0.48277
-0.10631	1.01843
-0.38683	1.22250
-0.41233	0.55929
-0.23382	-1.76191
0.27621	0.66132
0.27621	0.58480
0.12320	-1.17523
0.27621	0.50828
0.04670	0.43176
0.32721	0.50828
0.55673	0.76336
0.60773	0.10015
0.12320	0.78886
-0.10631	-1.60887
-0.10631	-1.86394
0.09770	0.40625
-0.25932	0.58480
0.14870	1.40105
0.42922	0.96742
0.22521	0.66132
0.37822	-0.43551
0.35272	0.91640
0.02119	0.25320
0.22521	-0.92016
0.12320	0.81437
0.22521	-1.55785
-0.46334	-0.20594
-0.00431	-0.02739
0.65874	0.96742
-0.48884	0.45726
-0.08081	0.86539
0.07220	-0.41000
0.37822	0.10015
0.58223	-1.27726
0.45472	0.20219
0.02119	0.35523
-0.18282	0.96742
-0.28482	0.91640
-0.00431	0.71234
0.27621	0.25320
0.25071	-0.20594
0.42922	-0.00188
0.25071	0.25320
0.30171	-0.46102
0.17421	0.04914
-0.05531	0.35523
-0.31033	-2.27207
0.02119	0.55929
0.68424	1.88570
0.48022	-2.19554
0.40372	-0.58856
0.45472	1.14597
0.19971	-0.18043
-0.10631	1.29902
-0.10631	1.52859
-0.43783	0.78886
-0.15732	0.48277
0.32721	0.63582
0.19971	0.78886
-0.28482	0.40625
0.17421	-1.65988
0.22521	-1.02219
0.17421	0.10015
0.14870	-0.86914
0.30171	-0.46102
0.53123	0.71234
0.55673	0.63582
0.32721	0.10015
0.35272	0.99292
-0.15732	0.40625
0.09770	0.61031
0.14870	-0.15492
-0.05531	-0.71609
0.02119	0.48277
-0.66735	0.04914
-0.20832	0.45726
-0.13181	-0.07840
0.25071	-0.51203
0.60773	1.57960
0.70974	-1.14973
0.50573	-0.18043
0.50573	0.96742
0.12320	-1.27726
0.14870	1.12046
0.04670	0.17668
-0.28482	0.58480
0.19971	0.78886
0.07220	0.66132
-0.13181	0.89089
-0.20832	-0.63957
0.30171	-0.63957
0.58223	-1.02219
0.04670	0.17668
0.12320	1.06945
0.37822	0.61031
-0.20832	-0.61406
0.19971	1.50308
-0.13181	-0.12942
-0.00431	-2.19554
0.42922	1.88570
0.93925	-0.28246
0.30171	-0.05289
-0.36133	0.71234
-0.33583	0.12566
-0.08081	0.53379
-0.23382	-0.10391
0.32721	0.63582
0.48022	-0.46102
0.14870	0.50828
0.02119	0.50828
0.09770	0.15117
0.17421	-0.89465
0.19971	-0.84363
0.09770	2.14077
0.35272	-0.35899
-0.08081	-2.22105
0.25071	0.94191
0.30171	2.03874
0.73524	0.30422
0.14870	-0.92016
0.12320	0.32972
-0.02981	0.83988
-0.36133	0.10015
-0.33583	-0.56305
0.09770	0.76336
0.76074	0.12566
0.09770	-0.58856
0.07220	0.25320
-0.02981	0.20219
0.40372	-0.43551
0.58223	0.50828
0.58223	0.04914
-0.33583	-0.23145
-0.28482	0.20219
0.09770	0.27871
-0.43783	0.63582
-0.28482	-0.53754
-0.10631	1.06945
0.32721	0.10015
0.30171	-2.52714
0.35272	0.53379
0.76074	2.82948
0.53123	-0.61406
0.63323	-1.40480
0.14870	0.71234
-0.31033	-0.20594
-0.05531	0.55929
0.32721	1.55410
0.09770	0.68683
0.09770	-1.78742
0.22521	0.32972
0.07220	0.61031
-0.02981	0.38074
-0.23382	-0.30797
-0.38683	0.22769
-0.08081	0.25320
-0.05531	0.30422
0.99026	0.20219
1.32178	-0.46102
0.88825	-1.68539
0.45472	0.99292
-0.28482	-0.53754
-0.66735	0.43176
-0.08081	1.19699
-0.71835	1.32453
-0.20832	0.15117
0.02119	0.71234
0.37822	-1.04770
0.50573	0.27871
0.40372	-0.12942
0.32721	0.45726
0.32721	0.27871
0.53123	0.30422
-0.02981	0.12566
0.99026	0.38074
0.27621	0.61031
-0.15732	-0.25695
-0.33583	-0.89465
-0.33583	-0.05289
-0.48884	-0.05289
-0.13181	-0.05289
-0.13181	0.55929
0.63323	1.65613
0.68424	-1.35379
0.76074	-0.79262
0.40372	0.76336
-0.23382	0.27871
-0.25932	-0.07840
0.19971	0.96742
0.02119	0.32972
-0.13181	0.32972
0.53123	0.55929
0.78624	0.45726
0.63323	2.34484
0.50573	-2.37410
-0.64185	-2.19554
-0.38683	0.07465
-0.18282	-0.02739
0.14870	0.50828
0.04670	1.19699
-0.02981	1.32453
0.14870	-0.76711
0.27621	-0.81812
0.42922	1.27351
0.32721	-1.96597
0.53123	-0.02739
0.14870	0.50828
-0.33583	1.01843
0.17421	0.96742
-0.20832	0.38074
0.19971	1.04394
0.58223	0.20219
0.53123	-0.58856
0.19971	-0.02739
-0.15732	-0.05289
-0.46334	-0.84363
-0.05531	0.15117
-0.02981	-0.43551
0.40372	0.15117
-0.10631	-0.15492
0.68424	0.66132
0.70974	0.78886
0.22521	1.32453
-0.28482	-1.02219
-0.48884	-0.12942
-0.31033	0.15117
0.02119	0.25320
0.37822	0.48277
0.88825	0.91640
0.53123	0.45726
0.58223	-0.12942
0.45472	-2.29757
-0.05531	0.66132
-0.05531	0.76336
-0.20832	0.40625
-0.36133	0.66132
0.04670	0.32972
0.09770	-0.46102
0.02119	1.19699
0.53123	-0.81812
0.58223	-1.43031
-0.00431	1.12046
-0.13181	1.24800
-0.41233	0.25320
0.22521	-0.05289
-0.02981	1.52859
0.19971	-0.46102
0.32721	-0.63957
0.78624	-0.20594
0.88825	0.43176
0.70974	0.32972
0.02119	0.27871
-0.64185	0.22769
-0.53984	0.78886
-0.28482	-0.05289
-0.10631	-0.30797
0.32721	-1.71090
0.42922	-1.07320
0.50573	0.96742
0.14870	0.83988
0.58223	0.96742
0.25071	0.89089
-0.82036	0.86539
-0.74385	-0.48652
0.35272	-0.23145
1.32178	0.12566
1.21977	0.30422
0.22521	0.83988
-0.23382	-0.51203
-0.13181	-1.45582
0.25071	0.71234
-0.05531	0.83988
-0.00431	0.61031
-0.10631	-0.76711
-0.23382	-0.69059
-0.31033	0.43176
-0.10631	0.53379
0.09770	0.38074
0.32721	0.40625
0.58223	0.15117
0.73524	0.17668
0.78624	0.27871
0.27621	0.66132
0.09770	0.50828
-0.10631	-0.81812
0.07220	0.10015
-0.18282	0.10015
-0.10631	-0.71609
0.22521	0.35523
0.83725	-0.79262
0.45472	1.24800
-0.28482	-0.46102
-0.43783	0.66132
-0.15732	0.94191
-0.15732	2.08976
-0.02981	-2.09351
0.12320	-0.66508
0.58223	1.17148
0.68424	-0.38449
0.42922	0.99292
0.30171	-0.00188
0.27621	0.43176
-0.25932	0.30422
-0.10631	-0.48652
0.32721	-0.35899
0.02119	0.02363
-0.05531	0.45726
-0.08081	0.50828
0.19971	0.53379
0.25071	1.32453
0.42922	-1.25176
0.58223	-1.81293
0.93925	0.30422
-0.00431	0.76336
-0.79486	1.24800
-0.38683	0.45726
-0.38683	-1.45582
0.42922	0.35523
1.11776	0.78886
0.76074	-0.69059
0.88825	0.86539
-0.28482	0.04914
-0.33583	0.35523
-0.53984	0.35523
-0.10631	1.60511
-0.38683	-0.48652
0.14870	-1.12422
0.02119	-1.81293
0.12320	0.27871
0.42922	1.17148
0.68424	0.55929
0.40372	0.45726
0.30171	0.61031
0.55673	0.15117
0.35272	-1.30277
0.09770	-0.07840
0.07220	3.00804
-0.05531	-0.92016
0.19971	-1.99148
-0.15732	1.73265
-0.46334	0.32972
-0.18282	-0.89465
-0.23382	0.58480
0.63323	1.12046
0.27621	0.17668
0.30171	0.22769
0.09770	-0.15492
-0.02981	0.10015
0.32721	0.02363
0.32721	-0.23145
0.42922	0.55929
0.19971	-1.37929
0.14870	0.12566
0.12320	-0.00188
0.07220	0.25320
-0.31033	0.50828
-0.13181	0.55929
-0.46334	0.83988
0.27621	0.17668
0.25071	0.71234
0.12320	-0.35899
0.91375	-0.86914
1.06676	0.53379
0.53123	0.63582
0.09770	-0.30797
-0.41233	-0.02739
-0.53984	0.04914
-0.48884	0.40625
-0.05531	0.68683
0.27621	0.45726
-0.00431	0.73785
-0.23382	0.53379
-0.25932	-0.63957
0.30171	-0.97117
1.39828	0.38074
1.47479	0.45726
0.48022	-0.79262
-0.56534	-0.25695
-0.33583	1.22250
-0.33583	0.68683
-0.20832	-2.29757
-0.05531	0.55929
0.37822	1.17148
0.25071	1.22250
-0.13181	-1.53234
-0.08081	-0.28246
0.02119	-0.23145
0.37822	0.35523
0.04670	0.96742
0.35272	1.14597
0.37822	0.10015
0.09770	0.25320
0.19971	0.38074
0.35272	0.10015
0.55673	0.40625
0.25071	-0.10391
0.42922	-1.78742
0.17421	-0.43551
0.12320	0.32972
0.09770	0.20219
-0.08081	0.40625
-0.33583	0.50828
-0.53984	0.35523
-0.38683	0.55929
-0.00431	0.04914
0.45472	0.22769
-0.08081	-0.71609
0.14870	0.15117
0.63323	0.04914
0.70974	0.61031
0.76074	0.45726
0.02119	0.22769
-0.41233	-0.41000
-0.69285	-0.05289
-0.02981	0.32972
0.17421	1.45206
0.30171	0.32972
0.25071	-2.37410
0.60773	-2.45062
0.27621	0.91640
-0.08081	0.43176
-0.33583	1.65613
0.91375	1.93671
0.96476	1.04394
0.27621	-0.94566
-0.48884	-0.89465
-0.15732	0.04914
-0.10631	1.57960
-0.00431	0.02363
0.19971	0.50828
0.17421	0.76336
0.25071	-0.81812
-0.08081	-0.35899
-0.23382	-0.48652
-0.28482	-0.84363
0.25071	-3.93007
0.60773	1.09496
0.78624	2.19179
0.76074	-0.56305
-0.08081	1.40105
-0.13181	1.27351
-0.08081	1.27351
0.02119	0.45726
-0.18282	0.02363
-0.20832	-0.15492
-0.08081	-0.46102
-0.15732	-0.30797
0.42922	-0.43551
0.76074	-0.00188
1.14327	0.07465
0.35272	-0.28246
0.65874	0.89089
-0.10631	-0.12942
-0.31033	-0.86914
-0.41233	-0.00188
-0.02981	0.63582
-0.18282	0.48277
-0.69285	0.53379
-0.69285	0.38074
0.25071	0.43176
0.60773	0.66132
0.63323	-0.35899
0.35272	0.04914
0.40372	0.73785
0.99026	0.48277
0.17421	2.88050
-0.18282	-2.60367
0.04670	-5.28198
0.42922	2.90601
0.14870	-0.92016
-0.08081	0.17668
0.04670	2.90601
0.09770	1.12046
-0.28482	-0.51203
-0.43783	-0.00188
-0.13181	-0.33348
0.37822	0.53379
0.88825	0.32972
0.30171	-0.28246
0.58223	0.15117
0.58223	0.07465
0.22521	0.27871
-0.00431	-0.38449
-0.28482	-0.51203
-0.38683	0.25320
-0.02981	0.20219
0.32721	0.35523
0.07220	-0.43551
0.37822	0.86539
0.32721	-1.30277
0.07220	-0.89465
-0.23382	0.86539
-0.18282	1.06945
0.17421	1.57960
0.19971	0.48277
0.22521	-0.10391
0.14870	0.15117
-0.53984	0.17668
1.11776	0.12566
1.21977	-0.02739
1.34728	0.50828
0.19971	-0.53754
-0.31033	0.30422
-0.38683	0.12566
-0.43783	0.76336
-0.51434	0.30422
-0.66735	-0.99668
-0.02981	0.55929
0.50573	-0.97117
0.81175	-0.18043
0.45472	-0.07840
0.12320	1.40105
0.07220	-1.04770
-0.05531	0.07465
0.22521	0.86539
-0.08081	2.26831
0.12320	0.35523
0.53123	-0.97117
0.53123	-0.15492
0.35272	0.78886
-0.08081	-0.66508
-0.15732	-0.15492
-0.33583	1.42656
-0.20832	-2.01699
-0.10631	-1.09871
0.42922	1.37554
-0.00431	0.73785
0.42922	0.04914
0.53123	0.63582
0.53123	0.35523
0.91375	0.50828
0.73524	0.99292
-0.02981	0.76336
-0.18282	-1.94047
-0.36133	-0.79262
-0.25932	0.10015
-0.51434	0.25320
-0.41233	0.99292
-0.28482	0.30422
-0.31033	-0.10391
0.09770	0.22769
0.35272	2.19179
0.93925	0.61031
0.58223	-3.31788
0.99026	-1.73640
0.63323	-0.97117
0.37822	0.94191
0.07220	2.11527
-0.02981	1.63062
-0.28482	0.61031
-0.02981	1.60511
-0.25932	0.63582
-0.38683	-0.43551
-0.10631	1.01843
0.14870	-0.48652
-0.02981	-2.98628
-0.00431	-0.61406
0.12320	2.29382
0.30171	-0.05289
0.35272	-4.08312
0.68424	0.76336
0.63323	1.57960
0.17421	1.17148
-0.23382	0.91640
0.25071	0.81437
0.40372	0.55929
0.37822	0.02363
0.04670	-0.69059
0.02119	-0.76711
-0.02981	1.22250
-0.41233	1.01843
-0.36133	-0.99668
-0.41233	-2.09351
0.02119	0.73785
0.73524	0.76336
0.68424	0.25320
0.58223	0.73785
0.58223	0.81437
1.04126	1.06945
-0.18282	-1.04770
-0.71835	-0.53754
-0.28482	-0.20594
0.07220	1.98773
0.25071	0.07465
0.12320	-2.52714
0.42922	-0.74160
0.42922	1.06945
-0.13181	0.55929
0.02119	1.12046
0.17421	1.27351
0.19971	-0.74160
0.19971	-1.04770
0.04670	1.35003
0.02119	-1.07320
-0.23382	0.02363
0.32721	0.48277
0.35272	1.27351
0.37822	-0.46102
0.32721	-0.35899
-0.41233	0.58480
-0.25932	0.55929
0.14870	0.48277
0.45472	0.15117
0.30171	0.04914
0.19971	-0.38449
0.09770	0.32972
-0.08081	-0.12942
0.35272	-0.15492
0.22521	0.10015
0.14870	-0.28246
0.37822	0.15117
0.37822	1.17148
0.30171	-0.05289
-0.64185	-0.76711
-0.92237	-0.35899
-0.53984	2.62542
-0.02981	-1.76191
0.73524	-1.58336
0.93925	0.61031
0.58223	2.39585
0.35272	1.57960
0.25071	0.04914
0.27621	-3.93007
0.27621	0.38074
0.07220	1.14597
-0.10631	0.38074
0.02119	0.96742
-0.08081	0.76336
0.07220	2.03874
0.27621	-0.51203
0.04670	-2.14453
0.42922	0.10015
0.02119	-0.38449
-0.02981	0.53379
0.27621	0.20219
-0.05531	-0.25695
0.25071	0.71234
-0.00431	-0.56305
0.40372	0.96742
-0.13181	0.12566
-0.38683	0.58480
0.22521	-1.14973
0.48022	-0.46102
0.22521	1.42656
0.09770	0.25320
0.35272	-1.37929
-0.18282	-0.41000
0.09770	1.32453
0.14870	1.29902
0.76074	0.83988
0.19971	0.61031
0.07220	0.66132
0.09770	-0.05289
-0.00431	-0.94566
-0.43783	-0.63957
-0.25932	0.50828
0.25071	1.75816
-0.18282	-1.48133
0.32721	-2.70570
0.83725	0.04914
0.40372	1.09496
0.32721	1.52859
0.32721	1.01843
0.27621	-0.94566
0.12320	-0.81812
-0.13181	0.76336
0.02119	1.47757
-0.02981	0.58480
0.09770	0.02363
0.02119	0.89089
0.02119	-0.46102
0.17421	-0.48652
0.14870	-0.66508
0.40372	0.76336
0.14870	0.55929
0.07220	-0.41000
0.19971	-0.81812
0.07220	-0.46102
0.12320	0.50828
0.17421	0.96742
0.04670	0.45726
0.17421	0.63582
0.17421	-0.25695
0.32721	-0.79262
0.12320	0.94191
0.02119	-0.00188
-0.46334	-0.15492
-0.25932	0.15117
0.25071	0.15117
0.63323	0.35523
0.81175	0.10015
0.40372	0.15117
0.45472	1.22250
0.02119	-1.48133
-0.25932	-0.38449
-0.10631	0.22769
-0.13181	0.32972
-0.18282	0.66132
0.17421	1.35003
0.48022	0.30422
0.04670	-0.51203
0.35272	-2.73121
0.22521	0.22769
0.02119	0.96742
0.35272	2.11527
0.09770	0.91640
-0.02981	-1.60887
0.12320	-1.68539
0.37822	0.96742
0.40372	1.09496
0.17421	1.14597
0.19971	0.76336
-0.10631	0.66132
-0.18282	0.15117
-0.41233	-0.02739
-0.13181	0.15117
0.02119	-0.43551
