0.14870	-0.86914
0.17421	0.35523
0.09770	0.89089
-0.08081	1.32453
-0.00431	-0.23145
0.07220	-0.86914
0.27621	0.61031
0.19971	0.53379
0.22521	0.15117
0.30171	-0.07840
0.09770	-0.23145
0.12320	1.35003
0.12320	-0.48652
0.02119	-0.02739
0.04670	0.32972
0.04670	-0.41000
0.19971	-0.28246
0.27621	0.66132
0.25071	0.20219
0.17421	-0.43551
0.12320	-0.05289
0.19971	0.32972
0.12320	0.58480
-0.02981	0.38074
0.02119	0.50828
0.17421	-0.18043
0.22521	-0.20594
0.35272	0.20219
0.17421	-0.05289
0.17421	0.35523
0.19971	0.76336
0.12320	0.20219
0.04670	-0.61406
-0.00431	-1.55785
0.07220	1.80917
0.14870	0.61031
0.25071	-0.00188
0.22521	-0.69059
0.12320	0.63582
0.14870	1.12046
0.22521	-1.48133
0.07220	0.53379
0.07220	0.35523
0.04670	0.04914
-0.02981	0.12566
-0.08081	0.12566
0.19971	-0.76711
0.25071	-0.00188
0.19971	0.32972
0.19971	0.27871
0.17421	0.48277
0.09770	0.35523
0.14870	0.15117
0.07220	0.10015
-0.00431	0.02363
0.12320	-0.05289
0.17421	1.37554
0.17421	-0.18043
0.27621	-0.84363
0.32721	0.27871
0.07220	0.76336
0.07220	-0.30797
-0.00431	0.32972
-0.05531	0.25320
0.12320	0.12566
0.07220	-0.69059
0.12320	-1.09871
0.30171	0.81437
0.40372	0.96742
0.14870	0.78886
0.09770	-0.46102
0.25071	2.26831
-0.02981	0.89089
0.04670	0.07465
-0.02981	-1.68539
0.04670	-0.69059
0.30171	0.30422
0.25071	-0.05289
0.37822	-0.92016
0.19971	0.50828
0.19971	1.14597
0.14870	0.40625
-0.00431	-0.30797
0.04670	-0.86914
0.14870	1.42656
0.07220	0.81437
0.27621	0.22769
0.19971	-0.48652
0.14870	0.15117
0.32721	0.63582
0.17421	-0.46102
0.07220	-0.43551
-0.02981	-0.25695
0.14870	0.15117
0.07220	0.25320
0.04670	0.25320
0.17421	0.38074
0.30171	0.35523
0.22521	0.45726
0.25071	0.25320
0.17421	0.22769
0.07220	0.15117
0.04670	-1.20074
0.12320	1.27351
0.04670	0.40625
0.09770	-0.51203
0.25071	-0.07840
0.30171	1.47757
0.27621	0.71234
0.14870	-0.18043
0.14870	-0.63957
0.14870	-0.71609
0.14870	-0.20594
-0.05531	-0.05289
-0.08081	0.27871
0.02119	0.48277
0.27621	-0.25695
0.27621	1.06945
0.19971	0.83988
0.22521	1.27351
0.19971	-1.30277
0.04670	-0.84363
0.02119	0.30422
0.09770	-0.00188
0.02119	1.55410
-0.00431	0.30422
0.30171	-0.23145
0.27621	-0.15492
0.25071	0.40625
0.17421	0.27871
0.17421	0.25320
0.12320	0.20219
0.12320	-0.02739
0.04670	-0.12942
-0.08081	-1.50683
0.14870	1.01843
0.22521	2.19179
0.19971	0.12566
0.17421	-0.33348
0.25071	-0.28246
0.22521	0.66132
0.14870	-1.12422
-0.05531	-0.15492
0.02119	0.68683
0.12320	-0.05289
0.09770	0.15117
0.22521	0.22769
0.19971	0.22769
0.09770	0.27871
0.19971	0.25320
0.17421	0.35523
0.09770	0.20219
0.07220	0.20219
-0.00431	-0.00188
0.07220	0.30422
0.19971	0.15117
0.27621	0.10015
0.25071	0.17668
0.35272	0.15117
0.22521	-0.07840
0.09770	0.22769
0.04670	0.63582
0.07220	0.04914
0.02119	-0.43551
0.02119	-0.43551
0.04670	0.35523
0.30171	0.32972
0.27621	-0.05289
0.19971	0.17668
0.22521	0.48277
0.12320	0.78886
0.25071	0.04914
0.07220	-0.43551
-0.08081	-0.33348
0.04670	0.89089
0.04670	0.50828
0.19971	0.22769
0.22521	0.22769
0.32721	0.02363
0.32721	0.04914
0.07220	-0.41000
0.17421	0.15117
0.12320	0.22769
-0.08081	0.15117
-0.15732	0.20219
0.09770	0.32972
0.32721	0.20219
0.27621	0.22769
0.27621	0.68683
0.27621	-0.33348
0.19971	-0.33348
0.04670	0.12566
0.04670	0.22769
-0.05531	0.22769
0.09770	0.40625
0.02119	0.04914
0.19971	0.20219
0.32721	0.15117
0.40372	0.20219
0.22521	0.22769
0.07220	0.12566
0.02119	-0.10391
0.07220	0.04914
0.12320	-0.02739
-0.05531	0.12566
-0.02981	0.20219
0.17421	0.45726
0.30171	-0.12942
0.32721	0.73785
0.22521	-0.61406
0.17421	-1.02219
0.19971	0.27871
0.12320	0.53379
-0.05531	0.45726
0.02119	0.58480
-0.00431	0.35523
0.12320	0.30422
0.32721	0.25320
0.27621	0.04914
0.25071	-0.20594
0.07220	0.45726
0.07220	0.12566
0.22521	-0.05289
-0.05531	-0.15492
0.04670	-0.07840
0.22521	0.17668
0.30171	0.12566
0.40372	0.12566
0.22521	0.45726
0.17421	0.12566
0.12320	0.12566
-0.02981	0.30422
-0.02981	0.35523
-0.00431	0.12566
0.02119	-0.33348
0.14870	-0.48652
0.04670	0.27871
0.17421	0.35523
0.37822	0.55929
0.35272	0.61031
0.32721	0.45726
0.14870	0.25320
-0.00431	0.07465
-0.18282	-0.00188
-0.20832	-0.15492
-0.05531	-0.05289
0.19971	0.12566
0.40372	0.20219
0.40372	0.12566
0.42922	0.15117
0.22521	-0.00188
-0.10631	0.04914
-0.02981	0.04914
0.17421	0.04914
-0.15732	0.02363
0.12320	0.73785
0.58223	0.63582
0.04670	-0.33348
0.09770	0.20219
0.12320	0.48277
-0.20832	-0.02739
0.12320	0.76336
0.07220	-0.15492
-0.23382	0.15117
0.32721	0.40625
0.58223	-0.48652
0.30171	-0.18043
0.63323	0.96742
0.02119	0.27871
0.27621	0.07465
0.19971	0.81437
0.07220	-0.56305
-0.38683	-0.25695
-0.31033	0.86539
-0.15732	-0.38449
0.25071	-0.46102
0.76074	0.45726
0.40372	0.02363
0.27621	0.40625
0.17421	0.63582
-0.20832	1.01843
-0.28482	0.20219
-0.33583	-1.04770
0.07220	-1.25176
0.50573	0.58480
0.96476	1.17148
0.63323	0.53379
0.32721	1.32453
0.22521	-0.41000
0.81175	-0.18043
0.02119	0.61031
-0.69285	-0.41000
-0.46334	-0.25695
0.25071	-0.56305
-0.15732	-0.99668
0.19971	1.14597
-0.18282	1.57960
-0.20832	0.45726
0.07220	-0.23145
-0.28482	-0.28246
0.96476	0.32972
1.67880	-0.05289
1.62780	-1.17523
0.17421	0.40625
-0.76936	0.58480
-0.79486	0.71234
0.07220	1.06945
0.22521	0.89089
0.45472	-1.17523
-0.41233	-1.99148
-0.36133	0.10015
-0.51434	0.66132
0.30171	0.76336
0.58223	0.58480
0.37822	0.30422
0.32721	1.50308
0.19971	-0.38449
-0.08081	-0.79262
0.40372	0.17668
0.07220	-0.18043
-0.51434	0.53379
0.17421	0.30422
0.68424	1.35003
1.01576	0.83988
-0.74385	-2.62918
-0.28482	-1.02219
-0.43783	-0.46102
-0.08081	1.06945
0.07220	0.94191
0.09770	-0.48652
0.96476	-0.05289
1.37278	1.37554
0.40372	0.50828
-0.28482	0.73785
-0.38683	0.61031
0.14870	0.04914
0.70974	-0.69059
0.40372	-0.05289
-0.51434	0.10015
-0.20832	-0.89465
-0.41233	0.22769
-0.46334	-0.10391
0.07220	0.66132
0.17421	0.76336
-0.08081	-1.07320
0.09770	-0.30797
1.55129	-0.18043
1.60230	1.96222
1.21977	-0.23145
-0.13181	-1.04770
-0.38683	0.86539
-0.92237	0.66132
-0.76936	1.73265
-0.51434	0.43176
-0.31033	0.53379
-0.05531	-0.20594
0.25071	0.73785
0.27621	-1.58336
0.48022	-1.81293
0.14870	0.30422
0.25071	0.55929
1.04126	0.38074
1.04126	2.06425
0.93925	-1.14973
-0.64185	-0.66508
0.22521	1.42656
0.09770	-0.20594
-0.43783	-0.66508
-0.25932	-0.63957
0.48022	-0.02739
-0.20832	0.58480
-0.71835	0.17668
0.50573	0.32972
0.17421	0.89089
-0.00431	0.48277
0.27621	1.27351
0.30171	0.25320
-0.13181	-1.32828
-0.13181	-0.43551
0.35272	0.83988
0.12320	-1.37929
0.91375	-0.23145
0.68424	0.45726
0.19971	0.81437
-0.76936	-1.17523
-0.18282	-0.56305
0.65874	0.50828
0.55673	1.55410
-0.25932	1.19699
-0.48884	0.53379
-0.05531	0.76336
1.37278	-0.07840
1.42379	-1.04770
-0.56534	0.66132
-1.25389	-0.76711
-0.48884	-0.46102
0.07220	-0.18043
0.14870	-0.51203
-0.10631	-0.23145
-0.23382	-0.30797
0.60773	0.81437
1.06676	0.45726
0.86275	0.04914
-0.02981	0.89089
-0.20832	2.37034
0.27621	-0.30797
1.55129	-0.69059
0.25071	-0.43551
-0.51434	0.04914
-0.66735	0.71234
-0.33583	-0.18043
-0.59084	0.38074
-0.02981	0.32972
0.68424	0.99292
0.17421	1.24800
-0.56534	-3.11382
0.35272	-1.37929
0.91375	-0.12942
1.32178	1.24800
-0.66735	1.29902
-0.48884	1.57960
0.42922	1.40105
0.73524	0.91640
0.40372	0.58480
0.14870	0.32972
-0.69285	0.38074
-0.69285	-1.17523
-0.38683	-3.31788
1.01576	0.61031
0.78624	-1.07320
-0.46334	-0.76711
0.99026	0.38074
1.14327	1.17148
0.76074	0.55929
-0.28482	1.01843
-0.02981	0.32972
0.42922	1.27351
-0.10631	1.55410
-0.23382	-0.07840
-0.79486	-2.24656
-0.84586	-0.05289
-0.33583	0.32972
-0.59084	1.88570
0.53123	-0.76711
-0.25932	-2.62918
1.11776	0.35523
2.08683	2.59991
1.39828	1.01843
-0.23382	0.17668
0.07220	1.04394
-0.13181	-0.41000
-0.00431	0.04914
-0.08081	0.02363
-0.66735	0.30422
-0.33583	0.38074
-0.76936	-1.02219
0.22521	0.10015
0.35272	-0.81812
0.83725	-0.71609
0.30171	0.91640
0.30171	0.48277
-0.53984	-0.81812
0.60773	5.22721
1.93382	-0.92016
0.58223	-4.23616
0.12320	-1.81293
0.22521	0.89089
-0.51434	1.80917
-1.27939	2.16628
-0.74385	1.73265
0.58223	-0.10391
0.09770	-0.43551
-0.48884	0.73785
-0.15732	0.15117
0.07220	-0.69059
0.17421	-0.66508
0.55673	-0.15492
0.99026	0.20219
0.25071	0.27871
1.21977	0.48277
1.57679	0.91640
-0.23382	-1.43031
-0.82036	-1.37929
0.19971	0.55929
-0.69285	-0.51203
-0.92237	-1.25176
0.17421	1.78367
0.81175	0.68683
-0.31033	1.12046
-0.23382	0.27871
0.02119	0.07465
0.30171	1.50308
0.53123	-1.12422
0.81175	-0.48652
-0.08081	2.47238
0.04670	0.48277
-0.05531	-3.87905
0.04670	0.15117
0.07220	0.63582
0.60773	0.96742
0.45472	0.76336
-0.15732	1.37554
0.22521	-0.15492
0.45472	1.78367
0.65874	-2.14453
0.58223	-2.75671
-0.36133	-1.17523
-0.41233	0.81437
-0.46334	1.35003
-0.02981	2.19179
0.17421	1.96222
0.32721	-0.33348
0.02119	-0.15492
-0.33583	0.68683
-0.23382	-0.81812
-0.51434	-0.53754
1.44929	-1.73640
1.75531	-0.43551
1.27078	1.96222
0.45472	0.99292
-0.56534	0.07465
-0.97337	-0.43551
-0.71835	-0.02739
0.04670	-0.05289
-0.28482	0.17668
0.91375	1.22250
0.27621	-0.53754
0.53123	1.60511
-0.13181	0.15117
-0.08081	-2.65468
-0.41233	1.52859
0.19971	0.89089
0.83725	-0.43551
-0.02981	0.96742
-0.31033	0.35523
-0.46334	0.45726
0.30171	0.07465
0.35272	-0.43551
0.32721	0.48277
0.86275	0.96742
0.68424	-0.41000
0.40372	0.76336
0.12320	1.88570
0.30171	-1.40480
-0.10631	-3.06281
-0.89686	-0.71609
-0.41233	1.63062
0.53123	0.45726
0.60773	-0.41000
0.09770	-0.00188
-0.46334	1.12046
-0.02981	1.40105
1.42379	0.96742
1.16877	0.27871
-0.43783	-0.00188
-1.02437	-1.81293
-0.25932	-0.63957
0.53123	-0.07840
0.96476	0.20219
0.19971	0.48277
0.12320	1.55410
-0.69285	-0.30797
-0.36133	-0.25695
-0.18282	1.04394
-0.36133	0.27871
-0.23382	-1.02219
0.88825	1.04394
1.50029	-0.66508
1.50029	-1.27726
0.02119	0.45726
-0.59084	1.35003
-0.20832	1.04394
-0.28482	1.24800
-0.18282	0.55929
0.37822	-0.46102
-0.13181	0.38074
0.09770	1.75816
0.32721	-1.60887
0.40372	-1.30277
0.78624	1.14597
0.19971	0.15117
-0.64185	-0.71609
-0.99887	1.60511
-0.18282	2.37034
0.83725	-2.27207
1.27078	-2.24656
0.14870	0.78886
0.63323	0.35523
-0.28482	0.68683
-0.84586	0.91640
-0.66735	0.50828
-0.36133	0.96742
-0.02981	0.55929
0.48022	-0.61406
1.14327	-0.25695
1.24527	1.78367
0.45472	-2.29757
0.50573	-3.49644
0.17421	0.50828
-0.89686	0.83988
-1.10088	1.06945
-0.28482	1.37554
0.17421	2.06425
0.17421	1.88570
0.30171	-0.94566
0.45472	-1.81293
0.09770	-0.35899
0.32721	-0.79262
0.12320	-0.38449
0.53123	1.29902
0.35272	1.01843
0.37822	1.06945
0.27621	-0.23145
0.40372	-0.35899
-0.20832	-0.05289
0.07220	-0.02739
-0.13181	0.40625
-0.43783	0.02363
0.25071	-1.17523
0.17421	0.78886
-0.28482	0.43176
0.68424	0.58480
0.32721	2.72745
-0.15732	-1.12422
0.02119	-1.71090
-0.51434	-0.63957
0.32721	0.48277
0.45472	0.53379
0.45472	-0.15492
0.53123	1.29902
0.27621	1.06945
-0.02981	0.04914
0.02119	1.47757
-0.08081	0.07465
-0.41233	-0.38449
0.58223	-0.66508
1.32178	-0.97117
0.65874	0.66132
0.55673	2.52339
-0.28482	-0.43551
-0.59084	-0.38449
-0.43783	-1.12422
-0.28482	-0.46102
-0.59084	0.38074
0.07220	0.27871
1.09226	0.15117
1.34728	0.45726
-0.25932	0.30422
-0.36133	0.66132
-0.23382	0.27871
0.17421	1.65613
0.07220	-0.28246
0.22521	-1.78742
0.45472	0.68683
0.30171	-0.46102
0.17421	0.15117
-0.18282	0.30422
-0.00431	1.60511
0.22521	0.27871
0.12320	-0.48652
0.22521	0.40625
0.37822	1.12046
-0.08081	0.53379
-0.74385	-1.20074
0.60773	-0.15492
1.57679	-0.92016
-0.33583	-0.00188
0.04670	0.94191
-0.02981	2.06425
-0.59084	0.94191
-0.38683	-1.96597
-0.10631	-0.66508
1.24527	0.83988
0.93925	1.83468
-0.00431	0.66132
-0.59084	-2.34859
-0.41233	-1.14973
0.27621	0.32972
0.12320	0.81437
0.14870	0.73785
0.09770	2.44687
0.22521	-0.76711
0.63323	-1.17523
0.78624	0.22769
0.58223	1.35003
-0.74385	-0.53754
-0.79486	-0.23145
-0.23382	0.73785
-0.00431	0.25320
-0.00431	1.12046
1.21977	0.89089
1.39828	-2.22105
0.37822	0.20219
0.30171	0.63582
-0.28482	-0.02739
-0.31033	-0.15492
-0.82036	-0.00188
-1.17738	0.30422
-0.48884	0.63582
1.24527	1.83468
1.98482	-0.30797
0.70974	-0.63957
-0.97337	-0.76711
-0.66735	0.30422
-0.48884	-0.63957
-0.28482	-0.28246
0.32721	0.48277
0.86275	0.58480
0.99026	0.58480
1.14327	3.64573
0.42922	-0.18043
0.19971	-2.60367
-0.71835	-0.18043
-0.66735	0.45726
0.30171	-0.74160
0.40372	-0.38449
0.04670	0.50828
0.07220	1.24800
-0.13181	0.61031
-0.08081	0.71234
0.04670	-0.69059
0.19971	-0.63957
0.96476	0.20219
0.22521	0.81437
-0.46334	0.20219
-0.51434	-1.76191
-0.13181	-0.71609
-0.00431	1.17148
0.40372	0.55929
0.17421	1.63062
0.12320	-0.69059
0.45472	-1.68539
0.86275	1.19699
-0.38683	-0.20594
0.86275	0.10015
1.44929	1.42656
0.32721	0.94191
-0.18282	-0.23145
-0.56534	-0.00188
-1.10088	0.63582
-0.99887	0.25320
-0.99887	-0.12942
0.02119	-0.48652
1.19427	-0.43551
1.32178	0.99292
0.19971	-0.20594
0.40372	-0.30797
0.07220	1.06945
-0.53984	-2.09351
-0.48884	-2.22105
0.55673	0.12566
2.13783	1.12046
1.01576	2.16628
-0.00431	1.78367
-0.56534	1.19699
-0.84586	1.83468
-0.64185	-0.58856
-0.48884	-1.17523
-0.31033	-0.46102
0.14870	-0.51203
-0.08081	-1.09871
1.80631	-0.58856
1.67880	0.55929
0.81175	0.66132
-0.46334	0.32972
-0.64185	1.78367
-0.89686	-0.51203
-0.48884	-1.91496
0.07220	-0.63957
0.91375	0.38074
0.58223	1.22250
-0.15732	0.55929
-0.41233	-0.97117
0.12320	-0.51203
-0.10631	0.20219
0.96476	0.89089
0.65874	0.76336
0.83725	1.47757
0.07220	0.83988
-0.33583	-0.76711
-0.71835	0.81437
-0.41233	-0.10391
0.12320	-1.50683
0.91375	0.30422
0.83725	1.78367
-0.33583	-0.76711
0.07220	-1.04770
0.35272	-0.92016
-0.08081	0.91640
-0.31033	1.47757
-0.43783	1.50308
-0.43783	1.04394
0.37822	0.04914
0.91375	-1.12422
0.91375	-0.43551
0.70974	-0.66508
0.30171	0.58480
-0.23382	0.63582
-0.56534	0.27871
-0.36133	0.17668
-0.20832	0.32972
-0.08081	0.07465
0.32721	0.15117
0.83725	0.40625
0.65874	-0.94566
0.53123	0.10015
0.19971	0.48277
-0.71835	-0.25695
-0.08081	0.15117
-0.08081	0.58480
0.22521	0.91640
0.70974	0.50828
0.17421	-0.28246
-0.05531	0.10015
0.02119	-0.07840
0.17421	-0.07840
-0.71835	-0.35899
-0.00431	-0.12942
0.27621	0.91640
0.17421	0.17668
0.53123	1.32453
0.68424	-0.61406
0.04670	-0.25695
0.14870	0.68683
0.09770	1.70714
-0.20832	-1.60887
-0.10631	-2.22105
0.07220	-0.02739
0.14870	-1.25176
0.04670	1.12046
0.32721	1.12046
0.60773	0.53379
0.88825	0.55929
0.60773	-1.48133
-0.43783	0.04914
-0.43783	0.25320
-0.61635	0.71234
-0.64185	0.63582
-0.28482	0.35523
-0.02981	-0.43551
0.42922	0.96742
0.25071	-0.58856
0.19971	-0.71609
0.96476	0.48277
0.93925	-0.25695
0.19971	-0.41000
0.58223	0.55929
0.42922	0.25320
-0.36133	1.17148
-0.46334	1.52859
-0.43783	-1.12422
0.02119	-1.43031
0.25071	0.22769
0.09770	0.99292
-0.08081	0.04914
0.30171	0.10015
0.02119	0.07465
0.58223	0.25320
0.68424	0.66132
0.42922	0.96742
0.09770	0.61031
-0.31033	-1.27726
-0.31033	-0.02739
0.25071	-0.18043
0.65874	0.25320
-0.41233	0.58480
-0.00431	0.17668
0.30171	0.96742
-0.00431	-2.24656
0.19971	-0.41000
-0.05531	0.73785
-0.31033	-0.10391
0.19971	0.20219
0.14870	1.17148
0.40372	0.35523
1.19427	-0.61406
0.73524	-0.12942
-0.31033	2.29382
-0.87136	0.45726
-0.69285	-2.50164
0.76074	-0.25695
0.96476	1.47757
-0.23382	-1.83844
-0.08081	1.27351
0.42922	-2.17003
-0.33583	-0.63957
-0.10631	1.83468
-0.05531	1.73265
-0.02981	0.83988
0.12320	5.32924
-0.02981	-2.90976
0.93925	-3.36890
1.55129	-0.69059
0.50573	-0.05289
-0.41233	1.42656
-0.56534	1.35003
-0.20832	0.91640
0.02119	0.38074
0.04670	0.12566
0.02119	-0.86914
0.50573	0.55929
1.14327	0.68683
-0.02981	-0.41000
-1.04987	3.03355
-0.25932	-2.17003
1.11776	-5.76663
0.35272	-1.81293
0.07220	0.30422
0.04670	2.16628
-0.13181	2.52339
-0.18282	1.57960
0.45472	1.19699
0.09770	0.81437
0.02119	0.91640
0.09770	-0.00188
0.42922	-0.61406
0.17421	-0.33348
-0.18282	-0.46102
-0.31033	-0.41000
0.22521	0.63582
0.55673	-0.63957
0.68424	-0.38449
0.14870	0.07465
-0.13181	-0.51203
-0.28482	0.17668
-0.36133	-0.15492
-0.23382	0.58480
0.35272	0.20219
0.45472	0.63582
0.63323	0.68683
0.58223	0.55929
0.81175	0.71234
0.12320	1.17148
-0.76936	0.17668
-0.20832	0.10015
0.07220	0.71234
0.35272	0.07465
0.07220	-5.20546
0.35272	-1.83844
0.02119	-0.94566
-0.02981	1.19699
-0.23382	2.08976
-0.10631	2.19179
0.04670	2.37034
-0.18282	-0.00188
0.22521	0.22769
0.53123	-0.81812
0.88825	-1.27726
0.60773	-0.48652
0.02119	0.22769
-0.20832	0.48277
0.58223	-0.30797
0.04670	-0.00188
-0.59084	0.40625
-0.64185	1.78367
0.12320	-1.83844
1.52579	0.12566
0.12320	-1.55785
-0.36133	-1.35379
-0.08081	0.27871
-0.08081	1.68163
-0.10631	1.55410
-0.59084	1.40105
0.45472	2.14077
0.81175	-0.89465
0.60773	0.20219
0.02119	-1.30277
0.30171	0.30422
0.25071	0.50828
0.35272	1.06945
-0.23382	-1.09871
0.07220	-0.66508
0.88825	0.76336
0.37822	-0.46102
-0.31033	-0.89465
0.12320	-0.18043
-0.15732	0.91640
-0.59084	1.70714
-0.38683	-0.48652
0.27621	0.27871
0.91375	0.76336
0.53123	0.40625
0.04670	0.22769
-0.51434	-0.28246
-0.28482	-0.07840
0.93925	-0.41000
0.86275	-0.33348
0.70974	1.37554
0.02119	-0.99668
-0.28482	-1.45582
-0.31033	0.43176
-0.25932	2.62542
-0.20832	1.29902
0.02119	-3.82804
-0.25932	-1.58336
1.14327	0.94191
1.37278	2.34484
-0.05531	-0.35899
-0.00431	-0.94566
-0.20832	0.68683
0.02119	1.65613
-0.28482	0.27871
-0.43783	0.50828
0.09770	-0.33348
0.32721	-0.61406
0.73524	-0.97117
0.32721	-0.71609
0.32721	1.17148
0.35272	-0.56305
0.27621	-0.48652
-0.15732	0.99292
-0.18282	0.71234
0.17421	1.52859
0.45472	1.01843
0.04670	-1.53234
0.19971	-1.48133
0.37822	-0.41000
-0.02981	0.76336
0.45472	2.16628
0.25071	-0.71609
-0.61635	-0.99668
-0.28482	0.50828
-0.33583	0.61031
-0.28482	1.22250
-0.36133	0.10015
-0.43783	-0.25695
0.42922	0.53379
1.09226	-0.66508
1.50029	-0.71609
0.86275	2.65093
1.21977	-2.29757
0.22521	-1.94047
-0.41233	0.45726
-0.33583	0.32972
-0.69285	0.50828
0.02119	1.12046
0.35272	1.14597
0.37822	0.86539
-0.00431	-0.76711
-0.18282	0.71234
-0.25932	-0.05289
-0.18282	-0.10391
0.60773	0.76336
0.73524	-1.07320
0.58223	-1.94047
0.58223	0.17668
0.07220	0.02363
-0.66735	-0.58856
-0.46334	1.01843
0.30171	1.17148
0.32721	1.98773
0.50573	-1.37929
0.32721	-1.45582
-0.33583	0.48277
-0.31033	0.58480
-0.13181	2.19179
-0.51434	-0.00188
-0.20832	-0.38449
0.32721	-1.60887
1.78081	-1.83844
1.19427	0.83988
0.32721	0.22769
-0.41233	3.03355
0.04670	0.94191
-0.94787	-2.60367
-0.36133	0.17668
0.17421	1.17148
0.27621	0.22769
0.35272	-0.81812
0.04670	0.35523
0.45472	0.94191
0.27621	0.89089
0.22521	1.22250
0.02119	-1.14973
0.63323	-0.97117
1.32178	-0.30797
0.25071	0.15117
-0.36133	0.89089
-0.66735	1.01843
-1.10088	-0.25695
-0.64185	-0.41000
0.14870	-0.00188
0.99026	-0.46102
0.48022	-2.04250
0.78624	-0.35899
-0.18282	0.91640
0.37822	1.78367
0.27621	2.24281
-0.56534	0.76336
-0.66735	0.48277
-0.10631	-0.10391
0.22521	-2.68019
0.42922	-1.88945
0.42922	1.19699
0.14870	0.30422
-0.05531	0.07465
0.53123	0.83988
0.55673	0.61031
0.45472	0.48277
0.02119	2.62542
-0.25932	-0.25695
0.50573	-0.00188
0.63323	-2.90976
1.24527	-0.99668
-0.08081	0.17668
-0.41233	1.29902
-0.53984	1.19699
-0.38683	0.35523
-0.69285	0.89089
-0.48884	0.27871
-0.20832	1.50308
-0.08081	0.48277
0.42922	-2.55265
0.91375	-0.58856
0.76074	-0.23145
1.01576	0.17668
1.29628	1.98773
-0.08081	0.25320
-0.08081	-0.07840
-0.38683	0.68683
-0.66735	-0.43551
-1.02437	-0.46102
0.02119	0.43176
1.09226	0.50828
0.12320	-0.20594
0.42922	0.58480
0.25071	-0.33348
0.48022	0.81437
0.14870	0.58480
-0.56534	0.04914
-0.97337	0.17668
0.12320	-0.43551
1.62780	0.96742
1.01576	-0.51203
-0.18282	-1.48133
-0.36133	0.63582
-0.20832	-0.00188
0.12320	1.42656
0.09770	0.10015
-0.25932	-0.92016
-0.43783	1.40105
0.68424	0.43176
1.83181	-1.27726
1.14327	-0.12942
0.09770	0.43176
-0.71835	0.94191
-0.89686	0.68683
-0.56534	0.63582
-0.33583	0.48277
-0.38683	1.09496
-0.10631	-0.76711
1.06676	-0.89465
2.13783	-1.17523
0.60773	-0.51203
-0.51434	0.78886
-0.79486	-0.35899
-0.59084	-0.10391
0.35272	0.32972
0.73524	1.01843
-0.05531	1.12046
0.42922	1.52859
1.16877	0.30422
-0.43783	-0.66508
-0.79486	-1.07320
-0.05531	-0.86914
0.40372	0.35523
0.09770	0.40625
0.27621	0.63582
-0.18282	1.47757
-0.33583	-0.05289
-0.43783	1.42656
-0.25932	0.25320
0.19971	-0.33348
0.83725	-4.95038
1.60230	-2.14453
0.78624	0.55929
0.17421	1.45206
-0.31033	2.77847
-0.48884	0.96742
-0.13181	1.63062
0.02119	1.14597
-0.33583	0.91640
-0.33583	-0.02739
0.78624	0.17668
1.98482	-1.14973
1.42379	-2.27207
-0.31033	-1.48133
-0.53984	-0.48652
-0.53984	0.96742
-0.74385	0.66132
-0.71835	0.61031
-0.25932	0.58480
1.29628	1.32453
1.52579	1.29902
0.50573	-2.17003
-1.10088	-0.38449
-0.46334	-2.17003
-0.00431	-0.81812
-0.20832	2.29382
-1.27939	4.84460
0.65874	0.96742
2.34184	-4.10862
2.13783	0.07465
-0.20832	-0.46102
-1.22839	0.15117
-1.02437	0.48277
-0.64185	0.86539
-0.23382	1.17148
0.27621	1.55410
0.73524	1.35003
0.91375	-0.25695
0.30171	-1.32828
0.48022	-1.88945
0.35272	-1.71090
0.27621	0.38074
-0.08081	-0.05289
0.02119	0.10015
0.07220	0.43176
0.04670	0.38074
0.09770	1.14597
-0.20832	0.81437
-1.12638	1.19699
0.53123	-0.81812
2.39285	-0.97117
0.93925	0.22769
-0.53984	0.27871
-0.89686	0.22769
-0.89686	0.61031
-0.48884	3.44167
-0.38683	-1.96597
-0.20832	-2.32308
0.30171	0.25320
1.06676	1.37554
1.14327	-0.76711
0.37822	0.22769
0.45472	-0.92016
0.32721	0.99292
0.14870	1.63062
-0.28482	0.17668
-0.20832	-0.07840
-0.23382	0.22769
0.45472	0.53379
0.55673	0.86539
0.32721	0.71234
-0.31033	-0.66508
-0.48884	-2.39961
-0.53984	-1.07320
0.42922	0.66132
0.58223	3.26312
0.30171	-0.38449
1.01576	-2.37410
1.19427	0.53379
-0.00431	-0.05289
-0.66735	0.20219
-0.23382	0.99292
-0.51434	1.47757
-0.02981	0.20219
0.40372	-0.00188
0.27621	0.71234
0.37822	0.48277
0.07220	0.63582
-0.28482	1.17148
-0.87136	-2.22105
0.35272	-0.74160
1.80631	-1.48133
2.13783	0.20219
-0.05531	1.32453
-0.74385	-0.20594
-0.74385	0.68683
-0.28482	0.43176
-0.15732	-0.00188
-0.18282	0.58480
-0.61635	-0.63957
0.04670	0.22769
0.73524	1.52859
1.62780	2.26831
0.53123	-1.14973
0.60773	-1.12422
0.50573	0.40625
-0.41233	0.96742
-0.64185	-0.10391
0.07220	-1.43031
0.30171	-1.43031
0.68424	2.57441
0.25071	-0.00188
-0.28482	-0.35899
-0.64185	0.86539
-0.71835	1.09496
-0.08081	0.45726
0.40372	0.27871
0.48022	0.94191
0.42922	-0.23145
-0.36133	-0.92016
0.19971	-0.61406
1.52579	0.66132
2.11233	0.55929
-0.66735	-1.14973
-0.59084	-1.53234
-0.10631	1.01843
-0.15732	0.73785
-0.00431	0.68683
0.32721	1.86019
-0.10631	0.53379
-0.46334	-0.84363
-0.15732	0.86539
0.27621	0.94191
0.35272	0.78886
0.37822	1.78367
-0.05531	-2.17003
-0.15732	-2.37410
0.42922	-0.30797
1.11776	0.35523
1.39828	1.06945
0.27621	0.53379
-0.74385	0.32972
-0.82036	-0.02739
-1.10088	-0.48652
-0.71835	0.43176
0.50573	0.48277
1.27078	0.53379
0.76074	-0.63957
0.12320	-0.35899
-0.53984	0.63582
0.12320	0.96742
0.45472	-0.25695
-0.00431	0.58480
-0.46334	0.61031
-0.36133	-0.15492
0.70974	-0.69059
1.67880	-0.46102
0.22521	1.24800
0.07220	0.15117
-0.28482	-1.40480
0.04670	2.01323
-0.23382	-0.89465
-0.10631	-0.38449
-0.02981	1.22250
0.17421	0.83988
-0.02981	2.49788
-0.00431	-1.48133
0.09770	-0.86914
0.76074	1.37554
1.47479	-0.66508
0.65874	-0.43551
-1.12638	0.78886
-1.10088	0.40625
0.48022	0.17668
1.88281	0.53379
0.68424	-0.41000
-0.53984	-0.28246
-1.17738	0.38074
-1.04987	-0.15492
-0.41233	0.04914
0.30171	0.35523
0.58223	-2.29757
0.58223	0.63582
1.14327	1.04394
-0.13181	0.27871
-0.33583	-0.33348
0.40372	1.22250
0.53123	1.29902
-0.05531	0.58480
-0.69285	-0.20594
0.35272	0.43176
0.99026	-0.58856
1.09226	0.73785
0.25071	0.32972
-0.18282	-0.28246
-0.25932	-0.92016
-0.25932	-0.07840
-0.59084	0.76336
-0.15732	-0.74160
0.25071	-0.05289
1.47479	0.53379
0.53123	1.91120
-0.41233	-0.97117
-0.59084	-0.61406
-0.20832	0.48277
0.14870	2.39585
0.73524	0.17668
0.48022	-0.30797
0.12320	0.32972
0.27621	-0.23145
-0.13181	1.35003
0.22521	-1.40480
0.60773	-2.14453
0.40372	-0.12942
0.04670	1.50308
-0.53984	0.76336
-0.18282	0.83988
0.04670	2.01323
0.07220	-0.81812
-0.69285	-1.20074
0.14870	1.27351
0.83725	-1.50683
0.17421	-1.83844
-0.08081	0.73785
0.76074	0.86539
1.83181	1.12046
0.68424	0.76336
0.27621	0.40625
-0.20832	0.50828
-0.64185	0.71234
-0.79486	-1.60887
-0.59084	-0.28246
-0.08081	-0.12942
0.58223	-0.10391
-0.13181	0.73785
0.30171	0.61031
-0.00431	0.45726
1.16877	0.10015
1.24527	-0.05289
0.70974	0.83988
-0.66735	0.20219
-0.53984	-1.53234
-0.23382	-0.53754
0.48022	0.89089
-0.13181	0.76336
-0.46334	0.76336
-0.43783	0.32972
-0.02981	-0.56305
0.25071	1.06945
0.40372	1.88570
-0.00431	-3.75152
0.73524	-1.53234
1.14327	0.68683
0.48022	2.52339
0.25071	-0.35899
0.37822	-0.15492
0.37822	2.90601
-0.46334	-0.20594
-0.28482	0.50828
-0.05531	0.32972
-0.05531	-0.56305
-0.08081	0.53379
-0.28482	0.10015
0.37822	-1.14973
-0.51434	-0.18043
0.17421	-0.48652
0.78624	0.15117
1.67880	0.55929
-0.38683	-0.02739
-0.10631	0.35523
-0.15732	0.27871
1.11776	0.45726
0.73524	0.43176
-0.00431	0.32972
-0.05531	0.10015
-0.53984	0.10015
-0.82036	0.22769
-0.48884	-0.10391
0.60773	0.07465
1.09226	0.27871
0.60773	-0.10391
-0.20832	1.83468
-0.28482	-0.48652
-0.38683	-1.65988
0.32721	-0.05289
0.12320	0.96742
0.63323	-0.35899
0.88825	0.22769
0.78624	1.35003
-0.25932	1.09496
-0.25932	0.73785
-0.08081	0.89089
0.07220	0.02363
0.02119	-0.12942
-0.00431	-0.30797
0.04670	-1.73640
0.53123	1.83468
-0.15732	-2.70570
0.04670	-2.80773
-0.13181	0.81437
0.30171	1.65613
0.50573	1.45206
1.42379	-0.33348
0.68424	1.75816
-0.08081	0.32972
-0.48884	-0.23145
-0.05531	0.66132
0.09770	0.55929
-0.74385	-1.32828
-0.64185	-0.05289
-0.15732	0.35523
0.17421	0.86539
0.53123	1.55410
0.53123	-0.46102
0.14870	-0.74160
0.25071	-0.05289
0.40372	-0.33348
0.30171	0.86539
0.65874	-0.58856
0.88825	-0.69059
0.07220	0.50828
-0.46334	0.40625
-0.33583	0.81437
-0.02981	1.35003
0.30171	-0.28246
0.35272	0.07465
-0.10631	0.83988
-0.15732	-1.20074
0.19971	-0.81812
0.68424	2.29382
0.58223	-0.38449
0.65874	-0.18043
0.32721	-1.32828
-1.12638	-0.00188
-0.48884	0.61031
-0.38683	1.04394
0.32721	-0.61406
0.58223	1.14597
0.07220	0.78886
0.12320	-0.07840
0.53123	-0.02739
0.09770	0.35523
-0.23382	2.08976
0.37822	-0.53754
0.35272	-2.04250
0.93925	0.04914
-0.15732	-1.07320
-0.02981	4.05386
-0.28482	-2.27207
0.17421	-3.85355
0.53123	1.14597
1.14327	2.11527
-0.25932	0.99292
-0.20832	1.70714
-0.59084	1.37554
-0.38683	-0.89465
-0.41233	0.61031
0.65874	0.17668
1.72980	-0.28246
0.65874	0.63582
-0.33583	-0.61406
-0.28482	0.20219
-0.25932	-0.86914
-0.08081	-0.58856
0.02119	-0.23145
0.12320	0.10015
0.14870	1.04394
0.83725	1.27351
0.83725	0.15117
0.81175	0.71234
0.27621	-0.74160
-0.64185	-0.25695
-0.84586	-1.04770
-0.23382	0.63582
-0.64185	0.22769
-0.59084	-0.76711
0.53123	2.11527
1.55129	0.55929
0.32721	-0.33348
-0.02981	-0.20594
-0.20832	1.55410
-0.18282	-0.43551
0.07220	-2.14453
0.40372	0.53379
0.30171	1.12046
0.04670	0.81437
-0.15732	0.94191
0.35272	0.53379
1.27078	-2.55265
0.45472	-0.38449
-0.41233	0.73785
-0.08081	0.55929
0.32721	0.91640
0.02119	0.48277
-0.23382	-0.53754
0.04670	1.01843
0.58223	-1.27726
-0.36133	-0.66508
-0.48884	-0.38449
-0.28482	1.42656
0.14870	0.32972
0.83725	0.20219
2.18883	0.81437
0.96476	0.73785
-0.20832	0.73785
-0.48884	0.55929
-0.84586	0.15117
-0.92237	-0.56305
-0.87136	-1.50683
-0.33583	-0.48652
0.83725	0.25320
1.57679	1.42656
0.99026	-0.89465
0.73524	0.45726
0.25071	0.53379
-0.66735	-0.30797
-0.92237	-0.35899
-0.76936	0.22769
0.09770	0.25320
1.01576	0.61031
0.73524	0.27871
0.35272	0.35523
0.63323	0.20219
-0.02981	1.57960
-0.23382	0.35523
0.02119	-0.56305
-0.18282	0.27871
-0.02981	0.25320
0.07220	-0.23145
-0.08081	0.40625
0.30171	-2.60367
1.21977	-1.25176
0.58223	0.27871
0.12320	1.17148
-0.05531	1.19699
-0.18282	1.60511
0.19971	-0.25695
-0.51434	0.15117
-0.76936	0.66132
-0.10631	-0.66508
0.73524	0.55929
1.04126	-0.18043
0.53123	0.25320
-0.46334	-0.20594
-0.46334	1.47757
0.07220	-0.99668
0.07220	-1.32828
0.14870	0.55929
0.53123	1.37554
0.76074	0.78886
0.42922	-0.30797
0.48022	2.34484
0.22521	-1.17523
-0.25932	-2.09351
-0.33583	-0.10391
-0.20832	1.91120
0.19971	0.68683
0.30171	-0.10391
0.17421	0.35523
0.02119	-0.74160
0.48022	-0.07840
-0.15732	-0.41000
-0.48884	0.86539
-0.48884	-0.56305
0.07220	1.04394
0.35272	0.78886
-0.08081	-0.05289
0.30171	0.61031
0.55673	0.61031
0.60773	0.17668
0.12320	-1.04770
0.48022	-0.79262
1.24527	0.20219
0.78624	0.40625
-0.25932	0.27871
-0.56534	0.55929
-0.76936	0.30422
-0.59084	0.04914
-0.15732	1.68163
-0.08081	-1.35379
-0.28482	-2.04250
0.53123	0.25320
0.76074	0.25320
0.88825	1.37554
0.07220	0.73785
0.02119	0.35523
0.35272	0.22769
0.55673	-0.07840
1.39828	-0.28246
0.02119	-0.05289
-0.48884	0.94191
-0.43783	0.48277
-0.48884	-1.20074
-0.53984	0.76336
0.19971	-0.30797
0.32721	-0.79262
0.14870	-1.32828
-0.02981	-0.25695
0.14870	0.99292
0.22521	1.09496
0.40372	1.06945
0.04670	0.66132
-0.10631	-0.66508
0.27621	0.07465
1.11776	-0.53754
0.91375	0.45726
1.01576	0.53379
0.37822	-0.79262
-0.48884	0.04914
-0.79486	0.25320
-0.51434	0.78886
-0.10631	0.55929
-0.66735	0.12566
-0.25932	0.10015
0.02119	0.43176
0.30171	0.43176
0.45472	-0.43551
0.53123	-0.43551
0.83725	0.32972
0.96476	-1.07320
-0.00431	-0.86914
-0.18282	0.76336
-0.15732	0.12566
-0.41233	1.52859
0.19971	0.86539
0.40372	0.12566
0.27621	0.50828
0.35272	0.50828
0.25071	0.91640
-0.38683	-1.50683
-0.23382	-0.48652
0.32721	-0.46102
1.01576	-0.69059
-0.00431	0.86539
-0.20832	0.96742
-0.38683	1.37554
0.07220	0.53379
1.50029	-0.18043
0.68424	-1.58336
-0.69285	-0.76711
-0.43783	0.17668
-0.66735	0.86539
-0.53984	0.96742
-0.25932	1.55410
0.04670	-1.91496
0.76074	-0.43551
1.09226	-0.20594
0.70974	-1.32828
0.70974	0.53379
0.99026	1.17148
0.37822	1.32453
-0.02981	0.83988
-1.33039	0.40625
-1.27939	0.04914
-0.74385	-0.00188
0.22521	0.20219
0.83725	-1.07320
0.76074	0.25320
0.73524	-0.35899
0.22521	-0.74160
0.25071	-0.23145
0.14870	-0.10391
0.09770	2.72745
-0.05531	-0.25695
-0.08081	-2.32308
0.19971	0.48277
0.55673	0.55929
0.65874	-0.25695
0.48022	1.37554
-0.00431	0.91640
-0.61635	0.25320
-0.53984	0.15117
-1.02437	0.15117
-0.33583	1.75816
0.42922	0.76336
1.44929	-2.01699
1.24527	-1.04770
1.16877	0.53379
0.45472	-1.55785
0.37822	-0.25695
-0.97337	0.25320
-1.35589	1.17148
-0.79486	2.11527
-0.69285	0.83988
-0.28482	-0.35899
0.17421	-0.89465
0.99026	-1.40480
2.31634	1.14597
1.27078	0.30422
-0.18282	-0.20594
-0.08081	0.73785
0.12320	0.35523
0.12320	0.53379
-0.43783	0.50828
-0.41233	-1.40480
-0.13181	-0.05289
-0.23382	-0.25695
0.60773	0.22769
0.76074	1.52859
0.12320	0.20219
-0.43783	-1.20074
-0.23382	-0.61406
0.32721	0.68683
0.42922	0.73785
0.12320	0.66132
-0.08081	-0.51203
0.02119	-0.48652
0.09770	0.78886
0.25071	1.06945
0.48022	1.12046
0.78624	-1.12422
0.19971	-0.76711
-0.10631	-1.35379
-0.36133	0.25320
-0.15732	1.45206
-0.08081	0.61031
-0.20832	0.66132
-0.18282	0.17668
0.73524	-1.07320
1.75531	0.66132
0.99026	1.01843
-0.02981	1.12046
-0.13181	-0.66508
-0.59084	-1.37929
-0.61635	0.58480
-0.66735	0.38074
-0.69285	0.12566
-0.28482	-0.02739
0.40372	0.50828
1.04126	-0.23145
0.58223	-0.35899
0.42922	0.45726
0.55673	0.25320
0.25071	-0.12942
0.07220	1.12046
0.22521	0.91640
0.60773	-1.83844
0.25071	-0.02739
0.65874	0.78886
0.09770	-0.51203
-0.51434	1.60511
-0.69285	1.78367
-0.71835	-2.83324
-0.46334	-0.58856
0.19971	1.24800
0.55673	1.01843
0.81175	0.61031
0.17421	0.22769
0.19971	0.91640
0.35272	0.48277
0.27621	-0.97117
-0.28482	-0.23145
-0.00431	0.22769
0.17421	0.10015
0.81175	0.30422
0.91375	0.32972
0.78624	0.02363
-0.08081	-0.28246
-0.56534	0.86539
-0.53984	-1.12422
-0.48884	-0.92016
-0.33583	0.04914
-0.18282	0.61031
0.63323	0.83988
1.19427	0.38074
0.35272	0.10015
-0.13181	1.78367
-0.15732	-0.33348
0.17421	-0.86914
-0.38683	1.37554
-0.23382	0.68683
0.70974	-0.41000
0.78624	-0.25695
0.35272	-2.06800
0.17421	-0.23145
0.12320	0.73785
-0.28482	1.24800
-0.38683	1.01843
0.35272	0.76336
0.27621	-1.60887
-0.10631	0.07465
0.12320	0.38074
0.19971	0.76336
0.22521	0.53379
-0.08081	-0.15492
-0.00431	0.61031
0.12320	0.30422
0.12320	-0.25695
0.96476	-0.15492
0.99026	-1.04770
0.22521	-0.97117
-0.31033	-0.02739
-0.56534	1.04394
-0.43783	1.19699
0.14870	1.96222
0.04670	0.55929
-0.13181	-2.04250
-0.18282	-0.30797
0.27621	-0.28246
0.22521	0.45726
0.81175	1.29902
0.14870	0.15117
0.40372	0.86539
0.63323	0.63582
-0.05531	-0.28246
0.02119	0.48277
-0.00431	-0.48652
0.30171	-0.86914
-0.38683	0.17668
-0.13181	0.94191
0.07220	-0.12942
0.78624	0.91640
0.68424	-1.14973
0.02119	-0.38449
-0.28482	0.86539
-0.25932	0.32972
-0.28482	-0.25695
0.27621	0.68683
0.68424	0.89089
0.30171	-0.89465
0.17421	0.35523
0.02119	0.50828
0.04670	0.73785
-0.23382	0.38074
-0.15732	-0.76711
0.50573	-0.07840
0.88825	0.43176
0.78624	0.04914
0.25071	-0.07840
0.09770	0.50828
-0.43783	-0.41000
-0.23382	-0.00188
-0.05531	0.50828
-0.05531	0.25320
-0.18282	0.10015
-0.41233	1.57960
-0.08081	-0.00188
0.65874	-2.01699
0.73524	-0.02739
0.32721	0.45726
-0.05531	0.99292
0.55673	1.42656
0.76074	-0.86914
0.40372	-0.33348
0.25071	1.29902
0.17421	-0.63957
-0.23382	-2.32308
-0.71835	1.19699
-0.61635	0.17668
-0.48884	1.88570
-0.46334	0.45726
0.48022	-1.09871
0.65874	-0.00188
0.96476	-0.02739
1.39828	0.81437
0.99026	0.76336
-0.25932	0.58480
-0.59084	0.32972
-0.56534	0.58480
-0.82036	-0.89465
0.17421	-1.50683
0.65874	-0.61406
0.73524	0.25320
-0.18282	0.02363
0.12320	0.12566
0.60773	0.78886
0.70974	1.24800
0.04670	0.73785
-0.10631	-1.32828
-0.18282	-0.79262
-0.00431	0.55929
-0.25932	0.71234
0.27621	0.96742
0.14870	-0.10391
0.19971	0.58480
0.19971	-0.58856
-0.15732	-1.83844
0.19971	0.99292
0.53123	0.04914
0.88825	0.50828
0.96476	0.96742
0.04670	0.63582
-0.23382	1.06945
-0.51434	-0.53754
-0.64185	0.91640
-0.53984	-1.12422
-0.43783	-0.46102
0.63323	-0.69059
0.48022	-1.20074
0.40372	1.50308
1.01576	0.99292
0.78624	0.71234
-0.10631	1.22250
-0.25932	1.88570
-0.48884	-0.66508
-0.74385	-0.79262
-0.05531	0.35523
0.63323	-0.10391
0.86275	0.20219
0.63323	0.25320
0.68424	-0.48652
1.32178	0.12566
-0.00431	-0.07840
-2.17195	0.50828
-1.15188	-0.00188
0.42922	-0.86914
1.16877	-0.00188
0.04670	0.86539
0.22521	0.73785
0.40372	0.35523
0.30171	0.61031
0.25071	2.44687
-0.36133	-0.92016
-0.46334	-3.29238
-0.00431	0.20219
0.09770	0.66132
0.96476	2.85499
0.60773	-0.43551
0.55673	-2.22105
0.42922	1.01843
0.12320	0.20219
-0.05531	0.50828
0.02119	-0.25695
-0.41233	1.06945
-0.43783	-0.25695
-0.20832	-0.05289
0.91375	0.76336
0.78624	0.40625
0.17421	0.12566
-0.23382	0.04914
-0.23382	-0.15492
-0.36133	-0.23145
0.32721	0.20219
0.60773	-0.28246
0.27621	-0.15492
0.53123	0.50828
1.11776	-0.56305
0.76074	-1.02219
0.53123	-0.35899
-0.36133	1.01843
-1.33039	0.99292
-1.27939	1.40105
-1.04987	0.30422
-1.15188	-0.86914
0.55673	0.55929
1.16877	0.32972
1.95932	0.89089
1.01576	1.37554
0.50573	-1.55785
0.58223	-1.88945
0.53123	0.53379
-0.38683	0.10015
-0.89686	-0.02739
-0.92237	1.19699
0.32721	0.78886
0.91375	-2.09351
0.73524	1.37554
0.32721	0.20219
0.19971	0.81437
-0.31033	-0.25695
-0.28482	-0.61406
-0.31033	0.58480
-0.18282	0.12566
0.19971	0.58480
0.58223	0.86539
0.53123	0.50828
-0.08081	-0.48652
-0.10631	-0.69059
0.53123	0.73785
1.14327	0.30422
0.12320	-0.51203
-0.31033	-0.81812
-0.05531	-0.05289
-0.10631	2.11527
0.09770	0.61031
-0.05531	-0.69059
0.35272	0.30422
0.32721	-1.12422
-0.25932	0.07465
0.02119	0.50828
0.09770	0.61031
0.55673	0.35523
-0.10631	1.06945
-0.20832	0.78886
-0.00431	0.15117
0.07220	-0.61406
-0.08081	-0.56305
0.42922	0.63582
0.88825	-0.00188
0.48022	-0.53754
0.12320	-1.37929
-0.46334	0.55929
-0.28482	0.53379
0.73524	0.83988
1.27078	1.04394
0.35272	-0.15492
-0.23382	-0.97117
-0.02981	1.83468
-0.61635	-1.86394
-0.46334	0.25320
-0.23382	0.40625
0.14870	-0.89465
0.32721	0.35523
0.45472	0.91640
0.35272	1.19699
0.35272	-0.51203
0.07220	0.25320
-0.25932	0.48277
0.50573	0.45726
-0.08081	0.68683
-0.08081	-0.48652
0.42922	-0.71609
1.57679	1.24800
0.58223	0.04914
-0.31033	-0.61406
-1.02437	-0.25695
-0.13181	0.17668
0.09770	0.17668
0.09770	-0.10391
0.19971	-0.05289
0.63323	1.42656
1.01576	0.66132
0.14870	-2.90976
-0.41233	-0.61406
-0.05531	1.93671
-0.10631	0.35523
-0.20832	0.35523
0.09770	0.76336
-0.08081	-0.23145
0.17421	-0.18043
0.60773	0.43176
0.45472	0.86539
0.17421	0.25320
0.12320	1.12046
0.19971	0.25320
0.12320	-2.32308
0.02119	-0.86914
0.22521	0.40625
0.12320	0.61031
0.02119	1.09496
-0.08081	-0.58856
0.02119	-1.07320
0.63323	0.76336
0.27621	-1.32828
-0.20832	-0.02739
0.09770	1.19699
0.02119	1.04394
-0.02981	0.78886
0.27621	0.40625
0.19971	0.78886
0.22521	0.55929
-0.00431	-1.43031
0.45472	-0.58856
0.42922	-0.10391
0.07220	0.66132
-0.13181	0.07465
0.07220	-1.14973
-0.10631	0.48277
0.19971	0.25320
0.12320	0.17668
0.78624	1.09496
-0.46334	0.04914
-0.51434	-1.40480
0.22521	-0.30797
0.88825	0.94191
0.58223	0.73785
-0.33583	0.53379
-0.25932	1.70714
0.17421	2.26831
0.63323	-3.24136
0.32721	-3.24136
0.30171	0.55929
-0.00431	0.96742
-0.10631	1.63062
-0.33583	0.61031
0.04670	0.73785
0.60773	1.52859
0.88825	-2.14453
-0.00431	-1.35379
0.07220	0.40625
-0.00431	0.55929
-0.43783	0.94191
-0.48884	0.15117
0.07220	0.35523
0.93925	0.55929
0.68424	-0.18043
0.35272	-0.76711
-0.13181	0.22769
-0.13181	-0.58856
0.27621	0.10015
-0.05531	0.50828
-0.28482	1.17148
-0.18282	1.47757
0.12320	0.15117
0.40372	-1.35379
0.58223	-0.38449
0.17421	-0.00188
0.14870	-0.38449
0.30171	1.63062
0.17421	0.40625
-0.18282	0.53379
-0.28482	-1.17523
0.17421	0.50828
1.01576	0.53379
0.83725	-0.00188
1.19427	0.25320
-0.13181	-0.15492
-0.74385	0.81437
-0.76936	-0.23145
-0.33583	0.32972
-0.23382	-1.50683
-0.20832	-1.73640
-0.28482	0.58480
-0.10631	1.24800
1.34728	1.45206
2.06133	1.19699
0.99026	0.38074
-0.36133	0.32972
-0.46334	-0.02739
-0.05531	0.04914
-0.10631	0.04914
-0.74385	-0.05289
-0.69285	-0.84363
0.68424	-1.14973
1.44929	0.53379
1.27078	0.10015
0.32721	1.42656
-0.69285	-0.28246
-0.61635	0.22769
-0.31033	-0.41000
-0.25932	0.48277
-0.08081	0.40625
-0.28482	0.96742
0.25071	-0.10391
0.93925	-0.79262
2.18883	-0.15492
0.73524	-0.71609
-0.08081	1.09496
-0.20832	2.08976
-0.61635	-0.86914
-0.87136	-0.46102
-0.53984	1.78367
-0.33583	-0.41000
-0.05531	-1.73640
0.76074	0.22769
1.39828	0.91640
1.19427	0.45726
-0.25932	0.32972
-0.23382	-0.05289
0.19971	0.35523
0.04670	0.22769
-0.15732	-0.07840
0.02119	-0.07840
0.02119	0.40625
-0.18282	-0.15492
0.22521	-1.22625
1.01576	-0.66508
0.35272	1.06945
-0.05531	0.40625
-0.15732	-0.02739
-0.33583	-0.18043
-0.46334	0.50828
0.19971	0.99292
0.32721	1.06945
0.40372	0.04914
0.48022	0.30422
0.22521	-0.76711
0.27621	1.19699
0.12320	2.06425
0.02119	-2.85874
0.07220	-2.52714
0.55673	0.25320
0.02119	1.40105
0.19971	0.20219
0.32721	2.57441
-0.18282	0.71234
-0.46334	-0.94566
0.17421	0.17668
0.35272	0.15117
0.19971	-0.97117
-0.43783	-1.04770
-0.87136	0.10015
0.04670	0.86539
1.14327	0.89089
1.09226	0.89089
-0.25932	0.48277
-0.10631	0.58480
0.19971	0.48277
0.25071	-1.07320
0.32721	-1.17523
0.17421	-0.66508
0.07220	0.50828
-0.02981	0.68683
-0.13181	-0.10391
0.27621	0.78886
0.63323	-0.07840
0.86275	0.71234
0.45472	0.07465
0.35272	-0.66508
-0.18282	0.45726
-0.46334	0.66132
-0.33583	0.32972
-0.79486	0.45726
-0.66735	-0.74160
-0.05531	-0.53754
0.99026	0.73785
0.88825	1.17148
0.83725	0.40625
0.35272	-1.25176
0.07220	-2.39961
-0.53984	0.15117
-0.15732	1.14597
-0.13181	1.27351
-0.08081	1.17148
-0.18282	0.55929
0.17421	0.38074
0.42922	0.61031
0.91375	-0.02739
0.70974	-0.35899
0.55673	-0.18043
-0.00431	-0.38449
-0.05531	0.17668
-0.33583	2.65093
-0.18282	-2.29757
0.53123	-2.37410
0.32721	-0.15492
0.07220	0.53379
-0.59084	2.26831
-0.31033	1.19699
-0.02981	-0.41000
0.35272	0.27871
0.53123	1.06945
0.25071	-0.28246
0.07220	-0.38449
0.30171	1.52859
0.30171	-0.30797
0.27621	0.04914
-0.08081	-0.15492
-0.18282	-0.63957
-0.20832	-0.25695
0.12320	-0.46102
0.12320	0.55929
0.02119	0.96742
0.14870	-0.20594
0.32721	0.02363
0.70974	-0.41000
0.83725	-0.00188
0.53123	1.27351
-0.18282	-0.00188
-0.00431	-0.28246
0.02119	0.30422
-0.56534	0.40625
-0.25932	0.63582
0.55673	0.10015
0.35272	-1.02219
-0.05531	0.48277
0.09770	1.60511
0.22521	-1.63437
0.37822	-0.74160
-0.00431	0.73785
-0.38683	1.52859
-0.08081	-1.76191
0.30171	1.96222
0.25071	-0.71609
0.04670	-1.12422
0.02119	0.68683
0.32721	1.09496
0.27621	0.43176
0.55673	0.66132
0.42922	1.96222
-0.18282	-0.61406
-0.23382	-2.14453
0.19971	-0.97117
0.55673	-1.04770
-0.20832	0.91640
0.42922	0.63582
0.02119	0.04914
-0.46334	1.01843
0.17421	0.83988
1.24527	1.37554
0.63323	0.15117
-0.48884	-1.02219
-0.53984	-0.46102
-0.28482	-0.38449
0.17421	0.91640
0.32721	1.88570
-0.00431	-1.32828
0.14870	-1.53234
0.68424	0.45726
0.88825	-0.58856
0.19971	0.61031
-0.38683	1.35003
-0.08081	0.40625
0.60773	0.30422
0.30171	1.32453
0.14870	-1.07320
-0.28482	0.12566
-0.31033	0.48277
-0.10631	0.35523
0.27621	-0.58856
0.07220	-0.61406
-0.18282	0.32972
-0.36133	0.83988
0.25071	0.50828
1.29628	0.50828
1.75531	-0.46102
0.32721	-1.88945
-0.20832	-0.48652
-0.61635	0.73785
-0.48884	0.96742
-0.53984	0.50828
-0.69285	0.86539
-0.38683	0.55929
0.48022	0.38074
1.29628	-0.28246
0.99026	0.07465
0.48022	-0.25695
0.14870	-0.02739
-0.28482	0.53379
-0.10631	0.40625
-0.48884	0.38074
0.09770	-0.46102
1.21977	-3.13933
0.70974	0.22769
-0.13181	1.24800
-0.10631	1.68163
-0.25932	-0.46102
-0.53984	0.83988
-0.38683	1.06945
-0.31033	0.25320
-0.23382	-0.18043
0.35272	-0.02739
1.21977	0.02363
1.95932	0.73785
0.37822	0.15117
-0.05531	0.15117
-0.10631	0.35523
-0.46334	-0.10391
-0.33583	0.12566
-0.15732	0.02363
-0.23382	-0.66508
-0.20832	0.61031
0.48022	-0.35899
1.19427	-0.48652
0.60773	-0.38449
-0.23382	0.78886
-0.08081	0.40625
-0.10631	0.27871
-0.25932	0.76336
-0.13181	0.02363
0.91375	0.50828
1.90832	2.47238
0.19971	-1.35379
-0.94787	-2.34859
-0.79486	0.53379
-0.33583	1.32453
0.25071	0.20219
0.02119	-1.04770
0.17421	0.78886
0.35272	3.00804
0.42922	-2.42511
0.32721	-0.48652
0.35272	0.53379
-0.00431	-0.46102
-0.25932	0.40625
0.09770	1.55410
0.45472	0.20219
0.96476	0.20219
0.42922	0.45726
0.60773	-0.12942
-0.13181	-0.28246
-0.69285	-0.38449
-0.79486	-0.46102
-0.51434	0.55929
0.02119	-0.48652
0.73524	-0.35899
0.25071	0.78886
-0.00431	0.40625
0.30171	-0.18043
1.09226	0.15117
0.22521	1.01843
-0.13181	1.01843
-0.23382	-1.17523
-0.05531	-0.56305
-0.02981	0.35523
0.32721	1.86019
0.27621	1.22250
0.27621	-1.07320
0.83725	-0.86914
0.53123	-0.12942
0.22521	0.96742
-0.18282	1.14597
-0.25932	0.04914
-0.28482	-0.00188
-0.53984	0.04914
0.30171	0.55929
1.29628	0.45726
0.55673	0.25320
0.14870	0.02363
0.48022	0.04914
-0.31033	-0.05289
-0.61635	-0.18043
-0.82036	1.73265
-0.51434	-2.32308
-0.43783	-1.88945
0.42922	0.55929
0.40372	0.61031
1.37278	1.06945
1.04126	0.55929
1.16877	0.86539
0.50573	1.01843
-0.25932	0.38074
-0.33583	0.15117
-0.79486	1.06945
-0.38683	-0.33348
-0.28482	-2.17003
-0.05531	-0.99668
0.58223	0.83988
0.60773	0.35523
0.60773	0.81437
0.14870	1.45206
0.19971	-0.35899
0.09770	-0.12942
-0.05531	0.35523
0.04670	0.63582
-0.08081	-0.10391
0.19971	0.61031
0.42922	0.27871
0.42922	-1.20074
0.22521	-0.46102
-0.02981	0.78886
0.07220	0.40625
-0.31033	-1.22625
-0.61635	0.07465
0.12320	0.45726
0.63323	0.61031
0.70974	0.61031
-0.13181	0.48277
-0.10631	1.14597
0.48022	-0.05289
0.42922	-1.35379
0.17421	-2.98628
0.22521	-0.69059
-0.08081	0.99292
-0.05531	2.14077
-0.20832	1.14597
-0.05531	0.50828
0.07220	1.14597
0.27621	1.24800
0.53123	-0.86914
1.16877	-0.66508
-0.02981	-0.30797
-0.18282	0.15117
-0.18282	0.81437
0.02119	-0.05289
-0.28482	-0.15492
-0.25932	-0.89465
-0.08081	-0.76711
0.65874	0.15117
1.09226	0.83988
1.14327	0.30422
0.42922	0.04914
-0.66735	0.45726
-0.61635	0.76336
-0.31033	0.35523
-0.41233	-0.30797
-0.10631	0.02363
0.40372	0.32972
1.11776	0.20219
0.68424	1.68163
-0.08081	0.02363
-0.92237	-1.40480
-0.38683	-0.28246
0.83725	1.04394
1.32178	0.15117
0.32721	-0.00188
-0.20832	0.86539
-0.41233	0.35523
-0.33583	-0.46102
-0.13181	1.45206
0.02119	-0.15492
-0.31033	-3.29238
-0.00431	0.10015
0.60773	0.48277
0.88825	1.04394
0.58223	0.22769
0.53123	0.71234
0.60773	0.94191
0.09770	2.65093
-0.02981	-0.02739
-0.10631	-2.90976
0.12320	-0.86914
-0.15732	0.53379
-0.76936	1.37554
-0.46334	2.01323
0.22521	-1.73640
0.70974	-1.37929
0.35272	1.22250
0.40372	0.10015
0.07220	0.17668
0.30171	0.38074
0.37822	0.66132
0.04670	1.24800
-0.10631	-0.20594
-0.25932	-0.46102
-0.31033	0.04914
-0.02981	0.55929
0.70974	-0.43551
1.01576	-0.63957
0.19971	0.20219
-0.10631	0.22769
-0.43783	0.40625
-0.28482	0.71234
0.07220	-0.86914
0.30171	-0.02739
0.22521	0.76336
0.37822	0.78886
0.86275	-1.12422
0.53123	-0.74160
0.09770	1.12046
-0.79486	-0.33348
-0.51434	0.17668
0.48022	1.04394
0.17421	0.83988
-0.02981	0.86539
-0.00431	0.22769
-0.00431	-0.07840
0.12320	0.73785
0.19971	0.83988
0.25071	-1.88945
0.53123	-1.99148
0.88825	0.10015
0.78624	0.89089
0.48022	1.09496
-0.23382	-1.02219
-0.43783	0.86539
0.22521	1.37554
-0.10631	0.58480
-0.33583	-0.00188
-0.33583	0.20219
-0.25932	0.25320
0.22521	-0.10391
0.17421	-0.25695
0.12320	-0.20594
0.09770	-0.46102
0.07220	1.55410
0.12320	0.15117
0.40372	-0.76711
1.04126	-0.12942
0.70974	0.38074
-0.18282	0.30422
-0.38683	-0.25695
-0.20832	-0.05289
0.19971	0.86539
0.27621	0.91640
0.70974	0.78886
0.14870	2.14077
-0.51434	0.27871
-0.20832	-2.47613
0.27621	-2.34859
0.78624	-0.35899
-0.25932	1.19699
-0.53984	0.94191
-0.46334	1.60511
0.37822	-1.48133
0.22521	-1.09871
-0.10631	0.43176
-0.10631	1.04394
0.63323	0.81437
1.50029	0.35523
0.83725	1.45206
0.12320	-1.07320
-0.13181	-0.76711
-0.41233	0.32972
-0.33583	0.45726
-0.20832	-0.35899
-0.20832	0.25320
-0.18282	1.27351
0.68424	-0.28246
1.39828	-0.30797
0.96476	-1.99148
0.37822	0.35523
-0.23382	0.81437
-0.71835	1.50308
-1.20288	1.35003
-0.46334	0.10015
0.12320	0.55929
0.35272	-0.66508
0.53123	-0.66508
0.91375	-0.00188
0.30171	-0.86914
-0.08081	0.73785
0.02119	0.43176
-0.36133	0.43176
-0.31033	0.83988
-0.20832	-0.25695
-0.36133	-0.86914
1.34728	1.19699
1.44929	-0.53754
1.90832	-0.74160
1.09226	0.22769
-0.38683	0.40625
-1.25389	1.80917
-1.12638	-0.10391
-0.74385	-2.22105
-0.41233	0.35523
-0.18282	0.40625
0.27621	0.25320
0.88825	0.89089
0.63323	1.47757
0.53123	-0.18043
0.27621	-1.17523
0.27621	0.35523
-0.05531	0.25320
0.02119	1.01843
0.09770	0.66132
0.40372	0.02363
0.09770	-0.02739
0.50573	-0.63957
0.42922	-1.04770
0.48022	-0.05289
-0.71835	0.50828
-0.38683	0.20219
-0.08081	0.12566
0.48022	-0.00188
0.32721	0.86539
-0.43783	0.53379
-0.36133	0.48277
0.68424	0.38074
1.27078	-0.07840
-0.08081	0.02363
-0.08081	-0.71609
-0.08081	-0.38449
-0.28482	0.45726
0.12320	0.99292
0.35272	1.50308
-0.13181	-1.60887
0.19971	0.10015
0.68424	-0.35899
0.68424	-0.61406
0.25071	2.11527
-0.05531	0.20219
-0.28482	-0.43551
-0.02981	-0.84363
0.25071	1.22250
0.22521	0.61031
0.78624	1.12046
0.37822	0.89089
-0.36133	1.32453
0.17421	-0.92016
0.42922	-2.22105
0.07220	-0.86914
-0.13181	-1.27726
-0.28482	0.45726
-0.28482	0.48277
0.22521	2.16628
0.63323	0.15117
0.17421	-0.35899
-0.36133	0.61031
-0.38683	0.48277
0.12320	0.27871
0.96476	0.45726
0.58223	-0.41000
0.70974	0.61031
0.81175	0.35523
0.22521	-2.29757
-0.64185	0.96742
-0.76936	-1.27726
-0.31033	-0.15492
0.68424	0.99292
0.91375	0.63582
-0.28482	1.17148
-0.28482	0.45726
-0.46334	-0.23145
-0.13181	-0.20594
0.40372	1.32453
0.55673	0.15117
0.25071	-0.76711
0.17421	0.68683
0.32721	0.71234
0.53123	0.15117
0.50573	0.20219
0.30171	0.30422
0.35272	0.35523
0.50573	-0.20594
0.17421	-0.51203
-0.53984	0.02363
-0.53984	0.32972
-0.46334	0.02363
-0.46334	0.02363
-0.23382	0.48277
0.48022	0.15117
0.32721	0.35523
0.50573	1.27351
0.09770	-0.20594
0.12320	-1.48133
0.58223	-0.43551
1.52579	0.53379
0.22521	0.55929
-0.38683	0.55929
-0.56534	1.22250
-0.66735	0.30422
-0.31033	0.22769
-0.20832	0.20219
0.32721	1.19699
0.83725	-1.76191
0.35272	-3.82804
0.35272	0.53379
0.48022	1.75816
0.17421	1.52859
0.35272	0.76336
0.12320	-0.92016
-0.00431	2.01323
-0.05531	3.97733
-0.05531	0.35523
0.07220	-3.36890
-0.00431	-1.14973
0.14870	-0.12942
0.12320	0.15117
0.09770	-0.38449
-0.20832	0.07465
-0.05531	0.63582
-0.10631	0.63582
-0.02981	-0.81812
0.65874	-0.00188
0.78624	1.45206
-0.23382	-0.05289
0.30171	-0.63957
0.83725	0.22769
0.96476	0.89089
-0.43783	0.94191
-0.61635	0.20219
-0.59084	-0.84363
-0.46334	-0.12942
0.02119	1.04394
0.53123	-0.38449
0.37822	0.30422
0.63323	1.78367
0.22521	-0.46102
0.07220	-2.34859
0.32721	0.76336
-0.05531	0.58480
0.09770	0.35523
0.32721	0.15117
0.32721	0.15117
0.12320	0.96742
0.19971	2.39585
-0.02981	-1.07320
-0.18282	-2.85874
0.04670	0.02363
-0.08081	0.35523
0.40372	1.17148
0.35272	0.45726
0.14870	-0.89465
-0.05531	2.26831
-0.05531	-0.43551
0.86275	-2.19554
0.99026	0.89089
0.58223	0.99292
0.04670	0.91640
-0.87136	-0.02739
-0.89686	-0.23145
-0.82036	0.07465
-0.31033	0.81437
-0.13181	-0.56305
0.22521	-0.07840
0.50573	0.20219
0.60773	1.65613
1.24527	0.04914
1.93382	-0.46102
1.01576	-1.81293
-0.28482	-0.97117
-0.46334	0.86539
-0.89686	0.25320
-0.89686	1.47757
0.12320	-0.07840
0.50573	1.73265
-0.00431	-0.10391
0.12320	0.15117
0.60773	0.25320
0.65874	-0.30797
0.02119	0.30422
-0.41233	0.10015
-0.69285	-0.92016
-0.74385	-0.07840
0.32721	0.94191
0.73524	0.43176
1.01576	0.76336
0.86275	-0.79262
1.44929	-1.40480
0.25071	1.09496
-0.69285	1.06945
-0.94787	1.35003
-0.69285	-0.10391
-0.76936	0.71234
0.35272	-0.05289
0.42922	-1.53234
0.14870	-0.53754
0.88825	-0.15492
1.75531	0.99292
1.21977	1.04394
0.12320	0.89089
-0.43783	0.68683
-0.53984	0.32972
-1.22839	0.35523
-1.07538	-0.33348
-0.41233	-1.35379
0.40372	0.22769
0.63323	-0.15492
0.68424	-0.30797
0.25071	0.07465
0.45472	0.35523
0.25071	0.66132
0.19971	1.96222
0.07220	-1.63437
0.27621	-0.41000
0.19971	-0.38449
0.40372	1.01843
0.30171	1.42656
0.37822	-0.51203
-0.00431	-0.25695
0.25071	0.99292
-0.02981	-0.23145
-0.00431	0.86539
-0.59084	1.06945
-0.43783	0.66132
-0.25932	-3.31788
0.22521	-1.48133
0.35272	-0.12942
0.30171	1.22250
0.40372	1.60511
0.17421	0.04914
0.27621	1.40105
0.68424	-0.12942
0.48022	-0.33348
0.60773	0.76336
0.09770	-0.43551
-0.23382	0.63582
-0.23382	0.61031
0.35272	-0.15492
0.30171	0.17668
-0.28482	-0.28246
-0.66735	-0.38449
-0.18282	0.12566
0.30171	0.68683
0.32721	-0.12942
0.04670	-0.89465
0.07220	0.99292
0.53123	0.07465
1.01576	0.81437
0.50573	0.71234
0.07220	-0.30797
-0.46334	0.04914
-0.28482	0.20219
0.09770	1.78367
0.48022	-0.43551
0.25071	-0.89465
0.32721	-0.10391
0.12320	-0.12942
0.50573	1.29902
0.40372	-0.35899
-0.10631	-0.12942
-0.23382	0.32972
-0.23382	0.53379
-0.10631	2.34484
-0.33583	-0.46102
0.22521	-1.20074
0.68424	-0.10391
0.93925	-0.15492
0.60773	0.66132
0.02119	0.35523
-0.31033	-0.00188
0.12320	0.86539
0.02119	-0.56305
-0.74385	-0.28246
-0.20832	-0.86914
0.27621	-0.35899
0.17421	0.43176
0.30171	0.76336
0.70974	0.83988
0.37822	0.86539
0.35272	0.48277
0.27621	0.10015
0.25071	-0.15492
-0.28482	-0.20594
0.09770	1.19699
0.19971	-0.33348
-0.18282	-0.20594
-0.38683	-0.35899
-0.08081	-1.65988
0.55673	1.83468
1.06676	1.24800
0.07220	-3.24136
-0.23382	-0.58856
-0.13181	1.68163
-0.28482	1.52859
-0.74385	1.14597
0.55673	1.27351
0.99026	0.35523
1.29628	0.48277
0.63323	-0.33348
0.22521	-1.32828
-0.36133	-0.25695
-0.74385	0.25320
-0.41233	0.17668
0.02119	0.12566
0.04670	-0.46102
0.42922	-0.00188
0.45472	0.15117
-0.05531	-0.00188
0.17421	0.30422
0.30171	0.38074
0.68424	0.53379
0.22521	1.73265
0.07220	-0.94566
0.04670	-0.99668
0.04670	0.71234
-0.33583	0.50828
-0.15732	0.68683
0.32721	2.29382
0.42922	-1.86394
0.42922	-3.57296
-0.02981	0.96742
0.02119	1.98773
0.09770	1.29902
0.19971	-0.00188
-0.15732	1.06945
