0.22521	-0.58856
0.19971	0.66132
0.07220	-0.46102
-0.05531	-0.10391
0.04670	0.86539
0.07220	1.04394
0.19971	-0.07840
0.14870	-0.38449
0.14870	-0.15492
0.22521	0.40625
0.22521	-0.33348
0.07220	0.94191
0.02119	0.12566
0.04670	-0.63957
0.02119	0.89089
0.04670	0.68683
0.35272	-0.63957
0.27621	0.22769
0.17421	0.12566
0.27621	-0.10391
0.17421	-0.56305
0.09770	0.89089
0.09770	0.83988
-0.02981	-0.38449
-0.00431	0.63582
0.17421	0.30422
0.12320	-0.51203
0.25071	0.58480
0.22521	0.04914
0.17421	-0.35899
0.27621	-0.66508
0.12320	0.32972
0.12320	0.32972
0.09770	0.61031
-0.02981	-0.35899
0.02119	0.15117
0.22521	0.50828
0.22521	-0.48652
0.19971	1.29902
0.25071	1.27351
0.19971	-0.76711
0.22521	0.94191
0.04670	-0.66508
-0.10631	-0.41000
-0.00431	0.20219
0.12320	-0.12942
0.27621	0.43176
0.27621	-0.38449
0.22521	-0.89465
0.19971	1.57960
0.30171	0.48277
0.12320	0.07465
-0.05531	-1.09871
0.02119	0.76336
0.04670	0.35523
-0.00431	-0.43551
0.22521	0.86539
0.32721	0.35523
0.27621	-0.38449
0.19971	0.04914
0.19971	0.86539
-0.00431	0.22769
0.02119	-0.25695
0.09770	-0.28246
-0.08081	-0.20594
-0.00431	0.81437
0.35272	-0.15492
0.17421	0.10015
0.22521	0.25320
0.14870	-0.00188
0.07220	0.50828
0.14870	-0.15492
0.12320	0.76336
0.07220	-0.74160
0.17421	0.25320
0.09770	0.27871
0.12320	0.73785
0.32721	0.55929
0.25071	0.35523
0.14870	-0.05289
0.12320	-0.56305
0.12320	0.35523
0.04670	-0.86914
0.02119	0.35523
0.09770	1.19699
0.12320	0.86539
0.12320	-1.30277
0.27621	0.61031
0.27621	0.17668
0.19971	-0.61406
0.07220	-0.18043
0.14870	-0.05289
0.07220	0.25320
0.02119	0.02363
0.07220	0.83988
0.04670	0.55929
0.14870	0.02363
0.32721	0.02363
0.37822	-0.02739
0.22521	0.43176
0.09770	-0.18043
0.04670	0.68683
-0.02981	0.15117
-0.00431	-0.33348
0.07220	0.43176
-0.08081	-0.46102
0.32721	0.45726
0.37822	0.27871
0.17421	-1.27726
0.25071	1.17148
0.22521	0.40625
0.12320	-0.15492
0.04670	-0.02739
-0.02981	0.68683
0.02119	-0.30797
0.14870	-0.66508
0.25071	-0.02739
0.32721	0.58480
0.27621	1.75816
0.22521	-1.37929
0.12320	0.91640
0.04670	2.31933
0.12320	-0.30797
-0.00431	0.04914
0.09770	0.10015
0.04670	-0.28246
0.27621	-0.30797
0.14870	-0.56305
0.27621	-0.43551
0.19971	0.61031
0.19971	-0.02739
0.32721	1.17148
0.09770	0.10015
-0.08081	0.25320
0.02119	-0.07840
-0.00431	0.02363
0.25071	-0.15492
0.27621	0.04914
0.22521	1.09496
0.19971	0.02363
0.14870	-0.02739
0.17421	-0.05289
0.02119	-0.02739
-0.00431	-0.05289
0.02119	-0.02739
0.09770	0.76336
0.22521	-0.05289
0.19971	0.07465
0.30171	-0.69059
0.19971	1.37554
0.22521	0.55929
0.09770	-0.35899
0.02119	-0.12942
-0.00431	-0.07840
-0.00431	0.22769
-0.02981	-0.02739
0.25071	-0.35899
0.35272	0.86539
0.37822	0.61031
0.27621	0.30422
0.02119	-0.86914
-0.05531	-0.23145
0.09770	1.14597
-0.08081	1.04394
0.09770	-0.35899
0.12320	-1.14973
0.22521	-0.56305
0.32721	2.21730
0.12320	0.78886
0.19971	-1.43031
0.17421	-0.84363
0.12320	-0.05289
0.12320	0.96742
0.04670	-0.05289
-0.05531	0.71234
0.14870	0.30422
0.22521	-0.61406
0.30171	0.81437
0.17421	0.32972
0.19971	-0.05289
0.17421	-0.05289
-0.00431	-0.28246
0.07220	0.20219
0.12320	-0.43551
-0.00431	0.32972
-0.00431	-0.38449
0.30171	1.57960
0.22521	0.45726
0.19971	-0.41000
0.14870	-0.15492
0.19971	-0.00188
0.27621	-0.86914
0.07220	1.45206
-0.05531	0.27871
0.07220	0.04914
0.04670	0.22769
0.17421	-0.12942
0.27621	-0.15492
0.22521	1.45206
0.14870	0.22769
0.12320	-0.43551
0.17421	-0.12942
0.07220	0.12566
-0.08081	-0.46102
-0.00431	-0.25695
0.09770	0.10015
0.22521	0.35523
0.19971	0.61031
0.32721	0.43176
0.17421	0.12566
0.14870	-0.02739
0.14870	0.40625
-0.00431	0.35523
0.02119	-0.15492
0.12320	-0.15492
0.04670	0.27871
0.22521	0.32972
0.25071	0.12566
0.27621	0.55929
0.22521	0.43176
0.09770	-0.97117
0.14870	-0.71609
0.17421	0.20219
-0.00431	0.55929
-0.10631	0.99292
0.17421	0.15117
0.32721	-1.17523
0.22521	0.35523
0.22521	0.53379
0.19971	0.25320
0.19971	0.22769
0.02119	0.40625
0.02119	0.43176
0.14870	0.50828
-0.05531	0.12566
0.07220	-0.46102
0.14870	-0.30797
0.17421	-0.05289
0.25071	0.12566
0.37822	-0.07840
0.37822	0.15117
0.02119	0.76336
0.02119	-0.35899
0.07220	0.30422
0.02119	0.45726
0.12320	0.27871
0.37822	-0.25695
0.14870	-0.30797
0.02119	0.66132
0.07220	1.93671
0.19971	0.22769
0.17421	-1.58336
-0.00431	0.22769
-0.00431	0.50828
0.17421	0.61031
0.12320	0.53379
0.09770	0.55929
0.27621	0.12566
0.27621	0.40625
0.14870	-0.28246
-0.00431	-1.48133
0.27621	-0.69059
0.25071	0.83988
0.14870	1.50308
-0.02981	-0.07840
-0.13181	-1.25176
0.22521	0.27871
0.48022	1.37554
-0.10631	0.81437
-0.02981	-0.02739
0.14870	-1.25176
0.02119	1.22250
0.27621	-0.07840
0.32721	-0.38449
0.25071	0.30422
0.09770	-0.00188
0.12320	0.12566
-0.05531	-0.18043
0.17421	0.91640
0.14870	0.35523
0.63323	-0.07840
0.32721	-0.10391
0.40372	0.76336
0.30171	0.53379
-0.48884	-1.17523
-0.33583	-0.53754
-0.38683	-0.10391
-0.28482	-0.18043
-0.05531	1.93671
0.27621	1.12046
0.32721	-1.35379
0.63323	0.73785
0.70974	0.10015
0.45472	0.27871
0.48022	0.55929
-0.00431	-0.35899
0.17421	0.12566
0.12320	0.76336
0.17421	0.43176
0.27621	2.03874
0.14870	-0.86914
0.37822	-2.68019
0.19971	0.25320
0.22521	0.25320
-0.82036	0.68683
-0.71835	0.27871
-0.18282	-0.38449
0.58223	1.37554
0.37822	0.40625
0.19971	0.48277
0.32721	-1.78742
0.37822	-1.17523
0.32721	1.17148
0.02119	-0.25695
-0.15732	-0.76711
0.12320	0.45726
0.02119	1.37554
0.02119	0.76336
0.42922	0.48277
0.73524	1.35003
1.04126	-0.28246
0.53123	-0.86914
0.12320	-0.07840
0.22521	0.35523
-0.53984	0.40625
-0.87136	1.06945
-0.28482	-1.20074
0.42922	-3.29238
0.53123	-0.23145
-0.02981	2.98253
-0.59084	0.83988
-0.41233	-2.83324
0.02119	-0.02739
0.14870	0.99292
0.35272	0.71234
0.70974	1.42656
0.73524	1.35003
0.19971	1.17148
0.27621	-0.51203
0.48022	0.50828
1.11776	0.68683
0.63323	0.27871
-0.31033	-1.09871
-0.87136	-1.27726
-1.22839	-0.05289
-0.94787	0.40625
-0.31033	0.76336
-0.02981	-0.71609
0.22521	0.15117
0.76074	2.37034
1.75531	-1.71090
2.21434	-4.03210
1.09226	-1.27726
0.07220	1.42656
-0.79486	1.29902
-0.79486	2.19179
-1.12638	1.27351
-1.07538	0.12566
0.17421	1.27351
1.09226	0.30422
0.73524	-0.48652
0.17421	-0.15492
-0.31033	0.12566
-0.02981	0.61031
-0.10631	-1.02219
0.40372	-1.14973
1.11776	0.35523
0.60773	1.12046
-0.13181	0.45726
-0.46334	0.68683
-0.20832	-0.00188
-0.23382	-0.33348
-0.02981	-0.48652
-0.05531	-0.33348
-0.18282	0.78886
-0.53984	0.94191
-0.00431	-0.61406
0.99026	1.12046
1.34728	-0.07840
1.80631	-2.11902
0.96476	-0.20594
0.88825	1.24800
0.04670	0.91640
-0.69285	0.99292
-1.73842	1.06945
-0.76936	1.04394
-0.92237	0.53379
0.22521	-0.76711
-0.10631	-2.62918
0.30171	-0.20594
0.19971	0.86539
-0.00431	1.47757
0.45472	-1.32828
0.99026	0.10015
0.19971	0.96742
0.37822	0.30422
0.78624	1.29902
0.91375	0.04914
0.27621	-0.38449
-0.02981	-1.32828
0.12320	1.75816
0.32721	0.22769
0.19971	0.58480
0.50573	-1.27726
-1.10088	-3.70050
-1.20288	0.83988
-0.10631	2.01323
-0.15732	1.01843
0.14870	1.57960
0.14870	1.22250
0.88825	0.94191
0.58223	0.45726
0.09770	-0.20594
-0.18282	0.15117
-0.33583	-0.25695
0.35272	-1.94047
0.68424	-0.51203
0.73524	-0.00188
0.02119	0.32972
-0.02981	0.81437
0.22521	1.73265
0.17421	-0.51203
-0.05531	-1.50683
-0.13181	1.24800
-1.02437	3.23761
0.50573	-1.07320
1.14327	-4.44022
2.06133	-0.10391
0.55673	1.83468
-0.74385	1.06945
-0.69285	1.47757
-0.18282	2.19179
-0.23382	1.73265
-0.28482	-1.91496
-0.51434	-1.86394
-0.61635	-0.97117
-0.10631	0.12566
0.81175	0.81437
1.27078	1.19699
0.93925	3.08456
0.50573	-0.81812
-0.13181	-3.08831
0.93925	-0.46102
0.76074	0.53379
0.02119	0.45726
-0.99887	0.40625
-0.84586	0.04914
-0.66735	1.32453
-0.43783	-0.15492
0.14870	-1.17523
0.48022	-0.79262
0.14870	1.65613
0.04670	1.29902
0.93925	0.45726
1.27078	1.04394
0.78624	0.94191
0.12320	-0.02739
0.40372	0.73785
0.55673	0.66132
-0.71835	-2.42511
-0.89686	-1.86394
-0.66735	0.17668
-0.74385	-0.33348
-0.33583	0.71234
0.63323	1.17148
0.58223	0.99292
0.70974	0.73785
0.17421	0.73785
0.45472	0.76336
0.58223	0.58480
0.81175	-0.58856
0.76074	-3.06281
1.06676	-1.27726
-0.36133	1.17148
-0.31033	0.86539
-1.20288	0.58480
-0.99887	2.98253
-0.43783	0.10015
0.22521	-0.94566
0.07220	0.73785
0.22521	-0.25695
0.55673	-0.66508
0.70974	0.17668
0.83725	-0.05289
0.73524	0.53379
0.35272	0.45726
-0.41233	0.04914
-0.02981	0.86539
0.32721	0.66132
0.35272	-0.56305
0.35272	-1.58336
-0.46334	-0.53754
-0.43783	0.35523
-0.28482	1.17148
0.12320	1.47757
0.42922	1.29902
0.09770	-2.78222
0.02119	-0.61406
0.09770	0.94191
1.24527	0.35523
1.32178	-1.30277
0.25071	-0.71609
-0.33583	1.88570
-1.07538	1.40105
-0.53984	1.78367
-0.15732	0.45726
0.27621	-0.33348
0.73524	0.81437
0.30171	0.17668
-0.10631	-0.69059
0.65874	-1.55785
0.78624	-0.41000
0.73524	-0.10391
0.19971	0.12566
-0.25932	0.22769
-0.79486	-0.41000
-1.43240	1.29902
-0.76936	0.17668
0.53123	-0.28246
1.93382	1.14597
0.96476	-0.51203
0.91375	-1.17523
0.09770	0.71234
0.14870	0.66132
-0.33583	1.12046
-0.61635	1.55410
-0.87136	1.78367
-0.46334	0.58480
0.55673	-0.35899
0.91375	-1.88945
0.63323	-1.99148
0.12320	-1.27726
-0.25932	0.76336
0.12320	1.68163
0.19971	0.63582
-0.79486	-0.15492
-0.33583	1.12046
1.24527	0.20219
2.18883	-2.73121
1.06676	-1.27726
-0.10631	0.94191
-0.08081	2.08976
-0.66735	0.68683
-1.22839	0.66132
-1.20288	0.22769
-0.64185	-0.76711
0.32721	1.22250
0.60773	1.19699
1.21977	-2.01699
0.68424	-2.55265
0.12320	0.32972
0.32721	0.61031
0.17421	1.06945
0.19971	2.26831
-0.20832	-0.23145
-0.20832	0.83988
1.01576	0.96742
1.95932	-1.12422
1.60230	-0.43551
-0.61635	0.17668
-1.25389	0.25320
-1.27939	-0.51203
-1.30489	-0.28246
-0.48884	1.14597
0.02119	-0.94566
0.32721	0.43176
0.78624	0.45726
1.24527	0.55929
1.24527	0.66132
0.50573	0.07465
0.45472	-0.05289
0.42922	0.91640
-0.89686	-0.38449
-1.17738	-1.73640
-0.18282	0.71234
0.88825	0.20219
1.34728	-1.96597
0.53123	-0.71609
-0.46334	1.17148
-0.53984	1.50308
-0.43783	1.55410
-0.23382	0.94191
0.12320	0.10015
0.25071	-0.63957
-0.05531	-0.48652
0.14870	0.73785
0.88825	0.99292
1.21977	-0.84363
1.72980	0.68683
0.99026	0.55929
0.30171	0.10015
-1.35589	1.19699
-1.81492	0.76336
-0.43783	-2.88425
0.30171	-2.45062
0.17421	-0.30797
0.37822	1.01843
-0.00431	1.73265
0.25071	1.42656
0.22521	2.59991
-0.15732	0.91640
-0.56534	-0.84363
-0.43783	-1.48133
0.83725	-1.94047
2.11233	-2.09351
1.85731	1.19699
0.19971	1.93671
-0.31033	2.65093
-0.92237	0.30422
-1.55991	0.45726
-1.20288	-0.48652
0.22521	-1.04770
0.99026	-1.58336
1.80631	-1.37929
0.99026	0.96742
0.45472	1.80917
-0.71835	1.75816
-0.89686	1.27351
-0.74385	0.78886
-0.41233	0.12566
-0.36133	1.96222
0.30171	-1.40480
1.32178	-1.07320
2.03582	-3.01179
0.63323	-3.67499
-0.08081	1.32453
-0.69285	2.21730
-0.53984	1.35003
-0.43783	1.75816
-0.79486	2.37034
-0.20832	-2.70570
0.53123	-0.35899
1.42379	0.32972
1.14327	-0.92016
0.22521	0.45726
-0.48884	1.29902
-0.71835	0.91640
-0.20832	0.83988
0.09770	2.06425
0.78624	-0.92016
0.25071	-1.30277
0.30171	-1.40480
-0.28482	-2.27207
-0.48884	1.45206
-0.05531	-0.05289
0.65874	-0.74160
1.21977	1.78367
-0.08081	0.15117
-0.08081	2.24281
-0.38683	-0.05289
-0.36133	-1.02219
0.30171	-0.63957
1.37278	0.38074
0.86275	1.27351
0.45472	0.38074
-0.13181	-0.99668
-0.31033	0.07465
-0.56534	0.53379
-0.74385	0.63582
-0.46334	-0.10391
0.14870	0.30422
0.48022	0.86539
0.68424	-0.56305
0.55673	-1.43031
0.09770	3.59471
-0.31033	-1.94047
0.30171	-3.77702
0.19971	-0.30797
0.09770	0.86539
0.32721	1.86019
0.45472	1.96222
0.68424	1.96222
0.37822	0.78886
0.48022	-0.48652
-0.08081	-0.94566
-0.48884	-0.30797
-0.53984	0.63582
-0.38683	-0.35899
0.53123	1.47757
-0.13181	1.60511
0.07220	-3.36890
0.45472	-1.14973
0.40372	1.80917
0.07220	0.27871
-0.53984	-2.39961
0.53123	-0.48652
1.11776	-0.18043
1.14327	2.52339
0.04670	1.52859
-0.33583	0.25320
-0.92237	1.63062
-0.25932	1.24800
0.30171	-0.92016
1.34728	-0.66508
0.17421	-0.56305
-0.28482	-1.40480
-0.59084	-0.15492
0.04670	0.71234
0.48022	0.96742
0.14870	0.48277
-0.08081	0.53379
-0.20832	0.35523
-0.28482	-1.63437
0.02119	2.03874
0.68424	-1.12422
0.68424	-2.22105
0.81175	0.15117
0.42922	1.63062
-0.41233	3.39065
-0.48884	-0.00188
-0.59084	-2.37410
-0.31033	-1.32828
0.25071	2.19179
1.24527	1.78367
1.09226	-0.46102
-0.10631	-2.57816
-0.08081	-0.58856
-0.64185	0.53379
-0.20832	1.63062
0.09770	1.50308
0.48022	1.27351
0.37822	0.73785
-0.36133	-0.30797
-0.08081	0.30422
0.73524	-0.20594
2.46935	-0.43551
1.34728	-0.99668
-0.28482	-1.71090
-1.22839	-1.94047
-0.56534	-0.56305
-0.84586	0.76336
-0.94787	1.86019
-0.61635	1.65613
0.22521	1.93671
0.78624	-0.18043
1.11776	-2.37410
1.24527	0.45726
0.12320	0.99292
-0.05531	0.02363
-0.41233	-0.63957
0.12320	1.73265
0.40372	-0.28246
-0.10631	-0.25695
-1.12638	0.22769
-0.13181	-0.10391
1.52579	-0.53754
1.78081	-0.38449
0.35272	0.78886
-0.59084	1.37554
-0.84586	0.30422
-0.53984	-0.63957
-0.05531	0.15117
0.25071	-0.15492
0.17421	0.66132
0.27621	0.38074
0.30171	1.73265
0.12320	-0.30797
-0.10631	-1.83844
0.45472	-2.70570
1.11776	-0.92016
1.98482	0.40625
0.50573	0.94191
-0.59084	1.73265
-0.87136	1.68163
-0.69285	0.73785
-0.20832	1.40105
-0.10631	0.50828
-0.59084	-1.20074
-0.05531	-1.40480
0.63323	-0.69059
0.55673	0.38074
0.48022	0.35523
-0.05531	0.12566
-0.33583	0.17668
0.42922	0.61031
-0.00431	0.12566
0.02119	-0.58856
0.73524	1.78367
0.17421	-1.88945
-0.15732	-2.24656
0.83725	0.66132
1.24527	1.32453
1.57679	2.34484
-0.59084	1.32453
-1.30489	-1.83844
-1.10088	-0.10391
-0.28482	1.22250
0.17421	0.81437
0.37822	1.01843
0.17421	-0.79262
0.48022	-1.04770
0.04670	-0.02739
0.12320	-0.07840
0.25071	0.55929
-0.13181	0.38074
-0.08081	1.12046
-0.13181	-1.32828
0.60773	-0.35899
0.86275	0.27871
1.06676	0.58480
0.45472	-0.02739
-0.46334	0.04914
-0.48884	0.48277
-0.76936	0.61031
-0.25932	0.38074
0.04670	0.12566
0.96476	1.27351
1.14327	-1.20074
0.58223	-1.71090
0.58223	1.24800
-0.10631	2.82948
-0.56534	-3.52195
-0.97337	-2.29757
-0.74385	1.19699
-0.48884	1.65613
0.02119	0.94191
0.86275	1.60511
1.55129	0.78886
1.34728	-0.07840
0.40372	-0.56305
-0.23382	0.30422
-0.46334	-0.12942
-0.08081	-0.25695
-0.08081	-0.12942
0.12320	0.35523
-0.10631	1.37554
0.07220	-1.78742
0.12320	1.42656
0.19971	-1.76191
0.04670	-3.36890
0.09770	-0.56305
0.93925	1.75816
0.99026	2.16628
0.12320	1.68163
-0.33583	1.40105
-0.38683	0.12566
-0.28482	0.55929
-0.43783	-0.15492
-0.28482	-0.30797
-0.38683	-0.30797
0.25071	0.63582
0.25071	-0.58856
0.68424	-1.43031
1.06676	0.55929
0.81175	0.17668
0.27621	-0.69059
-0.31033	0.15117
-0.18282	0.83988
-0.33583	1.12046
-0.25932	0.53379
-0.13181	-0.35899
0.02119	0.15117
0.60773	-0.02739
1.67880	-2.29757
1.14327	-0.12942
0.58223	0.91640
-0.61635	0.48277
-0.87136	1.32453
-0.87136	1.45206
-0.59084	1.35003
-0.61635	0.53379
-0.20832	-1.17523
0.42922	-2.09351
0.81175	0.17668
1.16877	1.68163
0.86275	-0.07840
0.48022	-2.80773
-0.51434	-0.51203
-0.33583	0.81437
-0.13181	0.73785
0.63323	0.96742
0.27621	0.78886
-0.23382	0.45726
-0.15732	1.22250
0.14870	-1.20074
-0.13181	-0.86914
0.58223	0.63582
0.65874	0.94191
0.27621	0.48277
-0.08081	-0.00188
-0.43783	-1.37929
-0.31033	-0.66508
0.14870	0.89089
0.42922	0.68683
0.53123	-0.00188
-0.02981	1.63062
-0.00431	-0.99668
0.27621	-1.04770
-0.25932	0.76336
0.35272	1.70714
0.37822	0.38074
0.76074	-0.18043
0.60773	-0.33348
0.37822	-1.02219
0.14870	0.38074
-0.61635	0.55929
-0.74385	0.63582
-0.43783	1.32453
-0.31033	0.45726
0.02119	-1.20074
0.32721	-0.74160
0.30171	-0.05289
0.76074	1.22250
0.88825	-0.07840
0.27621	-0.79262
0.22521	0.45726
0.07220	1.65613
-0.13181	-0.69059
-0.15732	-0.46102
0.02119	0.45726
0.09770	0.68683
0.68424	-0.30797
0.88825	1.63062
0.91375	0.27871
-0.33583	-1.99148
-1.10088	-0.00188
-1.15188	1.50308
-0.53984	1.22250
-0.20832	0.17668
-0.02981	0.71234
0.42922	0.61031
0.86275	-0.79262
1.75531	-0.61406
1.47479	0.25320
0.27621	1.47757
-0.33583	0.15117
-0.53984	-2.57816
-0.25932	-1.14973
-0.38683	0.81437
-0.28482	1.12046
0.70974	0.20219
1.09226	-0.02739
1.19427	0.68683
-0.20832	0.38074
-0.82036	0.86539
-0.69285	1.09496
-0.36133	-0.94566
-0.36133	-0.18043
0.22521	0.40625
0.55673	0.91640
1.32178	-1.22625
0.73524	-0.76711
-0.08081	0.20219
-0.46334	0.50828
0.02119	0.53379
0.27621	0.27871
0.09770	-0.02739
0.02119	1.14597
0.14870	-0.46102
0.25071	-0.97117
0.14870	0.40625
-0.08081	0.04914
0.12320	0.27871
0.40372	0.76336
0.32721	0.58480
0.22521	0.58480
0.19971	1.63062
0.04670	-2.39961
-0.20832	-1.83844
0.35272	0.50828
0.63323	0.50828
0.83725	2.08976
-0.18282	0.89089
-0.51434	-0.46102
-0.33583	-0.33348
0.14870	0.27871
-0.10631	1.60511
0.09770	0.25320
0.30171	-0.07840
0.45472	-0.28246
0.76074	-1.20074
-0.05531	0.15117
0.19971	-1.50683
-0.33583	-0.15492
-0.53984	1.04394
0.17421	1.86019
0.12320	-0.20594
0.48022	0.35523
0.37822	0.45726
0.63323	0.30422
0.55673	0.83988
0.53123	0.27871
-0.00431	-0.23145
-0.48884	-1.55785
-0.79486	-0.58856
-0.46334	-1.48133
0.53123	1.01843
0.76074	0.76336
0.93925	-0.69059
0.32721	1.19699
-0.43783	1.09496
-0.33583	0.63582
0.04670	0.91640
0.02119	0.27871
-0.05531	-0.56305
0.27621	0.10015
0.30171	0.04914
0.30171	-1.50683
0.81175	0.40625
0.53123	0.38074
0.68424	0.02363
0.55673	-0.35899
0.48022	0.02363
-0.18282	2.67644
-1.27939	-0.53754
-1.40690	-2.52714
-0.08081	-0.30797
0.04670	1.98773
0.48022	1.80917
0.65874	-0.79262
0.42922	-1.27726
0.09770	0.76336
0.30171	0.55929
0.19971	0.63582
0.37822	0.43176
-0.02981	0.35523
0.30171	0.66132
0.65874	0.15117
0.25071	-2.17003
-0.41233	-1.07320
-0.23382	0.81437
0.12320	0.76336
0.22521	0.02363
0.12320	-0.07840
0.12320	0.58480
0.17421	0.43176
0.12320	0.55929
0.17421	0.53379
0.27621	0.04914
0.32721	-0.23145
0.42922	0.10015
0.30171	1.52859
-0.00431	-1.71090
-0.02981	-2.73121
0.12320	0.32972
1.14327	1.52859
0.07220	1.29902
-0.13181	1.35003
-0.94787	0.53379
-0.84586	0.32972
-0.53984	-0.71609
-0.43783	-0.20594
0.04670	0.02363
0.45472	-0.02739
1.29628	0.50828
1.32178	0.91640
0.91375	1.60511
0.27621	-2.01699
-0.10631	-2.50164
0.14870	0.35523
-0.18282	1.24800
-0.31033	0.81437
-0.10631	0.76336
0.09770	-0.07840
0.40372	0.43176
0.09770	0.83988
-0.05531	0.96742
-0.20832	-0.63957
-0.05531	-1.30277
0.07220	-0.05289
0.32721	2.21730
0.68424	0.73785
0.12320	-1.71090
0.07220	-0.35899
-0.00431	1.06945
-0.00431	-0.15492
0.27621	-0.00188
0.73524	1.50308
0.53123	0.32972
-0.10631	-0.76711
-0.51434	-0.10391
-0.38683	0.10015
0.09770	0.50828
0.30171	0.27871
-0.08081	-0.07840
-0.10631	1.57960
0.32721	0.63582
0.81175	-2.88425
0.32721	-0.99668
0.58223	0.73785
0.63323	0.35523
0.09770	1.32453
-0.18282	1.01843
-0.69285	-0.84363
-0.38683	0.02363
-0.10631	0.89089
-0.10631	0.50828
0.42922	1.78367
0.50573	-0.76711
0.48022	-0.66508
0.55673	-0.18043
-0.08081	-0.79262
-0.41233	0.20219
-0.20832	0.10015
1.06676	0.61031
1.47479	0.27871
0.19971	1.35003
-0.28482	-0.30797
-0.28482	-0.51203
-0.33583	1.68163
-0.23382	-0.58856
-0.48884	-2.70570
-0.05531	0.78886
0.12320	0.12566
0.30171	0.99292
0.42922	-0.23145
0.27621	-0.38449
0.17421	0.78886
0.02119	0.81437
0.22521	1.17148
0.55673	0.66132
0.53123	-0.05289
0.65874	0.10015
0.32721	2.62542
-0.08081	-1.81293
-0.13181	-3.16484
-0.08081	0.53379
-0.18282	-0.33348
-0.36133	1.83468
-0.15732	0.40625
0.07220	0.55929
0.40372	-0.43551
0.53123	-0.46102
0.60773	1.12046
-0.05531	0.58480
-0.23382	-0.00188
-0.10631	0.02363
0.22521	0.61031
0.60773	0.53379
0.32721	-0.58856
0.40372	-0.20594
0.12320	0.71234
0.14870	-0.38449
0.17421	-0.66508
-0.02981	-1.17523
0.02119	0.83988
-0.00431	0.81437
0.58223	0.81437
0.19971	1.75816
-0.08081	-0.79262
-0.33583	-1.07320
-0.05531	0.63582
0.02119	0.25320
0.02119	0.66132
-0.05531	-0.28246
0.37822	-0.10391
1.04126	0.58480
1.27078	0.94191
0.22521	0.15117
-0.33583	-0.28246
-0.51434	0.40625
-0.48884	-0.46102
-0.20832	-1.68539
0.07220	1.27351
0.40372	0.45726
0.40372	-2.34859
0.35272	0.86539
0.40372	1.06945
0.04670	0.78886
0.17421	0.78886
0.35272	0.89089
-0.13181	0.15117
-0.02981	0.12566
0.12320	-0.20594
0.07220	-0.89465
-0.33583	-0.43551
0.42922	-0.38449
1.52579	1.29902
0.73524	0.99292
-0.05531	-1.09871
-0.25932	0.22769
-0.51434	0.10015
-0.56534	0.83988
-0.20832	1.50308
0.12320	-0.46102
0.12320	-1.50683
0.32721	0.07465
0.25071	0.12566
0.48022	0.25320
0.53123	0.55929
0.42922	1.06945
0.02119	0.15117
0.19971	-0.71609
-0.00431	1.50308
0.17421	-0.18043
0.07220	-2.57816
0.07220	-0.18043
0.53123	0.38074
0.07220	1.22250
-0.18282	0.50828
-0.28482	1.14597
-0.02981	0.55929
-0.23382	-0.33348
0.25071	0.58480
0.42922	0.61031
0.86275	-0.51203
0.30171	-0.33348
-0.15732	0.15117
-0.10631	0.71234
-0.00431	0.32972
0.09770	-0.89465
0.14870	-0.66508
0.02119	0.43176
0.17421	0.27871
0.88825	0.25320
0.91375	0.76336
0.02119	-0.12942
-0.28482	-0.56305
-0.46334	0.22769
-0.38683	0.50828
0.30171	0.63582
0.25071	1.55410
0.30171	0.02363
-0.59084	-0.79262
-0.25932	0.55929
0.17421	0.55929
1.06676	0.30422
1.19427	-0.33348
0.99026	0.89089
0.02119	-0.53754
-1.02437	-2.47613
-0.89686	0.48277
-0.13181	0.76336
0.32721	1.50308
0.60773	0.86539
0.50573	-0.86914
0.22521	1.17148
-0.18282	1.12046
-0.10631	-1.45582
-0.08081	0.04914
-0.20832	-0.66508
0.35272	-0.48652
0.86275	-0.28246
0.81175	1.40105
0.65874	0.63582
0.02119	1.75816
-0.53984	-0.53754
-0.74385	-2.90976
-0.28482	1.19699
0.17421	0.99292
0.32721	1.09496
0.42922	0.50828
0.42922	1.83468
0.35272	-1.09871
0.53123	-1.99148
-0.13181	-0.25695
-0.05531	0.15117
0.07220	2.26831
0.07220	-0.92016
0.04670	-0.61406
0.88825	-0.74160
1.19427	-0.97117
0.70974	1.01843
-0.48884	0.76336
-1.04987	-0.33348
-1.12638	1.57960
-0.36133	1.75816
-0.08081	-1.27726
0.35272	1.09496
0.32721	0.71234
0.65874	0.30422
0.78624	-0.18043
0.83725	-0.18043
0.09770	-0.20594
-0.02981	0.86539
0.09770	-0.46102
0.12320	-3.44542
0.25071	-0.63957
0.12320	0.55929
0.17421	1.32453
0.14870	0.38074
0.19971	0.58480
0.09770	1.55410
-0.08081	-1.12422
-0.18282	-0.41000
0.14870	0.66132
0.27621	0.25320
0.27621	-0.84363
0.12320	0.22769
0.14870	0.30422
0.02119	0.55929
-0.02981	2.75296
-0.13181	-0.23145
-0.08081	-3.52195
-0.10631	-0.48652
0.76074	0.71234
1.75531	2.80397
1.16877	0.61031
0.53123	-2.60367
-0.36133	0.15117
-0.92237	0.94191
-0.94787	0.55929
-0.36133	0.35523
-0.46334	-0.12942
-0.25932	0.15117
0.27621	0.55929
1.01576	-0.97117
0.60773	0.76336
0.27621	0.55929
0.02119	0.04914
0.17421	0.25320
0.22521	-1.12422
0.19971	-1.09871
0.09770	0.30422
0.07220	0.61031
0.14870	0.89089
0.37822	2.52339
0.60773	-0.33348
0.40372	-3.21585
0.70974	0.07465
0.37822	0.53379
-0.41233	1.70714
-0.69285	1.32453
-0.59084	-0.86914
-0.36133	-1.02219
-0.56534	0.73785
0.17421	0.89089
0.78624	-0.05289
1.29628	-0.33348
0.63323	0.32972
0.27621	0.50828
-0.56534	0.55929
-0.38683	1.52859
0.48022	-1.65988
0.99026	-1.94047
0.60773	0.02363
-0.38683	0.96742
-0.71835	0.78886
-0.38683	1.09496
-0.18282	1.52859
-0.08081	-1.09871
0.30171	-1.07320
0.81175	0.58480
1.14327	0.58480
0.50573	0.86539
-0.33583	0.25320
-0.41233	-0.38449
-0.08081	0.35523
-0.10631	0.15117
-0.00431	1.04394
0.07220	-0.30797
0.50573	-1.40480
0.68424	-0.63957
0.73524	1.29902
0.42922	0.32972
0.07220	-1.48133
0.07220	0.89089
-0.10631	0.76336
-0.51434	-0.18043
-0.08081	2.16628
0.32721	-0.23145
-0.08081	-2.09351
-0.43783	0.66132
0.22521	0.71234
0.81175	0.50828
1.14327	0.66132
-0.02981	0.71234
-0.18282	0.30422
-0.23382	-0.43551
0.04670	-1.07320
0.09770	0.53379
-0.05531	2.01323
0.25071	-0.05289
0.37822	-2.47613
0.40372	-0.10391
0.07220	0.71234
-0.02981	0.55929
-0.13181	0.50828
0.32721	0.12566
0.55673	-0.00188
0.40372	0.66132
-0.23382	0.15117
-0.00431	0.22769
-0.10631	0.99292
0.09770	0.61031
-0.18282	-1.88945
0.12320	-0.56305
0.30171	0.50828
0.37822	0.40625
0.73524	3.46718
0.68424	-1.09871
0.73524	-2.90976
0.14870	1.22250
-0.33583	0.25320
-0.48884	-0.71609
-0.48884	1.04394
-0.38683	1.47757
-0.74385	-1.99148
0.07220	-0.23145
0.83725	1.19699
1.52579	0.38074
0.93925	0.86539
0.30171	0.61031
0.09770	-0.53754
-0.33583	0.55929
-0.82036	0.94191
-0.13181	-0.05289
0.19971	-1.30277
0.86275	-0.92016
0.60773	-0.15492
0.53123	-0.46102
0.12320	0.94191
-0.15732	-0.05289
-0.15732	-0.00188
-0.41233	0.61031
-1.20288	0.61031
-0.33583	0.81437
0.45472	1.32453
0.48022	-0.56305
1.19427	-0.38449
1.16877	-0.97117
1.32178	-0.23145
-0.02981	2.26831
-0.84586	-0.51203
-0.76936	0.45726
-0.18282	-1.17523
-0.15732	0.20219
0.45472	-0.97117
0.32721	-1.78742
0.73524	1.19699
0.65874	1.88570
0.02119	0.66132
-0.05531	0.53379
-0.08081	0.45726
-0.13181	0.12566
0.09770	0.76336
0.04670	-0.10391
-0.13181	-0.56305
0.42922	-1.22625
0.50573	0.68683
0.17421	-0.86914
-0.02981	-0.99668
-0.02981	-0.05289
-0.08081	-0.89465
-0.13181	0.71234
-0.64185	1.37554
-0.28482	1.80917
0.68424	1.70714
1.78081	-0.43551
1.16877	-0.99668
0.42922	-0.97117
0.12320	0.48277
-0.13181	0.48277
-0.66735	0.99292
-1.10088	-0.51203
-1.15188	-0.56305
-0.10631	1.27351
0.70974	-0.38449
1.01576	-0.81812
0.42922	1.12046
0.22521	-1.30277
-0.08081	-0.66508
0.09770	-0.35899
0.27621	0.78886
0.48022	0.83988
0.27621	0.71234
-0.02981	0.83988
-0.05531	1.09496
0.19971	-0.41000
0.48022	-0.33348
0.70974	0.78886
0.35272	1.01843
-0.08081	-1.55785
-0.71835	-0.81812
-0.43783	-0.02739
-0.00431	-0.20594
0.22521	0.20219
0.02119	0.10015
-0.10631	1.14597
0.35272	0.71234
0.99026	0.81437
1.19427	0.27871
-0.02981	0.38074
-0.53984	-1.22625
-0.66735	-0.79262
-0.18282	1.93671
-0.43783	-1.60887
-0.08081	-0.74160
0.86275	0.71234
0.76074	-0.20594
1.19427	1.50308
0.40372	1.04394
-0.36133	-0.97117
-0.25932	0.53379
-0.15732	0.43176
-0.33583	-0.35899
-0.48884	-0.18043
0.04670	0.73785
0.50573	-0.12942
0.60773	-0.74160
0.58223	0.63582
0.35272	0.02363
0.55673	0.86539
0.48022	1.27351
0.30171	-1.04770
-0.15732	0.32972
-0.69285	1.24800
-0.59084	-2.75671
-0.20832	-1.45582
0.07220	0.96742
0.53123	1.50308
0.76074	1.40105
0.45472	0.86539
-0.08081	0.53379
-0.18282	0.81437
-0.23382	-0.76711
0.04670	-0.58856
0.04670	-0.15492
0.19971	0.43176
0.02119	0.15117
0.65874	0.17668
0.93925	0.17668
1.24527	0.15117
0.63323	0.55929
-0.28482	-0.07840
-1.17738	0.76336
-0.61635	-2.14453
-0.18282	-1.09871
0.17421	0.63582
0.14870	0.45726
0.53123	0.91640
0.50573	0.96742
0.12320	1.04394
0.25071	0.96742
0.32721	-1.81293
-0.15732	-0.63957
-0.05531	0.48277
-0.02981	1.19699
0.48022	1.47757
0.55673	0.07465
0.50573	-1.17523
-0.08081	-0.69059
-0.36133	0.30422
-0.36133	0.61031
-0.08081	-0.30797
0.22521	-0.30797
0.14870	0.30422
0.17421	0.86539
0.27621	-0.28246
0.30171	-0.99668
0.73524	0.73785
0.35272	-0.00188
0.02119	-0.23145
-0.08081	0.45726
-0.76936	0.40625
-0.36133	0.35523
0.07220	0.22769
0.50573	0.10015
0.63323	1.12046
0.37822	-0.66508
0.32721	-1.09871
-0.36133	-0.02739
-0.28482	0.35523
0.17421	0.40625
0.50573	-0.74160
0.09770	0.04914
-0.10631	2.47238
-0.10631	0.22769
0.22521	-1.94047
0.40372	-0.12942
0.53123	1.45206
0.42922	0.78886
-0.05531	-0.81812
0.02119	-1.14973
0.02119	-0.89465
0.09770	0.43176
0.04670	0.99292
0.17421	1.22250
-0.15732	1.29902
0.50573	-0.10391
0.63323	-0.28246
0.32721	0.22769
0.17421	-0.35899
0.04670	0.20219
-0.71835	-0.41000
-0.48884	-0.86914
-0.08081	0.20219
0.55673	0.76336
0.37822	0.27871
0.42922	0.55929
0.35272	1.17148
0.12320	0.58480
0.02119	-1.73640
0.12320	-1.43031
-0.20832	0.73785
-0.38683	1.24800
-0.05531	0.20219
0.14870	0.96742
0.88825	0.81437
0.73524	-0.28246
0.35272	-0.46102
-0.31033	0.58480
-0.31033	0.68683
-0.10631	0.20219
0.32721	0.86539
0.07220	0.73785
0.37822	-1.86394
0.19971	-2.52714
0.48022	0.99292
0.30171	2.11527
0.07220	0.40625
0.14870	0.27871
0.27621	1.19699
-0.08081	0.04914
-0.13181	0.43176
-0.18282	-0.56305
0.09770	-0.89465
0.32721	0.71234
0.78624	-0.41000
0.17421	0.76336
-0.46334	-0.00188
-0.69285	0.04914
-0.36133	0.96742
0.27621	0.81437
0.78624	-1.09871
0.32721	-0.58856
0.14870	0.63582
0.53123	-0.00188
0.30171	0.48277
0.53123	0.17668
0.37822	1.75816
-0.18282	0.35523
-0.51434	-1.40480
-0.18282	-0.15492
0.07220	-0.00188
0.12320	0.22769
0.17421	0.53379
0.32721	0.73785
0.37822	0.12566
0.53123	-0.18043
0.14870	0.25320
-0.18282	1.70714
-0.05531	0.32972
0.17421	-2.47613
0.70974	-0.61406
0.53123	-1.32828
-0.25932	0.89089
-0.46334	1.14597
-0.28482	1.09496
-0.23382	0.94191
-0.00431	0.91640
0.07220	0.40625
0.30171	-0.71609
0.83725	-0.97117
1.32178	0.17668
0.63323	0.30422
0.02119	1.14597
-0.46334	0.43176
-0.36133	-1.37929
-0.00431	-0.86914
0.12320	0.27871
0.07220	-0.05289
-0.25932	0.53379
-0.20832	0.61031
0.12320	-0.00188
0.07220	0.48277
-0.10631	0.63582
0.17421	0.63582
0.86275	1.04394
0.93925	-1.12422
0.78624	-0.71609
0.50573	0.53379
-0.18282	-0.30797
-0.43783	0.91640
0.09770	0.20219
0.14870	1.14597
0.04670	0.81437
0.12320	-0.35899
-0.08081	-1.65988
-0.05531	0.45726
-0.20832	0.07465
0.09770	0.83988
-0.00431	0.53379
-0.02981	1.06945
-0.10631	-0.23145
0.30171	-0.99668
0.42922	0.04914
0.04670	0.04914
-0.38683	-0.02739
0.53123	-0.00188
1.34728	0.38074
1.90832	1.47757
0.07220	0.40625
-0.46334	-1.12422
-0.41233	0.02363
-0.43783	0.20219
-0.28482	0.50828
-0.36133	0.43176
-0.02981	0.22769
0.17421	1.14597
0.27621	-0.66508
0.19971	-1.68539
0.53123	-0.76711
0.93925	0.73785
0.83725	0.86539
0.12320	0.55929
-0.53984	0.58480
-0.61635	0.61031
-0.20832	0.25320
0.12320	0.22769
0.35272	-0.23145
0.27621	-0.18043
0.27621	0.17668
0.48022	-0.79262
0.22521	-0.76711
0.07220	0.35523
0.19971	0.25320
0.32721	1.17148
0.14870	-0.48652
0.30171	1.04394
0.19971	0.71234
-0.02981	0.32972
-0.15732	-0.30797
0.09770	0.25320
0.07220	-0.53754
0.17421	-0.56305
-0.02981	0.35523
0.22521	0.63582
0.37822	1.09496
0.48022	1.40105
-0.15732	-1.35379
-0.38683	-2.22105
-0.66735	0.04914
0.65874	1.09496
0.96476	0.78886
1.19427	0.07465
-0.00431	1.83468
-0.41233	0.27871
-0.31033	-0.61406
-0.08081	-1.99148
0.02119	-0.07840
0.07220	0.78886
0.25071	1.78367
0.40372	0.53379
0.55673	0.07465
0.27621	-0.20594
0.22521	0.07465
0.22521	-0.43551
0.07220	-0.00188
-0.18282	0.25320
-0.10631	0.02363
0.22521	-0.00188
0.35272	0.35523
0.55673	0.68683
-0.00431	0.78886
-0.43783	-0.84363
-0.28482	-2.37410
0.37822	1.04394
0.68424	1.06945
-0.08081	-0.25695
0.19971	1.37554
0.60773	0.83988
0.32721	-0.43551
-0.38683	0.20219
-0.48884	0.15117
-0.53984	-0.48652
-0.25932	0.73785
0.17421	-0.35899
0.37822	0.43176
0.73524	1.75816
0.73524	-1.48133
0.76074	-1.30277
0.96476	0.10015
0.17421	0.76336
-0.00431	0.86539
-0.28482	0.45726
-0.33583	0.30422
-0.25932	0.53379
0.12320	0.22769
0.09770	1.24800
0.09770	0.15117
0.37822	-1.86394
0.53123	-1.07320
-0.02981	-1.63437
-0.33583	1.24800
-0.08081	1.78367
0.09770	0.99292
0.37822	0.55929
0.65874	-0.02739
0.53123	-0.20594
0.02119	0.32972
-0.13181	1.17148
0.02119	0.63582
-0.10631	-1.12422
-0.36133	-1.02219
-0.38683	0.58480
0.68424	0.63582
1.42379	-0.56305
0.93925	0.81437
0.09770	0.53379
0.04670	-0.86914
0.02119	0.53379
-0.43783	0.55929
-0.38683	0.35523
-0.48884	0.27871
-0.31033	0.04914
-0.02981	0.12566
-0.00431	-0.02739
0.17421	-0.15492
0.58223	1.04394
1.19427	-0.05289
1.39828	-1.78742
0.32721	0.30422
-0.00431	0.81437
-0.23382	-0.15492
-0.36133	0.15117
-0.46334	0.68683
-0.36133	0.25320
0.30171	0.22769
0.50573	-0.66508
0.58223	0.32972
0.30171	0.86539
0.19971	0.68683
-0.02981	0.76336
0.09770	0.38074
-0.08081	-0.97117
-0.20832	-0.12942
0.12320	-0.00188
0.14870	-0.15492
0.25071	0.32972
0.19971	0.10015
0.45472	0.43176
0.48022	-0.15492
0.25071	-0.02739
0.07220	1.86019
-0.10631	0.35523
-0.20832	-3.95558
0.07220	0.15117
0.02119	0.96742
0.22521	1.01843
-0.13181	1.32453
0.70974	0.20219
1.09226	-0.28246
0.22521	1.17148
-0.23382	-0.35899
-0.18282	-0.10391
0.07220	0.25320
0.07220	0.22769
-0.13181	0.81437
-0.15732	-1.07320
0.30171	-0.46102
0.70974	0.83988
0.30171	-0.66508
-0.25932	-1.45582
-0.23382	0.25320
0.12320	0.91640
0.27621	0.83988
0.73524	0.10015
0.53123	0.35523
0.27621	0.32972
0.22521	0.38074
0.37822	0.35523
-0.13181	0.32972
-0.25932	-0.56305
-0.13181	-0.07840
-0.10631	-0.56305
-0.02981	0.12566
0.12320	1.22250
0.22521	-0.25695
0.25071	0.50828
0.50573	-0.66508
0.42922	-0.33348
0.14870	1.42656
-0.20832	0.38074
-0.15732	-1.02219
0.14870	0.20219
0.09770	1.55410
0.09770	0.76336
0.07220	-0.97117
0.73524	-1.20074
0.86275	1.40105
0.07220	0.45726
-0.02981	-0.05289
-0.33583	0.27871
-0.53984	-0.07840
-0.43783	0.30422
-0.28482	1.35003
0.53123	-1.12422
0.58223	-0.51203
0.70974	-1.07320
0.53123	0.48277
-0.08081	1.91120
-0.05531	0.38074
-0.05531	-0.30797
0.42922	1.65613
0.40372	-0.30797
0.22521	-0.51203
0.09770	0.86539
0.14870	0.50828
-0.05531	-0.15492
-0.13181	-0.76711
0.07220	-0.15492
-0.20832	0.35523
-0.13181	0.94191
-0.08081	-0.02739
-0.18282	-0.56305
0.35272	-0.30797
0.83725	-0.00188
0.86275	0.81437
0.48022	-0.12942
0.70974	0.07465
0.07220	0.45726
-0.00431	1.93671
-0.05531	-0.58856
-0.23382	-1.88945
-0.31033	0.30422
-0.25932	0.22769
-0.18282	0.58480
0.07220	0.66132
0.25071	0.58480
0.40372	0.12566
0.55673	0.12566
0.25071	0.68683
0.22521	-1.04770
0.37822	-1.60887
0.53123	-0.63957
0.53123	0.83988
0.04670	1.32453
-0.31033	0.83988
-0.38683	0.12566
-0.25932	0.45726
-0.13181	0.86539
-0.05531	-0.76711
0.30171	-0.23145
0.48022	0.45726
0.07220	0.61031
-0.02981	-1.12422
0.19971	-1.32828
1.09226	0.35523
0.91375	2.08976
0.65874	1.73265
-0.53984	-0.71609
-0.61635	-1.09871
-0.38683	0.38074
-0.08081	-0.15492
0.40372	0.81437
0.55673	0.76336
-0.08081	0.30422
-0.05531	0.55929
-0.08081	0.71234
-0.18282	-0.00188
-0.02981	-0.66508
0.73524	-0.05289
0.99026	-0.15492
0.50573	0.50828
0.58223	0.35523
-0.33583	-1.27726
-0.48884	-1.27726
-0.48884	0.55929
-0.05531	1.22250
0.09770	0.61031
0.25071	0.58480
-0.00431	0.50828
0.22521	0.48277
0.32721	0.17668
0.25071	-0.02739
0.04670	-0.56305
0.19971	0.66132
0.45472	-0.53754
0.53123	-1.14973
0.48022	0.48277
0.19971	0.43176
0.09770	0.55929
-0.08081	2.37034
-0.36133	-1.17523
-0.15732	-1.71090
-0.23382	0.15117
0.09770	0.38074
0.30171	0.96742
0.09770	0.35523
-0.15732	-0.25695
0.22521	0.38074
0.27621	0.91640
0.32721	-0.02739
0.30171	-0.02739
0.12320	-1.22625
-0.23382	-0.74160
-0.05531	0.61031
0.55673	1.14597
0.96476	0.73785
1.21977	0.32972
0.73524	0.48277
-0.28482	0.25320
-0.89686	-0.25695
-0.84586	-0.28246
-0.38683	-0.12942
-0.28482	0.35523
0.07220	0.04914
0.27621	-0.23145
0.53123	-0.20594
0.63323	1.32453
0.50573	0.07465
0.09770	-0.48652
0.35272	0.53379
0.35272	-0.15492
0.30171	-0.23145
-0.15732	0.43176
-0.28482	1.06945
-0.15732	0.71234
0.81175	0.25320
1.04126	-0.10391
0.50573	0.10015
-0.28482	0.94191
-0.71835	-0.15492
-0.82036	-1.20074
-0.51434	-0.38449
-0.02981	0.22769
0.09770	0.45726
0.63323	0.38074
0.78624	0.99292
0.81175	-0.99668
0.55673	-0.63957
0.07220	0.55929
-0.02981	0.58480
-0.10631	0.66132
-0.13181	0.32972
-0.05531	0.45726
0.17421	0.10015
0.60773	-0.07840
0.91375	0.02363
0.27621	0.07465
-0.41233	0.63582
-0.53984	0.50828
-0.51434	-2.24656
-0.08081	-0.69059
0.02119	0.71234
0.58223	1.55410
0.25071	-0.18043
0.40372	-0.43551
0.63323	0.89089
0.42922	0.78886
0.35272	1.27351
-0.08081	-0.92016
-0.23382	-0.97117
-0.15732	0.45726
-0.18282	0.78886
0.19971	0.68683
0.02119	-1.02219
0.09770	-0.05289
0.27621	0.96742
0.53123	0.45726
0.65874	0.38074
0.32721	0.66132
0.32721	-1.22625
-0.48884	-0.86914
-0.33583	0.96742
-0.08081	1.91120
0.07220	-1.55785
0.40372	-1.76191
0.27621	0.27871
0.53123	1.09496
0.37822	0.94191
0.07220	0.73785
-0.20832	0.40625
0.12320	0.07465
-0.13181	0.04914
-0.28482	-0.33348
0.19971	0.22769
0.35272	0.17668
0.22521	-0.66508
0.12320	0.35523
0.48022	0.53379
0.50573	-0.86914
0.81175	0.30422
0.19971	-0.48652
-0.36133	-0.46102
-0.61635	1.57960
-0.51434	2.31933
0.12320	-0.69059
0.58223	-1.73640
0.55673	0.22769
0.22521	0.15117
0.09770	0.89089
0.07220	1.04394
-0.00431	-0.46102
-0.36133	-0.18043
-0.46334	0.76336
-0.02981	0.94191
0.48022	0.78886
0.88825	0.12566
0.93925	-1.27726
0.37822	0.43176
0.22521	-0.35899
0.42922	-0.33348
-0.13181	0.63582
-0.38683	-0.05289
-0.25932	0.71234
-0.13181	-2.09351
0.07220	-1.20074
0.27621	0.83988
0.32721	1.24800
0.07220	0.55929
0.53123	0.45726
0.35272	0.61031
0.09770	1.01843
-0.23382	-0.25695
-0.31033	-0.66508
0.19971	-0.25695
0.17421	0.25320
0.22521	0.35523
-0.08081	0.35523
0.09770	0.04914
0.58223	0.58480
0.68424	0.81437
0.37822	-0.94566
-0.31033	-0.76711
-0.64185	0.22769
0.04670	-0.61406
0.35272	0.55929
0.07220	2.03874
0.17421	-0.63957
0.30171	-0.51203
0.30171	0.53379
-0.13181	0.66132
-0.15732	1.12046
-0.13181	0.35523
0.42922	-0.58856
0.83725	-1.43031
0.14870	-0.92016
0.30171	-0.00188
0.22521	0.81437
-0.05531	1.09496
-0.18282	0.96742
0.17421	-0.10391
0.14870	-0.05289
-0.20832	1.47757
-0.43783	-2.37410
0.14870	-0.92016
0.88825	0.63582
0.76074	1.12046
0.12320	0.40625
0.07220	0.02363
-0.08081	0.10015
-0.05531	0.10015
-0.18282	0.02363
-0.15732	0.15117
0.19971	0.35523
0.09770	-0.12942
0.19971	0.38074
0.27621	0.35523
0.27621	-0.30797
0.35272	0.30422
0.73524	0.02363
0.17421	0.22769
-0.15732	0.30422
-0.23382	0.20219
-0.46334	0.66132
-0.15732	0.38074
0.42922	-0.20594
0.81175	-0.63957
0.78624	1.06945
0.27621	0.96742
0.02119	-1.71090
-0.02981	-1.27726
-0.25932	1.01843
-0.08081	1.42656
-0.00431	0.86539
-0.28482	0.15117
0.02119	0.15117
0.48022	0.94191
0.81175	0.07465
0.22521	-1.02219
-0.18282	-0.07840
0.17421	0.43176
0.37822	1.75816
0.19971	-0.69059
-0.38683	-1.99148
-0.00431	-0.02739
0.22521	0.89089
0.40372	0.63582
0.53123	0.15117
0.32721	-0.05289
-0.18282	0.55929
-0.10631	0.86539
-0.08081	0.10015
0.50573	0.22769
0.19971	-2.17003
0.14870	-1.12422
-0.31033	1.35003
-0.02981	0.61031
0.48022	0.81437
0.63323	1.86019
-0.28482	0.25320
-0.25932	-1.48133
-0.23382	0.02363
-0.13181	0.43176
0.07220	-0.46102
0.42922	0.22769
0.60773	-0.02739
0.42922	-0.18043
0.07220	0.25320
0.27621	0.55929
0.12320	0.10015
0.09770	0.38074
0.14870	0.40625
0.12320	0.12566
0.35272	0.96742
-0.08081	-1.25176
0.22521	-0.53754
0.19971	0.35523
0.53123	0.30422
-0.25932	1.57960
-0.25932	-1.30277
-0.23382	-0.61406
0.68424	0.78886
0.19971	-0.51203
-0.13181	0.07465
-0.56534	1.91120
-0.33583	0.61031
0.32721	-0.76711
0.78624	-0.23145
0.88825	1.09496
0.40372	0.48277
-0.05531	-1.37929
-0.33583	0.94191
-0.13181	0.25320
-0.08081	1.24800
-0.20832	-0.69059
-0.08081	-0.99668
0.68424	0.17668
0.88825	0.66132
0.86275	0.32972
0.50573	-0.79262
-0.10631	-0.61406
-0.38683	0.07465
-0.38683	0.66132
0.02119	-0.41000
0.09770	-0.12942
0.25071	2.01323
0.09770	0.25320
-0.02981	-0.79262
0.30171	0.76336
0.22521	-0.53754
0.09770	0.61031
-0.05531	0.27871
0.27621	0.38074
0.42922	0.40625
0.45472	0.38074
0.07220	0.40625
-0.08081	1.19699
0.37822	-0.43551
0.14870	-1.58336
0.22521	-0.41000
-0.36133	0.07465
-0.28482	-0.05289
0.12320	-0.07840
0.32721	0.53379
-0.13181	0.27871
-0.10631	0.48277
0.37822	2.16628
0.91375	-0.79262
0.48022	-2.09351
0.25071	-0.97117
-0.23382	1.06945
-0.31033	0.99292
-0.36133	0.91640
-0.23382	0.61031
0.07220	0.32972
0.60773	0.30422
0.73524	0.50828
0.65874	-0.23145
0.48022	-1.63437
0.35272	-1.27726
0.27621	0.12566
-0.18282	0.17668
-0.56534	0.50828
-0.59084	0.96742
-0.51434	0.76336
0.40372	0.04914
0.83725	0.04914
1.06676	-1.04770
0.14870	-0.23145
0.04670	1.32453
-0.28482	1.37554
-0.08081	0.10015
-0.20832	-1.17523
0.04670	0.27871
0.12320	0.50828
0.25071	0.15117
0.14870	-0.15492
0.32721	0.45726
0.32721	0.66132
0.27621	-0.23145
0.27621	-0.25695
0.12320	0.10015
-0.02981	0.20219
-0.02981	-0.35899
0.22521	-0.00188
0.37822	0.27871
0.37822	0.25320
0.19971	0.27871
-0.18282	1.32453
-0.15732	-0.56305
0.12320	-1.27726
0.35272	0.40625
0.07220	0.50828
-0.23382	0.40625
0.27621	0.50828
0.99026	0.02363
0.37822	1.04394
-0.43783	0.04914
-0.51434	-0.53754
0.02119	-1.04770
0.63323	-0.53754
0.70974	0.50828
0.50573	1.42656
-0.33583	-0.30797
-0.43783	1.47757
-0.18282	-0.25695
0.04670	-1.43031
0.40372	0.61031
0.32721	-0.10391
0.37822	1.06945
0.35272	0.58480
-0.10631	-0.97117
-0.10631	-0.28246
0.27621	0.38074
0.02119	0.45726
0.40372	0.40625
0.65874	0.25320
0.50573	0.12566
0.42922	0.07465
0.19971	-0.20594
-0.08081	-0.18043
-0.36133	0.53379
-0.33583	0.96742
-0.56534	0.32972
-0.08081	-2.70570
0.60773	-1.02219
0.78624	1.63062
0.50573	0.99292
0.37822	-0.69059
-0.36133	0.12566
-0.18282	1.32453
-0.10631	1.57960
0.55673	-0.48652
-0.05531	-0.66508
-0.00431	-0.69059
0.12320	0.81437
0.37822	-0.71609
0.53123	-0.63957
0.32721	1.17148
0.02119	0.71234
-0.02981	0.40625
-0.15732	-0.28246
-0.33583	-0.41000
-0.13181	0.15117
0.27621	0.25320
0.63323	0.02363
0.73524	0.20219
0.55673	0.50828
0.30171	-0.43551
0.32721	-0.02739
0.27621	0.07465
0.22521	-0.76711
-0.36133	0.63582
-0.46334	0.30422
-0.33583	-0.07840
0.02119	0.40625
0.14870	0.27871
0.32721	0.78886
0.30171	0.35523
0.50573	0.07465
0.55673	0.22769
-0.33583	0.32972
-0.48884	-0.02739
-0.18282	-0.05289
0.19971	0.50828
0.22521	0.86539
0.32721	-1.07320
0.45472	-0.74160
0.32721	-0.05289
0.19971	0.27871
0.40372	0.53379
0.40372	0.27871
0.50573	-0.48652
0.22521	1.42656
-0.10631	0.53379
-0.08081	-0.05289
0.02119	1.65613
-0.18282	-2.09351
-0.38683	-1.04770
0.04670	1.04394
0.19971	1.17148
0.12320	0.71234
0.17421	0.32972
0.09770	-0.15492
0.58223	0.22769
1.11776	-0.07840
0.78624	-0.00188
-0.20832	0.43176
-0.43783	0.07465
-0.36133	-0.92016
0.04670	-0.30797
-0.23382	0.55929
0.09770	0.48277
0.19971	-0.30797
0.50573	-0.58856
0.53123	1.01843
0.32721	0.96742
-0.10631	0.43176
0.07220	0.73785
0.17421	0.73785
0.40372	0.40625
0.12320	-0.43551
-0.00431	-1.35379
-0.02981	0.83988
0.25071	0.20219
-0.02981	0.35523
-0.33583	0.71234
0.09770	-0.66508
0.25071	-0.23145
0.35272	0.15117
0.22521	0.15117
0.30171	0.38074
0.30171	0.48277
0.17421	2.06425
0.12320	-0.48652
-0.13181	-1.30277
0.22521	0.17668
0.32721	-0.28246
0.45472	0.96742
0.04670	1.17148
0.14870	-1.40480
-0.23382	-0.71609
-0.18282	0.20219
0.09770	0.81437
0.35272	0.99292
0.27621	0.20219
-0.05531	1.17148
-0.08081	0.53379
-0.00431	-0.76711
0.35272	-0.46102
0.45472	-0.05289
0.32721	0.63582
0.58223	0.22769
-0.31033	-0.53754
-0.23382	-0.41000
0.04670	-0.07840
-0.02981	0.25320
0.40372	0.27871
0.30171	0.83988
0.58223	-0.23145
0.42922	-1.50683
-0.05531	0.61031
-0.59084	0.35523
-0.48884	0.66132
-0.20832	0.63582
0.27621	1.35003
0.50573	0.17668
0.27621	-0.99668
0.60773	0.30422
0.63323	-0.10391
0.40372	-0.35899
-0.10631	2.21730
-0.10631	-1.81293
0.07220	-2.29757
0.14870	0.94191
0.27621	1.06945
-0.10631	0.81437
0.02119	1.04394
-0.00431	0.38074
0.19971	-0.35899
-0.02981	-0.15492
0.19971	0.30422
0.42922	-0.10391
0.40372	0.12566
0.30171	0.55929
0.19971	0.71234
0.12320	-0.86914
-0.02981	-0.53754
-0.05531	0.50828
0.12320	-0.25695
0.19971	0.63582
0.27621	0.83988
0.27621	0.38074
0.45472	-0.81812
0.09770	-0.58856
-0.20832	0.48277
-0.36133	0.71234
-0.25932	0.20219
0.12320	0.10015
0.99026	1.09496
0.73524	1.22250
0.02119	-1.88945
-0.23382	-0.61406
-0.08081	0.45726
0.04670	0.35523
-0.20832	0.48277
-0.13181	0.50828
0.12320	-0.43551
0.27621	-0.02739
0.17421	2.11527
0.40372	-2.06800
0.70974	-1.45582
0.53123	1.37554
-0.00431	-0.63957
-0.10631	-0.05289
0.27621	1.78367
0.27621	0.63582
-0.10631	0.40625
-0.08081	0.40625
-0.02981	0.27871
0.14870	-0.51203
0.12320	-1.09871
0.22521	0.38074
-0.02981	-0.00188
-0.25932	0.20219
0.09770	0.30422
-0.00431	0.38074
0.25071	0.17668
0.35272	0.38074
0.81175	0.25320
0.76074	-0.30797
0.27621	-0.41000
-0.20832	-0.63957
-0.23382	0.68683
-0.00431	1.27351
0.14870	-0.05289
-0.13181	-0.12942
0.09770	0.71234
-0.00431	1.04394
0.04670	-0.84363
0.53123	0.38074
0.53123	-0.41000
0.17421	-2.04250
-0.18282	-1.96597
0.19971	1.14597
0.37822	1.52859
0.25071	1.32453
-0.13181	0.20219
-0.08081	2.24281
-0.02981	-1.43031
0.12320	-0.56305
0.22521	-0.35899
-0.28482	-0.30797
0.12320	0.27871
0.27621	0.20219
0.55673	0.02363
0.78624	0.20219
0.58223	0.94191
0.17421	-0.10391
-0.18282	-0.18043
-0.00431	-0.35899
-0.28482	-0.25695
-0.05531	0.63582
-0.05531	0.43176
0.09770	0.50828
0.37822	0.40625
0.12320	-0.25695
0.25071	1.01843
0.32721	-0.18043
0.42922	-1.50683
0.14870	0.61031
-0.08081	0.07465
-0.18282	-0.15492
-0.31033	0.48277
0.12320	0.53379
0.70974	1.19699
1.47479	-0.20594
0.48022	-0.84363
-0.23382	0.27871
-0.43783	0.32972
-0.43783	0.04914
-0.33583	-0.15492
-0.08081	0.12566
0.02119	1.37554
0.48022	-0.00188
0.42922	-1.30277
0.35272	-0.10391
0.02119	0.50828
0.25071	0.07465
0.27621	2.06425
0.37822	-1.76191
0.30171	-2.06800
0.30171	1.04394
-0.10631	1.04394
-0.10631	1.09496
0.07220	0.99292
-0.15732	0.78886
-0.08081	0.45726
0.09770	-0.33348
0.40372	-0.89465
0.53123	0.38074
0.22521	-0.25695
-0.13181	-0.76711
-0.31033	-0.35899
-0.23382	0.68683
0.12320	1.37554
0.25071	-0.23145
0.45472	-1.17523
0.53123	-0.63957
0.65874	0.22769
0.48022	1.06945
-0.05531	1.12046
-0.00431	1.29902
-0.23382	-0.61406
-0.66735	-0.99668
-0.08081	-0.15492
0.14870	0.45726
0.50573	0.66132
0.60773	0.50828
0.73524	-0.58856
0.02119	-0.02739
0.12320	1.19699
0.02119	-0.74160
-0.28482	-1.17523
0.07220	0.20219
0.40372	0.38074
0.55673	1.12046
0.45472	0.68683
0.40372	-0.02739
-0.31033	-0.43551
-0.64185	0.86539
-0.38683	0.17668
-0.25932	-1.09871
0.07220	1.32453
0.48022	1.19699
0.93925	-1.04770
0.93925	-1.81293
0.45472	1.22250
-0.05531	-0.46102
-0.23382	0.53379
-0.08081	1.47757
-0.31033	1.14597
-0.13181	0.48277
-0.08081	-0.23145
0.40372	-0.81812
0.73524	0.71234
0.55673	-0.23145
0.12320	0.27871
-0.25932	-0.20594
-0.28482	-0.20594
-0.20832	-0.56305
0.32721	-0.30797
0.48022	1.27351
-0.00431	0.35523
-0.15732	-1.17523
0.48022	-0.28246
0.53123	0.86539
0.58223	1.32453
0.12320	0.43176
0.14870	-0.23145
0.02119	-0.30797
-0.56534	-0.35899
-0.31033	0.83988
-0.15732	0.58480
0.09770	0.48277
0.32721	0.45726
0.48022	0.20219
0.78624	0.55929
0.93925	-0.15492
0.09770	-0.71609
-0.25932	-0.15492
-0.31033	-0.12942
-0.33583	1.45206
-0.02981	-1.37929
0.35272	-0.74160
0.55673	0.83988
0.32721	0.61031
0.58223	0.43176
0.22521	0.68683
-0.10631	1.17148
-0.18282	-0.71609
0.02119	-2.04250
-0.18282	-0.05289
-0.33583	-0.10391
-0.05531	1.19699
0.58223	1.29902
0.78624	1.22250
0.48022	0.96742
0.27621	0.17668
0.37822	-0.07840
-0.00431	-0.41000
-0.48884	-0.43551
-0.33583	-0.20594
-0.02981	0.25320
0.45472	-0.20594
0.27621	-0.18043
0.17421	-0.43551
0.37822	0.76336
0.70974	-0.25695
0.73524	-0.02739
0.02119	0.63582
-0.59084	0.55929
-0.74385	0.35523
-0.56534	-0.00188
-0.08081	0.17668
0.42922	0.40625
0.73524	0.86539
0.50573	1.14597
0.19971	-0.61406
0.40372	-0.74160
0.22521	-0.18043
0.17421	-0.61406
0.17421	1.06945
0.09770	-0.10391
0.19971	-0.92016
0.19971	0.73785
0.04670	1.09496
-0.10631	1.14597
-0.20832	-0.25695
0.27621	-0.74160
0.17421	0.32972
0.42922	0.35523
0.25071	0.12566
0.17421	1.32453
-0.28482	-0.97117
0.04670	-1.40480
-0.02981	0.45726
-0.10631	0.45726
0.32721	0.07465
0.73524	0.45726
0.83725	0.17668
-0.20832	0.55929
-0.33583	-0.05289
-0.46334	0.22769
0.09770	0.76336
0.45472	-0.81812
0.65874	0.04914
0.32721	0.40625
0.30171	0.32972
0.30171	-0.35899
-0.02981	-1.20074
-0.28482	0.35523
-0.20832	0.73785
-0.25932	0.76336
0.17421	0.94191
0.42922	0.83988
0.30171	0.89089
0.58223	-0.43551
0.42922	-1.96597
0.17421	0.15117
-0.15732	-0.15492
0.07220	0.40625
-0.00431	0.45726
0.27621	0.55929
0.30171	0.68683
0.12320	-0.30797
0.19971	-0.66508
0.09770	-0.23145
-0.00431	1.09496
-0.08081	0.25320
-0.15732	-0.56305
-0.20832	3.11007
0.07220	-1.60887
0.17421	-3.93007
0.53123	-1.48133
0.88825	1.73265
0.30171	1.70714
0.17421	1.57960
0.02119	1.29902
0.04670	1.22250
-0.08081	-0.00188
0.22521	-0.23145
-0.10631	-0.76711
-0.18282	-0.86914
-0.08081	-0.43551
0.35272	0.48277
0.27621	0.02363
0.42922	0.20219
0.32721	0.55929
0.17421	0.02363
0.12320	0.20219
0.09770	0.35523
-0.28482	-0.00188
-0.51434	-0.15492
0.12320	0.22769
0.76074	0.30422
1.04126	0.81437
0.17421	0.76336
-0.38683	0.12566
-0.41233	0.86539
-0.25932	-1.68539
-0.05531	-3.54745
0.30171	0.61031
0.42922	0.15117
0.53123	0.78886
0.48022	1.63062
0.35272	1.27351
0.86275	1.06945
0.32721	0.83988
-0.36133	0.38074
-0.46334	0.32972
-0.51434	-0.66508
-0.38683	-0.97117
-0.00431	-0.05289
0.58223	-0.23145
0.73524	0.10015
0.50573	-0.76711
0.09770	-0.48652
0.07220	0.17668
-0.00431	-0.51203
0.17421	0.53379
0.32721	1.52859
0.35272	1.32453
0.19971	-0.76711
-0.02981	-0.35899
0.22521	0.81437
0.22521	1.29902
0.02119	0.45726
0.02119	1.55410
-0.31033	-0.33348
-0.53984	-1.76191
0.22521	-0.28246
0.58223	0.32972
0.88825	0.71234
0.70974	-1.27726
-0.15732	1.37554
-0.31033	0.20219
-0.33583	-0.46102
-0.10631	0.71234
0.12320	0.86539
0.45472	-0.56305
1.06676	-0.10391
1.32178	0.17668
0.37822	0.94191
-0.56534	-0.58856
-0.66735	-0.07840
-0.41233	0.38074
-0.20832	-0.41000
0.17421	-0.99668
0.32721	0.10015
0.48022	2.14077
0.68424	0.04914
0.42922	0.58480
0.07220	-0.35899
0.04670	-2.27207
0.02119	0.63582
-0.08081	0.53379
-0.20832	1.01843
0.14870	1.47757
0.30171	0.86539
0.14870	-1.35379
0.02119	-0.61406
0.22521	0.86539
0.09770	0.12566
-0.10631	-0.05289
-0.00431	-0.25695
0.19971	-0.86914
0.40372	0.55929
0.60773	1.19699
0.12320	-0.92016
-0.05531	0.45726
-0.00431	0.86539
0.58223	-0.00188
0.17421	0.89089
0.63323	-0.66508
0.19971	-1.83844
-0.38683	-0.07840
-0.53984	0.63582
-0.59084	1.93671
-0.18282	0.61031
0.42922	-0.05289
1.21977	0.58480
0.81175	-0.05289
0.02119	1.60511
-0.48884	-0.38449
-0.59084	-1.45582
-0.23382	-0.74160
0.53123	0.73785
1.04126	0.71234
1.01576	0.07465
-0.00431	-0.46102
-0.10631	0.35523
-0.36133	1.09496
-0.38683	-0.89465
-0.08081	-0.30797
0.68424	0.78886
0.55673	0.81437
0.12320	-0.38449
-0.13181	-0.97117
0.07220	1.24800
0.07220	-1.17523
-0.10631	-0.30797
0.17421	1.42656
0.19971	0.86539
0.27621	0.15117
0.48022	0.83988
0.07220	0.55929
0.07220	-0.18043
0.04670	-0.81812
-0.10631	-0.63957
-0.02981	1.19699
0.14870	-0.05289
0.48022	-0.35899
0.40372	-1.50683
0.07220	-0.02739
-0.10631	0.89089
-0.13181	-0.69059
0.32721	0.81437
0.63323	1.47757
0.76074	1.01843
-0.05531	0.58480
0.12320	0.25320
-0.18282	-0.00188
-0.38683	-0.58856
-0.38683	-0.23145
0.07220	0.76336
0.37822	-0.00188
0.32721	-0.46102
0.09770	-0.10391
0.19971	0.04914
0.53123	0.07465
0.48022	0.02363
-0.00431	0.22769
0.04670	0.55929
-0.08081	-0.15492
-0.02981	0.07465
0.30171	0.66132
0.32721	0.07465
0.14870	-0.30797
0.25071	0.91640
0.22521	0.43176
-0.20832	-0.05289
-0.38683	1.22250
-0.43783	-0.89465
-0.08081	-1.86394
0.93925	0.89089
0.76074	2.19179
0.45472	0.15117
0.17421	-0.48652
0.22521	0.48277
0.09770	-0.46102
-0.33583	-0.63957
-0.69285	0.25320
-0.05531	0.53379
-0.00431	-0.10391
0.88825	1.01843
0.76074	0.58480
0.58223	-0.58856
-0.02981	-0.38449
-0.38683	0.40625
0.02119	0.55929
0.12320	-0.05289
0.45472	0.55929
0.04670	-1.22625
-0.18282	-0.56305
-0.00431	1.01843
-0.00431	-0.48652
0.53123	0.02363
0.40372	0.86539
0.55673	1.50308
0.37822	0.27871
0.12320	0.30422
-0.31033	0.12566
-0.48884	-0.84363
-0.48884	0.32972
-0.00431	0.86539
0.19971	-1.53234
0.68424	0.10015
0.88825	0.63582
0.53123	0.27871
0.12320	0.48277
-0.08081	1.40105
-0.05531	0.17668
-0.08081	0.50828
0.22521	0.10015
0.30171	-0.48652
0.25071	0.02363
-0.20832	0.04914
-0.23382	0.68683
-0.28482	0.25320
-0.10631	-0.48652
0.35272	0.15117
0.42922	0.27871
0.37822	-0.05289
0.32721	0.20219
0.76074	0.63582
0.17421	1.80917
0.12320	-0.69059
0.37822	-1.99148
0.04670	-0.12942
-0.36133	0.68683
-0.66735	1.22250
-0.59084	0.35523
-0.25932	-0.48652
0.12320	0.81437
0.48022	0.68683
0.70974	-0.53754
0.53123	0.40625
0.76074	1.19699
0.83725	-1.37929
0.42922	-0.35899
-0.02981	0.40625
0.12320	0.58480
0.02119	-0.46102
-0.20832	-0.20594
0.04670	0.53379
-0.15732	-0.38449
-0.08081	0.22769
0.19971	-0.69059
0.14870	-0.35899
0.14870	1.27351
-0.02981	1.12046
-0.18282	1.14597
-0.43783	0.25320
-0.13181	0.45726
0.27621	-0.89465
0.81175	-1.60887
