0.07220	0.20219
0.22521	0.20219
0.14870	0.22769
0.12320	0.20219
0.19971	0.17668
0.14870	0.20219
0.09770	0.04914
0.22521	0.15117
0.09770	0.12566
0.14870	0.07465
0.12320	0.20219
0.07220	0.20219
0.19971	0.15117
0.14870	0.27871
0.14870	0.10015
0.22521	0.12566
0.07220	0.10015
0.19971	0.10015
0.14870	0.20219
0.09770	0.02363
0.19971	0.25320
0.09770	0.10015
0.14870	0.20219
0.14870	0.20219
0.14870	0.17668
0.14870	0.10015
0.17421	0.07465
0.22521	0.20219
0.09770	0.10015
0.22521	0.15117
0.09770	0.22769
0.14870	0.10015
0.17421	0.17668
0.07220	0.27871
0.22521	0.12566
0.12320	0.15117
0.09770	0.10015
0.22521	0.12566
0.09770	0.15117
0.12320	0.07465
0.12320	0.22769
0.17421	0.12566
0.17421	0.25320
0.07220	0.20219
0.19971	0.15117
0.17421	0.12566
0.14870	0.07465
0.22521	0.15117
0.09770	0.12566
0.22521	0.12566
0.09770	0.17668
0.17421	0.15117
0.09770	0.20219
0.17421	0.10015
0.14870	0.20219
0.14870	0.20219
0.19971	0.04914
0.14870	0.15117
0.14870	0.12566
0.22521	0.04914
0.09770	0.15117
0.22521	0.20219
0.12320	0.15117
0.09770	0.15117
0.19971	0.15117
0.07220	0.22769
0.12320	0.15117
0.14870	0.07465
0.07220	0.17668
0.22521	0.04914
0.14870	0.07465
0.09770	0.22769
0.22521	0.10015
0.14870	0.17668
0.12320	0.15117
0.22521	0.17668
0.07220	0.10015
0.12320	0.10015
0.12320	0.12566
0.12320	0.12566
0.12320	0.17668
0.14870	0.15117
0.12320	0.10015
0.12320	0.10015
0.14870	0.20219
0.14870	0.10015
0.14870	0.20219
0.14870	0.04914
0.14870	0.20219
0.09770	0.04914
0.22521	0.22769
0.04670	0.04914
0.22521	0.17668
0.07220	0.15117
0.22521	0.17668
0.12320	0.15117
0.14870	0.07465
0.19971	0.17668
0.07220	0.07465
0.12320	0.17668
0.12320	0.10015
0.22521	0.22769
0.09770	0.12566
0.19971	0.20219
0.09770	0.20219
0.14870	0.12566
0.07220	0.10015
0.22521	0.10015
0.14870	0.10015
0.12320	0.10015
0.14870	0.20219
0.12320	0.20219
0.19971	0.20219
0.09770	0.20219
0.14870	0.10015
0.12320	0.15117
0.07220	0.15117
0.19971	0.10015
0.17421	0.15117
0.07220	0.04914
0.19971	0.15117
0.09770	0.17668
0.14870	0.17668
0.14870	0.15117
0.14870	0.17668
0.17421	0.10015
0.07220	0.04914
0.19971	0.25320
0.07220	0.07465
0.19971	0.15117
0.14870	0.04914
0.14870	0.15117
0.12320	0.17668
0.17421	0.20219
0.17421	0.17668
0.17421	0.17668
0.14870	0.15117
0.14870	0.07465
0.12320	0.17668
0.14870	0.04914
0.14870	0.10015
0.14870	0.15117
0.14870	0.12566
0.14870	0.20219
0.17421	0.17668
0.14870	0.17668
0.14870	0.10015
0.12320	0.15117
0.12320	0.15117
0.19971	0.10015
0.12320	0.12566
0.17421	0.17668
0.14870	0.12566
0.14870	0.22769
0.12320	0.10015
0.14870	0.17668
0.07220	0.12566
0.19971	0.12566
0.07220	0.12566
0.17421	-0.00188
0.07220	0.25320
0.14870	0.12566
0.14870	0.22769
0.12320	0.22769
0.14870	0.20219
0.14870	0.15117
0.14870	0.10015
0.09770	0.12566
0.22521	0.10015
0.07220	0.10015
0.19971	0.15117
0.07220	0.20219
0.19971	0.15117
0.09770	0.15117
0.19971	0.12566
0.09770	0.04914
0.19971	0.25320
0.07220	0.07465
0.22521	0.20219
0.12320	0.02363
0.22521	0.20219
0.17421	0.17668
0.22521	0.12566
0.12320	0.15117
0.14870	0.12566
0.19971	0.15117
0.09770	0.12566
0.19971	0.12566
0.07220	0.17668
0.19971	0.07465
0.12320	0.12566
0.14870	0.25320
0.19971	0.12566
0.12320	0.22769
0.07220	0.12566
0.25071	0.15117
0.17421	0.15117
0.12320	0.15117
0.07220	0.12566
0.12320	0.02363
0.12320	0.25320
0.14870	0.10015
0.19971	0.20219
0.07220	0.10015
0.22521	0.15117
0.07220	0.10015
0.19971	0.17668
0.12320	0.15117
0.12320	0.10015
0.22521	0.12566
0.07220	0.10015
0.19971	0.25320
0.07220	0.07465
0.22521	0.25320
0.14870	0.20219
0.22521	0.15117
0.12320	0.10015
0.14870	0.15117
0.22521	0.15117
0.12320	0.12566
0.22521	0.15117
0.14870	0.15117
0.22521	0.15117
0.07220	0.15117
0.19971	0.22769
0.07220	0.07465
0.25071	0.22769
0.07220	0.07465
0.19971	0.15117
0.07220	0.12566
0.22521	0.17668
0.14870	0.15117
0.14870	0.10015
0.19971	0.25320
0.09770	0.17668
0.22521	0.10015
0.14870	0.17668
0.17421	0.12566
0.19971	0.12566
0.14870	0.15117
0.22521	0.07465
0.12320	0.15117
0.12320	0.17668
0.19971	0.10015
0.07220	0.22769
0.19971	0.10015
0.14870	0.15117
0.14870	0.15117
0.19971	0.02363
0.14870	0.20219
0.07220	0.15117
0.22521	0.15117
0.14870	0.25320
0.12320	0.10015
0.19971	0.17668
0.09770	0.15117
0.19971	0.04914
0.14870	0.22769
0.17421	0.10015
0.19971	0.07465
0.17421	0.22769
0.17421	0.17668
0.22521	0.15117
0.07220	0.25320
0.17421	0.20219
0.22521	0.12566
0.07220	0.22769
0.14870	0.07465
0.14870	0.10015
0.09770	0.12566
0.19971	0.15117
0.14870	0.20219
0.14870	0.15117
0.17421	0.22769
0.04670	0.27871
0.14870	0.17668
0.19971	0.10015
0.07220	0.15117
0.17421	0.04914
0.17421	0.12566
0.12320	0.15117
0.19971	0.17668
0.09770	0.22769
0.14870	0.10015
0.14870	0.22769
0.12320	0.15117
0.19971	0.04914
0.09770	0.17668
0.12320	0.04914
0.14870	0.12566
0.09770	0.15117
0.19971	0.10015
0.12320	0.15117
0.12320	0.20219
0.14870	0.22769
0.07220	0.17668
0.17421	0.02363
0.17421	0.20219
0.07220	0.22769
0.12320	0.15117
0.14870	0.12566
0.09770	0.20219
0.19971	0.04914
0.09770	0.15117
0.14870	0.22769
0.14870	0.07465
0.09770	0.17668
0.22521	0.12566
0.17421	0.04914
0.12320	0.17668
0.22521	0.15117
0.14870	0.15117
0.14870	0.22769
0.19971	0.12566
0.17421	0.17668
0.12320	0.15117
0.14870	0.15117
0.09770	0.20219
0.14870	0.04914
0.22521	0.10015
0.07220	0.15117
0.14870	0.10015
0.14870	0.20219
0.07220	0.15117
0.19971	0.17668
0.14870	0.17668
0.12320	0.15117
0.14870	0.20219
0.09770	0.04914
0.19971	0.15117
0.09770	0.10015
0.22521	0.25320
0.07220	0.07465
0.12320	0.22769
0.14870	0.12566
0.19971	0.20219
0.12320	0.10015
0.22521	0.15117
0.07220	0.12566
0.14870	0.04914
0.14870	0.25320
0.14870	0.20219
0.22521	0.15117
0.09770	0.17668
0.12320	0.22769
0.12320	0.15117
0.07220	0.07465
0.22521	0.15117
0.12320	0.17668
0.22521	0.04914
0.14870	0.25320
0.14870	0.20219
0.14870	0.15117
0.14870	0.22769
0.19971	0.15117
0.07220	0.22769
0.19971	0.07465
0.09770	0.15117
0.14870	0.10015
0.19971	0.10015
0.07220	0.12566
0.19971	0.17668
0.14870	0.15117
0.12320	0.15117
0.14870	0.27871
0.14870	0.10015
0.19971	0.12566
0.07220	0.12566
0.22521	0.04914
0.09770	0.15117
0.12320	0.07465
0.14870	0.15117
0.09770	0.17668
0.22521	0.10015
0.09770	0.20219
0.12320	0.12566
0.22521	0.15117
0.07220	0.17668
0.17421	0.10015
0.14870	0.10015
0.09770	0.12566
0.22521	0.15117
0.14870	0.25320
0.12320	0.17668
0.12320	0.25320
0.12320	0.10015
0.19971	0.17668
0.09770	0.10015
0.22521	0.20219
0.14870	-0.00188
0.14870	0.22769
0.17421	0.15117
0.22521	0.20219
0.07220	0.10015
0.19971	0.27871
0.09770	0.12566
0.17421	0.15117
0.07220	0.04914
0.22521	0.10015
0.07220	0.12566
0.22521	0.20219
0.09770	0.15117
0.12320	0.12566
0.12320	0.17668
0.14870	0.17668
0.12320	0.12566
0.12320	0.15117
0.12320	0.15117
0.07220	0.07465
0.19971	0.12566
0.09770	0.17668
0.22521	0.15117
0.07220	0.20219
0.19971	0.10015
0.09770	0.27871
0.14870	0.07465
0.12320	0.10015
0.14870	0.17668
0.22521	0.10015
0.07220	0.10015
0.14870	0.15117
0.14870	0.20219
0.14870	0.10015
0.14870	0.25320
0.07220	0.15117
0.19971	0.20219
0.09770	0.10015
0.22521	0.20219
0.09770	0.12566
0.22521	0.04914
0.14870	0.15117
0.12320	0.15117
0.07220	0.17668
0.19971	0.17668
0.09770	0.17668
0.22521	0.15117
0.09770	0.17668
0.22521	0.12566
0.07220	0.12566
0.19971	0.04914
0.14870	0.17668
0.19971	0.10015
0.12320	0.20219
0.14870	0.15117
0.22521	0.27871
0.09770	0.10015
0.17421	0.17668
0.09770	0.10015
0.22521	0.12566
0.09770	-0.18043
0.14870	0.25320
0.12320	0.25320
0.12320	0.20219
0.14870	0.30422
0.14870	0.17668
0.19971	0.25320
0.04670	0.04914
0.22521	0.12566
0.09770	0.12566
0.22521	0.07465
0.12320	0.12566
0.14870	0.10015
0.14870	0.22769
0.12320	0.10015
0.19971	0.20219
0.09770	0.15117
0.19971	0.12566
0.07220	0.17668
0.12320	0.04914
0.14870	0.12566
0.14870	0.15117
0.19971	0.27871
0.07220	0.10015
0.19971	0.17668
0.07220	0.10015
0.22521	0.20219
0.07220	0.10015
0.19971	0.12566
0.09770	0.10015
0.22521	0.12566
0.09770	0.17668
0.14870	0.12566
0.14870	0.20219
0.14870	0.10015
0.14870	0.15117
0.07220	0.10015
0.22521	0.12566
0.07220	0.15117
0.14870	0.04914
0.17421	0.15117
0.14870	0.04914
0.14870	0.20219
0.12320	0.15117
0.22521	0.17668
0.09770	0.17668
0.19971	0.15117
0.07220	0.00000
0.17421	0.00000
0.14870	0.00000
0.14870	0.00000
0.19971	0.12566
0.07220	0.15117
0.12320	0.15117
0.17421	0.10015
0.12320	0.27871
0.22521	0.20219
0.07220	0.15117
0.14870	0.22769
0.14870	0.15117
0.17421	0.10015
0.14870	0.12566
0.19971	0.25320
0.07220	0.17668
0.07220	0.15117
0.22521	0.15117
0.17421	0.12566
0.07220	0.15117
0.19971	0.20219
0.14870	0.15117
0.12320	0.15117
0.22521	0.20219
0.12320	0.07465
0.12320	0.12566
0.19971	0.10015
0.09770	0.15117
0.17421	0.25320
0.22521	-0.12942
0.14870	0.17668
0.12320	0.38074
0.22521	0.20219
0.07220	0.07465
0.22521	0.25320
0.17421	0.10015
0.12320	0.12566
0.19971	0.15117
0.09770	0.12566
0.22521	0.12566
0.14870	0.12566
0.14870	0.27871
0.12320	0.15117
0.04670	0.10015
0.22521	0.20219
0.14870	0.04914
0.19971	0.10015
0.14870	0.10015
0.12320	0.17668
0.22521	0.12566
0.09770	0.10015
0.22521	0.32972
0.07220	0.12566
0.17421	0.17668
0.09770	0.10015
0.22521	0.15117
0.07220	0.04914
0.19971	0.25320
0.07220	0.12566
0.22521	0.12566
0.12320	0.12566
0.17421	0.20219
0.14870	0.07465
0.14870	0.15117
0.14870	0.07465
0.14870	0.20219
0.12320	0.12566
0.07220	0.15117
0.19971	0.15117
0.14870	0.12566
0.14870	0.25320
0.22521	0.15117
0.07220	0.15117
0.22521	0.17668
0.07220	0.15117
0.12320	0.15117
0.14870	-0.12942
0.09770	0.17668
0.12320	0.38074
0.22521	0.15117
0.07220	0.20219
0.14870	0.17668
0.14870	0.12566
0.19971	0.10015
0.07220	0.15117
0.19971	0.07465
0.14870	0.12566
0.12320	0.15117
0.14870	0.15117
0.09770	0.15117
0.17421	0.15117
0.17421	0.17668
0.14870	0.15117
0.12320	0.04914
0.22521	0.25320
0.07220	0.07465
0.22521	0.15117
0.07220	0.15117
0.17421	0.17668
0.22521	0.15117
0.07220	0.20219
0.22521	0.22769
0.17421	0.04914
0.17421	0.15117
0.19971	0.15117
0.07220	0.10015
0.19971	0.12566
0.12320	0.17668
0.22521	0.22769
0.14870	0.15117
0.14870	0.17668
0.14870	0.22769
0.14870	0.07465
0.17421	0.15117
0.14870	0.15117
0.12320	0.10015
0.12320	0.15117
0.12320	0.15117
0.17421	0.25320
0.12320	0.12566
0.12320	0.15117
0.12320	0.17668
0.14870	0.07465
0.12320	0.20219
0.14870	0.02363
0.14870	0.10015
0.17421	0.10015
0.22521	0.17668
0.07220	0.15117
0.19971	0.12566
0.12320	0.15117
0.19971	0.20219
0.17421	0.15117
0.14870	0.12566
0.14870	0.15117
0.09770	0.07465
0.22521	0.22769
0.07220	0.15117
0.22521	0.22769
0.09770	0.04914
0.22521	0.22769
0.09770	0.12566
0.22521	0.04914
0.09770	0.04914
0.14870	0.25320
0.14870	0.20219
0.12320	0.20219
0.14870	0.17668
0.12320	0.15117
0.19971	0.15117
0.07220	0.15117
0.22521	0.20219
0.09770	0.07465
0.14870	0.12566
0.14870	0.20219
0.14870	0.12566
0.22521	-0.25695
0.04670	0.20219
0.19971	0.35523
0.09770	-0.00188
0.22521	0.66132
0.12320	-0.25695
0.12320	0.22769
0.14870	0.22769
0.07220	0.25320
0.22521	-0.23145
0.07220	0.02363
0.22521	0.27871
0.17421	0.68683
0.22521	0.94191
0.04670	-1.65988
0.22521	0.35523
0.09770	1.12046
0.19971	0.81437
0.04670	-0.15492
0.19971	-0.97117
0.04670	0.38074
0.09770	-0.05289
0.22521	1.17148
0.25071	-0.71609
0.12320	0.99292
0.12320	0.50828
0.17421	-0.58856
0.07220	0.91640
0.17421	-0.51203
0.19971	-3.19035
0.14870	1.35003
0.09770	1.47757
0.02119	0.10015
0.09770	0.07465
0.27621	0.73785
0.30171	0.53379
-0.05531	0.76336
0.42922	0.15117
0.22521	-0.46102
0.17421	1.22250
-0.13181	1.29902
0.12320	-0.56305
-0.08081	-3.82804
0.35272	0.53379
-0.13181	1.45206
0.35272	1.47757
-0.28482	2.65093
0.73524	-4.89936
0.40372	0.53379
0.55673	2.42136
-0.00431	0.63582
-0.23382	1.01843
-0.08081	2.70194
-0.59084	-4.26167
0.27621	-1.88945
0.48022	-0.35899
-0.00431	1.50308
0.02119	1.52859
0.53123	-0.48652
0.60773	0.86539
-0.36133	0.96742
-0.25932	-2.06800
0.73524	0.17668
0.81175	0.68683
0.02119	-0.15492
0.14870	1.45206
-0.10631	-2.55265
-0.18282	0.10015
-0.00431	-1.35379
-0.13181	1.42656
-0.02981	1.42656
0.32721	0.48277
0.63323	1.50308
0.22521	-0.43551
0.17421	0.45726
0.04670	1.09496
0.27621	-0.89465
-0.28482	0.63582
0.70974	0.30422
0.14870	0.02363
0.17421	-0.30797
0.07220	-0.66508
0.12320	0.91640
-0.05531	-0.33348
-0.08081	-0.66508
-0.18282	0.58480
0.25071	0.45726
0.22521	0.96742
0.09770	-0.20594
0.30171	0.71234
0.17421	-1.78742
0.04670	1.57960
0.25071	0.68683
0.32721	-0.48652
0.37822	-0.69059
0.25071	-0.07840
0.27621	0.73785
0.07220	0.48277
0.02119	-0.07840
0.19971	0.61031
-0.08081	0.94191
0.02119	-0.18043
0.02119	0.53379
0.07220	-0.20594
0.17421	0.04914
0.17421	-0.61406
0.45472	0.38074
0.22521	0.66132
0.12320	0.86539
0.22521	0.53379
-0.10631	-1.17523
-0.43783	0.27871
0.93925	0.35523
0.32721	-0.10391
-0.28482	0.96742
0.12320	-0.05289
0.02119	-1.43031
-0.02981	0.73785
0.17421	-0.35899
0.12320	1.42656
0.35272	0.07465
0.19971	0.17668
0.07220	0.48277
0.07220	0.20219
0.17421	-0.05289
0.22521	-0.30797
0.09770	0.17668
0.09770	1.68163
0.27621	-0.33348
0.27621	0.17668
0.09770	-0.15492
0.02119	-0.51203
0.22521	0.63582
0.12320	0.40625
0.19971	0.15117
0.19971	0.27871
0.19971	0.30422
-0.02981	0.04914
-0.02981	0.20219
-0.15732	0.07465
0.45472	0.25320
0.35272	0.12566
0.48022	-1.17523
0.22521	0.91640
-0.13181	1.29902
0.07220	0.25320
0.14870	-1.99148
0.37822	0.17668
0.07220	1.35003
0.12320	0.15117
0.19971	0.22769
0.02119	0.73785
0.19971	1.09496
0.17421	-0.51203
-0.05531	-0.20594
0.22521	-0.46102
0.65874	0.66132
0.60773	-1.14973
-0.41233	0.40625
0.42922	0.22769
-0.02981	0.15117
0.04670	0.20219
-0.28482	0.20219
0.04670	0.17668
0.12320	0.32972
0.40372	0.61031
0.14870	0.81437
0.35272	-1.50683
0.19971	0.32972
0.04670	-0.28246
0.07220	0.63582
0.22521	0.50828
0.12320	0.94191
0.12320	-0.33348
0.32721	0.45726
0.53123	-1.12422
0.50573	-0.10391
-0.10631	0.91640
-0.13181	0.30422
0.02119	0.15117
-0.15732	0.22769
0.02119	0.12566
0.22521	0.32972
0.12320	0.35523
0.17421	-0.05289
0.27621	0.04914
0.17421	0.07465
0.25071	-0.15492
0.09770	-0.15492
-0.23382	0.43176
0.65874	-0.23145
0.19971	0.02363
-0.08081	0.20219
0.12320	0.10015
0.09770	0.43176
0.14870	0.50828
0.02119	0.15117
0.27621	-0.81812
0.09770	-0.28246
0.22521	0.99292
0.12320	0.17668
-0.02981	0.66132
0.27621	-0.89465
0.27621	0.35523
0.02119	0.55929
-0.08081	0.55929
0.32721	-0.07840
0.04670	-0.00188
0.22521	0.68683
0.22521	-0.35899
0.09770	-0.28246
0.37822	0.45726
0.22521	0.94191
-0.00431	-0.33348
-0.13181	0.10015
0.12320	-0.30797
0.07220	0.99292
0.09770	0.04914
0.25071	-0.46102
0.19971	-0.05289
-0.00431	0.76336
0.04670	0.45726
0.45472	0.40625
-0.05531	0.02363
0.40372	-0.28246
0.32721	-0.05289
0.22521	-0.28246
-0.08081	0.38074
-0.00431	1.06945
0.07220	-1.43031
0.02119	1.17148
-0.02981	0.04914
0.12320	0.17668
0.32721	0.12566
0.32721	1.63062
0.14870	-0.35899
0.07220	-0.05289
0.17421	0.27871
-0.00431	-0.33348
-0.13181	-0.10391
0.48022	0.04914
0.35272	0.04914
0.19971	0.58480
-0.00431	0.50828
-0.18282	-0.23145
0.17421	0.43176
0.19971	0.02363
0.32721	0.04914
0.22521	0.25320
-0.02981	0.15117
0.12320	-0.25695
0.09770	0.83988
0.12320	-1.07320
0.04670	0.48277
0.42922	0.02363
0.30171	0.38074
0.07220	-0.15492
-0.05531	0.25320
0.09770	0.20219
0.17421	0.50828
0.17421	0.61031
-0.00431	0.40625
0.25071	0.35523
0.22521	0.35523
0.22521	-0.76711
0.12320	0.32972
-0.02981	0.30422
0.12320	0.04914
0.22521	0.50828
0.32721	0.50828
0.09770	0.22769
0.22521	-0.35899
-0.02981	-1.37929
0.02119	0.76336
0.40372	0.61031
0.25071	0.76336
0.22521	-1.25176
0.04670	0.43176
0.07220	0.66132
0.02119	0.20219
-0.05531	-0.02739
0.17421	0.63582
0.25071	2.01323
0.19971	-3.64948
0.27621	-2.37410
0.07220	0.99292
0.25071	0.55929
0.19971	0.61031
0.09770	0.78886
-0.08081	0.61031
0.55673	0.22769
0.25071	0.22769
-0.00431	0.45726
0.12320	0.20219
0.12320	0.15117
-0.02981	-0.38449
0.17421	-0.76711
0.09770	1.12046
0.19971	0.12566
0.25071	0.25320
0.25071	0.38074
-0.00431	-1.17523
0.19971	0.89089
0.14870	1.22250
0.04670	0.50828
0.40372	-1.91496
0.22521	0.63582
0.25071	0.10015
-0.08081	0.78886
-0.23382	0.58480
0.07220	0.35523
0.14870	0.83988
0.09770	-1.73640
0.78624	0.04914
0.81175	0.89089
0.22521	0.35523
-0.10631	0.91640
-0.23382	-3.19035
-0.25932	-0.30797
-0.15732	1.04394
0.14870	0.86539
0.19971	0.32972
0.22521	-0.07840
0.25071	0.53379
0.27621	0.91640
0.14870	-0.00188
0.12320	1.06945
0.07220	-0.81812
0.14870	-0.89465
0.30171	0.02363
0.22521	0.12566
0.04670	0.17668
0.09770	0.73785
0.12320	0.66132
0.07220	0.96742
0.17421	0.68683
0.04670	0.12566
0.19971	-1.99148
0.25071	0.43176
0.14870	0.30422
0.07220	0.27871
0.02119	0.58480
0.04670	-0.92016
0.32721	-0.15492
0.17421	0.91640
0.07220	-0.66508
0.17421	-0.15492
0.19971	0.83988
0.04670	0.53379
0.22521	-0.46102
0.12320	0.71234
0.14870	0.63582
0.17421	-0.00188
0.09770	0.68683
0.27621	-1.07320
0.14870	-0.10391
-0.02981	0.66132
0.25071	-0.10391
-0.02981	0.32972
0.32721	0.32972
0.25071	0.04914
0.07220	-0.97117
0.04670	0.55929
0.09770	0.73785
0.19971	1.42656
0.22521	-0.89465
-0.38683	-0.18043
0.53123	-0.10391
0.42922	0.55929
0.17421	0.22769
0.14870	0.45726
-0.02981	0.20219
0.14870	0.22769
-0.08081	0.61031
-0.05531	-0.23145
0.25071	-1.30277
0.12320	0.55929
0.27621	0.48277
0.25071	0.99292
0.22521	0.45726
0.27621	0.10015
0.02119	0.32972
0.12320	-0.23145
0.17421	-0.56305
0.09770	0.53379
0.14870	0.27871
0.02119	0.20219
0.22521	0.10015
-0.00431	-0.35899
0.12320	0.55929
0.30171	-0.38449
0.07220	0.43176
0.12320	0.38074
0.19971	0.04914
0.19971	0.17668
0.04670	0.17668
0.14870	0.27871
0.14870	0.12566
0.12320	0.12566
0.30171	0.20219
0.12320	-0.00188
0.12320	0.17668
0.22521	0.20219
0.07220	0.20219
0.22521	0.22769
0.17421	0.22769
0.07220	-0.00188
0.17421	-0.18043
0.09770	0.53379
0.09770	-0.61406
0.19971	-0.25695
0.04670	0.58480
0.12320	1.06945
0.14870	-0.99668
0.19971	0.43176
0.17421	0.04914
0.12320	0.78886
0.19971	0.66132
0.27621	-0.58856
0.12320	-0.05289
0.12320	0.48277
-0.00431	0.32972
0.17421	0.45726
0.32721	0.20219
0.02119	-0.28246
0.17421	-0.00188
0.22521	-0.00188
0.12320	-0.20594
0.22521	0.89089
0.12320	-0.89465
0.17421	1.29902
0.30171	-1.32828
0.09770	0.89089
-0.02981	-0.07840
0.30171	-0.07840
0.22521	0.94191
-0.08081	0.45726
0.02119	0.17668
0.19971	0.15117
0.35272	-0.00188
0.19971	-0.10391
0.02119	-0.18043
0.07220	0.55929
0.22521	0.15117
0.02119	0.55929
0.09770	-1.65988
0.04670	0.55929
0.30171	0.55929
0.17421	-0.02739
0.12320	0.43176
0.22521	0.30422
0.17421	0.22769
0.19971	0.04914
0.17421	0.04914
0.14870	0.76336
0.04670	-0.15492
0.07220	0.04914
0.19971	0.20219
0.27621	1.09496
-0.08081	-0.53754
0.02119	0.38074
0.04670	-0.79262
0.32721	0.55929
0.32721	0.12566
0.35272	0.32972
0.07220	-0.86914
0.09770	1.01843
0.04670	1.50308
0.17421	-1.09871
0.17421	-0.92016
0.25071	0.94191
0.09770	0.50828
0.09770	0.73785
-0.02981	-0.89465
0.27621	0.76336
0.27621	-0.10391
0.09770	-0.12942
0.12320	0.22769
0.09770	0.07465
0.07220	-0.05289
0.25071	0.17668
0.22521	0.30422
0.12320	0.45726
0.07220	-0.35899
0.12320	0.43176
0.17421	0.15117
-0.10631	0.43176
0.25071	-0.10391
0.27621	0.20219
0.45472	0.35523
0.09770	-0.69059
-0.00431	0.45726
0.17421	0.07465
0.17421	1.57960
0.07220	-0.53754
0.19971	-0.92016
0.19971	0.32972
0.22521	-0.20594
-0.08081	1.06945
0.12320	-0.25695
0.12320	0.02363
0.22521	0.45726
0.07220	0.55929
0.40372	0.17668
0.09770	0.12566
0.30171	0.32972
0.12320	-0.43551
0.12320	0.32972
0.02119	0.12566
0.19971	-0.12942
0.09770	-1.07320
0.09770	0.55929
0.09770	-0.97117
0.17421	0.71234
0.14870	0.55929
0.09770	-0.20594
0.22521	0.27871
-0.00431	0.58480
0.22521	-0.41000
0.14870	0.55929
0.19971	-0.46102
0.07220	1.47757
0.22521	-0.12942
0.25071	0.58480
0.12320	0.73785
0.09770	-0.51203
0.12320	0.04914
0.19971	-0.12942
0.19971	-0.63957
0.12320	0.04914
0.25071	1.37554
0.17421	0.66132
0.19971	0.07465
0.04670	0.15117
0.19971	0.38074
0.17421	0.22769
-0.02981	0.10015
0.02119	-0.79262
0.19971	0.02363
0.19971	0.20219
0.22521	-0.15492
0.12320	0.55929
0.25071	0.96742
0.07220	-0.18043
0.22521	-1.27726
0.12320	0.99292
-0.08081	-0.05289
0.17421	-0.41000
0.27621	0.58480
0.32721	0.76336
0.12320	0.45726
0.09770	0.02363
-0.00431	-0.38449
0.09770	0.61031
0.19971	0.32972
0.25071	0.22769
0.19971	0.40625
0.12320	-0.00188
0.12320	-0.05289
0.14870	-0.58856
0.22521	0.66132
0.12320	0.12566
0.14870	0.45726
0.02119	-0.86914
0.17421	0.53379
0.22521	0.78886
0.14870	-0.02739
0.25071	0.45726
0.19971	-0.12942
0.09770	0.50828
0.27621	-1.09871
0.07220	-0.35899
0.19971	0.78886
0.14870	0.83988
0.04670	0.38074
0.17421	0.10015
0.12320	0.25320
0.02119	0.10015
0.12320	0.25320
0.27621	0.02363
0.17421	-0.12942
0.17421	0.32972
0.19971	0.25320
0.17421	0.15117
0.12320	0.32972
0.14870	0.81437
0.12320	-0.48652
0.07220	0.04914
-0.00431	-0.10391
0.17421	0.27871
0.14870	0.10015
0.09770	0.15117
0.32721	0.32972
0.22521	0.12566
0.12320	0.10015
0.12320	0.15117
0.02119	-0.15492
0.22521	0.50828
0.04670	-0.25695
0.17421	0.02363
0.22521	0.40625
0.12320	0.76336
0.14870	0.10015
0.07220	-0.48652
0.27621	0.07465
0.12320	0.30422
0.19971	0.63582
0.09770	0.76336
0.09770	-1.53234
0.09770	-0.25695
0.17421	0.71234
0.07220	0.76336
0.17421	0.63582
0.14870	0.25320
0.12320	0.38074
0.27621	0.04914
0.09770	0.22769
0.27621	0.25320
0.09770	-0.48652
0.25071	-0.05289
0.12320	0.04914
0.09770	0.20219
0.12320	0.35523
0.12320	0.12566
0.22521	-0.07840
0.17421	-0.38449
-0.00431	0.53379
0.27621	0.20219
0.09770	-0.35899
0.14870	0.25320
0.09770	0.10015
0.12320	0.32972
0.32721	0.45726
0.17421	-0.79262
0.09770	0.55929
0.17421	0.40625
0.02119	0.55929
0.14870	-1.09871
0.07220	0.32972
0.22521	0.38074
0.12320	0.61031
0.02119	0.04914
0.22521	0.58480
0.17421	0.38074
0.12320	0.10015
0.04670	-1.07320
0.04670	0.53379
0.27621	0.43176
0.17421	0.35523
0.19971	-0.76711
0.12320	0.17668
0.09770	0.38074
0.14870	0.17668
0.14870	0.50828
0.17421	-0.15492
0.07220	0.22769
0.25071	-0.51203
0.09770	-0.28246
0.17421	0.55929
-0.00431	0.32972
0.22521	0.38074
-0.08081	0.53379
0.27621	0.96742
0.22521	0.07465
0.22521	0.22769
0.07220	0.07465
0.09770	0.10015
0.27621	0.07465
0.04670	0.10015
0.17421	0.20219
0.09770	0.10015
0.12320	-0.18043
0.14870	0.63582
0.12320	-0.66508
0.09770	-0.02739
0.14870	0.25320
0.25071	0.76336
0.14870	0.78886
0.22521	0.30422
0.07220	0.25320
0.19971	0.22769
0.14870	0.10015
0.17421	0.02363
0.17421	0.53379
0.12320	0.02363
0.22521	0.25320
0.02119	-0.99668
0.17421	-0.48652
0.04670	0.78886
0.14870	-0.33348
0.22521	1.17148
0.02119	0.25320
0.22521	-0.33348
0.12320	0.63582
0.12320	0.55929
0.19971	-0.18043
0.22521	0.10015
0.04670	0.32972
0.12320	0.66132
-0.05531	-0.05289
0.30171	0.22769
0.22521	0.10015
0.14870	0.22769
0.17421	0.55929
0.17421	-0.53754
0.19971	-0.23145
0.09770	0.10015
0.19971	0.38074
0.12320	0.76336
0.02119	0.22769
0.17421	0.12566
0.07220	-0.05289
0.19971	0.22769
0.09770	0.50828
0.27621	0.63582
0.09770	-1.20074
0.09770	-0.84363
0.19971	1.24800
0.27621	-0.05289
0.12320	0.58480
0.19971	0.20219
0.04670	0.17668
-0.00431	0.10015
0.02119	0.17668
0.27621	0.07465
0.25071	0.17668
0.14870	-0.18043
0.25071	0.32972
0.14870	-0.20594
0.09770	0.27871
0.19971	-0.97117
-0.08081	0.48277
0.22521	0.40625
0.17421	0.10015
0.14870	0.55929
0.25071	-0.23145
0.12320	1.45206
0.09770	-0.99668
0.14870	0.68683
0.07220	0.63582
0.12320	-0.97117
0.22521	0.61031
0.09770	0.30422
0.17421	-0.00188
0.04670	0.02363
0.14870	0.32972
0.12320	0.17668
0.19971	0.45726
0.14870	-1.40480
0.07220	0.25320
0.25071	0.43176
-0.00431	0.53379
0.19971	0.40625
0.12320	-0.35899
0.17421	0.53379
0.02119	-0.20594
0.12320	-0.02739
0.22521	0.45726
0.22521	0.20219
0.09770	-0.28246
0.12320	-0.12942
0.09770	0.25320
0.09770	0.45726
0.14870	0.22769
0.22521	0.07465
0.14870	-0.66508
0.22521	0.58480
0.04670	0.35523
0.22521	-0.23145
0.14870	0.66132
-0.00431	0.40625
0.14870	0.55929
0.14870	-1.22625
0.35272	0.61031
0.07220	-0.18043
0.22521	0.12566
0.09770	0.48277
0.14870	0.17668
0.09770	0.10015
0.14870	-0.43551
0.07220	0.15117
0.27621	0.53379
0.02119	-0.15492
0.17421	-0.15492
0.14870	0.78886
0.14870	-0.05289
0.19971	0.48277
0.17421	-0.23145
0.17421	0.12566
-0.02981	0.43176
0.27621	0.45726
0.07220	0.22769
0.22521	0.32972
0.19971	-0.12942
0.14870	0.25320
0.12320	0.17668
0.12320	0.38074
0.09770	-1.14973
0.12320	-0.00188
0.32721	0.61031
0.04670	0.17668
0.14870	0.35523
-0.00431	0.50828
0.25071	0.45726
0.09770	0.15117
0.12320	-0.07840
0.12320	-0.05289
0.19971	0.15117
0.09770	0.53379
0.12320	0.30422
0.32721	-0.76711
0.04670	-0.51203
0.04670	1.06945
0.22521	-0.41000
0.17421	0.68683
0.12320	-1.68539
0.30171	0.81437
0.04670	0.83988
0.25071	0.61031
0.04670	-0.35899
0.04670	0.10015
0.14870	0.15117
0.12320	0.32972
0.14870	0.38074
0.12320	-0.15492
0.19971	-0.63957
0.12320	0.38074
0.14870	0.96742
0.14870	-1.81293
0.19971	0.78886
0.17421	0.17668
0.14870	1.37554
0.12320	-0.35899
0.04670	0.02363
0.22521	-0.28246
0.09770	0.15117
0.19971	0.10015
0.14870	0.20219
0.27621	0.40625
0.04670	-0.81812
0.12320	0.73785
0.02119	-0.46102
0.19971	0.66132
0.02119	0.53379
0.22521	0.10015
0.12320	0.27871
0.17421	0.15117
0.12320	0.15117
0.19971	0.04914
0.12320	-0.23145
0.09770	0.45726
0.09770	0.20219
0.27621	0.35523
0.09770	0.02363
0.02119	0.15117
-0.05531	0.20219
0.32721	0.40625
0.22521	0.45726
0.27621	0.53379
0.12320	-1.17523
0.25071	0.58480
0.09770	-0.23145
0.07220	0.50828
0.07220	0.27871
0.14870	0.45726
0.02119	0.22769
0.25071	0.15117
0.14870	0.04914
0.14870	0.22769
0.09770	-0.18043
0.09770	-0.02739
0.09770	-0.02739
0.30171	0.45726
0.27621	0.45726
-0.00431	0.55929
0.17421	-1.58336
0.17421	0.38074
0.14870	0.76336
0.17421	-0.38449
0.09770	1.04394
0.19971	0.38074
0.09770	0.68683
0.19971	0.91640
0.19971	-0.97117
0.19971	-0.30797
0.12320	0.63582
0.09770	-0.53754
0.19971	0.15117
0.12320	0.76336
0.12320	-0.25695
0.09770	0.20219
0.14870	0.07465
0.19971	-0.00188
0.02119	0.27871
0.22521	0.32972
0.09770	0.25320
0.25071	0.22769
0.09770	0.10015
0.14870	0.22769
0.22521	0.02363
0.12320	0.02363
0.09770	0.63582
0.17421	-0.20594
0.32721	0.35523
0.02119	0.25320
0.04670	0.38074
0.12320	0.04914
0.04670	0.12566
0.02119	0.35523
0.22521	-0.51203
0.27621	-0.97117
0.17421	0.02363
0.27621	0.81437
-0.08081	0.55929
0.22521	0.71234
0.09770	-0.15492
0.30171	0.58480
0.19971	-0.25695
0.04670	0.25320
0.07220	0.10015
0.14870	0.27871
0.04670	-0.28246
0.17421	0.04914
0.17421	-0.79262
0.27621	0.53379
0.25071	0.30422
0.12320	0.02363
0.19971	0.10015
0.07220	0.76336
0.22521	0.78886
0.09770	-0.43551
0.14870	0.32972
0.14870	-0.25695
0.14870	-0.07840
0.12320	0.43176
0.12320	0.50828
0.32721	-0.71609
0.14870	0.81437
0.14870	-0.99668
0.12320	0.71234
0.12320	0.53379
0.07220	0.32972
0.12320	0.50828
0.25071	0.61031
0.14870	0.48277
0.22521	-0.15492
0.12320	0.04914
0.30171	0.07465
-0.02981	0.04914
-0.00431	-0.12942
-0.02981	-0.15492
0.45472	-0.02739
0.30171	0.17668
0.09770	0.07465
0.17421	0.30422
0.19971	0.10015
0.07220	0.53379
0.02119	0.27871
0.09770	-0.20594
0.35272	0.32972
0.07220	0.22769
0.07220	0.12566
0.07220	0.10015
0.19971	0.20219
0.17421	0.61031
-0.00431	0.07465
0.27621	-0.79262
0.09770	0.30422
0.25071	0.73785
0.14870	-0.46102
0.22521	-0.10391
0.04670	0.73785
0.25071	0.50828
0.14870	0.22769
0.22521	0.53379
-0.05531	-1.27726
0.19971	0.81437
0.09770	1.27351
0.19971	0.07465
0.12320	0.15117
0.27621	-0.05289
0.07220	-0.07840
0.12320	0.02363
0.14870	0.10015
0.19971	0.17668
0.22521	-0.33348
0.09770	-0.18043
0.14870	0.32972
0.09770	0.22769
0.09770	0.38074
0.27621	0.32972
0.09770	0.07465
0.22521	0.32972
-0.00431	0.20219
0.19971	0.20219
0.19971	0.04914
-0.05531	0.15117
0.17421	0.10015
0.27621	0.35523
0.14870	-0.00188
0.09770	-0.15492
0.07220	0.10015
0.17421	0.25320
0.14870	0.10015
0.14870	0.25320
0.07220	0.22769
0.17421	0.12566
0.25071	0.25320
0.04670	0.04914
0.17421	0.04914
0.09770	0.10015
0.19971	0.45726
0.17421	-0.02739
0.12320	0.22769
0.19971	1.35003
0.14870	-2.17003
0.14870	0.35523
0.25071	0.61031
0.14870	-1.14973
0.12320	1.17148
0.07220	1.01843
0.17421	0.73785
0.17421	0.53379
0.04670	0.07465
0.19971	0.04914
0.14870	-0.02739
0.07220	-0.25695
0.07220	-0.12942
0.09770	-0.35899
0.25071	-0.30797
0.17421	0.04914
0.12320	0.50828
0.17421	0.68683
0.12320	0.10015
0.17421	-0.10391
0.12320	0.25320
0.17421	0.17668
0.04670	0.04914
0.17421	0.10015
0.04670	0.35523
0.27621	0.32972
0.12320	0.63582
0.02119	-0.61406
0.12320	0.10015
0.17421	0.61031
0.27621	0.32972
0.22521	0.76336
0.07220	-1.81293
0.17421	0.63582
0.09770	0.53379
0.07220	0.35523
0.12320	0.22769
0.19971	-1.04770
0.14870	-1.14973
0.17421	0.83988
0.04670	0.99292
0.14870	0.12566
0.17421	0.12566
0.14870	0.04914
0.22521	-0.05289
0.07220	0.43176
0.17421	-0.00188
0.17421	0.25320
-0.00431	0.10015
0.07220	-0.15492
0.27621	0.35523
0.14870	-0.53754
0.12320	0.43176
0.14870	0.04914
0.19971	0.35523
0.17421	0.43176
-0.00431	0.07465
0.09770	0.15117
0.14870	-0.07840
0.12320	-0.38449
0.27621	0.45726
0.04670	0.38074
0.04670	0.10015
0.27621	0.68683
0.25071	0.66132
0.09770	-0.15492
0.09770	-0.97117
0.22521	0.25320
0.17421	0.78886
0.14870	0.30422
0.17421	-0.35899
0.14870	0.43176
0.17421	0.78886
0.04670	-0.00188
0.22521	-0.07840
-0.02981	0.15117
0.27621	0.12566
0.07220	0.02363
0.19971	0.40625
0.19971	0.10015
0.02119	0.22769
0.19971	0.04914
0.17421	0.17668
0.17421	0.25320
0.17421	0.25320
0.30171	-0.28246
0.22521	0.76336
0.04670	-0.20594
0.12320	0.22769
0.04670	0.20219
0.14870	0.43176
0.04670	0.07465
0.22521	-0.20594
0.17421	0.22769
0.17421	1.32453
0.12320	-0.33348
0.25071	-0.07840
0.12320	0.38074
0.14870	-0.51203
0.07220	0.30422
0.17421	0.78886
0.07220	0.53379
0.12320	-0.35899
0.25071	0.40625
0.02119	0.25320
0.14870	0.25320
0.19971	-0.10391
0.14870	0.07465
0.09770	-0.00188
0.17421	0.20219
0.12320	0.30422
0.17421	-0.02739
-0.02981	0.45726
0.09770	-0.74160
0.22521	0.68683
0.07220	0.27871
0.27621	0.32972
0.19971	0.35523
0.12320	0.04914
0.12320	0.07465
0.14870	0.10015
0.07220	0.15117
0.17421	0.20219
0.14870	-0.05289
0.12320	0.17668
0.25071	0.12566
0.12320	0.83988
0.14870	0.38074
0.12320	-0.76711
-0.00431	0.04914
0.07220	-1.04770
0.22521	1.14597
0.25071	-0.07840
0.27621	-0.71609
-0.00431	0.27871
0.25071	0.45726
0.25071	0.71234
0.19971	0.76336
-0.00431	0.30422
0.12320	0.12566
0.12320	-0.33348
0.17421	-0.53754
0.14870	0.32972
0.14870	0.02363
0.07220	0.53379
0.14870	0.04914
0.12320	0.22769
0.22521	0.12566
0.14870	0.20219
0.14870	0.20219
0.09770	-0.18043
0.22521	0.12566
0.14870	0.22769
0.22521	0.22769
0.14870	0.22769
0.14870	0.15117
0.17421	0.15117
0.04670	0.17668
0.14870	0.25320
0.14870	0.10015
0.12320	0.22769
0.17421	0.10015
0.14870	0.25320
0.25071	0.35523
0.19971	-0.10391
0.09770	-0.23145
-0.08081	0.02363
0.09770	0.38074
0.40372	0.43176
0.07220	0.30422
0.22521	0.15117
0.14870	-0.07840
0.14870	-0.66508
0.22521	0.66132
0.09770	-0.28246
0.12320	0.53379
0.12320	0.68683
0.19971	0.55929
0.17421	0.40625
0.02119	0.43176
0.22521	-0.41000
0.22521	-0.61406
0.19971	-1.09871
0.04670	0.83988
0.07220	-0.33348
0.14870	1.01843
0.02119	0.76336
0.27621	0.48277
0.30171	0.12566
0.19971	0.10015
0.14870	0.12566
0.09770	-0.25695
0.04670	0.20219
0.07220	0.10015
0.14870	0.22769
0.30171	0.40625
0.14870	0.48277
0.14870	-0.92016
0.12320	0.07465
0.09770	0.30422
0.25071	0.27871
0.09770	0.15117
0.09770	0.35523
0.22521	0.15117
0.12320	0.63582
0.07220	0.35523
0.22521	-1.22625
0.07220	0.40625
0.04670	0.55929
0.37822	0.61031
0.14870	0.50828
0.19971	-0.81812
0.02119	0.12566
0.22521	0.76336
0.12320	0.07465
0.17421	-0.35899
0.14870	0.50828
0.22521	0.40625
0.14870	0.66132
0.04670	-0.84363
0.25071	0.43176
0.02119	0.17668
0.14870	0.22769
0.17421	0.07465
0.12320	0.02363
0.09770	0.38074
0.27621	0.27871
0.30171	-0.63957
0.09770	-0.30797
0.12320	0.40625
0.12320	0.32972
0.17421	0.50828
0.14870	0.32972
0.04670	0.50828
0.22521	-0.05289
0.09770	0.30422
0.14870	0.17668
0.22521	0.63582
0.09770	-1.65988
0.14870	0.89089
0.09770	-0.46102
0.07220	0.71234
0.17421	-0.02739
0.14870	0.53379
0.12320	0.35523
0.22521	0.15117
0.12320	0.04914
0.07220	-0.07840
0.07220	-0.18043
0.17421	0.35523
0.19971	0.12566
0.22521	0.61031
0.12320	-0.23145
0.17421	-0.07840
0.25071	0.20219
-0.02981	0.17668
-0.08081	0.07465
0.30171	-0.07840
0.32721	0.86539
0.30171	-0.86914
0.09770	0.66132
0.07220	0.55929
0.04670	0.02363
0.14870	-0.05289
0.17421	-0.07840
0.19971	0.78886
0.17421	0.66132
0.12320	0.30422
0.12320	-0.00188
0.12320	-0.20594
0.35272	0.20219
-0.15732	-0.12942
0.17421	0.27871
0.17421	0.38074
0.17421	-0.35899
0.14870	-0.15492
0.17421	0.02363
0.12320	0.38074
0.12320	0.27871
0.12320	0.30422
0.09770	-0.30797
0.19971	0.61031
0.12320	0.48277
0.19971	-0.15492
0.09770	-0.05289
0.17421	0.50828
0.07220	0.25320
0.19971	0.10015
0.07220	0.22769
0.25071	0.53379
0.19971	-0.18043
0.12320	-0.48652
0.12320	0.17668
0.17421	0.27871
0.19971	0.32972
0.17421	0.20219
0.02119	0.04914
0.02119	0.12566
0.17421	0.20219
0.27621	0.15117
0.22521	-0.05289
-0.02981	0.02363
0.22521	0.25320
0.19971	-0.15492
0.12320	0.48277
0.09770	0.27871
0.22521	0.22769
0.14870	0.43176
0.25071	0.58480
0.07220	-1.96597
-0.00431	0.30422
0.27621	0.76336
0.14870	0.50828
0.17421	0.50828
0.14870	0.25320
0.27621	0.53379
0.12320	-1.40480
0.19971	-0.28246
0.12320	0.45726
0.12320	0.68683
0.12320	-0.28246
0.25071	0.68683
-0.05531	0.30422
0.12320	-0.12942
0.14870	-0.28246
0.22521	0.35523
0.12320	0.35523
0.22521	0.71234
0.07220	-0.18043
0.19971	-0.20594
0.22521	0.32972
0.09770	0.10015
0.07220	0.15117
0.12320	0.30422
0.17421	0.17668
0.19971	0.30422
0.17421	0.35523
0.02119	0.81437
0.17421	-1.58336
0.12320	0.86539
0.19971	0.15117
0.27621	0.12566
0.09770	0.25320
0.14870	0.15117
0.17421	0.07465
0.09770	0.25320
0.14870	0.22769
-0.00431	-0.05289
0.14870	0.15117
0.19971	0.15117
0.14870	0.38074
0.09770	0.15117
0.37822	0.02363
0.07220	-0.12942
0.07220	0.15117
0.32721	0.30422
0.12320	-0.15492
0.12320	0.38074
0.19971	-0.00188
0.14870	-0.61406
0.22521	0.91640
0.02119	0.63582
0.14870	-0.07840
0.12320	-0.05289
0.12320	0.50828
0.14870	-0.30797
0.12320	0.25320
0.25071	0.07465
0.12320	0.25320
0.07220	0.15117
0.09770	0.07465
0.25071	0.25320
0.14870	-0.07840
0.17421	0.07465
0.09770	-0.02739
0.14870	0.17668
0.22521	0.32972
0.02119	0.20219
0.12320	-0.02739
0.12320	-0.20594
0.09770	0.61031
0.19971	1.35003
0.22521	0.17668
0.09770	0.25320
0.22521	-0.86914
0.22521	0.43176
-0.00431	0.10015
-0.02981	0.55929
0.12320	0.12566
0.17421	0.58480
0.30171	-0.20594
0.07220	-0.12942
0.14870	0.43176
0.14870	0.17668
0.19971	0.20219
0.25071	0.15117
0.12320	-0.10391
0.14870	0.22769
0.12320	0.07465
0.07220	0.32972
0.17421	0.12566
0.14870	-0.30797
0.07220	0.40625
0.22521	0.40625
0.12320	0.27871
0.19971	0.32972
0.14870	0.04914
0.09770	0.40625
-0.00431	-0.84363
0.22521	0.50828
0.30171	0.89089
0.09770	0.02363
0.19971	0.15117
0.02119	0.32972
0.25071	0.10015
0.17421	-0.48652
0.07220	-0.10391
0.25071	0.38074
0.04670	0.27871
0.09770	-0.48652
0.12320	0.45726
-0.05531	0.32972
0.19971	0.22769
0.09770	0.15117
0.14870	0.22769
0.30171	0.25320
0.14870	0.07465
0.12320	0.63582
0.14870	-1.20074
0.07220	0.04914
0.14870	0.81437
0.09770	0.12566
0.02119	-0.58856
0.14870	1.14597
0.17421	-0.05289
0.12320	0.27871
0.22521	0.45726
0.07220	-0.07840
0.14870	0.12566
0.14870	0.32972
0.25071	-0.63957
0.14870	0.55929
0.12320	0.48277
0.04670	0.02363
0.12320	-0.10391
0.12320	0.15117
0.14870	0.22769
0.09770	0.12566
0.14870	0.35523
0.19971	-0.25695
0.07220	0.25320
0.27621	0.10015
0.17421	-0.61406
0.30171	0.61031
-0.05531	0.32972
-0.13181	0.22769
0.12320	-0.15492
0.25071	0.35523
0.17421	0.76336
0.32721	-0.41000
0.14870	0.22769
-0.00431	0.02363
0.27621	-0.25695
-0.00431	0.10015
0.30171	0.48277
0.25071	-0.84363
0.04670	0.38074
0.04670	0.35523
0.04670	0.55929
0.22521	0.25320
0.02119	0.07465
0.19971	0.32972
0.12320	0.17668
0.14870	0.30422
0.09770	0.12566
0.19971	0.15117
0.04670	-0.23145
0.14870	0.73785
0.12320	-0.46102
0.22521	0.38074
0.17421	0.83988
-0.00431	-0.76711
0.12320	-0.92016
0.17421	0.96742
0.12320	0.53379
0.22521	0.50828
0.12320	0.45726
0.12320	-0.05289
0.12320	0.15117
0.14870	-0.12942
0.14870	-0.07840
0.17421	0.17668
0.02119	-0.02739
0.12320	0.25320
0.17421	0.50828
0.22521	0.10015
0.22521	-1.25176
0.19971	0.58480
0.07220	0.66132
-0.10631	0.35523
0.32721	0.17668
0.12320	0.27871
0.22521	0.30422
0.07220	-0.00188
0.25071	-0.00188
0.22521	0.10015
0.37822	0.17668
0.07220	0.25320
0.04670	0.43176
0.04670	-0.15492
-0.05531	-0.15492
0.22521	-0.53754
0.07220	0.35523
0.25071	0.45726
0.09770	0.25320
0.25071	0.63582
0.14870	0.25320
0.17421	-0.66508
0.17421	-0.10391
0.14870	0.48277
0.12320	0.30422
0.07220	0.48277
0.14870	-0.74160
0.02119	0.30422
0.07220	0.48277
0.17421	0.61031
0.30171	-0.35899
0.07220	-0.48652
0.22521	0.38074
0.07220	0.58480
0.04670	-0.89465
0.19971	0.35523
0.12320	0.76336
0.17421	0.73785
0.12320	0.15117
0.17421	0.02363
0.22521	0.20219
0.12320	0.07465
0.14870	-0.94566
0.02119	0.15117
0.27621	0.35523
0.14870	-0.00188
-0.02981	0.17668
0.22521	0.35523
0.12320	0.17668
0.25071	0.38074
0.12320	0.17668
0.09770	0.25320
0.09770	-0.25695
0.12320	0.07465
0.27621	0.30422
0.04670	0.27871
0.27621	0.35523
-0.05531	0.12566
0.09770	0.15117
0.35272	0.15117
0.12320	-0.02739
0.17421	0.04914
0.30171	0.15117
0.12320	0.43176
0.12320	0.55929
-0.00431	-0.86914
0.22521	0.30422
0.27621	0.35523
0.09770	0.45726
0.12320	0.15117
0.02119	-0.05289
0.12320	-0.05289
0.19971	-0.76711
0.25071	0.68683
0.07220	0.61031
-0.08081	-0.46102
0.63323	0.91640
0.53123	0.07465
0.25071	0.20219
-0.28482	0.20219
-0.20832	-0.10391
-0.13181	0.45726
0.14870	0.61031
0.04670	-0.66508
-0.08081	0.07465
0.27621	0.17668
0.58223	0.40625
0.50573	0.15117
0.07220	0.10015
-0.00431	0.25320
0.07220	-0.12942
-0.00431	0.27871
0.12320	0.25320
0.25071	0.25320
0.22521	0.25320
0.14870	1.06945
0.27621	0.07465
0.02119	-0.53754
0.22521	-0.07840
0.07220	-0.28246
0.14870	0.17668
0.25071	-0.00188
-0.10631	0.76336
0.19971	0.63582
0.22521	0.32972
0.04670	0.27871
0.25071	0.53379
0.17421	0.25320
0.17421	-2.06800
0.09770	0.71234
0.07220	-0.05289
0.09770	0.55929
0.12320	0.38074
0.25071	0.27871
0.27621	0.17668
0.07220	0.17668
0.09770	0.04914
0.12320	0.04914
0.14870	0.04914
0.27621	-0.10391
0.04670	-0.02739
0.17421	0.76336
0.02119	0.15117
0.19971	0.02363
0.22521	-0.00188
0.07220	-0.10391
0.09770	0.48277
0.02119	0.10015
0.27621	0.40625
0.27621	-0.81812
0.12320	-0.43551
0.04670	0.81437
0.07220	0.83988
0.22521	0.53379
0.07220	0.35523
0.14870	0.15117
0.22521	-0.23145
0.12320	0.12566
0.07220	-0.71609
0.25071	0.58480
0.09770	0.07465
0.17421	0.27871
0.07220	-0.07840
0.17421	0.40625
0.07220	0.04914
0.12320	-0.35899
0.17421	0.15117
0.07220	0.81437
0.25071	-0.12942
0.19971	0.45726
0.27621	0.20219
0.07220	-0.02739
0.09770	0.38074
0.14870	0.17668
0.17421	0.30422
0.32721	-0.15492
0.14870	-0.05289
0.22521	0.53379
0.07220	0.32972
0.02119	-0.43551
-0.00431	-0.66508
0.27621	0.61031
0.35272	0.22769
0.04670	0.35523
0.12320	0.53379
0.12320	0.58480
0.14870	0.35523
0.19971	-0.43551
0.22521	-0.10391
0.09770	-0.33348
0.09770	0.12566
0.02119	0.30422
0.32721	0.63582
0.25071	0.45726
0.02119	-0.00188
0.22521	-0.41000
0.12320	0.04914
0.09770	0.27871
0.12320	0.22769
0.14870	0.10015
0.25071	0.53379
0.07220	-0.02739
0.17421	-0.15492
0.12320	0.99292
0.14870	-0.35899
0.14870	0.22769
0.17421	0.22769
0.02119	0.25320
0.14870	0.17668
0.09770	0.10015
0.19971	0.15117
0.27621	0.25320
0.12320	0.07465
0.17421	0.17668
0.07220	0.02363
0.04670	-0.23145
0.17421	0.50828
0.19971	-0.48652
0.04670	0.25320
0.22521	0.83988
0.02119	0.27871
0.07220	0.50828
0.12320	0.40625
0.22521	0.48277
0.09770	-1.53234
0.25071	0.45726
0.12320	-0.07840
0.14870	0.20219
0.25071	0.45726
0.12320	-0.00188
0.19971	0.22769
0.12320	0.40625
0.14870	0.10015
0.09770	-0.30797
0.04670	0.02363
0.12320	0.25320
0.27621	0.22769
0.25071	0.12566
0.02119	0.04914
0.14870	0.02363
0.09770	0.35523
0.19971	0.32972
0.09770	-0.00188
0.12320	0.17668
0.04670	0.55929
0.30171	-1.07320
0.14870	0.89089
0.12320	-0.12942
0.02119	-1.04770
0.25071	0.32972
0.19971	0.48277
0.22521	0.94191
0.07220	0.48277
0.22521	-0.84363
0.12320	0.43176
0.25071	0.40625
0.14870	0.15117
0.22521	0.17668
0.09770	0.04914
0.19971	-0.48652
0.17421	0.12566
0.04670	-0.00188
0.12320	0.40625
0.19971	0.20219
0.22521	0.12566
0.14870	0.20219
0.19971	0.55929
0.09770	0.17668
0.04670	-0.10391
0.32721	0.07465
0.07220	0.35523
0.09770	-0.10391
0.17421	0.17668
0.19971	0.35523
0.14870	0.40625
0.22521	-0.02739
0.09770	0.15117
0.19971	0.07465
0.12320	-0.12942
0.09770	0.45726
0.14870	0.76336
0.12320	-1.22625
0.19971	-0.33348
0.02119	1.22250
0.22521	-0.15492
0.17421	0.04914
0.19971	0.58480
0.14870	-0.38449
0.12320	0.20219
0.17421	0.17668
-0.02981	0.35523
0.07220	-0.28246
0.35272	0.50828
0.17421	0.27871
0.12320	0.02363
0.17421	0.25320
0.07220	0.48277
0.22521	0.15117
0.14870	-0.07840
-0.05531	0.07465
0.27621	-0.53754
0.02119	-0.15492
0.27621	0.45726
0.17421	0.40625
0.22521	0.45726
0.19971	0.04914
0.09770	0.38074
0.07220	0.04914
-0.15732	0.15117
0.09770	0.04914
0.27621	0.43176
0.32721	-1.32828
0.17421	0.15117
0.17421	0.58480
0.12320	0.81437
0.17421	0.17668
0.19971	0.07465
0.07220	0.25320
0.07220	0.27871
0.17421	0.12566
0.17421	0.15117
0.14870	-0.00188
0.04670	0.15117
0.02119	0.30422
0.22521	-0.05289
0.22521	-0.38449
0.04670	0.73785
0.19971	0.32972
-0.00431	-0.41000
0.17421	0.66132
0.22521	0.15117
0.22521	0.40625
0.25071	-0.23145
0.02119	0.15117
0.09770	0.12566
0.14870	0.32972
0.22521	0.12566
0.12320	0.02363
0.12320	-0.12942
0.09770	0.04914
0.19971	-0.15492
0.22521	0.89089
0.12320	0.22769
0.19971	0.45726
0.14870	0.30422
0.12320	0.25320
0.14870	0.20219
0.12320	0.27871
0.12320	-0.00188
0.12320	-0.43551
0.17421	-0.94566
0.09770	0.53379
0.30171	0.50828
0.14870	0.43176
0.14870	0.30422
0.09770	0.15117
