0.14870	0.20219
0.09770	0.10015
0.14870	0.15117
0.14870	0.10015
0.09770	0.10015
0.14870	0.17668
0.12320	0.20219
0.09770	0.10015
0.14870	0.20219
0.12320	0.15117
0.09770	0.15117
0.19971	0.12566
0.14870	0.10015
0.14870	0.17668
0.14870	0.04914
0.17421	0.25320
0.14870	0.15117
0.07220	0.07465
0.22521	0.20219
0.14870	0.15117
0.07220	0.15117
0.22521	0.22769
0.17421	0.04914
0.14870	0.15117
0.22521	0.15117
0.09770	0.04914
0.14870	0.25320
0.12320	0.12566
0.14870	0.17668
0.19971	0.12566
0.09770	0.17668
0.22521	0.12566
0.14870	0.12566
0.12320	0.20219
0.12320	0.15117
0.07220	0.22769
0.22521	0.07465
0.07220	0.22769
0.22521	0.17668
0.09770	0.15117
0.19971	0.15117
0.09770	0.07465
0.22521	0.10015
0.09770	0.17668
0.14870	0.12566
0.14870	0.20219
0.14870	0.12566
0.09770	0.17668
0.19971	0.15117
0.09770	0.12566
0.22521	0.10015
0.09770	0.15117
0.14870	0.10015
0.14870	0.10015
0.14870	0.20219
0.14870	0.10015
0.14870	0.25320
0.12320	0.10015
0.07220	0.22769
0.17421	0.10015
0.07220	0.12566
0.22521	0.12566
0.14870	0.15117
0.14870	0.15117
0.17421	0.15117
0.17421	0.12566
0.12320	0.12566
0.09770	0.22769
0.22521	0.15117
0.09770	0.12566
0.22521	0.15117
0.09770	0.12566
0.14870	0.17668
0.12320	0.04914
0.14870	0.25320
0.22521	0.12566
0.09770	0.17668
0.14870	0.25320
0.19971	0.10015
0.07220	0.20219
0.22521	0.20219
0.14870	0.10015
0.12320	0.15117
0.14870	0.07465
0.09770	0.25320
0.19971	0.15117
0.17421	0.15117
0.17421	0.17668
0.22521	0.15117
0.09770	0.17668
0.19971	0.20219
0.14870	0.07465
0.12320	0.15117
0.25071	0.15117
0.09770	0.07465
0.14870	0.22769
0.14870	0.15117
0.07220	0.10015
0.19971	0.22769
0.14870	0.15117
0.04670	0.15117
0.19971	0.20219
0.17421	0.10015
0.19971	0.15117
0.19971	0.20219
0.07220	0.15117
0.14870	0.12566
0.14870	0.17668
0.09770	0.07465
0.17421	0.20219
0.12320	0.20219
0.07220	0.17668
0.19971	0.12566
0.09770	0.17668
0.14870	0.15117
0.22521	0.15117
0.07220	0.15117
0.19971	0.07465
0.07220	0.25320
0.19971	0.07465
0.14870	0.20219
0.14870	0.10015
0.12320	0.12566
0.14870	0.15117
0.19971	0.10015
0.09770	0.20219
0.17421	0.10015
0.09770	0.17668
0.17421	0.12566
0.14870	0.12566
0.14870	0.15117
0.19971	0.04914
0.09770	0.17668
0.22521	0.10015
0.09770	0.22769
0.12320	0.12566
0.14870	0.20219
0.12320	0.20219
0.14870	0.15117
0.17421	0.15117
0.22521	0.02363
0.14870	0.17668
0.12320	0.12566
0.14870	0.17668
0.22521	0.07465
0.09770	0.15117
0.22521	0.17668
0.07220	0.10015
0.14870	0.22769
0.14870	0.07465
0.09770	0.22769
0.22521	0.12566
0.17421	0.10015
0.17421	0.20219
0.12320	0.10015
0.12320	0.22769
0.12320	0.20219
0.09770	0.17668
0.19971	0.15117
0.17421	0.04914
0.14870	0.22769
0.19971	0.10015
0.09770	0.22769
0.22521	0.10015
0.09770	0.22769
0.19971	0.12566
0.07220	0.22769
0.19971	0.12566
0.07220	0.15117
0.22521	0.07465
0.17421	0.15117
0.17421	0.12566
0.14870	0.20219
0.12320	0.10015
0.14870	0.22769
0.12320	0.07465
0.14870	0.22769
0.22521	0.15117
0.07220	0.20219
0.22521	0.10015
0.09770	0.22769
0.22521	0.04914
0.09770	0.15117
0.19971	0.17668
0.07220	0.12566
0.22521	0.12566
0.12320	0.15117
0.14870	0.27871
0.17421	0.07465
0.14870	0.20219
0.17421	0.07465
0.07220	0.12566
0.19971	0.12566
0.17421	0.10015
0.07220	0.17668
0.14870	0.04914
0.09770	0.25320
0.19971	0.12566
0.07220	0.12566
0.14870	0.15117
0.14870	0.07465
0.14870	0.12566
0.19971	0.15117
0.17421	0.12566
0.12320	0.25320
0.14870	0.07465
0.07220	0.15117
0.19971	0.17668
0.12320	0.07465
0.12320	0.20219
0.27621	0.15117
0.14870	0.12566
0.17421	0.15117
0.12320	0.15117
0.09770	0.22769
0.19971	0.04914
0.07220	0.22769
0.22521	0.10015
0.09770	0.20219
0.14870	0.04914
0.12320	0.20219
0.14870	0.15117
0.14870	0.12566
0.12320	0.22769
0.19971	0.10015
0.07220	0.22769
0.22521	0.07465
0.09770	0.15117
0.17421	0.15117
0.04670	0.12566
0.22521	0.20219
0.09770	0.04914
0.14870	0.10015
0.14870	0.15117
0.09770	0.17668
0.19971	0.12566
0.12320	0.20219
0.07220	0.15117
0.19971	0.20219
0.09770	0.10015
0.22521	0.15117
0.09770	0.20219
0.22521	0.07465
0.07220	0.12566
0.19971	0.17668
0.07220	0.20219
0.19971	0.17668
0.14870	0.17668
0.14870	0.12566
0.12320	0.10015
0.14870	0.15117
0.17421	0.10015
0.14870	0.15117
0.14870	0.17668
0.12320	0.25320
0.12320	0.04914
0.14870	0.22769
0.14870	0.12566
0.14870	0.22769
0.22521	0.07465
0.07220	0.15117
0.25071	0.20219
0.09770	0.04914
0.12320	0.22769
0.12320	0.10015
0.07220	0.25320
0.19971	0.15117
0.09770	0.15117
0.14870	0.15117
0.14870	0.10015
0.14870	0.22769
0.22521	0.12566
0.09770	0.15117
0.17421	0.15117
0.12320	0.07465
0.07220	0.20219
0.19971	0.12566
0.07220	0.22769
0.22521	0.07465
0.09770	0.22769
0.22521	0.15117
0.09770	0.04914
0.14870	0.20219
0.14870	0.10015
0.12320	0.25320
0.12320	0.07465
0.12320	0.22769
0.19971	0.12566
0.07220	0.20219
0.19971	0.04914
0.09770	0.12566
0.19971	0.12566
0.09770	0.17668
0.22521	0.07465
0.07220	0.15117
0.17421	0.15117
0.09770	0.12566
0.14870	0.22769
0.09770	0.15117
0.19971	0.04914
0.14870	0.12566
0.12320	0.12566
0.12320	0.12566
0.12320	0.17668
0.17421	0.15117
0.17421	0.15117
0.14870	0.17668
0.12320	0.20219
0.12320	0.15117
0.12320	0.12566
0.14870	0.15117
0.12320	0.07465
0.14870	0.10015
0.14870	0.17668
0.14870	0.10015
0.09770	0.20219
0.22521	0.12566
0.04670	0.17668
0.22521	0.15117
0.14870	0.22769
0.17421	0.07465
0.09770	0.17668
0.12320	0.04914
0.07220	0.17668
0.22521	0.10015
0.09770	0.17668
0.19971	0.07465
0.07220	0.25320
0.25071	0.07465
0.09770	0.25320
0.22521	0.07465
0.12320	0.22769
0.14870	0.10015
0.14870	0.22769
0.14870	0.04914
0.07220	0.22769
0.17421	0.12566
0.14870	0.25320
0.12320	0.15117
0.17421	0.15117
0.17421	0.20219
0.22521	0.04914
0.09770	0.17668
0.14870	0.15117
0.07220	0.15117
0.14870	0.12566
0.22521	0.20219
0.09770	0.15117
0.22521	0.15117
0.07220	0.20219
0.22521	0.07465
0.09770	0.20219
0.22521	0.02363
0.09770	0.15117
0.17421	0.12566
0.09770	0.17668
0.14870	0.12566
0.14870	0.25320
0.12320	0.15117
0.14870	0.10015
0.12320	0.17668
0.22521	0.12566
0.12320	0.15117
0.22521	0.15117
0.17421	0.07465
0.19971	0.25320
0.04670	0.07465
0.17421	0.25320
0.17421	0.10015
0.17421	0.12566
0.14870	0.07465
0.12320	0.17668
0.14870	0.04914
0.14870	0.15117
0.14870	0.12566
0.07220	0.12566
0.22521	0.22769
0.07220	0.07465
0.12320	0.20219
0.22521	0.02363
0.09770	0.25320
0.19971	0.12566
0.14870	0.12566
0.14870	0.17668
0.14870	0.17668
0.12320	0.10015
0.14870	0.15117
0.12320	0.07465
0.04670	0.22769
0.19971	0.10015
0.14870	0.15117
0.17421	0.10015
0.14870	0.15117
0.14870	0.25320
0.22521	0.12566
0.07220	0.22769
0.22521	0.15117
0.09770	0.15117
0.22521	0.07465
0.07220	0.12566
0.19971	0.15117
0.07220	0.04914
0.12320	0.17668
0.17421	0.12566
0.17421	0.17668
0.22521	0.17668
0.04670	0.12566
0.12320	0.22769
0.12320	0.15117
0.07220	0.15117
0.22521	0.20219
0.09770	0.07465
0.12320	0.17668
0.12320	0.10015
0.09770	0.30422
0.19971	0.25320
0.07220	-0.23145
0.22521	0.32972
0.14870	0.12566
0.12320	0.22769
0.14870	0.20219
0.14870	0.30422
0.12320	-0.28246
0.09770	0.35523
0.22521	0.17668
0.09770	-0.18043
0.19971	0.32972
0.14870	0.27871
0.19971	0.22769
0.12320	0.10015
0.17421	0.17668
0.12320	0.02363
0.04670	0.15117
0.19971	0.07465
0.07220	0.17668
0.19971	0.10015
0.12320	0.20219
0.12320	0.10015
0.17421	0.17668
0.14870	0.15117
0.14870	0.12566
0.14870	0.20219
0.19971	0.07465
0.09770	0.15117
0.19971	0.15117
0.12320	0.20219
0.14870	0.10015
0.19971	0.10015
0.17421	0.22769
0.22521	0.04914
0.14870	0.20219
0.12320	0.15117
0.09770	0.17668
0.14870	0.10015
0.17421	0.25320
0.12320	0.17668
0.19971	0.25320
0.07220	0.04914
0.22521	0.15117
0.07220	0.50828
0.12320	-0.58856
0.09770	-0.28246
0.17421	0.43176
0.12320	0.58480
0.12320	0.40625
0.12320	-0.46102
0.14870	0.53379
0.17421	0.43176
0.12320	1.27351
0.12320	-1.91496
0.14870	0.45726
0.17421	0.73785
0.12320	0.81437
0.22521	-0.00188
0.02119	-0.35899
0.14870	0.66132
0.09770	-1.04770
0.09770	-0.00188
0.22521	0.25320
0.19971	2.67644
0.17421	-0.00188
0.25071	-4.74632
0.19971	0.04914
0.30171	1.37554
0.02119	1.37554
-0.02981	1.86019
0.12320	-0.94566
0.02119	0.63582
0.14870	0.45726
0.09770	-0.02739
0.30171	0.15117
0.32721	-0.30797
0.12320	0.55929
-0.02981	-0.53754
0.17421	0.02363
-0.08081	-0.00188
0.42922	-4.03210
0.12320	0.00000
0.14870	0.00000
-0.36133	0.00000
0.45472	-0.66508
0.42922	0.53379
0.37822	1.98773
-0.69285	1.86019
0.02119	1.96222
1.06676	0.83988
0.63323	0.12566
-0.00431	-0.30797
-0.43783	0.55929
-0.02981	0.25320
-0.28482	-0.53754
0.09770	-0.92016
0.22521	2.44687
0.30171	-2.73121
0.09770	0.40625
-0.15732	0.81437
0.48022	0.94191
0.63323	0.17668
1.01576	-0.25695
0.02119	-0.92016
-0.15732	1.37554
-0.13181	0.45726
0.19971	0.15117
0.22521	-0.23145
-0.08081	-0.25695
-0.13181	0.96742
-0.10631	-0.89465
0.40372	1.86019
0.22521	1.68163
0.32721	-0.56305
0.35272	0.25320
0.02119	0.07465
0.02119	-0.46102
0.35272	-0.66508
0.22521	-0.05289
0.22521	-0.07840
-0.02981	0.43176
-0.20832	-0.30797
-0.05531	0.22769
0.12320	0.30422
0.42922	0.10015
0.22521	1.47757
0.09770	-0.84363
0.25071	-0.05289
-0.08081	0.38074
0.02119	0.89089
0.37822	2.03874
0.32721	-0.71609
-0.15732	-0.28246
0.14870	-0.51203
0.35272	-1.04770
0.37822	-0.46102
-0.08081	0.94191
0.07220	0.78886
-0.05531	-0.05289
0.17421	0.73785
0.27621	0.17668
0.09770	-0.02739
0.19971	0.25320
-0.00431	1.32453
0.27621	0.30422
0.17421	-0.51203
0.04670	-0.53754
0.09770	-3.21585
0.25071	0.61031
0.14870	0.53379
0.14870	0.12566
0.53123	0.68683
-0.05531	0.27871
-0.18282	0.96742
-0.00431	-0.23145
0.27621	-0.00188
0.37822	0.43176
0.12320	0.22769
0.12320	0.58480
0.02119	-0.41000
0.07220	0.30422
0.14870	-1.37929
0.37822	0.94191
-0.08081	0.76336
0.14870	0.96742
0.07220	-0.46102
0.27621	-0.94566
0.19971	0.40625
0.17421	-1.02219
0.07220	1.12046
0.22521	0.81437
0.14870	-0.63957
0.25071	-0.25695
-0.08081	-1.22625
0.25071	0.71234
0.14870	-0.00188
0.12320	0.76336
-0.20832	0.10015
0.17421	0.02363
0.42922	-0.20594
0.50573	1.29902
0.22521	0.25320
-0.05531	0.73785
-0.10631	-0.74160
0.22521	-0.46102
0.14870	-0.15492
0.35272	0.43176
0.30171	0.58480
0.04670	0.50828
-0.00431	0.71234
0.22521	0.35523
0.02119	0.07465
0.22521	-0.74160
0.32721	-0.48652
0.12320	0.45726
0.09770	0.10015
0.09770	1.06945
0.17421	0.96742
0.09770	0.12566
0.17421	-0.10391
0.14870	0.10015
0.12320	-0.66508
0.17421	0.15117
0.17421	0.43176
0.14870	0.30422
0.12320	-0.25695
0.12320	0.35523
0.07220	-0.05289
0.22521	0.20219
0.14870	0.68683
0.02119	-1.25176
0.19971	0.58480
0.17421	1.27351
-0.00431	-0.41000
0.35272	-0.23145
0.42922	0.81437
0.04670	-0.53754
0.07220	0.76336
-0.05531	-0.15492
0.12320	0.55929
0.25071	-0.23145
0.17421	-0.02739
0.17421	0.07465
0.30171	0.17668
0.19971	0.45726
0.09770	0.40625
0.12320	0.04914
0.07220	-0.07840
0.09770	0.50828
0.22521	0.04914
0.37822	0.02363
0.12320	0.32972
-0.00431	-0.07840
0.19971	0.04914
0.32721	0.22769
0.07220	0.53379
0.07220	-0.12942
0.12320	0.55929
0.14870	0.32972
0.25071	-0.15492
0.12320	-0.05289
0.02119	0.53379
0.14870	0.40625
0.04670	-0.58856
0.25071	-0.23145
0.17421	1.17148
0.12320	-0.02739
0.17421	0.71234
0.09770	-0.69059
0.12320	0.02363
0.30171	0.55929
0.14870	-0.38449
0.07220	-1.43031
0.04670	1.06945
0.17421	0.78886
0.14870	0.76336
0.25071	0.10015
0.12320	-0.10391
0.17421	0.12566
0.02119	0.02363
0.12320	0.17668
0.17421	0.04914
0.14870	-0.00188
0.25071	0.43176
0.22521	0.15117
0.17421	0.43176
0.27621	-2.60367
0.02119	1.01843
-0.00431	1.27351
0.07220	0.15117
0.12320	0.35523
0.27621	0.99292
0.12320	-0.99668
0.35272	0.55929
0.17421	0.38074
0.17421	0.15117
0.19971	-0.35899
0.12320	0.15117
-0.05531	0.53379
0.02119	0.02363
0.17421	-0.12942
0.02119	0.43176
0.14870	0.63582
0.22521	0.04914
0.14870	0.10015
0.22521	0.45726
0.19971	-0.58856
0.09770	0.04914
0.07220	0.12566
-0.00431	0.22769
0.14870	0.35523
0.30171	0.43176
0.12320	0.04914
0.07220	0.58480
0.09770	0.89089
0.22521	0.15117
0.14870	-0.05289
0.07220	0.53379
0.09770	-0.53754
0.12320	-0.30797
0.25071	0.63582
-0.00431	0.02363
0.09770	-0.63957
0.32721	0.86539
0.12320	0.25320
0.27621	-0.28246
0.17421	0.20219
0.12320	0.96742
-0.05531	-0.18043
0.07220	0.27871
0.22521	-0.35899
0.19971	0.22769
-0.02981	-0.05289
0.30171	0.10015
0.09770	0.25320
0.35272	0.32972
0.02119	0.53379
0.17421	0.02363
0.22521	-0.33348
0.02119	-0.99668
0.22521	1.17148
0.14870	0.71234
0.09770	0.04914
0.02119	-1.73640
0.04670	0.91640
0.27621	0.55929
0.04670	0.71234
0.25071	0.76336
0.25071	0.20219
0.02119	-0.02739
-0.02981	-0.51203
0.07220	-0.71609
0.22521	0.40625
0.40372	0.91640
0.32721	0.17668
0.17421	-0.63957
-0.00431	0.10015
0.17421	0.27871
0.09770	0.55929
0.22521	0.66132
0.04670	0.15117
0.14870	-0.74160
0.12320	0.58480
0.19971	-1.48133
0.30171	1.19699
0.07220	0.83988
0.12320	0.38074
0.12320	-0.15492
0.35272	0.68683
0.19971	0.71234
0.14870	-0.51203
-0.00431	0.55929
-0.10631	0.02363
0.22521	0.15117
0.22521	0.45726
0.19971	0.48277
0.17421	0.27871
0.22521	-0.07840
0.14870	-0.56305
0.04670	0.27871
0.19971	0.35523
-0.00431	-0.10391
0.12320	-0.30797
-0.02981	0.22769
0.42922	0.35523
0.25071	0.27871
0.12320	0.20219
-0.08081	-0.02739
-0.08081	0.25320
0.27621	0.68683
0.22521	-0.10391
0.17421	0.07465
0.02119	-0.25695
0.22521	-0.51203
-0.00431	1.19699
0.22521	0.40625
0.22521	0.22769
0.22521	-0.05289
0.32721	0.45726
-0.02981	-0.23145
0.09770	-0.25695
0.04670	0.63582
0.02119	-0.25695
0.27621	0.53379
0.09770	0.35523
0.22521	-1.07320
0.09770	-0.63957
0.12320	1.01843
0.14870	0.71234
0.22521	0.38074
0.32721	0.30422
0.02119	-0.10391
-0.10631	0.07465
0.19971	0.22769
0.22521	-0.58856
0.19971	0.43176
0.25071	0.43176
0.19971	-0.38449
0.12320	0.15117
-0.02981	0.25320
0.14870	0.12566
0.25071	0.35523
0.12320	-0.30797
0.12320	-0.41000
0.12320	1.06945
0.19971	0.66132
0.22521	0.02363
0.02119	0.32972
0.22521	0.32972
0.07220	0.22769
0.17421	-0.05289
0.22521	-1.32828
0.09770	-0.30797
0.02119	-0.05289
0.25071	0.73785
0.14870	0.61031
0.27621	0.89089
0.22521	0.15117
0.07220	0.04914
0.02119	-0.66508
0.12320	0.35523
-0.00431	0.22769
0.32721	0.22769
0.22521	0.50828
-0.00431	-0.20594
0.22521	0.27871
0.27621	-0.23145
0.14870	-0.28246
0.14870	0.10015
-0.15732	-0.25695
0.25071	1.73265
0.27621	0.99292
0.09770	-0.20594
0.02119	-0.84363
0.22521	0.43176
0.12320	0.30422
0.02119	0.32972
0.09770	0.61031
0.25071	-0.38449
0.14870	-0.46102
0.02119	-0.30797
0.22521	0.02363
0.07220	1.19699
0.12320	0.32972
0.25071	0.48277
0.22521	-0.25695
0.17421	0.45726
0.02119	-0.28246
-0.00431	-0.10391
0.27621	0.20219
0.22521	0.04914
0.30171	0.25320
0.09770	0.32972
0.04670	0.20219
0.22521	0.35523
0.12320	0.07465
0.25071	0.25320
0.17421	0.15117
0.14870	-0.35899
0.17421	0.66132
0.02119	0.25320
0.12320	0.15117
-0.00431	0.04914
0.22521	0.20219
0.22521	-0.07840
0.25071	0.50828
0.12320	1.32453
0.14870	-1.25176
0.09770	0.30422
0.04670	0.12566
0.19971	-0.33348
0.17421	0.30422
0.14870	0.20219
0.22521	-0.74160
0.09770	0.81437
0.07220	0.73785
0.14870	-0.00188
0.22521	-0.66508
0.17421	0.50828
0.09770	0.35523
0.14870	0.48277
0.12320	0.91640
0.19971	-1.07320
0.09770	0.04914
0.14870	0.55929
0.07220	0.04914
0.14870	0.30422
0.22521	0.25320
0.12320	-0.07840
0.19971	0.35523
0.07220	0.15117
0.09770	-0.00188
0.02119	0.15117
0.27621	0.40625
0.25071	-0.74160
0.07220	0.71234
0.09770	0.22769
0.12320	-0.43551
0.19971	0.35523
0.32721	0.61031
0.12320	-0.12942
0.02119	0.53379
0.12320	0.38074
0.12320	0.50828
0.22521	0.22769
0.22521	0.04914
0.04670	-0.10391
0.22521	-0.23145
0.30171	1.06945
0.07220	-1.17523
0.04670	0.27871
0.12320	0.30422
0.17421	0.45726
0.12320	0.10015
0.30171	0.40625
0.07220	-0.46102
0.12320	0.12566
-0.13181	0.73785
0.42922	0.22769
0.22521	0.15117
0.32721	-0.92016
0.17421	0.38074
-0.08081	0.50828
0.02119	0.66132
-0.02981	0.04914
0.22521	-1.20074
0.25071	-0.63957
0.04670	0.58480
0.30171	0.63582
0.22521	0.43176
-0.00431	-0.07840
0.19971	0.53379
0.12320	0.07465
0.12320	-0.15492
0.02119	0.53379
0.22521	0.10015
0.12320	-0.38449
0.12320	0.58480
0.14870	0.02363
0.19971	0.02363
0.19971	-0.28246
0.17421	-0.38449
0.17421	0.76336
-0.00431	-0.20594
0.12320	0.81437
0.19971	-0.07840
0.22521	-0.18043
0.22521	0.48277
0.09770	-0.12942
0.14870	-0.05289
0.22521	0.04914
0.02119	0.35523
0.22521	0.71234
0.17421	-0.43551
0.02119	0.15117
0.14870	0.25320
-0.00431	0.22769
0.19971	0.12566
0.30171	0.10015
0.22521	0.15117
0.22521	0.38074
-0.00431	-0.05289
0.17421	-0.07840
0.07220	-0.63957
0.19971	0.02363
0.09770	0.83988
0.12320	1.01843
0.22521	0.50828
-0.08081	0.17668
0.40372	-0.43551
0.32721	0.73785
-0.08081	-0.61406
0.04670	0.17668
0.12320	-0.02739
0.19971	-0.48652
0.14870	0.76336
0.17421	0.35523
0.14870	0.48277
0.12320	0.78886
0.09770	0.02363
0.17421	-0.86914
0.14870	0.04914
0.22521	0.53379
0.19971	0.55929
0.25071	0.27871
0.17421	0.35523
0.02119	-0.97117
0.17421	0.17668
0.14870	0.32972
0.22521	0.68683
0.14870	-0.25695
0.14870	0.83988
0.04670	-1.14973
0.12320	-0.43551
0.09770	1.14597
0.07220	0.38074
0.12320	-0.00188
0.25071	-0.69059
0.42922	0.78886
0.12320	0.45726
-0.00431	0.35523
0.12320	0.43176
0.22521	0.40625
0.14870	-1.76191
0.07220	0.25320
0.09770	0.50828
0.09770	0.04914
0.22521	0.17668
0.12320	0.02363
0.19971	0.25320
0.09770	0.63582
0.17421	0.02363
0.17421	-0.18043
0.19971	-0.56305
0.04670	0.40625
0.25071	0.50828
0.07220	0.38074
0.17421	0.53379
0.22521	0.25320
0.32721	-0.46102
0.17421	-0.10391
-0.08081	-0.15492
0.14870	0.68683
-0.00431	0.17668
0.17421	-0.38449
0.17421	0.40625
0.12320	0.10015
0.22521	0.20219
0.17421	-0.66508
0.14870	-0.02739
0.17421	0.07465
0.07220	1.12046
0.12320	0.40625
0.07220	0.43176
0.22521	0.02363
0.19971	0.12566
0.22521	-0.43551
0.12320	0.91640
0.04670	0.20219
0.30171	-0.46102
0.09770	-0.07840
0.12320	0.61031
0.09770	0.40625
0.07220	0.58480
0.19971	-0.35899
0.30171	0.20219
0.22521	0.04914
-0.00431	-0.10391
0.17421	0.78886
-0.02981	0.12566
0.17421	0.71234
0.19971	-0.38449
-0.00431	0.45726
0.14870	-0.53754
0.09770	-0.35899
0.30171	1.04394
0.07220	-0.12942
0.12320	0.27871
0.32721	0.58480
0.19971	-0.15492
0.14870	0.25320
0.14870	0.27871
0.09770	0.07465
0.02119	-0.15492
0.09770	0.15117
0.19971	0.71234
0.09770	-1.07320
0.17421	0.78886
0.02119	0.27871
0.19971	1.14597
0.09770	-0.58856
0.12320	0.43176
0.19971	-0.18043
0.09770	-0.12942
0.19971	0.78886
0.17421	0.17668
0.12320	0.58480
0.17421	-0.18043
0.09770	-0.33348
0.35272	0.10015
0.04670	-0.05289
0.07220	0.63582
0.14870	0.25320
0.14870	-1.68539
0.27621	0.40625
0.09770	0.68683
-0.15732	0.71234
0.22521	-0.12942
0.30171	0.45726
0.17421	0.35523
0.19971	0.66132
0.22521	-0.46102
0.04670	-0.48652
0.19971	0.48277
-0.00431	0.30422
0.27621	0.22769
0.17421	0.10015
0.17421	-0.20594
0.22521	0.04914
-0.05531	0.02363
0.07220	0.25320
0.22521	-0.51203
0.32721	0.10015
-0.00431	-0.25695
0.02119	0.78886
0.19971	0.76336
0.09770	0.91640
0.32721	-0.23145
0.17421	-2.01699
0.22521	1.14597
0.02119	0.66132
0.02119	-0.25695
0.32721	0.68683
0.19971	-0.05289
0.07220	0.10015
0.07220	0.35523
0.30171	0.32972
0.22521	0.48277
0.04670	-0.10391
0.09770	0.04914
0.17421	-0.63957
0.17421	0.04914
0.07220	0.63582
0.12320	0.17668
0.25071	0.15117
0.19971	0.15117
0.09770	-0.10391
0.09770	-0.12942
-0.00431	0.22769
0.32721	0.55929
0.27621	-0.23145
0.12320	0.15117
0.12320	0.07465
0.19971	0.73785
0.12320	0.48277
0.07220	0.22769
0.12320	-0.51203
0.12320	-0.33348
0.27621	0.30422
0.17421	-0.48652
-0.00431	0.86539
0.04670	0.40625
0.22521	-0.02739
0.17421	0.02363
0.22521	0.58480
0.14870	0.25320
0.37822	0.78886
0.19971	0.35523
0.25071	0.12566
-0.08081	0.04914
-0.00431	-0.41000
0.04670	0.25320
0.17421	0.25320
0.04670	-0.23145
0.12320	0.40625
0.32721	0.27871
0.19971	-0.18043
0.17421	0.35523
-0.02981	-0.07840
0.17421	-0.05289
0.12320	-0.30797
0.27621	0.86539
0.09770	-0.05289
0.14870	-0.12942
0.09770	0.66132
0.22521	0.17668
0.07220	0.38074
0.19971	0.83988
0.09770	0.10015
0.14870	-0.05289
0.12320	-0.00188
0.17421	-0.02739
0.02119	0.25320
0.14870	-0.76711
0.04670	0.83988
0.32721	-1.07320
0.37822	0.50828
0.07220	0.22769
-0.05531	0.04914
0.27621	0.35523
0.30171	0.73785
0.17421	0.15117
0.02119	-0.07840
0.19971	-0.76711
0.09770	0.55929
0.22521	0.48277
0.02119	0.50828
0.22521	0.22769
0.22521	0.20219
0.12320	-0.43551
0.12320	0.55929
0.09770	0.22769
0.35272	-0.25695
0.14870	0.04914
0.14870	0.55929
0.09770	-0.86914
0.14870	0.50828
0.22521	-0.05289
0.09770	0.43176
0.19971	0.71234
0.17421	-0.71609
0.12320	0.30422
0.25071	0.22769
0.19971	0.25320
0.12320	0.40625
0.17421	-0.35899
0.17421	0.53379
0.07220	-0.00188
0.22521	-0.10391
-0.08081	-0.81812
0.14870	0.53379
0.12320	0.83988
0.17421	0.86539
0.30171	-0.15492
0.25071	0.27871
0.04670	-0.07840
-0.10631	0.17668
0.12320	-0.76711
0.32721	0.12566
0.35272	0.76336
0.25071	-0.05289
0.04670	0.68683
0.12320	-1.04770
0.19971	0.86539
0.12320	0.48277
0.12320	0.25320
0.07220	0.15117
0.30171	-0.25695
-0.00431	0.15117
0.02119	0.25320
0.22521	0.38074
0.07220	-0.28246
0.30171	0.27871
0.17421	0.58480
0.14870	-0.25695
0.22521	0.20219
0.09770	-0.00188
0.22521	0.20219
0.14870	0.22769
0.07220	0.07465
0.09770	-0.00188
0.12320	0.86539
0.30171	0.32972
0.04670	-0.86914
0.17421	-0.46102
0.02119	0.78886
0.14870	0.61031
0.25071	0.17668
0.14870	0.25320
0.19971	0.04914
0.14870	0.55929
-0.18282	0.07465
0.17421	-0.97117
0.22521	-0.46102
0.27621	0.78886
0.22521	0.61031
0.27621	0.35523
0.25071	0.25320
0.12320	0.38074
0.17421	-1.65988
-0.10631	0.20219
-0.00431	0.30422
0.22521	0.99292
0.17421	-0.00188
0.30171	0.12566
0.12320	0.07465
0.14870	0.10015
0.09770	-0.18043
0.12320	-0.10391
0.12320	-0.56305
-0.00431	0.78886
0.19971	-0.20594
0.14870	0.04914
0.22521	0.78886
0.32721	0.81437
0.07220	-0.38449
0.07220	0.32972
0.19971	0.04914
0.12320	0.22769
0.14870	0.02363
0.09770	-0.02739
0.12320	-0.84363
0.12320	0.81437
0.37822	0.35523
0.12320	0.40625
-0.00431	-0.61406
-0.08081	0.58480
0.22521	0.10015
0.07220	-0.20594
0.32721	0.86539
0.07220	-0.35899
0.12320	0.35523
0.09770	0.15117
0.32721	0.50828
-0.02981	0.43176
0.22521	0.38074
0.22521	-0.61406
0.19971	0.25320
0.19971	0.66132
0.04670	-0.25695
0.14870	0.40625
0.04670	-0.07840
0.19971	0.32972
0.12320	0.43176
0.22521	0.30422
0.07220	-0.35899
0.19971	0.50828
0.07220	-0.05289
0.27621	-0.12942
0.09770	-0.33348
0.22521	0.83988
-0.00431	-0.97117
0.02119	0.71234
0.14870	0.32972
0.22521	0.30422
0.25071	0.27871
-0.00431	-0.56305
0.09770	-0.33348
0.09770	0.55929
0.22521	0.94191
0.27621	0.27871
0.19971	0.30422
0.17421	-1.14973
0.14870	-0.69059
0.27621	0.78886
0.02119	0.58480
0.09770	0.35523
0.09770	0.17668
0.30171	0.25320
0.14870	-0.18043
0.02119	0.32972
0.19971	0.02363
0.09770	-0.20594
-0.10631	0.17668
0.12320	0.35523
0.19971	0.04914
0.30171	0.38074
0.22521	0.45726
0.17421	0.45726
0.07220	-1.02219
0.04670	0.35523
0.19971	-0.20594
0.02119	0.20219
0.17421	0.58480
0.17421	0.76336
0.12320	1.04394
0.12320	-1.27726
0.32721	0.73785
-0.00431	0.15117
0.12320	0.20219
0.14870	-1.43031
0.17421	0.27871
0.12320	0.45726
0.22521	0.81437
0.19971	0.40625
0.04670	-0.25695
0.19971	0.12566
0.14870	-0.02739
0.09770	0.40625
0.17421	-0.38449
0.09770	0.22769
0.07220	0.17668
0.09770	-0.33348
0.22521	0.48277
0.09770	0.32972
0.17421	0.63582
0.19971	0.38074
0.12320	0.07465
0.04670	0.12566
0.17421	0.04914
0.17421	-0.05289
0.12320	0.10015
-0.08081	0.15117
0.32721	0.10015
0.12320	0.12566
0.17421	0.35523
0.22521	-0.05289
0.04670	-0.46102
0.22521	0.63582
0.04670	-0.33348
-0.05531	-0.10391
0.22521	-0.35899
0.30171	0.58480
0.27621	1.14597
0.14870	0.58480
0.14870	-0.48652
0.19971	-0.43551
-0.10631	0.66132
0.14870	0.12566
0.32721	0.22769
-0.10631	0.15117
0.27621	0.20219
0.25071	0.04914
0.12320	-0.15492
0.19971	-0.00188
-0.00431	0.30422
0.19971	0.99292
0.19971	0.27871
0.04670	-1.35379
0.14870	0.30422
0.14870	0.20219
0.19971	0.55929
0.09770	0.55929
0.07220	0.58480
0.12320	0.27871
0.12320	0.12566
0.27621	-0.20594
0.25071	-1.27726
0.17421	0.83988
0.19971	0.58480
-0.02981	0.25320
-0.08081	-1.32828
0.22521	0.55929
0.25071	0.48277
0.17421	0.32972
0.12320	0.20219
0.12320	0.12566
0.04670	0.07465
0.22521	0.30422
0.09770	0.25320
0.22521	-0.00188
0.02119	0.12566
0.22521	0.15117
0.30171	0.07465
0.12320	0.25320
0.17421	0.25320
0.12320	0.25320
0.17421	-0.51203
0.12320	0.10015
0.02119	0.50828
0.19971	0.63582
0.09770	0.32972
0.12320	0.17668
0.22521	0.04914
0.25071	-0.00188
0.09770	0.15117
-0.08081	0.02363
0.19971	0.04914
0.32721	0.66132
0.32721	-2.01699
0.09770	0.99292
0.09770	-0.35899
0.22521	0.35523
-0.05531	0.55929
0.17421	0.50828
0.09770	0.32972
0.17421	0.35523
0.09770	0.10015
0.25071	0.10015
0.14870	0.10015
0.27621	0.10015
0.17421	-0.15492
0.22521	-0.02739
0.02119	0.12566
0.02119	0.40625
0.22521	-0.00188
0.14870	0.15117
0.12320	-0.35899
0.19971	0.81437
0.35272	0.17668
-0.13181	-0.20594
0.14870	0.50828
0.02119	0.27871
0.17421	0.43176
0.17421	-0.02739
0.27621	0.04914
-0.02981	-0.02739
0.14870	0.61031
0.22521	-1.14973
0.09770	0.53379
0.09770	0.61031
0.17421	0.04914
0.12320	0.10015
0.14870	-0.74160
0.22521	0.66132
0.09770	0.35523
0.17421	0.43176
0.09770	0.07465
0.27621	0.15117
0.09770	0.07465
0.09770	0.27871
0.09770	0.07465
0.27621	0.10015
0.17421	-0.10391
0.12320	0.10015
0.09770	0.20219
0.04670	0.15117
0.32721	-0.00188
0.22521	-0.07840
0.14870	0.55929
-0.00431	-0.35899
0.12320	0.55929
0.14870	0.25320
-0.05531	0.20219
0.14870	0.45726
0.35272	0.02363
0.25071	0.32972
0.22521	-0.69059
0.09770	0.15117
0.12320	-0.02739
-0.02981	0.48277
0.14870	0.53379
0.09770	0.94191
0.25071	0.10015
0.09770	-0.53754
0.07220	0.04914
0.12320	0.25320
0.14870	0.07465
0.32721	0.22769
0.09770	0.10015
0.25071	0.10015
0.12320	0.12566
0.19971	0.17668
0.02119	0.17668
0.12320	0.20219
-0.00431	-0.15492
0.19971	0.30422
0.37822	0.45726
0.19971	0.30422
0.12320	-0.00188
0.07220	0.35523
0.07220	-1.17523
0.17421	0.45726
0.22521	-0.43551
0.30171	0.81437
-0.00431	-0.38449
-0.10631	0.86539
0.17421	-0.05289
0.27621	0.48277
0.12320	0.02363
0.22521	-0.30797
0.12320	0.27871
0.14870	0.27871
0.14870	0.22769
0.07220	0.15117
0.07220	0.02363
0.30171	-0.69059
0.19971	0.30422
0.22521	0.89089
0.04670	-0.00188
0.12320	0.89089
0.02119	-1.58336
0.02119	-0.20594
0.02119	0.99292
0.30171	0.30422
0.25071	-0.05289
0.27621	0.58480
0.14870	0.43176
0.17421	0.17668
0.12320	-0.18043
0.17421	0.22769
0.04670	0.12566
0.19971	0.12566
0.02119	0.15117
0.12320	0.10015
-0.00431	0.02363
0.19971	0.15117
0.09770	0.22769
0.22521	0.15117
0.14870	0.02363
0.22521	-0.00188
0.14870	0.10015
0.30171	0.55929
0.07220	0.86539
0.19971	-0.79262
0.12320	-0.58856
0.07220	0.30422
0.19971	0.12566
0.12320	0.12566
0.30171	0.15117
0.22521	0.20219
0.04670	0.50828
0.14870	0.63582
0.07220	0.15117
0.07220	-0.23145
-0.05531	0.22769
0.32721	0.61031
0.30171	-0.07840
0.32721	0.15117
0.02119	-0.05289
-0.05531	0.25320
0.02119	0.04914
-0.08081	-0.15492
0.35272	0.10015
-0.02981	-0.05289
0.22521	0.27871
0.19971	0.30422
0.30171	0.38074
0.27621	0.35523
0.07220	-0.00188
0.27621	0.45726
0.04670	0.15117
-0.00431	-0.25695
0.17421	0.63582
0.12320	0.04914
0.09770	0.48277
-0.02981	0.02363
0.12320	-1.17523
0.22521	0.61031
0.09770	0.50828
0.19971	0.40625
0.14870	0.38074
0.14870	-0.07840
0.17421	-0.46102
0.14870	-0.69059
0.27621	1.24800
0.17421	0.27871
0.22521	0.27871
0.14870	0.25320
0.02119	0.45726
-0.00431	0.45726
0.14870	-0.30797
0.22521	0.22769
0.19971	-0.10391
0.14870	0.22769
0.17421	-1.32828
0.14870	0.73785
0.14870	0.35523
0.07220	0.58480
0.14870	0.55929
0.04670	-0.66508
0.12320	0.04914
0.14870	0.53379
0.19971	0.48277
0.12320	0.20219
0.14870	-0.10391
0.22521	-0.20594
0.12320	-0.12942
0.19971	0.61031
0.09770	0.10015
0.22521	0.30422
0.02119	0.04914
0.14870	0.15117
0.17421	0.38074
0.42922	-0.46102
0.02119	0.22769
0.02119	-0.46102
0.02119	0.25320
0.12320	0.55929
0.07220	0.07465
0.35272	0.07465
0.12320	-0.02739
0.09770	0.55929
0.09770	-1.04770
0.22521	0.45726
0.17421	0.45726
0.22521	0.53379
0.09770	-0.02739
0.09770	0.17668
0.19971	-0.05289
0.04670	0.30422
0.17421	0.58480
0.19971	-0.69059
0.27621	0.43176
0.12320	-0.23145
0.04670	1.40105
-0.23382	-1.07320
0.22521	-0.00188
0.25071	0.30422
0.25071	-0.07840
0.12320	0.63582
0.09770	0.15117
0.17421	0.12566
0.09770	0.25320
0.19971	0.40625
0.19971	-0.43551
0.12320	0.38074
0.14870	0.02363
0.14870	0.25320
0.19971	0.15117
-0.00431	0.17668
0.19971	-0.10391
0.07220	-0.07840
0.17421	0.30422
0.09770	0.25320
0.22521	0.04914
0.12320	-0.00188
0.12320	0.55929
0.19971	0.22769
0.32721	0.25320
0.02119	-1.35379
0.07220	0.86539
0.25071	0.30422
0.14870	0.20219
0.04670	0.17668
0.07220	0.43176
0.12320	-0.18043
0.22521	0.58480
0.30171	-0.23145
0.17421	0.35523
0.17421	0.63582
0.12320	-0.12942
0.12320	0.17668
0.12320	-0.18043
-0.00431	-0.41000
0.12320	-0.07840
0.17421	0.50828
0.17421	0.30422
0.25071	-0.41000
0.19971	0.55929
0.17421	0.45726
0.12320	0.02363
0.07220	0.04914
0.09770	0.02363
0.19971	0.20219
0.30171	0.15117
0.04670	0.25320
0.19971	0.15117
0.14870	0.25320
0.14870	0.66132
0.02119	-1.12422
0.09770	-0.79262
0.25071	0.58480
0.12320	0.55929
0.27621	0.71234
0.17421	0.50828
0.12320	0.04914
0.12320	-0.15492
-0.00431	-0.23145
0.17421	0.35523
0.19971	0.71234
0.14870	0.30422
0.27621	-0.71609
0.04670	-0.18043
0.17421	-0.10391
0.17421	0.45726
0.19971	0.43176
0.07220	0.43176
0.14870	-0.25695
0.17421	0.25320
0.22521	0.68683
0.12320	0.15117
0.14870	-0.25695
-0.13181	-0.02739
0.22521	0.30422
0.14870	0.32972
0.12320	0.27871
0.12320	0.48277
0.14870	-0.33348
0.25071	0.10015
0.17421	-0.15492
0.04670	0.25320
0.25071	0.48277
0.04670	-0.15492
0.02119	0.25320
0.25071	0.27871
0.22521	0.04914
0.09770	-0.25695
0.12320	0.07465
0.12320	0.45726
0.02119	-0.33348
0.17421	0.38074
0.14870	0.35523
0.14870	0.22769
-0.08081	0.45726
0.22521	0.30422
0.22521	0.07465
0.35272	-0.02739
0.14870	-0.02739
0.14870	0.10015
0.09770	-0.05289
0.09770	-0.35899
0.22521	0.48277
0.09770	-0.33348
0.19971	0.53379
0.04670	0.38074
0.07220	0.38074
0.09770	-0.30797
0.19971	0.53379
0.22521	0.38074
0.17421	0.55929
0.07220	0.07465
0.22521	0.27871
0.19971	0.02363
0.17421	0.12566
0.12320	0.17668
0.19971	0.12566
0.12320	0.10015
0.12320	0.02363
-0.08081	0.15117
0.25071	0.04914
0.27621	0.15117
0.19971	0.32972
0.14870	-0.07840
0.09770	0.35523
0.07220	0.30422
0.22521	-0.48652
0.07220	0.48277
0.04670	0.32972
0.30171	0.10015
0.22521	0.07465
0.22521	0.30422
0.17421	0.04914
0.02119	0.63582
0.04670	0.12566
0.30171	-0.33348
0.04670	-0.02739
0.17421	0.17668
0.25071	0.15117
0.37822	0.32972
0.14870	0.22769
0.04670	-0.12942
0.12320	0.02363
0.19971	0.22769
0.14870	-0.46102
0.09770	0.17668
0.17421	0.89089
0.09770	0.58480
0.12320	0.30422
0.14870	0.15117
0.09770	0.07465
0.12320	0.30422
0.09770	0.78886
0.27621	-1.68539
0.27621	0.12566
0.19971	0.02363
0.12320	-0.05289
0.02119	0.40625
0.14870	0.30422
0.12320	0.15117
0.22521	0.10015
0.14870	0.27871
0.09770	0.55929
0.12320	0.20219
0.12320	0.07465
0.07220	-0.35899
0.09770	0.12566
0.19971	-0.02739
0.14870	0.30422
0.12320	-0.56305
-0.00431	0.61031
0.30171	0.25320
0.02119	0.63582
0.19971	-1.07320
0.04670	0.66132
0.17421	0.45726
0.32721	0.25320
0.14870	0.17668
0.12320	0.12566
0.19971	0.12566
0.09770	0.30422
0.22521	0.25320
0.14870	0.30422
0.02119	-0.56305
0.19971	0.04914
0.09770	0.07465
0.17421	0.25320
0.09770	0.02363
0.22521	0.48277
0.12320	0.58480
0.22521	0.63582
0.07220	-0.58856
0.12320	-0.66508
0.02119	-0.25695
0.22521	0.68683
0.19971	0.35523
0.25071	0.55929
0.09770	0.43176
0.07220	-0.46102
0.12320	-0.15492
0.22521	0.50828
0.14870	-0.18043
0.22521	0.07465
0.14870	0.22769
0.22521	1.12046
0.25071	-1.14973
0.04670	-0.05289
0.12320	0.04914
0.02119	0.12566
0.19971	0.40625
0.25071	0.32972
0.17421	0.22769
0.07220	0.73785
0.07220	-0.38449
0.19971	0.12566
0.14870	-0.12942
0.17421	0.27871
0.17421	-0.02739
0.27621	0.45726
0.09770	0.45726
0.19971	-0.10391
0.04670	0.32972
-0.00431	0.53379
0.27621	-0.97117
0.19971	0.17668
0.17421	0.27871
0.09770	0.17668
0.14870	0.63582
0.25071	1.14597
0.12320	-0.10391
0.19971	0.10015
0.04670	-0.05289
0.27621	0.04914
0.04670	-0.28246
0.22521	0.25320
-0.08081	0.27871
0.22521	0.17668
0.17421	-0.02739
0.17421	0.32972
0.04670	-0.12942
0.12320	0.30422
0.30171	0.27871
0.07220	-0.30797
0.25071	0.45726
0.14870	0.17668
0.32721	0.63582
0.09770	0.22769
-0.05531	-0.00188
0.02119	-0.51203
0.19971	0.66132
0.17421	-0.28246
0.14870	0.61031
0.30171	0.61031
0.07220	0.07465
0.27621	-0.02739
0.02119	-0.23145
0.17421	0.12566
0.12320	-0.00188
0.27621	-0.07840
0.12320	0.15117
0.19971	0.48277
0.04670	0.02363
0.19971	0.02363
0.12320	0.30422
0.07220	0.07465
0.22521	-0.07840
0.07220	0.30422
0.25071	0.38074
0.12320	0.35523
0.22521	-0.05289
0.09770	0.07465
0.17421	0.66132
0.02119	-0.41000
0.19971	-0.10391
0.12320	-0.25695
0.19971	1.06945
0.07220	-0.28246
0.12320	0.48277
0.07220	0.12566
0.27621	0.30422
0.04670	-0.43551
0.19971	0.27871
0.12320	0.25320
0.19971	0.10015
0.02119	-0.05289
0.19971	-0.05289
0.14870	-0.30797
0.22521	0.50828
0.12320	0.68683
0.22521	-0.12942
-0.10631	-0.86914
0.12320	0.48277
0.32721	0.89089
0.25071	0.25320
0.17421	0.30422
0.04670	-0.18043
0.32721	-0.15492
0.17421	0.25320
0.09770	0.10015
0.17421	0.22769
0.09770	0.15117
0.09770	0.30422
0.12320	0.07465
0.09770	0.17668
0.12320	0.30422
0.14870	0.12566
0.17421	-0.61406
0.22521	0.40625
0.04670	0.66132
0.14870	-0.07840
0.12320	-0.46102
0.22521	-0.30797
0.19971	0.73785
0.27621	0.27871
0.14870	-0.25695
0.07220	0.86539
0.09770	-0.71609
0.02119	0.73785
0.19971	0.04914
0.19971	0.17668
0.22521	-0.30797
0.14870	0.25320
0.19971	-0.18043
0.22521	0.17668
0.04670	0.27871
0.19971	0.10015
0.19971	0.12566
0.07220	0.58480
0.17421	0.45726
-0.23382	0.04914
0.22521	-0.30797
0.25071	0.22769
0.17421	0.45726
0.19971	0.53379
0.17421	-0.41000
0.32721	-0.28246
-0.00431	0.99292
0.12320	-0.30797
0.17421	0.66132
-0.02981	0.27871
0.22521	0.15117
0.09770	0.10015
0.12320	0.20219
0.09770	0.22769
0.32721	0.15117
0.25071	-0.25695
0.02119	0.32972
0.14870	-0.07840
0.07220	0.15117
0.27621	0.15117
0.09770	0.15117
0.14870	0.17668
0.04670	0.07465
0.27621	1.24800
0.09770	-0.74160
0.12320	0.22769
0.12320	0.22769
0.22521	-0.43551
0.19971	-1.04770
0.22521	0.89089
0.19971	1.06945
0.02119	0.32972
0.25071	0.10015
0.04670	1.01843
0.22521	-0.18043
0.04670	0.02363
0.12320	0.15117
0.19971	-0.02739
0.14870	-0.02739
0.22521	0.15117
0.04670	-0.43551
0.14870	0.10015
-0.23382	0.15117
0.32721	0.15117
0.22521	-0.00188
0.35272	0.58480
0.27621	0.45726
0.12320	0.10015
0.02119	-0.05289
0.19971	-0.07840
0.19971	-0.07840
0.14870	0.71234
0.04670	0.22769
0.22521	-0.28246
0.07220	-0.18043
0.22521	0.17668
0.17421	0.58480
0.09770	0.50828
0.14870	-0.23145
0.12320	0.55929
0.17421	-0.35899
0.09770	-0.56305
0.19971	0.53379
0.14870	0.32972
0.22521	0.35523
0.14870	0.20219
0.14870	0.12566
0.04670	-0.30797
0.07220	-0.23145
0.12320	0.15117
0.17421	0.20219
0.12320	0.15117
0.22521	0.17668
0.17421	0.04914
0.09770	0.17668
0.04670	0.15117
0.12320	0.22769
0.27621	0.35523
0.27621	-0.30797
0.12320	0.10015
-0.08081	0.22769
0.12320	0.40625
0.17421	0.25320
0.19971	0.30422
0.19971	0.10015
0.09770	0.27871
0.12320	-0.20594
0.07220	0.38074
0.22521	0.30422
0.07220	-0.05289
0.12320	-0.30797
-0.00431	-0.18043
0.12320	-0.89465
0.25071	1.78367
0.37822	0.30422
0.09770	-0.07840
0.07220	0.43176
0.02119	0.12566
0.09770	0.50828
0.19971	-0.25695
0.17421	0.20219
0.17421	-0.12942
0.17421	-0.12942
0.12320	-0.07840
0.12320	0.35523
0.19971	0.22769
0.12320	0.48277
0.07220	-0.51203
0.30171	0.04914
0.09770	0.30422
0.09770	0.40625
0.02119	0.22769
0.19971	0.35523
0.09770	0.12566
0.27621	0.27871
-0.00431	0.02363
0.25071	0.20219
0.07220	-0.15492
0.19971	0.10015
0.14870	0.55929
0.14870	0.10015
0.22521	0.17668
0.02119	-0.46102
0.19971	0.04914
-0.15732	0.78886
0.22521	-0.30797
0.22521	0.32972
0.22521	-0.20594
0.19971	1.17148
0.19971	0.43176
0.09770	-0.18043
0.14870	-0.18043
0.22521	0.48277
0.07220	0.32972
0.22521	0.15117
0.09770	-0.43551
-0.00431	0.32972
0.17421	0.15117
-0.00431	0.10015
0.19971	0.15117
0.27621	0.15117
0.25071	0.32972
0.07220	0.20219
0.19971	0.22769
0.19971	0.04914
0.12320	-0.38449
0.17421	0.45726
0.22521	0.48277
0.09770	-0.30797
0.12320	0.30422
0.12320	0.35523
0.19971	-0.53754
0.14870	0.81437
-0.02981	-0.48652
0.09770	0.15117
0.19971	0.43176
0.09770	0.32972
0.25071	0.10015
0.04670	-0.15492
0.22521	0.58480
0.07220	-0.53754
0.22521	0.04914
0.09770	0.66132
0.19971	-0.18043
0.09770	0.35523
0.22521	0.66132
0.19971	-0.81812
0.14870	0.53379
0.12320	0.12566
0.17421	0.02363
0.12320	0.40625
0.17421	-0.30797
0.12320	0.94191
0.04670	0.10015
0.14870	0.10015
0.19971	0.12566
0.12320	-0.07840
0.30171	-0.35899
0.04670	0.30422
0.09770	-0.25695
0.22521	0.48277
0.14870	0.55929
0.12320	-0.30797
0.04670	0.53379
0.04670	0.04914
0.14870	0.43176
0.19971	0.38074
0.30171	0.27871
0.02119	0.07465
0.17421	-0.00188
0.12320	-0.05289
0.19971	0.25320
0.14870	-0.20594
0.07220	-0.15492
0.27621	0.43176
0.09770	0.43176
0.04670	0.15117
0.12320	0.20219
0.22521	-0.12942
0.02119	0.61031
0.17421	0.43176
0.19971	0.32972
0.14870	0.35523
0.04670	0.55929
0.19971	-0.79262
0.19971	0.04914
0.17421	0.55929
0.09770	0.50828
0.19971	0.40625
0.04670	0.07465
0.07220	0.27871
0.17421	0.10015
0.12320	0.22769
0.27621	-0.43551
-0.02981	0.04914
0.17421	0.40625
0.07220	0.15117
0.12320	0.10015
0.22521	0.04914
0.14870	0.32972
0.30171	0.20219
0.12320	0.20219
0.22521	0.15117
-0.00431	0.25320
-0.02981	-0.00188
0.17421	-0.46102
0.17421	0.40625
0.27621	0.76336
0.19971	0.02363
0.02119	0.12566
0.12320	0.50828
0.12320	0.45726
0.07220	-0.61406
0.19971	-0.79262
0.09770	0.15117
0.14870	0.43176
0.09770	0.22769
0.04670	0.53379
0.14870	0.83988
0.09770	0.50828
0.19971	0.55929
0.22521	-0.69059
0.32721	0.15117
0.22521	0.32972
0.09770	0.22769
0.12320	0.02363
0.02119	-0.51203
0.02119	0.17668
-0.05531	0.22769
0.27621	0.63582
0.22521	-0.00188
0.22521	-0.35899
0.09770	1.09496
0.17421	-0.05289
0.30171	0.07465
0.12320	0.20219
0.17421	0.27871
0.14870	0.25320
0.12320	0.35523
0.09770	0.25320
0.07220	-0.10391
-0.00431	0.35523
0.27621	-0.35899
0.19971	-0.56305
0.19971	0.99292
0.09770	0.96742
0.14870	0.68683
0.17421	-0.84363
0.19971	0.32972
0.19971	0.45726
0.12320	0.40625
0.27621	-0.10391
0.07220	0.22769
0.17421	-0.28246
0.07220	-0.05289
0.04670	0.20219
0.25071	0.50828
0.25071	0.25320
0.19971	-0.05289
0.12320	0.50828
0.17421	-0.05289
0.14870	0.02363
0.17421	0.02363
-0.00431	0.20219
-0.36133	0.04914
0.22521	-0.05289
0.32721	0.12566
0.32721	0.12566
0.30171	0.38074
0.19971	-0.05289
0.09770	0.58480
0.17421	0.61031
0.12320	0.15117
0.02119	-0.66508
0.17421	0.22769
0.09770	0.10015
0.09770	-0.20594
0.14870	0.61031
0.12320	-0.02739
0.19971	0.66132
0.14870	-0.20594
0.22521	0.32972
0.09770	-0.43551
0.12320	0.53379
0.12320	0.40625
0.12320	-0.41000
0.14870	0.40625
0.14870	0.38074
0.17421	0.22769
0.27621	-0.07840
0.04670	0.07465
0.19971	0.20219
0.12320	-0.20594
0.04670	0.38074
0.07220	0.10015
0.17421	-0.28246
0.17421	0.45726
0.14870	0.58480
0.09770	0.30422
0.14870	0.25320
0.09770	0.12566
0.25071	-0.07840
0.14870	-0.56305
0.09770	0.22769
0.09770	0.45726
0.14870	0.53379
0.30171	0.50828
0.27621	0.15117
0.09770	-0.02739
-0.10631	0.04914
0.19971	-0.38449
0.14870	0.45726
0.30171	0.10015
0.19971	0.22769
0.04670	-0.25695
0.12320	0.30422
0.07220	0.30422
0.07220	0.55929
0.14870	-0.46102
0.22521	0.20219
0.25071	0.48277
0.07220	0.58480
0.14870	-0.05289
0.09770	-0.10391
0.12320	0.25320
0.14870	0.68683
0.17421	0.32972
0.17421	-0.02739
0.12320	-0.48652
0.14870	-0.51203
0.12320	-0.23145
0.17421	0.35523
0.02119	0.27871
0.22521	0.17668
0.14870	0.55929
0.14870	0.32972
0.09770	0.53379
0.17421	-0.35899
0.27621	0.17668
0.09770	0.10015
0.09770	0.20219
0.12320	0.25320
0.22521	0.22769
0.14870	0.04914
0.17421	-0.30797
0.19971	0.53379
0.07220	0.22769
0.07220	0.20219
0.30171	-0.05289
0.25071	0.61031
0.07220	0.30422
0.09770	0.22769
-0.05531	0.12566
0.27621	0.17668
0.19971	0.07465
0.14870	0.15117
0.17421	0.63582
0.25071	-0.51203
0.04670	0.12566
0.17421	0.30422
0.07220	0.30422
0.25071	-0.35899
0.09770	0.17668
0.12320	0.58480
0.14870	0.35523
0.12320	-0.20594
0.27621	0.07465
0.19971	0.12566
0.07220	0.53379
0.22521	0.86539
0.12320	-0.76711
0.22521	0.40625
0.02119	0.04914
0.17421	0.20219
0.07220	0.27871
0.27621	0.43176
0.02119	0.30422
0.17421	-0.23145
0.12320	-0.25695
-0.02981	0.43176
0.30171	-0.69059
0.09770	0.35523
0.17421	0.50828
0.19971	0.02363
0.02119	0.27871
0.14870	-0.10391
0.22521	-1.25176
0.17421	-0.05289
0.25071	0.89089
0.02119	0.63582
0.22521	0.55929
0.14870	0.30422
0.07220	0.25320
0.07220	0.15117
-0.00431	-0.02739
0.19971	0.12566
0.32721	-0.51203
0.12320	0.20219
0.22521	0.15117
0.27621	-0.07840
0.14870	0.38074
0.09770	0.35523
0.07220	0.17668
0.12320	0.30422
0.09770	0.10015
0.22521	0.32972
0.14870	-0.05289
0.12320	0.45726
0.07220	-0.07840
0.12320	-0.18043
0.22521	0.32972
0.12320	0.32972
0.32721	0.32972
0.17421	-0.12942
0.14870	0.32972
0.02119	-0.20594
0.09770	0.12566
0.27621	0.45726
0.09770	-0.63957
-0.00431	0.96742
0.12320	-0.33348
0.25071	0.40625
0.19971	0.86539
0.09770	-0.94566
0.09770	0.63582
0.12320	0.32972
0.19971	0.30422
0.09770	-0.00188
0.09770	0.10015
0.35272	0.17668
0.09770	0.20219
0.27621	-0.10391
-0.08081	0.27871
0.19971	0.35523
0.25071	-0.41000
0.12320	-0.38449
0.19971	0.48277
0.09770	0.35523
0.09770	0.40625
0.12320	0.20219
0.12320	0.43176
0.07220	0.12566
0.09770	-0.46102
0.17421	0.63582
0.32721	0.27871
0.22521	0.27871
0.04670	0.10015
0.02119	-0.18043
0.02119	-0.76711
0.22521	0.45726
0.14870	0.63582
0.22521	0.27871
0.30171	0.35523
0.12320	0.30422
-0.02981	-0.63957
0.09770	0.30422
0.27621	0.43176
0.02119	-0.02739
-0.00431	-0.07840
0.22521	0.20219
0.22521	0.22769
0.02119	0.35523
0.04670	0.15117
0.32721	0.20219
0.22521	-0.07840
-0.02981	0.50828
0.09770	0.25320
0.27621	0.30422
0.12320	0.45726
0.27621	0.27871
-0.18282	-0.20594
0.14870	-0.18043
0.22521	0.32972
0.17421	0.40625
