0.07220	0.32972
0.19971	-0.20594
0.17421	0.17668
0.12320	0.27871
0.19971	0.07465
0.02119	0.30422
0.14870	0.20219
0.07220	0.12566
0.14870	0.07465
0.14870	0.07465
0.14870	0.15117
0.12320	0.12566
0.09770	0.22769
0.25071	0.04914
0.04670	0.27871
0.25071	0.04914
0.14870	0.12566
0.12320	0.12566
0.12320	0.10015
0.07220	0.27871
0.22521	0.10015
0.14870	0.17668
0.09770	0.17668
0.07220	0.20219
0.09770	0.27871
0.09770	0.10015
0.22521	0.12566
0.12320	0.15117
0.17421	0.07465
0.14870	0.20219
0.19971	0.10015
0.07220	0.20219
0.14870	-0.15492
0.12320	-0.02739
0.17421	0.50828
0.14870	0.30422
0.07220	0.04914
0.19971	0.20219
0.04670	0.30422
0.19971	0.32972
0.14870	0.15117
0.14870	0.02363
0.17421	0.04914
0.12320	0.20219
0.17421	0.15117
0.14870	0.10015
0.17421	0.15117
0.14870	0.04914
-0.00431	0.20219
0.22521	0.10015
0.07220	0.25320
0.19971	0.10015
0.12320	0.22769
0.12320	0.20219
0.17421	0.17668
0.12320	0.15117
0.19971	0.12566
0.09770	0.22769
0.22521	0.04914
0.07220	0.15117
0.14870	0.04914
0.09770	0.22769
0.22521	0.04914
0.04670	0.30422
0.19971	0.12566
0.07220	0.22769
0.25071	0.07465
0.07220	0.20219
0.12320	0.10015
0.02119	0.35523
0.37822	-0.05289
0.07220	-0.25695
0.27621	0.15117
0.07220	0.55929
0.09770	0.25320
0.09770	0.25320
0.22521	0.10015
0.09770	0.20219
0.22521	-0.00188
0.12320	0.07465
0.19971	0.10015
0.14870	0.02363
0.19971	0.15117
0.17421	0.17668
0.14870	0.20219
0.17421	0.20219
0.04670	0.10015
0.12320	0.12566
0.12320	0.07465
0.12320	0.20219
0.17421	0.20219
0.17421	0.17668
0.07220	0.15117
0.12320	0.22769
0.25071	0.17668
0.09770	-0.18043
0.12320	0.17668
0.12320	0.30422
0.12320	0.10015
0.14870	0.17668
0.14870	0.07465
0.12320	0.22769
0.17421	0.15117
0.17421	0.17668
0.07220	0.20219
0.19971	0.04914
0.09770	0.17668
0.17421	0.10015
0.19971	-0.00188
0.07220	0.07465
0.19971	0.17668
0.07220	0.22769
0.12320	0.38074
0.22521	-0.05289
0.09770	0.20219
0.17421	0.25320
0.14870	-0.18043
0.07220	0.30422
0.22521	0.12566
0.04670	0.15117
0.14870	0.17668
0.17421	0.10015
0.09770	0.38074
0.19971	0.17668
0.09770	0.15117
0.19971	0.04914
-0.02981	0.17668
0.17421	0.04914
0.17421	0.20219
0.14870	0.02363
0.17421	0.12566
0.14870	0.12566
0.17421	0.25320
0.12320	0.22769
0.19971	0.12566
0.12320	0.12566
0.07220	0.15117
0.14870	0.15117
0.17421	0.12566
0.27621	0.07465
0.07220	0.35523
0.19971	-0.25695
0.12320	0.22769
0.14870	0.25320
0.19971	0.25320
0.14870	0.40625
0.17421	0.15117
0.14870	0.04914
0.07220	0.04914
0.14870	0.30422
0.12320	0.10015
0.17421	0.15117
0.19971	0.30422
0.07220	0.15117
0.14870	-0.07840
0.09770	0.30422
0.12320	0.12566
0.12320	0.02363
0.17421	0.32972
0.19971	0.30422
0.17421	0.15117
0.22521	0.07465
0.12320	0.04914
0.27621	0.17668
0.12320	0.22769
0.07220	0.20219
0.19971	0.07465
0.17421	0.15117
0.17421	-0.05289
0.14870	0.22769
0.17421	0.12566
0.04670	0.30422
0.19971	0.10015
0.09770	0.22769
0.17421	0.02363
0.07220	0.25320
0.12320	0.12566
0.14870	0.30422
0.14870	0.04914
0.12320	0.04914
0.09770	0.15117
0.17421	0.02363
0.14870	0.20219
0.17421	0.25320
0.12320	0.30422
0.09770	0.17668
0.19971	-0.12942
0.12320	0.20219
0.22521	0.12566
0.07220	0.35523
0.09770	-0.89465
0.12320	0.43176
0.12320	0.53379
0.17421	0.20219
0.09770	0.25320
0.22521	0.10015
0.09770	0.10015
0.09770	0.10015
0.12320	-0.02739
0.12320	0.17668
0.12320	0.20219
0.12320	0.02363
0.19971	0.22769
0.19971	0.12566
0.12320	0.25320
0.09770	0.10015
0.12320	0.20219
0.17421	0.15117
0.17421	0.07465
0.19971	0.07465
0.12320	0.15117
0.09770	0.35523
0.22521	0.12566
0.07220	0.15117
0.22521	0.15117
0.17421	0.12566
0.14870	0.20219
0.19971	0.04914
0.14870	0.12566
0.12320	0.22769
0.19971	0.30422
0.09770	-0.00188
0.14870	-0.07840
0.12320	0.30422
0.12320	0.40625
0.22521	-0.07840
0.14870	0.35523
0.12320	0.35523
0.22521	0.04914
0.09770	0.20219
0.14870	0.10015
0.22521	0.12566
0.09770	0.15117
0.14870	0.12566
0.04670	0.12566
0.19971	0.12566
0.12320	0.10015
0.17421	0.15117
0.22521	0.15117
0.09770	0.20219
0.14870	0.15117
0.04670	0.12566
0.19971	0.15117
0.04670	0.20219
0.19971	0.20219
0.19971	0.20219
0.14870	0.22769
0.17421	0.12566
0.14870	0.22769
0.14870	-0.00188
0.12320	0.12566
0.14870	0.02363
0.09770	0.30422
0.22521	0.22769
0.09770	0.17668
0.14870	0.15117
0.19971	0.04914
0.14870	0.22769
0.07220	0.15117
0.02119	0.17668
0.17421	-0.00188
0.17421	0.17668
0.27621	0.10015
0.14870	0.22769
0.17421	0.17668
0.02119	-0.02739
0.09770	0.25320
0.12320	0.12566
0.14870	0.02363
0.14870	0.30422
0.12320	0.25320
0.09770	0.20219
0.22521	0.15117
0.09770	0.20219
0.22521	0.10015
0.12320	0.12566
0.22521	0.12566
0.02119	0.10015
0.12320	0.04914
0.17421	0.15117
0.14870	0.12566
0.14870	0.15117
0.12320	0.20219
0.14870	0.17668
0.17421	0.22769
0.07220	0.25320
0.14870	0.15117
0.12320	0.17668
0.19971	-0.25695
0.07220	0.25320
0.19971	0.17668
0.22521	0.17668
0.17421	0.07465
0.22521	0.17668
0.07220	0.20219
0.14870	0.22769
0.09770	0.17668
0.22521	0.04914
0.14870	0.07465
0.19971	0.20219
0.14870	0.20219
0.04670	0.22769
0.17421	0.20219
0.22521	0.20219
0.19971	0.10015
0.09770	0.15117
0.14870	-0.12942
0.04670	0.12566
0.17421	0.30422
0.12320	0.10015
0.17421	0.25320
0.14870	0.10015
0.02119	0.25320
0.22521	0.12566
0.12320	0.20219
0.17421	0.04914
0.14870	0.10015
0.19971	0.07465
0.12320	0.12566
0.07220	0.12566
0.17421	0.20219
0.17421	0.20219
0.14870	-0.33348
0.12320	0.22769
0.04670	0.50828
0.19971	0.35523
0.14870	0.07465
0.17421	0.17668
0.17421	0.07465
0.12320	0.02363
0.19971	0.04914
0.04670	0.20219
0.17421	-0.20594
0.12320	0.30422
0.17421	0.40625
0.22521	0.27871
0.09770	0.20219
0.17421	-0.00188
0.14870	0.04914
0.14870	0.15117
0.19971	0.07465
0.07220	0.35523
0.12320	0.17668
0.19971	0.10015
0.09770	0.15117
0.19971	0.17668
0.09770	-0.20594
-0.00431	0.02363
0.12320	0.25320
0.22521	0.25320
0.17421	0.30422
0.12320	0.20219
0.12320	0.15117
0.07220	0.20219
0.12320	0.10015
0.14870	0.02363
0.12320	0.35523
0.09770	0.10015
-0.00431	0.17668
0.30171	0.15117
0.19971	0.10015
0.22521	0.12566
0.22521	0.10015
0.09770	0.17668
0.09770	0.15117
0.19971	0.17668
0.14870	0.15117
0.17421	0.27871
0.12320	0.20219
0.07220	0.15117
0.22521	0.04914
0.09770	0.17668
0.14870	0.12566
0.17421	0.25320
0.12320	0.17668
0.22521	0.07465
0.09770	0.10015
0.22521	0.22769
0.07220	-0.00188
0.19971	0.17668
0.14870	0.40625
0.12320	0.32972
0.17421	-0.15492
0.14870	0.22769
0.14870	0.17668
0.12320	0.10015
0.19971	0.07465
0.07220	0.15117
0.27621	0.10015
0.12320	0.10015
0.09770	0.10015
0.09770	0.12566
0.17421	0.12566
0.17421	0.22769
0.19971	0.22769
0.22521	0.20219
0.09770	0.12566
0.19971	0.02363
0.04670	0.15117
0.22521	0.04914
0.04670	0.22769
0.22521	0.07465
0.12320	0.25320
0.22521	0.17668
0.12320	0.22769
0.14870	0.07465
0.12320	0.15117
0.19971	0.17668
0.17421	0.20219
0.14870	-0.33348
0.12320	0.35523
0.19971	0.20219
0.02119	0.25320
0.12320	0.25320
0.17421	0.15117
0.14870	0.15117
0.22521	0.04914
0.09770	0.10015
0.12320	0.15117
0.12320	0.15117
0.12320	-0.07840
0.14870	0.07465
0.14870	0.32972
0.22521	0.17668
0.07220	0.10015
0.17421	0.25320
0.09770	0.32972
0.17421	0.02363
0.14870	0.04914
0.07220	0.07465
0.09770	0.10015
0.14870	0.22769
0.19971	0.02363
0.09770	0.22769
0.25071	0.15117
0.02119	0.27871
0.04670	0.07465
0.14870	0.04914
0.19971	0.17668
0.22521	0.20219
0.09770	0.45726
0.22521	0.15117
0.07220	0.02363
0.14870	0.17668
0.12320	0.15117
0.09770	0.15117
0.17421	0.12566
0.04670	0.27871
0.27621	0.04914
0.14870	0.20219
0.12320	0.04914
0.07220	0.10015
0.14870	-0.05289
0.22521	0.30422
0.09770	0.50828
0.14870	0.25320
0.22521	0.22769
0.09770	0.17668
0.12320	-0.00188
0.12320	0.02363
0.07220	0.12566
0.22521	0.02363
0.14870	0.20219
0.17421	0.10015
0.12320	0.22769
0.07220	0.12566
0.19971	0.10015
0.09770	0.22769
0.14870	0.10015
0.14870	0.20219
0.14870	0.12566
0.12320	0.20219
0.09770	0.15117
0.19971	0.07465
0.14870	0.35523
0.17421	0.02363
0.12320	0.15117
0.09770	0.22769
0.25071	0.27871
0.14870	0.32972
0.12320	0.12566
0.19971	-0.05289
0.09770	0.12566
0.07220	-0.07840
-0.02981	0.38074
0.22521	0.27871
0.27621	0.25320
0.09770	0.15117
0.19971	0.02363
0.09770	0.20219
0.14870	0.17668
-0.00431	0.17668
0.12320	0.15117
0.17421	0.15117
0.27621	0.20219
0.09770	0.15117
0.12320	0.07465
0.07220	0.10015
0.12320	0.15117
0.12320	0.00000
0.12320	0.10015
0.19971	0.15117
0.09770	0.32972
0.14870	-0.51203
0.09770	0.35523
0.17421	0.32972
0.14870	0.20219
0.12320	0.17668
0.12320	0.20219
0.19971	0.04914
0.02119	0.17668
0.12320	0.15117
0.09770	-0.00188
0.14870	0.04914
0.09770	0.17668
0.22521	0.17668
0.07220	0.12566
0.17421	0.15117
0.09770	0.30422
0.14870	0.17668
0.14870	0.04914
0.07220	-0.05289
0.22521	0.20219
0.09770	0.07465
0.19971	0.22769
0.12320	0.12566
0.14870	0.15117
0.12320	0.20219
0.14870	0.10015
0.17421	0.43176
0.19971	-0.66508
0.17421	0.20219
-0.02981	0.35523
0.14870	0.32972
0.09770	0.32972
0.40372	0.22769
0.09770	0.07465
0.12320	-0.02739
0.07220	-0.02739
0.19971	0.22769
0.09770	0.12566
0.19971	0.15117
0.09770	0.25320
0.19971	0.20219
0.12320	0.25320
0.19971	-0.30797
-0.00431	0.27871
0.09770	0.25320
0.17421	0.15117
0.19971	0.12566
0.19971	0.04914
0.22521	0.15117
0.07220	0.10015
0.17421	0.15117
0.07220	0.40625
0.22521	-0.15492
0.07220	0.20219
0.22521	0.17668
0.17421	0.25320
0.07220	0.10015
0.12320	0.12566
0.12320	-0.30797
0.17421	0.12566
0.02119	0.30422
0.19971	0.53379
0.14870	0.45726
0.12320	-0.23145
0.22521	0.25320
0.14870	0.17668
0.14870	0.10015
0.12320	-0.07840
0.14870	0.12566
0.04670	-0.00188
0.19971	0.04914
0.17421	0.15117
0.14870	0.66132
0.14870	1.63062
0.12320	-1.43031
0.22521	-0.20594
-0.02981	0.22769
0.17421	-1.48133
0.30171	0.68683
0.14870	0.76336
0.22521	0.50828
0.04670	0.71234
0.22521	0.71234
0.07220	0.02363
0.04670	0.02363
0.12320	0.17668
0.12320	-0.41000
0.12320	0.61031
0.19971	0.35523
0.12320	-0.18043
0.07220	-0.79262
0.22521	-0.81812
0.12320	0.07465
0.19971	1.45206
0.19971	1.55410
-0.00431	-0.02739
0.35272	0.07465
0.09770	0.81437
0.07220	0.66132
-0.31033	0.07465
0.25071	-0.51203
0.22521	0.10015
0.27621	-1.17523
0.30171	0.25320
0.32721	2.39585
0.12320	0.58480
0.07220	-5.43503
0.12320	3.59471
-0.08081	-1.12422
0.07220	0.25320
0.17421	-5.15444
0.14870	3.64573
-0.00431	1.83468
0.30171	1.04394
0.42922	2.24281
0.19971	-0.28246
-0.20832	0.66132
0.17421	-0.86914
0.35272	-0.69059
0.25071	-0.05289
-0.15732	-0.61406
0.22521	-4.56776
0.58223	-0.43551
-0.02981	1.27351
0.04670	0.55929
0.04670	1.70714
-0.10631	0.15117
0.19971	1.68163
0.86275	-0.28246
0.19971	-0.00188
-0.53984	0.78886
0.48022	0.94191
0.19971	1.14597
0.07220	-1.48133
-0.28482	1.27351
0.81175	-0.15492
0.12320	-0.25695
0.07220	1.40105
-0.13181	0.20219
0.14870	0.45726
0.04670	-4.54226
-0.00431	-0.79262
-0.33583	0.81437
0.78624	2.11527
0.99026	0.66132
-0.18282	1.98773
-0.13181	1.57960
0.07220	1.01843
0.14870	0.55929
-0.00431	0.04914
-0.10631	-0.89465
0.27621	1.65613
0.04670	0.02363
0.32721	-2.11902
0.02119	-1.86394
0.32721	-0.51203
0.32721	0.61031
0.02119	0.76336
0.02119	2.08976
0.19971	0.02363
0.07220	1.19699
0.07220	1.70714
0.02119	0.78886
0.12320	-0.99668
0.42922	-1.17523
-0.05531	-1.09871
0.04670	-0.12942
0.12320	-0.12942
0.07220	1.50308
0.30171	1.93671
0.19971	0.63582
0.27621	-3.52195
0.07220	1.70714
0.19971	-0.94566
0.07220	0.43176
0.19971	0.53379
-0.15732	1.63062
0.02119	1.27351
0.25071	1.09496
0.17421	-1.22625
0.25071	-2.34859
0.37822	-1.45582
0.09770	0.81437
0.17421	-1.02219
0.02119	0.61031
0.19971	1.47757
0.25071	0.35523
-0.08081	0.30422
0.17421	0.25320
0.12320	0.17668
-0.00431	0.48277
0.22521	0.20219
0.09770	-0.00188
0.27621	-1.30277
0.09770	1.86019
0.22521	-1.43031
0.40372	0.66132
0.27621	0.25320
-0.10631	2.80397
0.22521	0.40625
0.04670	0.48277
-0.15732	0.12566
0.09770	-1.07320
0.14870	-0.15492
0.42922	1.12046
0.07220	-0.51203
0.22521	0.96742
0.14870	-0.58856
-0.05531	1.37554
0.27621	-0.46102
0.25071	-3.36890
0.25071	1.09496
-0.00431	0.83988
0.22521	0.73785
-0.00431	-0.25695
0.22521	0.73785
0.12320	0.73785
-0.08081	0.68683
0.45472	-0.30797
0.35272	-1.53234
-0.31033	1.88570
0.27621	0.07465
0.04670	-2.50164
0.22521	-0.92016
0.42922	2.19179
-0.05531	2.08976
-0.10631	-0.76711
0.07220	-0.10391
0.50573	-0.74160
0.42922	0.73785
0.09770	0.55929
0.17421	0.76336
-0.02981	-0.00188
0.30171	-0.05289
0.12320	0.22769
0.17421	-0.35899
0.07220	0.63582
0.19971	-0.43551
0.19971	1.70714
-0.15732	-4.69530
0.17421	0.76336
0.27621	0.73785
0.19971	1.70714
0.12320	-0.15492
0.17421	-0.25695
0.19971	1.57960
-0.08081	1.12046
0.14870	0.45726
0.02119	-0.46102
0.50573	0.07465
-0.33583	0.81437
0.68424	0.94191
0.30171	-1.40480
-0.08081	1.22250
-0.10631	-4.59327
0.02119	0.81437
0.22521	0.61031
0.04670	0.58480
0.27621	0.55929
0.30171	0.55929
0.50573	-1.50683
0.27621	0.66132
-0.20832	0.15117
0.02119	0.94191
-0.02981	1.04394
0.14870	0.50828
0.14870	0.02363
0.09770	-0.46102
0.35272	1.29902
0.25071	-1.55785
0.32721	-1.32828
-0.02981	0.25320
0.14870	0.27871
0.27621	0.22769
0.17421	0.63582
0.12320	0.78886
0.09770	1.42656
0.22521	-1.81293
-0.00431	-0.56305
0.07220	-0.84363
0.32721	1.14597
-0.10631	0.32972
0.22521	0.86539
0.14870	-1.02219
0.30171	1.78367
-0.00431	-3.16484
0.27621	0.45726
0.04670	0.53379
0.27621	-0.41000
0.58223	0.96742
-0.20832	-0.25695
0.17421	-0.05289
0.19971	0.27871
0.02119	0.48277
-0.18282	0.07465
0.27621	-0.71609
0.30171	-0.28246
0.27621	0.89089
0.17421	-0.05289
0.09770	1.57960
0.12320	-0.79262
0.27621	0.35523
-0.02981	0.68683
0.12320	0.50828
0.14870	-0.23145
0.09770	-0.23145
0.02119	0.40625
0.58223	-0.92016
0.19971	0.96742
-0.36133	0.48277
-0.02981	-1.50683
0.27621	-4.36370
0.27621	2.39585
0.19971	-0.23145
0.14870	0.68683
0.22521	1.19699
0.19971	0.30422
-0.05531	0.66132
0.30171	0.53379
0.35272	0.63582
0.12320	0.12566
0.09770	0.04914
-0.00431	0.45726
-0.02981	-1.40480
0.17421	0.30422
0.17421	0.86539
0.40372	-0.86914
0.30171	1.42656
0.09770	-0.79262
0.04670	0.63582
0.07220	-0.41000
0.22521	1.12046
0.27621	1.47757
-0.13181	-0.89465
0.12320	-0.05289
0.12320	0.50828
0.12320	0.48277
0.19971	1.35003
0.07220	-0.97117
0.12320	0.30422
0.30171	-0.46102
0.19971	0.27871
0.37822	-0.56305
0.12320	0.83988
0.09770	-0.30797
0.14870	-0.53754
0.17421	0.55929
0.04670	0.76336
-0.02981	0.02363
0.14870	0.10015
0.19971	-0.81812
0.09770	0.45726
0.19971	-0.74160
0.25071	1.63062
-0.02981	0.86539
0.07220	0.63582
0.17421	-0.63957
0.42922	0.53379
-0.08081	-0.53754
0.27621	0.12566
0.76074	0.58480
-0.28482	-0.02739
0.02119	-0.51203
0.09770	0.17668
0.25071	-0.99668
-0.02981	0.48277
0.12320	0.66132
0.14870	0.94191
0.17421	0.66132
0.27621	-0.30797
0.17421	0.66132
0.22521	0.71234
0.14870	-0.25695
0.09770	-0.15492
0.17421	0.48277
0.19971	0.40625
0.02119	0.02363
0.19971	2.57441
0.12320	-2.04250
0.07220	-1.25176
0.14870	-0.69059
0.14870	0.66132
0.07220	-0.35899
0.22521	-0.25695
0.14870	1.17148
-0.00431	1.29902
0.25071	-0.56305
0.17421	0.27871
0.17421	0.81437
0.12320	-0.35899
0.27621	0.78886
0.25071	-0.10391
0.02119	0.35523
0.07220	0.12566
0.09770	0.17668
-0.10631	-0.43551
0.12320	-1.09871
0.30171	0.35523
0.19971	0.55929
0.19971	0.81437
0.17421	-1.07320
0.25071	0.83988
-0.08081	1.22250
-0.00431	0.15117
0.35272	0.22769
0.17421	0.66132
0.09770	-1.27726
0.12320	-0.81812
0.02119	1.45206
0.19971	-1.68539
0.35272	0.73785
0.12320	1.24800
0.07220	-2.24656
0.12320	0.07465
-0.08081	0.89089
0.19971	1.01843
0.12320	0.58480
0.30171	-0.25695
0.04670	1.88570
0.19971	0.48277
0.32721	-0.58856
0.02119	-1.14973
0.07220	-0.20594
0.17421	1.22250
0.22521	2.26831
0.02119	-2.39961
0.09770	0.30422
0.40372	-0.89465
-0.00431	0.91640
-0.02981	0.45726
0.19971	0.22769
0.19971	0.38074
0.27621	0.61031
0.02119	-0.05289
0.22521	0.71234
0.09770	-0.41000
0.37822	-0.15492
-0.02981	0.17668
0.32721	-2.34859
0.09770	0.25320
0.25071	0.96742
0.14870	1.06945
0.17421	2.03874
0.07220	-3.36890
-0.00431	-1.17523
-0.00431	0.81437
0.07220	1.01843
0.07220	0.50828
0.45472	1.24800
0.12320	0.17668
0.19971	-1.48133
0.19971	0.73785
0.12320	-0.84363
0.12320	0.94191
0.07220	0.96742
0.35272	-0.51203
-0.00431	-0.74160
0.17421	-0.58856
0.02119	0.94191
0.07220	1.50308
0.17421	-1.71090
0.12320	-1.17523
0.09770	1.35003
0.37822	-0.15492
0.02119	1.14597
0.22521	0.76336
0.02119	0.63582
0.27621	0.48277
0.30171	0.17668
0.04670	-1.99148
0.09770	1.22250
0.09770	1.37554
0.02119	0.96742
0.09770	1.78367
0.27621	-2.11902
0.19971	0.81437
-0.00431	-0.05289
0.17421	0.30422
-0.00431	0.17668
0.40372	0.96742
0.04670	-0.05289
-0.13181	-0.46102
0.32721	0.58480
0.14870	-0.05289
0.04670	0.22769
0.22521	-0.63957
0.25071	0.58480
0.02119	-0.53754
0.22521	0.40625
0.07220	0.78886
0.09770	0.68683
0.09770	-0.69059
0.04670	-0.02739
0.25071	0.83988
0.12320	0.32972
0.12320	-0.41000
0.27621	0.27871
0.17421	0.04914
0.09770	1.57960
0.17421	0.78886
0.14870	-1.40480
-0.05531	0.20219
0.09770	-1.53234
0.19971	1.22250
0.22521	1.24800
0.19971	-0.02739
0.17421	-0.23145
-0.00431	-0.23145
0.12320	-1.27726
0.30171	-1.55785
0.19971	1.27351
-0.02981	1.45206
0.30171	0.66132
0.22521	1.17148
0.04670	-0.02739
-0.00431	-0.00188
0.19971	0.12566
0.27621	-0.43551
0.12320	-0.20594
0.32721	-0.97117
0.02119	0.43176
0.22521	0.73785
0.07220	0.76336
-0.08081	-1.20074
0.12320	0.25320
0.17421	1.42656
0.35272	0.71234
0.19971	-1.94047
0.14870	0.15117
0.04670	0.61031
0.07220	0.61031
0.25071	0.55929
0.17421	1.01843
0.04670	-0.35899
-0.25932	-0.89465
0.22521	-0.05289
0.22521	1.22250
0.25071	-1.99148
0.27621	1.17148
0.12320	-0.00188
0.12320	0.38074
0.09770	0.71234
0.19971	0.71234
0.19971	0.50828
0.12320	-0.43551
0.14870	0.25320
0.14870	0.22769
0.02119	-0.53754
0.07220	-0.02739
0.19971	-0.66508
0.12320	0.02363
0.35272	1.60511
0.14870	-0.53754
0.07220	-0.07840
-0.00431	-0.10391
0.25071	1.37554
0.04670	-1.86394
0.22521	0.73785
0.12320	-0.07840
0.37822	-0.48652
0.07220	0.50828
0.32721	-0.38449
0.07220	1.09496
0.04670	1.22250
0.09770	-0.46102
0.07220	-0.79262
0.14870	0.43176
0.09770	0.86539
0.12320	0.50828
0.19971	-1.09871
0.19971	-0.15492
0.30171	0.30422
0.12320	0.25320
0.14870	0.15117
0.07220	0.68683
0.09770	0.71234
-0.02981	0.22769
0.32721	-0.63957
0.22521	-1.32828
0.12320	0.94191
0.07220	1.12046
0.04670	0.86539
0.02119	0.45726
0.30171	-0.12942
0.19971	-0.53754
0.09770	0.15117
0.14870	1.17148
0.22521	0.35523
0.17421	0.78886
0.14870	-1.07320
0.09770	0.32972
0.27621	0.12566
0.09770	-0.07840
0.22521	0.55929
0.04670	0.40625
0.19971	0.10015
0.14870	-0.00188
0.19971	0.25320
0.09770	0.12566
0.02119	-1.35379
0.37822	0.94191
0.22521	0.25320
0.12320	-0.81812
0.04670	1.12046
0.04670	0.76336
0.14870	0.53379
0.17421	0.25320
0.19971	-1.25176
0.02119	1.12046
0.17421	0.40625
0.09770	-0.05289
0.32721	1.88570
-0.02981	-1.99148
-0.15732	-0.02739
0.17421	1.01843
0.30171	0.30422
0.32721	0.20219
0.12320	-0.18043
0.25071	-0.25695
0.19971	0.61031
0.04670	0.86539
0.12320	-1.53234
0.12320	-0.05289
0.17421	0.20219
0.04670	0.76336
0.27621	0.15117
0.17421	0.48277
0.22521	1.83468
0.09770	0.04914
0.19971	-0.38449
0.07220	-1.37929
0.12320	0.78886
0.09770	-0.48652
0.17421	0.53379
0.07220	-0.69059
0.22521	1.06945
0.19971	0.04914
0.12320	0.35523
0.09770	-0.15492
0.27621	0.48277
0.09770	0.45726
0.14870	-0.99668
0.27621	0.35523
0.14870	-0.25695
0.22521	0.71234
0.09770	0.45726
0.22521	0.91640
0.12320	-0.81812
0.04670	-0.18043
0.22521	-0.46102
-0.05531	1.27351
0.12320	0.27871
0.19971	0.20219
0.19971	-0.86914
0.09770	0.61031
0.30171	0.94191
0.37822	-0.35899
0.02119	0.15117
0.12320	-0.86914
-0.05531	0.15117
0.22521	0.30422
0.22521	0.45726
0.14870	0.89089
0.17421	-0.18043
0.09770	0.04914
0.02119	0.12566
0.09770	-0.76711
0.25071	1.06945
0.45472	0.38074
-0.02981	-1.12422
-0.05531	-0.58856
0.14870	2.06425
0.12320	-0.48652
0.14870	-0.28246
0.19971	0.91640
0.12320	1.27351
0.19971	-0.18043
0.22521	0.32972
0.07220	0.10015
0.17421	0.38074
0.07220	-0.28246
0.19971	-0.48652
0.09770	0.10015
0.17421	0.63582
0.17421	0.38074
-0.00431	-1.73640
0.12320	0.38074
-0.05531	0.81437
0.27621	0.66132
0.27621	-0.61406
0.22521	-0.48652
0.09770	0.20219
0.09770	0.86539
0.14870	-0.23145
0.17421	0.83988
0.32721	0.76336
0.17421	0.50828
0.02119	0.43176
0.09770	-0.18043
-0.00431	-0.12942
0.35272	0.15117
0.09770	-0.71609
0.09770	0.76336
0.12320	-0.05289
0.27621	0.30422
0.14870	-0.00188
0.17421	0.30422
0.09770	-0.38449
0.14870	0.48277
0.07220	-0.76711
0.17421	0.76336
0.12320	1.88570
0.22521	-0.12942
0.25071	-1.63437
0.17421	-0.66508
0.12320	1.88570
0.09770	-0.51203
0.09770	0.43176
0.09770	-0.58856
0.17421	-0.05289
0.17421	0.04914
-0.00431	0.53379
0.17421	0.71234
0.22521	-0.92016
0.14870	0.50828
0.09770	-0.10391
0.19971	0.66132
0.09770	0.17668
0.22521	0.45726
0.12320	0.32972
0.17421	0.53379
0.02119	-1.86394
0.17421	-0.61406
0.09770	0.45726
0.19971	0.63582
0.17421	1.40105
0.19971	-0.41000
0.14870	0.55929
0.12320	0.27871
0.22521	0.55929
0.14870	-0.69059
0.25071	0.25320
0.09770	0.53379
0.07220	0.02363
0.09770	-0.15492
0.19971	0.20219
0.12320	0.40625
0.12320	-1.65988
0.02119	0.73785
0.14870	0.27871
0.30171	0.25320
0.27621	0.04914
0.14870	0.58480
0.07220	-0.12942
0.22521	0.71234
0.02119	0.86539
0.07220	0.43176
0.27621	-0.79262
0.17421	-0.41000
-0.00431	-0.00188
0.17421	1.04394
0.19971	-0.48652
0.07220	0.07465
0.19971	1.17148
0.17421	1.14597
0.22521	-0.58856
0.14870	-0.63957
-0.08081	-1.25176
0.25071	1.57960
0.22521	0.50828
0.09770	0.25320
0.09770	0.20219
0.17421	0.22769
0.12320	0.76336
0.09770	-0.74160
0.22521	-0.05289
0.14870	0.22769
0.19971	0.25320
0.14870	-0.69059
0.22521	-0.84363
0.19971	0.94191
0.09770	0.68683
0.12320	0.61031
0.17421	-0.30797
0.12320	1.27351
-0.15732	-1.09871
0.30171	0.27871
0.27621	0.20219
-0.15732	0.38074
0.14870	0.66132
0.19971	-1.22625
0.19971	0.48277
0.07220	0.27871
0.22521	0.20219
0.19971	0.12566
0.02119	-0.05289
0.14870	0.30422
0.12320	-0.02739
0.32721	0.07465
0.25071	0.89089
0.07220	-0.66508
0.14870	0.38074
0.12320	-0.51203
0.22521	-0.02739
-0.05531	0.91640
0.27621	0.78886
0.12320	-0.12942
0.02119	-0.23145
0.12320	0.20219
0.35272	0.66132
0.12320	-0.02739
0.22521	0.43176
0.04670	-0.23145
0.19971	0.10015
0.12320	0.43176
0.17421	-0.18043
0.17421	0.25320
0.09770	-0.99668
0.19971	0.27871
0.07220	0.63582
0.17421	0.71234
0.02119	-0.00188
0.14870	0.73785
0.19971	0.20219
0.19971	-0.94566
0.07220	-0.69059
0.19971	0.22769
0.04670	1.37554
0.27621	0.66132
0.19971	-0.86914
0.07220	0.58480
0.04670	0.61031
0.09770	0.58480
0.17421	0.30422
0.19971	-0.25695
0.22521	-0.48652
0.17421	-0.53754
0.14870	0.40625
0.09770	0.04914
-0.00431	-0.35899
0.25071	0.35523
0.12320	1.22250
0.32721	-1.20074
0.19971	0.10015
-0.05531	0.96742
0.09770	-0.05289
0.27621	-0.48652
0.17421	0.99292
0.22521	0.96742
0.04670	-0.46102
0.17421	-1.65988
0.14870	0.66132
0.17421	0.96742
-0.00431	0.61031
0.17421	0.02363
0.14870	-0.33348
0.22521	0.55929
0.02119	-0.25695
0.30171	0.48277
0.22521	-0.25695
0.09770	0.50828
0.09770	0.15117
0.25071	0.45726
0.12320	0.45726
0.27621	-0.43551
-0.08081	-0.33348
0.19971	-1.25176
0.09770	0.25320
0.27621	1.17148
0.07220	0.73785
0.25071	0.55929
0.09770	1.12046
0.02119	-0.35899
0.12320	-0.25695
0.07220	0.30422
0.32721	-0.97117
0.12320	-1.27726
0.22521	0.96742
0.07220	0.61031
0.19971	0.83988
0.07220	0.99292
0.12320	0.25320
0.09770	-0.58856
-0.00431	-0.15492
0.09770	-0.28246
0.12320	0.15117
0.48022	0.17668
0.04670	0.22769
0.09770	0.32972
0.17421	0.58480
0.07220	-0.02739
-0.08081	-0.38449
0.19971	0.73785
0.19971	-0.74160
0.09770	0.81437
0.12320	0.38074
0.32721	-0.02739
0.12320	-0.89465
0.12320	1.52859
0.12320	-0.92016
0.09770	0.71234
0.17421	0.35523
0.14870	0.38074
0.14870	0.40625
0.12320	-0.05289
0.04670	-0.63957
0.22521	-0.74160
0.12320	0.61031
0.12320	0.12566
0.25071	0.25320
0.09770	0.45726
0.17421	0.40625
0.27621	0.45726
0.09770	0.35523
0.09770	-0.58856
-0.02981	0.27871
0.32721	0.61031
0.09770	-0.81812
0.27621	-1.76191
-0.13181	0.45726
0.19971	1.17148
0.07220	1.01843
0.12320	0.15117
0.32721	-0.12942
0.09770	0.20219
0.19971	0.30422
0.17421	-0.20594
0.17421	0.20219
0.04670	-0.15492
-0.10631	-0.23145
0.32721	-0.00188
0.27621	0.25320
0.09770	-0.63957
0.22521	1.19699
-0.05531	0.22769
0.07220	0.17668
0.32721	0.55929
0.12320	0.32972
0.27621	-0.12942
-0.00431	0.22769
0.25071	0.63582
0.12320	0.17668
-0.00431	0.10015
0.25071	-1.53234
0.04670	0.63582
0.25071	-0.56305
0.12320	-0.05289
0.19971	1.35003
0.02119	0.73785
0.07220	-0.15492
0.22521	0.55929
0.19971	0.76336
-0.08081	-0.02739
0.22521	-0.05289
0.25071	-1.07320
0.14870	0.45726
0.07220	0.35523
0.07220	-1.12422
0.12320	0.61031
0.22521	0.78886
0.17421	1.09496
0.22521	0.25320
0.07220	0.04914
0.02119	-0.41000
0.30171	0.30422
0.07220	-0.43551
0.19971	0.50828
0.17421	0.71234
0.07220	0.25320
0.07220	0.20219
0.07220	-1.50683
0.12320	0.53379
0.02119	0.35523
0.19971	0.71234
0.17421	-0.86914
0.42922	0.63582
0.12320	0.94191
0.04670	-0.25695
0.09770	0.55929
0.09770	0.30422
0.09770	-0.66508
0.22521	-0.35899
0.12320	0.35523
0.07220	0.43176
0.17421	0.45726
0.14870	-1.02219
0.30171	0.04914
0.02119	1.47757
0.07220	0.63582
0.22521	0.45726
0.12320	-0.35899
0.30171	0.15117
0.12320	0.32972
0.17421	0.12566
0.17421	-0.46102
0.09770	0.43176
0.17421	-0.94566
0.02119	0.40625
0.30171	0.50828
0.25071	0.68683
0.09770	-0.61406
0.17421	0.32972
0.14870	0.96742
0.19971	-0.58856
0.02119	-0.56305
0.17421	-0.20594
-0.02981	-0.02739
0.22521	1.35003
0.30171	1.06945
0.12320	0.38074
0.07220	-0.02739
0.30171	0.32972
0.07220	-0.05289
0.14870	-0.12942
0.12320	-0.07840
0.04670	-0.05289
0.19971	-0.18043
0.19971	-0.00188
0.12320	0.20219
0.25071	0.20219
0.30171	0.12566
-0.05531	0.15117
0.12320	0.38074
0.12320	0.27871
0.17421	-0.30797
0.22521	-0.20594
0.27621	0.76336
0.09770	0.07465
0.12320	0.45726
-0.00431	0.10015
0.07220	0.73785
0.27621	-0.76711
0.14870	0.91640
0.07220	-1.07320
0.22521	0.50828
0.12320	0.35523
0.07220	-0.25695
0.12320	-0.20594
0.19971	0.55929
0.09770	0.68683
0.25071	-0.30797
0.22521	0.04914
0.22521	0.45726
0.12320	0.43176
0.04670	0.22769
0.25071	-0.15492
0.07220	0.63582
0.09770	0.38074
0.17421	0.07465
0.12320	-1.22625
0.22521	0.91640
0.17421	0.58480
0.14870	0.02363
0.17421	0.27871
0.14870	-0.69059
0.19971	0.38074
0.12320	0.99292
0.19971	-0.25695
0.22521	0.53379
0.09770	-0.35899
0.07220	0.04914
0.22521	0.76336
0.02119	0.32972
0.12320	-0.56305
0.22521	0.40625
0.07220	0.58480
-0.05531	-0.18043
0.35272	-0.33348
-0.00431	0.45726
0.27621	1.22250
0.17421	-0.30797
0.22521	-0.76711
0.02119	0.20219
0.14870	0.38074
0.40372	0.32972
0.07220	-1.63437
0.19971	0.83988
0.27621	0.30422
-0.00431	0.81437
0.07220	1.29902
0.07220	-0.97117
0.12320	0.81437
0.32721	0.63582
0.02119	-0.66508
0.27621	0.30422
0.35272	0.25320
0.02119	0.17668
0.19971	0.17668
0.07220	-0.25695
0.12320	0.83988
0.22521	0.25320
-0.05531	-0.05289
0.17421	-0.15492
0.25071	0.15117
0.09770	0.73785
0.09770	0.32972
0.17421	-0.92016
0.19971	-1.25176
0.17421	-0.18043
0.27621	1.12046
0.12320	1.04394
-0.00431	1.27351
0.14870	0.15117
0.17421	0.20219
0.22521	-0.10391
0.07220	0.63582
0.19971	-0.18043
0.12320	-0.02739
0.12320	0.02363
0.30171	-0.18043
0.04670	0.38074
0.07220	0.22769
0.04670	0.25320
0.27621	-0.61406
0.12320	0.27871
0.32721	0.04914
0.17421	0.10015
0.14870	0.20219
0.02119	-0.10391
-0.00431	0.96742
0.27621	0.30422
0.17421	-0.43551
0.19971	-0.30797
0.19971	0.71234
0.27621	0.38074
-0.08081	0.45726
-0.08081	0.45726
0.19971	0.81437
0.19971	0.02363
0.35272	-0.56305
0.27621	-0.48652
-0.00431	-0.07840
0.14870	0.89089
0.27621	0.04914
0.09770	0.17668
0.12320	0.61031
0.32721	-0.28246
0.07220	-0.76711
0.12320	0.30422
0.19971	0.30422
0.19971	0.68683
-0.05531	-1.32828
0.19971	0.63582
0.17421	0.07465
0.30171	0.78886
0.12320	0.43176
0.09770	0.30422
0.07220	-1.91496
0.02119	0.76336
0.12320	0.02363
0.19971	0.68683
0.19971	0.76336
0.22521	0.94191
0.22521	-0.41000
0.14870	0.66132
0.12320	0.12566
0.12320	-0.38449
0.17421	-0.66508
0.07220	-0.41000
0.17421	-0.00188
0.04670	0.73785
0.42922	-0.10391
0.12320	0.02363
0.12320	0.20219
0.07220	0.45726
0.14870	0.27871
0.17421	0.27871
0.12320	0.07465
0.27621	0.40625
0.07220	-0.28246
0.19971	0.20219
0.19971	-0.12942
0.07220	0.17668
0.02119	0.15117
0.22521	-0.41000
0.14870	0.32972
0.17421	1.32453
0.09770	-0.05289
0.12320	-0.46102
0.27621	0.35523
0.12320	0.38074
-0.02981	0.53379
0.14870	0.12566
0.22521	-1.30277
0.25071	0.22769
0.30171	0.50828
-0.02981	-0.25695
0.12320	0.15117
0.12320	0.30422
0.09770	-0.12942
0.17421	0.48277
0.12320	0.35523
-0.02981	-0.71609
0.27621	1.01843
0.12320	-0.63957
0.19971	0.66132
0.22521	0.04914
0.22521	0.20219
-0.08081	-0.00188
-0.00431	0.53379
0.17421	-0.46102
0.17421	-0.12942
0.14870	-0.66508
0.35272	0.73785
0.09770	0.38074
0.12320	0.61031
0.14870	0.32972
0.12320	-1.37929
0.09770	-0.74160
0.09770	0.99292
0.07220	0.27871
0.27621	0.58480
0.14870	0.61031
0.09770	-0.66508
0.22521	0.53379
0.09770	0.45726
0.14870	0.22769
0.12320	-0.07840
0.04670	-0.43551
0.14870	0.38074
0.12320	0.35523
0.12320	0.43176
0.25071	-0.33348
0.12320	-0.02739
0.22521	0.35523
0.14870	0.73785
0.09770	-0.15492
0.32721	0.40625
0.09770	0.27871
-0.00431	0.22769
0.35272	-0.12942
0.09770	0.02363
0.17421	0.45726
-0.05531	-0.23145
0.25071	-0.51203
0.37822	-0.41000
0.22521	-0.20594
0.12320	0.68683
0.12320	0.20219
0.02119	-0.10391
0.09770	0.73785
0.12320	0.94191
0.35272	0.63582
0.04670	-0.23145
0.07220	-0.66508
0.17421	-0.38449
0.07220	0.91640
0.22521	-0.61406
0.12320	0.30422
0.14870	0.66132
0.14870	0.53379
0.30171	0.83988
0.09770	-0.97117
0.17421	0.27871
0.27621	0.10015
0.07220	-0.02739
0.12320	0.38074
0.02119	0.61031
-0.02981	0.45726
0.19971	-0.63957
0.17421	-0.20594
0.22521	0.89089
0.02119	0.17668
0.17421	0.17668
0.22521	0.25320
0.12320	0.27871
0.19971	-1.78742
0.02119	0.25320
0.12320	1.24800
0.17421	0.40625
0.25071	0.27871
0.09770	0.45726
0.14870	-0.18043
0.22521	0.30422
0.04670	0.32972
-0.00431	0.04914
0.14870	-2.55265
0.22521	1.01843
0.25071	0.78886
0.14870	-0.48652
0.17421	0.76336
0.17421	0.32972
0.14870	0.30422
0.22521	-0.07840
0.09770	0.48277
0.12320	0.25320
0.12320	-0.43551
0.07220	-0.02739
0.19971	0.66132
0.32721	-1.68539
0.12320	0.53379
0.19971	0.96742
0.25071	0.68683
0.09770	0.32972
0.14870	0.45726
-0.02981	0.17668
0.25071	0.32972
0.07220	-0.18043
-0.00431	0.17668
0.32721	0.17668
0.19971	0.38074
0.30171	-0.25695
0.09770	0.45726
0.07220	-0.25695
0.09770	0.30422
0.30171	-0.46102
-0.02981	0.96742
0.02119	-0.23145
0.12320	0.22769
0.27621	0.55929
0.25071	0.10015
0.22521	0.48277
-0.05531	0.15117
0.09770	-0.07840
0.09770	0.17668
0.30171	0.32972
0.14870	0.53379
0.14870	-0.30797
0.02119	-1.30277
0.19971	-0.48652
0.07220	1.42656
0.14870	0.76336
0.19971	0.25320
0.17421	-0.20594
0.14870	0.86539
0.14870	-0.15492
0.02119	0.86539
0.12320	-0.10391
0.19971	0.55929
0.17421	-0.18043
0.12320	-0.25695
0.25071	0.43176
0.04670	0.30422
0.25071	-0.58856
0.17421	0.15117
0.07220	0.63582
0.02119	0.73785
0.14870	0.32972
0.42922	-1.91496
0.14870	1.14597
-0.02981	0.53379
0.17421	-0.02739
0.12320	0.12566
0.32721	0.48277
0.09770	0.38074
0.30171	0.40625
0.07220	0.15117
0.17421	0.17668
0.09770	-0.43551
0.02119	0.35523
-0.02981	-0.61406
0.07220	0.45726
0.30171	0.55929
0.50573	0.55929
0.04670	-0.05289
0.12320	0.04914
0.04670	0.02363
0.32721	0.45726
0.12320	0.22769
0.12320	0.48277
0.02119	0.68683
0.22521	-0.61406
0.17421	0.22769
0.14870	-0.00188
-0.13181	0.50828
0.30171	0.35523
0.17421	-0.79262
0.25071	0.66132
0.17421	0.32972
0.02119	0.43176
0.12320	-1.48133
0.07220	0.61031
0.17421	1.06945
0.17421	-0.05289
0.22521	-0.86914
0.19971	-0.10391
0.22521	0.78886
0.02119	0.22769
0.22521	0.25320
0.07220	0.17668
0.12320	-0.18043
0.12320	0.35523
0.25071	0.40625
0.09770	-0.25695
0.19971	0.02363
0.04670	-0.71609
0.12320	0.96742
0.09770	0.15117
0.25071	-0.48652
0.02119	0.61031
0.32721	-0.71609
0.22521	0.61031
0.04670	0.58480
0.14870	0.07465
0.02119	0.17668
0.12320	0.43176
0.09770	-0.69059
0.09770	0.86539
0.35272	-0.41000
0.17421	-0.33348
0.12320	-0.05289
0.17421	0.76336
-0.05531	1.01843
0.17421	0.17668
0.22521	-0.38449
0.19971	-0.51203
0.07220	0.40625
0.12320	0.12566
0.27621	0.63582
0.27621	0.86539
-0.00431	-0.25695
0.02119	0.12566
0.32721	-0.07840
0.14870	0.10015
0.04670	0.30422
0.09770	0.38074
0.04670	0.27871
0.30171	-0.00188
0.12320	0.15117
0.14870	0.63582
0.14870	-0.92016
0.19971	-0.51203
0.12320	0.68683
0.14870	0.50828
0.17421	0.30422
0.14870	0.76336
0.17421	0.04914
-0.00431	0.27871
0.19971	0.15117
0.17421	0.17668
0.22521	0.12566
0.09770	-0.33348
0.12320	0.48277
0.12320	0.25320
0.19971	0.04914
0.19971	-0.02739
0.02119	0.32972
0.07220	0.48277
0.14870	-0.81812
0.30171	1.09496
0.14870	-0.86914
0.22521	0.50828
0.09770	0.27871
0.32721	0.15117
0.07220	0.07465
0.14870	0.58480
0.12320	0.27871
0.12320	0.17668
0.12320	-0.38449
0.09770	0.20219
0.14870	0.76336
0.12320	0.12566
0.30171	0.04914
-0.08081	-0.48652
0.19971	0.43176
0.35272	-0.15492
-0.00431	0.20219
0.22521	0.07465
0.14870	0.66132
0.09770	0.71234
0.17421	-0.00188
0.25071	-0.58856
0.14870	2.11527
0.27621	-1.12422
0.17421	0.12566
0.09770	0.38074
0.07220	0.45726
0.09770	0.25320
0.27621	0.12566
0.12320	0.20219
0.22521	-0.18043
0.12320	0.40625
0.14870	0.30422
0.07220	0.10015
0.14870	-0.12942
0.14870	0.50828
0.12320	0.32972
0.17421	-0.00188
0.09770	-0.00188
0.17421	0.50828
0.07220	-0.35899
0.14870	0.40625
0.09770	0.55929
0.27621	0.35523
0.12320	0.53379
0.17421	0.38074
0.14870	0.17668
0.25071	0.12566
0.04670	-1.25176
0.14870	0.48277
0.09770	-0.00188
0.17421	0.35523
0.12320	0.58480
-0.10631	0.30422
0.30171	-0.35899
0.14870	0.40625
0.09770	-0.18043
0.27621	0.07465
0.27621	0.10015
0.12320	-0.05289
-0.00431	0.71234
0.17421	0.04914
-0.00431	-0.30797
0.19971	0.35523
0.25071	0.02363
0.19971	0.78886
0.09770	0.25320
0.19971	0.17668
0.19971	-0.61406
0.14870	0.27871
0.12320	0.45726
0.14870	0.02363
-0.08081	0.53379
0.17421	-0.56305
0.22521	0.96742
0.09770	-0.41000
0.09770	0.32972
0.09770	0.50828
0.32721	0.71234
0.17421	0.27871
0.19971	0.76336
0.09770	-0.35899
0.07220	-0.66508
0.09770	0.20219
0.17421	0.40625
0.25071	0.07465
0.07220	-0.02739
0.07220	0.22769
0.19971	-0.05289
0.22521	0.04914
0.07220	0.53379
0.02119	-0.66508
0.22521	-0.00188
0.07220	-0.86914
0.22521	1.09496
0.14870	0.48277
0.12320	1.19699
0.14870	0.25320
0.17421	0.30422
0.25071	-0.23145
0.07220	-0.81812
0.14870	1.19699
0.07220	0.17668
0.17421	0.38074
0.17421	0.25320
0.12320	-0.07840
0.17421	-0.10391
0.14870	-0.10391
0.22521	-0.58856
0.04670	0.48277
0.22521	0.91640
0.02119	0.27871
0.12320	0.15117
0.22521	0.30422
0.22521	-0.00188
0.07220	-0.05289
0.02119	-0.89465
0.17421	0.55929
0.17421	0.45726
0.30171	0.12566
0.09770	-0.10391
0.09770	0.45726
0.22521	0.10015
0.22521	0.68683
-0.02981	0.25320
0.17421	0.17668
0.22521	-0.97117
0.09770	-0.58856
0.19971	0.02363
0.14870	0.94191
0.19971	0.40625
0.12320	0.50828
0.12320	0.20219
0.14870	0.32972
0.17421	-0.46102
0.14870	0.30422
0.17421	0.35523
0.14870	0.25320
0.17421	-0.66508
0.19971	-0.51203
0.12320	-0.15492
0.19971	0.91640
0.04670	0.53379
0.12320	0.38074
0.17421	0.02363
0.12320	0.30422
0.14870	0.53379
0.07220	0.58480
0.27621	-0.30797
0.07220	-0.25695
0.17421	0.38074
0.17421	-0.79262
0.19971	0.71234
0.30171	-0.00188
-0.05531	0.40625
0.12320	0.96742
0.19971	0.30422
-0.05531	0.38074
0.22521	0.43176
0.12320	-0.89465
0.22521	0.27871
0.02119	-0.41000
0.04670	0.32972
0.25071	0.61031
0.09770	0.32972
0.17421	-0.28246
0.22521	0.04914
0.14870	0.15117
0.14870	-0.00188
0.12320	-0.12942
0.19971	0.73785
0.22521	0.30422
0.17421	0.15117
0.25071	0.04914
0.19971	-0.05289
0.07220	0.17668
0.02119	-0.00188
0.12320	0.12566
0.17421	-0.10391
0.27621	0.25320
0.14870	-0.10391
0.14870	0.89089
0.19971	0.22769
0.12320	0.17668
0.19971	-0.84363
0.22521	0.50828
0.17421	0.78886
0.09770	-0.25695
0.14870	1.47757
0.19971	-0.48652
0.09770	-0.25695
0.14870	-0.15492
0.27621	0.25320
0.09770	-0.15492
0.19971	0.43176
0.32721	0.15117
0.04670	0.48277
0.12320	-0.15492
0.27621	0.10015
0.19971	-0.30797
0.17421	0.55929
0.19971	0.20219
0.12320	0.20219
0.09770	0.25320
0.19971	0.22769
0.09770	-0.18043
-0.02981	0.30422
0.09770	0.17668
0.19971	0.07465
0.14870	0.25320
0.19971	0.02363
0.27621	0.32972
0.17421	0.48277
-0.02981	-1.27726
0.17421	0.38074
0.09770	1.06945
-0.05531	-0.00188
0.30171	0.35523
0.22521	1.04394
0.19971	-0.18043
0.14870	0.35523
0.14870	-3.03730
0.09770	0.55929
0.17421	0.66132
-0.00431	0.91640
0.22521	0.63582
0.09770	0.25320
0.19971	0.22769
0.27621	0.02363
0.07220	-0.05289
0.09770	0.04914
-0.00431	-0.15492
0.09770	0.07465
0.17421	0.25320
0.12320	-0.05289
0.19971	-0.15492
0.17421	0.35523
0.12320	0.38074
0.17421	0.53379
0.14870	0.04914
0.14870	0.12566
0.19971	0.22769
0.07220	0.48277
0.12320	0.81437
0.30171	-0.10391
0.04670	-1.45582
0.19971	0.02363
0.12320	1.14597
0.14870	0.76336
0.04670	0.58480
0.17421	0.17668
0.30171	0.25320
0.09770	-0.35899
0.12320	0.02363
0.14870	-0.07840
0.14870	-0.00188
-0.05531	0.02363
0.04670	0.27871
0.19971	0.48277
0.42922	0.58480
0.09770	0.78886
0.07220	-2.17003
0.07220	0.15117
0.07220	1.29902
0.35272	1.22250
0.17421	0.22769
0.07220	0.40625
0.25071	0.10015
0.14870	-0.02739
0.19971	-0.00188
0.04670	0.30422
0.17421	-0.28246
0.17421	0.22769
0.12320	-0.35899
0.12320	-0.20594
0.12320	0.10015
0.14870	0.25320
0.12320	0.48277
0.14870	0.20219
0.02119	-0.23145
0.17421	0.38074
0.17421	0.20219
0.12320	0.27871
0.14870	-0.53754
0.07220	0.40625
0.27621	0.07465
0.27621	0.55929
0.12320	-0.05289
-0.05531	0.55929
0.02119	0.38074
0.09770	-0.07840
0.12320	-0.25695
0.14870	-0.07840
0.22521	0.94191
0.22521	-1.58336
0.17421	1.17148
0.17421	-0.12942
0.07220	0.12566
0.22521	0.50828
-0.02981	0.55929
0.22521	0.50828
0.14870	0.30422
0.12320	0.63582
0.12320	-0.76711
0.17421	0.40625
0.25071	0.50828
0.02119	-1.25176
0.17421	0.38074
0.04670	-0.46102
0.30171	0.68683
0.19971	0.20219
-0.02981	0.63582
0.19971	-0.63957
0.19971	0.02363
0.19971	0.02363
0.19971	0.55929
0.14870	0.78886
0.12320	0.10015
0.02119	1.04394
0.09770	-1.71090
0.27621	0.66132
0.17421	0.53379
0.19971	0.17668
0.19971	0.40625
0.09770	0.07465
0.14870	0.20219
0.17421	0.25320
0.14870	0.58480
0.27621	0.04914
0.02119	-0.25695
0.07220	-0.30797
-0.02981	0.30422
0.09770	-0.05289
0.30171	0.76336
0.09770	0.76336
0.17421	-0.05289
0.17421	-0.05289
0.14870	-0.00188
0.14870	-0.43551
0.07220	0.71234
0.30171	0.99292
0.07220	-0.05289
0.14870	-0.76711
0.17421	0.71234
0.22521	0.17668
0.09770	0.55929
0.14870	0.04914
0.22521	-0.23145
0.02119	-0.46102
0.22521	-0.02739
0.02119	0.38074
0.04670	0.40625
0.19971	0.30422
0.17421	0.22769
0.30171	-0.12942
0.02119	0.22769
0.14870	0.55929
0.22521	-0.86914
-0.00431	-0.25695
0.14870	0.94191
0.25071	0.58480
0.19971	-1.48133
0.07220	1.14597
0.07220	0.10015
0.19971	0.89089
0.12320	-0.35899
0.22521	-0.25695
0.17421	0.73785
0.12320	0.15117
0.25071	0.04914
0.09770	-0.41000
0.04670	-0.05289
-0.00431	0.73785
0.19971	-0.02739
0.25071	0.30422
0.07220	0.04914
0.22521	0.07465
0.14870	0.10015
0.14870	0.07465
0.17421	-0.05289
0.14870	0.04914
0.04670	0.38074
0.30171	-0.10391
0.25071	-0.00188
0.09770	0.27871
0.22521	1.06945
0.19971	0.38074
0.12320	0.32972
0.12320	-0.94566
0.09770	0.25320
0.19971	-0.23145
0.14870	0.83988
0.04670	0.78886
0.09770	-0.66508
0.19971	0.22769
0.32721	0.30422
-0.00431	0.04914
0.22521	0.27871
0.12320	-0.15492
0.22521	0.27871
0.09770	-1.25176
0.12320	0.66132
0.30171	0.91640
-0.02981	0.25320
0.14870	0.32972
0.27621	0.15117
0.17421	0.50828
0.14870	-0.33348
0.17421	0.86539
0.19971	-0.25695
0.07220	0.43176
0.22521	0.71234
0.07220	-0.33348
0.25071	0.78886
0.09770	-0.00188
0.19971	-0.00188
0.02119	-1.12422
0.22521	0.04914
0.09770	0.17668
0.12320	0.45726
0.17421	0.68683
0.30171	0.71234
0.12320	-0.20594
0.25071	0.35523
0.04670	0.32972
0.17421	0.20219
0.07220	-0.18043
0.30171	0.12566
0.07220	0.30422
0.02119	-0.10391
0.14870	-0.12942
0.17421	-0.25695
0.19971	0.43176
-0.00431	0.76336
0.19971	0.58480
0.04670	-0.35899
0.27621	0.25320
0.19971	0.07465
0.17421	0.66132
0.12320	0.15117
0.19971	-0.43551
0.14870	0.35523
0.25071	0.17668
0.09770	-0.33348
-0.02981	-0.76711
0.19971	0.48277
0.17421	0.45726
0.09770	0.27871
0.14870	-1.02219
0.07220	0.91640
0.25071	1.24800
0.02119	0.22769
0.14870	0.30422
0.02119	0.25320
0.25071	0.58480
0.17421	-0.79262
0.27621	0.32972
0.09770	0.50828
0.22521	-2.19554
0.14870	-0.02739
0.12320	1.12046
0.14870	0.89089
0.22521	-0.18043
0.19971	0.55929
0.12320	0.45726
0.02119	0.61031
0.12320	-1.94047
0.19971	0.35523
-0.00431	0.83988
0.14870	0.38074
0.12320	0.15117
0.22521	-0.43551
0.22521	0.38074
0.17421	-0.30797
0.22521	0.45726
0.07220	0.32972
0.07220	0.17668
0.07220	0.35523
0.22521	0.45726
0.04670	0.12566
0.19971	-0.43551
0.09770	-0.15492
0.17421	-0.35899
0.22521	0.81437
0.02119	0.55929
0.12320	0.20219
0.22521	-0.23145
0.12320	0.40625
0.14870	0.22769
0.27621	0.30422
0.17421	0.32972
0.12320	0.27871
0.22521	0.27871
0.02119	-0.00188
0.07220	0.04914
0.07220	-0.15492
0.17421	0.12566
0.14870	-0.38449
0.14870	-0.28246
0.14870	0.76336
0.07220	0.81437
0.14870	-0.35899
0.22521	-0.20594
0.25071	0.45726
0.04670	0.35523
0.17421	0.17668
0.04670	0.04914
0.07220	0.27871
0.12320	-0.23145
0.12320	0.02363
0.25071	0.27871
0.12320	-0.00188
0.17421	-0.76711
0.09770	0.55929
0.17421	0.43176
0.22521	0.50828
0.04670	0.50828
0.07220	-0.15492
0.22521	-0.61406
0.17421	0.58480
0.37822	0.48277
0.07220	0.91640
0.17421	-0.02739
0.17421	-0.76711
0.02119	0.63582
0.07220	0.48277
0.12320	0.30422
0.14870	0.17668
0.17421	-0.69059
-0.00431	-0.00188
0.14870	0.43176
0.25071	0.58480
0.19971	-0.53754
0.07220	0.10015
0.17421	0.61031
0.25071	0.48277
0.14870	-0.35899
0.02119	-0.41000
0.32721	0.32972
0.22521	1.01843
0.04670	0.43176
0.12320	0.10015
0.19971	-1.09871
0.14870	0.17668
0.12320	1.04394
0.17421	0.20219
0.14870	0.66132
-0.02981	0.78886
0.19971	-0.43551
0.22521	-0.25695
0.09770	0.40625
0.17421	0.27871
0.14870	-0.79262
0.09770	0.30422
0.17421	-0.10391
0.19971	0.91640
-0.08081	-0.41000
