0.12320	0.27871
0.19971	0.38074
0.27621	0.38074
0.07220	-0.07840
0.14870	-0.12942
0.12320	-0.23145
0.02119	0.17668
0.12320	-0.38449
0.17421	0.63582
0.12320	0.55929
0.32721	0.81437
0.22521	-0.07840
0.19971	-0.00188
0.17421	-0.20594
0.04670	-0.05289
0.07220	0.55929
0.04670	0.22769
0.07220	0.17668
0.07220	0.15117
0.17421	-0.15492
0.27621	-0.02739
0.14870	-0.02739
0.22521	0.10015
0.25071	0.20219
0.07220	0.17668
0.12320	-0.86914
0.12320	0.50828
0.04670	0.48277
0.19971	0.45726
0.27621	0.38074
0.22521	0.17668
0.22521	0.58480
0.25071	0.10015
0.17421	-0.02739
0.07220	-0.66508
0.09770	0.07465
0.09770	0.48277
0.02119	0.61031
0.19971	0.22769
0.17421	0.22769
0.19971	0.17668
0.25071	0.10015
0.17421	-0.35899
0.07220	-0.00188
0.17421	0.15117
0.12320	-0.86914
0.09770	0.81437
0.22521	0.58480
0.09770	0.68683
0.19971	0.35523
0.22521	0.20219
0.09770	-0.30797
0.25071	-0.05289
0.30171	0.38074
0.12320	0.32972
0.04670	-0.00188
0.14870	0.20219
-0.00431	0.32972
0.14870	0.10015
0.22521	0.07465
0.22521	0.17668
0.12320	0.22769
0.25071	0.07465
0.12320	0.07465
-0.05531	0.25320
0.32721	-0.07840
0.27621	0.20219
0.07220	0.15117
0.12320	0.15117
0.12320	-0.12942
0.17421	1.24800
0.27621	-1.07320
0.09770	-0.53754
0.12320	0.66132
0.17421	0.76336
0.09770	0.71234
0.02119	0.02363
0.17421	0.61031
0.14870	0.40625
0.12320	0.15117
0.27621	-0.51203
0.22521	0.02363
0.22521	0.07465
0.14870	0.10015
0.04670	0.20219
0.12320	0.07465
-0.00431	-0.00188
0.09770	0.07465
0.12320	0.02363
0.19971	0.17668
0.25071	0.45726
0.14870	0.04914
0.22521	0.38074
0.17421	-0.20594
0.07220	0.25320
0.12320	-0.02739
0.09770	0.07465
0.04670	0.45726
0.17421	0.30422
0.09770	0.27871
0.32721	0.38074
0.40372	0.35523
0.35272	-0.46102
0.07220	-0.02739
-0.00431	0.61031
-0.08081	0.04914
0.02119	-0.05289
0.07220	0.66132
0.14870	-2.42511
0.14870	0.55929
0.12320	0.99292
0.32721	-0.02739
0.17421	0.71234
0.27621	0.45726
0.07220	0.66132
0.14870	-0.23145
0.02119	0.25320
0.17421	0.12566
0.09770	0.04914
0.19971	-0.25695
0.17421	-0.33348
0.19971	0.15117
0.19971	0.15117
0.14870	0.07465
0.09770	0.15117
0.09770	0.25320
0.09770	0.02363
0.09770	0.63582
0.14870	-0.05289
0.25071	1.19699
0.12320	-0.46102
0.22521	-0.20594
0.22521	0.43176
0.19971	0.48277
0.14870	-1.02219
0.09770	0.35523
0.04670	0.35523
0.04670	0.38074
0.09770	0.35523
0.27621	0.25320
0.22521	0.10015
0.22521	0.15117
0.25071	0.15117
0.17421	0.15117
0.22521	-0.02739
0.02119	-0.05289
0.14870	0.22769
0.09770	0.20219
0.14870	0.30422
0.09770	0.10015
0.12320	0.35523
0.22521	-0.25695
0.25071	-0.02739
0.22521	0.66132
0.07220	-0.35899
0.07220	0.10015
0.04670	0.45726
0.04670	0.40625
0.12320	0.32972
0.19971	0.22769
0.22521	0.15117
0.22521	0.02363
0.22521	0.02363
0.17421	0.20219
0.14870	-0.10391
0.07220	0.15117
0.12320	0.45726
-0.00431	0.25320
0.19971	-0.63957
0.14870	0.96742
0.22521	-0.99668
0.27621	-0.48652
0.19971	0.76336
0.14870	0.76336
0.17421	0.76336
0.02119	0.32972
0.12320	0.27871
0.12320	0.12566
0.07220	0.25320
0.22521	0.10015
0.14870	-0.35899
0.22521	-0.79262
0.25071	0.25320
0.09770	0.66132
0.09770	0.15117
0.07220	0.12566
-0.02981	0.38074
0.12320	0.30422
0.04670	0.20219
0.22521	0.30422
0.22521	0.10015
0.22521	0.04914
0.22521	-0.05289
0.09770	-0.07840
0.14870	0.15117
0.14870	0.12566
0.07220	0.27871
0.09770	0.25320
0.22521	-0.18043
0.07220	0.55929
0.14870	0.20219
0.25071	0.58480
0.14870	0.07465
0.09770	-0.20594
0.02119	0.04914
0.07220	0.32972
0.07220	0.02363
0.09770	0.38074
0.22521	-0.10391
0.22521	-0.00188
0.27621	0.07465
0.19971	0.20219
0.27621	0.17668
0.17421	-0.10391
0.07220	0.27871
0.07220	0.17668
-0.00431	0.48277
0.07220	-0.25695
0.17421	0.76336
0.07220	-0.23145
0.22521	-0.46102
0.27621	-0.05289
0.22521	0.66132
0.12320	0.76336
0.25071	0.48277
0.02119	-0.86914
0.02119	0.55929
0.22521	0.20219
0.17421	-0.02739
0.09770	-0.05289
0.14870	0.15117
0.27621	-0.35899
0.14870	-0.05289
0.25071	0.35523
0.07220	0.35523
0.12320	0.53379
0.12320	0.15117
0.04670	-0.25695
0.12320	1.14597
0.12320	-0.51203
0.30171	-0.38449
0.12320	-0.69059
0.12320	1.01843
0.14870	0.73785
0.09770	0.71234
0.12320	0.38074
0.02119	0.25320
0.27621	-0.30797
0.04670	0.20219
0.22521	-0.10391
0.30171	-0.28246
0.19971	0.35523
0.19971	0.25320
0.14870	0.15117
0.09770	0.22769
0.09770	0.02363
0.07220	0.07465
0.14870	0.15117
0.09770	0.22769
0.25071	0.17668
0.27621	0.15117
0.12320	0.71234
0.27621	-0.20594
0.14870	0.22769
0.07220	-0.92016
0.07220	0.76336
0.12320	0.71234
0.07220	-0.10391
0.19971	-0.12942
0.19971	0.43176
0.14870	-0.10391
0.25071	-0.28246
0.25071	1.35003
0.19971	-0.48652
0.22521	-0.12942
0.04670	0.20219
0.04670	0.15117
0.12320	0.40625
0.09770	0.15117
0.17421	0.15117
0.27621	-0.02739
0.27621	-0.05289
0.14870	0.71234
0.12320	0.43176
0.07220	-0.12942
-0.02981	0.04914
0.12320	0.40625
0.17421	-0.69059
0.09770	0.10015
0.22521	-0.48652
0.22521	-0.74160
0.12320	0.48277
0.22521	0.76336
0.19971	1.01843
-0.02981	0.71234
0.04670	0.58480
0.17421	0.15117
0.09770	0.07465
-0.05531	-0.05289
0.27621	-0.25695
0.30171	-0.15492
0.27621	-0.81812
0.30171	0.12566
0.04670	0.30422
0.19971	1.06945
0.07220	0.38074
0.04670	0.25320
0.14870	-1.91496
0.14870	0.55929
0.17421	0.66132
0.40372	0.15117
0.17421	-0.12942
0.14870	0.78886
0.04670	-0.05289
-0.08081	0.63582
0.09770	-1.45582
0.12320	-0.53754
0.12320	1.45206
0.22521	0.76336
0.12320	0.58480
0.30171	0.50828
0.22521	0.12566
0.22521	0.10015
0.19971	-0.05289
0.09770	-0.12942
0.09770	-0.10391
0.14870	-0.07840
0.07220	-0.15492
0.17421	0.12566
0.09770	0.04914
0.22521	0.12566
0.17421	0.17668
0.30171	0.12566
0.04670	0.30422
0.07220	0.15117
-0.08081	0.32972
0.32721	0.30422
0.17421	0.55929
0.30171	0.12566
0.14870	-0.51203
0.19971	-0.63957
-0.02981	0.48277
0.12320	0.63582
0.12320	0.63582
0.02119	0.30422
0.09770	-0.07840
0.35272	1.24800
0.22521	-1.14973
0.12320	-0.43551
0.17421	-0.02739
0.22521	0.35523
0.09770	0.81437
0.19971	-0.05289
0.04670	0.07465
0.17421	-0.12942
0.02119	0.68683
0.12320	-0.23145
0.30171	-0.05289
0.40372	0.45726
-0.05531	0.25320
-0.33583	0.30422
0.40372	-0.28246
0.27621	0.48277
0.32721	0.04914
0.14870	-0.12942
0.12320	0.76336
0.07220	-1.17523
0.04670	0.35523
0.12320	0.96742
0.02119	0.96742
0.19971	0.15117
0.17421	-0.97117
0.19971	-0.20594
0.22521	0.73785
0.04670	0.40625
0.07220	0.45726
0.17421	0.35523
0.07220	-0.18043
0.22521	0.15117
0.19971	0.10015
0.25071	0.17668
0.22521	0.12566
0.09770	0.17668
0.14870	0.20219
0.09770	-0.00188
0.02119	0.07465
0.14870	0.02363
0.07220	0.02363
0.14870	0.22769
0.17421	0.04914
0.19971	0.45726
0.22521	0.22769
0.19971	-0.00188
0.19971	0.04914
0.04670	0.43176
0.17421	-0.46102
0.02119	-0.53754
0.12320	0.63582
0.09770	0.20219
0.04670	0.86539
0.12320	-0.28246
0.50573	1.45206
0.35272	-0.12942
0.19971	-0.35899
-0.02981	0.76336
0.02119	0.12566
0.04670	-0.00188
0.07220	-0.18043
0.07220	0.04914
0.04670	0.20219
0.55673	0.17668
0.68424	0.15117
0.17421	0.17668
-0.02981	0.10015
-0.02981	0.25320
0.09770	-0.07840
-0.00431	0.10015
0.12320	0.76336
0.12320	-0.33348
0.09770	0.61031
0.19971	0.20219
0.19971	0.15117
0.32721	-0.28246
0.22521	-0.35899
0.14870	0.53379
0.12320	0.76336
0.07220	0.15117
0.09770	-0.25695
0.12320	0.58480
0.19971	0.45726
0.09770	-0.25695
-0.05531	0.30422
0.40372	0.25320
0.40372	-0.15492
0.19971	0.43176
-0.05531	-0.25695
-0.05531	0.17668
0.12320	0.12566
0.12320	0.27871
0.09770	0.58480
0.19971	-0.35899
0.19971	-0.71609
0.22521	0.32972
0.17421	0.30422
0.19971	0.55929
0.09770	0.25320
0.07220	0.40625
0.02119	-0.12942
0.12320	0.15117
0.19971	-0.05289
0.14870	0.32972
0.27621	0.58480
0.09770	-0.46102
0.19971	0.45726
0.07220	0.53379
0.14870	0.45726
0.09770	-0.76711
0.22521	0.30422
0.07220	0.25320
0.14870	0.15117
0.19971	0.04914
0.45472	-0.23145
0.35272	0.53379
-0.18282	0.25320
0.12320	0.32972
-0.18282	0.45726
0.19971	0.20219
0.68424	0.12566
0.55673	-0.46102
-1.17738	0.35523
-0.38683	0.50828
0.73524	0.32972
0.60773	-0.76711
0.50573	-0.28246
0.17421	0.32972
0.12320	0.43176
0.09770	0.40625
-0.05531	0.40625
0.12320	0.25320
0.12320	-0.18043
0.12320	0.30422
0.22521	0.12566
0.27621	0.48277
0.07220	-0.89465
0.19971	0.15117
0.12320	0.61031
0.04670	0.61031
0.07220	-0.23145
0.19971	0.50828
0.22521	0.17668
0.12320	-1.50683
0.19971	0.96742
0.19971	0.35523
0.12320	0.63582
0.17421	0.12566
0.12320	-0.66508
0.17421	0.43176
0.12320	0.00000
0.07220	0.00000
0.14870	0.00000
0.17421	0.91640
-0.13181	0.35523
0.50573	-2.55265
0.17421	1.17148
0.42922	0.25320
0.14870	0.17668
-0.08081	0.71234
-0.13181	0.55929
0.07220	-0.61406
0.09770	0.30422
0.19971	0.40625
0.09770	0.43176
0.32721	0.40625
0.27621	0.38074
0.09770	0.02363
0.14870	-0.15492
0.07220	-0.00188
0.07220	-0.02739
0.12320	0.04914
0.07220	0.20219
0.27621	0.20219
0.45472	0.32972
0.30171	-1.17523
-0.48884	0.55929
0.02119	0.15117
0.30171	0.50828
0.53123	0.40625
0.30171	0.50828
-0.05531	0.48277
-0.08081	-0.05289
-0.20832	-0.28246
0.53123	0.22769
0.32721	0.12566
0.22521	0.27871
-0.20832	0.15117
-0.08081	0.10015
0.27621	-0.43551
0.81175	0.02363
-0.08081	0.68683
-1.89143	0.55929
0.30171	0.94191
0.73524	-1.14973
0.76074	-0.74160
0.63323	0.15117
0.42922	0.91640
0.27621	0.61031
-0.00431	-0.43551
0.07220	0.45726
-0.08081	0.10015
0.12320	0.12566
0.22521	1.04394
0.25071	0.17668
0.25071	-1.35379
-0.64185	0.27871
0.58223	0.35523
0.09770	0.04914
-0.08081	0.55929
-0.00431	-0.12942
-0.00431	0.30422
-0.00431	0.48277
0.22521	0.20219
0.25071	-0.81812
0.30171	-0.76711
0.48022	0.76336
0.45472	0.94191
-0.51434	0.68683
-0.08081	0.20219
0.17421	0.02363
0.60773	-0.25695
0.42922	-0.02739
-0.20832	0.10015
0.09770	0.15117
0.22521	0.20219
0.32721	0.20219
0.04670	0.07465
0.32721	0.12566
-0.20832	-0.00188
0.02119	0.20219
-0.13181	0.22769
0.12320	0.35523
0.32721	0.04914
0.45472	-0.20594
0.27621	0.12566
-0.02981	0.22769
0.19971	0.71234
0.55673	0.32972
0.12320	0.35523
-0.18282	-0.41000
0.42922	-0.05289
0.37822	0.17668
-0.46334	0.10015
-0.18282	0.07465
-0.31033	0.38074
0.70974	0.43176
0.04670	0.20219
1.47479	0.12566
1.37278	-0.12942
-1.61091	-0.56305
-1.71292	-0.15492
2.52035	1.19699
0.17421	-0.63957
0.40372	0.07465
-0.33583	0.50828
0.68424	0.68683
-0.31033	0.17668
0.40372	-0.15492
-0.23382	-0.00188
-0.56534	0.07465
-0.05531	0.12566
-0.00431	0.07465
0.17421	0.10015
0.35272	0.27871
0.73524	0.17668
-0.13181	0.17668
-0.69285	0.35523
0.19971	0.17668
1.65330	-0.35899
-1.81492	0.10015
0.83725	0.30422
0.96476	0.32972
1.04126	0.35523
0.76074	0.17668
0.48022	0.25320
-0.08081	0.15117
-0.66735	0.22769
-1.71292	0.04914
0.73524	0.17668
0.35272	-0.02739
-0.64185	0.32972
0.04670	-1.02219
0.45472	0.40625
0.17421	-0.12942
0.48022	0.35523
0.40372	0.20219
-0.48884	0.22769
0.68424	0.55929
1.04126	0.76336
-0.46334	-0.05289
-1.73842	0.12566
-0.23382	0.07465
2.92838	-0.15492
-0.08081	0.66132
0.81175	-1.04770
1.57679	0.10015
0.45472	0.86539
-0.66735	0.43176
-0.79486	-0.46102
-0.71835	-0.12942
-0.28482	0.48277
0.02119	-0.12942
-0.48884	0.66132
-0.23382	0.86539
0.63323	0.07465
0.45472	-1.55785
0.27621	1.04394
0.32721	0.10015
0.25071	-1.09871
-0.79486	0.81437
1.72980	0.76336
1.55129	0.32972
-0.84586	-0.18043
-0.08081	0.22769
-0.48884	0.25320
0.12320	0.20219
0.60773	0.30422
0.42922	0.53379
0.30171	-0.76711
-1.20288	0.07465
-0.23382	-0.66508
1.01576	0.22769
1.01576	0.53379
-0.56534	0.81437
0.65874	0.66132
0.32721	0.66132
0.19971	-0.89465
-0.05531	-0.23145
-0.05531	0.10015
-0.00431	-0.15492
0.07220	0.43176
0.02119	0.35523
0.25071	0.35523
0.37822	0.20219
0.40372	0.40625
0.55673	0.53379
-0.28482	0.50828
-0.23382	0.15117
0.48022	0.27871
0.02119	-0.15492
0.14870	-0.38449
0.17421	-0.71609
0.12320	0.55929
0.04670	-0.07840
0.32721	0.99292
-0.33583	0.58480
2.64786	-0.63957
-0.41233	0.32972
-3.77855	0.32972
0.45472	-0.63957
2.85188	0.45726
0.12320	0.71234
0.14870	0.45726
-0.02981	0.12566
0.02119	0.30422
0.30171	-0.86914
-0.56534	-1.73640
-0.82036	1.57960
-0.23382	0.73785
0.09770	0.35523
0.83725	1.91120
0.60773	0.94191
0.58223	-1.48133
0.55673	-2.57816
-0.13181	0.07465
-0.76936	1.88570
-0.25932	1.01843
0.78624	0.68683
0.48022	-1.50683
-0.48884	0.66132
0.86275	0.76336
0.86275	2.11527
-0.51434	-1.91496
0.88825	-3.16484
-0.82036	0.73785
1.80631	2.47238
-0.02981	0.55929
0.53123	0.30422
0.19971	-0.38449
-0.48884	2.59991
-0.97337	1.60511
-0.92237	-1.71090
-0.46334	-0.69059
0.45472	-0.86914
1.90832	1.37554
1.09226	-0.10391
-1.50890	-0.99668
-0.25932	-2.83324
0.32721	2.90601
0.37822	-2.39961
0.70974	1.04394
0.99026	4.48749
1.06676	1.14597
0.58223	1.45206
0.73524	1.29902
0.09770	-0.07840
-1.63641	-4.79733
-0.38683	-0.10391
0.50573	1.24800
-0.15732	-0.35899
0.53123	0.58480
-0.15732	0.91640
0.32721	-0.86914
-1.30489	-1.30277
-0.99887	0.02363
2.52035	-13.92911
1.04126	-9.00611
-0.84586	-0.05289
-0.43783	8.26263
0.50573	11.32356
0.63323	4.61503
0.40372	9.41048
0.50573	7.75248
0.07220	4.35995
-0.31033	3.59471
0.35272	-1.81293
0.30171	-3.24136
0.17421	-2.09351
0.35272	-2.73121
0.25071	-5.61358
0.04670	-13.34243
-1.04987	-5.97069
1.06676	-3.03730
-0.25932	-0.69059
-0.43783	-0.38449
0.88825	1.24800
0.07220	1.19699
0.07220	2.44687
0.32721	2.16628
-0.18282	3.79878
0.37822	0.61031
-0.02981	1.04394
0.02119	3.67124
0.12320	6.06897
0.30171	-1.76191
0.40372	0.32972
0.22521	-0.07840
-0.00431	-0.02739
-0.13181	0.04914
0.55673	1.06945
-1.04987	1.60511
-0.13181	-3.67499
0.35272	-0.10391
2.46935	-2.39961
-0.51434	-3.34339
-0.61635	-1.35379
-0.20832	-3.59847
0.04670	1.47757
0.04670	1.12046
0.02119	4.18139
0.55673	2.37034
0.19971	2.49788
0.63323	3.00804
0.37822	-2.42511
0.09770	0.50828
0.12320	3.54370
-0.13181	0.99292
-0.31033	1.98773
-0.13181	0.68683
0.12320	0.94191
0.04670	-0.18043
1.32178	-1.43031
0.22521	-4.77183
-0.94787	-3.21585
-0.92237	-3.67499
2.08683	-2.60367
-0.20832	-1.27726
-0.36133	-1.20074
0.35272	0.10015
-0.02981	-2.01699
0.14870	-0.15492
-0.23382	2.11527
0.50573	1.14597
0.30171	1.63062
0.60773	2.08976
0.58223	2.34484
0.17421	1.01843
-0.18282	2.67644
-0.20832	2.39585
0.12320	-5.35850
-0.05531	0.73785
-0.23382	1.50308
-0.20832	5.40576
0.22521	1.91120
0.42922	-0.07840
0.27621	-4.44022
0.17421	-0.30797
0.12320	-2.04250
0.25071	2.26831
0.17421	1.09496
0.30171	1.42656
0.42922	-0.66508
0.25071	-1.12422
-0.00431	0.71234
-0.18282	-1.99148
0.14870	0.78886
0.12320	-2.80773
0.02119	-0.15492
-0.08081	0.22769
0.19971	0.38074
0.30171	1.65613
0.68424	0.22769
0.50573	1.17148
-0.02981	0.17668
-0.41233	-0.71609
-0.05531	0.96742
0.19971	-0.61406
-0.31033	-1.32828
0.60773	1.01843
0.42922	0.86539
0.22521	0.99292
0.48022	0.63582
0.40372	0.89089
0.32721	-0.07840
0.02119	-0.23145
0.17421	2.03874
0.12320	0.12566
-0.10631	-0.02739
-0.28482	-0.69059
-0.28482	-0.15492
0.19971	0.91640
0.37822	-1.02219
0.45472	-0.97117
-0.53984	-0.48652
0.19971	0.20219
0.27621	1.63062
0.50573	2.29382
0.35272	1.86019
0.48022	-4.54226
-0.02981	-2.11902
0.19971	0.76336
0.02119	1.70714
0.02119	0.66132
-0.08081	-0.23145
0.35272	-0.23145
0.32721	0.81437
0.48022	-0.30797
0.58223	1.83468
0.02119	0.86539
-0.05531	0.22769
-0.23382	-1.35379
-0.02981	0.20219
0.32721	1.19699
0.37822	-0.97117
-0.84586	0.73785
0.65874	-1.27726
0.07220	-1.32828
0.22521	1.22250
0.83725	1.14597
-0.46334	-0.35899
-0.31033	-0.35899
-0.13181	0.07465
0.30171	-0.20594
0.65874	1.55410
0.65874	0.27871
0.73524	0.12566
0.17421	1.32453
-0.10631	1.57960
-0.10631	0.10015
-0.10631	-0.02739
-0.18282	-0.20594
-0.10631	-1.07320
0.19971	-0.41000
0.27621	0.40625
0.30171	0.12566
0.30171	1.57960
0.02119	-1.48133
0.09770	-0.46102
0.19971	1.50308
0.12320	0.25320
0.25071	-2.32308
0.12320	0.15117
0.12320	2.11527
0.14870	1.60511
0.07220	2.14077
0.07220	0.12566
0.37822	-0.07840
0.09770	-0.76711
-0.02981	-0.38449
0.32721	-0.28246
0.09770	-1.53234
0.37822	-0.46102
0.48022	0.63582
0.19971	1.17148
0.27621	1.06945
-0.20832	-0.51203
-0.43783	-2.04250
-0.08081	0.94191
0.42922	1.65613
0.42922	-0.63957
0.83725	1.37554
0.48022	0.15117
0.37822	0.40625
0.07220	-0.84363
-0.00431	1.60511
-0.20832	2.31933
-0.94787	1.78367
0.04670	-2.04250
0.30171	-0.81812
0.22521	-2.37410
0.32721	-0.00188
0.17421	0.55929
0.32721	0.50828
0.30171	-0.79262
0.48022	3.31413
0.22521	-1.73640
0.02119	0.83988
0.17421	-0.46102
-0.00431	0.66132
-0.18282	0.07465
0.17421	-0.41000
0.25071	-1.45582
0.09770	-0.63957
0.48022	1.63062
0.27621	0.10015
0.12320	1.12046
-0.00431	2.11527
-0.08081	0.22769
0.12320	0.25320
0.37822	0.78886
0.25071	-0.28246
0.22521	-0.23145
-0.59084	-0.48652
0.65874	-0.23145
0.63323	0.68683
0.17421	-0.41000
-0.00431	0.91640
-0.08081	0.20219
-0.89686	-2.04250
0.83725	1.27351
0.30171	-1.73640
0.02119	0.91640
-0.20832	0.71234
0.14870	0.86539
0.12320	1.98773
0.22521	2.31933
0.42922	1.06945
0.04670	-5.12893
0.09770	0.17668
0.07220	0.22769
0.12320	-1.02219
0.32721	-0.74160
0.12320	1.93671
0.22521	2.24281
0.17421	-0.74160
0.07220	1.55410
0.37822	-2.09351
0.09770	0.32972
0.02119	1.47757
-0.13181	0.02363
0.27621	-0.18043
-0.00431	-1.37929
0.12320	1.27351
0.30171	3.31413
0.19971	-1.63437
0.25071	1.09496
0.02119	1.88570
-0.05531	-3.01179
-0.05531	-1.14973
-0.08081	2.06425
0.12320	-0.25695
0.45472	0.04914
0.63323	-0.66508
0.45472	1.04394
0.50573	0.66132
-0.05531	-0.35899
-0.20832	0.81437
-0.53984	-0.12942
0.63323	-0.38449
0.42922	0.73785
-0.38683	-0.10391
0.32721	0.68683
0.14870	-1.22625
0.12320	0.02363
0.04670	2.14077
-0.13181	-0.25695
-0.10631	0.17668
0.37822	-0.35899
0.14870	0.32972
0.37822	2.14077
0.55673	-1.27726
0.35272	0.86539
0.30171	0.22769
0.12320	-2.85874
-0.13181	-0.05289
0.12320	1.47757
0.17421	1.47757
0.04670	1.24800
0.37822	-2.60367
0.12320	-0.86914
0.12320	1.52859
0.14870	2.16628
0.25071	0.45726
0.27621	-0.89465
0.17421	1.57960
-0.02981	-1.73640
-0.13181	-1.25176
0.19971	1.09496
0.14870	1.55410
0.42922	0.25320
0.07220	-0.69059
0.09770	0.71234
0.53123	0.71234
0.07220	0.43176
-0.08081	-0.28246
-0.25932	-0.99668
0.04670	0.15117
0.27621	-0.92016
0.35272	1.22250
0.65874	-2.17003
0.53123	0.99292
0.17421	-0.74160
-0.25932	1.01843
0.09770	1.50308
0.27621	0.50828
0.30171	1.60511
-0.05531	0.78886
0.22521	-0.53754
-0.02981	-0.05289
0.12320	-0.97117
0.09770	-1.76191
-0.10631	-0.25695
-0.00431	0.63582
0.53123	0.50828
0.42922	0.89089
0.40372	1.19699
0.02119	1.04394
-0.05531	1.22250
0.04670	1.78367
0.27621	-3.08831
0.17421	-0.25695
0.09770	-0.35899
0.02119	1.57960
0.14870	1.12046
-0.00431	-0.07840
0.12320	-2.57816
0.42922	-3.31788
0.37822	2.54890
0.12320	1.47757
0.07220	0.66132
-0.00431	1.60511
-0.10631	0.50828
-0.08081	0.45726
0.22521	-1.25176
0.60773	0.15117
0.32721	-0.74160
0.09770	0.48277
0.19971	0.17668
0.32721	0.71234
-0.36133	-0.35899
-0.10631	1.09496
0.32721	-0.99668
0.17421	-0.38449
0.07220	0.76336
0.12320	1.52859
0.30171	-0.63957
0.32721	-2.88425
0.19971	1.98773
0.12320	1.12046
-0.13181	1.06945
-0.05531	-0.46102
0.32721	0.94191
-0.05531	-0.25695
0.83725	-1.27726
0.53123	1.65613
0.04670	1.27351
-0.25932	0.66132
0.14870	0.38074
-0.00431	1.37554
0.25071	-0.89465
0.09770	-3.01179
0.14870	0.20219
0.14870	1.22250
0.07220	-0.76711
-0.00431	-0.25695
-0.08081	0.99292
0.27621	2.06425
0.27621	0.76336
-0.00431	-1.71090
0.48022	0.35523
0.17421	-0.66508
0.25071	-1.55785
0.12320	0.20219
0.09770	1.75816
0.07220	1.12046
-0.18282	0.30422
0.32721	0.71234
0.25071	-1.55785
0.09770	0.32972
0.60773	1.14597
0.30171	0.02363
0.27621	0.61031
0.17421	-0.33348
-0.18282	0.71234
0.02119	1.40105
-0.15732	0.83988
0.07220	-2.83324
-0.00431	-1.53234
0.02119	-0.20594
0.09770	-1.25176
0.32721	2.14077
0.63323	2.01323
0.55673	1.55410
0.22521	1.65613
-0.46334	0.32972
-0.18282	-2.57816
0.55673	-0.94566
0.42922	0.63582
-0.00431	0.27871
0.17421	0.50828
0.14870	-1.88945
0.22521	1.04394
0.14870	0.20219
0.14870	1.86019
0.19971	0.50828
0.12320	-1.88945
0.17421	1.22250
-0.18282	-0.48652
0.22521	1.04394
0.02119	0.83988
0.25071	-0.69059
0.17421	0.38074
0.12320	-1.65988
0.14870	2.85499
0.17421	-0.58856
0.45472	-0.48652
0.14870	-2.19554
0.17421	-0.46102
0.02119	1.01843
-0.13181	1.47757
0.17421	1.12046
0.37822	1.19699
0.14870	0.99292
0.70974	0.25320
0.50573	-0.25695
0.17421	-0.05289
-0.13181	-1.68539
0.02119	0.10015
0.02119	0.91640
-0.20832	-0.28246
-0.28482	-0.76711
-0.46334	-0.38449
-0.23382	1.29902
0.30171	1.73265
0.70974	-0.86914
0.86275	0.35523
0.40372	1.52859
0.12320	-0.58856
0.25071	1.14597
0.48022	-0.76711
0.04670	-0.07840
-0.02981	-0.63957
-0.15732	0.99292
-0.31033	0.38074
-0.15732	0.12566
0.02119	-0.07840
0.25071	0.40625
0.32721	1.22250
0.53123	-1.55785
0.25071	-0.51203
0.09770	0.20219
0.07220	0.91640
0.27621	1.04394
0.12320	-0.33348
0.19971	0.04914
0.04670	0.04914
-0.02981	1.12046
0.19971	0.50828
0.14870	-0.02739
-0.00431	0.32972
0.32721	0.81437
0.12320	-2.73121
0.19971	0.63582
0.50573	1.17148
0.04670	0.86539
0.07220	-0.71609
0.12320	1.27351
0.45472	-0.79262
0.12320	0.53379
-0.48884	-0.12942
-0.31033	0.04914
-0.15732	0.61031
0.14870	-1.09871
0.53123	0.25320
0.55673	0.76336
0.53123	1.65613
0.14870	0.45726
0.32721	0.61031
0.22521	-1.53234
0.02119	1.12046
-0.15732	0.61031
0.07220	0.55929
0.17421	-0.02739
0.02119	0.12566
0.19971	-0.15492
0.27621	0.17668
0.14870	-0.30797
-0.10631	-0.15492
-0.00431	0.35523
-0.00431	-0.15492
0.22521	0.20219
0.42922	1.42656
0.22521	0.94191
0.25071	-1.37929
-0.08081	2.03874
-0.10631	-2.90976
0.27621	-0.46102
-0.02981	0.99292
0.09770	0.30422
0.12320	0.12566
0.32721	-0.30797
0.30171	1.73265
0.68424	-0.12942
0.30171	-0.86914
0.17421	0.40625
-0.13181	1.40105
-0.25932	-0.07840
-0.00431	-1.27726
0.04670	-0.94566
-0.10631	-0.35899
0.32721	2.31933
-0.02981	1.17148
0.12320	0.38074
0.45472	0.50828
0.55673	-0.84363
0.30171	0.76336
0.07220	-0.66508
0.02119	-0.53754
0.14870	-0.35899
-0.05531	0.55929
-0.08081	0.22769
-0.05531	-0.05289
0.17421	-0.20594
0.42922	0.45726
0.30171	1.04394
0.32721	1.27351
0.32721	-1.81293
0.27621	-0.63957
-0.13181	-1.04770
-0.28482	2.24281
-0.31033	0.61031
-0.41233	1.22250
0.48022	1.04394
0.70974	0.96742
0.55673	0.12566
0.48022	-0.02739
0.14870	-0.69059
0.04670	0.10015
-0.08081	-0.97117
-0.18282	-0.61406
0.30171	-2.27207
0.30171	0.61031
0.35272	1.55410
0.07220	0.30422
0.14870	-1.37929
-0.28482	1.01843
-0.38683	1.37554
-0.05531	0.63582
0.27621	-1.17523
0.55673	0.94191
0.30171	0.10015
0.40372	0.86539
0.60773	-0.05289
0.25071	-0.10391
0.19971	0.15117
0.02119	-0.35899
0.04670	0.89089
-0.13181	1.40105
-0.08081	-1.83844
-0.13181	-0.43551
-0.10631	-0.74160
0.09770	2.01323
0.32721	1.80917
0.48022	-0.25695
0.22521	0.25320
0.30171	-0.02739
-0.08081	-1.43031
0.07220	0.48277
0.14870	0.61031
0.30171	-0.05289
0.22521	0.25320
0.27621	-0.30797
0.19971	-0.58856
0.19971	-0.05289
-0.02981	1.17148
0.02119	0.15117
0.12320	-2.37410
0.22521	0.73785
0.12320	0.53379
0.17421	1.45206
0.12320	0.48277
0.22521	0.76336
0.19971	-0.07840
-0.05531	0.30422
0.07220	-1.09871
0.25071	0.94191
0.32721	0.61031
-0.02981	-0.46102
0.17421	0.04914
0.19971	-0.51203
0.02119	0.58480
0.27621	-0.46102
0.19971	0.73785
-0.18282	-0.43551
0.50573	0.89089
0.32721	-1.22625
0.04670	2.06425
-0.00431	0.27871
0.07220	-1.63437
0.12320	-0.46102
0.25071	1.57960
0.12320	1.24800
0.19971	-2.50164
0.12320	-0.86914
-0.08081	1.37554
0.22521	1.22250
0.02119	0.71234
0.09770	-0.20594
0.14870	1.19699
0.22521	-0.20594
0.22521	0.73785
0.12320	-1.45582
0.45472	-0.25695
0.19971	-1.45582
0.14870	0.43176
0.22521	0.40625
0.12320	0.89089
0.02119	0.50828
0.09770	0.25320
-0.25932	-3.29238
-0.33583	1.14597
-0.31033	0.91640
0.42922	0.91640
0.68424	0.58480
0.45472	1.60511
0.32721	-0.30797
0.02119	-1.60887
0.37822	1.70714
0.32721	-0.66508
0.02119	0.78886
-0.18282	-0.53754
-0.31033	0.50828
-0.05531	0.55929
0.27621	-0.30797
0.19971	0.50828
0.14870	-0.76711
0.17421	-0.00188
0.30171	0.86539
-0.02981	1.29902
0.19971	0.04914
0.22521	0.15117
0.09770	-0.86914
0.19971	1.75816
0.25071	-0.56305
0.27621	-1.02219
0.14870	-0.35899
0.02119	0.53379
0.19971	0.35523
0.12320	1.75816
-0.00431	-0.58856
0.07220	0.07465
0.09770	0.40625
0.27621	-1.76191
-0.00431	-0.25695
0.17421	0.58480
0.09770	1.88570
0.12320	0.76336
0.17421	-1.09871
0.09770	0.63582
0.19971	0.38074
0.22521	-0.05289
0.09770	0.35523
-0.08081	-1.22625
0.19971	0.25320
0.12320	0.66132
-0.08081	0.48277
0.19971	-0.18043
0.09770	-1.83844
0.17421	1.35003
0.42922	0.15117
0.22521	-0.74160
0.22521	-0.00188
0.37822	0.55929
-0.02981	1.52859
-0.02981	0.10015
0.09770	0.15117
0.07220	0.50828
-0.02981	0.12566
-0.00431	0.10015
0.17421	0.20219
0.14870	-0.25695
0.30171	0.02363
0.32721	0.32972
0.30171	-0.02739
0.19971	-0.94566
0.09770	-0.18043
0.17421	0.43176
0.12320	0.35523
0.07220	0.35523
0.19971	0.66132
0.12320	-0.41000
0.12320	0.76336
0.14870	0.94191
0.30171	0.86539
0.12320	-1.14973
-0.13181	-0.00188
-0.13181	0.32972
-0.25932	0.17668
0.07220	-0.15492
0.42922	0.96742
0.70974	0.63582
0.45472	-0.10391
0.48022	0.91640
-0.02981	0.04914
-0.20832	0.20219
0.09770	0.07465
-0.31033	0.04914
-0.38683	0.35523
0.30171	-0.05289
0.45472	0.30422
0.40372	-1.71090
0.50573	-0.53754
0.02119	-0.12942
0.32721	0.48277
-0.00431	0.55929
0.04670	0.94191
0.12320	1.17148
0.22521	0.38074
0.14870	-0.05289
-0.02981	-0.05289
0.07220	0.27871
0.12320	-2.24656
0.12320	0.73785
0.37822	0.55929
0.17421	0.02363
0.14870	0.12566
0.02119	0.63582
0.09770	0.71234
0.09770	-0.02739
0.14870	-0.33348
0.35272	-0.89465
0.35272	0.10015
0.32721	0.76336
0.27621	0.17668
0.04670	1.01843
-0.00431	-0.69059
-0.08081	0.40625
0.27621	-1.27726
0.09770	0.96742
0.14870	0.78886
0.12320	-0.61406
-0.18282	0.68683
0.04670	0.17668
0.25071	0.76336
0.37822	0.22769
0.40372	0.71234
0.22521	0.50828
0.07220	-1.50683
0.19971	-2.04250
0.12320	1.01843
0.17421	0.94191
0.17421	1.27351
0.32721	0.61031
0.07220	-0.84363
0.07220	0.81437
-0.18282	-1.32828
-0.31033	-0.63957
0.19971	1.50308
0.25071	-0.35899
0.58223	0.45726
0.30171	0.50828
0.40372	0.10015
0.17421	0.15117
0.32721	0.35523
0.09770	0.86539
0.07220	-0.33348
0.07220	-0.15492
0.12320	1.04394
-0.18282	-1.07320
0.04670	-0.07840
0.27621	1.52859
0.22521	-0.63957
0.32721	-1.12422
0.17421	-0.92016
0.14870	1.27351
-0.10631	1.17148
0.09770	1.06945
-0.10631	-0.12942
0.27621	-0.02739
0.27621	0.15117
0.40372	-0.12942
0.27621	0.10015
0.17421	0.25320
0.04670	-0.63957
0.12320	-0.41000
0.35272	1.04394
0.12320	0.10015
-0.02981	0.63582
-0.15732	0.12566
-0.13181	0.10015
0.27621	-0.74160
0.45472	0.27871
0.04670	-0.05289
0.25071	0.35523
0.14870	-0.56305
0.12320	0.68683
0.27621	0.12566
0.09770	0.96742
0.07220	1.35003
0.09770	-1.40480
0.35272	-0.79262
0.40372	0.07465
0.02119	-0.43551
0.19971	1.50308
0.12320	1.75816
-0.00431	-0.79262
-0.02981	0.73785
0.14870	-0.18043
0.07220	-0.53754
0.14870	1.14597
0.27621	0.32972
0.14870	-0.76711
0.27621	-0.18043
0.09770	0.25320
0.27621	1.27351
-0.00431	-0.07840
0.12320	0.12566
0.07220	-1.32828
0.19971	-0.15492
-0.00431	0.22769
0.17421	0.32972
0.12320	-0.15492
0.12320	0.48277
0.17421	0.15117
0.30171	0.81437
0.37822	-0.43551
0.07220	0.63582
0.09770	0.91640
0.14870	0.04914
0.19971	0.38074
0.12320	0.25320
-0.05531	-0.28246
-0.28482	-0.35899
0.19971	-0.48652
0.42922	-1.32828
0.17421	-0.46102
0.02119	0.66132
0.25071	1.24800
0.40372	0.91640
0.22521	1.42656
0.22521	0.30422
0.14870	0.32972
0.02119	-0.05289
0.19971	-0.35899
0.02119	0.38074
-0.08081	0.53379
0.07220	-0.15492
0.17421	-0.30797
0.19971	-2.04250
0.12320	-0.61406
0.17421	1.04394
0.22521	1.68163
0.25071	-0.15492
0.19971	-1.91496
0.19971	1.06945
0.07220	1.80917
0.04670	-0.20594
0.07220	1.01843
0.19971	0.63582
0.30171	0.10015
0.14870	-0.15492
0.14870	-0.10391
0.12320	-0.07840
-0.10631	-1.07320
0.22521	0.63582
0.22521	0.40625
0.32721	0.12566
-0.08081	-0.61406
0.27621	0.15117
0.04670	0.38074
0.32721	-0.76711
0.14870	0.25320
0.12320	0.55929
0.02119	0.66132
0.22521	0.76336
0.40372	0.04914
0.17421	0.12566
0.12320	-0.15492
-0.00431	-0.10391
0.27621	0.83988
0.12320	-0.92016
0.17421	0.12566
0.04670	-0.66508
0.22521	1.40105
0.09770	0.71234
0.04670	0.17668
0.25071	-0.35899
0.14870	-1.17523
0.19971	0.12566
0.22521	1.78367
0.14870	0.91640
0.12320	-1.63437
0.14870	1.24800
0.19971	-0.18043
0.19971	-0.63957
0.17421	-0.07840
0.09770	1.09496
0.17421	0.48277
0.04670	0.91640
-0.08081	-1.17523
0.22521	0.76336
0.04670	-0.30797
0.37822	-0.05289
0.32721	0.17668
0.35272	0.38074
0.45472	-0.23145
0.07220	1.45206
0.04670	0.15117
0.14870	-0.66508
-0.36133	0.32972
0.07220	-0.10391
0.12320	-0.10391
0.12320	0.20219
0.32721	-0.07840
0.14870	-0.18043
0.55673	0.86539
0.32721	0.04914
0.27621	0.04914
-0.00431	0.25320
-0.00431	0.30422
-0.18282	-0.25695
0.02119	0.35523
-0.05531	-0.69059
-0.00431	0.55929
-0.10631	-0.92016
0.40372	-0.33348
0.42922	1.73265
0.25071	0.53379
0.30171	-0.12942
0.07220	0.63582
0.22521	-0.69059
0.14870	-1.07320
0.04670	1.65613
0.12320	0.12566
0.25071	0.20219
-0.02981	-0.51203
0.02119	0.10015
0.12320	1.17148
0.02119	-0.12942
0.07220	-0.94566
0.19971	-0.46102
0.32721	1.17148
0.19971	-0.28246
0.19971	1.70714
0.04670	0.02363
0.35272	-0.25695
0.14870	-0.74160
-0.00431	0.12566
-0.05531	0.86539
0.12320	-0.58856
0.42922	0.58480
0.12320	0.63582
0.09770	0.78886
-0.05531	-0.99668
0.22521	0.76336
0.12320	-0.28246
0.30171	-0.33348
0.32721	-0.05289
0.12320	1.35003
0.17421	-1.07320
-0.08081	0.91640
-0.05531	0.96742
0.19971	-0.23145
0.30171	0.53379
0.19971	0.61031
0.25071	0.15117
0.12320	0.17668
0.07220	0.68683
0.02119	-1.02219
0.07220	-0.38449
0.19971	0.10015
0.32721	0.50828
0.37822	0.76336
0.02119	0.55929
0.04670	-0.97117
-0.02981	-0.18043
0.07220	1.27351
0.14870	-0.28246
0.17421	-0.76711
0.22521	0.76336
0.22521	0.35523
0.17421	-1.37929
0.02119	0.66132
0.12320	0.99292
-0.02981	0.71234
0.27621	0.66132
0.02119	1.01843
0.30171	1.09496
0.14870	0.25320
0.07220	-0.71609
0.40372	-1.02219
0.30171	-0.20594
0.12320	-0.53754
0.07220	-0.18043
0.12320	0.45726
0.17421	1.14597
0.14870	1.04394
0.17421	-0.81812
0.12320	0.04914
-0.10631	0.94191
-0.05531	-0.71609
-0.05531	-0.10391
0.32721	1.01843
0.42922	0.58480
0.30171	0.35523
0.32721	1.98773
0.09770	-1.07320
0.02119	-0.20594
-0.02981	0.12566
0.12320	-0.15492
0.07220	0.30422
0.17421	-0.69059
0.12320	0.22769
0.30171	0.76336
-0.10631	0.02363
0.19971	0.27871
0.22521	0.91640
0.25071	-1.68539
0.07220	0.17668
0.19971	0.53379
0.02119	0.76336
0.22521	0.55929
0.22521	0.15117
0.09770	-1.35379
0.19971	0.83988
0.02119	-0.10391
0.32721	-0.35899
0.14870	0.68683
0.09770	0.71234
0.02119	0.10015
-0.05531	-0.10391
0.27621	0.32972
0.25071	0.61031
0.19971	0.35523
0.19971	0.43176
0.12320	-0.84363
0.04670	0.35523
0.02119	-1.83844
0.09770	0.15117
0.14870	2.06425
0.02119	0.58480
0.17421	0.27871
0.65874	0.73785
0.22521	-0.97117
0.09770	-0.10391
-0.02981	-0.33348
-0.13181	0.04914
0.17421	0.76336
0.32721	1.01843
0.42922	-0.30797
0.07220	-0.28246
0.25071	0.27871
0.09770	0.25320
0.07220	-0.33348
0.09770	0.35523
-0.00431	0.17668
-0.08081	0.68683
-0.15732	-0.23145
0.02119	0.35523
0.37822	-1.17523
0.30171	-0.07840
0.35272	-0.41000
0.30171	1.27351
0.32721	1.19699
0.19971	0.63582
0.14870	0.89089
0.07220	0.10015
-0.02981	0.27871
-0.00431	-1.78742
0.12320	0.38074
0.04670	0.55929
0.07220	-0.63957
0.27621	-0.66508
0.19971	0.15117
-0.00431	0.71234
0.14870	0.89089
0.19971	0.12566
0.07220	0.17668
0.22521	0.96742
0.25071	-0.15492
0.22521	-0.69059
0.22521	-0.38449
0.27621	0.86539
0.04670	0.73785
0.12320	1.09496
0.12320	-0.71609
-0.10631	0.12566
0.04670	-0.00188
-0.08081	1.24800
0.22521	-2.22105
0.12320	0.76336
0.37822	0.58480
0.35272	0.20219
0.42922	0.53379
0.35272	-0.35899
0.09770	0.50828
0.07220	0.68683
0.17421	1.27351
-0.08081	-0.15492
-0.10631	-0.66508
0.02119	-0.02739
0.09770	0.25320
0.27621	-0.33348
0.30171	-0.84363
0.17421	0.15117
0.09770	0.15117
-0.08081	0.45726
0.40372	0.66132
0.40372	0.32972
0.25071	0.27871
-0.02981	0.50828
0.09770	1.22250
0.27621	0.04914
0.27621	-1.17523
0.17421	0.63582
-0.08081	-2.06800
-0.33583	1.01843
-0.00431	0.48277
0.22521	0.35523
0.19971	0.61031
0.40372	0.73785
0.27621	0.68683
0.45472	0.58480
0.27621	-1.27726
0.12320	-0.86914
0.02119	-0.74160
-0.10631	0.55929
-0.05531	0.96742
-0.08081	0.78886
0.07220	0.22769
0.19971	0.55929
0.02119	0.25320
0.40372	-0.51203
0.37822	0.22769
0.30171	0.58480
-0.00431	-0.63957
-0.08081	-0.97117
0.14870	-0.15492
0.19971	0.76336
0.19971	0.89089
0.25071	0.76336
0.07220	0.53379
0.09770	0.32972
0.27621	0.43176
0.22521	-0.28246
0.02119	0.07465
0.32721	-0.25695
-0.00431	-2.24656
0.07220	0.94191
-0.02981	0.43176
0.25071	0.12566
0.04670	1.70714
0.17421	-0.69059
0.09770	0.50828
0.32721	-0.00188
0.09770	-0.35899
0.19971	0.25320
0.04670	0.55929
0.12320	-1.09871
0.19971	1.04394
0.27621	0.10015
0.32721	0.10015
0.14870	0.40625
0.12320	0.22769
0.14870	0.17668
0.04670	-0.25695
0.14870	0.55929
0.09770	-0.10391
-0.02981	-0.02739
0.04670	0.10015
0.04670	0.96742
0.30171	0.61031
0.12320	0.02363
0.32721	-0.00188
0.27621	-0.05289
0.45472	-1.40480
0.14870	0.35523
-0.00431	0.12566
0.02119	0.35523
-0.28482	0.81437
0.09770	0.91640
0.14870	-0.71609
0.40372	1.06945
0.22521	-0.51203
0.48022	0.55929
0.58223	0.12566
0.17421	-0.25695
-0.20832	0.30422
-0.23382	-0.07840
-0.10631	-0.56305
0.09770	-0.18043
0.12320	0.38074
0.42922	-0.05289
0.53123	1.24800
0.22521	0.35523
0.07220	0.38074
-0.08081	0.43176
0.07220	0.40625
0.09770	-0.56305
0.32721	-0.41000
0.25071	1.12046
0.37822	0.15117
0.09770	-0.86914
0.09770	0.71234
0.02119	-0.35899
-0.08081	0.58480
0.07220	0.10015
0.22521	0.45726
0.14870	0.15117
0.25071	-0.99668
0.19971	-0.89465
0.19971	0.63582
0.19971	0.35523
0.12320	0.58480
0.09770	0.22769
0.22521	1.57960
0.17421	-0.00188
0.25071	0.32972
0.19971	-0.58856
0.25071	0.20219
0.07220	0.17668
-0.00431	-0.07840
0.30171	0.02363
0.22521	-0.07840
0.12320	0.40625
0.17421	0.25320
0.02119	-1.32828
-0.08081	0.55929
-0.13181	-0.00188
-0.15732	0.81437
0.40372	0.86539
0.55673	-0.35899
0.50573	-0.18043
0.42922	0.35523
0.14870	0.43176
0.25071	0.66132
-0.08081	0.78886
-0.02981	0.81437
0.19971	-0.20594
-0.00431	0.12566
0.12320	-1.35379
0.02119	0.04914
0.04670	-0.18043
0.19971	0.66132
0.22521	0.58480
0.22521	-0.07840
0.17421	0.76336
0.22521	-0.43551
0.09770	-0.69059
0.25071	1.78367
0.27621	0.76336
0.25071	-1.81293
0.17421	-0.18043
0.14870	-0.00188
0.12320	0.71234
0.02119	0.61031
0.04670	0.81437
-0.02981	-0.18043
0.14870	-0.12942
-0.15732	-0.07840
0.30171	1.35003
0.37822	-1.37929
0.32721	-0.84363
0.27621	0.66132
0.04670	1.14597
-0.02981	-0.33348
-0.02981	0.12566
-0.13181	0.63582
0.27621	0.48277
0.27621	-0.89465
0.30171	0.81437
0.22521	0.04914
0.09770	-0.53754
0.32721	1.09496
0.35272	-2.01699
-0.08081	0.15117
0.02119	1.19699
-0.15732	0.43176
-0.20832	0.94191
-0.10631	1.12046
0.09770	0.02363
0.32721	-0.02739
0.70974	-0.84363
0.48022	-0.07840
0.22521	0.12566
0.07220	0.45726
0.07220	-1.14973
0.19971	0.40625
-0.00431	-0.48652
-0.00431	0.58480
0.02119	1.55410
0.04670	-1.17523
0.09770	-0.53754
0.25071	-0.74160
0.30171	1.24800
0.22521	0.63582
0.22521	-0.33348
0.17421	0.68683
0.19971	0.45726
0.02119	0.04914
0.14870	1.32453
-0.00431	-0.41000
0.04670	0.20219
0.22521	0.17668
0.22521	0.07465
0.32721	-0.20594
0.32721	0.15117
0.17421	0.32972
0.12320	-0.81812
0.09770	-1.12422
-0.15732	0.73785
0.02119	-0.46102
0.22521	0.94191
0.35272	1.63062
0.17421	0.04914
0.17421	0.94191
0.19971	-0.18043
-0.05531	0.30422
0.09770	0.04914
-0.05531	-0.71609
0.30171	-0.41000
0.25071	0.17668
0.30171	0.89089
0.22521	0.48277
0.22521	1.09496
0.17421	0.99292
0.02119	-0.56305
0.09770	-0.58856
0.09770	0.02363
0.27621	-0.28246
0.07220	0.07465
0.27621	-0.61406
0.17421	1.09496
-0.00431	-0.28246
0.19971	-0.38449
0.30171	-0.84363
0.07220	1.55410
0.12320	0.20219
0.02119	0.45726
0.07220	0.78886
0.02119	0.86539
0.27621	0.20219
0.17421	0.04914
0.27621	-0.30797
0.25071	-0.86914
0.12320	-0.30797
0.12320	0.89089
0.14870	1.45206
-0.00431	-0.92016
0.17421	-1.04770
-0.02981	0.91640
0.04670	0.86539
0.17421	0.73785
0.32721	0.55929
0.27621	0.04914
0.32721	-0.89465
0.02119	-1.14973
0.12320	0.17668
0.07220	0.25320
0.25071	0.91640
0.07220	0.15117
0.07220	-0.12942
0.12320	0.61031
0.19971	0.58480
0.07220	0.22769
-0.00431	-0.79262
0.14870	0.45726
0.30171	0.58480
0.17421	0.68683
0.17421	-0.84363
0.22521	0.20219
0.14870	0.40625
0.32721	0.25320
0.09770	0.53379
0.22521	0.25320
-0.13181	0.45726
0.02119	0.25320
0.30171	-1.88945
0.04670	-1.37929
0.12320	1.50308
0.12320	0.17668
0.22521	0.66132
0.30171	0.55929
0.12320	-0.20594
0.17421	1.78367
0.17421	-0.53754
0.02119	-1.17523
0.09770	-1.53234
0.09770	0.40625
-0.05531	0.48277
0.17421	1.32453
0.25071	1.09496
0.12320	0.91640
0.14870	-0.20594
0.17421	0.91640
0.27621	0.66132
0.14870	-0.56305
0.12320	-1.27726
0.14870	-0.61406
0.04670	-0.66508
-0.00431	0.48277
0.12320	0.43176
0.27621	0.86539
0.17421	1.57960
0.25071	-0.51203
0.22521	0.35523
0.22521	-0.48652
0.12320	-2.09351
-0.02981	1.09496
0.12320	0.83988
0.17421	0.32972
0.17421	0.55929
0.17421	0.96742
0.07220	-0.33348
0.02119	0.02363
0.09770	-0.41000
0.12320	0.17668
0.09770	0.20219
0.12320	-0.43551
0.27621	0.81437
0.32721	0.50828
0.19971	-0.35899
0.32721	0.76336
0.32721	0.78886
0.12320	-0.51203
0.07220	-0.38449
0.14870	-0.05289
0.14870	0.86539
-0.00431	-0.28246
-0.10631	0.10015
-0.00431	0.68683
-0.10631	-1.96597
0.22521	1.09496
0.50573	0.58480
0.40372	0.38074
0.22521	-1.20074
0.12320	-0.41000
-0.13181	0.94191
-0.08081	0.99292
0.07220	0.71234
0.30171	-0.58856
0.35272	0.38074
0.35272	-0.20594
0.30171	1.52859
0.27621	-0.61406
-0.00431	0.27871
-0.10631	-0.56305
-0.08081	0.30422
0.04670	0.53379
0.17421	0.07465
0.27621	-0.63957
0.35272	0.30422
0.19971	-0.02739
0.09770	0.55929
0.14870	0.12566
-0.10631	0.66132
-0.00431	0.55929
0.27621	0.50828
0.14870	-0.25695
0.27621	-1.12422
0.32721	0.38074
0.22521	-0.07840
0.30171	0.76336
0.22521	1.12046
0.07220	0.94191
-0.00431	-0.71609
-0.08081	0.17668
0.12320	0.83988
0.04670	-0.30797
0.14870	-2.09351
0.42922	-0.92016
0.25071	0.38074
0.25071	1.47757
0.22521	0.32972
0.07220	1.47757
0.12320	0.12566
0.19971	-0.48652
0.12320	0.15117
-0.05531	0.61031
-0.05531	-0.05289
0.14870	-0.92016
0.22521	0.25320
0.35272	1.01843
0.25071	0.25320
0.19971	-0.05289
0.22521	1.14597
-0.00431	-0.89465
0.17421	-0.02739
0.14870	-0.15492
0.09770	0.55929
0.14870	0.48277
0.17421	-0.20594
0.02119	0.76336
0.30171	0.22769
0.09770	-0.69059
0.25071	0.50828
0.12320	0.40625
0.14870	0.35523
0.17421	-0.56305
-0.00431	0.43176
0.30171	-1.37929
0.12320	-0.25695
0.14870	1.22250
0.12320	0.73785
0.04670	0.68683
0.22521	-0.12942
0.09770	1.29902
0.19971	0.27871
0.04670	0.10015
0.27621	-0.51203
0.12320	-0.71609
0.25071	0.22769
0.14870	-0.30797
0.22521	0.04914
-0.08081	0.94191
-0.00431	0.55929
-0.05531	0.81437
0.09770	-0.71609
0.02119	-0.38449
0.32721	0.50828
0.37822	-0.63957
0.27621	1.19699
-0.08081	-0.58856
0.55673	0.55929
0.45472	-0.00188
0.12320	-0.05289
-0.05531	0.73785
-0.10631	0.55929
-0.02981	0.32972
0.14870	-0.05289
0.07220	-0.92016
0.19971	-0.74160
0.17421	0.48277
0.25071	1.47757
0.25071	0.89089
0.12320	0.10015
0.12320	0.30422
0.02119	-0.28246
0.02119	-0.12942
0.25071	0.25320
0.17421	-0.76711
0.35272	0.22769
0.19971	0.17668
0.17421	0.04914
0.07220	-0.07840
0.17421	0.50828
-0.05531	0.40625
0.17421	0.76336
0.12320	-1.12422
0.30171	-0.63957
0.14870	-0.15492
0.25071	0.89089
-0.05531	0.63582
-0.08081	0.25320
0.09770	-0.00188
0.42922	0.81437
0.22521	1.12046
0.32721	1.37554
0.14870	-1.07320
0.27621	-0.43551
-0.23382	-0.56305
-0.00431	0.30422
0.07220	0.30422
0.32721	-0.10391
0.19971	-1.22625
0.14870	1.80917
0.09770	0.58480
0.09770	-1.04770
0.07220	0.04914
0.17421	-0.43551
0.12320	-0.25695
0.14870	0.61031
0.30171	1.27351
0.19971	1.24800
0.22521	0.55929
0.14870	0.76336
0.04670	-1.43031
0.12320	0.48277
0.02119	-1.35379
-0.00431	-1.25176
0.19971	1.50308
0.35272	0.89089
0.12320	0.32972
0.17421	-0.92016
-0.02981	0.89089
0.35272	0.94191
0.12320	-0.20594
0.22521	-0.56305
0.14870	0.45726
0.17421	-0.05289
0.12320	1.04394
0.14870	-0.76711
0.09770	-1.02219
0.04670	0.58480
0.14870	1.04394
0.22521	0.55929
0.17421	-0.12942
0.09770	-0.02739
-0.08081	-1.45582
0.17421	0.58480
0.12320	0.68683
0.27621	0.78886
0.22521	0.76336
0.19971	-0.58856
-0.02981	0.35523
-0.08081	0.07465
-0.02981	1.40105
0.40372	-0.28246
0.25071	-0.25695
0.35272	0.78886
0.09770	-1.22625
0.30171	-0.46102
0.04670	0.45726
0.09770	0.96742
0.04670	-0.66508
0.04670	-0.15492
-0.00431	0.76336
0.19971	1.40105
0.14870	-0.56305
0.19971	-1.55785
0.09770	-0.18043
0.32721	0.04914
0.14870	2.26831
0.12320	-0.12942
0.07220	1.12046
0.14870	-0.76711
0.07220	1.68163
0.09770	0.61031
0.17421	-0.61406
0.12320	-0.12942
0.25071	0.20219
0.19971	0.17668
0.17421	0.07465
0.14870	0.38074
0.17421	-0.07840
0.12320	-0.76711
0.02119	-0.25695
0.07220	-0.43551
0.12320	0.96742
0.32721	0.50828
0.14870	-0.00188
0.27621	0.32972
0.12320	0.12566
0.12320	0.35523
0.04670	0.04914
0.04670	-0.00188
0.04670	0.58480
0.12320	-0.30797
0.14870	0.96742
0.25071	0.22769
0.17421	-1.20074
0.32721	-0.58856
0.14870	0.99292
0.12320	0.25320
-0.00431	-0.53754
0.09770	0.99292
0.12320	1.12046
0.17421	0.20219
0.12320	-1.17523
0.19971	0.04914
0.04670	1.04394
0.19971	0.25320
0.25071	0.96742
0.22521	0.91640
0.27621	-0.61406
0.02119	-0.89465
0.17421	-0.38449
-0.05531	-1.35379
0.14870	0.17668
0.07220	0.96742
0.25071	1.40105
0.22521	-0.02739
0.17421	-0.41000
0.27621	0.15117
0.02119	0.76336
0.02119	0.38074
0.22521	-0.46102
0.30171	0.91640
0.19971	-0.12942
0.22521	0.50828
0.19971	-0.61406
0.17421	0.10015
0.22521	0.61031
0.09770	0.12566
-0.00431	-0.25695
0.14870	-0.53754
0.07220	0.78886
0.17421	0.53379
0.17421	0.10015
-0.02981	-0.25695
0.19971	0.10015
0.09770	0.15117
0.19971	0.58480
0.17421	0.43176
0.17421	-0.51203
0.14870	-0.25695
0.14870	0.66132
0.17421	0.04914
0.22521	2.19179
0.09770	-0.89465
0.14870	-0.10391
0.17421	-0.25695
0.22521	0.20219
0.12320	0.22769
0.14870	-0.76711
0.02119	2.26831
0.02119	-0.66508
0.02119	0.55929
-0.00431	0.20219
0.14870	0.04914
0.14870	-0.33348
0.42922	-0.66508
0.35272	-0.07840
0.35272	-0.10391
0.12320	0.40625
0.19971	0.73785
0.12320	1.09496
-0.02981	-1.71090
-0.08081	-0.41000
-0.05531	1.04394
0.17421	-0.00188
0.17421	1.01843
0.37822	0.38074
0.02119	0.02363
0.12320	0.76336
0.04670	0.43176
-0.00431	0.35523
0.17421	-1.30277
0.22521	0.76336
0.22521	-0.97117
0.12320	-0.79262
0.27621	0.10015
0.12320	1.27351
0.14870	0.96742
0.19971	0.17668
0.12320	-0.48652
0.04670	0.15117
-0.00431	0.12566
0.19971	0.32972
0.12320	0.22769
0.17421	-0.15492
0.40372	0.12566
