0.14870	0.22769
0.19971	0.15117
0.14870	0.25320
0.07220	0.40625
0.17421	0.20219
0.19971	0.12566
0.14870	-0.12942
0.17421	0.12566
0.14870	-0.02739
0.14870	0.07465
0.04670	-0.25695
0.07220	0.12566
0.14870	1.01843
0.22521	0.17668
0.14870	0.30422
0.09770	-1.22625
0.14870	0.76336
0.19971	0.50828
0.09770	0.25320
0.17421	0.17668
0.09770	0.22769
0.17421	0.15117
0.22521	0.27871
0.14870	-0.30797
0.12320	-1.07320
0.17421	-0.18043
0.17421	0.76336
0.07220	0.83988
0.14870	0.27871
0.19971	-0.00188
0.12320	0.27871
0.09770	0.27871
0.12320	0.32972
0.22521	-0.12942
0.22521	0.15117
0.09770	0.32972
0.12320	0.12566
0.12320	-0.35899
0.07220	-0.38449
0.12320	0.58480
0.25071	0.63582
0.14870	0.35523
0.07220	0.27871
0.12320	0.07465
0.22521	-0.00188
0.14870	0.22769
0.09770	0.17668
0.14870	0.22769
0.22521	0.15117
0.19971	-0.02739
0.17421	0.20219
0.07220	0.22769
0.14870	0.22769
0.17421	-0.48652
0.17421	0.10015
0.07220	0.25320
0.12320	0.07465
0.17421	0.20219
0.14870	0.61031
0.14870	0.66132
0.07220	0.22769
0.12320	0.15117
0.22521	-0.69059
0.14870	0.50828
0.09770	0.73785
0.14870	-0.38449
0.19971	-0.76711
0.14870	0.30422
0.09770	0.61031
0.09770	0.61031
0.14870	-0.05289
0.22521	0.02363
0.04670	0.17668
0.17421	0.20219
0.22521	0.17668
0.17421	0.15117
0.09770	-0.02739
0.12320	-0.43551
0.19971	0.10015
0.14870	0.35523
0.14870	0.15117
0.25071	0.50828
0.17421	0.38074
0.14870	0.32972
0.19971	-0.25695
0.14870	0.32972
0.14870	0.25320
0.19971	-0.02739
0.04670	0.32972
0.14870	0.15117
0.22521	0.04914
0.17421	0.02363
0.17421	-0.25695
0.14870	0.50828
0.22521	0.22769
0.12320	-0.28246
0.09770	-0.02739
0.07220	0.58480
0.17421	0.04914
0.22521	0.04914
0.12320	0.81437
0.09770	-1.17523
0.04670	1.04394
0.19971	0.55929
0.22521	-0.12942
0.14870	0.32972
0.07220	0.25320
0.14870	0.04914
0.22521	-0.07840
0.12320	-0.07840
0.07220	-0.05289
0.14870	0.55929
0.14870	0.17668
0.22521	0.20219
0.14870	0.22769
0.07220	-0.25695
0.14870	-0.46102
0.12320	0.15117
0.19971	0.81437
0.12320	0.35523
0.04670	-0.33348
0.14870	0.66132
0.19971	0.40625
0.19971	0.02363
0.14870	0.20219
0.12320	0.25320
0.04670	0.17668
0.17421	0.02363
0.17421	-0.00188
0.19971	0.02363
0.14870	-0.07840
0.14870	0.07465
0.07220	0.02363
0.14870	0.25320
0.22521	0.22769
0.22521	0.17668
0.07220	-0.10391
0.14870	0.35523
0.12320	0.40625
0.14870	0.30422
0.07220	0.38074
0.14870	0.27871
0.19971	0.17668
0.17421	-0.41000
0.07220	0.12566
0.14870	-0.00188
0.14870	0.53379
0.22521	0.35523
0.12320	-0.10391
0.17421	-0.89465
0.12320	0.63582
0.07220	0.76336
0.17421	0.63582
0.14870	-0.18043
0.12320	-0.05289
0.22521	-0.23145
0.14870	0.40625
0.17421	0.22769
0.14870	-0.05289
0.17421	0.27871
0.19971	0.02363
0.14870	-0.05289
0.09770	0.15117
0.09770	0.25320
0.17421	-0.23145
0.07220	0.89089
0.17421	0.12566
0.14870	-0.07840
0.07220	-0.33348
0.09770	0.27871
0.14870	0.32972
0.17421	0.27871
0.22521	0.38074
0.22521	0.15117
0.14870	0.40625
0.17421	-0.97117
0.12320	0.45726
0.07220	0.61031
0.04670	-0.00188
0.07220	0.22769
0.07220	0.25320
0.12320	0.66132
0.19971	0.45726
0.22521	0.35523
0.17421	-0.84363
0.17421	-0.46102
0.17421	0.15117
0.09770	0.35523
0.14870	0.15117
0.19971	0.35523
0.19971	0.12566
0.14870	0.07465
0.14870	0.15117
0.09770	0.25320
0.14870	0.35523
0.19971	0.22769
0.14870	0.07465
0.19971	0.02363
0.22521	-0.38449
0.14870	0.35523
0.14870	0.48277
0.07220	0.38074
0.07220	0.30422
0.07220	0.02363
0.14870	0.32972
0.14870	-0.30797
0.22521	0.10015
0.14870	-0.41000
0.12320	0.32972
0.09770	0.66132
0.25071	0.40625
0.12320	-0.20594
0.12320	0.17668
0.09770	-0.12942
0.12320	0.22769
0.17421	0.15117
0.22521	-0.05289
0.12320	0.53379
0.12320	0.17668
0.12320	-0.35899
0.17421	0.32972
0.14870	0.61031
0.17421	-0.18043
0.09770	-0.00188
0.12320	0.40625
0.07220	0.25320
0.09770	0.12566
0.09770	-0.02739
0.17421	0.25320
0.17421	0.27871
0.22521	0.10015
0.12320	0.22769
0.17421	0.15117
0.07220	0.17668
0.14870	-0.20594
0.17421	0.04914
0.22521	0.32972
0.14870	0.15117
0.12320	0.40625
0.12320	-0.10391
0.17421	0.50828
0.19971	0.07465
0.12320	-0.12942
0.07220	-0.28246
0.17421	0.53379
0.12320	0.50828
0.22521	0.15117
0.19971	0.02363
0.14870	0.32972
0.14870	-0.35899
0.09770	0.17668
0.07220	0.27871
0.09770	0.12566
0.07220	0.25320
0.14870	0.22769
0.14870	0.04914
0.17421	0.20219
0.19971	0.20219
0.12320	0.15117
0.14870	-0.20594
0.09770	-0.46102
0.09770	0.25320
0.17421	0.61031
0.12320	0.38074
0.22521	-0.30797
0.14870	0.55929
0.14870	-0.15492
0.07220	0.38074
0.07220	0.30422
0.14870	-0.12942
0.19971	0.40625
0.27621	0.17668
0.07220	-0.10391
0.12320	0.15117
0.12320	0.40625
0.17421	0.04914
0.12320	-0.12942
0.09770	0.12566
0.14870	-0.30797
0.22521	0.10015
0.14870	0.43176
0.12320	0.35523
0.09770	0.50828
0.14870	0.40625
0.17421	0.17668
0.12320	0.07465
0.07220	0.15117
0.12320	0.12566
0.22521	-0.10391
0.14870	0.02363
0.09770	-0.07840
0.14870	-0.12942
0.19971	0.17668
0.14870	0.22769
0.14870	0.38074
0.12320	0.02363
0.12320	-0.25695
0.14870	0.12566
0.07220	0.58480
0.14870	0.45726
0.22521	0.15117
0.09770	0.76336
0.14870	0.40625
0.22521	0.12566
0.17421	0.07465
0.07220	0.25320
0.14870	0.10015
0.19971	-0.18043
0.14870	-0.33348
0.17421	-0.05289
0.22521	-0.43551
0.19971	0.25320
0.09770	0.43176
0.14870	0.66132
0.12320	0.04914
0.22521	0.25320
0.14870	0.30422
0.17421	0.25320
0.07220	0.35523
0.17421	-0.33348
0.19971	0.22769
0.14870	-0.12942
0.07220	0.02363
0.14870	0.55929
0.14870	0.17668
0.17421	-0.63957
0.12320	0.83988
0.14870	0.68683
0.12320	0.63582
0.19971	-0.20594
0.12320	-0.35899
0.17421	0.20219
0.07220	-0.33348
0.12320	0.48277
0.14870	0.15117
0.19971	-0.28246
0.22521	0.10015
0.22521	0.25320
0.17421	0.10015
0.04670	-0.10391
0.09770	-0.35899
0.14870	0.55929
0.22521	0.50828
0.14870	0.45726
0.09770	0.76336
0.19971	0.17668
0.12320	-0.81812
0.17421	-0.38449
0.19971	0.15117
0.14870	0.63582
0.09770	0.38074
0.14870	0.81437
0.09770	0.30422
0.22521	-0.58856
0.19971	0.17668
0.17421	0.15117
0.07220	0.04914
0.14870	0.40625
0.22521	0.38074
0.22521	0.10015
0.09770	-0.56305
0.14870	0.02363
0.07220	-0.43551
0.07220	-0.15492
0.17421	0.25320
0.22521	0.76336
0.25071	0.55929
0.17421	0.07465
0.12320	0.38074
0.07220	0.04914
0.14870	-0.25695
0.12320	-0.12942
0.17421	0.89089
0.22521	0.15117
0.19971	-0.28246
0.12320	-0.15492
0.07220	0.45726
0.12320	0.20219
0.12320	0.40625
0.22521	0.15117
0.17421	0.02363
0.17421	0.22769
0.09770	-0.02739
0.12320	0.02363
0.12320	0.27871
0.19971	0.10015
0.12320	-0.23145
0.04670	0.04914
0.04670	0.48277
0.14870	0.12566
0.14870	0.78886
0.25071	-0.41000
0.22521	0.27871
0.14870	-0.66508
0.07220	0.89089
0.12320	0.10015
0.14870	0.02363
0.17421	0.61031
0.19971	0.61031
0.12320	-0.18043
0.12320	-0.12942
0.12320	0.50828
0.22521	0.20219
0.14870	-0.23145
0.09770	-0.05289
0.14870	-0.18043
0.19971	-0.23145
0.14870	0.35523
0.09770	0.45726
0.14870	0.45726
0.19971	0.20219
0.12320	-0.20594
0.09770	0.40625
0.14870	0.27871
0.22521	0.38074
0.07220	-0.02739
0.14870	-0.15492
0.22521	-0.18043
0.09770	0.43176
0.12320	0.15117
0.19971	0.55929
0.14870	-0.05289
0.09770	0.20219
0.14870	-0.46102
0.14870	0.71234
0.17421	0.68683
0.14870	0.61031
0.14870	-0.02739
0.19971	-1.02219
0.09770	0.22769
0.04670	0.63582
0.09770	-0.30797
0.12320	0.53379
0.14870	0.76336
0.27621	0.04914
0.32721	-0.56305
0.12320	0.20219
0.25071	-0.81812
0.19971	0.86539
-0.02981	-1.04770
-0.18282	-0.41000
-0.10631	2.49788
-0.15732	0.71234
-0.00431	1.37554
0.65874	-3.41992
0.63323	0.55929
0.50573	1.68163
0.22521	1.14597
0.07220	-2.14453
-0.05531	-0.30797
-0.13181	1.22250
-0.15732	-2.45062
-0.31033	2.37034
0.42922	2.70194
0.53123	-3.93007
0.17421	-4.44022
0.17421	0.99292
0.37822	2.42136
0.25071	4.38546
-0.00431	-0.58856
-0.13181	-1.50683
-0.08081	-0.35899
0.42922	-1.58336
0.27621	3.54370
0.12320	4.71706
0.14870	-5.89417
-0.10631	3.64573
0.30171	-3.31788
-0.00431	-2.11902
0.27621	0.89089
-0.38683	5.04866
-0.61635	-3.34339
-0.25932	1.68163
1.04126	4.33444
1.11776	-3.31788
0.83725	-3.49644
0.65874	1.45206
0.73524	4.94663
0.32721	0.12566
0.19971	-5.10343
-0.97337	-2.52714
-0.76936	1.19699
0.22521	0.48277
-0.02981	6.85971
-0.41233	-1.99148
-1.30489	2.16628
-1.25389	0.66132
0.30171	0.76336
1.42379	-0.79262
1.75531	-0.84363
1.29628	0.76336
1.11776	-1.43031
0.40372	-2.62918
0.04670	-0.76711
-0.43783	1.98773
-0.64185	0.20219
-0.10631	3.64573
-0.08081	0.35523
-0.18282	0.43176
-0.28482	0.00000
-0.13181	-5.99620
0.25071	0.15117
0.30171	0.58480
0.27621	1.27351
0.19971	-0.46102
0.25071	0.63582
0.30171	-0.74160
0.14870	5.48229
0.27621	-1.60887
0.40372	-4.95038
0.22521	1.22250
0.19971	4.61503
0.09770	0.38074
0.12320	-2.29757
-0.18282	1.27351
-0.02981	0.30422
-0.33583	-0.07840
0.42922	-0.41000
0.91375	-1.71090
0.35272	-0.94566
0.22521	-2.37410
-0.08081	5.32924
-0.51434	1.32453
0.17421	2.19179
0.42922	0.27871
0.55673	-2.09351
0.37822	-1.09871
0.17421	2.39585
-0.05531	-3.54745
-0.56534	-1.22625
-0.51434	-0.05289
-0.05531	0.63582
0.19971	1.19699
0.40372	1.24800
0.40372	-1.30277
0.53123	-1.22625
0.32721	1.04394
0.22521	-0.58856
0.19971	1.45206
0.22521	2.24281
0.22521	0.86539
-0.23382	-3.13933
-0.33583	1.42656
0.12320	1.50308
0.53123	2.52339
0.14870	0.55929
0.14870	-1.53234
0.17421	-0.63957
0.22521	-0.05289
0.17421	-0.48652
0.53123	0.35523
0.17421	-1.78742
-0.38683	0.35523
-0.38683	-0.51203
-0.48884	-0.56305
0.14870	0.53379
0.58223	0.12566
0.60773	0.48277
0.60773	0.61031
0.32721	0.25320
0.19971	1.22250
0.07220	0.22769
-0.05531	-1.09871
0.07220	0.81437
0.07220	1.80917
-0.18282	-0.94566
0.07220	-3.36890
0.07220	0.35523
0.02119	0.25320
0.25071	0.94191
0.32721	1.75816
0.32721	0.99292
0.07220	1.06945
0.25071	-1.81293
0.12320	-1.76191
0.19971	0.61031
0.12320	1.50308
0.17421	-0.51203
0.12320	2.57441
-0.08081	-2.83324
0.07220	0.35523
0.22521	0.25320
0.22521	1.27351
0.19971	-2.29757
0.04670	-1.22625
0.02119	0.94191
0.14870	1.01843
0.19971	0.94191
0.07220	1.37554
0.19971	2.34484
0.07220	0.94191
0.22521	0.02363
0.19971	0.40625
0.07220	-3.87905
0.17421	-3.34339
0.09770	0.66132
0.17421	1.24800
0.22521	1.24800
0.12320	1.40105
0.02119	-0.18043
0.04670	0.73785
0.02119	1.40105
0.12320	-0.58856
0.30171	-1.58336
0.12320	0.07465
0.40372	0.10015
0.09770	1.17148
0.07220	2.08976
0.22521	-3.16484
0.22521	1.45206
0.25071	-0.05289
0.22521	1.29902
0.14870	1.88570
0.04670	1.91120
-0.02981	-5.12893
0.02119	-2.04250
0.17421	0.86539
0.35272	1.68163
0.09770	1.57960
0.07220	1.68163
0.17421	-0.38449
0.09770	-0.33348
0.14870	1.09496
0.19971	-0.89465
0.22521	0.63582
0.07220	-0.79262
0.04670	-0.00188
0.17421	0.07465
0.22521	1.37554
0.22521	1.57960
0.12320	0.43176
0.14870	0.38074
0.12320	-0.63957
0.02119	-0.76711
0.07220	0.76336
0.30171	1.06945
0.30171	0.10015
0.19971	0.25320
0.12320	0.15117
-0.05531	-2.22105
0.17421	1.88570
-0.08081	0.66132
-0.08081	-2.19554
0.27621	-0.38449
-0.08081	0.66132
0.32721	1.96222
0.35272	1.01843
0.32721	0.30422
0.25071	0.20219
0.12320	0.76336
0.12320	0.71234
0.09770	-1.27726
-0.02981	-1.17523
0.12320	0.96742
0.17421	0.45726
0.27621	0.81437
0.14870	0.91640
0.17421	-1.91496
0.19971	0.40625
0.12320	0.91640
0.19971	2.16628
0.27621	-1.53234
0.30171	0.35523
-0.00431	0.40625
-0.00431	-0.15492
0.09770	0.78886
0.09770	0.83988
0.22521	0.86539
0.30171	0.22769
0.32721	-1.43031
0.19971	0.07465
0.14870	-1.43031
0.14870	-0.15492
0.04670	-1.09871
-0.13181	1.68163
0.27621	1.24800
0.02119	0.12566
-0.23382	-0.05289
0.35272	0.45726
0.35272	0.63582
0.40372	1.04394
0.40372	0.50828
0.32721	-1.40480
0.30171	0.76336
0.02119	-0.76711
-0.08081	-1.50683
-0.02981	0.50828
0.02119	1.17148
0.02119	0.04914
0.12320	0.68683
0.02119	1.01843
0.19971	0.35523
0.14870	-0.41000
0.07220	0.55929
0.14870	-0.53754
0.09770	-1.35379
0.45472	0.30422
0.48022	0.96742
0.12320	0.02363
0.07220	-0.00188
0.09770	-0.58856
0.09770	0.38074
0.02119	-0.48652
0.32721	1.35003
0.22521	0.22769
0.37822	0.38074
0.12320	-1.04770
0.04670	0.45726
-0.10631	-0.69059
0.07220	0.68683
0.12320	0.25320
0.14870	1.47757
0.12320	0.10015
0.42922	-0.53754
-0.00431	0.10015
0.19971	-0.12942
0.14870	-0.97117
0.04670	1.04394
0.12320	-0.33348
0.25071	0.58480
-0.02981	-0.51203
0.14870	0.63582
0.12320	-0.30797
0.25071	1.27351
0.17421	-0.38449
0.12320	0.35523
0.17421	0.63582
0.12320	0.55929
0.17421	-0.15492
0.09770	1.09496
0.12320	-0.05289
-0.00431	-1.81293
0.17421	0.32972
0.17421	1.47757
0.17421	-0.56305
0.09770	1.12046
0.25071	0.38074
0.19971	-0.74160
-0.02981	-0.35899
-0.08081	-0.46102
-0.00431	1.57960
0.37822	-0.02739
0.45472	1.32453
0.22521	-0.12942
0.14870	1.14597
0.04670	0.89089
0.17421	-1.91496
0.09770	0.53379
0.14870	1.01843
0.17421	-0.15492
0.25071	-0.46102
0.27621	0.53379
0.09770	0.32972
0.02119	0.50828
0.02119	-0.33348
-0.33583	-1.17523
0.02119	0.96742
0.42922	0.53379
0.48022	0.61031
0.37822	0.76336
0.17421	-0.81812
0.07220	0.53379
0.22521	0.27871
0.07220	0.45726
0.02119	0.66132
0.02119	-0.53754
-0.23382	-3.62398
0.35272	-0.00188
0.58223	1.47757
0.27621	1.27351
0.04670	0.83988
-0.18282	1.24800
0.02119	-0.35899
0.27621	0.86539
0.25071	-0.56305
0.22521	0.45726
0.19971	0.76336
0.14870	-0.20594
0.02119	-1.25176
0.04670	0.45726
-0.00431	0.83988
0.12320	0.15117
0.30171	-0.86914
0.17421	1.04394
0.22521	0.50828
0.30171	-0.63957
0.09770	0.53379
0.09770	0.22769
-0.08081	-0.25695
-0.08081	0.43176
0.14870	-0.56305
0.45472	0.61031
0.27621	2.62542
0.14870	-1.40480
0.12320	-1.14973
-0.00431	0.38074
0.02119	0.12566
0.35272	0.27871
0.32721	1.80917
0.12320	0.40625
0.02119	-1.40480
-0.00431	-0.25695
0.09770	1.37554
0.02119	0.48277
0.04670	-0.56305
0.14870	-0.38449
0.22521	0.68683
0.22521	-0.12942
0.27621	-1.27726
0.04670	1.22250
-0.02981	0.81437
0.19971	-0.20594
0.07220	0.78886
0.35272	-0.12942
0.32721	-0.53754
0.25071	0.35523
0.22521	-0.66508
0.04670	0.45726
-0.00431	0.71234
0.14870	1.22250
0.19971	-0.23145
0.02119	-2.11902
0.17421	2.59991
0.27621	-1.27726
0.22521	0.02363
-0.00431	1.88570
0.02119	0.20219
-0.00431	-0.89465
0.30171	1.32453
0.32721	-1.55785
0.17421	0.07465
0.17421	0.73785
0.14870	-0.69059
0.19971	0.15117
0.12320	0.43176
0.19971	0.15117
0.17421	-2.01699
0.19971	0.61031
0.09770	1.45206
0.17421	0.02363
-0.05531	0.27871
-0.18282	0.76336
0.07220	0.58480
0.22521	0.35523
0.17421	0.30422
0.17421	-0.48652
0.19971	0.45726
0.37822	-1.04770
0.14870	-1.25176
0.12320	-0.51203
0.17421	1.14597
0.14870	1.06945
-0.05531	0.27871
-0.05531	0.40625
0.42922	1.42656
0.22521	-1.25176
0.19971	0.68683
0.22521	0.45726
0.19971	0.63582
0.14870	-0.00188
0.12320	-0.66508
0.09770	-0.12942
0.07220	1.42656
-0.00431	-0.15492
0.04670	0.45726
0.17421	-0.07840
0.22521	-1.14973
0.17421	1.73265
0.27621	-0.33348
0.27621	-0.18043
0.09770	-0.05289
-0.00431	0.22769
0.02119	1.04394
0.04670	1.06945
0.22521	1.06945
0.40372	-1.60887
0.35272	0.17668
0.32721	-0.51203
0.17421	-0.69059
0.07220	0.48277
0.12320	-0.33348
0.17421	0.55929
0.07220	-0.69059
0.02119	-0.20594
-0.05531	0.89089
0.17421	1.22250
0.27621	0.02363
0.25071	0.71234
0.12320	0.07465
0.07220	0.27871
-0.02981	-0.12942
0.09770	0.40625
0.12320	-0.10391
0.19971	-0.15492
0.35272	0.32972
0.42922	-0.43551
0.22521	-0.05289
0.19971	1.24800
0.19971	0.68683
-0.05531	0.86539
-0.02981	-0.25695
-0.08081	-0.28246
0.09770	1.04394
0.25071	-1.86394
0.40372	-1.02219
0.22521	0.22769
-0.00431	1.32453
0.09770	-0.56305
0.35272	1.40105
0.22521	0.55929
-0.02981	1.01843
-0.05531	-0.30797
0.19971	-0.30797
0.27621	-0.33348
0.37822	0.68683
0.17421	-0.18043
0.17421	1.04394
-0.00431	0.86539
-0.10631	0.40625
0.07220	-0.25695
0.12320	0.78886
0.32721	-0.86914
0.30171	-0.69059
0.27621	-0.94566
0.14870	0.50828
0.09770	0.45726
0.09770	1.73265
0.25071	-0.38449
0.19971	-0.12942
0.12320	2.44687
0.09770	-2.17003
0.12320	-0.86914
0.04670	0.78886
0.07220	0.81437
0.07220	1.04394
0.19971	0.76336
0.17421	-1.65988
0.22521	-0.97117
0.14870	-0.58856
0.12320	1.01843
0.25071	0.91640
0.22521	0.71234
0.07220	0.50828
-0.13181	0.78886
0.02119	0.71234
0.30171	0.45726
0.22521	-1.48133
0.22521	-0.18043
0.25071	-0.07840
0.25071	-0.18043
0.22521	0.22769
0.02119	0.10015
0.02119	-0.28246
0.02119	0.27871
0.07220	-0.84363
0.14870	0.48277
0.32721	0.68683
0.27621	0.96742
0.19971	0.99292
0.14870	0.43176
0.27621	0.38074
0.12320	-0.51203
0.12320	-1.20074
0.07220	0.66132
-0.08081	0.50828
0.07220	0.12566
0.12320	0.35523
0.07220	-0.86914
0.09770	2.06425
0.45472	-0.33348
0.53123	-0.48652
-0.00431	0.71234
-0.02981	-0.61406
0.17421	0.94191
0.22521	-1.12422
0.17421	1.24800
0.17421	-1.07320
0.14870	-0.05289
0.07220	1.75816
0.09770	0.22769
0.07220	-1.63437
0.04670	0.17668
0.17421	1.52859
0.30171	0.61031
0.12320	0.07465
0.07220	0.22769
0.07220	0.66132
0.02119	-0.97117
0.14870	-0.18043
0.19971	-1.17523
0.32721	0.96742
0.32721	1.27351
0.12320	0.53379
0.04670	-0.30797
0.07220	-0.15492
0.07220	0.96742
0.09770	0.02363
-0.02981	0.53379
0.14870	-0.74160
0.22521	0.66132
0.12320	-0.07840
0.22521	0.25320
0.17421	0.38074
0.04670	0.89089
0.09770	-0.41000
0.25071	0.45726
0.02119	-1.27726
0.07220	-0.23145
0.53123	0.86539
0.35272	0.55929
0.17421	0.30422
0.12320	-0.18043
-0.05531	1.09496
-0.25932	0.78886
0.17421	-0.10391
0.30171	0.58480
0.19971	-1.07320
0.32721	-0.25695
0.27621	0.83988
0.12320	0.27871
0.04670	-0.81812
0.12320	0.45726
-0.00431	1.40105
0.02119	0.45726
0.12320	-1.55785
0.22521	-0.92016
0.27621	0.45726
0.09770	0.78886
0.04670	-0.20594
0.27621	1.17148
0.09770	1.04394
0.19971	0.20219
0.19971	0.27871
-0.05531	0.53379
0.07220	0.86539
0.37822	-2.14453
0.19971	0.35523
-0.08081	-0.02739
0.22521	1.37554
0.32721	-0.76711
0.17421	0.53379
0.09770	1.04394
0.07220	-0.35899
0.09770	1.37554
0.27621	1.22250
0.07220	-1.17523
0.04670	-0.07840
0.25071	-0.99668
0.12320	-0.58856
0.14870	0.15117
0.22521	2.11527
0.07220	1.12046
0.14870	-1.09871
0.32721	-1.40480
0.22521	1.17148
0.12320	1.09496
0.09770	-0.10391
0.17421	-0.66508
0.17421	0.66132
0.22521	1.06945
0.22521	-0.48652
0.19971	0.17668
0.02119	-1.25176
0.07220	0.55929
0.12320	0.73785
0.07220	1.37554
0.17421	-0.33348
0.17421	-1.58336
0.12320	0.73785
0.19971	0.94191
0.22521	0.43176
0.22521	-0.51203
0.07220	0.25320
0.19971	0.68683
0.32721	0.25320
0.09770	0.73785
-0.05531	-0.79262
-0.05531	-0.35899
-0.13181	-0.61406
0.40372	1.42656
0.22521	-1.20074
0.25071	0.96742
0.17421	0.38074
0.27621	-0.23145
0.22521	-0.23145
0.12320	0.71234
0.04670	1.22250
0.14870	0.50828
0.22521	-0.07840
-0.00431	-0.61406
0.12320	-0.25695
0.27621	0.07465
0.12320	-0.15492
0.02119	1.17148
-0.02981	1.12046
0.02119	-1.14973
0.07220	-2.57816
0.30171	-0.28246
0.19971	1.19699
0.09770	0.78886
0.32721	1.04394
0.19971	0.63582
0.02119	-0.51203
0.25071	0.22769
0.30171	0.07465
0.17421	-0.23145
0.07220	-0.10391
-0.00431	0.45726
0.30171	0.17668
0.12320	1.22250
0.07220	-0.92016
-0.00431	0.43176
-0.08081	-2.62918
0.25071	0.76336
0.30171	2.03874
0.22521	-1.07320
0.12320	0.22769
0.14870	0.68683
0.25071	0.58480
0.12320	1.63062
0.02119	-0.66508
0.12320	-1.12422
0.14870	-0.10391
0.22521	0.04914
0.17421	-2.45062
0.09770	0.53379
0.25071	1.75816
0.09770	1.57960
0.07220	-0.79262
0.14870	1.04394
0.14870	0.66132
-0.08081	-1.37929
0.09770	-0.00188
0.30171	-0.15492
0.22521	-0.41000
0.17421	0.53379
0.25071	0.48277
0.30171	1.27351
0.12320	0.32972
-0.00431	-0.51203
0.14870	0.58480
0.12320	0.48277
-0.08081	-0.79262
0.09770	0.58480
0.17421	0.25320
0.07220	-2.22105
0.22521	1.32453
0.35272	-0.10391
0.30171	0.55929
0.17421	0.71234
0.12320	-1.04770
0.19971	0.63582
0.22521	1.27351
0.12320	-0.33348
0.04670	-0.58856
0.09770	0.86539
0.25071	0.55929
0.19971	-0.07840
0.04670	0.15117
0.09770	0.27871
0.17421	0.45726
0.25071	0.15117
0.17421	0.43176
0.09770	-0.10391
-0.02981	-0.79262
-0.00431	0.83988
-0.02981	0.17668
0.27621	-0.07840
0.37822	-1.25176
0.35272	0.71234
0.35272	0.30422
0.19971	-0.20594
0.07220	0.04914
-0.10631	-0.02739
-0.36133	0.58480
0.07220	0.25320
0.12320	-0.33348
0.42922	0.71234
0.30171	1.19699
0.22521	0.10015
0.07220	0.07465
0.09770	0.86539
0.12320	0.83988
0.25071	-2.45062
0.17421	0.35523
0.12320	0.50828
0.30171	-0.38449
0.12320	0.22769
0.07220	0.38074
0.07220	-0.05289
0.02119	0.76336
-0.25932	0.53379
0.12320	-0.02739
0.17421	-0.00188
0.50573	-0.66508
0.48022	-0.71609
0.35272	0.63582
0.14870	0.15117
0.14870	0.96742
0.04670	0.30422
0.17421	0.30422
0.12320	0.94191
-0.00431	-0.99668
0.02119	1.35003
0.14870	0.07465
0.19971	-0.53754
0.12320	-0.97117
0.12320	1.06945
0.09770	-1.17523
0.07220	0.63582
0.22521	1.37554
0.19971	-0.23145
0.19971	0.22769
0.19971	-0.84363
0.09770	1.52859
0.07220	0.68683
0.09770	-0.18043
0.17421	-0.66508
0.30171	0.02363
0.25071	-0.28246
0.22521	0.71234
0.12320	-0.23145
0.22521	-0.66508
0.17421	0.86539
-0.05531	0.48277
-0.02981	-0.35899
0.04670	-0.81812
0.07220	0.89089
0.27621	1.17148
0.30171	1.65613
0.14870	-2.68019
0.19971	0.76336
0.09770	1.50308
0.02119	0.76336
-0.18282	-0.56305
0.19971	0.30422
0.35272	0.43176
0.32721	0.91640
0.30171	-0.05289
0.12320	-1.50683
0.04670	-0.66508
0.04670	-0.76711
0.12320	0.48277
0.27621	0.53379
0.09770	0.48277
0.12320	0.48277
0.09770	0.78886
0.07220	-0.30797
0.19971	0.45726
0.12320	-0.30797
-0.05531	0.07465
0.14870	0.76336
0.19971	0.63582
0.17421	-0.48652
0.27621	-0.12942
0.04670	0.38074
0.09770	-1.09871
0.37822	1.57960
0.17421	-0.28246
0.27621	0.45726
0.14870	0.17668
0.02119	0.53379
0.17421	-0.51203
0.12320	-0.48652
0.17421	0.35523
0.27621	1.01843
0.17421	-0.18043
0.19971	0.68683
0.09770	-0.18043
0.07220	-0.58856
0.07220	0.73785
0.09770	-0.28246
0.12320	0.38074
-0.13181	-0.10391
0.19971	-0.35899
0.32721	-0.20594
0.22521	1.06945
0.25071	0.94191
0.22521	-0.15492
-0.00431	-0.05289
0.09770	1.47757
0.19971	0.20219
0.19971	-1.45582
0.25071	0.38074
-0.08081	-0.58856
-0.05531	0.83988
0.30171	-0.30797
0.32721	1.06945
0.02119	0.71234
-0.02981	-0.30797
0.25071	0.02363
0.27621	0.10015
0.14870	0.12566
0.04670	0.02363
0.17421	0.78886
0.19971	-0.00188
0.07220	-1.14973
0.12320	0.81437
0.17421	0.63582
0.27621	-1.04770
0.12320	0.43176
0.12320	0.38074
0.17421	0.96742
0.02119	0.66132
0.19971	-0.66508
0.09770	-0.56305
0.12320	0.40625
0.09770	0.35523
0.22521	0.35523
0.30171	-0.15492
0.19971	1.12046
0.27621	0.58480
0.14870	-0.02739
0.12320	-1.17523
0.14870	0.78886
0.14870	-0.81812
0.12320	0.43176
-0.05531	0.35523
-0.05531	0.78886
0.14870	0.53379
0.22521	-0.20594
0.14870	-0.89465
0.19971	0.20219
0.30171	0.02363
0.22521	0.50828
0.32721	0.40625
0.17421	0.63582
0.09770	0.96742
0.04670	-1.02219
0.07220	-0.20594
-0.00431	0.66132
0.09770	-0.00188
0.25071	0.12566
0.27621	-1.37929
0.14870	0.76336
0.19971	0.17668
0.09770	0.78886
0.02119	0.43176
0.07220	0.55929
0.07220	0.27871
0.14870	-0.38449
0.02119	-0.07840
-0.02981	0.89089
0.32721	0.55929
0.30171	-1.27726
0.19971	-1.07320
0.27621	-0.41000
0.27621	0.78886
0.17421	0.40625
0.04670	0.45726
-0.25932	0.63582
-0.02981	-0.38449
0.22521	0.86539
0.27621	0.71234
0.27621	-0.20594
0.27621	-0.02739
0.12320	-0.51203
0.04670	0.15117
0.19971	0.76336
0.22521	-0.12942
-0.00431	0.50828
0.04670	-0.10391
0.17421	-1.04770
0.07220	0.50828
0.14870	0.38074
0.25071	-0.02739
0.19971	0.32972
0.19971	-0.02739
0.07220	0.55929
0.12320	0.50828
0.27621	-0.51203
0.17421	0.81437
0.09770	-0.15492
0.25071	-0.51203
0.09770	1.01843
0.09770	-0.71609
-0.08081	0.50828
-0.18282	0.83988
0.32721	0.38074
0.32721	0.71234
0.32721	-0.33348
0.14870	-0.74160
0.17421	0.35523
0.07220	0.45726
0.19971	0.25320
0.27621	0.10015
0.19971	0.76336
0.04670	0.12566
0.07220	-1.27726
0.02119	0.68683
-0.13181	-0.53754
0.12320	0.48277
0.30171	0.20219
0.14870	0.66132
0.12320	0.48277
0.25071	0.61031
0.17421	0.89089
0.09770	-0.56305
0.14870	0.48277
0.17421	0.61031
0.07220	0.50828
0.14870	-0.63957
0.25071	-0.30797
0.17421	0.12566
0.09770	0.20219
0.07220	-0.30797
0.12320	0.07465
0.12320	0.12566
0.02119	-0.25695
0.12320	0.40625
0.27621	1.42656
0.32721	0.68683
0.19971	-0.71609
-0.10631	0.27871
0.04670	-0.94566
0.04670	1.27351
0.30171	-0.12942
0.14870	-0.74160
0.30171	0.76336
0.14870	0.86539
0.04670	0.38074
0.04670	0.25320
0.19971	-0.51203
0.27621	0.58480
0.12320	-0.41000
0.07220	1.06945
0.02119	1.17148
0.02119	-1.65988
0.19971	-0.66508
0.32721	-0.51203
0.22521	0.35523
0.25071	-0.81812
0.17421	1.29902
0.07220	1.40105
0.09770	0.94191
0.09770	-0.25695
0.19971	0.89089
0.25071	1.14597
0.12320	-1.65988
0.02119	-0.20594
0.12320	0.71234
0.17421	-0.20594
0.30171	-0.07840
0.27621	0.35523
0.02119	0.12566
0.12320	0.25320
-0.05531	0.30422
0.22521	0.20219
0.27621	-0.74160
0.09770	0.12566
0.25071	1.04394
0.04670	-2.27207
0.25071	0.61031
0.14870	0.81437
-0.13181	0.81437
0.12320	1.12046
0.19971	-0.81812
0.12320	0.04914
0.19971	0.66132
0.12320	-0.28246
0.12320	0.40625
0.22521	0.50828
0.09770	0.50828
0.14870	0.22769
0.25071	-0.00188
0.27621	-0.20594
0.07220	0.07465
0.22521	0.66132
0.02119	-0.20594
0.17421	-1.63437
0.14870	-0.43551
0.14870	0.66132
0.02119	0.58480
0.07220	0.17668
0.02119	0.81437
0.04670	0.55929
0.32721	0.43176
0.37822	-0.33348
0.22521	0.55929
0.14870	0.17668
0.17421	-0.69059
0.17421	0.81437
0.14870	0.61031
0.14870	0.30422
0.02119	0.10015
-0.05531	0.32972
-0.13181	-1.35379
0.04670	-2.14453
0.12320	0.96742
0.30171	1.45206
0.35272	1.12046
0.22521	-0.35899
0.14870	1.04394
0.09770	0.73785
-0.08081	-1.09871
0.12320	-0.35899
0.12320	0.32972
0.48022	0.25320
0.30171	0.83988
0.17421	0.07465
0.27621	0.22769
0.12320	-0.25695
-0.10631	-0.66508
0.07220	0.76336
0.09770	0.17668
0.12320	-0.53754
0.30171	0.02363
0.27621	0.38074
0.12320	0.35523
0.14870	0.55929
0.12320	0.35523
-0.00431	0.45726
0.14870	0.04914
0.14870	-0.12942
0.09770	0.73785
0.12320	0.66132
0.14870	-1.73640
0.09770	0.99292
0.27621	-0.35899
0.22521	-0.07840
0.30171	0.66132
0.17421	1.37554
0.02119	0.78886
-0.05531	0.27871
-0.00431	-1.45582
0.25071	0.10015
0.19971	0.10015
0.14870	-0.69059
0.30171	1.01843
0.25071	0.86539
0.09770	0.45726
0.12320	-0.18043
0.17421	-0.18043
0.07220	-0.20594
0.14870	-0.00188
0.09770	0.53379
0.04670	0.94191
0.07220	0.40625
0.07220	-1.32828
0.27621	-0.25695
0.30171	-0.18043
0.27621	1.09496
0.17421	0.35523
0.12320	-0.07840
0.04670	0.91640
-0.00431	0.66132
0.12320	-0.76711
0.22521	-0.23145
0.30171	-0.48652
0.25071	-0.66508
-0.00431	0.12566
0.09770	0.96742
0.09770	1.24800
0.14870	0.71234
0.12320	0.12566
0.17421	-0.30797
0.09770	0.20219
0.14870	0.30422
0.07220	-0.41000
0.09770	0.02363
0.27621	-0.33348
0.32721	0.73785
0.25071	-0.10391
0.19971	-0.46102
0.07220	-0.48652
0.02119	0.48277
0.04670	1.01843
0.14870	0.73785
0.07220	-0.15492
0.19971	-0.61406
0.42922	-0.15492
0.12320	0.58480
0.07220	0.38074
0.12320	0.15117
0.14870	0.91640
0.14870	0.61031
0.17421	-0.69059
0.04670	-0.79262
0.14870	0.12566
0.09770	0.43176
0.19971	0.45726
0.19971	0.71234
0.12320	0.66132
-0.05531	0.35523
-0.05531	-0.53754
0.19971	0.04914
0.40372	0.32972
0.27621	0.22769
0.27621	-0.00188
0.07220	0.15117
0.12320	0.27871
0.17421	-0.15492
0.04670	-0.35899
-0.02981	0.07465
0.12320	0.83988
0.19971	0.27871
0.09770	-1.40480
0.25071	0.45726
0.27621	-1.37929
0.12320	0.83988
-0.02981	1.06945
-0.08081	1.12046
0.12320	1.45206
0.27621	-1.73640
0.14870	-0.66508
0.17421	0.12566
0.27621	0.58480
0.19971	0.99292
0.17421	-0.05289
0.22521	0.25320
0.19971	0.07465
0.14870	0.15117
0.02119	0.30422
-0.13181	-0.51203
0.14870	-1.17523
0.32721	0.76336
0.27621	0.15117
0.27621	0.32972
0.14870	0.40625
-0.02981	-0.56305
0.22521	-0.05289
0.12320	1.50308
-0.02981	0.12566
0.09770	0.07465
0.27621	-0.35899
0.19971	0.61031
0.30171	-0.07840
0.30171	0.30422
0.19971	0.89089
0.07220	0.76336
0.02119	-0.74160
0.14870	-0.48652
0.22521	0.10015
0.04670	0.12566
0.19971	0.43176
0.04670	0.81437
0.25071	0.53379
0.25071	-1.17523
0.27621	0.89089
0.14870	-0.02739
0.19971	0.22769
0.19971	-0.25695
0.07220	-0.02739
0.14870	-0.15492
0.02119	0.35523
0.02119	0.10015
0.14870	1.09496
0.14870	1.09496
0.22521	-0.18043
-0.00431	-0.94566
0.22521	0.17668
0.17421	0.63582
0.14870	-0.46102
0.12320	0.35523
0.09770	0.58480
-0.08081	0.10015
0.19971	-0.35899
0.42922	0.17668
0.32721	0.43176
0.22521	0.04914
0.14870	-0.07840
0.14870	0.35523
-0.02981	-0.51203
0.04670	0.76336
0.14870	-0.61406
0.14870	0.61031
0.12320	0.10015
0.17421	-0.48652
0.19971	1.14597
-0.08081	0.40625
0.09770	-0.15492
0.32721	0.43176
0.22521	0.86539
0.17421	-0.18043
0.22521	-1.45582
0.27621	0.71234
0.27621	0.32972
0.12320	1.06945
0.07220	-0.81812
0.04670	0.27871
0.07220	0.07465
0.02119	0.40625
0.27621	0.17668
0.32721	0.35523
0.12320	-0.07840
0.22521	0.43176
0.35272	-0.61406
0.17421	1.27351
0.02119	0.61031
0.04670	-0.86914
0.12320	-0.25695
0.12320	0.91640
0.09770	0.83988
0.07220	0.55929
0.09770	-0.10391
0.04670	-0.02739
0.14870	0.35523
0.22521	-0.00188
0.19971	-1.48133
0.22521	-0.23145
0.32721	1.14597
0.04670	0.04914
-0.05531	-1.09871
0.19971	1.78367
0.27621	-0.56305
0.14870	0.35523
0.02119	1.57960
0.14870	0.32972
0.07220	-0.38449
0.37822	-0.35899
0.12320	-0.84363
0.17421	0.94191
0.12320	0.48277
-0.00431	0.43176
0.04670	0.40625
0.02119	-0.12942
0.02119	0.12566
0.22521	0.04914
0.14870	-0.46102
0.22521	0.50828
0.27621	-0.07840
0.12320	-0.46102
0.22521	1.04394
0.22521	-0.23145
0.09770	-0.00188
0.14870	1.06945
0.09770	0.35523
0.07220	-0.97117
0.27621	0.73785
0.09770	0.55929
0.07220	-0.33348
0.12320	-0.43551
-0.00431	0.55929
0.22521	1.50308
0.12320	0.12566
0.30171	-0.38449
0.27621	-1.27726
0.17421	0.91640
0.25071	0.94191
0.17421	-0.38449
-0.02981	0.07465
-0.05531	-0.12942
0.02119	-0.00188
0.35272	0.10015
0.25071	0.61031
0.14870	0.02363
0.17421	0.38074
0.17421	0.63582
0.07220	0.30422
-0.00431	-0.43551
0.17421	0.35523
0.30171	-0.63957
0.17421	0.25320
0.19971	0.22769
0.12320	0.43176
0.12320	-0.43551
0.12320	-0.79262
0.22521	1.19699
0.14870	-0.00188
0.14870	1.22250
0.17421	-0.35899
0.09770	-0.35899
0.12320	1.42656
0.12320	0.96742
0.09770	-0.15492
0.19971	-0.69059
0.14870	-0.23145
0.09770	-0.41000
0.02119	-0.18043
0.07220	0.83988
0.19971	0.43176
0.19971	0.22769
0.22521	0.02363
0.32721	-0.05289
0.30171	0.35523
0.19971	0.22769
0.17421	-0.35899
-0.02981	-1.99148
-0.18282	0.35523
0.12320	1.29902
0.09770	0.20219
0.17421	0.63582
0.19971	0.66132
0.32721	0.25320
0.27621	0.86539
0.17421	-0.35899
0.12320	-0.71609
0.07220	0.91640
0.14870	0.55929
0.09770	0.32972
0.14870	-0.30797
0.04670	0.04914
0.04670	-0.46102
0.25071	-0.28246
0.27621	0.12566
0.17421	0.83988
0.25071	0.71234
0.14870	-0.05289
0.09770	-1.58336
0.09770	-0.61406
0.04670	1.14597
0.04670	0.76336
0.02119	1.27351
0.22521	1.47757
0.22521	-0.58856
0.19971	-2.52714
0.12320	-0.25695
0.04670	1.65613
0.27621	0.99292
0.17421	0.07465
0.04670	-0.15492
0.07220	0.50828
0.04670	0.10015
0.12320	0.61031
0.22521	0.20219
0.32721	-0.76711
0.17421	-0.02739
-0.00431	0.10015
0.19971	-0.02739
0.19971	0.71234
0.04670	-0.30797
0.09770	0.50828
0.19971	0.25320
0.12320	-0.15492
0.19971	0.17668
0.14870	0.22769
0.07220	0.83988
0.14870	-0.07840
0.17421	0.55929
0.07220	0.58480
0.12320	-0.86914
0.22521	0.99292
0.07220	0.73785
0.12320	0.12566
0.09770	0.58480
-0.00431	-0.00188
0.14870	-0.20594
0.35272	-0.66508
0.22521	-0.23145
0.14870	0.43176
0.12320	0.94191
0.14870	0.53379
0.09770	-0.92016
0.22521	0.76336
0.07220	-0.41000
0.02119	-2.19554
0.14870	1.27351
0.12320	1.52859
0.14870	0.22769
0.22521	0.02363
0.17421	0.63582
0.19971	0.40625
0.22521	0.63582
0.27621	0.25320
0.12320	0.04914
0.12320	1.24800
0.14870	-2.45062
0.02119	-1.68539
-0.10631	-0.38449
-0.00431	0.91640
0.04670	1.04394
0.37822	0.99292
0.37822	0.73785
0.25071	0.55929
0.14870	0.38074
0.07220	-0.23145
0.12320	-0.00188
0.22521	-0.12942
0.17421	0.32972
0.02119	-0.46102
-0.08081	-1.43031
0.07220	-0.00188
0.19971	-0.18043
0.02119	1.73265
0.22521	0.63582
0.25071	0.53379
0.25071	0.35523
0.14870	1.01843
0.09770	-0.02739
0.14870	-1.02219
0.12320	0.78886
0.19971	0.07465
0.17421	-0.94566
0.22521	0.76336
0.27621	-0.81812
0.07220	-0.94566
-0.08081	0.76336
0.12320	0.76336
0.17421	0.96742
0.02119	0.89089
0.07220	0.43176
0.22521	-2.80773
0.19971	0.22769
0.32721	0.81437
0.27621	0.63582
0.14870	0.30422
0.22521	0.66132
0.17421	-0.51203
-0.00431	-0.58856
-0.02981	0.25320
0.07220	-0.15492
0.07220	-0.05289
0.12320	0.38074
0.22521	1.32453
0.09770	-0.30797
0.19971	-0.25695
0.17421	0.02363
0.07220	0.61031
0.14870	-0.51203
0.12320	-0.20594
0.27621	0.45726
0.19971	0.48277
0.17421	0.43176
0.09770	0.55929
0.14870	0.40625
0.17421	-1.88945
0.19971	0.50828
0.07220	1.29902
0.09770	-1.07320
0.09770	-0.15492
0.12320	0.68683
0.25071	0.30422
0.12320	0.71234
0.14870	1.22250
0.12320	0.12566
0.17421	-1.63437
0.04670	0.96742
0.04670	-0.10391
0.22521	-0.15492
0.17421	0.86539
0.12320	0.25320
0.27621	0.68683
0.14870	0.68683
0.12320	-1.27726
0.04670	-0.05289
0.02119	0.15117
0.12320	0.45726
0.17421	0.25320
0.27621	0.22769
0.32721	0.25320
0.22521	0.50828
0.19971	-0.10391
0.25071	0.61031
0.22521	0.81437
0.09770	-1.86394
-0.02981	-2.75671
-0.18282	1.14597
-0.05531	1.37554
0.42922	1.57960
0.35272	0.58480
0.32721	0.30422
0.17421	0.78886
0.25071	0.30422
-0.00431	-0.66508
-0.05531	-0.66508
0.25071	0.96742
0.32721	1.12046
0.22521	-1.07320
0.12320	0.53379
0.07220	0.96742
-0.00431	-1.81293
-0.00431	-2.19554
0.12320	1.12046
0.02119	1.32453
0.04670	1.09496
0.14870	0.78886
0.30171	0.25320
0.40372	0.50828
0.25071	-0.15492
0.12320	0.15117
-0.00431	-0.15492
0.07220	-0.58856
0.09770	0.20219
0.37822	0.15117
0.19971	0.63582
0.12320	0.15117
0.17421	-1.71090
0.25071	1.14597
0.14870	0.38074
0.14870	0.53379
0.02119	-0.56305
0.04670	0.22769
0.17421	0.48277
0.17421	0.22769
0.14870	0.66132
0.07220	-0.20594
0.14870	0.76336
0.22521	0.43176
0.25071	-0.12942
0.12320	-0.97117
0.07220	0.40625
0.09770	-0.30797
0.02119	1.19699
0.17421	0.35523
0.25071	0.22769
0.19971	0.17668
0.17421	-0.20594
0.25071	0.15117
0.14870	0.43176
0.07220	-0.05289
0.14870	-1.04770
0.12320	0.53379
-0.05531	0.04914
0.12320	0.32972
0.19971	1.09496
0.07220	-0.23145
0.07220	-0.81812
0.09770	0.20219
0.22521	-0.00188
0.27621	1.63062
0.17421	0.48277
0.09770	-0.30797
0.07220	0.63582
0.12320	0.73785
0.04670	0.22769
0.22521	-0.41000
0.22521	-0.10391
0.17421	0.40625
0.09770	-0.51203
0.09770	0.58480
0.17421	0.32972
0.22521	-0.51203
0.02119	-0.07840
0.04670	-0.18043
0.12320	1.50308
0.07220	-0.58856
0.27621	0.10015
0.17421	0.53379
0.22521	0.45726
0.25071	0.76336
0.17421	-0.18043
0.14870	-0.33348
0.17421	-0.00188
0.17421	0.76336
0.04670	0.96742
-0.08081	-2.98628
0.12320	0.50828
0.35272	1.27351
0.12320	0.53379
0.12320	0.45726
0.30171	-0.71609
0.19971	0.45726
0.17421	0.45726
0.22521	0.94191
0.22521	-0.84363
0.14870	0.07465
0.14870	0.15117
0.02119	-0.07840
0.12320	0.20219
0.07220	-0.71609
0.09770	0.66132
0.09770	0.50828
0.22521	-0.02739
0.17421	0.32972
0.07220	0.53379
0.09770	0.58480
0.22521	-0.46102
0.19971	-0.07840
0.25071	-0.10391
0.22521	0.63582
0.27621	0.53379
0.19971	0.45726
0.19971	-0.18043
0.14870	0.83988
0.22521	-0.41000
0.17421	-1.48133
0.17421	0.40625
-0.05531	1.40105
0.02119	-2.60367
0.17421	0.66132
0.19971	-0.02739
0.12320	0.43176
0.17421	2.21730
0.17421	0.25320
0.19971	0.32972
0.14870	0.38074
0.14870	-0.15492
0.17421	-0.23145
0.22521	-0.86914
0.19971	-0.12942
0.14870	-0.05289
0.25071	0.66132
-0.02981	0.17668
-0.20832	-0.12942
0.07220	-0.76711
0.32721	-0.02739
0.30171	0.68683
0.32721	0.20219
0.07220	0.73785
0.22521	0.68683
0.12320	0.20219
0.17421	-0.20594
0.12320	0.55929
0.17421	0.25320
0.14870	0.02363
0.19971	-0.53754
0.09770	0.35523
0.07220	0.53379
-0.05531	0.10015
0.12320	-1.35379
0.19971	-0.35899
0.19971	0.89089
0.19971	0.76336
0.17421	0.07465
0.12320	0.32972
0.07220	-0.15492
0.14870	1.27351
0.14870	0.78886
0.32721	-0.48652
0.19971	0.12566
0.22521	-0.41000
0.12320	0.58480
0.02119	-0.05289
0.12320	-0.15492
0.19971	0.38074
0.02119	0.53379
0.09770	0.22769
0.17421	-0.28246
0.07220	0.50828
0.22521	-0.23145
0.30171	0.40625
0.14870	0.12566
0.09770	-0.86914
0.19971	0.86539
0.17421	1.22250
0.12320	0.66132
0.17421	0.25320
0.12320	-0.07840
0.19971	-0.25695
0.19971	-0.38449
0.04670	0.02363
0.07220	0.25320
0.12320	0.10015
-0.00431	0.35523
0.07220	0.10015
0.32721	-0.10391
0.32721	-0.00188
0.14870	0.55929
0.19971	0.45726
0.25071	0.68683
0.19971	0.32972
0.09770	1.06945
0.04670	-1.17523
0.14870	-2.06800
0.07220	-0.30797
0.12320	1.57960
0.14870	1.29902
0.25071	0.96742
0.17421	0.12566
0.30171	0.43176
0.19971	0.53379
0.14870	-0.43551
0.04670	0.38074
-0.00431	0.20219
-0.10631	-0.92016
0.27621	-0.15492
0.27621	0.35523
0.30171	0.30422
0.22521	0.58480
0.19971	-0.02739
0.07220	-0.28246
0.04670	-0.30797
0.07220	0.55929
0.12320	0.73785
0.12320	0.17668
0.07220	0.73785
-0.18282	-0.12942
0.07220	0.10015
0.40372	-0.10391
0.30171	0.30422
0.25071	0.55929
0.19971	0.66132
0.07220	0.50828
0.12320	0.25320
0.25071	-0.35899
0.30171	-0.15492
0.17421	-0.28246
0.09770	0.32972
0.12320	0.12566
0.09770	-0.02739
0.12320	-0.41000
0.14870	0.53379
0.07220	-0.41000
-0.02981	0.30422
0.02119	0.68683
0.27621	0.04914
0.35272	-0.25695
0.22521	0.22769
0.07220	0.38074
-0.05531	-0.48652
-0.05531	0.73785
0.22521	-0.00188
0.37822	0.15117
0.32721	0.45726
0.27621	0.48277
0.22521	-0.15492
0.27621	0.15117
0.17421	0.68683
-0.10631	-0.33348
-0.08081	-0.79262
0.22521	-0.30797
0.02119	0.15117
0.07220	-0.18043
0.27621	0.58480
0.32721	0.25320
0.22521	1.12046
0.14870	0.45726
0.14870	0.15117
0.17421	-0.10391
0.12320	0.76336
0.07220	0.40625
0.12320	-0.97117
0.17421	-0.99668
0.09770	0.15117
0.02119	-0.28246
0.02119	0.83988
0.12320	1.29902
0.27621	0.04914
0.19971	0.35523
0.27621	0.25320
0.22521	-0.48652
0.07220	0.25320
-0.00431	-0.48652
0.14870	0.10015
0.14870	0.66132
0.35272	0.78886
0.25071	-1.83844
0.19971	0.25320
0.04670	1.12046
0.04670	-0.33348
-0.10631	-0.56305
0.02119	0.61031
0.14870	0.40625
0.25071	0.45726
0.32721	0.61031
0.22521	0.38074
0.07220	0.27871
0.09770	-0.66508
0.22521	-0.20594
0.14870	1.06945
0.17421	0.55929
0.12320	0.04914
0.17421	-0.76711
0.17421	0.07465
0.12320	-0.15492
0.22521	0.48277
0.02119	-0.20594
0.02119	0.76336
0.17421	0.61031
0.22521	-0.02739
0.27621	0.53379
0.17421	0.25320
0.22521	-1.32828
0.09770	0.50828
0.17421	0.61031
0.17421	0.22769
0.09770	0.10015
0.02119	-0.51203
0.12320	0.58480
0.22521	-0.05289
0.19971	0.22769
0.19971	0.58480
0.04670	0.32972
0.17421	0.10015
0.17421	-0.61406
-0.00431	-0.35899
0.14870	-0.02739
0.17421	0.58480
0.14870	0.50828
0.35272	0.73785
0.40372	0.30422
0.09770	-0.15492
-0.02981	0.71234
0.04670	-0.97117
0.14870	-0.28246
0.09770	0.58480
0.19971	0.22769
0.19971	0.71234
0.07220	0.38074
-0.00431	0.71234
0.02119	-0.28246
0.12320	-0.46102
0.32721	-0.48652
0.14870	0.27871
0.14870	0.61031
0.25071	0.50828
0.25071	0.12566
0.17421	0.50828
0.07220	-0.18043
0.02119	-0.15492
0.02119	0.63582
0.14870	-0.48652
0.09770	0.40625
0.14870	0.07465
0.32721	0.10015
0.17421	1.14597
0.17421	-0.28246
0.12320	-0.23145
0.07220	-1.68539
0.14870	0.94191
0.19971	0.25320
0.12320	1.19699
0.17421	0.96742
0.02119	0.35523
-0.00431	-0.28246
0.22521	-0.28246
0.22521	0.35523
0.17421	0.17668
0.17421	-0.23145
0.17421	-0.20594
0.17421	0.20219
0.27621	0.30422
0.17421	0.35523
0.14870	0.86539
0.14870	-0.35899
0.19971	0.02363
0.19971	0.25320
0.19971	0.15117
0.09770	-0.12942
0.12320	0.68683
-0.08081	0.58480
0.02119	0.96742
0.27621	-1.91496
0.14870	0.89089
0.25071	0.17668
0.17421	0.78886
0.04670	0.32972
0.04670	-0.25695
0.09770	0.91640
0.30171	-1.07320
0.12320	0.17668
0.02119	-0.30797
0.30171	0.55929
0.40372	0.55929
0.27621	-0.58856
0.22521	0.04914
0.12320	0.50828
0.02119	0.58480
-0.05531	0.27871
0.12320	0.48277
0.12320	0.53379
-0.10631	-1.20074
0.25071	0.15117
0.45472	0.50828
0.19971	0.25320
0.09770	0.30422
0.12320	0.04914
0.09770	0.43176
0.07220	-0.07840
0.19971	-0.10391
0.17421	-0.12942
-0.00431	-0.00188
-0.02981	0.94191
0.19971	0.50828
0.32721	-0.56305
0.25071	-0.38449
0.14870	1.17148
0.07220	1.04394
0.07220	-0.33348
0.37822	-0.05289
0.37822	0.15117
0.14870	-0.18043
0.04670	0.20219
0.04670	1.19699
0.09770	-1.32828
0.22521	-0.18043
0.12320	0.61031
0.14870	1.32453
0.19971	0.02363
0.12320	-0.25695
0.12320	-0.30797
0.09770	0.99292
0.30171	0.17668
0.19971	-0.76711
0.12320	0.43176
0.12320	-0.10391
0.12320	0.71234
0.27621	-0.05289
0.12320	0.78886
0.09770	-0.10391
0.12320	0.15117
0.17421	0.55929
0.09770	0.17668
0.02119	-0.43551
0.09770	-0.02739
0.22521	0.15117
0.27621	0.15117
0.12320	0.25320
0.04670	-0.15492
0.22521	-0.56305
0.19971	0.63582
0.02119	1.12046
0.02119	0.15117
0.40372	-0.97117
0.07220	0.71234
-0.08081	1.12046
0.32721	-0.18043
0.14870	-0.63957
0.02119	0.40625
0.14870	0.61031
0.17421	0.40625
0.17421	-0.00188
0.22521	0.15117
0.35272	0.20219
0.14870	0.17668
0.14870	0.10015
0.02119	-0.74160
0.04670	0.04914
0.14870	0.61031
0.19971	-0.38449
0.09770	0.71234
0.07220	-0.07840
-0.05531	-0.18043
0.12320	-0.18043
0.35272	0.94191
0.22521	-0.02739
0.17421	0.50828
0.22521	0.55929
0.19971	1.12046
-0.02981	-0.51203
-0.05531	-1.65988
0.12320	0.20219
0.25071	-0.12942
0.40372	0.78886
0.22521	0.68683
0.02119	0.25320
0.19971	0.81437
0.04670	-0.05289
-0.00431	-0.48652
0.04670	0.07465
0.27621	-0.10391
0.27621	0.32972
0.12320	-0.02739
0.22521	0.25320
0.14870	0.38074
0.04670	-1.20074
0.09770	0.86539
0.12320	0.71234
0.17421	0.02363
0.07220	-0.35899
0.25071	1.27351
0.30171	0.50828
0.17421	-1.40480
0.02119	-0.33348
-0.00431	0.61031
0.04670	0.07465
0.22521	0.48277
0.12320	0.07465
0.25071	0.91640
0.30171	0.22769
0.14870	0.61031
0.02119	-0.25695
0.22521	-0.30797
0.17421	-0.02739
0.12320	0.35523
-0.00431	-0.10391
0.09770	1.55410
0.27621	-0.51203
0.30171	0.15117
0.09770	-0.07840
0.17421	-0.33348
0.14870	0.25320
0.12320	-0.38449
-0.00431	0.81437
0.09770	0.40625
0.17421	0.61031
0.22521	-0.48652
0.09770	0.76336
-0.02981	0.94191
0.04670	0.17668
0.27621	0.02363
0.35272	0.25320
0.25071	-0.23145
0.32721	0.20219
0.12320	-0.30797
0.17421	0.71234
0.09770	0.35523
0.12320	-0.74160
-0.05531	-0.94566
0.07220	0.61031
0.22521	0.66132
0.22521	0.38074
0.22521	0.45726
0.27621	0.35523
0.14870	0.48277
0.12320	0.91640
0.12320	-0.94566
-0.13181	-0.12942
-0.13181	-0.46102
0.12320	-0.74160
0.40372	0.94191
0.12320	0.61031
0.30171	0.45726
0.40372	1.14597
0.25071	-1.68539
0.12320	0.38074
0.02119	0.55929
0.09770	-0.10391
0.17421	0.12566
0.07220	-0.41000
