0.25071	1.73265
0.07220	-2.57816
0.12320	0.94191
-0.38683	-0.15492
0.50573	-0.61406
0.45472	1.75816
0.22521	-0.76711
-0.13181	0.50828
-0.00431	0.96742
-0.08081	0.35523
0.22521	0.35523
0.22521	0.10015
0.12320	-0.25695
0.02119	0.22769
0.30171	0.07465
0.19971	-0.28246
0.35272	-0.46102
0.07220	-0.18043
0.19971	1.14597
0.04670	0.25320
0.17421	0.17668
0.07220	-0.48652
0.09770	-0.46102
0.25071	0.48277
0.14870	0.04914
0.12320	-0.41000
0.19971	0.96742
0.19971	-0.61406
0.09770	0.02363
0.30171	1.70714
0.32721	0.35523
-0.05531	0.99292
-0.08081	-1.37929
0.30171	-0.61406
0.45472	0.61031
0.09770	0.78886
-0.84586	1.19699
0.50573	-0.15492
0.53123	-0.63957
0.48022	-1.30277
0.02119	0.15117
0.53123	0.30422
0.09770	0.43176
0.07220	0.78886
-0.05531	1.06945
0.04670	0.30422
0.07220	-0.00188
0.22521	-0.94566
0.14870	-0.48652
0.27621	0.76336
0.22521	0.35523
0.02119	0.25320
0.30171	-0.02739
0.09770	0.17668
0.17421	0.45726
0.04670	-0.05289
0.22521	-0.84363
0.22521	-0.35899
0.19971	0.48277
0.19971	1.01843
0.12320	0.48277
-0.05531	0.45726
0.12320	0.58480
0.42922	-0.07840
0.12320	-1.07320
-0.00431	-0.18043
0.40372	0.81437
0.04670	0.78886
0.32721	0.48277
-0.31033	0.61031
-0.00431	-0.63957
0.30171	0.02363
-0.23382	0.61031
0.48022	-0.71609
0.09770	-0.10391
0.42922	0.25320
0.14870	0.12566
0.02119	0.35523
0.02119	0.38074
0.14870	-0.07840
0.04670	-0.35899
0.22521	0.45726
0.17421	0.38074
0.09770	0.22769
0.12320	0.30422
0.14870	-0.05289
0.09770	0.10015
0.25071	0.12566
0.19971	0.63582
0.25071	-0.15492
0.12320	0.58480
0.12320	-0.92016
0.07220	-0.02739
0.02119	0.40625
0.12320	-0.35899
0.07220	0.04914
0.42922	1.09496
0.22521	0.22769
0.12320	0.76336
0.12320	0.38074
0.12320	-0.05289
0.04670	-0.00188
0.02119	-1.12422
0.09770	0.53379
0.07220	0.55929
0.12320	0.12566
0.12320	0.07465
0.09770	0.15117
0.32721	1.06945
0.83725	-1.17523
-0.38683	0.17668
-0.08081	0.38074
0.45472	-0.30797
0.04670	0.86539
0.17421	0.35523
0.22521	0.15117
0.12320	0.32972
0.22521	0.15117
0.30171	-0.15492
0.04670	0.02363
0.12320	0.10015
0.12320	0.38074
-0.00431	0.15117
0.19971	0.40625
0.12320	-0.05289
-0.00431	0.17668
0.02119	-0.28246
0.42922	0.04914
0.17421	-0.56305
0.35272	-0.05289
0.93925	1.14597
-0.79486	0.43176
0.09770	0.17668
0.25071	-1.02219
0.09770	0.25320
0.37822	0.61031
0.22521	0.22769
0.14870	0.35523
0.17421	0.30422
0.17421	0.15117
0.19971	0.17668
0.19971	0.10015
0.02119	0.02363
0.12320	0.10015
0.19971	0.07465
0.19971	-0.05289
0.14870	-0.05289
0.22521	-0.25695
0.09770	-0.23145
0.25071	0.66132
0.07220	0.61031
0.12320	0.15117
0.09770	0.27871
0.07220	-0.12942
0.12320	0.45726
0.63323	0.35523
-0.48884	-0.00188
-0.00431	-0.05289
0.63323	0.22769
0.22521	-0.15492
0.12320	0.50828
0.07220	-0.18043
0.09770	0.17668
0.14870	0.04914
-0.00431	0.58480
-0.02981	-0.58856
0.17421	0.04914
0.14870	-0.28246
0.50573	0.22769
0.19971	0.53379
0.12320	0.73785
0.07220	0.55929
0.09770	0.25320
0.04670	-0.10391
0.09770	0.25320
0.12320	-0.30797
0.45472	0.22769
-0.69285	0.22769
0.40372	0.07465
0.58223	-0.02739
0.25071	-0.12942
0.22521	0.02363
0.09770	0.30422
0.09770	0.55929
0.09770	-0.20594
0.04670	0.35523
0.17421	-0.76711
0.25071	0.17668
0.19971	0.58480
0.19971	0.15117
0.07220	0.48277
0.14870	0.55929
0.04670	0.48277
0.02119	0.10015
0.27621	-0.05289
0.14870	0.50828
0.22521	0.30422
0.09770	0.10015
0.09770	0.27871
0.22521	-0.63957
0.37822	-0.15492
0.07220	-0.94566
0.07220	0.38074
-0.02981	0.48277
0.12320	0.48277
0.22521	0.45726
0.14870	0.35523
0.76074	0.40625
-0.38683	-0.00188
-0.08081	0.53379
0.55673	-0.79262
0.37822	0.12566
0.22521	-0.43551
0.02119	0.10015
0.09770	0.63582
0.04670	0.58480
0.07220	-0.00188
0.14870	0.15117
0.17421	0.07465
0.25071	0.10015
0.14870	0.04914
0.14870	0.38074
0.12320	-0.15492
-0.10631	-0.48652
0.22521	0.73785
0.32721	0.55929
0.04670	0.25320
0.19971	0.20219
0.02119	-0.12942
0.19971	-0.18043
0.42922	-0.07840
0.17421	0.22769
0.12320	0.58480
0.02119	-0.12942
0.02119	0.15117
0.12320	0.10015
0.02119	0.32972
0.22521	0.66132
0.53123	-0.23145
0.19971	0.38074
0.02119	-0.92016
0.12320	0.43176
0.09770	0.94191
0.07220	0.17668
0.12320	0.04914
0.09770	-0.10391
0.19971	0.30422
0.22521	0.66132
0.19971	-0.76711
0.27621	-0.15492
0.12320	0.22769
0.12320	0.76336
0.04670	0.55929
0.07220	-0.35899
0.12320	-0.48652
0.12320	0.10015
0.22521	0.38074
0.12320	0.32972
0.22521	0.55929
0.09770	0.02363
0.07220	-0.94566
0.32721	0.86539
0.12320	-0.02739
0.04670	1.14597
0.04670	-0.94566
0.04670	-0.10391
0.27621	0.86539
0.14870	0.48277
0.02119	0.10015
0.53123	-0.10391
0.17421	-0.12942
0.04670	0.04914
0.07220	0.35523
-0.08081	-0.05289
0.09770	-0.00188
0.12320	-0.05289
0.22521	0.38074
0.27621	-0.12942
0.17421	0.04914
0.19971	1.12046
0.17421	-1.12422
0.17421	2.01323
0.12320	-0.66508
0.04670	0.76336
0.09770	0.25320
0.17421	0.02363
0.09770	-0.25695
0.19971	0.43176
0.63323	0.04914
-0.08081	0.04914
-0.31033	0.32972
0.40372	-0.10391
0.04670	-0.23145
0.17421	-0.07840
0.09770	0.71234
0.12320	0.10015
0.25071	-0.00188
0.12320	0.07465
0.17421	-0.07840
0.25071	0.38074
0.17421	0.35523
0.09770	0.43176
0.07220	0.25320
0.09770	0.10015
0.19971	0.20219
0.27621	0.20219
0.09770	0.04914
0.22521	-0.02739
0.12320	-0.35899
0.27621	0.20219
0.22521	0.30422
0.17421	0.17668
0.17421	0.04914
0.02119	0.10015
-0.02981	0.22769
0.02119	0.32972
0.22521	0.27871
0.22521	0.10015
0.19971	0.04914
0.12320	-0.89465
0.12320	0.78886
0.30171	-0.25695
0.07220	0.45726
0.04670	0.76336
-0.15732	-0.25695
0.32721	0.91640
0.48022	0.22769
0.88825	0.35523
-0.64185	0.63582
-0.15732	-0.48652
0.27621	-0.05289
0.17421	0.43176
0.78624	0.04914
0.40372	-0.15492
-0.20832	-0.38449
-0.56534	-0.07840
0.30171	-0.15492
0.45472	0.35523
0.27621	0.35523
0.14870	0.45726
0.02119	0.35523
0.04670	0.27871
0.04670	0.17668
-0.02981	0.17668
0.22521	0.12566
0.22521	0.22769
0.04670	0.07465
0.30171	0.20219
0.19971	0.12566
0.35272	0.07465
0.09770	0.12566
0.22521	0.12566
0.07220	0.15117
0.09770	0.35523
0.07220	0.55929
0.22521	-0.69059
0.02119	-0.28246
0.17421	0.02363
0.27621	-0.51203
0.12320	0.94191
0.19971	0.32972
-0.00431	0.38074
0.14870	0.58480
0.04670	0.07465
0.22521	0.45726
0.02119	-0.25695
0.04670	0.04914
0.32721	0.78886
0.53123	0.63582
0.17421	0.15117
0.07220	-0.18043
-0.08081	-0.38449
0.09770	-0.15492
0.19971	-0.23145
-0.59084	0.10015
0.53123	0.40625
-0.28482	0.71234
0.19971	0.10015
0.73524	-0.58856
0.48022	-0.63957
0.32721	0.73785
0.02119	0.50828
0.14870	0.58480
-0.02981	0.40625
-0.00431	0.35523
-0.18282	0.04914
-0.15732	0.25320
0.63323	0.20219
0.35272	0.10015
-0.00431	-0.15492
0.32721	0.07465
-0.10631	-0.12942
0.27621	0.48277
0.30171	-0.28246
0.19971	0.17668
-0.15732	0.20219
-0.08081	-1.02219
0.07220	0.55929
0.42922	0.76336
0.30171	0.48277
0.12320	-0.05289
-0.00431	0.38074
0.09770	-0.28246
0.19971	0.32972
0.25071	0.45726
0.35272	0.10015
0.25071	0.10015
0.14870	0.48277
0.22521	0.15117
0.17421	-0.38449
0.07220	-0.66508
0.12320	-0.10391
-0.08081	0.40625
0.07220	0.35523
0.07220	0.32972
0.04670	0.35523
0.30171	0.32972
0.53123	0.22769
-0.10631	0.38074
-0.41233	-0.20594
0.22521	0.25320
0.42922	0.22769
0.42922	0.12566
0.27621	0.15117
0.07220	0.30422
-0.00431	0.12566
0.07220	0.17668
0.14870	-0.12942
0.22521	-0.05289
0.17421	-0.07840
0.07220	0.32972
0.17421	0.43176
0.53123	0.48277
-0.87136	-0.00188
0.25071	0.15117
0.60773	0.02363
0.17421	0.02363
0.30171	0.30422
0.07220	0.96742
0.22521	-1.78742
0.12320	-0.35899
-0.59084	1.04394
0.45472	0.83988
0.86275	0.55929
-0.10631	0.48277
-0.00431	0.15117
0.22521	-0.05289
-0.53984	0.07465
0.12320	-0.15492
0.63323	0.25320
-0.05531	-0.53754
-1.30489	-0.74160
1.27078	0.15117
1.50029	0.55929
0.30171	0.45726
-0.38683	0.10015
-0.25932	0.43176
-0.10631	0.22769
-0.05531	-0.28246
0.22521	-0.10391
0.12320	0.38074
1.85731	0.45726
-2.57997	0.30422
-0.89686	0.32972
2.21434	0.15117
1.85731	0.20219
-0.13181	0.07465
-0.46334	0.15117
-0.13181	0.12566
0.73524	0.17668
0.58223	-0.07840
-0.20832	0.15117
0.07220	0.04914
-0.66735	0.12566
-0.84586	0.17668
0.42922	0.17668
0.17421	0.20219
0.42922	0.25320
0.42922	0.22769
0.42922	-0.07840
0.50573	-0.48652
0.27621	0.32972
-0.36133	0.78886
-0.69285	0.22769
1.93382	0.10015
-0.69285	-0.61406
-0.69285	0.22769
0.81175	0.83988
-0.13181	0.73785
0.68424	0.40625
1.16877	-0.43551
0.09770	-0.69059
-1.12638	0.55929
-0.13181	0.30422
-0.13181	1.01843
0.04670	0.02363
-0.18282	-0.25695
0.17421	-1.17523
0.53123	-0.38449
-0.48884	-0.00188
-0.59084	1.29902
1.72980	1.57960
0.78624	0.99292
0.27621	-0.66508
0.35272	0.02363
-0.18282	-0.66508
-0.10631	-0.12942
-0.02981	-0.02739
-0.69285	1.96222
-0.23382	-0.66508
0.32721	0.86539
0.58223	-0.48652
1.01576	0.63582
-0.51434	-1.48133
0.88825	-0.81812
0.17421	1.75816
-0.76936	2.24281
-0.02981	1.47757
0.14870	0.30422
-0.08081	-2.06800
0.48022	-2.52714
0.60773	0.15117
0.96476	3.36515
0.19971	4.43647
-0.99887	-3.98109
-0.23382	-4.69530
0.96476	-1.68539
0.35272	0.89089
0.02119	0.55929
-0.99887	4.02835
0.96476	1.78367
0.63323	1.42656
0.37822	1.37554
0.25071	1.60511
0.02119	0.43176
0.12320	5.45678
0.09770	-3.85355
0.68424	-12.62821
-0.74385	-6.93998
-0.00431	-0.51203
-2.93700	2.08976
0.86275	6.32404
1.34728	4.43647
-0.18282	1.24800
0.17421	3.16108
0.60773	3.13558
1.37278	-2.60367
0.86275	-1.27726
-0.02981	0.63582
-0.69285	-1.17523
-0.05531	-1.09871
-0.38683	-2.75671
-0.28482	-0.00188
-0.13181	1.57960
0.17421	3.33964
1.32178	-1.04770
-0.71835	-9.46525
0.40372	3.36515
0.83725	-2.47613
0.45472	2.62542
0.32721	5.83940
-0.00431	3.36515
0.63323	-0.02739
0.30171	1.98773
-0.31033	-0.76711
-0.33583	-0.53754
-0.15732	-2.09351
0.76074	-1.83844
-0.71835	-4.10862
-0.92237	-1.48133
1.29628	-3.21585
0.65874	4.64053
1.04126	4.84460
-0.23382	6.19651
-1.73842	-0.20594
0.50573	-1.53234
-0.43783	0.35523
-0.76936	-1.22625
1.62780	-0.05289
1.98482	-0.99668
1.24527	-1.73640
-0.41233	-0.28246
-0.33583	-1.32828
-0.15732	2.34484
-0.18282	-0.05289
-0.74385	-1.71090
0.04670	-0.25695
0.27621	-2.70570
0.25071	0.66132
-0.23382	2.42136
1.42379	0.04914
-1.30489	1.78367
0.22521	1.98773
0.99026	-0.10391
-0.97337	0.04914
0.22521	0.63582
0.17421	1.24800
1.16877	1.22250
0.76074	0.02363
0.42922	3.56921
0.35272	-2.37410
0.45472	-3.36890
-0.20832	-2.14453
-0.23382	0.73785
-0.28482	2.37034
-0.13181	-2.22105
-0.13181	0.38074
0.04670	3.49268
-0.18282	0.86539
0.25071	-0.23145
0.53123	-1.37929
0.22521	3.51819
0.32721	-0.41000
0.07220	-3.03730
0.12320	0.10015
0.30171	-0.25695
0.50573	0.32972
-0.28482	1.24800
1.01576	1.42656
-0.00431	0.53379
-0.53984	-1.37929
0.48022	0.02363
-0.48884	-0.66508
0.63323	-0.43551
0.25071	1.06945
0.37822	0.68683
0.37822	0.38074
-0.02981	-0.15492
0.12320	0.63582
0.30171	0.81437
-0.13181	-1.53234
-0.08081	1.37554
0.27621	1.17148
0.83725	-4.28718
-0.10631	0.38074
-1.94243	1.55410
1.21977	0.96742
1.16877	-0.02739
1.16877	1.19699
-0.74385	2.03874
-0.10631	0.83988
0.81175	0.55929
0.22521	0.53379
0.07220	-3.75152
-0.08081	-0.43551
-0.02981	0.50828
0.19971	1.47757
0.42922	-1.02219
0.12320	-2.17003
0.02119	0.96742
0.04670	3.49268
-0.05531	2.59991
0.09770	-1.68539
0.02119	-2.62918
0.78624	0.96742
0.22521	-2.70570
0.53123	1.75816
0.30171	1.73265
-0.10631	1.57960
0.76074	3.08456
-0.13181	0.58480
-0.64185	-1.65988
0.35272	1.01843
1.01576	0.83988
0.22521	0.15117
0.35272	-5.30749
0.04670	0.12566
-0.10631	-0.07840
0.12320	0.07465
0.55673	0.86539
-1.22839	0.22769
1.09226	-0.25695
0.53123	0.96742
-0.28482	0.71234
-0.23382	0.25320
0.17421	1.27351
-0.05531	0.30422
0.09770	0.04914
0.42922	-1.02219
0.40372	3.33964
0.22521	0.83988
0.19971	-2.39961
-0.02981	-3.08831
-0.18282	-2.98628
0.07220	3.05905
0.37822	0.86539
0.42922	2.67644
-0.05531	-2.09351
0.04670	1.96222
-0.00431	-0.63957
-0.00431	1.04394
0.09770	-0.35899
-0.02981	0.78886
0.35272	0.48277
0.22521	-0.07840
0.17421	0.35523
0.40372	-0.56305
0.32721	-3.13933
0.09770	-0.25695
0.07220	0.99292
0.58223	-0.61406
-0.61635	0.76336
-0.28482	2.44687
0.68424	-2.24656
0.48022	1.17148
0.37822	0.43176
0.30171	0.53379
0.37822	0.55929
0.14870	-0.00188
0.07220	0.81437
-0.15732	0.55929
-0.02981	-0.79262
0.12320	-1.99148
0.45472	0.55929
0.93925	1.42656
-1.30489	1.40105
0.73524	-3.21585
0.48022	-0.12942
0.58223	0.68683
-0.13181	1.45206
-0.33583	0.17668
-0.33583	-0.07840
0.53123	-0.02739
0.12320	1.93671
0.42922	-0.38449
0.30171	-1.04770
0.58223	-0.25695
0.25071	0.02363
0.02119	0.45726
-0.00431	-0.76711
0.14870	0.63582
0.17421	-3.87905
-0.10631	1.35003
-0.23382	1.75816
-0.10631	1.17148
0.19971	1.12046
0.32721	0.02363
0.32721	2.34484
0.12320	-0.20594
0.17421	-4.41472
0.30171	0.91640
0.27621	-1.22625
0.12320	0.30422
0.19971	0.07465
0.40372	0.76336
0.19971	0.91640
-0.10631	-0.10391
0.12320	0.53379
0.19971	0.25320
-0.00431	-0.76711
-0.00431	0.15117
-0.05531	0.30422
0.25071	0.68683
-0.02981	-1.99148
0.17421	1.24800
0.19971	1.27351
0.07220	-1.14973
0.07220	-0.30797
0.30171	0.86539
0.22521	-1.02219
-0.13181	0.50828
0.25071	0.45726
0.27621	1.50308
-0.08081	0.81437
0.45472	0.53379
0.48022	-2.09351
-0.02981	0.66132
-0.08081	-2.98628
-0.05531	-0.99668
0.12320	2.54890
-0.02981	1.14597
0.35272	1.04394
0.09770	1.06945
0.07220	1.93671
0.32721	-3.70050
0.19971	-1.63437
0.27621	1.06945
0.19971	0.35523
0.30171	0.89089
0.07220	0.76336
-0.15732	0.99292
0.12320	-1.12422
-0.25932	-3.41992
0.45472	0.81437
0.25071	1.47757
0.25071	1.35003
-0.08081	-0.15492
-0.02981	-0.02739
0.09770	0.07465
0.30171	1.24800
0.40372	1.35003
0.30171	-0.07840
0.07220	0.02363
0.14870	-1.30277
0.09770	-0.71609
0.22521	1.14597
0.09770	0.07465
0.14870	1.04394
0.04670	1.98773
0.22521	-0.10391
0.19971	-4.82284
0.09770	0.07465
0.12320	0.76336
-0.00431	-0.74160
0.12320	3.26312
-0.10631	1.06945
0.32721	1.29902
0.14870	-0.10391
0.45472	0.35523
0.19971	0.96742
0.25071	-1.12422
0.25071	-1.27726
-0.02981	1.06945
0.04670	-0.00188
0.07220	-1.04770
-0.02981	0.02363
0.25071	0.40625
-0.02981	0.78886
0.09770	-0.18043
0.37822	0.50828
0.14870	0.30422
0.09770	-0.76711
0.42922	0.22769
0.22521	0.35523
0.19971	0.07465
0.19971	0.32972
0.07220	0.71234
0.12320	2.29382
0.17421	-0.33348
-0.20832	-1.88945
0.45472	1.60511
0.53123	0.22769
-0.00431	1.01843
-0.08081	-2.47613
-0.00431	1.06945
-0.08081	-1.37929
0.12320	1.24800
0.32721	1.19699
0.22521	0.32972
0.02119	0.48277
0.19971	0.94191
0.12320	-0.89465
0.12320	-0.92016
0.27621	0.22769
0.22521	0.38074
0.14870	-0.20594
0.14870	-1.37929
0.19971	-0.02739
0.12320	2.26831
0.22521	0.68683
0.32721	-0.43551
0.09770	-0.18043
0.09770	1.98773
0.17421	-1.35379
-0.00431	-0.46102
0.19971	-0.41000
0.27621	-0.48652
-0.05531	1.75816
0.19971	1.04394
0.17421	1.42656
-0.02981	-0.15492
0.27621	0.20219
0.17421	-0.66508
0.22521	-1.96597
0.22521	0.53379
0.09770	0.22769
0.19971	0.66132
0.19971	0.91640
0.14870	0.04914
0.22521	0.71234
0.32721	0.86539
0.12320	-2.09351
-0.05531	0.22769
-0.00431	1.57960
-0.02981	-2.55265
-0.02981	0.76336
0.12320	1.22250
0.19971	-0.46102
0.40372	1.47757
0.19971	0.78886
0.40372	0.48277
0.37822	-1.48133
0.32721	0.04914
0.02119	0.76336
0.14870	0.10015
0.02119	0.07465
0.09770	0.71234
0.22521	1.57960
0.09770	0.58480
0.12320	0.02363
0.12320	-4.10862
0.17421	-0.61406
0.04670	1.42656
0.19971	0.38074
-0.10631	0.15117
0.07220	1.12046
0.02119	0.58480
0.25071	0.68683
0.35272	-0.15492
0.02119	0.61031
0.02119	-0.15492
0.27621	-0.58856
0.30171	0.27871
0.12320	-0.41000
-0.05531	-0.05289
0.30171	0.81437
-0.00431	-0.51203
0.25071	0.94191
0.04670	0.86539
0.19971	-0.12942
0.07220	0.40625
0.09770	-0.12942
-0.02981	-0.71609
-0.00431	0.10015
0.12320	0.61031
0.12320	0.71234
0.32721	-0.86914
0.32721	-1.25176
0.27621	2.08976
0.09770	-0.00188
-0.10631	-2.52714
0.02119	1.68163
0.17421	1.12046
0.19971	-0.89465
0.32721	1.60511
0.27621	-0.28246
-0.00431	0.55929
0.25071	-1.96597
0.12320	0.22769
0.04670	0.55929
0.12320	0.30422
0.17421	0.30422
-0.05531	-0.46102
0.07220	-1.32828
0.07220	0.58480
0.27621	1.45206
0.17421	-0.25695
0.12320	1.17148
0.22521	0.73785
0.12320	0.15117
0.25071	-0.48652
0.09770	1.14597
0.19971	0.07465
0.27621	-1.73640
-0.00431	-1.12422
0.02119	0.43176
0.14870	1.12046
0.35272	0.78886
0.32721	-0.00188
0.12320	0.96742
0.04670	-0.43551
0.02119	0.45726
0.12320	-1.78742
0.02119	0.66132
0.25071	0.58480
0.22521	1.04394
0.27621	0.55929
0.19971	0.10015
0.17421	0.58480
0.04670	-0.02739
0.14870	-0.10391
0.09770	-0.07840
0.14870	1.57960
-0.13181	0.48277
-0.05531	-0.97117
0.42922	-0.23145
0.32721	-0.51203
0.25071	-0.02739
0.32721	0.40625
0.02119	1.06945
0.02119	0.25320
0.07220	1.78367
0.19971	-0.79262
0.12320	-1.45582
0.02119	-1.86394
0.22521	0.32972
-0.13181	0.78886
0.32721	1.40105
0.42922	-0.02739
0.35272	1.06945
0.09770	0.61031
0.12320	-0.46102
-0.02981	0.15117
0.04670	0.43176
0.09770	0.83988
0.12320	-0.18043
0.04670	-1.50683
0.50573	0.78886
0.14870	-0.56305
0.22521	-0.74160
0.19971	0.53379
0.07220	0.38074
-0.05531	1.60511
-0.00431	0.25320
0.30171	-1.17523
0.02119	-0.81812
0.17421	-0.33348
-0.00431	1.93671
0.17421	0.78886
0.19971	0.27871
0.25071	0.45726
0.27621	-0.79262
0.04670	-0.69059
0.07220	0.76336
0.09770	0.12566
0.27621	1.12046
0.12320	-0.66508
0.17421	0.71234
0.32721	0.99292
-0.00431	-1.63437
0.12320	0.02363
0.02119	-0.71609
0.04670	0.89089
0.30171	1.27351
0.32721	0.53379
0.07220	-0.20594
0.12320	0.81437
0.12320	0.12566
-0.02981	1.09496
0.32721	0.76336
0.22521	-3.21585
0.17421	0.43176
-0.08081	-0.97117
-0.08081	0.20219
0.12320	0.66132
0.19971	0.48277
0.22521	0.81437
0.27621	-0.38449
0.32721	2.42136
0.22521	-0.79262
0.19971	0.04914
0.17421	1.01843
0.32721	-1.17523
0.02119	0.15117
-0.08081	-0.43551
-0.08081	0.58480
0.09770	0.22769
0.32721	0.99292
0.22521	0.25320
0.32721	0.66132
0.19971	-1.09871
0.14870	0.48277
0.07220	-0.46102
-0.13181	0.55929
0.14870	-0.12942
0.19971	-0.46102
0.25071	0.22769
0.14870	0.66132
-0.02981	0.61031
0.12320	1.65613
0.14870	-0.30797
0.22521	-3.49644
0.17421	-0.15492
0.30171	1.78367
0.30171	0.68683
0.14870	1.45206
0.12320	0.94191
0.04670	0.48277
0.32721	-0.10391
0.32721	-1.30277
0.12320	0.58480
0.09770	0.58480
0.02119	0.58480
0.07220	-0.25695
0.07220	-0.07840
0.02119	-1.94047
0.19971	1.70714
0.30171	-0.43551
0.07220	1.27351
0.12320	0.94191
0.17421	1.01843
0.19971	0.07465
0.27621	-0.30797
0.12320	-0.10391
0.27621	-0.25695
0.07220	0.86539
0.14870	-0.71609
0.02119	0.07465
0.02119	-0.63957
0.02119	0.32972
0.25071	1.57960
0.30171	-0.18043
0.17421	-2.29757
0.35272	0.38074
0.19971	1.47757
0.07220	0.55929
-0.02981	0.63582
-0.08081	-1.94047
0.17421	1.24800
0.22521	-1.35379
0.32721	1.88570
0.35272	-0.00188
0.04670	1.01843
0.12320	1.75816
-0.13181	-1.43031
0.12320	0.25320
-0.02981	-0.71609
0.22521	-1.12422
0.22521	0.38074
0.30171	0.20219
0.19971	0.78886
0.25071	0.91640
0.09770	0.43176
-0.18282	0.15117
0.04670	0.12566
0.32721	-1.78742
0.17421	0.50828
0.32721	0.83988
0.30171	0.71234
0.17421	0.94191
0.14870	-1.83844
0.09770	-0.05289
-0.05531	0.99292
-0.02981	0.45726
-0.13181	-1.17523
0.02119	2.24281
0.25071	-3.34339
0.45472	0.48277
0.32721	2.24281
0.14870	0.91640
0.12320	0.40625
0.14870	0.10015
0.22521	-0.25695
0.09770	0.20219
-0.00431	0.55929
0.27621	0.15117
0.02119	-0.05289
0.07220	-1.02219
0.14870	0.86539
0.07220	1.19699
-0.08081	-1.78742
0.12320	0.30422
0.30171	0.38074
0.19971	0.38074
0.42922	0.99292
0.22521	-0.15492
0.12320	0.71234
0.04670	-0.86914
0.12320	0.91640
0.17421	0.43176
0.07220	0.55929
0.09770	1.27351
0.30171	-0.33348
0.07220	-0.53754
0.14870	-0.12942
0.07220	0.91640
0.17421	0.55929
0.02119	0.96742
0.17421	-4.69530
0.12320	-0.02739
0.12320	1.65613
0.17421	1.17148
0.25071	-0.07840
0.35272	0.40625
0.22521	0.66132
0.12320	0.43176
0.25071	-0.48652
0.17421	-0.66508
0.19971	0.68683
0.07220	0.48277
-0.02981	0.50828
0.07220	0.10015
0.22521	-0.33348
0.09770	-0.25695
0.12320	0.15117
0.09770	-0.92016
0.27621	0.73785
0.07220	-1.12422
0.22521	0.48277
0.04670	1.01843
0.09770	0.45726
0.14870	0.91640
0.22521	0.04914
0.04670	0.73785
0.04670	0.22769
0.14870	-0.53754
0.22521	-0.07840
-0.02981	-0.69059
0.17421	-0.15492
0.17421	-0.51203
0.27621	0.86539
0.17421	0.76336
0.12320	0.76336
0.07220	1.04394
0.12320	0.91640
-0.05531	-1.91496
0.30171	-2.39961
0.17421	1.68163
0.27621	1.52859
0.14870	-0.25695
-0.02981	2.19179
0.17421	-0.84363
-0.00431	-1.12422
-0.08081	0.04914
0.07220	0.81437
0.19971	-0.23145
0.35272	0.55929
0.17421	-0.30797
-0.00431	0.94191
-0.15732	0.27871
0.17421	-0.38449
0.45472	0.81437
0.35272	1.01843
0.32721	-1.09871
0.22521	0.78886
0.04670	-0.99668
0.09770	0.17668
0.12320	0.55929
0.14870	-0.97117
0.09770	0.43176
0.02119	0.55929
-0.08081	0.91640
0.07220	0.10015
0.07220	1.60511
0.22521	-1.55785
0.17421	-0.53754
0.27621	-0.23145
0.22521	0.55929
0.27621	0.91640
0.22521	0.30422
0.17421	0.55929
0.17421	-0.18043
0.07220	-0.41000
0.09770	0.12566
0.02119	0.83988
0.22521	0.61031
0.17421	-2.04250
0.14870	0.48277
-0.08081	1.37554
0.45472	-0.61406
0.12320	0.17668
0.07220	1.37554
-0.02981	0.02363
0.17421	0.71234
0.17421	-1.09871
0.12320	0.94191
0.19971	-0.86914
0.02119	-0.07840
0.30171	-0.30797
0.09770	0.35523
0.25071	-0.97117
0.17421	1.19699
0.25071	-0.46102
0.12320	0.81437
0.07220	0.71234
0.12320	0.10015
0.17421	0.71234
0.12320	0.15117
0.14870	-1.50683
0.22521	-0.25695
-0.00431	0.86539
0.19971	0.30422
0.02119	0.96742
0.02119	1.09496
0.07220	-0.69059
0.25071	-1.07320
0.25071	-0.05289
0.25071	0.91640
0.22521	0.50828
0.22521	-0.46102
0.19971	0.76336
0.09770	0.22769
0.02119	0.45726
-0.10631	-1.02219
0.02119	-0.30797
0.09770	-0.02739
0.35272	-0.53754
0.48022	0.02363
0.14870	1.52859
0.27621	0.81437
0.04670	0.73785
0.09770	-1.37929
-0.05531	0.83988
-0.05531	0.53379
-0.00431	0.20219
0.27621	-0.07840
0.22521	0.10015
0.32721	0.32972
0.32721	0.45726
0.12320	0.45726
0.14870	0.55929
-0.18282	-1.07320
-0.10631	-0.51203
0.07220	-0.18043
0.09770	0.76336
0.22521	0.20219
0.37822	-0.99668
0.30171	-0.23145
0.19971	0.58480
0.07220	0.20219
0.19971	1.22250
0.09770	0.27871
0.02119	1.09496
0.12320	1.86019
0.19971	-2.34859
0.09770	0.10015
0.17421	-0.76711
0.02119	1.19699
0.19971	-0.28246
0.17421	0.78886
0.27621	1.19699
0.22521	0.32972
-0.02981	-0.66508
0.04670	-0.71609
-0.13181	-0.94566
0.22521	0.61031
0.12320	0.66132
0.32721	0.73785
0.19971	-0.84363
0.32721	-0.18043
0.09770	-0.41000
0.30171	0.40625
-0.02981	0.25320
0.17421	1.40105
0.07220	-0.38449
0.25071	0.38074
0.02119	-0.30797
0.12320	0.17668
0.07220	-0.12942
0.27621	0.76336
0.02119	-1.07320
0.09770	0.55929
0.30171	0.81437
0.07220	0.76336
0.17421	-0.63957
0.25071	0.86539
0.19971	-0.92016
0.25071	0.76336
0.19971	-0.12942
0.19971	0.15117
0.07220	0.58480
-0.08081	-0.84363
-0.08081	0.27871
-0.15732	1.91120
0.19971	1.29902
0.35272	-0.74160
0.42922	-1.88945
0.48022	0.30422
0.22521	0.02363
0.19971	1.22250
0.04670	0.91640
-0.00431	0.43176
0.02119	-0.66508
0.07220	0.68683
0.09770	0.48277
0.09770	-0.35899
0.22521	-0.33348
0.14870	-0.07840
0.27621	0.53379
0.25071	0.15117
0.12320	-0.46102
-0.00431	0.35523
0.04670	-0.30797
0.37822	-0.28246
0.22521	-0.05289
0.12320	1.19699
0.14870	-0.18043
0.07220	0.71234
0.12320	0.40625
0.17421	-0.61406
0.22521	0.22769
0.17421	1.52859
0.22521	-0.30797
0.07220	-0.99668
0.07220	-1.25176
0.04670	0.50828
0.17421	0.86539
0.37822	0.35523
0.30171	1.47757
0.25071	-0.33348
0.09770	1.24800
0.02119	1.01843
0.09770	0.22769
0.09770	-0.25695
0.07220	-0.81812
-0.10631	-2.34859
0.07220	0.58480
0.30171	0.50828
0.22521	0.32972
0.37822	0.53379
0.19971	0.96742
0.09770	0.89089
0.04670	-0.56305
0.17421	-1.22625
0.30171	0.91640
0.19971	-0.41000
0.25071	0.15117
0.04670	1.47757
0.30171	0.83988
0.07220	-0.25695
0.04670	1.09496
0.04670	-0.51203
-0.02981	0.20219
0.19971	0.22769
0.02119	0.38074
0.17421	-0.84363
0.22521	0.25320
0.19971	0.55929
0.22521	0.55929
0.27621	0.32972
0.12320	0.22769
0.14870	0.04914
0.14870	-0.56305
0.12320	-0.18043
0.14870	0.35523
0.14870	0.68683
0.07220	0.07465
0.12320	0.35523
0.12320	-0.61406
0.42922	-0.74160
0.25071	0.71234
0.12320	0.30422
0.02119	-0.25695
-0.02981	0.32972
0.02119	0.50828
0.12320	-0.33348
0.32721	0.81437
0.19971	0.63582
0.27621	0.04914
0.32721	0.07465
0.27621	0.96742
0.07220	0.30422
0.02119	-1.12422
-0.10631	0.10015
-0.05531	0.04914
0.02119	-0.46102
0.37822	0.43176
0.22521	0.25320
0.30171	0.43176
0.17421	0.48277
0.19971	0.48277
0.12320	0.25320
0.07220	0.32972
0.04670	0.38074
-0.05531	-0.97117
0.19971	-0.38449
0.22521	-0.41000
0.25071	0.91640
0.27621	-0.46102
0.07220	0.30422
0.07220	0.32972
0.12320	0.22769
0.25071	1.52859
0.19971	0.55929
0.19971	-0.66508
0.27621	0.73785
0.02119	0.45726
0.22521	-0.66508
0.17421	-0.30797
0.02119	0.55929
0.07220	-0.41000
0.12320	0.78886
0.07220	-0.53754
-0.02981	-0.10391
-0.05531	0.40625
0.04670	0.32972
0.35272	1.65613
0.27621	-0.92016
0.37822	-1.07320
0.12320	1.17148
0.14870	0.30422
0.12320	0.63582
0.14870	-0.89465
0.27621	1.04394
-0.08081	-0.51203
0.04670	0.40625
0.09770	0.15117
0.37822	0.83988
0.25071	0.48277
0.12320	0.22769
0.09770	0.27871
-0.00431	-0.33348
0.09770	-0.38449
-0.02981	-0.10391
0.04670	0.32972
-0.02981	-0.00188
0.25071	0.07465
0.12320	0.58480
0.37822	0.53379
0.14870	-0.97117
0.22521	-0.28246
0.04670	0.66132
0.19971	-0.56305
0.07220	-0.58856
0.17421	-1.17523
0.35272	1.19699
0.22521	1.27351
0.25071	0.58480
0.12320	0.78886
0.07220	0.35523
0.04670	0.22769
0.04670	-0.05289
-0.00431	-0.07840
0.02119	-0.28246
0.12320	0.10015
0.12320	-0.28246
0.19971	0.58480
0.17421	0.04914
0.32721	-1.81293
0.17421	-0.18043
0.12320	-0.05289
0.09770	-0.25695
0.02119	0.30422
0.25071	1.57960
0.17421	1.57960
0.19971	0.25320
0.12320	0.66132
0.07220	-0.89465
0.17421	-0.71609
0.19971	-0.41000
0.25071	-0.25695
0.12320	0.25320
0.12320	0.76336
-0.10631	0.91640
0.12320	0.58480
0.04670	0.63582
0.40372	0.68683
0.19971	-1.17523
0.19971	-2.14453
0.12320	-1.20074
0.19971	0.81437
0.14870	-0.46102
0.12320	0.66132
0.27621	1.57960
0.02119	1.06945
0.22521	0.32972
-0.00431	0.02363
0.27621	0.71234
0.12320	-0.41000
0.12320	0.22769
0.17421	0.25320
0.17421	0.04914
0.02119	-0.69059
-0.08081	-0.81812
0.19971	-0.20594
0.04670	0.38074
0.27621	-0.10391
0.09770	0.81437
0.37822	0.99292
0.22521	0.20219
0.30171	-0.46102
0.09770	1.09496
0.09770	-0.48652
0.09770	0.27871
0.12320	0.40625
0.19971	-1.83844
0.19971	0.50828
0.12320	0.63582
0.17421	1.35003
0.17421	0.76336
0.17421	0.43176
0.19971	-1.32828
-0.02981	-0.92016
0.07220	0.73785
0.02119	-0.20594
0.22521	-0.07840
0.22521	-0.05289
0.25071	0.10015
0.09770	0.32972
0.07220	0.78886
-0.05531	0.91640
0.07220	0.02363
0.25071	-0.02739
0.19971	-0.92016
0.17421	-0.30797
0.35272	-0.38449
0.17421	1.22250
0.22521	0.96742
0.14870	-0.35899
0.14870	0.15117
-0.00431	0.53379
0.19971	0.17668
0.14870	-1.07320
0.22521	-0.23145
0.12320	0.45726
0.17421	0.35523
0.27621	-0.00188
0.07220	0.86539
0.25071	-0.12942
0.09770	0.32972
0.19971	0.81437
0.04670	0.63582
0.17421	-0.23145
0.04670	0.32972
0.02119	-0.43551
0.12320	-1.91496
0.09770	-0.12942
0.32721	1.60511
0.09770	-0.12942
0.17421	-0.66508
0.25071	1.14597
0.04670	0.20219
0.17421	0.20219
0.07220	0.40625
0.27621	0.38074
0.19971	0.27871
0.22521	-0.30797
0.04670	0.91640
0.12320	0.48277
0.09770	0.15117
0.25071	-1.35379
0.19971	0.02363
0.14870	0.07465
0.07220	0.55929
0.07220	0.27871
0.02119	0.17668
0.14870	0.32972
0.17421	0.76336
0.27621	-0.99668
0.07220	0.48277
0.19971	0.32972
0.07220	0.66132
0.04670	0.89089
0.02119	-0.02739
0.25071	-0.07840
0.14870	-1.04770
0.32721	0.71234
0.14870	0.83988
0.25071	-0.66508
0.19971	-1.09871
0.02119	1.01843
-0.02981	0.27871
-0.05531	0.20219
0.07220	0.20219
0.17421	1.09496
0.27621	-0.46102
0.22521	0.04914
0.37822	0.50828
0.19971	-2.52714
0.30171	-1.27726
0.12320	1.32453
0.07220	1.37554
0.07220	1.06945
0.14870	0.55929
-0.05531	0.35523
-0.02981	0.45726
0.19971	0.78886
0.14870	-0.76711
0.32721	-0.69059
0.09770	-0.51203
0.27621	0.73785
0.14870	-0.07840
0.02119	-0.15492
0.02119	0.50828
0.04670	-0.12942
0.12320	0.35523
0.22521	0.04914
0.19971	1.45206
0.35272	-0.12942
0.14870	0.83988
0.14870	-0.76711
0.12320	-1.17523
-0.00431	1.22250
-0.08081	0.81437
0.02119	0.89089
0.25071	0.40625
0.25071	-1.02219
0.32721	-0.10391
0.19971	0.66132
0.25071	0.86539
0.27621	0.96742
0.04670	-0.38449
0.04670	-0.79262
0.04670	-0.58856
0.19971	0.04914
0.14870	0.66132
0.19971	0.86539
0.09770	-0.38449
-0.05531	-0.02739
0.09770	0.15117
0.12320	0.81437
0.22521	-0.15492
0.25071	0.02363
0.17421	0.22769
0.25071	1.17148
0.25071	0.25320
0.25071	-0.28246
0.17421	-0.76711
0.12320	-0.97117
0.14870	0.68683
-0.13181	1.47757
-0.02981	0.53379
-0.00431	0.55929
0.19971	-2.29757
0.25071	0.91640
0.19971	1.60511
0.32721	0.17668
0.22521	-0.74160
0.27621	0.20219
0.17421	-0.28246
0.12320	0.58480
0.09770	0.86539
-0.08081	-0.92016
0.14870	-0.38449
0.09770	-0.15492
0.27621	0.53379
0.07220	0.61031
0.27621	0.96742
0.17421	0.61031
0.07220	-0.97117
0.04670	0.35523
-0.02981	0.43176
0.17421	0.61031
0.17421	-0.48652
0.12320	0.07465
0.27621	0.76336
0.25071	-0.00188
0.37822	0.27871
0.30171	-1.55785
0.19971	1.17148
0.12320	-0.25695
-0.02981	0.15117
-0.02981	1.35003
-0.08081	0.30422
0.14870	0.43176
0.35272	-0.00188
0.27621	-0.30797
0.32721	0.35523
0.22521	-0.18043
0.17421	-0.74160
0.17421	0.10015
-0.02981	0.71234
0.12320	-0.28246
0.04670	-0.20594
0.09770	0.50828
0.25071	1.19699
0.12320	0.68683
0.25071	0.20219
0.32721	-0.71609
-0.02981	-0.51203
0.12320	0.45726
0.07220	0.27871
-0.08081	-1.35379
0.12320	0.58480
0.14870	0.07465
0.35272	0.66132
0.40372	0.96742
0.30171	-0.89465
0.25071	0.73785
0.12320	0.55929
0.14870	-0.10391
-0.18282	-1.09871
0.02119	0.55929
0.02119	2.19179
0.17421	-0.76711
0.17421	0.10015
0.25071	-0.63957
0.32721	0.48277
0.22521	0.73785
0.22521	0.55929
0.07220	0.27871
0.09770	-0.48652
-0.05531	0.20219
0.14870	0.15117
-0.05531	0.07465
0.14870	0.04914
0.12320	0.07465
0.35272	0.32972
0.32721	0.25320
0.27621	0.55929
0.22521	0.07465
0.09770	-0.56305
0.02119	-0.05289
-0.00431	0.81437
0.09770	0.89089
0.12320	-1.02219
0.30171	0.30422
0.22521	0.53379
0.27621	-1.20074
0.09770	1.04394
0.09770	0.63582
-0.10631	-0.10391
-0.00431	0.43176
-0.10631	0.38074
0.12320	0.22769
0.30171	-0.00188
0.35272	0.15117
0.40372	0.15117
0.30171	0.32972
0.32721	-1.40480
0.07220	0.17668
0.14870	-0.25695
-0.02981	0.53379
0.12320	0.04914
0.02119	0.68683
0.17421	0.55929
0.22521	0.63582
0.25071	0.53379
0.17421	-0.74160
0.14870	0.17668
-0.00431	0.22769
0.07220	0.48277
-0.02981	-0.05289
0.27621	-0.23145
0.19971	0.40625
0.14870	0.17668
0.19971	0.35523
0.09770	-1.02219
0.27621	0.15117
0.04670	0.96742
0.22521	0.20219
0.07220	-0.38449
0.14870	-1.17523
0.09770	0.32972
0.12320	0.35523
0.22521	1.09496
0.09770	1.50308
0.25071	1.35003
0.02119	-0.07840
0.02119	-1.43031
0.12320	1.04394
0.14870	-1.04770
0.37822	-1.48133
0.17421	0.48277
0.17421	0.25320
0.19971	0.53379
0.02119	0.48277
0.14870	-0.20594
-0.00431	-0.35899
0.25071	0.63582
0.07220	0.17668
0.12320	0.66132
0.12320	0.48277
0.02119	0.66132
0.17421	-1.50683
-0.00431	-0.33348
0.32721	0.66132
0.19971	0.86539
0.17421	0.61031
0.32721	-0.58856
0.14870	-0.05289
0.09770	0.27871
0.12320	0.48277
-0.02981	0.22769
0.12320	0.38074
-0.05531	0.32972
0.07220	0.32972
0.17421	0.02363
0.35272	0.38074
0.22521	-0.38449
0.32721	0.04914
0.04670	-0.23145
0.14870	-0.25695
-0.00431	1.29902
0.14870	-0.69059
0.12320	0.04914
0.17421	-0.20594
0.14870	0.02363
0.09770	0.86539
0.12320	0.40625
0.07220	0.58480
-0.02981	0.35523
0.27621	-0.10391
0.07220	0.10015
0.22521	-0.33348
0.19971	0.45726
0.12320	0.25320
0.19971	0.68683
0.22521	-0.35899
0.19971	-0.15492
0.19971	0.32972
0.07220	-0.12942
0.17421	0.07465
0.04670	0.86539
0.22521	0.12566
0.17421	0.15117
0.17421	0.27871
0.07220	0.35523
0.19971	-0.28246
-0.00431	-1.55785
0.12320	1.01843
0.09770	0.66132
0.17421	0.48277
0.14870	0.86539
0.37822	-0.66508
0.12320	-1.12422
0.19971	0.91640
0.22521	1.45206
0.12320	0.86539
0.19971	-0.66508
0.07220	0.20219
-0.00431	-0.18043
0.02119	0.50828
0.02119	0.22769
0.12320	0.35523
0.17421	-0.89465
0.19971	-0.18043
0.22521	0.45726
0.35272	-0.25695
0.14870	0.61031
0.19971	0.20219
0.07220	0.55929
0.02119	0.30422
0.12320	0.45726
0.14870	0.48277
0.14870	-0.10391
0.40372	0.15117
0.17421	-0.97117
0.09770	0.43176
0.02119	-0.12942
0.07220	0.35523
0.17421	0.43176
0.14870	0.76336
0.17421	0.43176
0.02119	-0.92016
0.14870	-0.46102
0.17421	0.07465
0.25071	0.40625
0.12320	0.83988
0.17421	1.29902
0.12320	-0.51203
0.17421	-0.58856
0.14870	-0.10391
0.04670	0.07465
0.14870	0.35523
0.19971	0.38074
0.12320	0.43176
0.27621	0.07465
0.14870	0.81437
0.14870	-0.46102
0.17421	-0.99668
0.07220	-1.27726
0.02119	0.55929
0.02119	0.86539
0.14870	0.66132
0.22521	0.76336
0.19971	0.30422
0.35272	0.20219
0.25071	0.58480
0.02119	-0.38449
0.12320	0.61031
0.14870	0.10015
0.22521	-0.30797
0.17421	-0.69059
0.17421	0.25320
0.19971	-0.00188
0.12320	-0.71609
0.17421	-0.02739
0.17421	0.50828
0.02119	0.43176
0.14870	1.04394
0.02119	0.76336
0.12320	1.24800
0.14870	-0.63957
0.14870	0.53379
0.04670	-0.61406
0.09770	-0.46102
0.14870	-0.71609
0.37822	1.01843
0.19971	1.37554
0.17421	-0.56305
0.09770	-0.05289
0.27621	0.58480
0.12320	-0.20594
0.17421	0.30422
-0.00431	0.27871
0.09770	-0.10391
0.07220	0.17668
0.32721	-0.00188
0.12320	0.66132
0.19971	0.32972
-0.02981	-1.27726
0.07220	0.48277
0.09770	0.61031
0.35272	0.71234
0.22521	0.15117
0.30171	0.07465
0.17421	0.45726
0.30171	0.40625
0.04670	-0.35899
0.12320	-0.15492
-0.00431	-0.23145
0.04670	0.04914
0.09770	0.20219
0.22521	0.35523
0.12320	0.43176
0.25071	0.61031
0.09770	0.30422
0.32721	0.35523
0.12320	-0.02739
0.07220	0.53379
0.07220	0.38074
0.04670	0.35523
0.22521	-0.97117
0.12320	0.17668
0.25071	0.53379
0.22521	0.30422
0.19971	-1.17523
0.19971	0.38074
-0.00431	0.43176
0.22521	0.99292
0.09770	0.04914
0.17421	0.63582
0.04670	0.02363
0.27621	-0.35899
0.12320	-0.66508
0.07220	-0.35899
0.02119	0.53379
0.17421	0.30422
0.09770	0.45726
0.32721	0.81437
0.17421	0.15117
0.14870	0.30422
0.12320	0.10015
0.14870	-0.00188
0.17421	-0.71609
0.12320	0.38074
0.17421	0.50828
0.02119	-0.43551
0.25071	0.83988
0.09770	1.04394
0.19971	0.94191
0.07220	-0.97117
0.12320	-0.79262
0.12320	-0.66508
0.22521	0.63582
0.25071	0.66132
0.09770	0.68683
0.27621	-1.37929
0.22521	1.35003
0.04670	0.78886
0.09770	0.83988
-0.05531	0.02363
0.14870	0.17668
0.14870	-0.25695
0.27621	-0.05289
0.22521	-0.56305
0.19971	0.55929
0.07220	-0.23145
0.07220	0.25320
0.09770	0.76336
0.17421	0.55929
0.12320	-0.86914
0.14870	-1.40480
0.22521	0.89089
0.09770	0.89089
0.19971	0.15117
0.19971	-0.05289
0.22521	0.32972
0.07220	0.66132
0.12320	0.40625
0.17421	-1.07320
0.02119	0.10015
0.04670	0.89089
0.02119	0.83988
0.09770	0.32972
0.17421	-1.43031
0.40372	0.53379
0.25071	0.38074
0.14870	0.07465
0.12320	0.22769
0.17421	0.76336
0.22521	-0.69059
0.09770	-0.12942
0.12320	-0.12942
0.02119	0.58480
0.22521	-0.99668
0.17421	0.17668
0.14870	-0.20594
0.22521	1.35003
0.12320	0.86539
0.17421	0.99292
0.07220	0.50828
0.04670	-0.56305
0.17421	0.17668
0.09770	-0.20594
0.22521	-0.25695
0.12320	0.12566
0.30171	-0.76711
0.02119	0.04914
0.22521	0.71234
0.12320	0.61031
0.22521	0.61031
-0.02981	-0.43551
0.12320	0.20219
0.04670	0.27871
0.22521	0.04914
0.42922	0.15117
0.17421	1.04394
0.32721	0.45726
0.09770	-0.43551
0.12320	-0.84363
0.02119	-0.97117
0.17421	0.81437
-0.00431	0.71234
0.07220	0.99292
0.22521	0.04914
0.17421	-0.86914
0.14870	0.38074
0.02119	-0.07840
0.27621	0.38074
-0.02981	0.55929
0.09770	-0.41000
0.17421	0.63582
0.22521	-0.61406
0.22521	0.32972
0.30171	0.55929
0.09770	-0.15492
0.19971	0.22769
0.22521	-0.18043
0.09770	0.66132
0.07220	0.55929
0.02119	0.10015
0.14870	-0.18043
0.22521	-0.48652
0.09770	0.43176
0.22521	-0.99668
0.17421	0.43176
0.30171	0.73785
0.19971	1.04394
0.12320	0.02363
0.07220	0.15117
0.07220	-0.02739
0.22521	-0.10391
0.12320	0.22769
0.17421	-0.15492
0.02119	0.86539
0.14870	-0.51203
0.09770	-0.15492
0.04670	-0.23145
0.27621	0.68683
0.22521	-0.76711
0.09770	0.12566
0.19971	0.63582
0.07220	0.45726
0.17421	0.38074
0.17421	0.63582
0.25071	-1.25176
0.19971	-0.35899
0.07220	1.22250
0.09770	0.43176
0.04670	0.02363
0.14870	-0.61406
-0.00431	0.30422
0.22521	0.66132
0.12320	0.22769
0.14870	0.04914
0.17421	0.17668
0.19971	-0.92016
0.37822	-0.33348
0.22521	0.58480
0.12320	0.63582
0.02119	0.17668
-0.08081	-0.15492
0.12320	-0.18043
0.09770	0.32972
0.25071	-0.51203
0.25071	0.78886
0.17421	0.68683
0.12320	0.32972
0.14870	0.20219
0.22521	-0.28246
0.09770	0.63582
0.07220	0.43176
0.07220	-0.46102
0.22521	0.15117
0.22521	0.45726
0.27621	0.20219
0.25071	0.30422
0.14870	-0.10391
0.12320	0.04914
-0.05531	-0.00188
0.14870	0.53379
0.07220	0.35523
0.17421	-0.71609
0.17421	0.55929
0.02119	0.40625
0.25071	-0.69059
0.35272	-0.38449
0.32721	0.22769
0.22521	1.24800
0.12320	0.25320
-0.02981	0.66132
-0.05531	-0.76711
0.17421	1.24800
0.09770	-0.10391
0.12320	-2.14453
0.37822	1.17148
0.17421	1.29902
0.14870	0.81437
0.19971	-0.05289
0.02119	-0.02739
0.09770	0.04914
0.07220	0.83988
0.04670	-0.97117
0.32721	-0.20594
0.19971	0.30422
0.09770	0.17668
0.19971	0.45726
0.27621	-0.18043
0.09770	0.35523
0.12320	0.22769
-0.00431	0.04914
0.12320	0.48277
0.17421	0.40625
0.17421	0.22769
0.27621	-0.25695
0.17421	-0.69059
0.12320	0.04914
0.27621	0.07465
0.30171	0.35523
0.04670	0.50828
0.17421	0.76336
0.12320	-0.46102
0.14870	0.45726
0.09770	-0.12942
0.07220	-0.00188
0.19971	0.45726
0.12320	0.68683
0.12320	0.32972
0.19971	0.20219
0.17421	0.12566
0.07220	-1.71090
0.02119	0.50828
0.22521	0.45726
0.14870	0.22769
0.25071	-0.48652
0.22521	0.15117
0.19971	0.63582
0.04670	0.99292
0.12320	0.25320
0.17421	-0.12942
0.09770	-1.73640
0.14870	-0.18043
0.09770	1.24800
-0.00431	0.38074
0.25071	-0.05289
0.19971	0.94191
0.30171	0.32972
0.22521	0.55929
0.09770	0.73785
0.09770	0.22769
-0.10631	-0.71609
0.04670	-0.12942
0.25071	-0.66508
0.14870	0.04914
0.30171	0.45726
0.22521	0.50828
0.32721	0.71234
0.22521	-0.00188
0.19971	0.12566
0.09770	-0.15492
0.07220	0.73785
-0.00431	-0.10391
0.12320	0.66132
0.09770	0.32972
0.19971	-0.86914
0.04670	-0.46102
0.22521	-0.07840
0.14870	0.81437
0.09770	1.27351
-0.00431	0.50828
0.22521	-0.56305
0.07220	0.35523
0.17421	0.43176
0.12320	-0.92016
0.30171	-0.30797
0.19971	0.48277
0.30171	0.50828
0.09770	0.53379
0.17421	0.83988
0.04670	-0.00188
0.09770	-0.79262
0.12320	0.10015
0.17421	-0.56305
0.12320	0.30422
0.25071	0.96742
0.09770	0.20219
0.12320	0.63582
0.22521	-0.20594
0.27621	-0.35899
0.22521	0.38074
0.02119	-0.33348
-0.00431	-0.18043
0.04670	0.66132
0.09770	0.50828
0.27621	-0.07840
0.19971	0.30422
0.22521	0.53379
0.27621	0.25320
0.12320	-0.99668
0.19971	0.58480
0.12320	0.53379
0.09770	0.25320
0.04670	-0.61406
0.09770	0.17668
0.17421	0.07465
0.09770	-0.00188
0.17421	0.25320
0.12320	0.35523
0.09770	-0.02739
0.09770	0.10015
0.02119	1.06945
0.30171	0.76336
0.14870	0.12566
0.27621	-0.35899
0.17421	-0.69059
0.25071	-0.00188
0.12320	-0.07840
0.22521	0.71234
0.12320	0.43176
0.12320	0.32972
-0.02981	0.32972
0.02119	-0.00188
0.02119	0.25320
0.25071	-0.28246
0.12320	-0.43551
0.40372	0.45726
0.27621	0.35523
0.32721	0.61031
0.04670	-0.25695
0.12320	-0.02739
-0.00431	-0.12942
0.17421	1.17148
0.04670	0.61031
0.17421	0.25320
0.25071	0.32972
0.22521	0.10015
0.04670	0.58480
-0.13181	-1.71090
0.02119	0.53379
0.07220	0.61031
0.22521	-0.10391
0.25071	0.35523
0.30171	0.38074
0.37822	0.27871
0.17421	-0.00188
0.19971	0.17668
0.12320	0.25320
-0.00431	0.04914
0.04670	-0.02739
0.12320	0.20219
0.14870	-0.18043
0.12320	0.25320
0.04670	0.12566
0.14870	0.04914
0.12320	-1.50683
0.14870	0.40625
0.30171	0.99292
0.14870	1.24800
0.09770	0.89089
0.27621	0.71234
0.12320	-0.28246
0.14870	-0.12942
0.07220	-0.05289
0.17421	-0.66508
0.07220	1.04394
0.25071	0.20219
0.22521	0.22769
0.17421	-0.10391
-0.00431	0.15117
0.12320	-0.86914
0.04670	-0.23145
0.14870	0.83988
-0.02981	0.02363
0.12320	0.25320
0.32721	0.53379
0.35272	-0.33348
0.27621	0.04914
0.04670	0.07465
0.14870	-0.05289
-0.05531	0.32972
0.25071	0.43176
0.02119	0.30422
0.25071	0.22769
0.12320	0.25320
0.22521	0.63582
0.19971	-0.46102
0.22521	-0.07840
0.07220	0.30422
0.12320	0.30422
-0.02981	-0.10391
0.19971	0.04914
0.07220	0.35523
0.22521	0.45726
0.17421	0.45726
0.27621	0.10015
0.07220	0.02363
0.27621	-0.30797
0.02119	0.12566
0.22521	-0.58856
0.17421	-0.23145
0.12320	0.96742
0.12320	-0.12942
0.07220	0.32972
0.14870	0.45726
0.27621	0.48277
0.19971	0.27871
0.22521	0.63582
0.07220	0.12566
0.02119	0.04914
0.14870	0.35523
0.04670	-1.04770
0.02119	-0.10391
0.04670	0.45726
0.22521	0.38074
0.30171	-0.35899
0.32721	0.86539
0.30171	1.37554
0.22521	0.04914
0.07220	-1.48133
0.09770	-0.53754
0.04670	0.50828
0.09770	0.43176
0.22521	0.91640
0.07220	0.32972
0.25071	-0.38449
0.19971	0.22769
0.17421	0.04914
0.02119	0.15117
0.12320	0.45726
0.27621	0.55929
0.07220	-0.66508
0.19971	-0.53754
0.12320	0.32972
0.07220	0.83988
0.27621	0.86539
0.17421	-0.33348
0.17421	0.45726
0.25071	0.58480
0.09770	0.02363
0.14870	-0.48652
0.04670	0.25320
0.19971	-0.18043
0.12320	0.17668
0.07220	0.63582
0.22521	0.45726
0.09770	0.12566
0.22521	0.25320
0.12320	0.43176
0.12320	-0.00188
0.17421	-0.05289
0.17421	-0.74160
0.14870	-0.07840
0.25071	-0.15492
0.12320	0.61031
0.32721	0.35523
0.19971	0.32972
0.22521	1.35003
0.22521	-1.86394
0.09770	0.43176
-0.02981	0.91640
0.14870	-0.07840
0.04670	-0.18043
0.09770	0.10015
0.19971	0.71234
0.12320	0.25320
0.25071	0.63582
0.30171	0.30422
0.12320	0.04914
0.07220	-0.05289
0.12320	0.10015
0.02119	0.25320
0.09770	0.12566
0.25071	-0.46102
0.17421	-0.66508
0.32721	0.30422
0.27621	0.53379
0.14870	0.50828
0.17421	0.10015
0.12320	0.30422
-0.00431	0.45726
0.07220	-0.89465
0.04670	0.71234
0.07220	1.19699
0.22521	0.35523
0.17421	-1.04770
0.17421	-0.35899
0.25071	0.63582
0.02119	1.45206
0.22521	0.10015
0.07220	-0.35899
0.12320	0.38074
0.09770	0.25320
0.30171	0.43176
0.04670	-0.33348
0.12320	-0.48652
0.17421	0.04914
0.12320	0.15117
0.12320	0.48277
0.12320	-0.28246
0.25071	0.30422
0.02119	0.10015
0.14870	0.45726
0.14870	0.35523
0.30171	0.32972
0.17421	0.17668
0.22521	0.38074
0.12320	1.09496
0.04670	-0.46102
0.22521	-0.74160
0.02119	-1.04770
0.14870	-0.02739
-0.00431	0.43176
0.17421	1.42656
0.12320	0.71234
0.35272	1.01843
0.19971	0.63582
0.22521	-0.79262
-0.08081	-0.05289
