0.14870	0.45726
0.17421	0.25320
0.02119	0.25320
0.14870	0.10015
0.07220	-0.56305
0.07220	0.07465
0.35272	0.94191
0.22521	-0.84363
0.19971	0.25320
-0.28482	0.30422
0.40372	-0.51203
0.35272	0.43176
0.02119	0.78886
0.22521	-0.46102
-0.13181	0.55929
-0.25932	0.48277
0.22521	0.22769
0.37822	0.25320
0.42922	-0.38449
0.25071	0.10015
0.14870	0.15117
-0.00431	0.25320
0.14870	-0.18043
0.02119	0.02363
0.14870	0.04914
0.02119	1.06945
0.22521	-0.10391
0.19971	0.45726
0.19971	-0.10391
0.30171	0.15117
0.14870	0.38074
0.25071	0.30422
0.09770	0.25320
0.07220	0.04914
0.09770	-0.48652
0.12320	0.22769
0.27621	0.32972
0.25071	0.12566
0.19971	-0.18043
0.04670	0.32972
0.22521	-0.61406
0.02119	0.32972
-0.15732	0.91640
0.25071	-0.18043
0.37822	-0.25695
0.22521	0.63582
-0.02981	0.35523
0.30171	0.40625
0.12320	-0.38449
0.19971	0.30422
0.09770	0.32972
0.35272	0.30422
0.12320	0.63582
-0.43783	-1.35379
0.04670	0.20219
0.45472	0.40625
0.19971	0.27871
0.19971	-0.15492
0.27621	0.32972
0.53123	0.15117
0.32721	0.20219
-0.08081	0.22769
0.09770	0.43176
-0.08081	0.12566
0.04670	-0.07840
-0.02981	-0.10391
0.14870	0.20219
0.09770	0.35523
0.30171	0.20219
0.25071	0.20219
0.07220	-0.05289
-0.02981	0.12566
0.63323	0.20219
0.86275	0.20219
0.09770	-0.33348
-0.10631	0.76336
-0.18282	0.07465
0.02119	0.40625
0.22521	-0.07840
0.27621	-0.30797
0.14870	-0.63957
0.22521	-0.05289
0.14870	0.73785
-0.02981	0.86539
0.09770	0.73785
0.14870	0.63582
0.09770	0.27871
0.30171	0.27871
0.19971	0.25320
0.19971	0.02363
0.22521	-0.41000
0.14870	-0.10391
0.09770	0.10015
0.12320	0.07465
0.02119	-0.23145
0.17421	-0.79262
0.12320	0.07465
0.17421	0.55929
0.12320	0.48277
0.27621	0.68683
0.40372	0.53379
-0.15732	0.63582
0.40372	-1.02219
0.25071	0.30422
-0.02981	0.58480
-0.02981	0.53379
0.09770	0.30422
0.12320	0.10015
0.25071	-0.02739
0.19971	-0.18043
0.27621	0.04914
0.12320	0.27871
0.19971	0.15117
0.04670	0.04914
0.19971	-0.20594
0.07220	-0.10391
0.22521	0.71234
0.27621	-0.00188
0.35272	-0.66508
0.09770	0.35523
0.12320	0.50828
0.07220	0.73785
0.12320	0.55929
-0.05531	0.38074
-0.00431	0.10015
-0.08081	-0.12942
0.37822	-0.15492
0.22521	0.02363
0.30171	0.10015
0.07220	0.22769
0.17421	-0.10391
0.09770	0.20219
0.14870	-0.20594
0.12320	0.30422
0.12320	-0.84363
0.09770	0.43176
0.14870	1.04394
0.14870	0.86539
-0.15732	0.10015
0.55673	0.35523
0.68424	-0.18043
0.02119	-0.20594
-0.59084	0.04914
0.02119	0.15117
0.30171	-0.02739
0.12320	0.20219
0.30171	0.04914
0.27621	0.27871
0.19971	0.35523
0.22521	-0.02739
0.14870	-0.02739
0.14870	-0.74160
0.04670	0.66132
0.04670	0.66132
-0.00431	0.30422
0.17421	-0.05289
0.17421	0.15117
0.17421	0.43176
0.19971	0.61031
0.22521	-0.48652
0.22521	0.04914
0.09770	0.55929
0.19971	0.30422
-0.20832	-0.18043
0.22521	0.15117
0.09770	0.07465
0.37822	0.04914
0.35272	0.15117
0.09770	0.20219
0.09770	-0.25695
0.04670	0.22769
0.07220	0.43176
0.12320	0.35523
0.22521	-0.00188
0.02119	-0.12942
0.22521	0.02363
0.09770	0.40625
0.19971	0.35523
0.22521	0.22769
0.25071	0.30422
0.25071	0.32972
0.09770	0.35523
0.14870	0.02363
-0.02981	-0.48652
0.12320	-0.28246
0.07220	0.32972
-0.20832	0.30422
0.42922	0.35523
0.42922	-0.18043
0.12320	0.71234
0.17421	0.04914
0.02119	0.15117
0.12320	0.30422
-0.00431	0.25320
0.14870	0.25320
0.02119	-0.30797
0.17421	0.10015
0.12320	-0.23145
0.27621	0.22769
0.19971	0.35523
0.30171	-0.48652
0.09770	0.27871
-0.02981	0.45726
0.14870	0.45726
0.19971	0.27871
0.02119	0.32972
0.17421	0.20219
0.07220	0.25320
0.25071	-0.48652
0.17421	-0.23145
0.17421	0.48277
0.14870	0.25320
0.17421	0.02363
0.09770	0.04914
0.12320	0.35523
0.17421	0.12566
0.04670	0.25320
0.19971	-0.20594
0.14870	0.30422
0.22521	0.02363
0.12320	0.63582
0.32721	-0.07840
0.37822	-0.10391
0.22521	0.02363
0.07220	0.32972
-0.02981	0.30422
-0.02981	0.20219
0.12320	0.25320
0.09770	0.40625
0.27621	0.15117
0.09770	-0.48652
0.25071	0.35523
0.12320	0.45726
0.12320	0.30422
0.09770	0.45726
0.12320	-0.53754
0.19971	-0.07840
0.14870	-0.20594
0.27621	0.15117
0.14870	0.22769
0.25071	0.48277
0.07220	0.53379
0.22521	0.17668
0.12320	0.22769
0.12320	-0.63957
0.17421	0.32972
0.14870	0.22769
0.04670	0.55929
0.25071	0.50828
0.30171	0.22769
0.17421	-0.18043
0.12320	-0.00188
0.12320	0.02363
0.02119	0.02363
0.12320	-0.48652
-0.00431	0.86539
0.19971	0.55929
0.14870	0.35523
0.22521	-0.02739
0.22521	0.02363
0.22521	0.15117
0.22521	0.27871
0.02119	0.78886
0.09770	0.07465
0.02119	-0.61406
0.02119	0.48277
0.53123	-0.35899
0.22521	-0.00188
0.02119	0.10015
0.12320	0.30422
0.07220	0.94191
0.12320	-0.28246
0.04670	0.15117
0.12320	0.22769
0.14870	-0.02739
0.14870	0.58480
0.32721	0.17668
0.09770	0.43176
0.17421	0.27871
0.12320	-0.38449
0.22521	-0.15492
0.12320	0.25320
0.17421	0.12566
0.09770	0.07465
0.02119	0.17668
0.19971	0.12566
0.04670	0.45726
0.22521	-0.12942
0.12320	-0.20594
0.27621	-0.20594
0.12320	0.12566
0.19971	0.25320
0.09770	0.73785
0.09770	0.50828
0.02119	0.38074
0.17421	0.50828
0.09770	0.12566
0.17421	0.22769
0.09770	0.20219
0.70974	-0.15492
0.37822	-0.00188
0.02119	-0.15492
-0.00431	-0.10391
-0.02981	-0.10391
0.02119	-0.43551
0.09770	0.15117
0.09770	0.40625
0.19971	0.43176
0.19971	0.32972
0.22521	0.32972
0.19971	0.25320
0.17421	0.10015
0.19971	-0.25695
0.12320	0.07465
0.12320	0.12566
0.07220	0.73785
0.07220	0.53379
0.12320	-0.05289
0.27621	-0.38449
0.25071	0.07465
0.17421	0.15117
0.09770	0.20219
0.17421	-0.12942
0.07220	0.12566
0.07220	0.30422
0.12320	0.27871
0.04670	0.32972
0.17421	0.43176
0.07220	-0.30797
0.25071	-0.30797
0.22521	0.50828
0.17421	0.17668
0.12320	0.27871
0.12320	0.07465
0.17421	0.20219
0.17421	0.35523
0.17421	0.45726
0.02119	-0.43551
0.35272	-0.05289
0.27621	-0.00188
0.27621	0.22769
0.35272	0.55929
0.19971	0.27871
-0.13181	0.25320
-0.00431	-0.35899
-0.08081	0.25320
0.17421	0.15117
0.12320	0.07465
0.22521	0.17668
0.27621	-0.25695
0.25071	0.35523
0.17421	0.32972
0.12320	0.27871
0.22521	-0.00188
0.07220	0.32972
0.14870	0.32972
0.17421	-0.23145
0.09770	-0.35899
0.22521	0.32972
0.12320	-0.00188
0.14870	0.27871
0.14870	0.45726
0.02119	0.12566
0.12320	0.17668
0.02119	-0.10391
-0.00431	0.38074
0.27621	0.38074
0.19971	0.40625
0.22521	-0.05289
0.30171	-0.33348
0.12320	0.07465
0.17421	0.20219
0.17421	0.30422
-0.00431	0.10015
0.14870	-0.12942
0.12320	-0.00188
0.14870	0.32972
0.27621	0.22769
0.25071	0.38074
0.22521	0.38074
0.25071	0.17668
0.07220	-0.33348
0.09770	0.20219
0.07220	-0.05289
0.32721	0.10015
0.30171	0.45726
0.04670	0.38074
0.02119	-0.18043
0.17421	-0.46102
-0.13181	0.20219
0.42922	0.30422
0.27621	0.66132
0.14870	0.45726
0.02119	0.43176
0.07220	0.20219
0.19971	0.12566
0.14870	0.15117
0.22521	-0.38449
0.19971	0.15117
0.22521	0.12566
0.22521	0.27871
0.04670	0.10015
0.12320	0.22769
0.07220	0.27871
0.14870	-0.00188
0.12320	0.12566
0.09770	-0.48652
0.09770	-0.25695
0.09770	0.30422
0.30171	0.40625
0.07220	0.50828
0.14870	0.66132
0.19971	0.43176
0.04670	0.20219
0.14870	-0.10391
0.22521	-0.48652
0.14870	0.25320
0.19971	0.55929
-0.13181	0.04914
0.42922	-0.23145
0.40372	0.45726
0.27621	-0.02739
-0.10631	0.25320
-0.02981	-0.25695
0.12320	0.04914
0.04670	0.66132
0.12320	0.25320
0.25071	0.17668
0.14870	0.17668
0.30171	-0.05289
0.40372	-0.05289
0.07220	0.22769
0.09770	0.17668
0.07220	0.25320
0.30171	0.27871
0.19971	-0.00188
0.19971	0.35523
0.09770	0.15117
-0.05531	0.17668
0.17421	0.22769
0.12320	-0.02739
0.09770	-0.07840
0.12320	-0.02739
0.07220	0.32972
0.17421	-0.74160
0.12320	0.48277
0.19971	0.55929
0.25071	0.07465
0.17421	0.38074
0.25071	0.22769
0.19971	0.27871
0.07220	0.10015
0.12320	0.02363
0.09770	0.07465
-0.38683	0.27871
0.27621	0.07465
0.32721	0.22769
0.09770	0.25320
0.14870	0.07465
0.14870	0.10015
0.19971	-0.12942
-0.00431	0.22769
0.19971	0.07465
0.12320	0.20219
0.14870	0.32972
0.09770	0.22769
0.22521	0.40625
0.07220	-0.07840
0.12320	0.04914
0.25071	0.22769
0.19971	0.04914
0.19971	0.38074
0.17421	0.04914
0.14870	0.07465
0.12320	0.22769
0.14870	0.10015
0.02119	0.20219
0.14870	0.25320
0.25071	-0.00188
-0.02981	-0.12942
0.19971	0.43176
0.25071	0.22769
0.19971	0.25320
-0.18282	0.15117
0.27621	0.10015
0.32721	0.20219
0.14870	-0.20594
-0.00431	0.45726
0.09770	0.30422
0.12320	0.15117
0.14870	-0.66508
0.22521	-0.20594
0.12320	0.40625
0.19971	0.48277
0.14870	0.40625
0.12320	0.15117
0.17421	-0.00188
0.17421	0.20219
0.30171	0.12566
0.04670	0.00000
0.40372	0.30422
0.17421	0.02363
0.09770	0.30422
-0.02981	-0.02739
0.02119	0.17668
0.35272	0.10015
0.37822	0.12566
-0.18282	0.20219
-0.66735	0.15117
-0.13181	0.07465
-0.05531	0.22769
1.65330	0.30422
0.37822	0.07465
-0.64185	0.15117
0.42922	-0.56305
0.42922	0.25320
0.42922	0.43176
-0.79486	0.48277
-0.48884	0.45726
0.12320	0.07465
0.48022	-0.00188
0.58223	0.15117
0.40372	-0.05289
0.22521	0.15117
-0.00431	0.15117
-0.05531	0.07465
-0.02981	0.15117
0.83725	0.20219
0.60773	0.15117
0.02119	0.12566
-0.08081	0.25320
0.02119	0.17668
-0.05531	0.25320
0.27621	0.20219
0.27621	0.12566
0.12320	-0.43551
0.22521	0.32972
0.12320	0.38074
0.22521	0.15117
0.37822	0.20219
-0.10631	0.15117
-0.28482	0.27871
0.25071	-0.02739
1.83181	0.10015
1.50029	0.30422
-2.57997	-0.00188
0.50573	0.04914
-0.31033	-0.05289
0.19971	0.20219
1.09226	0.20219
0.81175	0.17668
0.27621	0.12566
0.07220	0.12566
-0.08081	0.32972
-0.08081	0.22769
-0.02981	0.02363
-0.08081	0.38074
0.73524	-0.61406
0.14870	0.45726
-0.10631	0.12566
0.30171	0.48277
-0.00431	0.61031
-0.05531	-0.46102
0.37822	-0.07840
0.40372	-0.15492
0.17421	0.32972
0.02119	-0.28246
0.12320	0.12566
0.14870	0.58480
-0.48884	0.25320
1.34728	0.17668
1.21977	0.38074
-1.02437	0.45726
0.81175	0.15117
0.63323	-0.30797
-0.20832	0.12566
-0.25932	0.22769
0.12320	-0.25695
0.76074	0.38074
-0.10631	-0.81812
-1.81492	-0.43551
-0.15732	0.30422
0.63323	0.66132
1.01576	0.48277
0.60773	0.71234
0.45472	1.24800
0.50573	-0.86914
0.45472	0.25320
0.81175	0.78886
0.27621	1.27351
-1.35589	-3.24136
-0.74385	0.94191
0.81175	-0.15492
0.14870	0.86539
-0.41233	-1.12422
0.09770	0.32972
0.22521	-1.65988
-0.89686	-0.33348
0.76074	3.31413
0.86275	2.34484
0.17421	-0.15492
1.75531	2.01323
1.70430	0.12566
-0.69285	0.25320
2.29084	-1.48133
-3.98256	-0.97117
-1.53441	-2.04250
0.42922	0.17668
-0.94787	-0.53754
-1.40690	-1.81293
2.36734	1.45206
3.38741	0.58480
-0.51434	0.91640
1.16877	-0.35899
0.63323	1.04394
-0.84586	-2.39961
-0.79486	1.86019
-0.43783	1.06945
1.06676	0.83988
0.12320	-6.37881
-1.73842	-1.30277
1.50029	0.27871
-1.58541	4.33444
3.36191	3.44167
-1.30489	-0.46102
-2.78398	-2.34859
3.28540	-1.02219
0.40372	2.90601
-0.20832	0.83988
-1.40690	1.68163
-0.46334	-0.99668
1.80631	-3.06281
1.65330	-0.41000
0.48022	-1.40480
0.07220	0.12566
-0.25932	1.12046
-0.41233	-0.23145
-0.48884	1.24800
-1.50890	0.43176
-0.08081	-0.76711
0.25071	1.04394
0.81175	-0.25695
0.93925	2.49788
0.78624	5.68635
0.32721	-1.37929
-0.61635	-4.95038
0.81175	-2.39961
0.27621	1.60511
-0.20832	4.61503
-0.20832	-2.75671
0.22521	-3.75152
0.02119	0.45726
0.12320	-0.10391
-0.00431	4.41096
0.27621	1.88570
0.02119	0.27871
0.83725	-1.14973
-2.65648	-1.40480
0.25071	-2.75671
2.29084	-0.81812
-1.86593	-0.48652
2.11233	1.55410
-0.61635	1.37554
-0.15732	2.39585
2.29084	2.34484
0.78624	1.42656
-0.69285	0.50828
-0.79486	1.19699
-0.66735	-0.18043
-0.66735	-0.23145
3.69343	-5.33300
-2.40146	-0.43551
-1.78942	0.30422
0.32721	-3.59847
0.45472	1.12046
0.30171	-0.18043
0.22521	-3.34339
0.02119	-2.57816
0.22521	1.75816
1.06676	2.88050
0.93925	1.63062
0.42922	1.42656
0.22521	1.17148
0.04670	-1.71090
0.07220	1.47757
-0.33583	2.98253
-0.23382	-0.46102
0.17421	-0.84363
-0.53984	-0.00188
1.27078	-2.60367
-0.99887	1.75816
0.17421	1.42656
0.25071	-0.56305
0.22521	1.52859
0.30171	-0.28246
-0.02981	-1.91496
0.42922	0.30422
-0.43783	0.35523
-1.10088	1.68163
2.03582	-0.33348
2.31634	-1.60887
-1.27939	0.02363
-1.45790	1.12046
0.60773	-0.41000
0.42922	0.63582
0.17421	-0.10391
-0.08081	-0.02739
-0.69285	0.89089
1.06676	-0.30797
1.60230	0.58480
0.53123	-1.60887
0.09770	0.83988
-0.76936	2.21730
-0.56534	0.22769
-1.15188	0.45726
-0.05531	-0.63957
-0.08081	-1.94047
0.32721	0.07465
1.67880	-0.10391
-0.23382	1.75816
-0.10631	0.02363
0.48022	0.55929
0.22521	1.63062
0.27621	0.53379
0.27621	1.01843
0.09770	-4.10862
-0.05531	0.25320
-0.20832	1.50308
-0.43783	0.61031
1.24527	0.89089
-1.07538	-3.08831
0.19971	-1.02219
0.02119	0.83988
0.93925	1.63062
0.35272	-0.66508
0.02119	0.61031
0.50573	-1.50683
0.73524	-0.43551
-1.43240	1.22250
-0.89686	-0.20594
1.29628	1.52859
0.58223	1.47757
-0.08081	-1.04770
-0.38683	0.25320
0.40372	0.96742
0.76074	0.02363
0.70974	0.86539
0.50573	-0.02739
0.04670	-2.11902
0.42922	-0.25695
-0.05531	0.61031
-0.25932	0.96742
-0.31033	1.09496
-0.20832	0.25320
-0.05531	-1.63437
-0.18282	0.73785
0.32721	0.76336
0.30171	-0.58856
0.50573	-0.10391
0.19971	0.12566
-0.20832	3.03355
0.91375	-0.07840
0.63323	-1.53234
0.19971	0.38074
-0.02981	-0.46102
-0.08081	0.58480
-0.25932	-0.20594
0.42922	0.38074
-1.40690	0.53379
1.85731	0.22769
-0.36133	0.38074
0.07220	-0.35899
0.17421	-1.55785
0.07220	-2.88425
-0.10631	1.80917
0.17421	-0.46102
0.27621	-0.07840
0.09770	1.37554
0.25071	1.88570
0.32721	1.47757
0.42922	1.19699
0.27621	0.81437
0.22521	-1.40480
-0.00431	-0.94566
0.07220	0.15117
0.88825	-1.32828
-0.97337	0.10015
-0.46334	0.83988
0.12320	0.83988
0.40372	0.25320
0.48022	-0.15492
0.58223	-0.05289
0.58223	-0.97117
-0.10631	0.61031
-0.28482	0.86539
0.09770	-1.20074
0.17421	2.08976
0.22521	0.30422
0.58223	-3.24136
0.32721	-1.63437
-0.10631	0.71234
-0.36133	1.65613
-0.00431	-0.58856
0.07220	0.94191
0.09770	-1.45582
0.09770	1.17148
-0.00431	0.50828
-0.28482	1.75816
0.55673	1.32453
0.40372	0.07465
0.45472	-0.61406
0.42922	-1.65988
0.02119	1.52859
0.07220	-2.32308
-0.02981	-2.06800
0.07220	0.58480
-0.18282	1.09496
0.12320	0.86539
0.37822	0.86539
0.42922	-0.23145
0.12320	0.78886
0.07220	0.45726
-0.28482	0.30422
1.01576	-1.73640
-0.84586	-0.38449
0.19971	1.14597
0.40372	0.02363
0.70974	-0.20594
0.17421	0.20219
0.04670	0.38074
-0.20832	-0.33348
-0.05531	0.86539
-0.05531	1.09496
0.14870	1.47757
0.19971	-2.90976
0.19971	-0.99668
0.50573	0.32972
0.63323	-0.15492
-1.15188	1.17148
-0.53984	1.55410
0.83725	-0.53754
0.55673	1.06945
0.25071	0.22769
0.53123	-1.88945
0.42922	0.45726
0.09770	0.45726
-0.10631	0.86539
0.07220	-0.07840
0.07220	-0.10391
-0.08081	-0.15492
0.17421	-0.89465
0.02119	-0.76711
-0.23382	0.12566
0.63323	1.17148
0.27621	2.29382
-0.08081	-0.81812
0.02119	0.32972
0.22521	-2.29757
0.32721	1.09496
0.22521	0.30422
0.22521	-0.18043
0.17421	1.27351
0.22521	0.94191
0.07220	-0.00188
-0.08081	0.04914
0.19971	-2.17003
-0.13181	0.63582
0.27621	0.07465
0.48022	0.94191
0.19971	0.35523
0.22521	-0.30797
0.07220	-0.28246
0.17421	0.48277
0.12320	-0.18043
0.17421	0.68683
-0.00431	-1.48133
-0.05531	1.27351
-0.02981	0.32972
0.14870	0.38074
0.37822	0.07465
0.70974	0.40625
0.27621	-1.73640
0.02119	1.75816
-0.33583	0.58480
-0.08081	-1.07320
0.07220	0.02363
0.25071	-0.84363
0.19971	0.81437
0.42922	0.35523
0.27621	-0.46102
0.19971	1.27351
0.07220	0.66132
0.25071	1.01843
0.12320	-0.43551
0.14870	-1.40480
0.25071	0.15117
0.12320	-0.35899
0.02119	0.35523
0.27621	0.43176
0.50573	0.22769
0.12320	-2.57816
-0.08081	0.50828
-0.15732	1.01843
-0.20832	1.37554
0.12320	1.63062
0.12320	-0.81812
-0.15732	0.50828
0.81175	0.10015
0.88825	0.25320
0.04670	-0.00188
0.02119	0.58480
-0.05531	0.10015
0.32721	-0.02739
0.25071	-1.07320
-0.15732	-0.53754
-0.13181	0.66132
-0.02981	0.20219
0.17421	0.07465
0.45472	-0.00188
0.42922	0.76336
0.27621	0.73785
0.09770	0.91640
0.17421	0.45726
0.22521	0.68683
-0.02981	-2.45062
0.12320	-0.20594
0.42922	1.22250
0.09770	-0.35899
-0.02981	-2.39961
0.04670	0.89089
0.09770	-0.02739
0.17421	1.12046
0.27621	1.47757
0.07220	-1.12422
0.17421	0.40625
0.14870	1.14597
0.12320	-1.25176
0.14870	1.01843
0.22521	0.30422
0.42922	-0.84363
0.25071	0.63582
0.12320	0.94191
-0.15732	-1.40480
-0.05531	-0.05289
0.04670	0.58480
0.12320	0.83988
0.22521	-0.00188
0.19971	-1.12422
0.27621	1.24800
0.17421	0.30422
0.09770	-0.05289
0.09770	0.17668
-0.13181	-1.30277
0.19971	2.14077
0.19971	-1.14973
0.22521	-1.09871
0.22521	1.09496
0.32721	2.29382
0.07220	0.40625
-0.25932	-2.75671
-0.08081	0.22769
0.17421	-0.35899
0.17421	1.09496
-0.00431	0.81437
0.48022	1.96222
0.86275	-0.12942
-0.00431	-1.88945
0.17421	-0.25695
0.09770	0.30422
0.07220	0.22769
0.12320	-0.00188
-0.00431	0.55929
0.02119	1.19699
0.09770	-1.45582
-0.00431	0.40625
0.07220	0.73785
0.19971	0.68683
0.14870	-1.91496
0.40372	-0.76711
0.04670	0.40625
0.45472	-0.99668
0.58223	1.22250
0.27621	1.63062
-0.00431	-0.07840
-0.10631	0.86539
0.12320	0.96742
0.07220	1.27351
0.09770	0.12566
0.09770	-0.41000
0.22521	-0.12942
0.02119	-0.76711
0.19971	0.53379
0.19971	-0.25695
0.19971	0.35523
0.12320	-1.02219
0.09770	0.91640
0.22521	-0.79262
0.17421	-0.41000
0.35272	0.78886
0.14870	0.61031
-0.08081	0.30422
0.14870	0.53379
-0.05531	-2.04250
-0.41233	0.17668
0.14870	1.55410
0.42922	1.65613
0.27621	1.01843
0.37822	-0.33348
0.09770	0.04914
0.25071	-0.12942
0.07220	0.25320
-0.13181	0.15117
-0.10631	0.86539
0.09770	-0.10391
0.30171	-1.53234
0.40372	-1.17523
-0.28482	0.68683
0.73524	0.94191
0.48022	-1.14973
0.04670	-0.71609
-0.33583	1.98773
-0.13181	0.17668
-0.38683	0.94191
0.19971	0.71234
0.27621	0.63582
0.19971	-0.18043
0.27621	-0.25695
0.14870	0.20219
0.27621	0.73785
0.27621	0.43176
0.17421	0.04914
0.07220	-0.56305
-0.02981	-1.58336
0.12320	-1.17523
0.12320	1.24800
0.27621	1.09496
0.07220	0.73785
0.04670	0.48277
0.35272	1.47757
0.53123	-0.18043
0.22521	0.04914
-0.08081	-0.15492
0.19971	0.55929
0.19971	-1.91496
0.19971	-0.23145
-0.05531	-0.84363
0.12320	0.50828
-0.15732	-0.25695
0.09770	-0.58856
0.30171	1.29902
0.22521	1.29902
0.25071	0.58480
0.27621	-0.38449
0.14870	0.15117
0.12320	0.48277
0.02119	0.81437
0.07220	0.02363
0.14870	-1.48133
-0.43783	0.30422
0.45472	1.29902
0.60773	-0.69059
0.09770	1.60511
-0.08081	-0.84363
0.02119	0.71234
-0.00431	0.04914
0.42922	0.48277
0.22521	0.27871
0.14870	-0.76711
0.19971	1.22250
0.04670	1.42656
0.14870	0.38074
0.25071	-5.12893
0.02119	1.37554
0.09770	1.52859
-0.00431	0.43176
0.17421	0.73785
0.14870	-0.12942
0.14870	0.20219
0.25071	0.76336
0.22521	-0.94566
0.19971	-0.46102
0.12320	0.86539
0.14870	-1.45582
0.14870	-1.73640
-0.15732	0.78886
-0.10631	0.76336
0.17421	1.37554
0.04670	1.35003
0.27621	-0.02739
0.22521	-0.66508
0.27621	-0.00188
0.12320	0.10015
0.19971	0.66132
0.04670	0.04914
0.37822	-0.00188
0.35272	0.58480
-0.31033	-0.28246
0.35272	1.27351
0.27621	0.22769
0.12320	-2.22105
-0.00431	0.30422
-0.05531	-1.40480
0.17421	0.96742
0.02119	1.96222
0.22521	-1.25176
0.19971	1.04394
0.25071	0.91640
0.19971	-1.73640
0.04670	0.32972
0.07220	0.81437
0.12320	0.99292
0.25071	0.50828
-0.00431	-0.18043
0.07220	-0.43551
0.17421	0.20219
0.35272	0.35523
0.30171	-0.15492
0.17421	-0.92016
0.12320	-0.28246
0.04670	0.32972
0.17421	0.91640
0.09770	1.14597
0.19971	1.27351
-0.00431	0.10015
0.07220	-3.19035
0.19971	-0.33348
0.14870	-0.33348
0.04670	1.37554
0.27621	0.10015
0.07220	0.91640
-0.25932	0.91640
0.37822	1.22250
0.35272	0.25320
0.27621	-0.66508
0.07220	-0.10391
0.02119	0.45726
0.04670	0.63582
0.17421	-3.47093
0.42922	-0.33348
0.32721	1.68163
0.25071	1.52859
-0.13181	-0.10391
0.04670	0.96742
0.14870	0.61031
0.09770	0.15117
0.09770	0.25320
-0.02981	0.35523
0.27621	-0.79262
0.32721	-0.02739
0.40372	0.71234
0.14870	0.32972
0.02119	1.06945
0.02119	-1.60887
-0.05531	-0.38449
0.12320	-0.05289
-0.02981	-1.07320
0.02119	0.50828
0.17421	1.96222
0.17421	0.55929
0.22521	0.53379
0.22521	0.40625
0.19971	0.81437
0.02119	-0.41000
0.12320	0.20219
0.09770	-0.07840
0.14870	0.15117
0.27621	-0.23145
0.25071	0.68683
0.07220	-0.81812
0.32721	0.15117
0.12320	-0.61406
0.09770	-0.02739
-0.15732	1.06945
0.04670	-0.15492
0.42922	-1.40480
0.09770	0.66132
-0.08081	1.24800
0.27621	1.04394
0.37822	0.68683
0.12320	-1.96597
0.32721	0.78886
-0.00431	-0.25695
0.14870	0.20219
-0.08081	0.07465
0.07220	0.99292
0.19971	1.45206
0.27621	-0.38449
0.32721	-2.19554
0.22521	0.55929
0.14870	0.66132
0.12320	0.71234
-0.10631	-0.07840
-0.00431	-0.74160
0.12320	0.48277
0.30171	0.04914
0.14870	0.76336
0.14870	-0.61406
0.12320	1.06945
0.25071	-2.42511
0.40372	1.01843
0.25071	1.91120
0.17421	-0.00188
-0.13181	0.73785
-0.08081	-0.69059
0.07220	-0.56305
0.19971	-0.15492
0.02119	1.19699
0.12320	0.15117
0.09770	0.53379
0.30171	1.17148
0.19971	0.58480
0.19971	-0.86914
0.25071	-1.48133
0.14870	0.66132
-0.13181	0.45726
0.17421	0.10015
0.17421	0.43176
0.19971	-0.41000
0.58223	0.20219
0.32721	-0.33348
-0.05531	1.19699
0.02119	0.76336
-0.05531	0.17668
0.07220	-2.42511
-0.02981	0.22769
0.02119	-0.76711
-0.08081	0.71234
0.09770	0.96742
0.42922	1.01843
0.50573	0.61031
0.12320	0.53379
0.17421	0.27871
0.19971	0.27871
0.12320	-0.56305
0.17421	-0.15492
0.12320	0.10015
0.07220	-0.86914
0.25071	-0.02739
0.17421	0.20219
0.30171	2.06425
0.17421	0.91640
-0.15732	-1.27726
-0.05531	1.01843
-0.05531	-2.47613
-0.02981	-0.10391
0.17421	0.38074
0.19971	0.89089
0.32721	0.91640
0.22521	0.58480
0.09770	0.53379
0.32721	1.93671
0.32721	0.15117
0.14870	-1.25176
0.07220	-2.06800
-0.02981	0.94191
0.04670	0.17668
0.14870	0.22769
0.19971	-0.58856
0.30171	1.27351
0.14870	0.38074
0.14870	0.86539
0.12320	-0.71609
-0.10631	-0.79262
0.07220	0.32972
0.12320	0.38074
0.19971	-1.27726
0.37822	1.14597
-0.08081	1.32453
0.14870	-0.25695
0.25071	1.22250
0.30171	-1.14973
0.02119	0.04914
0.09770	-0.76711
-0.13181	-0.25695
0.17421	1.09496
0.12320	0.63582
0.27621	-0.56305
0.22521	0.58480
0.27621	0.02363
0.12320	0.58480
0.07220	0.38074
0.14870	0.15117
-0.08081	0.96742
0.12320	-1.22625
0.22521	-1.60887
0.19971	0.53379
0.07220	2.03874
0.12320	-2.47613
0.17421	-0.51203
0.25071	0.35523
0.27621	1.78367
0.25071	1.37554
0.22521	1.04394
0.04670	-0.07840
0.02119	-1.17523
0.07220	0.20219
0.04670	0.68683
0.25071	-1.09871
0.30171	0.02363
0.09770	-1.02219
0.22521	0.63582
0.02119	1.06945
0.09770	-0.43551
0.22521	-0.15492
0.09770	0.02363
0.22521	0.68683
0.14870	0.83988
0.25071	-0.25695
0.32721	1.40105
0.25071	-2.68019
0.07220	1.01843
-0.00431	1.06945
0.42922	1.57960
0.02119	-3.72601
-0.08081	0.38074
-0.02981	1.73265
0.09770	1.17148
0.14870	-0.12942
0.19971	0.32972
0.19971	0.61031
-0.00431	-1.25176
0.14870	-0.38449
0.32721	0.53379
0.14870	-1.07320
0.14870	-0.46102
0.02119	1.12046
0.14870	1.35003
0.14870	-0.33348
0.30171	-0.41000
0.32721	0.12566
0.32721	1.60511
0.12320	0.15117
-0.00431	-0.46102
0.02119	0.02363
-0.00431	-0.20594
0.04670	-0.15492
0.12320	-1.94047
0.25071	1.06945
0.27621	-0.07840
0.25071	1.14597
0.17421	0.68683
0.17421	0.81437
0.25071	0.63582
-0.02981	0.38074
-0.08081	-0.20594
0.25071	-1.86394
0.14870	-0.25695
0.19971	0.45726
0.07220	0.58480
0.14870	1.60511
0.17421	-0.33348
0.14870	1.04394
0.19971	-0.41000
-0.00431	-2.27207
0.17421	0.89089
0.09770	0.86539
0.04670	0.63582
0.02119	0.94191
0.37822	0.35523
0.35272	0.10015
0.35272	0.43176
0.32721	0.58480
0.02119	-0.41000
-0.05531	0.25320
-0.00431	-0.66508
0.25071	0.66132
0.09770	0.32972
0.14870	-0.53754
0.19971	-1.45582
0.19971	-0.10391
0.07220	1.06945
0.14870	1.17148
-0.02981	0.76336
0.12320	0.38074
0.30171	0.50828
0.22521	-0.30797
0.22521	0.27871
0.04670	-0.15492
0.12320	-0.30797
0.14870	0.02363
0.35272	0.50828
0.09770	-0.92016
0.07220	0.68683
0.12320	0.22769
0.30171	1.29902
0.02119	0.22769
0.27621	0.30422
0.12320	0.20219
0.22521	0.10015
0.04670	-0.51203
0.22521	-0.05289
-0.02981	0.02363
0.12320	-0.35899
-0.00431	-0.18043
0.14870	0.99292
0.12320	0.96742
0.25071	-0.94566
0.53123	-0.38449
0.32721	-0.07840
0.32721	1.12046
-0.02981	0.96742
0.07220	0.78886
-0.15732	0.20219
-0.02981	0.68683
-0.00431	-0.53754
0.07220	0.38074
-0.20832	0.20219
0.25071	-0.25695
0.50573	-0.07840
0.40372	0.25320
-0.00431	1.24800
0.27621	-0.66508
0.12320	-1.17523
0.12320	-0.53754
0.02119	0.45726
-0.00431	0.55929
0.07220	0.83988
0.22521	0.55929
0.25071	0.63582
0.12320	-1.04770
0.12320	1.27351
0.17421	-0.12942
0.17421	-0.58856
0.09770	0.04914
0.17421	0.40625
0.27621	0.43176
0.25071	0.66132
0.22521	0.71234
0.12320	-0.05289
0.04670	-0.10391
0.02119	0.04914
-0.00431	0.04914
0.09770	-0.05289
0.07220	-0.76711
0.27621	0.25320
-0.00431	0.48277
0.09770	-1.76191
0.14870	0.86539
0.12320	-0.02739
0.35272	0.94191
0.14870	1.17148
0.22521	0.86539
0.22521	1.06945
0.07220	0.91640
0.30171	-1.96597
0.19971	-0.28246
-0.13181	-0.33348
0.30171	0.15117
0.17421	0.12566
0.25071	0.76336
0.09770	1.04394
0.07220	0.32972
0.12320	-0.51203
-0.10631	-0.66508
0.09770	1.01843
0.12320	-2.27207
0.35272	0.61031
0.25071	1.04394
0.14870	0.68683
0.22521	0.96742
0.12320	0.25320
0.07220	0.71234
0.32721	0.12566
0.30171	0.15117
0.07220	-0.02739
0.22521	-0.28246
0.07220	0.83988
0.12320	-0.99668
-0.00431	0.71234
0.07220	-3.08831
0.19971	0.58480
0.22521	0.66132
0.14870	0.89089
0.07220	-0.05289
0.17421	1.73265
0.07220	0.50828
0.32721	0.61031
0.12320	-0.89465
0.17421	0.38074
0.04670	-0.23145
0.19971	-0.25695
0.22521	-0.53754
0.04670	-0.10391
0.12320	0.91640
0.12320	0.04914
0.12320	-0.10391
0.30171	-0.12942
0.14870	0.38074
0.07220	0.27871
0.12320	0.61031
0.07220	0.45726
0.17421	-0.10391
0.12320	-0.10391
0.17421	-0.94566
0.14870	0.53379
0.17421	0.73785
0.14870	0.04914
0.22521	-0.05289
0.30171	0.86539
0.17421	0.71234
0.09770	-0.10391
0.09770	0.50828
-0.13181	-0.25695
0.14870	0.58480
0.35272	-1.27726
0.25071	-0.79262
0.07220	-0.35899
-0.05531	0.53379
0.07220	0.48277
-0.05531	1.12046
0.19971	0.91640
0.22521	-0.07840
0.22521	0.55929
0.12320	-0.30797
0.12320	-0.43551
0.19971	0.15117
-0.00431	0.35523
0.27621	-0.05289
0.25071	-2.09351
0.25071	0.04914
0.25071	1.06945
0.17421	0.81437
-0.00431	0.66132
-0.25932	0.10015
0.07220	-0.58856
0.40372	0.94191
0.42922	-0.30797
0.37822	0.91640
0.14870	1.01843
0.09770	0.58480
-0.05531	-0.12942
0.27621	-0.05289
0.19971	0.25320
0.19971	0.15117
-0.00431	-0.35899
-0.05531	-0.35899
-0.18282	-0.28246
0.04670	-0.00188
0.17421	-0.46102
0.40372	-0.46102
0.37822	1.24800
0.22521	0.50828
0.17421	0.76336
0.04670	0.38074
0.22521	0.22769
0.09770	0.27871
-0.05531	0.12566
-0.08081	0.68683
0.32721	-0.51203
0.50573	-1.12422
0.35272	0.76336
-0.08081	0.45726
-0.00431	0.10015
-0.00431	0.40625
-0.08081	0.45726
0.14870	0.48277
0.17421	-0.63957
0.14870	0.17668
0.22521	0.04914
0.22521	-1.20074
0.22521	1.12046
0.25071	1.86019
0.14870	0.61031
0.17421	-0.63957
0.12320	-0.74160
0.14870	-0.07840
0.12320	0.48277
0.07220	0.30422
0.30171	-0.30797
0.02119	0.43176
0.04670	0.32972
0.22521	0.99292
0.12320	-1.58336
0.30171	0.40625
0.12320	0.35523
0.19971	0.27871
0.09770	0.94191
0.09770	1.24800
0.17421	0.71234
0.17421	0.63582
0.12320	-1.04770
0.14870	-2.04250
0.02119	0.25320
0.12320	0.81437
0.09770	0.25320
0.22521	0.22769
0.12320	1.63062
-0.00431	0.35523
0.27621	-2.93527
0.30171	-1.02219
0.09770	0.45726
0.12320	1.17148
0.22521	0.76336
0.07220	0.63582
0.17421	0.68683
0.30171	-0.69059
0.17421	0.99292
0.22521	0.99292
0.30171	-1.50683
0.12320	-0.97117
-0.08081	0.78886
-0.25932	1.63062
0.07220	-0.41000
0.12320	-0.23145
0.19971	0.40625
0.32721	-0.89465
0.19971	0.38074
0.04670	0.32972
0.17421	0.40625
0.19971	0.63582
0.09770	1.12046
0.27621	-0.94566
0.07220	-1.14973
0.14870	-1.68539
0.12320	0.61031
0.14870	1.37554
0.12320	1.01843
0.22521	-0.76711
0.27621	1.06945
0.14870	0.45726
0.07220	0.89089
0.14870	-0.02739
-0.05531	-1.22625
0.09770	0.04914
0.19971	-0.02739
0.35272	0.35523
0.14870	0.61031
0.35272	0.07465
0.19971	0.68683
0.07220	0.48277
-0.08081	-0.94566
0.25071	-1.88945
0.04670	0.45726
0.09770	1.19699
0.04670	1.47757
0.09770	0.30422
0.25071	-3.16484
0.35272	2.14077
0.14870	0.50828
0.19971	0.81437
0.14870	0.71234
0.17421	0.15117
-0.10631	0.10015
0.17421	0.30422
-0.02981	-0.63957
0.07220	-0.15492
0.14870	0.63582
0.17421	-0.38449
0.19971	0.73785
0.27621	0.71234
0.19971	-1.27726
0.22521	0.66132
0.17421	-0.63957
0.12320	0.61031
0.07220	-0.46102
0.07220	-0.18043
-0.02981	-0.12942
0.02119	1.42656
0.19971	0.25320
0.25071	0.45726
0.27621	-0.92016
0.22521	0.86539
0.19971	0.78886
0.09770	0.35523
0.04670	-0.02739
0.02119	-0.30797
0.09770	0.48277
0.22521	-0.43551
0.25071	0.07465
0.19971	-0.33348
0.12320	-0.02739
0.07220	0.38074
0.12320	0.38074
0.09770	0.30422
0.22521	0.04914
0.19971	-0.15492
0.14870	-1.04770
0.17421	0.55929
0.17421	0.35523
0.25071	1.45206
0.04670	0.02363
0.25071	-0.43551
0.07220	1.06945
0.12320	-0.69059
0.09770	0.81437
-0.00431	0.10015
0.02119	0.20219
-0.08081	0.48277
0.32721	-0.02739
0.22521	0.17668
0.32721	0.53379
0.27621	0.02363
0.30171	-0.23145
0.22521	0.15117
-0.02981	-0.41000
0.27621	0.12566
0.12320	-0.07840
0.04670	0.22769
0.14870	0.53379
0.07220	0.22769
0.19971	-0.74160
0.27621	0.10015
0.14870	0.73785
0.02119	-0.15492
0.12320	0.81437
0.04670	0.45726
0.12320	-0.56305
0.14870	0.40625
0.30171	0.53379
0.22521	-0.69059
0.17421	0.45726
0.30171	0.15117
0.25071	0.32972
-0.05531	0.15117
0.02119	0.45726
0.07220	-0.00188
0.22521	0.10015
0.27621	1.04394
0.22521	-0.20594
0.30171	-0.30797
0.17421	1.17148
0.17421	-1.37929
-0.02981	0.17668
0.12320	1.06945
-0.08081	-0.79262
0.09770	-0.10391
0.09770	0.53379
0.27621	0.55929
0.30171	0.04914
0.30171	0.22769
0.19971	-0.76711
0.12320	0.04914
0.09770	0.04914
0.22521	0.91640
0.09770	0.22769
0.07220	0.10015
0.27621	0.30422
0.22521	0.86539
0.14870	-0.05289
0.22521	-1.04770
0.04670	0.10015
0.09770	0.25320
0.07220	0.27871
0.02119	0.53379
0.09770	-0.20594
0.09770	0.22769
0.22521	-0.41000
0.32721	0.55929
0.17421	1.37554
0.14870	-2.68019
0.02119	0.32972
0.12320	0.58480
0.07220	0.15117
0.04670	1.09496
0.07220	1.04394
0.22521	0.78886
0.25071	-1.30277
0.25071	-0.86914
0.37822	-0.15492
0.27621	-0.89465
0.12320	0.66132
-0.02981	0.71234
-0.02981	0.83988
0.02119	0.50828
0.02119	-0.20594
0.25071	-0.15492
0.14870	-0.10391
0.19971	0.07465
0.25071	0.43176
0.19971	0.12566
0.19971	0.50828
0.04670	-0.23145
0.19971	0.40625
-0.00431	0.15117
0.19971	0.22769
0.12320	-0.30797
0.12320	-0.05289
0.09770	0.35523
0.35272	0.07465
0.25071	0.04914
0.32721	-0.46102
0.19971	-0.00188
0.14870	-0.28246
-0.13181	0.91640
-0.25932	0.68683
-0.18282	0.68683
0.30171	-0.02739
0.48022	0.66132
0.45472	-0.33348
0.32721	0.50828
0.07220	0.55929
0.12320	-1.20074
0.07220	-0.05289
0.09770	0.35523
0.07220	0.15117
-0.00431	0.10015
0.12320	0.38074
0.12320	0.45726
0.22521	0.27871
0.32721	0.30422
0.25071	-0.18043
0.25071	-0.81812
-0.00431	-0.28246
0.07220	-0.10391
0.12320	1.52859
0.07220	-0.46102
0.07220	0.55929
0.22521	-0.66508
0.22521	-0.02739
0.27621	1.12046
0.19971	0.35523
0.17421	0.20219
-0.00431	0.30422
-0.02981	0.17668
0.09770	-0.23145
0.25071	-0.12942
0.27621	0.58480
0.17421	0.17668
0.02119	-1.20074
0.14870	-0.69059
0.25071	1.14597
0.25071	0.43176
0.09770	-0.10391
0.17421	-0.20594
0.02119	0.27871
-0.10631	1.60511
-0.08081	0.76336
0.12320	-0.05289
0.48022	-1.78742
0.17421	1.17148
0.25071	0.71234
0.30171	0.40625
0.12320	-0.02739
0.02119	-0.38449
0.02119	-0.10391
0.14870	-0.25695
0.14870	0.27871
0.19971	0.66132
0.27621	-0.15492
0.19971	-0.28246
0.12320	-0.38449
-0.00431	0.63582
-0.02981	0.94191
0.14870	0.45726
0.14870	0.76336
0.30171	0.22769
0.27621	0.40625
0.37822	-0.51203
0.19971	0.30422
0.19971	-0.18043
0.09770	-0.51203
0.02119	-0.05289
0.02119	1.12046
0.02119	1.35003
0.17421	-0.33348
0.09770	-0.71609
0.14870	-0.46102
0.37822	-0.30797
0.14870	1.27351
0.19971	0.02363
0.14870	-0.07840
0.09770	-0.10391
0.09770	-0.12942
0.02119	0.96742
0.12320	-0.05289
0.09770	-0.10391
0.19971	1.04394
0.22521	0.10015
0.42922	-0.56305
0.27621	0.94191
0.30171	-1.68539
0.09770	0.35523
-0.05531	1.17148
-0.13181	0.96742
0.12320	-0.20594
0.17421	0.02363
0.07220	0.45726
0.22521	-0.00188
0.19971	0.53379
0.30171	0.35523
0.19971	0.32972
0.09770	-2.09351
0.09770	0.02363
0.14870	0.58480
0.02119	0.38074
0.22521	0.89089
0.02119	-0.18043
0.27621	-0.48652
0.22521	-0.00188
0.17421	0.71234
0.17421	1.04394
0.02119	0.48277
0.25071	0.20219
-0.00431	0.17668
0.14870	0.10015
-0.00431	-0.69059
0.14870	-0.00188
0.12320	-0.94566
0.32721	0.68683
0.22521	-0.28246
0.12320	0.99292
0.12320	0.94191
0.09770	0.55929
0.22521	-0.66508
-0.00431	0.27871
0.35272	0.40625
0.17421	-0.30797
0.12320	0.58480
0.14870	-0.15492
0.12320	-1.02219
0.22521	0.25320
0.22521	-0.15492
0.04670	0.25320
0.12320	0.30422
-0.00431	0.43176
-0.08081	0.45726
0.07220	-1.17523
0.17421	0.15117
0.25071	0.86539
0.32721	0.35523
0.32721	-0.56305
0.27621	0.66132
0.17421	-0.81812
0.07220	1.01843
-0.00431	0.71234
0.14870	-1.27726
0.04670	0.02363
0.22521	0.89089
0.22521	-0.00188
0.19971	0.96742
0.30171	0.35523
0.12320	-0.35899
0.02119	-0.12942
-0.00431	0.66132
-0.00431	-0.84363
0.07220	-0.05289
-0.05531	0.12566
0.35272	0.63582
0.35272	0.38074
0.22521	-0.00188
0.25071	0.02363
0.25071	0.15117
0.02119	0.07465
0.02119	0.25320
0.09770	-0.28246
0.17421	0.38074
0.17421	0.38074
0.14870	0.30422
0.35272	0.35523
0.22521	-1.40480
0.12320	0.50828
0.07220	0.78886
0.04670	-0.05289
0.12320	-1.30277
0.07220	0.53379
0.19971	1.06945
0.14870	0.78886
0.14870	0.12566
0.30171	0.63582
0.17421	-0.12942
0.19971	-0.02739
0.07220	-0.23145
0.07220	0.38074
0.12320	0.02363
0.19971	-0.74160
0.14870	-0.05289
-0.00431	0.45726
0.12320	0.48277
0.12320	0.86539
0.27621	-0.38449
0.14870	0.63582
0.27621	0.66132
0.12320	-1.68539
0.17421	-0.71609
0.09770	0.10015
0.22521	0.15117
0.07220	1.60511
0.12320	0.94191
0.04670	0.48277
0.12320	0.22769
0.17421	0.22769
0.22521	0.66132
0.07220	0.32972
0.04670	-0.86914
0.12320	-1.32828
0.09770	0.22769
0.09770	0.66132
0.12320	0.32972
0.37822	0.53379
0.22521	0.76336
0.19971	0.04914
0.09770	-0.38449
0.14870	-0.38449
0.14870	0.94191
0.09770	0.66132
0.07220	-0.61406
0.25071	0.20219
0.22521	0.10015
0.12320	0.38074
0.22521	0.40625
0.07220	-0.38449
0.17421	0.15117
-0.02981	0.40625
0.12320	0.38074
0.04670	-0.00188
0.22521	0.25320
0.17421	-0.51203
0.32721	0.04914
0.07220	0.53379
0.12320	-0.28246
0.17421	0.32972
0.09770	-0.15492
0.07220	0.30422
0.07220	0.50828
0.17421	-0.18043
0.22521	-0.76711
0.07220	-1.20074
0.22521	0.10015
0.14870	0.68683
0.32721	1.40105
0.12320	1.65613
0.17421	0.53379
0.09770	-0.25695
0.02119	0.27871
0.02119	0.55929
0.12320	-1.04770
0.14870	-0.46102
0.22521	0.30422
0.32721	0.04914
0.30171	0.61031
0.12320	0.35523
0.22521	-0.71609
0.09770	0.25320
0.12320	0.20219
0.02119	0.48277
0.12320	0.45726
0.14870	0.48277
0.25071	0.07465
0.19971	-0.41000
0.17421	0.04914
0.25071	0.94191
0.09770	1.04394
0.17421	-0.51203
0.09770	-0.94566
0.07220	0.15117
0.09770	0.61031
0.12320	0.38074
0.27621	0.53379
0.17421	0.30422
0.30171	0.35523
0.14870	0.15117
0.12320	0.22769
0.09770	-0.63957
0.07220	-0.25695
0.09770	-0.46102
0.09770	0.27871
0.19971	0.20219
0.22521	0.32972
0.19971	0.38074
0.07220	0.30422
0.22521	0.50828
0.12320	0.32972
0.09770	0.30422
0.17421	0.40625
0.12320	-0.53754
0.19971	0.22769
0.09770	-0.25695
0.19971	0.45726
0.14870	0.17668
0.12320	-0.30797
0.25071	0.17668
0.09770	0.10015
0.19971	0.17668
0.12320	0.55929
0.07220	0.86539
0.04670	-0.41000
-0.05531	0.25320
0.25071	0.10015
0.27621	0.30422
0.40372	-0.41000
0.22521	-0.51203
0.12320	-0.33348
0.19971	-0.05289
-0.00431	0.50828
0.07220	0.48277
0.09770	-0.05289
0.02119	0.73785
0.32721	0.55929
0.27621	0.27871
0.25071	-0.00188
0.19971	0.10015
-0.00431	0.40625
0.07220	-0.10391
0.07220	-0.43551
-0.02981	0.07465
0.12320	0.55929
0.14870	-0.51203
0.19971	0.81437
0.32721	1.04394
0.12320	0.50828
0.12320	0.35523
0.14870	-0.81812
0.12320	-0.23145
0.17421	0.38074
0.09770	0.35523
0.22521	-0.23145
0.22521	-0.07840
0.17421	0.48277
0.22521	0.20219
0.04670	-0.20594
0.14870	0.48277
0.22521	0.20219
-0.05531	0.68683
0.14870	0.32972
0.14870	-2.39961
0.14870	0.40625
0.27621	0.81437
0.19971	0.66132
0.09770	0.71234
0.19971	0.35523
0.17421	0.76336
0.09770	-0.63957
0.14870	-0.79262
0.07220	0.53379
0.07220	0.27871
0.14870	0.81437
0.14870	0.53379
0.27621	0.22769
0.07220	-1.20074
0.09770	0.55929
0.14870	-0.12942
0.22521	-0.05289
0.32721	1.01843
0.12320	-0.33348
0.14870	0.20219
0.12320	0.71234
0.07220	-0.18043
0.30171	0.30422
0.12320	0.12566
0.14870	0.20219
-0.00431	-0.25695
0.04670	-0.58856
0.07220	0.35523
-0.00431	-0.05289
0.19971	0.76336
0.19971	0.10015
0.27621	0.45726
0.32721	0.35523
0.27621	0.76336
0.12320	0.04914
-0.05531	-0.43551
0.12320	0.55929
0.04670	-0.38449
0.25071	-0.18043
0.25071	0.40625
0.19971	0.17668
0.12320	-0.43551
0.04670	0.17668
0.17421	-0.05289
0.22521	-0.10391
0.25071	1.14597
0.22521	0.66132
0.02119	0.10015
0.14870	0.63582
0.07220	0.12566
0.17421	-0.38449
0.19971	-0.25695
0.19971	0.35523
0.14870	-0.25695
0.27621	0.15117
0.12320	0.53379
0.07220	0.25320
0.12320	0.71234
-0.02981	-0.41000
0.17421	0.40625
0.12320	-0.12942
0.30171	0.53379
0.22521	-0.30797
0.02119	-0.43551
0.25071	0.17668
0.09770	0.45726
0.19971	0.94191
0.17421	-0.25695
0.19971	0.10015
0.07220	0.43176
0.02119	0.48277
0.07220	-1.02219
0.12320	1.22250
0.19971	-0.38449
0.17421	0.61031
0.12320	-1.91496
0.12320	0.63582
0.02119	0.55929
0.12320	0.81437
0.19971	0.66132
0.04670	0.61031
0.22521	0.32972
0.14870	-0.33348
0.22521	-0.23145
0.09770	-0.56305
0.27621	0.02363
0.09770	0.20219
0.04670	0.81437
0.02119	-0.53754
0.19971	0.40625
0.17421	0.43176
0.19971	0.22769
0.09770	0.32972
0.02119	-0.05289
0.12320	0.20219
0.30171	0.45726
0.17421	0.53379
0.22521	0.15117
0.19971	-0.05289
0.12320	0.45726
0.09770	0.15117
-0.05531	-0.79262
0.19971	0.02363
0.04670	-0.61406
0.17421	0.50828
0.17421	0.04914
0.22521	0.86539
-0.02981	0.48277
0.12320	0.35523
0.09770	0.50828
0.27621	0.32972
0.22521	-0.23145
0.22521	-0.69059
0.22521	0.15117
0.12320	0.07465
0.09770	0.32972
0.14870	-0.92016
0.12320	0.40625
0.04670	0.17668
0.12320	0.58480
0.17421	0.10015
0.17421	0.25320
0.25071	0.58480
0.02119	0.27871
0.22521	0.30422
0.07220	-0.94566
0.27621	0.27871
0.12320	0.89089
0.07220	-0.89465
0.02119	0.04914
-0.02981	0.78886
0.04670	0.61031
0.30171	-0.23145
0.35272	0.43176
0.30171	0.63582
0.12320	-0.28246
0.27621	0.30422
-0.00431	0.35523
0.02119	0.07465
0.12320	0.04914
0.19971	-0.10391
0.12320	-0.23145
0.14870	0.07465
0.17421	0.35523
0.07220	0.15117
0.19971	0.04914
0.07220	-0.10391
0.22521	0.25320
0.07220	0.30422
0.22521	1.04394
0.04670	-0.12942
0.17421	-0.89465
0.19971	0.68683
0.14870	1.14597
0.14870	-0.89465
-0.00431	0.20219
0.17421	0.48277
0.04670	0.22769
0.32721	0.76336
0.19971	0.68683
0.12320	0.35523
0.12320	0.22769
0.09770	0.17668
0.22521	-0.28246
0.12320	-1.25176
0.12320	-0.30797
0.02119	0.07465
-0.00431	0.27871
0.04670	0.22769
0.25071	0.32972
0.35272	0.50828
0.19971	0.30422
0.30171	-0.48652
0.12320	-0.30797
0.22521	0.50828
0.02119	0.04914
0.07220	0.78886
-0.05531	0.61031
0.09770	-0.63957
0.22521	0.45726
0.09770	-0.76711
0.22521	0.45726
0.19971	0.04914
0.32721	0.53379
0.22521	0.45726
0.14870	0.27871
0.19971	0.30422
0.14870	0.50828
0.07220	0.35523
-0.05531	-0.25695
0.12320	-0.89465
0.22521	-0.05289
0.22521	-0.18043
0.22521	0.55929
0.14870	-0.10391
0.19971	0.50828
0.04670	0.96742
0.09770	0.20219
0.17421	0.63582
0.09770	-0.12942
0.14870	-0.97117
0.12320	-0.35899
0.12320	0.55929
0.07220	0.58480
0.27621	0.20219
0.32721	0.38074
0.25071	-0.46102
0.12320	0.73785
0.04670	0.30422
0.12320	0.50828
0.04670	0.07465
0.17421	-0.18043
0.25071	0.25320
0.12320	0.48277
0.19971	0.40625
0.14870	0.25320
0.12320	0.35523
0.12320	0.27871
-0.08081	0.12566
0.12320	0.07465
0.22521	0.50828
0.17421	-0.20594
0.35272	-0.02739
0.14870	-0.30797
0.22521	0.10015
0.19971	0.04914
0.04670	0.02363
0.17421	0.45726
0.02119	-0.43551
0.12320	-0.02739
0.07220	0.32972
0.02119	0.78886
0.17421	1.14597
0.27621	0.40625
0.32721	-0.05289
0.22521	-0.25695
0.17421	-0.20594
0.19971	0.55929
0.02119	0.48277
0.14870	0.20219
0.09770	-0.48652
0.09770	-0.05289
0.19971	0.78886
0.19971	0.40625
0.22521	-0.35899
0.07220	-0.38449
0.14870	0.12566
-0.08081	-1.02219
0.04670	0.27871
0.22521	0.30422
0.17421	0.89089
0.32721	0.45726
0.25071	0.15117
0.07220	0.17668
0.17421	0.12566
0.07220	0.48277
0.09770	0.58480
0.02119	-0.00188
0.17421	0.30422
0.07220	0.78886
0.17421	-0.28246
0.09770	-1.88945
0.30171	0.12566
0.09770	0.71234
0.22521	0.43176
0.17421	0.94191
0.02119	0.12566
0.14870	0.04914
0.12320	-0.05289
0.27621	0.50828
0.09770	0.48277
0.09770	-0.58856
0.07220	0.55929
0.17421	-0.63957
0.27621	0.35523
0.22521	-0.15492
0.12320	0.43176
0.22521	0.25320
0.07220	0.22769
0.12320	-0.20594
0.07220	-1.02219
0.04670	0.27871
0.12320	0.66132
0.17421	0.66132
0.19971	1.01843
0.19971	-1.96597
0.09770	0.20219
-0.02981	0.61031
0.19971	0.68683
0.19971	-0.10391
0.27621	-0.23145
0.12320	-0.25695
0.27621	0.22769
0.09770	0.66132
0.25071	0.40625
0.02119	0.17668
0.19971	0.12566
0.04670	0.35523
0.09770	0.22769
0.04670	-0.05289
0.17421	-0.76711
0.27621	0.50828
0.04670	0.38074
0.25071	0.76336
-0.00431	-0.89465
-0.00431	-1.09871
0.02119	0.20219
0.22521	0.61031
0.42922	0.55929
0.19971	0.71234
0.27621	0.30422
0.09770	0.07465
0.25071	0.43176
0.04670	0.27871
0.19971	0.22769
0.07220	0.55929
0.17421	-0.66508
-0.02981	-1.37929
0.14870	0.71234
0.07220	0.30422
0.12320	0.73785
0.17421	0.66132
0.25071	-0.10391
0.17421	0.30422
0.30171	0.35523
0.17421	0.12566
0.07220	-0.02739
0.04670	-0.15492
0.12320	0.12566
-0.00431	0.58480
0.17421	0.02363
0.19971	0.50828
0.30171	-0.89465
0.32721	0.53379
0.17421	-0.02739
-0.02981	0.61031
-0.08081	0.43176
0.22521	0.55929
0.12320	0.10015
0.22521	0.17668
0.14870	-0.30797
0.25071	0.15117
0.19971	0.22769
0.14870	0.55929
0.14870	-0.97117
0.04670	-0.53754
0.09770	-0.35899
0.14870	0.68683
0.07220	0.91640
0.07220	0.63582
0.09770	0.91640
0.22521	0.55929
0.09770	-0.30797
0.19971	-0.05289
0.12320	0.45726
0.14870	0.71234
0.17421	-2.22105
0.12320	-0.79262
0.07220	0.58480
0.19971	0.63582
0.17421	0.66132
0.14870	0.17668
0.30171	0.43176
0.14870	0.63582
0.09770	0.17668
0.30171	0.07465
0.27621	0.30422
0.17421	-0.86914
0.02119	0.04914
0.04670	0.78886
0.19971	0.38074
0.19971	-1.07320
0.19971	0.48277
0.04670	0.04914
0.12320	0.32972
0.09770	0.35523
0.19971	0.53379
0.04670	-0.61406
0.07220	0.81437
0.17421	1.06945
0.19971	-0.18043
0.30171	-0.05289
0.14870	0.43176
0.19971	-0.05289
0.22521	0.43176
