0.17421	-0.56305
0.25071	0.94191
0.22521	0.15117
0.17421	0.17668
0.14870	0.32972
0.19971	0.63582
0.14870	0.43176
0.19971	0.43176
0.14870	-0.23145
0.07220	0.02363
0.14870	0.48277
0.22521	-0.41000
0.02119	0.22769
0.14870	0.32972
0.19971	-0.15492
0.12320	-0.10391
0.14870	0.30422
0.07220	0.66132
0.14870	0.38074
0.22521	0.61031
0.14870	-1.27726
0.17421	0.68683
0.09770	0.22769
0.14870	-0.92016
0.25071	0.45726
0.19971	0.63582
0.12320	0.76336
0.07220	-0.46102
0.07220	-0.12942
0.17421	0.66132
0.50573	0.17668
0.14870	0.10015
-0.00431	-0.33348
0.07220	-0.20594
0.17421	0.12566
0.09770	0.94191
0.04670	0.58480
0.07220	-0.07840
0.12320	0.48277
0.19971	-0.25695
0.17421	-1.14973
0.22521	1.12046
0.09770	-0.12942
0.09770	0.32972
0.25071	0.53379
0.17421	0.35523
-0.00431	0.66132
0.12320	0.35523
0.27621	-0.30797
0.17421	-0.97117
0.14870	-0.00188
0.12320	-0.12942
0.17421	1.27351
0.07220	-1.20074
0.14870	0.22769
0.17421	0.35523
0.07220	-0.18043
0.22521	0.81437
0.14870	0.66132
0.04670	0.45726
0.22521	-0.02739
0.19971	0.27871
0.22521	0.07465
0.27621	-0.56305
0.09770	0.04914
0.02119	0.38074
0.04670	0.58480
0.14870	-0.02739
-0.02981	-0.46102
0.12320	-0.97117
0.53123	1.32453
0.22521	-1.22625
0.12320	0.12566
0.12320	1.09496
0.04670	0.99292
0.07220	1.63062
0.12320	0.15117
0.19971	-0.02739
0.19971	0.17668
0.07220	-0.25695
0.12320	-0.41000
0.22521	-1.86394
0.17421	1.09496
0.09770	0.71234
0.14870	-0.23145
0.22521	-0.76711
0.14870	1.29902
0.07220	-0.63957
0.12320	2.01323
0.22521	-1.55785
0.14870	-0.38449
0.07220	1.29902
0.25071	0.81437
0.25071	0.66132
0.09770	-0.41000
-0.20832	0.40625
0.30171	-0.02739
0.42922	0.30422
0.14870	-0.23145
-0.05531	-0.00188
0.07220	0.40625
0.07220	-0.51203
0.22521	1.24800
0.30171	-0.71609
0.09770	-0.79262
0.17421	0.61031
0.19971	0.30422
0.14870	0.63582
0.09770	1.65613
0.14870	-0.53754
0.17421	0.96742
0.04670	-1.40480
0.17421	-0.10391
0.37822	0.89089
0.07220	-0.46102
-0.00431	0.61031
0.37822	0.53379
0.25071	-0.05289
0.04670	0.76336
0.12320	0.55929
0.14870	0.71234
0.04670	-0.63957
0.14870	-0.28246
0.19971	0.04914
0.25071	-0.43551
0.04670	-0.89465
0.02119	-0.71609
0.55673	1.17148
0.25071	1.29902
0.02119	0.86539
0.09770	0.20219
0.07220	0.25320
0.09770	0.35523
0.22521	-0.35899
0.12320	-0.20594
0.12320	-0.92016
0.25071	0.12566
-0.13181	0.32972
0.93925	-0.43551
0.09770	1.04394
-0.41233	1.06945
0.02119	0.32972
0.19971	-0.46102
0.30171	-0.30797
0.02119	0.15117
-0.43783	-1.02219
-0.08081	1.70714
1.14327	0.22769
0.88825	-0.51203
-0.33583	0.30422
-0.69285	0.32972
0.42922	0.66132
0.22521	-0.66508
0.22521	0.68683
-0.05531	0.58480
0.32721	-0.25695
-0.33583	-0.15492
1.11776	0.35523
0.35272	0.48277
-0.13181	0.55929
-0.02981	-1.09871
-0.05531	0.17668
0.22521	0.30422
0.17421	0.04914
0.14870	-0.48652
0.09770	0.53379
0.04670	0.22769
0.14870	0.86539
0.17421	-0.28246
0.07220	0.55929
0.60773	-0.33348
-0.25932	-0.92016
-0.18282	2.01323
-0.00431	-0.20594
0.45472	1.27351
0.37822	-0.71609
0.17421	-0.94566
0.02119	0.27871
0.14870	0.32972
0.09770	0.43176
-0.08081	0.55929
0.32721	0.27871
0.32721	-0.02739
0.02119	-0.41000
0.02119	0.15117
0.32721	0.43176
0.02119	0.17668
-0.15732	0.15117
0.50573	-0.05289
0.42922	0.30422
0.02119	-0.23145
0.02119	0.91640
0.09770	0.07465
0.17421	0.83988
0.04670	-1.68539
0.17421	0.04914
0.25071	0.91640
0.02119	0.35523
0.14870	0.40625
0.02119	0.25320
0.14870	0.25320
0.48022	0.58480
0.25071	0.02363
0.25071	-0.20594
-0.00431	-0.97117
-0.08081	0.10015
-0.02981	0.38074
0.09770	0.40625
-0.02981	-0.10391
0.60773	-0.38449
-0.53984	0.48277
0.32721	0.48277
0.48022	0.12566
0.19971	0.55929
0.35272	0.15117
0.35272	0.58480
0.09770	-1.32828
-0.20832	-0.28246
0.65874	0.83988
0.09770	0.48277
-0.20832	0.86539
-0.13181	0.66132
0.02119	-0.33348
0.19971	0.15117
0.35272	0.35523
0.12320	-0.02739
0.12320	-0.81812
0.22521	0.15117
0.12320	0.55929
0.09770	0.30422
-0.00431	0.27871
0.32721	0.35523
0.58223	0.35523
0.09770	-0.71609
0.07220	0.20219
-0.00431	0.73785
-0.08081	-0.15492
0.14870	-0.53754
0.53123	0.55929
0.19971	0.45726
-0.10631	0.58480
0.17421	0.27871
0.25071	-0.05289
0.22521	-0.02739
-0.00431	-0.20594
-0.00431	0.17668
0.12320	0.55929
0.17421	0.02363
0.60773	-0.28246
-0.18282	0.07465
-0.08081	0.27871
0.37822	0.35523
0.22521	0.48277
0.25071	0.22769
0.42922	0.15117
-0.20832	-0.66508
-0.33583	0.91640
0.83725	-0.48652
0.32721	0.15117
-0.38683	-0.05289
0.27621	0.27871
0.27621	0.96742
0.22521	-0.53754
-0.05531	0.61031
0.04670	0.32972
0.02119	-0.28246
0.04670	0.43176
0.09770	0.35523
0.17421	0.27871
0.19971	0.12566
0.25071	0.12566
0.22521	-0.76711
0.02119	0.22769
0.14870	1.14597
0.32721	0.30422
0.40372	-1.37929
0.19971	-0.00188
-0.00431	0.20219
0.09770	1.35003
0.07220	-1.35379
0.07220	0.25320
0.19971	0.68683
0.14870	0.63582
0.02119	0.22769
0.14870	-0.25695
-0.05531	0.48277
0.53123	0.73785
0.17421	0.20219
-0.18282	0.04914
0.32721	0.40625
0.25071	-0.15492
-0.20832	-0.10391
0.22521	-0.25695
0.22521	0.07465
0.22521	0.32972
-0.10631	0.04914
-0.51434	-0.79262
0.65874	0.40625
0.45472	0.35523
-0.00431	0.63582
-0.02981	0.58480
0.12320	0.66132
0.42922	0.07465
0.14870	-0.00188
0.04670	-0.25695
0.09770	0.17668
0.17421	0.07465
0.25071	-0.58856
0.19971	0.58480
-0.13181	0.83988
0.27621	-0.35899
0.42922	0.40625
-0.10631	0.30422
0.42922	0.53379
0.12320	-0.86914
-0.13181	0.99292
-0.02981	0.35523
0.12320	-0.38449
0.35272	-0.53754
0.07220	-0.58856
0.04670	-0.46102
0.17421	0.81437
0.14870	0.63582
0.22521	0.71234
0.76074	0.61031
-0.36133	-0.48652
-0.61635	0.32972
0.70974	0.58480
0.65874	0.38074
0.04670	-0.18043
0.09770	-0.28246
-0.05531	-0.02739
0.30171	0.25320
0.40372	0.45726
0.04670	-0.12942
0.04670	0.20219
-0.00431	-0.41000
0.17421	0.58480
-0.05531	0.45726
0.42922	-0.00188
0.22521	0.20219
0.63323	-0.00188
-0.48884	0.10015
0.99026	0.38074
0.40372	0.15117
-0.18282	-0.10391
-0.05531	0.02363
0.17421	0.30422
-0.08081	0.43176
0.19971	0.35523
0.17421	-0.46102
0.22521	-0.10391
0.73524	0.53379
0.32721	0.86539
0.09770	-0.66508
-0.56534	0.86539
0.42922	0.91640
0.68424	-0.56305
-0.25932	0.15117
0.04670	0.27871
0.17421	0.02363
0.09770	-0.12942
0.40372	0.30422
0.19971	-0.41000
0.02119	1.22250
0.12320	0.22769
0.07220	-1.68539
0.19971	0.38074
0.19971	0.94191
0.17421	0.71234
0.12320	0.12566
0.14870	0.17668
0.19971	0.20219
0.12320	0.27871
0.58223	0.43176
-0.89686	-0.63957
0.19971	0.10015
0.78624	-0.05289
0.50573	0.15117
-0.00431	0.45726
0.07220	0.45726
-0.05531	-0.15492
0.07220	0.15117
0.12320	-0.38449
-0.05531	0.04914
-0.13181	-0.41000
0.14870	1.22250
0.55673	0.96742
0.78624	0.76336
-0.20832	0.25320
-0.41233	-0.02739
0.17421	-0.25695
0.48022	-0.51203
0.12320	0.27871
-0.02981	0.15117
0.12320	0.27871
0.17421	0.04914
0.25071	0.10015
0.27621	0.38074
0.19971	0.17668
0.07220	0.27871
0.19971	-0.74160
0.14870	0.30422
0.04670	0.32972
0.02119	0.50828
0.25071	0.40625
0.45472	0.53379
0.35272	0.40625
0.02119	-1.14973
-0.10631	-0.07840
0.09770	-0.12942
0.09770	-0.07840
-0.05531	0.48277
0.50573	0.48277
0.35272	0.50828
0.17421	0.15117
-0.05531	0.40625
0.07220	0.25320
0.09770	-0.53754
0.25071	0.38074
0.12320	0.22769
0.14870	0.04914
0.07220	0.10015
0.35272	0.27871
0.09770	0.10015
0.04670	0.17668
0.14870	0.15117
0.22521	0.38074
0.07220	0.15117
0.14870	-0.58856
0.22521	0.20219
0.12320	0.45726
0.17421	0.50828
0.32721	0.38074
-0.31033	0.30422
0.17421	0.17668
-0.25932	-0.02739
0.32721	0.02363
1.06676	0.02363
0.27621	-0.30797
0.02119	0.35523
-0.18282	0.22769
-0.15732	0.22769
-0.08081	0.43176
0.12320	0.35523
0.22521	0.12566
0.22521	-0.15492
0.04670	-0.20594
0.30171	0.02363
0.27621	0.40625
0.12320	0.35523
0.22521	0.07465
0.12320	0.45726
0.04670	0.30422
0.17421	0.02363
0.19971	-1.37929
0.19971	1.01843
0.07220	0.48277
0.32721	-1.04770
-0.28482	0.78886
0.78624	0.55929
0.40372	-0.33348
-0.18282	0.61031
-0.23382	0.38074
0.22521	0.22769
0.25071	0.15117
0.22521	0.15117
0.17421	-0.05289
0.53123	-0.15492
-0.28482	0.12566
-0.13181	0.20219
-0.20832	0.02363
0.48022	0.17668
0.81175	0.04914
0.09770	-0.07840
-0.20832	0.20219
0.17421	0.25320
0.35272	0.15117
0.32721	0.30422
0.12320	0.17668
-0.05531	-0.02739
-0.08081	0.22769
0.09770	0.15117
0.19971	0.10015
0.14870	-0.07840
0.07220	0.61031
0.17421	0.35523
0.14870	0.35523
0.22521	-0.41000
0.25071	-0.20594
0.17421	0.45726
0.14870	0.55929
-0.41233	0.66132
0.30171	-0.07840
0.60773	0.10015
0.02119	0.12566
0.09770	0.02363
0.07220	-0.35899
-0.02981	0.58480
0.42922	-0.89465
0.12320	0.40625
-0.15732	0.55929
0.48022	0.02363
-0.15732	0.48277
-0.74385	0.02363
-0.23382	0.25320
1.34728	0.07465
0.73524	0.20219
0.40372	0.22769
-1.10088	0.66132
-0.53984	0.32972
2.13783	0.02363
1.47479	0.07465
0.35272	-0.66508
-0.76936	-1.60887
-0.64185	0.43176
0.17421	1.75816
0.12320	-0.51203
-0.87136	1.04394
0.68424	-0.20594
-0.15732	0.20219
-0.00431	-0.63957
1.06676	1.17148
0.53123	0.63582
0.40372	-0.12942
0.02119	0.76336
0.09770	0.48277
0.58223	-1.71090
-0.38683	-1.50683
0.14870	0.71234
0.78624	0.02363
-0.05531	0.86539
-0.15732	1.24800
0.55673	0.94191
0.35272	-1.32828
0.19971	0.12566
0.02119	0.25320
-0.02981	1.35003
-0.25932	1.80917
-0.02981	1.50308
0.40372	-4.66979
0.17421	0.30422
-0.18282	2.47238
0.19971	-1.22625
0.35272	-0.00188
0.19971	-3.06281
-0.05531	0.76336
0.22521	4.07936
0.32721	0.32972
-0.87136	0.04914
0.86275	1.86019
1.70430	-2.45062
0.78624	1.47757
-0.15732	2.49788
0.32721	-1.99148
-0.87136	0.94191
-1.71292	-0.66508
0.02119	-3.36890
0.37822	2.67644
0.45472	-2.17003
0.50573	-0.00188
0.65874	-1.30277
-0.59084	3.82429
0.35272	-0.61406
0.68424	1.12046
-0.38683	-1.37929
1.06676	0.35523
1.34728	-1.96597
0.22521	1.73265
-0.66735	-2.29757
-0.41233	5.48229
-0.46334	-5.76663
-0.15732	1.88570
-0.28482	2.90601
0.53123	2.52339
0.37822	-0.89465
0.32721	2.11527
0.40372	-2.68019
-0.05531	1.65613
0.27621	-0.76711
0.55673	-0.41000
0.22521	-0.20594
-0.02981	0.86539
-0.08081	-1.91496
0.04670	4.05386
0.14870	-1.91496
0.30171	-1.07320
0.19971	1.06945
0.12320	1.98773
-0.23382	-1.71090
0.88825	3.31413
0.30171	-0.00188
0.02119	-1.14973
-0.05531	1.35003
-0.18282	-1.35379
0.04670	0.30422
0.19971	-2.68019
0.55673	1.93671
-0.33583	-1.45582
-0.00431	0.81437
0.76074	-0.05289
0.17421	0.63582
0.17421	0.35523
0.14870	1.63062
0.25071	-0.48652
0.32721	-2.42511
-0.10631	0.35523
0.19971	1.50308
-0.02981	0.68683
-0.08081	2.80397
0.37822	-1.09871
-0.08081	-2.29757
0.50573	-3.39441
0.09770	-2.19554
0.19971	3.46718
0.17421	2.26831
0.50573	1.37554
-0.00431	1.57960
-0.13181	-2.62918
-0.00431	3.21210
-0.20832	-0.71609
0.07220	1.14597
0.81175	2.11527
-0.02981	-0.81812
-0.05531	-2.39961
0.32721	-1.58336
0.25071	-0.10391
0.04670	-0.23145
-0.08081	1.65613
0.27621	-0.86914
0.60773	-1.30277
0.14870	2.21730
0.09770	1.12046
0.12320	-1.83844
-0.00431	-4.72081
0.12320	2.67644
0.17421	-0.05289
0.02119	2.34484
0.17421	1.06945
0.42922	1.47757
-0.76936	0.96742
-0.53984	-0.46102
0.53123	-0.76711
0.42922	0.91640
0.32721	-0.23145
0.35272	0.15117
0.22521	-0.51203
0.32721	-0.97117
0.04670	-0.48652
-0.00431	1.88570
0.09770	0.71234
0.19971	-0.92016
-0.08081	-1.81293
0.40372	0.96742
0.12320	0.53379
0.35272	1.50308
-0.48884	0.07465
-0.08081	-0.56305
0.37822	-3.72601
0.48022	0.78886
0.19971	0.83988
-0.33583	2.42136
0.58223	2.11527
0.50573	1.75816
0.81175	-2.80773
-0.31033	1.04394
-0.48884	-0.02739
-0.33583	0.78886
0.02119	-0.38449
0.30171	1.73265
0.35272	-4.03210
0.27621	0.04914
0.22521	-0.07840
0.14870	-0.35899
0.14870	-0.58856
0.04670	2.37034
-0.00431	-1.32828
0.25071	3.03355
0.42922	-0.53754
0.07220	0.76336
-0.00431	-0.46102
0.14870	0.15117
0.17421	0.53379
0.04670	-0.00188
0.17421	-0.97117
0.19971	-2.22105
0.19971	-0.10391
0.12320	1.40105
0.09770	0.96742
0.22521	1.83468
0.07220	-0.66508
0.35272	-0.35899
0.35272	1.32453
-0.13181	-0.74160
-0.10631	-0.74160
0.37822	-2.22105
-0.05531	1.73265
0.04670	0.15117
-0.00431	1.01843
0.22521	-2.09351
0.09770	2.03874
0.68424	-3.85355
0.12320	0.40625
-0.28482	0.55929
-0.08081	-0.51203
0.19971	3.23761
0.68424	-1.88945
-0.51434	-2.17003
0.02119	0.32972
0.70974	2.31933
0.40372	0.27871
-0.13181	0.83988
0.02119	0.15117
0.14870	0.38074
0.17421	-1.12422
0.19971	-1.12422
0.12320	-0.35899
0.19971	3.56921
0.14870	-0.66508
0.02119	-0.25695
0.04670	0.27871
0.04670	-4.03210
-0.00431	1.06945
0.53123	0.76336
0.32721	1.73265
-0.02981	0.71234
0.22521	1.70714
0.07220	-0.74160
0.02119	-0.53754
0.19971	0.76336
0.14870	0.68683
0.07220	-0.33348
0.22521	0.15117
0.25071	-1.32828
0.07220	0.45726
0.14870	0.30422
0.07220	0.66132
0.30171	1.93671
0.19971	-2.96078
0.07220	-2.09351
0.02119	1.70714
0.04670	2.59991
0.22521	0.35523
0.02119	0.45726
0.12320	1.83468
0.35272	-1.76191
0.07220	2.65093
0.14870	-1.73640
0.32721	0.53379
0.09770	-0.66508
0.04670	-0.35899
-0.13181	0.55929
0.07220	0.50828
0.86275	1.78367
0.30171	-0.41000
-0.08081	-1.48133
0.02119	-0.48652
0.14870	0.40625
0.14870	-0.71609
0.02119	0.02363
0.25071	2.08976
0.19971	1.37554
0.09770	1.35003
0.14870	-2.04250
0.02119	1.73265
0.02119	-2.42511
0.30171	-0.41000
0.40372	-0.10391
0.45472	1.57960
-0.15732	0.04914
-0.13181	0.50828
-0.00431	0.12566
0.12320	-1.48133
0.25071	0.61031
0.19971	1.80917
0.12320	-0.66508
0.19971	0.35523
0.19971	-3.49644
0.25071	-0.35899
0.02119	1.86019
0.30171	1.12046
0.19971	1.29902
0.12320	0.58480
0.17421	-0.71609
0.12320	0.55929
0.02119	-1.07320
-0.05531	-0.41000
0.17421	-0.38449
0.17421	-0.00188
0.07220	0.48277
0.19971	-0.00188
0.30171	0.15117
0.14870	1.47757
0.17421	-0.43551
0.07220	0.38074
0.12320	-2.70570
0.19971	0.73785
0.17421	0.78886
0.14870	0.86539
0.12320	2.14077
0.12320	-0.07840
0.17421	0.50828
0.17421	-1.53234
0.04670	-0.46102
0.04670	-0.12942
0.14870	0.45726
0.35272	-0.63957
0.40372	0.40625
0.17421	1.63062
-0.13181	-0.84363
-0.02981	-0.41000
0.04670	1.09496
0.17421	-0.15492
0.27621	-0.51203
0.02119	0.25320
0.17421	-0.07840
0.40372	-0.23145
0.04670	1.88570
0.17421	0.94191
0.19971	0.83988
0.07220	0.07465
0.27621	-2.01699
0.12320	0.25320
-0.13181	0.20219
0.09770	-0.89465
0.22521	1.14597
0.17421	-1.17523
0.12320	2.70194
0.07220	-0.51203
0.17421	-0.00188
0.04670	-0.30797
0.25071	0.30422
-0.10631	-0.12942
0.12320	0.35523
0.25071	-1.17523
0.19971	0.94191
0.14870	-0.10391
0.19971	0.61031
0.09770	0.20219
0.09770	0.58480
0.25071	1.09496
0.09770	-0.46102
0.30171	-1.07320
-0.05531	0.04914
0.09770	1.37554
0.27621	-0.23145
0.19971	1.24800
0.25071	0.45726
-0.02981	-0.05289
0.09770	-1.83844
0.07220	0.20219
0.14870	-0.56305
0.22521	0.35523
0.19971	0.07465
0.14870	0.71234
0.19971	0.53379
0.22521	0.83988
0.12320	-0.35899
0.22521	-0.92016
0.09770	-2.19554
0.17421	1.50308
0.04670	1.37554
0.07220	1.37554
0.07220	-1.40480
0.17421	-0.23145
0.19971	0.55929
0.19971	-0.28246
0.14870	0.25320
0.25071	0.83988
0.12320	0.76336
0.09770	-0.51203
0.22521	-0.94566
0.09770	0.53379
0.07220	0.04914
0.12320	0.10015
0.27621	-0.61406
0.07220	1.14597
0.07220	0.71234
0.19971	1.09496
0.42922	-1.20074
0.02119	0.02363
0.19971	-1.81293
0.14870	1.24800
0.02119	-0.00188
0.17421	-0.15492
0.14870	1.04394
0.04670	1.06945
0.14870	1.42656
0.30171	-1.96597
0.12320	-1.07320
0.12320	-0.18043
0.07220	0.94191
0.27621	1.35003
0.45472	-1.48133
0.02119	0.96742
0.02119	-0.86914
0.09770	1.88570
0.09770	1.19699
0.14870	-0.28246
0.07220	-2.98628
0.42922	-0.30797
0.30171	0.45726
-0.00431	-0.46102
0.04670	1.80917
0.19971	-1.73640
0.12320	1.68163
0.04670	0.45726
0.14870	0.71234
-0.18282	0.12566
0.17421	-0.18043
0.45472	0.17668
0.19971	0.25320
0.07220	0.35523
0.12320	0.25320
0.27621	0.86539
0.09770	-1.32828
0.19971	-2.90976
0.30171	0.50828
0.19971	0.02363
0.09770	1.50308
0.07220	1.78367
0.07220	0.76336
0.09770	-1.81293
0.17421	0.35523
0.32721	0.78886
0.27621	0.50828
0.14870	0.71234
-0.02981	0.91640
-0.00431	-2.01699
0.27621	0.07465
0.22521	-2.37410
0.22521	1.29902
0.07220	-0.66508
0.19971	1.17148
0.09770	0.91640
0.19971	0.73785
0.17421	0.48277
0.09770	2.08976
0.19971	-0.23145
0.12320	0.25320
0.14870	-3.41992
0.32721	0.73785
0.09770	0.04914
0.04670	-0.20594
0.04670	1.83468
0.12320	-0.20594
0.14870	-0.28246
0.19971	0.83988
0.19971	1.32453
0.09770	-0.30797
0.22521	-0.97117
0.14870	-0.66508
0.02119	0.86539
0.09770	0.17668
0.32721	1.06945
0.25071	0.86539
0.25071	-0.71609
0.12320	-0.12942
-0.05531	-0.63957
-0.20832	1.35003
0.12320	-0.38449
0.32721	0.20219
0.30171	0.45726
0.22521	-0.43551
0.17421	1.14597
0.17421	0.12566
0.19971	-0.15492
0.12320	1.70714
0.12320	-0.79262
-0.00431	-2.75671
0.19971	0.63582
0.19971	1.93671
0.19971	-0.94566
0.32721	-0.15492
0.09770	2.06425
0.09770	-0.00188
0.12320	1.78367
0.02119	-0.41000
0.14870	-1.88945
0.17421	1.42656
0.19971	-2.47613
0.12320	2.49788
0.14870	-0.05289
0.40372	1.17148
0.07220	-0.76711
-0.00431	0.91640
0.22521	-0.41000
0.07220	-0.46102
0.09770	-0.53754
0.19971	0.58480
0.12320	0.22769
0.12320	-1.07320
0.17421	0.96742
0.22521	-0.79262
0.09770	1.14597
0.12320	-0.63957
0.32721	0.66132
0.17421	1.27351
0.02119	0.71234
0.17421	-1.20074
0.17421	0.86539
0.07220	-1.02219
0.09770	-1.60887
0.30171	0.91640
0.45472	1.19699
0.17421	1.12046
0.02119	0.17668
-0.00431	0.68683
-0.08081	-0.81812
-0.05531	-1.20074
0.37822	0.02363
0.48022	0.10015
-0.02981	1.22250
0.09770	-0.02739
0.22521	-1.17523
0.07220	-1.48133
-0.05531	3.28862
0.19971	0.66132
0.30171	-1.09871
0.19971	-1.22625
0.22521	-0.28246
0.25071	0.55929
0.12320	1.63062
0.04670	1.80917
0.32721	-0.86914
0.14870	0.15117
0.04670	0.12566
0.14870	1.06945
0.19971	-1.14973
0.04670	0.22769
0.09770	0.10015
0.12320	-0.10391
0.07220	0.96742
0.22521	-1.12422
0.09770	0.10015
0.07220	1.93671
0.35272	0.04914
-0.02981	-0.56305
0.02119	-0.28246
0.50573	-0.66508
0.17421	1.29902
0.09770	0.66132
0.19971	-0.18043
0.17421	1.06945
0.09770	-0.07840
0.04670	0.12566
0.12320	-1.65988
0.14870	-0.23145
0.12320	0.94191
0.19971	1.37554
0.27621	-0.41000
0.09770	0.17668
0.02119	0.15117
0.35272	0.61031
0.02119	1.14597
0.07220	-0.05289
0.04670	-0.07840
0.19971	0.25320
0.17421	0.20219
0.22521	0.43176
0.09770	-0.69059
0.12320	-0.15492
0.12320	-1.60887
0.02119	0.53379
0.22521	0.63582
0.17421	0.55929
0.09770	1.04394
0.12320	1.37554
0.22521	-1.14973
0.02119	-1.22625
0.27621	2.37034
0.25071	-0.41000
0.02119	0.43176
0.02119	-1.14973
0.19971	0.99292
0.25071	1.14597
0.09770	-0.56305
0.12320	0.12566
0.22521	0.61031
0.09770	-0.81812
-0.02981	1.42656
0.02119	1.04394
0.19971	0.48277
0.40372	-0.58856
0.19971	0.17668
0.14870	-0.81812
-0.02981	-0.05289
-0.00431	-0.10391
0.32721	0.86539
0.32721	-0.25695
0.27621	0.68683
-0.02981	0.40625
-0.00431	1.47757
0.12320	-1.02219
0.17421	-0.41000
0.07220	1.40105
0.19971	-3.01179
0.27621	-0.28246
0.14870	1.55410
0.22521	1.55410
0.17421	2.39585
0.02119	1.12046
0.22521	0.32972
0.12320	-1.48133
0.12320	-0.56305
0.22521	0.43176
0.14870	-0.99668
0.07220	0.63582
0.14870	0.25320
0.17421	-0.25695
0.04670	0.86539
0.22521	0.76336
0.12320	0.22769
0.14870	-0.79262
0.22521	0.58480
0.12320	0.27871
0.22521	-1.81293
0.19971	2.67644
0.12320	-0.35899
0.32721	0.35523
0.17421	0.96742
-0.00431	0.81437
0.14870	-0.46102
0.07220	-0.81812
0.09770	0.25320
0.07220	-0.74160
0.22521	1.27351
0.35272	0.07465
0.14870	0.22769
0.12320	1.04394
0.12320	-1.07320
0.30171	-0.05289
0.25071	-0.25695
0.17421	-1.07320
0.07220	1.22250
0.09770	1.24800
0.22521	1.63062
-0.08081	-2.32308
0.12320	1.09496
0.50573	0.71234
0.22521	0.38074
0.07220	0.30422
0.14870	0.76336
0.07220	-0.71609
0.09770	-0.18043
0.19971	-0.35899
0.27621	0.20219
0.07220	-0.25695
0.07220	1.19699
0.17421	0.58480
0.07220	-0.38449
0.14870	-1.17523
0.27621	1.83468
0.04670	0.22769
0.09770	0.07465
0.07220	-1.25176
0.07220	-0.15492
0.22521	0.61031
0.30171	-0.43551
0.19971	0.61031
0.02119	1.14597
0.22521	1.86019
0.17421	0.15117
0.02119	0.50828
0.04670	-1.04770
0.19971	0.22769
0.22521	-0.18043
0.14870	-0.41000
0.14870	0.43176
0.07220	0.63582
0.17421	0.20219
0.27621	-0.76711
0.09770	0.12566
0.14870	0.10015
0.19971	-0.12942
0.22521	0.30422
0.02119	0.40625
-0.05531	0.89089
0.14870	0.83988
0.12320	-2.75671
0.09770	1.12046
0.40372	0.53379
0.22521	-0.30797
0.17421	0.48277
0.12320	1.04394
0.12320	-1.04770
0.09770	0.43176
0.12320	1.06945
-0.02981	0.83988
0.17421	-0.18043
0.37822	-0.18043
0.22521	-0.53754
0.07220	0.89089
0.09770	0.58480
-0.00431	-0.28246
0.04670	-1.81293
0.09770	-1.30277
0.14870	1.12046
0.04670	1.04394
0.12320	-0.10391
0.19971	-0.20594
0.09770	-0.07840
0.09770	-0.33348
0.22521	0.66132
0.22521	1.50308
0.12320	0.32972
0.17421	-0.05289
0.04670	-0.71609
0.17421	0.20219
0.22521	-0.56305
0.14870	0.53379
0.09770	0.48277
0.19971	0.58480
0.07220	-0.69059
0.12320	-0.20594
0.17421	-0.05289
0.07220	0.58480
0.07220	-0.30797
0.12320	-0.18043
0.17421	-0.48652
0.04670	2.03874
0.19971	-1.17523
0.32721	1.68163
0.17421	-1.02219
0.19971	-0.63957
0.09770	0.63582
-0.02981	0.73785
0.07220	1.32453
0.32721	-0.05289
0.09770	-0.53754
0.14870	0.32972
0.35272	0.43176
0.22521	-0.15492
0.12320	0.17668
0.09770	-1.78742
0.09770	1.35003
0.14870	0.35523
0.37822	-0.56305
0.09770	1.19699
0.04670	0.22769
0.12320	0.35523
0.07220	0.81437
0.07220	-0.10391
0.04670	-0.02739
0.25071	-0.15492
0.12320	0.73785
0.22521	0.22769
0.19971	-0.20594
0.25071	-1.32828
0.09770	0.07465
0.17421	0.76336
0.17421	0.94191
0.12320	-0.63957
0.07220	-1.40480
0.04670	0.30422
0.25071	0.73785
0.17421	0.89089
0.14870	-0.23145
0.02119	0.35523
0.04670	-0.10391
0.32721	1.29902
0.27621	0.68683
0.09770	-0.35899
0.14870	0.94191
0.02119	-0.51203
0.12320	-0.25695
0.09770	-0.02739
0.19971	0.48277
0.17421	-0.07840
0.12320	-0.81812
-0.08081	1.75816
0.25071	-0.38449
0.30171	0.32972
0.22521	1.06945
0.19971	-4.03210
0.19971	1.45206
0.17421	1.57960
0.12320	0.15117
0.02119	-0.43551
0.12320	1.27351
0.27621	0.02363
0.17421	1.57960
0.02119	-1.35379
0.07220	0.73785
0.09770	1.70714
0.22521	-0.33348
0.19971	-1.43031
0.17421	-0.07840
0.09770	-0.00188
0.09770	-0.05289
0.22521	0.48277
0.07220	1.12046
0.30171	-0.89465
0.17421	0.30422
0.07220	0.63582
0.19971	0.30422
0.07220	0.45726
0.07220	-0.23145
0.17421	0.32972
0.09770	-1.48133
0.17421	0.17668
0.30171	0.99292
0.22521	0.55929
0.09770	0.32972
0.12320	0.43176
0.17421	0.68683
0.02119	0.68683
0.22521	-1.22625
0.25071	-0.46102
0.09770	-0.20594
0.07220	0.63582
0.17421	-0.02739
0.12320	0.10015
0.09770	0.25320
0.19971	1.09496
0.09770	0.20219
0.12320	0.04914
0.07220	0.10015
0.22521	1.19699
0.09770	-0.74160
0.25071	0.66132
0.42922	-2.29757
0.22521	-0.53754
-0.00431	1.86019
0.04670	0.96742
0.22521	-0.30797
0.09770	0.83988
0.09770	-1.12422
0.22521	0.86539
0.09770	0.68683
0.17421	-0.74160
0.22521	0.50828
0.14870	0.35523
0.07220	1.22250
0.07220	-1.68539
0.19971	-0.12942
0.19971	1.22250
0.12320	0.61031
0.09770	-0.33348
0.12320	0.02363
0.19971	-0.66508
0.12320	1.32453
0.22521	-0.02739
0.12320	-0.15492
0.17421	-0.02739
0.19971	0.71234
0.07220	0.83988
0.14870	0.25320
0.14870	0.71234
0.07220	-0.61406
0.07220	-0.10391
0.12320	0.22769
0.19971	0.61031
0.19971	-0.12942
0.14870	0.17668
0.22521	-0.35899
0.12320	-0.18043
0.02119	0.15117
0.09770	0.48277
0.09770	-0.89465
0.27621	0.20219
0.22521	0.78886
0.14870	1.17148
0.12320	1.01843
0.12320	-1.78742
0.19971	1.09496
0.17421	-0.81812
-0.00431	1.17148
0.09770	-0.74160
0.22521	1.47757
0.12320	0.96742
0.04670	-2.29757
0.09770	0.15117
0.12320	0.58480
0.22521	0.04914
0.17421	0.78886
0.25071	-0.18043
0.12320	0.35523
0.17421	0.30422
0.12320	-0.18043
0.14870	0.15117
0.22521	0.38074
0.14870	-0.25695
0.09770	-1.86394
0.22521	0.04914
0.04670	1.04394
0.19971	0.61031
0.19971	1.98773
0.14870	0.40625
0.02119	-1.14973
0.02119	0.73785
0.14870	-0.66508
0.22521	-0.12942
0.22521	-0.33348
0.19971	0.76336
0.12320	0.27871
0.07220	0.63582
0.25071	0.53379
0.14870	-0.07840
0.04670	0.61031
0.14870	-0.63957
0.25071	-0.63957
0.12320	-0.35899
0.07220	-0.20594
0.27621	0.27871
0.17421	0.45726
0.02119	0.38074
0.22521	0.66132
0.12320	0.17668
0.04670	-0.20594
0.12320	0.25320
0.19971	-0.38449
0.09770	-0.30797
0.27621	0.91640
0.12320	0.66132
0.09770	0.17668
0.19971	1.47757
0.07220	-0.15492
0.09770	0.10015
0.12320	-0.38449
0.22521	0.25320
0.14870	0.07465
0.22521	0.94191
0.17421	-2.70570
0.17421	0.15117
0.12320	-0.51203
0.09770	2.39585
0.19971	0.25320
0.19971	0.15117
0.09770	-0.58856
0.07220	0.04914
0.22521	0.32972
0.27621	-0.69059
0.32721	0.15117
0.12320	0.27871
-0.08081	1.35003
0.14870	0.30422
0.25071	0.63582
0.25071	-0.56305
0.09770	-0.43551
0.04670	0.61031
0.25071	0.76336
0.19971	1.19699
0.25071	-0.48652
0.22521	-0.18043
-0.00431	-1.63437
-0.08081	0.10015
0.14870	0.66132
0.22521	0.50828
0.22521	1.19699
0.12320	-0.63957
0.12320	-0.02739
0.17421	0.61031
0.27621	1.40105
0.09770	-0.00188
0.12320	-1.32828
0.07220	0.50828
0.12320	-0.53754
0.25071	1.17148
0.09770	1.19699
0.14870	-1.04770
0.12320	1.35003
0.09770	0.71234
0.14870	-1.02219
0.07220	-0.41000
0.12320	0.73785
0.07220	-0.38449
0.19971	0.07465
0.19971	0.32972
0.17421	-0.05289
0.14870	-0.10391
0.17421	-0.84363
0.25071	0.61031
0.17421	0.78886
0.12320	0.35523
-0.00431	0.15117
0.12320	0.15117
0.14870	0.02363
0.12320	-0.58856
0.19971	1.06945
0.22521	0.45726
0.14870	0.55929
0.09770	0.17668
0.19971	0.89089
0.22521	-0.58856
0.14870	0.04914
0.17421	-1.02219
0.07220	-0.00188
0.04670	1.29902
0.19971	0.02363
0.25071	0.53379
0.19971	-1.12422
0.19971	-1.09871
0.17421	0.86539
0.12320	0.94191
0.22521	0.50828
0.14870	-0.61406
0.04670	0.94191
0.14870	0.71234
0.22521	-1.02219
0.12320	1.04394
0.17421	0.22769
0.19971	0.10015
0.09770	0.20219
0.07220	0.50828
0.14870	0.27871
0.22521	0.20219
0.25071	-0.10391
0.12320	-0.18043
0.02119	-0.76711
0.04670	-0.97117
0.30171	1.68163
0.22521	0.35523
0.07220	-0.28246
0.09770	-0.20594
0.12320	0.15117
0.09770	0.32972
0.19971	0.27871
0.30171	-0.00188
0.22521	0.91640
0.17421	-0.10391
0.14870	0.38074
0.12320	-0.46102
0.14870	-0.74160
0.04670	0.20219
0.12320	0.10015
0.19971	1.42656
0.25071	-1.14973
0.17421	0.61031
0.09770	0.30422
0.14870	0.58480
0.14870	-0.84363
0.09770	-0.79262
0.14870	0.68683
0.17421	0.55929
0.09770	-0.84363
0.14870	1.24800
0.14870	-0.10391
0.22521	0.27871
0.17421	-0.46102
0.09770	0.02363
0.17421	0.48277
0.12320	1.68163
0.12320	-0.41000
0.14870	0.43176
0.17421	-1.65988
0.12320	1.29902
0.19971	0.12566
0.04670	0.04914
0.02119	0.15117
0.25071	0.89089
0.12320	-0.71609
0.19971	0.76336
0.22521	0.22769
0.07220	0.12566
0.07220	0.25320
0.19971	1.01843
0.19971	-0.05289
0.12320	-1.37929
0.09770	1.04394
0.07220	-0.51203
0.17421	0.43176
0.19971	-0.28246
0.14870	-0.84363
0.12320	0.63582
0.07220	0.89089
0.14870	0.55929
0.22521	-0.18043
0.09770	0.71234
0.02119	0.58480
0.09770	-0.00188
0.22521	-1.68539
0.19971	1.04394
0.17421	0.55929
0.07220	-0.94566
0.17421	0.58480
0.14870	0.27871
0.14870	1.01843
0.17421	0.86539
0.09770	-0.61406
0.22521	-2.27207
0.27621	1.01843
0.09770	0.55929
0.07220	0.55929
0.19971	0.76336
0.09770	0.43176
0.04670	0.07465
0.12320	-0.23145
0.19971	-0.86914
0.17421	-0.15492
0.17421	-0.20594
0.14870	2.14077
0.25071	0.02363
0.09770	0.40625
0.19971	-0.53754
0.09770	0.30422
-0.10631	0.02363
0.19971	-0.12942
0.37822	-0.15492
0.12320	1.06945
-0.05531	0.15117
0.14870	-1.68539
0.17421	0.43176
0.19971	-0.43551
0.25071	0.94191
0.17421	-0.25695
0.19971	1.98773
0.19971	-0.10391
0.17421	0.04914
0.09770	-0.86914
0.22521	0.30422
0.22521	1.06945
0.07220	0.25320
0.14870	-0.00188
0.12320	0.76336
0.07220	-1.20074
0.12320	-0.69059
0.17421	-0.02739
0.04670	0.96742
0.12320	-0.58856
0.14870	0.53379
0.17421	0.55929
0.17421	0.55929
0.22521	-0.97117
0.17421	0.25320
0.19971	-0.28246
0.12320	1.27351
0.09770	-0.20594
0.19971	1.19699
0.14870	0.45726
0.22521	0.02363
0.14870	0.63582
0.09770	-1.27726
0.14870	-1.22625
0.09770	-0.51203
0.09770	1.86019
0.17421	0.45726
0.09770	0.30422
0.02119	0.48277
0.17421	-0.33348
0.12320	-1.14973
0.17421	0.17668
0.12320	1.19699
0.02119	-0.74160
0.22521	-0.53754
0.12320	0.50828
0.17421	0.38074
0.17421	0.66132
0.09770	0.20219
0.02119	0.86539
0.19971	0.25320
0.17421	0.58480
0.14870	-0.53754
0.14870	0.07465
0.12320	0.45726
0.19971	-0.02739
0.12320	-0.43551
0.09770	-0.41000
0.17421	0.02363
0.19971	0.07465
0.04670	1.01843
0.27621	-1.99148
0.14870	0.55929
0.07220	1.42656
0.12320	0.43176
0.17421	0.58480
0.17421	0.71234
0.09770	-0.76711
0.22521	-1.20074
0.19971	0.22769
-0.00431	0.61031
0.09770	1.01843
0.12320	1.29902
0.17421	-0.07840
0.25071	-0.74160
0.25071	-0.10391
0.09770	0.73785
0.14870	-0.25695
0.30171	0.40625
-0.05531	-1.88945
0.07220	0.22769
0.17421	1.19699
0.12320	-0.07840
0.19971	0.27871
0.22521	-0.23145
0.12320	0.25320
0.27621	0.81437
0.07220	0.78886
0.17421	-0.25695
0.17421	0.35523
0.09770	0.66132
0.22521	0.53379
0.17421	-0.76711
0.09770	-0.18043
0.12320	0.15117
0.09770	-0.30797
0.14870	0.27871
0.19971	0.73785
0.12320	-1.25176
0.14870	-0.12942
0.22521	1.42656
0.22521	1.01843
0.09770	0.25320
0.12320	-0.56305
-0.02981	-0.43551
0.19971	0.20219
0.12320	0.71234
0.17421	0.48277
0.19971	-0.18043
0.25071	-0.05289
0.19971	0.45726
0.22521	0.78886
0.25071	0.22769
0.27621	0.07465
0.02119	-0.33348
0.09770	0.27871
-0.05531	-0.10391
-0.00431	0.78886
0.17421	-0.89465
0.14870	0.40625
0.19971	-0.07840
0.27621	0.35523
0.07220	0.32972
0.09770	1.57960
0.25071	0.30422
0.14870	-0.76711
0.14870	-2.47613
0.27621	0.38074
0.14870	0.25320
0.04670	1.86019
0.14870	1.12046
0.17421	0.43176
0.17421	-0.05289
0.07220	-0.10391
0.27621	0.50828
0.04670	0.99292
0.09770	-0.53754
0.17421	0.15117
0.19971	-1.55785
0.12320	0.55929
0.09770	0.38074
0.12320	-0.02739
0.22521	0.81437
0.12320	-0.25695
0.14870	0.02363
0.27621	0.45726
0.14870	0.73785
0.14870	-1.50683
0.17421	-0.53754
0.12320	0.86539
0.02119	-0.81812
0.14870	1.88570
0.22521	0.50828
0.07220	-0.05289
0.09770	0.58480
0.12320	-0.84363
0.19971	1.09496
0.27621	0.12566
0.07220	0.50828
0.09770	-0.74160
0.14870	0.17668
0.14870	0.99292
0.27621	-1.63437
0.14870	0.50828
0.12320	0.83988
0.30171	-0.79262
0.12320	0.68683
0.07220	1.01843
-0.00431	0.27871
0.12320	-0.69059
0.25071	0.94191
0.17421	0.15117
0.07220	0.27871
0.07220	-0.05289
0.12320	0.35523
0.19971	-0.46102
0.17421	0.71234
0.17421	0.25320
0.19971	-1.65988
0.22521	0.48277
0.14870	0.68683
-0.00431	0.68683
0.02119	0.15117
0.25071	0.43176
0.09770	0.91640
0.12320	-0.43551
0.12320	-0.30797
0.27621	0.66132
0.19971	-0.07840
0.12320	-0.07840
0.17421	0.99292
0.19971	-1.14973
0.09770	0.76336
0.14870	1.17148
0.12320	0.27871
0.17421	-0.05289
0.22521	0.55929
0.12320	-0.33348
0.07220	-0.79262
0.09770	-0.05289
0.09770	0.40625
0.17421	-0.76711
0.17421	0.91640
0.09770	0.43176
0.22521	0.68683
0.19971	0.76336
0.19971	-1.40480
0.02119	0.15117
0.09770	1.14597
0.22521	0.15117
0.17421	-0.28246
0.17421	0.55929
0.14870	0.27871
0.12320	0.15117
0.19971	-1.14973
0.07220	-0.30797
0.12320	1.73265
0.19971	-0.05289
0.17421	-1.27726
0.12320	1.12046
0.04670	0.66132
0.17421	0.96742
0.19971	-0.25695
0.14870	1.01843
0.07220	-0.79262
0.12320	-0.15492
0.12320	0.12566
0.22521	0.17668
0.27621	-0.33348
0.17421	0.04914
0.14870	1.12046
0.14870	-0.05289
0.19971	0.25320
0.22521	0.27871
0.07220	0.89089
0.07220	-0.79262
0.12320	0.50828
0.27621	0.15117
0.17421	-0.18043
0.12320	-0.66508
0.09770	-0.15492
0.27621	0.94191
0.17421	-0.28246
0.12320	0.81437
0.12320	0.43176
0.17421	1.12046
0.12320	-0.84363
0.09770	0.20219
0.19971	0.15117
0.12320	-0.69059
0.09770	-0.71609
0.25071	0.89089
0.09770	-0.76711
0.14870	0.27871
0.19971	0.78886
0.25071	1.22250
0.14870	0.73785
0.14870	-0.35899
0.17421	-0.18043
0.19971	-0.15492
0.22521	-0.61406
0.17421	-0.18043
0.19971	1.14597
0.22521	0.58480
0.12320	0.20219
0.12320	0.25320
0.22521	0.35523
0.19971	-0.30797
0.07220	-0.20594
0.07220	0.07465
0.14870	0.43176
0.07220	0.50828
0.14870	0.68683
0.25071	-0.18043
0.09770	-0.10391
0.19971	-0.53754
0.25071	0.96742
0.04670	0.04914
0.07220	0.32972
0.22521	0.43176
0.07220	0.43176
0.14870	-0.12942
0.22521	-0.69059
0.14870	-0.51203
0.12320	0.40625
0.12320	0.96742
0.12320	0.32972
0.17421	-0.48652
0.25071	0.27871
0.14870	-0.00188
0.17421	0.71234
0.14870	0.53379
0.22521	0.17668
0.02119	0.81437
0.09770	0.10015
0.25071	0.15117
0.30171	0.50828
0.17421	-0.41000
0.07220	-1.78742
0.07220	-0.23145
0.09770	0.40625
0.14870	0.86539
0.14870	1.17148
0.12320	-0.94566
0.14870	-0.30797
0.22521	1.04394
0.09770	-0.10391
0.04670	-0.43551
0.12320	0.50828
0.17421	0.58480
0.14870	-0.12942
0.22521	-0.51203
0.14870	1.68163
0.07220	-0.84363
0.09770	-0.07840
0.14870	0.17668
0.30171	0.68683
0.19971	-0.33348
0.14870	0.55929
0.07220	0.50828
0.14870	0.66132
0.17421	0.20219
0.14870	-0.48652
0.14870	-0.28246
0.12320	-0.84363
0.12320	0.53379
0.14870	-0.33348
0.14870	0.04914
0.14870	0.35523
0.14870	1.50308
0.04670	0.12566
0.19971	0.55929
0.19971	-0.10391
0.17421	-1.20074
0.07220	0.04914
0.14870	0.45726
0.19971	0.81437
0.19971	1.60511
0.17421	-0.15492
0.17421	-0.28246
0.14870	0.86539
0.25071	0.38074
0.12320	-1.27726
0.12320	-0.69059
0.09770	0.12566
0.25071	0.73785
0.04670	-0.20594
-0.00431	1.75816
0.09770	-1.35379
0.09770	0.86539
0.22521	0.58480
0.22521	-0.18043
0.17421	-1.04770
0.17421	0.15117
0.17421	1.06945
0.32721	1.22250
0.02119	-0.89465
0.04670	-0.76711
0.14870	1.04394
0.07220	0.15117
0.17421	0.63582
0.07220	0.10015
0.07220	-0.07840
0.07220	-0.81812
0.12320	0.07465
0.25071	0.25320
0.30171	0.63582
0.14870	-0.20594
0.22521	-0.46102
0.14870	0.35523
0.14870	0.45726
0.22521	0.78886
0.12320	-0.99668
0.09770	-0.25695
0.09770	1.91120
0.19971	-0.86914
0.14870	0.15117
0.09770	0.43176
0.09770	0.53379
0.17421	0.48277
0.17421	0.43176
0.14870	-0.18043
0.12320	-0.05289
0.07220	0.04914
0.07220	-0.10391
0.19971	-0.18043
0.17421	0.66132
0.14870	-0.84363
0.09770	-0.18043
0.19971	1.04394
0.19971	-0.41000
0.12320	0.35523
0.02119	1.09496
0.17421	-0.02739
0.12320	0.73785
0.09770	-2.47613
0.17421	0.81437
0.27621	0.61031
0.12320	-0.33348
0.14870	0.66132
0.14870	-0.35899
0.09770	0.12566
0.02119	-0.05289
0.14870	1.40105
0.14870	0.02363
0.14870	-0.05289
0.17421	-0.10391
0.17421	0.22769
0.22521	-0.23145
0.12320	0.94191
0.07220	-0.92016
0.22521	0.48277
0.25071	-0.43551
0.07220	0.45726
0.14870	-1.04770
-0.00431	1.52859
0.12320	0.15117
0.19971	0.38074
0.14870	0.30422
0.14870	-0.05289
0.14870	0.66132
0.22521	-0.53754
0.14870	0.22769
0.12320	0.55929
0.14870	0.38074
0.14870	-0.66508
0.22521	0.10015
0.25071	0.12566
0.14870	0.40625
0.07220	0.20219
0.09770	-0.46102
0.12320	0.40625
0.14870	0.68683
0.12320	0.10015
0.02119	0.30422
0.14870	-1.35379
0.17421	0.27871
0.12320	0.10015
0.22521	1.70714
0.17421	0.35523
0.30171	0.71234
0.25071	-0.35899
0.17421	0.02363
0.09770	-0.69059
0.09770	-0.71609
0.02119	0.71234
0.17421	-0.30797
0.17421	0.68683
0.14870	0.25320
0.12320	0.25320
0.12320	-0.94566
0.04670	0.50828
0.14870	0.25320
0.32721	0.50828
0.17421	-0.05289
0.02119	0.07465
0.12320	0.38074
0.12320	0.02363
0.14870	1.68163
0.14870	-1.96597
0.22521	-0.51203
0.14870	0.99292
-0.00431	0.04914
0.19971	0.55929
0.17421	1.04394
0.12320	-0.12942
0.27621	0.32972
0.17421	-0.35899
0.07220	-0.76711
0.12320	0.73785
0.19971	-0.12942
0.14870	0.58480
0.09770	-0.30797
0.09770	0.48277
0.17421	0.25320
0.14870	-0.63957
0.17421	-0.15492
0.25071	0.96742
0.17421	1.27351
0.09770	-0.84363
0.17421	0.02363
0.19971	1.27351
0.04670	1.19699
0.22521	-0.84363
0.19971	0.32972
0.12320	0.40625
-0.02981	-0.66508
0.12320	0.66132
0.30171	-1.63437
0.17421	0.89089
0.09770	0.12566
0.09770	0.04914
0.25071	0.61031
0.17421	0.71234
0.12320	-1.30277
0.25071	-1.02219
0.22521	0.63582
0.14870	0.22769
0.14870	0.99292
0.19971	-0.05289
0.17421	1.98773
0.02119	0.15117
0.07220	0.91640
0.19971	-1.68539
0.27621	0.45726
0.12320	0.55929
0.09770	-0.84363
0.19971	0.38074
0.22521	-0.07840
0.14870	0.43176
0.12320	0.10015
0.07220	0.55929
0.14870	0.40625
0.25071	0.55929
0.12320	-0.46102
0.12320	-0.46102
0.09770	1.22250
0.17421	-1.22625
0.17421	1.27351
0.12320	0.38074
0.19971	-0.79262
0.19971	0.63582
0.12320	0.66132
0.07220	1.17148
0.22521	-0.92016
0.22521	-0.15492
0.12320	0.38074
0.14870	-0.71609
0.12320	-0.00188
0.09770	0.50828
0.09770	0.04914
0.22521	0.40625
0.17421	0.50828
0.32721	0.15117
0.14870	0.32972
0.04670	-0.05289
0.12320	0.45726
0.14870	-0.46102
0.09770	-0.61406
0.12320	0.04914
0.27621	1.19699
0.14870	0.78886
0.17421	-0.58856
0.07220	0.53379
0.14870	0.86539
0.19971	-0.25695
0.19971	-0.07840
0.09770	-0.05289
0.07220	0.10015
0.12320	-0.20594
0.04670	-1.37929
0.19971	0.43176
0.22521	0.71234
0.14870	0.63582
0.07220	-0.12942
0.12320	1.09496
0.12320	-0.81812
0.22521	0.40625
0.12320	0.63582
0.14870	-0.15492
0.19971	0.25320
0.17421	-0.05289
0.25071	0.22769
0.14870	-0.41000
-0.00431	0.91640
0.07220	-0.15492
0.12320	0.50828
0.14870	0.20219
0.09770	0.10015
0.14870	-1.20074
0.12320	0.78886
0.19971	-0.66508
0.14870	-0.02739
0.22521	1.06945
0.04670	0.96742
0.14870	0.78886
0.09770	1.09496
0.09770	-0.86914
0.19971	0.81437
0.22521	-1.27726
0.19971	-0.66508
0.12320	0.63582
0.12320	0.55929
0.12320	0.96742
0.12320	0.07465
0.14870	-1.27726
0.17421	-0.02739
0.12320	0.10015
0.07220	0.86539
-0.08081	-0.56305
0.14870	1.09496
0.37822	-0.76711
0.30171	1.14597
0.25071	-0.94566
0.07220	-0.38449
0.19971	-0.20594
0.12320	1.29902
0.12320	0.63582
0.07220	0.40625
0.19971	0.32972
0.17421	0.55929
0.12320	0.76336
0.09770	-0.94566
0.14870	0.35523
0.12320	0.94191
0.04670	-0.63957
0.12320	-0.05289
0.19971	-0.69059
0.19971	-0.56305
0.19971	-0.86914
0.14870	0.20219
0.14870	1.63062
0.19971	-2.06800
0.02119	2.29382
-0.00431	0.10015
0.09770	0.58480
0.17421	1.14597
0.19971	0.17668
0.07220	0.10015
0.17421	1.06945
0.17421	-1.58336
0.07220	-0.02739
0.14870	0.35523
0.27621	0.10015
0.12320	-0.02739
0.12320	0.35523
0.07220	-0.30797
0.19971	-0.69059
0.30171	0.04914
0.14870	0.48277
0.09770	0.17668
0.07220	0.55929
-0.02981	1.24800
0.25071	-0.97117
0.35272	0.07465
0.22521	-0.51203
0.09770	0.61031
0.09770	-0.71609
0.19971	1.35003
0.25071	1.55410
0.12320	-0.58856
-0.00431	0.86539
0.19971	0.89089
0.14870	0.30422
0.04670	-0.74160
0.19971	0.30422
0.25071	-0.07840
0.17421	-0.74160
0.09770	0.63582
0.12320	-0.05289
0.25071	-0.71609
0.14870	0.40625
0.12320	0.04914
0.12320	0.02363
0.14870	0.02363
0.25071	0.66132
0.19971	-0.41000
0.14870	0.12566
0.12320	-0.07840
0.14870	1.27351
0.19971	0.25320
0.14870	1.37554
0.14870	-0.15492
0.04670	0.02363
0.09770	0.63582
0.17421	-0.46102
0.22521	-0.25695
0.17421	0.55929
0.14870	0.12566
0.14870	0.15117
0.09770	-0.12942
0.09770	-0.53754
0.22521	-0.43551
0.19971	0.20219
0.19971	1.40105
0.14870	-0.46102
0.19971	0.55929
0.17421	-0.10391
0.12320	0.10015
0.12320	1.12046
0.12320	0.04914
0.19971	2.08976
0.09770	-2.65468
0.12320	-0.58856
0.17421	-0.66508
0.25071	1.42656
0.12320	1.32453
0.12320	-0.35899
0.14870	1.27351
0.19971	-0.02739
0.17421	-0.46102
0.19971	0.17668
0.17421	-0.63957
0.17421	-0.33348
0.04670	-0.38449
0.22521	0.25320
0.12320	0.27871
0.04670	-0.10391
0.12320	0.99292
0.19971	0.66132
0.12320	-0.15492
0.22521	0.55929
0.19971	-1.25176
0.12320	1.29902
0.22521	-0.48652
0.25071	0.55929
0.02119	1.19699
0.09770	-1.07320
0.07220	0.30422
0.22521	0.86539
0.17421	1.68163
0.17421	0.15117
0.07220	-0.84363
0.25071	-0.84363
0.22521	0.43176
0.07220	-0.10391
0.07220	-1.60887
0.14870	0.40625
0.07220	0.43176
0.30171	0.66132
0.17421	0.15117
0.12320	0.17668
0.09770	0.96742
0.07220	0.25320
0.14870	0.96742
0.17421	-0.74160
0.27621	-0.33348
0.09770	-0.58856
0.07220	-1.32828
0.12320	1.50308
0.27621	1.63062
0.22521	1.22250
0.14870	0.10015
-0.02981	-0.86914
0.04670	-1.07320
0.25071	1.27351
0.17421	0.27871
0.14870	-1.12422
0.19971	0.61031
0.25071	0.30422
0.09770	0.15117
0.04670	0.35523
0.04670	-0.30797
0.22521	0.55929
0.14870	0.40625
0.07220	0.30422
0.12320	-0.07840
0.22521	-1.68539
0.12320	1.47757
0.07220	0.50828
0.19971	-1.35379
0.25071	1.19699
0.17421	-0.12942
0.09770	0.22769
0.14870	0.86539
0.17421	0.25320
0.12320	0.35523
0.14870	0.43176
0.25071	-0.43551
0.17421	-0.84363
0.09770	0.50828
0.12320	1.01843
0.22521	0.40625
0.09770	-0.33348
0.12320	0.63582
0.14870	-1.35379
0.17421	-0.97117
0.12320	2.80397
0.12320	0.76336
0.17421	-1.60887
0.17421	-0.05289
0.04670	-0.20594
0.14870	0.78886
0.22521	0.66132
0.17421	0.25320
0.14870	0.35523
0.07220	-0.15492
0.27621	0.17668
0.19971	-0.41000
0.14870	0.12566
0.22521	1.06945
0.17421	-0.02739
0.25071	-0.41000
0.12320	0.15117
0.04670	0.43176
0.04670	0.04914
0.19971	0.53379
0.14870	-2.01699
0.14870	0.99292
0.17421	0.71234
-0.05531	0.63582
-0.02981	0.02363
0.17421	0.83988
0.17421	-0.23145
0.12320	0.15117
0.22521	0.55929
0.32721	0.25320
0.17421	-0.81812
0.09770	0.48277
0.14870	0.25320
0.09770	-1.09871
0.12320	0.35523
0.12320	1.01843
0.09770	0.68683
0.12320	-0.18043
0.04670	-0.15492
0.14870	0.04914
0.14870	-0.07840
0.09770	-0.35899
0.22521	-0.92016
0.17421	1.32453
0.04670	0.17668
0.19971	0.07465
0.22521	0.43176
0.12320	0.43176
0.09770	-0.07840
0.25071	0.40625
0.17421	0.17668
0.12320	-0.76711
0.19971	0.04914
-0.02981	0.76336
0.17421	1.40105
0.22521	-0.05289
0.19971	0.32972
0.12320	0.10015
0.12320	-1.96597
0.09770	1.22250
0.17421	0.25320
0.17421	0.32972
0.17421	0.02363
0.19971	0.50828
0.14870	0.96742
0.12320	-0.97117
0.07220	1.12046
0.09770	-0.15492
0.19971	-0.76711
0.09770	-0.63957
0.09770	0.58480
0.09770	0.38074
0.17421	0.96742
0.19971	1.09496
0.22521	-1.45582
0.14870	0.55929
0.17421	0.66132
0.14870	-0.02739
0.12320	-0.56305
0.12320	0.10015
0.02119	-0.63957
0.17421	0.55929
0.12320	1.29902
0.02119	0.25320
0.27621	-0.07840
0.22521	-0.58856
0.12320	1.01843
0.02119	-0.00188
0.09770	-0.15492
0.17421	-1.07320
0.07220	-0.43551
0.14870	0.02363
0.17421	0.63582
0.09770	0.68683
0.17421	0.81437
0.22521	0.55929
0.25071	-1.14973
0.14870	-0.58856
0.04670	0.38074
0.12320	0.12566
0.17421	0.40625
0.14870	0.61031
0.12320	0.63582
0.22521	-0.61406
0.27621	1.27351
0.12320	-0.10391
0.02119	-0.07840
0.09770	-0.02739
0.14870	0.10015
0.12320	0.10015
0.22521	-0.99668
0.19971	1.24800
0.09770	0.48277
0.09770	-2.19554
0.19971	0.22769
0.09770	1.68163
0.12320	1.35003
0.22521	0.63582
0.12320	-0.23145
0.19971	-0.53754
0.19971	-0.02739
0.12320	0.27871
0.14870	0.38074
0.09770	0.07465
0.17421	-1.12422
0.12320	0.83988
0.22521	-0.94566
0.09770	0.53379
0.07220	0.94191
0.19971	0.50828
0.22521	1.01843
0.27621	0.40625
0.19971	-1.55785
