0.14870	0.35523
0.35272	-0.05289
0.04670	0.68683
0.53123	0.68683
-0.28482	0.30422
-0.28482	-0.23145
0.50573	0.38074
-0.15732	0.02363
0.50573	-0.10391
0.60773	0.04914
-0.18282	-0.05289
0.30171	0.04914
-0.02981	0.04914
-0.23382	-0.18043
0.02119	0.71234
0.02119	0.25320
0.25071	0.04914
0.25071	-0.20594
0.19971	0.73785
0.22521	-0.02739
0.22521	0.78886
0.14870	-0.51203
0.17421	0.22769
0.30171	0.53379
0.12320	-0.02739
0.09770	0.04914
0.22521	0.22769
0.22521	0.27871
0.14870	0.76336
0.04670	-0.46102
0.12320	-0.05289
0.17421	0.30422
-0.02981	-1.45582
0.30171	0.96742
0.42922	0.78886
0.55673	-0.12942
-0.36133	0.35523
-0.38683	0.53379
0.48022	0.22769
0.25071	0.25320
0.14870	0.04914
0.22521	-0.48652
0.14870	0.15117
0.17421	0.27871
0.02119	0.12566
0.07220	0.25320
0.19971	0.25320
0.27621	-0.10391
0.30171	0.10015
0.07220	0.25320
0.07220	0.25320
-0.08081	0.32972
-0.36133	-0.69059
0.53123	0.73785
1.21977	0.04914
-0.15732	0.45726
-0.36133	0.32972
-0.02981	0.43176
0.02119	0.30422
0.07220	0.10015
-0.00431	-0.58856
0.35272	0.07465
0.50573	0.68683
0.12320	-0.02739
0.02119	-0.58856
0.07220	-0.05289
0.09770	0.07465
0.17421	1.01843
0.32721	-0.41000
0.09770	-0.02739
0.12320	0.55929
0.17421	0.68683
0.14870	0.40625
0.40372	0.04914
-0.23382	-0.25695
0.42922	0.12566
0.04670	0.45726
0.50573	-0.20594
-0.02981	-0.53754
0.14870	-0.97117
0.27621	0.91640
0.02119	0.22769
-0.00431	0.40625
0.30171	-0.00188
0.42922	-0.41000
0.12320	0.91640
-0.08081	0.68683
0.12320	0.58480
0.17421	-0.10391
-0.25932	-0.02739
0.35272	0.22769
0.45472	0.27871
0.14870	-0.05289
-0.02981	-0.46102
0.04670	-0.15492
0.25071	0.12566
0.09770	0.17668
0.12320	0.45726
0.37822	0.30422
0.14870	0.15117
0.02119	0.07465
0.17421	0.22769
0.19971	0.12566
0.17421	0.12566
0.14870	0.15117
-1.12638	0.15117
1.72980	0.15117
0.42922	-0.00188
-0.79486	0.71234
0.07220	-0.86914
0.12320	0.35523
0.09770	0.32972
0.19971	0.43176
0.42922	0.81437
-0.02981	0.45726
-0.10631	-0.33348
0.37822	-0.05289
0.27621	0.22769
0.04670	0.22769
-0.00431	0.25320
0.12320	-0.07840
0.22521	-0.10391
0.14870	-0.05289
0.02119	0.25320
0.12320	-0.28246
0.55673	0.61031
0.17421	0.45726
0.17421	0.27871
-0.10631	0.04914
0.12320	0.76336
0.27621	0.58480
0.02119	0.02363
0.17421	-0.97117
0.14870	0.68683
0.12320	-1.53234
0.22521	0.66132
0.12320	0.61031
0.17421	0.78886
0.17421	0.55929
0.09770	-0.02739
0.12320	0.04914
0.19971	-0.30797
0.17421	0.27871
0.35272	0.15117
-0.23382	0.35523
0.27621	-0.23145
0.22521	-0.07840
0.17421	0.55929
0.32721	0.25320
0.22521	0.10015
-0.48884	-0.23145
0.48022	0.40625
0.65874	0.53379
0.02119	-0.18043
-0.05531	-0.18043
0.02119	-0.30797
-0.02981	0.35523
0.09770	0.35523
0.37822	0.27871
0.19971	0.35523
0.09770	0.20219
-0.00431	0.32972
0.30171	-0.38449
0.35272	0.50828
0.07220	0.20219
0.02119	-0.18043
0.14870	-0.07840
0.12320	0.35523
0.09770	0.40625
0.19971	0.53379
0.25071	-0.48652
0.09770	0.12566
0.09770	0.58480
0.19971	-0.76711
0.27621	0.55929
0.25071	0.07465
0.14870	0.15117
0.09770	0.27871
0.02119	0.10015
0.07220	0.04914
0.07220	0.30422
0.19971	0.48277
0.17421	0.25320
0.02119	-0.25695
-0.10631	0.25320
0.32721	0.40625
0.42922	-0.38449
0.17421	-0.99668
0.04670	0.66132
0.07220	0.91640
0.12320	-0.25695
0.40372	-0.05289
-0.46334	-0.56305
0.22521	0.94191
0.73524	0.81437
-0.15732	0.45726
0.12320	0.12566
0.35272	0.38074
0.07220	-0.00188
0.19971	-0.97117
0.27621	-0.18043
0.09770	0.30422
0.07220	0.40625
0.14870	0.27871
0.12320	0.15117
0.09770	0.15117
0.12320	0.15117
0.12320	0.10015
0.07220	0.27871
0.14870	-0.18043
0.22521	0.40625
0.09770	0.25320
0.09770	-0.05289
0.22521	0.22769
0.14870	0.81437
0.07220	-0.20594
0.12320	-0.12942
0.22521	0.45726
0.14870	0.20219
0.09770	0.17668
0.17421	0.15117
0.19971	-0.61406
0.09770	0.12566
0.14870	0.68683
0.17421	0.58480
0.22521	0.07465
0.02119	-0.97117
0.14870	0.53379
0.19971	0.53379
0.14870	0.04914
0.07220	0.48277
0.12320	0.63582
0.22521	-0.86914
0.22521	-0.25695
-0.02981	0.55929
0.40372	0.86539
0.27621	0.61031
0.07220	-0.02739
-0.05531	0.07465
0.07220	-0.20594
0.19971	-0.35899
-0.00431	-0.05289
0.19971	-0.25695
0.37822	0.17668
0.17421	0.43176
-0.10631	0.45726
0.70974	0.27871
0.17421	0.02363
-0.59084	0.38074
0.40372	0.32972
0.53123	0.17668
-0.02981	0.15117
0.14870	0.02363
0.07220	0.07465
0.02119	0.38074
0.09770	0.22769
0.22521	-0.07840
0.17421	-0.61406
-0.13181	0.61031
0.37822	-0.66508
0.37822	1.19699
-0.00431	-0.74160
-0.00431	0.25320
0.09770	0.96742
0.22521	0.25320
0.12320	0.30422
0.12320	0.12566
0.12320	0.02363
0.14870	0.32972
0.22521	-0.38449
0.22521	0.17668
0.17421	0.20219
0.09770	0.32972
0.14870	0.02363
0.19971	0.27871
0.19971	-0.07840
0.14870	-0.07840
0.14870	-0.28246
0.04670	0.35523
0.12320	0.35523
0.19971	0.25320
0.12320	0.50828
0.14870	0.35523
0.32721	0.25320
0.07220	-0.20594
0.12320	-0.63957
0.14870	0.50828
0.19971	0.63582
0.17421	0.43176
0.14870	0.04914
0.22521	0.04914
0.14870	-0.18043
0.07220	0.25320
0.17421	0.32972
0.12320	0.15117
0.27621	0.45726
0.14870	-0.00188
0.09770	-0.51203
0.07220	0.35523
0.12320	0.30422
0.14870	0.38074
0.17421	0.02363
-0.08081	0.10015
0.04670	-0.18043
0.99026	0.25320
0.22521	0.04914
-0.02981	0.02363
-0.10631	0.32972
-0.05531	0.40625
0.07220	0.20219
0.19971	0.61031
0.17421	-0.07840
0.12320	-0.12942
0.19971	0.17668
0.27621	-0.43551
0.17421	0.32972
0.09770	0.40625
0.09770	0.10015
0.19971	0.15117
0.25071	0.20219
0.14870	0.20219
0.09770	0.04914
0.09770	0.32972
0.55673	0.35523
-0.31033	0.22769
0.07220	-0.86914
0.30171	0.22769
0.02119	0.20219
0.25071	0.32972
0.07220	0.30422
0.12320	0.22769
0.35272	0.10015
0.14870	0.71234
0.09770	0.30422
-0.02981	0.17668
0.32721	-0.38449
-0.02981	0.10015
0.09770	0.10015
0.63323	0.15117
0.58223	0.22769
-0.02981	0.35523
-0.23382	0.12566
-0.13181	0.40625
-0.02981	0.27871
0.09770	-0.20594
0.22521	-0.15492
0.19971	0.40625
0.14870	0.35523
0.22521	0.07465
0.32721	0.35523
0.19971	0.45726
0.09770	-0.30797
0.09770	-0.05289
0.58223	0.10015
0.22521	-0.07840
-0.00431	-0.48652
-0.00431	0.35523
0.14870	0.45726
0.07220	0.30422
0.30171	0.53379
-0.43783	-0.10391
-0.02981	0.02363
0.63323	0.17668
0.37822	0.25320
0.12320	0.25320
0.07220	-0.00188
-0.13181	0.30422
-0.13181	0.07465
0.02119	0.22769
0.96476	0.10015
0.53123	-0.25695
-0.02981	0.15117
-0.36133	0.27871
0.07220	-0.05289
-0.56534	0.35523
-0.59084	0.32972
1.39828	0.22769
0.93925	0.17668
-0.31033	-0.15492
0.14870	0.43176
-0.20832	0.53379
-1.07538	-0.15492
1.11776	-0.28246
-0.31033	0.76336
1.55129	0.66132
-0.08081	-1.17523
1.62780	0.48277
-1.58541	0.38074
-1.22839	0.45726
2.44385	-0.10391
0.40372	0.20219
-0.00431	0.15117
1.37278	-0.51203
1.21977	0.78886
-0.79486	0.22769
-1.38139	-0.25695
-1.84042	0.53379
-2.45246	-0.23145
-3.88056	-0.28246
2.36734	-0.35899
1.75531	0.61031
4.66249	0.50828
3.87194	1.35003
-0.28482	0.02363
-1.58541	-1.83844
3.13239	0.55929
0.32721	-0.25695
-2.93700	-0.00188
-3.65104	0.53379
-2.01894	0.63582
0.96476	0.73785
-1.89143	0.07465
-0.76936	0.35523
2.06133	0.66132
2.74987	0.58480
2.57136	0.30422
0.19971	0.04914
-0.33583	-1.53234
-0.92237	-1.91496
-0.79486	0.22769
-0.41233	0.43176
-0.10631	-0.43551
-0.38683	0.96742
0.30171	1.63062
0.70974	1.14597
0.50573	0.55929
0.02119	-0.35899
1.83181	0.48277
1.52579	0.04914
-0.87136	0.78886
-0.61635	0.04914
-0.43783	-1.22625
-0.31033	-0.33348
0.09770	-0.15492
0.17421	0.32972
0.22521	-0.00188
0.22521	0.07465
0.27621	-0.94566
0.42922	0.35523
0.35272	1.06945
0.32721	0.96742
-0.33583	0.58480
-0.18282	3.18659
-0.23382	-2.57816
0.93925	-0.18043
-0.71835	0.55929
-0.38683	1.09496
1.37278	0.15117
-0.41233	0.40625
0.22521	-1.65988
-1.63641	-2.62918
1.80631	3.31413
0.81175	2.31933
0.73524	-2.06800
2.31634	-1.17523
-3.14101	0.73785
0.02119	2.47238
1.50029	-2.24656
-0.23382	0.58480
-1.38139	0.27871
-0.71835	-2.62918
0.07220	2.29382
-0.43783	1.06945
-0.05531	1.52859
0.76074	2.03874
0.78624	-4.66979
0.76074	0.91640
0.76074	0.25320
0.53123	-1.17523
0.02119	0.76336
-0.51434	-0.94566
0.12320	-4.54226
0.58223	4.87010
-0.05531	2.03874
0.22521	1.37554
-0.13181	-0.25695
0.42922	-0.10391
-0.13181	-0.30797
-0.18282	-2.19554
-0.38683	2.08976
0.86275	-1.96597
1.04126	-0.84363
0.19971	-0.69059
-0.79486	-0.20594
-0.43783	2.75296
0.76074	-1.22625
0.99026	1.65613
-0.43783	0.55929
0.22521	2.31933
-1.02437	-0.23145
-0.38683	-1.96597
0.99026	-1.17523
0.65874	0.66132
0.55673	2.65093
0.37822	1.52859
0.37822	-0.30797
-0.82036	-3.16484
-0.08081	2.57441
0.09770	-5.10343
-1.76392	1.47757
2.44385	2.24281
1.21977	-1.88945
0.12320	0.40625
-0.51434	1.75816
-0.28482	2.54890
-0.23382	-2.50164
-0.15732	1.63062
0.73524	-1.78742
0.42922	-1.04770
0.12320	1.35003
0.30171	1.60511
-0.02981	1.09496
-0.13181	-1.58336
0.30171	0.32972
0.40372	-1.91496
0.07220	2.39585
-0.08081	0.71234
0.07220	0.32972
0.09770	-0.10391
0.25071	-0.48652
0.27621	1.19699
-0.56534	0.76336
0.58223	-1.12422
0.22521	-1.53234
0.73524	1.57960
0.27621	-0.46102
0.30171	1.06945
-0.48884	-0.66508
0.09770	-3.26687
-0.41233	-1.53234
0.22521	2.57441
-0.82036	0.53379
1.27078	2.54890
0.55673	-0.41000
-0.23382	-2.24656
0.27621	2.44687
0.32721	1.57960
0.70974	3.08456
-0.89686	-0.43551
1.42379	-2.29757
1.04126	4.20690
0.12320	-3.64948
-0.51434	-3.26687
-0.41233	0.22769
-0.28482	1.91120
-0.13181	1.27351
0.09770	0.99292
0.65874	-0.43551
0.30171	1.17148
0.14870	0.43176
0.12320	-0.28246
0.04670	-1.48133
-0.31033	-0.05289
1.60230	0.38074
1.27078	1.98773
0.09770	0.15117
-0.53984	1.19699
-0.82036	0.48277
0.02119	-2.47613
0.22521	0.96742
0.53123	-1.09871
-0.46334	2.90601
0.22521	-1.20074
0.19971	-1.91496
0.12320	1.12046
0.02119	2.52339
-0.28482	-0.99668
0.78624	1.83468
0.73524	-3.01179
-0.10631	1.29902
-0.08081	2.11527
0.04670	-0.69059
0.09770	-1.07320
-0.18282	-2.39961
0.45472	1.06945
0.09770	3.46718
0.02119	2.14077
0.17421	-1.17523
0.32721	-1.27726
-0.33583	-0.38449
-0.00431	-0.05289
0.32721	0.25320
0.35272	0.45726
0.40372	-1.35379
0.14870	-1.32828
0.17421	2.39585
0.14870	1.55410
-0.05531	-2.55265
-0.13181	1.37554
0.02119	0.35523
0.25071	0.25320
0.27621	0.22769
-0.05531	-0.35899
0.83725	-0.00188
0.19971	1.22250
-0.10631	-0.92016
0.12320	-0.23145
-0.53984	0.07465
0.73524	0.10015
0.40372	0.91640
-0.18282	-1.81293
-0.84586	2.75296
1.11776	0.35523
0.12320	-0.92016
0.45472	1.65613
0.02119	0.17668
-0.10631	1.63062
-0.28482	-1.68539
0.35272	-0.81812
0.60773	-1.32828
-0.08081	1.17148
0.12320	2.03874
0.14870	1.73265
0.14870	-3.98109
0.14870	-2.80773
0.45472	1.14597
-0.28482	3.03355
-0.20832	0.25320
1.19427	-0.61406
0.83725	3.36515
-0.28482	-1.30277
-0.20832	0.86539
-0.10631	-2.27207
-0.71835	1.17148
0.45472	-1.17523
0.63323	0.89089
0.17421	0.04914
0.19971	0.10015
0.07220	0.27871
-0.00431	-0.02739
-0.28482	0.99292
0.07220	-2.29757
1.11776	0.99292
0.32721	0.17668
-0.08081	-0.92016
-0.38683	1.09496
0.04670	-0.05289
0.37822	-0.05289
-0.02981	-0.00188
-0.05531	2.80397
0.09770	-0.56305
0.73524	0.91640
0.76074	-1.04770
-0.00431	-2.04250
-0.43783	2.08976
-0.31033	1.24800
0.40372	-0.23145
0.30171	-1.02219
0.12320	1.63062
-0.02981	-1.71090
0.14870	0.15117
0.45472	0.15117
-0.00431	0.45726
-0.05531	-2.19554
0.30171	1.32453
0.17421	0.76336
0.12320	2.39585
-0.00431	0.86539
0.02119	-1.12422
0.40372	-0.63957
0.48022	1.45206
-0.28482	-0.18043
0.30171	-3.16484
0.60773	0.58480
0.37822	0.94191
-0.64185	1.40105
0.30171	-0.25695
-0.23382	0.83988
0.99026	-0.41000
0.25071	0.96742
-0.48884	-1.09871
-0.46334	0.61031
0.35272	0.61031
0.63323	0.17668
0.60773	0.02363
0.14870	-0.66508
0.19971	0.25320
0.45472	0.32972
-2.06994	1.17148
0.60773	0.25320
1.50029	0.35523
0.55673	-0.48652
-0.33583	-0.99668
0.02119	-1.45582
-0.31033	1.52859
0.07220	-0.07840
-0.48884	-0.46102
0.14870	1.52859
0.73524	1.80917
0.45472	-0.58856
0.32721	-0.74160
0.02119	1.86019
0.14870	-1.09871
0.45472	-1.09871
-0.13181	-0.28246
0.14870	1.52859
0.48022	0.96742
-0.76936	-1.37929
1.06676	-0.38449
0.76074	0.53379
0.09770	0.38074
-0.18282	-0.05289
-0.18282	0.83988
0.07220	1.35003
0.07220	1.70714
0.09770	-0.94566
-0.13181	-2.65468
-0.36133	-1.35379
0.53123	1.96222
0.68424	1.52859
0.30171	0.22769
0.30171	0.83988
0.27621	-0.20594
0.22521	0.15117
0.02119	-0.07840
0.14870	0.07465
0.22521	0.04914
0.07220	-0.81812
-0.02981	-0.99668
0.02119	1.04394
0.17421	0.58480
-0.02981	0.10015
0.12320	1.09496
0.17421	-0.81812
-0.00431	-0.56305
-0.00431	0.94191
0.42922	0.53379
0.76074	-1.22625
-0.38683	1.32453
0.19971	0.78886
0.50573	-1.02219
0.09770	0.78886
0.02119	0.17668
0.14870	-0.81812
0.02119	-0.05289
-0.05531	-0.46102
0.19971	0.12566
0.14870	0.15117
0.17421	1.24800
0.32721	-1.09871
0.12320	-0.25695
0.19971	0.61031
-0.69285	0.07465
1.27078	0.27871
0.53123	-2.24656
-0.05531	2.49788
-0.05531	-0.05289
0.09770	0.35523
0.17421	0.76336
0.04670	-1.25176
0.12320	-0.23145
0.32721	0.96742
-0.20832	-0.23145
0.12320	0.15117
0.55673	0.48277
0.42922	0.61031
-0.00431	-0.15492
0.12320	-3.44542
0.14870	1.86019
0.17421	0.83988
0.17421	0.71234
0.30171	0.53379
-0.02981	0.25320
0.17421	-0.97117
0.09770	1.35003
0.14870	1.75816
0.02119	0.25320
-0.08081	1.52859
0.22521	-1.63437
0.78624	-0.30797
-0.13181	0.12566
0.04670	0.43176
0.19971	-0.20594
0.14870	0.20219
0.04670	1.40105
0.30171	0.38074
0.12320	0.10015
0.12320	-4.74632
0.04670	1.63062
0.07220	0.50828
0.12320	1.65613
0.17421	-0.00188
0.07220	-1.17523
0.09770	2.14077
0.07220	0.55929
0.30171	0.04914
0.19971	-0.66508
0.22521	0.35523
-0.00431	-0.94566
0.35272	0.91640
0.22521	0.61031
0.25071	-0.20594
-0.28482	0.86539
0.22521	-0.69059
0.07220	0.15117
0.25071	0.25320
0.37822	1.80917
-0.69285	-1.81293
0.40372	-0.28246
0.60773	0.73785
0.37822	0.91640
-0.00431	0.45726
-0.28482	0.40625
0.02119	-0.63957
0.04670	-1.02219
0.17421	0.40625
0.17421	0.55929
0.09770	1.57960
0.22521	0.73785
0.30171	0.61031
0.27621	-4.44022
0.19971	-0.07840
0.12320	0.30422
0.17421	0.91640
0.04670	0.35523
0.09770	0.78886
0.09770	1.55410
-0.28482	-1.81293
0.70974	0.78886
0.27621	-0.76711
0.22521	-0.94566
-0.41233	2.16628
-0.18282	1.70714
0.60773	-0.48652
0.32721	-0.20594
0.04670	-0.69059
0.12320	0.40625
0.14870	-0.28246
0.12320	-0.35899
0.09770	2.14077
0.14870	-0.53754
0.37822	-3.52195
-0.00431	0.76336
0.12320	0.55929
0.07220	1.52859
0.02119	0.10015
0.02119	0.71234
0.25071	0.20219
0.60773	0.68683
0.30171	0.02363
-0.00431	-1.86394
-0.02981	0.76336
0.30171	-0.33348
0.32721	0.45726
-0.28482	1.17148
0.25071	-1.07320
0.19971	0.17668
0.07220	0.58480
-0.05531	0.30422
0.07220	0.04914
0.12320	1.45206
-0.76936	-1.81293
0.76074	0.35523
0.68424	0.15117
0.76074	0.48277
0.02119	0.68683
-0.31033	-2.27207
-0.25932	2.08976
0.22521	0.22769
-0.38683	0.76336
0.04670	-0.38449
0.78624	-0.05289
0.14870	0.43176
0.19971	0.89089
0.17421	0.04914
0.12320	0.04914
0.27621	0.25320
0.09770	0.12566
0.02119	-0.79262
0.25071	1.27351
0.12320	0.20219
0.12320	0.32972
0.04670	0.10015
0.22521	-0.66508
0.02119	-0.48652
0.22521	-0.28246
0.30171	0.94191
0.14870	0.96742
-0.00431	0.50828
0.22521	0.02363
0.14870	-0.43551
0.12320	1.19699
0.25071	-0.05289
0.22521	-1.76191
-0.10631	0.63582
0.17421	1.40105
0.27621	0.02363
0.14870	-0.28246
0.17421	0.71234
0.19971	0.22769
0.22521	0.04914
0.14870	0.66132
0.12320	-0.25695
0.09770	0.25320
-0.02981	0.12566
0.07220	0.20219
0.19971	0.17668
0.19971	0.12566
0.35272	0.35523
0.19971	1.17148
0.02119	-1.76191
0.14870	-0.71609
0.02119	1.09496
0.27621	-0.74160
0.27621	0.73785
-0.02981	0.58480
0.17421	0.15117
0.02119	-0.94566
0.17421	0.61031
0.09770	0.25320
0.09770	1.78367
0.14870	1.14597
0.14870	-1.63437
0.12320	1.04394
0.07220	0.27871
0.45472	0.76336
0.12320	-0.10391
0.07220	-0.71609
0.17421	-0.71609
0.19971	0.71234
-0.15732	0.10015
0.25071	1.12046
0.81175	-0.51203
-0.00431	-0.63957
0.25071	0.53379
-0.28482	-1.40480
0.04670	0.83988
0.22521	0.61031
-0.08081	1.37554
0.45472	-1.45582
0.53123	2.31933
0.12320	-0.23145
0.14870	0.40625
-0.00431	0.55929
0.02119	0.53379
0.04670	-0.10391
0.12320	-1.45582
0.14870	-2.01699
0.12320	0.17668
0.35272	1.32453
0.30171	1.04394
0.14870	0.12566
0.02119	1.75816
0.07220	-1.02219
0.07220	1.06945
0.19971	-0.94566
0.17421	0.76336
0.22521	-1.17523
0.25071	0.45726
0.25071	0.76336
0.17421	0.48277
0.09770	0.61031
0.07220	0.76336
0.19971	-2.50164
-0.00431	0.81437
0.09770	0.76336
0.25071	-0.10391
0.04670	0.30422
0.12320	1.12046
0.45472	0.10015
0.04670	0.48277
0.02119	-1.81293
0.04670	-1.17523
0.14870	1.52859
0.22521	1.35003
0.22521	0.38074
-0.02981	0.50828
0.22521	-1.71090
0.22521	0.91640
0.09770	0.10015
0.12320	1.42656
0.19971	0.25320
0.25071	0.78886
0.12320	-0.10391
0.19971	-0.46102
0.14870	-0.23145
0.07220	-0.56305
-0.00431	0.45726
0.25071	0.83988
0.19971	1.55410
0.12320	-2.78222
0.02119	-0.38449
0.19971	1.78367
0.27621	-0.02739
0.17421	-1.50683
0.09770	1.88570
0.09770	0.15117
0.22521	-0.18043
0.09770	0.53379
-0.02981	-0.15492
0.22521	0.83988
0.19971	-0.86914
0.12320	-0.05289
0.25071	0.12566
0.19971	0.30422
0.14870	1.35003
0.12320	-1.83844
0.07220	-0.15492
-0.00431	-0.66508
0.12320	1.65613
0.81175	0.89089
0.17421	-1.17523
0.02119	-1.32828
-0.08081	0.91640
-0.00431	1.14597
0.17421	0.91640
0.22521	1.27351
0.22521	0.30422
0.09770	-0.02739
0.25071	-2.32308
0.12320	1.37554
0.17421	-0.07840
0.12320	-0.18043
0.04670	0.12566
0.09770	0.27871
0.27621	-0.28246
0.14870	0.04914
0.22521	0.17668
0.32721	1.06945
0.22521	-0.20594
0.02119	0.30422
0.12320	0.68683
0.19971	0.76336
0.22521	-1.17523
0.02119	-0.86914
0.07220	-1.04770
0.35272	1.78367
0.07220	-0.23145
0.02119	-0.30797
0.04670	1.52859
0.04670	1.14597
0.35272	-1.43031
0.32721	0.78886
0.12320	0.94191
0.07220	0.10015
0.17421	-0.30797
0.19971	-0.43551
0.09770	-0.05289
0.09770	0.22769
0.14870	-0.05289
0.19971	0.45726
0.14870	-1.68539
0.40372	1.06945
0.17421	0.10015
0.07220	0.89089
0.07220	0.94191
0.12320	1.37554
0.02119	-1.04770
0.14870	-0.25695
0.32721	-0.69059
0.12320	-0.74160
0.07220	0.55929
0.17421	0.35523
0.07220	1.47757
0.07220	0.35523
0.30171	1.78367
0.25071	-1.17523
0.17421	-0.89465
0.07220	-0.71609
0.22521	0.45726
0.12320	0.63582
0.12320	0.73785
0.07220	0.32972
0.12320	0.02363
0.04670	0.76336
0.07220	-1.22625
0.37822	0.71234
0.22521	-0.86914
0.09770	1.01843
-0.00431	1.14597
0.12320	0.20219
0.25071	-1.04770
0.17421	0.38074
0.22521	-0.35899
-0.00431	0.32972
0.02119	0.30422
0.53123	0.17668
0.27621	0.73785
0.09770	2.19179
0.09770	-0.23145
-0.02981	0.58480
0.04670	-0.28246
0.12320	-1.65988
0.12320	-0.23145
0.30171	-0.46102
0.22521	-0.69059
0.02119	0.86539
0.09770	0.07465
0.12320	0.66132
0.22521	0.66132
0.27621	1.19699
0.12320	0.15117
0.22521	0.89089
0.19971	-2.75671
0.12320	-0.25695
0.14870	1.42656
0.22521	0.73785
0.14870	0.61031
0.07220	-0.23145
0.02119	0.02363
0.04670	0.10015
0.12320	0.15117
0.40372	-0.41000
0.12320	-0.10391
-0.00431	0.25320
0.04670	0.25320
0.14870	0.27871
0.12320	-0.05289
0.12320	0.66132
0.25071	0.02363
0.12320	0.32972
0.17421	0.45726
0.14870	-0.23145
0.14870	0.32972
0.09770	0.25320
0.17421	-0.18043
0.07220	0.86539
0.22521	-0.81812
0.27621	0.78886
0.22521	-0.86914
-0.02981	1.45206
0.14870	0.61031
0.25071	0.50828
0.19971	-0.76711
0.07220	0.04914
-0.00431	0.40625
0.04670	0.30422
0.12320	0.78886
0.35272	0.40625
0.25071	-1.14973
0.04670	-2.19554
-0.00431	1.73265
-0.00431	1.68163
-0.00431	0.32972
0.19971	-0.51203
0.30171	0.22769
0.27621	0.22769
0.14870	0.04914
0.17421	-0.33348
0.12320	0.27871
0.14870	0.20219
0.22521	0.10015
0.14870	-0.99668
-0.00431	-0.10391
0.19971	-0.28246
0.17421	1.14597
0.12320	1.78367
0.02119	-0.71609
0.17421	-0.66508
0.19971	0.22769
0.17421	1.14597
0.12320	-1.09871
0.04670	-0.12942
0.19971	1.01843
0.07220	0.76336
0.09770	0.76336
0.25071	-0.86914
0.22521	-0.12942
0.12320	0.12566
0.27621	-0.05289
0.12320	0.12566
0.12320	-0.02739
0.17421	0.55929
0.12320	0.15117
0.09770	-0.23145
0.09770	0.91640
0.19971	0.04914
0.12320	0.15117
0.07220	-0.48652
0.17421	-0.41000
0.14870	-0.99668
0.12320	0.86539
0.17421	0.63582
0.09770	1.47757
0.37822	0.32972
0.17421	0.45726
0.12320	0.55929
0.17421	0.55929
-0.18282	-0.76711
0.12320	-0.43551
0.19971	0.76336
0.09770	-0.07840
0.19971	-0.05289
0.12320	-0.07840
0.17421	-0.58856
0.25071	0.48277
0.07220	0.04914
0.14870	0.55929
0.35272	-0.25695
0.09770	0.55929
-0.00431	0.48277
0.12320	-0.05289
0.12320	0.22769
0.17421	0.50828
0.07220	-0.20594
0.19971	-0.66508
0.27621	0.04914
0.09770	0.61031
0.09770	0.91640
0.12320	-0.38449
0.07220	0.38074
0.22521	-0.00188
0.25071	0.43176
0.27621	0.25320
0.14870	0.43176
0.17421	0.10015
0.02119	-0.56305
0.07220	-0.25695
0.19971	0.76336
0.25071	0.76336
0.12320	-1.30277
0.04670	0.15117
0.12320	0.68683
0.12320	-1.12422
0.19971	1.40105
0.14870	-0.41000
0.09770	1.22250
0.07220	-0.84363
0.27621	0.45726
0.27621	-0.20594
0.30171	-0.48652
0.12320	1.06945
0.04670	0.86539
0.14870	0.50828
0.04670	0.04914
0.07220	0.15117
0.07220	-0.51203
0.27621	0.04914
0.17421	-0.07840
0.07220	-0.25695
0.17421	0.22769
0.14870	0.45726
0.12320	-0.20594
0.27621	-0.58856
0.19971	-0.15492
0.09770	-0.18043
0.17421	1.60511
0.14870	0.32972
0.09770	-0.89465
0.17421	0.78886
0.22521	0.48277
0.07220	-0.18043
0.14870	1.06945
0.17421	0.17668
0.07220	0.17668
0.07220	0.07465
0.19971	-2.01699
0.09770	0.20219
0.09770	-0.00188
0.07220	0.99292
0.19971	0.53379
0.25071	0.20219
0.19971	-0.51203
-0.02981	0.04914
0.27621	0.81437
0.19971	-0.51203
-0.05531	-0.10391
0.14870	1.42656
0.27621	0.73785
0.14870	-0.15492
0.17421	-0.66508
0.22521	0.32972
0.07220	-0.28246
0.17421	0.50828
0.22521	-0.25695
0.14870	-0.58856
0.09770	0.78886
0.17421	-0.97117
0.09770	0.53379
-0.00431	0.94191
0.12320	0.48277
0.25071	-0.28246
0.17421	1.01843
0.09770	-0.25695
0.14870	0.89089
0.19971	-0.69059
0.27621	0.02363
0.32721	0.25320
-0.00431	0.22769
0.04670	-0.86914
0.09770	1.04394
0.22521	0.68683
0.12320	0.73785
0.09770	0.25320
0.09770	-0.69059
0.22521	0.68683
0.30171	0.12566
0.17421	0.07465
0.14870	-0.38449
0.12320	-0.66508
0.14870	-0.38449
0.02119	0.71234
0.09770	-0.05289
0.14870	0.89089
0.22521	0.55929
0.04670	0.25320
0.12320	0.73785
0.12320	0.45726
0.22521	-0.33348
0.17421	0.02363
0.09770	0.35523
0.17421	0.45726
0.12320	0.38074
0.14870	0.10015
0.25071	-0.81812
0.42922	0.55929
-0.00431	-0.99668
-0.02981	0.35523
0.09770	0.58480
0.02119	-0.30797
0.19971	1.14597
0.30171	0.78886
0.14870	0.04914
0.14870	1.06945
0.27621	-0.86914
0.12320	-0.51203
0.07220	-0.25695
0.07220	-0.28246
0.22521	1.50308
0.09770	0.20219
0.09770	0.68683
0.19971	0.17668
0.17421	-0.79262
0.12320	-0.46102
0.02119	-0.12942
0.14870	0.63582
0.19971	0.53379
0.17421	0.22769
0.14870	0.43176
0.17421	0.50828
0.17421	-0.05289
0.04670	0.25320
0.14870	0.30422
0.22521	0.86539
0.17421	-0.84363
0.07220	-0.86914
0.07220	0.61031
-0.00431	-0.33348
0.07220	0.30422
0.19971	-0.15492
0.19971	-1.12422
0.30171	1.93671
0.22521	0.53379
0.14870	0.30422
0.07220	0.91640
0.27621	-0.30797
0.17421	-0.56305
0.07220	-0.81812
0.07220	1.37554
0.14870	1.06945
0.17421	-0.25695
-0.02981	0.17668
0.12320	-0.38449
0.35272	-0.15492
0.14870	0.02363
0.17421	-0.25695
0.07220	0.32972
0.09770	0.96742
0.25071	-0.79262
0.22521	0.81437
0.25071	-1.09871
0.17421	0.91640
0.12320	0.22769
0.14870	0.94191
0.12320	0.15117
0.22521	-0.66508
0.17421	-0.92016
0.07220	0.73785
0.12320	0.91640
0.17421	-0.51203
0.02119	0.15117
0.25071	0.17668
0.27621	0.53379
0.30171	0.66132
-0.00431	-0.25695
-0.00431	-0.25695
0.17421	0.15117
0.12320	-0.18043
0.12320	0.58480
0.14870	0.04914
0.25071	0.50828
0.30171	-0.58856
0.19971	0.94191
0.12320	-1.02219
0.02119	0.35523
0.14870	-0.48652
0.09770	0.81437
0.19971	0.50828
0.02119	0.35523
0.07220	1.24800
0.30171	-1.07320
0.12320	-0.23145
0.04670	1.40105
0.14870	-0.81812
0.12320	0.22769
0.09770	0.53379
0.17421	0.22769
0.22521	0.27871
0.32721	0.15117
0.25071	-0.61406
0.09770	0.38074
0.12320	0.50828
-0.05531	0.91640
0.02119	-0.86914
0.19971	-1.09871
0.19971	1.73265
0.02119	0.40625
0.35272	-0.30797
0.30171	1.12046
-0.08081	0.96742
0.04670	0.10015
0.22521	-0.99668
0.09770	0.38074
0.32721	0.04914
0.22521	0.07465
0.17421	-0.94566
0.04670	0.99292
-0.31033	-0.23145
0.48022	1.01843
0.04670	-0.51203
-0.00431	-0.23145
0.19971	-0.20594
0.09770	-0.28246
-0.13181	0.71234
0.32721	-0.61406
0.40372	0.81437
0.22521	0.48277
0.17421	0.68683
-0.00431	0.53379
-0.02981	-0.15492
0.37822	0.48277
0.37822	-0.35899
-0.00431	-0.05289
0.09770	0.40625
0.09770	0.25320
0.25071	0.58480
0.09770	-0.15492
0.12320	-0.33348
0.07220	-0.84363
0.19971	0.76336
0.12320	-0.10391
0.25071	0.99292
0.25071	1.06945
0.12320	-1.35379
0.12320	0.04914
0.04670	0.35523
0.25071	0.22769
0.12320	-0.33348
-0.02981	0.94191
0.19971	0.02363
0.53123	-0.33348
0.19971	0.20219
0.04670	-0.66508
-0.00431	0.86539
0.17421	0.25320
0.09770	0.66132
0.02119	0.38074
0.12320	0.04914
0.19971	-0.00188
0.17421	-0.10391
0.07220	-0.10391
0.27621	1.52859
0.25071	-0.07840
0.12320	-2.06800
0.17421	-0.41000
0.19971	0.73785
0.17421	-0.38449
0.19971	0.76336
0.07220	0.20219
0.12320	0.89089
0.09770	0.07465
0.12320	0.55929
0.12320	-0.38449
0.17421	-0.07840
0.07220	0.55929
0.27621	1.01843
0.35272	0.04914
0.25071	-0.99668
-0.00431	-1.30277
0.04670	0.30422
0.12320	1.40105
0.12320	0.76336
0.40372	0.27871
0.17421	-0.10391
0.04670	0.50828
0.07220	0.30422
0.09770	-0.69059
0.19971	-0.05289
0.14870	-0.74160
-0.00431	1.40105
0.17421	-1.09871
0.50573	0.91640
0.22521	1.12046
0.07220	-0.66508
0.09770	0.66132
-0.02981	-0.07840
0.07220	-1.12422
0.19971	0.50828
0.27621	1.73265
0.07220	0.04914
0.19971	0.07465
0.25071	-0.05289
0.09770	-0.07840
0.19971	0.86539
0.22521	0.99292
0.22521	-0.48652
0.12320	-0.35899
-0.02981	0.22769
-0.02981	0.38074
0.07220	-0.99668
0.27621	0.61031
0.19971	0.55929
0.14870	0.91640
0.02119	-0.35899
0.07220	-0.53754
0.17421	0.86539
0.19971	-0.71609
0.12320	0.38074
0.19971	0.48277
0.22521	-0.18043
0.07220	-0.79262
0.14870	1.37554
0.14870	1.06945
0.09770	-0.84363
0.22521	0.96742
0.30171	0.66132
0.09770	0.25320
0.19971	0.35523
0.09770	-0.07840
-0.00431	-0.30797
-0.08081	-0.94566
0.42922	-0.66508
0.14870	-0.00188
0.02119	0.96742
0.14870	-0.18043
0.07220	0.45726
0.04670	0.66132
0.12320	0.71234
0.17421	0.40625
-0.00431	-0.41000
0.35272	0.83988
0.30171	0.17668
0.07220	-0.71609
0.02119	-0.66508
0.12320	0.83988
0.32721	0.55929
0.22521	-0.25695
-0.05531	0.91640
0.14870	0.02363
0.07220	-0.23145
0.07220	-0.79262
0.12320	0.53379
0.14870	0.63582
0.09770	0.71234
0.14870	0.83988
0.19971	0.15117
0.09770	0.76336
0.14870	-0.71609
0.22521	-1.14973
0.09770	-0.58856
0.09770	0.50828
0.30171	-0.02739
0.19971	1.06945
-0.00431	0.53379
0.12320	0.99292
0.19971	-0.76711
0.09770	-1.58336
0.17421	1.45206
0.14870	1.42656
0.17421	0.30422
0.19971	-1.12422
0.09770	0.22769
0.04670	-0.86914
0.14870	0.66132
0.19971	0.86539
0.14870	0.58480
0.19971	0.68683
0.09770	-0.63957
0.40372	0.35523
0.12320	1.65613
-0.00431	0.30422
0.07220	-2.50164
0.02119	-0.58856
0.19971	-0.15492
0.19971	1.12046
0.12320	-0.30797
0.19971	0.73785
0.22521	0.32972
0.22521	0.73785
0.04670	0.32972
0.09770	-0.05289
0.12320	0.04914
0.17421	0.10015
0.19971	0.68683
0.07220	-1.30277
0.14870	0.45726
0.12320	-0.38449
0.04670	0.61031
0.14870	0.07465
0.19971	0.91640
0.12320	-0.10391
0.07220	0.32972
0.17421	-0.15492
0.25071	0.50828
0.17421	-0.23145
0.04670	0.73785
0.17421	-0.05289
0.14870	0.07465
-0.00431	0.04914
0.25071	0.25320
0.22521	-0.58856
0.04670	-0.15492
0.17421	1.27351
0.12320	-0.07840
0.12320	-0.10391
0.35272	0.15117
0.14870	0.10015
0.12320	0.22769
0.17421	-0.12942
0.09770	0.66132
0.07220	0.02363
0.17421	-0.71609
0.17421	0.73785
0.09770	-0.53754
-0.13181	-0.05289
0.27621	-0.05289
0.40372	1.01843
0.19971	-0.05289
-0.08081	1.73265
0.04670	-0.02739
0.09770	0.04914
0.14870	0.10015
0.12320	-0.38449
0.19971	0.61031
0.25071	0.25320
0.17421	0.10015
0.25071	-0.33348
0.07220	-0.53754
0.09770	0.30422
0.22521	0.35523
0.27621	-0.43551
0.07220	-0.18043
0.14870	0.76336
0.12320	-0.25695
0.19971	0.78886
0.12320	1.12046
0.07220	0.53379
0.07220	-0.48652
0.12320	-0.97117
0.19971	0.83988
0.22521	-0.20594
0.19971	1.40105
0.07220	0.07465
0.25071	-0.25695
0.27621	0.86539
0.14870	1.01843
0.09770	0.48277
0.07220	-0.02739
0.17421	0.27871
0.14870	0.25320
0.04670	0.45726
0.12320	-0.23145
0.30171	-0.48652
0.14870	0.25320
0.02119	-0.07840
0.17421	0.15117
0.22521	0.15117
0.14870	0.53379
0.19971	-1.09871
-0.05531	-0.02739
0.27621	0.99292
0.30171	0.86539
0.07220	-1.25176
-0.08081	0.20219
0.02119	0.86539
0.14870	1.27351
0.14870	-0.10391
0.19971	-2.19554
0.19971	0.25320
0.02119	1.27351
0.32721	1.37554
0.22521	0.63582
0.14870	-0.05289
0.07220	-0.05289
0.14870	0.20219
0.12320	0.27871
0.09770	-0.43551
0.07220	-0.30797
0.07220	0.27871
0.17421	-0.43551
0.30171	0.45726
0.22521	-0.05289
0.09770	-0.12942
0.22521	0.22769
0.14870	-0.20594
0.02119	1.17148
0.19971	0.66132
0.12320	-0.35899
0.09770	0.25320
0.17421	0.63582
0.19971	-0.33348
0.12320	-0.00188
0.14870	-0.63957
0.22521	1.01843
0.19971	-0.35899
0.04670	0.58480
0.04670	-0.51203
0.22521	0.89089
0.19971	-0.05289
0.17421	0.40625
0.09770	0.17668
0.04670	-0.33348
0.02119	0.20219
0.17421	0.35523
0.22521	-0.35899
0.14870	-0.63957
0.07220	0.58480
0.12320	1.19699
0.17421	-0.15492
0.09770	0.35523
0.32721	-0.41000
0.32721	0.25320
-0.02981	0.53379
-0.05531	-0.07840
0.04670	0.17668
0.12320	-0.43551
0.14870	0.02363
0.22521	0.89089
0.14870	0.76336
0.12320	-1.20074
0.22521	0.66132
0.09770	0.17668
0.17421	0.86539
0.14870	-0.15492
0.07220	-0.28246
0.25071	0.15117
0.14870	-0.07840
0.12320	-0.38449
0.07220	0.83988
0.12320	-0.10391
0.19971	-0.97117
0.14870	1.68163
0.12320	0.32972
0.19971	0.35523
0.12320	0.04914
0.19971	-0.58856
0.14870	0.22769
0.02119	0.10015
0.07220	0.35523
0.07220	-0.02739
0.19971	0.27871
0.25071	0.43176
0.14870	0.04914
0.09770	-0.43551
0.14870	0.20219
0.09770	0.10015
0.09770	0.94191
0.04670	-1.09871
0.14870	0.81437
0.19971	-0.35899
0.22521	0.63582
0.04670	0.55929
0.14870	0.81437
0.27621	-0.28246
0.22521	-1.30277
-0.00431	-0.12942
0.25071	0.55929
0.17421	0.55929
0.04670	1.19699
0.07220	-0.43551
0.04670	-0.28246
0.22521	1.12046
0.22521	0.50828
0.12320	-0.48652
0.12320	0.35523
0.22521	-0.12942
0.12320	-0.07840
0.02119	0.61031
0.09770	-0.07840
0.17421	-0.41000
0.14870	0.40625
0.17421	-0.41000
0.25071	0.91640
0.14870	0.50828
0.09770	-0.41000
0.35272	0.68683
0.12320	-0.05289
-0.00431	0.63582
0.02119	-0.02739
0.09770	0.20219
0.07220	0.58480
0.14870	0.38074
0.25071	-0.35899
0.12320	0.58480
0.19971	-0.23145
0.17421	-0.33348
0.09770	0.20219
0.12320	0.96742
0.22521	-0.56305
0.25071	0.02363
0.25071	-0.69059
0.30171	-0.05289
0.22521	0.73785
0.09770	0.63582
0.12320	1.14597
0.17421	0.15117
0.12320	0.32972
0.02119	-0.07840
0.12320	0.04914
0.22521	-1.32828
0.07220	0.55929
-0.00431	0.45726
0.19971	0.58480
0.22521	0.22769
0.30171	-0.61406
0.25071	0.86539
0.17421	1.17148
-0.15732	-0.18043
0.42922	-0.56305
0.35272	0.76336
0.07220	-0.46102
0.04670	0.58480
0.09770	0.45726
0.12320	-0.61406
-0.02981	0.04914
0.09770	0.53379
0.12320	0.81437
0.27621	-0.05289
0.19971	0.30422
0.09770	0.04914
0.09770	0.04914
0.12320	0.10015
0.25071	-0.51203
0.22521	0.63582
0.12320	0.25320
0.19971	0.38074
0.07220	-0.12942
0.09770	-1.45582
0.09770	1.45206
0.07220	-0.07840
0.02119	0.78886
0.17421	0.55929
0.30171	-0.18043
0.25071	0.81437
0.12320	0.15117
0.12320	-0.89465
-0.00431	0.35523
0.07220	0.27871
0.25071	0.50828
0.25071	-0.38449
0.07220	0.22769
0.12320	0.10015
0.14870	-0.18043
0.07220	-0.30797
0.12320	0.22769
0.19971	0.45726
0.27621	0.55929
0.12320	0.20219
0.12320	0.43176
0.17421	0.15117
0.12320	0.07465
0.14870	0.32972
0.04670	-0.46102
0.07220	0.07465
0.12320	-0.18043
0.19971	-1.17523
0.22521	1.19699
0.25071	0.89089
0.19971	0.45726
0.14870	0.32972
0.14870	-0.81812
0.22521	0.48277
0.04670	0.86539
0.12320	0.04914
0.27621	-0.18043
0.09770	0.66132
0.09770	-0.07840
0.12320	-0.41000
0.09770	-0.30797
0.07220	-0.56305
0.12320	0.22769
0.22521	0.55929
0.17421	0.83988
0.17421	-0.76711
0.09770	0.76336
0.22521	0.12566
0.12320	0.66132
0.02119	-1.99148
0.14870	0.73785
0.19971	1.17148
0.17421	0.17668
0.09770	0.22769
0.17421	0.17668
0.25071	-0.05289
0.19971	0.63582
0.12320	-0.41000
-0.00431	0.30422
0.12320	-0.71609
0.40372	0.76336
0.07220	0.81437
0.02119	0.66132
0.14870	0.53379
0.32721	0.25320
0.12320	-1.53234
0.02119	-0.92016
0.04670	0.30422
-0.00431	1.14597
0.50573	0.20219
0.37822	0.20219
0.12320	1.01843
0.02119	-1.60887
0.12320	0.76336
0.09770	0.68683
0.09770	0.76336
0.27621	-0.35899
0.14870	0.32972
0.07220	0.12566
0.14870	0.15117
0.14870	0.02363
0.07220	0.17668
0.22521	-0.71609
0.17421	-0.10391
0.04670	0.22769
0.07220	-0.38449
0.27621	1.35003
0.14870	0.35523
0.12320	0.50828
0.25071	0.30422
0.09770	-0.89465
0.17421	0.43176
0.25071	-0.23145
0.02119	0.91640
0.14870	1.06945
0.22521	-0.71609
0.12320	-1.02219
0.17421	0.94191
0.17421	0.53379
0.14870	-0.12942
0.09770	-0.92016
0.17421	1.01843
0.25071	-0.30797
0.17421	-0.51203
0.19971	0.96742
0.09770	0.68683
0.04670	-0.18043
0.12320	0.50828
0.22521	-0.12942
0.19971	-0.20594
0.09770	0.71234
0.22521	-0.15492
0.12320	0.81437
0.12320	-0.92016
0.22521	-0.94566
0.17421	0.81437
0.14870	1.19699
0.12320	-0.35899
0.22521	0.04914
0.12320	-0.15492
0.12320	0.50828
0.14870	-0.23145
0.25071	0.81437
0.14870	-0.18043
0.09770	0.38074
0.09770	0.10015
0.07220	0.17668
0.17421	-0.61406
0.12320	0.68683
0.09770	-0.15492
0.09770	0.15117
0.12320	-0.00188
0.27621	1.06945
0.22521	0.22769
0.17421	0.32972
0.07220	-0.18043
0.09770	0.35523
0.22521	0.17668
0.09770	0.22769
0.07220	-0.51203
0.14870	0.35523
0.14870	-0.25695
0.17421	-0.43551
0.19971	0.50828
0.09770	0.63582
0.14870	-0.30797
0.22521	-0.41000
0.04670	-0.56305
0.07220	1.27351
0.12320	0.15117
0.12320	-0.41000
0.12320	1.06945
0.12320	1.09496
0.12320	-1.35379
0.27621	0.81437
0.14870	-0.30797
0.09770	0.63582
0.17421	0.02363
0.19971	0.40625
0.09770	0.20219
0.07220	0.32972
0.09770	-0.28246
0.22521	0.22769
0.17421	-0.61406
0.09770	0.40625
0.04670	0.25320
0.17421	0.27871
0.27621	0.55929
0.22521	-0.63957
0.09770	0.10015
-0.00431	-0.00188
0.02119	1.50308
0.14870	-0.18043
0.35272	1.01843
0.22521	0.07465
0.14870	-0.02739
0.04670	-0.41000
0.14870	0.17668
0.19971	0.53379
0.14870	-0.25695
0.04670	0.50828
0.12320	0.40625
0.14870	0.71234
0.27621	-0.28246
0.09770	-0.61406
-0.00431	0.45726
0.14870	-0.33348
0.09770	-0.07840
0.22521	0.07465
0.07220	-0.46102
0.17421	0.76336
0.09770	0.45726
0.07220	0.86539
0.30171	0.63582
0.25071	-0.25695
0.12320	0.91640
0.22521	0.10015
0.19971	-0.81812
0.09770	0.10015
0.14870	0.30422
0.17421	1.09496
0.09770	-0.92016
0.09770	-0.92016
0.19971	1.14597
0.19971	0.35523
0.07220	0.61031
0.07220	0.94191
0.17421	-0.61406
0.22521	0.25320
0.12320	0.22769
0.02119	-1.07320
-0.00431	0.89089
0.17421	-0.12942
0.22521	-0.18043
0.12320	0.71234
0.14870	0.35523
0.22521	-0.07840
0.17421	-1.32828
0.14870	0.61031
0.17421	0.22769
0.07220	0.55929
0.12320	-0.02739
0.17421	0.86539
0.07220	0.45726
0.17421	0.38074
0.02119	0.07465
-0.02981	-0.53754
0.27621	0.20219
0.22521	-0.48652
0.14870	-0.46102
0.27621	0.68683
0.02119	0.50828
0.19971	0.20219
0.22521	0.38074
0.09770	0.40625
0.14870	-0.63957
0.12320	-0.12942
0.12320	0.35523
0.12320	-0.15492
0.04670	0.20219
0.22521	0.50828
0.22521	0.63582
0.27621	-0.02739
0.19971	0.35523
0.19971	-0.69059
0.12320	-0.66508
-0.05531	1.50308
0.09770	-0.56305
0.07220	0.91640
0.04670	-0.51203
-0.00431	-0.25695
0.35272	0.89089
0.32721	0.12566
0.12320	0.32972
0.19971	-0.69059
0.12320	1.09496
0.07220	0.32972
0.14870	0.83988
0.19971	0.15117
0.02119	-0.56305
0.14870	-1.20074
0.30171	0.63582
0.14870	-0.00188
0.07220	0.07465
0.19971	0.53379
0.22521	0.30422
0.12320	0.53379
-0.00431	0.20219
0.12320	-0.20594
0.17421	-0.79262
0.22521	0.61031
0.12320	-0.18043
0.32721	0.48277
0.17421	0.22769
0.14870	-0.18043
0.17421	0.02363
0.12320	1.06945
0.02119	0.40625
0.02119	0.48277
0.12320	-0.66508
0.35272	0.38074
0.25071	-0.33348
0.12320	0.94191
-0.00431	0.15117
0.09770	-0.05289
0.22521	-0.25695
0.12320	0.50828
0.09770	0.43176
0.14870	-0.61406
0.30171	-0.33348
0.19971	0.30422
0.02119	0.38074
0.12320	0.22769
0.14870	-0.23145
0.22521	0.32972
0.12320	0.25320
0.12320	0.89089
0.12320	0.48277
0.22521	-0.41000
0.02119	0.22769
0.02119	-0.76711
0.09770	0.48277
0.22521	0.04914
0.17421	-1.40480
0.17421	1.45206
0.17421	0.66132
0.17421	1.32453
0.22521	-0.25695
0.19971	-0.48652
0.14870	0.35523
0.07220	0.55929
0.12320	-0.05289
0.12320	-0.15492
0.17421	0.15117
0.12320	-0.28246
0.09770	0.99292
0.07220	-0.18043
0.14870	0.25320
0.14870	-0.00188
0.14870	-0.86914
0.22521	0.58480
0.17421	0.76336
0.12320	-0.69059
0.22521	0.83988
0.25071	0.43176
0.22521	-0.66508
-0.05531	0.48277
0.04670	-0.02739
0.30171	0.15117
0.19971	0.89089
0.04670	-0.30797
0.07220	-0.18043
0.17421	0.10015
0.27621	0.25320
0.17421	-0.10391
0.04670	0.35523
0.12320	0.32972
0.17421	0.12566
0.12320	-0.38449
0.14870	0.45726
0.07220	0.20219
0.09770	0.25320
0.22521	0.43176
0.17421	-0.51203
0.17421	0.30422
0.19971	-0.02739
0.04670	0.55929
0.12320	0.07465
0.14870	-0.15492
0.19971	0.81437
0.12320	-0.51203
0.02119	0.76336
0.12320	0.45726
0.22521	-0.66508
0.07220	0.32972
0.25071	0.81437
0.35272	-0.23145
0.19971	-0.35899
0.12320	0.78886
-0.00431	0.15117
-0.00431	-0.79262
0.02119	0.12566
0.12320	1.09496
0.25071	-0.38449
0.17421	0.50828
0.02119	-0.38449
0.14870	0.22769
0.25071	0.86539
0.27621	-0.20594
0.12320	-0.20594
0.12320	-0.28246
0.14870	-0.05289
0.09770	0.73785
0.04670	0.48277
0.07220	-0.02739
0.17421	-0.07840
0.12320	-0.38449
0.22521	0.61031
0.35272	0.10015
0.22521	1.04394
0.07220	0.68683
0.12320	0.10015
0.14870	-1.43031
0.17421	-0.10391
0.12320	0.48277
0.19971	0.45726
0.17421	-0.20594
0.04670	-0.20594
0.12320	-0.41000
0.19971	0.22769
0.12320	1.42656
0.12320	0.50828
0.19971	-0.53754
0.22521	0.68683
0.14870	0.30422
0.09770	0.32972
0.07220	0.04914
0.17421	0.02363
0.09770	0.30422
0.12320	0.40625
0.30171	-0.89465
0.04670	0.30422
0.12320	0.73785
0.22521	-0.28246
0.07220	0.17668
0.07220	0.55929
0.32721	0.32972
0.19971	0.48277
0.07220	-0.18043
0.14870	0.40625
0.14870	-0.15492
0.19971	-0.20594
0.17421	0.43176
0.12320	-0.56305
0.22521	0.32972
0.09770	-0.94566
0.09770	0.99292
0.04670	0.73785
0.14870	0.53379
0.14870	0.55929
0.14870	0.12566
0.14870	0.99292
0.22521	0.02363
0.19971	-0.18043
0.12320	0.53379
0.22521	-0.00188
0.14870	-1.02219
0.02119	0.20219
0.04670	0.15117
0.22521	0.35523
0.12320	-0.76711
0.14870	0.35523
0.14870	1.06945
0.30171	0.55929
0.19971	0.83988
0.09770	-1.50683
0.12320	-0.86914
0.17421	0.91640
0.07220	1.73265
0.17421	0.10015
0.12320	0.04914
0.02119	-0.28246
0.17421	0.22769
0.09770	-0.07840
0.07220	0.17668
0.14870	-0.05289
0.17421	0.32972
0.12320	0.12566
0.22521	-0.76711
0.19971	-0.15492
0.02119	0.94191
0.12320	0.76336
0.19971	-0.51203
0.14870	-0.10391
0.12320	0.30422
0.27621	0.20219
0.22521	0.50828
0.04670	0.12566
0.12320	0.15117
0.19971	0.45726
0.12320	0.43176
0.04670	-0.18043
0.12320	0.32972
0.19971	-0.63957
0.22521	0.58480
0.14870	-0.15492
0.09770	0.15117
0.22521	0.25320
0.22521	0.43176
0.12320	0.12566
0.12320	0.12566
0.17421	0.07465
0.14870	0.58480
0.12320	-0.74160
0.02119	-0.56305
0.14870	1.01843
0.09770	0.55929
0.09770	-0.30797
0.19971	0.25320
0.14870	0.91640
0.25071	-0.63957
0.27621	1.01843
0.14870	0.35523
0.07220	-0.66508
0.12320	0.55929
0.07220	0.20219
0.14870	-0.41000
0.22521	0.20219
0.25071	-0.12942
0.14870	0.38074
0.04670	1.32453
0.22521	-0.66508
0.12320	-0.00188
-0.08081	0.53379
0.22521	0.38074
0.14870	0.17668
0.04670	1.01843
0.17421	-0.71609
0.14870	0.15117
0.14870	-0.15492
0.17421	-0.76711
0.25071	1.40105
0.09770	-0.15492
0.14870	-0.10391
0.17421	0.27871
0.12320	-0.10391
0.12320	0.78886
0.02119	1.22250
0.14870	-0.20594
0.22521	-0.61406
0.22521	0.07465
0.17421	0.55929
0.09770	0.25320
0.12320	-0.05289
0.25071	-0.63957
0.09770	0.20219
-0.00431	0.25320
0.14870	0.50828
0.12320	-0.00188
0.12320	-0.12942
0.19971	-0.12942
0.27621	0.71234
0.09770	0.35523
0.17421	0.94191
0.12320	0.22769
0.04670	-0.18043
0.07220	-0.33348
0.22521	0.12566
0.07220	-0.12942
0.12320	0.02363
0.22521	-0.63957
0.17421	-0.20594
0.07220	0.78886
0.09770	0.86539
0.12320	0.12566
0.32721	0.58480
0.30171	0.43176
0.07220	-0.23145
0.07220	0.53379
0.19971	0.35523
0.17421	0.02363
0.12320	-0.25695
0.12320	0.12566
0.19971	-0.51203
0.17421	0.02363
0.02119	0.38074
0.14870	-0.15492
0.22521	-0.74160
0.22521	0.63582
0.12320	0.86539
0.09770	-0.18043
0.22521	0.25320
0.14870	-0.07840
0.12320	0.20219
0.07220	0.35523
0.17421	0.89089
0.12320	0.96742
0.09770	-0.20594
0.17421	-0.53754
0.27621	0.04914
0.09770	0.12566
0.12320	0.22769
0.17421	0.30422
0.17421	-0.00188
0.09770	-0.23145
0.12320	0.73785
0.17421	-0.66508
0.07220	0.40625
0.14870	0.25320
0.22521	0.81437
0.07220	-0.25695
0.14870	-0.38449
0.19971	-0.76711
0.12320	0.02363
0.09770	0.43176
0.19971	0.50828
0.12320	-0.00188
0.14870	0.48277
0.19971	0.35523
0.07220	0.17668
0.12320	0.35523
0.09770	0.04914
0.04670	0.27871
0.14870	0.40625
0.19971	0.12566
0.19971	-0.18043
0.19971	0.40625
0.14870	-1.60887
0.07220	0.25320
0.12320	0.55929
0.07220	0.89089
0.12320	0.61031
0.35272	0.66132
0.19971	-0.05289
0.07220	-0.20594
0.09770	-0.35899
-0.05531	-0.28246
0.09770	0.55929
0.07220	1.47757
0.12320	-0.46102
0.27621	-0.28246
0.19971	-0.15492
0.14870	0.12566
0.19971	0.61031
0.09770	-0.15492
0.12320	0.22769
0.14870	0.43176
0.04670	-0.38449
0.19971	0.73785
0.25071	0.15117
0.14870	0.22769
0.19971	-0.51203
0.04670	0.35523
0.19971	0.35523
0.09770	0.02363
0.12320	0.32972
0.04670	0.53379
0.09770	-0.38449
0.27621	-0.25695
0.17421	0.17668
0.17421	0.43176
0.19971	0.20219
0.12320	-0.69059
0.12320	0.53379
0.22521	0.91640
0.07220	0.27871
0.14870	0.04914
0.17421	0.02363
0.12320	0.35523
0.17421	-0.30797
0.04670	0.40625
0.19971	-0.41000
0.07220	0.76336
0.14870	-0.18043
0.14870	-0.69059
0.30171	0.35523
0.12320	0.10015
0.14870	0.32972
0.14870	0.20219
0.14870	-0.23145
0.04670	0.25320
0.07220	0.38074
0.14870	0.86539
0.22521	-0.05289
0.17421	0.40625
0.04670	-0.02739
0.19971	1.06945
0.04670	0.25320
0.09770	-0.63957
0.22521	-0.20594
0.09770	-0.12942
0.14870	0.50828
0.19971	-0.53754
0.14870	0.20219
0.22521	0.78886
0.12320	0.63582
0.17421	0.04914
0.17421	0.07465
0.14870	0.17668
0.09770	-0.66508
0.04670	0.17668
0.22521	0.02363
