0.17421	0.25320
0.14870	0.12566
0.12320	0.30422
0.14870	0.17668
0.17421	0.12566
0.17421	0.22769
0.17421	0.02363
0.07220	0.10015
0.19971	0.12566
0.07220	0.15117
0.17421	0.07465
0.12320	0.15117
0.12320	0.25320
0.22521	0.20219
0.12320	0.15117
0.12320	0.12566
0.12320	0.15117
0.12320	0.12566
0.17421	0.04914
0.12320	0.17668
0.17421	0.02363
0.12320	0.22769
0.14870	0.15117
0.12320	0.15117
0.17421	0.10015
0.12320	0.15117
0.14870	0.15117
0.14870	0.17668
0.14870	0.15117
0.14870	0.20219
0.14870	0.10015
0.07220	0.17668
0.17421	0.12566
0.04670	0.22769
0.22521	0.07465
0.12320	0.22769
0.17421	0.12566
0.07220	0.12566
0.22521	0.20219
0.09770	0.15117
0.12320	0.12566
0.09770	0.15117
0.19971	0.22769
0.09770	0.10015
0.22521	0.22769
0.12320	0.12566
0.17421	0.10015
0.09770	0.10015
0.14870	0.10015
0.12320	0.25320
0.17421	0.25320
0.19971	0.17668
0.04670	0.17668
0.19971	0.17668
0.12320	0.20219
0.22521	0.04914
0.14870	0.15117
0.14870	-0.00188
0.14870	0.15117
0.12320	0.15117
0.19971	0.12566
0.09770	0.22769
0.22521	0.15117
0.09770	0.25320
0.17421	0.20219
0.17421	0.10015
0.17421	0.20219
0.14870	-0.00188
0.04670	0.04914
0.22521	0.04914
0.07220	0.12566
0.12320	0.22769
0.14870	0.15117
0.12320	0.30422
0.19971	0.15117
0.17421	0.12566
0.14870	0.12566
0.22521	0.07465
0.07220	0.20219
0.14870	0.15117
0.12320	0.20219
0.07220	0.17668
0.22521	0.30422
0.09770	0.12566
0.17421	0.15117
0.12320	0.02363
0.14870	0.17668
0.14870	0.02363
0.14870	0.20219
0.12320	0.10015
0.07220	0.25320
0.19971	0.12566
0.09770	0.30422
0.19971	0.12566
0.14870	0.10015
0.12320	0.07465
0.12320	0.10015
0.12320	0.10015
0.12320	0.10015
0.12320	0.17668
0.07220	0.17668
0.25071	0.20219
0.09770	0.22769
0.22521	0.20219
0.17421	0.15117
0.14870	0.17668
0.12320	0.04914
0.14870	0.15117
0.12320	0.07465
0.12320	0.22769
0.17421	0.15117
0.12320	0.15117
0.14870	0.17668
0.17421	0.15117
0.14870	0.15117
0.14870	0.12566
0.17421	0.12566
0.17421	0.07465
0.19971	0.10015
0.09770	0.15117
0.19971	0.15117
0.09770	0.20219
0.17421	0.12566
0.12320	0.27871
0.12320	0.07465
0.14870	0.15117
0.12320	0.04914
0.09770	0.15117
0.12320	0.10015
0.17421	0.17668
0.14870	0.15117
0.14870	0.17668
0.22521	0.27871
0.12320	0.12566
0.25071	0.25320
0.09770	0.07465
0.12320	0.17668
0.09770	0.02363
0.22521	0.17668
0.17421	0.17668
0.14870	0.15117
0.14870	0.12566
0.12320	0.15117
0.19971	0.15117
0.07220	0.12566
0.19971	0.20219
0.14870	0.07465
0.12320	0.17668
0.09770	0.12566
0.22521	0.22769
0.14870	0.10015
0.22521	0.15117
0.09770	0.20219
0.19971	0.15117
0.09770	0.15117
0.19971	0.12566
0.09770	0.12566
0.14870	0.07465
0.17421	0.15117
0.12320	0.12566
0.17421	0.17668
0.14870	0.17668
0.14870	0.20219
0.07220	0.12566
0.22521	0.17668
0.07220	0.04914
0.19971	0.17668
0.09770	0.12566
0.14870	0.15117
0.17421	0.10015
0.22521	0.22769
0.12320	0.12566
0.12320	0.27871
0.14870	0.12566
0.14870	0.22769
0.14870	0.04914
0.12320	0.17668
0.14870	0.02363
0.14870	0.15117
0.19971	0.15117
0.09770	0.17668
0.22521	0.10015
0.07220	0.20219
0.09770	0.15117
0.17421	0.15117
0.22521	0.12566
0.07220	0.15117
0.19971	0.10015
0.09770	0.02363
0.22521	0.17668
0.09770	0.07465
0.22521	0.15117
0.04670	0.20219
0.14870	0.20219
0.14870	0.25320
0.17421	0.07465
0.17421	0.20219
0.17421	0.04914
0.14870	0.20219
0.12320	0.15117
0.19971	0.12566
0.04670	0.10015
0.19971	0.22769
0.14870	0.07465
0.14870	0.17668
0.12320	0.10015
0.14870	0.17668
0.22521	0.04914
0.09770	0.15117
0.25071	0.15117
0.14870	0.17668
0.14870	0.15117
0.12320	0.07465
0.12320	0.17668
0.12320	0.17668
0.17421	0.15117
0.09770	0.10015
0.12320	0.02363
0.14870	0.17668
0.14870	0.07465
0.14870	0.20219
0.14870	0.15117
0.14870	0.15117
0.17421	0.22769
0.17421	0.12566
0.14870	0.12566
0.14870	0.12566
0.12320	0.10015
0.12320	0.20219
0.14870	0.12566
0.07220	0.20219
0.22521	0.15117
0.07220	0.10015
0.14870	0.22769
0.12320	0.10015
0.09770	0.15117
0.22521	0.12566
0.14870	0.07465
0.14870	0.10015
0.12320	0.15117
0.09770	0.22769
0.19971	0.22769
0.07220	0.22769
0.19971	0.15117
0.14870	0.25320
0.14870	0.07465
0.17421	0.15117
0.09770	0.02363
0.14870	0.15117
0.07220	0.10015
0.19971	0.12566
0.04670	0.15117
0.25071	0.20219
0.14870	0.20219
0.14870	0.15117
0.14870	0.12566
0.12320	0.20219
0.14870	0.04914
0.14870	0.20219
0.14870	0.10015
0.07220	0.22769
0.14870	0.15117
0.07220	0.15117
0.19971	0.07465
0.09770	0.10015
0.17421	0.10015
0.09770	0.10015
0.19971	0.15117
0.07220	0.04914
0.14870	0.20219
0.04670	0.15117
0.14870	0.15117
0.14870	0.32972
0.14870	0.20219
0.09770	0.22769
0.22521	0.04914
0.07220	0.15117
0.19971	0.04914
0.09770	0.10015
0.22521	0.10015
0.14870	0.17668
0.12320	0.22769
0.19971	0.15117
0.09770	0.17668
0.14870	0.15117
0.17421	0.04914
0.14870	0.17668
0.22521	0.10015
0.09770	0.15117
0.19971	0.10015
0.14870	0.07465
0.14870	0.30422
0.12320	0.12566
0.07220	0.17668
0.19971	0.15117
0.09770	0.15117
0.19971	0.10015
0.07220	0.04914
0.17421	0.10015
0.17421	0.15117
0.09770	0.20219
0.17421	0.10015
0.14870	0.20219
0.17421	0.20219
0.14870	0.04914
0.07220	0.20219
0.22521	0.04914
0.07220	0.07465
0.19971	0.15117
0.07220	0.17668
0.17421	0.17668
0.14870	0.17668
0.12320	0.25320
0.22521	0.12566
0.07220	0.15117
0.19971	0.15117
0.09770	0.10015
0.14870	0.17668
0.14870	0.02363
0.09770	0.10015
0.19971	0.12566
0.17421	0.20219
0.17421	0.27871
0.12320	0.15117
0.09770	0.22769
0.22521	0.07465
0.09770	0.17668
0.14870	0.04914
0.12320	0.20219
0.14870	0.17668
0.17421	0.17668
0.09770	0.15117
0.22521	0.20219
0.09770	0.15117
0.12320	0.15117
0.14870	0.10015
0.12320	0.15117
0.14870	0.02363
0.17421	0.10015
0.12320	0.15117
0.14870	0.15117
0.12320	0.20219
0.12320	0.27871
0.07220	0.12566
0.25071	0.22769
0.09770	0.15117
0.25071	0.12566
0.09770	0.15117
0.17421	0.10015
0.14870	0.20219
0.09770	0.07465
0.22521	0.22769
0.09770	0.15117
0.22521	0.10015
0.09770	0.12566
0.14870	0.04914
0.17421	0.15117
0.14870	0.02363
0.14870	0.15117
0.07220	0.17668
0.19971	0.20219
0.12320	0.22769
0.22521	0.17668
0.14870	0.15117
0.17421	0.10015
0.22521	0.15117
0.14870	0.02363
0.19971	0.12566
0.07220	0.07465
0.22521	0.22769
0.07220	0.15117
0.12320	0.30422
0.12320	0.25320
0.09770	0.17668
0.19971	0.10015
0.09770	0.02363
0.19971	0.15117
0.14870	0.12566
0.19971	0.04914
0.12320	0.22769
0.12320	0.20219
0.12320	0.20219
0.17421	0.32972
0.14870	0.12566
0.17421	0.22769
0.12320	0.12566
0.09770	0.02363
0.17421	0.15117
0.14870	0.12566
0.12320	0.15117
0.22521	0.12566
0.09770	0.25320
0.14870	0.12566
0.17421	0.22769
0.07220	0.12566
0.19971	0.12566
0.14870	0.15117
0.14870	0.10015
0.17421	0.25320
0.12320	0.07465
0.22521	0.20219
0.07220	0.22769
0.19971	0.22769
0.17421	0.20219
0.14870	0.15117
0.14870	0.07465
0.12320	0.07465
0.12320	0.07465
0.14870	0.17668
0.19971	0.07465
0.09770	0.20219
0.17421	0.12566
0.09770	0.25320
0.22521	0.15117
0.07220	0.15117
0.19971	0.15117
0.09770	0.04914
0.25071	0.15117
0.12320	0.02363
0.12320	0.12566
0.07220	0.15117
0.22521	0.17668
0.17421	0.20219
0.14870	0.17668
0.12320	0.20219
0.17421	0.07465
0.14870	0.15117
0.17421	0.02363
0.19971	0.10015
0.07220	0.12566
0.14870	0.17668
0.12320	0.20219
0.14870	0.20219
0.12320	0.22769
0.14870	0.10015
0.14870	0.20219
0.14870	0.04914
0.14870	0.12566
0.14870	0.02363
0.19971	0.25320
0.12320	0.12566
0.12320	0.25320
0.12320	0.12566
0.14870	0.25320
0.14870	0.07465
0.09770	0.22769
0.22521	0.12566
0.04670	0.04914
0.14870	0.10015
0.04670	0.12566
0.19971	0.12566
0.09770	0.07465
0.22521	0.30422
0.09770	0.12566
0.22521	0.25320
0.09770	0.10015
0.17421	0.22769
0.14870	0.07465
0.12320	0.15117
0.12320	0.12566
0.14870	0.12566
0.14870	0.15117
0.17421	0.12566
0.07220	0.22769
0.12320	0.10015
0.14870	0.17668
0.17421	0.02363
0.19971	0.20219
0.09770	0.04914
0.22521	0.17668
0.07220	0.17668
0.22521	0.22769
0.07220	0.22769
0.19971	0.15117
0.09770	0.12566
0.12320	0.02363
0.14870	0.20219
0.12320	0.02363
0.12320	0.17668
0.17421	0.17668
0.22521	0.20219
0.14870	0.15117
0.14870	0.20219
0.12320	0.12566
0.09770	0.12566
0.22521	0.15117
0.07220	0.10015
0.22521	0.00000
0.07220	0.00000
0.14870	0.00000
0.12320	0.00000
0.14870	0.00000
0.12320	0.00000
0.09770	0.00000
0.19971	0.00000
0.09770	0.00000
0.19971	0.00000
0.07220	0.00000
0.22521	0.00000
0.04670	0.00000
0.19971	0.10015
0.12320	0.12566
0.12320	0.15117
0.07220	0.20219
0.22521	0.15117
0.09770	0.22769
0.22521	0.17668
0.07220	0.04914
0.22521	0.17668
0.07220	-0.02739
0.19971	0.12566
0.09770	0.12566
0.17421	0.25320
0.14870	0.10015
0.14870	0.22769
0.22521	0.20219
0.07220	0.17668
0.22521	0.22769
0.07220	-0.00188
0.22521	0.15117
0.12320	-0.02739
0.14870	0.04914
0.14870	0.15117
0.14870	0.20219
0.17421	0.20219
0.09770	0.22769
0.17421	0.25320
0.14870	0.17668
0.09770	0.12566
0.22521	0.17668
0.09770	0.02363
0.14870	0.10015
0.14870	0.15117
0.12320	0.12566
0.14870	0.15117
0.09770	0.12566
0.19971	0.25320
0.17421	0.15117
0.14870	0.15117
0.19971	0.15117
0.09770	0.15117
0.17421	0.20219
0.14870	0.15117
0.12320	0.10015
0.19971	0.25320
0.09770	0.15117
0.19971	0.15117
0.17421	0.22769
0.12320	0.10015
0.19971	0.12566
0.12320	0.07465
0.12320	0.12566
0.19971	0.17668
0.09770	0.10015
0.14870	0.25320
0.12320	0.17668
0.14870	0.15117
0.14870	0.15117
0.07220	0.07465
0.22521	0.20219
0.07220	0.07465
0.19971	0.27871
0.17421	0.10015
0.12320	0.15117
0.12320	0.15117
0.07220	0.15117
0.19971	0.17668
0.14870	0.12566
0.12320	0.17668
0.07220	0.04914
0.22521	0.17668
0.07220	0.07465
0.22521	0.20219
0.17421	0.12566
0.17421	0.20219
0.14870	0.22769
0.12320	0.12566
0.12320	0.17668
0.14870	0.17668
0.14870	0.12566
0.12320	0.04914
0.14870	0.07465
0.12320	0.12566
0.12320	0.15117
0.22521	0.20219
0.17421	0.17668
0.17421	0.15117
0.14870	0.22769
0.14870	0.04914
0.14870	0.17668
0.12320	0.02363
0.22521	0.20219
0.12320	0.15117
0.19971	0.12566
0.09770	0.04914
0.19971	0.20219
0.12320	0.15117
0.14870	0.22769
0.14870	0.12566
0.12320	0.20219
0.14870	-0.02739
0.19971	0.17668
0.14870	0.07465
0.22521	0.25320
0.09770	0.10015
0.22521	0.25320
0.09770	0.12566
0.19971	0.12566
0.09770	0.12566
0.19971	0.15117
0.07220	0.04914
0.19971	0.22769
0.14870	0.10015
0.14870	0.20219
0.14870	0.12566
0.14870	0.25320
0.07220	0.15117
0.19971	0.15117
0.09770	0.07465
0.14870	0.15117
0.17421	0.02363
0.07220	0.12566
0.19971	0.22769
0.14870	0.10015
0.12320	0.27871
0.14870	0.22769
0.09770	0.17668
0.19971	0.17668
0.14870	0.04914
0.14870	0.15117
0.14870	-0.00188
0.07220	0.15117
0.19971	0.15117
0.14870	0.12566
0.14870	0.20219
0.19971	0.22769
0.12320	0.10015
0.19971	0.17668
0.17421	0.12566
0.09770	0.12566
0.22521	0.10015
0.07220	0.07465
0.12320	0.20219
0.12320	0.07465
0.14870	0.20219
0.17421	0.17668
0.12320	0.58480
0.14870	-0.07840
0.12320	0.04914
0.22521	-0.20594
0.09770	-0.38449
0.19971	-0.15492
0.04670	1.78367
0.25071	0.40625
0.09770	0.30422
0.09770	1.22250
0.07220	-2.04250
0.17421	-1.25176
0.32721	-1.07320
-0.08081	1.24800
0.02119	1.80917
-0.18282	0.68683
0.42922	2.67644
0.88825	-2.09351
-0.05531	-6.65940
-0.64185	2.62542
-0.20832	2.14077
1.24527	2.70194
0.50573	-0.86914
-0.08081	-3.34339
-0.13181	1.86019
0.35272	1.19699
0.60773	2.70194
1.11776	-3.29238
-1.27939	1.68163
-1.61091	3.31413
0.76074	-14.28622
0.96476	3.26312
0.60773	2.26831
2.06133	4.79358
-1.43240	5.89041
-3.70204	-3.72601
0.37822	-1.58336
3.79544	-0.05289
0.83725	-3.90456
-2.19745	0.20219
-0.38683	1.17148
1.90832	2.57441
1.11776	1.78367
1.29628	1.09496
1.50029	-0.53754
-1.53441	-0.74160
-6.30321	-3.19035
-1.73842	1.68163
2.80087	1.09496
4.25447	2.03874
3.18340	-7.06752
-0.28482	1.78367
0.09770	-0.48652
-3.93156	1.37554
-0.94787	3.00804
1.14327	1.70714
2.95388	1.75816
-1.22839	-4.61878
-1.96793	1.37554
3.10689	5.60983
-2.83499	-5.66460
0.19971	1.47757
-0.23382	-0.05289
1.11776	-2.65468
1.75531	3.64573
-0.02981	1.45206
1.21977	2.49788
2.03582	-0.30797
1.80631	0.04914
-1.10088	-0.53754
-1.99343	-0.79262
0.53123	2.24281
-5.61467	-3.21585
-3.34502	-4.44022
1.95932	1.45206
3.05589	-3.19035
2.41835	0.61031
-1.20288	1.75816
-0.76936	2.62542
1.06676	1.12046
1.52579	1.47757
-0.71835	1.24800
-0.18282	-3.87905
0.93925	4.64053
0.14870	0.83988
0.27621	-6.04721
0.53123	0.66132
0.14870	1.98773
-0.13181	1.24800
0.14870	1.19699
0.35272	0.76336
-2.40146	1.83468
-3.26852	0.25320
0.37822	-2.14453
2.36734	-1.81293
2.03582	-0.92016
0.83725	0.73785
0.50573	0.45726
0.73524	0.81437
0.25071	0.17668
-0.05531	0.15117
-0.41233	0.04914
0.22521	0.71234
0.27621	1.75816
0.09770	1.12046
-0.18282	0.15117
-0.08081	0.25320
0.48022	-0.00188
0.37822	1.17148
0.09770	-0.07840
-0.89686	0.30422
0.45472	-3.03730
-3.47253	1.19699
-1.38139	0.04914
0.96476	0.63582
2.31634	-1.20074
1.90832	1.47757
1.78081	1.22250
0.42922	0.25320
-0.31033	2.34484
0.42922	2.82948
-0.08081	1.32453
-0.46334	-0.46102
-0.25932	0.02363
0.12320	-0.02739
0.73524	-0.48652
0.93925	-0.05289
0.99026	-2.01699
-5.10463	0.55929
-2.17195	-0.18043
1.44929	-0.10391
1.85731	0.35523
0.40372	0.17668
0.37822	-0.05289
1.37278	0.20219
0.86275	0.15117
0.37822	0.30422
-0.10631	1.68163
0.07220	2.08976
-0.02981	-0.25695
-0.08081	-1.86394
-0.10631	0.53379
-0.15732	-0.02739
-0.10631	-0.18043
0.09770	-0.86914
0.30171	0.86539
0.22521	0.94191
0.48022	2.80397
0.68424	-0.02739
1.27078	0.43176
-2.22295	-2.29757
-1.84042	1.14597
2.59686	-4.64429
2.34184	2.49788
0.60773	0.50828
-3.70204	-0.30797
-1.91693	0.43176
3.03039	0.07465
1.70430	1.63062
-0.89686	0.91640
1.14327	-1.04770
-1.17738	-2.70570
0.25071	2.29382
1.24527	0.78886
1.14327	0.17668
0.86275	0.78886
0.53123	0.76336
-0.33583	-0.58856
-0.56534	0.55929
-0.82036	0.35523
-0.18282	0.99292
-0.20832	-3.16484
-0.08081	1.17148
-0.25932	0.25320
-0.38683	1.22250
0.30171	-1.32828
0.73524	-5.25647
-0.08081	-2.09351
-0.48884	4.23241
0.81175	3.28862
1.14327	0.99292
1.06676	-1.86394
-0.31033	2.19179
0.14870	1.78367
0.42922	0.58480
0.25071	-0.86914
0.55673	0.43176
1.11776	0.94191
-1.89143	-0.25695
-0.84586	-0.66508
2.80087	-0.86914
-0.69285	1.78367
-7.17027	-2.09351
-0.41233	-0.43551
3.18340	-0.69059
2.64786	0.63582
2.01032	0.04914
1.06676	1.19699
0.53123	0.66132
-0.05531	0.58480
0.02119	1.78367
-0.13181	0.22769
-1.33039	-1.35379
-1.15188	0.48277
-0.23382	0.58480
-0.15732	0.35523
0.60773	-2.19554
0.55673	1.35003
0.58223	1.22250
1.44929	1.17148
0.42922	0.12566
-0.66735	1.01843
-2.19745	-0.15492
-0.46334	-0.43551
1.44929	-0.51203
1.52579	0.83988
1.16877	-0.89465
0.68424	1.98773
0.30171	1.70714
-0.20832	-5.63909
0.12320	-1.37929
0.19971	1.06945
-1.27939	2.03874
-0.99887	1.35003
0.65874	-1.63437
0.53123	4.35995
0.35272	-2.90976
0.88825	0.12566
-0.59084	1.01843
-1.04987	0.38074
0.93925	-0.30797
0.55673	0.63582
-0.38683	0.53379
0.27621	-2.73121
0.93925	-0.61406
0.73524	0.89089
0.91375	0.81437
0.96476	0.78886
-2.63097	0.12566
-1.99343	1.06945
1.75531	0.71234
1.19427	-1.55785
0.53123	-0.97117
0.83725	0.66132
1.04126	1.17148
-2.98800	0.76336
-1.45790	0.45726
1.57679	0.53379
1.32178	-0.46102
0.83725	0.96742
0.32721	0.35523
0.22521	-0.56305
0.04670	2.21730
0.07220	-1.63437
-0.13181	-1.30277
-0.15732	0.07465
-0.48884	0.17668
-0.00431	-2.34859
0.17421	2.57441
0.04670	0.91640
0.40372	1.40105
0.30171	0.99292
0.27621	0.71234
0.37822	0.12566
0.48022	0.25320
0.50573	0.27871
0.19971	-1.25176
0.68424	-1.14973
0.91375	0.81437
-0.15732	0.76336
-3.95706	0.43176
-0.59084	-1.09871
1.78081	1.12046
1.57679	0.50828
1.50029	-3.26687
0.37822	-1.40480
-0.10631	-0.89465
0.32721	2.72745
-0.28482	2.01323
-0.02981	1.42656
0.42922	-0.00188
0.07220	-0.23145
-0.31033	0.55929
0.17421	0.27871
-1.50890	-0.53754
-0.43783	-0.38449
1.24527	-0.07840
0.70974	-2.19554
1.11776	0.20219
0.93925	-0.51203
-2.24845	0.32972
-0.76936	1.12046
1.14327	0.89089
0.88825	0.07465
0.60773	-2.50164
0.14870	1.14597
0.02119	1.45206
0.45472	0.89089
0.30171	-1.20074
-1.58541	-0.25695
-0.74385	-0.28246
0.60773	0.02363
0.76074	0.40625
0.53123	0.61031
0.32721	0.63582
0.48022	0.96742
0.53123	0.32972
0.73524	0.12566
-0.43783	0.30422
-1.33039	0.58480
-0.97337	-2.42511
0.37822	-0.86914
1.70430	0.63582
0.22521	0.55929
-0.46334	1.91120
0.81175	-2.29757
-0.25932	-0.30797
-0.36133	1.70714
1.88281	0.81437
1.29628	-0.15492
0.53123	-0.63957
-1.30489	0.25320
-0.41233	1.04394
0.32721	1.42656
0.48022	0.25320
-0.08081	-1.02219
-0.87136	0.30422
-0.25932	0.76336
0.37822	0.12566
0.27621	0.17668
-0.18282	-1.04770
0.53123	0.76336
0.73524	2.11527
0.40372	-2.65468
-0.99887	0.15117
-0.28482	-0.53754
1.19427	1.68163
0.83725	2.29382
0.53123	-3.31788
0.04670	0.04914
-0.20832	2.62542
0.27621	0.68683
0.12320	0.10015
0.27621	0.76336
0.55673	-0.12942
0.73524	-0.38449
-1.10088	-0.74160
-0.99887	0.30422
0.53123	1.27351
0.53123	0.04914
-0.00431	0.07465
-1.58541	-0.15492
0.91375	-0.20594
0.81175	-0.99668
0.93925	0.86539
0.50573	-0.35899
0.32721	0.53379
0.35272	0.73785
1.32178	0.73785
-0.13181	-0.43551
-1.71292	1.32453
-1.27939	-0.51203
-0.23382	1.22250
0.40372	-0.25695
0.81175	-1.53234
0.40372	-0.38449
0.35272	1.14597
0.83725	0.63582
1.24527	0.68683
0.04670	0.07465
0.22521	0.02363
0.22521	0.20219
-0.79486	0.86539
-0.94787	0.50828
-0.20832	-2.47613
-0.02981	2.16628
1.16877	-1.91496
1.34728	-1.40480
-2.52897	0.43176
-0.94787	1.73265
1.67880	1.22250
1.06676	0.71234
0.91375	-0.15492
1.42379	-0.38449
0.14870	1.47757
-1.53441	-1.50683
0.45472	0.07465
0.88825	1.12046
0.12320	1.27351
-0.43783	-2.04250
-0.23382	-1.43031
0.63323	-1.48133
-0.08081	1.01843
0.09770	1.37554
0.25071	0.73785
0.27621	0.78886
0.40372	0.48277
1.34728	0.55929
-1.43240	0.17668
-2.24845	-0.07840
0.12320	1.14597
1.72980	-0.84363
1.32178	-2.19554
-0.59084	0.20219
-0.46334	-0.66508
0.48022	1.17148
1.65330	-0.05289
0.42922	0.55929
0.78624	1.19699
-0.05531	0.30422
0.04670	0.12566
-0.00431	0.20219
-1.38139	1.37554
-1.50890	2.26831
0.99026	-3.57296
0.76074	1.19699
0.60773	0.71234
-0.08081	-0.92016
0.17421	1.19699
1.14327	0.66132
0.96476	1.22250
-0.74385	0.04914
-2.12094	0.25320
-0.53984	-1.78742
1.19427	1.75816
0.96476	0.68683
0.63323	0.48277
0.53123	-0.63957
0.30171	1.12046
0.32721	-0.46102
-0.25932	0.30422
0.04670	-0.20594
-0.41233	0.76336
0.32721	-1.07320
0.27621	-1.86394
-1.15188	1.40105
-0.38683	0.30422
0.65874	1.19699
0.88825	1.19699
0.22521	0.73785
-0.18282	-0.00188
0.88825	0.35523
0.78624	0.89089
-1.81492	-1.02219
-0.79486	0.07465
2.31634	-1.50683
0.42922	0.61031
0.09770	0.91640
0.42922	0.58480
-0.00431	0.35523
0.42922	0.76336
0.02119	-0.15492
-0.48884	0.55929
-0.15732	-1.27726
-0.28482	-2.39961
0.53123	1.06945
0.07220	1.14597
-0.36133	1.35003
0.07220	1.37554
0.68424	-0.18043
0.45472	-0.99668
0.27621	0.89089
-0.36133	-1.07320
0.09770	-0.02739
0.45472	1.14597
0.37822	0.53379
1.34728	0.15117
-0.38683	0.15117
0.17421	0.27871
-0.66735	-0.23145
-0.31033	0.38074
0.48022	0.58480
0.42922	-1.22625
0.22521	0.15117
0.17421	-0.02739
0.12320	-0.66508
0.27621	-2.34859
0.27621	2.16628
0.22521	0.53379
-0.76936	2.11527
-0.46334	0.94191
0.93925	0.50828
0.70974	0.35523
-0.20832	-1.53234
-0.23382	-1.88945
-0.41233	1.14597
-0.31033	0.91640
1.34728	0.53379
0.78624	-1.86394
0.35272	0.25320
0.37822	0.76336
0.58223	0.32972
0.27621	0.27871
-0.69285	0.86539
-0.38683	0.66132
0.35272	-0.71609
0.25071	-0.46102
-0.76936	-0.23145
-0.74385	0.58480
0.63323	-0.56305
0.55673	1.55410
0.73524	0.89089
-1.22839	-1.86394
-0.33583	0.50828
1.14327	1.80917
0.83725	-1.96597
0.68424	0.43176
0.14870	0.63582
0.30171	0.66132
1.19427	1.01843
-0.48884	-0.48652
-0.02981	-0.30797
-0.08081	0.43176
-0.94787	0.04914
-0.66735	-0.33348
0.70974	0.35523
0.50573	0.89089
0.93925	-1.45582
1.62780	1.45206
-0.18282	-2.14453
-2.73298	1.47757
-1.50890	1.98773
-0.25932	-2.83324
1.34728	-1.60887
1.75531	0.45726
1.39828	0.94191
0.68424	1.57960
0.37822	1.47757
0.09770	-0.53754
-0.48884	0.45726
0.27621	0.22769
0.60773	-0.15492
-1.86593	-0.20594
-1.33039	-0.76711
0.37822	-0.07840
0.37822	-0.10391
0.58223	0.04914
0.73524	-1.65988
0.48022	0.63582
0.93925	1.09496
-0.51434	1.80917
-1.10088	-0.05289
-0.08081	-4.66979
-0.02981	0.78886
0.14870	1.57960
0.65874	1.24800
1.04126	0.58480
0.93925	0.76336
0.50573	0.99292
0.32721	-1.96597
-0.15732	-0.94566
-0.43783	0.20219
0.04670	0.91640
0.04670	-0.58856
0.53123	0.55929
0.42922	1.27351
-0.43783	-1.63437
-2.91149	-0.38449
-0.00431	1.06945
1.21977	-0.51203
0.99026	0.45726
0.86275	-0.48652
0.35272	0.81437
-0.28482	0.45726
0.50573	0.71234
0.70974	0.35523
0.65874	-0.07840
-0.36133	0.55929
0.02119	0.20219
-0.13181	0.25320
0.02119	-0.30797
-0.05531	0.81437
0.14870	-1.88945
-0.10631	0.86539
0.40372	1.17148
0.73524	0.38074
0.91375	1.52859
-1.48340	-1.68539
-0.69285	-0.25695
-0.20832	0.73785
0.07220	2.24281
1.37278	-0.63957
1.72980	-0.99668
0.04670	0.40625
-1.07538	0.71234
0.63323	0.50828
0.73524	0.32972
0.55673	0.12566
0.63323	0.25320
-0.25932	0.25320
-1.45790	-0.25695
-0.18282	-0.33348
0.37822	-0.25695
-0.02981	0.20219
-0.00431	0.86539
0.70974	0.15117
0.25071	-0.18043
0.12320	-0.97117
0.14870	1.63062
0.42922	-0.05289
0.32721	-0.86914
-0.13181	1.27351
0.12320	0.83988
0.48022	0.04914
0.17421	1.37554
-1.38139	0.86539
-0.43783	-0.18043
0.81175	-0.33348
1.37278	-1.58336
1.09226	0.10015
-0.66735	-0.15492
-0.53984	1.75816
0.60773	1.37554
0.83725	0.58480
0.19971	0.20219
-0.38683	-1.30277
-0.08081	0.15117
-0.05531	0.25320
0.17421	-0.48652
0.30171	-0.18043
-0.05531	0.68683
-0.84586	1.14597
-0.08081	-0.84363
0.76074	-1.02219
0.30171	0.73785
0.27621	0.91640
0.30171	1.01843
0.91375	0.30422
1.42379	0.61031
-1.22839	1.14597
-3.44703	-0.02739
0.12320	-1.43031
1.75531	-0.18043
1.14327	-0.00188
-0.00431	-0.20594
0.73524	0.71234
0.68424	0.22769
0.50573	-0.43551
0.04670	0.17668
-0.59084	1.01843
0.07220	0.04914
0.04670	0.89089
-0.31033	0.30422
0.17421	-1.78742
-0.71835	0.17668
-0.13181	-0.66508
0.65874	1.09496
-0.18282	-0.69059
0.76074	0.81437
0.45472	0.45726
0.40372	0.27871
0.40372	0.35523
-0.00431	1.17148
-0.13181	0.10015
0.32721	-1.73640
0.25071	0.99292
0.60773	1.42656
0.40372	-2.27207
-0.08081	-0.05289
-1.48340	0.91640
-0.79486	0.27871
0.60773	1.17148
1.39828	-0.84363
0.81175	0.63582
0.12320	1.32453
-0.20832	1.57960
0.93925	0.58480
0.53123	-1.76191
-2.06994	-0.92016
-0.56534	0.78886
1.19427	0.68683
0.91375	0.12566
0.53123	0.27871
0.70974	0.25320
-0.20832	0.22769
-0.46334	-0.02739
0.25071	-0.30797
0.22521	1.24800
0.25071	-2.22105
0.19971	0.78886
0.35272	0.68683
-0.92237	0.55929
-0.48884	0.10015
0.40372	0.58480
0.83725	0.55929
0.86275	-0.69059
-0.61635	-0.66508
0.25071	-0.25695
-0.36133	-1.17523
-1.63641	1.96222
0.45472	-0.10391
1.44929	0.17668
0.93925	0.61031
0.91375	0.53379
0.70974	0.20219
-0.28482	-0.51203
-0.59084	0.12566
0.12320	-0.71609
-0.36133	0.58480
0.37822	1.60511
0.30171	-0.15492
0.63323	0.30422
-0.41233	0.76336
-1.33039	-0.61406
0.09770	-0.97117
0.30171	0.83988
0.53123	2.16628
0.68424	0.86539
0.99026	-1.43031
0.96476	0.07465
-1.40690	-1.27726
-1.35589	1.29902
-0.08081	-0.69059
0.91375	0.15117
1.16877	0.38074
0.40372	1.04394
0.50573	0.43176
0.50573	0.58480
-0.48884	-0.99668
0.14870	1.57960
-0.33583	-2.70570
0.19971	0.32972
0.50573	-1.07320
0.19971	1.50308
0.02119	0.45726
0.02119	-0.94566
-0.51434	0.15117
0.04670	2.11527
0.12320	-0.81812
0.45472	0.63582
0.12320	0.99292
0.58223	-1.68539
0.07220	0.96742
0.19971	0.66132
0.58223	-0.12942
0.17421	0.02363
0.81175	0.02363
-0.66735	-0.00188
0.22521	0.15117
-0.38683	0.32972
-1.66191	0.12566
0.70974	0.07465
1.27078	0.35523
0.96476	-0.07840
0.83725	0.10015
0.63323	0.17668
0.73524	0.10015
-0.51434	0.02363
-1.86593	-0.15492
0.19971	0.91640
0.02119	1.06945
0.70974	-1.71090
0.91375	-1.48133
0.25071	0.63582
-0.23382	1.65613
0.30171	1.19699
0.53123	1.32453
0.48022	1.52859
0.42922	-2.57816
-0.18282	0.43176
-1.38139	0.25320
-0.18282	0.38074
1.04126	-1.17523
0.42922	-1.58336
0.40372	-0.20594
-0.13181	1.12046
-0.31033	1.06945
0.53123	0.73785
0.76074	0.63582
0.65874	-0.20594
0.32721	-0.51203
0.30171	-0.18043
-0.02981	-0.76711
-1.45790	1.22250
-1.07538	-0.35899
0.68424	1.19699
0.86275	-0.94566
0.99026	-1.81293
0.93925	1.68163
0.02119	-0.07840
-1.48340	0.25320
0.25071	0.53379
0.17421	0.35523
1.06676	0.40625
0.86275	0.94191
-1.55991	0.17668
-0.23382	-0.69059
1.24527	-0.51203
0.63323	-0.84363
0.70974	0.30422
0.73524	1.27351
-0.25932	0.15117
-0.76936	-0.33348
-0.51434	-0.51203
-0.10631	0.96742
0.02119	2.08976
0.45472	-0.15492
1.37278	-2.50164
-0.05531	0.04914
0.60773	1.22250
0.30171	1.04394
0.81175	1.27351
1.19427	0.27871
-3.93156	0.91640
-1.63641	1.04394
0.70974	-0.43551
0.99026	-0.61406
1.39828	0.15117
1.27078	0.38074
1.65330	0.04914
0.25071	0.04914
0.14870	-1.37929
-0.10631	0.25320
-0.08081	0.71234
0.22521	-0.12942
-0.31033	0.50828
-1.27939	-3.29238
-0.97337	0.96742
0.73524	2.59991
1.55129	1.63062
-0.20832	0.73785
-3.31952	-0.18043
-2.40146	0.78886
2.90288	0.61031
2.57136	-0.76711
1.80631	-0.38449
1.67880	-0.25695
0.32721	-0.07840
1.72980	0.58480
-2.27395	0.61031
-1.22839	1.12046
1.21977	-1.50683
-0.18282	-0.81812
0.17421	0.43176
0.35272	0.66132
0.04670	-0.35899
-0.69285	0.48277
-0.33583	0.25320
0.45472	0.78886
0.45472	-0.02739
0.58223	0.86539
0.25071	-0.51203
-0.08081	-0.53754
-0.61635	0.50828
0.78624	0.10015
0.19971	-0.48652
-0.61635	1.35003
0.58223	-0.33348
0.35272	-1.27726
0.53123	1.75816
0.42922	-0.28246
0.40372	1.04394
0.30171	0.17668
0.60773	-0.38449
0.78624	0.02363
0.53123	0.17668
-3.14101	0.10015
-0.79486	-1.20074
0.12320	0.22769
0.73524	0.25320
1.37278	0.55929
1.04126	-0.66508
0.83725	0.76336
0.14870	-0.66508
0.02119	0.91640
0.17421	-0.02739
-0.10631	0.61031
-0.23382	0.32972
-0.05531	-0.20594
-0.02981	0.07465
0.07220	0.38074
-0.08081	0.55929
0.19971	1.17148
-0.05531	-0.86914
0.22521	-2.29757
0.30171	1.93671
0.40372	-0.30797
0.53123	1.14597
0.83725	1.37554
-0.82036	0.07465
-2.70748	0.94191
0.22521	-0.63957
1.57679	-0.18043
0.78624	-0.28246
1.39828	-0.05289
0.93925	-0.18043
0.60773	-0.12942
0.14870	0.73785
-0.41233	-0.46102
-0.31033	0.58480
-0.13181	-1.27726
0.07220	0.10015
0.12320	0.35523
0.22521	1.32453
-0.05531	0.99292
0.68424	0.63582
-1.22839	-0.00188
-1.91693	0.17668
1.44929	0.17668
0.32721	-0.25695
0.25071	0.12566
0.76074	0.48277
0.78624	-0.12942
0.70974	0.91640
0.40372	-1.17523
0.35272	0.04914
-0.89686	-0.48652
-0.69285	0.91640
0.93925	0.86539
0.73524	0.30422
-0.18282	0.02363
-2.22295	0.91640
-0.46334	1.80917
1.39828	-1.32828
1.32178	-1.68539
1.04126	0.30422
0.73524	-0.35899
-0.23382	0.73785
-0.99887	1.04394
-0.13181	0.55929
0.76074	0.07465
0.09770	0.17668
0.12320	0.30422
0.14870	-0.05289
0.07220	-0.33348
0.09770	0.12566
-0.00431	0.02363
0.58223	-0.74160
0.12320	0.58480
-0.66735	0.96742
0.32721	0.38074
0.40372	-0.30797
0.19971	0.27871
0.32721	0.20219
1.06676	0.40625
0.19971	0.22769
-1.35589	-0.56305
0.45472	0.07465
1.80631	0.17668
-2.24845	0.30422
-0.53984	-0.28246
0.73524	-0.61406
0.70974	0.61031
1.01576	0.91640
0.81175	1.04394
0.63323	0.25320
-0.20832	-0.35899
-0.43783	-0.05289
0.02119	0.35523
0.04670	0.35523
-0.10631	0.71234
0.12320	-0.25695
-0.20832	0.07465
-0.05531	-1.91496
-0.05531	-0.28246
0.65874	-0.58856
0.14870	1.65613
0.37822	1.37554
0.02119	-0.05289
-0.28482	-1.76191
0.65874	1.09496
0.76074	0.96742
0.04670	-0.66508
0.68424	0.17668
-0.08081	-0.63957
-0.18282	0.61031
-0.00431	0.45726
-0.38683	-0.28246
0.78624	0.55929
0.63323	-1.55785
0.14870	0.83988
1.55129	0.45726
-0.87136	-0.79262
-1.71292	-0.38449
0.73524	0.61031
0.45472	0.83988
0.32721	0.38074
0.32721	0.89089
0.42922	-1.68539
0.12320	0.86539
-0.08081	0.76336
0.50573	0.02363
-0.38683	0.76336
0.07220	-0.23145
0.14870	0.40625
-0.51434	-0.23145
0.53123	-1.25176
0.25071	1.04394
-0.31033	0.12566
-0.25932	0.27871
0.53123	0.45726
0.63323	-0.07840
0.45472	-1.71090
0.93925	0.91640
0.19971	0.02363
-0.84586	0.53379
-0.38683	1.50308
0.50573	0.22769
0.83725	-0.53754
0.91375	-0.92016
-0.64185	0.48277
-0.99887	0.89089
-0.00431	1.01843
0.91375	-2.65468
0.65874	0.38074
-0.08081	0.66132
-0.20832	0.78886
0.73524	0.94191
1.19427	-0.99668
0.63323	0.38074
-2.88599	0.68683
-1.15188	-0.71609
0.93925	0.02363
1.06676	0.78886
2.59686	-0.25695
-0.46334	-0.02739
-0.31033	0.48277
0.02119	0.12566
0.22521	0.40625
0.07220	-0.20594
0.27621	-0.63957
0.55673	-0.66508
-0.33583	0.73785
-0.87136	1.17148
-0.15732	-0.05289
0.32721	-0.48652
0.76074	0.86539
0.60773	0.53379
-0.25932	0.15117
0.19971	0.07465
0.91375	0.04914
-0.43783	0.07465
-0.51434	-0.25695
0.86275	-0.53754
-0.00431	1.29902
-0.05531	0.53379
0.63323	-0.63957
0.37822	-0.00188
0.02119	0.99292
0.12320	0.58480
0.32721	-0.23145
0.30171	-0.23145
0.19971	1.14597
-0.38683	0.30422
-0.31033	-0.30797
-0.15732	-0.15492
0.19971	0.38074
0.53123	0.45726
0.30171	0.04914
-0.28482	0.58480
0.55673	0.73785
1.14327	-0.15492
-0.66735	-0.99668
-0.56534	-1.55785
0.35272	1.52859
0.99026	0.32972
1.19427	0.32972
-1.12638	-0.30797
-1.48340	0.50828
1.47479	0.96742
0.35272	-2.70570
0.40372	1.24800
0.50573	1.75816
0.35272	0.40625
-0.51434	-1.25176
-0.79486	0.10015
0.27621	1.37554
-0.10631	0.66132
0.40372	-0.43551
-0.05531	0.45726
0.68424	0.38074
0.81175	-0.12942
0.45472	-0.18043
0.02119	-0.00188
0.12320	0.02363
-0.10631	0.53379
0.07220	-0.35899
0.07220	-0.99668
0.17421	-2.14453
0.32721	0.86539
-0.08081	1.09496
-1.20288	0.71234
-0.18282	0.83988
0.48022	0.58480
0.53123	0.17668
0.93925	0.20219
0.63323	1.06945
-0.92237	0.17668
1.19427	-2.17003
0.02119	1.83468
-0.79486	-2.50164
0.27621	-0.48652
0.22521	0.30422
0.86275	1.35003
0.22521	1.50308
0.02119	-0.46102
0.27621	0.10015
0.63323	0.96742
0.27621	-0.48652
0.19971	0.02363
0.09770	0.45726
-0.25932	-0.25695
0.12320	-0.61406
-0.15732	-0.84363
0.14870	1.14597
-0.00431	1.12046
0.19971	-0.20594
0.48022	0.40625
-0.71835	0.66132
-0.23382	0.25320
0.81175	1.12046
0.32721	-0.10391
-0.38683	-1.45582
0.25071	1.12046
1.50029	-0.23145
0.58223	-0.66508
-1.71292	0.86539
-0.00431	0.12566
0.91375	-0.25695
0.53123	0.68683
0.48022	-0.48652
0.17421	0.86539
0.22521	0.58480
-0.08081	-0.38449
-0.20832	0.58480
-0.15732	0.02363
0.50573	-1.17523
0.96476	0.58480
-1.68742	1.32453
-0.66735	-0.12942
-0.18282	0.58480
1.65330	0.04914
1.62780	-0.66508
-0.43783	0.73785
-0.59084	0.68683
0.83725	-0.81812
-0.00431	-0.28246
0.81175	0.48277
0.99026	-0.25695
-0.53984	0.63582
-0.82036	0.58480
0.22521	0.20219
0.32721	1.01843
-0.08081	-1.76191
-0.33583	0.07465
0.12320	-0.10391
0.40372	1.35003
0.35272	-1.20074
0.55673	0.27871
0.55673	0.30422
-0.84586	0.76336
-0.69285	0.89089
0.63323	0.63582
0.78624	-1.14973
0.25071	-0.15492
0.30171	0.81437
-0.53984	0.38074
-0.20832	0.66132
-0.15732	-1.53234
0.93925	0.07465
1.01576	0.04914
-1.10088	0.45726
0.12320	0.53379
0.83725	0.76336
0.37822	-0.76711
0.55673	0.15117
0.14870	-0.30797
0.02119	0.68683
0.02119	0.12566
-0.61635	1.42656
-0.13181	-1.55785
1.16877	-0.61406
-0.74385	0.43176
-1.02437	0.10015
-0.20832	1.52859
0.25071	-0.89465
0.83725	0.43176
0.88825	-0.07840
0.88825	0.45726
0.78624	0.10015
0.14870	-0.18043
-0.69285	0.48277
-0.97337	-0.15492
-0.66735	0.15117
1.01576	0.10015
0.93925	0.86539
0.63323	-1.50683
0.07220	0.12566
0.19971	0.48277
0.32721	0.53379
0.12320	0.35523
-0.02981	0.45726
-0.08081	0.99292
0.48022	0.07465
1.01576	-1.35379
-1.81492	0.02363
-2.88599	1.04394
1.16877	0.45726
1.62780	-1.32828
0.81175	0.73785
0.04670	0.68683
0.55673	-0.48652
1.01576	-0.18043
-0.41233	0.63582
-0.61635	0.71234
0.37822	1.17148
-0.00431	-0.61406
0.02119	0.30422
0.32721	0.89089
0.09770	-0.51203
0.07220	-0.20594
0.19971	0.68683
0.37822	0.58480
0.09770	-0.48652
0.17421	0.86539
0.12320	-1.32828
0.09770	-0.02739
0.40372	0.55929
0.78624	0.55929
-0.38683	-0.00188
-2.24845	0.10015
-0.20832	-0.28246
1.52579	1.24800
1.27078	-0.61406
-0.10631	0.02363
-0.66735	0.15117
0.91375	0.27871
0.45472	-0.81812
0.30171	0.45726
1.11776	0.83988
-0.33583	0.99292
-0.41233	0.17668
0.50573	-0.10391
0.04670	-0.28246
-0.28482	0.43176
-0.36133	0.07465
0.53123	0.17668
0.96476	-0.53754
1.11776	0.91640
-2.40146	-0.00188
-2.04444	0.73785
1.32178	0.38074
1.04126	-0.20594
0.86275	0.53379
0.81175	0.76336
0.78624	0.53379
-0.43783	-1.99148
0.50573	-0.00188
-0.84586	0.50828
0.32721	0.15117
-0.02981	0.76336
0.30171	0.40625
0.17421	0.40625
0.45472	-0.10391
0.99026	0.66132
-0.64185	-0.12942
0.27621	-1.30277
0.25071	1.19699
-1.63641	0.73785
-0.66735	-0.18043
0.99026	1.04394
0.83725	0.66132
0.73524	-3.62398
0.50573	1.06945
0.42922	1.01843
-0.05531	0.53379
-0.13181	0.91640
-0.15732	0.30422
-0.02981	1.14597
0.09770	-0.48652
0.35272	-0.05289
0.12320	0.20219
0.09770	0.12566
0.50573	-1.12422
1.24527	-1.50683
-1.15188	1.24800
-1.89143	0.73785
0.83725	0.86539
1.80631	1.17148
0.83725	-0.07840
-0.74385	0.20219
-0.38683	-0.63957
0.63323	0.22769
0.99026	-0.25695
-0.18282	0.35523
-0.43783	0.66132
0.27621	0.50828
-0.05531	-0.56305
-0.41233	-0.61406
0.37822	0.61031
0.30171	0.61031
0.35272	0.86539
0.35272	-0.10391
0.58223	-0.05289
0.65874	-3.19035
-1.02437	1.01843
-1.61091	1.73265
0.22521	1.57960
0.93925	0.91640
0.88825	0.12566
0.12320	0.35523
0.22521	-0.23145
0.68424	0.15117
0.19971	-0.46102
-0.51434	-1.07320
-0.43783	-0.69059
0.25071	0.25320
0.73524	-0.05289
0.83725	1.06945
-0.71835	1.04394
-1.17738	0.04914
0.96476	0.02363
0.91375	0.07465
-0.48884	0.48277
0.25071	-0.86914
0.22521	0.15117
-0.02981	0.45726
0.81175	0.66132
0.73524	-0.43551
0.55673	0.15117
0.14870	1.06945
-0.94787	0.12566
-0.43783	-1.91496
0.30171	-0.92016
0.40372	1.80917
0.96476	1.65613
-0.74385	0.27871
-0.48884	-1.37929
0.53123	0.76336
0.12320	0.15117
0.19971	0.68683
0.45472	0.35523
0.32721	-0.10391
0.40372	-0.43551
0.02119	-0.18043
0.48022	0.02363
0.19971	0.04914
0.19971	0.55929
1.14327	0.17668
-0.05531	0.02363
-0.84586	0.15117
-0.41233	1.42656
0.78624	-0.81812
-0.31033	-2.09351
-1.15188	0.78886
0.91375	0.30422
0.96476	0.53379
0.73524	-1.78742
1.29628	0.17668
1.01576	2.14077
-2.75848	2.01323
-0.79486	0.58480
0.83725	-2.27207
0.45472	0.45726
0.68424	1.32453
0.70974	0.12566
0.48022	0.10015
0.48022	0.04914
-0.31033	-0.25695
-0.28482	0.30422
-0.05531	0.86539
0.07220	0.45726
0.42922	-2.52714
0.30171	-1.14973
0.68424	0.27871
-0.18282	1.27351
-1.50890	0.27871
-0.76936	0.89089
0.35272	0.43176
0.91375	-0.86914
1.14327	1.09496
0.83725	-0.12942
0.53123	1.06945
0.40372	1.40105
-0.15732	-1.07320
-0.00431	-1.48133
0.58223	0.86539
-0.38683	0.17668
-1.50890	1.01843
-1.04987	-0.02739
0.19971	-1.02219
1.06676	0.58480
0.83725	0.48277
0.32721	-0.81812
0.19971	-0.12942
0.70974	1.19699
-0.08081	-1.88945
-0.79486	-0.53754
-0.10631	0.71234
0.63323	1.27351
0.32721	0.45726
0.42922	0.53379
0.37822	0.61031
0.60773	-0.25695
0.86275	0.43176
-2.01894	-0.05289
-1.58541	0.20219
0.86275	-1.14973
0.68424	0.22769
0.27621	0.78886
0.07220	0.78886
0.65874	0.73785
1.09226	-0.20594
0.30171	-0.89465
-1.50890	-0.81812
-0.71835	0.32972
0.83725	0.58480
0.96476	0.96742
0.68424	-0.18043
0.42922	0.02363
0.17421	-0.35899
0.02119	0.15117
0.81175	-0.35899
-0.36133	1.22250
-0.28482	0.45726
-0.28482	0.38074
-0.10631	0.81437
0.25071	-0.94566
-0.76936	-1.32828
-0.48884	0.86539
0.55673	1.78367
0.63323	-0.05289
0.53123	0.32972
0.35272	0.07465
0.58223	-0.63957
0.53123	-0.20594
0.70974	0.15117
-0.02981	0.15117
-1.22839	-0.35899
-0.25932	-0.18043
0.50573	0.58480
0.30171	0.20219
0.30171	-1.37929
0.40372	1.01843
0.76074	0.15117
-0.56534	0.99292
-0.33583	1.04394
0.70974	-0.10391
0.48022	0.73785
0.53123	0.58480
0.22521	0.45726
-0.76936	-1.94047
-1.43240	-0.00188
0.50573	0.50828
0.68424	0.25320
0.42922	0.61031
0.50573	0.68683
0.68424	0.58480
0.42922	-1.30277
-0.61635	0.32972
-0.94787	-0.35899
-0.46334	-0.97117
0.35272	0.38074
1.14327	0.58480
0.83725	0.99292
0.60773	0.45726
-0.23382	-0.02739
0.42922	-0.30797
-0.79486	0.45726
-0.82036	0.38074
0.76074	0.02363
0.27621	0.32972
0.25071	-0.18043
0.27621	-0.30797
0.17421	0.68683
0.22521	0.17668
0.12320	-0.15492
0.19971	0.15117
-0.10631	0.20219
-0.08081	-0.43551
0.12320	0.04914
0.17421	0.55929
-0.00431	-0.69059
-0.79486	0.35523
-0.02981	0.91640
0.99026	0.53379
0.58223	-0.74160
0.91375	0.89089
1.62780	-0.66508
-1.38139	-0.00188
-2.93700	0.55929
0.70974	0.68683
1.32178	0.55929
0.91375	0.38074
0.30171	0.04914
0.07220	-0.05289
0.30171	-0.56305
0.07220	-0.20594
0.19971	0.83988
0.32721	-0.61406
0.37822	0.35523
-1.10088	0.35523
-0.38683	0.81437
0.02119	-0.99668
0.55673	-0.35899
0.58223	0.27871
-0.10631	0.89089
-0.48884	0.55929
0.53123	0.38074
0.63323	0.27871
0.48022	0.53379
0.17421	-0.58856
0.86275	0.53379
0.14870	-1.04770
-1.38139	-0.23145
0.25071	-0.43551
0.37822	0.25320
0.14870	1.12046
0.45472	-0.48652
0.53123	3.08456
-0.00431	-1.53234
-0.23382	-1.40480
0.42922	-2.17003
1.14327	0.81437
-0.87136	0.96742
-2.57997	0.99292
0.81175	0.55929
1.67880	0.38074
1.27078	0.35523
0.88825	-0.20594
0.45472	0.02363
0.17421	-0.07840
-0.18282	-0.10391
-0.10631	-0.07840
-0.25932	0.27871
-0.20832	-0.18043
-0.25932	0.22769
-0.18282	0.12566
0.02119	-1.50683
0.42922	0.45726
0.32721	0.86539
0.27621	0.94191
-0.36133	1.01843
0.12320	1.37554
0.86275	-0.74160
0.50573	0.07465
0.32721	-0.30797
0.60773	-0.28246
-0.94787	0.43176
-1.02437	0.71234
1.60230	-0.18043
0.63323	-0.25695
-0.43783	0.55929
0.55673	0.10015
0.93925	0.40625
0.37822	0.86539
-0.23382	-0.56305
-0.41233	0.20219
0.40372	0.02363
-0.00431	-0.28246
-0.18282	0.91640
0.53123	0.40625
0.32721	-1.25176
-0.25932	0.50828
-1.02437	-0.07840
-1.81492	0.17668
0.42922	-0.69059
1.37278	0.35523
1.44929	1.29902
0.96476	0.76336
0.73524	0.35523
0.19971	-0.97117
0.17421	0.48277
-0.38683	0.53379
-0.13181	0.83988
-0.08081	-0.66508
-0.00431	0.32972
-0.05531	0.10015
0.48022	-0.05289
0.30171	-0.71609
-0.00431	0.35523
-0.53984	0.35523
-0.48884	0.15117
1.09226	-0.15492
0.58223	-0.48652
-0.99887	0.96742
-0.48884	0.73785
1.04126	0.17668
0.63323	0.76336
0.58223	-0.41000
0.53123	0.35523
0.91375	-0.20594
-0.02981	-1.32828
-0.02981	0.78886
-0.38683	-0.02739
-0.08081	1.14597
0.22521	0.91640
0.19971	-0.12942
0.30171	0.20219
-0.08081	0.38074
-0.15732	-0.15492
-0.18282	0.17668
-0.13181	-0.48652
0.32721	0.25320
0.17421	-0.97117
0.53123	0.71234
1.14327	0.78886
-0.53984	0.73785
-0.69285	0.30422
-0.97337	-0.43551
0.88825	0.10015
0.27621	0.27871
0.99026	0.02363
1.72980	0.17668
-0.36133	0.45726
-1.02437	-1.20074
0.07220	0.91640
0.70974	1.40105
-0.13181	0.94191
0.40372	-1.55785
0.55673	-1.20074
0.27621	-0.07840
0.02119	1.04394
-0.05531	0.86539
-0.05531	0.66132
-0.13181	0.25320
0.04670	0.27871
0.19971	0.04914
0.19971	0.50828
0.45472	0.25320
0.53123	0.04914
-0.53984	0.73785
-1.25389	-0.92016
-0.02981	-0.46102
0.93925	0.58480
0.93925	-0.12942
0.27621	-0.15492
0.09770	1.09496
1.42379	0.94191
0.50573	1.06945
-2.04444	-0.66508
-0.23382	-0.71609
0.81175	1.32453
0.73524	-0.61406
0.04670	0.61031
0.30171	0.20219
0.40372	-1.48133
0.42922	0.15117
-0.20832	1.12046
-0.25932	0.94191
0.14870	0.73785
-0.94787	-0.63957
-0.20832	0.96742
0.55673	-0.23145
0.63323	0.04914
-0.05531	-0.25695
-0.15732	-1.71090
0.30171	0.35523
0.68424	0.25320
0.09770	0.35523
-0.53984	0.32972
0.17421	-0.41000
0.68424	1.06945
0.63323	0.35523
0.50573	-0.07840
0.78624	0.25320
0.37822	0.50828
-0.61635	0.76336
-1.12638	0.35523
-0.36133	-0.84363
0.22521	-1.71090
0.91375	0.10015
0.17421	0.25320
0.27621	1.88570
0.93925	0.78886
-0.84586	-0.33348
-1.86593	0.91640
0.65874	-0.46102
1.16877	0.63582
1.39828	0.73785
0.70974	0.12566
-0.89686	-0.00188
-0.56534	-0.25695
-0.05531	-0.56305
0.58223	0.30422
0.48022	0.43176
0.19971	0.25320
0.27621	-0.61406
0.35272	0.55929
-0.46334	0.61031
-0.38683	0.81437
-0.13181	0.25320
0.32721	0.35523
0.30171	-0.15492
0.50573	-0.33348
0.73524	0.68683
0.48022	-0.25695
-0.46334	-0.33348
-0.92237	0.55929
-0.18282	0.43176
0.60773	-0.86914
0.53123	0.55929
0.27621	-1.25176
0.68424	0.91640
0.70974	0.94191
0.25071	0.53379
0.32721	0.04914
0.04670	-0.35899
0.09770	0.58480
-0.33583	-0.28246
-0.13181	-0.23145
-0.08081	0.22769
0.17421	0.58480
-0.25932	-1.53234
-0.23382	-0.15492
0.37822	0.86539
0.35272	-0.10391
0.12320	1.57960
0.68424	-0.48652
0.53123	0.15117
0.48022	-1.07320
-0.23382	0.20219
-0.59084	-2.68019
0.25071	1.75816
0.99026	1.86019
-1.15188	1.63062
-1.33039	-0.23145
1.09226	-1.27726
1.62780	0.55929
1.34728	0.71234
0.30171	0.30422
-0.43783	-0.35899
0.32721	-0.00188
-0.87136	-0.20594
0.12320	0.07465
0.65874	-0.25695
0.14870	0.15117
0.02119	0.66132
0.07220	-0.02739
-0.00431	-0.15492
-0.82036	0.35523
-0.20832	-0.25695
0.04670	0.45726
0.53123	-0.25695
0.83725	0.66132
0.09770	0.68683
-0.31033	0.17668
0.68424	-1.35379
0.30171	0.10015
-0.28482	1.12046
0.02119	0.61031
0.50573	0.12566
0.27621	-0.99668
0.30171	0.30422
0.58223	1.35003
1.04126	-0.56305
-1.27939	0.66132
-1.35589	1.37554
-0.00431	-1.91496
0.35272	-0.02739
1.04126	0.40625
1.88281	-0.66508
-0.66735	0.32972
-0.82036	0.35523
1.04126	0.12566
0.02119	0.17668
-0.18282	-1.45582
0.19971	-0.02739
0.17421	1.27351
0.02119	1.01843
0.40372	-0.00188
0.25071	-0.15492
0.30171	0.17668
0.30171	1.17148
-1.15188	-0.66508
-0.94787	0.50828
0.58223	-0.53754
0.68424	0.76336
0.40372	0.32972
0.45472	-0.94566
0.55673	-0.15492
0.73524	0.45726
0.55673	-0.53754
0.19971	0.81437
-1.04987	0.20219
0.02119	0.81437
0.96476	-0.15492
-0.00431	0.66132
-1.50890	0.83988
0.27621	-0.66508
0.09770	-0.53754
0.60773	-0.15492
0.93925	0.58480
0.81175	0.68683
0.60773	0.04914
0.65874	0.43176
0.68424	-0.23145
-0.38683	0.63582
-2.42696	-0.05289
-0.99887	-0.66508
0.53123	1.09496
1.21977	0.99292
0.81175	-0.25695
0.93925	0.10015
-0.33583	0.68683
-0.53984	0.89089
0.37822	-0.05289
0.45472	-0.84363
0.19971	-0.92016
-0.31033	0.04914
-0.46334	0.07465
0.76074	0.81437
0.88825	0.07465
0.17421	0.20219
-0.18282	0.10015
-0.33583	0.83988
-0.33583	-1.30277
0.40372	-0.92016
0.55673	0.17668
0.63323	0.89089
-0.28482	0.99292
0.42922	1.09496
0.50573	-1.07320
0.35272	-0.97117
0.14870	0.07465
-0.15732	1.42656
0.40372	0.38074
-0.84586	0.25320
0.40372	0.45726
0.60773	0.04914
-0.02981	0.20219
-0.25932	-0.71609
-1.12638	0.86539
0.50573	-0.71609
1.75531	0.10015
0.68424	0.32972
0.40372	0.15117
0.07220	0.30422
0.04670	-0.12942
-0.18282	0.43176
0.45472	-0.05289
0.22521	0.68683
0.12320	0.78886
0.22521	-0.99668
-0.41233	-1.35379
-0.53984	1.37554
-0.51434	-0.15492
0.55673	0.55929
0.53123	1.12046
0.53123	0.68683
0.48022	-2.85874
0.45472	0.25320
-0.41233	1.60511
-0.53984	1.12046
0.78624	-0.07840
-0.13181	0.17668
-0.28482	-0.00188
0.35272	-0.30797
0.48022	-0.51203
0.40372	0.45726
0.50573	0.50828
0.32721	-0.12942
0.22521	0.83988
-0.36133	-0.97117
