0.22521	0.22769
0.14870	0.04914
0.12320	0.15117
0.17421	0.22769
0.07220	0.20219
0.19971	-0.00188
0.17421	0.15117
0.17421	0.20219
0.19971	0.15117
0.04670	0.10015
0.22521	0.15117
0.14870	-0.10391
0.17421	0.10015
0.17421	0.35523
0.14870	0.32972
0.17421	0.07465
0.14870	0.22769
0.12320	0.15117
0.12320	0.10015
0.12320	0.04914
0.22521	0.20219
0.09770	0.04914
0.19971	0.22769
0.12320	0.17668
0.17421	0.25320
0.17421	0.07465
0.09770	0.10015
0.22521	0.17668
0.14870	0.15117
0.14870	0.04914
0.14870	0.20219
0.09770	0.15117
0.22521	0.02363
0.14870	0.07465
0.14870	0.35523
0.19971	0.40625
0.09770	-0.12942
0.14870	0.22769
0.14870	0.15117
0.09770	0.07465
0.17421	0.20219
0.12320	0.17668
0.14870	0.15117
0.19971	0.30422
0.07220	0.32972
0.19971	-0.30797
0.12320	0.17668
0.14870	0.12566
0.14870	0.15117
0.19971	0.12566
0.04670	0.07465
0.12320	0.15117
0.22521	0.20219
0.14870	0.15117
0.17421	0.10015
0.19971	0.10015
0.19971	0.22769
0.04670	0.10015
0.14870	0.20219
0.19971	0.32972
0.12320	-0.10391
0.12320	0.07465
0.19971	0.25320
0.07220	0.17668
0.12320	0.07465
0.14870	0.12566
0.07220	0.20219
0.19971	0.17668
0.09770	0.17668
0.14870	0.02363
0.14870	0.22769
0.09770	0.04914
0.19971	0.22769
0.07220	0.12566
0.14870	-0.05289
0.19971	0.27871
0.07220	0.17668
0.19971	0.22769
0.07220	0.12566
0.17421	0.15117
0.14870	0.07465
0.17421	0.20219
0.12320	0.17668
0.07220	0.15117
0.22521	0.17668
0.09770	0.04914
0.19971	0.12566
0.14870	0.04914
0.17421	0.12566
0.12320	0.12566
0.12320	0.25320
0.22521	0.27871
0.09770	0.15117
0.22521	0.15117
0.17421	0.20219
0.12320	0.15117
0.19971	0.12566
0.07220	-0.00188
0.14870	0.12566
0.14870	0.38074
0.12320	0.22769
0.19971	0.12566
0.12320	0.17668
0.09770	0.10015
0.12320	0.12566
0.22521	0.22769
0.09770	0.07465
0.22521	0.15117
0.14870	0.17668
0.14870	-0.10391
0.22521	0.27871
0.04670	0.22769
0.19971	0.25320
0.14870	0.15117
0.09770	0.30422
0.19971	0.04914
0.17421	0.25320
0.12320	0.02363
0.17421	0.07465
0.12320	0.15117
0.07220	0.10015
0.19971	0.12566
0.14870	0.20219
0.17421	-0.00188
0.22521	0.22769
0.07220	0.22769
0.14870	0.15117
0.14870	0.22769
0.07220	-0.02739
0.22521	0.12566
0.12320	0.27871
0.14870	0.07465
0.22521	0.20219
0.14870	0.15117
0.17421	0.22769
0.22521	0.27871
0.07220	0.07465
0.17421	0.04914
0.12320	0.15117
0.09770	0.07465
0.19971	0.12566
0.14870	0.07465
0.17421	0.15117
0.22521	0.32972
0.09770	0.22769
0.19971	0.15117
0.14870	0.10015
0.17421	0.12566
0.14870	0.12566
0.07220	0.17668
0.22521	0.15117
0.07220	-0.12942
0.14870	0.15117
0.19971	0.50828
0.12320	0.17668
0.22521	-0.07840
0.09770	0.20219
0.22521	0.20219
0.04670	0.02363
0.19971	0.15117
0.14870	0.25320
0.12320	0.12566
0.14870	0.20219
0.09770	0.17668
0.25071	0.22769
0.07220	0.15117
0.19971	0.25320
0.17421	0.07465
0.19971	0.04914
0.07220	-0.05289
0.17421	-0.00188
0.07220	0.20219
0.22521	0.35523
0.09770	-0.02739
0.25071	0.20219
0.14870	0.25320
0.12320	0.25320
0.12320	0.04914
0.07220	0.04914
0.14870	0.17668
0.14870	0.25320
0.12320	0.10015
0.12320	0.27871
0.12320	0.02363
0.12320	0.12566
0.14870	0.07465
0.09770	0.12566
0.17421	0.25320
0.09770	0.04914
0.14870	0.15117
0.07220	-0.00188
0.17421	0.32972
0.14870	0.25320
0.22521	-0.02739
0.14870	0.30422
0.17421	0.20219
0.17421	0.15117
0.07220	0.17668
0.22521	-0.02739
0.04670	-0.15492
0.12320	0.04914
0.14870	0.38074
0.22521	0.32972
0.09770	0.12566
0.22521	0.17668
0.14870	0.20219
0.17421	0.32972
0.17421	0.04914
0.09770	0.17668
0.19971	0.17668
0.07220	-0.02739
0.17421	0.10015
0.07220	-0.05289
0.17421	0.15117
0.14870	0.25320
0.12320	0.17668
0.22521	0.27871
0.09770	0.10015
0.17421	0.12566
0.12320	0.12566
0.07220	0.17668
0.17421	0.25320
0.07220	0.10015
0.12320	0.10015
0.14870	0.25320
0.12320	0.25320
0.14870	0.12566
0.14870	0.02363
0.22521	0.12566
0.07220	-0.05289
0.22521	0.10015
0.09770	0.20219
0.19971	0.20219
0.09770	0.27871
0.19971	0.32972
0.09770	0.04914
0.19971	0.22769
0.09770	0.15117
0.25071	-0.18043
0.09770	0.07465
0.22521	0.20219
0.07220	0.30422
0.22521	0.15117
0.07220	0.10015
0.22521	0.07465
0.07220	0.40625
0.19971	0.27871
0.07220	-0.05289
0.19971	0.02363
0.09770	0.04914
0.22521	0.25320
0.17421	0.07465
0.17421	0.35523
0.07220	0.20219
0.19971	0.17668
0.07220	0.15117
0.19971	0.10015
0.09770	0.10015
0.14870	0.10015
0.09770	0.12566
0.22521	0.17668
0.04670	0.20219
0.19971	0.25320
0.17421	0.12566
0.12320	0.25320
0.12320	0.17668
0.17421	0.20219
0.14870	0.02363
0.14870	0.07465
0.17421	0.15117
0.17421	0.22769
0.12320	0.04914
0.14870	0.17668
0.17421	0.35523
0.14870	0.22769
0.12320	0.04914
0.14870	-0.05289
0.19971	0.10015
0.07220	0.02363
0.22521	0.20219
0.09770	0.20219
0.14870	0.22769
0.14870	0.12566
0.17421	0.32972
0.14870	0.25320
0.09770	0.17668
0.17421	0.10015
0.09770	0.02363
0.22521	0.12566
0.14870	0.07465
0.14870	0.27871
0.14870	0.07465
0.19971	0.02363
0.09770	0.10015
0.19971	0.35523
0.09770	0.38074
0.14870	0.12566
0.12320	-0.10391
0.12320	0.07465
0.14870	0.35523
0.14870	-0.20594
0.12320	0.25320
0.12320	0.30422
0.14870	0.15117
0.12320	0.30422
0.14870	0.20219
0.19971	0.07465
0.09770	0.12566
0.22521	0.10015
0.07220	0.10015
0.19971	0.25320
0.09770	0.17668
0.22521	0.12566
0.04670	0.12566
0.17421	0.15117
0.19971	0.04914
0.17421	0.15117
0.14870	0.10015
0.17421	0.04914
0.17421	0.12566
0.07220	0.12566
0.17421	0.30422
0.17421	0.30422
0.09770	0.15117
0.22521	0.22769
0.14870	0.15117
0.07220	0.12566
0.17421	0.15117
0.17421	-0.12942
0.14870	-0.05289
0.22521	0.30422
0.09770	0.30422
0.25071	0.30422
0.14870	0.20219
0.14870	0.17668
0.17421	-0.05289
0.14870	0.10015
0.12320	0.55929
0.12320	0.15117
0.14870	-0.30797
0.14870	0.10015
0.17421	0.10015
0.14870	0.07465
0.19971	0.30422
0.09770	0.12566
0.22521	0.25320
0.14870	0.30422
0.07220	-0.18043
0.19971	0.10015
0.07220	0.10015
0.19971	0.25320
0.12320	0.12566
0.12320	0.15117
0.12320	0.20219
0.14870	0.30422
0.19971	-0.07840
0.09770	0.22769
0.19971	0.15117
0.17421	0.12566
0.14870	0.12566
0.17421	0.17668
0.14870	0.15117
0.09770	0.15117
0.19971	0.20219
0.12320	0.10015
0.12320	0.15117
0.14870	0.12566
0.07220	0.10015
0.19971	0.07465
0.12320	0.12566
0.14870	0.35523
0.14870	0.27871
0.14870	0.15117
0.14870	0.17668
0.07220	0.04914
0.25071	0.07465
0.14870	0.17668
0.12320	0.17668
0.17421	-0.18043
0.09770	0.30422
0.19971	0.45726
0.07220	0.02363
0.12320	0.35523
0.12320	0.15117
0.17421	0.17668
0.12320	-0.02739
0.12320	-0.15492
0.17421	0.02363
0.22521	0.25320
0.12320	0.25320
0.22521	0.20219
0.09770	0.15117
0.19971	0.20219
0.12320	0.20219
0.22521	0.22769
0.12320	0.20219
0.22521	0.12566
0.09770	0.12566
0.22521	0.12566
0.17421	0.04914
0.12320	0.25320
0.04670	0.12566
0.19971	0.10015
0.09770	0.07465
0.19971	0.32972
0.07220	0.10015
0.25071	0.20219
0.12320	0.07465
0.19971	0.15117
0.04670	0.02363
0.19971	0.17668
0.09770	0.22769
0.14870	0.35523
0.07220	-0.25695
0.22521	0.25320
0.14870	0.22769
0.14870	0.30422
0.12320	0.15117
0.12320	-0.02739
0.12320	0.15117
0.12320	-0.10391
0.12320	0.20219
0.12320	-0.18043
0.14870	0.55929
0.07220	0.61031
0.14870	0.10015
0.07220	0.04914
0.22521	0.25320
0.12320	-0.35899
0.12320	0.12566
0.14870	0.17668
0.17421	0.07465
0.22521	0.27871
0.09770	0.20219
0.22521	0.20219
0.09770	0.15117
0.19971	0.15117
0.14870	0.15117
0.09770	0.02363
0.19971	0.20219
0.09770	0.17668
0.22521	0.15117
0.07220	0.15117
0.22521	0.20219
0.09770	0.20219
0.22521	0.15117
0.07220	0.15117
0.22521	0.15117
0.04670	0.10015
0.22521	0.10015
0.04670	0.15117
0.17421	0.20219
0.04670	0.12566
0.22521	0.17668
0.09770	0.20219
0.22521	0.20219
0.07220	0.15117
0.12320	0.15117
0.04670	0.12566
0.14870	0.12566
0.19971	0.10015
0.17421	0.12566
0.12320	-0.00188
0.14870	0.22769
0.22521	0.35523
0.09770	0.15117
0.22521	0.07465
0.07220	0.07465
0.19971	0.22769
0.09770	0.25320
0.25071	0.20219
0.07220	0.12566
0.19971	0.17668
0.04670	0.07465
0.12320	-0.00188
0.14870	0.15117
0.17421	0.30422
0.09770	0.22769
0.17421	0.04914
0.14870	0.22769
0.12320	0.10015
0.19971	0.20219
0.07220	-0.02739
0.17421	0.22769
0.12320	0.25320
0.17421	-0.20594
0.14870	0.20219
0.09770	0.15117
0.22521	0.17668
0.12320	0.12566
0.14870	0.25320
0.14870	0.12566
0.12320	0.17668
0.12320	0.17668
0.09770	0.07465
0.17421	0.12566
0.09770	0.07465
0.22521	0.10015
0.07220	-0.00188
0.19971	0.17668
0.04670	0.10015
0.22521	0.17668
0.12320	0.17668
0.19971	0.22769
0.14870	0.22769
0.09770	0.25320
0.19971	0.10015
0.17421	0.04914
0.14870	-0.20594
0.17421	0.30422
0.04670	0.61031
0.19971	0.25320
0.09770	0.12566
0.17421	-0.28246
0.07220	0.10015
0.19971	0.10015
0.09770	0.12566
0.22521	0.07465
0.12320	0.12566
0.14870	0.25320
0.17421	0.20219
0.14870	0.04914
0.19971	0.17668
0.09770	0.27871
0.19971	0.25320
0.07220	0.22769
0.22521	0.45726
0.09770	-0.20594
0.22521	0.20219
0.12320	0.17668
0.14870	0.15117
0.12320	0.02363
0.14870	0.17668
0.12320	0.22769
0.17421	0.12566
0.14870	0.04914
0.14870	0.15117
0.12320	0.12566
0.17421	0.12566
0.17421	0.20219
0.12320	0.17668
0.14870	0.25320
0.14870	0.20219
0.17421	0.15117
0.07220	0.17668
0.22521	0.17668
0.07220	-0.00188
0.25071	0.22769
0.07220	0.53379
0.22521	0.15117
0.09770	0.10015
0.22521	0.12566
0.12320	0.20219
0.12320	0.07465
0.17421	0.15117
0.12320	0.02363
0.17421	0.25320
0.17421	-0.15492
0.19971	0.04914
0.07220	0.12566
0.22521	0.20219
0.12320	0.17668
0.25071	0.30422
0.09770	0.30422
0.22521	0.25320
0.17421	0.22769
0.14870	0.15117
0.14870	0.15117
0.09770	-0.00188
0.22521	0.12566
0.09770	-0.00188
0.14870	0.12566
0.07220	0.17668
0.22521	0.17668
0.12320	0.20219
0.17421	0.30422
0.14870	0.12566
0.19971	0.20219
0.09770	-0.02739
0.19971	0.20219
0.12320	0.17668
0.12320	0.27871
0.12320	0.22769
0.14870	0.12566
0.14870	0.17668
0.09770	-0.07840
0.19971	0.20219
0.12320	0.22769
0.12320	-0.00188
0.14870	-0.00188
0.12320	0.25320
0.17421	0.32972
0.19971	0.17668
0.19971	0.43176
0.09770	0.30422
0.19971	0.04914
0.07220	-0.05289
0.19971	0.10015
0.02119	-0.10391
0.19971	0.20219
0.04670	0.32972
0.19971	-0.12942
0.12320	0.12566
0.19971	0.15117
0.04670	0.20219
0.22521	0.35523
0.22521	0.25320
0.12320	0.04914
0.04670	-0.05289
0.25071	-0.41000
0.37822	0.99292
0.93925	0.22769
-1.30489	0.68683
0.32721	-0.63957
0.40372	-0.33348
-0.59084	0.43176
-0.00431	0.30422
0.22521	0.07465
2.46935	0.81437
2.34184	-0.15492
0.88825	0.96742
-1.61091	0.10015
-0.89686	-1.91496
-1.66191	0.35523
0.32721	0.04914
-1.40690	-0.53754
-1.86593	-0.12942
0.78624	1.24800
2.11233	-3.21585
0.96476	2.31933
0.53123	0.50828
-0.00431	1.96222
2.13783	1.78367
1.62780	-3.13933
-2.68198	-0.05289
-1.35589	2.03874
0.58223	3.13558
3.38741	-3.21585
-1.68742	2.57441
-1.89143	-6.48085
-0.28482	1.40105
0.63323	1.96222
1.21977	2.03874
1.04126	-0.97117
1.47479	0.71234
0.91375	1.22250
-2.65648	1.06945
-1.15188	3.36515
3.59142	-6.53186
-4.33958	-4.87386
-6.60923	2.11527
3.59142	1.04394
5.35104	6.60463
0.91375	6.63014
-0.64185	-8.08783
-0.56534	-4.92487
0.63323	2.70194
1.83181	0.15117
3.03039	0.89089
1.65330	3.51819
0.07220	1.78367
-4.16107	-6.88897
-3.03900	-3.80253
0.81175	1.57960
1.16877	1.88570
0.68424	1.32453
0.02119	2.37034
-0.25932	-2.17003
-2.75848	1.12046
-0.79486	0.83988
1.27078	1.75816
0.42922	1.14597
1.78081	-2.62918
2.54586	0.63582
2.44385	-0.46102
0.60773	1.98773
-0.02981	-5.53706
-3.37052	2.21730
1.11776	1.57960
-0.79486	0.53379
-0.05531	0.17668
1.52579	0.96742
0.25071	1.29902
1.09226	0.15117
2.74987	-2.14453
-1.07538	1.78367
-2.80949	0.04914
-0.08081	-1.48133
-1.76392	0.22769
-0.36133	1.55410
3.87194	0.43176
1.55129	-0.53754
-2.63097	-0.58856
-3.37052	-0.46102
2.29084	0.94191
2.23984	1.52859
-1.10088	-3.16484
1.16877	0.53379
2.16333	1.80917
1.06676	-4.05761
-1.48340	4.87010
-1.17738	-3.31788
0.02119	2.39585
0.50573	1.32453
0.22521	3.00804
0.14870	0.96742
0.17421	1.27351
-0.05531	-2.45062
0.02119	0.81437
0.07220	-5.25647
-0.31033	-0.61406
-0.13181	0.50828
0.25071	0.27871
0.68424	0.63582
0.73524	0.61031
0.35272	-0.02739
-0.10631	0.25320
-0.31033	-0.79262
-0.53984	-0.18043
-0.38683	-0.05289
0.58223	0.71234
1.29628	0.91640
1.01576	0.96742
0.40372	1.04394
0.45472	-0.63957
-0.92237	2.85499
-1.66191	-3.31788
0.27621	-1.25176
1.39828	-2.96078
3.33641	1.70714
-2.37596	3.69675
-3.72755	-1.17523
1.04126	3.36515
0.93925	1.70714
1.06676	-9.72033
1.47479	3.13558
-0.48884	0.96742
-1.12638	1.29902
0.17421	-1.81293
0.63323	0.96742
-0.15732	2.11527
0.14870	-1.96597
0.07220	0.53379
0.30171	-1.45582
0.22521	-0.43551
0.02119	-0.10391
-0.13181	-0.30797
0.17421	0.40625
0.37822	0.32972
0.12320	0.10015
-0.64185	0.45726
-0.08081	0.45726
0.65874	0.76336
0.55673	0.50828
0.40372	-0.25695
0.32721	0.43176
0.25071	-0.00188
0.07220	0.02363
0.14870	0.55929
0.32721	0.27871
0.50573	0.02363
0.48022	2.03874
-0.61635	-1.22625
-1.45790	-1.27726
0.42922	-2.80773
-0.36133	1.19699
3.38741	1.17148
-1.50890	1.45206
-3.03900	1.01843
-0.10631	0.38074
2.31634	0.40625
2.03582	-0.30797
1.16877	-0.33348
0.63323	-0.38449
0.27621	-0.30797
0.04670	0.15117
-0.28482	0.40625
-0.43783	1.98773
-0.59084	0.25320
-0.28482	-8.11334
-0.66735	1.55410
-0.38683	1.65613
1.21977	2.34484
-0.48884	-0.28246
-0.71835	0.99292
0.37822	1.50308
0.81175	1.19699
0.70974	-0.61406
0.53123	0.40625
0.68424	2.59991
0.37822	0.76336
0.50573	-6.93998
0.14870	-3.26687
0.50573	-1.07320
0.04670	-0.86914
-0.10631	2.98253
-1.22839	3.21210
-1.50890	1.06945
-0.79486	-1.45582
1.14327	2.16628
1.60230	0.96742
1.88281	-0.86914
2.06133	-0.15492
-1.38139	-0.35899
-2.50347	-1.37929
0.70974	0.89089
1.72980	1.14597
2.44385	0.96742
-2.50347	0.71234
-3.52353	0.30422
0.42922	-0.81812
1.55129	-1.96597
1.39828	1.06945
0.78624	-0.05289
0.53123	0.78886
0.63323	1.14597
1.29628	1.17148
0.70974	0.25320
-4.03357	-2.96078
-3.06450	1.42656
1.34728	-0.10391
1.16877	0.55929
0.93925	0.45726
0.93925	-0.02739
0.63323	1.47757
0.22521	-2.29757
0.02119	1.78367
0.22521	0.91640
0.32721	-0.86914
-0.13181	-3.85355
-0.71835	-3.06281
-0.15732	3.59471
0.12320	0.96742
0.27621	1.27351
0.50573	1.57960
0.35272	-0.23145
0.32721	-0.05289
0.32721	-0.05289
0.60773	0.22769
1.27078	-2.45062
1.14327	1.01843
-4.26308	-0.10391
-1.20288	-1.48133
1.65330	2.06425
0.96476	-0.84363
0.32721	-0.86914
1.44929	1.12046
-0.10631	-0.12942
-0.36133	0.43176
1.47479	0.55929
0.63323	0.32972
-0.00431	0.22769
0.25071	0.83988
-0.56534	-1.07320
-0.10631	0.04914
-0.10631	-0.18043
0.04670	1.52859
0.02119	-0.12942
0.07220	0.27871
-0.02981	1.22250
-0.25932	-2.01699
0.02119	-0.18043
0.22521	0.96742
0.32721	0.86539
0.48022	-0.33348
0.70974	-1.22625
0.50573	-0.46102
-0.66735	1.12046
-0.46334	1.35003
0.63323	1.24800
0.60773	-1.63437
0.76074	-0.76711
0.53123	0.02363
0.30171	2.37034
0.02119	-1.81293
-0.48884	2.21730
-0.79486	-1.60887
0.76074	0.04914
-1.07538	2.59991
-0.20832	0.38074
0.65874	-0.02739
0.99026	0.58480
1.72980	0.91640
1.16877	0.71234
-2.73298	-1.83844
-2.60547	-1.17523
-0.46334	-0.25695
1.52579	0.91640
2.16333	1.32453
1.39828	-0.00188
0.22521	-2.80773
-0.08081	0.22769
-0.25932	1.14597
0.55673	-0.33348
0.25071	1.17148
-0.56534	0.40625
-0.36133	0.48277
0.12320	0.43176
-0.13181	0.48277
-0.23382	1.37554
0.14870	0.40625
0.22521	-3.34339
0.37822	1.17148
0.45472	0.76336
0.58223	0.78886
-0.56534	-0.12942
-0.71835	-0.05289
0.53123	-0.38449
0.37822	-0.30797
0.86275	-0.10391
0.09770	1.63062
0.27621	-2.29757
0.37822	1.68163
0.68424	-0.30797
0.60773	1.24800
0.42922	1.75816
-0.20832	-2.83324
-1.12638	0.61031
-1.33039	-0.18043
0.25071	0.99292
1.01576	0.99292
0.48022	-0.12942
0.27621	1.14597
0.14870	-0.66508
1.04126	0.27871
1.70430	0.91640
-0.71835	0.50828
-2.93700	-0.94566
-1.45790	-2.85874
0.58223	0.71234
1.88281	0.40625
1.62780	0.89089
0.99026	0.32972
0.58223	4.00284
-0.10631	0.50828
0.35272	-1.37929
-0.48884	-1.40480
-1.02437	0.48277
0.09770	0.76336
0.40372	0.50828
0.40372	-0.15492
0.53123	-1.09871
0.07220	-1.63437
-0.20832	2.31933
-0.13181	0.07465
-0.20832	0.63582
0.32721	-2.37410
0.78624	2.19179
0.40372	1.55410
0.35272	1.01843
0.32721	-1.58336
0.02119	0.30422
0.02119	0.32972
0.07220	0.55929
-0.23382	0.12566
0.22521	-0.15492
-0.41233	-1.17523
-0.33583	0.61031
-0.28482	0.63582
0.88825	-2.50164
0.68424	0.89089
1.01576	-0.10391
1.34728	0.61031
-0.56534	0.48277
-1.22839	0.22769
0.65874	0.61031
-0.48884	0.91640
-0.05531	0.83988
0.65874	-0.28246
-0.31033	0.07465
0.09770	-0.30797
0.63323	-0.05289
0.70974	-1.65988
0.42922	-2.39961
-1.45790	1.14597
-0.38683	2.19179
0.42922	1.78367
0.25071	0.07465
0.53123	1.63062
0.68424	1.27351
0.32721	-3.95558
0.42922	0.20219
0.27621	0.10015
0.09770	0.22769
-0.13181	0.45726
-0.31033	0.53379
-0.00431	2.37034
0.09770	-1.96597
0.32721	-2.27207
-0.56534	0.96742
-0.48884	1.78367
0.68424	0.81437
0.63323	-1.83844
0.81175	-1.14973
-0.41233	1.88570
0.55673	-0.38449
0.27621	0.32972
-0.51434	0.68683
-0.00431	0.91640
0.63323	0.55929
0.60773	0.68683
0.48022	-1.65988
1.09226	1.19699
1.47479	-1.25176
-3.06450	0.17668
-4.39059	-1.53234
0.73524	0.99292
2.03582	0.02363
1.78081	0.15117
1.11776	-0.25695
0.55673	1.32453
0.53123	0.55929
-0.46334	0.78886
-0.36133	0.61031
0.07220	-0.58856
-0.02981	0.63582
0.55673	0.45726
-1.50890	-1.43031
-0.76936	0.63582
0.55673	-0.20594
0.60773	-0.46102
0.17421	-0.51203
0.22521	1.09496
0.27621	0.89089
1.14327	1.78367
1.44929	0.32972
-0.71835	-0.69059
-3.11551	2.44687
-0.41233	0.76336
1.42379	0.22769
1.34728	-6.07272
0.93925	0.66132
0.70974	1.55410
0.45472	0.83988
0.02119	1.14597
-0.00431	0.78886
-0.31033	0.61031
-0.25932	0.20219
-0.36133	-0.07840
-0.28482	-0.10391
0.09770	0.22769
0.22521	-2.29757
-0.02981	1.35003
0.25071	-1.99148
0.68424	0.96742
0.09770	0.96742
-0.87136	0.38074
-0.02981	0.50828
1.21977	-0.05289
0.30171	-0.12942
-0.13181	0.99292
0.70974	-0.81812
0.32721	0.94191
0.91375	1.29902
0.65874	0.71234
-1.45790	-1.37929
0.17421	-0.43551
-0.20832	0.45726
0.27621	0.81437
0.12320	-2.78222
0.27621	-0.41000
0.25071	1.57960
0.22521	0.38074
0.32721	1.17148
0.22521	0.55929
0.22521	0.73785
0.14870	-0.05289
0.50573	2.03874
0.32721	-2.09351
-0.33583	-0.56305
-1.38139	0.35523
-0.82036	-0.25695
0.73524	1.29902
0.88825	0.10015
0.99026	0.63582
0.53123	0.66132
-0.51434	0.25320
0.53123	-1.02219
0.60773	1.27351
0.35272	-1.25176
-0.43783	-2.09351
-0.33583	1.47757
0.78624	1.35003
0.22521	0.96742
-1.20288	0.99292
-0.10631	0.35523
0.86275	0.04914
1.01576	0.35523
0.37822	-0.56305
0.45472	0.07465
-0.36133	0.50828
-0.79486	-0.41000
-0.18282	-0.89465
0.37822	-0.51203
0.63323	1.19699
0.53123	1.17148
0.58223	0.25320
0.02119	1.42656
-0.18282	-2.80773
0.17421	-0.25695
0.73524	0.43176
0.07220	-1.88945
-1.35589	1.68163
-0.99887	2.14077
-0.23382	0.76336
0.81175	-0.99668
1.04126	1.52859
1.16877	0.10015
0.63323	-0.02739
0.22521	-0.10391
-0.28482	1.96222
-0.23382	-1.27726
0.32721	-0.92016
0.70974	1.01843
-0.66735	-1.35379
-0.00431	-1.68539
0.25071	1.01843
0.25071	-0.97117
0.45472	-0.56305
0.32721	0.81437
-0.76936	1.98773
0.14870	1.17148
0.60773	2.08976
0.30171	-1.45582
0.22521	-1.68539
0.30171	0.94191
0.14870	0.43176
0.22521	0.38074
0.22521	0.07465
-0.43783	0.12566
-0.23382	-0.56305
0.45472	-0.41000
0.73524	-0.15492
0.81175	-0.05289
-0.28482	0.53379
-0.25932	1.04394
0.83725	0.78886
-1.10088	-0.30797
-1.20288	0.04914
0.70974	0.63582
0.93925	0.12566
0.86275	0.38074
0.93925	0.32972
0.25071	-0.05289
-0.25932	-0.02739
-0.51434	-0.02739
-0.18282	0.25320
0.07220	-1.53234
0.02119	-0.71609
0.17421	0.55929
0.27621	0.35523
0.42922	0.27871
0.65874	0.55929
0.68424	0.99292
-1.76392	0.91640
-0.92237	1.35003
0.78624	-0.12942
0.48022	-0.12942
0.93925	1.06945
0.68424	1.17148
0.48022	-2.70570
-0.43783	1.50308
-0.61635	0.63582
0.19971	-0.02739
0.32721	0.32972
0.86275	-1.35379
-0.15732	0.38074
-0.33583	0.30422
0.07220	0.25320
0.42922	-2.75671
0.12320	0.94191
-0.25932	0.94191
0.42922	0.38074
0.45472	0.96742
0.30171	0.20219
0.27621	0.27871
0.04670	-1.32828
0.32721	0.91640
0.17421	0.43176
0.17421	0.50828
-0.20832	0.43176
-0.00431	-0.86914
0.04670	0.22769
0.12320	-0.33348
0.25071	-0.05289
0.22521	0.50828
0.12320	-0.28246
-0.08081	0.48277
-0.02981	0.02363
0.81175	0.02363
0.68424	0.50828
-0.02981	1.06945
-1.07538	-2.19554
-0.59084	0.35523
0.35272	0.15117
0.27621	1.78367
1.32178	1.14597
0.76074	-2.57816
0.88825	-1.96597
0.58223	0.91640
-0.51434	1.96222
-0.28482	0.73785
0.55673	1.09496
-1.22839	0.91640
-0.87136	-1.81293
1.01576	1.32453
0.73524	0.50828
0.53123	-0.30797
0.19971	0.48277
0.17421	0.48277
0.07220	-0.15492
0.07220	-0.53754
-0.13181	-1.73640
0.12320	0.99292
0.37822	1.60511
0.53123	-0.63957
-0.82036	-4.72081
-0.94787	1.83468
0.07220	1.24800
0.99026	1.45206
0.86275	1.45206
0.50573	0.99292
-0.84586	0.68683
-0.08081	0.25320
0.86275	-0.02739
0.45472	0.20219
0.32721	-0.79262
0.07220	-2.01699
0.22521	1.12046
0.07220	1.17148
-0.92237	-1.04770
-0.48884	-0.53754
0.30171	0.66132
0.55673	0.66132
0.68424	0.45726
0.04670	0.35523
0.04670	0.45726
0.19971	1.60511
0.02119	-0.69059
-0.38683	-4.18515
0.68424	-0.25695
0.68424	1.29902
-0.20832	1.73265
0.04670	1.63062
0.35272	1.17148
0.93925	0.68683
-0.05531	-2.34859
-0.33583	-0.56305
-0.25932	0.78886
0.09770	-0.48652
0.37822	0.55929
0.04670	0.32972
0.45472	0.32972
0.37822	0.15117
0.96476	0.20219
-0.69285	-0.28246
-1.50890	-0.25695
-0.18282	-0.51203
1.14327	1.22250
1.04126	-0.28246
1.06676	1.12046
-0.28482	0.10015
-0.46334	-0.69059
0.40372	-0.30797
0.45472	1.19699
-0.18282	-0.51203
-0.41233	0.53379
0.19971	0.68683
0.48022	0.94191
0.22521	0.38074
0.02119	0.07465
0.30171	0.20219
0.17421	-0.89465
0.19971	0.15117
0.04670	0.78886
0.25071	0.15117
0.09770	-0.61406
0.48022	0.10015
-0.99887	0.12566
-0.23382	0.30422
0.50573	0.38074
0.73524	0.73785
0.07220	0.27871
0.45472	-0.76711
0.68424	-0.63957
-0.53984	-0.02739
-1.04987	0.07465
1.09226	-1.65988
0.48022	0.91640
0.86275	1.63062
0.65874	0.07465
0.27621	-0.23145
0.25071	-0.23145
-0.13181	0.45726
-0.41233	0.63582
0.09770	0.30422
0.55673	0.35523
-0.08081	-1.04770
-1.12638	-1.37929
-0.05531	-0.46102
0.17421	0.58480
0.14870	1.29902
0.60773	-3.16484
0.88825	-1.25176
0.70974	2.75296
0.68424	1.29902
-0.25932	0.83988
-0.59084	-0.30797
0.14870	0.15117
0.53123	0.12566
0.50573	0.38074
0.45472	-0.51203
0.68424	-0.07840
0.81175	0.02363
-2.75848	-0.53754
-1.81492	0.68683
0.99026	-0.07840
1.34728	0.07465
0.02119	-0.12942
0.45472	0.48277
1.06676	0.22769
0.68424	-0.86914
0.42922	0.76336
-0.18282	0.04914
-0.15732	-0.18043
0.02119	0.76336
0.07220	1.68163
0.04670	-1.07320
-0.18282	-1.91496
0.19971	1.98773
0.12320	2.31933
0.32721	-1.94047
0.50573	0.96742
-0.31033	0.50828
-0.10631	0.63582
0.55673	0.22769
-0.69285	-1.58336
-0.31033	-0.38449
0.76074	0.48277
0.86275	0.27871
0.86275	1.04394
0.12320	0.12566
-0.05531	0.38074
-0.08081	-0.66508
0.04670	-0.15492
0.27621	0.81437
0.07220	-0.12942
0.22521	0.53379
-0.13181	1.93671
0.58223	-0.66508
-0.13181	-1.58336
-0.31033	0.45726
-1.10088	0.02363
-0.13181	1.27351
1.01576	0.86539
0.60773	0.63582
-0.28482	-0.92016
0.50573	0.12566
0.88825	0.45726
0.86275	0.73785
0.30171	-0.92016
-0.28482	0.25320
-0.08081	0.73785
0.35272	0.25320
-0.10631	-0.35899
-0.02981	-0.46102
0.22521	0.71234
0.17421	0.86539
-0.25932	-0.10391
-0.36133	0.38074
0.40372	-0.92016
0.48022	0.32972
-0.28482	0.96742
-0.13181	1.06945
0.48022	2.19179
0.50573	-4.69530
0.50573	-0.84363
0.12320	0.71234
0.25071	0.76336
0.30171	1.27351
-0.05531	1.88570
-0.36133	-2.06800
0.09770	0.61031
0.22521	-0.23145
0.19971	0.12566
-0.23382	0.02363
0.07220	0.38074
0.58223	1.01843
0.53123	0.20219
0.25071	-0.56305
0.78624	-0.71609
0.86275	-0.00188
-2.91149	0.96742
-1.58541	-1.25176
0.14870	-0.15492
1.39828	0.86539
1.70430	0.86539
1.16877	0.43176
0.42922	0.15117
0.09770	0.35523
0.22521	0.35523
-0.25932	0.10015
-0.28482	-0.33348
-0.00431	-1.73640
-0.08081	1.32453
-0.13181	1.42656
-0.00431	0.61031
0.02119	0.48277
0.19971	-0.86914
0.27621	1.40105
0.17421	-0.86914
0.25071	-1.37929
0.42922	1.17148
0.40372	-0.71609
-0.20832	1.37554
-0.18282	-0.05289
-0.33583	-0.23145
0.50573	1.68163
0.45472	1.19699
0.50573	0.91640
0.70974	-0.00188
0.45472	-0.15492
-0.48884	-0.05289
0.07220	-0.30797
0.42922	-0.30797
-0.48884	-0.81812
0.02119	0.04914
0.30171	-0.38449
-0.28482	0.20219
0.37822	0.40625
0.30171	0.45726
0.35272	0.76336
0.60773	-0.53754
0.30171	0.76336
-0.69285	-1.30277
-0.74385	1.93671
-0.15732	-0.15492
0.63323	-0.12942
0.78624	0.86539
0.65874	1.17148
0.53123	0.25320
0.45472	0.45726
-0.43783	0.73785
-0.48884	0.25320
0.27621	-0.66508
0.65874	-1.07320
0.45472	0.17668
0.14870	-0.15492
-0.99887	0.04914
-0.31033	0.17668
0.32721	0.22769
0.73524	0.02363
0.58223	0.30422
0.42922	0.40625
0.30171	-0.00188
0.25071	0.15117
0.09770	1.04394
0.04670	-0.05289
-0.08081	0.07465
0.04670	-3.24136
-0.33583	1.14597
0.37822	0.02363
0.50573	1.68163
-0.74385	0.55929
-0.05531	-0.12942
0.55673	1.27351
0.40372	0.07465
0.12320	-0.99668
0.48022	0.22769
0.55673	0.43176
0.17421	-0.46102
0.35272	1.37554
0.30171	-0.76711
0.58223	0.45726
-0.79486	1.14597
-1.73842	-0.35899
-0.53984	-0.89465
0.93925	0.17668
0.60773	0.86539
0.78624	0.12566
0.78624	-0.76711
0.81175	0.68683
-0.48884	-1.07320
-0.23382	-1.88945
0.12320	1.70714
0.19971	1.14597
0.48022	0.81437
0.25071	-0.25695
0.53123	0.61031
-0.25932	-0.25695
-1.02437	-0.15492
-0.02981	0.71234
0.55673	0.78886
0.91375	0.15117
0.55673	-1.17523
-0.25932	0.38074
0.09770	0.38074
0.45472	-1.14973
0.12320	0.53379
-0.05531	0.83988
0.07220	1.04394
-0.00431	0.43176
0.17421	-1.81293
0.27621	0.63582
0.14870	0.55929
0.22521	1.68163
0.32721	-1.25176
0.12320	0.66132
0.04670	-0.05289
-0.25932	1.27351
0.04670	0.25320
0.14870	0.50828
0.19971	-5.38401
0.25071	1.45206
0.14870	1.42656
0.17421	0.91640
0.22521	0.38074
0.35272	0.81437
0.32721	0.43176
-0.71835	0.48277
-0.61635	-3.21585
0.68424	0.38074
0.76074	0.53379
0.55673	0.71234
-0.00431	1.04394
0.42922	0.50828
-0.15732	0.32972
-0.10631	0.32972
-0.08081	0.15117
-0.41233	-1.30277
0.22521	0.38074
0.83725	-0.53754
0.55673	0.50828
0.25071	0.43176
-0.15732	0.04914
-0.00431	1.17148
0.09770	1.73265
-0.61635	-1.17523
-0.43783	-0.12942
0.55673	-0.76711
0.63323	-0.23145
0.58223	1.06945
0.07220	0.96742
-0.13181	-0.43551
0.25071	0.10015
0.35272	-0.61406
-0.74385	1.19699
-0.08081	0.61031
0.37822	0.15117
0.73524	-1.37929
0.76074	-1.35379
0.32721	0.99292
0.07220	1.52859
-0.53984	0.89089
-0.08081	1.24800
0.50573	-0.58856
0.25071	-0.58856
0.27621	0.12566
-0.61635	0.35523
-0.41233	0.22769
0.48022	-0.69059
0.68424	1.42656
0.65874	-2.22105
0.60773	0.30422
0.12320	0.55929
0.04670	0.91640
-0.08081	1.50308
0.14870	-3.36890
0.09770	-0.53754
-0.31033	1.37554
-0.00431	0.50828
0.22521	0.43176
-0.43783	0.43176
0.27621	0.15117
0.50573	0.12566
0.53123	0.61031
0.22521	0.15117
0.32721	0.04914
0.37822	-0.48652
0.27621	0.45726
0.30171	-0.76711
0.12320	-0.61406
-0.76936	0.81437
-1.10088	0.53379
0.55673	1.55410
0.93925	1.27351
0.53123	-1.12422
0.37822	-0.56305
0.02119	0.04914
0.09770	0.76336
0.22521	0.53379
0.12320	0.25320
0.45472	-0.69059
0.50573	0.83988
-0.99887	0.02363
-0.59084	-0.02739
0.30171	-0.20594
0.40372	1.17148
0.42922	-1.65988
0.35272	0.61031
0.45472	0.17668
0.12320	0.27871
0.27621	1.45206
0.19971	0.40625
-0.05531	-0.79262
-0.13181	0.20219
0.04670	0.12566
0.25071	0.25320
0.42922	0.35523
0.27621	0.43176
-0.33583	0.07465
-0.08081	0.15117
0.12320	1.40105
0.12320	-1.99148
0.27621	-1.88945
0.17421	1.52859
0.42922	0.94191
0.78624	-2.06800
-0.20832	0.30422
-0.53984	0.94191
-0.08081	1.09496
0.58223	0.71234
0.73524	0.30422
-0.20832	0.43176
-0.56534	0.32972
0.58223	0.91640
0.68424	-1.48133
0.93925	-1.17523
0.60773	-0.48652
-2.47797	1.55410
-1.17738	0.30422
1.16877	0.35523
1.09226	-0.79262
0.81175	0.35523
0.32721	1.57960
0.53123	-1.55785
-0.00431	0.35523
-0.13181	0.27871
0.19971	1.70714
-0.00431	-0.51203
0.07220	0.66132
0.09770	0.12566
0.09770	-1.40480
-0.02981	0.35523
0.09770	1.06945
0.12320	0.22769
0.32721	-0.46102
0.12320	-0.99668
0.04670	0.04914
-0.05531	0.61031
0.30171	0.30422
0.48022	0.99292
0.50573	-0.92016
0.42922	-0.53754
-0.10631	0.30422
-0.43783	-0.41000
0.30171	0.43176
0.17421	0.81437
-0.79486	0.78886
-0.28482	-0.12942
1.04126	0.35523
0.91375	0.68683
0.83725	-0.66508
0.25071	0.27871
-0.61635	-0.86914
-0.61635	-0.69059
0.25071	0.48277
0.50573	-0.28246
0.42922	0.45726
0.32721	0.35523
0.17421	-0.84363
0.25071	0.25320
-0.74385	0.55929
-0.48884	0.40625
0.30171	0.50828
0.53123	0.45726
0.45472	-0.10391
0.32721	-0.38449
0.19971	0.53379
0.02119	0.38074
0.14870	0.45726
0.12320	-1.40480
0.19971	-0.46102
-0.02981	-2.09351
0.12320	2.03874
-0.02981	1.12046
0.40372	0.07465
0.04670	1.17148
0.19971	0.53379
0.30171	-0.41000
0.04670	0.15117
0.12320	1.70714
-0.00431	-0.71609
0.32721	-0.76711
0.09770	-0.61406
0.14870	0.07465
0.42922	0.07465
0.81175	-0.15492
-0.28482	-0.02739
-1.04987	0.66132
-0.64185	0.20219
0.55673	0.45726
0.96476	-1.20074
0.78624	1.12046
1.01576	0.86539
0.65874	1.96222
-0.76936	-2.39961
-1.10088	-1.30277
-0.51434	-1.02219
0.91375	1.29902
0.83725	1.37554
0.30171	-0.05289
0.04670	1.75816
0.04670	0.91640
0.25071	1.19699
0.17421	-0.58856
0.12320	-0.28246
-0.02981	-0.46102
0.07220	-0.89465
0.42922	-0.28246
-0.18282	0.68683
-0.51434	-1.58336
0.07220	0.55929
0.60773	0.43176
0.48022	0.32972
0.32721	0.07465
0.14870	0.43176
0.32721	0.25320
-0.05531	0.45726
0.22521	0.10015
0.02119	0.20219
0.07220	0.55929
0.09770	0.81437
0.12320	0.40625
0.30171	0.07465
0.19971	0.35523
0.73524	-1.81293
0.60773	-1.94047
-1.33039	1.01843
-1.50890	1.57960
0.12320	1.17148
0.60773	0.45726
0.91375	-0.35899
0.91375	0.91640
0.60773	0.45726
0.27621	0.45726
0.22521	-0.56305
0.17421	0.40625
-0.18282	0.55929
-0.02981	-1.37929
0.25071	0.55929
0.04670	0.50828
-0.66735	0.04914
-0.59084	-0.00188
-0.00431	0.96742
0.45472	-2.47613
0.50573	0.35523
0.83725	0.12566
0.14870	1.22250
-0.48884	1.19699
-0.02981	-0.12942
0.35272	-0.43551
0.53123	0.89089
0.12320	-0.05289
-0.18282	0.58480
0.17421	-2.17003
0.48022	-0.15492
0.42922	1.01843
0.19971	1.65613
-0.74385	-0.71609
0.07220	-0.07840
0.58223	0.61031
0.42922	0.66132
0.22521	-0.33348
0.22521	-0.51203
-0.15732	-0.15492
0.02119	0.86539
-0.33583	0.50828
-0.31033	0.43176
0.42922	0.02363
0.35272	-0.86914
0.32721	0.96742
0.37822	0.32972
0.22521	-1.27726
0.63323	-0.10391
-0.28482	0.86539
-0.84586	0.81437
-0.38683	-1.25176
0.40372	-0.28246
0.68424	0.71234
0.68424	1.17148
0.58223	0.17668
0.27621	-0.25695
0.02119	0.86539
-0.02981	-0.86914
-0.10631	0.45726
-0.41233	-1.04770
-0.28482	0.55929
0.35272	0.66132
0.53123	-0.35899
0.58223	0.15117
0.50573	-0.66508
0.30171	0.10015
0.30171	1.19699
-0.87136	-0.07840
-0.00431	0.38074
0.40372	0.30422
0.45472	0.12566
-0.05531	0.25320
0.22521	0.25320
-0.02981	0.58480
0.35272	-0.18043
0.04670	0.27871
0.07220	-0.12942
0.53123	0.02363
0.35272	-0.33348
0.19971	0.17668
0.19971	0.58480
0.37822	0.02363
0.02119	-2.70570
-0.00431	0.83988
-0.25932	0.96742
-0.00431	-0.53754
0.25071	1.09496
0.22521	0.32972
0.42922	1.37554
0.30171	-0.15492
0.22521	-1.30277
-0.10631	-0.53754
-0.00431	-0.15492
0.04670	1.19699
0.53123	0.25320
0.58223	0.66132
0.19971	1.09496
-1.04987	-0.74160
-0.43783	0.20219
1.09226	0.20219
1.24527	0.22769
-0.02981	0.68683
-0.74385	-0.10391
-0.76936	-0.30797
0.53123	-1.53234
0.68424	0.50828
0.30171	-0.46102
0.50573	0.30422
0.22521	0.76336
0.17421	1.73265
0.22521	0.35523
0.04670	-0.05289
-0.08081	-0.51203
-0.02981	0.86539
0.02119	-1.53234
0.12320	0.22769
-0.00431	0.40625
-0.00431	1.40105
0.19971	0.07465
0.19971	-2.09351
0.22521	0.91640
0.30171	0.07465
0.07220	1.65613
0.02119	-0.05289
-0.33583	0.91640
0.17421	1.24800
0.78624	0.35523
0.27621	-0.12942
0.30171	-0.18043
0.65874	-0.56305
0.22521	-0.58856
-0.28482	-0.20594
0.12320	0.04914
0.02119	-0.20594
0.14870	0.10015
0.27621	-0.35899
0.30171	0.71234
0.32721	0.35523
-0.15732	0.25320
0.09770	-0.02739
-0.43783	0.04914
-1.12638	-0.97117
0.88825	0.55929
0.65874	1.93671
0.35272	-0.43551
-0.13181	-0.74160
0.58223	-0.81812
0.27621	0.55929
0.48022	0.35523
-0.00431	1.78367
-0.13181	0.76336
0.50573	0.27871
0.22521	-1.22625
-0.18282	0.63582
-0.08081	-1.17523
-0.20832	0.35523
0.30171	0.12566
0.63323	0.38074
-0.25932	0.78886
0.02119	1.09496
0.14870	-1.25176
0.22521	0.27871
0.68424	0.30422
0.45472	0.30422
0.60773	-1.20074
-0.66735	0.50828
-1.07538	-1.35379
0.37822	-0.94566
0.83725	0.96742
0.76074	-0.58856
0.58223	1.57960
0.27621	1.04394
-0.94787	1.32453
-0.53984	0.66132
0.48022	0.25320
0.68424	-1.20074
0.42922	0.91640
0.35272	0.10015
0.22521	-0.86914
0.17421	-0.05289
-0.33583	0.02363
-0.25932	0.89089
-0.20832	-0.05289
0.02119	-0.35899
0.63323	0.22769
0.48022	0.32972
-0.28482	0.40625
0.48022	0.45726
0.70974	-0.05289
-0.08081	-0.71609
0.70974	0.45726
-0.02981	-0.43551
-1.07538	-0.00188
-0.82036	0.15117
0.55673	0.53379
0.83725	1.12046
0.88825	1.55410
0.48022	-0.66508
0.58223	-0.02739
0.50573	0.10015
0.25071	0.43176
-1.02437	-0.20594
-0.87136	0.63582
0.17421	-1.20074
0.50573	-0.53754
0.32721	-0.92016
0.37822	1.55410
0.22521	0.17668
-0.28482	-0.92016
0.02119	1.50308
0.45472	1.17148
0.22521	-0.18043
0.32721	-0.15492
0.27621	0.32972
0.32721	0.04914
0.09770	1.42656
0.04670	1.09496
0.32721	0.73785
-0.02981	-3.52195
-0.18282	0.63582
-0.00431	0.48277
0.45472	0.04914
0.25071	-0.79262
0.53123	-0.66508
0.04670	0.30422
-0.20832	1.17148
-0.56534	1.22250
-0.51434	-0.20594
0.37822	-0.05289
0.91375	0.20219
0.25071	-0.30797
0.19971	-0.35899
0.50573	0.17668
0.42922	1.04394
0.50573	0.32972
0.27621	-0.05289
-0.97337	-0.46102
-0.33583	0.30422
-0.43783	0.61031
0.22521	0.76336
0.53123	-0.63957
0.60773	-1.17523
0.42922	-1.45582
0.19971	0.81437
0.14870	1.55410
0.42922	1.22250
-0.02981	0.86539
-0.74385	1.96222
-0.23382	-1.65988
0.37822	0.07465
0.63323	0.45726
0.53123	0.99292
0.53123	-0.99668
-0.28482	-0.81812
0.22521	-0.02739
0.25071	-0.51203
0.02119	0.89089
-0.00431	0.71234
0.14870	0.07465
0.07220	0.30422
0.32721	0.40625
0.12320	0.66132
0.07220	-0.92016
0.09770	-0.76711
0.22521	1.19699
0.17421	-0.51203
0.58223	0.68683
0.25071	0.58480
0.14870	0.61031
-0.31033	0.53379
-0.20832	0.30422
0.14870	-1.25176
0.30171	-1.17523
0.78624	1.14597
-0.36133	-0.33348
-1.20288	0.22769
-0.15732	0.94191
1.19427	0.38074
0.83725	0.27871
0.55673	-0.69059
0.35272	0.40625
0.37822	1.01843
-0.02981	-0.43551
-0.05531	-0.86914
0.07220	0.45726
0.22521	1.01843
-0.38683	-0.53754
-0.61635	-0.97117
-0.51434	-0.41000
0.35272	0.99292
0.63323	0.89089
0.78624	0.15117
0.04670	0.38074
-0.00431	-3.06281
-0.08081	0.94191
0.27621	1.70714
0.53123	1.40105
0.48022	-0.63957
0.35272	-0.99668
0.12320	-0.48652
0.04670	0.63582
0.04670	0.68683
-0.28482	0.27871
0.32721	0.35523
0.48022	-0.23145
-0.02981	0.27871
-0.74385	0.35523
-0.76936	-0.28246
0.12320	-0.20594
0.86275	-0.43551
0.88825	0.76336
0.42922	-1.68539
0.25071	0.15117
0.25071	0.91640
0.14870	0.30422
-0.13181	0.76336
-0.05531	-0.76711
0.19971	1.17148
0.48022	-0.23145
-1.02437	0.71234
-1.02437	-0.00188
0.76074	1.40105
1.16877	-1.27726
0.35272	-2.01699
0.37822	1.80917
0.45472	1.50308
-0.15732	0.53379
-0.10631	-1.58336
0.42922	0.43176
-0.51434	0.71234
-0.33583	0.55929
0.19971	0.61031
0.40372	-0.48652
0.42922	-0.25695
0.45472	-0.69059
0.45472	0.89089
0.22521	0.86539
0.12320	-1.30277
-0.15732	0.68683
-0.69285	-0.07840
-0.25932	0.35523
0.35272	0.25320
0.35272	0.45726
0.48022	0.17668
0.45472	-0.00188
0.40372	0.66132
0.25071	0.27871
-0.13181	0.35523
0.25071	-3.29238
-0.41233	-0.66508
0.07220	0.02363
0.19971	1.52859
0.30171	1.24800
0.32721	1.42656
0.25071	0.20219
-0.10631	-1.53234
0.25071	0.22769
-0.38683	0.35523
0.04670	0.38074
-0.25932	0.20219
0.50573	0.38074
0.93925	0.15117
0.63323	-0.76711
0.30171	0.61031
0.22521	0.76336
0.27621	-0.61406
-0.05531	-0.33348
-0.23382	-0.23145
-0.41233	0.63582
0.07220	-0.00188
0.07220	0.45726
-0.28482	1.40105
-0.25932	-0.43551
0.63323	-1.76191
0.53123	1.37554
0.48022	0.96742
0.53123	-1.48133
0.35272	0.78886
0.25071	1.06945
0.12320	0.45726
0.12320	0.25320
-0.13181	-0.51203
-0.02981	0.10015
0.02119	-0.25695
0.02119	0.25320
-0.00431	0.10015
0.19971	0.35523
0.22521	0.02363
0.32721	0.50828
0.37822	0.83988
-0.25932	-0.92016
-0.08081	-1.88945
0.19971	0.17668
0.42922	1.40105
-0.46334	0.53379
-0.36133	1.78367
0.48022	-2.22105
1.19427	-0.38449
0.65874	1.40105
0.78624	0.10015
0.02119	0.89089
-0.13181	0.55929
0.04670	0.89089
-0.02981	-0.33348
0.12320	-0.43551
0.02119	0.27871
-0.18282	0.45726
0.12320	0.50828
0.19971	-0.38449
0.19971	-0.56305
-0.46334	-1.73640
-0.51434	0.91640
0.55673	2.11527
0.73524	-0.86914
-0.28482	-1.83844
0.19971	0.48277
0.63323	0.99292
0.17421	1.14597
0.25071	0.66132
0.27621	0.25320
0.48022	-0.00188
0.17421	-0.15492
0.27621	-0.30797
-0.02981	0.58480
-0.48884	1.35003
-0.20832	-0.46102
0.04670	-2.50164
-0.31033	-0.79262
0.40372	0.81437
0.55673	0.96742
0.78624	0.76336
0.32721	1.45206
-0.53984	-0.05289
-0.94787	-1.20074
0.32721	1.22250
1.32178	0.63582
0.50573	-1.20074
-0.28482	0.40625
-0.31033	-0.20594
1.21977	0.02363
0.30171	-0.61406
-1.50890	0.76336
-0.08081	1.06945
0.81175	0.22769
0.70974	-0.05289
0.50573	-0.23145
0.27621	1.04394
0.12320	0.86539
-0.15732	0.45726
-0.20832	-2.93527
0.07220	0.27871
0.25071	1.19699
0.22521	0.40625
0.14870	-0.86914
0.40372	0.71234
-0.84586	0.58480
-0.43783	-0.74160
0.73524	0.30422
0.45472	0.63582
0.63323	-0.89465
0.70974	0.32972
0.99026	0.22769
-0.74385	1.17148
-1.50890	0.17668
0.27621	-0.33348
0.63323	-1.63437
0.81175	0.58480
0.30171	0.40625
0.07220	1.27351
0.53123	-0.46102
0.37822	0.50828
-0.23382	-1.99148
-0.79486	0.50828
0.09770	0.50828
0.93925	1.42656
0.78624	1.32453
-0.66735	-0.38449
-0.66735	-0.05289
0.53123	-0.10391
0.42922	0.35523
0.22521	0.45726
-0.08081	0.66132
-0.05531	-0.05289
0.12320	0.07465
0.60773	-0.61406
0.22521	0.94191
-0.18282	-1.81293
-0.10631	0.22769
0.30171	0.81437
0.42922	-0.30797
0.22521	0.63582
0.42922	0.45726
-0.08081	0.73785
-0.05531	0.48277
0.12320	1.12046
0.37822	-3.21585
-0.59084	-0.48652
-0.56534	0.96742
0.68424	1.29902
0.68424	0.53379
0.60773	-0.76711
0.27621	-0.61406
0.45472	1.88570
0.60773	-2.45062
-0.99887	0.99292
-0.71835	0.35523
0.48022	-0.00188
0.35272	0.83988
0.30171	0.17668
0.17421	0.35523
0.12320	0.66132
0.70974	-1.20074
0.12320	-0.02739
-0.28482	0.50828
-0.15732	0.17668
0.65874	-0.18043
-0.00431	-0.56305
-0.64185	0.20219
-0.20832	0.07465
0.73524	0.35523
1.16877	0.76336
-0.28482	1.04394
0.27621	-0.28246
-0.31033	-0.63957
0.30171	-0.46102
0.48022	-0.25695
0.81175	1.40105
-0.18282	0.07465
-1.10088	1.12046
0.07220	0.04914
0.58223	0.12566
0.53123	0.86539
0.12320	-1.09871
0.12320	0.12566
0.17421	0.55929
0.27621	0.50828
-0.66735	-0.12942
-0.28482	0.22769
0.60773	-0.02739
0.09770	0.35523
-0.02981	0.73785
0.50573	-1.17523
0.76074	0.20219
0.42922	0.96742
0.32721	0.78886
0.17421	1.29902
-0.02981	-0.41000
-0.05531	-1.40480
0.07220	-1.17523
0.14870	1.57960
-0.02981	0.58480
0.04670	1.37554
0.02119	-0.38449
0.27621	-0.23145
0.19971	0.50828
-0.02981	0.53379
-0.41233	-0.15492
0.14870	-1.35379
0.25071	0.35523
0.19971	0.61031
0.63323	0.83988
0.19971	0.25320
-0.05531	0.20219
0.48022	-0.02739
1.09226	0.02363
-1.45790	0.04914
-0.41233	-0.05289
0.25071	-0.76711
0.45472	0.94191
0.93925	0.40625
0.63323	-0.58856
0.37822	-0.02739
0.14870	-0.97117
0.25071	0.89089
0.09770	1.06945
-0.18282	0.89089
-0.28482	0.89089
-0.25932	-0.86914
-0.10631	0.20219
-0.02981	0.12566
0.25071	0.63582
0.04670	-0.66508
-0.10631	0.10015
0.45472	0.35523
0.60773	-0.33348
0.50573	0.30422
0.40372	-0.46102
-0.53984	0.73785
-0.13181	0.40625
0.48022	-0.00188
0.70974	-1.14973
0.45472	-0.56305
0.07220	-0.46102
-0.33583	1.17148
0.07220	1.06945
0.19971	0.68683
-0.13181	0.07465
-0.15732	0.45726
0.32721	0.22769
0.02119	-0.28246
0.37822	0.02363
0.02119	-0.10391
-0.31033	1.04394
0.27621	-1.65988
0.65874	0.66132
0.22521	-0.20594
0.30171	0.30422
0.09770	-0.05289
0.09770	0.25320
0.32721	-0.79262
0.22521	0.76336
0.12320	0.96742
-0.89686	0.15117
-0.51434	-0.48652
0.42922	0.76336
0.68424	-1.35379
0.58223	-1.07320
0.65874	1.32453
0.53123	0.99292
-0.18282	1.37554
-0.46334	0.02363
0.19971	-0.00188
-0.10631	-1.73640
0.30171	0.89089
0.48022	0.30422
0.19971	0.07465
0.22521	0.86539
-0.05531	-0.66508
0.04670	0.04914
0.07220	0.43176
0.32721	0.32972
0.14870	0.30422
0.42922	0.66132
-0.20832	-0.51203
-0.87136	-1.25176
0.37822	-0.84363
0.65874	1.22250
0.63323	-0.38449
0.35272	0.38074
0.02119	0.25320
0.14870	0.96742
-0.36133	0.43176
0.02119	0.25320
0.22521	0.22769
0.25071	-0.00188
0.27621	-0.84363
0.30171	0.17668
0.40372	0.83988
-0.48884	0.78886
-0.23382	0.20219
0.42922	-0.00188
0.32721	-0.02739
-0.08081	0.38074
-0.02981	0.43176
0.32721	0.04914
0.30171	-0.81812
0.30171	1.14597
0.17421	0.53379
0.17421	-0.20594
0.04670	-0.05289
0.14870	0.15117
0.27621	-0.38449
0.35272	0.66132
0.19971	0.35523
-0.79486	0.61031
-0.66735	0.40625
0.58223	0.38074
0.73524	0.04914
0.48022	-0.05289
0.12320	-0.48652
0.17421	0.12566
0.27621	0.17668
0.12320	0.45726
0.35272	-0.20594
0.02119	-1.48133
-0.79486	0.32972
-0.41233	0.43176
0.78624	0.89089
0.50573	0.78886
0.12320	-0.38449
0.35272	0.22769
0.02119	1.60511
0.19971	-0.07840
0.42922	-0.86914
0.55673	0.15117
-0.20832	1.06945
-0.46334	0.10015
0.04670	0.22769
0.45472	0.22769
0.30171	0.12566
0.50573	-1.02219
0.19971	0.66132
-0.23382	0.04914
0.04670	-1.25176
0.25071	0.91640
0.30171	0.73785
0.12320	0.55929
0.12320	0.04914
0.12320	-0.56305
0.07220	0.66132
0.22521	0.61031
0.17421	0.40625
0.73524	-0.18043
-0.31033	-0.69059
-1.76392	-0.81812
-0.38683	0.83988
1.19427	0.55929
1.04126	1.14597
0.88825	-0.66508
0.45472	0.81437
0.30171	0.99292
-0.18282	-0.84363
0.27621	-0.33348
-0.23382	0.94191
0.02119	0.55929
0.09770	0.32972
0.19971	0.66132
-0.20832	-1.07320
0.07220	0.12566
0.48022	0.38074
0.40372	0.12566
-0.51434	0.07465
-0.82036	-0.23145
-0.92237	0.38074
0.83725	0.55929
1.16877	0.73785
0.42922	0.48277
1.14327	-0.81812
-0.28482	-1.68539
-0.61635	0.10015
0.65874	1.40105
0.22521	1.52859
0.63323	0.43176
0.53123	-2.17003
-0.20832	0.76336
-0.08081	1.17148
-0.92237	0.78886
-1.20288	0.04914
0.27621	-0.66508
1.21977	1.37554
0.70974	0.35523
0.07220	-1.86394
-0.51434	0.55929
0.37822	0.99292
1.29628	-1.68539
1.11776	1.12046
-0.31033	-0.66508
-1.50890	0.02363
-0.59084	0.78886
0.63323	1.37554
0.86275	-0.63957
0.60773	0.81437
0.27621	0.04914
0.32721	0.55929
-0.15732	0.40625
0.04670	0.20219
-0.00431	0.10015
-0.05531	0.53379
-0.00431	-1.02219
0.25071	-0.56305
0.25071	0.12566
0.35272	0.48277
0.12320	-0.00188
