0.14870	0.25320
0.12320	0.17668
0.14870	0.15117
0.12320	0.07465
0.22521	0.17668
0.07220	-0.00188
0.22521	0.20219
0.04670	0.12566
0.12320	0.22769
0.12320	0.12566
0.22521	0.25320
0.09770	0.15117
0.14870	0.17668
0.14870	0.10015
0.22521	0.10015
0.09770	0.15117
0.14870	0.02363
0.12320	0.22769
0.12320	0.10015
0.19971	0.17668
0.12320	0.22769
0.22521	0.12566
0.07220	0.22769
0.12320	0.02363
0.19971	0.10015
0.07220	0.10015
0.12320	0.04914
0.14870	0.20219
0.12320	0.20219
0.19971	0.22769
0.12320	0.22769
0.12320	0.10015
0.22521	0.22769
0.09770	0.12566
0.22521	0.10015
0.12320	0.15117
0.14870	0.02363
0.19971	0.17668
0.09770	0.17668
0.12320	0.20219
0.14870	0.30422
0.07220	0.22769
0.22521	0.15117
0.14870	0.20219
0.14870	0.02363
0.22521	0.04914
0.17421	0.17668
0.12320	0.10015
0.12320	0.17668
0.04670	0.17668
0.14870	0.15117
0.17421	0.25320
0.09770	0.17668
0.22521	0.12566
0.14870	0.15117
0.14870	0.02363
0.22521	0.12566
0.07220	0.04914
0.19971	0.17668
0.07220	0.07465
0.17421	0.20219
0.12320	0.20219
0.17421	0.10015
0.12320	0.15117
0.09770	0.04914
0.19971	0.17668
0.09770	0.17668
0.14870	0.10015
0.17421	0.22769
0.14870	0.12566
0.12320	0.20219
0.07220	0.22769
0.22521	0.07465
0.12320	0.15117
0.14870	0.10015
0.22521	0.10015
0.14870	0.17668
0.12320	0.12566
0.14870	0.17668
0.14870	0.17668
0.19971	0.10015
0.07220	0.17668
0.12320	0.15117
0.19971	0.07465
0.04670	0.22769
0.14870	0.10015
0.17421	0.12566
0.07220	0.20219
0.22521	0.12566
0.14870	0.17668
0.09770	0.30422
0.19971	0.12566
0.14870	0.20219
0.14870	0.04914
0.17421	0.12566
0.14870	-0.05289
0.12320	0.10015
0.07220	0.12566
0.17421	0.20219
0.14870	0.25320
0.14870	0.25320
0.14870	0.25320
0.17421	0.10015
0.19971	0.17668
0.04670	-0.00188
0.19971	0.04914
0.09770	0.10015
0.12320	0.02363
0.17421	0.20219
0.07220	0.27871
0.17421	0.22769
0.22521	0.10015
0.14870	0.15117
0.09770	0.17668
0.14870	0.07465
0.22521	0.07465
0.14870	0.17668
0.12320	0.15117
0.25071	0.10015
0.17421	0.27871
0.12320	0.25320
0.19971	0.15117
0.14870	0.17668
0.12320	0.04914
0.22521	0.17668
0.12320	0.04914
0.17421	0.15117
0.14870	0.25320
0.07220	0.10015
0.22521	0.17668
0.07220	0.25320
0.14870	0.10015
0.14870	0.22769
0.14870	0.04914
0.12320	0.10015
0.12320	0.04914
0.17421	0.20219
0.09770	0.15117
0.12320	0.17668
0.12320	0.27871
0.14870	0.27871
0.17421	0.22769
0.14870	0.17668
0.19971	0.10015
0.14870	0.07465
0.12320	0.07465
0.14870	0.17668
0.14870	0.10015
0.19971	0.12566
0.09770	0.12566
0.19971	0.27871
0.07220	0.12566
0.22521	0.17668
0.07220	0.10015
0.22521	0.15117
0.12320	0.04914
0.17421	0.15117
0.14870	0.17668
0.14870	0.20219
0.17421	0.17668
0.14870	0.25320
0.14870	0.25320
0.14870	0.04914
0.22521	0.12566
0.09770	-0.02739
0.17421	0.02363
0.04670	0.15117
0.12320	0.12566
0.17421	0.25320
0.14870	0.12566
0.14870	0.17668
0.12320	0.17668
0.19971	0.10015
0.07220	0.10015
0.19971	0.04914
0.07220	0.12566
0.12320	0.15117
0.14870	0.22769
0.12320	0.30422
0.17421	0.22769
0.17421	0.25320
0.14870	0.15117
0.17421	0.10015
0.14870	0.12566
0.07220	0.02363
0.19971	0.15117
0.07220	0.10015
0.22521	0.15117
0.12320	0.17668
0.17421	0.20219
0.12320	0.30422
0.14870	0.10015
0.22521	0.20219
0.09770	0.04914
0.19971	0.07465
0.12320	0.15117
0.14870	0.12566
0.14870	0.22769
0.17421	0.10015
0.22521	0.20219
0.09770	0.10015
0.22521	0.25320
0.07220	0.10015
0.22521	0.17668
0.07220	-0.00188
0.19971	0.10015
0.17421	0.10015
0.12320	0.15117
0.14870	0.22769
0.12320	0.10015
0.14870	0.30422
0.17421	0.17668
0.17421	0.15117
0.07220	0.12566
0.19971	0.15117
0.09770	0.07465
0.22521	0.10015
0.09770	0.22769
0.07220	0.07465
0.22521	0.20219
0.09770	0.12566
0.22521	0.25320
0.09770	0.10015
0.19971	0.10015
0.14870	0.10015
0.14870	0.02363
0.12320	0.12566
0.07220	0.25320
0.12320	0.15117
0.14870	0.22769
0.09770	0.20219
0.22521	0.10015
0.09770	0.22769
0.17421	0.15117
0.22521	0.12566
0.09770	0.15117
0.17421	0.04914
0.22521	0.10015
0.07220	0.17668
0.14870	0.20219
0.14870	0.25320
0.09770	0.20219
0.22521	0.10015
0.07220	0.17668
0.14870	0.15117
0.14870	0.10015
0.07220	0.17668
0.19971	0.04914
0.12320	0.22769
0.14870	0.12566
0.14870	0.25320
0.07220	0.22769
0.19971	0.10015
0.12320	0.20219
0.14870	0.04914
0.14870	0.17668
0.14870	0.07465
0.12320	0.15117
0.07220	0.15117
0.17421	0.22769
0.12320	0.27871
0.12320	0.12566
0.22521	0.10015
0.12320	0.12566
0.14870	-0.00188
0.14870	0.12566
0.14870	0.02363
0.12320	0.15117
0.04670	0.15117
0.22521	0.15117
0.12320	0.30422
0.14870	0.15117
0.17421	0.27871
0.09770	0.15117
0.22521	0.15117
0.12320	0.10015
0.14870	0.04914
0.22521	0.10015
0.07220	0.22769
0.22521	0.20219
0.17421	0.20219
0.07220	0.15117
0.17421	0.15117
0.12320	0.15117
0.07220	0.12566
0.22521	0.04914
0.14870	0.22769
0.14870	0.17668
0.22521	0.20219
0.14870	0.25320
0.14870	0.15117
0.19971	0.22769
0.07220	0.15117
0.14870	0.10015
0.12320	0.15117
0.14870	0.02363
0.14870	0.12566
0.12320	0.15117
0.12320	0.04914
0.19971	0.20219
0.07220	0.35523
0.14870	0.22769
0.12320	0.15117
0.07220	0.20219
0.22521	-0.00188
0.17421	-0.00188
0.12320	0.12566
0.22521	0.04914
0.07220	0.22769
0.12320	0.25320
0.19971	0.22769
0.09770	0.27871
0.19971	0.07465
0.12320	0.17668
0.12320	0.02363
0.17421	0.12566
0.12320	0.07465
0.22521	0.15117
0.07220	0.15117
0.19971	0.10015
0.07220	0.25320
0.12320	0.07465
0.22521	0.20219
0.07220	0.15117
0.19971	0.17668
0.14870	0.20219
0.14870	0.07465
0.25071	0.15117
0.07220	0.17668
0.12320	0.15117
0.14870	0.25320
0.09770	0.04914
0.19971	0.10015
0.04670	0.10015
0.14870	0.12566
0.17421	0.20219
0.14870	0.15117
0.22521	0.20219
0.07220	0.27871
0.14870	0.20219
0.22521	0.12566
0.17421	0.15117
0.09770	0.12566
0.19971	0.04914
0.07220	0.10015
0.09770	0.07465
0.17421	0.15117
0.22521	0.12566
0.07220	0.25320
0.12320	0.22769
0.19971	0.15117
0.14870	0.12566
0.14870	0.10015
0.22521	0.04914
0.14870	0.07465
0.07220	0.17668
0.19971	0.10015
0.14870	0.15117
0.07220	0.20219
0.14870	0.30422
0.19971	0.27871
0.14870	0.12566
0.09770	0.15117
0.09770	0.12566
0.27621	-0.00188
0.14870	0.07465
0.07220	0.17668
0.12320	0.15117
0.19971	0.12566
0.14870	0.15117
0.14870	0.15117
0.22521	0.10015
0.07220	0.17668
0.12320	0.15117
0.22521	0.02363
0.17421	0.25320
0.14870	0.17668
0.19971	0.15117
0.09770	0.15117
0.14870	0.07465
0.12320	0.20219
0.07220	0.12566
0.22521	0.12566
0.07220	0.17668
0.17421	0.04914
0.22521	0.07465
0.09770	0.22769
0.14870	0.10015
0.14870	0.17668
0.12320	0.20219
0.22521	0.20219
0.07220	0.25320
0.14870	0.10015
0.17421	0.22769
0.14870	0.04914
0.09770	0.15117
0.17421	0.17668
0.14870	0.17668
0.19971	0.02363
0.14870	0.12566
0.12320	0.15117
0.12320	0.12566
0.14870	0.15117
0.14870	0.17668
0.17421	0.12566
0.14870	0.07465
0.12320	0.15117
0.14870	0.20219
0.14870	0.10015
0.22521	0.22769
0.07220	0.22769
0.17421	0.12566
0.17421	0.15117
0.07220	0.04914
0.12320	0.10015
0.22521	-0.00188
0.12320	0.15117
0.07220	0.15117
0.22521	0.10015
0.14870	0.20219
0.12320	0.32972
0.22521	0.15117
0.14870	0.02363
0.04670	0.20219
0.19971	0.07465
0.19971	-0.00188
0.07220	0.17668
0.14870	0.12566
0.17421	0.07465
0.09770	0.27871
0.12320	0.20219
0.19971	0.15117
0.14870	0.22769
0.07220	0.15117
0.22521	0.12566
0.12320	0.20219
0.09770	0.12566
0.22521	0.10015
0.17421	0.20219
0.04670	0.17668
0.22521	0.17668
0.07220	0.22769
0.12320	0.02363
0.14870	0.15117
0.14870	0.10015
0.14870	0.10015
0.07220	0.12566
0.19971	0.12566
0.09770	0.25320
0.12320	0.20219
0.22521	0.17668
0.09770	0.17668
0.17421	0.12566
0.19971	0.12566
0.14870	0.07465
0.14870	0.02363
0.17421	0.15117
0.07220	0.17668
0.12320	0.20219
0.14870	0.25320
0.07220	0.10015
0.22521	0.12566
0.09770	0.12566
0.14870	0.04914
0.22521	0.10015
0.09770	0.15117
0.19971	0.10015
0.22521	0.20219
0.07220	0.27871
0.14870	0.17668
0.22521	0.20219
0.17421	0.15117
0.07220	0.17668
0.14870	0.10015
0.22521	-0.00188
0.07220	0.15117
0.17421	0.20219
0.19971	0.12566
0.14870	0.15117
0.09770	0.25320
0.17421	0.17668
0.14870	0.20219
0.09770	0.20219
0.22521	-0.00188
0.14870	0.04914
0.14870	0.07465
0.17421	0.04914
0.17421	0.25320
0.14870	0.22769
0.19971	0.15117
0.09770	0.25320
0.14870	0.15117
0.12320	0.12566
0.07220	0.12566
0.22521	0.02363
0.14870	0.17668
0.14870	0.02363
0.12320	0.17668
0.12320	0.00000
0.12320	0.00000
0.12320	0.10015
0.19971	0.20219
0.09770	0.22769
0.14870	0.20219
0.14870	0.15117
0.14870	0.10015
0.14870	0.10015
0.14870	0.10015
0.14870	0.10015
0.17421	0.25320
0.12320	0.12566
0.12320	0.30422
0.14870	0.12566
0.14870	0.25320
0.12320	0.02363
0.12320	0.20219
0.09770	0.10015
0.12320	0.10015
0.14870	0.15117
0.19971	0.12566
0.14870	0.07465
0.19971	0.25320
0.09770	0.15117
0.22521	0.17668
0.09770	0.20219
0.19971	0.15117
0.07220	0.17668
0.17421	0.10015
0.14870	0.15117
0.14870	0.04914
0.19971	0.17668
0.17421	0.12566
0.14870	0.17668
0.14870	0.15117
0.14870	0.12566
0.14870	0.17668
0.14870	0.15117
0.14870	0.12566
0.07220	0.12566
0.19971	0.22769
0.12320	0.17668
0.09770	0.12566
0.22521	0.30422
0.12320	0.15117
0.09770	0.07465
0.22521	0.17668
0.14870	0.07465
0.09770	0.02363
0.22521	0.22769
0.12320	0.12566
0.14870	0.20219
0.22521	0.30422
0.14870	0.15117
0.12320	0.12566
0.14870	0.15117
0.04670	0.04914
0.22521	0.15117
0.07220	0.04914
0.22521	0.15117
0.09770	0.17668
0.14870	0.12566
0.25071	0.25320
0.09770	0.22769
0.14870	0.12566
0.12320	0.17668
0.07220	0.10015
0.12320	0.15117
0.12320	0.10015
0.09770	0.04914
0.14870	0.15117
0.22521	0.25320
0.14870	0.20219
0.09770	0.25320
0.22521	0.25320
0.14870	0.12566
0.12320	0.10015
0.12320	0.15117
0.09770	0.07465
0.19971	0.10015
0.14870	0.12566
0.12320	0.07465
0.19971	0.17668
0.12320	0.25320
0.09770	0.15117
0.25071	0.25320
0.14870	0.15117
0.12320	0.10015
0.22521	0.12566
0.07220	0.07465
0.14870	0.15117
0.19971	0.20219
0.09770	0.15117
0.14870	0.20219
0.14870	0.12566
0.09770	0.04914
0.22521	0.15117
0.12320	0.10015
0.12320	0.15117
0.12320	0.17668
0.17421	0.15117
0.22521	0.25320
0.14870	0.15117
0.17421	0.17668
0.19971	0.20219
0.09770	0.10015
0.22521	0.12566
0.12320	0.17668
0.14870	-0.02739
0.22521	0.20219
0.07220	0.17668
0.12320	0.17668
0.14870	0.25320
0.09770	0.20219
0.14870	0.25320
0.14870	0.12566
0.14870	0.15117
0.14870	0.17668
0.14870	0.02363
0.14870	0.15117
0.09770	0.15117
0.22521	0.20219
0.09770	0.15117
0.14870	0.22769
0.17421	0.20219
0.07220	0.04914
0.17421	0.20219
0.17421	0.10015
0.12320	0.15117
0.17421	0.30422
0.17421	-0.25695
0.14870	0.50828
0.14870	0.27871
0.12320	0.10015
0.12320	-0.18043
0.25071	-0.48652
0.14870	0.22769
0.22521	1.93671
0.09770	0.73785
0.09770	-0.51203
-0.08081	-0.05289
0.14870	-2.19554
0.19971	-0.99668
-0.08081	2.37034
-0.08081	1.73265
0.60773	1.27351
0.60773	-1.35379
0.19971	-2.50164
0.09770	-0.07840
0.25071	-0.38449
-0.18282	1.50308
0.07220	0.78886
0.22521	1.91120
1.19427	1.32453
0.42922	2.06425
0.32721	-5.25647
-0.48884	0.58480
-3.24301	0.55929
-1.30489	2.49788
1.55129	-2.29757
1.72980	0.86539
1.67880	1.35003
1.37278	-2.17003
0.27621	0.15117
0.45472	0.63582
0.14870	-0.48652
-2.32496	-1.60887
-0.69285	0.99292
-1.86593	1.32453
0.09770	3.84979
1.32178	2.31933
1.47479	1.75816
2.13783	-3.31788
0.78624	1.98773
-0.43783	-2.39961
0.78624	-2.88425
2.18883	1.78367
-7.27227	2.34484
-4.74761	-1.94047
2.31634	0.58480
3.71893	-0.63957
4.96851	-1.81293
-1.61091	3.59471
-0.87136	0.63582
2.21434	-3.57296
1.34728	0.63582
-1.94243	-1.45582
-0.13181	2.49788
1.21977	3.90081
1.19427	-1.60887
0.86275	-0.05289
-2.86049	0.58480
1.65330	0.17668
-2.01894	3.36515
-3.24301	-4.41472
-3.34502	-3.93007
-2.52897	1.63062
4.63699	0.55929
5.63155	0.53379
3.82094	-0.76711
-3.95706	3.33964
0.07220	-0.18043
-0.41233	-2.90976
3.56592	1.22250
4.86651	1.40105
-1.33039	-0.28246
-4.36509	3.16108
-2.73298	1.91120
1.34728	-2.75671
1.09226	-0.38449
-0.89686	-2.70570
-0.41233	0.53379
0.35272	-0.51203
0.60773	-1.02219
0.88825	2.16628
0.50573	0.63582
0.30171	1.42656
0.48022	0.35523
0.22521	-0.46102
-0.23382	-2.19554
-0.64185	-0.43551
-0.76936	1.40105
0.04670	1.17148
0.60773	0.81437
0.60773	0.17668
0.37822	0.32972
0.40372	-1.48133
0.40372	-0.25695
0.32721	-2.14453
-0.00431	0.12566
0.04670	1.86019
0.02119	-0.84363
0.17421	-0.30797
0.42922	0.30422
0.32721	1.04394
0.12320	0.83988
-0.10631	0.68683
0.04670	0.32972
0.04670	1.19699
0.12320	1.37554
0.17421	-2.88425
0.14870	0.40625
0.17421	-1.78742
0.35272	1.04394
0.55673	2.42136
-0.41233	0.61031
-0.59084	-2.19554
0.81175	-1.76191
1.29628	1.73265
-0.64185	0.76336
-1.30489	-0.30797
0.25071	-1.60887
-1.07538	0.66132
0.93925	2.93151
2.34184	0.71234
0.45472	1.68163
-0.61635	-5.05241
-0.46334	-0.41000
0.50573	1.63062
0.91375	0.76336
0.19971	0.94191
-0.15732	1.47757
-0.18282	0.17668
-0.10631	-0.20594
-0.13181	0.30422
-0.18282	-0.07840
-0.15732	0.63582
-0.33583	-1.35379
-0.08081	-0.84363
0.07220	-0.66508
0.22521	-0.30797
0.22521	-0.94566
0.40372	1.86019
0.37822	-0.05289
0.48022	1.50308
0.37822	0.25320
0.30171	-0.30797
0.35272	0.94191
0.37822	0.53379
0.88825	0.55929
-1.17738	0.50828
-0.87136	0.45726
0.45472	-6.58288
-0.38683	1.14597
0.60773	1.83468
0.78624	1.42656
0.96476	0.81437
0.81175	0.71234
-0.92237	0.35523
0.32721	0.15117
0.35272	0.96742
0.25071	-2.65468
-0.00431	-0.18043
0.09770	-0.20594
0.19971	0.66132
0.50573	1.09496
0.70974	-1.73640
-0.66735	0.91640
-2.91149	0.81437
-0.33583	-1.32828
1.01576	2.98253
1.16877	-5.28198
0.81175	2.19179
0.76074	1.78367
0.42922	1.75816
0.27621	1.06945
0.02119	0.27871
0.09770	0.86539
-0.00431	0.58480
0.02119	2.16628
-0.05531	-4.77183
0.78624	-6.48085
0.42922	3.05905
-1.30489	-2.98628
-0.76936	0.45726
0.50573	3.16108
0.78624	2.11527
0.93925	1.63062
-0.31033	0.02363
-0.71835	-0.25695
0.65874	-0.23145
0.60773	0.20219
1.34728	-0.66508
0.58223	-2.11902
-0.69285	0.76336
-0.92237	-0.43551
0.32721	1.37554
-0.08081	0.43176
0.14870	-0.41000
0.40372	-1.17523
0.86275	1.50308
1.09226	-1.07320
-0.15732	0.99292
-2.65648	-0.00188
-0.61635	-1.53234
1.90832	0.73785
0.73524	3.18659
0.63323	-1.50683
0.58223	-3.08831
0.25071	1.57960
-0.08081	2.47238
0.12320	1.17148
0.17421	1.09496
0.07220	1.04394
-0.10631	0.58480
0.02119	-0.48652
0.12320	-0.58856
-0.02981	0.58480
-0.48884	-0.53754
-0.51434	0.22769
0.88825	0.43176
1.27078	-5.56257
-0.38683	0.76336
-0.64185	1.06945
-0.08081	1.57960
0.68424	-1.50683
0.07220	0.91640
0.58223	1.17148
0.83725	1.35003
0.55673	1.45206
0.19971	-0.61406
0.42922	1.04394
0.45472	-1.09871
0.12320	0.10015
-1.17738	-3.31788
-0.94787	0.71234
0.25071	1.17148
-0.02981	1.45206
0.04670	0.86539
0.02119	-0.69059
0.81175	0.53379
0.63323	0.07465
-0.20832	1.06945
0.27621	-0.02739
0.19971	-2.34859
0.81175	-1.04770
-0.84586	1.37554
-0.53984	1.32453
-0.18282	1.04394
0.35272	-0.33348
0.22521	0.91640
0.73524	1.01843
0.88825	-1.81293
0.76074	0.76336
-0.94787	0.38074
0.32721	-1.14973
0.48022	-0.15492
-0.43783	1.14597
-1.12638	0.89089
-0.10631	-1.68539
0.63323	1.17148
0.65874	-0.86914
0.68424	1.22250
0.48022	-0.25695
0.58223	0.22769
0.40372	-0.12942
-1.10088	0.86539
-1.15188	0.12566
0.32721	0.17668
0.45472	0.32972
0.53123	0.25320
0.42922	-0.10391
0.48022	0.17668
0.73524	-0.33348
0.32721	-0.61406
-0.00431	0.55929
-0.84586	-0.63957
-0.13181	1.47757
0.63323	-1.53234
-0.02981	1.19699
-0.48884	0.15117
0.65874	-0.35899
0.50573	0.25320
0.22521	-1.30277
-0.10631	1.63062
-0.25932	1.45206
0.02119	-1.48133
0.86275	-0.61406
0.40372	0.96742
0.14870	0.63582
0.35272	-0.89465
0.50573	0.66132
0.14870	0.71234
0.04670	-0.18043
0.04670	-1.09871
-0.13181	0.55929
-0.02981	2.08976
0.17421	-1.55785
-0.18282	0.48277
-0.38683	2.31933
-0.23382	0.55929
0.70974	-2.09351
0.25071	0.81437
0.09770	-0.94566
0.58223	-1.60887
1.11776	2.03874
-0.43783	2.19179
-0.87136	0.27871
0.42922	-0.28246
1.06676	0.81437
1.27078	0.76336
-1.04987	0.55929
-0.20832	-2.14453
0.73524	0.76336
0.65874	0.25320
-0.08081	-0.05289
-0.69285	0.17668
0.35272	-0.53754
0.32721	-0.12942
0.27621	0.53379
0.19971	0.07465
-0.02981	-0.43551
0.17421	0.81437
0.09770	1.27351
0.09770	-0.53754
0.19971	0.35523
0.07220	-1.99148
0.12320	0.83988
-0.10631	0.22769
-0.20832	1.35003
0.40372	-0.71609
0.40372	0.73785
0.27621	0.07465
-0.84586	2.26831
0.09770	1.47757
1.06676	-1.40480
0.55673	-2.90976
0.96476	-0.23145
0.53123	1.73265
0.32721	0.71234
-0.31033	0.89089
-0.15732	2.01323
-0.28482	-2.78222
-0.18282	-0.05289
0.09770	1.17148
0.02119	0.48277
0.22521	1.60511
-0.23382	0.07465
-0.10631	-2.65468
0.12320	-1.53234
0.78624	0.78886
-0.69285	1.37554
-0.36133	1.09496
0.50573	0.89089
0.07220	0.38074
0.78624	0.20219
1.24527	0.15117
0.76074	-0.12942
-0.43783	-0.28246
-0.69285	-0.63957
-0.28482	-1.71090
0.27621	1.14597
0.70974	0.96742
0.40372	0.96742
0.22521	0.12566
0.09770	0.25320
-0.13181	-1.71090
0.09770	0.32972
-0.10631	-1.91496
-0.13181	1.32453
0.32721	1.47757
0.02119	1.19699
0.07220	0.04914
-1.45790	0.30422
0.30171	0.07465
0.88825	0.71234
0.83725	-0.30797
0.60773	0.15117
0.60773	0.15117
0.88825	-0.23145
1.44929	-1.20074
-1.53441	1.86019
-2.24845	0.91640
-0.28482	0.35523
0.60773	-0.74160
0.07220	-0.23145
0.78624	-0.86914
1.29628	1.29902
0.63323	-1.12422
0.48022	1.52859
-0.08081	1.09496
-0.18282	0.86539
0.02119	1.35003
0.07220	-0.05289
-0.56534	-0.46102
-0.56534	-0.28246
0.19971	0.30422
0.19971	-0.18043
0.17421	-0.86914
0.25071	1.04394
0.53123	0.38074
0.12320	-1.07320
0.19971	-0.25695
0.14870	0.96742
0.65874	1.19699
0.12320	-0.41000
-0.05531	-0.43551
0.37822	-0.66508
0.32721	0.15117
-0.46334	0.02363
-0.00431	0.55929
0.42922	1.37554
0.68424	0.76336
0.40372	0.68683
-1.55991	0.25320
-0.23382	-0.05289
0.78624	0.43176
0.83725	-0.18043
-0.10631	1.29902
-0.33583	-1.48133
-0.18282	-0.53754
0.48022	0.25320
0.70974	0.76336
0.27621	0.38074
0.27621	0.15117
0.12320	0.25320
-0.08081	-0.25695
0.09770	-0.02739
0.22521	1.47757
-0.18282	2.14077
0.42922	-3.82804
-0.89686	0.86539
-1.38139	-1.25176
-0.71835	-0.05289
0.42922	2.39585
1.06676	0.40625
1.14327	-0.71609
1.24527	1.24800
-0.15732	1.68163
-0.05531	0.83988
0.35272	0.25320
0.12320	-1.35379
0.37822	0.07465
0.32721	0.30422
-0.18282	0.32972
-0.15732	-0.18043
-0.87136	-0.51203
-0.48884	0.15117
0.12320	0.10015
0.73524	0.22769
0.73524	0.07465
0.50573	0.17668
0.50573	0.02363
0.48022	0.78886
-0.28482	-0.23145
-0.87136	0.48277
-0.28482	-0.89465
0.53123	1.29902
-0.43783	0.78886
1.27078	0.48277
0.93925	-1.83844
0.02119	2.03874
-0.18282	1.73265
-0.46334	-3.19035
0.02119	-2.22105
0.58223	1.45206
0.78624	1.29902
0.25071	0.96742
-0.13181	0.04914
-0.10631	0.68683
0.48022	0.61031
0.02119	0.35523
-0.79486	-1.94047
0.22521	-0.02739
0.63323	0.81437
-0.43783	0.55929
0.02119	-0.74160
0.70974	-1.50683
0.40372	0.45726
0.73524	-0.25695
0.07220	1.65613
-0.79486	0.73785
-0.59084	0.73785
0.35272	-0.76711
0.81175	0.40625
0.53123	-0.74160
0.55673	0.94191
0.40372	0.38074
0.12320	0.02363
0.07220	-0.41000
-0.36133	0.96742
-0.56534	0.40625
0.22521	-2.14453
0.09770	0.83988
0.25071	0.32972
0.42922	-1.45582
0.70974	0.32972
0.09770	0.71234
-1.02437	0.83988
0.96476	1.57960
-0.15732	-0.74160
-0.82036	-0.20594
0.68424	1.29902
1.21977	-0.53754
1.37278	1.01843
-0.38683	-0.25695
-1.40690	0.20219
0.07220	-2.34859
1.16877	1.14597
0.07220	0.25320
0.32721	-0.51203
0.55673	1.27351
0.14870	1.24800
0.17421	-0.66508
-0.56534	-0.69059
-0.61635	-0.61406
0.25071	0.61031
0.83725	0.94191
0.55673	0.15117
-0.89686	0.27871
-0.23382	0.55929
0.70974	0.48277
0.70974	0.45726
0.32721	-1.22625
-0.20832	-0.18043
0.09770	0.71234
0.17421	-0.05289
-0.43783	-1.04770
0.22521	0.25320
0.83725	0.58480
0.04670	1.45206
-0.33583	-0.69059
0.35272	0.66132
0.48022	0.48277
0.37822	0.04914
0.02119	0.32972
-0.31033	-1.20074
-1.07538	1.17148
0.30171	0.99292
0.86275	-1.17523
0.60773	0.20219
0.65874	0.35523
-0.02981	0.61031
-0.48884	0.07465
-0.02981	0.07465
0.81175	0.17668
0.73524	0.15117
-1.20288	0.15117
-1.02437	-0.58856
0.48022	0.22769
0.93925	0.07465
0.93925	0.32972
0.42922	-0.02739
-0.28482	0.99292
-0.08081	0.58480
0.50573	-0.10391
-0.20832	-0.76711
-0.13181	-0.74160
0.12320	1.12046
0.37822	0.02363
0.25071	-0.79262
0.25071	2.90601
0.37822	-1.50683
-0.10631	-0.12942
-0.61635	0.78886
-0.08081	1.60511
0.30171	0.53379
0.53123	0.02363
0.22521	-0.76711
0.27621	-0.79262
0.53123	-0.15492
0.68424	0.50828
0.68424	0.25320
-0.79486	0.15117
-1.43240	-0.86914
0.45472	0.45726
0.45472	-0.56305
-0.10631	0.38074
1.06676	0.50828
0.70974	-0.33348
0.81175	-0.15492
-0.05531	0.63582
-0.13181	1.40105
0.25071	2.19179
-0.18282	1.40105
-0.51434	-1.94047
-0.15732	0.83988
0.50573	-0.74160
0.48022	0.83988
0.07220	-1.09871
0.37822	0.63582
0.17421	-0.02739
0.22521	0.12566
0.02119	0.12566
0.12320	1.01843
-0.00431	0.48277
0.19971	-0.30797
-0.08081	0.25320
-0.00431	-0.58856
0.17421	0.94191
0.25071	1.35003
0.14870	0.04914
0.40372	-1.78742
0.27621	-1.04770
-0.10631	1.86019
0.14870	0.58480
1.75531	1.22250
-0.48884	1.57960
-2.45246	-2.09351
-0.43783	-2.52714
1.34728	1.42656
1.06676	0.68683
0.86275	0.45726
0.42922	-0.56305
0.35272	0.63582
0.32721	0.61031
0.60773	0.38074
-1.40690	-0.76711
-1.22839	0.32972
-0.08081	0.22769
0.88825	-0.25695
0.17421	-0.33348
0.27621	-0.56305
0.30171	0.55929
0.17421	-0.23145
0.27621	0.30422
0.17421	0.96742
0.22521	0.38074
0.32721	0.04914
-0.15732	0.63582
-0.82036	-0.07840
-0.08081	0.58480
0.78624	0.20219
0.70974	-1.40480
0.81175	-0.25695
0.45472	1.45206
-0.69285	0.35523
-0.69285	0.99292
0.37822	0.17668
0.83725	-1.17523
0.65874	0.76336
0.22521	0.71234
-0.36133	-0.20594
-0.38683	0.30422
0.17421	0.83988
0.45472	-0.23145
0.25071	-0.15492
0.27621	0.20219
-0.10631	-0.33348
0.09770	-0.63957
0.27621	0.71234
-0.02981	0.78886
0.40372	0.76336
-0.02981	-0.18043
-0.43783	0.15117
-0.82036	0.83988
0.88825	1.01843
1.14327	-0.05289
0.65874	0.07465
0.53123	0.76336
0.17421	-0.25695
0.02119	-1.63437
0.04670	-0.76711
0.50573	1.17148
0.83725	1.12046
-1.96793	0.35523
-2.35046	-0.61406
0.78624	0.78886
1.42379	0.04914
0.42922	1.24800
0.12320	-1.32828
0.88825	0.78886
0.83725	-0.38449
0.22521	1.19699
-0.08081	-0.30797
-0.18282	0.73785
-0.18282	-0.69059
0.40372	0.66132
0.37822	0.55929
-0.46334	-1.27726
-0.08081	0.10015
0.17421	0.20219
-0.13181	0.76336
0.68424	-0.33348
-0.05531	0.73785
0.22521	0.55929
0.45472	0.30422
0.17421	-1.91496
0.02119	-1.73640
0.17421	0.45726
0.17421	1.47757
0.14870	1.06945
0.22521	0.91640
0.35272	0.81437
0.58223	0.53379
-0.46334	0.15117
-1.20288	-0.15492
0.53123	-0.33348
1.06676	-0.18043
-0.13181	-0.69059
-0.28482	-0.71609
1.11776	0.22769
-0.38683	0.35523
-0.66735	0.68683
0.58223	0.32972
0.91375	0.96742
0.60773	-2.22105
0.48022	0.55929
0.02119	0.86539
-0.87136	-1.07320
0.12320	1.52859
0.25071	-0.97117
-0.02981	-0.63957
0.45472	1.63062
0.22521	1.50308
-0.02981	0.35523
0.07220	0.86539
0.12320	-0.51203
0.09770	-1.37929
0.02119	-0.94566
0.30171	1.06945
-0.13181	0.50828
0.09770	0.32972
0.25071	0.94191
0.45472	0.71234
0.27621	-0.74160
-0.25932	-0.38449
-0.28482	0.50828
0.50573	-0.86914
-0.00431	-0.33348
-0.31033	0.12566
0.32721	0.83988
0.63323	-0.02739
0.86275	0.61031
1.01576	-0.12942
-0.20832	0.38074
-1.33039	-0.25695
0.17421	0.86539
-1.07538	0.81437
0.40372	-1.68539
1.34728	-0.94566
0.42922	0.83988
0.37822	1.01843
-0.10631	0.66132
-0.31033	1.78367
-0.13181	-0.81812
0.19971	-2.32308
1.55129	0.71234
-0.05531	0.96742
0.48022	-0.25695
-0.10631	0.81437
-0.66735	0.12566
-0.41233	-0.43551
0.50573	0.66132
0.45472	0.20219
0.48022	0.76336
0.42922	-0.38449
0.12320	0.10015
-0.10631	0.61031
-0.02981	-0.53754
0.32721	-1.30277
0.14870	0.32972
-0.08081	0.53379
-0.38683	0.50828
0.76074	1.32453
0.93925	1.73265
0.14870	0.17668
-0.33583	-4.00659
0.27621	-0.05289
0.65874	1.09496
0.91375	1.45206
-0.08081	1.73265
-1.12638	0.81437
-0.38683	0.10015
0.76074	-1.12422
0.19971	-0.00188
-0.05531	0.30422
0.12320	-0.33348
-0.53984	-0.30797
0.45472	0.10015
1.21977	0.40625
1.42379	-1.60887
-2.52897	1.29902
-1.89143	0.10015
1.04126	1.60511
0.99026	0.40625
1.06676	-0.23145
0.93925	-1.40480
0.65874	0.61031
0.58223	1.45206
0.02119	1.63062
-0.79486	-2.83324
0.02119	-2.01699
-0.74385	0.89089
-0.05531	0.27871
1.06676	1.78367
-0.23382	1.06945
-0.23382	0.17668
-0.64185	0.45726
0.37822	0.15117
1.06676	-0.58856
0.88825	0.07465
0.22521	-1.27726
0.12320	-0.28246
0.40372	0.22769
0.07220	-1.78742
-0.43783	1.19699
0.63323	1.22250
1.09226	0.15117
-0.69285	-0.41000
-3.44703	1.60511
0.22521	-2.47613
0.99026	1.45206
0.32721	0.78886
0.48022	0.89089
1.52579	-0.38449
1.01576	0.86539
0.40372	0.89089
0.37822	0.15117
0.30171	-1.88945
0.02119	0.58480
-1.10088	0.25320
-0.08081	0.40625
0.02119	-0.05289
0.19971	0.07465
-0.23382	0.63582
-0.61635	0.30422
0.19971	-1.43031
1.34728	0.58480
0.42922	-0.38449
0.60773	0.63582
0.91375	1.12046
0.27621	0.20219
-2.35046	0.25320
-0.87136	-0.00188
1.34728	0.55929
1.21977	0.50828
-0.10631	0.02363
0.73524	0.89089
0.76074	-1.53234
0.30171	-0.30797
0.14870	-1.12422
-0.05531	0.96742
-0.56534	1.24800
-0.74385	1.83468
-0.02981	0.66132
0.14870	-0.18043
0.37822	-0.56305
0.42922	0.45726
0.37822	0.04914
0.60773	-0.25695
0.30171	-0.05289
-1.02437	-1.27726
-0.48884	0.61031
0.27621	0.91640
0.32721	0.78886
0.55673	1.04394
0.76074	-3.36890
0.86275	1.12046
1.06676	-2.34859
-0.10631	1.75816
-1.99343	0.81437
-0.05531	-0.63957
0.88825	1.22250
1.14327	1.22250
0.73524	-1.30277
-1.02437	0.45726
-1.48340	0.96742
-0.41233	-1.60887
0.73524	-0.00188
0.91375	0.68683
0.76074	0.12566
0.99026	0.04914
-0.48884	0.32972
-0.25932	0.38074
0.30171	0.10015
0.25071	0.40625
-0.10631	-0.69059
-0.13181	-0.43551
0.07220	-0.43551
0.35272	0.63582
0.32721	0.86539
-0.41233	-0.99668
-0.51434	0.71234
0.32721	1.04394
0.42922	1.22250
0.30171	-1.68539
0.53123	-0.63957
0.53123	1.24800
0.48022	0.99292
0.02119	1.52859
-0.61635	-0.15492
-0.05531	0.12566
0.45472	-0.12942
-0.28482	-0.28246
0.19971	-1.22625
0.12320	-1.02219
0.60773	1.32453
0.40372	1.09496
0.88825	-0.30797
0.68424	-0.30797
-0.99887	0.15117
-0.99887	-0.23145
0.73524	0.68683
0.42922	0.55929
-0.99887	0.53379
-0.13181	-0.48652
1.09226	0.25320
0.83725	0.83988
0.48022	-0.86914
0.45472	0.12566
0.17421	-1.12422
-0.00431	-0.05289
-0.10631	0.86539
-0.84586	1.09496
0.14870	0.55929
0.32721	-0.53754
0.40372	-0.46102
0.25071	0.73785
0.42922	0.55929
0.68424	-1.40480
-0.15732	1.19699
-0.23382	1.17148
-0.23382	-0.51203
-0.23382	0.91640
-0.66735	-1.63437
-1.25389	-0.92016
0.96476	-0.56305
1.44929	0.94191
1.32178	1.27351
1.09226	1.17148
0.55673	-0.46102
-0.89686	-1.20074
-0.94787	0.91640
0.19971	-0.10391
0.27621	0.58480
0.22521	0.43176
0.07220	0.07465
0.60773	0.20219
-0.15732	0.27871
-0.33583	-0.28246
0.22521	0.83988
0.12320	-0.71609
0.17421	-0.25695
0.27621	1.37554
0.25071	0.30422
-0.02981	-0.38449
-0.10631	-0.28246
0.32721	0.96742
0.53123	0.96742
0.37822	0.22769
0.17421	0.25320
0.25071	-0.12942
0.22521	0.22769
0.35272	0.99292
-0.10631	-1.25176
0.48022	-0.05289
0.02119	0.48277
0.17421	-0.20594
0.14870	-0.15492
-1.71292	0.83988
-1.10088	0.43176
0.50573	0.99292
1.32178	-1.32828
1.42379	0.20219
0.07220	0.45726
0.02119	0.81437
0.40372	0.58480
0.27621	0.50828
0.12320	-0.38449
0.09770	0.45726
0.12320	0.58480
-0.41233	-1.40480
-0.25932	0.48277
0.19971	0.45726
-0.00431	0.66132
-0.02981	0.40625
0.09770	-0.69059
0.27621	-0.92016
0.40372	1.73265
0.30171	0.25320
0.27621	-0.02739
0.14870	0.50828
0.19971	-0.43551
0.25071	-0.23145
0.19971	0.45726
-0.13181	0.83988
0.02119	-1.09871
0.12320	0.99292
0.63323	0.25320
0.37822	0.53379
-0.74385	-0.46102
-0.56534	-0.20594
0.53123	0.61031
1.27078	0.27871
0.99026	-1.35379
-0.33583	-0.02739
-1.12638	0.86539
0.02119	0.15117
-0.05531	-0.30797
0.91375	0.94191
0.83725	1.29902
0.17421	-1.48133
-0.69285	0.43176
0.45472	1.14597
0.58223	-1.17523
0.22521	0.30422
0.09770	0.53379
-0.00431	0.30422
-0.02981	-0.84363
0.07220	0.83988
-0.08081	-0.56305
-0.61635	0.55929
-0.18282	0.50828
0.48022	-0.58856
0.96476	0.73785
-0.00431	0.71234
0.02119	0.55929
0.30171	-0.66508
0.25071	1.04394
0.30171	0.45726
0.07220	-0.79262
-0.33583	-2.24656
0.48022	2.34484
0.37822	0.27871
0.63323	0.20219
0.30171	-1.81293
-0.38683	1.06945
-0.56534	1.01843
-0.20832	1.29902
0.37822	-0.12942
1.19427	-0.69059
0.78624	0.35523
-1.84042	0.38074
-0.94787	-0.35899
1.09226	0.50828
1.21977	1.17148
0.53123	-0.84363
-0.36133	0.83988
0.32721	-1.14973
0.12320	-0.33348
0.58223	0.15117
0.86275	1.24800
-0.94787	0.76336
-1.17738	-1.12422
0.78624	0.22769
0.70974	0.76336
0.48022	0.58480
0.48022	0.66132
-0.10631	0.35523
-0.59084	-1.81293
-0.51434	0.83988
1.39828	-0.28246
1.24527	0.17668
-0.71835	0.40625
-2.04444	0.76336
0.17421	0.96742
1.24527	-1.17523
1.72980	-0.89465
0.09770	-1.50683
0.07220	2.21730
0.42922	-0.25695
-0.51434	1.47757
0.99026	0.35523
-1.73842	-0.81812
-1.68742	0.38074
0.50573	0.86539
0.78624	1.37554
1.34728	0.55929
1.21977	-1.35379
-0.74385	-1.32828
0.02119	1.09496
1.32178	-0.12942
0.99026	1.01843
-2.98800	0.53379
-1.20288	0.66132
0.81175	-0.18043
1.16877	-0.94566
0.99026	0.25320
0.37822	-0.58856
-0.41233	0.66132
-0.02981	1.04394
0.93925	0.61031
0.58223	-0.84363
0.09770	-0.38449
-0.43783	0.35523
0.17421	0.86539
0.93925	0.48277
-0.20832	1.42656
-1.25389	-2.22105
-0.28482	-1.78742
0.58223	0.89089
0.60773	1.37554
0.70974	0.81437
0.48022	1.35003
0.48022	1.06945
-0.10631	-1.09871
-0.08081	-1.88945
0.14870	1.32453
0.45472	0.99292
0.48022	-1.12422
-1.10088	0.76336
-0.08081	1.32453
0.40372	-0.38449
0.17421	0.17668
-0.23382	0.04914
-0.33583	0.22769
-0.28482	0.68683
0.65874	0.15117
0.83725	-1.68539
0.63323	0.32972
0.73524	1.22250
0.14870	0.55929
-0.36133	0.22769
-0.59084	0.10015
0.42922	0.89089
0.37822	-0.71609
0.27621	0.86539
0.22521	-0.18043
0.37822	0.12566
0.32721	-0.99668
-0.31033	-0.97117
-0.43783	1.22250
0.09770	0.89089
0.12320	0.83988
0.35272	0.63582
-0.00431	0.43176
0.04670	0.35523
0.37822	-0.71609
0.48022	-0.76711
0.30171	0.32972
0.22521	-0.46102
0.19971	-0.33348
0.30171	1.70714
0.09770	0.66132
0.07220	-2.11902
-0.15732	0.07465
0.04670	0.78886
0.14870	0.91640
0.35272	0.02363
0.91375	0.68683
-1.17738	-0.25695
-1.17738	0.35523
0.91375	0.17668
1.14327	0.48277
0.63323	0.55929
0.32721	-0.05289
0.40372	-0.43551
0.04670	-0.86914
-0.05531	0.27871
-0.38683	0.20219
-0.20832	1.98773
-0.00431	-1.09871
0.17421	-0.74160
0.40372	0.32972
0.17421	-0.25695
0.19971	0.38074
0.17421	0.86539
0.27621	-0.33348
0.30171	-0.63957
0.14870	1.29902
-0.94787	1.57960
-0.10631	-0.81812
0.04670	-0.20594
0.99026	-0.30797
0.50573	0.55929
0.37822	0.02363
0.88825	-0.25695
0.68424	-0.18043
0.50573	0.17668
-0.48884	0.32972
-0.99887	1.32453
0.12320	-0.58856
0.37822	0.96742
0.09770	-0.74160
0.17421	1.01843
0.09770	0.99292
0.04670	0.20219
0.12320	0.25320
0.19971	-0.38449
0.02119	-0.02739
0.02119	-3.34339
0.17421	1.04394
0.42922	0.96742
0.40372	0.53379
0.37822	0.53379
-0.00431	0.35523
0.14870	0.68683
0.53123	0.45726
0.27621	-1.65988
-0.71835	0.55929
-0.08081	0.43176
0.37822	-0.43551
0.76074	0.55929
0.50573	-0.56305
-0.05531	0.15117
-0.20832	0.66132
-0.33583	-0.05289
-0.31033	0.12566
0.53123	-1.53234
0.68424	0.63582
-0.23382	0.99292
-0.36133	0.71234
-0.25932	0.99292
0.63323	-0.05289
-0.23382	-0.46102
-0.36133	0.81437
0.50573	-1.07320
0.63323	-0.28246
0.60773	0.91640
0.45472	0.35523
0.17421	-0.00188
0.02119	0.48277
-0.15732	0.25320
0.07220	0.22769
0.04670	-0.12942
-0.05531	0.40625
0.12320	0.71234
-0.10631	-0.12942
0.14870	-1.40480
-0.02981	0.15117
0.30171	0.15117
-0.36133	1.35003
0.22521	0.66132
0.14870	-1.37929
0.19971	0.27871
1.29628	-0.48652
0.50573	1.12046
-1.12638	-0.86914
-0.33583	0.76336
0.78624	0.68683
0.96476	0.55929
0.65874	0.38074
0.32721	-0.15492
0.04670	0.35523
-0.08081	0.38074
-0.15732	-0.56305
-0.15732	0.30422
-0.13181	-1.17523
0.12320	-0.46102
0.14870	1.06945
-0.38683	0.96742
-0.15732	-2.78222
0.25071	0.96742
0.37822	0.66132
0.09770	1.04394
0.07220	0.68683
0.50573	-0.12942
0.17421	1.45206
-0.08081	-0.58856
0.27621	-0.56305
0.42922	0.04914
-0.13181	0.15117
0.58223	0.07465
0.81175	-0.15492
-0.05531	-0.20594
-0.13181	0.10015
0.55673	0.10015
-0.53984	0.25320
-0.79486	0.66132
0.45472	0.35523
0.50573	0.27871
0.22521	-2.01699
0.25071	1.24800
0.14870	0.86539
0.12320	0.02363
0.50573	-0.30797
0.50573	0.30422
-0.56534	0.76336
-0.51434	0.68683
0.14870	0.43176
-0.10631	0.12566
0.27621	0.15117
0.63323	0.04914
0.53123	-0.63957
0.40372	-0.20594
0.17421	-0.18043
-0.08081	-0.07840
0.19971	-0.41000
0.42922	1.55410
0.25071	0.78886
-0.15732	-0.86914
-1.10088	-1.88945
0.22521	0.96742
0.63323	1.09496
0.63323	0.89089
-0.20832	-0.46102
-0.15732	0.07465
0.27621	0.55929
0.27621	0.45726
0.53123	0.45726
0.22521	0.15117
0.30171	0.25320
0.02119	0.12566
0.27621	0.04914
0.27621	0.40625
-0.33583	0.30422
-1.10088	-0.63957
0.25071	-1.94047
0.88825	0.91640
0.17421	1.01843
0.14870	1.17148
0.70974	0.27871
0.73524	0.35523
-0.33583	-0.53754
-0.48884	-0.69059
0.17421	-0.51203
0.42922	1.37554
0.09770	1.19699
0.12320	0.53379
0.27621	-0.15492
0.19971	0.30422
0.19971	-0.74160
0.30171	1.12046
0.32721	0.50828
-0.23382	-2.62918
-0.31033	0.71234
-0.10631	0.02363
-0.10631	1.01843
-0.00431	0.83988
0.42922	0.48277
0.50573	-0.66508
0.42922	0.32972
0.45472	0.20219
0.12320	0.55929
0.12320	-0.05289
-0.33583	-0.66508
0.27621	1.06945
1.21977	0.48277
0.55673	-1.17523
-1.71292	0.43176
-3.03900	1.17148
0.40372	1.01843
1.90832	-0.15492
1.55129	-1.07320
1.65330	1.68163
0.99026	-2.01699
-0.18282	-0.58856
-0.48884	0.86539
0.25071	0.35523
-0.23382	0.94191
-0.33583	0.99292
-0.25932	1.06945
-0.05531	-0.89465
0.19971	-0.92016
0.32721	0.66132
-0.10631	0.55929
-0.02981	-1.17523
0.22521	-0.79262
0.32721	-0.10391
0.27621	0.94191
0.02119	1.01843
0.48022	0.12566
0.48022	0.78886
0.27621	0.48277
0.19971	-0.07840
0.32721	0.27871
0.37822	-0.38449
-0.20832	-0.86914
-0.99887	0.15117
-0.05531	0.27871
0.32721	0.25320
0.53123	0.68683
0.53123	1.22250
1.11776	0.04914
0.45472	0.50828
-0.69285	0.32972
-1.02437	-0.61406
-0.20832	-0.71609
0.30171	0.15117
0.50573	-0.18043
0.76074	0.61031
0.78624	-0.02739
-0.38683	-0.05289
-1.20288	0.63582
0.09770	0.35523
0.68424	-0.33348
0.70974	0.55929
0.42922	0.68683
0.42922	0.48277
0.27621	-0.05289
-0.02981	-1.09871
-0.82036	-0.74160
-0.33583	0.38074
0.27621	0.71234
0.09770	-1.37929
0.37822	1.75816
0.42922	1.68163
0.30171	1.12046
0.35272	-1.12422
0.17421	-0.02739
0.12320	0.63582
-0.00431	0.40625
0.17421	-0.15492
0.22521	-1.04770
0.07220	0.35523
0.09770	-0.23145
0.55673	0.04914
0.91375	0.86539
-1.20288	0.78886
-1.33039	-0.63957
0.65874	-0.18043
0.73524	0.32972
0.70974	0.55929
0.68424	-0.30797
0.48022	0.81437
0.27621	0.38074
-0.13181	-0.12942
0.12320	-0.18043
0.22521	0.66132
-0.89686	0.38074
-0.25932	0.38074
0.83725	-0.10391
0.50573	0.04914
-0.18282	-1.81293
-0.08081	0.71234
-0.13181	0.63582
0.25071	-0.30797
0.32721	0.68683
0.27621	0.76336
0.30171	0.50828
0.07220	0.40625
0.22521	-0.10391
0.02119	0.12566
0.22521	-0.18043
0.04670	0.55929
0.02119	0.35523
-0.15732	0.25320
0.37822	-2.47613
0.53123	0.15117
-0.46334	1.17148
-0.20832	0.96742
0.50573	0.15117
0.14870	-0.05289
0.60773	-0.41000
1.14327	0.55929
-0.46334	0.78886
-0.33583	0.63582
0.32721	0.10015
0.19971	-0.76711
0.09770	-0.53754
0.42922	0.02363
0.30171	0.30422
0.19971	0.53379
0.09770	-0.12942
0.17421	0.71234
0.27621	0.22769
-0.10631	0.53379
-0.25932	-0.51203
-0.87136	0.02363
-0.28482	-0.18043
0.70974	0.27871
0.76074	0.94191
0.93925	1.14597
0.17421	-0.43551
0.12320	-0.51203
0.04670	-0.20594
0.09770	0.27871
0.02119	0.07465
-0.18282	-0.92016
-0.05531	0.73785
0.35272	0.78886
0.37822	-0.51203
0.50573	0.02363
0.48022	0.25320
-0.71835	0.66132
-0.02981	0.89089
0.73524	0.76336
0.27621	1.91120
-0.02981	-3.41992
0.07220	-2.37410
0.12320	1.37554
0.02119	0.48277
0.17421	1.19699
0.09770	0.78886
0.42922	0.66132
0.42922	0.22769
0.30171	0.27871
-0.59084	-0.51203
-0.56534	-0.76711
-0.13181	-0.23145
0.32721	0.66132
0.48022	0.22769
0.91375	0.30422
0.68424	0.32972
-0.18282	0.12566
0.30171	-0.38449
0.37822	-0.33348
-0.20832	0.53379
-0.10631	-0.25695
0.70974	0.07465
0.68424	0.38074
-1.84042	0.48277
-1.15188	0.35523
0.93925	0.40625
1.27078	0.63582
1.06676	-0.15492
0.19971	-1.40480
-0.46334	0.89089
0.50573	-0.66508
0.42922	0.32972
0.30171	1.19699
0.14870	0.73785
0.37822	-0.10391
-0.46334	0.20219
-0.74385	0.27871
-0.02981	0.04914
0.40372	0.17668
0.88825	0.68683
0.25071	-1.40480
-0.38683	-2.09351
-0.08081	0.45726
0.45472	1.12046
0.30171	-0.51203
-0.15732	0.55929
0.30171	0.61031
0.32721	0.71234
-0.08081	-0.07840
0.35272	0.25320
0.55673	0.38074
0.48022	-0.33348
0.53123	1.32453
-0.23382	-1.40480
-1.17738	0.20219
-0.43783	0.12566
0.30171	0.30422
0.83725	0.20219
0.70974	0.27871
0.68424	0.86539
0.76074	-0.61406
0.32721	-0.23145
-1.71292	-2.32308
-0.61635	-0.25695
1.29628	0.96742
-0.15732	1.63062
0.27621	0.63582
0.53123	0.66132
0.45472	0.58480
0.27621	-0.56305
0.22521	-0.15492
-0.02981	1.88570
-0.15732	0.25320
0.22521	-0.05289
0.19971	-3.13933
0.09770	0.20219
-0.02981	0.38074
0.17421	0.25320
0.40372	-0.00188
0.22521	0.53379
0.12320	1.12046
0.25071	0.30422
0.35272	0.35523
0.55673	0.12566
-0.79486	-0.25695
-0.43783	0.17668
0.48022	-0.23145
0.02119	0.86539
0.32721	-0.69059
0.63323	-2.39961
0.58223	1.22250
0.53123	1.27351
-0.28482	0.78886
-0.15732	-1.07320
0.58223	0.66132
-0.28482	0.61031
-0.64185	0.48277
0.22521	0.10015
0.68424	0.45726
0.68424	-0.20594
-0.15732	0.25320
-0.23382	0.43176
0.35272	-0.56305
0.37822	0.02363
0.30171	-0.00188
0.19971	0.07465
0.32721	0.15117
0.14870	-0.92016
-1.04987	0.63582
-0.53984	-0.12942
0.48022	0.45726
0.70974	0.58480
0.73524	0.63582
0.60773	0.63582
0.07220	0.43176
-0.05531	0.78886
0.22521	1.09496
0.22521	-2.68019
-0.53984	-0.53754
-0.15732	0.25320
0.35272	1.14597
0.53123	0.07465
0.32721	0.63582
0.35272	0.50828
1.06676	1.12046
-0.25932	0.17668
-0.51434	0.99292
-1.94243	-1.27726
-0.13181	-0.15492
2.01032	-0.58856
-0.28482	-0.10391
-1.17738	-0.10391
0.53123	0.25320
1.44929	0.94191
1.04126	0.30422
0.65874	0.25320
0.19971	-0.38449
-0.08081	-0.61406
-0.36133	0.76336
0.02119	0.81437
-0.23382	-1.12422
0.17421	-1.17523
-0.15732	1.32453
-0.23382	1.47757
-0.00431	0.35523
0.37822	0.66132
0.50573	0.25320
0.07220	-0.51203
-0.18282	0.96742
0.02119	-1.27726
0.22521	0.25320
0.32721	-0.07840
0.42922	0.07465
0.19971	0.83988
0.42922	-1.22625
0.68424	-0.51203
0.42922	1.37554
-1.10088	-1.37929
-0.92237	0.15117
0.22521	0.61031
0.76074	1.17148
0.09770	0.10015
0.35272	0.32972
0.55673	-0.18043
0.09770	0.35523
0.40372	0.38074
0.17421	0.38074
0.07220	-0.58856
-0.08081	0.58480
0.09770	0.15117
-0.08081	-0.43551
0.07220	-1.88945
-0.31033	1.37554
-0.15732	1.24800
0.40372	0.50828
0.93925	-0.25695
-0.00431	-1.30277
-1.66191	-0.10391
-0.69285	0.99292
0.73524	0.50828
1.67880	0.78886
1.34728	0.66132
1.09226	0.25320
-0.10631	0.25320
-0.74385	-0.20594
-0.10631	-0.15492
0.45472	-0.46102
0.50573	0.94191
0.14870	-3.01179
-0.41233	0.81437
-0.08081	0.15117
-0.10631	1.52859
0.17421	-1.20074
0.12320	0.61031
0.37822	-0.58856
-0.82036	1.24800
-0.13181	0.40625
0.88825	0.04914
0.04670	1.22250
0.35272	-0.18043
0.48022	-1.43031
0.63323	-0.23145
0.53123	0.71234
0.70974	0.17668
-1.22839	0.43176
-0.92237	1.06945
-0.08081	0.76336
0.55673	0.17668
0.65874	-0.30797
0.91375	-0.69059
0.88825	-1.50683
0.02119	0.86539
0.09770	1.12046
-0.20832	0.32972
-0.25932	-0.48652
-0.20832	0.45726
0.58223	0.35523
-0.28482	-0.18043
-0.02981	-0.74160
0.55673	0.83988
-0.43783	1.04394
-0.38683	-3.36890
0.58223	0.99292
0.40372	0.83988
0.53123	0.76336
1.32178	0.38074
-0.31033	0.20219
-1.04987	-0.28246
-0.13181	0.58480
-0.99887	0.61031
0.76074	0.63582
1.34728	0.53379
0.60773	-0.46102
0.40372	-0.86914
0.48022	0.15117
0.09770	0.81437
0.32721	-0.58856
-0.84586	0.58480
-0.15732	1.22250
0.17421	1.24800
0.30171	-1.45582
0.12320	0.91640
-0.13181	0.04914
0.09770	-0.58856
0.04670	0.53379
0.14870	0.17668
0.50573	0.07465
0.40372	0.96742
0.12320	-0.28246
0.07220	-0.35899
0.40372	-0.25695
0.42922	0.89089
-0.08081	0.38074
-0.94787	0.15117
-0.41233	-0.18043
0.88825	0.04914
0.78624	0.45726
0.22521	-0.43551
-0.41233	-0.33348
0.30171	0.48277
-0.00431	0.71234
0.22521	0.71234
0.76074	-0.63957
0.76074	0.20219
0.04670	0.43176
-0.74385	-0.05289
-0.25932	0.20219
0.02119	-1.48133
0.12320	0.78886
0.40372	0.45726
0.35272	0.76336
-0.25932	-0.56305
0.22521	0.30422
0.42922	0.94191
0.37822	1.47757
0.50573	-0.35899
-0.25932	0.20219
-0.71835	0.94191
-0.23382	-0.56305
0.37822	0.07465
0.55673	0.35523
0.86275	-0.25695
0.07220	-0.86914
0.48022	0.76336
-1.17738	0.50828
-0.31033	0.02363
0.81175	0.38074
0.58223	1.60511
0.58223	-1.81293
0.37822	-0.02739
0.30171	1.68163
0.81175	-0.56305
-0.74385	-1.25176
-2.04444	0.53379
-0.18282	0.76336
0.93925	1.04394
0.65874	0.68683
-0.20832	0.20219
-0.13181	0.04914
0.96476	0.50828
0.81175	-0.20594
1.14327	-0.05289
0.27621	0.15117
-0.43783	-0.23145
-0.82036	0.22769
0.68424	-1.20074
-0.33583	1.19699
-0.51434	-0.33348
0.50573	-0.86914
0.86275	-0.02739
0.37822	1.83468
-0.69285	1.09496
0.14870	-0.53754
0.60773	1.04394
0.60773	1.24800
0.50573	-1.81293
-0.89686	-0.38449
-0.61635	0.35523
0.76074	0.81437
0.19971	1.37554
0.50573	0.48277
0.73524	-0.38449
0.60773	0.30422
-0.08081	1.09496
-1.89143	0.22769
-0.61635	-1.78742
1.06676	-0.71609
1.11776	-1.17523
0.81175	1.09496
0.58223	1.37554
0.45472	0.81437
0.07220	0.43176
-1.30489	0.35523
-0.61635	-1.48133
0.32721	0.22769
0.25071	0.25320
0.48022	1.86019
-0.56534	0.35523
0.02119	-0.86914
0.32721	0.40625
1.04126	0.45726
0.93925	0.55929
0.53123	0.55929
-0.28482	-0.66508
-0.46334	0.10015
0.53123	0.10015
-0.00431	0.35523
-0.18282	-0.38449
-0.25932	0.53379
-0.15732	-0.28246
0.53123	0.17668
0.32721	-2.52714
0.19971	0.32972
-0.05531	2.39585
0.07220	0.35523
0.17421	0.94191
0.45472	0.35523
1.39828	0.07465
-0.56534	1.06945
-2.37596	0.12566
0.02119	-0.38449
1.52579	1.19699
1.32178	-1.32828
0.12320	-0.94566
0.14870	-0.20594
-0.76936	-0.41000
0.19971	2.19179
0.32721	-1.12422
0.73524	0.55929
0.78624	1.04394
0.32721	0.86539
-0.48884	-2.29757
-0.48884	0.78886
0.53123	0.55929
-0.25932	0.10015
-0.25932	0.86539
0.07220	0.81437
0.25071	-0.38449
-0.31033	0.07465
0.14870	-0.05289
0.32721	-0.00188
0.73524	0.35523
0.25071	0.53379
0.12320	1.27351
-0.00431	-1.22625
0.12320	-0.15492
0.25071	-0.92016
0.02119	0.38074
0.53123	0.81437
0.42922	-0.25695
-0.18282	0.25320
-0.10631	1.50308
-0.00431	-0.97117
0.19971	0.50828
0.14870	0.66132
0.32721	1.70714
0.12320	0.63582
0.37822	0.63582
0.12320	0.25320
0.35272	0.58480
0.07220	0.22769
-0.31033	0.50828
