0.09770	0.22769
0.12320	0.17668
0.14870	0.22769
0.07220	0.22769
0.22521	0.17668
0.14870	0.22769
0.14870	0.20219
0.14870	0.02363
0.12320	0.10015
0.19971	-0.00188
0.09770	0.15117
0.14870	0.20219
0.19971	0.12566
0.07220	0.22769
0.17421	0.17668
0.09770	0.20219
0.09770	0.27871
0.14870	0.10015
0.12320	0.04914
0.07220	0.10015
0.19971	0.10015
0.12320	0.17668
0.14870	0.22769
0.14870	0.20219
0.14870	0.25320
0.19971	0.17668
0.14870	0.04914
0.12320	0.10015
0.12320	0.12566
0.19971	0.02363
0.07220	0.17668
0.22521	0.15117
0.12320	0.20219
0.25071	0.20219
0.17421	0.22769
0.12320	0.25320
0.22521	0.10015
0.12320	0.17668
0.12320	-0.00188
0.12320	0.10015
0.17421	0.10015
0.07220	0.15117
0.22521	0.04914
0.09770	0.20219
0.19971	0.15117
0.09770	0.30422
0.22521	0.20219
0.07220	0.04914
0.17421	0.02363
0.19971	0.04914
0.14870	0.04914
0.14870	0.15117
0.12320	0.22769
0.14870	0.20219
0.07220	0.30422
0.22521	0.12566
0.07220	0.25320
0.22521	-0.00188
0.07220	0.10015
0.19971	-0.00188
0.04670	0.10015
0.22521	0.20219
0.07220	0.27871
0.14870	0.20219
0.14870	0.35523
0.14870	-0.07840
0.14870	0.27871
0.17421	0.07465
0.12320	0.12566
0.12320	0.04914
0.12320	0.04914
0.07220	0.17668
0.19971	0.15117
0.07220	0.15117
0.19971	0.15117
0.07220	0.22769
0.22521	0.04914
0.14870	0.15117
0.14870	-0.00188
0.14870	0.15117
0.12320	0.07465
0.12320	0.25320
0.17421	0.22769
0.07220	0.25320
0.22521	0.15117
0.07220	0.10015
0.14870	0.22769
0.22521	0.15117
0.14870	0.17668
0.22521	-0.00188
0.12320	0.04914
0.14870	0.15117
0.17421	0.07465
0.09770	0.22769
0.19971	0.15117
0.14870	0.20219
0.12320	0.12566
0.19971	0.07465
0.09770	0.22769
0.17421	0.15117
0.09770	0.12566
0.12320	0.22769
0.14870	0.17668
0.17421	0.22769
0.22521	0.12566
0.12320	0.17668
0.22521	0.12566
0.17421	0.04914
0.14870	0.10015
0.19971	-0.00188
0.14870	0.10015
0.12320	0.32972
0.22521	0.22769
0.14870	0.22769
0.12320	0.32972
0.22521	0.15117
0.14870	0.04914
0.17421	0.07465
0.19971	-0.00188
0.12320	-0.02739
0.07220	0.15117
0.22521	0.10015
0.12320	0.27871
0.09770	0.32972
0.22521	0.30422
0.17421	0.27871
0.09770	0.17668
0.19971	0.07465
0.14870	-0.02739
0.07220	0.04914
0.14870	0.20219
0.17421	0.15117
0.07220	0.10015
0.12320	0.35523
0.14870	0.22769
0.09770	0.10015
0.12320	0.15117
0.19971	0.02363
0.04670	0.04914
0.19971	0.15117
0.14870	0.10015
0.12320	0.17668
0.22521	0.27871
0.14870	0.22769
0.09770	0.25320
0.14870	0.27871
0.22521	0.17668
0.07220	0.02363
0.14870	0.10015
0.14870	0.15117
0.14870	0.15117
0.09770	0.12566
0.14870	0.30422
0.25071	0.20219
0.12320	0.15117
0.04670	0.12566
0.14870	0.15117
0.12320	-0.00188
0.12320	0.02363
0.07220	0.10015
0.14870	0.15117
0.22521	0.22769
0.09770	0.15117
0.17421	0.25320
0.22521	0.22769
0.09770	0.20219
0.09770	0.35523
0.25071	0.04914
0.14870	0.12566
0.07220	-0.05289
0.17421	-0.02739
0.14870	0.10015
0.22521	0.15117
0.12320	0.10015
0.14870	0.20219
0.19971	0.27871
0.14870	0.12566
0.14870	0.12566
0.19971	0.12566
0.14870	-0.00188
0.07220	0.17668
0.17421	0.30422
0.17421	0.15117
0.09770	0.22769
0.22521	0.20219
0.07220	0.20219
0.04670	0.12566
0.19971	-0.00188
0.12320	0.07465
0.12320	0.10015
0.19971	0.07465
0.14870	0.20219
0.14870	0.25320
0.17421	0.15117
0.09770	0.25320
0.25071	0.25320
0.12320	0.07465
0.12320	0.20219
0.22521	-0.02739
0.07220	0.07465
0.12320	0.07465
0.12320	0.10015
0.12320	0.17668
0.19971	0.17668
0.14870	0.22769
0.09770	0.27871
0.22521	0.20219
0.07220	0.07465
0.12320	0.17668
0.19971	0.04914
0.07220	0.02363
0.12320	0.17668
0.19971	0.17668
0.04670	0.12566
0.14870	0.27871
0.17421	0.17668
0.09770	0.17668
0.14870	0.15117
0.12320	0.07465
0.09770	0.10015
0.17421	0.15117
0.17421	0.22769
0.09770	0.25320
0.22521	0.30422
0.14870	0.22769
0.07220	0.10015
0.22521	0.15117
0.19971	-0.02739
0.12320	0.04914
0.12320	0.07465
0.22521	0.12566
0.14870	0.27871
0.17421	0.45726
0.14870	0.15117
0.09770	0.15117
0.14870	0.22769
0.17421	0.10015
0.09770	0.10015
0.14870	0.15117
0.17421	0.02363
0.14870	0.15117
0.17421	0.12566
0.14870	0.04914
0.09770	0.17668
0.12320	0.22769
0.17421	0.20219
0.17421	0.12566
0.22521	0.07465
0.09770	0.17668
0.19971	0.02363
0.07220	0.15117
0.22521	0.10015
0.09770	0.20219
0.14870	0.22769
0.14870	0.25320
0.14870	0.25320
0.12320	0.04914
0.14870	0.07465
0.12320	0.12566
0.14870	0.02363
0.07220	0.17668
0.22521	0.07465
0.07220	0.12566
0.19971	0.22769
0.09770	0.30422
0.17421	0.40625
0.14870	0.04914
0.12320	0.04914
0.22521	-0.02739
0.07220	0.02363
0.14870	0.15117
0.14870	0.10015
0.14870	0.30422
0.17421	0.22769
0.14870	0.30422
0.14870	0.20219
0.17421	0.12566
0.07220	0.07465
0.19971	-0.00188
0.09770	0.02363
0.25071	0.10015
0.07220	0.17668
0.22521	0.27871
0.17421	0.15117
0.12320	0.20219
0.22521	0.15117
0.17421	0.04914
0.12320	0.15117
0.22521	0.02363
0.09770	0.07465
0.14870	0.17668
0.07220	0.12566
0.12320	0.30422
0.22521	0.15117
0.09770	0.27871
0.22521	0.17668
0.04670	0.10015
0.22521	0.07465
0.09770	0.07465
0.17421	0.04914
0.14870	0.12566
0.14870	0.15117
0.19971	0.12566
0.09770	0.25320
0.22521	0.20219
0.17421	0.17668
0.14870	0.12566
0.12320	0.04914
0.07220	0.15117
0.22521	0.07465
0.12320	0.15117
0.14870	0.20219
0.22521	0.12566
0.07220	0.15117
0.22521	0.22769
0.14870	0.10015
0.12320	0.20219
0.12320	0.04914
0.09770	0.15117
0.19971	-0.00188
0.12320	0.15117
0.14870	0.20219
0.22521	0.12566
0.09770	0.15117
0.17421	0.20219
0.12320	0.12566
0.14870	0.22769
0.22521	-0.00188
0.12320	0.02363
0.14870	0.10015
0.12320	0.20219
0.14870	-0.05289
0.22521	0.27871
0.09770	0.12566
0.17421	0.30422
0.12320	0.15117
0.07220	0.20219
0.22521	0.10015
0.14870	-0.02739
0.12320	0.10015
0.14870	0.07465
0.07220	0.15117
0.22521	0.30422
0.14870	0.15117
0.07220	0.25320
0.22521	0.25320
0.14870	0.10015
0.09770	0.17668
0.22521	0.02363
0.09770	0.10015
0.12320	0.15117
0.14870	0.15117
0.09770	0.22769
0.22521	0.12566
0.14870	0.22769
0.14870	0.15117
0.17421	0.07465
0.07220	0.15117
0.17421	-0.00188
0.07220	0.10015
0.12320	0.12566
0.07220	0.15117
0.14870	0.27871
0.17421	0.17668
0.12320	0.27871
0.14870	0.10015
0.14870	0.10015
0.19971	0.04914
0.07220	-0.00188
0.14870	0.07465
0.14870	0.15117
0.14870	0.17668
0.14870	0.27871
0.17421	0.12566
0.14870	0.30422
0.22521	0.12566
0.09770	0.15117
0.19971	0.10015
0.09770	0.10015
0.19971	-0.05289
0.07220	0.22769
0.22521	0.15117
0.07220	0.22769
0.19971	0.07465
0.12320	0.30422
0.14870	0.07465
0.17421	0.22769
0.14870	0.07465
0.22521	0.12566
0.07220	0.12566
0.19971	0.12566
0.07220	0.17668
0.22521	0.22769
0.07220	0.25320
0.22521	0.22769
0.09770	0.27871
0.22521	0.12566
0.04670	0.04914
0.14870	0.02363
0.12320	0.04914
0.09770	0.15117
0.17421	0.30422
0.12320	0.04914
0.22521	0.15117
0.09770	0.22769
0.14870	0.07465
0.14870	0.15117
0.22521	0.04914
0.17421	0.15117
0.14870	0.02363
0.02119	0.20219
0.17421	0.10015
0.09770	0.27871
0.19971	0.10015
0.09770	0.30422
0.22521	0.12566
0.07220	0.17668
0.19971	0.10015
0.07220	0.10015
0.19971	0.07465
0.09770	0.15117
0.17421	0.15117
0.09770	0.15117
0.19971	0.15117
0.07220	0.22769
0.14870	0.20219
0.14870	0.12566
0.17421	0.12566
0.12320	0.04914
0.12320	0.04914
0.14870	0.15117
0.12320	0.17668
0.17421	0.25320
0.19971	0.15117
0.07220	0.30422
0.19971	0.12566
0.04670	0.22769
0.22521	0.10015
0.09770	0.12566
0.22521	0.12566
0.14870	0.07465
0.17421	0.07465
0.12320	0.32972
0.22521	-0.02739
0.09770	0.17668
0.12320	0.10015
0.07220	0.20219
0.22521	-0.00188
0.04670	0.15117
0.17421	0.12566
0.07220	0.22769
0.17421	0.22769
0.07220	0.30422
0.25071	0.20219
0.12320	0.22769
0.19971	0.22769
0.14870	0.10015
0.09770	0.12566
0.17421	0.07465
0.07220	0.04914
0.12320	0.10015
0.12320	0.10015
0.17421	0.25320
0.22521	0.22769
0.09770	0.25320
0.19971	0.15117
0.14870	0.12566
0.19971	0.10015
0.12320	-0.00188
0.12320	0.12566
0.14870	0.07465
0.12320	0.25320
0.19971	0.12566
0.09770	0.40625
0.17421	0.22769
0.14870	0.12566
0.12320	0.12566
0.14870	0.04914
0.07220	0.15117
0.22521	-0.00188
0.12320	0.12566
0.12320	0.20219
0.09770	0.15117
0.14870	0.25320
0.14870	0.25320
0.14870	0.20219
0.09770	0.12566
0.19971	0.10015
0.04670	0.07465
0.14870	0.07465
0.14870	0.10015
0.12320	0.25320
0.14870	0.12566
0.12320	0.22769
0.19971	0.10015
0.09770	0.15117
0.22521	0.07465
0.07220	0.02363
0.12320	0.25320
0.14870	0.00000
0.19971	0.25320
0.14870	-0.07840
0.12320	0.20219
0.12320	0.22769
0.14870	0.25320
0.17421	0.25320
0.12320	0.20219
0.14870	0.15117
0.12320	0.10015
0.14870	0.07465
0.12320	-0.02739
0.19971	0.17668
0.09770	0.15117
0.22521	0.27871
0.07220	0.12566
0.22521	0.30422
0.09770	0.12566
0.19971	0.20219
0.09770	-0.02739
0.19971	0.15117
0.04670	0.04914
0.12320	0.10015
0.07220	0.10015
0.14870	0.22769
0.14870	0.15117
0.14870	0.30422
0.14870	0.17668
0.19971	0.15117
0.09770	0.10015
0.22521	0.10015
0.14870	0.04914
0.14870	0.07465
0.22521	0.22769
0.09770	0.17668
0.22521	0.17668
0.14870	0.25320
0.12320	0.15117
0.12320	0.22769
0.14870	0.02363
0.17421	0.17668
0.04670	0.04914
0.12320	0.02363
0.14870	0.25320
0.17421	0.27871
0.17421	0.30422
0.19971	0.30422
0.09770	0.07465
0.14870	0.20219
0.12320	0.04914
0.04670	-0.02739
0.19971	0.10015
0.17421	0.12566
0.07220	0.15117
0.12320	0.20219
0.22521	0.20219
0.09770	0.15117
0.19971	0.25320
0.14870	0.20219
0.04670	0.04914
0.12320	0.10015
0.14870	0.15117
0.07220	0.04914
0.22521	0.10015
0.09770	0.12566
0.12320	0.15117
0.14870	0.25320
0.07220	0.12566
0.22521	0.22769
0.14870	0.10015
0.14870	0.07465
0.19971	0.22769
0.09770	0.04914
0.14870	0.17668
0.12320	0.20219
0.07220	0.12566
0.17421	0.30422
0.14870	0.22769
0.17421	0.04914
0.14870	0.17668
0.09770	-0.02739
0.19971	0.04914
0.12320	0.12566
0.12320	0.12566
0.17421	0.25320
0.04670	0.12566
0.19971	0.20219
0.17421	0.17668
0.14870	0.07465
0.19971	0.17668
0.07220	0.10015
0.12320	-0.00188
0.12320	0.17668
0.07220	0.15117
0.22521	0.27871
0.07220	0.30422
0.22521	0.48277
0.07220	0.07465
0.22521	0.02363
0.04670	-0.20594
0.19971	-0.05289
0.04670	-0.10391
0.19971	0.22769
0.09770	0.12566
0.22521	0.35523
0.09770	0.20219
0.22521	0.45726
0.14870	0.27871
0.12320	0.25320
0.17421	0.12566
0.12320	-0.00188
0.22521	0.12566
0.09770	0.12566
0.14870	0.20219
0.14870	0.25320
0.09770	0.12566
0.12320	0.17668
0.22521	0.15117
0.09770	0.10015
0.22521	0.04914
0.14870	0.10015
0.09770	0.04914
0.14870	0.02363
0.22521	0.15117
0.09770	0.20219
0.14870	0.17668
0.14870	0.35523
0.04670	0.10015
0.14870	0.20219
0.07220	0.07465
0.22521	0.10015
0.07220	0.07465
0.22521	0.20219
0.14870	0.07465
0.12320	0.15117
0.07220	0.17668
0.19971	0.17668
0.12320	0.15117
0.12320	0.15117
0.14870	0.25320
0.17421	0.12566
0.19971	0.17668
0.07220	0.12566
0.19971	0.25320
0.12320	0.04914
0.12320	0.12566
0.14870	0.22769
0.14870	0.25320
0.17421	-0.07840
0.22521	0.04914
0.12320	0.17668
0.17421	0.12566
0.07220	0.22769
0.22521	0.17668
0.09770	0.30422
0.22521	0.20219
0.09770	0.20219
0.14870	0.04914
0.04670	0.22769
0.19971	0.04914
0.07220	-0.38449
0.19971	0.25320
0.07220	0.25320
0.19971	0.15117
0.09770	0.20219
0.19971	0.25320
0.09770	0.25320
0.25071	0.61031
0.09770	-0.86914
0.14870	0.22769
0.07220	1.22250
0.27621	-1.25176
0.22521	0.83988
0.14870	1.06945
0.14870	-2.11902
-0.20832	0.17668
-0.38683	0.07465
0.19971	1.06945
0.63323	2.21730
0.48022	1.57960
0.81175	-1.63437
0.09770	-1.14973
-0.23382	-0.92016
-0.79486	-0.25695
-0.15732	-1.68539
0.70974	1.73265
-0.18282	1.91120
0.76074	0.10015
0.58223	2.88050
0.81175	2.24281
-0.23382	-5.12893
0.14870	0.17668
1.65330	-4.69530
-1.78942	2.21730
-3.52353	4.58952
1.70430	0.86539
0.04670	1.50308
0.19971	0.38074
1.62780	3.92632
1.34728	-8.26639
0.68424	-2.85874
1.44929	0.07465
-0.76936	2.24281
-1.94243	2.08976
-0.38683	1.29902
1.34728	2.08976
-0.10631	-1.32828
0.88825	-0.69059
-0.05531	6.73217
0.25071	1.27351
-3.54903	-6.20026
-7.06826	-3.82804
1.39828	-3.06281
4.66249	1.29902
0.83725	2.34484
4.91751	1.50308
-0.38683	3.26312
-2.93700	-1.45582
1.62780	1.91120
2.64786	0.76336
0.58223	-0.25695
-1.15188	1.45206
0.88825	-1.88945
-2.04444	-10.30701
-3.47253	-4.26167
1.32178	4.79358
0.42922	3.26312
2.18883	1.22250
1.95932	-0.63957
-3.67654	3.28862
-4.05907	3.05905
-3.31952	4.84460
0.99026	-8.87857
5.14702	1.73265
2.01032	-2.24656
1.29628	0.99292
-0.23382	-0.79262
0.65874	-3.01179
0.35272	1.80917
2.29084	3.92632
0.73524	-1.58336
1.24527	-2.32308
1.14327	3.13558
-3.93156	2.01323
-1.33039	2.37034
-8.06282	2.49788
-3.95706	-10.74064
3.94845	4.25792
3.84644	1.75816
3.36191	3.97733
3.33641	-1.35379
2.52035	-2.90976
-1.17738	3.46718
-1.66191	-1.09871
-1.53441	-2.17003
0.22521	2.49788
-0.18282	1.98773
-0.28482	-3.13933
0.17421	1.09496
0.53123	0.15117
0.07220	-1.17523
0.22521	0.27871
0.09770	0.25320
0.30171	0.02363
0.93925	-0.07840
-0.13181	0.30422
-0.20832	2.70194
1.24527	-2.32308
-1.10088	-7.04202
0.81175	2.98253
1.34728	-0.41000
-7.17027	1.65613
1.47479	2.49788
0.32721	0.71234
1.37278	2.90601
2.39285	2.24281
2.90288	-2.80773
2.95388	-1.68539
2.46935	-3.80253
-4.97713	3.11007
-3.93156	1.32453
1.16877	-0.81812
1.16877	-2.29757
0.73524	2.03874
0.48022	-1.58336
0.32721	-0.07840
0.65874	-0.07840
1.37278	0.94191
-0.23382	0.38074
-4.87512	0.25320
-1.63641	-3.49644
1.52579	-0.00188
0.73524	0.22769
0.68424	2.39585
2.03582	-1.30277
1.39828	1.47757
-0.74385	1.06945
-0.25932	0.78886
0.48022	-1.40480
0.53123	0.07465
-0.05531	1.19699
1.27078	0.22769
2.16333	2.03874
-3.67654	-0.76711
-3.88056	-0.48652
1.42379	-0.30797
1.78081	1.37554
1.44929	1.70714
1.52579	-0.92016
0.73524	-1.17523
-0.74385	1.14597
-1.61091	-0.66508
0.53123	-0.43551
0.32721	0.66132
-0.74385	-0.76711
0.19971	-1.12422
0.81175	1.37554
0.32721	3.44167
0.63323	3.44167
0.25071	-9.84787
-0.64185	2.37034
-1.71292	1.96222
0.14870	2.85499
0.93925	1.47757
0.02119	-0.41000
0.65874	0.35523
0.50573	2.29382
0.73524	-2.50164
0.91375	0.45726
0.55673	-1.91496
0.53123	-0.46102
0.55673	0.10015
0.12320	0.15117
-0.59084	0.30422
-1.55991	0.73785
0.48022	1.14597
1.24527	0.58480
-0.38683	0.02363
1.55129	0.89089
-1.73842	-4.38921
-1.66191	0.17668
0.81175	2.29382
1.11776	0.48277
0.40372	0.81437
0.25071	-1.35379
0.68424	2.19179
1.55129	3.11007
1.01576	-3.34339
-0.28482	2.24281
-0.51434	-3.52195
-0.20832	-0.41000
0.04670	0.89089
1.11776	-1.12422
0.68424	-1.48133
-2.91149	1.80917
-0.87136	0.12566
0.73524	0.02363
0.55673	1.83468
0.32721	-3.47093
1.75531	-0.76711
-0.02981	-0.53754
-0.18282	1.83468
0.68424	2.98253
3.33641	1.32453
-0.69285	-1.20074
-2.78398	-3.87905
-0.53984	1.78367
2.01032	2.31933
-0.84586	2.75296
-2.22295	-5.56257
1.19427	2.54890
1.78081	-2.11902
2.92838	0.78886
2.77537	-0.92016
-2.86049	1.22250
-2.29945	1.35003
0.96476	1.09496
-0.46334	-1.78742
0.73524	-0.05289
0.35272	0.12566
0.93925	-0.02739
1.14327	1.52859
-0.36133	1.09496
-0.61635	0.07465
1.27078	-2.32308
-3.54903	0.04914
-0.71835	-1.09871
0.55673	1.52859
0.88825	1.65613
0.76074	1.29902
0.78624	1.22250
0.83725	0.27871
0.32721	1.75816
-0.74385	-1.78742
-0.00431	1.35003
0.09770	-0.20594
-0.51434	0.76336
0.53123	-0.07840
0.48022	-3.29238
0.55673	1.12046
0.02119	-0.30797
-0.59084	1.98773
0.25071	0.32972
0.83725	2.57441
0.17421	-1.88945
0.30171	-0.02739
0.81175	2.01323
-0.23382	-2.70570
-1.07538	-1.12422
0.76074	1.24800
-2.09544	0.43176
-0.18282	-0.71609
1.90832	-0.38449
1.16877	-0.69059
1.11776	1.22250
0.27621	0.86539
-0.53984	0.38074
0.40372	0.10015
0.19971	-0.48652
0.12320	-0.48652
1.70430	0.04914
-0.02981	1.47757
-0.64185	-0.25695
-2.73298	2.06425
-1.25389	-2.11902
0.09770	-1.30277
0.78624	1.98773
1.19427	0.27871
1.29628	2.44687
1.19427	1.12046
-0.41233	2.44687
-1.71292	-0.00188
-0.02981	-0.86914
0.42922	0.76336
1.19427	0.53379
1.37278	0.12566
-1.15188	-0.28246
-0.46334	-1.88945
0.12320	0.25320
0.22521	0.89089
0.73524	-0.63957
0.81175	-1.50683
2.39285	-0.18043
-0.71835	-1.12422
-3.98256	-0.00188
0.22521	1.60511
0.30171	3.21210
0.99026	0.71234
1.75531	3.49268
-0.18282	-5.56257
-0.48884	1.70714
1.01576	1.73265
1.62780	1.14597
-1.10088	0.12566
-0.66735	-0.35899
0.17421	-0.15492
0.65874	-0.12942
0.40372	0.27871
0.17421	0.30422
0.17421	-0.84363
-0.43783	-4.13413
0.22521	1.52859
0.48022	3.11007
-0.18282	-1.09871
-0.89686	-1.96597
-0.23382	1.88570
1.34728	1.37554
1.16877	1.04394
-1.68742	0.17668
0.07220	0.71234
1.24527	0.89089
0.76074	0.15117
0.02119	0.40625
1.14327	0.89089
-0.02981	-0.92016
-1.30489	-0.94566
0.17421	1.24800
0.76074	1.93671
0.12320	-2.88425
0.30171	-1.65988
-4.28858	1.68163
0.12320	-0.20594
2.72437	1.29902
2.39285	-0.48652
-0.87136	0.55929
-0.64185	1.55410
0.63323	1.19699
0.70974	1.47757
-0.02981	-1.73640
-0.66735	0.25320
0.35272	0.89089
0.70974	0.15117
0.37822	0.15117
0.07220	1.32453
0.68424	-4.00659
-1.33039	-0.02739
-1.89143	2.16628
0.83725	0.94191
-0.13181	1.86019
-0.43783	1.55410
1.75531	0.73785
1.37278	-0.76711
-0.23382	0.61031
-0.10631	-1.73640
0.76074	-0.76711
0.58223	1.73265
0.25071	0.38074
0.53123	0.17668
0.09770	0.61031
-2.06994	0.55929
-1.15188	0.61031
0.65874	0.40625
0.68424	-0.05289
0.78624	1.06945
1.01576	-1.20074
1.65330	-1.68539
-2.01894	-0.79262
-3.01350	0.17668
-0.87136	2.67644
1.09226	0.35523
1.65330	0.63582
1.37278	0.78886
1.27078	-0.05289
1.90832	0.71234
0.22521	-0.79262
-2.78398	0.55929
-1.40690	0.02363
1.32178	-1.50683
0.63323	-3.49644
0.09770	1.37554
0.30171	0.12566
-0.13181	0.81437
-0.05531	0.91640
0.40372	2.77847
0.40372	-0.23145
-0.10631	-4.05761
0.12320	0.48277
0.22521	1.98773
-0.13181	-0.15492
-0.46334	0.07465
0.48022	1.68163
-0.76936	0.12566
0.02119	1.22250
2.18883	-1.71090
0.25071	0.55929
0.73524	0.40625
0.42922	0.61031
-0.25932	0.81437
-1.02437	0.02363
0.27621	-0.28246
1.19427	-1.27726
-0.92237	0.35523
1.04126	0.63582
2.01032	0.73785
-2.91149	0.91640
-1.78942	-2.85874
3.56592	1.96222
1.80631	-0.25695
-1.91693	-0.43551
-1.33039	-1.40480
0.17421	1.40105
1.24527	1.57960
1.29628	1.60511
1.04126	-2.37410
-0.56534	0.10015
0.19971	0.43176
1.04126	0.55929
-0.13181	0.35523
-2.63097	0.94191
-1.30489	0.83988
-0.00431	-5.76663
1.37278	-0.74160
1.19427	2.62542
0.25071	1.73265
1.39828	1.78367
1.24527	-0.20594
-2.01894	-1.53234
0.50573	-2.55265
0.14870	1.06945
-3.60004	0.89089
1.09226	1.78367
1.72980	0.99292
1.39828	0.38074
1.24527	-1.37929
0.76074	-0.86914
0.55673	0.58480
0.12320	0.58480
0.17421	-0.12942
-0.46334	0.20219
-1.89143	1.09496
-0.51434	-3.03730
0.55673	1.42656
0.53123	0.30422
0.17421	-1.14973
-0.25932	1.12046
-0.69285	1.68163
1.24527	1.70714
0.73524	-0.58856
-0.00431	-2.06800
0.27621	1.12046
0.83725	-1.17523
-1.20288	0.78886
-0.56534	0.35523
1.39828	0.78886
-0.10631	0.32972
-1.43240	0.15117
0.93925	0.07465
1.29628	0.12566
1.16877	-0.05289
-0.08081	0.78886
-0.05531	-1.65988
0.27621	-1.81293
0.30171	0.63582
-0.38683	1.37554
-0.87136	2.24281
-0.94787	-0.61406
-1.10088	-2.17003
0.14870	-0.81812
0.17421	1.47757
0.42922	1.88570
0.91375	-0.86914
0.93925	1.22250
1.11776	0.53379
0.09770	-2.45062
-0.69285	2.19179
0.30171	1.86019
0.53123	0.55929
0.17421	1.57960
0.32721	-0.56305
-0.25932	0.04914
-0.08081	-0.97117
0.17421	-1.99148
1.70430	-0.02739
3.18340	1.75816
-5.43616	0.53379
-4.36509	-0.02739
0.17421	-0.51203
1.37278	1.17148
2.34184	-0.25695
2.06133	0.25320
1.72980	0.50828
1.42379	0.73785
0.78624	-0.02739
-0.84586	0.66132
-1.63641	0.22769
-0.79486	1.65613
-0.02981	-3.39441
0.32721	1.17148
0.12320	0.71234
-0.02981	0.22769
0.09770	0.04914
0.53123	-0.99668
0.17421	0.55929
-0.51434	0.53379
0.68424	0.43176
1.47479	0.53379
-1.96793	0.22769
-1.27939	1.78367
0.68424	0.35523
1.93382	-6.63389
0.42922	2.37034
-0.48884	-0.18043
0.40372	0.15117
-0.38683	-3.13933
0.76074	2.01323
0.83725	2.24281
2.23984	1.12046
0.96476	1.47757
-0.41233	0.48277
-3.75305	-0.33348
-0.51434	0.25320
0.91375	-0.58856
0.42922	-1.48133
-0.15732	-0.10391
0.65874	1.40105
0.88825	-1.04770
0.88825	-1.68539
0.93925	0.63582
-0.08081	0.61031
-1.30489	0.96742
-0.89686	0.35523
0.45472	0.71234
0.81175	-1.37929
0.32721	0.96742
0.55673	1.93671
1.11776	-0.25695
-0.28482	-1.27726
-0.79486	-1.04770
-0.25932	-0.10391
-0.13181	1.22250
0.40372	0.99292
0.81175	0.76336
0.22521	2.03874
1.34728	-0.33348
-0.87136	0.94191
-1.45790	0.22769
0.22521	-2.75671
0.53123	-2.80773
-0.33583	0.66132
0.73524	1.96222
0.96476	-0.25695
1.06676	-1.32828
0.60773	1.70714
0.02119	0.07465
-0.46334	0.73785
0.30171	0.45726
-1.40690	-1.07320
-1.15188	2.90601
0.55673	-0.94566
0.99026	-1.99148
0.76074	-0.00188
0.68424	1.42656
0.48022	1.75816
0.25071	1.27351
0.63323	0.61031
0.32721	-2.17003
-1.71292	0.99292
-0.31033	0.45726
0.30171	-0.25695
-0.10631	0.81437
-0.15732	-0.35899
1.34728	-0.20594
1.24527	-0.43551
0.45472	0.53379
0.91375	1.70714
-2.37596	-3.13933
-2.09544	0.71234
1.09226	1.27351
1.37278	-0.12942
1.34728	2.19179
0.93925	-1.32828
0.55673	-0.02739
0.32721	-1.09871
0.07220	0.45726
-0.18282	-2.14453
-0.31033	2.62542
-0.76936	2.93151
-0.38683	-2.62918
-0.13181	1.73265
-0.13181	0.15117
-0.15732	-1.73640
0.91375	0.32972
1.27078	0.55929
-0.18282	-1.09871
-0.87136	-0.84363
-0.56534	-1.17523
-0.05531	0.83988
0.70974	-1.71090
1.09226	2.93151
1.52579	1.45206
0.83725	-3.54745
-0.59084	-2.55265
0.27621	1.37554
-0.41233	2.44687
-0.74385	-0.86914
0.73524	2.01323
1.55129	1.29902
0.53123	0.83988
-3.26852	-0.25695
-0.71835	0.12566
1.04126	0.35523
1.11776	-0.12942
0.81175	-2.78222
0.76074	-0.33348
0.91375	0.50828
0.12320	0.73785
-0.76936	-0.07840
-0.43783	0.32972
-0.64185	0.71234
0.09770	2.26831
0.40372	-2.70570
-0.56534	0.25320
0.19971	-0.94566
1.24527	1.01843
0.81175	1.57960
0.53123	1.65613
-0.31033	0.40625
-1.10088	0.07465
-0.25932	-0.00188
1.42379	-1.81293
1.57679	0.40625
-0.89686	0.53379
-3.14101	0.71234
0.48022	0.55929
1.75531	-1.96597
0.60773	-0.18043
-0.53984	0.35523
0.27621	0.94191
0.48022	-0.79262
0.22521	0.99292
-0.13181	1.09496
-0.25932	0.91640
0.32721	-3.03730
0.25071	3.11007
0.22521	-1.04770
2.36734	-5.10343
-1.33039	1.22250
-4.21208	2.34484
-0.08081	2.03874
2.11233	-0.51203
1.34728	1.32453
1.34728	0.15117
0.76074	0.96742
0.42922	-0.58856
0.30171	-1.14973
-0.10631	-0.25695
-0.20832	1.17148
-0.00431	-1.73640
-0.08081	1.19699
0.53123	-0.79262
-0.84586	-1.14973
-1.10088	1.09496
-0.84586	1.09496
-0.00431	0.20219
1.24527	0.35523
0.88825	0.94191
1.55129	1.04394
-1.20288	0.43176
-0.48884	-0.07840
0.91375	-0.81812
-0.43783	-0.25695
-0.02981	0.10015
0.32721	0.38074
0.55673	0.32972
0.19971	0.04914
0.14870	-1.55785
0.12320	0.50828
0.65874	-0.92016
0.60773	0.78886
-0.10631	0.40625
-0.82036	1.80917
-0.94787	1.78367
0.25071	-5.33300
0.45472	2.03874
0.55673	-0.02739
0.58223	0.45726
0.42922	1.37554
-0.38683	0.15117
-0.15732	-0.33348
0.58223	0.17668
0.22521	0.99292
-2.47797	0.02363
-0.28482	-0.35899
1.72980	0.40625
1.34728	-0.05289
0.12320	0.10015
0.65874	0.40625
0.78624	-6.63389
-1.17738	1.19699
0.32721	1.57960
0.60773	1.91120
0.19971	1.19699
-0.10631	0.66132
0.07220	1.37554
1.14327	0.32972
-1.33039	-1.20074
-0.74385	-0.05289
0.55673	-0.94566
0.48022	-0.00188
-0.43783	1.45206
-0.69285	-2.65468
0.91375	-0.15492
1.24527	1.75816
0.19971	0.78886
-1.30489	1.32453
0.35272	-1.02219
2.06133	0.32972
-0.20832	1.06945
-1.12638	-3.06281
0.68424	-0.97117
0.83725	1.17148
0.60773	1.17148
0.27621	0.89089
0.09770	-0.00188
0.02119	0.17668
0.83725	0.22769
-0.97337	-0.56305
-2.63097	0.53379
0.27621	-0.30797
1.32178	0.43176
1.24527	1.27351
-0.00431	0.55929
0.07220	-1.55785
0.96476	-2.17003
0.04670	1.32453
0.07220	1.42656
0.53123	-1.30277
0.81175	0.91640
-0.38683	0.86539
-1.71292	1.42656
0.09770	-0.18043
0.86275	-2.50164
1.16877	0.02363
0.22521	1.24800
-1.33039	0.81437
1.01576	0.96742
0.45472	-0.99668
-1.76392	0.20219
0.02119	1.63062
1.50029	-3.08831
1.44929	0.50828
1.11776	1.19699
-1.55991	-4.28718
-0.71835	1.98773
-0.10631	-0.66508
0.58223	1.93671
0.96476	-0.15492
0.83725	0.71234
0.45472	0.66132
0.65874	-0.23145
0.50573	0.76336
-1.33039	0.71234
-0.23382	-1.30277
-0.31033	0.17668
0.12320	-0.48652
0.35272	1.37554
0.53123	-0.84363
0.12320	1.75816
0.14870	-0.81812
0.81175	0.20219
0.35272	-0.20594
-1.02437	0.32972
-0.08081	0.17668
0.73524	0.30422
0.45472	0.91640
0.45472	-0.28246
1.16877	0.22769
-1.38139	-2.83324
-0.79486	0.07465
0.83725	1.40105
0.93925	1.06945
0.70974	0.96742
0.27621	1.12046
0.40372	-2.11902
0.60773	0.10015
-0.94787	0.32972
-0.51434	0.53379
0.22521	0.17668
0.27621	2.24281
-0.48884	-2.78222
0.17421	-0.35899
0.63323	-0.20594
-1.43240	0.53379
-0.08081	1.24800
2.41835	0.48277
1.27078	-0.23145
0.17421	1.24800
1.11776	-0.63957
0.35272	0.71234
0.53123	0.94191
-0.02981	-0.48652
-0.82036	-0.53754
-1.48340	0.30422
-0.28482	-0.66508
0.73524	0.76336
-0.66735	1.98773
0.12320	-0.63957
1.70430	0.89089
-0.08081	0.86539
-0.66735	-3.13933
0.63323	-0.71609
1.19427	1.80917
1.34728	1.24800
0.73524	0.45726
-1.91693	-2.52714
0.09770	2.42136
-1.02437	-1.58336
1.01576	-0.86914
2.11233	1.47757
-1.78942	-2.47613
-0.23382	1.37554
0.53123	1.47757
-1.04987	0.20219
0.04670	0.78886
1.52579	0.55929
1.80631	0.96742
1.72980	-3.11382
-0.61635	0.55929
-1.50890	0.32972
-0.05531	0.12566
0.19971	-0.02739
-0.28482	0.15117
0.32721	0.07465
-0.43783	1.14597
0.07220	0.35523
0.58223	-2.52714
-0.15732	-1.78742
-0.61635	1.57960
0.12320	1.78367
1.14327	1.22250
1.34728	0.12566
-1.53441	0.32972
0.09770	1.14597
-0.08081	-0.71609
0.42922	-0.58856
0.60773	-0.15492
0.70974	0.89089
0.17421	-0.63957
0.19971	0.73785
0.30171	-0.33348
0.76074	0.71234
-0.10631	0.38074
-2.37596	1.52859
-1.55991	-0.79262
0.45472	-2.88425
1.14327	-0.76711
2.67337	1.09496
0.12320	0.25320
-1.15188	1.32453
0.07220	1.57960
0.19971	-1.07320
-0.46334	1.01843
0.63323	-0.46102
0.88825	1.37554
-0.15732	0.76336
-0.61635	-2.29757
0.19971	-0.46102
0.40372	2.42136
0.27621	-2.29757
0.32721	0.89089
0.02119	0.76336
-0.23382	0.86539
0.83725	-1.37929
0.53123	0.38074
-2.01894	1.93671
0.55673	-0.20594
-0.48884	-1.65988
0.25071	-0.35899
0.88825	1.65613
1.01576	0.17668
0.70974	0.32972
0.53123	-0.07840
-0.33583	0.15117
-0.61635	0.27871
0.14870	0.45726
0.25071	1.40105
1.04126	0.17668
1.44929	-1.88945
-1.48340	-0.02739
-1.61091	1.65613
-0.13181	0.40625
0.40372	1.57960
1.06676	-0.69059
2.26534	1.14597
0.50573	-3.36890
-2.52897	0.99292
0.73524	1.86019
1.24527	0.45726
-0.10631	-1.07320
0.45472	-0.00188
0.35272	0.02363
0.02119	1.14597
-0.00431	-0.35899
-0.02981	0.22769
0.09770	0.25320
-0.38683	0.12566
0.53123	0.76336
1.34728	-0.66508
-2.24845	-1.45582
-0.84586	-1.48133
0.48022	2.06425
1.09226	-0.66508
0.25071	0.43176
1.32178	1.93671
0.55673	1.14597
0.09770	-0.28246
0.40372	-4.21066
0.65874	1.86019
-0.53984	0.04914
-0.48884	0.86539
-0.48884	0.63582
0.27621	0.53379
1.14327	0.35523
0.70974	0.10015
1.27078	0.32972
-0.10631	-1.55785
-2.09544	1.12046
-0.61635	-0.10391
1.27078	1.09496
0.93925	0.17668
-0.38683	0.66132
1.21977	-1.45582
-1.15188	0.71234
-0.59084	-0.89465
0.73524	0.73785
-0.41233	1.37554
0.32721	-0.41000
0.60773	1.70714
0.65874	-1.09871
0.68424	0.30422
0.32721	-0.56305
-0.38683	1.22250
-0.56534	-0.76711
-0.00431	0.12566
0.58223	0.89089
0.42922	-0.46102
0.88825	1.17148
0.17421	1.57960
-1.17738	-1.73640
-1.73842	-0.76711
1.09226	0.30422
1.21977	-0.23145
-0.84586	0.61031
0.02119	-0.12942
1.34728	-0.30797
1.21977	-0.18043
1.09226	1.24800
0.12320	0.12566
-0.59084	1.04394
-0.97337	-0.48652
0.32721	-0.92016
0.35272	0.81437
-0.33583	1.17148
0.50573	-0.56305
-0.18282	-0.25695
-0.25932	-0.28246
0.83725	0.22769
0.07220	0.30422
-0.89686	1.55410
0.22521	-0.53754
0.99026	-0.35899
0.91375	0.81437
0.91375	0.38074
1.98482	0.12566
-1.86593	-0.33348
-2.04444	-0.33348
0.63323	0.12566
1.19427	1.19699
0.73524	-0.79262
0.63323	1.73265
0.22521	-1.45582
0.12320	1.17148
0.60773	0.96742
0.35272	0.53379
-1.61091	-1.55785
-0.69285	0.15117
0.30171	0.15117
-0.08081	0.94191
-0.08081	-1.50683
0.86275	0.83988
0.37822	0.02363
0.63323	-1.14973
1.01576	0.71234
1.27078	-0.23145
-1.86593	0.76336
-0.56534	0.48277
1.09226	0.15117
0.25071	0.53379
-0.51434	-0.97117
0.32721	0.30422
1.37278	1.19699
0.88825	0.20219
-1.50890	-1.78742
-1.04987	1.17148
0.09770	1.06945
0.48022	0.94191
0.07220	-0.86914
1.24527	-3.82804
0.86275	0.96742
0.12320	-0.81812
-0.13181	1.40105
0.86275	1.37554
1.21977	1.29902
-2.47797	0.35523
-1.22839	-0.00188
0.73524	1.04394
1.21977	0.38074
0.73524	-2.17003
0.25071	1.17148
0.53123	0.66132
0.37822	0.55929
-0.82036	0.22769
-0.46334	-0.25695
0.42922	0.48277
0.30171	0.12566
0.02119	0.04914
0.12320	0.27871
0.09770	0.35523
0.17421	0.96742
1.90832	-0.15492
-0.61635	-0.71609
-0.99887	0.86539
-0.56534	-0.10391
0.22521	-2.50164
-0.05531	1.42656
1.19427	0.32972
2.34184	1.32453
-1.02437	1.12046
-0.84586	0.71234
0.25071	-0.05289
0.19971	0.53379
0.48022	0.04914
0.81175	-0.20594
0.25071	-0.89465
0.17421	0.83988
-0.05531	-0.02739
-0.10631	-0.71609
0.37822	-0.63957
0.86275	-0.20594
-1.07538	0.96742
-1.50890	1.88570
0.22521	0.30422
-2.24845	0.83988
-0.74385	-1.12422
1.50029	0.38074
2.06133	2.49788
1.50029	-3.03730
1.37278	-0.92016
1.09226	1.37554
1.34728	1.52859
-2.04444	1.35003
-1.35589	-1.81293
-0.28482	0.55929
0.60773	0.48277
-0.53984	0.53379
-1.96793	0.48277
0.32721	-0.28246
1.06676	-1.94047
0.96476	0.86539
0.32721	0.91640
0.35272	0.40625
0.63323	-0.12942
0.14870	0.40625
-1.07538	-0.58856
-0.08081	0.32972
1.09226	0.73785
0.65874	0.61031
-1.48340	-0.18043
0.73524	-1.48133
0.09770	0.78886
-0.74385	-1.27726
0.30171	1.06945
1.83181	1.57960
2.29084	-0.58856
-2.55447	-1.17523
-1.86593	1.06945
0.63323	0.94191
0.35272	0.22769
0.02119	0.22769
0.40372	0.02363
1.44929	0.89089
0.19971	0.17668
0.04670	-2.73121
0.58223	0.63582
-0.56534	0.40625
-1.50890	0.32972
-1.07538	0.83988
0.73524	-0.12942
1.04126	1.45206
-0.43783	-0.66508
-0.38683	-0.02739
0.68424	0.45726
0.93925	1.50308
-0.74385	0.22769
0.07220	-1.25176
1.34728	-0.33348
1.14327	1.22250
0.65874	0.78886
0.27621	1.04394
0.30171	-1.37929
-0.41233	1.06945
0.50573	-0.53754
-1.12638	1.17148
0.30171	-1.22625
0.04670	-0.69059
0.19971	1.80917
-0.25932	0.27871
-0.43783	0.58480
0.40372	0.50828
0.76074	-1.48133
1.44929	0.99292
-0.13181	0.27871
-0.59084	1.37554
-0.94787	-1.94047
-2.40146	-0.07840
2.21434	0.25320
1.52579	0.86539
-1.04987	0.66132
0.60773	0.73785
1.62780	0.17668
1.19427	0.61031
-0.20832	-0.76711
-0.38683	0.20219
-0.10631	-1.50683
-0.33583	0.58480
0.09770	0.86539
0.22521	0.68683
-0.41233	-0.00188
-0.05531	0.20219
-0.10631	-0.43551
-0.10631	-0.05289
0.37822	0.48277
0.91375	1.68163
-0.94787	0.71234
-1.30489	-2.11902
0.27621	-0.79262
1.50029	1.80917
1.78081	0.48277
-0.71835	-0.66508
0.09770	2.19179
0.27621	0.61031
0.40372	0.12566
-0.15732	-1.48133
0.37822	0.53379
-0.00431	-0.46102
-0.41233	1.06945
-0.33583	-0.89465
0.32721	-0.76711
-0.92237	0.15117
0.86275	0.76336
-0.02981	0.89089
0.25071	1.27351
1.47479	-0.61406
2.44385	-0.66508
-4.05907	1.22250
-3.11551	1.65613
0.50573	0.22769
1.34728	-4.54226
1.16877	1.86019
1.60230	0.94191
1.47479	1.29902
0.99026	0.91640
0.12320	0.55929
-0.87136	0.32972
-0.33583	1.17148
-0.02981	-1.12422
0.12320	-1.45582
-0.13181	-0.05289
-0.23382	0.55929
-0.15732	0.58480
-0.08081	-0.12942
0.02119	-1.04770
0.78624	0.76336
0.60773	0.32972
-1.20288	-0.00188
0.27621	-0.81812
0.60773	1.17148
0.91375	1.40105
0.68424	0.20219
1.14327	-0.20594
1.14327	-0.92016
-2.42696	0.53379
-2.19745	-0.15492
0.81175	1.06945
1.16877	1.06945
0.93925	-0.23145
1.01576	0.02363
1.11776	0.76336
-1.61091	-0.25695
-0.33583	-2.19554
0.76074	-0.63957
0.40372	-0.05289
-0.48884	0.55929
-0.84586	-0.05289
-0.38683	1.09496
0.02119	1.47757
0.45472	-0.84363
0.83725	0.40625
0.68424	0.17668
-0.20832	-0.46102
0.32721	0.83988
1.21977	0.61031
0.04670	-0.46102
-0.48884	0.20219
-0.10631	0.50828
0.32721	-0.84363
-0.69285	0.66132
-0.15732	0.86539
0.50573	0.71234
-0.08081	-2.70570
0.73524	0.99292
2.11233	1.47757
0.12320	0.94191
0.22521	0.22769
0.04670	0.66132
-0.28482	0.27871
-0.13181	0.48277
0.14870	-1.53234
0.73524	-0.38449
0.63323	-1.09871
-2.17195	0.53379
-1.43240	1.65613
0.58223	0.22769
2.44385	-1.43031
-0.97337	0.73785
-1.81492	-1.17523
-0.36133	-0.25695
1.62780	0.78886
1.75531	1.22250
1.11776	0.86539
0.65874	-0.25695
-0.02981	-0.02739
-0.18282	-0.10391
-0.13181	0.66132
-0.38683	0.22769
-0.05531	0.30422
0.12320	0.15117
0.04670	0.15117
-0.87136	-0.07840
-0.82036	0.22769
0.09770	1.01843
1.09226	-0.33348
0.91375	-1.63437
-0.02981	-1.04770
-0.97337	-0.41000
1.60230	-0.61406
-0.13181	1.57960
0.73524	1.27351
0.58223	0.48277
0.45472	1.52859
0.53123	-0.46102
0.55673	0.07465
0.17421	0.35523
-0.08081	-0.61406
0.50573	-0.74160
-0.64185	0.15117
-2.45246	0.04914
0.32721	0.12566
1.95932	0.30422
-0.82036	0.30422
-0.82036	-0.00188
0.68424	0.86539
1.24527	-0.07840
0.68424	-1.45582
0.78624	0.66132
0.99026	0.10015
-0.61635	0.58480
-0.61635	1.73265
-0.20832	0.12566
0.76074	-2.27207
0.17421	0.58480
0.30171	0.76336
-0.89686	0.58480
-0.10631	0.58480
-0.05531	0.63582
0.81175	-0.07840
1.11776	0.32972
0.70974	-2.90976
-0.89686	0.17668
-1.66191	0.73785
0.02119	0.89089
0.96476	0.81437
0.76074	0.55929
0.73524	0.30422
0.50573	0.66132
0.35272	-0.43551
-0.10631	-2.14453
0.04670	1.17148
-0.23382	1.06945
-0.53984	0.38074
-0.25932	-0.69059
0.25071	0.35523
1.39828	0.73785
2.85188	0.55929
-3.60004	-0.76711
-4.08457	-0.35899
0.99026	0.45726
2.08683	1.35003
1.57679	1.29902
0.86275	-1.09871
0.86275	0.58480
0.58223	0.32972
0.17421	0.96742
0.30171	-1.32828
0.09770	0.25320
-0.48884	0.17668
-1.10088	-2.01699
-1.20288	0.20219
0.09770	1.27351
0.58223	2.08976
0.65874	0.63582
0.50573	-1.68539
0.50573	1.47757
-0.10631	-2.57816
-0.08081	0.83988
-0.08081	0.76336
1.24527	-0.20594
1.88281	0.40625
1.04126	1.22250
-1.20288	-1.68539
-0.82036	1.29902
-1.63641	0.71234
0.32721	-0.66508
1.14327	0.25320
0.96476	0.48277
0.65874	1.45206
0.40372	0.48277
0.32721	-0.76711
0.19971	0.30422
-0.31033	-0.10391
-2.57997	-0.66508
-0.71835	-0.35899
1.24527	1.01843
1.11776	0.73785
0.86275	-0.12942
0.93925	0.27871
0.63323	0.04914
-0.97337	0.76336
0.42922	-0.89465
0.32721	0.35523
0.27621	0.40625
-0.38683	0.30422
1.06676	-0.05289
-1.71292	0.04914
0.07220	-0.53754
0.96476	0.76336
1.01576	-1.45582
0.50573	1.68163
-0.59084	0.83988
0.12320	0.86539
0.37822	-0.18043
0.53123	0.66132
0.30171	-1.25176
0.81175	0.20219
0.42922	0.35523
-1.91693	1.17148
-0.89686	-0.81812
0.68424	0.07465
1.11776	-0.02739
0.48022	0.25320
0.25071	0.22769
0.50573	0.07465
0.60773	0.30422
-0.53984	0.07465
-0.05531	0.17668
0.02119	-0.05289
-0.20832	1.09496
-0.23382	-0.66508
0.07220	-0.99668
0.65874	0.40625
1.44929	0.66132
0.40372	1.80917
0.68424	0.02363
-2.40146	-1.37929
-1.94243	0.15117
1.04126	2.03874
1.75531	-1.12422
1.32178	0.99292
0.83725	0.22769
0.45472	0.32972
0.32721	0.78886
-0.00431	-0.30797
-0.10631	-0.00188
-0.53984	0.27871
-0.71835	0.04914
-0.08081	0.40625
0.68424	-0.30797
0.09770	-1.35379
0.27621	-0.15492
-1.50890	0.91640
0.50573	0.12566
0.60773	1.19699
-0.28482	-0.94566
0.68424	0.43176
1.75531	-0.05289
0.83725	-0.84363
1.09226	0.96742
-1.02437	1.86019
-1.43240	-1.20074
0.04670	0.30422
-1.50890	1.37554
0.45472	0.45726
1.21977	-3.31788
0.88825	1.12046
0.63323	1.37554
0.22521	0.58480
-0.13181	0.40625
-0.13181	0.30422
0.07220	-0.48652
-0.05531	-0.41000
0.93925	0.38074
0.48022	0.30422
-2.37596	-0.15492
-1.25389	-0.02739
0.45472	0.38074
0.93925	-0.69059
0.96476	0.30422
0.86275	0.94191
0.58223	-1.04770
0.58223	0.96742
0.76074	0.91640
0.48022	0.58480
-0.43783	0.66132
-3.21751	1.22250
-0.41233	-1.20074
1.24527	-0.46102
1.11776	1.42656
0.88825	0.22769
0.37822	-1.65988
0.40372	-0.30797
0.27621	0.20219
-0.10631	1.60511
-0.13181	0.89089
0.09770	0.17668
0.07220	-0.00188
0.58223	0.15117
0.22521	1.80917
-0.64185	-0.30797
0.22521	-1.27726
-0.84586	-3.93007
-0.59084	1.24800
0.70974	1.78367
0.70974	0.55929
0.83725	0.76336
0.63323	0.76336
0.25071	0.04914
0.17421	0.40625
0.17421	0.04914
-0.51434	-0.28246
-0.02981	0.32972
0.02119	0.30422
0.04670	0.30422
0.63323	0.48277
0.93925	0.30422
-0.18282	-1.35379
0.17421	0.63582
-1.99343	-1.12422
-1.30489	1.12046
1.09226	1.12046
1.57679	1.22250
1.42379	0.99292
-0.23382	0.15117
0.12320	-0.07840
0.07220	-2.32308
0.25071	-0.10391
0.22521	1.17148
0.07220	0.25320
-0.08081	-0.15492
-0.25932	-0.33348
-0.23382	0.91640
0.32721	0.25320
0.32721	0.58480
0.19971	-0.94566
0.42922	0.17668
-0.20832	0.66132
-0.25932	-0.23145
-0.25932	0.71234
0.60773	-0.41000
1.50029	0.55929
-0.48884	1.06945
-0.18282	1.01843
0.81175	-0.99668
1.01576	-0.99668
1.09226	0.86539
-0.94787	0.76336
-0.84586	0.55929
-1.48340	0.89089
0.50573	0.10015
1.42379	-1.30277
-0.31033	-0.66508
0.12320	-0.25695
-0.08081	0.91640
0.19971	0.78886
0.63323	0.50828
0.93925	-0.10391
0.48022	0.73785
0.37822	-0.25695
-1.45790	0.99292
-2.32496	-1.12422
-0.66735	-0.48652
0.53123	1.19699
1.80631	0.66132
1.42379	0.04914
-0.46334	0.73785
-0.66735	0.76336
0.30171	-2.90976
1.09226	0.66132
0.96476	1.09496
0.60773	1.65613
0.65874	0.50828
0.50573	-3.06281
-0.69285	1.04394
-1.10088	0.68683
-2.17195	0.22769
0.60773	0.81437
0.02119	-0.00188
0.73524	0.20219
1.32178	-0.12942
0.02119	0.04914
-0.82036	0.07465
0.37822	0.58480
0.83725	-1.14973
0.83725	0.22769
0.68424	-0.61406
-0.28482	0.35523
-0.28482	-0.12942
-0.13181	1.40105
0.45472	1.14597
0.25071	0.15117
0.04670	-1.14973
-0.08081	0.25320
0.37822	-0.12942
0.19971	0.99292
-0.25932	0.71234
-0.00431	-2.42511
-0.79486	1.22250
0.25071	0.96742
1.90832	-0.66508
-1.30489	0.22769
-1.71292	0.53379
2.36734	0.20219
1.11776	-0.35899
-1.27939	0.10015
0.40372	0.35523
1.75531	0.35523
-0.28482	0.61031
-0.18282	-0.33348
-0.48884	0.10015
0.17421	-1.09871
1.55129	-0.23145
-0.87136	1.37554
-1.43240	-0.30797
0.04670	-0.07840
0.53123	0.58480
0.27621	0.55929
0.93925	0.22769
1.72980	0.86539
-0.82036	0.45726
-1.02437	-2.17003
-1.04987	0.61031
-2.29945	0.63582
1.16877	0.35523
2.54586	1.01843
-1.12638	-0.51203
1.60230	1.19699
1.70430	0.20219
0.30171	0.99292
-0.41233	-1.68539
0.14870	-2.60367
0.32721	1.42656
0.04670	-0.23145
-0.94787	0.45726
-0.23382	1.04394
0.93925	0.68683
-1.96793	0.17668
-0.51434	0.66132
-0.08081	1.17148
-1.53441	-1.68539
0.30171	-0.51203
4.58599	1.04394
3.92294	0.48277
-2.96250	0.17668
-0.99887	-0.20594
0.96476	0.25320
-2.65648	-0.46102
0.45472	0.45726
2.57136	0.86539
1.39828	0.58480
0.07220	0.38074
-0.87136	1.17148
0.14870	-0.58856
0.07220	-3.08831
-0.00431	-0.10391
0.04670	0.50828
0.17421	0.71234
-0.31033	0.63582
0.07220	-0.63957
-2.35046	-0.35899
-0.69285	1.32453
2.16333	0.55929
-0.08081	0.94191
-0.64185	-0.12942
2.08683	0.22769
0.76074	-0.63957
-0.10631	-1.27726
1.88281	0.91640
1.14327	1.09496
-3.01350	-0.74160
-1.02437	-0.05289
0.37822	1.27351
1.14327	-3.39441
2.01032	-0.35899
1.39828	0.86539
-0.41233	0.89089
0.68424	1.27351
-0.84586	1.22250
-0.99887	-0.69059
-0.13181	0.66132
0.30171	-0.15492
0.50573	0.55929
0.22521	-0.15492
-0.23382	-0.33348
0.30171	0.15117
0.81175	0.15117
2.11233	0.76336
-2.22295	-1.32828
-3.70204	0.02363
0.32721	0.32972
1.75531	0.30422
1.75531	0.86539
1.93382	0.73785
-0.00431	-0.43551
-1.45790	0.02363
0.25071	-0.18043
-0.23382	-2.62918
0.37822	2.34484
1.09226	-0.18043
1.37278	0.81437
-2.14644	-1.63437
0.30171	0.94191
0.25071	1.27351
0.50573	1.04394
0.63323	0.76336
-0.51434	0.04914
-0.51434	0.35523
0.30171	-1.45582
-0.13181	-0.48652
0.04670	0.40625
1.95932	-0.12942
2.57136	0.38074
-4.77311	1.42656
-2.27395	0.32972
1.19427	-3.31788
1.62780	-0.69059
1.62780	0.76336
1.04126	1.73265
0.86275	1.06945
0.68424	1.04394
-0.53984	0.35523
-0.97337	-0.23145
-0.18282	-0.69059
0.27621	-0.02739
0.17421	0.32972
0.81175	0.48277
-0.36133	-0.10391
-1.96793	-0.20594
0.02119	-0.05289
-0.02981	-0.07840
0.63323	0.91640
0.09770	0.25320
1.24527	-0.79262
1.67880	0.15117
0.96476	-1.04770
0.27621	1.09496
-0.99887	0.66132
-0.31033	-0.15492
0.32721	0.12566
1.37278	1.78367
-1.55991	-1.25176
-0.76936	0.07465
0.48022	1.52859
0.70974	0.17668
0.40372	-1.58336
0.40372	-0.71609
0.35272	0.96742
0.09770	-0.46102
0.02119	0.96742
-0.33583	1.19699
0.09770	-0.25695
0.12320	0.78886
0.30171	0.32972
0.12320	-0.10391
-0.00431	-0.12942
0.93925	0.40625
0.45472	-0.35899
-1.91693	-0.02739
-0.87136	0.04914
0.81175	0.45726
1.90832	0.15117
1.04126	-1.17523
-1.45790	0.76336
0.19971	0.55929
1.50029	0.53379
-0.87136	0.35523
-0.18282	1.04394
0.60773	-0.74160
0.22521	0.38074
0.12320	-0.15492
0.04670	0.94191
-0.02981	0.48277
1.75531	-1.88945
0.42922	2.42136
-1.48340	-1.58336
-0.43783	0.83988
0.17421	0.07465
-1.71292	0.78886
-1.48340	-0.41000
0.09770	0.43176
1.62780	-0.46102
1.72980	0.25320
1.06676	0.43176
0.40372	-0.41000
0.81175	-0.71609
-0.00431	-0.28246
0.09770	0.22769
0.17421	0.66132
0.55673	0.40625
-0.46334	1.29902
-1.15188	0.50828
-0.71835	-0.99668
-0.38683	0.96742
0.19971	0.35523
0.53123	-2.29757
0.68424	0.32972
0.68424	-0.07840
0.65874	-0.12942
0.12320	1.50308
1.04126	1.17148
-0.28482	0.78886
-0.41233	0.12566
-0.59084	0.15117
0.83725	-0.15492
0.32721	-0.43551
-2.57997	-0.15492
1.83181	-0.18043
0.81175	0.22769
1.27078	0.22769
1.04126	0.32972
0.70974	0.15117
0.48022	-1.02219
-0.53984	0.99292
-1.12638	-0.56305
-0.10631	-0.76711
0.53123	0.07465
-0.25932	2.47238
-0.76936	1.55410
0.25071	-0.79262
1.34728	0.86539
0.65874	0.86539
-2.35046	-1.88945
0.07220	-0.94566
1.47479	0.48277
0.42922	0.20219
-0.23382	0.53379
0.70974	0.73785
0.76074	0.25320
-0.33583	0.73785
-0.28482	0.25320
0.91375	0.10015
1.57679	-0.28246
-0.00431	-0.51203
-2.40146	0.12566
-1.45790	0.20219
0.81175	-0.56305
0.83725	-0.61406
0.78624	0.68683
1.11776	1.42656
0.70974	-0.33348
-1.48340	-0.28246
1.60230	0.86539
-0.48884	0.83988
-0.94787	0.99292
-0.69285	-0.66508
0.30171	-0.51203
0.73524	0.40625
0.70974	1.09496
0.42922	-0.76711
0.40372	0.63582
0.35272	0.53379
0.12320	-0.58856
0.91375	0.10015
-0.64185	0.53379
-1.63641	0.40625
-0.84586	-0.46102
0.63323	0.15117
0.81175	0.63582
0.45472	0.96742
1.14327	-0.97117
-0.28482	-0.33348
-0.25932	-0.20594
0.19971	0.40625
0.40372	0.02363
0.19971	0.96742
0.30171	0.73785
0.30171	0.40625
0.32721	0.89089
0.88825	0.15117
0.37822	1.22250
-2.37596	0.10015
-1.12638	-3.29238
0.12320	-0.41000
1.52579	0.22769
0.37822	-0.05289
0.53123	1.27351
2.57136	0.76336
-0.41233	0.91640
-0.33583	0.55929
-0.15732	1.06945
-0.28482	-2.17003
1.24527	0.17668
0.45472	-0.43551
-2.93700	1.60511
-0.05531	-0.66508
1.42379	-0.10391
0.83725	0.53379
0.25071	1.22250
1.06676	-0.84363
0.81175	-1.45582
-0.38683	0.91640
-1.15188	0.45726
0.93925	0.35523
-0.28482	0.12566
0.17421	-0.46102
0.22521	1.75816
0.40372	1.14597
-0.38683	-0.51203
-2.50347	-1.02219
0.19971	0.10015
1.34728	-1.25176
1.72980	0.55929
0.76074	1.12046
