0.22521	0.20219
0.07220	0.17668
0.17421	0.15117
0.14870	0.22769
0.09770	0.25320
0.19971	0.10015
0.12320	0.12566
0.17421	0.15117
0.14870	0.07465
0.07220	0.20219
0.12320	0.15117
0.14870	0.12566
0.07220	0.17668
0.22521	0.10015
0.14870	0.20219
0.14870	0.12566
0.19971	0.15117
0.07220	0.12566
0.19971	0.15117
0.17421	0.20219
0.09770	0.10015
0.19971	0.15117
0.07220	0.15117
0.19971	0.10015
0.09770	0.22769
0.17421	0.04914
0.12320	0.15117
0.14870	0.07465
0.19971	0.12566
0.07220	0.15117
0.14870	0.17668
0.14870	0.20219
0.14870	0.20219
0.14870	0.27871
0.09770	0.10015
0.19971	0.20219
0.04670	0.10015
0.12320	0.12566
0.14870	0.12566
0.12320	0.04914
0.12320	0.20219
0.14870	0.15117
0.14870	0.22769
0.14870	0.15117
0.22521	0.30422
0.07220	0.04914
0.22521	0.10015
0.09770	0.07465
0.22521	0.12566
0.09770	0.17668
0.14870	0.04914
0.12320	0.15117
0.07220	0.15117
0.12320	0.15117
0.12320	0.25320
0.14870	0.20219
0.12320	0.15117
0.09770	0.22769
0.22521	0.07465
0.14870	0.10015
0.07220	0.15117
0.19971	0.17668
0.12320	0.17668
0.22521	0.20219
0.17421	0.17668
0.14870	0.15117
0.17421	0.12566
0.22521	0.12566
0.17421	0.12566
0.12320	0.10015
0.14870	0.15117
0.12320	0.07465
0.14870	0.25320
0.09770	0.07465
0.19971	0.25320
0.09770	0.10015
0.17421	0.15117
0.14870	0.15117
0.12320	0.12566
0.14870	0.12566
0.22521	0.12566
0.12320	0.27871
0.17421	0.12566
0.14870	0.25320
0.17421	0.12566
0.22521	0.10015
0.07220	0.12566
0.22521	0.12566
0.07220	0.15117
0.19971	0.04914
0.12320	0.25320
0.14870	0.12566
0.19971	0.15117
0.07220	0.20219
0.17421	0.17668
0.17421	0.20219
0.12320	0.04914
0.19971	0.12566
0.07220	0.10015
0.14870	0.02363
0.14870	0.22769
0.12320	0.10015
0.22521	0.15117
0.09770	0.17668
0.14870	0.22769
0.12320	0.25320
0.07220	0.07465
0.22521	0.15117
0.07220	0.07465
0.12320	0.10015
0.14870	0.22769
0.12320	0.15117
0.22521	0.25320
0.07220	0.12566
0.22521	0.32972
0.09770	0.22769
0.17421	0.15117
0.14870	0.10015
0.14870	0.02363
0.14870	0.10015
0.04670	0.04914
0.19971	0.10015
0.12320	0.20219
0.17421	0.22769
0.14870	0.22769
0.07220	0.25320
0.12320	0.12566
0.19971	0.22769
0.14870	0.17668
0.12320	0.04914
0.22521	0.10015
0.14870	0.17668
0.14870	0.10015
0.19971	0.17668
0.14870	0.17668
0.14870	0.10015
0.22521	0.10015
0.07220	0.10015
0.14870	0.04914
0.12320	0.17668
0.09770	0.15117
0.14870	0.15117
0.14870	0.20219
0.07220	0.10015
0.19971	0.22769
0.14870	0.15117
0.09770	0.15117
0.14870	0.04914
0.12320	0.10015
0.07220	0.20219
0.14870	0.10015
0.22521	0.12566
0.12320	0.22769
0.04670	0.17668
0.22521	0.15117
0.14870	0.20219
0.12320	0.12566
0.22521	0.10015
0.14870	0.17668
0.14870	0.10015
0.19971	0.12566
0.09770	0.15117
0.12320	0.15117
0.22521	0.20219
0.19971	0.17668
0.14870	0.27871
0.12320	0.07465
0.30171	0.15117
0.04670	0.15117
0.12320	0.10015
0.22521	0.15117
0.17421	0.17668
0.25071	0.10015
0.55673	0.12566
0.25071	0.22769
-1.07538	0.15117
-0.89686	0.07465
0.04670	0.04914
0.73524	0.30422
0.99026	0.20219
0.55673	0.02363
0.40372	0.30422
0.32721	0.10015
0.32721	0.12566
0.09770	0.10015
-0.02981	0.25320
-0.02981	0.12566
0.04670	0.20219
-0.02981	0.07465
-0.05531	0.07465
0.02119	0.20219
0.07220	-0.02739
0.04670	0.07465
0.22521	0.35523
0.14870	0.27871
0.27621	-0.00188
0.22521	0.15117
0.19971	0.25320
0.22521	0.22769
0.22521	0.20219
0.12320	0.17668
0.14870	0.04914
0.14870	0.32972
0.12320	-0.30797
0.17421	0.45726
0.07220	0.30422
0.19971	0.20219
0.09770	0.07465
0.14870	-0.05289
0.17421	0.12566
0.07220	0.15117
0.12320	0.10015
0.17421	0.12566
0.07220	0.27871
0.14870	0.15117
0.25071	0.07465
0.12320	0.17668
0.14870	0.38074
0.22521	0.25320
0.14870	0.12566
0.09770	0.15117
0.22521	-0.15492
0.14870	-0.10391
0.07220	0.27871
0.12320	0.25320
0.14870	0.27871
0.07220	0.12566
0.12320	0.10015
0.14870	0.10015
0.04670	0.12566
0.19971	0.10015
0.14870	0.17668
0.14870	0.15117
0.22521	0.10015
0.09770	0.30422
0.14870	-0.02739
0.12320	0.15117
0.09770	0.22769
0.22521	0.07465
0.14870	0.12566
0.07220	0.12566
0.12320	0.10015
0.12320	0.12566
0.07220	0.22769
0.22521	0.15117
0.07220	0.30422
0.12320	0.04914
0.17421	0.10015
0.17421	0.10015
0.19971	-0.02739
0.09770	0.20219
0.12320	0.07465
0.14870	0.20219
0.14870	0.15117
0.12320	0.17668
0.07220	0.15117
0.22521	0.12566
0.07220	0.17668
0.12320	0.07465
0.12320	0.20219
0.14870	0.07465
0.14870	0.20219
0.17421	0.15117
0.17421	0.25320
0.12320	0.07465
0.14870	0.17668
0.09770	-0.02739
0.07220	0.22769
0.12320	0.17668
0.25071	0.25320
0.17421	0.15117
0.17421	-0.15492
0.07220	0.10015
0.19971	0.40625
0.12320	-0.23145
0.12320	0.43176
0.14870	0.17668
0.17421	0.20219
0.12320	0.07465
0.07220	0.10015
0.19971	0.04914
0.14870	0.22769
0.12320	0.15117
0.14870	0.35523
0.07220	0.04914
0.22521	0.25320
0.14870	0.15117
0.17421	0.10015
0.14870	0.17668
0.07220	-0.00188
0.19971	0.12566
0.07220	0.17668
0.12320	0.10015
0.17421	0.25320
0.14870	0.17668
0.22521	0.07465
0.07220	0.12566
0.19971	0.25320
0.09770	0.10015
0.19971	0.17668
0.17421	0.17668
0.12320	0.15117
0.17421	0.22769
0.14870	0.07465
0.14870	0.17668
0.09770	0.15117
0.19971	0.12566
0.09770	0.15117
0.22521	0.04914
0.14870	0.15117
0.07220	0.04914
0.19971	0.20219
0.09770	0.12566
0.12320	0.15117
0.14870	0.25320
0.14870	0.22769
0.22521	0.12566
0.14870	0.15117
0.17421	0.10015
0.22521	0.04914
0.09770	0.30422
0.17421	0.12566
0.17421	0.15117
0.12320	0.07465
0.22521	0.10015
0.07220	0.30422
0.22521	0.27871
0.04670	0.10015
0.22521	0.04914
0.09770	0.02363
0.14870	0.10015
0.14870	0.15117
0.12320	0.15117
0.17421	0.20219
0.17421	0.20219
0.12320	0.17668
0.12320	0.12566
0.14870	0.15117
0.14870	0.20219
0.17421	0.07465
0.14870	0.15117
0.14870	0.12566
0.12320	0.10015
0.07220	0.17668
0.17421	0.22769
0.12320	0.15117
0.14870	0.15117
0.14870	0.15117
0.12320	0.20219
0.12320	-0.12942
0.14870	0.17668
0.14870	0.30422
0.17421	0.15117
0.14870	0.22769
0.14870	0.15117
0.22521	0.15117
0.09770	-0.02739
0.19971	0.15117
0.07220	-0.02739
0.19971	0.20219
0.07220	0.10015
0.17421	0.17668
0.17421	0.15117
0.22521	0.17668
0.09770	0.15117
0.19971	0.12566
0.09770	0.15117
0.17421	0.12566
0.07220	0.02363
0.22521	0.22769
0.09770	0.15117
0.22521	0.22769
0.07220	0.15117
0.22521	0.22769
0.09770	0.12566
0.22521	0.15117
0.09770	0.10015
0.22521	0.12566
0.09770	0.07465
0.19971	0.12566
0.02119	0.15117
0.19971	0.17668
0.09770	0.15117
0.22521	0.20219
0.12320	0.20219
0.12320	0.10015
0.07220	0.15117
0.12320	0.04914
0.14870	0.20219
0.14870	0.12566
0.14870	0.07465
0.07220	0.20219
0.12320	0.15117
0.12320	0.17668
0.07220	0.25320
0.22521	0.10015
0.17421	0.10015
0.14870	0.15117
0.17421	0.10015
0.14870	0.04914
0.12320	0.07465
0.19971	0.32972
0.14870	0.02363
0.17421	0.15117
0.14870	0.15117
0.14870	0.25320
0.14870	0.15117
0.17421	-0.00188
0.25071	0.10015
0.07220	0.07465
0.22521	0.20219
0.09770	0.12566
0.22521	0.35523
0.09770	-0.10391
0.22521	0.35523
0.07220	0.12566
0.22521	0.20219
0.14870	0.02363
0.12320	0.07465
0.12320	0.10015
0.14870	0.17668
0.19971	0.15117
0.09770	0.15117
0.22521	0.30422
0.07220	0.12566
0.12320	0.15117
0.12320	0.04914
0.14870	0.07465
0.12320	0.04914
0.09770	0.07465
0.19971	0.20219
0.07220	0.12566
0.19971	0.25320
0.14870	0.12566
0.12320	0.22769
0.14870	0.15117
0.14870	0.10015
0.17421	0.12566
0.09770	0.15117
0.25071	-0.05289
0.04670	0.10015
0.22521	0.17668
0.07220	0.22769
0.12320	0.25320
0.17421	0.22769
0.14870	0.27871
0.14870	0.04914
0.12320	0.10015
0.14870	0.04914
0.12320	0.07465
0.12320	0.12566
0.19971	0.17668
0.12320	0.07465
0.19971	0.22769
0.17421	0.15117
0.14870	0.25320
0.17421	0.07465
0.12320	0.12566
0.12320	0.12566
0.14870	0.12566
0.19971	0.15117
0.07220	0.15117
0.19971	0.15117
0.09770	0.17668
0.22521	0.20219
0.09770	0.20219
0.22521	0.12566
0.07220	0.07465
0.19971	0.15117
0.04670	0.04914
0.22521	0.22769
0.14870	0.07465
0.14870	0.22769
0.14870	0.12566
0.14870	0.20219
0.14870	0.15117
0.19971	0.12566
0.17421	0.12566
0.14870	0.04914
0.12320	0.04914
0.14870	0.15117
0.14870	0.25320
0.07220	0.12566
0.12320	0.32972
0.07220	-0.00188
0.22521	0.32972
0.07220	0.12566
0.17421	0.12566
0.09770	0.10015
0.12320	0.17668
0.14870	0.25320
0.09770	0.48277
0.14870	0.32972
0.17421	-0.76711
0.09770	0.32972
0.19971	0.17668
0.14870	0.25320
0.12320	0.12566
0.19971	0.00000
0.12320	0.00000
0.07220	0.02363
0.17421	0.20219
0.07220	0.10015
0.17421	0.25320
0.14870	0.15117
0.17421	0.20219
0.25071	0.25320
0.09770	-0.02739
0.12320	0.15117
0.14870	0.17668
0.14870	0.15117
0.22521	0.15117
0.07220	0.10015
0.14870	0.15117
0.12320	0.22769
0.07220	0.20219
0.22521	0.12566
0.07220	0.07465
0.19971	0.15117
0.09770	-0.07840
0.19971	-0.00188
0.14870	0.20219
0.14870	0.17668
0.22521	0.27871
0.09770	0.12566
0.12320	0.30422
0.14870	0.22769
0.17421	0.22769
0.22521	0.27871
0.09770	0.04914
0.12320	0.12566
0.14870	0.20219
0.04670	-0.99668
0.14870	0.58480
0.14870	-0.07840
0.09770	0.32972
0.22521	0.43176
0.12320	0.20219
0.14870	0.15117
0.22521	0.22769
0.14870	-0.02739
0.14870	-0.05289
0.19971	0.17668
0.09770	0.10015
0.14870	0.15117
0.19971	0.25320
0.17421	0.10015
0.17421	0.20219
0.02119	0.15117
0.19971	0.15117
0.07220	0.15117
0.12320	0.20219
0.14870	-0.23145
0.12320	-0.35899
0.14870	0.25320
0.12320	0.38074
0.22521	0.45726
0.09770	0.55929
0.14870	0.30422
0.14870	0.30422
0.14870	0.02363
0.19971	0.10015
0.09770	0.04914
0.12320	0.04914
0.12320	0.15117
0.07220	0.12566
0.14870	0.17668
0.17421	0.22769
0.07220	0.04914
0.14870	0.12566
0.22521	0.10015
0.07220	0.02363
0.14870	0.15117
0.14870	0.27871
0.14870	0.17668
0.22521	0.27871
0.07220	0.25320
0.17421	0.20219
0.22521	0.17668
0.07220	-0.02739
0.14870	0.15117
0.14870	0.04914
0.09770	0.12566
0.19971	0.25320
0.14870	0.10015
0.14870	0.20219
0.22521	0.35523
0.09770	-0.12942
0.12320	0.15117
0.19971	0.17668
0.07220	0.02363
0.14870	0.12566
0.19971	0.10015
0.17421	0.07465
0.12320	0.12566
0.22521	0.22769
0.07220	0.17668
0.12320	0.12566
0.14870	0.15117
0.09770	0.10015
0.14870	0.20219
0.22521	0.32972
0.12320	0.12566
0.12320	0.15117
0.22521	-0.05289
0.17421	0.20219
0.17421	0.22769
0.19971	0.20219
0.09770	-0.07840
0.22521	0.22769
0.14870	0.07465
0.14870	-0.20594
0.22521	0.35523
0.09770	0.35523
0.14870	0.27871
0.14870	0.25320
0.12320	0.25320
0.14870	0.17668
0.14870	0.10015
0.22521	-0.48652
0.09770	0.12566
0.19971	0.17668
0.09770	0.25320
0.14870	0.20219
0.14870	0.32972
0.09770	0.27871
0.22521	0.20219
0.12320	0.63582
0.07220	-0.97117
0.12320	0.15117
0.12320	0.20219
0.22521	0.45726
0.25071	-0.10391
0.19971	0.55929
0.07220	0.63582
0.27621	-0.56305
-0.02981	0.38074
-0.51434	-0.15492
-0.10631	0.45726
0.63323	0.02363
0.63323	-0.38449
0.53123	0.73785
0.81175	0.76336
0.25071	0.17668
-1.12638	1.57960
-0.69285	-0.97117
0.45472	-2.90976
1.34728	0.66132
0.73524	1.22250
-1.10088	2.59991
-0.66735	-2.27207
0.70974	1.14597
1.44929	1.60511
0.30171	0.25320
0.17421	1.45206
-3.42153	1.06945
0.12320	-1.07320
1.83181	-1.02219
2.29084	1.04394
2.08683	3.11007
0.17421	-5.51155
-0.56534	-0.86914
0.02119	4.99764
-2.01894	-2.50164
-1.68742	0.89089
2.29084	-1.63437
3.00489	1.19699
-7.88431	2.95702
-3.09000	-4.05761
2.67337	2.19179
2.18883	0.83988
3.18340	1.06945
5.35104	2.70194
2.16333	-1.53234
-4.11007	-1.35379
-3.65104	0.07465
0.02119	3.97733
0.63323	-6.73592
2.80087	0.81437
3.18340	2.16628
-2.65648	2.11527
-4.36509	-2.27207
-0.02981	-5.53706
2.57136	2.77847
2.80087	4.66604
-0.08081	-1.09871
-1.40690	-2.27207
-2.47797	1.55410
-2.01894	2.11527
0.70974	1.27351
2.59686	1.01843
-0.69285	-0.18043
2.39285	0.40625
-5.58916	-2.11902
-7.04276	2.14077
6.21809	-0.02739
4.76450	1.88570
3.54042	2.67644
1.57679	-2.73121
-0.53984	0.66132
-0.69285	2.37034
1.32178	-4.74632
1.65330	-6.12374
-1.61091	4.43647
-6.58373	0.27871
-1.66191	3.05905
0.99026	1.35003
2.41835	2.77847
0.22521	1.06945
-1.07538	-1.40480
-0.08081	-8.34291
-0.31033	0.40625
1.95932	0.99292
3.89744	2.14077
1.62780	-1.20074
-4.67111	-1.35379
-2.40146	1.45206
1.27078	4.23241
1.67880	-2.57816
3.20890	0.71234
3.13239	-7.78174
-5.43616	1.80917
-4.84962	1.55410
2.46935	1.78367
2.44385	1.09496
1.83181	2.11527
1.34728	1.47757
0.99026	-2.88425
-0.13181	5.96694
-0.56534	-7.50115
-1.71292	0.73785
2.72437	-1.94047
-4.26308	3.00804
-5.07913	1.17148
0.30171	0.91640
1.75531	0.10015
2.39285	0.50828
2.03582	0.68683
1.60230	0.04914
1.01576	0.63582
0.37822	-2.37410
0.17421	1.86019
-0.00431	-1.30277
-0.74385	-1.76191
-0.71835	-0.05289
-0.20832	1.14597
0.93925	0.50828
-1.27939	2.37034
-1.68742	-0.02739
-1.89143	-1.27726
0.32721	0.78886
2.39285	0.96742
1.39828	-0.61406
0.78624	0.71234
0.78624	0.25320
-0.08081	0.17668
0.09770	0.71234
-1.25389	-0.92016
-0.00431	-0.41000
3.13239	-1.04770
-4.26308	-1.07320
-1.25389	2.16628
2.13783	2.42136
2.23984	1.80917
0.53123	-1.96597
0.65874	1.83468
-1.30489	1.01843
-0.48884	-0.05289
0.09770	1.73265
0.09770	-1.07320
0.14870	-0.46102
-0.18282	-1.88945
0.07220	-0.84363
0.12320	1.01843
0.27621	1.17148
-0.18282	1.01843
-0.25932	0.10015
0.27621	0.10015
0.70974	0.94191
0.42922	1.27351
0.02119	-0.33348
0.42922	-1.60887
-0.08081	0.55929
0.32721	-0.43551
0.99026	1.04394
-0.25932	0.83988
-0.13181	0.63582
0.91375	0.63582
0.32721	-0.07840
-0.02981	0.12566
1.09226	0.40625
2.08683	0.91640
-5.61467	-0.25695
-4.97713	0.45726
1.98482	-3.72601
2.36734	-2.32308
3.13239	2.14077
3.31091	5.53330
-2.22295	-7.01651
-1.30489	2.70194
0.88825	2.34484
0.81175	1.86019
0.32721	-3.01179
-0.00431	1.06945
0.12320	0.86539
-0.79486	0.50828
-0.33583	-2.78222
-0.08081	-0.02739
-0.53984	0.48277
-0.33583	-1.94047
0.42922	-0.38449
0.42922	1.01843
0.42922	1.98773
0.48022	-2.22105
0.07220	0.15117
-0.20832	-0.15492
0.50573	-2.45062
0.55673	1.37554
-0.00431	1.47757
-0.02981	1.04394
0.30171	1.86019
0.91375	0.22769
-0.05531	-0.12942
-0.02981	-1.81293
0.88825	0.66132
-0.87136	0.22769
-2.17195	-0.00188
0.63323	0.10015
0.88825	0.86539
0.48022	-1.17523
1.09226	0.32972
0.27621	-0.74160
1.50029	3.44167
-0.13181	1.42656
0.30171	-7.73072
-3.88056	-1.32828
-1.68742	3.23761
1.52579	3.56921
2.62236	2.39585
0.50573	0.12566
-0.74385	1.29902
-0.05531	1.06945
0.63323	-0.66508
0.65874	-0.66508
0.55673	-2.22105
0.37822	-1.37929
-0.53984	2.31933
-0.76936	-2.27207
0.17421	0.96742
-0.43783	-0.89465
0.35272	-0.10391
0.02119	1.60511
0.81175	1.91120
0.09770	0.07465
-0.33583	0.20219
0.30171	-1.88945
0.58223	1.04394
0.93925	2.11527
1.72980	0.20219
-2.91149	-2.93527
-2.12094	-0.02739
1.57679	1.73265
0.04670	0.38074
0.60773	0.83988
1.95932	-4.15964
0.96476	0.91640
-0.87136	1.78367
-0.53984	1.01843
-0.02981	0.63582
1.57679	0.68683
1.60230	-0.38449
-2.70748	1.09496
-1.15188	0.50828
1.04126	-4.03210
1.01576	0.50828
1.29628	0.63582
-0.25932	0.30422
-1.50890	0.48277
0.42922	0.89089
0.30171	0.30422
1.72980	-0.43551
-0.13181	0.30422
0.22521	-0.97117
1.01576	-0.33348
-0.66735	0.71234
-3.01350	1.98773
-0.38683	-3.36890
1.21977	-3.90456
1.06676	3.23761
0.81175	1.93671
1.11776	1.88570
1.93382	2.16628
-1.73842	-2.24656
-2.50347	0.35523
0.35272	-0.02739
1.01576	-1.53234
-0.02981	0.78886
0.60773	1.19699
0.88825	1.04394
-0.48884	-2.80773
0.37822	0.10015
0.53123	0.50828
0.55673	1.70714
0.25071	0.91640
0.27621	0.61031
-0.99887	-1.30277
-0.38683	0.02363
-0.87136	0.45726
-0.10631	0.89089
0.42922	0.02363
1.60230	-0.53754
-0.28482	0.91640
-0.94787	-0.53754
2.69887	0.58480
2.54586	-1.91496
-4.46709	0.78886
-2.52897	-0.30797
-0.18282	1.91120
2.39285	1.80917
2.16333	0.30422
2.29084	-2.42511
1.60230	1.04394
-0.74385	0.73785
-0.31033	-1.17523
-0.08081	2.90601
-0.43783	-1.83844
-0.36133	1.19699
0.02119	-0.46102
0.19971	0.38074
-0.64185	-1.04770
-1.58541	0.25320
0.50573	-1.02219
0.63323	1.29902
0.55673	0.45726
0.81175	-0.15492
0.30171	0.45726
0.32721	-0.41000
-0.18282	0.40625
-0.74385	0.48277
1.32178	-1.09871
0.14870	0.73785
0.91375	0.45726
0.35272	1.04394
0.12320	0.12566
0.04670	0.20219
-0.79486	1.45206
-1.91693	-0.30797
0.65874	-0.43551
0.99026	-0.20594
1.16877	0.15117
1.32178	-0.38449
1.16877	-0.18043
-0.02981	0.50828
-1.91693	1.73265
-0.69285	-2.57816
0.86275	2.24281
-0.46334	-5.63909
-1.43240	0.89089
0.60773	1.73265
1.55129	3.00804
0.53123	2.19179
0.91375	2.08976
1.88281	0.12566
-1.89143	0.15117
-3.03900	0.30422
0.86275	0.50828
1.52579	-1.12422
0.91375	-0.89465
0.25071	-1.68539
-0.41233	-0.15492
0.32721	0.38074
1.32178	0.83988
-0.66735	1.14597
-2.12094	0.78886
-0.46334	0.78886
0.37822	-3.85355
0.02119	1.14597
1.67880	1.96222
0.14870	1.12046
0.35272	0.20219
0.81175	2.03874
0.91375	-1.55785
0.09770	0.48277
-1.55991	0.61031
-0.41233	0.43176
2.01032	-0.63957
-1.86593	-0.41000
-0.92237	0.94191
0.58223	-0.30797
0.70974	0.43176
0.68424	0.86539
0.70974	-3.75152
0.99026	0.58480
0.12320	0.81437
-1.20288	0.40625
-0.25932	1.04394
0.73524	-0.33348
1.11776	1.37554
0.02119	-1.12422
-1.94243	1.12046
0.45472	0.76336
1.70430	2.11527
0.19971	-1.22625
0.55673	-0.05289
-2.17195	0.91640
-0.36133	-4.21066
0.07220	0.86539
0.76074	1.14597
0.86275	1.14597
2.13783	0.15117
-0.20832	1.29902
0.25071	-2.06800
-0.53984	-2.55265
0.25071	1.40105
-0.20832	1.17148
0.83725	-1.48133
-1.22839	0.12566
-0.51434	1.93671
0.14870	-2.50164
0.68424	0.86539
0.32721	0.76336
0.40372	0.76336
-0.59084	0.86539
-0.38683	0.55929
0.83725	-0.02739
0.76074	0.12566
0.65874	-0.38449
1.32178	0.45726
2.74987	-0.48652
-3.03900	-0.07840
-3.52353	-0.92016
-0.28482	-0.41000
0.50573	1.86019
0.78624	1.68163
1.37278	-3.31788
0.37822	-0.05289
0.96476	0.91640
1.42379	1.32453
0.55673	1.19699
0.70974	1.17148
0.14870	1.57960
-1.27939	-1.37929
-1.66191	-0.35899
-0.48884	0.50828
0.25071	0.35523
0.30171	-0.58856
-0.00431	-0.35899
-0.46334	1.14597
0.14870	0.55929
0.91375	-1.63437
0.40372	-2.85874
0.53123	2.44687
0.09770	-0.41000
-2.55447	1.52859
-1.61091	0.76336
2.26534	0.71234
2.29084	-0.05289
2.36734	0.73785
-0.00431	-1.25176
-1.53441	-0.53754
0.73524	0.40625
0.73524	0.50828
0.25071	0.55929
-0.23382	-1.22625
-0.10631	0.02363
-0.08081	-0.07840
-0.08081	2.80397
-0.53984	-4.31269
-0.76936	0.15117
-0.61635	0.78886
-1.10088	2.44687
2.46935	1.70714
1.50029	-0.53754
0.30171	-2.04250
-0.28482	1.37554
-0.59084	0.55929
-0.46334	1.01843
0.88825	0.61031
2.16333	0.45726
0.53123	0.07465
0.32721	-0.35899
0.04670	-0.05289
0.22521	-0.10391
0.14870	0.25320
-0.92237	0.71234
-0.38683	-0.05289
-0.20832	-2.11902
0.42922	1.86019
0.27621	0.83988
0.04670	-1.22625
-1.12638	0.48277
-1.12638	2.52339
0.76074	0.15117
1.01576	-1.60887
0.96476	-0.76711
0.78624	1.60511
0.55673	1.52859
0.45472	0.86539
0.27621	0.55929
-0.99887	0.12566
-0.05531	-0.43551
-0.46334	0.30422
-0.18282	-1.40480
0.45472	-0.00188
0.02119	0.35523
0.37822	0.43176
0.53123	0.10015
0.07220	0.27871
0.09770	-0.99668
1.04126	-1.35379
1.27078	1.75816
-4.33958	2.14077
-1.12638	1.96222
2.18883	-3.41992
1.34728	-0.94566
-0.18282	1.68163
0.70974	0.86539
0.78624	0.63582
0.19971	0.48277
0.70974	0.78886
-0.38683	0.15117
0.58223	-0.69059
-0.94787	-0.74160
-0.31033	-0.25695
-0.28482	-0.10391
0.42922	1.55410
1.11776	0.27871
0.32721	-2.29757
-1.55991	0.94191
0.42922	-0.18043
0.76074	0.76336
0.60773	-0.30797
0.65874	1.98773
-0.28482	1.57960
-1.15188	0.25320
1.21977	-4.15964
-0.84586	-0.66508
-0.59084	0.81437
1.04126	0.61031
0.19971	2.34484
0.30171	0.10015
0.30171	0.02363
0.32721	-1.68539
0.32721	1.19699
0.22521	1.09496
0.12320	0.71234
0.27621	0.40625
0.83725	-0.41000
0.50573	-0.00188
-2.73298	-0.63957
-1.94243	0.83988
0.58223	-0.81812
1.44929	-1.27726
1.11776	1.06945
1.11776	0.83988
0.58223	0.35523
-0.02981	-1.14973
-0.43783	0.89089
-0.92237	1.83468
0.99026	-0.00188
0.25071	-2.04250
-0.46334	1.29902
-0.05531	0.48277
2.13783	0.07465
1.57679	0.58480
-1.71292	-1.09871
-1.20288	0.48277
1.01576	0.30422
1.39828	0.12566
-0.94787	0.02363
-0.61635	0.07465
1.95932	-0.07840
-1.81492	-0.30797
-1.94243	1.32453
1.70430	1.32453
1.78081	-0.84363
1.11776	-3.77702
-0.02981	2.24281
0.99026	0.50828
-0.46334	-1.22625
-0.15732	2.14077
0.22521	2.85499
-0.02981	-2.50164
-0.38683	-2.06800
-0.31033	1.70714
-0.00431	0.91640
0.60773	1.57960
0.83725	0.12566
-1.43240	-0.07840
-0.36133	-0.30797
-0.48884	0.76336
1.29628	-1.12422
0.40372	2.47238
0.48022	-5.76663
0.73524	1.01843
0.55673	0.94191
0.50573	-0.56305
0.91375	0.17668
-0.08081	1.24800
-1.33039	0.32972
-1.35589	-0.02739
0.12320	0.53379
0.35272	-0.25695
0.78624	1.70714
0.76074	0.45726
2.36734	-0.74160
-2.01894	-0.02739
-2.80949	1.17148
0.58223	0.12566
1.01576	-0.38449
0.81175	-0.71609
0.78624	-0.30797
0.27621	0.78886
0.35272	0.96742
0.53123	0.35523
0.60773	0.10015
0.93925	-0.20594
-1.91693	2.08976
-1.20288	-0.99668
0.27621	-0.20594
0.32721	-0.41000
1.06676	-0.12942
1.04126	1.75816
-1.10088	0.43176
-1.71292	0.94191
0.93925	0.71234
0.99026	1.01843
1.19427	0.86539
0.65874	0.15117
0.30171	-5.10343
0.53123	-0.15492
0.55673	-0.51203
-0.79486	1.17148
-0.51434	1.96222
0.27621	0.10015
0.65874	0.73785
0.04670	0.12566
-0.59084	0.48277
0.22521	1.17148
0.88825	-1.50683
0.53123	0.53379
-1.53441	-0.76711
-1.22839	0.99292
-0.82036	0.25320
1.37278	-0.33348
1.37278	-1.40480
1.14327	0.91640
1.09226	1.27351
1.57679	0.27871
0.07220	0.30422
-2.60547	-0.63957
-0.23382	0.20219
1.11776	0.50828
-0.64185	-0.05289
-0.31033	0.55929
0.60773	0.15117
2.16333	1.50308
0.17421	-0.51203
0.17421	-0.12942
-0.71835	0.86539
-0.20832	1.06945
0.88825	-0.15492
0.19971	-2.42511
-0.76936	-0.10391
0.12320	1.55410
0.09770	2.44687
0.25071	-1.48133
-0.08081	0.32972
0.45472	-1.60887
1.14327	0.27871
2.46935	0.81437
-0.79486	0.40625
-3.95706	0.86539
-1.50890	-0.07840
0.81175	-0.97117
1.72980	-1.76191
1.52579	0.45726
1.24527	0.94191
0.58223	0.12566
-0.05531	0.20219
-0.36133	1.32453
-0.08081	0.25320
0.40372	0.61031
-1.89143	-3.31788
-0.00431	1.14597
0.96476	1.06945
-1.40690	1.06945
-0.02981	0.61031
0.42922	0.04914
0.37822	-2.45062
0.83725	0.40625
0.81175	-0.30797
0.37822	0.43176
1.14327	0.99292
-0.48884	0.53379
-0.76936	-0.05289
-0.38683	0.86539
0.60773	0.40625
1.11776	-1.63437
-0.56534	0.38074
0.07220	0.45726
0.22521	0.45726
-0.64185	-0.51203
0.07220	0.68683
1.04126	0.02363
0.70974	0.38074
0.22521	0.32972
-0.33583	1.27351
-0.79486	-0.84363
0.58223	0.43176
1.37278	-0.18043
-0.94787	0.78886
-1.27939	-0.66508
1.75531	1.47757
2.06133	-0.20594
-1.86593	-0.48652
-0.23382	0.81437
1.11776	1.68163
1.19427	-5.53706
0.76074	1.14597
-0.51434	1.80917
0.12320	0.73785
0.53123	-0.15492
-1.12638	1.09496
-1.15188	1.24800
0.22521	-2.27207
0.73524	-0.02739
0.78624	0.61031
0.30171	-1.48133
-0.61635	0.66132
-0.46334	0.81437
0.60773	-0.05289
0.86275	0.20219
1.24527	0.48277
0.22521	0.48277
-0.10631	-0.53754
-0.13181	0.61031
-0.02981	0.27871
0.50573	0.40625
0.88825	-4.44022
-2.32496	1.27351
-1.25389	1.88570
1.32178	1.57960
-0.36133	1.50308
0.83725	0.91640
2.16333	-0.92016
1.29628	-2.52714
-0.76936	1.12046
-2.65648	1.22250
-0.43783	0.02363
1.34728	0.86539
1.29628	0.43176
1.04126	-0.89465
0.76074	0.07465
0.42922	-2.01699
0.02119	0.89089
0.04670	0.73785
-0.43783	0.12566
-0.76936	0.55929
-0.23382	0.22769
-0.10631	1.04394
-0.61635	-0.71609
0.40372	0.73785
0.55673	0.25320
0.63323	0.78886
0.42922	-0.05289
-0.18282	-0.15492
0.63323	0.81437
0.83725	0.30422
1.04126	-0.00188
-2.42696	0.50828
-1.71292	0.17668
1.24527	-0.53754
1.04126	1.01843
1.44929	-1.91496
1.50029	-0.02739
-0.71835	0.99292
0.81175	-0.56305
0.32721	0.83988
-3.03900	-0.58856
-0.89686	1.09496
1.27078	0.55929
1.11776	0.38074
0.81175	-0.25695
0.65874	0.27871
0.22521	-0.35899
0.30171	-0.20594
0.27621	0.04914
-0.76936	1.14597
-1.20288	-1.25176
0.45472	0.58480
0.40372	0.91640
0.32721	0.40625
-0.28482	-0.56305
0.45472	0.35523
1.16877	-0.02739
-0.99887	-0.63957
-1.66191	-0.23145
0.60773	0.22769
1.75531	0.83988
1.95932	1.12046
-0.33583	0.73785
-0.33583	0.17668
-0.48884	-2.11902
-1.10088	1.01843
0.96476	-1.17523
2.87738	0.96742
-0.79486	1.22250
-2.01894	0.71234
0.27621	-0.38449
0.58223	-0.79262
1.75531	0.76336
-0.23382	0.02363
-0.02981	0.50828
-0.28482	0.86539
-0.43783	-0.51203
0.07220	0.71234
-0.13181	-0.56305
0.42922	-1.02219
1.04126	0.63582
1.14327	0.45726
-0.41233	-0.56305
-2.22295	1.29902
-0.10631	0.86539
0.93925	0.83988
0.99026	-4.23616
0.78624	1.73265
0.68424	0.68683
0.53123	0.22769
0.55673	-0.05289
-1.25389	0.20219
-1.04987	-1.91496
0.40372	1.06945
2.06133	1.24800
-1.66191	0.45726
-1.45790	-0.00188
-0.28482	0.17668
1.14327	-0.02739
1.42379	0.12566
1.55129	-0.07840
0.63323	0.78886
-0.28482	1.04394
-1.76392	-3.82804
0.81175	0.38074
-0.43783	0.53379
0.50573	1.63062
0.70974	1.78367
0.40372	-0.02739
0.22521	-0.23145
0.12320	0.43176
0.25071	-0.23145
0.09770	0.55929
0.60773	0.35523
-0.20832	-0.33348
-3.09000	-1.30277
-0.69285	0.45726
1.60230	0.96742
1.80631	0.96742
1.98482	-0.20594
0.88825	-0.74160
0.96476	0.32972
-3.26852	0.35523
-0.28482	-0.23145
0.30171	0.66132
0.96476	0.27871
2.01032	-0.15492
-0.02981	-0.63957
0.09770	0.68683
-1.15188	-0.66508
-0.20832	0.55929
0.73524	0.61031
1.83181	0.43176
1.21977	0.38074
-2.96250	0.25320
-1.07538	0.04914
0.55673	0.15117
1.09226	0.27871
1.21977	0.30422
0.65874	0.76336
-0.66735	-0.94566
-0.25932	-1.91496
0.19971	-0.61406
-0.15732	1.17148
0.40372	2.52339
0.88825	0.48277
1.24527	0.53379
1.37278	1.17148
-4.05907	-2.65468
-0.84586	1.32453
0.96476	-1.83844
1.04126	0.71234
1.14327	0.81437
1.09226	-0.33348
0.83725	0.43176
-0.28482	1.42656
-0.38683	-0.02739
-0.05531	-1.68539
0.12320	0.76336
0.96476	-0.71609
0.25071	0.43176
-0.79486	0.40625
-1.63641	1.12046
-0.79486	0.25320
1.04126	-0.76711
1.04126	-0.76711
0.96476	0.20219
2.31634	0.43176
1.67880	1.27351
-1.50890	1.75816
-3.16651	0.22769
-2.91149	-4.77183
1.14327	0.22769
2.26534	1.14597
1.65330	1.04394
0.60773	0.99292
1.65330	0.50828
0.09770	0.76336
0.25071	0.96742
-0.08081	-1.14973
-0.28482	-1.71090
-0.41233	1.57960
-0.59084	-0.71609
-0.41233	1.04394
-0.23382	-0.15492
0.40372	-1.35379
-0.51434	1.12046
-0.99887	0.10015
1.29628	1.06945
1.32178	0.53379
0.42922	0.76336
0.37822	-0.25695
0.63323	-0.84363
0.40372	1.42656
0.07220	-0.41000
1.04126	0.10015
1.06676	0.48277
-1.55991	-0.41000
-2.88599	-1.17523
0.30171	0.43176
1.29628	-0.00188
1.04126	0.10015
1.01576	0.25320
0.45472	1.75816
0.07220	0.76336
-0.18282	0.86539
-0.05531	-0.05289
0.17421	0.30422
-0.00431	-0.23145
0.30171	-0.84363
0.93925	0.71234
-1.33039	0.07465
-0.74385	-0.00188
0.55673	-0.05289
-0.33583	0.32972
0.70974	0.35523
1.70430	-0.71609
0.07220	0.45726
-0.00431	0.40625
-0.69285	0.20219
0.60773	-0.07840
1.78081	0.20219
-2.60547	0.55929
-0.13181	0.20219
1.72980	0.78886
0.91375	0.89089
0.58223	-2.14453
0.93925	1.14597
-0.48884	-0.66508
-0.38683	0.48277
-0.10631	0.96742
-0.20832	-0.63957
-0.69285	1.04394
-0.66735	0.73785
0.27621	-0.86914
0.55673	-0.74160
0.81175	0.68683
0.70974	0.66132
1.47479	0.17668
0.04670	-0.25695
-2.73298	0.38074
-0.99887	-1.81293
0.12320	0.63582
0.86275	0.25320
1.01576	1.32453
2.23984	-0.74160
-0.13181	0.63582
0.25071	1.09496
0.63323	-0.35899
-0.89686	-1.12422
-1.25389	0.25320
0.45472	1.04394
-1.73842	0.94191
0.50573	0.83988
1.09226	0.04914
0.93925	0.66132
0.91375	0.17668
0.48022	0.27871
-0.74385	-0.38449
-0.66735	0.32972
-0.10631	0.02363
0.91375	-1.60887
0.19971	0.55929
0.35272	-0.35899
0.25071	0.20219
0.04670	0.40625
-0.15732	0.17668
0.32721	0.71234
0.04670	0.25320
-0.92237	0.66132
-0.20832	-0.58856
0.93925	0.20219
1.34728	0.35523
2.13783	0.55929
-0.99887	0.32972
-1.50890	-0.12942
0.09770	-0.00188
-0.66735	-0.46102
1.32178	-0.38449
2.62236	0.50828
-1.15188	0.63582
-0.08081	0.35523
0.48022	0.73785
0.19971	0.02363
-0.08081	-1.17523
0.53123	0.71234
0.42922	0.48277
-0.43783	1.12046
-0.41233	-0.18043
0.14870	-0.89465
0.37822	-0.56305
0.09770	0.20219
0.30171	1.63062
1.14327	-1.02219
-0.89686	-1.76191
-1.12638	1.88570
0.48022	0.94191
0.19971	0.04914
0.99026	0.78886
0.83725	0.55929
0.42922	0.07465
0.86275	-0.76711
-1.38139	0.27871
-1.02437	0.40625
1.11776	-1.65988
0.93925	0.89089
0.40372	-0.84363
-0.08081	0.25320
0.02119	0.91640
-0.00431	-0.10391
-0.43783	0.89089
-0.20832	-2.19554
0.50573	-0.00188
0.17421	-0.23145
0.14870	1.22250
0.22521	1.19699
0.19971	0.53379
0.60773	-0.25695
2.11233	0.48277
-1.55991	0.81437
-1.66191	0.07465
0.78624	-0.43551
1.72980	-1.20074
-1.07538	-0.10391
-1.22839	-0.02739
1.27078	0.63582
1.50029	1.40105
0.63323	0.94191
0.48022	-1.37929
0.55673	0.20219
-0.15732	-1.30277
-1.12638	0.25320
-0.41233	0.83988
-0.36133	0.66132
0.25071	0.89089
0.17421	-0.10391
0.22521	0.30422
0.14870	0.55929
0.17421	0.48277
0.04670	-0.35899
0.17421	0.30422
0.50573	0.10015
0.73524	-2.96078
0.86275	1.17148
-1.96793	-0.86914
-0.41233	0.86539
0.35272	0.96742
0.02119	1.01843
1.19427	0.66132
-0.25932	0.45726
-0.36133	0.22769
0.37822	0.07465
0.70974	-0.12942
1.01576	0.63582
2.11233	-2.62918
0.07220	-0.58856
-0.64185	0.73785
-1.10088	0.63582
0.30171	0.17668
0.45472	0.71234
0.17421	0.58480
-1.81492	0.86539
-0.20832	-0.02739
0.04670	-0.81812
0.09770	-1.35379
0.58223	0.20219
0.63323	0.43176
0.63323	0.83988
0.48022	0.20219
0.35272	0.32972
0.02119	0.86539
0.22521	0.91640
0.22521	-0.81812
-0.02981	-0.28246
0.09770	-0.92016
0.42922	-0.07840
-1.02437	0.86539
-0.25932	1.17148
0.96476	-0.00188
0.02119	0.35523
-0.10631	-0.07840
0.25071	-0.25695
1.24527	-1.20074
-0.28482	1.93671
-1.22839	-0.76711
-0.79486	0.71234
0.53123	0.81437
0.53123	-0.02739
0.88825	-1.65988
2.08683	-0.46102
0.48022	0.96742
0.19971	1.04394
-0.20832	0.68683
-0.28482	-0.41000
-0.13181	-1.83844
-0.69285	1.27351
0.09770	1.04394
-0.10631	0.27871
0.12320	-2.42511
0.32721	0.78886
0.02119	0.55929
0.32721	0.40625
0.40372	0.43176
0.09770	0.43176
-0.74385	0.55929
-0.20832	-0.25695
1.19427	0.17668
-0.10631	0.53379
-0.08081	0.02363
1.50029	-1.81293
2.31634	0.53379
-0.13181	0.86539
-3.80405	0.71234
-0.64185	-1.20074
1.09226	0.91640
1.57679	0.91640
1.75531	0.12566
-0.10631	-1.04770
-1.07538	0.17668
-0.23382	0.99292
0.68424	0.94191
0.07220	0.40625
0.14870	0.17668
0.14870	0.30422
1.01576	-0.97117
-0.64185	0.20219
-1.04987	0.04914
-0.31033	-0.81812
-0.36133	0.22769
0.12320	0.45726
0.02119	0.68683
0.60773	0.61031
0.99026	-0.89465
0.73524	0.30422
0.48022	-1.48133
0.58223	0.83988
-0.20832	0.94191
-0.53984	0.53379
0.07220	1.32453
0.25071	-1.60887
0.25071	0.53379
0.07220	1.35003
0.04670	0.86539
0.32721	-1.43031
-0.38683	0.58480
-0.00431	0.48277
0.27621	-0.20594
0.53123	-0.66508
-0.13181	0.50828
-0.48884	0.30422
0.25071	0.27871
0.81175	0.07465
0.78624	0.76336
1.42379	-1.68539
0.19971	0.76336
-2.37596	-0.18043
-1.22839	0.43176
1.21977	0.66132
-0.36133	0.20219
1.39828	0.45726
0.99026	1.75816
0.73524	-1.48133
0.50573	-0.94566
0.12320	0.43176
0.40372	0.30422
0.60773	1.57960
-2.01894	-0.18043
-0.99887	-0.00188
0.37822	0.45726
-1.02437	0.76336
0.96476	-0.15492
0.81175	0.15117
0.58223	-0.58856
0.60773	0.38074
0.81175	-0.58856
0.70974	0.53379
0.12320	0.15117
0.12320	0.48277
-0.71835	-0.41000
-0.89686	0.20219
-0.64185	-0.84363
0.68424	-0.10391
0.93925	1.14597
0.76074	0.04914
0.27621	1.42656
0.12320	0.61031
0.12320	1.37554
0.65874	-6.04721
1.16877	1.12046
-1.45790	1.14597
-2.42696	1.09496
-0.20832	0.73785
0.48022	0.55929
0.76074	-0.38449
2.06133	-0.18043
0.63323	0.25320
1.70430	0.17668
0.14870	-0.46102
-2.19745	-0.10391
-0.76936	-0.05289
-0.15732	-0.76711
0.40372	0.45726
1.11776	0.63582
1.09226	0.73785
-0.28482	-0.12942
-0.48884	0.10015
-0.18282	-0.07840
0.48022	0.78886
0.81175	0.40625
0.78624	0.12566
-0.13181	0.68683
-0.87136	-0.02739
-0.02981	1.55410
0.65874	-1.20074
0.78624	-0.38449
-0.13181	0.71234
-0.71835	-0.48652
0.07220	0.53379
0.60773	0.38074
0.83725	0.02363
1.47479	0.53379
-0.84586	0.99292
-1.91693	-0.35899
0.09770	-0.15492
1.16877	-2.60367
0.27621	0.99292
0.32721	1.24800
0.22521	1.06945
-0.13181	0.55929
0.02119	0.73785
0.58223	-0.30797
0.81175	0.15117
-0.43783	-0.15492
-0.20832	0.12566
-0.08081	-0.05289
-0.05531	-0.97117
-0.08081	0.91640
0.27621	0.73785
0.37822	0.63582
1.21977	0.30422
1.19427	-0.30797
-2.50347	-0.12942
-1.27939	0.02363
1.32178	0.48277
1.55129	0.22769
-0.51434	0.61031
-1.84042	0.12566
0.55673	-0.76711
1.44929	0.61031
0.83725	-0.35899
0.53123	0.99292
0.17421	-1.86394
-0.28482	0.45726
0.04670	2.06425
0.25071	0.22769
-0.00431	0.45726
0.27621	0.38074
0.04670	0.15117
-1.02437	0.27871
0.19971	-1.25176
-1.12638	-0.56305
-0.25932	0.66132
1.21977	-0.05289
1.04126	0.86539
0.96476	1.22250
1.42379	0.22769
-1.50890	-2.83324
-1.20288	0.68683
0.09770	0.55929
2.08683	1.22250
0.70974	1.09496
1.34728	0.38074
-0.89686	0.94191
-2.14644	-0.53754
0.02119	0.68683
0.63323	-1.37929
0.83725	0.50828
1.19427	0.25320
-1.38139	0.02363
-0.48884	0.32972
0.81175	0.04914
0.81175	-0.25695
0.35272	0.32972
-0.08081	1.27351
-0.41233	0.45726
-0.92237	-0.86914
0.63323	-1.27726
0.58223	0.50828
0.07220	-0.28246
0.83725	1.14597
1.21977	-0.02739
0.04670	0.40625
-1.33039	0.40625
-0.23382	0.99292
0.19971	-0.84363
0.48022	0.89089
0.63323	-0.35899
0.17421	0.20219
0.30171	0.73785
0.48022	-0.63957
-0.10631	0.12566
0.07220	0.27871
-0.48884	0.02363
0.19971	0.53379
0.55673	-0.18043
-1.61091	0.50828
-0.51434	0.30422
1.42379	-0.74160
0.53123	-0.48652
0.63323	-0.12942
0.42922	1.37554
0.02119	1.04394
-0.02981	0.35523
0.12320	0.25320
-0.25932	-0.10391
-0.15732	0.02363
0.04670	0.43176
0.22521	0.15117
0.68424	-0.74160
0.73524	-0.46102
-1.38139	0.91640
-0.64185	0.27871
0.22521	-0.02739
0.81175	-1.32828
1.34728	0.91640
1.55129	0.78886
-2.35046	1.09496
-1.22839	0.12566
1.09226	0.10015
1.65330	0.83988
1.32178	0.53379
-0.02981	0.55929
0.53123	0.43176
-2.14644	0.78886
0.22521	0.66132
-0.18282	-1.02219
0.78624	-1.02219
0.53123	-0.61406
0.48022	-0.10391
0.35272	0.94191
-0.05531	1.06945
-0.38683	0.12566
0.12320	0.50828
0.53123	0.12566
0.60773	-1.02219
0.17421	-0.05289
-0.02981	1.27351
-0.25932	0.66132
-0.28482	0.55929
0.12320	0.63582
-0.00431	-1.88945
0.17421	-0.18043
0.60773	1.24800
0.32721	0.17668
0.32721	0.58480
1.21977	-0.84363
-2.57997	0.61031
-1.12638	0.30422
1.32178	0.94191
1.19427	-0.33348
1.06676	-0.15492
1.90832	-1.94047
1.44929	1.47757
-4.05907	0.38074
-0.51434	-0.20594
2.36734	-1.12422
0.42922	1.17148
0.32721	0.89089
0.17421	0.89089
0.45472	1.04394
0.27621	-0.02739
-1.17738	-1.14973
-1.50890	-0.43551
0.19971	0.78886
0.68424	-0.05289
0.42922	0.61031
0.68424	-1.22625
0.40372	-0.07840
0.81175	0.48277
0.12320	0.27871
0.53123	0.02363
0.19971	-0.00188
0.07220	0.78886
-2.04444	-0.86914
0.70974	0.22769
-0.15732	1.06945
0.04670	0.99292
1.95932	-1.04770
0.22521	-0.81812
-0.46334	-0.35899
-0.25932	0.38074
0.40372	0.32972
0.58223	0.17668
0.48022	0.22769
-0.10631	0.35523
0.09770	0.50828
0.63323	0.25320
-0.46334	0.22769
1.32178	-0.69059
-1.33039	-1.37929
-2.83499	0.22769
-0.13181	0.76336
1.34728	0.66132
1.19427	0.63582
0.70974	-1.12422
0.63323	0.78886
0.22521	0.50828
0.40372	0.45726
0.17421	0.76336
-0.00431	0.35523
-0.02981	-0.00188
-0.43783	-0.71609
0.22521	0.48277
0.09770	-0.38449
-0.43783	0.86539
-1.07538	-0.74160
-0.05531	0.96742
1.80631	0.20219
1.98482	0.43176
0.27621	0.27871
-1.86593	0.89089
0.63323	-0.79262
0.58223	0.83988
0.53123	-1.30277
0.48022	-0.05289
0.40372	0.91640
0.35272	0.66132
0.14870	0.53379
-0.10631	-0.43551
-0.71835	0.25320
0.78624	-0.18043
-0.36133	-1.22625
-0.15732	0.91640
0.12320	0.02363
0.17421	0.43176
0.19971	0.38074
0.65874	0.04914
0.93925	0.45726
0.73524	1.24800
-1.07538	0.53379
-2.12094	-1.22625
-1.27939	0.07465
1.34728	0.32972
1.93382	0.35523
1.39828	0.38074
1.24527	0.17668
1.14327	0.30422
-0.79486	0.53379
-0.59084	-1.22625
0.09770	0.10015
-0.00431	0.25320
0.25071	0.53379
0.55673	0.81437
-1.71292	0.38074
-1.73842	0.58480
0.60773	0.38074
0.78624	-0.53754
0.42922	0.25320
0.73524	0.30422
0.70974	-0.63957
0.50573	0.10015
0.22521	0.58480
-0.69285	1.01843
-0.28482	-0.86914
0.32721	-0.94566
0.12320	0.45726
0.42922	1.14597
0.81175	0.43176
0.60773	0.20219
1.16877	-0.28246
-1.38139	0.04914
-1.71292	-0.66508
0.58223	0.17668
0.93925	1.19699
0.70974	0.45726
0.32721	0.27871
-0.02981	0.50828
0.27621	-0.84363
0.14870	0.78886
0.12320	-3.52195
-0.00431	1.14597
0.17421	0.22769
-0.00431	0.99292
0.07220	0.45726
0.17421	0.45726
0.58223	0.91640
0.88825	-0.07840
-1.04987	-0.81812
-0.97337	-1.45582
-0.36133	1.19699
0.86275	0.40625
1.67880	-0.05289
-1.91693	0.73785
-1.15188	0.07465
2.08683	0.32972
1.34728	0.32972
0.32721	0.15117
0.50573	-0.25695
-0.10631	-0.05289
0.09770	-0.05289
-0.08081	-0.18043
-0.13181	0.22769
0.09770	0.04914
0.55673	0.35523
-0.74385	-0.41000
-0.46334	0.22769
0.22521	0.32972
-0.08081	-0.74160
0.45472	0.78886
2.31634	0.22769
-1.43240	-0.56305
-0.08081	-1.60887
0.93925	1.68163
-0.41233	-0.33348
-0.13181	0.78886
0.27621	1.32453
0.27621	1.01843
0.32721	0.73785
0.40372	-0.05289
0.37822	-0.10391
-0.02981	-0.61406
-0.13181	-0.71609
0.19971	-0.76711
0.73524	0.27871
0.55673	0.50828
-1.04987	0.66132
-0.13181	-0.86914
-1.48340	0.63582
-0.74385	0.53379
1.39828	0.07465
1.60230	0.32972
0.68424	0.66132
0.45472	-0.81812
-0.00431	-1.40480
-0.36133	1.17148
-0.18282	1.12046
-0.08081	-0.30797
0.70974	0.66132
0.70974	1.29902
0.65874	0.76336
-0.13181	-2.19554
-0.84586	-0.56305
-1.02437	0.48277
0.63323	0.25320
0.73524	-0.99668
0.50573	0.94191
-0.61635	0.81437
0.17421	0.61031
1.95932	-0.02739
0.02119	0.22769
0.14870	-0.15492
-0.56534	-0.02739
-2.06994	0.20219
0.09770	-0.86914
1.37278	0.07465
1.32178	0.83988
0.88825	0.78886
-1.50890	-0.07840
-0.18282	-0.12942
0.86275	-0.28246
0.63323	0.25320
0.25071	0.40625
0.63323	-0.25695
0.04670	0.71234
-0.00431	1.65613
0.07220	-0.35899
-0.66735	-1.99148
-0.87136	0.17668
-0.20832	-0.79262
1.90832	1.06945
-1.22839	1.37554
-1.02437	-0.23145
0.60773	0.71234
0.73524	0.61031
0.27621	-0.99668
0.55673	0.30422
0.83725	0.40625
0.88825	0.83988
0.70974	-0.53754
-0.53984	0.50828
-0.89686	0.40625
0.22521	0.17668
-0.00431	-0.79262
0.14870	-0.63957
-0.02981	0.35523
0.50573	0.35523
2.11233	0.76336
-1.55991	-0.07840
-3.14101	0.43176
0.58223	0.30422
1.52579	0.50828
1.37278	0.35523
1.09226	-0.46102
1.04126	-0.30797
0.65874	-0.51203
-1.45790	1.12046
-1.07538	0.94191
1.32178	0.50828
-0.23382	0.12566
-1.38139	0.48277
-0.25932	-0.81812
0.99026	0.50828
1.21977	-0.41000
0.17421	-0.10391
-0.66735	0.50828
0.48022	-0.00188
1.34728	0.45726
0.48022	0.45726
-0.31033	0.20219
-0.56534	-0.89465
-0.10631	0.07465
0.45472	0.76336
-0.10631	1.19699
-0.23382	1.12046
0.40372	0.43176
0.22521	-3.01179
0.09770	-3.21585
0.07220	1.63062
0.48022	2.08976
0.40372	1.04394
-0.00431	1.17148
-0.15732	-0.20594
0.35272	0.50828
0.42922	-0.35899
0.68424	0.30422
-0.59084	-0.20594
-1.84042	0.40625
1.09226	-0.07840
0.91375	0.53379
0.42922	-0.41000
0.53123	0.04914
-0.02981	-0.15492
-0.00431	-0.15492
0.91375	0.55929
-0.05531	0.53379
0.78624	-0.86914
1.14327	1.01843
-1.22839	0.43176
-0.87136	-0.25695
-0.84586	-0.53754
-0.48884	1.04394
1.24527	0.73785
0.76074	0.38074
1.24527	0.68683
0.68424	0.32972
0.58223	-0.12942
-0.64185	0.04914
-1.81492	-0.94566
-0.23382	0.89089
0.91375	-0.61406
0.81175	-0.51203
1.32178	1.09496
0.04670	-0.51203
0.45472	0.68683
-3.42153	0.22769
-0.69285	0.04914
1.24527	1.52859
1.09226	-0.66508
0.70974	-0.00188
0.55673	-2.29757
0.32721	0.40625
0.32721	0.94191
0.45472	0.12566
0.30171	-0.41000
-1.38139	1.17148
-0.76936	1.52859
0.48022	-1.48133
-0.05531	0.17668
-0.43783	0.73785
0.40372	0.27871
0.93925	-0.10391
0.50573	-0.43551
0.86275	0.61031
-0.08081	0.35523
-0.15732	0.73785
0.27621	-0.05289
0.19971	-1.17523
0.19971	0.12566
0.09770	0.10015
0.19971	1.19699
-0.18282	0.86539
0.09770	0.86539
-0.38683	-2.80773
-0.89686	0.78886
0.07220	1.55410
1.11776	1.35003
0.99026	-0.89465
-0.36133	-0.07840
-0.10631	0.55929
1.14327	-0.10391
-0.15732	0.55929
-0.00431	-1.88945
0.42922	2.06425
0.65874	-0.86914
0.09770	0.45726
-0.18282	0.43176
-0.76936	-0.76711
-0.28482	1.35003
0.04670	-1.40480
0.14870	0.20219
1.37278	-1.32828
-1.45790	-0.61406
-0.66735	1.75816
1.21977	0.04914
1.34728	2.14077
0.63323	0.83988
0.25071	0.55929
0.25071	-0.30797
0.17421	0.30422
-0.00431	-0.12942
-0.53984	0.22769
-0.38683	0.50828
-0.02981	-3.72601
-0.08081	0.86539
-0.15732	-0.99668
0.73524	2.03874
0.83725	0.83988
-0.02981	1.06945
-0.61635	2.29382
-0.71835	-1.99148
0.30171	0.89089
1.11776	0.83988
0.86275	0.55929
0.42922	0.12566
0.55673	-0.00188
0.70974	0.25320
-0.15732	1.17148
0.02119	-1.35379
-0.69285	1.32453
-0.08081	-0.43551
0.27621	-1.14973
-0.33583	-2.04250
0.32721	1.27351
0.22521	1.12046
-1.17738	0.89089
0.37822	0.76336
1.09226	0.58480
1.21977	0.45726
-0.08081	0.10015
-0.64185	-0.25695
0.81175	-0.15492
0.55673	0.07465
0.07220	-0.00188
0.17421	0.32972
0.30171	0.48277
-0.08081	0.07465
-0.36133	-0.89465
-0.02981	1.29902
0.32721	0.10015
-0.08081	-0.51203
-0.76936	-0.53754
-0.08081	-0.66508
0.40372	0.89089
0.53123	1.37554
0.76074	0.61031
0.50573	0.94191
-0.92237	-0.07840
0.07220	-0.15492
0.48022	0.61031
0.12320	0.76336
0.32721	-1.43031
1.04126	0.07465
-0.53984	-0.18043
-0.71835	0.20219
0.12320	-0.02739
0.93925	0.61031
-0.00431	0.48277
-0.15732	-1.09871
0.22521	-1.02219
0.07220	0.91640
0.63323	0.89089
0.45472	0.63582
0.09770	0.66132
-0.38683	0.25320
0.09770	0.53379
1.01576	0.20219
-0.05531	0.96742
-0.87136	-0.56305
-0.97337	-0.38449
0.32721	-1.02219
0.50573	0.22769
1.34728	0.58480
0.30171	0.61031
-1.22839	-0.51203
0.53123	-0.20594
1.09226	0.99292
0.70974	0.81437
0.32721	-0.51203
0.14870	0.35523
-0.13181	0.94191
-0.20832	0.96742
-0.31033	-1.27726
-0.13181	-0.71609
0.32721	0.15117
-0.25932	1.29902
-0.71835	-0.48652
0.30171	-0.53754
0.19971	-0.41000
0.22521	1.32453
0.22521	1.50308
0.93925	-0.00188
0.73524	0.55929
0.58223	-0.51203
0.40372	-0.33348
-0.08081	0.73785
0.40372	1.42656
0.40372	-1.78742
0.22521	-1.02219
-1.15188	0.66132
-0.89686	0.50828
0.58223	0.38074
0.60773	0.27871
-0.10631	0.10015
-0.10631	1.37554
1.24527	0.45726
-0.61635	-0.97117
-0.84586	-0.66508
0.91375	0.71234
1.11776	0.50828
1.78081	-0.76711
-1.07538	0.10015
-0.87136	0.53379
0.14870	0.94191
0.60773	-0.53754
0.40372	0.15117
0.32721	0.96742
-0.00431	-0.51203
-0.13181	-0.63957
-0.48884	0.10015
0.35272	0.78886
-0.46334	0.17668
-0.23382	0.38074
0.42922	0.12566
0.68424	1.09496
0.88825	-0.86914
0.09770	0.76336
0.40372	0.89089
-0.18282	0.35523
-0.08081	-0.74160
-0.20832	-1.96597
0.17421	0.17668
0.27621	1.63062
0.32721	1.29902
0.81175	0.20219
0.42922	1.73265
-0.41233	-4.64429
-1.15188	0.45726
0.17421	1.63062
1.09226	1.63062
0.12320	0.53379
0.78624	-0.61406
0.68424	-0.23145
-2.17195	0.15117
-0.94787	0.86539
1.93382	0.89089
-0.23382	0.04914
-0.25932	0.22769
1.34728	-0.66508
0.88825	0.45726
0.45472	-0.43551
-0.00431	-1.22625
