0.12320	0.22769
0.12320	0.04914
0.14870	0.20219
0.12320	0.12566
0.19971	0.07465
0.07220	0.10015
0.22521	0.15117
0.07220	0.25320
0.19971	0.17668
0.14870	0.20219
0.19971	0.15117
0.14870	0.12566
0.17421	0.15117
0.22521	-0.00188
0.07220	0.15117
0.12320	0.07465
0.14870	0.25320
0.09770	0.15117
0.19971	0.20219
0.09770	0.27871
0.14870	0.12566
0.12320	0.12566
0.07220	0.17668
0.22521	-0.05289
0.14870	0.15117
0.14870	0.12566
0.22521	0.15117
0.07220	0.17668
0.12320	0.20219
0.04670	0.17668
0.19971	0.22769
0.07220	0.12566
0.22521	0.12566
0.09770	0.10015
0.22521	0.04914
0.17421	0.27871
0.14870	0.20219
0.09770	0.25320
0.09770	0.20219
0.22521	0.17668
0.07220	0.17668
0.22521	0.04914
0.17421	0.12566
0.07220	0.15117
0.19971	0.12566
0.12320	0.10015
0.14870	0.25320
0.19971	0.20219
0.09770	0.15117
0.14870	0.30422
0.14870	0.15117
0.07220	0.10015
0.14870	0.12566
0.17421	0.02363
0.07220	0.07465
0.19971	0.15117
0.12320	0.12566
0.12320	0.22769
0.22521	0.22769
0.07220	0.20219
0.14870	0.17668
0.22521	0.04914
0.14870	0.10015
0.14870	0.17668
0.19971	0.04914
0.09770	0.15117
0.12320	0.17668
0.12320	0.15117
0.07220	0.20219
0.19971	0.12566
0.17421	0.15117
0.14870	0.15117
0.22521	0.07465
0.09770	0.04914
0.22521	0.10015
0.04670	0.12566
0.17421	0.15117
0.12320	0.17668
0.12320	0.20219
0.17421	0.22769
0.09770	0.12566
0.22521	0.15117
0.04670	0.04914
0.22521	0.17668
0.07220	0.07465
0.19971	0.20219
0.07220	0.07465
0.22521	0.25320
0.09770	0.20219
0.22521	0.20219
0.09770	0.10015
0.19971	0.07465
0.07220	0.04914
0.14870	-0.00188
0.14870	0.20219
0.12320	0.20219
0.14870	0.25320
0.14870	0.15117
0.14870	0.30422
0.07220	0.22769
0.19971	0.17668
0.07220	0.15117
0.14870	0.10015
0.17421	0.04914
0.14870	0.04914
0.17421	0.22769
0.12320	0.12566
0.19971	0.15117
0.09770	0.27871
0.17421	0.12566
0.19971	0.17668
0.04670	0.15117
0.22521	0.02363
0.14870	0.04914
0.14870	0.10015
0.12320	0.12566
0.07220	0.22769
0.19971	0.20219
0.14870	0.22769
0.14870	0.25320
0.22521	0.12566
0.14870	0.20219
0.17421	0.10015
0.25071	0.17668
0.09770	0.02363
0.22521	0.15117
0.12320	0.10015
0.12320	0.10015
0.14870	0.27871
0.14870	0.17668
0.19971	0.15117
0.09770	0.15117
0.12320	0.12566
0.07220	0.10015
0.14870	0.10015
0.07220	0.15117
0.12320	0.20219
0.12320	0.30422
0.17421	0.12566
0.12320	0.15117
0.07220	0.12566
0.19971	0.07465
0.09770	0.17668
0.12320	0.10015
0.14870	0.12566
0.14870	0.22769
0.19971	0.12566
0.14870	0.20219
0.14870	0.27871
0.22521	0.12566
0.12320	0.20219
0.14870	0.07465
0.22521	0.02363
0.12320	0.15117
0.14870	0.12566
0.14870	0.15117
0.09770	0.15117
0.19971	0.12566
0.14870	0.27871
0.12320	0.15117
0.14870	0.17668
0.07220	0.12566
0.22521	0.12566
0.09770	0.10015
0.19971	0.15117
0.09770	0.20219
0.12320	0.22769
0.12320	0.12566
0.14870	0.25320
0.14870	0.04914
0.14870	0.12566
0.14870	0.12566
0.14870	0.10015
0.17421	0.02363
0.12320	0.07465
0.14870	0.12566
0.14870	0.17668
0.14870	0.22769
0.17421	0.25320
0.17421	0.22769
0.12320	0.20219
0.22521	0.15117
0.17421	0.04914
0.14870	0.15117
0.14870	0.02363
0.19971	0.20219
0.09770	0.07465
0.12320	0.25320
0.09770	0.20219
0.22521	0.15117
0.09770	0.20219
0.12320	0.10015
0.14870	0.15117
0.14870	-0.00188
0.14870	0.15117
0.07220	0.07465
0.22521	0.20219
0.17421	0.12566
0.17421	0.32972
0.09770	0.17668
0.19971	0.22769
0.07220	0.04914
0.14870	0.12566
0.09770	-0.00188
0.22521	0.10015
0.07220	0.15117
0.12320	0.20219
0.14870	0.22769
0.14870	0.20219
0.17421	0.20219
0.12320	0.04914
0.17421	0.15117
0.09770	0.10015
0.22521	0.10015
0.17421	0.10015
0.14870	0.22769
0.12320	0.25320
0.17421	0.04914
0.14870	0.17668
0.12320	0.22769
0.22521	0.04914
0.14870	0.20219
0.12320	0.12566
0.12320	0.02363
0.09770	0.12566
0.12320	0.17668
0.14870	0.12566
0.12320	0.27871
0.22521	0.25320
0.09770	0.12566
0.14870	0.22769
0.22521	0.12566
0.07220	0.15117
0.17421	0.15117
0.22521	0.12566
0.07220	0.12566
0.14870	0.20219
0.19971	0.12566
0.09770	0.22769
0.14870	0.20219
0.22521	0.04914
0.12320	0.12566
0.12320	0.02363
0.19971	0.12566
0.07220	0.17668
0.17421	0.07465
0.17421	0.17668
0.12320	0.25320
0.22521	0.17668
0.14870	0.25320
0.12320	0.22769
0.14870	0.10015
0.07220	0.04914
0.22521	0.04914
0.17421	0.12566
0.09770	0.07465
0.12320	0.15117
0.22521	0.30422
0.14870	0.17668
0.14870	0.22769
0.22521	0.17668
0.14870	0.07465
0.07220	0.17668
0.19971	0.04914
0.14870	0.04914
0.07220	0.17668
0.14870	0.10015
0.12320	0.17668
0.14870	0.20219
0.19971	0.15117
0.14870	0.22769
0.14870	0.10015
0.17421	0.12566
0.12320	0.17668
0.19971	0.07465
0.12320	0.15117
0.09770	0.15117
0.19971	0.10015
0.12320	0.22769
0.14870	0.27871
0.19971	0.10015
0.12320	0.15117
0.12320	0.07465
0.19971	0.04914
0.09770	0.12566
0.22521	0.15117
0.09770	0.17668
0.17421	0.22769
0.09770	0.25320
0.17421	0.17668
0.07220	0.10015
0.22521	0.02363
0.09770	0.04914
0.14870	0.04914
0.19971	0.10015
0.09770	0.17668
0.22521	0.15117
0.09770	0.30422
0.19971	0.25320
0.14870	0.10015
0.09770	0.17668
0.17421	0.10015
0.14870	-0.00188
0.09770	0.07465
0.17421	0.15117
0.22521	0.17668
0.14870	0.17668
0.12320	0.25320
0.22521	0.22769
0.12320	0.12566
0.07220	0.17668
0.25071	0.17668
0.14870	0.02363
0.09770	0.04914
0.19971	0.17668
0.14870	0.17668
0.04670	0.20219
0.12320	0.25320
0.19971	0.22769
0.14870	0.17668
0.09770	0.20219
0.22521	0.10015
0.14870	-0.00188
0.12320	0.12566
0.19971	0.10015
0.14870	0.15117
0.07220	0.27871
0.19971	0.15117
0.14870	0.30422
0.07220	0.17668
0.22521	0.10015
0.17421	0.15117
0.12320	0.10015
0.14870	0.10015
0.09770	0.12566
0.19971	0.10015
0.07220	0.20219
0.22521	0.07465
0.07220	0.25320
0.17421	0.17668
0.14870	0.12566
0.12320	0.20219
0.22521	0.10015
0.17421	0.10015
0.14870	0.15117
0.12320	0.02363
0.09770	0.15117
0.12320	0.17668
0.14870	0.15117
0.12320	0.22769
0.22521	0.10015
0.07220	0.15117
0.14870	0.10015
0.17421	0.17668
0.14870	0.07465
0.14870	0.25320
0.17421	0.15117
0.14870	0.27871
0.09770	0.15117
0.22521	0.22769
0.07220	0.07465
0.22521	0.12566
0.12320	-0.00188
0.14870	0.12566
0.09770	0.07465
0.12320	0.15117
0.12320	0.20219
0.19971	0.25320
0.09770	0.12566
0.22521	0.25320
0.07220	0.10015
0.22521	0.12566
0.09770	0.17668
0.22521	0.10015
0.14870	0.12566
0.14870	0.22769
0.22521	0.17668
0.14870	0.15117
0.07220	0.25320
0.12320	0.15117
0.14870	0.15117
0.07220	0.15117
0.14870	0.02363
0.14870	0.07465
0.17421	0.25320
0.19971	0.15117
0.12320	0.10015
0.12320	0.25320
0.22521	0.22769
0.12320	0.22769
0.17421	0.20219
0.22521	0.07465
0.07220	0.07465
0.12320	0.04914
0.14870	-0.00188
0.07220	0.20219
0.12320	0.17668
0.17421	0.22769
0.07220	0.22769
0.14870	0.22769
0.17421	0.15117
0.09770	0.12566
0.19971	0.10015
0.07220	0.10015
0.19971	0.10015
0.07220	0.17668
0.19971	0.10015
0.07220	0.22769
0.14870	0.22769
0.14870	0.25320
0.14870	0.15117
0.17421	0.17668
0.14870	0.02363
0.22521	0.10015
0.07220	0.12566
0.22521	0.15117
0.04670	0.15117
0.14870	0.22769
0.14870	0.20219
0.12320	0.12566
0.19971	0.12566
0.09770	0.02363
0.22521	0.10015
0.07220	0.04914
0.19971	0.04914
0.07220	0.22769
0.14870	0.15117
0.14870	0.20219
0.07220	0.22769
0.19971	0.07465
0.14870	0.15117
0.19971	0.04914
0.14870	0.10015
0.14870	0.04914
0.14870	0.07465
0.09770	0.17668
0.17421	0.12566
0.12320	0.22769
0.09770	0.25320
0.19971	0.22769
0.12320	0.10015
0.17421	-0.00188
0.14870	0.12566
0.09770	-0.02739
0.22521	0.15117
0.07220	0.12566
0.14870	0.22769
0.12320	0.15117
0.14870	0.27871
0.17421	0.15117
0.12320	0.20219
0.07220	0.07465
0.22521	0.10015
0.09770	0.10015
0.14870	0.10015
0.14870	0.12566
0.17421	0.10015
0.17421	0.27871
0.09770	0.15117
0.19971	0.20219
0.09770	0.15117
0.22521	0.15117
0.07220	0.10015
0.17421	0.07465
0.09770	0.20219
0.19971	0.12566
0.09770	0.15117
0.12320	0.17668
0.12320	0.25320
0.09770	0.17668
0.22521	0.07465
0.19971	0.15117
0.12320	0.02363
0.14870	0.15117
0.07220	0.12566
0.22521	0.20219
0.07220	0.17668
0.22521	0.20219
0.12320	0.22769
0.12320	0.20219
0.14870	0.10015
0.17421	0.22769
0.12320	0.02363
0.12320	0.07465
0.14870	0.07465
0.17421	0.20219
0.14870	0.04914
0.09770	0.22769
0.14870	0.17668
0.17421	0.25320
0.09770	0.07465
0.22521	0.20219
0.07220	0.07465
0.22521	0.04914
0.09770	0.07465
0.22521	0.17668
0.07220	0.00000
0.19971	0.00000
0.17421	0.00000
0.12320	0.00000
0.09770	0.10015
0.19971	0.25320
0.09770	0.15117
0.22521	0.22769
0.09770	0.12566
0.22521	0.20219
0.04670	0.07465
0.22521	0.15117
0.07220	0.02363
0.17421	0.20219
0.07220	0.15117
0.12320	0.22769
0.17421	0.17668
0.09770	0.15117
0.19971	0.15117
0.09770	0.02363
0.22521	0.12566
0.07220	0.02363
0.12320	0.10015
0.17421	0.22769
0.07220	0.15117
0.22521	0.27871
0.07220	0.20219
0.17421	0.17668
0.14870	0.12566
0.12320	0.04914
0.14870	0.17668
0.07220	-0.00188
0.22521	0.12566
0.07220	0.15117
0.19971	0.17668
0.07220	0.15117
0.22521	0.17668
0.12320	0.17668
0.12320	0.15117
0.14870	0.15117
0.07220	-0.00188
0.22521	0.15117
0.09770	-0.00188
0.22521	0.17668
0.14870	0.17668
0.09770	0.20219
0.22521	0.30422
0.14870	0.22769
0.09770	0.12566
0.14870	0.10015
0.22521	0.15117
0.09770	0.04914
0.12320	0.17668
0.19971	0.22769
0.07220	0.07465
0.19971	0.25320
0.14870	0.15117
0.17421	0.10015
0.22521	0.17668
0.07220	-0.00188
0.14870	0.10015
0.14870	0.10015
0.09770	0.10015
0.22521	0.32972
0.12320	0.27871
0.14870	0.20219
0.22521	0.20219
0.04670	0.10015
0.22521	0.15117
0.14870	0.04914
0.07220	0.02363
0.17421	0.12566
0.07220	0.07465
0.22521	0.15117
0.07220	0.17668
0.17421	0.22769
0.12320	0.30422
0.12320	0.10015
0.19971	0.15117
0.14870	0.02363
0.12320	0.10015
0.22521	0.17668
0.04670	0.10015
0.17421	0.20219
0.22521	0.22769
0.07220	0.07465
0.22521	0.12566
0.07220	0.15117
0.22521	0.15117
0.12320	0.04914
0.14870	0.17668
0.14870	-0.00188
0.14870	0.17668
0.14870	0.12566
0.14870	0.30422
0.12320	0.12566
0.12320	0.27871
0.09770	0.20219
0.19971	0.20219
0.09770	0.10015
0.17421	0.04914
0.14870	0.02363
0.12320	0.04914
0.14870	0.04914
0.07220	0.04914
0.22521	0.25320
0.14870	0.17668
0.14870	0.17668
0.17421	0.15117
0.09770	0.17668
0.22521	0.15117
0.09770	-0.00188
0.19971	0.17668
0.17421	0.10015
0.17421	0.15117
0.14870	0.17668
0.14870	0.22769
0.19971	0.25320
0.09770	0.07465
0.22521	0.15117
0.12320	0.10015
0.14870	0.04914
0.19971	0.15117
0.07220	0.07465
0.12320	0.25320
0.17421	0.22769
0.04670	0.15117
0.19971	0.22769
0.12320	0.22769
0.09770	0.15117
0.14870	0.10015
0.14870	0.15117
0.14870	0.12566
0.09770	0.10015
0.22521	0.20219
0.14870	0.20219
0.14870	0.25320
0.19971	0.25320
0.04670	0.15117
0.19971	0.15117
0.12320	0.07465
0.12320	0.04914
0.22521	0.17668
0.07220	0.10015
0.14870	0.25320
0.12320	0.17668
0.14870	0.20219
0.25071	0.25320
0.09770	0.10015
0.12320	0.10015
0.19971	0.12566
0.07220	0.02363
0.12320	0.22769
0.12320	0.17668
0.09770	0.12566
0.25071	0.25320
0.19971	0.17668
0.14870	0.45726
0.22521	0.40625
0.07220	-0.25695
0.14870	-0.51203
0.14870	-0.38449
0.09770	0.63582
0.14870	0.58480
0.14870	0.43176
0.09770	0.20219
0.14870	0.76336
0.17421	-0.33348
0.14870	-0.23145
0.14870	0.25320
0.09770	-0.05289
0.12320	0.35523
0.09770	1.06945
0.17421	0.50828
0.19971	-1.27726
0.17421	-2.75671
0.19971	1.57960
0.07220	1.70714
0.22521	0.78886
0.09770	0.38074
-0.10631	-2.14453
0.40372	0.22769
-0.38683	-0.86914
-0.10631	2.06425
0.17421	1.45206
0.78624	0.66132
0.50573	0.71234
-0.25932	-1.12422
-0.13181	-1.09871
0.19971	0.17668
0.93925	-1.86394
-0.31033	-1.86394
-0.82036	7.77799
1.16877	5.94143
2.36734	-5.07792
-0.87136	-8.98060
-2.63097	-2.55265
-1.10088	3.56921
-0.05531	5.73737
0.42922	2.29382
2.08683	-2.55265
1.39828	1.27351
-0.25932	-0.71609
-1.22839	1.98773
0.93925	6.93623
3.48942	-5.40952
5.96307	-4.28718
-7.11926	-2.68019
-10.25596	1.01843
0.40372	0.78886
1.85731	-2.29757
3.33641	4.25792
5.63155	-3.64948
0.73524	-0.05289
-3.21751	5.22721
0.14870	-2.65468
0.04670	2.34484
1.85731	1.32453
2.82638	5.53330
-1.22839	-5.99620
-1.43240	-1.17523
0.42922	-5.23097
-0.08081	-2.14453
1.11776	3.46718
0.07220	4.30893
-5.56366	1.75816
-1.15188	-7.60318
1.90832	1.04394
-1.81492	1.42656
1.14327	2.06425
-0.94787	0.96742
-0.28482	-0.12942
1.78081	1.06945
4.17796	-0.25695
3.03039	0.81437
1.83181	1.75816
2.82638	-2.90976
-3.54903	-2.93527
1.83181	-0.63957
-7.96082	4.99764
-5.00263	-9.03162
-0.36133	0.99292
3.33641	2.82948
4.20346	2.47238
2.95388	-0.12942
1.09226	1.12046
1.67880	2.14077
2.90288	0.40625
-3.82955	-1.20074
-5.10463	-0.33348
-1.20288	-0.05289
1.19427	1.80917
0.99026	1.06945
1.01576	-3.26687
0.48022	-2.04250
-0.28482	1.65613
-0.13181	1.09496
0.19971	0.94191
1.37278	-1.99148
-0.05531	0.81437
-0.00431	1.91120
0.02119	-0.81812
0.32721	2.54890
0.73524	-2.73121
-0.74385	-2.39961
-0.64185	3.13558
1.75531	3.03355
1.72980	-6.20026
-2.68198	0.30422
1.19427	3.39065
1.04126	-5.79214
-3.31952	3.28862
-0.53984	0.53379
2.06133	1.19699
1.93382	0.81437
2.11233	0.50828
1.06676	0.12566
-0.94787	-0.46102
-0.76936	-0.25695
0.19971	-0.33348
-0.28482	-0.53754
-0.43783	-0.28246
1.39828	-0.35899
2.01032	0.10015
-6.17570	-0.56305
-2.27395	0.17668
1.98482	0.58480
1.95932	0.61031
1.95932	0.55929
1.90832	0.35523
0.99026	0.61031
-0.87136	-0.02739
-4.03357	0.27871
-1.20288	0.40625
1.98482	1.12046
1.09226	-1.22625
0.07220	0.89089
2.16333	0.53379
1.37278	-2.57816
1.14327	2.95702
-1.22839	0.73785
0.22521	-4.69530
-1.15188	-0.38449
-0.74385	4.23241
-0.18282	-0.41000
0.45472	2.82948
0.35272	-1.17523
0.27621	-4.13413
0.48022	1.06945
0.35272	1.73265
0.37822	1.40105
0.22521	-1.09871
0.07220	-3.49644
-0.13181	-0.18043
0.12320	1.01843
0.19971	1.17148
-0.02981	-0.51203
-0.28482	-0.74160
0.19971	0.96742
0.65874	0.50828
0.17421	-0.15492
-0.05531	0.17668
0.42922	0.22769
-0.56534	0.22769
2.21434	0.20219
1.95932	0.35523
-4.46709	0.40625
-1.71292	0.66132
1.88281	2.67644
1.95932	-1.78742
2.69887	0.86539
0.35272	1.63062
-3.03900	2.08976
-0.69285	-3.26687
0.17421	-0.79262
-0.38683	-4.49124
0.07220	3.72225
0.73524	3.31413
1.32178	1.35003
0.42922	0.38074
-0.13181	-0.51203
0.42922	1.57960
1.09226	-0.35899
0.96476	-2.50164
-3.49803	0.71234
-1.84042	-0.81812
0.73524	0.96742
0.93925	1.04394
0.19971	-1.20074
0.35272	-1.48133
0.76074	-4.03210
0.63323	2.57441
0.25071	0.55929
0.27621	1.75816
-0.00431	0.63582
0.02119	0.53379
-0.00431	1.32453
0.19971	-0.07840
0.27621	-0.69059
0.17421	-0.81812
-0.53984	-2.80773
1.34728	2.98253
-2.73298	2.26831
-2.14644	0.32972
1.72980	-0.89465
3.99945	1.14597
-1.38139	-1.27726
-0.20832	1.01843
0.99026	2.11527
-0.74385	-3.54745
-0.23382	-1.32828
1.55129	1.63062
-0.89686	1.55410
0.78624	0.81437
0.83725	1.55410
0.88825	-1.30277
-0.48884	-1.25176
-0.38683	0.32972
0.27621	0.38074
-0.25932	0.55929
-0.02981	-1.30277
-0.08081	1.70714
-0.87136	-0.41000
-0.05531	1.93671
0.09770	1.14597
0.19971	-3.93007
0.37822	-0.94566
0.27621	2.19179
0.32721	2.95702
0.55673	1.29902
0.48022	-1.17523
1.04126	1.47757
1.44929	2.77847
-1.68742	0.10015
-1.43240	4.94663
1.24527	-13.26591
0.48022	-6.40432
-1.22839	5.60983
0.91375	3.79878
-1.07538	1.22250
1.72980	2.85499
1.37278	1.35003
-0.82036	0.91640
1.16877	-0.12942
1.16877	-0.58856
0.40372	-2.60367
-0.71835	-0.07840
-1.33039	-0.84363
-0.69285	-0.15492
0.22521	-0.38449
0.70974	-0.12942
0.53123	0.02363
0.27621	0.17668
0.07220	0.25320
-0.13181	0.81437
0.02119	1.45206
0.27621	0.83988
1.21977	0.10015
-0.00431	2.34484
-2.91149	-4.64429
-0.23382	0.91640
2.59686	1.24800
-2.17195	2.67644
-1.02437	-2.22105
2.59686	0.91640
2.18883	1.93671
0.50573	-0.79262
-1.45790	-0.94566
-0.64185	0.76336
1.70430	1.29902
0.04670	-0.86914
0.30171	-1.12422
0.30171	0.04914
0.04670	2.31933
-0.99887	-1.99148
-0.99887	-7.83275
-0.10631	3.54370
0.37822	0.55929
0.25071	0.40625
0.63323	2.24281
0.81175	-0.66508
1.27078	0.58480
-3.39602	0.25320
-1.27939	0.81437
1.62780	-0.18043
1.47479	-1.48133
1.09226	0.12566
1.67880	0.68683
1.27078	0.53379
-0.79486	-2.90976
-3.54903	0.40625
0.93925	0.86539
-1.86593	0.20219
-1.35589	0.78886
2.97938	1.19699
2.36734	0.02363
0.81175	0.68683
0.93925	-3.95558
0.63323	-1.30277
0.37822	1.19699
-0.33583	2.21730
-0.15732	1.27351
-0.41233	0.25320
-1.25389	1.32453
-1.07538	-0.43551
0.14870	0.40625
0.40372	0.83988
0.42922	0.10015
0.78624	-0.86914
0.45472	-0.15492
-0.59084	0.04914
-0.48884	-2.47613
0.12320	-0.51203
0.22521	0.61031
0.42922	1.37554
0.88825	1.98773
1.16877	-0.18043
0.68424	-0.76711
0.27621	-1.17523
0.04670	2.01323
0.86275	1.42656
1.50029	0.68683
-3.75305	-0.05289
-2.40146	-2.32308
0.50573	1.29902
1.34728	1.22250
1.83181	0.96742
2.16333	0.45726
-1.04987	-0.46102
-1.35589	0.32972
0.76074	-0.05289
-0.31033	-0.43551
-0.66735	-1.81293
0.78624	0.55929
1.09226	-1.40480
0.35272	-0.69059
0.63323	1.70714
1.62780	1.93671
-1.73842	-0.58856
-2.63097	1.24800
-0.51434	-1.53234
0.42922	2.11527
1.01576	0.12566
0.99026	1.70714
1.01576	0.53379
0.55673	0.30422
0.32721	0.30422
0.22521	-5.76663
0.02119	1.80917
-0.15732	0.38074
-0.05531	1.78367
-0.15732	-0.71609
0.25071	1.98773
0.02119	-2.96078
-0.18282	0.25320
0.22521	0.17668
0.19971	1.04394
-0.28482	-0.33348
0.30171	0.35523
0.22521	-0.07840
0.91375	0.35523
-0.28482	-0.86914
-0.00431	0.96742
0.27621	0.53379
0.65874	0.22769
0.68424	0.30422
1.44929	0.45726
-0.84586	-0.07840
-3.57454	0.17668
-0.74385	-0.07840
1.50029	1.35003
1.57679	0.30422
-0.10631	1.88570
0.48022	-3.39441
1.14327	-2.65468
0.88825	-0.66508
0.37822	1.37554
-0.13181	2.19179
0.02119	1.60511
-0.48884	2.19179
-1.25389	0.86539
0.17421	0.50828
0.45472	-0.56305
0.53123	-0.53754
0.25071	-0.15492
-0.61635	-1.09871
0.09770	-0.46102
0.50573	0.27871
0.19971	0.86539
0.19971	0.55929
0.42922	0.07465
0.73524	-4.08312
-0.25932	-3.11382
0.25071	1.68163
0.50573	3.28862
0.27621	1.24800
0.65874	2.75296
-0.89686	-0.33348
-1.81492	-0.99668
-0.38683	-0.58856
0.63323	1.40105
0.88825	0.86539
1.09226	1.60511
0.68424	-0.33348
0.25071	1.09496
0.02119	1.22250
0.22521	-2.60367
1.24527	-1.20074
0.04670	0.38074
-5.53816	0.71234
-1.30489	1.27351
1.60230	0.27871
2.01032	-0.58856
1.95932	-0.02739
1.62780	0.86539
-0.31033	0.89089
-0.41233	-2.06800
-0.00431	0.58480
0.19971	0.96742
0.14870	1.06945
-0.56534	0.27871
-0.20832	1.27351
0.09770	0.40625
0.35272	0.73785
0.35272	-4.00659
0.73524	0.22769
0.32721	0.76336
-2.91149	2.06425
-1.76392	-0.56305
0.96476	1.17148
1.09226	1.32453
0.73524	-3.98109
1.88281	0.30422
1.83181	0.45726
0.32721	0.30422
-1.15188	0.55929
-0.00431	0.04914
1.09226	0.71234
1.95932	0.43176
-4.13557	-0.53754
-1.35589	1.17148
1.34728	-0.05289
1.14327	0.45726
0.70974	0.55929
0.63323	0.30422
0.32721	0.50828
-0.64185	0.66132
-0.87136	-0.97117
0.65874	-0.02739
1.16877	-0.23145
0.81175	-0.53754
-2.32496	0.30422
-0.25932	1.78367
1.16877	-0.35899
0.63323	1.12046
0.55673	0.71234
1.47479	-0.84363
-0.51434	0.40625
-1.04987	1.09496
-0.46334	0.99292
-0.51434	-2.37410
2.64786	-0.12942
-1.58541	0.04914
-1.81492	-0.28246
1.37278	1.65613
1.52579	1.80917
1.14327	1.80917
0.60773	-2.37410
0.42922	0.32972
0.12320	0.30422
0.09770	-0.92016
-0.28482	-0.25695
-0.41233	-2.04250
-0.69285	-0.05289
0.14870	-0.61406
0.19971	1.63062
0.22521	1.14597
0.30171	1.42656
0.30171	1.29902
0.40372	-1.37929
0.96476	-0.84363
1.37278	1.68163
-2.17195	-0.66508
-3.31952	0.89089
0.55673	0.73785
2.72437	-1.37929
0.63323	-0.86914
-0.46334	-0.10391
1.21977	0.12566
1.34728	-0.35899
0.45472	0.12566
-0.18282	1.70714
-0.51434	1.40105
-0.20832	-3.03730
-0.41233	-0.56305
-0.18282	0.94191
-0.84586	0.71234
0.53123	-1.68539
0.78624	0.63582
0.48022	0.02363
0.37822	0.55929
0.07220	0.58480
0.14870	0.38074
0.32721	1.27351
-0.64185	-0.56305
-1.17738	-2.57816
1.39828	0.76336
0.22521	1.88570
0.53123	0.12566
-0.13181	-1.14973
-0.10631	1.22250
0.65874	0.43176
0.53123	-1.83844
0.53123	1.06945
-0.10631	-0.63957
-0.53984	2.11527
0.12320	-0.79262
0.50573	-0.71609
0.19971	0.83988
1.09226	1.01843
-0.59084	-0.38449
-0.61635	0.50828
0.53123	-0.20594
0.25071	-0.28246
0.22521	0.91640
-0.74385	-1.07320
0.22521	0.12566
0.53123	0.96742
0.88825	-0.00188
0.04670	-0.63957
0.09770	1.32453
0.19971	2.52339
-0.20832	-4.03210
-0.05531	-1.22625
-0.10631	1.42656
0.19971	1.35003
0.73524	1.78367
-1.48340	-0.71609
-0.18282	0.10015
0.86275	-0.18043
0.50573	-0.20594
-1.94243	0.40625
-0.20832	0.40625
1.67880	0.58480
1.75531	0.53379
0.32721	-0.02739
0.45472	0.94191
0.42922	-0.94566
0.22521	0.58480
0.14870	-0.81812
0.27621	-0.94566
-2.80949	-0.30797
0.30171	1.88570
0.63323	-4.38921
0.17421	1.09496
0.88825	2.39585
0.96476	1.63062
-2.17195	-2.04250
0.78624	0.96742
1.67880	1.80917
1.16877	0.38074
-0.99887	-0.43551
-1.76392	-2.96078
0.19971	-0.18043
0.96476	1.14597
0.42922	1.19699
0.70974	-0.56305
0.42922	0.78886
0.30171	-0.76711
0.45472	0.53379
1.14327	0.22769
-1.45790	0.63582
-1.04987	0.12566
0.19971	-0.51203
0.32721	0.45726
0.50573	-0.33348
0.48022	0.55929
-0.10631	0.25320
0.48022	0.12566
-0.00431	0.38074
0.07220	-0.92016
0.86275	1.27351
1.93382	1.17148
-1.43240	0.48277
-3.01350	0.55929
0.48022	1.78367
2.41835	0.04914
0.27621	-2.85874
1.09226	-2.96078
-0.43783	1.24800
-0.51434	0.45726
1.14327	1.12046
-0.20832	0.66132
0.53123	1.57960
-0.28482	-0.18043
-0.33583	-3.44542
-0.02981	1.06945
-0.00431	1.14597
0.04670	-0.41000
0.42922	1.04394
-0.43783	0.10015
-1.15188	0.12566
0.76074	-2.14453
0.73524	0.04914
0.93925	0.15117
-0.43783	1.45206
-0.33583	0.94191
0.91375	1.70714
0.93925	-0.84363
0.02119	-0.41000
1.21977	-2.04250
1.21977	-0.41000
-1.61091	1.22250
-2.91149	2.52339
0.93925	-0.05289
1.83181	-1.22625
0.99026	0.73785
0.78624	0.91640
0.32721	0.40625
0.07220	0.15117
0.17421	-0.10391
0.35272	-0.79262
-2.09544	1.52859
-0.82036	1.37554
0.22521	-2.88425
-0.18282	-0.69059
0.09770	-0.66508
0.73524	1.14597
0.45472	1.57960
0.68424	0.83988
1.09226	-1.32828
0.09770	-0.35899
-1.61091	0.45726
-0.41233	0.55929
2.03582	0.15117
2.08683	1.32453
-3.57454	1.04394
-0.31033	-0.63957
1.34728	-1.96597
0.70974	-1.25176
0.40372	0.27871
0.86275	0.96742
0.70974	-0.35899
0.37822	1.52859
-0.59084	1.32453
-0.97337	1.60511
0.30171	2.08976
0.22521	-2.78222
0.65874	-2.78222
0.48022	1.35003
0.04670	0.83988
-0.02981	0.10015
-0.10631	0.50828
0.25071	1.80917
0.27621	-0.76711
-0.36133	-0.66508
0.02119	-3.52195
0.93925	1.17148
0.14870	1.78367
-0.87136	1.47757
-0.76936	-1.63437
0.88825	1.06945
0.50573	0.71234
1.44929	1.37554
0.93925	0.66132
0.88825	0.38074
-1.15188	-0.30797
-1.71292	-0.86914
0.42922	1.14597
1.04126	0.81437
0.48022	0.53379
0.60773	0.55929
-0.00431	-0.66508
-0.05531	-0.25695
-0.08081	0.02363
-0.08081	0.32972
0.19971	1.14597
0.53123	-0.05289
0.22521	-1.09871
-2.57997	-0.81812
-0.89686	2.29382
1.11776	-2.39961
1.04126	1.14597
0.81175	1.37554
0.73524	-1.35379
0.53123	1.91120
0.37822	0.04914
1.14327	0.71234
-0.43783	0.32972
-1.07538	-0.23145
-0.08081	-1.45582
-0.36133	-0.58856
-1.84042	0.63582
0.50573	0.53379
1.11776	1.93671
1.14327	-0.05289
1.34728	-0.43551
1.06676	-1.99148
-0.61635	1.42656
-0.36133	-0.79262
0.27621	1.93671
0.19971	1.37554
-0.13181	1.17148
1.19427	0.81437
-0.53984	-0.35899
-0.69285	-0.89465
-0.53984	0.27871
0.78624	0.25320
0.17421	0.07465
1.01576	0.07465
0.53123	0.07465
0.25071	0.10015
-0.82036	-1.22625
-0.15732	0.35523
1.32178	0.17668
0.25071	-0.10391
0.27621	0.71234
0.53123	-0.66508
0.25071	0.04914
-0.08081	1.12046
0.19971	-0.35899
0.73524	-0.66508
-0.99887	1.19699
-1.89143	1.19699
-0.53984	-1.22625
1.55129	1.88570
0.55673	0.68683
-0.28482	-0.33348
1.06676	-0.05289
0.93925	0.96742
0.63323	-0.94566
0.14870	0.10015
-0.02981	0.32972
-0.13181	0.76336
0.19971	0.53379
-0.18282	-0.69059
0.30171	0.66132
-0.53984	0.17668
0.12320	0.35523
0.12320	0.40625
-0.20832	1.55410
0.02119	-3.36890
0.25071	-0.61406
0.68424	0.25320
0.86275	1.60511
1.42379	0.30422
-0.13181	0.86539
-0.87136	0.71234
-0.92237	0.27871
-0.15732	-1.81293
0.99026	0.48277
1.52579	0.50828
1.83181	0.04914
-0.28482	0.25320
-1.04987	-1.27726
-0.84586	0.66132
-3.06450	0.96742
0.32721	1.27351
1.75531	-0.51203
1.70430	-0.02739
1.11776	-1.14973
0.76074	0.91640
0.02119	1.14597
-0.31033	0.73785
-0.28482	0.91640
0.68424	0.76336
-1.33039	-0.15492
-1.27939	0.40625
0.17421	-1.25176
-0.33583	0.15117
0.60773	0.50828
1.24527	-0.25695
0.12320	-0.07840
0.27621	0.43176
-0.20832	0.35523
-0.08081	-0.15492
0.91375	0.99292
0.63323	1.19699
0.32721	-1.40480
0.50573	-0.41000
-0.56534	1.55410
-0.28482	0.45726
0.27621	0.40625
0.50573	-1.76191
0.63323	-0.61406
0.37822	1.86019
-0.84586	0.99292
-0.92237	-1.71090
0.17421	0.38074
0.88825	1.12046
-0.94787	0.20219
-0.61635	0.91640
1.72980	-2.34859
1.16877	0.96742
0.88825	-0.25695
0.37822	0.86539
0.45472	0.07465
0.81175	0.43176
0.40372	-0.86914
-3.26852	-0.74160
-2.12094	1.14597
0.70974	-0.10391
1.34728	-1.17523
1.24527	0.55929
0.99026	2.14077
0.63323	-1.07320
0.63323	-0.46102
-1.12638	0.17668
0.25071	1.14597
0.40372	0.35523
0.22521	0.81437
0.32721	0.30422
0.88825	-0.38449
0.58223	0.48277
-1.63641	0.35523
-0.48884	-0.18043
0.60773	0.40625
0.09770	-0.48652
0.07220	0.12566
0.37822	0.32972
0.60773	-1.37929
0.58223	0.66132
0.14870	-0.30797
0.07220	0.99292
1.32178	0.04914
0.07220	0.04914
-1.53441	0.55929
-2.19745	1.57960
-0.43783	0.30422
1.06676	-0.92016
1.32178	0.07465
1.67880	-0.43551
0.63323	0.53379
0.30171	1.12046
0.32721	-0.10391
0.19971	0.30422
-0.08081	0.15117
-1.10088	0.30422
-0.28482	0.17668
0.12320	-1.65988
0.02119	0.12566
-0.43783	1.35003
0.65874	-0.84363
0.53123	-0.18043
0.53123	0.45726
0.91375	1.68163
-0.48884	-0.89465
-0.46334	-0.00188
0.68424	0.58480
1.14327	0.15117
0.73524	-1.81293
0.30171	0.76336
0.17421	-0.20594
0.02119	0.81437
0.14870	1.27351
0.35272	1.17148
-0.36133	0.10015
-1.33039	-1.45582
-0.00431	-0.71609
0.53123	0.25320
0.53123	0.63582
1.42379	-0.41000
-0.92237	-1.48133
-1.48340	1.14597
0.78624	0.22769
1.78081	1.14597
-0.74385	0.76336
-0.99887	0.25320
1.19427	0.32972
0.60773	0.48277
0.55673	0.45726
0.53123	-1.78742
1.65330	0.68683
0.42922	0.48277
-1.91693	0.25320
-1.07538	0.38074
0.02119	0.76336
-0.08081	-0.15492
0.45472	-0.92016
1.29628	0.76336
0.02119	0.68683
0.07220	0.48277
-0.53984	-1.07320
0.37822	0.55929
1.16877	-1.37929
-0.64185	0.12566
-1.50890	1.22250
-0.13181	0.99292
0.99026	1.60511
1.24527	1.22250
0.96476	-2.57816
0.32721	-0.05289
0.04670	0.83988
0.14870	1.14597
0.22521	-0.10391
0.63323	-0.10391
0.70974	-0.46102
-1.15188	0.78886
-2.96250	0.12566
-0.23382	-0.15492
0.96476	-0.00188
1.11776	0.40625
0.91375	-0.97117
0.68424	0.58480
-0.08081	-0.10391
0.32721	0.71234
-0.76936	-0.43551
-0.38683	0.66132
0.83725	0.45726
-0.82036	-1.12422
0.19971	0.02363
1.29628	-1.60887
-0.51434	1.55410
-0.64185	0.76336
-0.38683	0.83988
0.53123	0.22769
1.14327	-1.30277
-0.15732	1.24800
0.35272	0.91640
0.76074	0.71234
-0.33583	-1.68539
-0.20832	0.71234
0.19971	-0.23145
0.48022	0.22769
0.42922	0.58480
-0.59084	0.25320
-0.41233	-0.18043
0.12320	-0.74160
0.42922	1.14597
0.55673	-0.25695
0.40372	0.68683
-0.38683	-0.84363
0.48022	0.12566
1.04126	0.55929
-1.76392	0.71234
-0.76936	-0.89465
1.72980	1.27351
0.14870	1.19699
-0.84586	-0.28246
0.81175	0.61031
0.86275	-0.33348
0.09770	-0.81812
0.83725	-1.76191
-0.00431	1.78367
-1.04987	1.27351
-2.01894	0.71234
-0.48884	0.35523
1.47479	0.27871
1.16877	0.35523
1.11776	-0.02739
0.68424	-0.25695
0.27621	-0.00188
-0.08081	-0.20594
0.40372	0.30422
-0.51434	-0.05289
-0.28482	-0.41000
0.09770	-0.38449
-0.18282	0.53379
-0.25932	0.63582
0.48022	0.66132
-0.79486	-0.25695
0.42922	1.27351
0.14870	0.76336
0.83725	-2.32308
1.11776	0.86539
0.37822	0.55929
-0.99887	-0.30797
0.07220	1.68163
0.70974	0.07465
1.32178	0.58480
0.19971	0.17668
0.02119	0.55929
0.32721	-0.25695
0.02119	0.02363
-0.41233	0.30422
-0.46334	-1.02219
0.02119	0.12566
0.22521	0.38074
-0.48884	0.71234
0.32721	-2.09351
0.83725	0.04914
-1.17738	0.43176
0.70974	0.94191
0.32721	0.32972
0.76074	0.22769
0.76074	-1.04770
0.09770	-0.15492
-1.33039	1.55410
-1.63641	1.68163
0.58223	-2.27207
1.47479	0.81437
1.04126	0.63582
0.32721	-0.61406
0.17421	-0.66508
0.19971	0.53379
0.27621	1.27351
0.07220	1.37554
0.35272	0.45726
1.06676	-0.58856
-2.01894	0.12566
-1.17738	-0.56305
-0.48884	-0.07840
0.48022	-0.23145
0.27621	1.01843
1.52579	-1.17523
0.42922	0.20219
-0.48884	-0.18043
-0.08081	0.73785
0.63323	1.01843
1.24527	0.48277
0.65874	-0.12942
-1.17738	-0.63957
0.32721	0.55929
0.09770	-1.14973
0.50573	-1.71090
0.35272	1.78367
0.40372	1.73265
0.42922	-0.10391
0.17421	0.94191
-0.79486	1.35003
-0.79486	-1.07320
0.12320	-0.43551
0.22521	0.17668
0.48022	0.66132
0.81175	0.22769
0.73524	0.25320
0.27621	-2.37410
-0.51434	-0.33348
-1.02437	1.42656
0.17421	1.75816
1.06676	0.63582
0.68424	-0.89465
0.40372	0.43176
-0.41233	0.07465
-0.00431	-3.52195
1.04126	1.75816
-0.48884	1.01843
-0.74385	0.86539
1.72980	0.99292
-1.12638	0.55929
-2.73298	0.30422
0.35272	-0.23145
1.52579	0.17668
1.29628	0.25320
0.65874	-0.20594
0.42922	-0.07840
0.37822	-0.46102
1.24527	0.02363
-0.56534	0.48277
-0.61635	0.40625
0.04670	0.48277
0.02119	0.55929
-0.18282	0.63582
-1.89143	-0.20594
-1.40690	-0.15492
0.65874	-0.86914
1.24527	0.76336
1.32178	-0.10391
1.75531	2.19179
1.90832	-0.74160
-2.42696	-3.80253
-1.58541	-0.18043
1.09226	1.52859
0.65874	1.27351
0.73524	-0.10391
-0.46334	1.14597
0.30171	-0.07840
0.53123	0.66132
0.27621	0.04914
0.04670	-0.05289
0.37822	-0.79262
1.01576	0.43176
-1.27939	1.06945
-1.89143	-1.27726
0.32721	0.58480
0.78624	0.15117
0.02119	0.38074
-0.25932	0.27871
0.81175	0.94191
1.83181	-0.76711
-0.89686	0.07465
-0.59084	0.63582
-0.23382	0.25320
0.78624	-0.35899
0.86275	0.15117
0.68424	1.14597
0.42922	0.86539
-0.48884	-1.81293
-0.28482	-0.61406
0.42922	0.78886
-0.10631	0.50828
0.78624	0.63582
-2.19745	-0.25695
-2.19745	0.43176
0.50573	0.38074
1.29628	0.58480
0.99026	-0.20594
1.24527	0.10015
0.70974	0.25320
0.09770	-1.17523
-0.31033	-0.05289
1.04126	0.50828
-0.05531	0.78886
-0.31033	-0.41000
-0.66735	0.96742
-0.02981	-2.50164
0.37822	1.32453
0.42922	0.07465
0.37822	1.09496
0.35272	-0.05289
0.17421	0.07465
0.07220	1.50308
0.07220	-0.43551
0.93925	-0.46102
2.16333	0.02363
-3.95706	0.81437
-2.01894	-0.00188
1.24527	0.04914
1.55129	1.19699
1.24527	-0.18043
0.96476	-0.79262
0.63323	-0.07840
0.63323	0.71234
-0.46334	0.45726
-0.51434	-1.99148
1.04126	0.71234
-0.02981	1.22250
-2.32496	0.83988
-0.25932	0.45726
0.73524	-2.47613
1.21977	-0.46102
0.81175	1.73265
1.24527	0.02363
-0.69285	0.35523
-2.45246	0.96742
-0.64185	0.96742
1.14327	-0.46102
1.39828	-2.32308
1.01576	-0.76711
0.76074	0.25320
0.60773	1.12046
-0.05531	0.81437
-1.33039	0.63582
0.02119	0.45726
1.32178	0.30422
-0.92237	0.45726
-0.69285	-0.02739
-0.48884	-1.04770
0.27621	-1.20074
0.68424	0.27871
0.58223	0.43176
0.45472	0.30422
0.68424	0.35523
0.48022	1.24800
-0.74385	-0.66508
-0.38683	-0.10391
0.73524	-2.09351
1.57679	1.37554
-2.35046	0.86539
-1.89143	1.17148
1.04126	0.55929
1.75531	-1.07320
1.93382	0.04914
0.12320	0.45726
-1.10088	0.61031
0.19971	0.68683
0.50573	0.50828
0.73524	-0.38449
0.50573	0.76336
-0.43783	-0.92016
-0.71835	-0.18043
0.02119	0.15117
0.35272	-0.15492
0.40372	0.04914
0.12320	0.35523
0.04670	0.94191
0.22521	0.66132
0.22521	0.35523
0.27621	-2.34859
0.09770	0.15117
0.07220	0.96742
-0.15732	0.55929
0.27621	0.50828
0.50573	0.30422
-0.00431	0.50828
0.02119	0.99292
0.17421	0.15117
0.40372	-1.91496
0.12320	0.38074
0.12320	0.78886
0.25071	-1.50683
0.32721	0.83988
0.70974	-0.07840
0.02119	0.71234
-0.84586	-0.02739
0.09770	1.01843
-0.31033	-0.84363
-0.99887	-2.04250
1.04126	2.34484
1.75531	-0.92016
-0.02981	0.96742
0.12320	0.48277
-0.59084	0.81437
0.63323	-0.81812
0.78624	3.00804
0.50573	-2.09351
0.37822	-0.48652
0.14870	-1.45582
-0.08081	1.14597
-0.08081	-0.07840
-0.08081	-0.38449
0.65874	0.53379
1.01576	0.66132
-3.54903	0.55929
-2.17195	-0.05289
1.65330	0.99292
0.35272	-0.63957
0.81175	-1.22625
1.39828	0.66132
1.42379	0.78886
1.04126	0.15117
-0.51434	0.78886
-1.07538	0.99292
0.07220	0.55929
0.78624	-1.83844
0.96476	0.45726
-0.59084	-0.66508
-0.92237	0.83988
-0.84586	0.27871
-0.18282	0.10015
0.50573	1.52859
1.95932	-0.23145
0.58223	-2.88425
0.30171	1.37554
0.04670	-1.73640
0.40372	1.12046
0.14870	1.68163
-1.12638	-0.33348
-0.61635	0.78886
0.78624	-0.43551
-0.53984	-0.56305
0.93925	1.98773
1.27078	-0.35899
-0.99887	-1.91496
-0.28482	1.12046
1.21977	1.96222
0.78624	-3.64948
0.30171	0.15117
-0.33583	1.04394
-0.13181	1.47757
0.25071	-0.05289
0.63323	0.20219
0.37822	0.22769
-0.53984	0.35523
0.19971	-0.12942
0.68424	-0.38449
-0.38683	-0.05289
-0.87136	-1.22625
0.42922	0.68683
1.72980	0.76336
-0.18282	0.43176
-1.10088	0.02363
0.60773	0.89089
0.40372	0.50828
0.12320	-1.32828
0.91375	0.20219
-0.43783	0.32972
-0.59084	0.86539
0.02119	0.43176
0.60773	0.04914
0.50573	1.01843
0.65874	-1.37929
0.40372	-1.91496
0.07220	0.32972
0.02119	1.78367
0.12320	0.99292
-0.33583	1.42656
-0.18282	1.32453
-0.51434	-0.94566
-0.05531	-0.02739
-0.15732	0.32972
0.42922	-0.74160
0.37822	-0.63957
-0.18282	0.27871
0.32721	0.55929
1.29628	-0.53754
1.75531	-0.12942
-2.09544	0.68683
-1.50890	0.81437
2.01032	-0.94566
-0.31033	0.25320
-0.71835	0.81437
0.68424	1.98773
0.99026	-2.39961
0.91375	0.78886
0.37822	0.20219
0.53123	0.68683
-0.89686	0.94191
-0.48884	0.40625
0.19971	0.04914
-0.87136	0.15117
-0.31033	-0.41000
0.30171	-2.29757
0.40372	0.96742
0.65874	0.73785
0.60773	1.14597
0.45472	0.53379
0.37822	0.04914
0.25071	-0.56305
0.60773	0.04914
-1.43240	0.32972
-1.22839	0.02363
0.32721	1.35003
1.42379	-1.58336
0.17421	0.63582
0.25071	0.43176
0.48022	0.07465
-1.40690	0.89089
-0.87136	-0.05289
0.81175	0.61031
1.04126	0.25320
0.70974	-0.15492
0.48022	-0.48652
0.37822	0.04914
0.17421	1.12046
0.07220	1.12046
0.55673	0.55929
0.02119	-0.66508
-1.96793	-0.15492
-0.46334	-0.33348
0.45472	-0.43551
0.53123	0.20219
0.32721	0.63582
0.32721	1.52859
0.37822	-1.25176
0.25071	-0.15492
0.19971	-0.41000
0.40372	0.58480
0.02119	0.50828
-0.05531	0.43176
0.35272	0.20219
0.17421	-0.20594
-0.08081	0.61031
0.02119	0.68683
0.37822	-0.18043
0.19971	0.20219
0.30171	0.73785
0.99026	0.89089
0.22521	0.32972
-1.91693	-2.65468
-2.14644	0.15117
0.55673	0.91640
1.37278	-1.32828
1.32178	0.76336
1.06676	0.20219
0.12320	0.86539
0.22521	0.50828
0.37822	-0.10391
0.35272	0.68683
-0.02981	-0.79262
-0.20832	-1.17523
-0.00431	0.53379
-0.28482	-0.30797
-0.33583	0.20219
0.07220	0.99292
0.14870	-0.94566
0.25071	-0.86914
0.93925	0.96742
-0.31033	1.06945
-1.17738	0.38074
0.02119	0.61031
0.70974	-0.15492
0.88825	-1.78742
0.37822	0.78886
0.50573	-0.12942
0.25071	1.06945
0.35272	-0.43551
0.17421	0.73785
0.42922	-0.48652
-0.61635	0.07465
-0.46334	0.45726
0.35272	-0.18043
-1.43240	0.15117
-0.13181	-0.02739
1.11776	0.55929
0.93925	0.45726
0.78624	0.25320
0.32721	-0.63957
0.30171	0.78886
0.22521	-0.56305
-0.43783	1.57960
0.04670	-0.61406
-0.33583	-3.34339
0.73524	0.20219
-0.10631	1.47757
0.53123	0.91640
-0.33583	1.29902
-0.41233	-0.12942
0.48022	0.76336
0.55673	0.20219
0.27621	-0.35899
0.17421	0.02363
0.68424	-1.04770
0.86275	-0.20594
-0.48884	0.94191
-0.41233	0.81437
0.22521	-0.58856
0.53123	0.99292
0.19971	0.07465
1.52579	-0.97117
-0.48884	-0.05289
-1.99343	0.30422
-1.73842	1.06945
0.53123	-0.30797
1.55129	1.37554
1.37278	-1.65988
1.01576	0.99292
0.40372	1.40105
0.12320	-0.97117
0.17421	-0.46102
-0.02981	0.63582
-0.38683	0.15117
0.25071	-1.63437
0.32721	0.55929
-0.87136	0.53379
-1.17738	0.53379
0.12320	1.04394
0.78624	0.66132
0.70974	0.35523
1.70430	-0.58856
-1.20288	-0.81812
-1.02437	-0.46102
-0.43783	0.02363
-0.13181	0.43176
1.57679	0.96742
1.50029	0.89089
1.19427	0.66132
0.78624	-1.71090
-1.17738	0.71234
-0.53984	0.30422
0.50573	1.86019
-0.64185	-0.97117
-0.41233	-1.02219
0.17421	0.35523
0.12320	-1.20074
0.14870	1.27351
0.32721	0.02363
0.14870	1.19699
-0.61635	1.50308
-1.07538	0.63582
0.48022	-1.76191
1.19427	0.27871
0.76074	-0.35899
0.35272	0.30422
-0.51434	-0.56305
0.32721	0.20219
0.37822	0.45726
0.70974	0.48277
0.65874	1.12046
-0.02981	1.17148
-0.41233	-0.58856
-0.92237	-2.90976
-0.46334	0.66132
0.40372	1.32453
0.93925	1.29902
1.37278	0.73785
-0.89686	0.30422
-1.12638	-0.94566
1.04126	0.83988
1.34728	1.06945
-0.13181	-0.20594
-0.18282	-1.91496
0.04670	0.63582
0.17421	0.22769
0.48022	0.25320
0.27621	0.76336
0.22521	0.68683
0.25071	-0.15492
-0.56534	0.02363
0.45472	-2.06800
0.09770	0.78886
0.76074	0.35523
0.65874	-0.71609
-1.17738	0.73785
0.53123	1.12046
0.58223	0.04914
0.48022	-0.28246
0.55673	0.32972
0.22521	1.12046
0.02119	1.86019
-0.13181	-0.97117
-0.02981	0.22769
0.40372	-2.29757
0.73524	0.25320
-0.61635	0.76336
-2.52897	1.24800
-0.28482	0.71234
1.29628	0.22769
1.01576	0.66132
0.35272	-0.61406
0.68424	-0.00188
0.53123	-0.99668
0.27621	-0.66508
1.09226	0.15117
0.19971	0.17668
-1.48340	1.45206
-0.74385	0.10015
1.01576	0.12566
1.09226	-0.12942
0.55673	-0.94566
-1.84042	0.02363
-2.17195	0.32972
0.19971	0.61031
1.44929	0.20219
1.32178	0.38074
1.09226	0.68683
0.76074	0.27871
0.73524	-1.91496
0.32721	0.10015
-1.48340	0.73785
-0.82036	-0.43551
0.09770	0.55929
0.42922	0.50828
2.16333	2.06425
-0.66735	-0.25695
-0.48884	-0.81812
-0.74385	1.78367
0.42922	0.66132
0.65874	-1.43031
0.50573	0.38074
0.32721	-1.40480
0.14870	-0.00188
0.37822	0.99292
0.37822	0.55929
0.07220	-0.56305
0.12320	0.81437
0.02119	1.65613
-0.00431	-1.30277
0.12320	-0.58856
0.35272	-0.07840
-0.05531	0.94191
-0.10631	0.48277
0.40372	0.96742
0.04670	-0.94566
-0.56534	-0.46102
0.37822	0.61031
1.72980	-0.00188
0.04670	0.15117
-1.58541	-0.15492
-2.01894	0.27871
0.30171	-0.23145
2.03582	0.61031
1.27078	-1.45582
1.04126	0.61031
1.01576	0.32972
-0.13181	0.25320
0.45472	0.02363
-0.59084	1.29902
-1.33039	-0.97117
-0.46334	1.09496
0.53123	0.89089
0.45472	1.27351
-0.20832	-2.09351
0.04670	-1.25176
0.42922	1.06945
0.60773	-0.38449
-0.08081	1.78367
-0.08081	1.52859
0.40372	-0.89465
0.32721	-0.89465
0.35272	0.66132
0.30171	0.50828
0.25071	-0.58856
0.19971	0.12566
0.73524	0.27871
-0.28482	0.15117
-0.82036	0.20219
-0.13181	-0.79262
-0.23382	0.50828
2.21434	-0.18043
1.80631	0.66132
-2.09544	-1.22625
-1.81492	-0.81812
0.93925	1.52859
0.86275	0.89089
0.55673	1.37554
0.68424	-0.38449
0.50573	-0.05289
0.37822	-0.15492
-0.13181	-0.25695
-0.13181	-1.09871
-0.13181	0.63582
-0.08081	0.43176
0.17421	0.43176
0.35272	0.66132
-0.82036	-0.69059
-1.20288	0.30422
0.27621	0.58480
0.65874	0.15117
0.60773	0.40625
0.70974	-0.10391
0.65874	0.25320
1.04126	-2.06800
0.27621	0.55929
-0.48884	0.35523
-0.94787	0.43176
-0.79486	1.93671
0.76074	-1.37929
0.60773	0.81437
0.63323	-0.71609
0.81175	-0.99668
0.50573	1.06945
0.22521	0.81437
-0.08081	-0.05289
-0.51434	0.20219
0.04670	-0.56305
-0.51434	0.86539
0.12320	0.40625
0.65874	-1.55785
0.25071	0.48277
-0.38683	-0.84363
0.12320	0.78886
0.53123	0.83988
0.32721	0.58480
0.45472	0.55929
0.02119	0.27871
0.35272	0.30422
1.06676	0.02363
-0.99887	-0.66508
-0.51434	-0.84363
-0.10631	0.96742
-0.71835	1.14597
1.21977	-0.18043
-0.53984	0.15117
-0.31033	-0.15492
0.63323	0.78886
0.99026	-0.38449
1.47479	-0.46102
0.53123	0.20219
0.37822	0.86539
0.14870	0.43176
-0.53984	0.17668
-0.46334	0.38074
-0.08081	0.20219
0.12320	0.40625
0.32721	0.04914
-0.89686	0.30422
-0.02981	-2.83324
0.04670	0.48277
0.70974	0.81437
0.88825	1.47757
0.09770	0.04914
0.32721	0.43176
-0.46334	0.68683
0.07220	-0.74160
0.45472	0.22769
0.53123	-1.40480
0.22521	0.61031
-0.00431	-0.51203
0.25071	1.32453
0.17421	-0.12942
0.02119	-0.41000
0.02119	0.35523
0.04670	0.38074
-0.28482	0.15117
0.42922	0.12566
0.73524	0.02363
-0.43783	-1.07320
-0.79486	0.55929
0.50573	0.71234
0.99026	-0.74160
1.11776	-0.41000
0.09770	0.63582
-2.45246	0.81437
-0.99887	1.12046
0.50573	-1.12422
1.19427	0.55929
1.52579	0.30422
0.45472	0.10015
0.73524	0.12566
-0.00431	-0.10391
0.22521	0.40625
0.09770	0.73785
-0.08081	0.32972
-0.48884	-2.14453
0.12320	-0.51203
0.12320	1.37554
-0.10631	0.68683
-0.31033	0.58480
-0.23382	1.32453
0.25071	-1.68539
0.40372	0.30422
0.60773	-1.81293
0.68424	1.22250
0.22521	-0.15492
-0.18282	0.86539
-0.00431	1.19699
-0.76936	0.86539
0.04670	-0.58856
0.55673	-1.02219
-0.15732	-0.23145
1.44929	1.14597
0.14870	0.76336
0.58223	0.43176
0.58223	-1.73640
0.19971	-1.17523
-0.10631	1.68163
-0.82036	0.91640
0.27621	1.01843
0.91375	0.73785
-1.10088	0.10015
-1.63641	-0.23145
0.58223	-1.17523
0.78624	0.35523
0.93925	0.58480
0.09770	-0.46102
0.02119	-0.61406
0.19971	-0.30797
0.45472	1.88570
0.48022	-0.05289
-0.28482	0.07465
-0.10631	-0.18043
0.91375	0.25320
0.07220	0.81437
-0.69285	-0.46102
-1.27939	0.12566
0.63323	0.48277
1.57679	0.22769
0.86275	1.27351
-0.20832	-1.50683
0.04670	-0.84363
1.09226	1.06945
-0.66735	0.86539
-0.82036	0.58480
0.55673	-0.74160
0.53123	0.63582
0.22521	0.32972
0.25071	-0.28246
-0.08081	0.30422
0.30171	0.32972
0.25071	0.25320
-1.17738	0.30422
-0.00431	0.10015
0.73524	-0.35899
1.72980	-0.53754
-0.56534	1.19699
-1.91693	-3.16484
-0.08081	1.45206
1.34728	0.86539
1.21977	1.32453
0.30171	0.55929
0.14870	0.91640
1.06676	0.76336
0.76074	-1.09871
0.07220	-2.60367
-0.76936	-0.10391
-0.69285	0.99292
-0.18282	0.32972
0.30171	0.89089
0.45472	0.89089
0.40372	0.48277
0.68424	-0.20594
-0.89686	0.12566
-0.48884	-0.76711
0.35272	-0.15492
0.53123	0.04914
0.40372	0.71234
0.14870	0.40625
-0.20832	-1.17523
0.60773	-0.86914
1.85731	1.27351
-1.10088	0.96742
-2.98800	1.04394
0.86275	0.25320
2.41835	0.99292
0.99026	0.81437
-0.33583	0.04914
0.58223	-1.04770
0.07220	0.94191
0.53123	-2.50164
0.22521	-0.84363
0.12320	1.42656
0.09770	-0.33348
-0.13181	1.40105
-0.00431	1.27351
0.02119	-0.18043
-0.25932	0.25320
-0.00431	0.17668
-0.41233	0.30422
0.09770	-0.79262
0.30171	0.25320
0.53123	-1.12422
0.68424	1.45206
0.09770	-1.96597
0.19971	0.86539
-0.41233	0.15117
-0.20832	-0.56305
-0.00431	1.45206
0.04670	-0.38449
0.88825	0.58480
0.48022	1.17148
-0.13181	0.86539
1.14327	-1.45582
1.04126	0.63582
0.37822	0.20219
-0.33583	0.25320
0.45472	-0.51203
-0.66735	-0.28246
-1.40690	0.32972
-0.00431	0.32972
0.81175	0.17668
0.78624	-0.15492
-0.25932	0.38074
-0.61635	0.55929
0.40372	0.76336
0.63323	-2.04250
0.35272	0.71234
0.14870	-0.02739
0.09770	0.50828
-0.25932	0.53379
0.32721	-0.25695
-0.61635	0.89089
-0.59084	0.68683
0.60773	0.30422
0.88825	-1.99148
1.34728	0.53379
0.96476	0.71234
-1.20288	0.27871
-1.73842	0.96742
-0.64185	0.38074
0.88825	0.15117
0.99026	0.40625
0.73524	0.17668
0.86275	-0.63957
0.22521	-0.30797
0.27621	0.32972
0.45472	0.99292
-0.87136	0.48277
-0.43783	-0.86914
0.42922	0.48277
0.32721	1.06945
-0.31033	-0.07840
0.83725	-0.00188
-1.86593	0.32972
