0.12320	0.32972
0.22521	0.27871
0.07220	0.17668
0.22521	0.15117
0.14870	-0.02739
0.14870	0.17668
0.22521	0.10015
0.07220	0.10015
0.22521	0.17668
0.17421	0.10015
0.14870	0.20219
0.17421	0.22769
0.07220	0.15117
0.14870	0.25320
0.12320	0.07465
0.14870	0.15117
0.19971	0.10015
0.09770	0.10015
0.14870	0.15117
0.12320	0.12566
0.07220	0.15117
0.19971	0.12566
0.07220	0.27871
0.22521	0.04914
0.12320	0.20219
0.22521	0.04914
0.14870	0.12566
0.12320	0.12566
0.12320	0.10015
0.12320	0.20219
0.19971	0.12566
0.07220	0.22769
0.22521	0.25320
0.07220	0.20219
0.17421	0.12566
0.14870	0.15117
0.14870	0.15117
0.14870	0.12566
0.07220	0.17668
0.22521	0.22769
0.12320	0.15117
0.17421	0.25320
0.22521	0.04914
0.14870	0.12566
0.14870	0.02363
0.22521	0.20219
0.17421	0.02363
0.22521	0.25320
0.04670	0.12566
0.12320	0.22769
0.12320	0.07465
0.17421	0.25320
0.07220	0.12566
0.12320	0.25320
0.17421	0.07465
0.14870	0.12566
0.17421	-0.00188
0.17421	0.15117
0.12320	0.07465
0.12320	0.15117
0.14870	0.17668
0.14870	0.20219
0.12320	0.20219
0.14870	0.20219
0.09770	0.17668
0.17421	0.04914
0.07220	0.15117
0.22521	0.07465
0.14870	0.15117
0.12320	0.15117
0.12320	0.22769
0.14870	0.27871
0.14870	0.10015
0.04670	0.10015
0.22521	0.15117
0.07220	0.15117
0.19971	0.20219
0.14870	0.04914
0.17421	0.22769
0.22521	0.07465
0.07220	0.25320
0.14870	0.15117
0.12320	0.25320
0.17421	0.15117
0.19971	0.10015
0.04670	0.15117
0.22521	0.07465
0.07220	0.10015
0.14870	0.12566
0.14870	0.12566
0.12320	0.22769
0.12320	0.15117
0.09770	0.17668
0.12320	0.15117
0.12320	0.15117
0.09770	0.20219
0.19971	0.07465
0.14870	0.15117
0.14870	0.15117
0.14870	0.15117
0.07220	0.15117
0.22521	0.15117
0.09770	0.25320
0.22521	0.10015
0.12320	0.15117
0.09770	0.17668
0.14870	0.12566
0.12320	0.12566
0.25071	0.02363
0.09770	0.12566
0.22521	0.12566
0.14870	0.12566
0.14870	0.15117
0.19971	0.25320
0.09770	0.12566
0.12320	0.10015
0.14870	0.15117
0.09770	0.20219
0.14870	0.17668
0.14870	0.12566
0.07220	0.15117
0.17421	0.22769
0.27621	0.07465
0.07220	0.15117
0.09770	0.17668
0.12320	0.04914
0.22521	0.10015
0.14870	0.22769
0.09770	0.10015
0.22521	0.25320
0.14870	0.15117
0.07220	0.10015
0.22521	0.10015
0.14870	0.22769
0.09770	0.10015
0.14870	0.17668
0.14870	0.07465
0.07220	0.12566
0.22521	0.25320
0.17421	0.12566
0.14870	0.17668
0.12320	0.20219
0.04670	0.07465
0.19971	0.22769
0.14870	0.12566
0.12320	0.12566
0.22521	0.10015
0.07220	0.10015
0.12320	0.07465
0.14870	0.17668
0.09770	0.25320
0.14870	0.12566
0.17421	0.17668
0.14870	0.20219
0.12320	0.15117
0.19971	0.07465
0.14870	0.12566
0.09770	-0.00188
0.12320	0.17668
0.19971	0.22769
0.09770	0.15117
0.22521	0.12566
0.19971	0.27871
0.14870	0.20219
0.14870	0.15117
0.19971	0.15117
0.14870	0.15117
0.14870	0.17668
0.19971	0.12566
0.17421	0.17668
0.17421	0.12566
0.14870	0.15117
0.14870	0.25320
0.17421	0.10015
0.09770	0.15117
0.17421	0.17668
0.12320	0.15117
0.17421	0.15117
0.25071	0.12566
0.14870	0.12566
0.12320	0.25320
0.22521	0.17668
0.09770	0.15117
0.12320	0.15117
0.17421	0.04914
0.09770	0.15117
0.25071	0.07465
0.14870	0.10015
0.12320	0.17668
0.22521	0.10015
0.07220	0.15117
0.22521	0.30422
0.12320	0.15117
0.14870	0.15117
0.25071	0.12566
0.07220	0.02363
0.14870	0.04914
0.22521	0.17668
0.09770	0.07465
0.12320	0.12566
0.19971	0.17668
0.09770	0.10015
0.14870	0.27871
0.19971	0.20219
0.12320	0.10015
0.14870	0.20219
0.19971	0.02363
0.09770	0.20219
0.22521	0.12566
0.12320	0.10015
0.07220	0.15117
0.14870	0.17668
0.09770	0.27871
0.22521	0.12566
0.12320	0.15117
0.17421	0.17668
0.12320	0.02363
0.14870	0.15117
0.22521	0.10015
0.09770	0.07465
0.14870	0.25320
0.14870	0.22769
0.14870	0.20219
0.19971	0.22769
0.09770	0.04914
0.12320	0.12566
0.14870	0.15117
0.09770	0.07465
0.19971	0.30422
0.12320	0.17668
0.09770	0.10015
0.22521	0.15117
0.14870	0.20219
0.17421	0.07465
0.22521	0.10015
0.14870	0.12566
0.14870	0.15117
0.19971	0.04914
0.14870	0.20219
0.09770	0.20219
0.14870	0.07465
0.14870	0.25320
0.09770	0.22769
0.12320	0.17668
0.22521	0.10015
0.14870	0.10015
0.14870	0.10015
0.22521	0.02363
0.07220	0.17668
0.14870	0.12566
0.14870	0.25320
0.09770	0.17668
0.19971	0.27871
0.07220	0.15117
0.17421	0.12566
0.12320	0.12566
0.22521	-0.00188
0.14870	0.12566
0.14870	0.04914
0.07220	0.15117
0.17421	0.07465
0.14870	0.17668
0.09770	0.17668
0.19971	0.20219
0.07220	0.07465
0.22521	0.12566
0.07220	0.15117
0.19971	0.17668
0.09770	0.20219
0.22521	0.17668
0.07220	0.15117
0.12320	0.17668
0.12320	0.12566
0.12320	0.04914
0.14870	0.15117
0.17421	0.04914
0.14870	0.10015
0.14870	0.15117
0.14870	0.12566
0.07220	0.25320
0.22521	0.10015
0.12320	0.27871
0.12320	0.17668
0.14870	0.17668
0.17421	0.12566
0.14870	0.12566
0.12320	0.04914
0.14870	-0.00188
0.14870	0.15117
0.22521	0.07465
0.07220	0.15117
0.22521	0.20219
0.12320	0.15117
0.12320	0.25320
0.09770	0.15117
0.09770	0.12566
0.12320	0.22769
0.22521	0.15117
0.07220	0.15117
0.19971	0.20219
0.14870	0.15117
0.09770	0.25320
0.22521	0.17668
0.09770	0.04914
0.12320	0.17668
0.14870	0.10015
0.07220	0.07465
0.19971	0.02363
0.14870	0.04914
0.14870	0.17668
0.22521	0.20219
0.07220	0.17668
0.12320	0.27871
0.09770	0.17668
0.09770	0.17668
0.22521	0.15117
0.09770	0.10015
0.14870	0.15117
0.17421	0.15117
0.09770	0.10015
0.12320	0.25320
0.14870	0.17668
0.07220	0.15117
0.22521	0.15117
0.14870	-0.00188
0.14870	0.15117
0.17421	0.15117
0.07220	0.02363
0.19971	0.12566
0.19971	0.20219
0.14870	0.25320
0.12320	0.15117
0.19971	0.17668
0.14870	0.20219
0.14870	0.12566
0.14870	0.04914
0.09770	0.10015
0.17421	0.20219
0.25071	0.15117
0.14870	0.17668
0.07220	0.20219
0.12320	0.15117
0.19971	0.17668
0.14870	0.17668
0.14870	0.17668
0.17421	0.04914
0.17421	0.20219
0.07220	0.17668
0.14870	0.15117
0.12320	0.12566
0.07220	0.15117
0.12320	0.10015
0.12320	0.20219
0.07220	0.25320
0.12320	0.15117
0.19971	0.10015
0.14870	-0.00188
0.07220	0.22769
0.14870	0.17668
0.14870	0.15117
0.14870	0.15117
0.09770	0.22769
0.12320	0.25320
0.19971	0.15117
0.19971	0.04914
0.17421	0.17668
0.09770	0.07465
0.12320	0.04914
0.14870	0.15117
0.09770	0.20219
0.14870	0.10015
0.17421	0.20219
0.09770	0.22769
0.14870	0.07465
0.22521	0.12566
0.14870	0.20219
0.12320	0.12566
0.12320	0.10015
0.22521	0.17668
0.12320	0.07465
0.17421	0.22769
0.19971	0.15117
0.09770	0.15117
0.12320	0.17668
0.12320	0.12566
0.07220	0.17668
0.25071	0.17668
0.14870	0.17668
0.17421	0.02363
0.19971	0.10015
0.12320	0.20219
0.14870	0.17668
0.22521	0.10015
0.14870	0.15117
0.07220	0.15117
0.12320	0.15117
0.22521	0.07465
0.14870	0.10015
0.07220	0.20219
0.12320	0.12566
0.22521	0.25320
0.07220	0.25320
0.12320	0.10015
0.19971	0.20219
0.12320	0.07465
0.17421	0.04914
0.14870	0.17668
0.17421	-0.00188
0.09770	0.07465
0.22521	0.22769
0.12320	0.15117
0.07220	0.20219
0.22521	0.22769
0.12320	0.17668
0.12320	0.07465
0.19971	0.04914
0.09770	0.12566
0.14870	0.04914
0.22521	0.15117
0.07220	0.25320
0.14870	0.17668
0.19971	0.22769
0.12320	0.27871
0.14870	0.17668
0.14870	0.10015
0.14870	0.25320
0.07220	0.12566
0.17421	0.15117
0.17421	0.22769
0.09770	0.10015
0.12320	0.12566
0.17421	0.22769
0.07220	0.07465
0.14870	0.22769
0.12320	0.20219
0.09770	0.15117
0.12320	0.15117
0.14870	0.22769
0.07220	0.15117
0.12320	0.10015
0.22521	0.22769
0.09770	0.15117
0.12320	0.10015
0.14870	0.10015
0.12320	0.17668
0.14870	0.04914
0.19971	0.15117
0.09770	0.15117
0.17421	0.10015
0.12320	0.22769
0.17421	0.20219
0.14870	0.20219
0.22521	0.22769
0.12320	0.12566
0.09770	0.02363
0.17421	0.12566
0.17421	0.04914
0.09770	0.10015
0.22521	0.25320
0.14870	0.20219
0.07220	0.20219
0.12320	0.22769
0.12320	0.15117
0.07220	0.12566
0.22521	0.10015
0.14870	0.17668
0.09770	0.15117
0.17421	0.04914
0.19971	0.12566
0.17421	0.22769
0.09770	0.20219
0.17421	0.20219
0.19971	0.22769
0.07220	0.10015
0.12320	0.10015
0.17421	0.15117
0.07220	0.10015
0.22521	0.02363
0.19971	0.20219
0.09770	0.15117
0.12320	0.04914
0.19971	0.22769
0.17421	0.27871
0.14870	0.12566
0.19971	0.22769
0.07220	0.12566
0.17421	0.07465
0.19971	0.07465
0.09770	0.10015
0.17421	0.10015
0.12320	0.17668
0.07220	0.15117
0.22521	0.10015
0.19971	0.15117
0.07220	0.00000
0.14870	0.00000
0.14870	0.00000
0.19971	0.00000
0.12320	0.00000
0.19971	0.00000
0.12320	0.20219
0.14870	0.10015
0.22521	0.15117
0.09770	0.20219
0.14870	0.10015
0.09770	0.10015
0.14870	0.22769
0.12320	0.20219
0.09770	0.17668
0.22521	0.17668
0.14870	0.10015
0.07220	0.12566
0.19971	0.17668
0.09770	0.04914
0.12320	0.15117
0.17421	0.20219
0.04670	0.07465
0.22521	0.25320
0.17421	0.20219
0.14870	0.15117
0.19971	0.25320
0.09770	0.07465
0.22521	0.15117
0.12320	0.12566
0.12320	0.04914
0.22521	0.22769
0.07220	0.07465
0.14870	0.22769
0.14870	0.17668
0.14870	0.12566
0.14870	0.25320
0.07220	0.02363
0.17421	0.04914
0.07220	0.07465
0.22521	0.12566
0.09770	0.12566
0.12320	0.12566
0.12320	0.30422
0.09770	0.20219
0.22521	0.12566
0.12320	0.17668
0.17421	0.12566
0.12320	0.15117
0.09770	0.04914
0.19971	0.10015
0.12320	0.17668
0.12320	0.07465
0.22521	0.10015
0.12320	0.12566
0.12320	0.07465
0.17421	0.20219
0.12320	0.04914
0.19971	0.15117
0.09770	0.07465
0.22521	0.25320
0.09770	0.22769
0.22521	0.20219
0.09770	0.20219
0.22521	0.25320
0.19971	0.17668
0.14870	0.12566
0.12320	0.12566
0.07220	0.07465
0.22521	0.12566
0.12320	0.07465
0.12320	0.07465
0.22521	0.15117
0.12320	0.15117
0.14870	0.20219
0.17421	0.22769
0.09770	0.15117
0.19971	0.20219
0.09770	0.07465
0.19971	0.17668
0.12320	0.17668
0.17421	0.15117
0.14870	0.25320
0.14870	0.12566
0.14870	0.22769
0.07220	0.04914
0.12320	0.15117
0.14870	0.12566
0.07220	0.07465
0.14870	0.15117
0.12320	0.15117
0.09770	0.07465
0.22521	0.15117
0.14870	0.20219
0.09770	0.12566
0.17421	0.15117
0.12320	0.17668
0.07220	0.04914
0.22521	0.10015
0.12320	0.20219
0.12320	0.07465
0.12320	0.22769
0.07220	0.04914
0.19971	0.15117
0.07220	0.15117
0.14870	0.07465
0.17421	0.15117
0.12320	0.12566
0.14870	0.10015
0.12320	0.17668
0.07220	0.15117
0.14870	0.10015
0.22521	0.25320
0.17421	0.20219
0.14870	0.15117
0.19971	0.20219
0.12320	0.04914
0.12320	0.04914
0.17421	0.12566
0.14870	0.10015
0.07220	0.17668
0.22521	0.25320
0.14870	0.20219
0.07220	0.17668
0.22521	0.20219
0.19971	0.45726
0.07220	-0.02739
0.09770	0.04914
0.12320	0.27871
0.07220	0.12566
0.14870	-0.07840
0.14870	0.07465
0.07220	0.45726
0.22521	0.32972
0.17421	0.81437
0.12320	0.15117
0.22521	-1.02219
0.12320	-0.25695
0.14870	0.68683
0.07220	1.29902
0.07220	0.43176
0.04670	0.78886
0.04670	-1.65988
0.17421	-1.50683
0.27621	-0.58856
0.27621	1.73265
0.25071	-0.38449
0.27621	-0.25695
0.14870	0.61031
-0.61635	1.73265
0.14870	-1.14973
0.35272	0.61031
0.60773	0.73785
0.25071	-5.66460
0.37822	1.55410
-0.18282	0.20219
-0.53984	1.70714
-0.10631	2.31933
0.73524	-2.11902
0.81175	0.58480
0.70974	1.63062
0.12320	2.85499
-0.00431	3.05905
0.02119	-11.86298
-0.00431	-2.47613
-1.22839	1.12046
-0.76936	2.95702
1.75531	4.66604
3.18340	-7.09303
-1.84042	-1.99148
-3.75305	4.18139
-1.66191	-1.53234
2.08683	5.96694
4.71350	-2.04250
3.99945	-3.21585
1.93382	-0.18043
-7.29777	2.52339
-7.22127	-1.63437
2.26534	0.89089
4.81550	2.11527
4.38197	-1.68539
-1.55991	1.06945
-1.86593	-0.46102
0.76074	2.37034
-0.10631	-6.45534
1.24527	-0.94566
0.19971	-0.51203
-0.84586	1.91120
-1.12638	2.11527
1.85731	-1.04770
1.34728	-4.15964
-0.74385	4.69155
-2.01894	2.06425
2.74987	-5.66460
-6.96625	3.72225
-0.74385	0.86539
7.16165	0.10015
-2.75848	1.83468
-4.84962	2.85499
2.06133	-3.62398
4.61149	2.08976
4.84100	3.64573
2.18883	-2.78222
1.29628	-6.35331
-2.32496	2.57441
-1.43240	1.19699
-2.24845	-0.38449
2.57136	0.17668
-1.89143	-0.43551
-0.48884	1.14597
2.74987	3.16108
-6.68574	-3.21585
-2.93700	-0.23145
1.88281	0.48277
1.21977	-1.07320
3.00489	0.68683
3.13239	0.76336
1.39828	3.13558
0.17421	-5.89417
0.45472	2.29382
-0.36133	1.52859
-1.07538	1.01843
1.62780	0.35523
3.71893	3.11007
-9.18489	-2.06800
-5.58916	-3.34339
2.03582	3.39065
3.08139	-1.96597
1.75531	-0.84363
1.62780	-2.06800
2.49485	-0.79262
1.57679	2.39585
0.99026	2.37034
1.39828	2.77847
0.83725	-3.67499
-3.52353	4.64053
-3.95706	-1.99148
-0.41233	-3.95558
0.73524	2.57441
1.01576	2.44687
0.96476	1.65613
0.81175	0.63582
0.48022	0.10015
0.22521	0.22769
0.12320	0.58480
0.07220	-2.11902
-0.02981	-0.35899
-0.05531	-0.66508
0.04670	-2.34859
0.14870	0.96742
0.37822	1.09496
0.70974	0.94191
0.14870	0.89089
-0.87136	-0.61406
-1.04987	0.50828
0.73524	0.68683
1.67880	0.35523
0.99026	0.78886
-0.66735	-0.23145
-0.05531	0.35523
1.75531	-3.26687
2.54586	1.24800
-4.64560	1.35003
-2.55447	0.96742
2.01032	-0.86914
4.17796	1.32453
-0.20832	1.04394
0.93925	1.12046
0.96476	-1.71090
-2.09544	0.58480
-1.58541	-0.23145
0.37822	1.14597
0.53123	-0.30797
0.78624	0.02363
-0.10631	-3.26687
-0.13181	2.52339
0.32721	-0.02739
0.37822	1.88570
0.32721	0.63582
0.14870	1.17148
0.19971	-1.37929
-0.15732	-5.53706
-0.46334	-2.42511
0.37822	-3.31788
0.42922	2.98253
0.32721	2.39585
0.35272	1.60511
-0.33583	0.76336
-0.43783	0.35523
0.27621	-0.15492
0.58223	-0.25695
0.48022	-0.46102
0.30171	-0.28246
0.48022	-0.30797
0.60773	0.04914
0.42922	-0.33348
-1.73842	-1.07320
-0.31033	0.50828
0.53123	0.83988
0.63323	0.73785
0.73524	0.04914
-0.05531	-0.48652
-0.71835	-0.23145
-1.55991	1.96222
-0.00431	1.70714
1.75531	-2.68019
1.62780	0.99292
1.34728	-1.32828
2.18883	3.13558
-2.73298	-0.35899
-0.41233	-2.37410
1.01576	3.74776
-0.41233	-3.98109
-0.87136	-0.10391
0.60773	-0.12942
-0.56534	4.07936
-0.18282	0.94191
0.48022	0.32972
0.42922	-1.09871
0.45472	1.32453
0.35272	0.43176
0.35272	-2.24656
0.12320	-0.46102
0.07220	2.16628
0.22521	3.08456
0.55673	-5.71561
0.53123	0.35523
-1.10088	1.06945
-1.27939	1.57960
0.65874	0.99292
0.63323	0.30422
0.48022	0.63582
0.48022	0.10015
0.19971	0.12566
1.09226	0.27871
3.05589	1.70714
-1.50890	0.55929
-5.79318	-4.49124
-0.33583	1.14597
2.16333	-2.65468
-0.10631	-2.47613
1.83181	1.91120
2.01032	2.26831
0.88825	1.04394
0.76074	0.96742
0.40372	-0.20594
-0.28482	0.04914
-0.79486	0.12566
-0.64185	-3.98109
-0.48884	1.17148
-0.25932	0.86539
-0.08081	0.32972
0.12320	-0.30797
-0.15732	-0.46102
-0.02981	0.35523
0.32721	-0.81812
0.65874	1.37554
0.63323	0.30422
-0.08081	1.22250
0.07220	1.63062
1.06676	1.01843
0.32721	1.37554
-0.41233	-3.47093
-0.46334	0.81437
-0.10631	0.83988
0.55673	-0.02739
1.04126	-1.45582
1.85731	0.10015
-0.05531	-0.02739
-0.46334	0.35523
-0.46334	-0.61406
-0.18282	0.10015
0.60773	2.52339
0.45472	-1.48133
-0.20832	0.63582
-0.61635	1.19699
0.32721	0.40625
0.96476	0.58480
-1.33039	0.20219
-0.23382	0.76336
0.37822	0.15117
-0.08081	-3.31788
0.45472	-0.05289
1.24527	2.52339
0.02119	-2.73121
-0.94787	0.71234
-0.43783	1.14597
0.63323	-1.40480
0.96476	2.77847
1.04126	-2.70570
-0.87136	0.22769
-1.45790	0.32972
0.17421	2.03874
0.65874	0.15117
0.88825	-0.28246
0.50573	-1.96597
0.30171	1.60511
0.42922	2.19179
0.07220	-2.96078
0.12320	-2.42511
0.25071	1.35003
-0.46334	1.35003
-3.06450	1.12046
0.07220	0.10015
1.39828	-0.43551
0.83725	1.04394
0.99026	0.22769
0.63323	-1.73640
0.65874	0.30422
0.78624	1.47757
0.17421	0.17668
0.53123	0.63582
0.93925	-1.88945
-2.09544	0.83988
-3.09000	0.45726
-0.20832	0.25320
1.95932	0.71234
-0.18282	2.21730
-0.74385	-1.37929
-0.59084	-0.43551
0.91375	-5.61358
2.21434	0.02363
-0.10631	2.44687
0.19971	4.10487
0.27621	-2.57816
0.14870	1.78367
0.17421	-0.56305
0.42922	0.91640
-0.15732	-0.56305
-0.71835	0.76336
-0.41233	-1.68539
0.32721	2.62542
0.40372	-0.92016
0.32721	-0.30797
0.32721	-1.81293
0.09770	0.02363
-0.02981	0.40625
-0.02981	0.35523
0.81175	-0.46102
1.60230	-0.07840
-1.63641	0.81437
-2.09544	1.68163
0.81175	1.19699
0.14870	0.50828
0.22521	0.55929
0.30171	-0.63957
1.55129	0.66132
0.86275	0.04914
0.63323	0.32972
1.34728	-1.48133
0.40372	-0.18043
0.17421	2.37034
-1.22839	2.80397
-0.82036	-2.39961
0.68424	-6.07272
-1.02437	0.86539
-1.12638	2.77847
0.30171	0.71234
0.91375	2.72745
0.32721	0.25320
1.60230	-0.10391
1.42379	-1.55785
0.19971	-0.86914
0.17421	0.86539
0.83725	0.83988
-1.17738	1.75816
-1.33039	1.45206
-0.48884	-3.08831
0.60773	-6.48085
0.76074	-1.35379
0.99026	0.30422
1.16877	1.19699
-1.84042	2.11527
-0.59084	2.31933
0.58223	2.14077
0.55673	1.83468
0.32721	0.17668
0.25071	-2.68019
0.12320	-0.92016
0.02119	0.76336
0.07220	1.06945
0.12320	-0.20594
0.27621	2.82948
0.27621	-2.96078
0.63323	-4.23616
-0.43783	1.83468
1.47479	-4.44022
-1.17738	2.08976
-1.15188	3.77327
-2.70748	0.20219
0.63323	1.57960
2.03582	0.86539
1.70430	0.35523
1.14327	-0.51203
0.91375	-0.61406
0.50573	-0.79262
0.17421	0.38074
-0.08081	-0.41000
-1.22839	-0.46102
-0.71835	1.37554
-0.20832	-3.54745
-0.53984	2.59991
-0.36133	0.17668
0.45472	-2.60367
0.73524	0.17668
0.96476	4.20690
0.35272	-2.04250
0.12320	0.94191
-1.84042	2.82948
0.32721	2.08976
0.55673	-0.56305
0.40372	-0.18043
0.99026	1.78367
0.91375	-1.09871
0.53123	-1.40480
0.32721	0.61031
-0.02981	-3.52195
0.04670	2.44687
0.45472	-2.68019
-1.84042	1.35003
-1.33039	0.81437
0.40372	1.24800
1.29628	-1.12422
0.70974	1.01843
-0.46334	1.29902
-0.08081	-0.18043
1.04126	0.02363
1.70430	-0.69059
1.32178	-0.86914
-3.34502	0.58480
-1.15188	-0.12942
1.04126	1.01843
1.32178	1.73265
1.09226	1.01843
0.48022	-0.48652
0.60773	-1.04770
0.42922	0.61031
0.12320	0.83988
-1.84042	0.99292
-1.17738	2.47238
0.30171	-9.28670
-0.82036	-1.12422
1.27078	1.78367
1.57679	2.26831
0.58223	3.39065
0.50573	0.12566
0.42922	-1.94047
0.25071	0.50828
0.07220	0.71234
-0.00431	1.47757
-0.56534	-0.02739
-0.33583	-2.22105
1.88281	1.17148
-0.94787	-1.02219
-0.53984	0.30422
0.70974	-0.53754
0.53123	1.27351
0.27621	1.47757
-1.10088	-0.58856
0.04670	-0.23145
1.29628	-0.35899
0.12320	1.70714
0.50573	0.25320
0.22521	1.32453
0.70974	1.01843
0.53123	-1.07320
-0.38683	0.30422
-0.51434	0.55929
-0.18282	-2.06800
0.76074	0.17668
1.19427	0.68683
1.42379	-0.05289
-0.48884	0.50828
-5.69117	0.02363
-2.14644	1.27351
2.49485	0.22769
2.67337	-1.02219
1.95932	-0.51203
1.50029	-0.84363
1.27078	0.12566
0.35272	1.24800
-0.79486	0.48277
-0.23382	0.45726
-0.99887	0.66132
-1.10088	0.58480
-0.23382	2.72745
0.17421	1.47757
0.25071	2.24281
0.63323	-2.22105
0.30171	0.38074
-0.51434	0.35523
0.04670	-0.86914
0.93925	0.15117
0.63323	-0.56305
-0.69285	0.86539
-0.18282	0.10015
0.65874	1.12046
0.37822	-1.48133
0.68424	-0.41000
0.60773	0.12566
0.83725	1.57960
0.88825	1.52859
0.22521	-3.87905
-2.29945	-0.12942
-0.82036	0.12566
0.22521	-1.14973
-1.43240	-0.48652
1.29628	1.04394
1.60230	-1.27726
1.37278	1.93671
0.78624	1.47757
-0.48884	-1.25176
-0.20832	-1.45582
0.09770	0.76336
0.32721	1.37554
0.12320	-0.92016
1.11776	0.04914
-1.89143	-3.13933
-0.92237	1.14597
0.32721	-0.23145
0.63323	1.14597
0.68424	0.38074
0.35272	0.43176
0.40372	0.50828
0.07220	0.22769
0.04670	0.53379
0.30171	0.61031
0.48022	-1.35379
0.12320	-3.64948
-0.61635	1.55410
0.27621	1.88570
0.55673	-0.46102
0.32721	1.22250
-1.55991	0.78886
-1.35589	-2.17003
1.09226	-2.50164
1.39828	1.55410
1.34728	1.68163
1.16877	0.86539
1.04126	1.57960
-0.33583	-0.05289
-1.35589	-1.14973
-0.48884	0.40625
-0.76936	1.24800
0.70974	-3.72601
0.93925	-0.48652
1.47479	1.12046
-0.94787	0.12566
-0.82036	-0.25695
-0.36133	0.43176
0.42922	1.12046
0.42922	0.04914
0.53123	0.22769
-0.08081	-0.00188
0.50573	-0.41000
0.40372	1.40105
-0.33583	0.73785
-0.23382	-3.82804
0.25071	0.12566
-0.10631	1.45206
0.76074	-0.12942
0.70974	-0.46102
0.32721	3.44167
-1.40690	-2.60367
-0.08081	0.20219
0.81175	0.76336
0.91375	0.99292
0.93925	0.48277
-0.46334	0.04914
-0.38683	-0.43551
-0.61635	-0.66508
-0.28482	0.27871
0.78624	1.14597
0.73524	1.96222
0.63323	-4.44022
0.25071	0.43176
0.17421	0.27871
-0.28482	0.71234
-0.08081	2.67644
0.02119	2.54890
0.25071	-2.83324
-0.25932	-3.47093
1.14327	1.63062
-0.18282	0.55929
0.02119	1.98773
-0.82036	0.78886
0.48022	1.04394
1.19427	-0.63957
1.34728	2.52339
0.76074	-1.07320
-0.74385	1.19699
-0.56534	-2.09351
0.35272	-0.76711
0.40372	2.14077
0.27621	1.40105
-0.48884	-0.46102
0.07220	-0.15492
0.70974	0.30422
0.55673	1.32453
0.30171	1.65613
-2.32496	1.40105
-1.35589	-5.07792
0.48022	2.01323
1.21977	-2.52714
1.11776	0.66132
0.83725	0.86539
0.60773	0.99292
-0.33583	1.06945
0.02119	1.37554
0.19971	0.78886
-0.02981	-2.70570
-0.20832	-0.99668
0.25071	-0.89465
0.53123	3.03355
-0.28482	2.67644
-0.48884	-3.01179
-0.64185	-5.46054
-0.13181	1.47757
0.73524	1.78367
0.60773	1.29902
0.93925	0.96742
1.90832	0.99292
-0.38683	1.22250
-4.21208	-2.80773
-0.89686	0.73785
1.57679	-0.28246
1.52579	0.71234
1.37278	-0.63957
1.11776	0.53379
0.93925	0.12566
-0.05531	0.50828
-0.36133	1.17148
0.96476	-0.46102
-1.40690	-1.14973
-2.14644	0.89089
0.48022	0.66132
1.04126	-0.69059
0.78624	2.62542
0.55673	1.55410
-0.23382	-5.20546
-0.10631	1.88570
0.40372	1.98773
0.07220	0.30422
-0.33583	-1.25176
-0.13181	0.38074
0.40372	0.53379
0.68424	0.81437
-0.00431	0.04914
-0.10631	-1.60887
0.73524	-2.42511
0.78624	-0.81812
-0.92237	1.29902
0.14870	1.06945
0.53123	0.04914
-1.50890	1.04394
-0.48884	-0.48652
1.27078	0.48277
1.16877	-0.71609
1.24527	0.86539
-0.20832	0.20219
0.22521	-0.20594
0.09770	0.43176
-0.00431	1.32453
-0.02981	-0.20594
-0.13181	0.86539
0.91375	0.22769
0.58223	-0.74160
-1.68742	0.53379
-1.30489	-0.46102
0.96476	-1.09871
1.06676	0.20219
1.52579	-0.94566
0.40372	0.83988
-1.55991	0.89089
-0.41233	0.58480
1.01576	0.91640
0.81175	-0.61406
-0.20832	0.40625
0.12320	-0.99668
-0.10631	-0.20594
0.40372	-1.09871
0.48022	1.57960
0.45472	1.93671
0.22521	2.08976
0.12320	-0.23145
-0.08081	1.37554
-0.36133	-0.63957
0.55673	1.24800
-0.94787	-1.32828
-1.27939	0.38074
1.32178	1.04394
0.14870	-1.60887
0.48022	-0.92016
0.50573	0.12566
0.27621	0.53379
0.12320	0.91640
0.02119	0.66132
-0.00431	1.29902
0.02119	0.35523
0.42922	-0.41000
0.02119	-1.45582
-0.28482	-1.27726
0.32721	0.68683
0.73524	1.73265
0.07220	1.01843
0.17421	-0.97117
-0.00431	-1.22625
-0.99887	-0.05289
0.45472	0.86539
1.80631	0.68683
-1.02437	3.16108
-0.64185	-0.12942
0.68424	-3.59847
0.19971	2.24281
0.76074	1.91120
0.76074	-2.90976
0.32721	1.04394
0.32721	2.39585
0.27621	1.65613
0.93925	-1.32828
-1.55991	-1.32828
-1.43240	-2.55265
-1.10088	-0.25695
1.06676	1.93671
1.39828	2.11527
0.91375	1.22250
-0.13181	1.45206
0.19971	-8.16436
1.50029	2.14077
-0.41233	-0.76711
-0.00431	1.78367
-0.00431	-1.71090
-0.28482	2.54890
-0.25932	-0.20594
0.48022	-2.98628
-0.38683	0.63582
0.07220	-0.51203
0.45472	1.57960
0.55673	0.73785
1.24527	1.29902
-0.66735	0.55929
-1.20288	0.86539
0.99026	-0.20594
1.09226	0.10015
0.27621	0.30422
0.19971	0.20219
0.14870	-3.08831
0.22521	-0.02739
0.55673	-1.04770
-0.94787	2.19179
-0.84586	0.76336
0.17421	2.52339
-0.38683	-0.56305
0.53123	-1.60887
0.78624	2.37034
-0.53984	-0.00188
0.27621	1.45206
1.09226	-5.07792
0.32721	0.20219
0.09770	2.06425
0.37822	1.60511
-0.53984	-1.27726
-0.99887	0.48277
-0.41233	0.96742
0.99026	0.04914
0.27621	-0.30797
-0.05531	0.99292
0.58223	-2.39961
0.78624	-1.48133
0.86275	-1.25176
-1.38139	3.82429
-0.28482	-2.80773
0.53123	0.63582
-0.41233	-0.51203
-0.20832	2.01323
0.63323	2.11527
0.55673	-0.92016
0.50573	-0.46102
0.22521	0.32972
-0.69285	0.43176
0.14870	-0.02739
0.99026	-0.69059
-0.46334	-0.53754
-0.23382	0.35523
0.91375	0.20219
0.22521	0.66132
0.07220	0.12566
-0.33583	1.78367
0.04670	-1.68539
0.70974	-1.68539
1.34728	1.17148
-1.07538	2.57441
-0.18282	-1.30277
0.48022	-0.10391
-0.74385	-0.66508
1.01576	2.75296
0.04670	0.61031
0.40372	0.07465
-0.69285	-2.17003
-0.43783	0.22769
0.48022	0.55929
0.88825	-3.16484
0.48022	1.68163
0.42922	1.78367
0.50573	0.53379
1.16877	-2.83324
-0.84586	1.42656
-2.01894	1.93671
-0.69285	-0.20594
0.60773	-0.84363
1.04126	-0.71609
0.83725	0.96742
0.68424	-0.33348
0.32721	1.88570
0.30171	0.81437
0.04670	-1.83844
-0.13181	0.99292
-0.87136	-0.12942
0.45472	0.71234
-0.25932	-3.01179
0.09770	-0.56305
1.19427	1.88570
0.25071	-1.12422
-2.04444	0.48277
-0.18282	1.60511
1.50029	0.07465
1.14327	0.61031
0.22521	1.73265
-0.02981	-2.47613
-0.08081	0.27871
0.53123	0.40625
0.14870	0.10015
0.04670	0.04914
0.04670	0.35523
0.02119	0.25320
0.17421	-0.69059
-0.15732	-0.20594
0.14870	0.55929
0.17421	1.63062
-0.38683	-2.04250
-1.89143	1.17148
0.40372	-0.89465
1.04126	1.14597
1.11776	-2.34859
1.34728	-2.09351
0.60773	1.32453
-0.74385	1.09496
-1.86593	2.39585
-0.18282	1.24800
1.52579	-0.00188
0.96476	-2.52714
0.70974	2.01323
0.65874	-1.04770
-0.08081	-1.73640
0.37822	0.96742
-0.05531	-0.28246
-0.79486	1.73265
-0.33583	1.27351
0.02119	-0.28246
0.37822	-1.07320
0.09770	0.73785
-0.46334	0.20219
0.12320	-0.18043
0.55673	0.12566
1.11776	0.30422
0.76074	-0.18043
0.02119	0.83988
-0.18282	1.17148
-0.08081	0.45726
0.83725	-0.18043
0.35272	-0.74160
0.50573	1.19699
-0.87136	2.77847
0.70974	-4.23616
0.04670	-0.30797
-0.33583	0.83988
-0.18282	-0.28246
0.35272	-0.43551
1.37278	0.38074
-0.18282	1.19699
-0.00431	1.17148
0.40372	0.58480
1.01576	-0.41000
0.68424	-1.37929
-1.30489	-3.16484
-2.17195	1.96222
0.22521	0.45726
1.60230	0.17668
0.99026	-0.94566
0.27621	0.35523
0.02119	0.35523
0.04670	0.71234
0.17421	0.22769
1.16877	0.50828
-0.05531	0.35523
-0.61635	0.78886
0.12320	-0.05289
0.63323	0.45726
0.68424	-2.80773
-1.10088	0.71234
-1.30489	0.94191
-0.08081	-0.05289
0.42922	0.58480
1.06676	0.27871
1.14327	1.09496
-0.05531	-0.66508
-0.99887	0.99292
-0.08081	2.39585
0.91375	-3.70050
0.73524	-0.02739
0.09770	1.50308
0.25071	-1.76191
0.32721	0.02363
0.09770	1.73265
-0.02981	0.10015
0.07220	-0.02739
0.48022	1.86019
0.63323	0.50828
-2.42696	-2.96078
-1.40690	0.10015
1.37278	1.68163
2.11233	-1.40480
0.50573	0.35523
0.48022	1.04394
-0.05531	0.17668
-0.36133	-0.51203
0.70974	-0.07840
0.76074	0.89089
-0.82036	0.55929
-0.94787	-0.56305
-0.15732	-1.71090
0.58223	0.66132
0.73524	1.68163
0.86275	-0.48652
0.32721	0.83988
0.35272	0.30422
-0.00431	1.27351
0.02119	-1.40480
-0.18282	0.73785
-0.36133	0.55929
0.17421	0.07465
-0.08081	-2.80773
0.12320	1.32453
0.65874	0.58480
1.21977	0.22769
0.86275	1.80917
-1.38139	-3.54745
-1.63641	0.15117
0.22521	0.73785
2.87738	1.91120
-0.18282	0.20219
-2.83499	-0.97117
0.09770	-0.15492
1.85731	2.11527
1.50029	-1.68539
0.96476	1.47757
0.68424	0.76336
1.34728	-2.73121
-0.51434	0.94191
-0.43783	-0.48652
0.30171	0.27871
-1.35589	-0.51203
-1.02437	1.98773
0.04670	0.02363
0.25071	1.35003
0.70974	0.91640
0.91375	-0.48652
0.76074	-1.04770
-0.48884	1.50308
-1.84042	-0.71609
-0.76936	-1.35379
0.68424	0.61031
1.14327	-0.61406
1.32178	0.38074
1.19427	1.14597
1.19427	1.17148
1.55129	0.61031
-1.71292	0.20219
-1.33039	0.15117
0.17421	0.17668
-1.04987	-0.25695
-0.28482	0.63582
0.73524	1.78367
1.37278	-4.41472
-0.64185	-2.47613
0.50573	1.47757
0.70974	1.70714
0.02119	1.45206
0.14870	0.89089
0.02119	-0.43551
-0.33583	0.50828
1.09226	1.83468
-0.15732	-1.83844
-0.02981	0.71234
-0.61635	0.81437
0.09770	-0.84363
0.76074	1.98773
0.14870	-1.43031
0.37822	0.07465
0.25071	-1.55785
0.27621	1.35003
0.14870	1.80917
0.04670	1.63062
0.27621	1.22250
0.73524	-5.33300
-0.64185	0.89089
-1.35589	0.91640
0.09770	0.20219
0.58223	0.94191
1.14327	-0.56305
0.35272	-0.02739
-0.13181	0.43176
0.40372	0.63582
0.30171	-1.88945
-0.15732	0.99292
0.65874	0.63582
0.19971	-0.43551
-0.56534	-0.99668
1.11776	-0.79262
0.07220	-0.00188
-0.66735	1.57960
-0.25932	-2.29757
0.73524	0.48277
0.96476	1.40105
0.50573	0.86539
0.35272	0.30422
0.37822	0.22769
-0.48884	-1.30277
-0.71835	1.06945
-0.18282	0.43176
-0.84586	-0.30797
0.25071	0.30422
0.73524	1.19699
0.86275	-0.41000
1.57679	-1.20074
-0.36133	-0.15492
-0.00431	0.71234
0.19971	0.38074
0.40372	1.83468
0.50573	-0.97117
-0.74385	0.71234
-1.04987	0.53379
-0.10631	-0.00188
0.70974	0.91640
1.29628	0.32972
1.34728	-1.99148
-1.55991	0.81437
-1.48340	1.80917
0.78624	-0.25695
0.93925	-0.00188
1.19427	1.52859
0.83725	-0.66508
0.30171	-0.94566
0.63323	-0.97117
0.93925	0.55929
-0.05531	1.42656
-3.47253	-0.15492
-1.38139	-0.35899
0.53123	-0.25695
0.78624	0.76336
0.73524	0.91640
0.60773	0.86539
0.63323	-1.02219
0.55673	-0.43551
0.53123	1.60511
0.55673	0.55929
-0.31033	-2.88425
-2.19745	-0.18043
-0.46334	0.63582
0.81175	1.37554
1.01576	1.42656
0.53123	-1.35379
-0.25932	-0.58856
0.42922	1.14597
-0.02981	0.32972
-0.87136	0.43176
0.99026	-0.35899
-0.38683	0.68683
-0.64185	0.48277
1.06676	-0.46102
0.76074	-1.83844
0.65874	0.30422
0.27621	-0.07840
0.35272	0.96742
0.48022	0.25320
-0.94787	1.27351
-0.79486	1.04394
-0.43783	1.04394
0.09770	-2.34859
0.86275	-2.50164
0.68424	2.49788
-0.61635	0.96742
-0.38683	-1.27726
0.53123	1.17148
0.65874	1.17148
0.86275	0.15117
-0.46334	0.32972
0.19971	0.89089
0.17421	-1.09871
0.65874	0.48277
0.83725	1.75816
-0.87136	-5.46054
-0.79486	0.58480
0.93925	1.04394
1.55129	1.14597
-2.17195	0.12566
-0.23382	0.32972
0.73524	0.71234
1.27078	0.73785
0.45472	-2.39961
-0.82036	1.22250
-0.74385	-0.76711
-0.87136	-0.63957
0.83725	1.68163
0.19971	1.24800
0.02119	0.99292
1.16877	0.99292
0.99026	0.73785
0.58223	-1.43031
0.19971	0.45726
-0.38683	-0.28246
-0.05531	0.27871
-0.20832	-0.69059
-0.08081	0.30422
-0.13181	0.96742
0.37822	0.20219
0.53123	-0.02739
-0.51434	0.96742
-1.68742	-1.32828
0.12320	-0.86914
1.21977	1.57960
0.83725	0.22769
0.76074	1.93671
0.53123	0.22769
1.21977	1.12046
0.17421	-3.75152
-1.78942	0.15117
-0.71835	-0.43551
-0.08081	2.88050
0.25071	-0.15492
0.60773	0.55929
-0.36133	0.68683
1.47479	-0.97117
4.02495	-0.69059
-3.14101	1.27351
-2.17195	0.58480
0.09770	-0.53754
1.11776	-0.66508
1.44929	0.32972
1.09226	-1.45582
0.37822	1.19699
0.14870	0.99292
0.27621	0.66132
-0.33583	0.50828
-0.33583	0.86539
0.22521	-0.10391
-0.56534	0.20219
-0.79486	-1.99148
-0.51434	0.38074
0.68424	1.09496
0.73524	0.96742
0.42922	0.40625
0.30171	-1.37929
0.42922	0.15117
0.42922	1.14597
0.53123	0.43176
0.27621	-1.99148
0.25071	1.75816
0.50573	0.15117
-1.48340	0.55929
-1.63641	1.75816
0.68424	-1.71090
1.24527	-0.18043
1.14327	-1.37929
0.83725	1.01843
0.58223	0.35523
0.02119	1.52859
-0.41233	0.02363
-0.28482	0.73785
-0.41233	-0.69059
-0.43783	0.40625
0.60773	-1.32828
0.76074	0.61031
1.21977	0.58480
-1.10088	0.32972
-0.74385	0.48277
0.58223	-0.86914
0.73524	2.08976
1.21977	-2.88425
-1.94243	-0.56305
-0.64185	0.91640
0.88825	1.32453
0.60773	0.86539
0.53123	0.63582
0.83725	0.73785
-0.18282	0.94191
-2.01894	-0.38449
0.12320	-1.58336
1.01576	-0.10391
0.78624	0.30422
0.50573	0.35523
0.02119	0.81437
0.07220	0.25320
-0.18282	-0.12942
0.07220	-0.56305
0.50573	0.25320
0.40372	-1.35379
0.42922	1.06945
-0.46334	1.47757
-1.50890	1.35003
-0.02981	-1.17523
1.42379	3.00804
-0.25932	-1.27726
0.09770	-0.38449
0.63323	0.25320
0.35272	1.96222
0.63323	-0.76711
0.55673	-0.12942
0.27621	-0.61406
0.19971	0.43176
0.65874	-0.12942
0.53123	0.66132
-1.81492	-1.09871
-0.56534	0.71234
0.48022	1.63062
-0.41233	-1.88945
-0.41233	0.04914
0.68424	-1.40480
0.83725	1.75816
1.06676	-0.12942
-0.08081	0.91640
-0.05531	-0.30797
0.50573	0.53379
0.42922	0.55929
-0.08081	0.99292
-0.56534	-0.86914
-0.33583	0.58480
-0.48884	0.50828
0.70974	-0.33348
1.32178	-1.30277
1.01576	1.17148
1.14327	0.55929
-0.56534	-0.53754
-1.45790	2.16628
0.53123	-1.58336
0.73524	-0.20594
0.48022	-3.82804
-0.79486	2.14077
-0.94787	2.34484
0.50573	0.94191
0.68424	-0.00188
-0.15732	0.35523
0.19971	1.91120
1.32178	-1.88945
1.34728	-0.15492
-1.78942	0.55929
-0.99887	0.02363
0.73524	-0.23145
0.99026	0.78886
0.55673	1.12046
-0.25932	-0.89465
-0.43783	0.35523
0.30171	0.99292
0.50573	-0.69059
0.40372	-1.40480
0.58223	0.71234
-0.74385	0.40625
-0.31033	0.58480
-0.28482	0.30422
0.35272	0.30422
0.60773	0.25320
0.14870	0.30422
0.09770	0.66132
-0.43783	-2.65468
-0.48884	0.81437
0.40372	1.22250
1.04126	0.27871
0.32721	0.22769
-0.28482	0.12566
0.50573	-0.41000
0.60773	-0.33348
0.40372	0.25320
-0.02981	0.12566
-0.33583	0.07465
-0.23382	1.32453
0.22521	1.04394
0.30171	0.12566
0.32721	-3.29238
-0.89686	1.01843
-0.48884	-0.25695
0.73524	0.99292
0.73524	0.17668
0.53123	-0.97117
0.37822	1.60511
0.48022	1.60511
0.02119	-3.93007
0.09770	1.01843
0.14870	0.81437
1.27078	0.50828
-0.69285	2.16628
-2.96250	-3.67499
-0.13181	1.09496
1.29628	0.17668
1.24527	-0.92016
1.24527	-0.41000
0.65874	0.94191
0.07220	0.78886
-0.20832	0.81437
-0.10631	-0.35899
0.30171	0.48277
0.19971	0.89089
-0.69285	-1.83844
-0.28482	0.58480
0.27621	-0.15492
0.25071	0.40625
0.30171	0.53379
0.30171	0.94191
0.17421	-0.12942
0.22521	0.17668
0.09770	-0.97117
0.42922	0.94191
0.22521	0.86539
-0.64185	0.55929
-0.23382	-3.98109
0.19971	1.57960
0.40372	1.47757
0.22521	0.15117
0.81175	0.17668
0.22521	0.86539
0.22521	0.38074
-0.38683	-0.07840
0.17421	-0.15492
0.22521	-1.86394
0.45472	0.73785
0.53123	-0.71609
-0.87136	1.29902
-0.97337	0.07465
0.12320	-0.58856
1.11776	-0.15492
1.04126	0.66132
0.60773	1.40105
0.32721	-0.38449
-0.08081	0.22769
-0.02981	0.71234
-0.10631	-2.19554
0.25071	-0.71609
-0.02981	1.06945
-0.61635	1.50308
-0.28482	-1.17523
0.27621	-0.97117
-0.05531	-0.23145
0.30171	1.32453
1.24527	0.43176
0.40372	1.32453
-0.79486	0.66132
-0.48884	-0.25695
0.40372	0.76336
0.70974	-0.48652
0.02119	-0.15492
0.45472	-0.66508
1.29628	0.32972
0.93925	0.76336
-0.18282	0.61031
-0.89686	0.43176
-0.66735	-0.46102
0.27621	0.99292
0.96476	-1.30277
0.65874	-0.20594
-1.12638	0.53379
-0.18282	0.68683
0.37822	0.22769
0.48022	-0.97117
0.55673	-0.02739
0.02119	1.22250
0.09770	0.89089
0.55673	1.35003
0.48022	-0.18043
-1.33039	-3.80253
0.07220	-0.61406
0.88825	1.63062
0.50573	3.21210
-0.18282	-1.63437
0.55673	0.15117
0.73524	1.06945
0.45472	0.71234
0.19971	-0.00188
0.19971	0.53379
0.22521	0.02363
-0.28482	-0.05289
-0.53984	-2.01699
-0.92237	0.53379
0.50573	0.35523
0.83725	-0.20594
0.78624	0.94191
-0.64185	-0.05289
-0.33583	0.40625
0.65874	0.61031
0.65874	0.76336
0.88825	0.38074
-0.53984	0.43176
-0.31033	-1.63437
0.76074	-0.79262
0.37822	0.66132
-0.43783	0.89089
-0.13181	0.40625
0.22521	-0.00188
0.48022	-0.00188
0.37822	0.12566
-0.02981	0.32972
0.30171	0.63582
-0.05531	0.22769
-0.08081	-0.84363
-0.53984	0.22769
-0.84586	0.55929
0.68424	-0.20594
0.88825	0.63582
0.60773	0.40625
-0.25932	0.22769
0.76074	-1.27726
0.73524	1.04394
-0.20832	1.57960
0.35272	1.32453
0.60773	0.66132
-0.36133	-1.76191
-0.33583	1.57960
-0.20832	0.78886
-0.08081	1.22250
0.17421	-2.80773
0.04670	0.78886
0.02119	1.01843
0.45472	1.12046
1.04126	-0.79262
-0.87136	-0.66508
-1.12638	0.68683
-0.89686	0.02363
0.73524	-0.12942
0.93925	-1.27726
0.14870	1.35003
0.83725	0.61031
0.99026	0.43176
0.73524	0.58480
0.27621	0.45726
-0.08081	0.30422
-0.00431	-0.48652
-0.41233	-0.25695
0.17421	-0.10391
0.53123	0.96742
0.30171	0.66132
-1.04987	-0.02739
-2.01894	-1.48133
-0.20832	-0.63957
1.44929	0.81437
0.83725	0.35523
0.83725	0.40625
0.65874	1.01843
0.40372	-0.56305
0.02119	1.06945
-0.20832	0.20219
0.22521	-1.27726
0.19971	-2.29757
-0.97337	1.01843
-0.51434	1.78367
0.53123	1.68163
0.55673	1.19699
0.60773	0.89089
0.17421	-0.41000
-0.15732	-0.92016
0.35272	0.35523
0.22521	-0.15492
0.09770	0.20219
0.12320	1.32453
-0.28482	1.57960
0.19971	-3.34339
0.42922	-1.30277
-0.10631	0.86539
0.42922	0.76336
-0.33583	0.61031
0.07220	1.22250
0.70974	0.91640
-0.08081	-0.35899
0.45472	-0.86914
0.40372	1.75816
0.55673	0.02363
-0.28482	-1.27726
0.09770	-0.15492
0.09770	-0.48652
0.07220	0.38074
0.02119	0.71234
0.02119	0.71234
0.35272	1.06945
0.27621	-3.19035
0.02119	1.32453
-0.00431	-0.00188
-0.10631	0.15117
0.22521	1.88570
0.37822	1.12046
0.27621	-2.47613
0.02119	0.32972
0.27621	0.22769
0.30171	0.17668
0.45472	0.02363
0.22521	0.10015
-0.41233	0.66132
-0.00431	0.86539
0.17421	-0.28246
-0.00431	0.25320
0.42922	0.45726
0.81175	0.07465
-0.15732	0.66132
-0.48884	-2.14453
-0.20832	1.12046
0.12320	0.35523
0.73524	1.35003
0.17421	-1.60887
-0.48884	1.17148
0.17421	-0.33348
0.91375	-0.97117
0.99026	1.63062
-0.36133	0.30422
-0.15732	0.53379
0.22521	2.06425
0.12320	-3.21585
0.12320	-0.25695
0.22521	0.68683
0.30171	1.57960
-0.82036	-0.56305
-0.36133	-0.92016
1.09226	1.17148
0.07220	0.17668
-1.40690	-0.25695
0.45472	-0.58856
-0.08081	0.43176
0.88825	0.43176
0.96476	0.55929
0.65874	-0.43551
0.37822	-0.18043
-0.23382	-0.28246
0.25071	0.07465
-0.15732	0.25320
-0.51434	0.63582
0.12320	0.35523
0.83725	0.76336
1.09226	0.32972
-2.19745	0.50828
-2.04444	0.48277
0.93925	-0.51203
1.44929	0.10015
1.09226	-1.07320
0.78624	1.17148
0.63323	0.32972
0.19971	-0.63957
0.02119	0.86539
-0.15732	-0.35899
-0.10631	1.19699
0.12320	1.09496
0.27621	1.32453
-0.97337	0.17668
-0.66735	-0.25695
0.48022	-0.66508
0.63323	-0.10391
0.50573	0.50828
0.12320	-0.66508
0.12320	-1.04770
0.27621	0.48277
0.30171	0.94191
1.01576	0.43176
1.50029	1.83468
-0.59084	-2.50164
-2.24845	0.04914
-0.64185	1.06945
0.53123	0.73785
1.01576	1.09496
1.32178	-0.51203
0.37822	-4.72081
0.22521	1.88570
-0.79486	2.06425
0.25071	0.81437
0.70974	0.10015
0.40372	-0.92016
0.04670	0.71234
0.12320	0.22769
-0.00431	0.91640
-0.36133	0.30422
-0.23382	-1.73640
-0.02981	0.78886
-0.02981	-0.76711
0.30171	0.89089
0.32721	0.27871
0.17421	0.30422
0.32721	0.02363
0.14870	0.55929
0.19971	0.35523
0.35272	-0.48652
0.19971	0.43176
0.12320	-0.25695
0.12320	0.48277
-0.13181	0.43176
0.04670	-1.63437
0.30171	0.45726
0.35272	0.76336
-0.25932	1.24800
0.07220	-0.51203
0.37822	-0.30797
0.17421	0.66132
-1.02437	-0.15492
0.12320	0.04914
1.27078	0.78886
0.73524	0.71234
-0.28482	0.12566
0.45472	-0.28246
0.32721	-1.30277
-0.10631	1.22250
-0.08081	2.03874
-0.13181	-2.55265
0.09770	0.73785
0.37822	-1.20074
0.60773	1.14597
0.09770	1.04394
-0.13181	0.40625
-0.59084	-0.79262
-0.38683	0.71234
1.11776	1.14597
1.55129	0.15117
-1.48340	0.17668
-0.64185	0.12566
-0.28482	0.25320
0.55673	-3.93007
1.29628	0.30422
1.37278	1.37554
0.91375	0.02363
-0.69285	0.68683
-0.46334	-0.10391
0.27621	0.35523
0.32721	0.86539
0.07220	0.81437
0.19971	-1.12422
0.12320	0.45726
-0.05531	0.50828
-0.38683	-1.71090
0.25071	1.93671
0.76074	1.09496
-0.82036	-0.97117
-1.71292	-0.41000
0.53123	0.89089
0.88825	0.38074
0.78624	0.30422
0.42922	0.25320
0.48022	-0.38449
0.42922	-1.14973
0.93925	-0.23145
0.07220	0.32972
-0.00431	0.32972
-0.18282	1.42656
-0.08081	-0.15492
0.22521	-0.12942
-0.08081	0.17668
-0.43783	0.71234
0.07220	0.25320
0.32721	-0.33348
0.48022	-0.38449
-0.13181	-0.97117
-1.07538	-0.23145
0.04670	1.78367
0.73524	0.78886
0.81175	0.63582
0.42922	1.14597
0.12320	-0.46102
0.35272	-1.40480
0.70974	0.50828
-1.55991	0.94191
-1.10088	0.86539
0.70974	0.81437
1.42379	-0.76711
1.32178	-0.20594
0.86275	-0.28246
0.32721	0.73785
0.07220	0.02363
-0.28482	-1.07320
-0.05531	0.73785
0.17421	0.30422
-0.56534	-0.12942
-1.33039	0.40625
-0.38683	-0.12942
0.42922	-0.10391
0.35272	0.50828
0.48022	0.68683
0.68424	0.96742
0.78624	0.58480
0.50573	-0.33348
-0.84586	0.27871
-0.28482	0.58480
0.40372	-1.22625
0.58223	0.58480
0.07220	0.86539
0.30171	0.94191
0.40372	1.04394
0.12320	-1.04770
-0.59084	-1.43031
0.22521	-0.61406
0.40372	0.71234
0.30171	0.55929
0.07220	0.35523
-0.08081	1.27351
0.40372	-0.25695
0.37822	0.07465
0.60773	0.04914
-0.46334	0.22769
-0.92237	0.86539
0.22521	0.66132
0.25071	0.17668
0.53123	-0.46102
1.01576	-0.30797
-0.13181	-0.20594
-0.76936	0.50828
-0.33583	0.45726
0.32721	0.78886
0.53123	-0.61406
0.65874	-2.34859
0.65874	1.65613
0.42922	0.61031
0.02119	0.53379
0.19971	0.32972
-0.00431	0.30422
0.02119	0.58480
-0.23382	0.35523
-0.28482	0.10015
0.30171	0.45726
-1.43240	-0.89465
-0.18282	0.30422
1.29628	-0.15492
1.37278	-0.69059
-0.28482	0.43176
0.27621	0.71234
1.27078	0.40625
-0.69285	0.30422
-1.07538	0.45726
-0.38683	0.15117
1.55129	0.76336
-0.00431	-1.58336
0.14870	0.89089
0.27621	0.63582
-0.51434	0.35523
-0.10631	-2.04250
0.45472	0.94191
0.45472	1.22250
0.40372	0.63582
0.17421	0.40625
0.02119	0.12566
-0.00431	-2.39961
0.45472	0.86539
0.35272	1.75816
-0.64185	-0.15492
-1.50890	-1.63437
-0.05531	1.01843
0.63323	0.27871
0.96476	1.04394
0.68424	0.68683
0.37822	0.53379
0.17421	-0.41000
0.37822	-0.15492
0.40372	0.25320
0.27621	0.61031
-0.76936	-1.07320
-0.38683	0.12566
0.48022	0.35523
0.30171	0.58480
-0.97337	0.15117
-0.10631	0.04914
1.32178	-0.12942
1.14327	0.07465
-0.46334	0.71234
-1.66191	0.38074
0.37822	-0.71609
1.06676	0.68683
0.65874	0.76336
0.27621	0.55929
0.19971	-0.10391
0.37822	0.66132
0.45472	-0.63957
-0.46334	0.50828
-0.53984	0.66132
0.32721	-2.22105
-0.18282	0.76336
-0.18282	1.42656
0.32721	-1.37929
0.76074	0.40625
-0.18282	0.45726
-0.28482	0.99292
0.14870	0.55929
0.48022	0.22769
0.32721	0.48277
0.25071	-0.46102
0.12320	0.17668
0.35272	-0.35899
0.27621	1.17148
0.25071	-0.89465
0.17421	0.40625
0.14870	0.61031
0.07220	0.30422
0.17421	-0.86914
0.07220	0.73785
-0.20832	-0.15492
-0.15732	0.89089
0.19971	-1.07320
-0.23382	0.58480
0.22521	0.43176
0.45472	0.30422
0.02119	0.22769
-0.28482	0.10015
0.40372	0.27871
0.73524	0.71234
0.27621	0.12566
0.45472	-0.23145
1.37278	0.07465
-0.10631	1.93671
-1.07538	-5.23097
-0.66735	1.12046
-0.46334	1.22250
-0.33583	1.06945
0.37822	-0.35899
0.60773	1.01843
0.91375	1.17148
0.76074	0.55929
0.53123	0.38074
0.30171	-0.15492
0.12320	0.25320
0.02119	-1.22625
-0.20832	-1.09871
-0.20832	0.76336
-0.05531	1.55410
-0.10631	-2.78222
-0.20832	-1.88945
0.04670	0.04914
-0.02981	2.44687
0.32721	1.35003
0.35272	-0.99668
0.19971	1.68163
0.63323	0.22769
0.45472	0.61031
-0.10631	0.66132
0.14870	0.50828
0.45472	-0.92016
-0.10631	-0.63957
-0.66735	-1.65988
0.02119	1.01843
1.14327	0.86539
0.78624	-0.30797
0.50573	0.22769
-0.66735	0.17668
-0.74385	0.12566
-0.25932	0.17668
0.48022	0.15117
0.81175	0.48277
0.86275	-0.07840
-0.28482	-0.18043
-0.02981	0.40625
0.30171	-1.17523
-1.12638	0.43176
-0.10631	1.22250
0.70974	0.45726
0.73524	-0.41000
0.65874	0.58480
-0.13181	-0.00188
-0.08081	0.73785
0.30171	0.66132
-0.76936	-0.23145
-0.61635	0.25320
0.35272	0.38074
1.01576	0.32972
0.42922	0.38074
0.76074	-0.00188
0.86275	0.40625
1.09226	-0.25695
0.68424	-2.29757
-2.14644	1.75816
-1.63641	0.50828
0.35272	0.15117
0.60773	-0.56305
0.99026	0.40625
1.01576	-1.30277
0.58223	-0.46102
-0.74385	0.43176
-0.56534	0.91640
0.30171	1.12046
0.55673	0.76336
0.27621	-0.46102
-0.31033	0.96742
0.14870	0.91640
0.25071	-2.34859
0.30171	0.38074
0.02119	0.48277
0.42922	0.78886
0.30171	0.43176
0.25071	0.32972
0.12320	-0.05289
0.14870	0.53379
0.22521	0.53379
0.17421	-0.23145
-0.08081	-0.10391
-0.69285	-2.11902
-0.23382	-0.43551
0.60773	0.55929
0.86275	0.94191
0.37822	1.91120
-0.05531	1.88570
0.32721	-1.07320
