0.14870	0.20219
0.12320	0.15117
0.14870	0.30422
0.17421	0.12566
0.14870	0.15117
0.14870	0.12566
0.14870	0.15117
0.19971	0.15117
0.12320	0.22769
0.12320	0.04914
0.22521	0.17668
0.09770	0.04914
0.22521	0.20219
0.14870	0.07465
0.12320	0.17668
0.12320	0.10015
0.14870	0.12566
0.14870	0.12566
0.19971	0.12566
0.14870	0.17668
0.14870	0.20219
0.19971	0.15117
0.12320	0.17668
0.07220	0.22769
0.22521	0.10015
0.12320	0.10015
0.09770	0.15117
0.12320	0.10015
0.19971	0.10015
0.14870	0.20219
0.14870	0.15117
0.14870	0.15117
0.07220	0.27871
0.17421	0.07465
0.14870	0.15117
0.14870	0.12566
0.19971	-0.00188
0.09770	0.12566
0.14870	0.17668
0.22521	0.12566
0.14870	0.12566
0.12320	0.15117
0.19971	0.10015
0.07220	0.20219
0.17421	0.12566
0.22521	0.10015
0.09770	0.15117
0.17421	0.07465
0.14870	0.17668
0.14870	0.17668
0.12320	0.20219
0.09770	0.17668
0.17421	0.20219
0.09770	0.07465
0.22521	0.17668
0.09770	0.10015
0.14870	0.04914
0.14870	0.17668
0.12320	0.04914
0.12320	0.17668
0.12320	0.15117
0.22521	0.27871
0.09770	0.20219
0.14870	0.15117
0.14870	0.17668
0.14870	0.04914
0.14870	0.15117
0.14870	0.02363
0.19971	0.17668
0.07220	0.15117
0.22521	0.20219
0.07220	0.25320
0.22521	0.20219
0.07220	0.25320
0.19971	0.20219
0.09770	0.15117
0.22521	0.04914
0.12320	0.02363
0.19971	0.12566
0.07220	0.15117
0.19971	0.17668
0.12320	0.20219
0.12320	0.17668
0.17421	0.20219
0.12320	0.10015
0.14870	0.17668
0.14870	0.04914
0.14870	0.15117
0.07220	0.22769
0.22521	0.20219
0.07220	0.12566
0.14870	0.04914
0.12320	0.20219
0.12320	0.12566
0.12320	0.12566
0.07220	0.10015
0.19971	0.04914
0.09770	0.22769
0.14870	0.12566
0.14870	0.20219
0.07220	0.17668
0.22521	0.17668
0.09770	0.17668
0.22521	0.15117
0.12320	0.15117
0.14870	-0.00188
0.22521	0.12566
0.04670	0.15117
0.22521	0.12566
0.07220	0.12566
0.19971	0.12566
0.07220	0.27871
0.17421	0.22769
0.12320	0.15117
0.14870	0.20219
0.12320	0.10015
0.19971	0.07465
0.09770	0.17668
0.22521	0.10015
0.09770	0.25320
0.12320	0.15117
0.14870	0.15117
0.14870	0.15117
0.19971	0.10015
0.14870	0.10015
0.12320	0.04914
0.22521	0.20219
0.09770	0.10015
0.17421	0.17668
0.14870	0.12566
0.12320	0.15117
0.17421	0.25320
0.17421	0.10015
0.14870	0.12566
0.12320	0.15117
0.22521	0.10015
0.09770	0.17668
0.14870	0.07465
0.14870	0.07465
0.12320	0.07465
0.19971	0.15117
0.12320	0.30422
0.07220	0.20219
0.19971	0.15117
0.17421	0.22769
0.14870	0.04914
0.22521	0.12566
0.09770	0.12566
0.17421	0.15117
0.17421	0.20219
0.19971	0.25320
0.12320	0.27871
0.07220	0.07465
0.22521	0.15117
0.07220	-0.00188
0.12320	0.07465
0.17421	0.10015
0.14870	0.10015
0.14870	0.15117
0.17421	0.15117
0.14870	0.15117
0.12320	0.22769
0.14870	0.17668
0.14870	0.17668
0.22521	0.22769
0.12320	0.07465
0.17421	0.07465
0.12320	0.12566
0.22521	0.07465
0.07220	0.20219
0.14870	0.20219
0.19971	0.20219
0.14870	0.25320
0.14870	0.12566
0.14870	0.22769
0.12320	0.10015
0.22521	0.12566
0.07220	0.15117
0.12320	0.04914
0.12320	0.10015
0.12320	0.15117
0.19971	0.12566
0.09770	0.17668
0.14870	0.22769
0.14870	0.15117
0.14870	0.22769
0.07220	0.10015
0.19971	0.12566
0.14870	0.15117
0.14870	0.04914
0.14870	0.20219
0.07220	0.17668
0.22521	0.15117
0.12320	0.15117
0.14870	0.10015
0.12320	0.12566
0.09770	0.10015
0.14870	0.15117
0.14870	0.22769
0.09770	0.15117
0.22521	0.10015
0.12320	0.25320
0.14870	0.12566
0.17421	0.15117
0.09770	0.15117
0.22521	0.15117
0.07220	0.20219
0.14870	0.04914
0.17421	0.20219
0.14870	0.07465
0.12320	0.25320
0.14870	0.20219
0.19971	0.12566
0.07220	0.17668
0.14870	0.10015
0.12320	0.12566
0.09770	0.15117
0.19971	0.07465
0.12320	0.15117
0.14870	0.20219
0.25071	0.07465
0.04670	0.22769
0.12320	0.15117
0.22521	0.15117
0.07220	0.15117
0.17421	0.04914
0.09770	0.12566
0.17421	0.15117
0.19971	0.12566
0.07220	0.25320
0.14870	0.10015
0.14870	0.25320
0.07220	0.17668
0.19971	0.15117
0.14870	0.22769
0.12320	0.04914
0.19971	0.15117
0.09770	0.20219
0.17421	0.04914
0.12320	0.17668
0.14870	0.15117
0.22521	0.22769
0.07220	0.17668
0.22521	0.10015
0.14870	0.20219
0.14870	0.04914
0.14870	0.17668
0.07220	0.07465
0.22521	0.25320
0.09770	0.15117
0.22521	0.25320
0.07220	0.15117
0.22521	0.10015
0.14870	0.25320
0.17421	0.10015
0.22521	0.10015
0.09770	0.12566
0.12320	-0.00188
0.14870	0.22769
0.14870	0.15117
0.12320	0.20219
0.07220	0.25320
0.12320	0.22769
0.14870	0.25320
0.14870	0.07465
0.12320	0.15117
0.17421	0.10015
0.14870	0.10015
0.09770	0.10015
0.17421	0.15117
0.12320	0.25320
0.09770	0.15117
0.17421	0.25320
0.04670	0.07465
0.14870	0.22769
0.17421	0.07465
0.25071	0.20219
0.09770	0.07465
0.19971	0.17668
0.07220	0.07465
0.22521	0.25320
0.12320	0.12566
0.14870	0.22769
0.14870	0.07465
0.17421	0.17668
0.07220	-0.00188
0.19971	0.10015
0.12320	0.15117
0.12320	0.15117
0.17421	0.25320
0.12320	0.22769
0.17421	0.25320
0.07220	0.15117
0.22521	0.15117
0.12320	0.20219
0.07220	0.07465
0.22521	0.12566
0.09770	0.20219
0.12320	0.10015
0.19971	0.15117
0.14870	0.20219
0.14870	0.15117
0.19971	0.20219
0.07220	0.12566
0.22521	0.15117
0.09770	0.07465
0.17421	0.04914
0.12320	0.17668
0.12320	0.04914
0.19971	0.25320
0.07220	0.22769
0.19971	0.22769
0.14870	0.20219
0.17421	0.20219
0.12320	0.15117
0.07220	0.07465
0.22521	0.15117
0.09770	0.07465
0.22521	0.15117
0.07220	0.07465
0.19971	0.17668
0.12320	0.15117
0.17421	0.10015
0.14870	0.10015
0.12320	0.07465
0.22521	0.10015
0.09770	0.02363
0.22521	0.22769
0.09770	0.22769
0.12320	0.15117
0.12320	0.22769
0.07220	0.20219
0.17421	0.15117
0.14870	0.17668
0.09770	0.10015
0.19971	0.07465
0.09770	0.15117
0.09770	0.15117
0.14870	0.17668
0.14870	0.25320
0.17421	0.12566
0.22521	0.20219
0.07220	0.20219
0.12320	0.10015
0.19971	0.17668
0.09770	0.10015
0.19971	0.10015
0.14870	0.15117
0.12320	0.10015
0.25071	0.17668
0.12320	0.20219
0.14870	0.17668
0.19971	0.15117
0.07220	0.22769
0.19971	0.04914
0.14870	0.07465
0.07220	0.10015
0.22521	0.10015
0.14870	0.17668
0.12320	0.15117
0.19971	0.15117
0.14870	0.25320
0.14870	0.10015
0.22521	0.25320
0.07220	0.10015
0.14870	0.15117
0.07220	0.12566
0.22521	0.17668
0.07220	0.15117
0.22521	0.04914
0.12320	0.20219
0.12320	0.07465
0.14870	0.20219
0.12320	0.07465
0.14870	0.20219
0.14870	0.02363
0.12320	0.17668
0.17421	0.07465
0.12320	0.25320
0.14870	0.22769
0.22521	0.20219
0.07220	0.25320
0.22521	0.15117
0.07220	0.22769
0.17421	0.04914
0.14870	0.10015
0.04670	0.07465
0.19971	0.15117
0.04670	0.12566
0.22521	0.07465
0.17421	0.25320
0.12320	0.17668
0.14870	0.15117
0.07220	0.12566
0.22521	0.10015
0.09770	0.15117
0.12320	0.02363
0.14870	0.07465
0.14870	0.25320
0.19971	0.20219
0.14870	0.27871
0.09770	0.22769
0.19971	0.17668
0.14870	0.17668
0.17421	0.10015
0.17421	0.15117
0.09770	0.04914
0.19971	0.10015
0.14870	0.20219
0.07220	0.10015
0.19971	0.17668
0.07220	0.12566
0.14870	0.22769
0.12320	0.17668
0.14870	0.15117
0.17421	0.12566
0.14870	0.04914
0.17421	0.10015
0.17421	0.15117
0.14870	0.17668
0.12320	0.17668
0.12320	0.22769
0.14870	0.22769
0.12320	0.04914
0.14870	0.20219
0.07220	0.04914
0.25071	0.12566
0.07220	0.10015
0.22521	0.22769
0.09770	0.12566
0.12320	0.25320
0.14870	0.12566
0.12320	0.22769
0.14870	0.07465
0.12320	0.20219
0.14870	0.04914
0.14870	0.17668
0.12320	0.10015
0.19971	0.17668
0.07220	0.10015
0.14870	0.20219
0.07220	0.17668
0.22521	0.25320
0.07220	0.17668
0.22521	0.17668
0.17421	0.12566
0.14870	0.10015
0.19971	0.12566
0.12320	0.12566
0.12320	0.12566
0.12320	0.15117
0.14870	0.17668
0.14870	0.17668
0.17421	0.15117
0.09770	0.10015
0.22521	0.20219
0.07220	0.04914
0.19971	0.12566
0.09770	0.10015
0.19971	0.10015
0.07220	0.22769
0.14870	0.15117
0.22521	0.15117
0.09770	0.17668
0.22521	0.07465
0.14870	0.12566
0.14870	0.04914
0.22521	0.20219
0.09770	0.07465
0.19971	0.15117
0.07220	0.17668
0.14870	0.20219
0.17421	0.25320
0.14870	0.12566
0.22521	0.22769
0.07220	0.04914
0.19971	0.10015
0.09770	0.07465
0.14870	0.04914
0.12320	0.22769
0.09770	0.17668
0.09770	0.15117
0.17421	0.17668
0.09770	0.12566
0.12320	0.04914
0.22521	0.15117
0.07220	0.22769
0.17421	0.17668
0.25071	0.15117
0.07220	0.25320
0.14870	0.15117
0.14870	0.20219
0.04670	0.22769
0.14870	-0.00188
0.12320	0.12566
0.07220	0.10015
0.22521	0.07465
0.14870	0.12566
0.17421	0.00000
0.22521	0.00000
0.17421	0.15117
0.14870	0.12566
0.19971	0.30422
0.07220	0.17668
0.12320	0.12566
0.14870	0.12566
0.07220	0.07465
0.19971	0.10015
0.09770	0.15117
0.12320	0.10015
0.14870	0.17668
0.14870	0.10015
0.12320	0.25320
0.09770	0.17668
0.22521	0.20219
0.09770	0.17668
0.12320	0.10015
0.14870	0.17668
0.09770	0.04914
0.22521	0.20219
0.14870	0.15117
0.12320	0.12566
0.14870	0.22769
0.07220	0.12566
0.19971	0.17668
0.14870	0.12566
0.12320	0.17668
0.22521	0.17668
0.12320	0.04914
0.14870	0.15117
0.12320	0.15117
0.09770	0.17668
0.22521	0.27871
0.07220	0.10015
0.19971	0.17668
0.04670	0.04914
0.14870	0.17668
0.12320	0.17668
0.12320	0.15117
0.12320	0.15117
0.09770	0.17668
0.22521	0.22769
0.12320	0.15117
0.14870	0.27871
0.07220	0.10015
0.19971	0.15117
0.12320	0.02363
0.14870	0.15117
0.09770	0.04914
0.22521	0.20219
0.09770	0.15117
0.19971	0.15117
0.07220	0.15117
0.22521	0.27871
0.07220	0.12566
0.19971	0.20219
0.04670	0.17668
0.22521	0.20219
0.12320	0.02363
0.14870	0.17668
0.12320	0.15117
0.17421	0.15117
0.14870	0.15117
0.14870	0.17668
0.14870	0.15117
0.14870	0.17668
0.22521	0.15117
0.09770	0.12566
0.22521	0.04914
0.14870	0.10015
0.12320	0.07465
0.19971	0.25320
0.09770	0.22769
0.22521	0.20219
0.14870	0.17668
0.14870	0.10015
0.12320	0.20219
0.07220	0.07465
0.22521	0.10015
0.14870	0.12566
0.12320	0.07465
0.14870	0.22769
0.14870	0.12566
0.19971	0.27871
0.09770	0.12566
0.22521	0.20219
0.09770	0.07465
0.25071	0.15117
0.07220	0.02363
0.22521	0.17668
0.14870	0.12566
0.12320	0.15117
0.12320	0.15117
0.12320	0.15117
0.04670	0.22769
0.14870	0.07465
0.14870	0.17668
0.12320	0.04914
0.17421	0.15117
0.12320	0.15117
0.22521	0.17668
0.14870	0.20219
0.12320	0.12566
0.12320	0.27871
0.14870	0.15117
0.19971	0.17668
0.17421	0.02363
0.17421	0.07465
0.07220	0.02363
0.22521	0.15117
0.09770	0.07465
0.22521	0.20219
0.07220	0.07465
0.17421	0.25320
0.09770	0.10015
0.22521	0.20219
0.07220	0.12566
0.22521	0.07465
0.09770	0.12566
0.22521	0.15117
0.07220	0.20219
0.19971	0.12566
0.07220	0.15117
0.22521	0.17668
0.07220	0.17668
0.22521	0.15117
0.14870	0.20219
0.09770	0.10015
0.19971	0.15117
0.14870	0.15117
0.12320	0.10015
0.19971	0.15117
0.14870	0.17668
0.09770	0.20219
0.25071	0.25320
0.09770	0.04914
0.14870	0.20219
0.12320	0.12566
0.12320	0.12566
0.14870	0.12566
0.07220	0.07465
0.12320	0.27871
0.07220	0.15117
0.19971	0.22769
0.17421	0.10015
0.17421	0.48277
0.12320	-0.10391
0.09770	-0.25695
0.12320	0.04914
0.07220	-0.41000
0.22521	0.89089
0.27621	0.43176
0.14870	0.17668
0.22521	1.12046
0.07220	0.55929
0.17421	-0.05289
0.07220	-2.47613
-0.08081	-0.43551
0.40372	1.35003
0.19971	0.35523
-0.13181	-0.56305
0.32721	1.35003
0.50573	-0.12942
0.02119	1.52859
-0.59084	2.06425
-0.00431	-3.08831
1.04126	0.55929
0.45472	1.52859
0.04670	-0.35899
0.12320	-4.61878
0.53123	1.19699
-0.41233	1.57960
-3.24301	1.17148
-0.64185	2.85499
2.39285	0.22769
2.92838	0.83988
2.52035	-1.63437
1.06676	-4.10862
-3.80405	-1.20074
-3.49803	-0.97117
0.25071	0.30422
1.93382	6.27303
2.29084	1.70714
2.39285	1.50308
0.19971	-6.22577
-2.83499	-0.07840
-1.22839	1.55410
-0.87136	1.55410
0.42922	2.31933
0.27621	3.59471
-1.35589	2.52339
1.14327	-9.87337
4.68799	0.66132
0.32721	1.91120
-0.94787	3.41616
-0.87136	-5.25647
-0.51434	-3.93007
0.09770	3.62022
1.67880	3.03355
1.27078	1.24800
-0.69285	0.45726
1.16877	2.34484
-1.99343	10.73688
-2.17195	-18.13789
-0.18282	-2.73121
-0.43783	3.11007
1.24527	2.34484
-0.18282	3.87530
-0.18282	-5.58807
1.11776	0.43176
1.29628	0.83988
4.61149	1.29902
0.19971	2.54890
-5.41065	0.04914
-0.51434	0.20219
2.85188	-1.48133
-0.53984	-0.94566
-0.84586	-0.74160
2.54586	-5.97069
2.31634	-0.48652
0.63323	2.75296
-0.23382	2.72745
-0.25932	0.96742
-0.00431	-5.53706
-0.89686	2.29382
-4.67111	3.95182
-2.29945	2.85499
1.04126	-4.74632
1.78081	0.55929
-0.02981	-1.17523
1.42379	1.52859
2.72437	-0.43551
2.64786	-0.25695
-1.50890	0.15117
-2.01894	-0.12942
1.29628	1.70714
0.22521	-0.07840
1.01576	-2.45062
-0.10631	-0.28246
-0.28482	1.22250
-0.08081	-0.25695
-0.41233	-1.81293
-0.56534	4.30893
-0.23382	0.94191
0.25071	0.50828
0.40372	2.06425
0.48022	-1.94047
0.45472	1.12046
0.42922	0.40625
0.40372	-0.63957
-0.00431	0.86539
0.17421	1.32453
0.37822	-2.01699
0.63323	-4.28718
-1.50890	-0.05289
-0.25932	1.12046
0.48022	1.17148
0.83725	1.01843
0.12320	0.15117
0.37822	0.32972
0.45472	-0.07840
1.29628	0.30422
0.58223	0.12566
1.27078	-0.10391
-2.65648	-0.07840
-2.63097	-0.02739
0.60773	0.83988
1.09226	0.71234
-0.25932	-0.33348
-1.12638	-1.35379
0.99026	-0.46102
2.36734	-0.71609
2.54586	1.86019
1.50029	0.32972
-3.06450	2.21730
1.14327	0.66132
-1.81492	0.12566
-2.40146	-4.23616
1.11776	0.61031
1.55129	-0.81812
1.32178	0.40625
0.73524	0.61031
0.07220	0.38074
-0.33583	0.73785
-0.05531	1.68163
-0.20832	0.71234
-0.23382	0.55929
-0.13181	-3.06281
-0.10631	-2.14453
0.02119	0.78886
0.25071	1.50308
0.27621	-1.27726
0.30171	1.47757
-0.02981	-0.02739
-0.00431	-0.23145
0.32721	-1.25176
0.70974	0.81437
0.78624	1.70714
0.04670	1.24800
-0.82036	-3.41992
-0.38683	1.35003
0.63323	1.40105
1.24527	-0.00188
2.16333	0.15117
-1.02437	0.40625
-2.75848	0.10015
0.02119	0.30422
2.62236	0.10015
1.47479	-0.30797
-1.94243	0.12566
-1.20288	0.25320
1.06676	0.81437
1.50029	-0.20594
-0.02981	-1.20074
-1.91693	1.65613
-0.53984	1.24800
1.34728	0.86539
1.04126	-3.72601
0.37822	-2.68019
0.02119	2.80397
-0.48884	2.03874
0.19971	0.81437
0.14870	0.35523
0.53123	-1.78742
-0.61635	2.11527
-0.66735	0.53379
0.45472	-2.96078
0.09770	0.35523
0.68424	2.59991
-0.66735	-0.99668
0.53123	-0.20594
0.53123	2.08976
0.48022	-2.22105
0.53123	-0.69059
0.88825	-0.10391
0.30171	1.42656
-1.33039	1.80917
-0.46334	0.89089
0.04670	0.81437
1.04126	-1.50683
0.91375	-0.10391
0.58223	0.27871
-0.36133	0.04914
-0.74385	-0.58856
1.47479	-0.10391
2.01032	0.25320
-1.35589	0.50828
-4.21208	0.25320
-0.97337	-0.30797
2.16333	0.55929
1.60230	-0.20594
1.75531	2.90601
0.19971	-2.68019
0.04670	2.42136
0.27621	-5.84315
0.14870	-0.25695
-0.20832	2.11527
0.09770	1.42656
-0.41233	1.27351
-0.33583	1.22250
0.27621	0.71234
-0.46334	-7.80725
-0.13181	2.49788
0.32721	-0.92016
0.40372	0.94191
1.52579	1.65613
0.40372	1.29902
-0.48884	0.81437
-0.82036	0.02363
0.32721	0.50828
0.53123	0.40625
0.60773	-2.14453
0.70974	0.12566
-0.61635	0.81437
-0.28482	-1.65988
0.63323	0.66132
0.25071	0.73785
0.12320	0.40625
0.35272	0.53379
0.22521	0.04914
0.02119	0.40625
0.45472	0.53379
-0.20832	-0.15492
-0.51434	-1.86394
-0.23382	0.53379
-1.35589	1.55410
0.12320	1.55410
1.60230	-1.35379
1.04126	-0.15492
0.50573	0.63582
-1.17738	0.78886
0.45472	1.50308
1.19427	-0.81812
1.16877	-0.63957
-0.10631	0.53379
-1.12638	1.01843
0.45472	2.03874
0.12320	0.81437
0.14870	-4.51675
-0.05531	0.38074
0.07220	0.63582
-0.18282	2.03874
-0.41233	0.81437
-0.00431	-2.14453
-0.02981	2.31933
-0.05531	1.06945
1.04126	-1.81293
1.06676	0.12566
0.63323	2.29382
-0.00431	-2.52714
-0.08081	0.81437
-0.20832	1.24800
-0.20832	0.58480
-0.23382	-0.86914
1.01576	1.93671
0.25071	-2.50164
0.58223	1.45206
0.53123	-0.38449
0.04670	0.27871
-0.02981	-1.07320
-1.15188	1.57960
-0.51434	0.10015
1.04126	0.68683
0.65874	0.12566
0.58223	0.35523
0.35272	0.50828
0.04670	0.55929
-1.71292	-0.56305
0.30171	-0.23145
1.62780	-0.10391
0.32721	1.17148
0.45472	0.71234
0.09770	-1.04770
0.02119	0.66132
0.25071	-4.23616
0.22521	2.06425
0.07220	1.27351
0.12320	0.25320
0.78624	-0.35899
1.14327	0.45726
-2.63097	0.17668
-3.60004	0.78886
0.45472	1.68163
1.90832	-2.57816
1.29628	0.76336
0.42922	0.91640
1.21977	-0.92016
0.40372	-0.38449
1.01576	-0.46102
0.48022	-2.14453
0.17421	0.96742
0.48022	1.04394
1.04126	1.40105
-0.74385	0.27871
-2.37596	-1.40480
-1.43240	-0.51203
0.35272	0.96742
0.65874	1.24800
0.99026	-0.63957
0.93925	1.19699
0.73524	0.40625
0.53123	-0.02739
0.45472	-0.18043
0.48022	0.63582
-0.13181	0.17668
-0.25932	0.04914
0.45472	0.53379
-0.18282	-1.27726
-0.56534	-1.37929
-1.81492	0.94191
-0.10631	0.83988
1.34728	0.81437
0.70974	0.55929
0.12320	-0.41000
0.76074	0.61031
0.70974	-0.48652
0.63323	0.50828
0.60773	1.17148
0.09770	-0.94566
-0.15732	0.55929
0.07220	1.47757
-0.82036	0.43176
-0.28482	-0.74160
0.12320	-0.46102
0.09770	0.20219
0.93925	1.37554
-0.23382	1.29902
-0.74385	0.02363
0.73524	0.30422
0.30171	-0.33348
0.40372	-0.61406
1.52579	0.58480
0.81175	0.35523
-0.51434	0.71234
-1.58541	-1.71090
-0.53984	0.12566
1.09226	0.71234
1.44929	-2.42511
-0.41233	1.35003
-0.28482	0.27871
0.22521	-1.68539
0.96476	-1.22625
0.68424	0.30422
0.22521	1.47757
-0.33583	1.50308
-0.02981	0.22769
0.02119	0.89089
-0.05531	0.35523
0.32721	0.17668
0.40372	0.99292
-0.82036	0.32972
0.12320	-2.47613
0.37822	0.15117
-0.99887	0.63582
0.27621	-0.86914
0.70974	-0.18043
0.83725	0.27871
0.68424	2.06425
-0.08081	-0.35899
-0.28482	0.86539
1.16877	1.57960
1.14327	1.63062
-2.04444	-2.39961
-0.59084	0.81437
0.73524	-0.46102
0.65874	-1.22625
1.04126	1.37554
0.14870	0.66132
0.48022	-0.48652
0.07220	0.48277
0.12320	0.32972
-0.15732	1.73265
-2.01894	-1.58336
-0.00431	-1.50683
0.55673	-0.92016
0.93925	1.01843
1.01576	1.22250
1.19427	1.29902
0.55673	-0.79262
-0.99887	0.68683
-0.15732	0.30422
1.14327	-0.48652
-0.05531	-0.35899
-0.38683	-0.23145
-0.64185	0.15117
0.63323	0.73785
-0.43783	0.32972
1.09226	-0.28246
0.53123	1.22250
-0.99887	0.48277
-0.51434	-0.51203
0.76074	-0.58856
1.01576	-0.00188
0.73524	-1.20074
0.55673	0.96742
0.73524	1.88570
-0.18282	0.78886
-0.82036	-0.00188
-0.59084	0.38074
-0.69285	0.10015
0.02119	-0.51203
1.32178	-1.07320
-0.10631	-0.10391
0.48022	1.86019
1.21977	-2.32308
-0.97337	1.27351
-0.31033	0.15117
1.27078	0.94191
-0.33583	-2.52714
-0.41233	-0.20594
-0.02981	1.09496
0.07220	1.17148
0.68424	0.45726
0.88825	-1.09871
1.14327	0.86539
-0.25932	0.73785
-0.33583	0.35523
-0.10631	0.35523
-0.59084	0.15117
0.30171	-1.86394
0.35272	0.50828
0.30171	0.89089
0.25071	1.01843
0.45472	1.19699
-0.08081	-0.41000
-0.41233	0.96742
-0.23382	1.37554
1.14327	-3.06281
-0.25932	0.32972
-0.28482	0.02363
0.19971	0.91640
0.02119	1.35003
0.78624	-1.37929
0.88825	0.22769
0.70974	0.15117
0.60773	0.45726
0.27621	0.07465
1.57679	-0.25695
-3.72755	-0.10391
-1.73842	0.55929
0.63323	0.48277
1.24527	-0.74160
1.50029	0.48277
1.24527	0.20219
0.60773	0.96742
0.42922	-0.02739
-0.23382	-0.35899
-0.31033	-0.66508
-0.25932	1.12046
0.04670	0.45726
-1.17738	0.61031
-0.59084	0.68683
0.83725	-0.33348
0.73524	0.50828
0.53123	-0.41000
0.55673	-0.10391
-0.08081	0.73785
1.24527	0.63582
-0.31033	0.17668
0.09770	0.04914
0.14870	0.25320
0.25071	-0.33348
0.42922	-0.25695
0.14870	-0.00188
-0.38683	1.37554
-0.13181	-1.91496
-0.38683	-0.94566
0.40372	-2.73121
1.11776	1.75816
-0.33583	1.78367
-0.41233	1.68163
0.02119	1.12046
0.86275	0.48277
0.76074	-0.10391
1.19427	-0.30797
-1.61091	-0.51203
-0.25932	0.73785
1.90832	-0.43551
-0.59084	-0.33348
-2.04444	0.76336
-0.36133	0.22769
1.27078	0.12566
1.11776	0.22769
0.60773	-0.02739
0.63323	0.25320
0.22521	0.10015
-0.02981	0.02363
-0.08081	0.02363
-0.23382	0.04914
0.07220	0.07465
0.73524	0.78886
-0.46334	-0.25695
-1.33039	-0.28246
-1.20288	0.91640
0.93925	0.61031
1.04126	0.48277
0.04670	-1.88945
1.14327	0.30422
0.63323	0.96742
-0.15732	1.50308
0.65874	1.22250
0.48022	2.29382
0.19971	0.66132
-0.51434	-6.48085
0.07220	0.91640
-0.10631	0.02363
0.17421	1.12046
-0.05531	0.99292
0.17421	0.81437
0.45472	-0.58856
0.17421	-1.27726
-0.10631	1.45206
-0.28482	1.19699
0.09770	-1.55785
0.14870	0.83988
0.48022	-0.92016
0.91375	0.38074
-1.61091	0.35523
-0.25932	0.61031
0.76074	0.48277
0.70974	-0.05289
0.55673	-0.86914
0.55673	-0.15492
0.78624	0.48277
-1.12638	0.48277
-0.66735	1.14597
1.14327	-0.25695
1.34728	-0.79262
0.68424	0.53379
-1.99343	0.78886
-0.02981	-0.23145
0.25071	-0.81812
0.37822	0.17668
0.86275	-0.07840
0.86275	0.04914
-1.07538	0.04914
-0.33583	-0.12942
0.02119	-0.51203
0.48022	0.63582
0.65874	1.80917
0.37822	0.63582
0.32721	-0.33348
0.37822	-1.04770
1.06676	-0.46102
-0.59084	-0.48652
-2.70748	0.55929
-0.59084	0.96742
1.72980	0.35523
-0.23382	0.10015
-0.33583	-0.15492
1.27078	0.53379
2.34184	1.12046
0.42922	0.04914
0.50573	-0.05289
-0.28482	-2.65468
-0.38683	0.40625
-0.31033	0.61031
0.14870	1.86019
-0.10631	0.25320
-0.08081	-1.14973
0.02119	0.99292
0.32721	-0.71609
-0.41233	-0.18043
-0.20832	0.27871
0.60773	0.20219
0.86275	0.55929
0.53123	-0.07840
-0.28482	0.58480
-0.05531	0.58480
0.73524	-0.15492
0.42922	0.27871
-0.28482	0.76336
-0.28482	0.30422
-0.43783	-0.38449
1.29628	-0.15492
0.63323	-2.19554
-1.76392	-0.15492
0.02119	-0.66508
0.40372	1.60511
0.19971	1.22250
0.91375	1.55410
0.73524	0.58480
0.65874	-0.00188
1.14327	-1.58336
-1.17738	-0.38449
-0.89686	0.96742
0.78624	1.09496
-0.48884	0.76336
-0.66735	0.17668
0.27621	0.32972
1.60230	-0.35899
-0.56534	-0.43551
-0.20832	0.38074
0.19971	-1.37929
0.73524	0.86539
0.68424	0.71234
0.58223	0.78886
-0.28482	0.89089
-0.31033	-0.28246
0.30171	-0.05289
0.27621	0.81437
0.17421	0.07465
0.37822	-0.66508
0.12320	1.73265
-0.31033	-3.80253
0.30171	0.78886
0.58223	0.61031
-0.89686	0.76336
-0.38683	1.24800
-0.82036	1.27351
0.73524	0.15117
1.19427	-0.02739
1.27078	0.48277
0.81175	-0.05289
-0.99887	-1.14973
-0.18282	0.55929
0.37822	-0.35899
-0.23382	0.43176
1.47479	-1.27726
-1.35589	0.30422
-2.83499	-0.18043
-0.08081	-0.12942
2.46935	-0.18043
1.14327	1.40105
0.50573	0.86539
0.40372	0.45726
-0.13181	-0.53754
0.30171	0.10015
-0.66735	0.91640
-0.82036	1.17148
0.40372	-0.69059
0.42922	-1.96597
0.42922	1.40105
0.07220	-0.66508
-0.00431	1.06945
0.14870	1.57960
-0.08081	-0.41000
0.25071	-0.18043
0.55673	1.50308
0.73524	-2.22105
-0.94787	0.71234
0.12320	-3.29238
0.63323	1.35003
0.50573	1.70714
0.50573	1.80917
0.65874	2.29382
-0.51434	-2.37410
-0.89686	-0.51203
0.42922	0.61031
1.80631	0.38074
-0.28482	-0.05289
-1.91693	0.25320
0.22521	0.20219
0.91375	0.07465
0.86275	-0.66508
-0.10631	0.17668
-0.64185	-0.05289
0.48022	-1.48133
1.04126	0.81437
1.44929	1.35003
0.45472	-0.38449
-0.89686	-1.22625
-0.33583	-0.43551
-0.08081	0.91640
0.17421	1.37554
-0.13181	0.99292
0.30171	0.10015
0.30171	-0.81812
0.96476	-0.48652
0.14870	0.25320
-0.61635	-0.61406
-0.59084	0.86539
0.14870	0.04914
0.58223	-0.10391
0.14870	-0.25695
0.50573	0.94191
0.48022	-1.09871
0.48022	0.02363
0.35272	0.71234
0.22521	0.10015
0.32721	1.45206
-1.17738	-1.45582
-0.71835	-0.12942
0.02119	2.01323
1.47479	-1.78742
1.95932	0.17668
-1.12638	1.04394
-1.96793	0.30422
0.40372	0.96742
0.70974	0.02363
0.76074	0.25320
0.70974	-1.32828
0.35272	0.50828
0.22521	0.35523
-0.31033	0.76336
0.70974	0.53379
-0.84586	0.10015
0.50573	-0.18043
0.07220	0.10015
0.09770	-0.20594
0.30171	0.15117
-0.38683	-0.51203
-0.08081	-0.38449
0.60773	0.30422
1.44929	1.17148
0.53123	0.35523
-2.73298	0.32972
-1.10088	1.55410
0.48022	0.61031
0.81175	-1.25176
1.44929	-1.53234
1.37278	2.14077
0.86275	-0.89465
0.32721	0.27871
0.35272	0.66132
-0.18282	0.15117
-0.43783	0.22769
0.17421	0.38074
-0.38683	0.07465
-0.33583	0.25320
-1.10088	0.89089
-0.20832	-1.09871
0.42922	-0.46102
0.65874	0.20219
1.14327	-0.58856
-0.36133	2.16628
-0.64185	-0.51203
0.30171	0.89089
0.32721	-1.88945
0.78624	0.10015
0.55673	0.94191
1.19427	0.66132
0.30171	0.48277
-0.43783	0.38074
-0.56534	-0.48652
-1.55991	0.50828
0.83725	-0.18043
0.96476	-1.22625
0.78624	0.45726
0.40372	0.53379
0.22521	0.78886
0.27621	-2.09351
0.27621	0.73785
-0.76936	-0.02739
-0.56534	-0.02739
-0.08081	1.22250
1.01576	0.71234
-0.25932	-0.23145
-0.43783	0.38074
1.01576	0.63582
-0.25932	-0.66508
-0.20832	-0.15492
0.40372	0.10015
0.37822	0.30422
0.68424	0.50828
0.19971	0.20219
0.93925	0.20219
1.57679	-0.43551
-2.73298	0.96742
-3.47253	-1.63437
0.68424	-0.89465
1.85731	1.12046
1.34728	0.78886
1.04126	1.80917
0.93925	-0.18043
-0.31033	0.17668
0.09770	0.04914
-0.33583	-2.14453
-0.15732	0.99292
0.60773	1.52859
-1.15188	-0.07840
-0.28482	-1.07320
0.27621	0.96742
-0.15732	1.37554
-0.64185	0.02363
0.25071	-1.37929
1.01576	0.02363
0.73524	0.96742
0.42922	-0.94566
-0.02981	-0.33348
-0.08081	0.91640
0.12320	0.07465
0.30171	0.12566
0.12320	0.35523
0.45472	-0.35899
0.19971	0.32972
0.09770	-0.10391
0.32721	1.35003
-2.57997	0.12566
-1.66191	-0.41000
1.34728	0.35523
2.23984	1.12046
1.62780	-0.92016
-0.48884	0.45726
0.48022	-1.37929
1.14327	0.35523
-0.74385	0.07465
-0.87136	0.40625
-0.02981	-0.15492
0.19971	1.24800
0.53123	1.47757
0.45472	-0.76711
-0.23382	-1.20074
-0.23382	0.66132
0.30171	0.30422
0.25071	-0.79262
-0.43783	1.14597
0.02119	0.15117
0.50573	0.35523
0.27621	0.12566
0.93925	0.50828
-0.31033	0.40625
-1.02437	-0.20594
-0.46334	0.38074
-0.13181	0.07465
0.70974	-1.20074
1.29628	1.09496
0.83725	0.40625
0.48022	-0.28246
-0.10631	-0.74160
0.19971	0.71234
0.04670	-0.69059
0.04670	0.22769
-0.46334	0.53379
0.22521	1.35003
1.44929	-0.56305
-1.91693	1.22250
-2.29945	-3.39441
0.25071	1.22250
0.83725	1.27351
0.73524	0.66132
1.11776	0.25320
0.58223	0.91640
0.70974	0.02363
0.60773	-0.18043
0.02119	-0.30797
-0.41233	-0.99668
-0.56534	0.66132
0.32721	-0.61406
-0.33583	-0.07840
-1.07538	0.38074
0.70974	-0.07840
1.98482	0.45726
-0.46334	-0.20594
-1.45790	0.86539
0.91375	-0.33348
1.50029	0.30422
-0.51434	-0.33348
-0.33583	1.04394
0.65874	0.91640
0.35272	0.89089
0.42922	1.55410
0.12320	-2.73121
0.02119	-1.07320
-0.20832	0.58480
-0.13181	0.12566
-0.08081	1.24800
0.22521	1.37554
0.14870	0.71234
-0.00431	-0.46102
0.86275	0.48277
0.63323	-0.25695
-2.80949	-2.06800
-1.20288	0.35523
1.37278	0.27871
1.67880	0.40625
0.73524	0.76336
0.27621	1.42656
0.17421	0.04914
-0.13181	-1.04770
0.50573	0.73785
0.25071	-2.65468
0.19971	1.22250
-0.00431	-0.69059
0.35272	1.27351
-0.10631	1.47757
-1.02437	0.45726
-0.46334	0.17668
0.04670	0.40625
0.22521	0.83988
0.17421	-0.71609
0.53123	-0.58856
0.63323	-0.20594
0.68424	0.27871
1.14327	0.25320
-0.79486	0.66132
-0.08081	0.17668
0.22521	-0.05289
0.50573	-0.25695
0.91375	-1.04770
0.83725	0.96742
-0.89686	0.25320
-0.74385	0.89089
-0.25932	1.06945
-0.53984	0.73785
-0.10631	0.12566
1.27078	-2.42511
1.01576	-0.05289
0.83725	-0.10391
1.21977	0.53379
-1.66191	0.55929
-0.89686	0.89089
1.06676	-0.99668
0.17421	0.32972
-0.87136	1.70714
0.58223	1.19699
1.34728	-0.07840
-0.23382	-0.66508
-0.43783	-2.32308
-0.00431	-0.38449
0.73524	1.17148
0.37822	0.66132
0.09770	1.73265
0.07220	-0.33348
0.09770	0.96742
0.12320	-0.00188
0.17421	0.25320
0.02119	-0.76711
0.02119	0.27871
-1.02437	0.76336
-0.28482	-1.48133
0.88825	0.48277
0.76074	0.25320
0.40372	0.58480
0.09770	0.50828
-0.61635	0.94191
0.04670	-0.56305
1.19427	-0.46102
0.12320	0.43176
0.53123	0.96742
0.30171	-0.23145
0.37822	1.32453
0.37822	-1.94047
-0.02981	0.50828
0.53123	-0.74160
-0.15732	0.96742
0.19971	0.81437
-1.17738	0.86539
-1.20288	-0.05289
0.17421	-0.92016
0.55673	-0.25695
1.24527	0.43176
2.29084	0.10015
-0.82036	0.35523
-1.43240	0.27871
0.07220	0.30422
0.53123	0.25320
1.24527	-1.25176
-0.51434	0.35523
-0.08081	0.91640
0.78624	0.38074
0.48022	-0.63957
0.14870	-1.04770
0.32721	0.86539
0.22521	1.45206
0.04670	1.37554
-0.28482	-1.20074
-0.71835	0.83988
-0.05531	0.83988
-0.02981	0.86539
0.19971	-0.81812
0.70974	-1.58336
0.45472	0.73785
-0.46334	-0.76711
0.58223	0.71234
-0.00431	0.71234
1.34728	0.76336
-0.92237	0.35523
-1.35589	0.91640
0.42922	-0.18043
1.19427	-0.86914
0.93925	0.48277
1.52579	-0.35899
1.34728	0.71234
-2.83499	1.04394
-2.09544	-0.05289
0.45472	-0.00188
0.70974	0.66132
1.27078	0.07465
0.55673	-1.32828
0.60773	0.55929
0.19971	-0.18043
-0.15732	0.20219
-0.15732	1.19699
-0.59084	-0.25695
-0.13181	1.45206
0.53123	-1.17523
-0.02981	0.25320
0.30171	-0.92016
0.32721	0.99292
0.40372	-0.33348
0.55673	0.15117
-0.59084	0.58480
-0.71835	0.83988
-0.00431	0.02363
0.09770	0.35523
0.30171	-1.63437
1.14327	-0.41000
0.88825	1.24800
0.65874	0.71234
-0.89686	0.22769
-0.38683	0.73785
0.68424	0.07465
0.37822	0.22769
0.35272	-0.23145
0.60773	1.57960
-0.28482	-2.19554
-1.30489	-0.86914
-0.51434	0.32972
1.27078	1.22250
0.60773	1.17148
2.18883	-0.61406
-2.45246	0.04914
-3.44703	0.22769
0.50573	0.30422
1.16877	0.20219
1.70430	0.30422
1.60230	0.96742
1.11776	0.50828
0.58223	-1.30277
-0.25932	-2.78222
-0.33583	-0.00188
-0.66735	2.19179
-0.23382	-0.02739
0.22521	1.01843
0.02119	0.96742
0.14870	0.35523
-0.02981	0.68683
0.22521	0.25320
0.55673	-0.74160
0.14870	-0.35899
-0.89686	0.78886
0.02119	-0.23145
0.83725	-0.63957
0.09770	-0.20594
0.30171	1.24800
0.42922	-0.23145
0.02119	-0.28246
0.58223	0.20219
0.45472	1.32453
0.53123	0.35523
0.58223	-1.17523
0.14870	0.38074
-0.28482	0.61031
-0.79486	0.94191
-0.20832	0.38074
0.55673	1.40105
0.27621	0.04914
0.35272	-3.52195
0.12320	-1.17523
0.30171	1.68163
1.85731	1.29902
-1.27939	1.17148
-0.94787	1.12046
-1.71292	0.12566
-1.68742	-0.76711
1.98482	0.76336
1.78081	0.58480
0.60773	-0.92016
0.93925	0.35523
0.78624	-0.41000
0.30171	1.04394
-0.15732	-0.25695
0.17421	-0.25695
0.32721	0.55929
-1.12638	-0.10391
-0.38683	0.61031
0.32721	0.35523
0.37822	0.55929
0.42922	-1.20074
0.30171	-1.53234
-0.28482	1.19699
-0.20832	1.12046
1.24527	1.29902
1.04126	0.96742
0.81175	-0.69059
-3.77855	-1.83844
-1.78942	0.04914
1.29628	1.01843
1.85731	0.94191
1.78081	0.32972
1.47479	0.58480
0.91375	1.06945
-0.56534	-0.18043
-0.43783	-0.25695
0.07220	-0.07840
-0.74385	-0.20594
-0.31033	-0.00188
1.34728	0.53379
-0.64185	0.15117
-0.25932	-1.43031
0.09770	-0.63957
0.14870	1.04394
0.93925	1.27351
0.76074	0.02363
-1.89143	0.86539
-0.87136	-0.46102
1.34728	0.73785
1.14327	-1.02219
-0.28482	0.55929
-0.23382	0.35523
0.65874	0.32972
0.63323	-0.12942
0.35272	-0.86914
0.30171	0.78886
-0.02981	0.12566
0.32721	0.40625
0.27621	-0.69059
0.19971	-1.50683
-0.48884	0.15117
-0.76936	0.55929
-0.28482	1.65613
-0.15732	1.01843
0.60773	-0.10391
0.70974	-1.53234
0.48022	0.61031
0.70974	-0.05289
-0.69285	0.94191
0.25071	0.96742
0.68424	0.32972
-0.74385	0.86539
-0.28482	-1.22625
0.78624	0.32972
1.09226	0.43176
-0.28482	0.07465
-0.18282	-0.69059
0.45472	0.35523
0.19971	0.12566
0.19971	0.43176
0.12320	0.45726
0.02119	0.61031
0.07220	-2.32308
0.22521	-0.25695
0.02119	0.99292
-0.13181	1.27351
0.02119	0.73785
0.07220	-0.25695
0.30171	0.43176
0.04670	0.48277
0.04670	0.25320
0.42922	0.32972
0.32721	-0.53754
0.19971	0.35523
0.53123	-1.88945
0.73524	0.02363
-0.18282	0.50828
-2.06994	0.50828
-0.41233	0.50828
2.13783	0.45726
1.06676	0.17668
-0.99887	0.02363
-0.66735	-0.86914
0.76074	0.50828
0.99026	-0.63957
0.68424	1.19699
0.73524	1.17148
0.48022	-0.15492
0.02119	-1.07320
-0.08081	-1.07320
-1.20288	-0.79262
-1.35589	0.40625
0.02119	2.19179
0.83725	0.48277
0.58223	0.04914
-0.31033	-1.30277
0.50573	1.01843
0.63323	0.40625
0.50573	0.50828
0.35272	0.43176
0.32721	1.70714
0.22521	-1.43031
-0.20832	-0.66508
-0.13181	-2.55265
0.60773	-1.02219
-0.43783	0.25320
0.40372	1.70714
1.09226	1.35003
-0.28482	1.27351
-0.94787	-0.86914
-0.23382	1.22250
-0.38683	-2.83324
0.25071	0.40625
1.16877	-0.71609
1.55129	0.83988
-1.22839	0.89089
-0.10631	0.71234
1.11776	-0.10391
1.19427	0.86539
0.76074	-0.92016
-1.27939	-0.71609
-0.38683	0.53379
-0.61635	0.45726
-0.38683	0.45726
0.86275	0.66132
1.19427	0.04914
0.73524	0.27871
-1.12638	-1.17523
-1.25389	0.25320
0.63323	-0.18043
0.32721	1.40105
1.21977	0.53379
0.42922	0.32972
-0.36133	0.76336
0.48022	-0.20594
0.53123	0.43176
0.40372	-0.76711
0.37822	1.52859
-0.33583	-0.07840
-0.36133	-0.71609
-0.53984	-0.48652
0.60773	-0.23145
1.29628	0.91640
-0.36133	0.50828
-2.52897	0.55929
-0.28482	0.48277
0.70974	0.99292
1.09226	-1.07320
0.99026	1.37554
1.09226	-1.30277
0.37822	-1.27726
0.68424	0.94191
-0.31033	1.27351
-1.12638	0.99292
0.27621	-0.33348
-0.18282	0.89089
-0.51434	0.68683
-0.25932	-0.84363
-0.76936	1.60511
1.75531	-2.09351
0.32721	0.94191
0.96476	0.43176
0.58223	-0.94566
0.19971	0.66132
-0.02981	0.73785
-0.05531	0.50828
0.55673	-0.25695
-0.43783	-0.18043
-0.74385	0.38074
-1.22839	1.06945
0.35272	-0.38449
0.40372	0.32972
-0.46334	-2.83324
0.60773	0.71234
1.34728	1.04394
1.50029	1.14597
1.04126	-1.73640
-1.86593	1.50308
-1.30489	2.37034
0.76074	-0.43551
0.48022	-0.48652
-0.28482	0.53379
0.42922	-1.55785
0.78624	0.78886
1.29628	0.20219
0.40372	0.48277
-0.43783	1.29902
-0.79486	0.30422
0.02119	-0.58856
0.73524	-2.57816
0.73524	0.61031
-1.71292	0.27871
-1.02437	0.86539
0.81175	0.76336
0.42922	-0.00188
0.68424	0.55929
0.27621	1.04394
-0.20832	-1.81293
0.09770	-0.12942
-0.05531	1.04394
-0.20832	0.07465
0.58223	0.04914
0.55673	1.14597
0.55673	-1.78742
-0.08081	0.17668
0.32721	0.20219
-0.15732	0.61031
-1.66191	0.61031
-1.99343	-0.53754
0.63323	0.10015
1.72980	1.29902
1.83181	0.17668
-1.02437	-2.42511
0.02119	-0.02739
0.88825	1.55410
0.48022	1.17148
0.09770	0.43176
-0.08081	-0.12942
0.14870	0.20219
-0.36133	0.22769
-0.51434	-0.43551
-0.25932	-0.20594
0.22521	-0.25695
0.68424	-1.07320
0.25071	0.99292
-0.15732	0.86539
-0.05531	0.94191
1.01576	0.38074
1.01576	-0.61406
-0.99887	0.20219
-0.31033	0.81437
-0.08081	0.30422
0.42922	0.76336
1.16877	-1.53234
0.93925	-2.47613
-0.02981	0.89089
-1.61091	1.12046
-0.46334	0.96742
0.88825	0.32972
0.22521	0.30422
-0.38683	0.38074
0.93925	0.04914
1.24527	-0.46102
0.19971	0.27871
-1.81492	0.43176
0.19971	0.71234
0.63323	-0.58856
0.45472	0.53379
0.37822	-0.66508
0.09770	0.35523
0.04670	0.50828
-0.13181	-1.07320
-0.08081	1.47757
-0.23382	1.14597
0.32721	2.16628
0.50573	-4.08312
0.02119	-2.50164
-0.33583	1.73265
0.09770	0.32972
0.53123	1.12046
0.73524	2.14077
0.25071	0.91640
-0.31033	0.32972
0.55673	-0.18043
0.58223	-0.18043
0.63323	0.04914
-1.02437	0.02363
-1.22839	-2.17003
0.45472	1.12046
0.83725	-1.81293
0.81175	1.42656
0.65874	1.93671
0.35272	0.53379
0.02119	0.15117
-0.38683	0.66132
-0.25932	0.55929
0.32721	0.68683
-0.18282	-1.02219
0.04670	0.40625
0.09770	-0.46102
-0.15732	-0.46102
0.17421	-0.94566
1.14327	0.12566
0.63323	0.71234
-0.05531	1.01843
-1.07538	0.27871
0.45472	0.27871
0.73524	-0.28246
-0.02981	0.40625
0.12320	0.17668
0.27621	0.30422
0.19971	0.68683
1.75531	1.73265
-0.33583	-2.32308
0.14870	0.53379
-1.63641	-0.05289
-0.33583	0.73785
1.65330	0.78886
0.40372	0.61031
-1.61091	0.22769
-0.53984	-0.02739
1.14327	-1.30277
1.09226	1.09496
1.09226	0.55929
0.93925	0.53379
0.02119	-0.33348
-1.02437	0.66132
-0.25932	0.12566
0.40372	-0.00188
-0.15732	-0.97117
-0.13181	2.16628
0.32721	-3.01179
0.30171	-0.48652
-0.10631	1.14597
-0.41233	0.58480
0.48022	0.43176
0.70974	0.61031
-0.41233	1.50308
-0.87136	-0.02739
0.50573	-1.68539
0.73524	-1.71090
0.60773	1.35003
0.55673	1.04394
0.32721	0.35523
0.17421	1.14597
0.07220	0.53379
-0.13181	-0.35899
0.22521	-2.17003
0.30171	1.06945
-0.71835	-0.12942
-0.51434	1.17148
0.02119	-1.17523
0.42922	-0.30797
0.78624	1.14597
0.76074	0.61031
0.09770	0.17668
0.37822	0.63582
-1.04987	-0.71609
-0.99887	0.50828
0.68424	0.20219
1.11776	-0.43551
0.53123	0.96742
-0.28482	0.66132
0.25071	-1.35379
0.53123	-0.28246
0.27621	1.35003
0.60773	0.40625
0.99026	0.58480
-1.27939	-1.35379
-1.12638	0.63582
0.07220	-0.12942
1.34728	1.17148
-0.61635	0.91640
0.37822	0.66132
0.50573	0.43176
0.86275	0.66132
0.63323	0.40625
0.12320	-3.03730
-0.59084	0.17668
-0.08081	0.94191
0.40372	1.01843
0.37822	-0.76711
0.19971	-0.56305
0.22521	0.96742
0.50573	1.09496
-0.25932	1.78367
-0.99887	-1.68539
-0.00431	-0.25695
0.73524	0.86539
0.48022	-0.66508
0.12320	-1.17523
-0.08081	0.83988
0.27621	0.81437
0.50573	1.35003
0.68424	0.99292
0.70974	-1.27726
0.40372	0.32972
-1.35589	0.32972
-1.30489	0.43176
0.68424	-0.18043
0.42922	-1.50683
0.50573	-0.20594
0.60773	0.68683
0.45472	0.15117
0.35272	0.50828
0.53123	0.66132
0.07220	0.40625
-0.94787	-0.23145
-0.69285	-0.84363
0.45472	0.45726
0.17421	0.66132
0.19971	0.25320
0.04670	-1.63437
0.32721	1.14597
0.68424	-0.99668
0.35272	-0.33348
-0.02981	1.35003
0.78624	0.66132
1.44929	0.10015
-1.76392	0.53379
-3.49803	0.58480
0.32721	-0.30797
1.67880	0.50828
1.50029	0.25320
0.78624	0.04914
0.32721	-0.05289
-0.23382	-0.10391
0.27621	0.71234
0.45472	0.68683
0.35272	0.15117
-0.08081	1.65613
0.09770	-1.30277
-0.87136	0.89089
0.17421	-0.86914
0.32721	-3.11382
0.37822	0.94191
-0.18282	1.60511
0.30171	1.52859
0.60773	1.22250
0.50573	-0.05289
0.27621	0.89089
-0.08081	-1.32828
0.07220	-0.63957
0.04670	0.48277
-0.00431	0.78886
0.32721	0.20219
0.68424	-0.07840
-0.69285	-0.25695
-0.02981	-0.38449
0.86275	0.07465
0.48022	0.81437
-0.46334	0.50828
-0.89686	1.27351
-0.64185	-1.50683
0.48022	-0.02739
0.45472	0.35523
0.55673	1.27351
0.88825	-1.83844
0.93925	0.30422
1.34728	0.78886
0.30171	0.30422
-1.27939	0.07465
-0.46334	0.55929
0.48022	1.09496
-0.05531	-2.62918
-0.28482	1.98773
0.40372	-1.96597
0.09770	0.89089
0.17421	0.66132
0.48022	0.58480
0.53123	0.30422
-0.20832	-0.20594
-0.25932	0.81437
0.32721	-0.00188
0.40372	-0.30797
0.30171	-0.74160
0.40372	0.83988
0.45472	-2.01699
0.09770	0.94191
-1.20288	0.53379
-0.05531	0.61031
-0.28482	1.01843
-0.00431	0.63582
0.07220	0.99292
0.58223	-1.04770
1.11776	-0.56305
0.53123	-0.23145
0.48022	0.53379
0.07220	0.71234
0.07220	0.15117
-0.18282	0.22769
-0.00431	0.35523
0.17421	0.45726
0.22521	-1.02219
0.25071	-0.92016
-0.89686	0.20219
-0.38683	2.19179
0.30171	-0.48652
0.93925	0.04914
-0.05531	0.53379
-0.23382	0.91640
1.01576	-0.92016
1.47479	0.35523
-1.96793	0.45726
-1.76392	-0.15492
0.91375	-0.74160
0.78624	0.99292
1.09226	0.76336
0.42922	0.17668
0.53123	-0.97117
0.25071	0.63582
-0.20832	-1.22625
-0.05531	1.52859
-0.18282	1.52859
0.27621	-0.81812
0.27621	-1.04770
0.14870	0.38074
0.12320	0.68683
0.04670	0.32972
-0.02981	-2.80773
0.02119	1.40105
0.22521	0.27871
-0.89686	1.73265
0.32721	-0.66508
0.42922	-0.28246
0.60773	0.66132
0.55673	0.22769
0.53123	0.27871
0.58223	0.25320
0.81175	0.10015
-1.22839	-0.89465
-1.73842	-0.12942
0.48022	0.43176
1.29628	0.25320
0.73524	1.17148
-0.18282	0.89089
0.27621	-1.20074
0.55673	-2.62918
0.58223	1.19699
0.04670	0.86539
-1.07538	0.78886
-0.71835	0.68683
0.25071	0.55929
0.76074	0.73785
0.53123	0.27871
0.19971	0.83988
1.55129	-2.70570
-0.87136	-0.18043
-0.33583	-0.20594
0.27621	0.73785
0.12320	0.68683
0.04670	0.53379
-0.20832	-1.35379
0.42922	-0.18043
0.40372	0.63582
0.65874	0.71234
1.04126	-0.35899
-0.46334	0.99292
-2.29945	-0.02739
-0.23382	-1.14973
0.99026	-1.50683
0.93925	0.81437
0.96476	1.42656
0.96476	0.76336
0.12320	-0.05289
-0.38683	0.17668
-0.41233	0.50828
0.37822	0.35523
0.63323	-1.07320
-0.71835	0.53379
-0.02981	-0.76711
0.14870	-0.79262
0.32721	1.12046
0.45472	1.63062
-0.10631	0.94191
-0.05531	-0.53754
0.12320	0.45726
0.32721	-0.97117
0.30171	0.10015
-0.00431	-0.20594
0.09770	-0.07840
0.58223	1.09496
-0.66735	0.78886
-0.79486	0.15117
0.45472	-0.15492
1.06676	0.27871
0.99026	0.50828
0.27621	0.07465
0.22521	-0.71609
0.17421	0.83988
-0.48884	0.07465
-0.48884	-1.32828
0.30171	-0.07840
0.04670	0.86539
-0.20832	-0.25695
0.02119	0.71234
0.55673	1.45206
0.48022	1.52859
0.27621	-1.20074
0.02119	-1.27726
0.14870	-2.45062
0.09770	1.42656
0.14870	1.47757
-0.02981	1.57960
0.07220	-0.81812
0.70974	0.48277
-0.08081	0.55929
-0.79486	0.43176
-0.15732	-0.33348
0.70974	-0.46102
0.88825	0.30422
0.40372	0.81437
0.25071	-0.10391
0.35272	0.30422
0.40372	-0.30797
-0.10631	0.43176
-0.15732	0.53379
0.17421	-0.76711
-0.69285	-1.48133
-0.43783	-0.63957
0.27621	2.03874
0.40372	1.50308
0.42922	-0.53754
0.70974	0.30422
1.14327	0.45726
0.78624	-1.99148
-1.45790	0.96742
-1.71292	-0.15492
0.63323	1.45206
0.60773	-0.76711
0.68424	-0.05289
0.55673	0.07465
0.63323	0.40625
0.32721	0.76336
0.12320	0.20219
-0.10631	-0.00188
0.17421	0.04914
-0.08081	0.22769
-0.10631	-0.38449
-0.08081	-0.12942
-0.08081	0.17668
0.25071	-0.71609
0.27621	-0.12942
0.32721	0.96742
0.30171	1.01843
0.58223	0.43176
0.37822	-0.86914
-1.10088	-1.20074
-0.66735	2.03874
0.40372	-0.86914
0.78624	0.55929
0.58223	0.73785
0.68424	0.53379
0.30171	1.27351
0.42922	-0.94566
0.48022	0.27871
0.30171	-2.60367
-0.97337	1.17148
-1.89143	0.71234
0.50573	0.43176
0.45472	0.35523
0.91375	0.10015
0.65874	0.12566
0.55673	-0.20594
0.35272	-0.07840
0.50573	-0.71609
0.02119	1.01843
-0.66735	-0.56305
-1.10088	-0.15492
-0.08081	0.20219
0.42922	0.30422
0.53123	0.63582
0.91375	0.53379
0.40372	0.63582
-0.38683	0.40625
-0.15732	-0.71609
0.40372	0.43176
0.12320	0.43176
0.37822	1.45206
0.17421	-1.20074
-0.25932	-0.92016
-0.08081	0.35523
0.04670	-0.71609
0.42922	1.09496
0.35272	1.09496
0.30171	0.27871
0.09770	-0.30797
0.02119	0.50828
0.32721	0.50828
0.42922	-0.89465
1.27078	0.40625
-0.08081	-0.30797
-1.96793	0.30422
-2.93700	0.20219
0.09770	0.40625
1.75531	0.66132
1.52579	-0.81812
1.55129	-0.74160
0.93925	0.45726
0.86275	0.53379
0.12320	0.40625
-0.43783	0.22769
-0.41233	0.63582
0.02119	0.45726
-0.25932	0.07465
0.02119	-1.40480
0.27621	0.66132
0.32721	0.22769
-1.17738	-0.94566
-0.79486	0.40625
0.48022	0.07465
0.60773	1.09496
0.99026	-0.23145
0.22521	0.32972
-0.28482	0.48277
-0.02981	-1.07320
0.35272	-0.66508
0.78624	1.01843
0.68424	0.73785
-0.00431	-1.35379
0.09770	0.15117
0.09770	0.32972
-0.05531	1.09496
0.12320	0.63582
0.04670	0.17668
0.09770	-0.00188
0.45472	0.53379
0.99026	-1.02219
-0.25932	0.43176
-0.74385	0.02363
-0.82036	0.76336
-0.92237	-3.77702
0.55673	2.54890
1.01576	1.88570
0.73524	-0.20594
0.99026	0.48277
0.73524	0.58480
0.04670	0.35523
-0.18282	0.22769
-0.18282	-1.20074
0.25071	0.12566
-0.51434	0.35523
-0.31033	0.22769
0.25071	-0.12942
0.40372	0.30422
0.17421	0.35523
-0.53984	0.32972
0.09770	0.76336
0.45472	-0.25695
0.37822	-0.00188
0.48022	-0.92016
0.53123	-0.05289
0.22521	1.01843
-0.41233	0.55929
-0.94787	0.61031
0.04670	1.12046
0.88825	-0.69059
0.83725	-1.30277
-0.76936	0.02363
-0.79486	1.40105
0.42922	0.50828
1.11776	-0.58856
0.70974	0.58480
0.45472	0.35523
0.25071	0.63582
0.40372	0.43176
-0.20832	0.63582
-0.59084	-0.10391
-0.25932	-0.18043
0.27621	-0.02739
0.50573	0.38074
-0.25932	-0.79262
0.37822	-0.35899
0.78624	-0.33348
-0.43783	0.66132
-1.33039	1.40105
-0.53984	1.14597
0.83725	-1.45582
1.09226	0.55929
1.11776	1.27351
0.60773	-0.81812
0.42922	0.43176
0.27621	0.83988
0.17421	1.14597
0.12320	-0.86914
0.12320	-0.48652
-0.59084	-1.53234
-0.41233	0.94191
-0.51434	0.25320
0.02119	0.86539
0.32721	1.01843
