0.25071	0.25320
0.14870	0.10015
0.12320	0.15117
0.12320	0.15117
0.07220	0.04914
0.22521	0.17668
0.09770	0.07465
0.22521	0.20219
0.09770	0.15117
0.22521	0.12566
0.07220	0.12566
0.12320	0.15117
0.17421	0.20219
0.14870	0.15117
0.12320	0.10015
0.07220	0.07465
0.19971	0.22769
0.12320	0.04914
0.12320	0.25320
0.14870	0.17668
0.14870	0.15117
0.19971	0.25320
0.09770	0.07465
0.14870	0.20219
0.17421	0.10015
0.14870	0.12566
0.09770	0.07465
0.12320	0.10015
0.19971	0.20219
0.02119	0.12566
0.14870	0.15117
0.19971	0.22769
0.19971	0.22769
0.17421	0.15117
0.07220	0.10015
0.14870	0.20219
0.12320	0.02363
0.14870	0.20219
0.07220	0.22769
0.19971	0.12566
0.09770	0.17668
0.12320	0.07465
0.12320	0.17668
0.12320	-0.02739
0.12320	0.15117
0.14870	0.02363
0.22521	0.17668
0.17421	0.07465
0.17421	0.20219
0.09770	0.15117
0.22521	0.25320
0.07220	0.15117
0.19971	0.22769
0.09770	0.12566
0.25071	0.20219
0.12320	0.02363
0.12320	0.17668
0.17421	0.10015
0.09770	0.10015
0.12320	0.22769
0.04670	0.15117
0.17421	0.15117
0.07220	0.17668
0.12320	0.04914
0.22521	0.22769
0.09770	0.10015
0.22521	0.17668
0.14870	0.12566
0.17421	0.22769
0.12320	0.15117
0.09770	0.04914
0.25071	0.22769
0.12320	0.15117
0.04670	0.04914
0.17421	0.15117
0.12320	0.07465
0.07220	-0.02739
0.14870	0.15117
0.19971	0.15117
0.12320	0.15117
0.14870	0.15117
0.14870	0.20219
0.09770	0.22769
0.14870	0.32972
0.14870	0.15117
0.09770	0.10015
0.22521	0.07465
0.14870	0.04914
0.17421	0.02363
0.17421	0.12566
0.14870	0.04914
0.12320	0.15117
0.12320	0.30422
0.04670	0.10015
0.19971	0.12566
0.19971	0.12566
0.09770	0.04914
0.17421	0.17668
0.04670	0.15117
0.17421	0.07465
0.14870	0.25320
0.07220	0.15117
0.22521	0.25320
0.12320	-0.05289
0.12320	0.10015
0.14870	0.15117
0.14870	0.10015
0.19971	0.20219
0.09770	0.10015
0.22521	0.25320
0.07220	0.12566
0.19971	0.25320
0.12320	0.17668
0.19971	0.17668
0.12320	0.12566
0.14870	0.15117
0.14870	0.02363
0.12320	0.10015
0.07220	0.17668
0.25071	0.15117
0.09770	0.12566
0.17421	0.15117
0.12320	0.15117
0.17421	0.15117
0.07220	0.17668
0.09770	0.04914
0.14870	0.12566
0.12320	0.07465
0.27621	0.25320
0.07220	0.04914
0.22521	0.12566
0.09770	0.15117
0.09770	0.10015
0.14870	0.22769
0.12320	0.15117
0.17421	0.15117
0.25071	0.22769
0.07220	0.15117
0.12320	0.17668
0.14870	0.25320
0.12320	0.07465
0.12320	0.25320
0.09770	0.20219
0.12320	0.12566
0.14870	0.20219
0.17421	0.07465
0.19971	0.15117
0.12320	0.04914
0.14870	0.15117
0.19971	0.20219
0.07220	0.12566
0.14870	0.25320
0.14870	0.20219
0.07220	0.07465
0.22521	0.20219
0.12320	0.07465
0.14870	0.12566
0.12320	0.20219
0.09770	0.17668
0.22521	0.15117
0.07220	0.04914
0.25071	0.17668
0.14870	0.04914
0.12320	0.17668
0.12320	0.15117
0.12320	0.12566
0.19971	0.15117
0.07220	0.12566
0.19971	0.17668
0.09770	0.12566
0.19971	0.07465
0.12320	0.15117
0.09770	0.20219
0.17421	0.12566
0.17421	0.12566
0.14870	0.20219
0.22521	0.20219
0.09770	0.04914
0.19971	0.20219
0.09770	0.17668
0.22521	0.22769
0.07220	0.22769
0.14870	0.15117
0.12320	0.04914
0.09770	0.07465
0.17421	0.02363
0.14870	0.04914
0.14870	0.12566
0.12320	0.15117
0.14870	0.22769
0.07220	0.12566
0.22521	0.32972
0.09770	0.17668
0.17421	0.17668
0.17421	0.15117
0.14870	0.17668
0.14870	0.12566
0.14870	0.15117
0.12320	0.15117
0.14870	0.15117
0.14870	0.10015
0.14870	0.20219
0.14870	0.12566
0.19971	0.17668
0.07220	0.07465
0.19971	0.17668
0.07220	0.02363
0.19971	0.15117
0.09770	0.07465
0.14870	0.25320
0.09770	0.17668
0.17421	0.27871
0.09770	0.15117
0.22521	0.17668
0.07220	0.07465
0.22521	0.20219
0.09770	0.02363
0.19971	0.17668
0.02119	0.07465
0.22521	0.25320
0.14870	0.12566
0.07220	0.17668
0.17421	0.15117
0.09770	0.15117
0.19971	0.07465
0.07220	0.07465
0.19971	0.07465
0.09770	0.12566
0.22521	0.22769
0.07220	0.22769
0.12320	0.12566
0.14870	0.15117
0.14870	0.10015
0.14870	0.22769
0.17421	0.02363
0.14870	0.22769
0.14870	0.04914
0.12320	0.17668
0.14870	0.10015
0.09770	0.25320
0.17421	0.15117
0.25071	0.25320
0.17421	0.15117
0.19971	0.20219
0.07220	0.12566
0.22521	0.27871
0.09770	0.10015
0.09770	0.04914
0.07220	-0.02739
0.14870	0.15117
0.12320	0.04914
0.22521	0.25320
0.14870	0.12566
0.14870	0.20219
0.22521	0.12566
0.07220	0.15117
0.14870	0.17668
0.14870	0.27871
0.12320	0.10015
0.19971	0.22769
0.09770	0.12566
0.22521	0.35523
0.07220	0.10015
0.22521	0.10015
0.12320	0.07465
0.22521	0.12566
0.09770	0.15117
0.14870	-0.00188
0.12320	0.12566
0.09770	0.12566
0.22521	0.25320
0.07220	0.10015
0.19971	0.25320
0.14870	0.07465
0.12320	0.12566
0.12320	0.12566
0.19971	0.10015
0.09770	0.12566
0.25071	0.20219
0.17421	0.12566
0.14870	0.25320
0.07220	0.12566
0.19971	0.30422
0.07220	0.07465
0.19971	0.17668
0.09770	0.10015
0.22521	0.17668
0.12320	0.10015
0.09770	0.04914
0.17421	0.20219
0.09770	0.15117
0.12320	0.20219
0.14870	0.30422
0.17421	0.12566
0.22521	0.15117
0.04670	-0.00188
0.12320	0.02363
0.19971	0.04914
0.09770	0.04914
0.14870	0.30422
0.14870	0.22769
0.25071	0.25320
0.17421	0.22769
0.14870	0.15117
0.12320	0.20219
0.09770	0.12566
0.17421	0.12566
0.14870	0.12566
0.12320	-0.00188
0.19971	0.25320
0.07220	0.10015
0.22521	0.22769
0.07220	0.04914
0.19971	0.22769
0.07220	0.04914
0.19971	0.20219
0.09770	0.15117
0.17421	0.10015
0.27621	0.22769
0.07220	0.12566
0.14870	-0.02739
0.12320	0.25320
0.09770	0.25320
0.17421	0.04914
0.25071	0.17668
0.07220	0.15117
0.19971	0.15117
0.09770	0.22769
0.12320	0.15117
0.22521	0.15117
0.14870	0.27871
0.07220	0.12566
0.17421	0.17668
0.09770	0.10015
0.17421	0.02363
0.19971	0.12566
0.04670	0.04914
0.22521	0.10015
0.17421	0.15117
0.07220	0.20219
0.14870	0.17668
0.22521	0.27871
0.09770	0.17668
0.12320	0.15117
0.22521	0.25320
0.19971	0.22769
0.07220	0.02363
0.17421	0.07465
0.07220	0.15117
0.12320	0.10015
0.22521	0.15117
0.17421	0.30422
0.17421	0.15117
0.14870	0.17668
0.22521	0.17668
0.12320	-0.00188
0.12320	0.15117
0.19971	0.17668
0.14870	0.15117
0.07220	0.12566
0.17421	0.25320
0.22521	0.25320
0.07220	0.10015
0.17421	0.15117
0.22521	0.17668
0.09770	0.10015
0.17421	0.12566
0.14870	0.12566
0.14870	0.07465
0.17421	0.25320
0.14870	0.12566
0.19971	0.15117
0.09770	0.22769
0.14870	0.04914
0.12320	0.22769
0.19971	0.12566
0.09770	0.02363
0.09770	0.17668
0.22521	0.15117
0.07220	0.04914
0.22521	0.20219
0.14870	0.15117
0.09770	0.15117
0.14870	0.17668
0.14870	0.22769
0.12320	0.15117
0.12320	0.02363
0.19971	0.10015
0.17421	0.22769
0.09770	0.17668
0.14870	0.15117
0.14870	0.25320
0.09770	0.22769
0.12320	0.07465
0.22521	0.12566
0.14870	0.20219
0.07220	0.07465
0.12320	0.10015
0.07220	0.20219
0.09770	0.17668
0.17421	0.17668
0.17421	0.22769
0.09770	0.22769
0.14870	0.07465
0.17421	0.20219
0.04670	0.07465
0.17421	0.12566
0.14870	0.10015
0.14870	0.17668
0.07220	0.15117
0.14870	0.15117
0.14870	0.30422
0.14870	0.20219
0.14870	0.12566
0.12320	0.07465
0.12320	0.07465
0.12320	0.12566
0.14870	0.10015
0.12320	0.07465
0.14870	0.15117
0.14870	0.30422
0.12320	0.17668
0.19971	0.27871
0.09770	0.17668
0.19971	0.20219
0.09770	0.04914
0.25071	0.10015
0.14870	0.02363
0.19971	0.10015
0.07220	0.12566
0.17421	0.12566
0.02119	0.17668
0.19971	0.17668
0.17421	0.15117
0.14870	0.15117
0.14870	0.15117
0.14870	0.10015
0.14870	0.10015
0.19971	0.15117
0.12320	0.12566
0.12320	0.17668
0.07220	0.20219
0.22521	0.20219
0.09770	0.15117
0.17421	0.15117
0.09770	0.10015
0.14870	0.10015
0.12320	0.15117
0.09770	0.10015
0.19971	0.20219
0.07220	0.10015
0.14870	0.20219
0.17421	0.20219
0.14870	0.17668
0.12320	0.20219
0.14870	0.07465
0.17421	0.04914
0.12320	0.07465
0.17421	0.12566
0.07220	0.12566
0.14870	0.22769
0.14870	0.15117
0.12320	0.30422
0.12320	0.04914
0.19971	0.17668
0.07220	0.10015
0.19971	0.17668
0.09770	0.04914
0.17421	0.25320
0.19971	0.17668
0.17421	0.10015
0.12320	0.22769
0.04670	0.25320
0.19971	0.15117
0.17421	0.17668
0.14870	0.04914
0.19971	0.10015
0.04670	0.12566
0.22521	0.15117
0.17421	0.22769
0.14870	0.02363
0.19971	0.20219
0.12320	0.20219
0.12320	0.20219
0.12320	0.20219
0.09770	0.02363
0.12320	0.10015
0.12320	0.10015
0.14870	0.15117
0.22521	0.20219
0.12320	0.17668
0.12320	0.20219
0.17421	0.22769
0.14870	0.12566
0.19971	0.25320
0.17421	0.10015
0.19971	0.12566
0.07220	0.04914
0.19971	0.22769
0.04670	0.15117
0.19971	0.25320
0.09770	0.07465
0.17421	0.22769
0.14870	0.12566
0.14870	0.12566
0.19971	0.17668
0.14870	0.15117
0.07220	0.10015
0.12320	0.12566
0.19971	0.15117
0.09770	0.12566
0.22521	0.30422
0.12320	0.15117
0.14870	0.17668
0.17421	0.20219
0.07220	0.02363
0.14870	0.22769
0.14870	0.27871
0.09770	-0.07840
0.12320	-0.05289
0.14870	0.10015
0.14870	0.25320
0.22521	0.27871
0.09770	0.25320
0.14870	0.12566
0.25071	0.12566
0.14870	0.02363
0.04670	0.10015
0.22521	0.22769
0.09770	0.10015
0.22521	0.10015
0.09770	0.27871
0.17421	0.25320
0.09770	0.27871
0.12320	0.02363
0.12320	0.12566
0.14870	0.04914
0.22521	0.12566
0.07220	0.12566
0.19971	0.15117
0.14870	0.25320
0.14870	0.15117
0.14870	0.22769
0.17421	0.04914
0.22521	0.15117
0.07220	0.15117
0.12320	0.15117
0.14870	0.04914
0.04670	0.15117
0.22521	0.20219
0.27621	0.10015
0.22521	0.22769
0.12320	0.12566
0.12320	0.17668
0.04670	0.04914
0.22521	0.22769
0.17421	0.07465
0.19971	0.15117
0.19971	0.07465
0.09770	0.25320
0.09770	0.15117
0.19971	0.15117
0.04670	0.10015
0.22521	0.20219
0.09770	0.02363
0.19971	0.17668
0.04670	0.12566
0.19971	0.04914
0.12320	0.07465
0.19971	0.15117
0.12320	0.17668
0.12320	0.15117
0.17421	0.30422
0.14870	0.22769
0.14870	0.17668
0.09770	0.04914
0.25071	0.15117
0.04670	0.02363
0.19971	0.20219
0.12320	0.15117
0.14870	0.17668
0.14870	0.17668
0.14870	0.07465
0.19971	0.02363
0.07220	0.45726
0.19971	0.12566
0.09770	-0.00188
0.14870	0.32972
0.12320	0.32972
0.17421	-0.97117
0.14870	0.40625
0.14870	0.45726
0.17421	0.15117
0.12320	0.55929
0.17421	0.25320
0.07220	-0.05289
0.27621	0.02363
0.12320	0.63582
0.17421	-0.15492
-0.00431	-0.46102
0.14870	-0.56305
0.02119	1.14597
0.25071	0.20219
0.22521	0.43176
0.22521	1.73265
0.17421	-1.09871
0.04670	0.02363
0.19971	-1.48133
0.07220	-1.12422
0.22521	0.25320
0.02119	3.08456
0.22521	0.35523
0.09770	-1.91496
-0.25932	0.71234
-0.31033	0.96742
0.50573	1.24800
0.53123	1.01843
0.53123	-1.71090
0.32721	-2.80773
0.25071	0.76336
0.68424	1.45206
0.04670	1.86019
-2.04444	-0.66508
-0.18282	2.16628
0.76074	0.50828
1.24527	-4.13413
0.96476	1.52859
0.55673	-0.41000
-0.08081	-1.32828
-0.25932	-2.50164
0.88825	3.16108
-1.61091	3.31413
-2.52897	-3.49644
2.11233	0.50828
-0.74385	0.68683
1.19427	2.14077
0.45472	-0.15492
1.90832	1.47757
2.52035	2.24281
2.87738	-8.44494
-3.34502	-2.14453
-5.38515	3.28862
0.70974	3.82429
2.21434	3.33964
2.11233	-0.89465
0.73524	2.49788
-1.35589	-8.85307
-4.56910	2.08976
0.45472	5.35475
2.54586	-4.56776
2.97938	-3.95558
3.51492	6.01795
-3.80405	0.83988
-2.98800	-2.29757
0.32721	1.80917
2.08683	0.48277
0.53123	-1.48133
-1.02437	-0.12942
0.96476	0.12566
-2.50347	0.78886
0.53123	3.92632
2.72437	-3.34339
0.81175	-6.88897
2.03582	3.36515
0.32721	-0.66508
-1.86593	3.59471
0.09770	4.56401
-1.68742	-5.56257
1.24527	1.35003
-1.53441	2.62542
-9.66943	-0.18043
1.83181	-0.35899
4.91751	0.02363
4.40748	-1.17523
3.10689	0.07465
2.46935	1.68163
0.58223	-1.88945
-0.51434	0.43176
-0.28482	0.30422
-0.61635	-0.66508
-0.84586	-3.87905
-4.54360	1.75816
-3.70204	-0.10391
0.86275	1.14597
1.57679	4.23241
0.88825	-2.80773
3.54042	2.54890
-2.35046	1.75816
-5.02813	1.14597
1.57679	-1.65988
2.54586	1.70714
2.29084	2.82948
1.65330	-3.47093
0.30171	0.07465
0.07220	-2.01699
0.35272	-0.74160
-0.33583	0.32972
0.35272	2.34484
-0.13181	-3.80253
-0.25932	0.81437
0.04670	1.45206
-0.00431	1.88570
-1.48340	1.65613
-0.76936	0.53379
0.60773	1.04394
0.63323	0.32972
-0.02981	-0.05289
-0.31033	-0.12942
0.48022	0.25320
0.48022	-0.05289
0.60773	-0.66508
0.40372	1.45206
0.07220	0.89089
-0.13181	-3.24136
0.02119	-0.92016
0.17421	0.02363
0.55673	1.29902
0.12320	0.12566
0.14870	0.22769
-0.23382	1.75816
0.25071	0.50828
1.27078	3.03355
-0.64185	-10.97021
-1.50890	0.78886
-1.53441	3.23761
-2.06994	1.24800
2.77537	-0.63957
2.21434	1.24800
2.08683	0.66132
1.29628	0.12566
0.78624	-0.12942
-0.08081	-0.56305
-0.94787	-0.07840
-3.80405	-0.74160
-0.10631	0.71234
0.81175	-0.38449
0.88825	-1.32828
0.50573	0.20219
0.35272	2.75296
0.02119	-0.28246
0.22521	0.10015
-0.00431	-2.14453
0.19971	-5.66460
-0.10631	4.10487
0.50573	-0.56305
0.12320	3.26312
-0.76936	2.90601
-0.05531	1.47757
0.37822	-0.46102
0.60773	0.55929
0.68424	1.35003
0.83725	0.61031
1.37278	-4.03210
0.58223	0.35523
-0.25932	-0.07840
-2.55447	-1.58336
-1.66191	-0.30797
2.87738	-0.28246
1.65330	-2.09351
-1.55991	-0.97117
-3.24301	1.42656
0.37822	1.55410
1.32178	2.47238
2.44385	1.83468
1.85731	0.94191
1.04126	0.66132
0.22521	0.17668
0.17421	-0.05289
-0.20832	-3.75152
-0.25932	-1.55785
-0.66735	-1.81293
-1.15188	2.37034
-1.63641	2.39585
-0.10631	-0.97117
0.65874	1.06945
0.42922	0.02363
0.14870	0.99292
0.17421	0.76336
0.50573	-2.70570
0.81175	2.29382
0.86275	-2.98628
0.63323	2.01323
-0.20832	-2.34859
0.14870	-0.23145
0.09770	3.92632
-0.10631	0.58480
-0.10631	-1.65988
0.91375	1.22250
0.55673	0.61031
-0.71835	0.12566
-1.61091	0.35523
0.63323	1.04394
0.83725	-0.18043
0.53123	-2.55265
1.29628	2.01323
0.22521	-0.25695
-1.35589	0.17668
1.32178	-0.97117
0.04670	0.99292
-4.31408	-4.74632
2.69887	1.45206
0.53123	1.73265
-1.81492	1.70714
2.90288	1.55410
2.36734	-0.35899
1.72980	-0.56305
1.27078	1.83468
0.22521	-2.42511
-1.10088	-0.74160
-1.20288	1.98773
-1.22839	-3.01179
-0.23382	3.16108
0.22521	3.03355
-0.28482	-2.96078
0.14870	0.91640
0.09770	-0.66508
0.32721	0.99292
0.30171	3.56921
0.40372	-5.69010
-0.02981	-4.97589
-0.08081	2.52339
0.42922	2.47238
0.86275	2.29382
0.50573	-2.29757
0.37822	0.96742
2.36734	1.55410
0.48022	0.99292
-6.71124	-1.78742
-0.66735	-0.00188
2.97938	1.14597
1.65330	0.71234
-0.15732	-0.86914
2.72437	-0.76711
-0.33583	1.57960
-0.08081	-0.74160
-1.45790	-0.43551
-0.87136	0.76336
0.96476	0.91640
0.65874	-0.43551
0.50573	0.76336
-0.05531	0.78886
0.22521	0.61031
0.65874	1.14597
-0.61635	-0.18043
-0.15732	-2.85874
-2.37596	-0.25695
-0.71835	0.83988
-0.51434	1.17148
-1.55991	0.73785
1.95932	3.41616
2.29084	-1.17523
1.78081	0.50828
1.39828	-4.05761
1.01576	2.08976
0.19971	0.22769
-0.25932	2.54890
-0.61635	-2.37410
-1.73842	1.60511
-0.46334	-0.92016
0.22521	0.45726
0.12320	0.63582
0.40372	0.10015
0.32721	0.55929
0.14870	-4.41472
0.93925	-2.22105
-0.84586	1.68163
-0.25932	1.60511
0.50573	1.86019
1.16877	2.24281
0.81175	-0.07840
0.73524	1.04394
-0.36133	-3.77702
-3.37052	-1.58336
-0.10631	1.37554
0.91375	0.25320
0.42922	0.73785
2.62236	0.83988
-0.74385	0.48277
-1.89143	-0.07840
0.99026	0.32972
1.44929	0.35523
0.12320	0.10015
-0.23382	-1.02219
-0.23382	-0.66508
-0.02981	-0.79262
0.19971	0.55929
0.48022	1.12046
0.78624	0.58480
0.37822	2.16628
-2.60547	-1.30277
-0.15732	1.06945
0.63323	2.98253
0.65874	-2.93527
0.27621	1.86019
0.53123	0.71234
0.50573	-5.51155
-0.46334	1.22250
0.73524	0.76336
1.21977	1.60511
-0.28482	2.19179
-1.86593	-2.14453
-0.10631	0.15117
0.88825	-0.28246
1.21977	0.12566
1.44929	2.08976
1.72980	0.86539
1.09226	-2.09351
-0.84586	0.38074
-4.87512	1.24800
-1.66191	0.43176
0.09770	0.25320
1.95932	-0.10391
2.67337	0.48277
2.29084	0.61031
2.54586	0.76336
-0.41233	-1.22625
-4.74761	-0.69059
-1.38139	1.27351
1.37278	0.53379
1.04126	1.06945
0.55673	1.29902
0.30171	-0.81812
0.17421	-1.25176
0.02119	1.57960
-0.00431	0.76336
-0.48884	-0.30797
-0.10631	0.71234
0.04670	0.48277
0.07220	-2.93527
0.32721	1.96222
1.27078	0.78886
0.45472	-5.30749
-0.25932	1.29902
-0.79486	2.62542
-0.71835	1.42656
0.70974	0.71234
0.55673	0.66132
-1.38139	1.32453
0.81175	-1.43031
2.59686	-1.99148
2.87738	1.17148
-1.91693	-0.00188
-1.63641	-2.90976
0.93925	1.06945
1.01576	-1.68539
0.48022	0.38074
-0.41233	1.65613
-0.05531	0.07465
-1.20288	-0.63957
0.53123	1.91120
0.02119	0.83988
-5.23214	0.48277
1.24527	-0.15492
2.31634	-0.07840
1.80631	0.40625
1.60230	-0.25695
1.44929	-0.38449
-0.53984	0.12566
-0.25932	0.25320
0.09770	0.40625
0.37822	-1.45582
-1.15188	-0.23145
-1.45790	1.17148
0.60773	1.57960
0.63323	-1.37929
0.14870	0.07465
0.17421	0.32972
0.07220	0.20219
0.22521	1.29902
0.63323	1.09496
1.52579	-0.30797
0.22521	-2.78222
0.07220	1.06945
-1.10088	1.27351
-0.84586	1.12046
1.60230	-1.53234
-1.35589	-0.10391
-1.40690	0.66132
1.14327	-0.10391
1.27078	0.73785
1.67880	3.03355
1.09226	-3.80253
0.35272	-1.78742
0.83725	0.50828
-0.61635	1.75816
-2.63097	1.52859
0.93925	0.35523
0.32721	0.71234
-0.92237	0.76336
-0.31033	1.04394
0.70974	0.10015
0.73524	-3.59847
0.63323	1.09496
0.40372	0.68683
0.12320	0.22769
0.30171	0.81437
0.12320	0.61031
0.88825	0.20219
-0.61635	-0.63957
-0.56534	2.37034
-2.01894	0.32972
0.07220	0.27871
1.14327	-3.95558
-0.48884	0.55929
1.39828	-0.81812
1.95932	0.48277
1.62780	1.27351
-0.71835	1.32453
0.35272	0.63582
0.93925	0.30422
-1.30489	0.15117
-1.43240	-3.13933
0.73524	1.75816
0.17421	0.38074
-0.10631	-0.99668
-0.15732	2.08976
0.50573	0.20219
0.30171	0.07465
0.17421	1.37554
0.25071	-0.51203
0.25071	-0.07840
-1.04987	0.53379
-1.38139	1.57960
0.50573	-0.56305
0.91375	0.15117
0.02119	-0.25695
0.76074	0.15117
1.29628	0.32972
1.50029	0.58480
-0.56534	-1.73640
-0.18282	1.17148
0.91375	-1.12422
-1.04987	1.73265
-3.37052	-0.35899
1.32178	0.66132
2.34184	1.04394
-0.94787	-0.35899
-0.02981	0.78886
1.14327	1.37554
0.96476	1.22250
0.83725	-0.46102
0.19971	0.63582
0.12320	-0.05289
-0.31033	1.22250
-0.20832	0.17668
-0.28482	-3.54745
-1.20288	-1.83844
-0.10631	1.17148
0.32721	0.53379
0.70974	0.96742
1.06676	2.19179
0.12320	1.12046
0.09770	-0.97117
0.73524	-3.49644
1.34728	0.89089
-2.91149	2.16628
-1.81492	-1.45582
0.76074	1.19699
1.75531	1.42656
-0.02981	-0.30797
0.83725	1.06945
1.04126	-0.89465
1.14327	0.99292
0.83725	-0.46102
1.01576	0.66132
1.65330	1.04394
-3.29402	0.27871
-4.54360	-3.13933
0.68424	1.88570
0.78624	0.99292
0.81175	-1.32828
0.22521	1.01843
0.40372	1.12046
0.19971	0.63582
0.14870	-0.38449
0.53123	-0.12942
0.65874	-1.04770
-0.05531	0.12566
-0.87136	0.53379
-0.69285	0.50828
0.63323	0.48277
0.65874	0.02363
0.32721	0.83988
1.19427	0.40625
-0.99887	0.45726
0.25071	0.07465
1.11776	-2.47613
-0.74385	2.01323
-0.05531	1.93671
0.30171	-1.32828
1.04126	-2.22105
0.81175	0.89089
0.50573	1.52859
0.53123	1.01843
1.44929	2.01323
-1.76392	0.43176
-5.15564	-0.00188
0.35272	0.55929
1.50029	-0.15492
0.88825	-0.84363
1.37278	-0.86914
1.19427	1.78367
0.45472	1.35003
-0.76936	-1.27726
-1.71292	0.48277
0.12320	-2.04250
0.86275	0.78886
0.76074	1.01843
0.32721	-0.35899
0.35272	0.61031
0.02119	0.96742
-0.84586	0.63582
0.53123	-0.38449
0.48022	-1.48133
0.25071	2.34484
-0.18282	-1.12422
0.48022	-1.14973
-0.46334	-0.38449
0.14870	0.30422
0.50573	0.66132
-0.20832	-0.00188
0.30171	0.30422
1.16877	0.30422
0.53123	0.10015
-1.10088	-1.27726
-0.56534	0.30422
1.04126	1.37554
0.40372	1.57960
0.30171	0.96742
0.65874	-0.43551
-0.15732	1.73265
-0.18282	-3.75152
-0.20832	0.55929
-0.94787	-3.34339
0.40372	0.61031
0.40372	-0.41000
0.58223	2.14077
0.25071	3.51819
0.22521	-1.83844
0.65874	-0.18043
-0.66735	3.11007
1.57679	-4.82284
-0.61635	1.24800
-0.10631	0.81437
0.73524	-1.55785
0.02119	-0.66508
-0.48884	1.96222
-0.05531	0.07465
1.19427	-1.07320
0.04670	0.89089
0.63323	1.55410
0.81175	1.32453
-0.94787	0.04914
-0.64185	0.17668
0.63323	-0.71609
0.63323	0.07465
0.04670	0.12566
0.07220	1.22250
-0.08081	-1.88945
0.07220	-0.94566
1.14327	-0.05289
0.83725	1.75816
-3.26852	-0.58856
-2.65648	-0.28246
1.60230	1.86019
1.72980	-0.05289
1.32178	-1.40480
1.47479	-1.94047
-0.28482	1.01843
-0.13181	1.17148
0.17421	1.19699
0.30171	1.01843
-0.43783	0.48277
-0.53984	0.66132
0.22521	0.40625
0.63323	-0.35899
0.45472	-1.07320
-1.07538	0.15117
-0.15732	0.45726
0.58223	-0.56305
0.37822	0.71234
0.73524	0.04914
1.14327	-2.01699
2.80087	0.96742
-3.88056	0.15117
-2.17195	-0.12942
-0.18282	0.25320
1.34728	1.24800
1.62780	0.35523
0.83725	0.71234
1.09226	-0.71609
1.29628	0.45726
1.14327	0.48277
-0.94787	0.89089
-1.50890	1.29902
0.22521	-1.12422
-0.46334	-4.44022
-0.28482	1.09496
-0.20832	2.16628
0.40372	0.10015
0.37822	-3.24136
0.27621	-0.07840
0.27621	1.57960
0.32721	1.37554
0.12320	0.35523
0.02119	1.63062
-0.41233	-2.09351
0.32721	-1.02219
0.58223	0.15117
1.24527	0.86539
-0.33583	0.81437
0.73524	0.53379
-1.71292	1.35003
-0.59084	-0.23145
1.34728	-0.18043
0.68424	0.07465
0.86275	-0.35899
0.53123	0.04914
-0.31033	-0.46102
1.09226	-0.15492
0.30171	-0.25695
-0.41233	0.25320
-0.84586	-0.33348
-0.23382	0.40625
-0.82036	0.25320
0.83725	1.14597
0.53123	0.55929
0.48022	0.43176
0.07220	0.73785
-0.02981	-1.76191
0.04670	-0.74160
-0.00431	1.14597
0.14870	0.86539
0.32721	0.43176
0.65874	0.02363
0.88825	-1.83844
-0.36133	0.48277
-2.42696	1.12046
0.60773	2.93151
1.67880	-4.89936
0.50573	1.47757
-0.92237	0.86539
0.22521	0.66132
1.24527	-0.76711
1.32178	-0.84363
-0.74385	0.66132
-0.66735	-0.05289
0.32721	1.75816
0.55673	0.35523
0.48022	1.09496
0.19971	0.17668
-0.00431	0.40625
0.14870	-0.02739
0.12320	-0.51203
-0.64185	-0.58856
-1.04987	1.50308
1.06676	-3.34339
-1.10088	0.50828
-0.43783	-1.99148
0.86275	0.68683
1.09226	1.32453
0.81175	2.14077
0.55673	1.29902
0.17421	-1.07320
0.37822	0.68683
0.53123	-2.83324
0.32721	1.09496
-1.91693	1.14597
-2.32496	0.50828
0.04670	0.94191
1.55129	-2.06800
1.16877	1.65613
0.96476	-0.33348
0.73524	0.73785
0.53123	1.12046
0.22521	0.04914
-0.25932	1.12046
-1.22839	-1.37929
-0.10631	-1.53234
-0.08081	-0.05289
0.09770	1.01843
0.37822	1.01843
0.30171	0.61031
0.60773	0.83988
0.09770	-0.94566
0.37822	0.96742
-0.36133	0.30422
-0.38683	0.53379
0.45472	0.12566
0.50573	0.12566
0.42922	-0.53754
0.81175	0.15117
0.81175	0.10015
-1.20288	0.12566
-0.18282	-0.41000
-0.61635	0.66132
0.91375	0.94191
1.09226	-0.02739
0.68424	-0.02739
0.70974	0.78886
-0.87136	-1.99148
-0.89686	-0.86914
0.93925	1.63062
0.83725	1.42656
0.40372	0.12566
-1.30489	0.43176
-0.41233	-1.50683
0.93925	-0.00188
1.11776	0.22769
-0.56534	2.11527
-1.10088	-1.81293
0.91375	0.45726
0.53123	1.29902
-0.02981	-0.02739
0.27621	0.22769
0.12320	0.48277
-0.02981	-0.41000
-0.18282	-1.30277
-0.08081	1.22250
0.17421	-1.60887
0.40372	-0.15492
0.53123	0.78886
0.07220	0.86539
-0.43783	0.43176
0.14870	0.83988
0.22521	1.37554
0.19971	-1.83844
0.63323	-1.63437
-0.79486	-1.17523
-0.36133	2.21730
1.01576	1.47757
0.32721	1.29902
0.25071	1.24800
0.93925	-0.20594
-0.20832	0.68683
-0.61635	0.12566
0.60773	-1.32828
0.17421	-1.37929
0.17421	0.38074
0.12320	1.40105
0.14870	-0.61406
0.17421	-0.79262
-0.20832	-0.38449
0.58223	0.58480
-0.15732	0.50828
-0.00431	0.02363
-0.02981	-0.25695
-0.18282	0.91640
-1.15188	1.32453
0.91375	-2.11902
0.48022	0.07465
0.58223	-1.14973
1.06676	0.91640
1.72980	1.27351
0.55673	0.30422
-2.65648	0.71234
-0.94787	1.14597
1.24527	-1.65988
0.73524	0.04914
0.42922	-0.48652
0.35272	1.80917
0.32721	-2.39961
-0.05531	0.20219
-0.64185	2.42136
-0.08081	-2.57816
0.09770	1.04394
0.58223	0.81437
0.35272	1.37554
0.40372	-0.79262
-0.79486	0.17668
-0.53984	0.27871
0.35272	-0.15492
0.68424	-0.97117
0.60773	0.96742
0.22521	-0.66508
0.42922	0.50828
-0.36133	1.12046
-0.92237	-1.20074
0.45472	0.30422
0.04670	-0.43551
0.17421	0.86539
0.40372	1.55410
0.96476	-1.17523
0.83725	-0.63957
-0.66735	0.04914
-0.69285	1.22250
0.32721	0.55929
0.68424	0.55929
0.40372	0.35523
0.27621	0.43176
0.27621	-0.18043
0.17421	-0.43551
-0.00431	-0.30797
-0.08081	0.07465
0.50573	-0.41000
0.12320	-0.71609
-2.06994	0.35523
-2.42696	-0.05289
1.24527	1.73265
2.13783	0.55929
1.14327	-0.28246
-0.20832	-0.69059
-0.23382	1.45206
0.83725	1.19699
0.88825	-1.71090
0.30171	0.99292
0.25071	0.81437
-0.18282	0.43176
0.02119	0.35523
-0.13181	0.38074
-0.10631	0.45726
-0.00431	-0.07840
0.07220	-0.81812
0.14870	-0.86914
-0.15732	-0.89465
-0.94787	0.63582
-0.13181	0.45726
0.93925	1.24800
0.86275	0.35523
0.68424	-3.16484
0.30171	-0.35899
-0.18282	2.54890
1.01576	-0.18043
-1.53441	2.21730
0.04670	-0.81812
1.62780	-0.23145
0.35272	0.04914
-1.12638	1.14597
0.25071	0.22769
1.09226	-1.12422
0.96476	-0.33348
0.63323	0.89089
0.02119	-0.12942
-0.10631	-0.86914
-0.84586	1.14597
-0.46334	-0.02739
0.40372	-0.02739
0.25071	0.40625
0.30171	0.91640
0.17421	0.10015
0.27621	0.10015
0.22521	-0.35899
0.25071	0.15117
0.25071	0.40625
-0.23382	0.04914
-0.66735	1.09496
0.19971	-0.25695
0.65874	-0.25695
0.58223	0.71234
0.40372	1.06945
0.32721	-0.46102
0.19971	0.40625
0.32721	0.76336
0.32721	-1.78742
-0.20832	0.17668
-0.71835	-1.48133
-0.31033	1.60511
0.17421	0.99292
0.50573	0.55929
0.88825	-0.58856
0.83725	1.22250
-0.41233	0.27871
-1.40690	-0.92016
0.55673	-0.81812
0.60773	1.35003
0.63323	1.01843
0.30171	0.58480
-0.18282	0.17668
0.96476	0.30422
0.14870	0.22769
0.07220	-0.18043
0.48022	0.66132
-1.12638	-0.41000
-1.89143	-1.50683
0.63323	-0.05289
1.60230	-0.41000
1.21977	-0.23145
1.01576	1.24800
0.48022	0.68683
-1.25389	0.76336
-0.59084	1.83468
0.37822	-2.06800
0.40372	0.96742
0.65874	-0.76711
-0.31033	-0.15492
-0.76936	0.12566
0.58223	0.38074
0.58223	-0.10391
-0.02981	0.48277
0.19971	2.16628
-0.31033	0.76336
0.48022	-2.55265
0.68424	-1.35379
0.63323	1.45206
-1.22839	1.27351
-0.74385	1.01843
-0.25932	-2.42511
0.93925	-0.18043
1.04126	0.83988
0.93925	-0.58856
1.11776	2.11527
1.32178	0.17668
-0.76936	-0.97117
-1.96793	1.50308
0.58223	0.58480
0.30171	-0.30797
0.19971	0.07465
0.55673	0.71234
0.70974	-0.53754
-0.18282	0.71234
-0.97337	1.22250
-0.66735	-1.27726
-0.23382	2.21730
0.55673	-3.64948
0.65874	-0.48652
0.35272	-0.30797
1.16877	1.17148
0.78624	2.03874
0.48022	-0.66508
0.35272	0.73785
-0.10631	0.40625
-0.51434	-0.30797
-0.84586	-0.23145
-0.56534	0.40625
0.50573	0.35523
0.88825	2.24281
0.09770	-1.09871
0.04670	0.38074
0.48022	0.12566
0.40372	-0.02739
-0.00431	0.30422
-0.05531	0.02363
0.37822	-0.41000
0.27621	1.12046
0.17421	-0.89465
0.35272	0.25320
0.09770	0.76336
0.02119	-0.66508
0.55673	-1.78742
-0.33583	1.45206
-0.89686	1.86019
-0.13181	-0.38449
-0.08081	0.94191
1.88281	0.91640
1.29628	0.86539
-0.92237	-0.20594
1.29628	-2.55265
-0.76936	0.50828
-0.10631	0.35523
0.76074	1.32453
0.37822	0.10015
0.35272	0.40625
0.30171	-0.94566
0.17421	-1.20074
0.45472	-0.02739
-0.74385	0.48277
-0.89686	0.43176
-0.61635	0.30422
0.17421	1.32453
0.53123	-0.53754
1.14327	-2.37410
0.65874	1.04394
0.86275	2.14077
-0.76936	-0.66508
-0.51434	0.32972
0.45472	0.63582
0.68424	-1.37929
0.35272	2.34484
0.45472	-0.00188
0.22521	-3.03730
0.04670	1.27351
0.02119	1.27351
-0.38683	0.86539
-0.43783	0.76336
0.63323	-0.28246
0.27621	0.76336
0.48022	-1.50683
0.91375	0.25320
-1.48340	-1.76191
-0.99887	0.35523
-0.31033	0.99292
0.60773	1.04394
1.72980	-0.74160
1.34728	0.07465
0.86275	1.24800
0.58223	-0.66508
0.53123	-1.81293
-0.13181	1.35003
-1.22839	1.06945
-0.69285	0.20219
-0.36133	0.10015
0.25071	1.24800
0.48022	0.81437
0.55673	0.50828
0.91375	-1.94047
-0.99887	0.99292
0.12320	-0.35899
-0.15732	-2.09351
0.37822	0.35523
0.70974	0.63582
0.78624	1.01843
-0.59084	0.22769
-0.74385	-0.51203
0.78624	-0.43551
0.91375	0.66132
0.04670	1.01843
0.25071	0.63582
0.42922	-0.48652
0.22521	-0.89465
0.25071	-3.39441
0.02119	0.35523
-0.08081	2.24281
-0.10631	1.78367
-0.10631	-0.23145
0.32721	0.78886
0.27621	1.24800
-0.43783	0.81437
-1.27939	-0.28246
0.09770	-2.96078
0.53123	0.68683
0.55673	0.10015
0.68424	-0.18043
0.76074	0.53379
0.55673	-0.05289
0.76074	0.38074
-1.17738	0.50828
-0.89686	0.20219
0.53123	0.38074
1.04126	0.55929
0.91375	-0.89465
1.47479	-0.05289
-1.30489	1.42656
-3.39602	-0.30797
0.30171	0.27871
1.21977	-0.76711
1.29628	1.06945
1.11776	0.40625
0.02119	0.50828
-0.08081	-0.05289
0.42922	0.50828
0.22521	0.78886
-0.05531	-1.40480
-0.08081	-1.20074
-0.08081	-0.05289
-0.00431	1.93671
-0.00431	2.01323
0.32721	-1.22625
-0.31033	-0.23145
-0.33583	-2.83324
-0.59084	1.24800
-0.02981	1.73265
1.11776	1.42656
1.50029	0.86539
0.25071	0.71234
0.30171	0.55929
0.81175	-0.92016
0.42922	-0.18043
-0.66735	-0.00188
0.35272	-0.53754
-0.48884	0.35523
-0.10631	-0.46102
-0.08081	-0.81812
0.45472	0.15117
0.30171	1.19699
0.12320	-0.28246
-0.18282	1.19699
-0.31033	0.32972
0.93925	-1.07320
0.50573	-0.28246
-0.94787	0.73785
-0.15732	1.01843
0.42922	0.20219
0.76074	1.01843
0.42922	0.58480
0.27621	-0.25695
0.55673	-2.09351
0.48022	-0.86914
0.17421	1.40105
0.12320	0.63582
-0.71835	0.78886
-0.92237	0.50828
0.12320	-1.99148
0.30171	0.66132
0.55673	0.04914
0.53123	0.89089
0.07220	1.09496
0.19971	-1.91496
0.35272	0.15117
-0.02981	0.81437
0.63323	0.58480
-0.99887	0.78886
-0.64185	0.40625
0.19971	0.38074
1.24527	1.57960
0.96476	-3.16484
0.48022	-0.63957
-0.00431	0.50828
0.27621	0.89089
-0.00431	0.48277
0.02119	0.12566
-0.00431	0.86539
0.17421	0.30422
-0.08081	0.48277
-1.73842	-0.66508
0.07220	-0.86914
0.63323	0.83988
0.76074	0.25320
0.96476	0.43176
0.68424	0.81437
1.60230	-0.02739
-1.68742	-1.37929
-1.71292	0.38074
0.42922	0.78886
1.11776	-0.53754
1.24527	0.96742
0.83725	0.32972
0.25071	1.32453
-1.50890	1.42656
-0.25932	-4.13413
0.65874	-0.35899
0.81175	0.58480
0.53123	1.27351
0.25071	0.78886
0.35272	-0.53754
-0.51434	-0.05289
-1.10088	1.17148
0.07220	0.55929
0.37822	0.45726
0.37822	0.32972
0.42922	-0.48652
0.30171	-0.00188
0.40372	-0.10391
0.22521	-0.76711
0.17421	0.04914
0.12320	0.68683
0.04670	0.32972
0.12320	0.17668
0.12320	0.20219
0.04670	0.25320
0.30171	0.17668
0.07220	0.78886
0.17421	0.25320
0.25071	0.30422
0.50573	-0.53754
0.60773	-1.04770
-0.48884	-0.53754
0.02119	0.86539
-1.04987	1.52859
-0.15732	1.78367
0.73524	0.10015
0.22521	-2.09351
0.91375	0.58480
0.25071	0.38074
0.22521	0.78886
0.99026	-0.30797
1.24527	0.91640
-1.12638	-0.00188
-0.97337	-2.55265
0.35272	0.94191
0.42922	0.53379
0.12320	0.91640
0.07220	0.50828
-0.05531	-0.61406
-0.08081	-0.28246
-0.13181	0.35523
0.73524	-1.43031
-0.36133	0.20219
0.12320	1.22250
0.02119	1.17148
0.53123	0.73785
0.78624	0.66132
0.53123	0.71234
0.53123	0.71234
0.12320	-2.34859
-1.48340	-1.07320
-1.38139	0.89089
-0.36133	0.25320
1.27078	1.93671
1.65330	2.14077
0.83725	-5.05241
0.78624	-0.56305
0.22521	0.78886
0.02119	1.37554
-0.02981	1.14597
-0.56534	0.27871
-0.64185	-1.04770
-0.20832	0.55929
0.09770	0.53379
0.22521	0.22769
0.37822	-0.18043
0.22521	-0.38449
-0.05531	-0.43551
-0.15732	-0.35899
0.35272	-0.02739
0.37822	0.83988
0.45472	0.99292
0.50573	0.76336
0.27621	-1.99148
0.65874	0.78886
0.14870	-0.15492
-1.35589	1.45206
-1.15188	1.04394
-0.74385	0.35523
1.70430	-0.48652
1.19427	0.71234
-0.69285	-2.04250
0.93925	0.58480
1.29628	1.22250
0.09770	1.01843
0.22521	-0.84363
-0.08081	0.12566
-0.25932	0.35523
-0.02981	-0.28246
0.22521	-0.05289
0.19971	1.14597
-0.38683	-0.84363
-0.99887	0.15117
-0.23382	0.25320
0.12320	0.17668
0.37822	0.78886
0.53123	-0.51203
0.53123	0.66132
0.53123	1.29902
0.45472	-1.20074
0.19971	-1.37929
0.32721	-2.06800
-0.15732	1.50308
-0.02981	1.63062
0.25071	-1.73640
0.25071	1.65613
0.25071	0.96742
-0.20832	0.96742
-0.13181	0.17668
0.22521	0.12566
0.07220	-0.12942
0.17421	0.25320
0.45472	-0.07840
0.40372	-1.43031
0.02119	-0.35899
-0.08081	1.60511
-1.25389	0.20219
-0.53984	0.10015
1.06676	0.45726
1.29628	-1.78742
0.55673	0.12566
0.32721	0.99292
0.37822	1.45206
0.04670	0.35523
-0.00431	1.06945
-1.45790	-1.63437
0.70974	0.55929
0.55673	-0.63957
0.25071	0.17668
0.32721	1.14597
-0.48884	0.68683
-0.15732	-1.02219
0.63323	1.42656
0.91375	-0.56305
-0.23382	-0.25695
-0.69285	-0.12942
0.32721	1.14597
0.68424	0.35523
-0.59084	-0.84363
0.22521	-0.43551
0.65874	0.45726
0.14870	1.12046
0.04670	-1.68539
1.01576	0.99292
-0.28482	0.76336
-0.31033	0.53379
0.55673	-0.74160
-0.71835	0.30422
0.27621	0.45726
0.60773	0.45726
0.58223	0.55929
0.27621	0.25320
0.17421	0.45726
0.04670	0.04914
-0.10631	-0.97117
-0.10631	-0.05289
0.32721	0.99292
-0.41233	1.29902
-0.51434	-0.53754
0.40372	-0.05289
0.65874	0.32972
0.22521	-1.53234
0.19971	-0.86914
0.25071	2.01323
0.07220	1.55410
0.37822	0.76336
0.27621	-0.33348
-0.00431	0.45726
0.02119	0.22769
0.48022	-0.25695
0.58223	-0.51203
0.60773	-0.12942
-1.30489	0.38074
-1.53441	-0.46102
-0.36133	0.43176
1.88281	0.40625
1.57679	0.71234
-0.18282	0.25320
-0.69285	-0.12942
0.45472	0.48277
1.04126	-0.48652
0.96476	0.07465
0.58223	-1.83844
-0.48884	1.68163
-1.10088	1.40105
-0.13181	0.38074
0.50573	-0.12942
0.22521	0.71234
0.07220	0.15117
0.07220	0.02363
-0.05531	0.12566
0.02119	0.53379
0.30171	0.94191
0.22521	-1.30277
0.32721	-0.86914
0.42922	0.25320
0.32721	0.61031
-0.15732	0.66132
-0.05531	0.04914
0.53123	0.48277
0.27621	-0.25695
0.30171	1.24800
0.30171	0.15117
-0.56534	-0.46102
0.45472	1.06945
1.14327	-2.32308
-1.15188	0.91640
-0.05531	0.78886
0.65874	0.61031
0.55673	0.86539
0.37822	-0.15492
0.55673	0.53379
-0.38683	-0.66508
-0.59084	0.73785
0.40372	-0.51203
0.37822	0.45726
0.48022	0.40625
0.30171	0.27871
-0.28482	0.25320
-0.79486	0.35523
-0.28482	0.35523
0.50573	0.45726
0.65874	-0.38449
0.40372	-0.05289
0.37822	-2.27207
0.19971	-0.00188
0.27621	0.32972
0.12320	1.60511
-0.28482	1.52859
-0.05531	0.55929
0.14870	-0.05289
0.40372	-0.00188
-0.13181	0.48277
0.02119	0.17668
0.35272	-0.20594
0.30171	-0.05289
0.40372	0.61031
-0.00431	-1.27726
0.02119	0.22769
0.02119	-1.27726
0.04670	0.48277
0.22521	0.89089
0.30171	1.52859
0.40372	0.71234
0.09770	-1.68539
-0.02981	0.94191
0.22521	0.30422
0.14870	-0.15492
0.17421	1.12046
-0.25932	0.91640
0.04670	-1.12422
0.37822	-0.07840
0.58223	0.66132
-0.23382	0.22769
-0.25932	-0.86914
0.53123	0.02363
0.78624	0.10015
-0.87136	0.07465
-0.23382	0.96742
0.45472	-0.35899
0.60773	-2.22105
0.58223	1.78367
0.53123	2.11527
0.45472	-0.69059
-0.13181	0.63582
-0.79486	-1.37929
0.12320	0.12566
0.19971	1.55410
0.60773	0.32972
-0.05531	1.93671
-0.59084	-2.98628
0.55673	0.25320
-0.05531	0.43176
0.32721	0.25320
0.73524	0.43176
-0.43783	0.45726
-0.20832	-0.28246
0.73524	0.43176
0.17421	-3.44542
0.14870	1.06945
0.50573	0.96742
0.58223	0.76336
-0.10631	0.71234
-0.25932	0.71234
0.40372	-0.05289
-0.71835	0.20219
-0.43783	-0.28246
0.78624	-0.18043
0.63323	-0.66508
0.32721	0.91640
-0.02981	0.02363
0.02119	0.55929
0.07220	1.32453
0.30171	-1.07320
0.48022	-1.96597
1.01576	1.65613
-0.74385	-0.10391
-1.76392	0.30422
-0.31033	0.53379
0.93925	0.91640
0.83725	1.75816
0.78624	-1.83844
0.42922	-1.68539
0.35272	-0.79262
0.22521	1.47757
0.17421	1.06945
-0.05531	1.06945
-0.13181	0.50828
0.09770	0.76336
0.02119	0.30422
-0.33583	0.12566
0.04670	-0.05289
0.37822	-0.48652
0.73524	-1.35379
-0.38683	-0.41000
-0.69285	0.66132
0.60773	0.81437
0.76074	1.37554
1.14327	-0.33348
0.55673	-0.53754
-0.31033	0.78886
-0.74385	0.86539
-0.25932	-0.33348
0.40372	0.10015
0.42922	-0.76711
0.58223	0.66132
0.40372	0.12566
0.04670	0.63582
-0.00431	0.96742
0.37822	0.45726
0.30171	-1.02219
-1.02437	-0.23145
-0.97337	0.20219
0.50573	0.25320
0.63323	-0.81812
0.45472	1.27351
-0.00431	-0.92016
0.40372	-0.02739
0.37822	0.10015
0.45472	-0.46102
0.37822	1.75816
0.17421	1.63062
0.27621	-0.74160
-0.84586	0.76336
-1.02437	-2.78222
0.32721	1.24800
0.14870	-0.00188
0.68424	0.76336
0.81175	-0.76711
0.55673	1.40105
0.37822	0.22769
0.42922	0.20219
0.32721	0.71234
0.50573	-0.02739
-0.28482	0.20219
-1.86593	-0.02739
-1.76392	0.04914
1.42379	0.12566
0.70974	-0.15492
0.60773	0.02363
0.58223	0.22769
0.12320	-0.53754
-0.20832	0.10015
0.32721	0.38074
0.93925	0.66132
-0.08081	0.48277
-0.18282	0.94191
0.35272	0.55929
0.22521	-1.27726
-0.20832	1.09496
0.17421	0.61031
0.32721	-0.86914
-0.51434	0.50828
-0.41233	-0.15492
0.60773	-0.23145
0.32721	1.68163
0.63323	-1.12422
0.14870	-1.60887
0.19971	-0.05289
-0.46334	1.24800
0.19971	1.14597
0.32721	0.25320
0.63323	0.27871
0.60773	0.66132
-0.25932	-0.10391
-1.33039	-0.66508
-0.48884	0.66132
1.04126	0.35523
0.86275	-0.02739
0.73524	0.27871
0.45472	0.12566
0.32721	1.68163
0.12320	-1.27726
0.32721	-3.57296
0.22521	0.78886
0.09770	2.08976
-0.59084	1.96222
-1.86593	1.57960
-0.33583	0.25320
1.55129	-0.25695
1.04126	0.15117
-0.36133	0.27871
-0.08081	-0.23145
0.25071	-0.12942
0.78624	0.32972
0.60773	-1.35379
0.48022	0.45726
-0.15732	0.20219
-0.02981	0.10015
0.27621	0.68683
0.19971	-0.20594
0.17421	0.27871
0.07220	0.12566
0.09770	0.25320
0.22521	0.53379
-0.10631	0.53379
0.09770	0.43176
0.19971	1.24800
0.19971	1.55410
-0.43783	-4.38921
0.53123	-2.14453
-0.53984	1.55410
-0.31033	1.75816
0.93925	1.17148
0.68424	0.83988
0.73524	0.43176
0.55673	0.73785
0.22521	0.15117
0.37822	-0.28246
0.02119	-1.30277
0.14870	1.29902
-0.36133	0.25320
-0.53984	-0.30797
0.27621	-0.05289
0.37822	0.02363
0.50573	0.81437
-0.20832	0.15117
-0.20832	1.24800
0.37822	-0.66508
0.32721	-0.61406
-0.36133	-0.05289
0.09770	-0.05289
0.42922	0.38074
0.37822	-1.07320
0.50573	0.71234
0.09770	1.27351
0.14870	1.98773
-0.13181	1.37554
0.50573	-1.40480
0.22521	-0.97117
0.37822	-0.92016
-0.59084	0.45726
-0.33583	0.68683
0.07220	0.43176
0.19971	0.91640
0.63323	-0.25695
1.19427	-0.18043
0.12320	-0.05289
-0.87136	0.66132
-1.66191	0.76336
0.50573	-0.43551
0.32721	-0.41000
0.32721	0.04914
1.16877	0.63582
0.55673	0.04914
0.40372	0.55929
0.12320	0.43176
-0.10631	0.78886
-0.51434	1.09496
0.09770	-1.96597
0.32721	-2.96078
0.40372	0.81437
0.35272	1.27351
-0.13181	0.50828
-0.08081	1.17148
-0.20832	0.66132
-0.38683	-0.56305
0.45472	-0.23145
0.17421	1.14597
0.32721	0.76336
0.50573	0.32972
0.30171	-0.35899
0.09770	0.10015
0.14870	0.20219
0.02119	-0.20594
0.25071	0.53379
0.30171	-1.37929
0.45472	0.04914
0.14870	0.10015
0.35272	1.14597
-0.89686	0.17668
-0.71835	-1.17523
-0.02981	0.25320
0.60773	-0.51203
1.24527	0.32972
0.30171	0.53379
0.17421	1.47757
0.58223	0.63582
-0.25932	0.76336
-0.64185	-0.15492
-0.46334	0.40625
0.25071	-0.63957
0.78624	-0.02739
0.73524	1.19699
0.30171	-2.70570
0.22521	1.04394
0.30171	-2.04250
0.17421	0.76336
-0.23382	0.89089
-0.36133	0.81437
0.14870	1.22250
0.17421	0.55929
0.19971	-1.20074
0.27621	-2.42511
-0.36133	2.42136
0.04670	1.78367
0.53123	0.96742
0.63323	-1.27726
0.58223	0.45726
-0.33583	-0.25695
-0.41233	0.12566
0.37822	-0.46102
0.37822	0.35523
0.30171	-0.07840
0.40372	-0.10391
0.30171	1.12046
-0.10631	0.89089
-0.15732	0.43176
0.50573	0.25320
0.45472	0.17668
-0.71835	0.02363
-0.48884	-0.05289
0.58223	-0.05289
0.35272	-0.20594
0.48022	0.15117
0.19971	0.53379
0.14870	-0.86914
-0.18282	-0.35899
-0.00431	0.30422
0.40372	-0.20594
0.32721	1.50308
0.58223	-1.48133
0.14870	0.17668
-0.69285	0.83988
0.14870	1.12046
0.50573	0.63582
-0.25932	0.15117
-0.08081	0.94191
0.25071	-1.02219
0.76074	1.22250
0.88825	-2.17003
1.06676	-0.63957
-1.22839	0.55929
-0.99887	0.86539
0.09770	0.71234
0.37822	0.55929
0.63323	-0.10391
-0.20832	0.66132
-0.25932	0.25320
0.68424	-0.35899
0.48022	0.35523
0.27621	0.32972
0.27621	-0.53754
0.58223	0.20219
-0.05531	0.15117
-1.66191	0.78886
-0.71835	-0.48652
0.70974	-1.88945
0.93925	-0.05289
0.73524	0.94191
0.48022	1.09496
0.32721	0.50828
0.37822	1.12046
0.09770	0.71234
-0.51434	0.53379
-0.43783	-2.14453
-0.53984	-0.99668
0.35272	1.14597
0.73524	0.63582
0.53123	1.27351
0.42922	0.04914
0.32721	0.25320
0.14870	0.15117
-0.25932	0.17668
-0.18282	0.20219
0.32721	0.25320
0.27621	-0.12942
0.32721	-0.07840
-0.00431	-0.28246
0.02119	0.86539
-0.00431	0.12566
0.14870	-1.86394
-0.08081	0.50828
0.60773	0.68683
0.76074	1.12046
0.17421	1.68163
-0.74385	0.27871
-0.20832	-2.62918
0.42922	-0.79262
0.53123	0.53379
0.83725	0.20219
0.81175	1.45206
-0.25932	1.47757
-1.30489	0.45726
-0.53984	-0.41000
0.32721	0.22769
0.63323	-1.09871
0.32721	-0.38449
0.53123	-0.00188
0.60773	0.81437
0.63323	0.10015
0.53123	-0.84363
-0.48884	1.27351
-1.50890	-1.02219
-1.96793	0.43176
0.60773	-0.69059
1.37278	0.63582
1.27078	2.01323
0.76074	-0.15492
0.48022	0.20219
0.27621	0.22769
0.04670	0.27871
0.07220	-0.02739
-0.28482	-0.07840
-0.38683	-0.05289
-0.31033	0.40625
0.22521	-0.66508
0.27621	1.45206
0.17421	-1.20074
0.22521	-0.07840
0.04670	0.25320
0.19971	-0.76711
0.22521	0.43176
0.27621	0.61031
0.53123	0.35523
0.68424	-0.12942
-0.08081	1.22250
-0.94787	-0.69059
-0.00431	0.68683
0.40372	1.17148
0.93925	-0.33348
0.48022	-2.39961
-0.31033	0.83988
-0.66735	1.19699
0.19971	1.29902
0.73524	0.94191
0.81175	-0.89465
0.30171	0.58480
0.17421	0.40625
0.09770	-0.00188
-0.25932	-0.23145
-0.59084	-0.43551
-0.13181	-0.05289
0.37822	0.43176
0.78624	-0.15492
-0.13181	0.15117
-0.13181	0.07465
0.30171	1.19699
0.04670	-1.27726
0.37822	0.25320
0.30171	0.17668
0.35272	-0.05289
0.09770	-0.20594
-0.46334	0.86539
-0.10631	2.01323
0.42922	0.35523
0.53123	-0.18043
0.30171	-0.46102
0.12320	-0.35899
0.09770	0.55929
0.09770	0.76336
0.17421	0.20219
0.17421	-0.28246
0.48022	0.22769
0.07220	-0.02739
-0.38683	0.04914
-0.51434	-0.89465
0.14870	2.77847
0.58223	-2.14453
0.35272	-0.66508
-0.64185	0.55929
0.04670	0.53379
0.96476	0.68683
1.14327	0.63582
0.70974	0.30422
-0.56534	0.25320
0.32721	0.50828
0.27621	0.20219
-0.08081	-1.48133
0.19971	1.19699
0.42922	0.17668
0.19971	-0.51203
-0.71835	0.91640
-0.74385	-1.07320
0.53123	0.38074
-0.00431	-1.99148
0.25071	1.98773
0.58223	-0.94566
0.48022	0.99292
0.27621	-0.41000
-0.33583	1.09496
-0.56534	-0.89465
0.42922	1.73265
1.06676	1.22250
0.32721	0.83988
-0.48884	-0.48652
0.45472	0.76336
0.45472	-0.66508
0.83725	-1.65988
-0.46334	-0.89465
-0.18282	-0.10391
-0.05531	1.42656
0.30171	1.35003
-0.82036	0.55929
-0.36133	1.27351
0.73524	-0.81812
0.73524	-0.66508
0.50573	0.20219
0.45472	0.61031
0.53123	0.43176
0.32721	0.35523
-1.38139	0.66132
-0.33583	-0.81812
0.73524	0.40625
0.32721	-0.25695
0.32721	1.04394
0.09770	-0.02739
-0.10631	0.78886
0.48022	-1.07320
0.68424	0.81437
0.76074	0.71234
-0.08081	0.99292
-1.35589	-1.07320
-1.84042	-0.30797
0.65874	0.35523
1.11776	-0.84363
1.27078	1.29902
0.73524	0.04914
0.07220	0.20219
0.07220	-0.41000
0.37822	0.99292
-0.38683	-1.04770
-0.23382	-0.61406
-0.13181	-0.46102
0.25071	1.09496
0.22521	1.01843
0.32721	-1.37929
0.40372	1.35003
-0.31033	0.71234
-0.13181	0.12566
0.35272	0.91640
0.09770	-0.63957
0.30171	-0.23145
0.48022	0.58480
0.22521	-0.28246
0.19971	-0.58856
0.22521	0.25320
0.17421	1.12046
0.02119	-1.48133
-0.00431	-0.63957
-0.05531	1.24800
0.19971	0.99292
0.12320	0.17668
0.02119	0.66132
0.04670	-0.58856
0.12320	0.22769
-0.05531	-3.19035
0.50573	2.24281
0.32721	2.06425
0.50573	1.65613
-0.08081	0.78886
-0.08081	-2.04250
0.30171	1.24800
0.73524	-0.02739
-0.36133	0.07465
-1.73842	-1.32828
