0.22521	0.30422
0.22521	0.22769
0.22521	0.25320
0.12320	0.07465
0.14870	0.20219
0.14870	0.12566
0.14870	0.07465
0.14870	0.12566
0.07220	0.15117
0.14870	0.15117
0.14870	0.17668
0.22521	0.30422
0.22521	0.10015
0.14870	0.10015
0.09770	0.07465
0.04670	0.15117
0.14870	0.22769
0.22521	0.12566
0.12320	0.07465
0.14870	0.15117
0.09770	0.07465
0.07220	0.17668
0.14870	0.10015
0.12320	0.22769
0.19971	0.15117
0.07220	0.04914
0.12320	0.10015
0.14870	0.25320
0.22521	0.17668
0.12320	0.15117
0.14870	0.07465
0.12320	0.17668
0.17421	0.27871
0.19971	0.15117
0.12320	0.07465
0.07220	0.04914
0.22521	0.22769
0.22521	0.15117
0.09770	0.04914
0.12320	0.10015
0.14870	0.25320
0.14870	0.17668
0.17421	0.15117
0.14870	0.15117
0.22521	0.15117
0.14870	0.15117
0.04670	0.02363
0.12320	0.10015
0.19971	0.17668
0.14870	0.15117
0.17421	0.07465
0.09770	0.15117
0.22521	0.22769
0.14870	0.30422
0.14870	0.15117
0.04670	0.04914
0.14870	0.12566
0.19971	0.10015
0.19971	0.17668
0.17421	0.25320
0.12320	0.15117
0.17421	0.10015
0.09770	0.12566
0.14870	0.22769
0.14870	0.20219
0.19971	0.12566
0.17421	0.15117
0.14870	0.07465
0.07220	0.07465
0.12320	0.17668
0.22521	0.12566
0.22521	0.25320
0.14870	0.15117
0.09770	0.12566
0.17421	0.10015
0.22521	0.15117
0.14870	0.15117
0.07220	0.07465
0.09770	0.15117
0.19971	0.22769
0.14870	0.20219
0.07220	0.07465
0.09770	0.07465
0.12320	0.10015
0.12320	0.15117
0.22521	0.15117
0.22521	0.17668
0.12320	0.15117
0.12320	0.15117
0.14870	0.12566
0.09770	0.15117
0.07220	0.17668
0.19971	0.25320
0.22521	0.22769
0.22521	0.10015
0.14870	0.17668
0.12320	-0.02739
0.07220	0.17668
0.07220	0.10015
0.12320	0.27871
0.14870	0.15117
0.22521	0.17668
0.22521	0.17668
0.17421	0.17668
0.12320	0.07465
0.14870	0.10015
0.07220	0.02363
0.07220	0.15117
0.09770	0.15117
0.12320	0.22769
0.17421	0.20219
0.14870	0.17668
0.22521	0.17668
0.14870	0.17668
0.17421	0.04914
0.07220	0.04914
0.12320	0.07465
0.19971	0.15117
0.22521	0.25320
0.14870	0.17668
0.14870	0.07465
0.07220	0.15117
0.07220	0.12566
0.09770	0.07465
0.14870	0.12566
0.19971	0.10015
0.17421	0.25320
0.12320	0.10015
0.14870	0.17668
0.09770	0.07465
0.12320	0.15117
0.14870	0.17668
0.14870	0.17668
0.22521	0.17668
0.14870	0.17668
0.14870	0.12566
0.09770	0.07465
0.12320	0.12566
0.14870	0.12566
0.22521	0.25320
0.22521	0.17668
0.17421	0.15117
0.17421	0.12566
0.12320	0.17668
0.12320	0.17668
0.14870	0.10015
0.12320	0.10015
0.12320	0.15117
0.19971	0.22769
0.14870	0.12566
0.09770	0.04914
0.22521	0.17668
0.17421	0.15117
0.09770	0.17668
0.14870	0.17668
0.22521	0.04914
0.14870	0.15117
0.12320	0.10015
0.22521	0.25320
0.14870	0.15117
0.14870	0.22769
0.25071	0.17668
0.14870	0.17668
0.07220	0.04914
0.14870	0.15117
0.22521	0.27871
0.22521	0.04914
0.12320	0.12566
0.09770	0.17668
0.12320	0.17668
0.19971	0.12566
0.14870	0.20219
0.09770	0.15117
0.17421	0.07465
0.19971	0.20219
0.17421	0.25320
0.09770	0.02363
0.12320	0.10015
0.19971	0.20219
0.22521	0.22769
0.12320	0.15117
0.09770	0.04914
0.17421	0.02363
0.17421	0.22769
0.19971	0.30422
0.14870	0.04914
0.07220	0.04914
0.12320	0.17668
0.17421	0.20219
0.17421	0.22769
0.12320	0.15117
0.07220	0.10015
0.17421	0.12566
0.22521	0.15117
0.22521	0.15117
0.12320	0.07465
0.07220	0.12566
0.09770	0.02363
0.12320	0.15117
0.22521	0.15117
0.17421	0.22769
0.17421	0.30422
0.17421	0.17668
0.17421	0.10015
0.09770	0.10015
0.12320	0.04914
0.12320	0.15117
0.14870	0.17668
0.12320	0.27871
0.22521	0.12566
0.14870	0.12566
0.09770	0.22769
0.17421	0.15117
0.17421	0.15117
0.22521	0.15117
0.17421	0.02363
0.09770	0.15117
0.14870	0.17668
0.22521	0.20219
0.14870	0.22769
0.14870	0.15117
0.12320	0.07465
0.14870	0.12566
0.14870	0.17668
0.19971	0.12566
0.17421	0.17668
0.14870	0.15117
0.12320	0.10015
0.09770	0.12566
0.17421	0.20219
0.19971	0.17668
0.17421	0.17668
0.07220	0.17668
0.07220	0.20219
0.14870	0.17668
0.12320	0.17668
0.19971	0.15117
0.12320	0.07465
0.12320	0.10015
0.07220	0.12566
0.14870	0.17668
0.14870	0.22769
0.19971	0.12566
0.22521	0.15117
0.19971	0.15117
0.14870	0.15117
0.12320	0.10015
0.17421	-0.05289
0.07220	0.20219
0.14870	0.30422
0.19971	0.20219
0.22521	0.10015
0.12320	0.10015
0.19971	0.20219
0.19971	0.17668
0.14870	0.17668
0.14870	0.10015
0.07220	0.04914
0.14870	0.12566
0.22521	0.12566
0.14870	0.17668
0.14870	0.15117
0.12320	0.20219
0.14870	0.10015
0.22521	0.22769
0.17421	0.25320
0.12320	0.07465
0.12320	0.02363
0.04670	0.02363
0.09770	0.22769
0.12320	0.22769
0.12320	0.27871
0.19971	0.22769
0.19971	0.15117
0.17421	0.15117
0.17421	0.10015
0.07220	0.07465
0.07220	0.10015
0.17421	0.15117
0.14870	0.22769
0.22521	0.22769
0.22521	0.17668
0.19971	0.25320
0.17421	0.20219
0.12320	0.15117
0.09770	-0.00188
0.07220	0.10015
0.14870	-0.02739
0.12320	0.20219
0.19971	0.22769
0.12320	0.22769
0.09770	-0.00188
0.09770	0.12566
0.19971	0.22769
0.14870	0.25320
0.17421	0.12566
0.12320	0.07465
0.07220	0.12566
0.14870	0.10015
0.22521	0.25320
0.22521	0.17668
0.14870	0.07465
0.12320	0.12566
0.14870	0.20219
0.19971	0.20219
0.19971	0.10015
0.12320	0.07465
0.07220	0.04914
0.07220	0.15117
0.14870	0.22769
0.25071	0.25320
0.14870	0.20219
0.07220	0.10015
0.14870	0.07465
0.17421	0.10015
0.22521	0.17668
0.14870	0.25320
0.22521	0.04914
0.14870	0.15117
0.17421	0.10015
0.12320	0.15117
0.09770	0.04914
0.07220	0.15117
0.17421	0.17668
0.22521	0.27871
0.14870	0.12566
0.12320	0.15117
0.07220	0.15117
0.12320	0.02363
0.19971	0.25320
0.17421	0.04914
0.17421	0.25320
0.09770	0.17668
0.09770	0.04914
0.14870	0.02363
0.14870	0.10015
0.19971	0.10015
0.19971	0.25320
0.12320	0.17668
0.09770	0.20219
0.07220	0.17668
0.09770	0.20219
0.14870	0.25320
0.22521	0.12566
0.19971	0.04914
0.12320	0.04914
0.09770	0.15117
0.12320	0.15117
0.14870	0.20219
0.22521	0.15117
0.17421	0.15117
0.17421	0.12566
0.09770	0.10015
0.14870	0.12566
0.22521	0.15117
0.22521	0.20219
0.12320	0.20219
0.12320	0.02363
0.07220	0.10015
0.09770	0.20219
0.14870	0.25320
0.12320	0.20219
0.14870	0.20219
0.12320	0.07465
0.12320	0.10015
0.22521	0.17668
0.22521	0.22769
0.12320	0.12566
0.09770	0.12566
0.14870	0.17668
0.19971	0.12566
0.22521	0.17668
0.07220	0.15117
0.07220	0.04914
0.12320	0.15117
0.22521	0.22769
0.14870	0.15117
0.14870	0.20219
0.09770	0.04914
0.12320	0.12566
0.22521	0.12566
0.14870	0.20219
0.12320	0.07465
0.12320	0.17668
0.14870	0.20219
0.17421	0.04914
0.09770	0.12566
0.12320	0.15117
0.22521	0.17668
0.19971	0.25320
0.17421	0.15117
0.09770	0.10015
0.17421	0.12566
0.22521	0.17668
0.12320	0.22769
0.04670	0.22769
0.07220	0.02363
0.14870	0.22769
0.19971	0.25320
0.14870	0.15117
0.07220	0.15117
0.14870	0.07465
0.22521	0.22769
0.17421	0.17668
0.07220	-0.10391
0.07220	0.12566
0.14870	0.20219
0.19971	0.30422
0.19971	0.25320
0.14870	0.20219
0.07220	0.04914
0.17421	0.12566
0.19971	0.04914
0.22521	0.25320
0.12320	0.17668
0.07220	0.04914
0.09770	0.04914
0.09770	0.17668
0.22521	0.27871
0.17421	0.17668
0.07220	0.07465
0.17421	0.15117
0.25071	0.20219
0.12320	0.20219
0.12320	0.04914
0.17421	0.15117
0.14870	0.20219
0.19971	0.04914
0.07220	0.12566
0.14870	0.17668
0.14870	0.12566
0.14870	0.25320
0.12320	0.12566
0.14870	0.04914
0.14870	0.17668
0.22521	0.20219
0.19971	0.25320
0.19971	0.15117
0.17421	0.17668
0.14870	0.10015
0.09770	0.15117
0.14870	0.10015
0.17421	0.15117
0.19971	0.22769
0.14870	0.15117
0.12320	-0.07840
0.07220	0.15117
0.12320	0.25320
0.22521	0.17668
0.12320	0.22769
0.09770	0.02363
0.12320	0.15117
0.22521	0.15117
0.17421	0.07465
0.07220	0.15117
0.14870	0.22769
0.14870	0.25320
0.09770	0.04914
0.09770	0.12566
0.09770	0.20219
0.22521	0.22769
0.17421	0.15117
0.09770	0.10015
0.12320	0.07465
0.22521	0.10015
0.22521	0.30422
0.12320	0.07465
0.12320	-0.05289
0.07220	0.17668
0.07220	0.20219
0.17421	0.25320
0.22521	0.30422
0.12320	0.04914
0.14870	0.12566
0.14870	0.20219
0.19971	0.10015
0.12320	0.15117
0.04670	0.15117
0.14870	0.12566
0.22521	0.17668
0.14870	0.07465
0.17421	0.15117
0.14870	0.15117
0.14870	0.25320
0.19971	0.12566
0.14870	0.10015
0.14870	0.15117
0.14870	0.15117
0.14870	0.15117
0.12320	0.20219
0.17421	0.07465
0.07220	0.12566
0.17421	0.22769
0.22521	0.15117
0.12320	0.12566
0.09770	0.12566
0.12320	0.17668
0.12320	0.15117
0.12320	0.07465
0.09770	0.15117
0.17421	0.20219
0.22521	0.22769
0.14870	0.15117
0.14870	0.07465
0.12320	0.12566
0.07220	0.07465
0.14870	0.15117
0.14870	0.25320
0.22521	0.25320
0.19971	0.15117
0.12320	0.15117
0.17421	0.12566
0.17421	0.07465
0.09770	0.12566
0.04670	0.15117
0.12320	0.15117
0.14870	0.10015
0.12320	0.17668
0.17421	0.20219
0.19971	0.15117
0.07220	0.04914
0.07220	0.02363
0.17421	0.30422
0.14870	0.12566
0.22521	0.22769
0.19971	0.22769
0.14870	0.12566
0.17421	0.15117
0.07220	0.02363
0.19971	0.10015
0.25071	0.17668
0.22521	0.27871
0.14870	0.10015
0.17421	-0.10391
0.07220	0.20219
0.14870	0.35523
0.19971	0.27871
0.12320	0.20219
0.14870	0.12566
0.09770	0.15117
0.12320	0.10015
0.17421	0.25320
0.22521	0.25320
0.22521	0.15117
0.12320	0.04914
0.07220	0.12566
0.14870	0.12566
0.17421	0.25320
0.12320	0.22769
0.14870	0.15117
0.09770	0.10015
0.12320	0.02363
0.17421	0.15117
0.12320	0.17668
0.19971	0.17668
0.22521	0.10015
0.09770	0.17668
0.12320	0.07465
0.07220	0.17668
0.14870	0.17668
0.22521	0.25320
0.19971	0.15117
0.09770	0.07465
0.14870	0.10015
0.12320	0.12566
0.22521	0.27871
0.12320	0.17668
0.04670	0.10015
0.17421	0.04914
0.22521	0.20219
0.14870	0.17668
0.09770	0.17668
0.07220	0.15117
0.14870	0.17668
0.19971	0.17668
0.22521	0.20219
0.14870	0.10015
0.09770	0.07465
0.14870	0.17668
0.22521	0.10015
0.12320	0.12566
0.12320	0.20219
0.14870	0.20219
0.19971	0.04914
0.12320	0.15117
0.14870	0.30422
0.22521	0.15117
0.09770	0.10015
0.09770	0.10015
0.14870	0.17668
0.17421	0.10015
0.17421	0.20219
0.17421	0.15117
0.12320	0.10015
0.07220	-0.00188
0.12320	0.15117
0.12320	0.12566
0.22521	0.15117
0.22521	0.22769
0.17421	0.15117
0.12320	0.10015
0.14870	0.12566
0.17421	0.10015
0.07220	0.04914
0.14870	0.12566
0.14870	0.22769
0.22521	0.15117
0.04670	0.12566
0.07220	0.10015
0.14870	0.25320
0.22521	0.22769
0.12320	0.10015
0.07220	0.10015
0.14870	0.20219
0.17421	0.25320
0.07220	0.15117
0.12320	0.07465
0.19971	0.15117
0.22521	0.20219
0.12320	0.17668
0.07220	0.02363
0.09770	0.07465
0.12320	0.27871
0.22521	0.15117
0.19971	0.17668
0.07220	0.07465
0.09770	0.12566
0.14870	0.15117
0.19971	0.20219
0.22521	0.10015
0.14870	0.04914
0.17421	0.22769
0.25071	0.27871
0.09770	0.25320
0.02119	-0.00188
0.14870	0.12566
0.14870	0.17668
0.19971	0.15117
0.14870	0.17668
0.09770	0.22769
0.14870	0.20219
0.22521	0.12566
0.22521	0.10015
0.17421	0.07465
0.07220	-0.10391
0.14870	0.20219
0.19971	0.35523
0.22521	0.32972
0.14870	0.25320
0.14870	0.15117
0.17421	-0.30797
0.17421	0.20219
0.19971	0.22769
0.19971	-0.05289
0.12320	0.30422
0.09770	0.43176
0.12320	0.15117
0.09770	0.10015
0.09770	0.15117
0.12320	0.27871
0.02119	0.25320
0.02119	-0.05289
0.22521	-0.05289
0.19971	-0.02739
0.09770	-0.56305
0.09770	-0.02739
0.07220	0.38074
0.19971	0.86539
-0.10631	0.43176
0.30171	0.02363
0.73524	-1.65988
0.25071	0.76336
-0.00431	0.76336
0.32721	1.47757
0.12320	0.73785
-0.31033	0.83988
0.19971	-0.61406
0.50573	-1.96597
-0.08081	0.45726
-0.10631	-0.02739
0.09770	0.12566
0.04670	-2.22105
0.40372	1.45206
0.07220	1.04394
0.45472	2.19179
-0.02981	-2.14453
-0.05531	-0.97117
0.22521	1.73265
-0.46334	-2.96078
0.19971	0.22769
0.96476	1.50308
0.81175	2.11527
-0.05531	-2.34859
-0.18282	0.81437
0.12320	0.53379
0.09770	-0.48652
-0.13181	0.50828
-0.51434	-1.63437
0.60773	-1.04770
0.60773	0.15117
-0.00431	1.32453
0.07220	0.25320
0.14870	-0.51203
-0.13181	0.53379
0.30171	0.86539
0.50573	-0.86914
-0.08081	-0.30797
0.58223	0.20219
0.12320	0.63582
0.09770	1.24800
-0.25932	0.32972
0.22521	-0.61406
0.17421	-0.07840
0.27621	0.04914
0.25071	0.35523
0.22521	-0.53754
0.17421	1.35003
-0.00431	-1.07320
-0.05531	-0.00188
0.37822	1.78367
0.12320	0.04914
0.09770	1.14597
0.35272	2.47238
0.22521	-1.94047
0.04670	0.35523
0.09770	0.25320
0.22521	-0.05289
0.12320	0.17668
0.14870	-0.56305
0.22521	-0.94566
0.22521	-0.15492
0.32721	1.14597
0.14870	-0.23145
0.07220	0.38074
-0.00431	-0.20594
0.14870	1.04394
0.48022	-0.48652
-0.08081	0.73785
-0.05531	-1.40480
0.12320	-1.22625
0.12320	0.94191
0.04670	-0.07840
0.02119	-0.61406
0.09770	0.22769
0.22521	0.38074
-0.05531	0.99292
0.45472	-0.30797
0.60773	1.09496
0.22521	-1.17523
0.19971	0.91640
0.09770	-0.10391
0.04670	0.63582
0.07220	-0.69059
0.04670	1.32453
0.07220	-0.43551
0.12320	0.38074
0.12320	-0.76711
0.27621	-0.25695
0.07220	0.25320
0.02119	0.55929
0.04670	0.07465
0.19971	0.66132
0.37822	0.76336
0.27621	-0.25695
0.09770	-3.11382
0.12320	1.09496
0.12320	1.35003
0.12320	0.83988
0.25071	-0.74160
-0.00431	0.32972
0.12320	0.30422
0.32721	0.78886
-0.05531	-0.76711
0.14870	-0.25695
0.25071	0.25320
0.19971	0.02363
0.04670	-0.43551
0.14870	0.25320
0.25071	0.02363
0.19971	0.43176
0.14870	0.86539
0.27621	-0.05289
0.17421	0.38074
0.04670	0.71234
0.09770	-0.38449
0.17421	0.45726
0.19971	-0.92016
0.12320	-0.10391
0.14870	0.71234
0.19971	0.43176
0.14870	0.32972
0.19971	0.07465
0.09770	0.04914
0.19971	0.10015
0.22521	0.15117
0.14870	0.12566
-0.00431	-0.12942
-0.05531	-0.05289
0.12320	0.22769
0.25071	0.25320
0.27621	0.15117
0.35272	0.25320
0.22521	0.45726
0.09770	0.53379
0.02119	-0.05289
0.12320	0.15117
0.25071	0.12566
0.17421	0.50828
0.07220	-1.02219
-0.02981	0.32972
0.27621	-0.41000
0.25071	0.55929
0.40372	0.35523
0.37822	0.35523
0.04670	-1.07320
0.02119	1.14597
-0.02981	-0.23145
0.07220	-0.02739
0.14870	0.10015
-0.18282	-0.05289
0.35272	0.63582
0.55673	0.35523
0.19971	0.25320
0.02119	0.17668
0.07220	0.25320
0.14870	0.12566
0.22521	0.02363
0.17421	0.12566
0.14870	-0.58856
0.02119	0.73785
0.02119	-2.09351
0.27621	1.12046
0.17421	0.76336
0.17421	-0.02739
0.12320	0.38074
0.14870	0.02363
0.12320	0.63582
0.12320	0.12566
0.12320	-1.09871
0.27621	0.27871
0.25071	0.73785
0.14870	0.58480
0.12320	-0.66508
0.04670	0.45726
0.02119	0.35523
0.12320	0.27871
0.17421	-0.28246
0.30171	-0.25695
0.30171	0.07465
0.09770	0.15117
0.12320	0.40625
0.17421	0.38074
0.09770	0.35523
0.14870	0.43176
0.12320	0.20219
0.12320	-0.46102
0.09770	0.02363
0.19971	0.12566
0.30171	0.58480
0.12320	0.40625
0.07220	-0.38449
0.14870	0.55929
0.27621	-0.20594
0.14870	-0.18043
0.04670	0.15117
0.22521	0.22769
0.14870	0.78886
0.14870	1.12046
0.22521	-1.37929
0.07220	-0.07840
0.12320	0.35523
0.19971	0.02363
0.19971	0.43176
0.19971	0.50828
0.09770	0.68683
0.07220	0.30422
0.12320	-0.74160
0.22521	0.10015
0.09770	-0.12942
0.25071	0.43176
0.14870	0.63582
0.17421	0.40625
0.22521	0.27871
0.09770	-0.25695
0.12320	0.20219
-0.05531	0.17668
0.35272	0.30422
0.35272	0.22769
0.02119	0.20219
0.07220	-0.02739
0.12320	-0.15492
0.07220	0.38074
0.09770	0.38074
-0.00431	0.55929
0.30171	-0.38449
0.37822	0.17668
0.12320	0.35523
0.07220	-0.25695
0.12320	0.76336
0.14870	-0.30797
0.22521	0.32972
0.19971	0.04914
0.25071	0.17668
0.27621	0.10015
0.14870	0.58480
0.14870	-1.02219
0.12320	0.61031
0.04670	0.25320
0.09770	0.25320
0.12320	-0.41000
0.12320	0.55929
0.07220	0.30422
0.07220	0.10015
0.09770	-0.20594
0.02119	0.32972
0.07220	0.40625
0.17421	-0.35899
0.14870	0.30422
0.19971	-0.58856
0.12320	0.15117
0.27621	0.32972
0.27621	0.35523
0.14870	0.40625
0.12320	-0.33348
0.17421	0.66132
0.27621	-0.63957
0.09770	-0.10391
0.12320	0.71234
0.19971	0.66132
0.17421	0.61031
0.14870	0.15117
0.12320	0.04914
0.17421	0.10015
0.19971	0.50828
0.14870	-0.74160
0.12320	-0.12942
0.07220	0.12566
0.14870	-0.25695
0.22521	0.07465
0.12320	0.38074
0.07220	0.20219
0.12320	0.35523
0.02119	0.25320
0.22521	0.22769
0.53123	0.02363
0.17421	-0.07840
-0.28482	0.20219
0.09770	0.58480
0.35272	0.66132
0.22521	-0.12942
0.02119	0.04914
0.12320	0.04914
0.07220	-0.43551
0.09770	-0.46102
0.17421	0.25320
0.32721	0.45726
0.09770	0.66132
0.17421	0.02363
0.12320	0.07465
0.07220	0.76336
0.12320	0.55929
0.25071	0.61031
0.19971	-0.81812
0.19971	0.10015
0.07220	-0.02739
0.07220	0.32972
0.09770	0.27871
0.09770	0.45726
0.14870	-0.25695
0.12320	0.78886
0.09770	0.55929
0.12320	-1.20074
0.14870	0.02363
0.22521	-0.35899
0.19971	0.40625
0.09770	0.04914
0.09770	0.04914
0.14870	0.32972
0.14870	0.48277
0.22521	0.20219
0.09770	0.35523
0.12320	0.27871
0.14870	0.27871
0.12320	-0.41000
0.14870	-0.00188
0.09770	-0.35899
-0.15732	0.32972
0.27621	0.38074
0.42922	0.20219
0.04670	0.20219
0.09770	0.30422
0.12320	0.17668
0.04670	0.40625
0.22521	0.10015
0.19971	0.32972
0.14870	0.25320
0.02119	0.17668
0.12320	0.17668
0.04670	0.15117
0.32721	-0.05289
0.45472	-0.25695
0.12320	0.04914
0.04670	0.25320
-0.02981	0.50828
0.12320	0.20219
0.17421	-0.43551
0.04670	0.71234
0.22521	-0.02739
0.25071	0.45726
0.19971	0.40625
0.19971	0.22769
0.25071	0.15117
0.14870	-0.12942
0.12320	0.04914
0.04670	0.04914
0.04670	0.12566
0.09770	0.15117
0.19971	0.15117
0.19971	0.43176
0.19971	0.30422
0.12320	0.43176
0.17421	0.12566
0.22521	-0.05289
0.17421	-0.25695
0.19971	0.22769
0.07220	-0.30797
0.04670	-0.35899
0.14870	-0.02739
0.22521	0.55929
0.14870	0.30422
0.30171	0.45726
0.19971	0.15117
0.07220	0.12566
0.25071	0.20219
0.17421	0.38074
0.12320	0.10015
0.07220	-0.05289
-0.00431	-0.35899
0.09770	0.27871
0.22521	0.25320
0.19971	0.30422
0.02119	0.15117
0.07220	-0.00188
0.27621	0.04914
0.45472	0.30422
0.09770	0.22769
0.12320	0.25320
0.12320	0.30422
0.04670	0.02363
0.17421	0.12566
0.25071	0.20219
0.12320	0.17668
0.02119	-0.00188
0.45472	0.02363
0.19971	0.22769
0.07220	0.07465
0.07220	0.22769
0.12320	0.40625
0.17421	-0.23145
0.12320	0.12566
0.19971	-0.07840
0.17421	0.17668
0.09770	0.45726
0.14870	0.50828
0.12320	0.07465
0.19971	0.10015
0.14870	0.04914
0.17421	0.10015
0.04670	0.17668
0.07220	0.27871
0.07220	0.07465
0.07220	-0.20594
0.14870	0.55929
0.25071	-0.35899
0.19971	0.50828
0.25071	-0.00188
0.12320	0.20219
0.07220	0.10015
0.14870	0.02363
0.14870	-0.05289
0.25071	0.32972
0.27621	0.02363
0.25071	0.66132
0.19971	0.63582
0.14870	0.66132
0.07220	-1.09871
0.19971	-0.33348
0.14870	-0.28246
0.12320	0.35523
0.14870	-0.02739
0.22521	0.17668
0.09770	0.89089
0.19971	0.43176
0.22521	0.20219
0.04670	-0.02739
0.02119	-0.18043
0.19971	-0.51203
0.12320	0.61031
0.09770	0.43176
0.09770	0.25320
0.22521	0.17668
0.17421	-0.12942
0.09770	-0.25695
0.12320	0.38074
0.25071	0.17668
0.14870	-0.28246
0.07220	0.40625
0.17421	0.55929
0.07220	0.10015
0.19971	0.04914
0.09770	0.20219
0.14870	0.12566
0.14870	0.15117
0.25071	0.04914
0.17421	0.27871
0.07220	0.27871
0.04670	0.12566
0.14870	0.40625
0.19971	-0.15492
0.09770	-0.05289
0.07220	0.20219
0.12320	0.38074
0.25071	0.86539
0.12320	0.22769
-0.05531	-0.07840
0.27621	-0.23145
0.37822	0.25320
0.17421	0.27871
0.07220	0.25320
0.09770	0.30422
0.12320	0.58480
0.14870	-0.00188
0.09770	-0.07840
0.12320	-0.00188
0.14870	-0.02739
0.14870	-0.46102
0.09770	0.02363
0.25071	0.76336
0.14870	0.55929
0.17421	0.04914
0.27621	-0.00188
0.22521	0.20219
0.02119	0.30422
0.02119	-0.07840
0.12320	-0.00188
0.19971	0.45726
0.14870	0.50828
0.14870	-0.20594
0.14870	0.10015
0.12320	0.63582
0.09770	0.45726
0.17421	0.20219
0.12320	0.04914
0.22521	0.43176
0.14870	0.10015
0.09770	0.25320
0.04670	-0.02739
0.04670	0.02363
0.17421	0.32972
0.22521	0.15117
0.27621	0.27871
0.02119	0.12566
0.48022	0.45726
0.35272	-0.33348
-0.10631	0.35523
-0.00431	0.15117
0.09770	0.25320
0.07220	0.10015
0.12320	-0.00188
0.14870	0.15117
0.04670	0.07465
0.14870	0.20219
0.19971	0.10015
0.22521	0.35523
0.25071	0.25320
0.17421	0.35523
0.07220	-0.05289
0.17421	-0.12942
0.22521	0.20219
0.22521	0.15117
0.12320	0.45726
0.12320	-0.41000
0.17421	-0.18043
0.12320	0.15117
0.04670	0.12566
0.22521	0.20219
0.22521	0.20219
0.25071	0.17668
0.17421	0.15117
-0.02981	0.38074
0.12320	-0.71609
0.12320	0.15117
0.07220	0.27871
0.12320	0.07465
0.45472	0.32972
0.22521	0.55929
0.12320	-0.15492
0.02119	0.25320
0.02119	0.07465
0.12320	0.27871
0.22521	0.07465
0.19971	0.27871
0.14870	0.20219
0.25071	0.17668
0.14870	-0.00188
0.09770	-0.41000
0.04670	0.07465
0.22521	0.45726
0.14870	-0.23145
0.19971	0.55929
0.27621	0.58480
0.17421	-0.76711
0.07220	-0.23145
0.14870	0.25320
0.14870	0.61031
0.12320	0.40625
0.04670	0.15117
0.17421	0.22769
0.19971	0.22769
0.07220	0.25320
0.09770	0.17668
0.14870	-0.10391
0.25071	-0.07840
0.17421	-0.35899
0.09770	0.35523
0.04670	0.63582
0.07220	0.66132
0.53123	-0.33348
0.30171	0.55929
-0.08081	0.25320
0.17421	0.04914
0.14870	0.04914
-0.02981	0.45726
0.14870	0.04914
0.22521	0.15117
0.19971	0.04914
0.17421	-0.43551
0.12320	0.04914
0.17421	0.35523
0.22521	0.30422
0.17421	0.12566
0.14870	-0.05289
0.12320	0.35523
-0.08081	0.45726
0.25071	0.61031
0.42922	0.32972
0.17421	-0.35899
0.02119	0.40625
-0.02981	0.17668
0.12320	0.25320
0.22521	-0.02739
0.17421	-0.20594
0.07220	0.55929
0.14870	0.40625
0.25071	0.27871
0.12320	-0.15492
0.14870	-0.38449
0.12320	0.68683
0.25071	0.25320
0.12320	0.02363
0.14870	0.10015
0.19971	-0.12942
0.30171	0.20219
0.12320	0.22769
0.07220	0.55929
-0.02981	0.02363
0.02119	0.40625
0.14870	-0.28246
0.22521	-0.46102
0.19971	0.48277
0.07220	0.10015
0.12320	0.32972
0.32721	-0.02739
0.12320	-0.02739
0.04670	0.48277
0.17421	0.32972
0.07220	-0.30797
0.09770	0.35523
0.17421	-0.10391
0.22521	0.12566
0.25071	0.25320
0.14870	0.15117
0.12320	0.10015
0.14870	0.12566
0.22521	0.22769
0.14870	0.27871
0.09770	0.27871
0.14870	0.15117
0.17421	0.12566
0.25071	0.10015
0.14870	0.12566
0.04670	-0.00188
0.07220	-0.43551
0.12320	-0.02739
0.19971	0.30422
0.12320	0.76336
0.12320	0.15117
0.12320	0.40625
0.17421	-0.30797
0.19971	0.12566
0.45472	-0.05289
0.40372	0.45726
-0.08081	0.43176
-0.05531	0.17668
-0.05531	-0.15492
0.07220	-0.28246
0.09770	0.15117
0.09770	0.32972
0.12320	0.17668
0.19971	0.02363
0.22521	0.35523
0.27621	0.40625
0.17421	0.32972
0.22521	-0.18043
0.09770	0.30422
0.12320	0.38074
0.22521	0.32972
0.12320	0.02363
0.07220	-0.02739
0.12320	-0.23145
0.22521	0.25320
0.25071	0.10015
0.02119	0.27871
0.09770	-0.12942
0.12320	0.32972
0.04670	0.25320
0.14870	0.81437
0.22521	-0.58856
0.12320	0.20219
0.09770	0.02363
0.19971	0.27871
0.27621	0.25320
0.12320	0.25320
0.27621	0.02363
0.12320	0.07465
0.09770	0.22769
0.12320	0.10015
0.14870	-0.07840
0.04670	0.12566
0.14870	-0.15492
0.22521	0.12566
0.14870	0.32972
0.17421	0.30422
0.07220	0.45726
0.04670	0.12566
0.53123	-0.05289
0.25071	0.12566
0.07220	0.10015
0.09770	0.30422
0.12320	0.12566
0.04670	0.10015
0.07220	0.12566
0.07220	0.04914
0.27621	0.12566
0.19971	0.10015
0.12320	-0.23145
0.22521	0.10015
0.22521	0.58480
0.19971	0.38074
0.09770	0.35523
0.02119	0.20219
0.12320	-0.66508
0.17421	0.17668
0.12320	0.38074
0.02119	0.17668
0.48022	0.53379
0.45472	0.30422
-0.13181	0.17668
-0.00431	-0.79262
0.09770	0.25320
0.14870	0.10015
0.12320	0.10015
0.09770	0.32972
0.19971	-0.05289
0.17421	0.30422
0.22521	-0.20594
0.12320	0.61031
0.12320	0.45726
0.19971	0.22769
0.19971	0.07465
0.12320	0.27871
0.25071	0.30422
0.19971	0.15117
0.12320	-0.18043
0.07220	-0.51203
0.04670	0.45726
0.22521	0.27871
0.14870	0.38074
0.17421	0.40625
0.19971	0.35523
0.12320	0.02363
0.17421	-0.76711
0.02119	0.45726
0.09770	0.20219
0.07220	0.22769
0.17421	0.30422
0.04670	0.20219
0.42922	0.25320
0.32721	0.15117
0.04670	0.30422
0.02119	-0.38449
0.12320	0.40625
0.07220	0.32972
0.12320	0.40625
0.12320	-0.28246
0.14870	0.27871
0.22521	0.02363
0.22521	0.45726
0.17421	0.35523
0.09770	0.15117
0.17421	0.25320
0.22521	0.02363
0.09770	0.20219
0.12320	0.10015
0.09770	0.17668
0.12320	0.12566
0.09770	0.12566
0.27621	0.20219
0.14870	0.15117
0.07220	-0.07840
0.22521	0.10015
0.12320	-0.46102
0.12320	0.45726
0.12320	0.35523
0.04670	0.15117
0.09770	0.10015
0.22521	0.25320
0.14870	0.45726
0.25071	0.12566
0.12320	0.15117
0.17421	0.30422
0.32721	-0.12942
0.17421	0.27871
0.12320	-0.00188
0.19971	0.12566
0.12320	0.02363
0.12320	0.10015
0.12320	-0.07840
0.09770	0.20219
0.09770	0.20219
0.22521	0.35523
0.19971	0.17668
0.17421	0.25320
0.19971	0.20219
0.14870	0.35523
0.09770	0.04914
0.07220	0.22769
0.14870	-0.28246
0.14870	0.38074
0.14870	0.20219
0.04670	0.53379
0.12320	0.30422
0.19971	0.53379
0.19971	-0.86914
0.07220	0.43176
0.14870	-0.05289
0.07220	0.04914
0.22521	-0.00188
0.19971	0.45726
0.22521	0.35523
0.14870	0.02363
0.17421	-0.02739
0.04670	0.32972
0.12320	0.20219
0.07220	0.27871
0.22521	0.15117
0.22521	-0.41000
0.14870	0.35523
0.27621	0.38074
0.09770	0.35523
-0.08081	0.22769
0.14870	-0.02739
0.22521	-0.12942
0.14870	0.17668
0.17421	0.43176
0.12320	0.25320
0.12320	0.50828
0.14870	-0.46102
0.17421	0.38074
0.27621	0.20219
0.19971	-0.15492
0.09770	0.12566
0.14870	0.38074
0.19971	0.30422
0.14870	0.12566
0.09770	0.15117
0.07220	0.25320
0.07220	-0.18043
0.14870	-0.02739
0.17421	0.38074
0.22521	0.17668
0.14870	-0.35899
0.07220	0.25320
0.09770	0.20219
0.14870	0.22769
0.14870	0.04914
0.17421	0.25320
0.19971	0.25320
0.14870	0.17668
0.14870	-0.18043
0.07220	-0.02739
0.12320	0.04914
0.09770	0.35523
0.17421	-0.25695
0.12320	0.68683
0.12320	0.66132
0.32721	0.50828
0.17421	-0.84363
0.09770	-0.25695
0.09770	0.43176
0.19971	0.40625
0.12320	0.17668
0.07220	0.25320
0.14870	-0.12942
0.22521	0.15117
0.17421	-0.10391
0.07220	0.20219
0.14870	0.30422
0.30171	0.25320
0.17421	0.15117
0.02119	0.15117
0.12320	-0.25695
0.22521	0.15117
0.22521	0.15117
0.12320	0.04914
0.22521	0.27871
0.12320	0.12566
0.12320	0.17668
0.19971	0.15117
0.17421	-0.05289
0.04670	0.17668
0.19971	0.25320
0.22521	0.43176
0.09770	-0.10391
-0.00431	0.22769
0.12320	0.07465
0.17421	-0.05289
0.14870	0.61031
0.12320	0.50828
0.17421	0.25320
0.14870	0.20219
0.19971	0.12566
0.17421	0.17668
0.14870	0.07465
0.04670	-0.35899
0.17421	0.22769
0.09770	0.22769
0.19971	0.10015
0.14870	-0.10391
0.04670	0.02363
0.42922	0.25320
0.40372	0.45726
0.09770	0.35523
0.02119	0.40625
0.14870	0.30422
0.04670	0.48277
0.14870	-0.43551
0.14870	0.02363
0.09770	-0.10391
0.14870	0.10015
0.12320	0.20219
0.22521	0.22769
0.22521	0.43176
0.12320	-0.61406
0.09770	-0.61406
0.09770	0.25320
0.02119	0.43176
0.19971	0.45726
0.22521	0.66132
0.12320	0.07465
0.04670	-0.10391
0.12320	-0.12942
0.09770	-0.05289
0.25071	0.32972
0.25071	0.38074
0.19971	0.43176
0.07220	0.07465
0.07220	0.02363
0.07220	-0.02739
0.14870	0.12566
0.14870	0.10015
0.19971	-0.05289
0.17421	0.15117
0.12320	0.17668
0.02119	0.32972
0.09770	-0.00188
0.19971	0.25320
0.14870	0.27871
0.12320	0.10015
0.19971	0.02363
0.12320	0.45726
0.14870	-0.23145
0.12320	0.30422
0.09770	0.17668
0.17421	0.12566
0.17421	0.27871
0.19971	-0.00188
0.17421	0.40625
0.12320	0.10015
0.17421	0.22769
0.09770	0.22769
0.07220	0.10015
0.14870	-0.56305
0.22521	-0.41000
0.12320	0.73785
0.07220	0.40625
0.04670	0.45726
0.12320	0.38074
0.22521	0.20219
0.22521	-0.00188
0.12320	0.02363
0.09770	0.10015
0.14870	0.04914
0.19971	-0.48652
0.14870	0.40625
0.17421	0.38074
0.02119	0.17668
0.22521	0.10015
0.22521	0.27871
0.02119	0.38074
-0.00431	0.50828
0.04670	-0.61406
0.42922	0.63582
0.32721	0.04914
0.12320	-0.07840
0.09770	0.07465
-0.05531	0.07465
0.07220	-0.07840
0.12320	0.04914
0.27621	0.20219
0.17421	0.15117
0.22521	0.32972
0.12320	0.25320
0.17421	0.25320
0.17421	0.04914
0.07220	0.38074
0.22521	-0.10391
0.09770	0.71234
0.12320	-0.00188
0.22521	0.10015
0.14870	-0.18043
0.07220	-0.07840
0.07220	0.04914
0.19971	0.43176
0.17421	0.27871
0.09770	0.25320
0.12320	0.40625
0.27621	-1.40480
0.17421	0.76336
0.14870	-0.10391
0.22521	0.48277
0.14870	0.20219
0.07220	0.25320
0.19971	0.25320
0.17421	0.30422
0.02119	0.68683
0.14870	-0.15492
0.19971	-0.10391
0.12320	-0.20594
0.07220	-0.12942
0.12320	0.10015
0.17421	0.20219
0.19971	0.10015
0.27621	0.15117
0.22521	0.55929
0.19971	0.35523
0.17421	0.15117
0.14870	-0.07840
0.04670	0.32972
0.12320	0.22769
0.22521	0.43176
0.32721	-0.18043
0.09770	-0.18043
0.09770	0.50828
0.12320	0.17668
0.17421	0.25320
0.12320	0.17668
0.02119	0.15117
0.14870	0.22769
0.27621	-0.15492
0.12320	-0.41000
0.12320	0.50828
0.07220	0.22769
0.12320	0.07465
0.14870	0.12566
0.17421	0.17668
0.14870	0.22769
0.09770	0.40625
-0.00431	-0.00188
0.32721	-0.56305
0.42922	0.12566
0.12320	0.76336
0.02119	0.43176
-0.05531	0.27871
0.07220	0.58480
0.14870	0.15117
0.12320	-0.15492
0.09770	0.25320
0.17421	0.20219
0.27621	0.22769
0.19971	-1.07320
0.07220	0.10015
0.12320	0.48277
0.22521	0.76336
0.12320	0.04914
0.12320	0.17668
0.09770	0.07465
0.14870	0.02363
0.22521	0.35523
0.17421	0.04914
0.12320	0.04914
0.09770	-0.05289
0.14870	0.38074
0.09770	0.22769
0.22521	-0.10391
0.17421	0.27871
0.09770	0.07465
0.12320	0.15117
0.12320	0.17668
0.25071	0.20219
0.22521	0.35523
0.19971	0.38074
0.12320	0.07465
0.14870	0.20219
0.12320	-0.00188
0.12320	-0.15492
0.14870	0.22769
0.19971	0.30422
0.19971	-0.02739
0.19971	-0.56305
0.17421	0.55929
0.09770	0.63582
0.17421	0.94191
0.22521	0.10015
0.17421	0.32972
0.12320	0.10015
0.12320	-0.28246
0.07220	-0.05289
0.14870	0.12566
0.19971	0.32972
0.14870	0.25320
0.09770	0.20219
0.14870	0.02363
0.14870	0.20219
0.22521	0.27871
0.19971	-0.02739
-0.02981	0.17668
0.12320	0.17668
0.19971	0.27871
0.32721	0.30422
0.37822	0.12566
0.07220	0.07465
0.04670	0.07465
0.12320	0.35523
0.02119	0.10015
0.07220	0.10015
0.02119	-0.00188
0.17421	0.04914
0.25071	-0.12942
0.22521	0.55929
0.19971	0.20219
0.09770	0.17668
0.09770	-0.43551
0.14870	0.48277
0.22521	0.55929
0.12320	0.35523
0.12320	0.02363
0.07220	0.45726
0.12320	-0.41000
0.22521	0.02363
0.09770	0.12566
0.19971	0.15117
0.19971	0.38074
0.17421	0.35523
0.09770	0.27871
0.17421	0.17668
0.12320	-0.00188
0.07220	-0.10391
0.14870	0.17668
0.17421	0.17668
0.17421	0.10015
0.14870	0.10015
0.12320	0.48277
0.17421	-0.10391
0.14870	0.30422
0.22521	0.12566
0.07220	0.22769
0.17421	0.32972
0.17421	0.12566
0.12320	0.12566
0.04670	0.10015
0.09770	0.04914
0.14870	0.27871
0.19971	0.20219
0.14870	0.17668
0.07220	-0.12942
0.14870	0.04914
0.22521	0.12566
0.19971	0.27871
0.12320	0.35523
0.12320	0.45726
0.22521	-0.05289
0.12320	-0.58856
0.12320	0.48277
0.12320	0.38074
0.17421	0.40625
0.09770	0.02363
0.07220	-0.05289
0.22521	-0.05289
0.25071	0.07465
0.17421	0.35523
0.07220	0.32972
0.07220	0.35523
0.12320	0.04914
0.17421	-0.38449
0.14870	0.30422
0.17421	0.15117
0.12320	0.35523
0.17421	0.38074
0.19971	0.17668
0.12320	0.20219
0.09770	0.04914
0.14870	-0.05289
0.09770	0.58480
0.14870	0.30422
0.14870	0.22769
0.07220	-0.86914
0.04670	0.35523
0.12320	0.50828
0.48022	0.15117
0.19971	0.12566
0.07220	-0.02739
0.12320	0.38074
0.12320	0.07465
0.07220	0.04914
0.17421	0.04914
0.07220	0.25320
0.22521	0.45726
0.22521	0.35523
0.19971	0.45726
0.07220	0.17668
0.14870	-0.56305
0.17421	0.32972
0.22521	-0.12942
0.22521	0.50828
0.04670	0.17668
0.12320	0.17668
0.22521	0.15117
0.07220	-0.20594
0.07220	0.15117
0.22521	0.15117
0.14870	0.25320
0.09770	0.48277
0.07220	0.45726
0.07220	-0.12942
0.09770	-0.30797
0.12320	0.27871
0.14870	0.20219
0.19971	0.27871
0.14870	0.27871
0.17421	0.07465
0.17421	-0.07840
0.12320	0.10015
0.09770	0.20219
0.14870	0.20219
0.12320	0.20219
0.14870	0.07465
0.14870	0.22769
0.22521	0.17668
0.19971	-0.89465
0.22521	0.50828
0.19971	0.35523
0.17421	0.55929
0.04670	-0.12942
0.04670	0.25320
0.09770	0.20219
0.12320	-0.28246
0.14870	0.27871
0.22521	0.15117
0.22521	0.20219
0.17421	0.22769
0.12320	0.12566
0.09770	0.04914
0.14870	0.10015
0.19971	0.04914
0.09770	-0.05289
0.07220	0.02363
0.07220	0.15117
0.14870	0.58480
0.12320	0.45726
0.22521	0.17668
0.19971	0.02363
0.17421	0.10015
0.22521	-0.10391
0.12320	0.35523
0.09770	0.17668
0.02119	-0.10391
0.14870	0.20219
0.17421	0.61031
0.14870	-0.35899
0.14870	0.48277
0.04670	-0.23145
0.17421	0.73785
0.25071	0.12566
0.14870	-0.10391
0.07220	-0.02739
0.17421	0.04914
0.19971	0.20219
0.17421	0.15117
0.09770	0.15117
0.14870	0.15117
0.25071	0.55929
0.14870	-0.00188
0.12320	0.25320
0.04670	-0.07840
0.09770	0.22769
0.19971	0.53379
0.25071	0.22769
0.17421	-0.53754
0.12320	0.68683
0.17421	0.48277
0.19971	0.20219
0.12320	0.10015
0.14870	0.04914
0.19971	0.04914
0.14870	-0.00188
0.04670	-0.25695
0.17421	-0.07840
0.22521	0.50828
0.14870	0.45726
0.04670	0.30422
0.12320	-0.51203
0.19971	-0.00188
0.14870	-0.10391
0.12320	0.22769
0.14870	0.40625
0.22521	0.35523
0.17421	0.12566
0.09770	0.02363
0.22521	0.25320
0.22521	0.38074
0.09770	-0.41000
0.09770	0.35523
0.12320	0.25320
0.12320	-0.10391
0.14870	-0.25695
0.22521	0.12566
0.12320	0.27871
0.07220	0.15117
0.12320	0.25320
0.17421	0.22769
0.12320	-0.05289
0.22521	0.15117
0.19971	-0.56305
0.14870	0.48277
0.12320	0.53379
0.17421	-0.02739
0.07220	0.02363
0.17421	0.45726
0.19971	0.55929
0.25071	0.12566
0.22521	0.12566
0.14870	-0.02739
0.04670	-0.02739
0.04670	0.12566
0.12320	0.25320
0.14870	0.25320
0.22521	0.04914
0.14870	-0.02739
0.12320	-0.18043
0.14870	0.53379
0.27621	0.43176
0.25071	-0.00188
0.17421	0.35523
0.09770	0.04914
0.07220	0.12566
0.07220	0.04914
0.12320	0.17668
0.25071	-0.00188
0.19971	0.17668
0.12320	0.22769
0.17421	-0.02739
0.17421	0.22769
0.14870	0.17668
0.14870	0.25320
0.09770	0.17668
0.22521	0.17668
0.14870	0.02363
0.07220	0.27871
0.07220	-0.12942
0.14870	0.17668
0.27621	0.40625
0.22521	0.58480
0.12320	-0.25695
0.12320	0.40625
0.17421	0.12566
0.07220	0.04914
0.07220	0.02363
0.14870	0.12566
0.12320	0.15117
0.22521	0.10015
0.17421	0.02363
0.12320	0.10015
0.09770	0.22769
0.14870	0.30422
0.19971	0.25320
0.09770	0.20219
0.04670	0.04914
0.09770	0.04914
0.17421	0.17668
0.25071	0.27871
0.27621	0.15117
0.22521	0.15117
0.04670	0.20219
0.12320	0.15117
0.09770	0.02363
0.19971	-0.05289
0.17421	0.12566
0.14870	0.35523
0.04670	0.17668
0.14870	-0.02739
0.22521	0.10015
0.25071	0.35523
0.19971	-0.23145
0.12320	0.66132
0.09770	0.68683
0.14870	0.04914
0.17421	-0.02739
0.14870	-0.97117
0.04670	0.15117
0.12320	0.04914
0.22521	0.30422
0.22521	0.32972
0.12320	0.17668
0.07220	0.17668
0.09770	-0.00188
0.12320	-0.12942
0.14870	0.32972
0.25071	0.02363
0.22521	0.20219
0.12320	0.32972
0.09770	0.17668
0.14870	-0.02739
0.22521	0.30422
0.22521	0.27871
0.12320	0.12566
0.09770	0.17668
0.14870	0.17668
0.12320	0.43176
0.22521	0.15117
0.22521	-0.10391
0.12320	0.32972
0.04670	0.07465
0.09770	-0.05289
0.17421	0.32972
0.25071	0.15117
0.17421	0.22769
0.22521	0.25320
0.12320	0.48277
0.17421	0.22769
0.14870	0.25320
0.19971	-0.51203
0.12320	0.17668
0.04670	0.20219
0.09770	0.38074
0.12320	0.35523
0.19971	-0.15492
0.27621	0.02363
0.12320	0.04914
0.07220	-0.10391
0.17421	0.10015
0.14870	0.22769
0.19971	-0.56305
0.12320	0.81437
0.14870	0.35523
0.09770	0.45726
0.17421	0.17668
0.19971	-0.58856
0.14870	0.63582
0.07220	0.22769
0.22521	-0.00188
0.27621	0.38074
0.09770	0.02363
0.12320	-0.07840
0.09770	0.35523
0.14870	0.20219
0.12320	0.10015
0.12320	0.02363
0.17421	0.02363
0.22521	-0.02739
0.17421	0.04914
0.19971	0.20219
0.14870	0.48277
0.12320	-0.10391
0.04670	0.45726
0.07220	-0.02739
0.17421	-0.02739
0.25071	-0.30797
0.19971	0.22769
0.07220	0.55929
0.09770	0.35523
0.14870	0.61031
0.19971	-0.18043
0.12320	-0.79262
0.09770	0.63582
0.12320	0.76336
0.14870	0.02363
0.22521	-0.41000
0.14870	0.07465
0.12320	-0.00188
0.19971	-0.02739
0.17421	0.15117
0.25071	0.22769
0.19971	0.27871
0.09770	0.17668
0.12320	0.27871
0.09770	-0.02739
0.09770	0.10015
0.17421	0.27871
0.14870	-0.43551
0.17421	0.17668
0.19971	0.30422
0.12320	-0.00188
0.14870	0.07465
0.07220	0.73785
0.17421	0.76336
0.14870	0.22769
0.14870	0.45726
0.19971	-0.23145
0.19971	-0.15492
0.12320	-0.18043
0.09770	0.17668
0.14870	0.17668
0.12320	0.12566
0.19971	0.15117
0.17421	0.17668
0.14870	0.12566
0.14870	-0.00188
0.17421	0.12566
0.12320	0.22769
0.19971	0.53379
0.17421	0.61031
0.14870	-1.37929
0.12320	0.53379
0.04670	0.38074
0.17421	0.25320
0.14870	-0.10391
0.14870	0.25320
0.12320	0.30422
0.17421	0.25320
0.17421	0.20219
0.17421	0.02363
0.12320	-0.00188
0.09770	0.02363
0.12320	0.10015
0.12320	0.07465
0.12320	0.43176
0.22521	-0.38449
0.22521	0.20219
0.14870	0.10015
0.12320	0.40625
0.12320	0.07465
0.07220	0.02363
0.12320	0.07465
0.14870	0.15117
0.22521	0.40625
0.25071	0.15117
0.25071	0.07465
0.19971	0.22769
0.12320	0.15117
0.12320	-0.20594
0.04670	0.07465
0.14870	0.07465
0.19971	0.38074
0.12320	0.22769
0.07220	0.27871
0.12320	-0.23145
0.19971	-0.12942
0.22521	0.40625
0.14870	0.32972
0.04670	0.30422
0.14870	0.07465
0.22521	0.55929
0.27621	-0.07840
0.22521	-0.02739
0.09770	0.20219
0.07220	0.30422
0.12320	0.22769
0.22521	-0.10391
0.14870	0.50828
0.14870	0.38074
0.04670	0.17668
0.07220	0.22769
0.12320	0.32972
0.14870	0.02363
0.12320	0.20219
0.17421	0.02363
0.25071	0.20219
0.14870	-0.25695
0.12320	0.25320
0.17421	0.02363
0.07220	0.35523
0.12320	0.48277
0.04670	0.17668
0.22521	0.25320
0.14870	0.10015
0.04670	-0.00188
0.22521	0.17668
0.17421	-0.15492
0.25071	0.22769
0.12320	0.35523
0.12320	0.12566
0.07220	0.32972
0.02119	0.22769
0.12320	-0.07840
0.22521	0.12566
0.14870	0.07465
0.09770	0.04914
0.14870	0.30422
0.19971	0.15117
0.22521	-0.10391
0.25071	-0.00188
0.19971	0.17668
0.12320	0.83988
0.02119	0.22769
0.12320	0.22769
0.19971	0.48277
0.25071	0.40625
0.17421	0.35523
0.19971	-0.41000
0.19971	0.22769
0.12320	0.07465
0.07220	0.07465
0.09770	0.07465
0.12320	0.15117
0.19971	0.17668
0.12320	0.15117
0.07220	0.02363
0.17421	0.07465
0.22521	0.20219
0.17421	0.25320
0.12320	0.15117
0.14870	0.15117
0.22521	0.22769
0.19971	0.17668
0.07220	0.02363
0.14870	0.20219
0.22521	0.22769
0.09770	0.12566
0.17421	0.20219
0.25071	0.15117
0.12320	0.15117
0.07220	-0.00188
0.09770	0.20219
0.14870	0.22769
0.17421	0.25320
0.12320	0.07465
0.12320	-0.02739
0.14870	0.20219
0.19971	-0.07840
0.22521	0.35523
0.12320	-0.15492
0.07220	0.38074
0.02119	-0.25695
0.07220	0.71234
0.07220	0.61031
0.27621	0.66132
0.30171	-0.99668
0.22521	0.32972
0.14870	0.17668
0.22521	0.27871
0.14870	0.30422
0.12320	-0.74160
0.14870	0.20219
0.04670	0.20219
0.09770	0.20219
0.17421	0.25320
0.07220	0.12566
0.14870	0.20219
0.14870	0.10015
0.12320	0.22769
0.14870	0.38074
0.22521	0.38074
0.02119	0.22769
0.17421	-0.00188
0.14870	0.20219
0.07220	0.15117
0.14870	0.27871
0.22521	0.15117
0.09770	0.02363
0.14870	-0.05289
0.22521	0.27871
0.17421	0.38074
0.12320	0.02363
0.25071	0.45726
0.12320	0.15117
0.09770	0.22769
0.27621	0.04914
0.17421	0.25320
0.12320	0.07465
0.14870	0.15117
0.07220	-0.12942
0.02119	-0.12942
0.14870	0.43176
0.25071	0.04914
0.12320	-0.23145
0.14870	-0.07840
0.22521	0.40625
0.12320	0.30422
0.12320	0.50828
0.09770	-0.25695
0.22521	0.50828
0.17421	0.25320
0.07220	0.61031
0.14870	-0.94566
0.14870	0.32972
0.17421	0.32972
0.19971	-0.02739
0.09770	0.04914
0.07220	0.12566
0.17421	0.04914
0.19971	0.50828
0.25071	0.43176
0.09770	0.02363
0.02119	0.12566
0.02119	-0.76711
0.19971	0.68683
0.30171	-0.15492
0.14870	0.07465
0.12320	0.35523
0.12320	0.48277
0.19971	0.66132
0.17421	0.27871
0.12320	-0.07840
0.12320	0.15117
0.17421	-0.18043
0.12320	0.27871
0.02119	-0.20594
0.19971	0.48277
0.25071	0.20219
0.14870	-0.20594
0.09770	0.25320
0.12320	0.30422
0.27621	0.15117
0.17421	0.12566
0.12320	0.04914
0.12320	0.22769
0.17421	0.07465
0.25071	0.35523
0.17421	0.71234
0.09770	-0.92016
0.07220	0.35523
0.17421	0.38074
0.22521	0.25320
0.09770	-0.02739
0.09770	-0.23145
0.07220	0.10015
0.09770	0.45726
0.14870	0.15117
0.22521	0.61031
0.12320	-0.43551
0.04670	-0.71609
0.12320	0.66132
0.19971	0.35523
0.19971	0.10015
0.14870	0.12566
0.14870	0.10015
0.17421	0.07465
0.27621	0.07465
0.14870	0.20219
0.14870	0.15117
0.14870	0.50828
0.22521	-0.02739
0.09770	-0.33348
0.04670	0.63582
0.19971	-0.07840
0.12320	0.12566
0.07220	-0.02739
0.12320	0.07465
0.19971	0.20219
0.17421	0.15117
0.19971	0.25320
0.12320	0.30422
0.04670	0.30422
0.14870	0.12566
0.12320	-0.15492
0.22521	0.12566
0.14870	0.35523
0.14870	0.30422
0.07220	0.30422
0.12320	0.15117
0.12320	0.25320
0.25071	0.22769
0.12320	-0.02739
0.14870	0.22769
0.07220	0.15117
0.09770	-0.15492
0.19971	0.40625
0.19971	0.15117
0.12320	0.30422
0.12320	0.02363
0.09770	0.04914
0.17421	-0.51203
0.19971	0.78886
0.12320	0.15117
0.07220	-0.86914
0.12320	0.32972
0.14870	0.45726
0.09770	0.66132
0.19971	0.53379
0.19971	-0.02739
0.14870	-0.05289
0.17421	-0.05289
0.19971	-0.00188
0.17421	0.25320
0.14870	0.20219
0.12320	0.22769
0.19971	0.12566
0.12320	0.04914
0.09770	0.04914
0.19971	0.45726
0.17421	0.17668
0.07220	-0.12942
0.14870	0.43176
0.22521	0.20219
0.09770	0.04914
0.04670	0.20219
0.07220	-0.15492
0.07220	0.22769
0.12320	0.30422
0.22521	0.22769
0.17421	0.38074
0.12320	0.38074
0.12320	-0.33348
0.25071	0.17668
0.17421	-0.18043
0.04670	0.15117
0.19971	0.43176
0.09770	0.12566
0.02119	0.10015
0.19971	-0.00188
0.12320	0.30422
0.07220	0.12566
0.17421	0.17668
0.19971	0.22769
0.19971	0.07465
0.14870	0.04914
0.09770	0.04914
0.17421	0.17668
0.14870	0.32972
0.25071	0.35523
0.14870	0.04914
0.07220	-1.83844
0.14870	0.25320
0.09770	1.06945
0.17421	0.66132
0.12320	0.22769
0.09770	0.27871
0.17421	-0.23145
0.17421	0.04914
0.19971	0.27871
0.22521	0.22769
0.12320	0.10015
0.04670	0.04914
0.12320	0.04914
0.14870	0.12566
0.12320	0.12566
0.25071	0.25320
0.12320	0.10015
0.22521	0.22769
0.17421	0.15117
0.14870	0.02363
0.09770	0.07465
0.12320	0.30422
0.19971	0.38074
0.12320	0.27871
0.09770	-0.33348
0.12320	-0.63957
0.25071	0.76336
0.12320	0.48277
0.09770	0.32972
0.17421	0.15117
0.14870	0.15117
0.07220	-0.02739
0.07220	0.15117
0.12320	0.17668
0.14870	0.17668
0.12320	-0.15492
0.04670	-0.20594
0.07220	0.07465
0.19971	0.25320
0.17421	0.30422
0.09770	0.50828
0.12320	0.10015
0.12320	0.22769
0.27621	0.02363
0.14870	-0.00188
0.07220	-0.12942
0.12320	0.40625
0.19971	0.45726
