0.12320	0.20219
0.19971	0.04914
0.17421	0.20219
0.22521	0.22769
0.14870	-0.43551
0.07220	0.25320
0.09770	0.35523
0.17421	0.35523
0.14870	0.20219
0.19971	0.20219
0.19971	0.07465
0.14870	0.12566
0.12320	0.10015
0.09770	0.10015
0.07220	-0.00188
0.14870	0.17668
0.17421	0.02363
0.25071	0.32972
0.19971	0.17668
0.12320	0.07465
0.07220	0.17668
0.04670	0.25320
0.02119	0.17668
0.19971	-0.23145
0.22521	-0.15492
0.22521	0.45726
0.19971	0.04914
0.17421	0.15117
0.07220	0.27871
0.12320	0.25320
0.19971	0.02363
0.17421	0.15117
0.19971	0.02363
0.12320	0.27871
0.12320	0.15117
0.09770	0.43176
0.19971	0.04914
0.27621	-0.07840
0.14870	-0.51203
0.12320	0.35523
0.04670	0.32972
0.07220	0.10015
0.07220	0.20219
0.14870	0.12566
0.19971	0.22769
0.12320	0.27871
0.25071	0.20219
0.19971	0.10015
0.17421	-0.18043
0.12320	0.27871
0.14870	0.12566
0.12320	-0.00188
0.04670	0.17668
0.09770	0.10015
0.17421	0.15117
0.14870	0.20219
0.14870	0.20219
0.17421	0.12566
0.19971	0.15117
0.19971	0.15117
0.22521	0.12566
0.19971	0.20219
0.17421	0.17668
0.19971	0.25320
0.22521	0.30422
0.22521	0.25320
0.22521	0.25320
0.22521	-0.15492
0.19971	0.07465
0.12320	0.35523
0.14870	0.27871
0.12320	0.27871
0.12320	-0.02739
0.14870	0.04914
0.12320	-0.02739
0.17421	0.38074
0.17421	0.12566
0.14870	0.12566
0.17421	0.30422
0.12320	-0.35899
0.04670	0.22769
0.12320	-0.00188
0.07220	0.20219
0.12320	0.10015
0.07220	0.15117
0.09770	0.02363
0.09770	0.10015
0.17421	0.25320
0.17421	0.04914
0.09770	0.17668
0.19971	0.10015
0.17421	0.35523
0.12320	0.10015
0.12320	-0.05289
0.09770	-0.12942
0.14870	0.27871
0.17421	0.30422
0.22521	0.38074
0.22521	0.25320
0.19971	0.07465
0.17421	-0.23145
0.07220	0.25320
0.14870	0.30422
0.12320	0.27871
0.19971	0.22769
0.22521	0.22769
0.17421	0.17668
0.09770	0.30422
0.09770	0.17668
0.04670	-0.10391
0.07220	-0.94566
0.12320	0.12566
0.14870	0.35523
0.07220	0.53379
0.14870	0.66132
0.22521	0.27871
0.25071	0.30422
0.19971	0.17668
0.12320	0.12566
0.07220	0.38074
0.04670	-0.00188
0.12320	-0.33348
0.17421	-0.33348
0.22521	0.30422
0.12320	0.25320
0.04670	0.27871
0.12320	0.40625
0.12320	0.25320
0.25071	0.15117
0.19971	0.12566
0.14870	0.10015
0.04670	0.04914
0.14870	-0.00188
0.14870	0.20219
0.14870	0.10015
0.12320	0.40625
0.17421	0.32972
0.17421	-0.02739
0.14870	-0.35899
0.12320	0.38074
0.14870	0.50828
0.04670	0.32972
0.04670	0.15117
0.17421	0.15117
0.12320	0.20219
0.19971	0.15117
0.25071	0.17668
0.22521	0.12566
0.12320	0.07465
0.12320	0.04914
0.07220	0.10015
0.07220	0.17668
0.07220	0.15117
0.14870	0.22769
0.14870	0.30422
0.22521	-0.07840
0.19971	0.17668
0.09770	-0.18043
0.14870	0.17668
0.19971	0.32972
0.17421	0.48277
0.07220	0.27871
0.07220	0.25320
0.19971	0.04914
0.22521	-0.02739
0.12320	0.10015
0.09770	0.35523
0.17421	0.15117
0.25071	-0.07840
0.12320	-0.20594
0.07220	0.22769
0.17421	0.38074
0.19971	0.07465
0.12320	-0.25695
0.19971	0.32972
0.14870	0.40625
0.22521	0.27871
0.17421	0.22769
0.14870	0.04914
0.17421	0.20219
0.19971	-0.00188
0.12320	0.22769
0.12320	0.20219
0.19971	-0.15492
0.22521	0.17668
0.17421	0.15117
0.12320	0.30422
0.14870	0.17668
0.22521	0.12566
0.12320	0.20219
0.09770	0.12566
0.17421	0.07465
0.12320	0.40625
0.07220	0.40625
0.17421	-0.23145
0.17421	-1.02219
0.22521	0.15117
0.12320	0.76336
0.07220	0.61031
0.19971	0.43176
0.22521	0.27871
0.12320	0.10015
0.09770	0.15117
0.09770	0.12566
0.17421	-0.05289
0.14870	0.25320
0.22521	0.15117
0.22521	0.02363
0.14870	-0.41000
0.17421	0.22769
0.17421	0.20219
0.07220	0.15117
0.07220	0.17668
0.09770	0.20219
0.07220	0.25320
0.14870	0.25320
0.17421	0.15117
0.14870	0.35523
0.17421	0.43176
0.14870	0.04914
0.14870	-0.28246
0.12320	0.02363
0.07220	0.38074
0.12320	0.43176
0.19971	0.32972
0.14870	0.25320
0.25071	0.30422
0.14870	0.17668
0.22521	-0.02739
0.12320	-0.07840
0.09770	0.20219
0.12320	0.22769
0.14870	-0.02739
0.19971	-0.02739
0.12320	0.30422
0.09770	0.38074
0.14870	0.17668
0.14870	0.25320
0.22521	0.10015
0.14870	0.53379
0.09770	-0.51203
0.07220	-0.23145
0.12320	-0.10391
0.22521	0.55929
0.19971	0.38074
0.17421	-0.10391
0.09770	0.58480
0.17421	0.32972
0.14870	0.15117
0.17421	0.04914
0.12320	-0.00188
0.04670	0.04914
0.12320	-0.00188
0.22521	0.12566
0.22521	0.04914
0.14870	0.17668
0.09770	0.32972
0.17421	-0.00188
0.22521	0.07465
0.12320	0.17668
0.04670	0.15117
0.12320	0.15117
0.17421	0.20219
0.14870	0.30422
0.17421	0.15117
0.12320	0.27871
0.09770	0.10015
0.14870	0.20219
0.25071	-0.25695
0.22521	0.25320
0.09770	0.22769
0.12320	0.22769
0.07220	0.04914
0.14870	0.35523
0.25071	0.17668
0.17421	0.22769
0.22521	-0.30797
0.22521	0.20219
0.14870	0.12566
0.12320	0.32972
0.17421	0.20219
0.12320	0.02363
0.07220	-0.18043
0.04670	0.02363
-0.15732	0.35523
-0.05531	0.48277
0.27621	0.32972
0.42922	-0.28246
0.35272	0.30422
0.22521	0.30422
0.14870	0.15117
0.12320	0.22769
0.17421	0.04914
0.12320	0.22769
0.09770	0.04914
-0.10631	0.30422
-0.10631	0.04914
0.07220	-0.02739
0.19971	0.04914
0.22521	0.12566
0.17421	0.02363
0.14870	-0.02739
0.07220	0.17668
0.14870	-0.07840
0.19971	-0.20594
0.12320	0.50828
0.25071	0.50828
0.25071	0.30422
0.22521	0.15117
0.12320	0.02363
0.07220	0.04914
0.07220	0.12566
0.12320	0.20219
0.14870	0.22769
0.12320	0.20219
0.17421	0.32972
0.27621	0.17668
0.25071	-0.07840
0.22521	-0.02739
0.22521	0.30422
0.22521	0.50828
0.17421	0.32972
0.12320	0.04914
0.14870	-0.33348
0.17421	0.68683
0.12320	0.45726
0.09770	0.04914
0.09770	-0.25695
0.07220	0.17668
0.07220	0.25320
0.12320	0.15117
0.12320	0.02363
0.07220	0.12566
0.09770	0.15117
0.12320	-0.15492
0.12320	0.07465
0.17421	0.15117
0.17421	0.12566
0.14870	0.22769
0.17421	0.20219
0.12320	0.12566
0.17421	0.07465
0.07220	-0.02739
0.04670	0.17668
0.12320	0.27871
0.12320	0.38074
0.19971	0.22769
0.25071	0.22769
0.19971	0.15117
0.12320	0.17668
0.17421	-0.48652
0.04670	0.04914
0.07220	0.40625
0.14870	0.25320
0.14870	0.48277
0.22521	0.17668
0.17421	0.25320
0.17421	0.04914
0.09770	0.17668
0.04670	0.04914
0.09770	-0.18043
0.14870	0.27871
0.19971	0.35523
0.17421	-0.05289
0.22521	-0.02739
0.22521	0.45726
0.19971	0.17668
0.22521	0.02363
0.22521	0.45726
0.12320	0.50828
0.12320	0.25320
0.12320	0.07465
0.12320	0.22769
0.12320	0.12566
0.17421	0.02363
0.14870	0.04914
0.14870	0.17668
0.12320	0.22769
0.19971	-0.00188
0.12320	0.10015
0.14870	0.12566
0.09770	0.04914
0.04670	0.02363
0.09770	0.20219
0.09770	0.20219
0.09770	0.22769
0.09770	0.25320
0.09770	0.30422
0.19971	0.27871
0.12320	0.15117
0.09770	0.07465
0.22521	0.15117
0.19971	0.32972
0.12320	0.17668
0.14870	-0.12942
0.17421	-0.25695
0.17421	0.17668
0.07220	0.40625
0.12320	0.38074
0.17421	0.20219
0.22521	0.10015
0.07220	0.17668
0.12320	0.48277
0.19971	0.10015
0.14870	0.15117
0.07220	-0.61406
0.17421	0.48277
0.22521	0.32972
0.22521	0.25320
0.09770	0.22769
0.12320	0.15117
0.12320	0.30422
0.07220	0.30422
0.14870	-0.20594
0.22521	-0.25695
0.12320	0.25320
0.19971	0.35523
0.09770	-0.23145
0.09770	0.61031
0.22521	0.45726
0.19971	0.22769
0.12320	0.22769
0.09770	0.10015
0.09770	0.04914
0.14870	0.15117
0.22521	0.12566
0.14870	0.15117
0.14870	-0.05289
0.09770	-0.05289
0.09770	0.17668
0.17421	0.20219
0.19971	0.20219
0.17421	0.12566
0.17421	0.07465
0.17421	0.10015
0.14870	-0.15492
0.17421	0.20219
0.17421	0.32972
0.07220	0.27871
0.12320	0.32972
0.14870	0.22769
0.14870	0.15117
0.12320	0.15117
0.17421	-0.00188
0.19971	0.10015
0.19971	0.45726
0.17421	0.20219
0.19971	0.22769
0.14870	-0.00188
0.14870	-0.02739
0.07220	0.22769
0.12320	0.20219
0.12320	0.10015
0.17421	-0.00188
0.22521	0.27871
0.14870	0.32972
0.12320	0.27871
0.17421	0.27871
0.14870	0.22769
0.17421	0.20219
0.12320	0.32972
0.19971	0.12566
0.19971	-0.46102
0.12320	-0.76711
0.17421	0.40625
0.12320	0.53379
0.22521	0.50828
0.17421	0.25320
0.14870	0.25320
0.07220	0.04914
0.07220	0.12566
0.12320	0.17668
0.14870	0.22769
0.17421	0.10015
0.22521	-0.20594
0.12320	0.17668
0.09770	-0.20594
0.12320	-0.05289
0.14870	0.35523
0.19971	0.35523
0.14870	0.35523
0.04670	0.27871
0.04670	0.50828
0.12320	-0.05289
0.14870	0.07465
0.14870	-0.00188
0.19971	0.15117
0.14870	0.15117
0.14870	0.22769
0.12320	0.15117
0.09770	0.15117
0.17421	0.15117
0.19971	0.22769
0.17421	-0.05289
0.14870	0.12566
0.14870	0.22769
0.07220	0.17668
0.12320	0.10015
0.09770	-0.51203
0.14870	0.00000
0.09770	0.22769
0.04670	0.35523
0.04670	0.35523
0.07220	0.22769
0.07220	-0.18043
0.09770	0.04914
0.17421	0.30422
0.19971	0.25320
0.25071	0.20219
0.19971	0.32972
0.19971	0.20219
0.22521	-0.05289
0.12320	-0.30797
0.14870	0.20219
0.14870	0.35523
0.09770	0.17668
0.12320	0.17668
0.17421	0.22769
0.19971	0.27871
0.12320	-0.18043
0.22521	0.15117
0.09770	0.12566
0.17421	0.10015
0.17421	0.22769
0.17421	0.10015
0.07220	0.12566
0.12320	0.04914
0.19971	0.20219
0.17421	0.53379
0.19971	0.20219
0.17421	0.17668
0.12320	-0.12942
0.09770	-0.00188
0.14870	0.22769
0.22521	0.27871
0.22521	0.22769
0.17421	0.12566
0.09770	0.10015
0.07220	0.32972
0.14870	0.22769
0.19971	-0.10391
0.17421	-0.46102
0.17421	0.35523
0.12320	0.38074
0.17421	0.35523
0.07220	0.25320
0.17421	0.27871
0.22521	0.35523
0.22521	0.17668
0.12320	-0.63957
0.09770	0.10015
0.07220	0.25320
0.09770	0.27871
0.19971	0.50828
0.22521	0.25320
0.17421	-0.07840
0.12320	-0.51203
0.09770	0.07465
0.17421	0.40625
0.22521	0.32972
0.19971	0.38074
0.17421	0.27871
0.12320	0.20219
0.14870	0.17668
0.17421	-0.18043
0.12320	-0.07840
0.14870	0.15117
0.12320	0.38074
0.09770	0.32972
0.04670	0.20219
0.12320	0.12566
0.12320	-0.00188
0.25071	0.07465
0.19971	0.15117
0.27621	0.20219
0.14870	0.10015
0.22521	0.15117
0.14870	0.10015
0.04670	0.07465
0.07220	0.07465
0.07220	0.22769
0.12320	0.07465
0.12320	0.10015
0.14870	0.17668
0.19971	0.15117
0.25071	0.25320
0.22521	0.25320
0.25071	0.25320
0.25071	0.15117
0.19971	0.17668
0.17421	0.25320
0.19971	0.10015
0.17421	0.17668
0.19971	0.30422
0.12320	0.27871
0.14870	0.15117
0.19971	-0.10391
0.22521	0.17668
0.19971	0.30422
0.12320	0.10015
0.12320	0.20219
0.04670	0.22769
0.14870	-0.00188
0.19971	-0.30797
0.25071	0.38074
0.09770	-0.10391
0.09770	-0.35899
0.17421	0.55929
0.17421	0.50828
0.14870	0.35523
0.19971	-0.46102
0.19971	0.20219
0.19971	0.48277
0.19971	0.25320
0.25071	0.20219
0.27621	0.22769
0.25071	0.20219
0.22521	0.10015
0.12320	-0.02739
0.12320	-0.00188
0.12320	0.12566
0.07220	-0.02739
0.07220	0.04914
0.07220	-0.28246
0.07220	0.22769
0.17421	0.02363
0.14870	0.40625
0.19971	0.38074
0.19971	0.35523
0.14870	0.17668
0.12320	-0.02739
0.14870	0.15117
0.19971	0.10015
0.17421	0.27871
0.22521	-0.05289
0.19971	0.50828
0.22521	0.27871
0.22521	0.20219
0.12320	-0.30797
0.12320	0.15117
0.12320	0.40625
0.12320	0.35523
0.09770	0.20219
0.12320	-0.10391
0.12320	-0.12942
0.22521	0.40625
0.12320	0.89089
0.12320	-0.00188
0.12320	-0.07840
0.14870	0.43176
0.17421	0.40625
0.09770	-0.15492
0.12320	0.25320
0.19971	0.20219
0.12320	0.12566
0.14870	0.30422
0.12320	0.10015
0.19971	0.17668
0.14870	-0.30797
0.17421	-1.71090
0.12320	0.40625
0.14870	0.86539
0.19971	0.99292
0.14870	0.53379
0.19971	-0.61406
0.22521	-0.76711
0.19971	1.55410
0.14870	1.37554
0.17421	-1.25176
0.17421	0.20219
0.19971	-0.12942
0.14870	0.76336
0.12320	0.63582
0.09770	0.22769
0.27621	-0.86914
0.22521	-1.32828
0.17421	0.17668
0.07220	1.06945
0.09770	0.38074
0.12320	0.25320
-0.00431	-0.84363
0.17421	1.06945
0.12320	0.48277
0.19971	0.68683
0.19971	-1.17523
0.17421	-1.09871
0.19971	0.86539
0.32721	0.17668
0.25071	0.83988
0.17421	0.43176
0.07220	0.48277
-0.02981	0.61031
0.07220	-0.51203
0.12320	-0.81812
0.17421	0.02363
0.22521	0.76336
0.25071	0.04914
0.09770	0.40625
0.12320	0.12566
0.12320	0.20219
0.12320	-0.66508
0.07220	-0.94566
0.04670	1.37554
0.02119	-0.86914
0.14870	0.66132
0.22521	0.55929
0.32721	0.66132
0.14870	0.12566
0.25071	0.12566
0.04670	-0.05289
0.07220	0.50828
0.27621	-0.63957
0.35272	0.91640
0.07220	-0.25695
0.09770	0.83988
0.09770	1.09496
-0.36133	-0.35899
0.30171	-2.37410
0.53123	-0.28246
0.35272	0.68683
0.07220	0.35523
-0.15732	0.63582
-0.23382	-0.46102
-0.08081	0.83988
0.37822	1.65613
0.22521	-0.18043
0.19971	-0.56305
0.22521	-0.92016
0.17421	0.30422
0.07220	0.86539
0.04670	-0.53754
0.14870	1.24800
0.12320	-0.28246
0.12320	0.83988
-0.00431	0.66132
0.14870	-0.35899
0.12320	0.45726
0.25071	-0.20594
0.30171	0.50828
0.22521	0.38074
0.17421	0.20219
0.04670	-1.30277
0.07220	-0.43551
-0.15732	0.12566
0.07220	1.06945
-0.02981	1.17148
0.53123	0.15117
0.30171	-0.43551
0.25071	0.04914
-0.08081	0.10015
-0.10631	0.27871
0.32721	-0.10391
0.35272	0.91640
-0.00431	-0.48652
0.12320	0.48277
0.09770	0.12566
0.25071	0.48277
0.25071	0.04914
0.22521	0.76336
0.19971	-0.46102
0.17421	0.55929
0.12320	-0.23145
0.07220	0.81437
0.17421	-0.76711
0.25071	-0.07840
0.25071	-1.35379
0.27621	0.61031
0.14870	0.94191
0.02119	1.29902
0.09770	1.57960
-0.02981	0.32972
0.09770	-0.56305
0.12320	-0.86914
0.12320	-0.30797
0.19971	-0.05289
0.14870	0.58480
0.09770	-0.25695
0.25071	0.12566
0.25071	0.53379
0.22521	-0.10391
0.07220	0.71234
0.02119	-1.88945
0.14870	0.10015
0.12320	-1.32828
0.14870	0.61031
0.02119	1.47757
0.27621	1.70714
0.37822	0.27871
0.17421	-0.00188
0.04670	-0.02739
0.12320	0.32972
-0.18282	0.38074
-0.05531	-1.48133
0.25071	0.04914
0.37822	0.22769
0.30171	0.53379
0.19971	-1.07320
0.14870	0.50828
0.12320	1.29902
-0.02981	-0.05289
0.14870	-0.84363
0.12320	0.71234
0.07220	0.35523
-0.00431	1.06945
0.30171	-2.29757
0.25071	0.43176
0.19971	0.63582
0.17421	1.12046
0.25071	-0.12942
0.07220	0.32972
-0.02981	0.58480
0.07220	0.83988
0.22521	0.12566
0.12320	0.38074
0.07220	-0.05289
0.19971	-0.97117
0.27621	-1.48133
0.25071	-0.15492
0.22521	0.78886
0.12320	0.76336
0.07220	0.43176
0.02119	0.61031
0.19971	0.58480
0.17421	0.25320
0.14870	0.15117
0.09770	-0.10391
0.17421	0.22769
0.22521	0.32972
0.14870	-0.58856
-0.08081	-0.18043
0.19971	0.45726
0.42922	0.78886
0.02119	-1.73640
0.04670	0.43176
0.07220	0.81437
0.22521	0.71234
0.27621	0.83988
0.27621	0.63582
0.19971	-0.15492
0.07220	0.04914
-0.13181	-0.05289
0.07220	0.15117
0.17421	-0.30797
0.25071	0.83988
0.12320	-1.17523
0.25071	0.32972
0.19971	-0.35899
0.27621	0.25320
0.22521	0.27871
0.12320	0.30422
0.17421	0.07465
0.02119	-0.00188
-0.13181	0.07465
0.14870	0.76336
0.12320	0.22769
0.04670	0.68683
0.50573	-0.74160
0.42922	0.43176
0.27621	0.61031
0.07220	-1.12422
0.02119	-0.25695
-0.13181	0.76336
-0.10631	0.58480
0.12320	0.50828
0.22521	0.25320
0.22521	-0.20594
0.25071	0.96742
0.27621	-1.91496
0.22521	0.48277
-0.08081	0.32972
0.30171	1.47757
0.32721	-1.02219
-0.00431	0.27871
0.02119	0.50828
0.12320	0.58480
0.22521	0.76336
0.25071	0.66132
0.27621	-0.53754
0.25071	-0.33348
0.17421	-0.33348
0.12320	-0.07840
0.07220	0.17668
-0.02981	0.04914
0.14870	0.43176
0.27621	-0.35899
0.19971	0.32972
0.12320	-0.12942
0.14870	0.25320
0.19971	0.30422
0.17421	-0.15492
0.07220	-0.41000
-0.02981	0.22769
0.09770	0.55929
0.12320	0.96742
0.14870	0.20219
-0.00431	0.89089
0.27621	-0.69059
0.14870	0.17668
0.07220	0.07465
0.12320	0.86539
0.07220	-1.50683
-0.00431	0.63582
0.14870	0.78886
0.12320	-0.02739
0.22521	0.45726
0.22521	0.71234
0.27621	-0.30797
0.25071	-0.15492
0.17421	-1.17523
0.14870	0.48277
0.22521	0.50828
0.22521	0.45726
0.22521	0.38074
0.22521	0.02363
0.19971	0.30422
0.17421	0.15117
0.17421	0.83988
0.27621	0.22769
0.25071	0.25320
0.14870	-1.53234
0.17421	-0.33348
0.22521	0.96742
0.19971	0.17668
0.12320	0.50828
-0.02981	0.40625
0.35272	1.40105
0.50573	-1.58336
0.27621	-0.89465
0.19971	0.96742
-0.05531	0.61031
0.02119	0.89089
0.17421	0.32972
0.12320	-0.20594
0.09770	-0.41000
0.14870	0.15117
0.22521	0.07465
0.19971	0.48277
0.17421	-0.20594
0.19971	0.27871
0.22521	0.20219
0.17421	-0.05289
0.09770	-0.10391
-0.02981	0.12566
0.14870	0.83988
0.12320	-0.58856
0.22521	0.89089
0.19971	-0.02739
0.22521	-0.25695
0.32721	0.43176
-0.00431	0.32972
-0.02981	0.15117
0.09770	-0.79262
0.19971	1.47757
0.17421	1.01843
0.02119	0.10015
0.09770	0.25320
0.35272	-1.30277
0.27621	-0.15492
0.12320	-0.38449
0.12320	0.02363
0.19971	0.48277
0.17421	0.07465
0.14870	0.20219
0.12320	0.15117
0.19971	0.68683
0.22521	0.43176
0.25071	-0.28246
0.22521	0.55929
0.17421	-0.76711
0.17421	1.45206
0.12320	-2.85874
0.14870	1.57960
0.07220	0.58480
0.12320	-0.10391
-0.02981	0.07465
0.32721	0.63582
0.42922	0.12566
0.19971	0.45726
0.09770	-0.20594
0.14870	1.06945
0.12320	-0.53754
-0.00431	0.07465
0.04670	0.35523
0.14870	0.12566
0.14870	0.02363
0.22521	0.12566
0.14870	0.45726
0.19971	0.38074
0.09770	-0.25695
0.12320	-0.05289
0.22521	0.15117
0.17421	-0.23145
0.09770	0.17668
0.09770	0.27871
-0.00431	0.45726
0.27621	0.12566
0.30171	0.20219
0.19971	0.48277
0.02119	0.63582
0.02119	0.71234
0.25071	-0.89465
0.25071	-1.04770
0.09770	-0.00188
-0.00431	-0.20594
0.12320	0.71234
0.25071	0.76336
0.40372	0.55929
0.19971	0.30422
0.09770	-0.12942
0.07220	0.02363
-0.13181	-0.10391
0.35272	-0.10391
0.30171	0.40625
0.09770	-1.94047
0.09770	1.47757
0.14870	0.43176
0.19971	-0.15492
0.25071	0.83988
0.09770	0.50828
0.07220	0.10015
-0.05531	-0.15492
-0.02981	0.02363
0.32721	0.45726
0.42922	0.45726
0.09770	-1.30277
0.09770	-0.20594
0.04670	-0.00188
0.12320	0.53379
0.22521	-0.00188
0.07220	1.14597
0.04670	-0.71609
0.17421	0.61031
0.14870	0.40625
0.14870	0.40625
0.32721	-0.58856
0.22521	0.15117
0.17421	-0.00188
0.09770	0.58480
0.07220	-0.35899
0.09770	-0.25695
0.07220	0.17668
0.17421	0.45726
0.19971	0.40625
0.19971	-0.07840
0.02119	0.25320
-0.02981	-0.05289
0.27621	0.35523
0.25071	-0.02739
0.25071	0.55929
0.22521	0.22769
-0.08081	0.45726
0.17421	-0.53754
0.12320	-0.28246
0.17421	0.30422
0.14870	0.53379
0.12320	0.48277
0.12320	-0.10391
0.04670	0.20219
0.19971	0.30422
0.14870	-0.28246
0.14870	1.12046
0.12320	-0.56305
0.19971	0.50828
0.22521	-1.17523
0.22521	0.55929
0.27621	0.76336
0.04670	0.40625
0.12320	-0.07840
0.19971	-0.23145
0.09770	0.40625
0.09770	0.76336
0.17421	0.43176
0.19971	-0.05289
0.19971	-0.12942
0.19971	0.17668
0.14870	0.27871
0.02119	0.25320
0.14870	-0.69059
0.14870	-0.12942
0.27621	0.73785
0.19971	-0.46102
-0.05531	-0.00188
-0.13181	0.30422
0.53123	0.50828
0.40372	0.89089
-0.02981	0.40625
0.19971	1.01843
0.25071	-0.07840
0.22521	-0.28246
0.04670	-0.63957
-0.10631	-0.28246
0.07220	0.91640
0.12320	-0.63957
0.22521	0.53379
0.30171	-0.18043
0.25071	0.40625
0.19971	0.25320
0.14870	0.15117
0.12320	0.30422
0.14870	0.38074
0.14870	-0.58856
0.19971	0.30422
0.14870	0.43176
0.17421	-0.23145
0.17421	0.30422
0.12320	-0.05289
0.19971	0.15117
0.14870	0.10015
0.19971	0.55929
0.07220	-0.18043
0.09770	0.30422
0.07220	1.27351
0.14870	-0.00188
0.22521	-0.58856
0.19971	-0.46102
0.12320	0.32972
0.22521	0.07465
0.09770	0.32972
-0.00431	0.55929
0.27621	-0.12942
0.14870	-0.23145
0.07220	0.04914
0.04670	0.35523
0.25071	0.20219
0.19971	0.07465
0.27621	-0.20594
0.09770	0.63582
0.02119	0.43176
0.32721	-0.00188
0.17421	0.10015
0.09770	-0.89465
0.17421	0.43176
-0.02981	0.45726
-0.02981	0.10015
0.22521	0.12566
0.40372	0.58480
0.02119	0.25320
0.17421	0.43176
0.09770	0.04914
0.07220	-0.07840
0.07220	0.15117
0.22521	-0.35899
0.14870	0.45726
0.22521	-0.46102
0.22521	0.35523
0.12320	-0.12942
0.12320	0.43176
0.17421	-0.12942
0.17421	-0.10391
0.17421	0.30422
0.17421	0.07465
0.09770	0.12566
0.12320	0.73785
0.12320	0.40625
0.09770	-0.10391
0.19971	-0.46102
0.27621	0.68683
0.19971	0.15117
0.19971	0.61031
0.04670	0.12566
0.12320	-0.02739
0.14870	-0.33348
0.17421	0.17668
0.17421	0.61031
0.17421	-0.20594
0.09770	0.25320
0.07220	0.25320
0.22521	-0.23145
0.22521	0.02363
0.25071	0.35523
0.07220	0.20219
0.02119	0.30422
0.14870	-0.28246
0.27621	-0.05289
0.22521	0.25320
0.14870	0.55929
0.17421	0.10015
0.19971	0.58480
0.07220	0.22769
0.02119	0.15117
0.25071	0.15117
0.17421	-0.94566
0.02119	-0.02739
0.19971	-0.00188
0.25071	0.91640
0.27621	0.86539
0.22521	0.27871
-0.15732	0.30422
0.07220	-0.30797
0.02119	-0.00188
0.40372	0.07465
0.14870	0.20219
0.09770	0.20219
0.09770	-0.33348
0.09770	0.07465
0.19971	0.22769
0.17421	0.10015
0.12320	0.04914
0.07220	0.53379
0.07220	0.10015
0.25071	0.12566
0.17421	0.04914
0.19971	-0.00188
0.14870	0.02363
0.12320	0.22769
0.07220	0.20219
0.12320	0.73785
0.09770	0.35523
0.14870	-0.97117
0.09770	-0.05289
0.22521	0.27871
0.19971	0.71234
0.09770	0.55929
0.09770	-0.07840
0.17421	-0.02739
0.12320	0.22769
0.19971	0.20219
0.19971	-0.10391
0.17421	-0.20594
0.22521	0.20219
-0.15732	-0.15492
0.14870	0.15117
0.04670	0.15117
0.17421	0.27871
0.17421	0.22769
0.19971	0.32972
0.19971	-0.33348
0.25071	0.32972
0.19971	0.10015
0.02119	0.63582
0.12320	0.17668
0.12320	0.40625
0.12320	-0.48652
0.02119	0.15117
0.09770	0.30422
0.14870	0.17668
0.30171	0.55929
0.17421	-0.38449
0.17421	-0.38449
0.17421	0.20219
0.19971	0.81437
0.22521	-0.51203
-0.00431	0.66132
-0.23382	0.38074
0.48022	0.58480
0.53123	0.17668
0.02119	0.10015
0.12320	0.02363
0.04670	-0.20594
0.22521	-0.56305
0.19971	0.27871
0.14870	0.50828
0.02119	0.27871
0.19971	0.10015
0.19971	0.20219
0.14870	-0.33348
0.07220	0.50828
0.50573	0.76336
-0.02981	0.15117
0.17421	0.30422
0.14870	0.35523
-0.02981	-0.28246
0.14870	-0.10391
0.09770	-0.30797
0.19971	0.35523
0.25071	0.07465
0.22521	0.68683
0.19971	-0.05289
0.07220	0.02363
-0.02981	0.43176
-0.00431	-0.15492
0.12320	-0.00188
0.14870	0.45726
0.17421	-0.41000
0.22521	0.17668
0.30171	-0.00188
0.22521	0.32972
0.09770	-0.10391
0.09770	0.15117
0.14870	0.20219
0.12320	0.20219
0.17421	0.35523
0.22521	0.25320
0.12320	-0.05289
0.09770	0.38074
0.17421	0.17668
0.12320	-0.46102
0.14870	0.32972
0.27621	0.15117
0.09770	0.55929
0.12320	-0.30797
0.12320	0.12566
0.09770	-0.00188
0.09770	0.20219
0.17421	0.58480
-0.08081	0.22769
0.40372	0.20219
0.63323	-0.05289
0.12320	-0.05289
0.02119	1.12046
0.02119	-0.53754
-0.05531	-0.61406
-0.05531	0.04914
0.17421	0.32972
-0.10631	0.12566
0.32721	0.32972
0.32721	0.58480
0.32721	0.43176
0.25071	-0.74160
0.07220	0.55929
0.12320	-0.02739
0.04670	0.45726
0.22521	-0.02739
-0.00431	0.45726
0.19971	0.53379
0.22521	0.10015
0.27621	0.07465
0.19971	0.25320
0.17421	0.15117
0.12320	-0.05289
0.12320	0.02363
0.19971	-0.38449
0.17421	-0.05289
0.14870	-0.05289
0.12320	0.58480
0.19971	0.50828
0.32721	0.32972
0.14870	0.02363
-0.08081	-0.28246
0.35272	0.43176
0.40372	0.22769
0.09770	0.45726
-0.00431	0.12566
-0.33583	-0.02739
0.22521	-0.07840
0.42922	0.25320
0.25071	0.68683
0.14870	0.17668
0.17421	0.04914
0.17421	-0.28246
0.12320	0.15117
0.14870	0.89089
-0.05531	-1.07320
0.17421	0.07465
0.17421	0.02363
0.17421	-0.20594
0.19971	0.38074
0.25071	0.53379
0.17421	0.68683
0.12320	-0.48652
0.02119	0.17668
0.07220	0.45726
0.22521	0.61031
0.27621	0.10015
0.17421	-0.63957
0.12320	0.10015
0.19971	0.38074
0.27621	0.12566
0.22521	0.15117
0.12320	-0.28246
0.09770	-0.20594
0.07220	0.32972
0.17421	0.35523
0.12320	-0.05289
0.14870	1.17148
0.12320	-0.58856
0.17421	0.66132
0.14870	-0.74160
0.22521	-0.12942
0.14870	0.68683
0.37822	0.63582
-0.08081	0.58480
0.07220	-0.02739
0.09770	0.55929
0.17421	-0.25695
0.17421	-0.05289
0.55673	0.25320
0.22521	0.15117
0.09770	0.17668
0.07220	0.25320
-0.05531	-0.07840
-0.02981	-0.25695
-0.00431	0.22769
0.19971	0.40625
0.27621	0.48277
0.19971	-0.38449
0.14870	-0.43551
0.09770	-0.69059
0.19971	0.53379
0.14870	0.35523
0.22521	0.78886
0.22521	0.55929
0.09770	-0.15492
0.12320	0.15117
0.12320	0.53379
0.12320	0.20219
0.09770	0.38074
0.30171	0.20219
0.19971	-0.25695
0.07220	0.04914
0.02119	0.12566
0.09770	0.38074
0.04670	-0.89465
0.17421	-0.25695
0.17421	0.32972
-0.13181	0.50828
0.35272	0.55929
0.30171	0.22769
0.27621	0.25320
0.17421	0.22769
0.14870	0.15117
0.12320	0.10015
0.02119	0.15117
0.12320	0.07465
0.12320	-0.28246
0.14870	0.25320
0.09770	1.12046
0.14870	-0.38449
0.25071	-0.10391
0.14870	-0.35899
0.09770	0.94191
0.02119	0.07465
0.12320	0.68683
0.12320	-0.51203
0.02119	0.15117
0.17421	0.53379
0.14870	0.15117
-0.05531	0.02363
0.48022	0.61031
0.42922	-0.56305
0.09770	0.15117
-0.00431	0.45726
0.02119	0.35523
-0.08081	0.02363
-0.18282	0.30422
0.30171	0.38074
0.40372	-0.18043
0.32721	-0.43551
0.32721	0.35523
-0.02981	0.25320
0.14870	1.06945
0.14870	0.04914
0.12320	0.04914
0.12320	-0.43551
0.19971	0.45726
0.12320	0.55929
0.27621	1.47757
0.17421	-0.84363
0.17421	-0.00188
0.12320	-0.30797
0.12320	0.02363
0.14870	0.30422
0.22521	0.45726
0.12320	0.43176
0.12320	0.43176
0.12320	0.02363
0.12320	0.17668
0.09770	-0.07840
0.14870	-0.25695
0.07220	-0.07840
0.17421	0.20219
0.22521	-0.00188
0.09770	0.22769
0.12320	0.61031
0.04670	0.12566
0.12320	0.25320
0.32721	-0.53754
0.27621	0.61031
0.19971	-0.18043
0.04670	0.50828
-0.05531	0.35523
0.35272	0.17668
0.40372	0.40625
0.09770	-0.20594
0.12320	0.15117
0.12320	-0.07840
0.22521	-0.56305
-0.05531	0.10015
0.30171	-0.30797
0.22521	0.81437
0.12320	0.58480
0.17421	0.02363
0.14870	0.30422
0.07220	0.20219
0.12320	0.30422
0.12320	0.50828
0.32721	-0.10391
0.30171	-0.05289
0.27621	0.07465
0.14870	-0.18043
0.04670	-0.46102
0.02119	0.50828
0.09770	0.89089
0.17421	-0.76711
0.22521	0.30422
0.09770	0.22769
0.12320	-0.02739
0.09770	0.38074
0.14870	0.48277
0.07220	0.38074
0.17421	0.12566
0.25071	0.38074
0.19971	-0.46102
0.14870	0.68683
0.02119	-0.99668
0.14870	-0.15492
0.32721	0.81437
0.32721	-0.12942
0.27621	0.20219
-0.28482	0.96742
0.17421	0.32972
0.14870	0.15117
0.17421	0.43176
0.22521	-0.23145
0.17421	-0.15492
0.07220	0.07465
0.12320	-0.10391
0.12320	0.17668
0.07220	-0.48652
0.07220	0.27871
0.07220	-0.00188
0.09770	0.35523
-0.00431	0.22769
-0.15732	-0.12942
0.58223	0.27871
0.53123	0.58480
0.17421	1.06945
0.14870	0.66132
0.12320	-0.25695
0.12320	-0.63957
0.04670	-0.30797
0.09770	0.55929
0.12320	0.50828
0.09770	0.27871
0.12320	-0.05289
0.32721	0.83988
0.19971	-0.46102
0.14870	0.15117
0.17421	0.17668
0.17421	0.38074
0.12320	-0.25695
0.09770	-0.05289
0.12320	0.25320
0.22521	0.02363
-0.10631	0.50828
0.07220	-0.69059
0.22521	0.53379
0.17421	0.78886
0.12320	-0.33348
0.04670	-0.30797
0.07220	0.40625
0.12320	0.12566
0.12320	0.07465
0.14870	0.20219
0.14870	0.04914
0.22521	0.89089
0.12320	-0.30797
0.32721	-0.23145
0.27621	-0.10391
0.22521	0.73785
0.14870	0.58480
-0.02981	0.04914
0.09770	0.17668
0.14870	0.02363
0.22521	0.04914
0.25071	0.35523
0.22521	0.30422
0.17421	0.04914
0.07220	-0.07840
0.07220	0.38074
0.12320	0.27871
0.04670	-0.66508
-0.00431	-0.18043
0.14870	-0.46102
0.17421	0.78886
0.07220	0.76336
0.09770	0.45726
0.58223	0.27871
0.42922	-0.18043
-0.18282	0.55929
0.07220	-0.15492
0.07220	0.15117
0.12320	0.53379
0.07220	0.15117
0.17421	-0.33348
0.14870	0.53379
0.17421	-0.02739
0.22521	-0.15492
0.22521	0.35523
0.14870	0.04914
0.12320	0.20219
0.02119	-0.10391
-0.00431	0.12566
0.14870	0.22769
0.22521	0.76336
0.19971	-0.30797
0.32721	0.30422
0.19971	0.25320
0.12320	0.10015
0.04670	-0.71609
0.30171	0.22769
0.30171	0.25320
0.07220	0.55929
0.04670	0.25320
-0.00431	-0.00188
0.07220	0.15117
0.25071	0.27871
0.17421	0.38074
0.22521	0.04914
0.04670	0.32972
0.19971	-0.20594
0.19971	0.15117
0.19971	0.48277
0.25071	0.04914
0.40372	0.07465
0.12320	-0.00188
0.14870	-0.05289
0.19971	-0.10391
0.27621	0.71234
-0.00431	0.20219
0.07220	0.91640
0.07220	0.10015
0.09770	-0.15492
0.14870	-0.23145
0.17421	-0.33348
0.17421	0.68683
0.14870	0.66132
0.12320	-0.12942
0.25071	-0.00188
0.14870	0.04914
0.07220	0.25320
-0.10631	-0.07840
-0.05531	0.04914
0.55673	-0.02739
0.32721	0.12566
0.02119	0.38074
0.22521	0.66132
0.12320	0.30422
0.02119	-1.07320
0.14870	0.35523
0.22521	0.78886
0.12320	-0.48652
0.09770	0.25320
0.14870	0.66132
0.22521	0.83988
0.32721	0.55929
-0.20832	-1.20074
0.22521	0.10015
0.35272	0.63582
0.14870	0.12566
0.09770	0.20219
0.22521	0.04914
0.22521	-0.02739
0.22521	-0.18043
0.19971	0.32972
0.14870	-0.18043
0.12320	0.30422
0.14870	-0.12942
0.17421	0.04914
0.14870	0.30422
0.04670	0.45726
0.04670	0.30422
0.14870	0.45726
0.07220	-0.00188
0.40372	0.45726
0.17421	-0.56305
0.12320	0.20219
0.07220	0.43176
0.25071	0.15117
0.25071	0.25320
0.12320	0.25320
-0.00431	-1.22625
0.14870	0.83988
0.12320	0.71234
0.19971	0.25320
0.17421	0.22769
0.27621	-0.92016
0.02119	0.25320
-0.15732	0.55929
0.12320	0.10015
0.40372	0.02363
0.04670	-0.20594
0.14870	0.22769
-0.18282	0.55929
0.30171	-0.15492
0.25071	0.04914
0.12320	0.15117
0.07220	0.10015
0.30171	0.04914
0.09770	0.40625
0.17421	0.22769
-0.00431	0.35523
-0.05531	-0.15492
0.22521	-0.33348
0.27621	-0.92016
0.12320	0.15117
0.12320	0.50828
0.17421	0.78886
0.22521	0.17668
0.12320	0.48277
0.14870	0.32972
0.09770	0.53379
0.07220	0.22769
0.17421	-0.61406
0.17421	-0.38449
0.07220	0.55929
0.22521	-1.02219
0.27621	0.66132
0.19971	0.12566
0.02119	0.58480
-0.02981	0.53379
0.14870	-0.15492
0.22521	0.10015
0.17421	0.15117
0.14870	0.12566
-0.00431	-0.23145
0.25071	0.15117
0.35272	0.22769
0.19971	0.63582
-0.13181	-0.02739
0.14870	-0.12942
0.22521	0.76336
0.17421	-0.74160
0.22521	0.58480
0.12320	0.17668
0.14870	0.66132
0.22521	-0.46102
0.14870	0.45726
0.27621	0.61031
0.04670	0.27871
-0.08081	0.17668
0.17421	0.25320
0.48022	0.07465
0.14870	-0.15492
-0.00431	-0.18043
0.12320	-0.15492
0.17421	-0.18043
0.25071	0.04914
0.14870	0.58480
0.09770	0.63582
0.09770	0.02363
0.12320	0.07465
0.02119	0.04914
-0.00431	0.50828
0.32721	0.04914
0.14870	-0.12942
0.22521	0.43176
0.12320	0.25320
0.32721	0.15117
0.17421	0.27871
0.12320	0.35523
0.17421	0.55929
0.12320	-0.71609
0.07220	-0.41000
0.22521	0.32972
-0.08081	0.91640
0.14870	-0.23145
0.22521	0.04914
0.32721	0.55929
0.22521	0.35523
0.22521	-0.02739
-0.00431	-0.10391
-0.02981	0.25320
0.09770	0.58480
0.19971	-0.10391
0.22521	0.04914
0.19971	0.55929
0.14870	-0.00188
0.12320	-0.00188
0.02119	-0.41000
0.07220	0.20219
0.12320	-0.18043
0.07220	0.43176
0.14870	0.48277
0.22521	0.50828
0.27621	0.22769
0.27621	0.12566
0.17421	0.22769
-0.13181	-0.02739
0.42922	0.04914
0.19971	0.20219
-0.15732	-0.10391
-0.00431	0.02363
0.07220	-0.61406
0.14870	1.12046
0.17421	-0.81812
0.19971	0.43176
0.19971	0.30422
0.25071	0.94191
0.22521	0.17668
0.22521	-0.00188
0.19971	0.32972
0.22521	0.12566
0.12320	-0.05289
0.30171	0.35523
-0.23382	-0.10391
0.17421	0.66132
0.09770	0.20219
0.25071	-0.66508
0.19971	0.22769
0.14870	-0.33348
0.19971	0.04914
0.19971	0.50828
0.19971	-0.12942
0.07220	0.53379
-0.05531	0.55929
0.04670	0.40625
0.17421	-0.18043
0.19971	-0.23145
0.12320	0.53379
0.12320	0.07465
0.04670	0.38074
0.27621	0.25320
0.17421	0.45726
0.04670	-0.38449
0.09770	0.07465
0.09770	0.48277
0.19971	0.20219
0.22521	0.48277
0.07220	-0.15492
0.12320	0.27871
0.14870	0.15117
0.22521	0.15117
0.27621	0.15117
0.22521	0.27871
0.22521	0.04914
0.22521	0.07465
0.17421	0.12566
0.14870	-0.51203
0.12320	0.53379
0.07220	0.66132
0.02119	-0.20594
0.17421	-0.02739
0.17421	0.35523
0.27621	-0.10391
-0.41233	0.66132
0.22521	0.38074
0.25071	0.15117
0.17421	0.07465
0.19971	-0.10391
0.22521	-0.99668
0.19971	-0.46102
0.22521	0.68683
0.14870	0.45726
0.19971	0.04914
0.17421	0.73785
-0.05531	0.73785
0.48022	0.25320
0.53123	-0.00188
0.02119	0.04914
0.04670	0.04914
0.14870	-0.12942
0.14870	0.25320
0.14870	0.10015
0.22521	0.15117
0.17421	0.32972
0.22521	0.35523
0.30171	0.20219
0.25071	0.10015
0.12320	-0.02739
0.02119	-0.02739
0.09770	0.53379
0.32721	0.71234
0.22521	-0.48652
0.19971	0.38074
0.19971	0.22769
0.22521	0.30422
0.12320	0.35523
0.02119	0.10015
0.04670	0.04914
0.04670	-1.25176
0.04670	0.32972
0.09770	-0.69059
0.09770	0.99292
0.22521	0.43176
-0.10631	0.53379
0.27621	-0.05289
0.19971	0.35523
0.25071	0.40625
0.22521	0.35523
0.07220	0.10015
0.12320	-0.10391
0.09770	-0.05289
0.22521	0.04914
0.14870	0.12566
0.14870	-0.07840
0.14870	0.27871
0.09770	0.20219
0.07220	0.12566
0.07220	-0.28246
0.14870	0.20219
0.09770	0.73785
0.12320	0.12566
0.22521	0.02363
0.19971	0.35523
0.12320	-0.28246
0.12320	0.40625
0.17421	0.25320
0.14870	0.53379
0.09770	-0.30797
0.09770	0.73785
0.04670	-2.17003
0.30171	0.78886
0.12320	1.37554
0.22521	0.71234
0.22521	-0.66508
0.22521	0.02363
0.19971	0.15117
0.17421	-0.33348
0.02119	0.86539
0.04670	-0.20594
0.04670	0.32972
0.07220	0.30422
0.07220	-0.18043
0.09770	0.20219
0.09770	0.35523
0.25071	0.15117
-0.13181	0.04914
0.17421	0.17668
0.12320	0.12566
0.30171	0.25320
0.17421	-0.58856
-0.02981	0.35523
0.25071	0.12566
0.12320	-0.33348
0.22521	0.15117
0.09770	0.32972
0.07220	0.61031
0.14870	0.25320
0.12320	-1.35379
0.14870	0.76336
0.12320	0.71234
0.17421	0.68683
0.22521	0.53379
0.22521	-0.28246
0.17421	-0.10391
0.17421	0.12566
0.14870	0.38074
0.12320	-0.02739
0.14870	-0.18043
0.07220	0.04914
-0.00431	0.10015
0.17421	0.27871
0.22521	0.50828
0.22521	0.35523
0.14870	0.10015
0.17421	-0.10391
0.19971	-0.28246
0.19971	0.02363
0.09770	0.45726
0.04670	0.27871
0.07220	-0.00188
0.09770	0.27871
0.09770	0.45726
0.25071	0.35523
0.25071	-0.71609
0.25071	0.02363
0.27621	0.10015
0.27621	-0.10391
-0.20832	0.40625
0.12320	0.35523
0.12320	0.17668
0.17421	0.27871
0.14870	-0.00188
0.14870	0.53379
0.14870	-0.33348
0.22521	0.32972
0.27621	0.63582
0.25071	-0.69059
0.12320	-0.71609
0.02119	0.45726
0.12320	0.20219
0.14870	0.20219
0.12320	0.27871
0.07220	0.22769
0.14870	0.15117
0.25071	0.25320
0.14870	-0.28246
0.17421	0.81437
0.22521	-0.30797
0.25071	-0.05289
0.19971	0.43176
0.17421	0.50828
0.19971	-0.12942
0.14870	0.04914
0.19971	-0.35899
0.27621	0.30422
0.12320	0.02363
0.19971	0.27871
0.09770	0.86539
-0.00431	0.12566
0.07220	0.20219
0.12320	0.50828
0.22521	0.94191
0.17421	-0.35899
0.17421	-0.30797
0.12320	-0.20594
0.12320	0.53379
0.17421	0.04914
0.17421	0.02363
0.09770	0.15117
-0.33583	-0.30797
0.17421	0.25320
0.22521	0.12566
0.35272	0.25320
0.22521	0.10015
0.22521	0.35523
-0.00431	0.38074
0.19971	0.17668
0.14870	0.45726
0.14870	-0.05289
0.12320	-0.66508
0.12320	0.12566
-0.00431	0.78886
0.17421	0.91640
0.27621	0.10015
0.25071	-0.20594
0.12320	-1.12422
0.09770	-0.18043
0.09770	0.61031
0.07220	1.04394
0.17421	0.76336
0.17421	0.04914
0.22521	0.04914
0.12320	-0.58856
0.12320	0.02363
0.14870	0.12566
0.17421	0.17668
0.12320	-0.05289
0.14870	0.10015
0.22521	0.40625
0.17421	-0.05289
0.22521	0.48277
0.17421	0.22769
0.17421	-0.02739
0.17421	-0.33348
0.09770	0.38074
0.19971	0.32972
0.19971	0.20219
0.19971	0.32972
0.17421	0.38074
0.19971	0.04914
0.14870	-0.12942
0.04670	0.02363
0.25071	0.73785
0.19971	0.91640
0.32721	-1.04770
0.30171	1.35003
0.19971	-0.66508
0.12320	0.27871
0.30171	0.73785
0.17421	1.01843
0.25071	0.43176
0.19971	-0.56305
0.12320	-0.76711
0.14870	0.55929
0.04670	0.40625
0.09770	0.38074
0.14870	0.07465
0.12320	0.40625
0.09770	-0.12942
0.07220	-0.07840
0.09770	0.22769
0.12320	0.25320
0.07220	-0.69059
0.12320	-0.10391
0.12320	0.53379
0.04670	0.48277
0.07220	0.10015
0.12320	0.15117
0.09770	0.38074
-0.05531	0.17668
0.07220	-0.02739
0.19971	0.10015
0.42922	-0.23145
-0.00431	0.30422
0.12320	0.40625
0.40372	0.27871
0.07220	0.20219
0.17421	0.30422
0.35272	0.10015
0.14870	0.38074
-0.00431	-0.69059
0.02119	0.66132
0.19971	0.63582
0.27621	0.22769
0.25071	-0.35899
0.25071	0.38074
0.17421	0.22769
0.19971	0.45726
0.22521	0.30422
0.17421	-0.15492
0.19971	0.32972
0.19971	0.15117
0.17421	0.22769
0.22521	0.15117
0.14870	0.25320
0.12320	-0.33348
-0.00431	0.17668
0.04670	-0.12942
0.12320	0.43176
0.14870	0.35523
0.07220	0.17668
-0.00431	0.15117
-0.05531	0.15117
0.25071	0.04914
0.14870	0.43176
0.25071	0.04914
0.22521	0.02363
0.09770	-0.02739
0.09770	1.01843
0.27621	-0.69059
0.25071	0.15117
0.17421	0.53379
0.19971	0.55929
0.19971	0.25320
0.25071	0.55929
0.35272	-0.05289
0.25071	0.15117
0.19971	-0.15492
0.17421	-0.05289
0.14870	0.12566
0.14870	0.15117
0.14870	0.55929
0.07220	0.17668
0.07220	-0.25695
0.12320	0.15117
0.14870	0.58480
0.17421	-0.18043
0.19971	-1.45582
0.17421	0.38074
0.14870	0.45726
0.17421	0.66132
0.17421	0.61031
0.07220	0.30422
0.02119	0.50828
0.19971	0.30422
0.22521	-0.15492
0.25071	0.55929
0.22521	-0.33348
0.04670	-0.66508
-0.02981	0.20219
0.17421	0.35523
0.17421	0.27871
0.19971	-0.15492
0.07220	0.15117
0.02119	0.02363
0.22521	0.22769
0.25071	0.15117
0.09770	0.10015
0.07220	0.30422
0.12320	0.04914
0.07220	0.38074
0.22521	-0.12942
0.22521	-0.20594
0.14870	0.02363
0.12320	0.35523
0.14870	0.53379
0.12320	0.50828
0.19971	0.07465
0.14870	-0.66508
0.07220	0.40625
-0.00431	-0.74160
0.02119	0.40625
0.07220	0.71234
0.17421	0.38074
0.22521	0.50828
0.25071	0.38074
0.25071	0.12566
0.19971	0.22769
0.12320	0.17668
0.07220	0.10015
0.19971	-0.92016
0.17421	0.17668
0.04670	-0.84363
0.14870	0.94191
0.25071	0.55929
0.22521	0.30422
0.19971	-0.12942
0.12320	0.32972
0.09770	0.25320
0.07220	0.32972
0.04670	0.07465
0.07220	0.02363
0.04670	-0.92016
0.19971	0.45726
0.19971	0.89089
0.22521	0.17668
0.14870	0.27871
0.12320	0.07465
0.22521	0.15117
0.22521	0.32972
0.14870	0.07465
0.02119	-0.12942
0.07220	0.12566
0.12320	0.15117
0.19971	-0.35899
0.14870	-0.00188
-0.15732	0.38074
0.35272	0.35523
0.27621	0.20219
0.22521	-0.00188
0.12320	1.35003
0.07220	-1.07320
0.04670	-0.43551
0.12320	0.43176
0.12320	-0.10391
0.12320	0.32972
0.14870	0.71234
0.12320	0.68683
0.12320	0.02363
0.12320	-0.69059
0.17421	0.04914
0.12320	0.45726
0.17421	0.38074
0.14870	0.02363
0.14870	0.38074
0.22521	-0.05289
0.22521	-0.41000
0.22521	0.15117
0.14870	-0.02739
0.12320	0.43176
0.04670	-0.12942
0.07220	0.45726
0.09770	0.07465
0.14870	0.12566
0.14870	0.27871
0.17421	0.43176
0.09770	0.76336
0.19971	-1.50683
0.17421	-0.00188
0.12320	0.89089
-0.23382	0.81437
0.12320	-0.07840
0.25071	0.45726
0.27621	0.43176
0.22521	0.25320
0.27621	0.15117
0.22521	-0.20594
0.12320	-0.25695
0.02119	0.04914
0.12320	-0.02739
0.14870	0.10015
0.12320	0.53379
0.04670	0.15117
0.07220	0.02363
0.12320	0.07465
0.25071	0.27871
0.17421	0.32972
0.09770	0.55929
0.25071	0.32972
0.12320	0.10015
0.25071	-0.25695
0.17421	0.76336
0.19971	-0.79262
0.09770	0.43176
0.14870	0.91640
0.17421	-0.05289
0.12320	0.27871
0.14870	-0.97117
0.12320	1.17148
0.02119	0.38074
0.14870	-0.23145
0.25071	-0.12942
0.17421	0.55929
0.22521	0.50828
0.17421	0.40625
0.12320	0.10015
0.14870	-0.02739
0.25071	-0.66508
0.04670	-0.07840
-0.05531	0.27871
0.12320	0.30422
0.12320	0.20219
0.19971	0.17668
0.32721	0.22769
-0.08081	0.12566
0.30171	0.32972
0.30171	0.35523
0.19971	0.53379
0.22521	0.17668
0.19971	-0.51203
-0.02981	0.10015
0.07220	0.15117
0.09770	0.94191
0.17421	-0.56305
0.22521	0.20219
0.25071	0.17668
0.17421	-0.10391
0.09770	0.66132
0.22521	0.32972
0.17421	-0.00188
0.19971	0.12566
0.14870	0.22769
0.09770	0.27871
0.25071	-0.28246
0.27621	0.45726
0.17421	0.04914
0.19971	0.32972
0.14870	-0.41000
-0.00431	-0.07840
0.12320	0.66132
0.27621	0.04914
0.25071	-0.30797
0.17421	0.35523
0.12320	0.45726
0.19971	0.15117
0.19971	0.22769
-0.02981	-0.07840
0.04670	-0.02739
0.07220	0.17668
0.19971	0.22769
0.25071	-0.58856
0.04670	-0.02739
0.22521	0.32972
0.17421	0.07465
0.35272	0.04914
0.17421	0.83988
0.14870	0.61031
0.17421	0.38074
0.09770	0.22769
0.09770	-0.35899
0.12320	0.22769
0.04670	0.20219
0.07220	0.04914
0.12320	-0.74160
0.19971	-0.53754
0.19971	0.48277
0.04670	0.27871
0.12320	0.68683
0.07220	0.40625
0.12320	0.12566
0.04670	-0.56305
0.12320	0.22769
0.19971	0.35523
0.14870	0.53379
0.22521	0.35523
0.19971	0.10015
0.22521	-0.41000
0.19971	0.20219
0.19971	0.20219
0.19971	0.40625
0.12320	0.68683
0.22521	0.40625
0.30171	-0.28246
0.35272	-0.66508
-0.00431	1.14597
0.27621	-0.25695
0.27621	0.40625
0.30171	0.43176
0.25071	0.32972
0.12320	0.22769
0.17421	0.12566
0.22521	0.12566
0.09770	0.10015
0.19971	0.38074
0.14870	-0.02739
0.14870	-0.25695
0.12320	0.30422
0.19971	0.22769
0.22521	-0.07840
0.04670	0.38074
0.04670	0.40625
-0.02981	0.35523
0.25071	0.55929
0.27621	-0.18043
0.30171	-0.05289
0.19971	0.12566
0.14870	-0.58856
0.07220	-0.30797
0.04670	1.55410
0.07220	-0.56305
0.14870	0.50828
0.25071	0.45726
0.12320	0.20219
0.14870	0.07465
0.09770	0.15117
0.02119	0.20219
0.09770	-0.00188
0.09770	-0.38449
0.04670	-0.56305
0.14870	0.25320
0.17421	0.43176
0.17421	0.07465
0.19971	0.40625
0.09770	0.10015
0.22521	0.22769
0.17421	0.35523
0.12320	0.15117
-0.38683	-0.23145
0.14870	-0.51203
0.17421	0.40625
0.12320	0.38074
0.19971	0.50828
0.19971	0.25320
0.12320	-0.15492
0.19971	0.53379
0.22521	0.30422
0.09770	0.02363
0.09770	0.25320
0.09770	0.35523
0.07220	-0.12942
0.12320	-1.32828
0.19971	0.78886
0.09770	0.43176
0.09770	0.25320
0.14870	0.35523
0.30171	0.15117
0.04670	0.27871
0.09770	0.07465
0.07220	0.15117
0.04670	0.17668
0.12320	0.02363
0.09770	-0.43551
0.07220	0.10015
0.12320	-0.02739
0.14870	0.48277
0.17421	0.40625
0.04670	-0.38449
0.04670	0.27871
0.22521	0.45726
0.12320	0.38074
0.09770	0.45726
0.04670	-0.30797
0.12320	-0.61406
0.22521	0.30422
0.25071	0.63582
0.17421	0.55929
-0.02981	0.25320
0.12320	0.35523
0.22521	-0.76711
0.19971	0.15117
0.19971	0.30422
0.22521	0.32972
0.17421	0.25320
0.25071	0.22769
0.22521	0.12566
0.17421	-0.02739
0.07220	0.22769
0.17421	0.12566
0.14870	0.10015
0.09770	0.10015
0.14870	0.35523
0.22521	0.04914
0.14870	-0.61406
0.04670	0.55929
0.12320	0.22769
0.14870	0.15117
0.17421	0.22769
0.12320	0.32972
0.02119	0.83988
0.04670	-0.15492
0.12320	-1.04770
0.09770	-0.38449
0.02119	0.50828
0.17421	0.58480
0.14870	0.20219
0.17421	-0.02739
0.14870	0.25320
0.25071	-0.00188
0.22521	0.71234
0.12320	-1.32828
-0.13181	0.32972
0.12320	0.07465
0.12320	0.35523
0.19971	0.38074
0.30171	0.25320
0.19971	0.27871
0.22521	0.25320
0.19971	0.20219
0.12320	0.32972
0.07220	-0.00188
0.12320	0.20219
0.14870	-0.38449
0.12320	0.45726
0.12320	0.43176
0.19971	-0.10391
0.14870	-0.10391
0.19971	0.55929
0.17421	0.20219
0.12320	-0.00188
0.09770	-0.18043
0.09770	0.04914
0.12320	0.71234
0.09770	0.45726
0.17421	-0.05289
0.22521	-0.38449
0.12320	-0.15492
0.02119	0.43176
0.22521	0.40625
0.22521	0.25320
0.09770	0.20219
0.09770	0.12566
0.14870	0.22769
0.17421	0.04914
0.02119	-0.02739
0.32721	-0.00188
0.30171	0.78886
0.02119	-0.79262
0.09770	0.27871
