0.22521	0.25320
0.17421	0.12566
0.07220	0.02363
0.14870	0.10015
0.22521	0.20219
0.07220	0.15117
0.12320	0.15117
0.19971	0.27871
0.17421	0.20219
0.09770	0.17668
0.12320	0.04914
0.22521	0.30422
0.14870	0.15117
0.07220	0.12566
0.14870	0.30422
0.19971	-0.43551
0.09770	0.15117
0.17421	0.40625
0.12320	0.32972
0.12320	0.17668
0.09770	0.17668
0.12320	0.20219
0.22521	0.12566
0.07220	0.10015
0.12320	0.04914
0.14870	0.20219
0.14870	0.15117
0.09770	0.12566
0.14870	0.20219
0.09770	0.27871
0.25071	0.04914
0.02119	0.15117
0.17421	0.22769
0.19971	0.15117
0.14870	0.04914
0.02119	0.17668
0.12320	0.12566
0.22521	0.25320
0.22521	0.25320
0.14870	0.17668
-0.08081	0.12566
0.30171	0.10015
0.27621	0.15117
0.32721	0.20219
0.12320	-0.00188
-0.02981	0.02363
0.12320	0.20219
0.14870	0.15117
0.14870	0.17668
0.09770	0.20219
0.14870	0.20219
0.12320	0.10015
0.12320	0.07465
0.32721	0.12566
0.25071	0.12566
-0.00431	0.15117
0.14870	0.25320
0.12320	-0.05289
0.04670	0.10015
0.12320	0.40625
0.22521	0.30422
0.17421	0.12566
0.12320	0.25320
0.22521	0.10015
0.14870	0.02363
0.12320	-0.15492
0.19971	0.25320
0.09770	0.32972
0.12320	0.22769
0.30171	0.15117
0.09770	0.15117
0.09770	0.12566
0.17421	0.22769
0.07220	0.04914
0.17421	0.15117
0.19971	0.22769
0.14870	0.10015
0.17421	0.15117
0.17421	0.07465
0.17421	-0.07840
0.12320	0.35523
0.22521	0.20219
0.07220	0.20219
0.12320	0.15117
0.19971	0.10015
0.17421	-0.00188
0.12320	0.04914
0.22521	0.25320
0.14870	0.15117
0.07220	0.15117
0.12320	0.25320
0.12320	0.12566
-0.08081	0.12566
0.45472	0.15117
0.27621	0.04914
0.02119	0.17668
0.12320	0.20219
0.09770	0.12566
0.09770	0.20219
0.25071	0.15117
0.14870	0.10015
0.12320	0.17668
0.14870	0.15117
0.14870	0.15117
0.22521	0.15117
0.09770	0.04914
0.22521	0.22769
-0.00431	0.12566
0.32721	0.20219
0.14870	0.20219
0.19971	0.25320
0.12320	0.17668
0.12320	0.17668
0.22521	0.04914
0.09770	-0.07840
0.19971	0.17668
0.12320	0.12566
0.09770	0.27871
0.22521	0.22769
0.30171	0.25320
0.25071	0.30422
-0.00431	-0.05289
0.12320	0.07465
0.12320	0.10015
0.12320	0.22769
0.12320	0.15117
0.09770	0.12566
0.19971	0.20219
0.09770	0.15117
0.22521	0.27871
0.09770	0.15117
0.14870	0.17668
0.17421	0.15117
0.07220	0.04914
0.19971	0.15117
0.07220	0.12566
0.14870	0.17668
0.12320	0.20219
0.14870	0.17668
0.22521	0.32972
0.14870	-0.05289
0.14870	0.10015
0.12320	0.27871
0.14870	0.20219
0.17421	0.15117
0.12320	0.15117
0.12320	0.17668
0.25071	0.04914
0.17421	0.27871
0.02119	0.15117
0.19971	0.27871
0.07220	0.07465
0.19971	0.15117
0.09770	-0.02739
0.22521	0.10015
-0.18282	0.15117
0.48022	0.20219
0.17421	0.17668
0.22521	0.30422
-0.00431	0.17668
0.04670	0.04914
0.14870	0.20219
0.07220	0.22769
0.17421	0.27871
0.14870	0.02363
0.17421	0.12566
0.17421	0.07465
0.07220	0.04914
0.14870	0.32972
0.17421	0.20219
0.12320	0.17668
0.22521	0.20219
0.07220	0.12566
0.22521	0.12566
0.09770	-0.02739
0.19971	0.22769
0.09770	0.10015
0.22521	-0.12942
0.17421	0.25320
0.14870	0.22769
0.12320	0.15117
0.12320	0.17668
0.19971	0.15117
-0.02981	0.10015
0.35272	0.20219
0.12320	0.10015
0.09770	0.15117
0.12320	0.17668
0.07220	0.15117
0.19971	0.22769
0.12320	0.15117
0.14870	0.07465
0.22521	0.07465
0.17421	0.04914
0.07220	0.15117
0.14870	0.20219
0.27621	0.20219
0.19971	0.17668
0.02119	0.15117
0.09770	0.27871
0.12320	0.20219
0.02119	-0.00188
0.07220	0.12566
0.14870	0.20219
0.14870	-0.15492
0.04670	0.15117
0.14870	0.27871
0.37822	0.22769
0.19971	0.25320
0.07220	0.35523
0.09770	-0.20594
0.02119	0.12566
0.07220	0.27871
0.14870	0.22769
0.17421	0.07465
0.09770	0.04914
0.17421	0.22769
0.09770	0.20219
0.19971	0.27871
0.12320	-0.00188
0.22521	0.22769
0.12320	0.22769
0.04670	0.04914
0.14870	0.17668
0.22521	0.10015
0.07220	0.10015
0.14870	0.27871
0.22521	0.12566
0.14870	0.07465
0.09770	0.20219
0.32721	0.15117
0.07220	0.20219
0.12320	0.15117
0.19971	0.07465
0.09770	0.15117
0.12320	0.27871
0.22521	0.17668
0.07220	0.17668
0.14870	0.30422
0.22521	0.15117
0.09770	0.07465
0.14870	0.17668
0.07220	-0.02739
0.14870	0.20219
0.27621	0.25320
0.19971	-0.12942
0.07220	0.15117
0.14870	0.35523
0.12320	0.22769
0.07220	0.22769
0.07220	0.17668
0.19971	0.10015
0.12320	0.02363
0.09770	0.07465
0.14870	0.07465
0.22521	0.15117
0.07220	0.12566
0.09770	0.20219
0.32721	0.20219
0.09770	0.12566
0.09770	0.20219
0.17421	0.15117
0.14870	0.04914
0.07220	0.10015
0.22521	0.17668
0.14870	0.17668
0.12320	0.10015
0.17421	0.17668
0.02119	0.22769
0.19971	0.12566
0.35272	0.17668
0.25071	0.04914
0.04670	0.15117
0.12320	-0.07840
0.02119	0.25320
0.12320	0.25320
0.17421	0.20219
0.07220	0.10015
0.14870	0.10015
0.17421	0.22769
0.09770	0.22769
0.22521	-0.41000
0.19971	0.17668
0.12320	0.10015
0.19971	0.20219
0.17421	0.25320
0.07220	0.20219
0.19971	0.25320
0.14870	0.22769
0.07220	0.12566
0.14870	0.20219
0.22521	0.10015
0.07220	0.12566
0.19971	0.17668
0.04670	-0.20594
0.12320	0.17668
0.04670	0.17668
0.32721	0.15117
0.17421	0.25320
0.09770	0.15117
0.14870	0.22769
0.07220	0.15117
0.19971	0.12566
0.09770	0.12566
0.22521	0.07465
0.07220	0.04914
0.22521	0.22769
0.09770	0.10015
0.19971	0.12566
0.12320	0.22769
0.14870	0.17668
0.12320	0.20219
0.09770	0.10015
0.22521	0.15117
0.07220	-0.00188
0.19971	0.12566
0.19971	0.15117
0.19971	0.22769
0.19971	0.30422
-0.00431	0.12566
0.09770	0.22769
-0.15732	0.20219
0.35272	0.02363
0.27621	0.02363
0.17421	0.12566
0.07220	0.04914
0.17421	0.27871
0.12320	0.20219
0.14870	0.15117
0.22521	0.27871
0.14870	0.17668
0.22521	0.12566
0.17421	0.12566
0.04670	0.07465
0.17421	0.22769
0.14870	0.22769
0.12320	0.12566
0.14870	0.04914
0.07220	0.04914
0.19971	-0.05289
0.09770	0.22769
0.19971	0.35523
0.07220	0.20219
0.14870	0.22769
0.14870	0.12566
0.07220	0.04914
0.17421	0.10015
0.14870	0.17668
0.07220	0.12566
0.14870	0.22769
0.14870	0.20219
0.09770	0.10015
0.19971	0.15117
0.19971	0.10015
0.07220	0.15117
0.19971	0.25320
0.04670	0.10015
0.22521	0.17668
0.12320	0.27871
0.14870	0.32972
0.19971	-0.30797
0.12320	0.10015
0.14870	0.22769
0.22521	0.25320
0.09770	0.04914
0.12320	0.17668
0.19971	0.22769
0.17421	0.22769
0.09770	0.12566
0.09770	0.22769
0.12320	0.25320
0.09770	-0.15492
0.07220	0.07465
0.25071	0.25320
0.12320	0.15117
0.12320	0.15117
0.17421	0.17668
0.07220	0.12566
0.12320	0.25320
0.25071	0.22769
0.14870	0.12566
0.14870	0.20219
0.09770	0.17668
0.30171	0.02363
0.30171	-0.20594
0.30171	0.22769
0.07220	0.12566
-0.05531	0.22769
0.19971	0.25320
0.19971	0.25320
0.07220	0.12566
0.12320	0.17668
0.14870	0.04914
0.12320	0.10015
0.14870	0.17668
0.22521	0.12566
0.09770	0.17668
0.14870	0.25320
0.22521	0.15117
0.12320	0.07465
0.17421	0.12566
0.17421	0.15117
0.12320	0.07465
0.09770	0.12566
0.22521	0.17668
0.14870	0.17668
0.02119	0.10015
0.12320	0.15117
0.19971	0.27871
0.17421	0.20219
0.07220	0.12566
0.14870	0.12566
0.19971	0.17668
0.09770	0.12566
0.14870	-0.00188
0.22521	0.15117
0.14870	0.10015
0.04670	0.30422
0.07220	0.30422
0.32721	0.25320
0.17421	0.20219
0.07220	0.15117
0.12320	0.17668
0.19971	-0.12942
0.14870	-0.00188
0.09770	-0.05289
0.14870	0.27871
0.19971	0.40625
0.17421	0.25320
0.07220	0.17668
0.14870	0.32972
0.17421	0.07465
0.04670	-0.12942
0.25071	0.20219
0.17421	0.02363
0.14870	0.17668
0.19971	0.22769
0.04670	0.15117
0.12320	0.30422
0.12320	0.25320
0.14870	0.17668
0.22521	0.20219
0.04670	-0.05289
-0.13181	-0.00188
0.48022	0.10015
0.25071	0.15117
0.19971	0.20219
0.07220	0.12566
0.07220	0.27871
0.19971	0.22769
0.04670	0.15117
0.12320	0.10015
0.17421	0.04914
0.07220	0.12566
0.12320	0.20219
0.30171	0.15117
0.19971	0.15117
0.12320	0.27871
0.14870	0.22769
0.04670	0.15117
0.14870	0.22769
0.19971	0.12566
0.04670	-0.00188
0.14870	0.04914
0.14870	0.02363
0.09770	0.12566
0.35272	0.27871
0.09770	0.17668
0.12320	0.38074
0.09770	0.02363
0.07220	-0.05289
0.12320	0.17668
0.12320	0.25320
0.07220	0.15117
0.22521	0.15117
0.07220	0.04914
0.25071	0.15117
0.14870	0.15117
0.12320	0.20219
0.14870	0.25320
0.09770	0.12566
0.19971	0.07465
0.14870	0.07465
0.17421	0.17668
0.17421	0.02363
0.12320	0.17668
0.17421	0.17668
0.07220	0.17668
0.22521	0.20219
0.12320	0.15117
0.09770	0.17668
0.19971	0.12566
0.12320	0.04914
0.09770	0.10015
0.12320	0.10015
0.12320	0.20219
0.07220	0.22769
0.14870	0.32972
0.12320	0.30422
0.07220	-0.23145
0.14870	0.15117
0.19971	0.25320
0.14870	0.15117
0.14870	0.15117
0.22521	0.15117
0.14870	0.15117
0.12320	0.17668
0.14870	0.22769
0.19971	0.20219
0.14870	0.04914
0.09770	-0.10391
0.14870	0.12566
0.19971	0.25320
0.14870	0.25320
0.14870	0.17668
0.19971	0.27871
0.12320	0.22769
0.09770	0.12566
0.14870	0.15117
0.14870	0.20219
0.12320	-0.02739
-0.10631	0.07465
0.50573	0.10015
0.32721	0.12566
0.07220	0.12566
-0.00431	0.07465
0.04670	0.15117
0.17421	0.25320
0.12320	0.25320
0.07220	0.15117
0.19971	0.17668
0.19971	0.17668
0.12320	0.02363
0.12320	0.12566
0.14870	0.22769
0.12320	0.12566
0.12320	0.15117
0.22521	0.15117
0.22521	0.30422
0.07220	0.20219
0.04670	-0.05289
0.12320	0.20219
0.22521	0.50828
0.14870	-0.66508
0.09770	0.30422
0.14870	-0.02739
0.19971	0.17668
0.07220	0.25320
0.12320	0.30422
0.19971	0.30422
0.14870	0.30422
0.07220	0.20219
0.07220	0.07465
0.22521	0.15117
0.14870	0.07465
0.07220	-0.07840
0.12320	0.02363
0.22521	0.10015
0.17421	0.17668
0.17421	0.53379
0.19971	0.25320
0.17421	-0.02739
0.09770	-0.07840
0.22521	-0.18043
0.14870	0.07465
0.04670	0.25320
0.14870	0.32972
0.19971	0.38074
0.12320	0.27871
0.07220	-0.05289
0.17421	0.22769
0.22521	0.32972
0.22521	0.12566
0.12320	0.04914
0.07220	0.10015
0.14870	0.04914
0.19971	0.17668
0.17421	0.15117
0.17421	0.12566
0.07220	0.20219
0.25071	0.17668
0.12320	0.04914
0.09770	0.07465
0.22521	0.10015
0.14870	0.02363
0.04670	0.12566
0.14870	0.48277
0.22521	0.38074
0.07220	-0.25695
0.12320	0.35523
0.22521	0.32972
0.09770	-0.20594
0.19971	0.15117
0.14870	0.17668
0.22521	0.32972
0.14870	-0.25695
0.07220	0.25320
0.19971	0.32972
0.12320	-0.02739
0.14870	0.30422
0.22521	0.25320
0.14870	0.10015
0.04670	0.12566
0.04670	0.10015
0.27621	0.10015
-0.10631	0.07465
0.37822	0.17668
0.25071	0.12566
0.14870	0.55929
0.07220	0.20219
0.02119	0.10015
0.12320	-0.46102
0.17421	-1.20074
0.14870	0.68683
0.12320	1.12046
0.09770	-0.10391
0.17421	0.35523
0.17421	0.50828
0.07220	-0.53754
0.12320	0.53379
0.22521	0.89089
0.12320	0.83988
0.19971	0.68683
0.17421	0.10015
0.19971	-0.07840
0.22521	-0.76711
0.22521	-2.42511
-0.00431	0.86539
0.02119	-0.30797
0.04670	-0.05289
0.37822	2.06425
-0.10631	0.40625
0.12320	0.66132
0.22521	0.81437
0.04670	0.04914
0.17421	-0.10391
0.30171	0.17668
-0.08081	0.07465
0.50573	1.19699
0.27621	0.91640
-0.10631	-2.06800
-0.20832	-0.84363
0.42922	-0.28246
0.25071	0.53379
0.17421	0.50828
-0.10631	1.17148
-0.10631	1.80917
0.93925	-0.99668
0.19971	-0.00188
-0.41233	-0.89465
0.32721	-2.19554
-0.51434	-0.07840
0.30171	1.63062
0.60773	1.06945
0.53123	0.30422
0.40372	0.66132
-0.18282	0.61031
0.30171	-0.20594
0.27621	-5.12893
-0.10631	1.42656
0.14870	0.99292
0.12320	2.16628
-1.10088	2.03874
0.83725	0.89089
0.63323	0.58480
0.25071	-0.48652
0.53123	0.58480
0.25071	0.53379
-0.20832	-0.02739
-0.02981	-0.74160
0.32721	-3.47093
0.58223	-3.19035
0.27621	0.43176
-0.08081	1.40105
-0.20832	1.09496
-0.20832	1.17148
-0.08081	1.42656
0.78624	0.99292
0.70974	0.73785
0.02119	0.58480
-0.08081	0.66132
0.02119	-1.30277
-0.00431	-0.58856
0.19971	0.53379
0.19971	-0.86914
-0.00431	0.10015
0.17421	-2.57816
0.30171	0.78886
0.65874	1.80917
0.14870	2.39585
0.07220	-0.35899
0.14870	-1.60887
0.09770	-1.76191
0.02119	1.14597
0.07220	0.07465
-0.13181	0.55929
0.35272	1.19699
0.37822	1.09496
-0.05531	0.50828
0.19971	0.73785
0.17421	-0.05289
0.04670	-0.38449
0.22521	-0.18043
0.07220	-0.15492
0.07220	0.02363
0.22521	-0.07840
0.22521	0.38074
0.37822	-0.46102
0.07220	-1.27726
0.04670	-0.15492
0.25071	0.71234
0.27621	0.55929
0.25071	0.96742
0.27621	0.91640
0.12320	0.20219
-0.76936	0.27871
-0.20832	0.27871
0.58223	0.22769
0.50573	0.22769
0.27621	0.38074
0.17421	0.10015
0.30171	0.35523
0.17421	-0.51203
0.14870	-1.02219
0.02119	-0.25695
0.12320	0.94191
0.14870	0.61031
0.22521	0.55929
-0.15732	-0.63957
-0.08081	-0.35899
0.30171	0.73785
0.32721	1.14597
0.04670	0.73785
0.02119	0.76336
0.19971	-0.20594
0.30171	-0.89465
0.09770	0.07465
0.14870	1.27351
0.25071	-0.92016
0.25071	-0.74160
0.27621	0.25320
-0.02981	1.22250
0.25071	0.96742
0.53123	-0.12942
0.12320	0.22769
-0.08081	0.38074
0.12320	0.30422
-0.00431	0.02363
0.04670	-0.12942
0.17421	-0.00188
0.14870	-0.07840
0.32721	-0.07840
0.32721	0.15117
0.17421	-0.15492
0.07220	0.10015
0.27621	0.32972
-0.00431	0.35523
0.19971	0.30422
0.30171	0.35523
0.09770	0.35523
0.02119	0.50828
0.30171	-0.20594
-0.02981	0.30422
-0.05531	0.61031
0.60773	0.91640
0.35272	-2.68019
0.04670	-0.97117
-0.02981	0.15117
0.07220	1.12046
0.04670	0.76336
0.19971	1.22250
0.19971	0.91640
0.19971	0.35523
0.19971	-1.07320
0.14870	0.43176
0.07220	0.20219
0.04670	0.15117
0.30171	-0.00188
0.30171	0.45726
0.12320	0.35523
-0.05531	-0.05289
0.19971	-0.99668
0.04670	-0.12942
0.17421	0.40625
0.55673	0.81437
-0.13181	0.07465
-0.56534	-0.33348
0.45472	0.45726
0.40372	0.35523
0.30171	0.17668
0.19971	0.27871
0.22521	0.38074
0.27621	0.30422
0.30171	0.22769
0.02119	0.45726
-0.08081	-0.35899
-0.08081	-0.33348
0.22521	-0.30797
0.14870	0.45726
0.09770	0.48277
0.14870	0.48277
0.25071	-0.20594
0.14870	-0.38449
-0.43783	0.55929
1.06676	0.94191
0.22521	0.02363
-0.13181	-0.15492
0.09770	-0.30797
-0.02981	-0.18043
-0.05531	0.71234
0.37822	0.76336
0.09770	0.27871
0.09770	-0.07840
0.19971	0.02363
0.25071	-0.05289
0.25071	0.04914
0.07220	0.07465
0.07220	0.22769
-0.13181	0.40625
0.37822	0.40625
0.37822	-0.10391
0.25071	-0.41000
0.17421	-1.27726
-0.02981	0.89089
-0.02981	1.37554
0.19971	1.19699
0.04670	0.40625
0.14870	-1.43031
0.40372	-1.71090
0.22521	1.22250
0.09770	0.81437
0.35272	1.17148
0.22521	0.04914
-0.61635	0.32972
0.02119	0.22769
0.40372	0.27871
0.27621	-0.30797
0.32721	0.15117
0.22521	-0.56305
0.14870	0.76336
-0.08081	-0.86914
0.32721	-0.76711
0.02119	0.10015
0.07220	0.22769
-0.08081	0.81437
0.22521	0.32972
0.25071	0.32972
0.25071	0.12566
0.22521	0.27871
0.09770	0.40625
-0.00431	0.17668
0.40372	0.17668
0.22521	0.22769
-0.46334	0.55929
0.40372	0.17668
0.58223	-0.23145
-0.00431	-0.58856
0.32721	-0.07840
0.22521	-0.79262
-0.13181	0.81437
-0.05531	1.04394
0.22521	0.22769
0.19971	0.27871
0.22521	0.25320
0.12320	0.35523
0.07220	0.30422
0.40372	0.43176
0.12320	-0.79262
0.12320	-0.66508
0.12320	0.38074
0.02119	0.50828
0.07220	0.63582
0.27621	0.50828
0.14870	-0.15492
0.12320	-0.25695
0.30171	0.35523
0.02119	0.43176
0.22521	-1.27726
-0.02981	0.04914
0.14870	1.01843
0.14870	0.78886
-0.08081	0.55929
0.30171	0.45726
0.17421	0.40625
0.40372	0.20219
0.17421	-0.38449
0.04670	0.38074
0.14870	0.15117
0.07220	0.30422
0.07220	-0.51203
-0.02981	-0.02739
0.32721	-0.00188
-0.08081	0.43176
0.48022	0.30422
0.40372	-0.18043
-0.08081	0.15117
0.17421	-0.18043
0.22521	0.27871
0.40372	0.45726
-0.08081	-0.05289
-0.51434	0.45726
0.55673	0.35523
0.76074	0.35523
0.09770	0.25320
-0.10631	0.15117
-0.02981	0.12566
-0.00431	0.04914
0.04670	0.10015
0.19971	-0.41000
0.09770	-0.48652
0.25071	0.20219
0.12320	0.61031
-0.00431	0.61031
0.27621	0.32972
0.27621	0.66132
0.19971	-0.30797
-0.00431	-1.04770
-0.08081	0.12566
0.53123	0.43176
0.32721	0.91640
0.17421	0.71234
0.14870	-0.38449
0.07220	0.07465
-0.02981	0.22769
0.17421	0.63582
0.12320	0.35523
0.14870	-0.15492
0.09770	-0.30797
0.22521	-0.05289
0.14870	-0.05289
0.12320	-0.74160
-0.08081	0.96742
0.12320	-0.07840
0.30171	0.38074
0.37822	-0.18043
0.25071	-0.41000
0.09770	0.22769
0.22521	0.89089
0.09770	0.58480
-0.00431	0.12566
0.14870	0.45726
0.22521	0.12566
0.12320	0.12566
0.02119	0.35523
0.12320	-0.63957
0.40372	0.07465
0.22521	-1.04770
-0.13181	0.55929
0.30171	0.45726
0.42922	-0.33348
-0.36133	1.22250
0.07220	-0.00188
0.50573	-0.18043
0.02119	0.38074
-0.10631	0.10015
0.19971	-0.23145
0.09770	0.38074
0.19971	-0.23145
-0.00431	0.76336
0.50573	0.17668
0.12320	0.53379
0.12320	0.02363
0.14870	0.15117
-0.08081	-0.38449
0.27621	-0.05289
0.09770	0.61031
0.19971	0.38074
0.07220	0.30422
0.19971	0.35523
0.17421	0.07465
0.14870	-0.23145
0.14870	0.48277
0.14870	0.07465
0.32721	0.12566
0.07220	0.15117
0.07220	0.17668
0.25071	0.35523
0.19971	0.48277
0.09770	0.35523
0.07220	-0.86914
0.12320	-0.38449
0.35272	-1.20074
0.19971	0.81437
-0.00431	1.04394
0.07220	0.89089
0.25071	0.94191
0.12320	1.17148
0.17421	-1.20074
0.19971	0.10015
0.12320	0.04914
-0.00431	0.07465
0.42922	-0.33348
0.25071	-0.00188
-0.00431	-0.56305
0.07220	0.35523
0.22521	0.20219
0.07220	0.25320
-0.10631	0.32972
0.42922	0.15117
0.27621	0.25320
0.04670	-0.38449
-0.00431	0.22769
0.14870	0.55929
0.14870	-0.30797
0.09770	0.20219
0.14870	0.38074
0.07220	0.63582
0.07220	0.30422
0.19971	0.25320
0.17421	-0.33348
0.25071	0.48277
0.14870	-0.10391
0.78624	0.04914
0.58223	0.22769
-0.53984	0.02363
-0.56534	0.22769
0.12320	-1.02219
0.19971	0.32972
0.37822	0.43176
0.04670	0.04914
0.19971	0.43176
0.27621	1.63062
0.12320	-1.12422
0.30171	0.07465
0.17421	0.38074
0.17421	0.15117
0.25071	0.15117
0.17421	0.15117
-0.00431	0.20219
-0.23382	0.10015
0.42922	0.10015
0.02119	-0.20594
0.12320	0.38074
0.32721	-0.25695
0.07220	0.66132
0.04670	-0.81812
0.07220	-0.61406
-0.10631	0.38074
0.55673	0.50828
0.48022	0.55929
-0.05531	0.55929
0.32721	0.27871
0.19971	0.32972
-0.10631	0.35523
0.14870	0.63582
0.09770	0.22769
0.14870	-1.04770
-0.08081	-1.35379
0.30171	0.61031
0.22521	0.15117
0.07220	0.68683
0.09770	0.71234
0.22521	0.30422
0.12320	-0.15492
0.12320	0.12566
0.14870	0.15117
0.07220	0.35523
0.25071	0.61031
0.32721	-0.05289
0.22521	0.25320
-0.02981	-0.69059
0.02119	0.55929
0.12320	-0.18043
0.02119	0.25320
0.09770	0.48277
0.25071	-0.35899
0.17421	0.15117
-0.64185	-0.00188
1.34728	-0.12942
0.30171	0.48277
-0.61635	0.89089
-0.08081	0.17668
0.19971	0.15117
0.19971	-0.05289
0.22521	0.02363
0.22521	0.38074
0.12320	0.32972
0.12320	0.50828
0.17421	-0.66508
0.12320	-1.14973
-0.00431	0.30422
0.40372	0.50828
-0.02981	0.55929
0.30171	0.45726
0.14870	0.61031
0.12320	0.35523
0.04670	-0.33348
0.19971	0.25320
0.17421	0.30422
0.02119	0.66132
0.19971	-0.28246
0.32721	-0.02739
0.17421	-0.43551
-0.05531	0.40625
-0.08081	0.10015
0.32721	0.27871
0.07220	0.30422
-0.23382	-0.51203
0.22521	0.17668
0.35272	0.30422
0.32721	0.66132
-0.10631	0.71234
0.50573	0.35523
0.14870	-0.05289
-0.05531	-0.25695
0.07220	-0.02739
0.12320	-1.20074
0.07220	0.15117
0.25071	0.78886
0.17421	0.99292
-0.18282	0.86539
-0.02981	-0.15492
0.37822	0.22769
0.30171	-1.02219
0.25071	-0.00188
0.17421	0.66132
-0.10631	0.17668
0.07220	-0.53754
0.19971	0.02363
0.27621	0.58480
-0.13181	-0.46102
0.14870	0.58480
0.86275	-0.30797
0.37822	0.02363
-0.51434	0.73785
-0.33583	-0.00188
0.30171	0.15117
0.42922	-0.35899
0.53123	0.76336
0.25071	0.76336
0.04670	0.73785
-0.05531	0.40625
0.17421	-0.51203
0.14870	0.12566
-0.05531	-0.00188
0.07220	-0.00188
-0.10631	0.32972
0.32721	0.63582
0.35272	-0.56305
0.19971	-0.28246
0.14870	0.17668
0.22521	-0.25695
0.04670	0.63582
0.55673	0.30422
-0.13181	-0.48652
0.17421	0.68683
-0.00431	0.02363
0.12320	0.96742
0.17421	0.17668
0.14870	-0.12942
0.04670	0.07465
0.07220	0.43176
0.19971	0.10015
0.09770	-0.05289
0.14870	-0.20594
0.19971	0.12566
0.09770	-0.07840
0.19971	0.76336
0.04670	-0.35899
-0.15732	0.30422
0.40372	0.45726
0.27621	0.30422
0.19971	0.83988
0.17421	0.10015
0.14870	-0.43551
0.12320	-0.38449
-0.08081	0.71234
0.12320	-0.71609
0.09770	0.15117
0.07220	0.66132
0.70974	-0.23145
0.14870	0.25320
-0.13181	0.20219
0.07220	0.22769
0.12320	0.27871
0.09770	0.32972
0.07220	-0.25695
0.35272	-0.15492
-0.15732	0.43176
0.70974	-0.38449
0.02119	0.32972
-0.61635	0.58480
0.22521	0.81437
0.53123	0.30422
0.27621	-0.02739
-0.02981	-0.18043
0.04670	-0.61406
0.17421	0.96742
0.25071	0.81437
0.09770	-0.46102
0.32721	0.22769
0.25071	-0.86914
-0.18282	-0.02739
0.14870	0.32972
0.14870	0.27871
0.22521	0.27871
0.12320	0.22769
0.25071	0.25320
0.09770	0.27871
0.14870	0.12566
0.07220	0.20219
0.19971	-0.33348
0.02119	-0.38449
0.07220	0.50828
0.12320	0.76336
0.27621	-0.97117
0.32721	0.45726
0.17421	0.63582
0.12320	0.96742
-0.13181	0.07465
0.32721	0.02363
0.22521	-0.58856
0.17421	0.63582
0.02119	0.86539
0.14870	0.30422
0.25071	0.04914
0.07220	-0.48652
0.02119	0.22769
0.12320	0.22769
0.09770	0.04914
0.19971	0.45726
-0.05531	0.04914
0.19971	-0.15492
0.22521	0.10015
0.53123	-0.15492
0.17421	-0.10391
-0.05531	-0.15492
0.07220	0.61031
0.09770	0.45726
0.19971	0.35523
0.07220	0.40625
-0.00431	0.15117
0.14870	-0.41000
0.22521	0.50828
0.30171	0.02363
0.25071	0.10015
0.09770	0.63582
0.07220	-1.40480
0.02119	-0.10391
0.35272	0.58480
0.14870	0.53379
-0.00431	0.83988
0.17421	-0.30797
0.19971	0.10015
-0.05531	-0.02739
0.14870	-0.43551
0.30171	0.53379
0.09770	0.12566
0.22521	0.43176
0.19971	-0.07840
0.32721	0.30422
0.02119	0.55929
-0.02981	0.55929
0.02119	0.30422
0.02119	-0.97117
-0.02981	0.25320
-0.05531	-0.07840
0.70974	0.17668
0.27621	0.66132
-0.13181	0.35523
0.19971	-0.15492
0.12320	-0.07840
0.07220	0.89089
0.22521	1.06945
0.07220	-0.58856
0.17421	-1.65988
0.12320	0.83988
0.17421	-0.05289
-0.15732	0.17668
0.60773	0.20219
0.32721	0.17668
-0.00431	0.35523
-0.23382	0.58480
0.14870	0.17668
0.53123	0.20219
0.32721	-0.18043
0.17421	-0.18043
-0.38683	0.22769
0.14870	0.35523
0.17421	0.32972
0.25071	-0.61406
0.22521	0.22769
0.22521	-0.30797
0.27621	0.25320
0.19971	0.55929
0.12320	0.45726
-0.00431	0.35523
0.02119	-0.12942
0.09770	0.35523
0.37822	-0.28246
0.09770	0.12566
0.19971	0.43176
0.14870	0.89089
0.17421	0.02363
0.04670	-0.38449
0.17421	-0.15492
0.09770	-0.18043
0.30171	0.07465
0.30171	-0.05289
0.02119	0.55929
0.09770	0.96742
0.50573	0.76336
-0.00431	0.10015
-0.43783	-0.94566
0.07220	0.50828
0.27621	0.94191
0.37822	-0.23145
0.40372	0.43176
0.14870	0.25320
0.22521	0.45726
0.22521	-0.28246
-0.33583	-0.12942
0.09770	-0.58856
0.65874	-0.79262
0.07220	0.35523
0.27621	0.53379
0.07220	0.40625
0.07220	0.30422
0.02119	0.20219
0.02119	-0.74160
-0.08081	0.22769
0.12320	0.96742
0.14870	-0.20594
0.09770	0.35523
0.35272	0.53379
0.37822	0.15117
0.17421	0.25320
0.22521	-0.05289
0.07220	0.32972
0.25071	0.32972
0.02119	-0.00188
0.02119	-1.86394
0.30171	-0.02739
-0.00431	0.04914
0.19971	0.99292
0.22521	1.01843
0.07220	0.07465
0.35272	0.63582
0.27621	0.38074
0.02119	-0.18043
0.12320	0.20219
0.12320	-0.30797
-0.05531	0.07465
0.19971	0.04914
0.17421	0.22769
0.19971	0.10015
0.14870	0.38074
0.09770	0.32972
0.12320	0.30422
0.19971	-1.02219
0.19971	-0.58856
0.12320	0.66132
0.19971	0.81437
-0.00431	0.22769
0.17421	0.17668
0.14870	0.50828
0.22521	-0.28246
-0.05531	0.58480
0.42922	0.40625
0.37822	-0.20594
0.14870	0.20219
0.02119	0.25320
0.02119	0.38074
-0.05531	-0.12942
0.19971	0.17668
0.07220	-0.66508
0.30171	-0.30797
0.22521	0.45726
0.35272	0.71234
0.09770	0.20219
-0.00431	0.35523
0.22521	-0.02739
0.14870	0.25320
-0.13181	0.15117
0.53123	0.40625
0.70974	0.17668
-0.08081	-0.02739
-0.18282	-0.02739
0.09770	-0.18043
-0.10631	0.30422
-0.05531	0.55929
0.22521	0.25320
0.35272	0.61031
0.07220	-1.09871
0.12320	0.04914
0.07220	0.53379
0.27621	0.63582
0.30171	0.76336
0.14870	0.07465
0.22521	0.22769
0.22521	-0.00188
-0.08081	-0.43551
-0.08081	0.55929
0.12320	0.02363
0.17421	0.50828
0.14870	0.38074
-0.15732	-0.00188
0.53123	0.43176
0.45472	-0.18043
0.30171	-0.56305
-0.05531	0.53379
-0.05531	0.45726
0.02119	0.27871
0.19971	0.35523
0.27621	0.17668
0.17421	0.25320
0.07220	-0.69059
0.19971	0.25320
0.17421	-0.35899
0.17421	0.20219
0.22521	0.53379
0.22521	0.48277
-0.10631	0.15117
0.02119	0.35523
0.14870	0.35523
0.22521	0.38074
0.42922	-0.18043
0.17421	-0.66508
-0.00431	-0.28246
0.55673	0.32972
0.12320	0.73785
0.09770	0.86539
-0.10631	-0.81812
0.19971	0.43176
0.17421	0.17668
0.02119	-0.00188
0.12320	0.76336
-0.08081	0.66132
0.12320	-0.58856
0.12320	-0.79262
0.14870	-0.58856
0.40372	0.50828
-0.18282	0.20219
0.53123	0.63582
0.68424	0.50828
0.14870	0.27871
-0.08081	0.35523
-0.10631	-0.00188
0.04670	0.10015
0.27621	0.25320
0.12320	0.04914
0.07220	0.55929
0.17421	0.10015
0.32721	-1.07320
0.32721	-0.07840
-0.56534	0.20219
0.07220	0.30422
0.32721	0.78886
0.17421	0.55929
0.17421	-0.07840
0.27621	-0.30797
0.35272	0.53379
0.12320	-0.66508
0.22521	0.43176
0.30171	0.10015
0.14870	0.94191
0.04670	-0.18043
0.22521	-0.33348
0.04670	0.55929
-0.02981	0.38074
0.12320	0.22769
0.19971	0.12566
0.27621	-0.33348
-0.02981	-0.12942
0.19971	-0.05289
0.17421	0.32972
0.12320	-0.05289
0.17421	0.17668
0.14870	0.02363
0.19971	0.40625
0.17421	0.30422
0.04670	0.30422
0.22521	0.10015
0.17421	0.38074
0.27621	0.32972
0.02119	-0.66508
0.27621	-0.12942
-0.05531	0.04914
-0.02981	0.22769
0.30171	0.48277
-0.00431	0.45726
0.32721	0.17668
0.32721	0.15117
0.17421	-0.58856
0.04670	0.10015
-0.43783	0.71234
-0.08081	-0.63957
0.99026	-0.05289
0.76074	0.58480
-0.33583	0.22769
-0.08081	0.32972
-0.05531	0.99292
0.25071	-0.18043
0.25071	0.35523
0.14870	0.25320
0.14870	0.02363
0.09770	-0.43551
-0.02981	0.20219
0.12320	-0.07840
0.37822	-0.35899
0.12320	0.17668
0.14870	0.45726
0.19971	0.32972
0.17421	0.43176
0.19971	0.02363
0.02119	0.32972
0.09770	-0.18043
0.19971	0.55929
0.27621	-0.20594
-0.00431	-0.56305
-0.20832	0.86539
0.25071	0.25320
0.37822	0.66132
0.19971	-0.10391
0.07220	-0.05289
0.19971	0.48277
0.09770	0.27871
-0.18282	0.48277
0.22521	-0.30797
0.09770	0.15117
0.25071	0.32972
0.22521	0.02363
0.12320	0.07465
0.27621	0.55929
0.27621	-0.15492
0.17421	-0.02739
0.12320	-0.02739
0.12320	0.17668
-0.00431	0.53379
0.12320	0.50828
0.25071	0.04914
0.12320	-1.25176
0.04670	-0.46102
0.14870	0.81437
0.22521	0.76336
0.32721	0.43176
0.09770	0.35523
0.02119	0.25320
0.12320	0.12566
0.19971	0.10015
-0.00431	0.17668
0.04670	0.07465
0.35272	0.38074
0.35272	-0.97117
0.17421	-0.15492
-0.00431	-0.05289
0.07220	0.58480
0.25071	0.27871
0.19971	-0.00188
0.14870	0.86539
0.04670	0.89089
0.19971	0.40625
0.17421	0.45726
-0.25932	0.22769
-0.31033	0.10015
0.32721	-0.05289
1.11776	0.22769
0.25071	0.17668
-0.15732	-0.53754
-0.15732	-0.94566
-0.02981	-0.05289
0.04670	0.55929
0.14870	0.71234
0.22521	0.55929
0.17421	0.40625
0.12320	0.07465
0.19971	0.78886
0.02119	-0.25695
-0.20832	-0.46102
0.50573	-0.05289
0.25071	0.53379
0.35272	0.63582
0.27621	0.55929
0.02119	-0.00188
0.04670	0.12566
0.07220	0.22769
-0.00431	-0.02739
0.19971	0.48277
0.17421	-0.61406
0.17421	0.40625
0.09770	-0.25695
-0.05531	0.02363
0.17421	0.30422
0.14870	0.12566
0.19971	0.32972
0.30171	0.10015
0.07220	0.27871
0.30171	0.71234
-0.02981	-0.71609
0.02119	0.02363
0.40372	0.55929
0.19971	0.35523
0.04670	-0.46102
0.22521	0.35523
0.14870	0.12566
0.22521	0.25320
0.02119	-0.61406
-0.08081	-0.25695
0.27621	0.15117
0.32721	0.55929
0.27621	0.71234
-0.08081	0.94191
-0.00431	-0.43551
0.19971	0.12566
-0.02981	0.45726
-0.33583	0.04914
0.65874	-0.00188
0.40372	0.30422
-0.02981	-0.25695
0.30171	0.43176
0.35272	-0.38449
0.32721	0.17668
-0.28482	0.25320
0.30171	0.32972
0.48022	-0.15492
0.02119	-0.02739
-0.02981	0.04914
0.02119	0.27871
0.02119	0.43176
0.25071	0.50828
0.07220	-0.48652
0.17421	0.32972
0.17421	0.91640
0.12320	-0.58856
-0.33583	0.50828
0.07220	0.40625
0.32721	-0.56305
0.42922	-0.51203
0.45472	0.20219
0.45472	0.91640
0.09770	-0.56305
0.12320	0.43176
0.14870	0.68683
0.02119	0.38074
-0.08081	-0.05289
0.17421	-0.33348
0.09770	-0.05289
0.35272	0.10015
0.32721	0.27871
0.19971	-0.02739
-0.10631	-1.17523
-0.08081	0.40625
0.04670	0.81437
0.04670	0.35523
0.12320	0.25320
0.19971	-0.43551
0.30171	0.48277
0.27621	-0.79262
0.19971	0.73785
0.32721	0.63582
0.25071	0.50828
-0.33583	-0.41000
0.30171	-0.48652
0.27621	0.25320
0.02119	0.73785
0.27621	0.63582
0.27621	-0.25695
0.17421	0.35523
-0.28482	0.15117
0.04670	0.27871
0.07220	-0.05289
0.17421	-0.02739
0.32721	0.15117
-0.00431	-0.10391
-0.02981	-0.23145
0.37822	0.02363
0.27621	0.10015
0.25071	0.55929
0.09770	-0.05289
-0.10631	0.04914
-0.00431	0.71234
0.32721	0.81437
0.25071	-0.00188
0.09770	-0.07840
0.12320	0.25320
0.25071	0.32972
0.22521	0.22769
0.22521	-0.53754
0.09770	-0.94566
0.14870	0.61031
-0.02981	0.35523
-0.08081	0.53379
0.12320	0.58480
0.07220	0.45726
0.09770	0.48277
0.32721	-0.25695
-0.08081	-0.69059
0.58223	-0.07840
0.48022	0.02363
0.04670	0.94191
-0.08081	-0.58856
-0.23382	0.43176
0.22521	0.58480
0.42922	0.40625
-0.02981	0.07465
0.22521	0.04914
0.22521	0.40625
0.14870	-0.05289
-0.00431	-0.15492
0.02119	-0.30797
0.27621	0.32972
0.30171	-0.92016
0.37822	0.71234
-0.05531	0.38074
-0.20832	-0.00188
0.22521	0.32972
0.12320	0.20219
-0.02981	-0.18043
0.25071	0.55929
0.14870	-0.92016
0.17421	0.63582
0.09770	0.43176
0.25071	0.35523
0.45472	0.30422
0.32721	0.10015
0.02119	-0.02739
0.02119	-0.07840
-0.13181	-0.00188
0.04670	-0.25695
0.27621	0.50828
0.22521	0.48277
0.30171	-0.61406
0.22521	0.63582
0.17421	-0.12942
0.12320	0.78886
0.09770	0.07465
0.19971	-0.48652
0.22521	0.32972
-0.02981	0.63582
0.32721	0.55929
0.32721	0.27871
0.12320	0.48277
-0.15732	-1.04770
0.17421	-0.30797
0.19971	0.50828
0.12320	0.17668
0.14870	0.38074
0.02119	0.43176
0.14870	0.17668
0.25071	0.40625
0.30171	-0.53754
0.02119	-0.41000
0.32721	-0.15492
0.07220	0.73785
0.02119	0.17668
0.17421	0.25320
0.07220	0.45726
-0.00431	0.20219
0.25071	0.25320
0.25071	1.40105
0.04670	-1.71090
0.14870	0.25320
0.04670	0.68683
0.60773	-0.33348
0.40372	0.66132
-0.13181	-0.41000
0.19971	0.43176
-0.02981	0.20219
-0.05531	0.35523
-0.02981	0.17668
0.45472	0.27871
0.04670	-0.41000
-0.13181	0.63582
0.35272	0.43176
0.35272	0.22769
0.25071	-1.37929
0.14870	-0.23145
-0.00431	0.53379
-0.08081	0.73785
-0.20832	0.66132
0.45472	0.35523
0.42922	0.20219
0.22521	0.30422
-0.00431	0.07465
0.07220	0.15117
0.25071	-0.76711
0.04670	-0.28246
0.22521	0.43176
0.04670	0.76336
0.17421	0.22769
-0.02981	0.20219
0.22521	0.10015
0.22521	0.25320
-0.00431	0.25320
0.19971	-0.00188
0.37822	-0.00188
0.27621	0.53379
-0.02981	0.81437
0.09770	0.04914
0.17421	-0.05289
0.17421	0.35523
0.25071	-0.02739
-0.05531	0.58480
-0.13181	-0.12942
0.73524	0.07465
0.22521	-0.18043
-0.28482	0.30422
-0.02981	0.22769
0.50573	0.32972
0.14870	0.38074
0.12320	-0.07840
0.07220	0.35523
-0.66735	-0.94566
0.53123	-0.61406
0.30171	0.12566
0.30171	0.71234
-0.05531	0.55929
-0.46334	0.48277
-0.02981	0.43176
0.35272	0.55929
0.40372	-0.38449
0.45472	0.30422
-0.02981	-0.51203
0.22521	0.32972
0.07220	0.25320
0.27621	-0.12942
0.40372	0.58480
0.12320	-0.00188
-0.05531	0.27871
-0.18282	0.81437
-0.48884	-2.93527
1.01576	0.73785
1.04126	0.22769
-0.56534	-0.35899
-0.48884	1.24800
0.19971	0.96742
0.30171	1.24800
0.25071	0.15117
0.02119	-0.23145
0.07220	0.40625
0.25071	0.17668
0.32721	0.63582
0.48022	-0.79262
0.12320	0.07465
0.27621	-1.07320
-0.10631	0.15117
-0.10631	0.35523
0.30171	0.45726
0.09770	0.66132
0.37822	-0.63957
0.04670	-0.05289
0.09770	-0.12942
0.07220	0.63582
0.02119	0.35523
0.09770	0.94191
0.17421	-0.10391
0.12320	0.53379
0.22521	-1.27726
-0.15732	-1.25176
0.37822	0.78886
0.27621	0.73785
0.22521	-0.00188
-0.13181	0.12566
0.37822	0.40625
0.14870	0.55929
0.02119	0.45726
0.04670	0.30422
0.07220	-0.41000
0.02119	0.50828
0.25071	-0.56305
0.32721	0.02363
0.40372	-0.10391
-0.02981	-0.07840
0.07220	0.15117
0.22521	0.35523
0.22521	0.32972
-0.28482	-0.25695
0.27621	-0.15492
0.91375	0.73785
0.04670	0.55929
-0.59084	0.35523
-0.13181	0.32972
0.35272	0.76336
0.22521	-0.53754
-0.08081	0.25320
0.40372	0.10015
0.27621	0.35523
0.17421	0.17668
0.07220	0.15117
0.48022	-0.71609
0.42922	-0.10391
0.12320	-0.15492
-0.23382	0.35523
0.09770	0.61031
0.30171	-0.61406
0.25071	0.45726
0.09770	0.73785
-0.00431	0.58480
0.12320	0.66132
0.22521	0.48277
0.17421	0.20219
0.27621	-0.02739
0.25071	0.50828
0.09770	-0.18043
0.17421	-0.69059
0.25071	-1.02219
0.19971	-0.05289
0.09770	0.61031
0.22521	0.78886
-0.05531	-0.28246
-0.00431	0.58480
0.14870	0.50828
0.22521	-0.38449
0.12320	0.45726
-0.00431	0.71234
0.09770	-1.09871
0.32721	0.32972
0.30171	0.40625
0.12320	0.43176
-0.10631	0.73785
0.12320	0.15117
0.27621	-0.15492
0.04670	-0.33348
0.22521	0.40625
0.19971	0.68683
-0.23382	0.07465
0.78624	-0.20594
0.22521	0.48277
-0.10631	0.20219
-0.02981	-0.05289
0.22521	0.25320
0.40372	-0.20594
0.04670	-0.15492
-0.08081	0.32972
-0.00431	0.68683
0.12320	0.25320
0.48022	0.48277
0.35272	0.27871
0.09770	0.35523
0.14870	0.45726
0.12320	0.76336
-0.00431	-2.45062
0.22521	-0.10391
0.07220	0.04914
0.27621	0.40625
0.09770	0.66132
0.07220	0.73785
0.22521	0.55929
-0.00431	0.25320
0.37822	0.25320
-0.10631	-0.00188
0.07220	-0.18043
0.07220	0.25320
0.35272	-0.15492
0.12320	-0.38449
0.32721	-0.51203
0.14870	0.66132
0.37822	-0.28246
0.30171	-0.25695
-0.53984	0.66132
-0.46334	0.27871
0.30171	-0.43551
-0.13181	0.10015
0.27621	0.83988
0.40372	0.76336
0.27621	0.40625
0.30171	0.15117
0.32721	-0.53754
0.17421	0.04914
-0.05531	0.76336
0.32721	0.02363
0.37822	-1.04770
0.02119	0.45726
-0.02981	0.22769
-0.18282	0.12566
0.14870	0.53379
0.09770	0.48277
0.27621	0.48277
-0.00431	0.15117
0.50573	0.25320
0.35272	0.30422
0.50573	-1.27726
0.12320	-1.07320
-0.69285	0.55929
-0.13181	0.83988
0.37822	0.43176
0.40372	0.38074
-0.08081	0.55929
0.42922	0.45726
0.53123	0.38074
0.02119	0.30422
0.02119	0.27871
0.12320	0.12566
0.04670	-0.99668
0.04670	0.45726
0.42922	-0.20594
0.02119	-0.41000
0.19971	0.38074
0.17421	0.58480
0.07220	0.20219
-0.28482	0.58480
0.68424	0.20219
0.25071	-0.66508
-0.18282	0.35523
0.27621	0.63582
0.07220	0.22769
0.12320	-1.02219
0.30171	0.35523
0.19971	0.17668
0.04670	-0.00188
0.22521	-0.25695
0.65874	0.58480
0.09770	0.38074
-0.69285	0.25320
0.17421	-0.18043
0.37822	0.22769
0.37822	0.48277
-0.05531	0.10015
0.07220	0.02363
0.32721	0.25320
0.40372	0.07465
-0.00431	0.07465
-0.23382	-0.86914
0.58223	0.66132
0.30171	0.66132
-0.10631	-0.30797
-0.08081	0.38074
0.04670	0.58480
0.22521	0.66132
0.12320	0.38074
0.17421	-0.25695
-0.10631	0.25320
0.63323	-0.41000
0.04670	-0.10391
-0.10631	-0.15492
-0.08081	0.63582
0.42922	0.04914
0.30171	-0.23145
0.14870	0.53379
0.09770	0.73785
0.12320	0.71234
0.25071	0.61031
0.19971	-0.28246
0.17421	0.30422
0.42922	0.17668
0.07220	0.07465
-0.56534	-0.07840
-0.00431	-0.12942
0.42922	0.10015
0.48022	-0.02739
0.45472	0.27871
-0.18282	0.45726
-0.10631	0.02363
0.37822	0.55929
0.32721	-0.61406
0.17421	-0.07840
0.09770	-0.28246
0.19971	0.58480
0.07220	0.22769
0.02119	0.22769
0.17421	0.71234
-0.00431	0.91640
-0.02981	0.15117
0.73524	-1.07320
-0.00431	0.53379
0.19971	0.38074
-0.13181	-0.41000
-0.05531	0.25320
0.17421	0.43176
0.27621	0.30422
0.27621	0.22769
0.30171	-0.28246
0.02119	0.55929
0.17421	-0.94566
0.32721	-0.30797
0.12320	0.25320
0.27621	0.27871
0.27621	0.38074
0.12320	0.38074
0.07220	0.35523
0.12320	0.10015
0.17421	-0.20594
0.12320	0.66132
0.14870	-0.61406
-0.36133	0.66132
-0.20832	0.50828
0.68424	-0.79262
0.53123	0.53379
-0.08081	0.43176
0.14870	0.12566
0.09770	0.81437
0.17421	-0.89465
0.22521	0.15117
0.12320	-0.10391
0.22521	0.55929
0.12320	-0.02739
0.30171	0.58480
-0.00431	0.35523
-0.02981	0.27871
0.12320	-0.23145
0.12320	-0.81812
0.09770	0.38074
0.27621	0.45726
0.25071	0.35523
0.35272	0.22769
-0.23382	0.25320
0.42922	0.04914
0.65874	0.43176
0.02119	-0.25695
0.32721	0.32972
0.12320	-0.07840
-0.33583	-1.81293
-0.23382	0.94191
0.35272	0.66132
0.32721	0.48277
0.19971	-0.05289
0.30171	0.32972
0.09770	0.25320
0.12320	0.25320
0.27621	0.53379
-0.10631	0.32972
0.02119	0.04914
0.25071	-0.23145
0.12320	0.86539
0.32721	-0.41000
0.27621	-0.02739
-0.13181	-0.69059
0.30171	0.76336
0.37822	-0.48652
-0.46334	-0.05289
-0.08081	0.91640
0.12320	0.50828
0.40372	0.43176
0.40372	-0.20594
0.53123	0.22769
0.42922	0.66132
-0.33583	0.07465
-0.15732	0.15117
-0.00431	-1.07320
0.14870	-0.48652
0.12320	0.38074
0.32721	1.37554
0.17421	-0.69059
0.02119	-0.18043
0.07220	0.40625
0.48022	0.27871
0.48022	0.17668
0.12320	0.04914
-0.08081	0.12566
0.12320	0.32972
0.22521	0.45726
-0.08081	0.30422
-0.10631	-0.28246
0.22521	-0.18043
0.12320	-0.56305
0.35272	0.15117
0.12320	0.55929
0.02119	0.27871
0.27621	0.40625
0.17421	0.32972
0.12320	0.04914
0.12320	-0.33348
0.19971	0.04914
0.45472	-0.30797
0.40372	0.73785
-0.13181	0.48277
0.14870	0.17668
-0.00431	0.48277
0.09770	0.25320
0.37822	0.10015
-0.10631	0.12566
0.07220	0.27871
0.27621	-0.56305
0.07220	0.15117
0.12320	0.35523
0.22521	-0.89465
0.30171	-0.07840
0.19971	0.78886
0.27621	0.10015
-0.05531	0.45726
-0.25932	0.45726
0.63323	1.17148
0.32721	-0.71609
0.09770	-0.25695
0.02119	-0.05289
0.02119	0.30422
0.12320	0.25320
0.17421	0.71234
0.78624	0.38074
0.27621	0.15117
0.09770	-0.15492
-0.08081	0.48277
-0.13181	0.32972
0.04670	-0.51203
0.30171	-0.28246
0.19971	0.48277
0.04670	0.68683
0.22521	0.48277
-0.05531	-0.35899
0.42922	-0.00188
0.09770	0.22769
-0.05531	0.32972
0.27621	0.61031
0.09770	-0.23145
0.14870	0.02363
0.02119	0.30422
0.42922	-0.07840
0.25071	0.40625
-0.08081	-0.10391
0.25071	0.32972
0.12320	-0.97117
0.14870	0.27871
0.14870	0.45726
-0.08081	0.15117
0.37822	0.02363
-0.00431	-0.35899
0.12320	0.63582
0.32721	0.83988
0.02119	-0.35899
0.22521	0.71234
-0.02981	0.35523
0.02119	0.55929
0.02119	-0.99668
0.42922	-0.66508
0.37822	0.10015
0.17421	0.15117
0.19971	0.76336
0.02119	0.45726
0.14870	0.40625
-0.08081	0.63582
0.19971	-0.05289
0.65874	0.12566
-0.20832	-0.15492
-0.08081	-0.63957
0.19971	0.45726
0.35272	-0.25695
0.25071	0.04914
-0.00431	0.76336
0.25071	0.17668
0.19971	0.40625
0.17421	-0.28246
-0.18282	-0.25695
0.27621	-0.71609
-0.10631	0.76336
-0.08081	0.73785
0.48022	0.17668
0.37822	0.43176
0.30171	0.40625
0.25071	-0.00188
0.25071	0.02363
-0.05531	0.15117
0.04670	-0.07840
0.12320	0.20219
-0.02981	0.02363
0.22521	-0.30797
0.27621	-0.48652
0.12320	0.30422
0.14870	-0.05289
-0.02981	0.58480
0.22521	0.76336
0.19971	0.76336
-0.02981	0.40625
0.22521	-0.23145
0.02119	0.32972
-0.00431	-0.46102
0.12320	-0.99668
0.55673	-0.07840
0.25071	0.68683
0.19971	0.78886
-0.05531	0.32972
0.09770	0.73785
0.17421	0.81437
0.07220	-0.66508
0.53123	-0.00188
-0.25932	0.58480
-0.56534	-0.99668
0.48022	0.45726
0.63323	-0.02739
-0.05531	-0.63957
0.68424	0.40625
0.40372	0.27871
0.07220	0.10015
-0.15732	0.58480
-0.18282	0.38074
0.12320	0.43176
-0.05531	0.22769
0.02119	0.10015
0.19971	-0.15492
0.42922	-0.07840
0.17421	0.10015
0.30171	0.43176
0.19971	0.40625
0.14870	-0.48652
0.02119	0.35523
0.25071	0.07465
-0.18282	-0.10391
-0.28482	-0.38449
0.27621	-0.07840
0.17421	0.35523
0.55673	0.61031
0.42922	0.50828
0.19971	1.06945
0.04670	0.15117
0.12320	-0.89465
0.27621	0.53379
0.30171	0.20219
-0.20832	0.17668
-0.51434	0.27871
0.04670	0.22769
0.40372	0.50828
0.50573	0.30422
0.12320	-0.35899
0.22521	-0.33348
0.30171	-0.76711
0.02119	0.27871
0.07220	0.38074
-0.13181	0.40625
0.30171	0.76336
0.35272	-0.18043
0.42922	0.43176
0.09770	0.66132
-0.15732	0.17668
0.02119	0.15117
0.14870	-0.46102
-0.00431	-0.20594
0.17421	0.17668
0.30171	0.48277
0.07220	-0.25695
0.12320	0.30422
-0.10631	0.53379
0.55673	0.40625
0.25071	0.30422
0.30171	0.45726
0.07220	0.35523
0.07220	-0.86914
0.14870	-0.25695
0.14870	0.30422
-0.08081	-0.15492
0.27621	0.02363
0.04670	0.10015
0.09770	0.45726
0.30171	0.55929
0.37822	0.73785
0.27621	0.35523
-0.56534	-0.81812
-0.15732	-0.20594
0.40372	-0.07840
0.35272	0.20219
0.07220	0.86539
-0.08081	0.40625
0.53123	-0.10391
0.19971	0.07465
0.17421	0.40625
0.04670	0.32972
0.32721	0.20219
0.25071	-0.10391
0.12320	-0.43551
0.12320	-0.56305
-0.13181	0.35523
-0.08081	0.43176
0.32721	0.50828
-0.18282	0.55929
-0.08081	0.45726
0.99026	0.55929
0.19971	-0.63957
0.12320	-0.02739
-0.08081	0.12566
-0.00431	-0.12942
0.09770	0.40625
0.12320	-0.18043
0.17421	0.48277
0.19971	0.17668
0.27621	-0.97117
0.42922	0.32972
0.14870	0.71234
-0.00431	0.55929
0.04670	0.40625
0.32721	-0.23145
0.60773	-0.35899
-0.31033	0.07465
-0.64185	0.61031
0.50573	0.43176
0.30171	0.40625
0.30171	0.22769
0.60773	0.12566
0.07220	0.15117
-0.15732	0.25320
0.09770	0.58480
-0.00431	0.25320
0.12320	-1.83844
-0.08081	-0.12942
0.32721	0.35523
0.19971	0.61031
0.27621	0.40625
0.27621	0.50828
0.09770	0.25320
0.04670	0.25320
0.07220	0.35523
0.32721	0.12566
0.32721	0.12566
0.09770	0.15117
-0.00431	-0.18043
0.12320	0.45726
0.17421	0.04914
-0.05531	0.35523
-0.05531	0.35523
0.30171	0.02363
0.63323	0.17668
-0.28482	0.55929
0.09770	0.20219
0.22521	0.20219
0.27621	0.38074
0.22521	-0.30797
0.17421	-1.02219
0.14870	0.58480
0.02119	0.76336
0.09770	0.55929
0.25071	0.50828
0.12320	0.22769
0.14870	0.10015
0.22521	0.07465
0.12320	0.25320
-0.15732	-0.12942
0.22521	-0.79262
0.27621	-0.51203
0.22521	-0.46102
-0.15732	0.55929
0.19971	0.63582
0.25071	0.63582
0.22521	0.40625
0.12320	0.27871
0.04670	0.38074
0.32721	0.04914
0.19971	-0.10391
-0.20832	0.04914
-0.13181	0.15117
0.60773	0.12566
0.25071	-0.05289
-0.23382	0.12566
0.35272	0.35523
0.40372	0.25320
0.02119	-0.05289
-0.28482	0.45726
0.32721	0.15117
0.35272	-0.05289
0.04670	0.12566
0.14870	0.30422
0.14870	0.66132
0.07220	-0.30797
0.22521	0.07465
0.12320	-0.23145
0.25071	0.27871
0.19971	0.17668
0.02119	0.45726
0.27621	0.48277
0.14870	0.22769
-0.02981	0.48277
0.22521	0.02363
-0.25932	0.25320
0.40372	-0.46102
0.70974	-0.05289
0.02119	0.10015
-0.10631	0.02363
0.09770	0.02363
-0.28482	0.40625
0.22521	0.43176
0.68424	0.45726
-0.02981	0.12566
-0.61635	-0.05289
0.42922	0.22769
0.53123	0.15117
0.14870	0.61031
0.27621	0.10015
0.19971	-0.10391
0.48022	-0.07840
0.40372	0.45726
-0.00431	-0.35899
-0.05531	0.25320
0.04670	0.15117
-0.10631	0.50828
0.14870	0.22769
0.32721	0.45726
0.14870	0.38074
0.12320	0.25320
0.12320	0.40625
0.12320	-0.56305
0.14870	-0.66508
0.19971	0.15117
0.12320	0.45726
0.14870	0.91640
0.37822	0.27871
0.04670	0.07465
0.17421	-0.12942
0.04670	0.02363
0.02119	0.25320
0.14870	0.38074
0.19971	0.35523
0.17421	-0.05289
0.14870	-0.53754
0.17421	0.10015
-0.02981	0.40625
0.27621	0.66132
0.02119	0.32972
0.07220	0.17668
0.14870	-0.92016
0.14870	0.15117
0.35272	0.50828
0.07220	1.47757
0.55673	-0.66508
-0.48884	0.32972
