0.07220	0.20219
0.22521	0.12566
0.14870	0.02363
0.17421	0.15117
0.17421	0.12566
0.07220	0.25320
0.22521	0.20219
0.07220	0.15117
0.14870	0.15117
0.12320	0.17668
0.12320	0.17668
0.22521	0.07465
0.14870	0.02363
0.17421	0.20219
0.22521	0.15117
0.04670	0.17668
0.14870	0.22769
0.09770	0.17668
0.07220	0.17668
0.12320	0.20219
0.19971	0.15117
0.12320	0.02363
0.09770	-0.02739
0.14870	0.25320
0.22521	0.25320
0.14870	0.07465
0.09770	0.10015
0.12320	0.22769
0.22521	0.25320
0.14870	0.15117
0.09770	0.04914
0.07220	0.12566
0.12320	0.17668
0.22521	0.15117
0.12320	0.12566
0.12320	0.20219
0.14870	0.25320
0.22521	0.15117
0.12320	0.07465
0.07220	0.12566
0.14870	0.20219
0.22521	0.10015
0.14870	-0.02739
0.19971	0.17668
0.07220	0.22769
0.14870	0.25320
0.14870	0.12566
0.19971	0.04914
0.12320	0.15117
0.07220	0.15117
0.14870	0.15117
0.19971	0.07465
0.12320	0.12566
0.09770	0.25320
0.14870	0.20219
0.25071	0.12566
0.12320	0.15117
0.14870	0.20219
0.22521	0.12566
0.14870	0.04914
0.09770	0.12566
0.07220	0.22769
0.14870	0.07465
0.22521	0.17668
0.12320	0.17668
0.09770	0.17668
0.14870	0.17668
0.22521	0.15117
0.14870	0.02363
0.07220	0.12566
0.12320	0.20219
0.22521	0.22769
0.14870	0.15117
0.12320	0.12566
0.07220	0.17668
0.12320	0.25320
0.19971	0.12566
0.17421	0.15117
0.14870	-0.00188
0.09770	0.15117
0.07220	0.17668
0.14870	0.17668
0.19971	0.07465
0.27621	0.15117
0.04670	0.20219
0.17421	0.25320
0.22521	0.10015
0.14870	-0.00188
0.04670	0.12566
0.12320	0.17668
0.19971	0.12566
0.14870	0.10015
0.09770	0.20219
0.14870	0.25320
0.19971	0.25320
0.17421	0.15117
0.07220	0.12566
0.12320	0.15117
0.19971	0.12566
0.22521	0.15117
0.17421	0.04914
0.09770	0.17668
0.14870	0.17668
0.19971	0.25320
0.25071	0.22769
0.12320	0.07465
0.07220	0.10015
0.09770	0.15117
0.14870	0.10015
0.22521	0.12566
0.12320	0.10015
0.07220	0.17668
0.14870	0.22769
0.22521	0.17668
0.14870	0.22769
0.12320	0.15117
0.09770	0.17668
0.12320	0.10015
0.22521	0.10015
0.04670	0.15117
0.12320	0.15117
0.17421	0.12566
0.17421	0.12566
0.14870	0.22769
0.12320	0.27871
0.22521	0.17668
0.14870	0.04914
0.07220	0.12566
0.19971	0.10015
0.12320	0.02363
0.07220	0.20219
0.22521	0.15117
0.17421	0.12566
0.09770	0.20219
0.14870	0.27871
0.22521	0.15117
0.09770	0.10015
0.14870	0.12566
0.22521	0.04914
0.17421	0.12566
0.07220	0.12566
0.17421	0.22769
0.12320	0.07465
0.12320	0.25320
0.12320	0.22769
0.22521	0.15117
0.07220	0.04914
0.14870	0.15117
0.22521	0.10015
0.12320	0.07465
0.12320	0.20219
0.25071	0.15117
0.14870	0.20219
0.14870	0.20219
0.12320	0.20219
0.07220	0.25320
0.12320	0.12566
0.14870	0.07465
0.07220	0.15117
0.14870	0.04914
0.14870	0.12566
0.07220	0.25320
0.22521	0.02363
0.22521	0.25320
0.07220	0.20219
0.19971	0.12566
0.12320	0.02363
0.12320	0.15117
0.22521	0.10015
0.14870	0.10015
0.09770	0.17668
0.22521	0.10015
0.09770	0.20219
0.17421	0.22769
0.17421	0.15117
0.09770	0.25320
0.19971	0.07465
0.14870	0.07465
0.09770	0.15117
0.22521	0.07465
0.17421	0.22769
0.17421	0.17668
0.12320	0.15117
0.09770	0.17668
0.19971	0.25320
0.07220	0.22769
0.14870	0.20219
0.14870	-0.00188
0.09770	0.10015
0.19971	0.10015
0.14870	0.10015
0.09770	0.25320
0.19971	0.30422
0.12320	0.12566
0.09770	0.20219
0.19971	0.20219
0.14870	0.04914
0.12320	0.02363
0.12320	0.17668
0.19971	0.15117
0.22521	0.07465
0.12320	0.22769
0.07220	0.22769
0.17421	0.22769
0.19971	0.12566
0.14870	0.17668
0.09770	0.15117
0.17421	0.07465
0.17421	-0.00188
0.17421	0.07465
0.17421	0.12566
0.22521	0.25320
0.14870	0.15117
0.07220	0.17668
0.14870	0.27871
0.19971	0.15117
0.17421	0.02363
0.07220	0.04914
0.12320	0.17668
0.19971	0.10015
0.09770	0.15117
0.14870	0.25320
0.22521	0.10015
0.17421	0.15117
0.04670	0.25320
0.14870	0.22769
0.22521	0.10015
0.04670	0.04914
0.14870	0.17668
0.22521	0.12566
0.14870	0.15117
0.09770	0.22769
0.14870	0.22769
0.22521	0.17668
0.14870	0.15117
0.07220	0.15117
0.17421	0.17668
0.19971	0.04914
0.12320	0.02363
0.07220	0.12566
0.17421	0.17668
0.19971	0.22769
0.09770	0.10015
0.17421	0.22769
0.19971	0.22769
0.14870	0.04914
0.09770	0.07465
0.14870	0.15117
0.22521	0.10015
0.14870	0.10015
0.07220	0.02363
0.14870	0.25320
0.14870	0.22769
0.19971	0.17668
0.14870	0.17668
0.04670	0.22769
0.12320	0.10015
0.19971	0.02363
0.14870	0.07465
0.07220	0.15117
0.14870	0.15117
0.14870	0.22769
0.14870	0.10015
0.12320	0.15117
0.12320	0.25320
0.12320	0.15117
0.27621	0.07465
0.14870	0.02363
0.09770	0.12566
0.07220	0.20219
0.19971	0.12566
0.12320	0.20219
0.07220	0.22769
0.07220	0.27871
0.14870	0.25320
0.22521	0.15117
0.22521	-0.02739
0.07220	0.07465
0.14870	0.20219
0.19971	0.04914
0.12320	0.15117
0.09770	0.20219
0.25071	0.20219
0.17421	0.22769
0.09770	0.20219
0.17421	0.22769
0.17421	0.04914
0.14870	-0.00188
0.09770	0.07465
0.17421	0.10015
0.25071	0.12566
0.17421	0.20219
0.09770	0.27871
0.12320	0.15117
0.09770	0.27871
0.14870	0.25320
0.12320	0.10015
0.12320	0.02363
0.09770	0.15117
0.19971	0.12566
0.12320	0.02363
0.14870	0.30422
0.22521	0.12566
0.22521	0.17668
0.07220	0.20219
0.19971	0.15117
0.14870	-0.02739
0.09770	0.04914
0.19971	0.15117
0.12320	0.04914
0.09770	0.12566
0.12320	0.30422
0.19971	0.22769
0.14870	0.12566
0.14870	0.20219
0.12320	0.25320
0.19971	0.02363
0.12320	-0.00188
0.09770	0.04914
0.17421	0.15117
0.19971	0.20219
0.14870	0.22769
0.09770	0.12566
0.17421	0.25320
0.12320	0.20219
0.19971	0.10015
0.14870	0.02363
0.07220	0.17668
0.14870	0.12566
0.19971	0.04914
0.12320	0.12566
0.09770	0.25320
0.22521	0.22769
0.19971	0.12566
0.14870	0.27871
0.14870	0.12566
0.22521	0.10015
0.12320	0.15117
0.14870	0.02363
0.17421	0.12566
0.07220	0.22769
0.22521	0.15117
0.12320	0.20219
0.14870	0.22769
0.22521	0.15117
0.09770	0.20219
0.12320	0.12566
0.22521	0.04914
0.07220	0.04914
0.19971	0.04914
0.12320	0.20219
0.14870	0.20219
0.14870	0.17668
0.07220	0.27871
0.22521	0.22769
0.14870	0.22769
0.14870	0.15117
0.14870	-0.00188
0.14870	0.07465
0.14870	0.12566
0.19971	0.15117
0.09770	0.22769
0.14870	0.17668
0.25071	0.25320
0.07220	0.22769
0.14870	0.25320
0.19971	0.07465
0.14870	-0.02739
0.07220	0.07465
0.14870	0.15117
0.22521	0.15117
0.17421	0.15117
0.14870	0.22769
0.04670	0.27871
0.12320	0.17668
0.14870	0.10015
0.07220	0.04914
0.17421	0.15117
0.22521	-0.02739
0.09770	0.10015
0.14870	0.25320
0.19971	0.22769
0.17421	0.04914
0.09770	0.25320
0.14870	0.27871
0.17421	0.12566
0.12320	-0.00188
0.07220	0.07465
0.14870	0.04914
0.22521	0.02363
0.17421	0.12566
0.12320	0.35523
0.22521	0.12566
0.12320	0.27871
0.12320	0.20219
0.14870	0.15117
0.07220	0.10015
0.22521	-0.02739
0.09770	0.15117
0.14870	0.02363
0.14870	0.15117
0.12320	0.20219
0.19971	0.10015
0.17421	0.20219
0.12320	0.17668
0.19971	0.04914
0.07220	0.10015
0.14870	0.12566
0.22521	0.07465
0.07220	0.12566
0.19971	0.15117
0.14870	0.25320
0.14870	0.22769
0.14870	0.15117
0.14870	0.27871
0.12320	0.12566
0.14870	0.15117
0.17421	0.02363
0.09770	0.07465
0.22521	0.10015
0.09770	0.20219
0.14870	0.20219
0.12320	0.15117
0.19971	0.25320
0.22521	0.15117
0.04670	0.20219
0.12320	0.07465
0.19971	0.02363
0.07220	0.15117
0.14870	0.10015
0.17421	0.17668
0.09770	0.25320
0.12320	0.15117
0.14870	0.20219
0.12320	0.22769
0.12320	0.15117
0.07220	0.10015
0.12320	0.04914
0.17421	0.04914
0.12320	0.20219
0.14870	0.15117
0.17421	0.15117
0.14870	0.17668
0.17421	0.15117
0.12320	0.22769
0.12320	0.25320
0.09770	0.04914
0.19971	0.04914
0.07220	0.07465
0.22521	0.07465
0.07220	0.22769
0.22521	0.10015
0.09770	0.32972
0.22521	0.12566
0.17421	0.20219
0.09770	0.20219
0.12320	0.07465
0.22521	-0.00188
0.19971	0.12566
0.09770	0.15117
0.14870	0.15117
0.22521	0.15117
0.12320	0.17668
0.17421	0.22769
0.19971	0.15117
0.12320	0.17668
0.14870	0.12566
0.17421	0.04914
0.17421	0.07465
0.14870	0.17668
0.22521	0.12566
0.12320	0.12566
0.04670	0.20219
0.14870	0.20219
0.14870	0.15117
0.07220	0.25320
0.22521	0.04914
0.14870	0.10015
0.14870	0.15117
0.22521	0.02363
0.12320	0.20219
0.22521	0.12566
0.04670	0.22769
0.25071	0.20219
0.04670	0.25320
0.22521	0.15117
0.07220	0.10015
0.22521	-0.02739
0.04670	0.12566
0.19971	0.04914
0.07220	0.17668
0.14870	0.20219
0.14870	0.15117
0.17421	0.27871
0.22521	0.10015
0.07220	0.20219
0.22521	0.04914
0.07220	0.10015
0.22521	0.10015
0.12320	0.00000
0.17421	0.04914
0.14870	0.17668
0.14870	0.17668
0.22521	0.20219
0.09770	0.17668
0.22521	0.25320
0.14870	0.15117
0.12320	0.07465
0.14870	0.07465
0.07220	0.04914
0.19971	0.20219
0.09770	0.10015
0.14870	0.30422
0.19971	0.15117
0.09770	0.20219
0.22521	0.17668
0.07220	0.17668
0.22521	0.17668
0.09770	-0.00188
0.14870	0.15117
0.12320	0.02363
0.14870	0.22769
0.19971	0.22769
0.12320	0.15117
0.14870	0.30422
0.07220	0.22769
0.17421	0.15117
0.17421	0.12566
0.09770	-0.02739
0.17421	0.07465
0.17421	0.10015
0.14870	0.15117
0.22521	0.25320
0.04670	0.17668
0.14870	0.17668
0.17421	0.22769
0.07220	0.17668
0.22521	0.12566
0.17421	0.02363
0.14870	0.15117
0.12320	0.10015
0.09770	0.17668
0.22521	0.25320
0.17421	0.04914
0.07220	0.22769
0.22521	0.20219
0.07220	0.10015
0.22521	0.15117
0.14870	0.02363
0.17421	0.10015
0.14870	0.12566
0.07220	0.04914
0.19971	0.25320
0.14870	0.22769
0.09770	0.20219
0.22521	0.27871
0.12320	0.10015
0.07220	0.12566
0.14870	0.12566
0.07220	0.10015
0.12320	0.15117
0.17421	0.12566
0.14870	0.25320
0.22521	0.12566
0.12320	0.15117
0.17421	0.27871
0.14870	0.12566
0.14870	-0.00188
0.22521	0.10015
0.07220	0.02363
0.14870	0.17668
0.14870	0.02363
0.12320	0.30422
0.14870	0.15117
0.12320	0.30422
0.14870	0.12566
0.17421	0.17668
0.17421	0.10015
0.14870	0.07465
0.14870	0.07465
0.09770	-0.02739
0.19971	0.25320
0.09770	0.12566
0.17421	0.15117
0.12320	0.25320
0.07220	0.20219
0.17421	0.20219
0.12320	0.04914
0.14870	0.04914
0.22521	0.10015
0.09770	-0.00188
0.14870	0.15117
0.12320	0.22769
0.14870	0.22769
0.12320	0.22769
0.09770	0.15117
0.22521	0.27871
0.07220	0.02363
0.12320	0.15117
0.14870	0.07465
0.09770	0.07465
0.19971	0.15117
0.07220	0.25320
0.27621	0.22769
0.07220	0.22769
0.19971	0.20219
0.12320	0.15117
0.14870	0.12566
0.19971	0.10015
0.09770	-0.00188
0.22521	0.12566
0.09770	0.04914
0.22521	0.25320
0.14870	0.25320
0.12320	0.22769
0.17421	0.20219
0.02119	0.17668
0.19971	0.10015
0.09770	0.04914
0.22521	0.12566
0.14870	0.02363
0.17421	0.15117
0.22521	0.27871
0.09770	0.07465
0.12320	0.25320
0.12320	0.27871
0.07220	0.15117
0.17421	0.07465
0.19971	0.02363
0.22521	0.10015
0.12320	0.02363
0.17421	0.15117
0.14870	0.27871
0.19971	0.25320
0.12320	0.15117
0.09770	0.20219
0.14870	0.22769
0.17421	-0.02739
0.12320	0.04914
0.22521	0.10015
0.09770	0.07465
0.14870	0.12566
0.17421	0.20219
0.09770	0.07465
0.17421	0.30422
0.14870	0.22769
0.17421	0.12566
0.22521	0.12566
0.09770	0.02363
0.17421	0.04914
0.12320	0.04914
0.04670	0.10015
0.22521	0.27871
0.14870	0.22769
0.14870	0.15117
0.22521	0.22769
0.09770	0.12566
0.22521	0.10015
0.12320	0.04914
0.09770	0.07465
0.14870	0.35523
0.12320	0.17668
0.17421	0.30422
0.17421	0.20219
0.19971	-0.69059
0.30171	-0.41000
0.17421	0.15117
0.09770	0.76336
0.09770	0.15117
0.12320	0.63582
0.12320	0.78886
0.09770	-0.86914
0.07220	-0.28246
0.19971	0.43176
0.45472	0.91640
0.40372	0.48277
0.07220	0.30422
0.02119	0.04914
0.07220	-0.28246
0.60773	-0.18043
-0.02981	0.40625
-0.08081	-0.46102
0.07220	-0.00188
0.42922	1.01843
0.73524	-0.92016
0.30171	-1.78742
-0.33583	-0.23145
-0.46334	2.34484
-0.20832	2.19179
1.14327	1.93671
-0.10631	0.66132
-1.12638	-1.04770
0.78624	-4.13413
1.11776	-0.46102
0.19971	1.78367
0.12320	1.12046
0.09770	0.83988
-0.08081	1.06945
0.02119	0.43176
0.09770	0.12566
0.55673	0.38074
0.60773	-0.56305
-1.53441	-2.88425
-0.69285	-1.91496
0.88825	-2.27207
0.17421	-0.38449
-0.33583	3.05905
0.32721	3.11007
-0.59084	0.10015
2.67337	-5.00139
-0.76936	0.91640
0.40372	0.66132
0.09770	2.70194
0.09770	5.25272
1.14327	-0.28246
-0.10631	-0.97117
-0.56534	-0.38449
0.48022	-3.16484
-2.80949	-1.20074
2.85188	1.22250
1.57679	1.19699
-1.66191	-1.63437
-0.23382	-0.69059
0.68424	0.15117
0.12320	1.52859
-1.07538	1.32453
-0.41233	0.86539
1.47479	-0.00188
1.11776	-0.53754
0.96476	0.04914
-1.55991	0.07465
1.65330	0.17668
-0.92237	-0.05289
-0.43783	1.19699
1.62780	0.73785
0.91375	-0.33348
-0.25932	-2.85874
-0.02981	-1.99148
-1.02437	0.61031
1.70430	2.26831
-0.97337	-1.35379
-0.76936	0.45726
0.63323	1.14597
0.17421	1.37554
0.19971	1.68163
1.21977	1.78367
0.48022	1.22250
-0.56534	-0.38449
-1.55991	-4.03210
0.50573	-0.05289
1.34728	1.06945
0.76074	1.57960
0.19971	1.32453
-0.20832	0.30422
-0.38683	-0.94566
-0.00431	0.04914
-0.05531	-1.63437
0.14870	-4.36370
-1.35589	0.32972
0.91375	1.24800
1.44929	1.70714
-1.45790	1.17148
0.40372	0.55929
0.27621	-0.18043
1.62780	2.39585
-0.33583	-1.22625
-1.33039	0.02363
0.14870	-0.89465
-0.13181	0.48277
0.73524	0.66132
0.58223	0.12566
0.42922	-1.37929
0.17421	-0.86914
0.19971	-0.56305
0.19971	0.25320
0.27621	1.75816
0.81175	1.75816
-0.43783	0.22769
-0.71835	-0.10391
0.09770	0.25320
0.14870	1.17148
0.09770	0.35523
0.42922	-0.07840
0.35272	-0.63957
-0.05531	-0.05289
0.50573	1.06945
-0.15732	-0.25695
0.02119	0.32972
-0.64185	-1.88945
2.06133	-0.35899
0.53123	0.38074
0.09770	1.68163
-1.10088	2.34484
1.04126	-2.70570
-0.08081	0.53379
-0.89686	0.78886
0.32721	0.25320
-0.00431	0.10015
-0.10631	-0.05289
1.50029	0.25320
-0.10631	-0.56305
-1.53441	0.96742
1.09226	0.68683
0.50573	-0.43551
-0.71835	-1.14973
0.76074	-0.20594
0.58223	2.01323
0.93925	-0.66508
-0.41233	2.21730
-0.64185	-5.40952
-0.13181	-0.15492
-0.66735	2.37034
1.39828	0.91640
0.30171	2.24281
-1.86593	-0.15492
1.32178	0.02363
1.09226	0.48277
-0.08081	1.06945
-0.74385	0.22769
1.47479	0.22769
-0.94787	-0.86914
-0.41233	-0.53754
0.32721	0.15117
-0.43783	-0.35899
1.75531	-0.84363
0.63323	-0.43551
-0.53984	-0.58856
-0.00431	0.30422
0.35272	0.83988
1.16877	0.63582
-0.28482	0.76336
-0.82036	-0.02739
0.12320	-0.00188
1.21977	-2.34859
-0.38683	1.73265
-0.02981	2.01323
-0.28482	1.47757
-0.15732	0.81437
0.70974	-1.25176
0.14870	0.53379
0.02119	-0.41000
-0.99887	-0.53754
1.42379	0.40625
0.25071	0.22769
2.18883	0.32972
-2.42696	0.96742
-0.99887	-0.86914
1.19427	-2.52714
0.12320	-0.23145
-0.13181	-0.94566
1.09226	1.70714
1.04126	1.24800
-0.23382	0.91640
-0.08081	1.24800
-0.51434	-0.53754
0.09770	1.73265
-0.46334	-2.90976
1.21977	-0.66508
0.35272	0.07465
1.34728	0.45726
-0.25932	1.73265
-1.66191	1.06945
-1.38139	-0.69059
1.50029	-0.48652
0.73524	-0.15492
0.40372	0.91640
0.07220	0.20219
-0.94787	0.55929
2.29084	0.40625
0.60773	-0.20594
-1.27939	-0.05289
-0.48884	-0.02739
0.60773	0.04914
1.16877	0.17668
-0.20832	-0.48652
0.48022	0.76336
0.65874	0.30422
-0.61635	0.04914
0.60773	-2.55265
0.09770	-1.35379
-0.48884	2.08976
0.02119	2.14077
-0.25932	2.57441
0.12320	-1.48133
0.45472	0.35523
0.14870	-0.25695
-0.05531	-0.35899
1.21977	0.53379
0.30171	0.58480
-0.74385	1.63062
0.68424	-0.58856
-0.13181	-0.15492
0.58223	-2.80773
0.68424	0.48277
-0.84586	1.27351
0.58223	0.94191
-0.59084	-0.18043
1.06676	-0.58856
0.53123	-0.92016
0.32721	1.19699
0.27621	-1.02219
0.53123	-0.25695
-1.20288	0.40625
-0.87136	0.71234
0.45472	0.83988
0.48022	1.06945
0.37822	0.89089
0.32721	0.38074
0.53123	0.68683
-0.15732	-0.46102
0.30171	-0.12942
0.42922	-0.81812
-0.87136	-0.30797
1.06676	-0.97117
1.37278	0.91640
0.09770	0.63582
-1.35589	1.19699
0.27621	1.22250
0.22521	0.30422
0.07220	0.25320
-0.15732	-0.15492
1.09226	-2.27207
-0.48884	-0.92016
0.70974	-0.15492
-0.05531	0.89089
1.55129	1.86019
-0.53984	0.91640
-0.71835	0.83988
-0.38683	-0.46102
0.25071	-0.02739
0.40372	0.71234
0.25071	-0.81812
0.50573	0.86539
-0.15732	-0.20594
-0.41233	-0.12942
-0.23382	-0.46102
1.24527	0.45726
0.32721	-0.79262
0.40372	0.63582
-0.23382	0.07465
0.32721	1.55410
-0.10631	0.63582
0.53123	0.76336
-0.08081	-1.27726
-0.36133	0.20219
0.07220	0.76336
0.02119	0.66132
0.07220	0.55929
1.52579	-1.14973
-0.08081	0.15117
-0.33583	-0.76711
0.19971	0.89089
-0.20832	-0.86914
0.22521	0.43176
-0.43783	0.78886
-0.13181	1.29902
0.78624	-1.02219
0.25071	0.58480
0.30171	0.55929
0.58223	-0.12942
0.17421	-0.71609
-0.99887	0.15117
0.86275	0.53379
0.91375	1.06945
0.19971	0.48277
0.50573	-0.76711
-1.89143	-2.11902
-0.69285	0.38074
1.27078	0.53379
0.30171	0.76336
1.06676	0.94191
0.04670	1.32453
-0.13181	-0.35899
0.02119	0.27871
0.14870	0.20219
0.19971	-0.53754
0.27621	-0.15492
-0.15732	0.40625
0.12320	0.68683
0.25071	0.89089
0.70974	-0.25695
1.24527	-1.25176
-0.05531	0.43176
0.50573	0.55929
-1.78942	0.55929
0.14870	1.22250
0.60773	0.15117
0.07220	-0.46102
0.17421	-1.37929
0.09770	-0.15492
0.48022	0.76336
-0.10631	0.58480
-0.08081	0.35523
0.50573	0.02363
0.37822	0.25320
-0.18282	0.25320
0.50573	0.68683
0.07220	-0.25695
-0.02981	0.10015
0.02119	0.04914
0.73524	0.12566
-0.13181	-0.10391
0.14870	0.12566
-0.53984	0.04914
0.02119	0.96742
0.99026	0.30422
0.14870	-0.20594
0.60773	0.12566
-1.40690	-0.43551
1.19427	0.58480
0.81175	-0.48652
-0.18282	0.91640
-0.36133	0.22769
-0.48884	1.35003
0.32721	-0.63957
0.65874	0.22769
-1.27939	-0.53754
0.65874	0.22769
1.01576	0.53379
-1.04987	1.32453
0.93925	-0.15492
0.73524	-0.30797
-1.40690	-0.30797
1.27078	0.12566
-0.69285	-0.84363
-0.25932	0.43176
-0.15732	0.91640
1.70430	0.78886
0.32721	0.55929
0.12320	0.30422
0.27621	-0.33348
-0.28482	0.12566
-0.13181	-0.61406
0.32721	0.45726
-0.08081	0.15117
-0.92237	0.89089
1.47479	0.35523
0.35272	-0.89465
-0.33583	-0.76711
0.17421	-0.35899
-0.92237	0.40625
0.91375	0.86539
1.01576	0.89089
0.25071	0.43176
-0.51434	0.53379
-0.13181	0.15117
0.68424	-1.07320
1.70430	0.25320
-0.76936	0.12566
0.04670	0.68683
-0.08081	0.04914
-0.20832	0.32972
-0.13181	0.35523
0.42922	-0.20594
-0.97337	0.45726
0.32721	-0.15492
1.29628	0.17668
0.88825	0.66132
-0.02981	-0.30797
-0.08081	-0.92016
-0.28482	0.10015
-0.13181	0.91640
0.04670	0.68683
0.25071	-0.46102
-0.08081	0.66132
0.30171	0.40625
-1.35589	0.94191
0.81175	-0.61406
1.34728	-0.30797
0.68424	0.40625
-2.04444	0.35523
1.01576	-0.94566
-0.33583	0.12566
1.14327	0.66132
-0.48884	0.53379
-0.43783	0.86539
0.37822	0.30422
-0.38683	-0.12942
0.27621	-0.25695
1.32178	-0.58856
-0.02981	-0.84363
-0.00431	0.76336
-0.08081	0.71234
0.48022	0.78886
0.45472	0.17668
-0.15732	-0.76711
0.30171	-0.38449
0.12320	0.55929
-0.15732	0.53379
-0.20832	0.20219
0.32721	0.40625
0.12320	0.45726
0.30171	0.55929
0.93925	-0.10391
-0.94787	-0.25695
-0.18282	-0.02739
-0.08081	-0.15492
1.75531	-1.55785
1.65330	0.10015
-0.36133	0.40625
0.22521	0.61031
0.55673	0.04914
-0.97337	0.81437
-0.99887	0.99292
0.14870	0.63582
0.35272	-0.18043
0.45472	-1.22625
0.19971	0.94191
-0.59084	-0.00188
0.17421	-0.99668
1.34728	-0.28246
0.40372	0.61031
-0.23382	1.01843
0.30171	0.86539
-0.05531	0.58480
-0.48884	0.15117
0.32721	-0.71609
0.30171	-1.07320
0.07220	-0.43551
0.58223	0.50828
0.19971	1.22250
0.14870	-1.20074
0.27621	-0.15492
0.07220	1.06945
0.14870	1.52859
0.53123	0.71234
-0.79486	0.63582
-0.08081	-0.53754
0.86275	-0.15492
-0.28482	0.30422
-0.28482	0.61031
0.70974	0.32972
0.22521	-1.48133
0.19971	-0.97117
-0.38683	0.43176
1.34728	0.15117
-1.91693	0.66132
1.55129	0.35523
0.93925	0.02363
0.73524	0.53379
-0.38683	0.04914
-0.41233	0.22769
-0.46334	0.66132
0.63323	0.58480
-0.02981	0.07465
-0.33583	0.25320
0.32721	-0.46102
0.07220	0.68683
-0.79486	-0.35899
1.60230	-0.48652
0.32721	-0.92016
-0.56534	0.55929
0.53123	0.96742
0.60773	1.06945
0.27621	-2.52714
-0.36133	0.63582
0.19971	1.45206
0.27621	1.09496
0.27621	0.86539
0.50573	-0.15492
-0.10631	0.35523
-2.27395	-0.23145
2.41835	-0.05289
0.76074	-0.15492
0.25071	-0.81812
-0.13181	0.53379
-1.43240	0.25320
0.12320	-1.04770
-0.43783	0.86539
0.35272	0.35523
0.70974	0.07465
0.50573	-0.58856
-0.31033	0.40625
0.60773	0.73785
0.83725	0.91640
0.68424	0.81437
0.37822	-1.17523
-0.43783	-0.18043
-0.23382	0.55929
-0.05531	-0.69059
0.22521	0.78886
1.42379	0.50828
-0.64185	1.32453
-1.35589	-1.09871
0.55673	-0.41000
0.83725	0.45726
0.68424	0.15117
-0.25932	0.48277
-0.36133	0.02363
-0.05531	0.45726
0.50573	0.20219
0.22521	0.15117
-0.23382	-0.81812
1.09226	0.22769
0.78624	-0.05289
-1.81492	0.61031
0.70974	-0.35899
1.60230	0.20219
-0.05531	0.20219
-0.00431	0.45726
-0.02981	0.02363
-0.18282	0.15117
-0.31033	0.43176
0.09770	0.32972
0.19971	0.04914
-0.66735	-0.18043
0.86275	-1.48133
0.93925	0.78886
0.17421	0.91640
0.17421	-0.05289
-0.02981	0.55929
0.35272	0.32972
-0.31033	0.68683
0.14870	0.48277
0.81175	0.50828
0.09770	-0.35899
-0.08081	-1.81293
0.32721	-0.30797
-0.05531	0.04914
0.45472	0.58480
0.17421	0.63582
-0.43783	0.76336
0.17421	-0.99668
0.48022	0.50828
0.17421	1.37554
-0.00431	0.20219
-0.02981	-0.25695
-0.48884	0.17668
0.63323	-0.00188
0.04670	0.10015
-0.31033	0.27871
2.06133	0.45726
0.60773	0.30422
-0.61635	-0.18043
-0.23382	-1.09871
-0.74385	0.22769
1.14327	0.61031
0.48022	0.55929
-0.69285	0.04914
0.27621	0.15117
0.50573	0.38074
0.53123	-1.02219
-0.79486	0.61031
-1.10088	0.48277
0.07220	0.55929
1.24527	-0.00188
0.19971	0.15117
0.07220	0.30422
0.42922	0.81437
-0.08081	-0.81812
-0.31033	-0.86914
0.76074	0.43176
0.45472	0.94191
0.09770	-0.35899
-0.38683	-0.41000
0.73524	0.53379
0.63323	0.43176
-0.53984	0.50828
0.07220	-0.25695
0.22521	0.32972
0.27621	-0.97117
-0.05531	0.55929
0.17421	0.02363
0.04670	0.68683
0.27621	0.76336
-0.48884	0.30422
1.83181	0.07465
-1.55991	-0.41000
-1.35589	0.27871
1.37278	0.53379
1.11776	0.45726
0.93925	-0.63957
0.32721	-0.33348
-0.61635	-0.35899
-0.28482	0.61031
-0.43783	0.55929
-0.10631	0.17668
0.14870	-0.10391
0.45472	0.12566
0.55673	0.25320
0.48022	1.42656
-0.18282	-0.97117
-0.10631	-0.69059
0.35272	-0.63957
0.22521	0.86539
-0.23382	0.89089
-0.18282	0.30422
0.37822	0.45726
1.01576	0.55929
0.09770	0.17668
-0.18282	-0.15492
0.07220	-0.05289
-0.56534	-0.41000
0.32721	-0.07840
0.99026	-0.15492
-0.08081	0.78886
-0.15732	-0.05289
-0.18282	0.45726
0.45472	-0.28246
-0.74385	-0.86914
0.76074	-0.15492
0.55673	1.01843
1.21977	1.14597
-1.15188	-0.02739
-0.56534	0.20219
-0.05531	0.20219
0.32721	0.30422
0.58223	0.15117
0.40372	0.02363
0.02119	0.17668
0.22521	-0.92016
0.14870	0.83988
0.25071	0.27871
0.04670	-0.12942
0.32721	-1.50683
-1.43240	0.63582
0.42922	0.02363
0.07220	0.40625
0.53123	0.61031
0.42922	0.30422
-0.38683	0.35523
0.32721	0.40625
0.17421	0.40625
0.14870	0.25320
-0.13181	0.30422
-0.00431	-0.05289
0.17421	0.02363
0.58223	-0.07840
0.78624	-0.02739
0.50573	-1.63437
-0.69285	-0.15492
0.07220	0.68683
0.45472	0.96742
-0.36133	0.71234
-0.05531	0.94191
0.12320	0.48277
-0.18282	0.20219
0.63323	-0.00188
0.81175	-0.66508
0.17421	-0.30797
-0.23382	0.83988
0.22521	0.02363
-0.02981	-0.92016
-0.33583	0.15117
0.48022	-0.99668
1.09226	0.61031
-0.51434	0.91640
0.02119	0.48277
-0.28482	0.53379
-1.07538	0.25320
1.93382	0.10015
-1.15188	-0.00188
-0.15732	0.22769
1.14327	0.17668
0.60773	-0.05289
0.07220	-0.18043
0.32721	-0.30797
-0.31033	-0.15492
0.04670	-0.25695
0.12320	0.43176
-1.02437	0.10015
1.72980	0.53379
0.58223	0.04914
-0.08081	-0.10391
-0.48884	1.01843
-0.05531	0.68683
-0.00431	0.45726
0.09770	-0.28246
0.22521	-0.48652
0.22521	0.25320
0.02119	0.55929
0.22521	0.15117
1.09226	0.25320
0.73524	0.22769
-0.46334	0.07465
-0.92237	-0.35899
0.04670	-0.38449
0.35272	-0.20594
0.22521	0.12566
0.17421	0.40625
0.37822	0.73785
0.32721	-0.35899
0.02119	0.04914
0.19971	0.30422
0.27621	0.48277
0.45472	0.35523
0.63323	0.48277
-0.69285	-0.28246
0.19971	0.40625
0.25071	0.35523
-0.00431	-0.00188
0.14870	0.30422
0.02119	0.15117
-0.02981	-0.48652
0.09770	-0.18043
0.40372	-0.61406
0.02119	-0.05289
0.12320	0.48277
0.42922	0.89089
0.30171	0.15117
-0.02981	0.71234
-0.13181	0.48277
-0.05531	0.27871
0.73524	-0.56305
0.27621	-0.43551
0.53123	0.66132
0.07220	0.50828
0.14870	0.25320
-0.10631	0.04914
-0.13181	-0.25695
0.02119	-0.30797
0.14870	-0.05289
0.27621	-0.20594
-0.02981	0.76336
0.14870	1.09496
0.37822	0.43176
0.50573	0.40625
-0.48884	-0.92016
-0.28482	0.07465
0.70974	0.35523
-0.10631	0.43176
0.88825	0.89089
0.76074	0.89089
0.12320	-2.22105
-0.13181	-1.35379
0.12320	-0.00188
-0.36133	1.01843
0.53123	1.17148
0.50573	0.96742
-0.38683	0.66132
-0.08081	-0.07840
-1.35589	0.35523
1.62780	-0.02739
1.16877	0.12566
0.04670	0.43176
-0.31033	-0.46102
0.12320	-0.18043
-0.69285	0.02363
0.76074	-0.10391
-0.00431	0.40625
-0.38683	-0.07840
1.01576	-1.30277
0.63323	0.53379
0.02119	0.81437
-0.05531	0.73785
0.07220	0.55929
0.22521	0.40625
0.09770	-0.20594
0.02119	0.20219
0.48022	0.35523
0.40372	0.45726
-0.66735	-0.18043
0.32721	-0.74160
0.50573	0.53379
0.17421	0.58480
-0.10631	0.27871
0.12320	0.35523
0.68424	0.27871
0.48022	-0.05289
-0.18282	-0.12942
0.14870	0.02363
0.25071	0.07465
-0.33583	0.04914
-0.05531	-0.07840
0.35272	0.50828
-0.20832	0.76336
0.30171	-0.07840
0.22521	-0.30797
0.30171	-0.28246
0.25071	-0.15492
0.02119	0.45726
-0.25932	0.25320
0.58223	0.53379
1.29628	0.86539
0.37822	0.25320
-0.13181	0.45726
-0.25932	-1.40480
-0.23382	-0.12942
0.12320	0.48277
0.12320	0.58480
-0.36133	0.07465
0.37822	0.17668
0.42922	0.35523
0.37822	-0.63957
0.04670	0.12566
0.14870	0.96742
0.19971	0.45726
0.42922	-0.05289
0.83725	-0.56305
-0.51434	0.15117
-0.51434	0.35523
0.14870	0.32972
-0.10631	-0.15492
0.63323	0.22769
0.35272	0.40625
0.32721	0.73785
0.27621	0.04914
-0.15732	-0.10391
0.09770	-0.41000
-0.02981	0.15117
0.19971	0.17668
0.40372	-0.28246
-0.69285	0.17668
1.01576	0.58480
0.93925	0.61031
0.09770	0.27871
-0.28482	0.43176
-0.25932	-0.00188
0.25071	-0.07840
-0.02981	0.15117
0.40372	0.20219
0.42922	-0.02739
0.17421	0.48277
0.09770	-0.46102
-0.02981	0.35523
0.04670	0.63582
0.48022	0.30422
0.40372	0.53379
0.09770	-1.09871
-0.05531	-1.30277
-0.02981	0.55929
0.22521	1.17148
0.30171	0.32972
0.04670	0.43176
0.04670	0.22769
-0.13181	0.38074
0.86275	0.35523
0.30171	0.22769
-1.22839	0.10015
1.27078	-0.00188
0.09770	-0.18043
0.14870	-0.41000
0.12320	0.20219
0.32721	0.58480
0.17421	0.02363
-0.23382	-0.30797
0.25071	0.17668
0.25071	0.68683
0.42922	0.10015
0.19971	0.38074
0.40372	0.04914
0.22521	0.12566
-0.53984	0.15117
0.02119	0.48277
0.17421	0.25320
0.12320	0.48277
0.30171	-0.56305
0.32721	-0.10391
-0.13181	1.04394
0.19971	0.35523
0.48022	-0.28246
0.22521	-0.46102
-0.18282	0.22769
0.19971	0.32972
0.12320	0.30422
0.04670	0.50828
0.14870	0.53379
0.40372	0.66132
-0.08081	-0.25695
0.25071	-0.69059
0.50573	-0.28246
-0.23382	-0.12942
-0.36133	0.40625
-0.15732	-0.41000
0.50573	0.58480
0.48022	0.76336
0.12320	0.66132
0.12320	0.50828
0.48022	0.07465
0.12320	0.20219
0.07220	-0.05289
-0.48884	-0.63957
0.02119	0.04914
0.32721	0.22769
0.27621	0.12566
0.68424	0.22769
-0.59084	-0.18043
0.58223	-0.46102
-0.33583	0.43176
0.35272	0.76336
0.25071	-0.25695
-0.18282	0.32972
0.12320	0.50828
0.07220	-0.53754
0.32721	0.76336
-0.05531	0.10015
0.37822	0.38074
0.68424	0.04914
-0.25932	-0.63957
-0.08081	0.27871
-0.00431	0.55929
0.48022	0.50828
0.27621	0.40625
-0.08081	-0.10391
0.42922	-0.07840
0.25071	0.15117
0.04670	-0.86914
0.27621	0.25320
-0.53984	0.35523
-0.13181	0.22769
0.42922	0.27871
-0.05531	0.10015
0.19971	0.32972
0.53123	0.22769
0.30171	0.40625
0.42922	-0.74160
0.48022	1.57960
-0.05531	-0.02739
-0.28482	-1.71090
-0.13181	0.10015
-0.25932	0.68683
0.68424	0.73785
0.12320	0.55929
0.30171	0.53379
0.02119	-1.17523
0.02119	0.07465
0.35272	0.66132
-0.08081	0.61031
0.07220	0.53379
-0.38683	0.22769
-0.53984	-0.02739
1.09226	-0.18043
0.83725	-0.30797
0.19971	-0.18043
0.14870	0.43176
0.02119	0.25320
0.07220	0.40625
0.04670	-0.05289
-0.18282	-0.15492
-0.10631	-0.05289
0.35272	0.50828
0.22521	0.63582
0.22521	-0.02739
0.27621	0.07465
0.09770	0.20219
-0.02981	0.15117
-0.20832	0.27871
0.22521	0.35523
0.17421	-0.07840
0.63323	1.01843
0.68424	-0.07840
-0.33583	-0.86914
-0.33583	-0.35899
0.37822	-0.66508
0.37822	0.71234
0.14870	0.78886
-0.43783	0.66132
0.07220	0.04914
0.17421	0.35523
0.37822	0.35523
0.32721	0.02363
0.07220	0.20219
0.14870	-0.05289
0.17421	-0.38449
0.09770	0.10015
0.42922	-0.35899
0.09770	0.40625
-0.08081	0.50828
-0.13181	0.53379
-0.31033	0.43176
0.30171	-0.46102
0.86275	0.07465
0.37822	0.61031
-0.28482	-0.07840
0.40372	-0.48652
0.96476	0.63582
-0.05531	-0.53754
-0.31033	0.20219
-0.02981	0.89089
0.09770	0.32972
0.17421	0.53379
0.09770	-0.20594
0.07220	0.25320
0.19971	0.30422
-0.08081	0.17668
0.35272	-0.53754
0.53123	0.04914
0.42922	0.45726
-0.46334	-0.05289
0.32721	0.15117
0.19971	-0.05289
0.32721	-0.25695
0.17421	0.38074
-0.00431	0.20219
-0.15732	0.32972
0.04670	0.32972
0.14870	0.71234
0.30171	0.04914
0.25071	-0.35899
0.19971	0.02363
0.37822	0.66132
-0.08081	-0.07840
0.07220	0.45726
0.37822	-0.00188
0.27621	-0.69059
-0.31033	0.02363
-0.18282	0.48277
0.22521	0.32972
0.70974	0.22769
0.27621	0.20219
0.07220	0.32972
-0.15732	0.25320
0.09770	-0.76711
0.27621	-0.63957
-0.00431	0.30422
0.12320	0.32972
0.19971	0.20219
0.12320	0.63582
0.40372	0.58480
0.27621	0.20219
-0.15732	0.27871
-0.18282	0.27871
0.25071	-0.00188
0.32721	-0.07840
-0.13181	-0.12942
0.91375	0.53379
-0.56534	-0.05289
0.19971	0.35523
0.12320	-0.58856
0.07220	-0.12942
0.19971	0.43176
0.27621	0.02363
0.17421	0.58480
0.27621	1.65613
0.07220	0.30422
-0.23382	-1.27726
0.22521	-1.02219
0.02119	-0.00188
-0.00431	1.06945
0.37822	0.17668
0.37822	0.68683
0.22521	0.45726
0.09770	0.30422
-0.18282	0.12566
0.22521	0.15117
0.48022	0.20219
0.19971	-0.00188
0.12320	-0.38449
0.02119	0.15117
0.12320	-0.51203
0.37822	-0.12942
-0.38683	-0.71609
-0.02981	0.20219
0.73524	0.66132
-0.00431	0.83988
0.35272	0.68683
0.27621	0.58480
0.02119	0.45726
0.17421	0.17668
0.12320	-0.00188
-0.05531	0.07465
-0.28482	0.04914
0.37822	-0.02739
0.40372	-0.56305
0.30171	-0.48652
-0.02981	0.96742
0.12320	0.53379
0.27621	0.20219
-0.28482	0.38074
0.42922	-0.23145
0.50573	-0.18043
0.12320	0.38074
0.17421	0.27871
-0.28482	-0.18043
0.22521	0.35523
0.22521	-0.18043
0.19971	-0.51203
0.14870	0.68683
0.27621	1.27351
-0.13181	-0.35899
0.12320	0.22769
0.25071	-0.81812
0.14870	-0.05289
0.12320	0.99292
0.14870	0.86539
0.14870	-0.15492
0.17421	0.25320
0.12320	0.32972
0.12320	0.02363
0.25071	0.07465
0.14870	-0.46102
-0.02981	0.30422
0.14870	0.30422
0.09770	-0.00188
0.04670	0.20219
0.04670	0.04914
0.30171	0.02363
0.19971	-0.02739
0.09770	0.48277
0.12320	0.20219
0.30171	0.04914
0.32721	0.35523
0.09770	0.27871
0.07220	-0.10391
-0.51434	-0.12942
0.19971	0.38074
0.07220	0.32972
0.45472	-0.07840
-0.00431	0.15117
0.48022	0.53379
0.30171	0.58480
0.02119	-0.46102
0.17421	-0.00188
0.22521	0.10015
0.17421	0.22769
0.14870	0.35523
0.37822	0.43176
0.12320	0.32972
-0.00431	0.15117
-0.08081	-0.02739
0.17421	0.07465
0.27621	-0.35899
0.30171	-0.02739
-0.08081	0.86539
-0.53984	-0.28246
0.83725	0.02363
0.32721	0.25320
0.17421	0.20219
0.09770	0.12566
0.25071	0.22769
0.30171	0.32972
-0.08081	0.15117
-0.10631	-0.20594
0.07220	-0.20594
0.30171	0.20219
0.53123	0.17668
0.02119	0.50828
-0.18282	0.53379
0.04670	0.30422
0.22521	-0.00188
0.30171	-0.02739
0.27621	-0.25695
0.07220	-0.61406
0.22521	0.40625
0.14870	0.35523
0.12320	0.27871
-0.10631	0.12566
0.19971	0.50828
0.25071	0.25320
-0.02981	0.89089
-0.08081	0.10015
0.32721	0.27871
0.45472	-0.00188
0.14870	-0.15492
0.04670	-0.00188
-0.00431	-0.25695
0.14870	-0.25695
0.27621	0.68683
0.12320	0.35523
0.07220	-0.48652
0.42922	0.07465
-0.25932	-0.51203
-0.08081	0.32972
0.14870	0.04914
0.02119	0.10015
0.22521	0.76336
0.14870	1.29902
0.68424	0.68683
0.25071	0.12566
0.04670	-0.07840
-0.05531	-0.20594
0.12320	0.04914
0.17421	-0.61406
-0.25932	0.22769
0.14870	0.43176
0.14870	0.15117
0.32721	-0.20594
0.32721	0.73785
-0.20832	0.25320
0.19971	-0.18043
0.32721	0.07465
0.22521	-0.56305
-0.15732	-0.28246
-0.02981	0.35523
0.55673	0.48277
0.14870	0.45726
0.04670	0.20219
-0.02981	0.45726
0.40372	0.04914
0.25071	-0.28246
0.09770	-0.35899
0.19971	0.17668
0.22521	0.38074
-0.02981	0.15117
-0.05531	0.27871
0.35272	0.71234
0.32721	0.66132
0.12320	0.68683
-0.00431	-0.05289
0.19971	-1.17523
0.12320	-0.38449
-0.20832	0.20219
0.22521	0.04914
0.22521	0.25320
0.12320	0.68683
0.09770	0.66132
0.14870	0.45726
0.27621	0.66132
-0.10631	0.02363
0.48022	-0.33348
0.35272	-0.10391
-0.05531	0.04914
0.40372	-0.38449
0.27621	-0.33348
-0.05531	-0.07840
0.14870	0.15117
-0.10631	0.40625
-0.10631	0.30422
0.53123	0.15117
0.02119	-0.20594
-0.02981	0.27871
0.09770	0.35523
0.35272	0.50828
-0.05531	0.38074
0.25071	0.17668
0.19971	0.17668
0.27621	0.27871
0.27621	0.04914
0.22521	0.50828
0.14870	-0.43551
-0.10631	0.30422
-0.13181	-0.48652
0.17421	-1.94047
-0.02981	0.91640
-0.02981	1.29902
0.73524	0.22769
0.14870	0.81437
0.14870	0.71234
-0.02981	-0.79262
0.25071	-0.05289
0.14870	-0.15492
0.27621	0.35523
0.25071	0.68683
0.27621	-0.63957
0.12320	0.48277
0.27621	0.38074
-0.08081	-0.25695
0.02119	0.07465
-0.02981	-0.02739
0.09770	0.20219
0.27621	0.30422
0.22521	-0.46102
0.35272	0.02363
0.30171	0.04914
-0.08081	0.66132
0.35272	0.48277
0.14870	-0.07840
0.40372	0.12566
0.07220	-0.53754
0.17421	0.25320
0.02119	0.43176
-0.05531	0.76336
-0.00431	0.58480
0.25071	0.35523
0.25071	0.10015
0.02119	-0.10391
-0.02981	0.02363
0.07220	-0.05289
0.32721	-0.48652
0.14870	0.55929
0.09770	0.53379
-0.13181	-0.05289
0.30171	-0.02739
0.35272	-0.38449
0.22521	-0.51203
0.27621	-0.07840
-0.43783	0.25320
0.30171	0.45726
0.58223	0.86539
0.53123	0.71234
-0.41233	0.20219
-0.36133	0.43176
0.35272	0.12566
0.35272	-1.27726
0.45472	-0.38449
0.30171	0.61031
0.14870	1.04394
-0.00431	0.68683
0.09770	0.63582
-0.08081	0.10015
0.12320	0.22769
0.25071	-0.07840
0.09770	-1.07320
0.14870	-0.07840
0.07220	-0.25695
0.02119	0.04914
0.32721	0.20219
0.12320	1.06945
0.07220	0.55929
0.12320	0.17668
0.02119	0.02363
0.35272	-0.30797
0.42922	0.40625
-0.00431	0.53379
0.17421	-0.43551
0.22521	0.15117
0.12320	0.40625
0.14870	0.17668
0.02119	0.35523
0.25071	1.06945
0.27621	0.45726
0.17421	-0.28246
-0.02981	-0.48652
0.27621	-0.25695
-0.36133	-0.18043
0.19971	0.07465
0.42922	0.02363
0.02119	0.45726
0.19971	0.35523
-0.05531	0.15117
0.42922	0.02363
0.12320	-0.02739
0.07220	0.43176
-0.05531	0.86539
0.12320	-0.84363
0.40372	0.15117
0.25071	1.09496
-0.13181	0.07465
0.25071	-0.56305
0.22521	0.58480
0.22521	0.55929
-0.18282	0.25320
0.63323	-0.15492
0.19971	-0.00188
-0.02981	-0.07840
0.07220	-0.18043
0.12320	-0.05289
-0.02981	0.66132
0.22521	0.25320
0.07220	0.25320
-0.38683	0.22769
0.37822	0.15117
0.42922	0.10015
0.19971	-0.51203
0.09770	0.22769
0.22521	0.50828
0.30171	0.25320
0.32721	0.04914
0.17421	-0.23145
0.12320	0.27871
-0.28482	0.02363
0.02119	-0.05289
-0.13181	-0.10391
0.17421	0.27871
0.25071	0.55929
0.12320	0.71234
0.17421	0.71234
0.32721	0.17668
0.27621	-0.46102
0.04670	-0.53754
0.12320	0.07465
0.37822	0.50828
0.35272	0.38074
0.07220	0.66132
-0.46334	-0.30797
0.19971	-0.35899
0.02119	0.63582
0.17421	-0.15492
0.32721	0.38074
0.42922	-0.25695
0.09770	0.53379
0.12320	0.04914
0.37822	-0.00188
-0.28482	0.15117
-0.38683	0.27871
0.19971	0.07465
0.32721	0.20219
0.35272	0.07465
0.14870	0.02363
0.02119	0.15117
0.14870	0.12566
0.09770	0.22769
-0.00431	0.10015
0.09770	0.17668
0.19971	-0.00188
0.32721	0.04914
0.14870	0.50828
-0.18282	0.48277
0.25071	-0.35899
0.91375	0.30422
-0.08081	-0.07840
-0.02981	-0.28246
0.25071	0.25320
0.14870	0.20219
0.37822	0.43176
0.45472	0.73785
0.19971	-0.12942
0.12320	-0.18043
-0.05531	0.30422
-0.20832	0.43176
0.22521	0.12566
0.07220	0.07465
-0.00431	-0.02739
0.12320	-0.00188
0.17421	0.04914
0.32721	0.04914
0.17421	-0.07840
0.25071	0.20219
0.58223	0.30422
0.27621	0.40625
-0.41233	0.25320
0.30171	0.30422
0.19971	-0.33348
-0.05531	0.02363
-0.38683	0.17668
0.58223	0.30422
0.48022	-0.20594
-0.10631	-0.18043
0.25071	-0.18043
0.17421	1.70714
0.68424	1.45206
0.12320	0.04914
-0.08081	-0.46102
0.09770	-0.76711
0.19971	-0.10391
0.14870	0.30422
0.07220	0.12566
-0.00431	0.20219
0.09770	0.25320
0.19971	-0.12942
0.32721	0.20219
0.12320	-0.07840
0.07220	-0.05289
0.27621	0.32972
0.09770	0.50828
0.25071	-0.23145
0.19971	-0.00188
-0.02981	0.22769
0.17421	0.25320
0.12320	0.35523
0.12320	0.12566
0.25071	0.10015
0.17421	0.07465
0.09770	0.25320
0.35272	0.30422
0.04670	0.17668
0.04670	0.43176
0.19971	-0.30797
0.27621	0.15117
0.17421	-0.53754
0.17421	0.66132
0.07220	1.09496
0.17421	0.04914
-0.00431	-0.02739
0.25071	0.43176
0.30171	0.17668
0.19971	0.20219
0.42922	-0.25695
0.07220	-1.02219
-0.15732	0.45726
-0.08081	0.38074
0.37822	-0.23145
0.22521	0.53379
-0.02981	0.35523
0.17421	0.30422
0.25071	0.02363
-0.15732	0.27871
-0.18282	-0.18043
0.48022	0.22769
0.73524	0.15117
0.04670	0.10015
-0.10631	0.12566
0.02119	0.30422
0.32721	0.22769
0.27621	0.25320
-0.08081	0.07465
-0.10631	0.04914
0.37822	0.04914
0.25071	0.30422
0.25071	0.25320
0.22521	-0.18043
0.27621	0.78886
0.04670	-0.25695
-0.05531	0.04914
0.22521	-0.56305
0.42922	0.25320
0.17421	0.78886
-0.15732	0.55929
-0.00431	-0.35899
0.19971	0.35523
0.27621	0.20219
0.14870	0.35523
0.02119	0.12566
0.14870	0.45726
0.40372	0.12566
0.42922	-0.53754
0.04670	0.43176
-0.25932	-0.02739
0.27621	-0.02739
0.48022	0.25320
0.27621	0.15117
0.32721	0.17668
-0.13181	0.04914
-0.31033	0.07465
-0.02981	0.17668
0.07220	0.10015
0.42922	0.40625
0.58223	0.17668
0.17421	-0.15492
0.19971	0.48277
0.04670	0.35523
-0.05531	0.04914
0.19971	-0.61406
0.37822	0.07465
0.12320	0.45726
-0.18282	0.50828
0.14870	0.35523
0.02119	-0.15492
0.58223	0.27871
0.25071	0.61031
-0.18282	0.53379
0.09770	-0.30797
0.25071	-0.89465
0.14870	-0.53754
0.14870	0.22769
0.17421	0.58480
-0.36133	0.78886
0.32721	0.43176
0.32721	0.22769
0.27621	0.45726
0.45472	0.22769
0.12320	-0.23145
0.04670	-0.53754
0.09770	-0.07840
-0.00431	-0.12942
0.14870	0.45726
0.02119	0.43176
-0.08081	0.35523
0.55673	0.45726
0.25071	0.22769
0.35272	0.35523
-0.08081	-0.30797
-0.18282	0.17668
0.25071	-0.10391
0.19971	0.12566
0.37822	0.35523
0.25071	0.07465
-0.08081	0.07465
-0.10631	0.38074
0.02119	0.15117
0.32721	0.32972
0.45472	0.32972
0.04670	-0.56305
0.07220	-0.25695
0.19971	0.86539
0.27621	0.30422
0.12320	0.53379
-0.05531	-1.09871
0.17421	0.10015
-0.33583	0.76336
-0.25932	-0.02739
0.70974	0.27871
0.63323	0.17668
0.42922	0.02363
0.17421	0.40625
0.14870	0.45726
0.02119	0.38074
0.19971	0.15117
-0.05531	0.35523
0.19971	-0.05289
0.25071	-0.02739
0.02119	-0.58856
0.25071	-0.58856
-0.15732	-0.12942
0.17421	0.76336
0.27621	0.53379
0.25071	0.81437
0.07220	0.32972
-0.00431	-0.25695
0.17421	-0.07840
0.25071	0.68683
0.14870	0.10015
0.50573	-0.23145
-0.08081	-0.69059
-0.23382	0.58480
0.40372	0.30422
0.48022	0.07465
0.02119	0.32972
0.19971	0.48277
0.09770	0.20219
0.14870	0.20219
-0.02981	0.20219
-0.18282	-0.81812
0.55673	-0.05289
0.32721	0.25320
0.09770	0.30422
-0.02981	0.45726
-0.05531	-0.00188
0.42922	-0.07840
0.07220	0.35523
0.09770	0.63582
0.12320	-0.18043
0.02119	-0.00188
-0.02981	0.20219
0.14870	0.22769
0.27621	0.32972
0.27621	0.22769
0.22521	0.35523
0.19971	-0.02739
0.22521	-0.30797
-0.02981	0.32972
0.12320	0.02363
0.30171	-0.20594
0.25071	0.30422
0.04670	0.17668
-0.31033	0.53379
-0.02981	0.38074
0.32721	-0.28246
0.50573	-0.30797
0.32721	0.22769
-0.48884	0.45726
0.07220	0.48277
0.27621	0.25320
0.55673	-0.30797
0.30171	0.30422
0.09770	0.48277
-0.00431	0.76336
0.09770	0.07465
0.19971	-0.18043
-0.02981	-0.23145
-0.15732	-0.05289
0.17421	-0.15492
0.27621	0.27871
-0.23382	-0.46102
0.45472	0.55929
0.48022	1.04394
0.17421	0.40625
-0.08081	0.40625
-0.25932	0.12566
0.12320	-0.51203
0.45472	-0.12942
0.19971	-0.10391
0.09770	0.02363
0.12320	-0.05289
0.19971	0.25320
0.17421	-0.20594
-0.10631	0.55929
0.35272	0.68683
0.30171	0.38074
0.22521	-0.12942
-0.36133	0.10015
0.32721	0.12566
0.35272	0.58480
-0.23382	0.04914
0.09770	0.10015
0.35272	-0.30797
0.12320	-0.15492
0.27621	0.30422
0.42922	0.40625
0.12320	0.22769
-0.10631	0.22769
-0.08081	0.02363
0.17421	-0.66508
0.27621	0.35523
0.25071	1.01843
-0.00431	-0.05289
0.27621	0.40625
0.27621	0.20219
0.02119	0.25320
0.37822	-0.18043
-0.02981	-0.25695
-0.18282	-0.07840
0.45472	0.10015
0.32721	0.15117
0.32721	0.40625
0.07220	0.35523
0.14870	0.07465
0.14870	0.15117
0.04670	0.66132
-0.05531	1.12046
-0.15732	0.07465
0.42922	-0.89465
0.50573	-0.48652
-0.08081	-0.05289
0.14870	0.02363
0.07220	0.38074
0.19971	0.76336
0.27621	0.68683
0.19971	0.61031
-0.23382	0.35523
0.42922	-0.15492
0.32721	0.15117
0.12320	-0.58856
0.35272	-0.35899
0.17421	-0.00188
-0.05531	0.04914
-0.02981	0.45726
0.04670	0.43176
0.09770	0.04914
0.22521	0.10015
0.12320	0.61031
0.40372	0.04914
-0.00431	0.25320
0.25071	-0.00188
-0.38683	-0.05289
0.53123	-0.12942
0.45472	0.17668
0.17421	0.15117
-0.08081	-0.53754
0.14870	0.40625
0.09770	0.99292
-0.02981	0.32972
0.27621	0.27871
0.30171	0.02363
0.09770	0.45726
0.30171	0.27871
-0.02981	-0.15492
-0.25932	-0.46102
0.30171	0.04914
0.30171	0.32972
0.09770	0.15117
-0.00431	-0.23145
0.25071	0.50828
0.09770	0.38074
0.22521	0.04914
0.12320	0.45726
0.35272	0.53379
0.19971	-0.51203
-0.23382	0.32972
0.27621	0.25320
0.42922	0.43176
0.27621	-0.28246
0.22521	-0.46102
-0.02981	-0.20594
-0.43783	0.15117
0.30171	0.43176
0.35272	0.38074
0.40372	0.73785
0.02119	0.61031
0.12320	0.07465
0.14870	0.10015
0.19971	-0.51203
0.27621	-0.30797
0.09770	0.15117
0.12320	0.07465
0.09770	0.66132
0.27621	0.53379
0.19971	-0.23145
0.12320	-0.15492
0.02119	-0.02739
0.14870	0.32972
0.22521	0.35523
0.22521	0.15117
0.35272	-0.00188
0.07220	0.20219
-0.02981	-0.23145
0.09770	0.38074
0.17421	-0.00188
0.04670	0.30422
0.07220	0.68683
0.17421	0.50828
0.42922	-0.10391
-0.00431	-0.61406
0.22521	-0.25695
0.45472	0.81437
-0.08081	-0.15492
-0.23382	0.17668
0.19971	0.10015
0.48022	0.48277
-0.00431	0.50828
0.42922	0.50828
0.19971	-0.20594
-0.00431	-0.10391
0.17421	-0.00188
0.07220	0.20219
0.09770	0.17668
0.19971	0.07465
0.19971	0.15117
0.30171	0.30422
0.07220	0.30422
-0.02981	-0.00188
0.14870	0.20219
0.22521	-0.53754
0.04670	-0.05289
0.22521	0.45726
0.19971	-0.15492
0.02119	0.38074
0.35272	0.50828
0.09770	0.71234
-0.41233	0.40625
-0.00431	-0.00188
0.60773	-0.28246
0.40372	-0.25695
0.48022	-0.66508
0.32721	0.55929
-0.20832	0.71234
0.02119	0.63582
0.04670	0.45726
-0.10631	0.02363
0.42922	0.02363
0.27621	-0.10391
0.09770	-0.05289
-0.10631	0.12566
0.02119	0.30422
0.22521	0.25320
0.40372	-0.05289
0.30171	0.02363
-0.00431	0.27871
0.19971	0.15117
0.12320	0.02363
