0.30171	0.35523
0.22521	-0.53754
0.07220	-0.12942
0.22521	0.53379
-0.18282	0.35523
0.70974	0.32972
0.22521	0.22769
-0.13181	0.10015
0.09770	0.10015
0.14870	-0.00188
0.22521	0.12566
0.19971	0.15117
-0.08081	0.12566
0.32721	0.22769
0.40372	0.10015
0.27621	0.25320
-0.00431	0.10015
-0.00431	-0.00188
-0.00431	0.04914
0.12320	0.12566
0.12320	0.22769
0.14870	-0.00188
0.12320	0.27871
0.19971	0.15117
0.02119	0.25320
0.22521	0.20219
0.50573	0.15117
0.17421	0.17668
0.09770	0.15117
0.07220	0.15117
-0.13181	0.02363
0.22521	0.17668
0.73524	0.20219
-0.28482	0.20219
-0.18282	0.22769
0.09770	-0.10391
0.30171	0.25320
0.19971	0.22769
0.22521	0.22769
0.19971	-0.10391
-0.05531	0.15117
0.40372	0.17668
0.35272	0.20219
0.04670	0.25320
0.63323	0.15117
-0.56534	0.12566
-0.15732	0.17668
0.19971	0.04914
0.45472	0.10015
0.32721	0.12566
0.09770	0.15117
0.19971	0.15117
0.07220	0.12566
0.17421	0.30422
0.17421	-0.00188
0.12320	0.04914
0.12320	0.35523
-0.00431	0.20219
0.45472	0.20219
0.30171	0.15117
0.27621	0.10015
0.09770	0.07465
-0.15732	0.17668
0.09770	0.17668
0.35272	0.22769
0.17421	0.12566
0.07220	0.07465
0.14870	0.20219
0.22521	-0.28246
0.09770	-0.05289
0.17421	0.30422
0.17421	0.25320
0.19971	0.27871
-0.33583	0.22769
0.14870	0.15117
0.32721	0.27871
0.30171	0.30422
0.22521	0.12566
0.09770	-0.25695
0.19971	-0.30797
0.04670	-0.61406
0.22521	0.38074
-0.00431	0.63582
0.09770	0.61031
0.14870	0.45726
0.04670	0.17668
0.22521	0.15117
0.07220	0.15117
-0.33583	0.02363
0.73524	0.02363
0.50573	-0.02739
-0.05531	-0.05289
-0.10631	0.02363
0.12320	0.30422
0.17421	0.17668
0.07220	0.20219
0.42922	0.15117
0.14870	0.12566
-0.38683	0.17668
0.07220	0.17668
0.35272	0.17668
0.48022	0.22769
0.32721	0.02363
0.17421	0.20219
0.04670	0.22769
0.14870	0.25320
0.22521	0.10015
0.17421	0.10015
0.35272	0.17668
0.02119	0.17668
-0.51434	-0.02739
-0.00431	0.12566
0.42922	0.15117
0.19971	0.27871
0.35272	0.32972
0.14870	0.10015
0.22521	-0.20594
0.12320	-0.15492
0.12320	0.35523
-0.00431	0.17668
-0.08081	0.38074
0.58223	0.12566
0.32721	0.12566
-0.02981	0.15117
-0.02981	-0.25695
-0.02981	-0.05289
-0.20832	0.43176
0.55673	0.43176
0.25071	0.22769
0.04670	0.22769
0.04670	0.20219
0.35272	0.10015
0.40372	0.15117
0.12320	-0.00188
-0.02981	-0.05289
0.07220	0.35523
0.14870	0.15117
0.09770	0.10015
0.27621	0.15117
0.14870	-0.07840
0.12320	0.07465
0.27621	0.27871
0.14870	0.30422
0.07220	0.40625
0.12320	0.35523
0.14870	-0.05289
0.32721	0.04914
0.12320	-0.00188
0.12320	-0.07840
0.09770	0.25320
0.07220	0.20219
0.22521	0.35523
0.09770	0.02363
0.30171	0.17668
-0.46334	-0.05289
-0.10631	0.02363
0.55673	0.07465
0.40372	0.04914
0.63323	0.32972
0.22521	0.40625
0.07220	0.25320
-0.05531	0.12566
-0.00431	0.22769
0.07220	0.10015
0.17421	0.17668
0.02119	0.04914
0.17421	0.12566
0.19971	0.04914
0.25071	0.12566
0.14870	-0.02739
0.14870	-0.02739
0.25071	0.35523
0.07220	0.17668
0.17421	0.25320
0.12320	-0.10391
0.14870	-0.02739
0.09770	0.40625
0.22521	0.38074
0.30171	0.35523
0.07220	0.12566
0.12320	0.30422
0.12320	-0.02739
0.07220	0.12566
0.14870	0.12566
0.14870	0.02363
0.22521	0.20219
0.09770	0.10015
0.25071	0.12566
0.04670	-0.00188
0.14870	0.12566
0.22521	0.04914
0.02119	0.17668
0.48022	0.32972
-0.48884	0.20219
0.19971	-0.05289
0.93925	0.25320
-0.00431	0.48277
-0.18282	0.15117
0.14870	-0.07840
0.45472	0.20219
0.07220	-0.02739
0.04670	0.17668
-0.00431	0.25320
-0.02981	0.22769
0.22521	0.22769
0.17421	0.12566
0.22521	0.10015
0.12320	0.04914
0.17421	0.20219
0.17421	0.04914
0.09770	0.10015
0.22521	0.20219
0.07220	0.15117
0.19971	0.27871
0.12320	0.04914
0.12320	-0.15492
0.17421	0.15117
0.12320	0.15117
0.14870	-0.00188
0.07220	0.20219
0.14870	0.35523
0.14870	0.15117
-0.00431	0.22769
0.40372	0.30422
0.14870	0.07465
0.09770	0.12566
0.19971	0.04914
0.12320	0.02363
0.12320	0.15117
0.22521	0.04914
0.07220	0.07465
0.14870	0.17668
0.22521	0.12566
0.58223	0.15117
-0.36133	0.15117
-0.74385	0.22769
0.60773	0.38074
0.60773	0.15117
0.40372	-0.20594
-0.08081	0.25320
0.30171	0.07465
0.55673	0.15117
0.12320	0.17668
-0.20832	0.25320
-0.08081	0.30422
0.09770	0.15117
0.02119	0.04914
0.12320	0.27871
0.25071	0.12566
0.19971	0.02363
0.12320	0.10015
0.25071	0.15117
0.22521	0.15117
0.17421	0.17668
0.12320	0.22769
0.25071	0.15117
0.30171	0.22769
0.04670	-0.56305
0.04670	-0.05289
0.19971	0.50828
0.12320	0.38074
0.14870	0.27871
-0.15732	0.35523
0.30171	0.35523
0.27621	0.15117
0.07220	0.12566
-0.00431	0.07465
0.12320	0.12566
0.22521	-0.25695
0.17421	0.10015
0.09770	0.22769
0.25071	0.48277
0.14870	0.07465
0.07220	-0.15492
0.14870	0.27871
0.22521	0.30422
0.12320	0.15117
0.09770	0.27871
-0.25932	0.38074
0.53123	0.20219
0.30171	-0.12942
0.09770	-0.05289
0.04670	0.15117
0.04670	0.12566
0.02119	0.30422
0.19971	0.17668
0.14870	0.12566
-0.05531	-0.02739
0.37822	0.17668
0.22521	0.15117
0.14870	-0.10391
0.27621	0.40625
0.04670	0.15117
0.19971	0.22769
0.02119	0.10015
0.19971	0.15117
0.09770	0.32972
0.14870	0.38074
0.14870	-0.18043
0.09770	0.12566
0.14870	0.04914
0.12320	0.17668
0.19971	0.22769
0.07220	0.10015
-0.02981	0.35523
0.32721	0.45726
0.17421	0.25320
0.09770	0.38074
0.09770	-0.41000
0.04670	0.04914
0.19971	0.10015
0.04670	0.07465
0.12320	0.22769
0.48022	0.17668
-0.15732	0.20219
-0.38683	0.12566
0.40372	-0.05289
0.30171	0.04914
0.32721	0.07465
0.09770	0.10015
0.17421	0.22769
0.22521	0.30422
0.12320	0.32972
0.17421	-0.02739
0.12320	0.25320
0.12320	0.10015
-0.00431	0.17668
0.22521	0.17668
0.17421	0.12566
0.07220	0.15117
0.14870	0.12566
0.12320	0.25320
0.09770	0.17668
0.32721	0.12566
0.09770	0.22769
0.14870	0.20219
0.14870	-0.02739
0.14870	0.04914
0.14870	-0.07840
0.09770	0.35523
0.17421	0.10015
0.12320	0.10015
0.14870	0.17668
0.17421	-0.43551
0.04670	0.40625
0.32721	0.55929
0.25071	0.48277
-0.05531	0.30422
0.35272	0.30422
0.22521	0.15117
-0.00431	-0.15492
0.02119	-0.12942
0.17421	-0.30797
0.14870	0.04914
0.09770	0.48277
0.17421	0.12566
0.22521	0.50828
-0.13181	0.25320
0.27621	0.02363
0.40372	0.10015
0.14870	0.15117
0.12320	-0.00188
0.04670	0.02363
-0.02981	0.20219
0.19971	0.17668
0.14870	0.12566
0.07220	0.22769
0.19971	0.12566
0.19971	-0.02739
0.17421	-0.28246
0.17421	0.32972
0.22521	0.38074
0.09770	0.32972
0.09770	0.25320
0.02119	0.38074
0.19971	-0.05289
0.22521	0.02363
0.09770	0.12566
0.17421	0.30422
0.12320	0.12566
0.17421	0.30422
0.09770	-0.00188
0.09770	0.20219
0.25071	0.12566
0.04670	0.07465
0.02119	0.04914
0.50573	0.07465
0.22521	0.17668
-0.02981	0.15117
-0.05531	0.17668
0.09770	0.22769
0.09770	0.04914
0.27621	-0.10391
0.14870	0.40625
0.14870	0.25320
0.17421	0.20219
0.17421	0.15117
0.14870	-0.23145
0.32721	0.35523
0.12320	0.35523
0.12320	0.27871
0.17421	0.20219
0.02119	0.10015
0.14870	0.10015
0.22521	0.17668
0.09770	0.10015
0.12320	0.17668
0.17421	-0.10391
0.19971	0.07465
0.14870	-0.10391
0.07220	-0.10391
0.14870	0.40625
0.19971	0.43176
0.07220	0.30422
0.14870	0.25320
-0.20832	-0.07840
0.45472	0.20219
0.27621	0.27871
0.17421	0.25320
0.12320	0.02363
-0.02981	0.10015
0.07220	0.10015
0.07220	0.12566
0.12320	0.15117
0.09770	0.25320
0.19971	0.15117
-0.02981	0.02363
0.35272	0.15117
0.25071	0.25320
0.07220	0.10015
0.12320	-0.10391
0.14870	0.27871
0.07220	0.15117
0.09770	0.15117
0.19971	0.17668
0.14870	0.12566
0.09770	0.27871
0.19971	0.30422
0.17421	0.25320
0.22521	-0.05289
0.02119	0.07465
0.12320	-0.07840
0.25071	-0.07840
0.32721	0.15117
0.07220	-0.00188
0.02119	0.43176
0.19971	0.35523
0.22521	0.32972
0.17421	0.10015
0.14870	0.20219
0.22521	0.02363
0.09770	0.07465
0.14870	0.17668
-0.00431	-0.00188
0.22521	-0.00188
0.25071	0.17668
0.12320	0.04914
0.04670	-0.02739
0.17421	0.40625
0.12320	0.10015
-0.10631	0.10015
0.19971	0.17668
0.55673	0.32972
0.14870	0.15117
0.02119	0.20219
-0.05531	0.12566
0.19971	0.02363
0.14870	0.15117
0.12320	0.15117
0.02119	0.25320
0.17421	-0.02739
0.19971	-0.02739
0.09770	0.17668
0.12320	0.15117
0.09770	0.10015
0.17421	0.04914
0.32721	0.45726
0.14870	0.17668
0.19971	0.10015
0.09770	0.17668
0.12320	-0.05289
0.14870	0.12566
0.04670	0.35523
0.19971	0.38074
0.17421	0.02363
0.12320	-0.00188
0.17421	-0.23145
-0.00431	0.15117
0.19971	0.25320
0.22521	0.20219
0.09770	0.20219
0.12320	0.30422
0.09770	-0.02739
0.09770	0.22769
0.12320	0.30422
0.09770	0.10015
0.19971	0.17668
0.22521	0.25320
0.19971	0.12566
0.12320	-0.00188
0.14870	-0.05289
0.17421	0.04914
0.14870	0.22769
0.25071	0.22769
0.12320	0.38074
0.04670	0.20219
0.12320	0.15117
0.17421	0.20219
0.14870	0.22769
0.09770	-0.02739
0.07220	0.07465
0.07220	0.20219
0.27621	0.04914
0.27621	0.15117
0.14870	0.20219
0.17421	0.35523
-0.33583	0.04914
0.22521	0.17668
0.68424	0.20219
0.27621	-0.00188
0.02119	0.12566
-0.00431	0.04914
0.04670	-0.15492
0.07220	0.30422
0.14870	0.30422
0.17421	-0.02739
0.12320	0.32972
0.04670	0.17668
0.19971	0.22769
0.35272	0.25320
0.17421	0.17668
0.04670	-0.25695
0.14870	0.07465
0.25071	0.32972
0.32721	0.04914
0.12320	0.20219
0.02119	0.12566
0.07220	0.17668
0.19971	0.07465
0.14870	0.10015
0.07220	0.20219
0.14870	0.15117
0.22521	0.35523
0.09770	0.20219
0.17421	0.02363
0.22521	0.04914
0.12320	-0.15492
0.07220	0.25320
0.22521	0.25320
0.14870	0.25320
0.12320	0.07465
0.14870	0.27871
0.12320	0.35523
0.12320	-0.46102
-0.02981	0.04914
0.40372	0.30422
0.17421	0.40625
0.07220	0.32972
0.02119	0.27871
0.22521	0.12566
0.19971	-0.00188
0.14870	-0.30797
0.14870	0.17668
0.19971	0.30422
0.02119	0.27871
0.14870	0.27871
0.17421	0.27871
0.22521	-0.00188
0.09770	0.02363
0.19971	0.15117
0.17421	-0.00188
0.14870	0.25320
0.25071	0.25320
0.12320	0.25320
0.27621	0.32972
-0.02981	0.15117
-0.18282	0.10015
0.45472	0.15117
0.53123	-0.30797
0.12320	0.25320
-0.08081	0.40625
-0.08081	0.12566
0.14870	0.32972
0.07220	0.20219
0.14870	0.20219
0.17421	0.15117
0.12320	0.15117
0.14870	0.15117
0.30171	0.02363
0.19971	0.04914
0.19971	0.02363
0.12320	0.04914
0.14870	0.25320
0.22521	0.38074
0.12320	-0.00188
0.04670	0.20219
0.12320	0.07465
0.12320	-0.00188
0.25071	0.22769
0.17421	0.04914
0.22521	0.04914
0.12320	-0.10391
-0.00431	0.35523
0.04670	0.53379
0.12320	0.43176
0.22521	0.32972
0.17421	0.12566
0.12320	0.12566
0.17421	-0.05289
0.17421	-0.05289
0.22521	0.02363
0.17421	0.04914
0.12320	0.02363
0.07220	0.15117
0.14870	0.20219
0.19971	0.12566
0.17421	0.17668
0.17421	0.10015
0.07220	0.17668
0.02119	0.17668
0.22521	0.35523
0.30171	-0.12942
0.14870	0.15117
0.07220	0.17668
0.14870	0.27871
0.14870	0.20219
0.25071	0.02363
0.09770	0.20219
0.12320	0.04914
0.22521	0.35523
0.14870	0.35523
0.09770	-0.07840
0.17421	-0.02739
0.14870	-0.46102
0.14870	0.22769
0.14870	0.32972
0.02119	-0.18043
0.25071	0.45726
0.40372	0.99292
0.12320	0.86539
0.07220	-0.41000
0.14870	-0.05289
0.14870	0.04914
0.22521	-0.00188
0.27621	-1.65988
0.02119	0.83988
-0.05531	0.83988
0.02119	-0.89465
0.70974	0.30422
0.32721	1.09496
0.07220	0.43176
-0.15732	-0.48652
0.12320	-0.41000
0.37822	0.89089
0.09770	1.57960
0.07220	-0.05289
0.02119	-0.63957
0.17421	-1.91496
0.35272	-3.52195
0.07220	1.57960
-0.20832	1.91120
-0.25932	2.16628
0.53123	2.44687
1.11776	0.61031
0.12320	0.50828
0.81175	-2.93527
-0.33583	-1.63437
-0.38683	0.30422
0.19971	-4.79733
0.19971	1.60511
0.48022	1.96222
-0.76936	1.47757
-0.25932	-0.81812
0.27621	0.50828
0.27621	1.68163
-0.15732	2.59991
0.42922	-0.05289
1.27078	-1.02219
0.91375	-4.59327
-0.61635	-1.22625
-0.08081	2.06425
0.02119	1.83468
-0.02981	0.81437
-0.18282	-0.38449
-0.08081	0.12566
-0.13181	1.52859
0.76074	1.06945
0.55673	0.15117
-0.08081	0.61031
0.04670	-3.13933
0.70974	0.27871
-0.00431	0.66132
-0.28482	0.22769
0.81175	-1.96597
-0.25932	0.71234
-0.38683	1.83468
-0.08081	0.43176
0.83725	-1.07320
0.40372	-1.65988
-0.02981	-0.00188
0.04670	1.19699
-0.02981	0.07465
0.58223	1.47757
0.81175	1.45206
0.76074	0.78886
-0.51434	0.25320
-0.53984	0.35523
0.19971	-0.30797
0.25071	-1.91496
0.12320	-1.78742
0.22521	0.50828
0.19971	-0.46102
0.25071	0.20219
0.12320	1.17148
0.22521	0.94191
-0.18282	1.32453
0.07220	0.91640
0.27621	-0.46102
0.32721	-1.94047
0.12320	0.66132
0.22521	-0.05289
0.19971	0.58480
0.07220	1.14597
0.35272	0.89089
0.40372	2.39585
0.02119	-2.22105
0.12320	0.58480
0.73524	-2.39961
-0.15732	-0.18043
-1.30489	-3.95558
-0.00431	1.14597
1.24527	2.62542
0.58223	2.21730
0.32721	1.98773
-0.02981	2.01323
-0.08081	-0.25695
-0.20832	-0.35899
-0.08081	-0.23145
0.02119	-1.14973
0.30171	-1.71090
0.12320	0.55929
1.04126	-0.56305
0.14870	0.71234
0.17421	-1.94047
-0.20832	-0.25695
-0.74385	0.78886
-0.46334	1.35003
0.76074	2.39585
1.11776	-0.23145
0.02119	0.12566
0.83725	-1.14973
0.63323	0.38074
-0.05531	0.73785
0.07220	-1.17523
-0.25932	0.83988
-0.13181	0.43176
-0.31033	1.73265
1.32178	-0.33348
0.42922	-0.66508
-0.61635	0.04914
-0.28482	-0.63957
0.78624	1.45206
0.30171	1.06945
-0.28482	-0.97117
-0.13181	-2.90976
0.02119	0.78886
0.04670	0.30422
0.17421	1.37554
0.32721	0.61031
0.42922	1.96222
0.40372	1.32453
-0.00431	-0.86914
0.25071	-0.25695
0.30171	-2.09351
0.32721	0.78886
-0.02981	2.95702
-0.18282	0.04914
0.12320	-0.76711
-0.00431	-1.94047
0.53123	-0.15492
0.42922	0.04914
-1.07538	0.40625
-0.05531	1.22250
0.02119	0.20219
1.65330	0.86539
0.37822	0.38074
-0.10631	-0.66508
0.19971	-0.35899
-0.76936	0.66132
-0.97337	0.76336
0.50573	0.35523
0.25071	0.35523
0.40372	0.89089
0.42922	-0.97117
0.30171	-0.66508
0.27621	0.68683
0.14870	0.58480
-0.05531	-0.23145
0.09770	-1.12422
-0.05531	-1.37929
0.12320	1.17148
0.09770	1.01843
0.22521	0.71234
0.17421	1.19699
0.35272	-0.30797
0.25071	0.04914
0.35272	-2.09351
0.14870	1.45206
0.09770	1.65613
-0.10631	1.27351
0.19971	-0.69059
0.12320	-0.51203
0.17421	0.15117
0.12320	-0.74160
0.09770	0.99292
-0.00431	-0.10391
0.30171	0.48277
-0.46334	-0.41000
0.73524	0.61031
0.50573	0.40625
-0.51434	0.63582
-1.12638	-0.35899
0.45472	0.55929
0.58223	0.58480
0.93925	-0.30797
0.12320	-2.55265
0.22521	0.48277
-0.08081	0.10015
0.07220	-0.05289
-1.61091	0.91640
1.47479	1.06945
1.55129	0.96742
0.09770	0.55929
-0.69285	0.30422
-1.43240	-1.43031
1.29628	-0.20594
-0.46334	0.68683
-0.46334	0.22769
0.37822	0.43176
0.53123	1.17148
0.63323	-1.37929
0.02119	-0.53754
-0.05531	-0.61406
0.30171	1.60511
0.19971	1.96222
-0.18282	-0.25695
0.58223	0.25320
0.63323	-0.15492
-0.02981	-0.20594
-0.18282	0.61031
-0.61635	0.50828
-0.89686	-1.02219
1.39828	-1.99148
0.76074	0.61031
0.04670	1.73265
-0.43783	-0.28246
0.09770	-0.38449
0.40372	0.25320
0.25071	0.83988
0.17421	-0.48652
0.02119	0.86539
0.02119	1.17148
-0.08081	0.66132
0.09770	-0.48652
0.19971	-0.23145
-0.00431	0.38074
0.17421	0.76336
0.27621	0.86539
0.09770	-0.23145
0.32721	-0.81812
0.19971	-0.71609
0.17421	-0.46102
0.35272	-0.81812
0.02119	0.27871
0.25071	0.71234
-0.41233	1.01843
0.30171	0.43176
0.42922	0.68683
0.17421	-0.74160
-0.08081	0.45726
0.14870	0.91640
0.27621	-2.19554
0.30171	0.53379
-0.36133	0.53379
0.22521	1.06945
0.55673	-0.12942
0.45472	1.19699
-0.23382	0.55929
0.91375	0.50828
0.12320	-0.25695
-0.33583	0.99292
-0.02981	0.76336
-0.18282	-2.09351
0.37822	-2.60367
-0.15732	1.45206
0.09770	-0.46102
0.35272	0.45726
0.09770	0.45726
0.25071	0.96742
0.32721	0.53379
0.19971	-0.56305
0.17421	-0.84363
0.30171	-1.27726
0.32721	1.12046
-0.13181	1.32453
-0.05531	0.04914
0.27621	0.22769
0.32721	0.71234
0.12320	0.50828
0.07220	0.15117
0.45472	0.12566
0.48022	-0.05289
-1.48340	-0.07840
0.68424	-0.15492
-0.05531	0.20219
-0.38683	-0.05289
0.32721	-0.15492
0.42922	0.35523
-0.05531	0.61031
0.68424	0.04914
0.83725	0.04914
0.17421	0.20219
-0.25932	0.66132
0.02119	-0.71609
-0.05531	0.15117
-0.59084	0.50828
1.01576	0.38074
0.22521	-0.41000
-0.00431	-1.88945
0.04670	0.17668
-0.33583	0.35523
0.93925	1.27351
0.42922	1.35003
-0.25932	0.63582
0.30171	-0.02739
0.40372	-0.02739
0.07220	0.22769
0.25071	0.20219
0.25071	-0.20594
-0.10631	0.20219
0.07220	0.15117
0.30171	-0.02739
0.27621	-0.12942
0.07220	0.02363
0.22521	1.75816
0.02119	1.32453
0.02119	-6.76143
0.32721	-2.90976
0.19971	2.37034
0.07220	2.59991
0.27621	2.42136
0.32721	0.22769
0.04670	0.40625
0.02119	0.71234
0.04670	0.12566
0.32721	0.15117
0.12320	-0.05289
-0.10631	-0.20594
-0.00431	-0.46102
0.02119	-0.48652
0.63323	-0.00188
0.17421	-0.46102
0.12320	0.02363
0.14870	0.20219
0.22521	0.43176
0.02119	0.02363
0.96476	-0.25695
0.32721	0.83988
-0.76936	0.71234
0.32721	0.63582
0.19971	-0.23145
-0.10631	0.15117
-0.13181	0.30422
0.07220	1.68163
0.22521	-1.48133
0.17421	-2.22105
0.14870	0.55929
0.45472	1.88570
0.65874	-0.41000
-0.18282	0.25320
-0.23382	1.57960
0.25071	0.20219
0.55673	0.07465
-0.28482	-0.05289
-0.08081	0.27871
0.17421	-0.35899
0.32721	-0.23145
0.22521	-0.20594
0.19971	-0.10391
0.27621	0.02363
-0.05531	-0.02739
0.40372	0.45726
0.12320	1.14597
-0.10631	-0.69059
0.09770	0.63582
0.04670	-3.16484
0.02119	0.76336
-0.05531	0.68683
0.53123	1.42656
0.17421	1.63062
-0.00431	1.37554
0.09770	0.55929
0.35272	0.61031
0.12320	-0.02739
0.02119	0.02363
-0.05531	-0.35899
0.53123	-0.66508
0.53123	-0.46102
-0.08081	0.25320
0.37822	-0.92016
0.42922	-0.51203
0.45472	-0.00188
0.27621	-0.53754
-0.56534	0.99292
-0.23382	0.99292
0.22521	1.22250
-0.08081	0.81437
0.37822	0.04914
0.25071	-0.69059
0.25071	0.22769
0.07220	1.24800
0.55673	-1.83844
0.22521	0.30422
-0.46334	-0.97117
-0.02981	1.01843
0.48022	-0.05289
0.55673	1.06945
0.65874	1.27351
-0.23382	0.22769
-0.61635	0.40625
0.07220	0.17668
0.45472	-0.53754
0.19971	0.27871
0.07220	0.07465
0.14870	0.35523
0.02119	0.30422
0.12320	-1.76191
0.07220	-1.09871
-0.13181	0.55929
0.27621	0.20219
-1.12638	-0.66508
1.62780	0.35523
0.53123	1.27351
-0.48884	0.48277
0.55673	0.20219
0.30171	0.76336
-0.38683	0.61031
-0.46334	-0.33348
0.09770	0.12566
0.12320	-0.43551
-0.41233	-0.48652
-0.10631	0.02363
0.50573	0.63582
0.04670	0.63582
1.60230	0.66132
0.40372	0.04914
-0.23382	0.12566
-0.05531	-0.05289
0.19971	0.35523
0.25071	0.35523
0.02119	0.02363
-0.08081	-0.30797
0.02119	-0.48652
0.27621	0.61031
0.27621	0.22769
0.22521	0.04914
-0.15732	0.61031
0.22521	-1.40480
0.42922	-0.74160
0.14870	0.68683
-0.28482	0.86539
0.37822	0.17668
0.27621	0.15117
-0.20832	1.14597
-0.31033	1.32453
0.63323	0.53379
0.70974	-0.28246
-0.00431	-1.58336
-0.02981	0.10015
0.17421	0.61031
0.07220	0.10015
0.12320	-0.07840
0.19971	-0.25695
0.22521	0.15117
-0.33583	0.76336
-0.28482	0.38074
0.30171	0.02363
0.63323	-0.66508
1.04126	-0.20594
-0.20832	-0.00188
-0.61635	-0.56305
1.32178	1.37554
0.37822	1.14597
-0.08081	0.38074
-0.31033	0.25320
-0.46334	0.17668
-0.08081	0.81437
0.63323	1.35003
0.53123	-1.12422
0.07220	-1.94047
0.07220	-1.60887
0.09770	1.27351
-0.15732	2.03874
-0.23382	0.15117
0.88825	-0.61406
0.42922	0.35523
0.27621	0.63582
-0.18282	0.53379
0.17421	-0.00188
0.35272	-0.00188
0.37822	0.25320
-0.53984	0.15117
-0.92237	0.15117
0.78624	0.15117
0.93925	0.15117
0.50573	-0.86914
-0.00431	-1.07320
-0.00431	0.48277
-0.02981	0.40625
-0.00431	0.66132
-0.23382	0.89089
0.12320	-0.12942
0.55673	-0.23145
0.14870	0.35523
0.27621	0.83988
-0.82036	0.12566
0.91375	0.35523
0.09770	-0.07840
-0.38683	1.27351
0.55673	-0.25695
0.86275	-0.46102
0.02119	-0.94566
-0.38683	-0.71609
0.42922	0.55929
0.12320	0.58480
-0.08081	1.19699
-0.02981	0.35523
0.50573	1.45206
0.32721	-1.81293
0.07220	0.32972
0.32721	-0.63957
-0.48884	0.38074
-0.41233	0.63582
0.53123	0.94191
0.37822	-0.86914
0.96476	0.04914
0.76074	0.22769
0.12320	0.35523
-0.33583	-0.00188
-0.15732	-0.25695
0.12320	-0.25695
-0.13181	0.73785
-0.10631	0.45726
0.42922	0.81437
0.14870	0.50828
0.04670	0.30422
0.12320	-0.41000
0.32721	0.07465
0.25071	0.61031
0.17421	-0.10391
0.07220	-0.76711
0.55673	-1.09871
0.37822	0.22769
-0.18282	0.78886
0.32721	1.09496
0.37822	-0.86914
0.45472	1.17148
0.22521	0.04914
-0.05531	0.07465
0.09770	1.27351
-0.05531	0.58480
0.07220	-0.05289
0.25071	-0.23145
-0.08081	-0.28246
0.04670	-1.43031
0.02119	-0.30797
0.14870	0.45726
0.99026	0.99292
0.27621	0.76336
-0.41233	-0.05289
-0.00431	0.30422
0.45472	-0.66508
0.55673	0.04914
-0.15732	0.15117
0.22521	0.10015
-0.00431	0.55929
0.14870	0.40625
0.07220	-0.02739
-0.08081	0.07465
0.12320	0.17668
0.17421	0.30422
0.27621	-0.28246
0.19971	0.55929
0.02119	-0.97117
0.04670	0.86539
0.40372	0.04914
0.53123	-0.58856
0.25071	0.35523
-0.00431	0.66132
-0.53984	0.10015
1.14327	1.01843
-0.08081	-1.17523
0.42922	0.83988
-0.56534	0.40625
-0.31033	0.50828
-1.33039	-1.04770
1.39828	0.73785
1.24527	0.12566
0.50573	0.15117
-0.28482	-0.35899
-0.00431	0.22769
0.02119	0.32972
-0.00431	0.66132
0.17421	0.55929
0.12320	-0.30797
0.12320	0.07465
0.25071	-0.12942
-0.02981	-0.20594
0.09770	-0.48652
0.37822	0.38074
0.27621	0.71234
-0.23382	0.02363
0.30171	1.32453
0.65874	0.02363
0.32721	0.27871
0.07220	-0.41000
-0.33583	-0.35899
0.27621	-1.88945
0.07220	1.86019
0.27621	1.80917
0.02119	-0.02739
-0.25932	0.91640
0.19971	-0.58856
0.58223	0.63582
-0.18282	0.43176
-0.28482	0.10015
0.32721	-0.20594
0.60773	-0.23145
0.30171	-0.20594
0.07220	-0.02739
0.40372	-0.10391
0.12320	-0.05289
-0.05531	0.35523
0.17421	0.40625
0.12320	-0.10391
0.09770	-0.25695
-0.51434	0.04914
0.96476	-0.00188
-0.00431	0.89089
0.02119	0.78886
0.14870	0.25320
-0.10631	0.32972
0.30171	0.63582
0.32721	0.20219
0.09770	-0.07840
0.12320	-0.28246
-0.00431	-1.12422
-0.13181	1.06945
0.19971	-0.41000
0.02119	0.50828
0.68424	-0.46102
0.58223	0.25320
0.42922	-0.00188
-0.05531	1.17148
-0.13181	-0.12942
-0.31033	1.19699
0.35272	-0.05289
0.25071	0.32972
0.42922	0.12566
-0.46334	-0.05289
-0.20832	0.04914
0.25071	-0.51203
0.45472	-0.35899
0.73524	0.63582
0.12320	0.25320
-0.10631	0.38074
0.02119	-0.15492
0.25071	-0.41000
0.27621	0.53379
0.02119	-0.18043
0.02119	0.32972
0.17421	0.50828
0.53123	0.91640
0.48022	0.83988
-0.08081	0.12566
-0.08081	-0.51203
-0.08081	0.35523
0.12320	0.45726
-0.02981	-0.61406
0.30171	0.63582
-0.20832	-0.15492
0.73524	-0.23145
0.55673	0.35523
-0.00431	0.63582
-0.25932	0.78886
0.22521	0.45726
0.17421	-0.66508
0.09770	-0.89465
0.32721	0.71234
0.22521	-0.28246
0.27621	-0.48652
0.12320	0.38074
-0.23382	0.63582
0.22521	0.53379
0.22521	0.45726
0.07220	0.35523
0.40372	0.12566
-1.02437	-0.00188
0.40372	-0.00188
1.24527	0.07465
0.02119	-0.30797
0.02119	-0.10391
-0.05531	0.66132
-0.38683	-0.20594
0.22521	0.30422
0.32721	-0.10391
0.19971	0.53379
0.14870	0.43176
-0.05531	0.25320
0.19971	-0.28246
0.35272	0.78886
0.30171	-1.58336
0.02119	0.22769
-0.08081	0.91640
0.63323	0.78886
0.37822	0.66132
0.12320	0.43176
0.02119	-0.00188
-0.08081	1.12046
0.02119	0.17668
0.19971	-0.81812
0.09770	-0.58856
0.14870	-0.10391
0.45472	-1.48133
0.07220	0.73785
-0.13181	0.86539
0.30171	0.96742
0.12320	0.63582
0.25071	-0.15492
0.30171	0.27871
0.07220	0.04914
-0.43783	0.04914
-0.46334	0.15117
0.58223	0.22769
0.91375	0.40625
0.02119	-1.07320
0.09770	0.15117
0.30171	0.71234
-0.13181	0.04914
-0.13181	0.12566
0.32721	0.15117
0.30171	0.83988
-0.56534	-0.02739
0.19971	0.10015
0.91375	0.38074
0.19971	0.35523
-0.05531	-0.15492
0.25071	0.94191
0.04670	0.40625
-0.33583	0.63582
0.42922	-0.05289
0.25071	-0.10391
-0.23382	-1.91496
0.07220	-0.12942
0.45472	-0.02739
0.42922	0.86539
0.04670	0.55929
0.02119	0.94191
0.25071	0.30422
0.22521	0.10015
0.17421	-0.25695
0.04670	-0.00188
0.09770	-0.43551
0.17421	0.43176
0.48022	0.38074
-0.23382	0.63582
-0.36133	0.17668
0.14870	1.22250
0.25071	-0.07840
0.48022	-0.66508
0.32721	-1.35379
0.02119	-0.02739
0.30171	-0.18043
0.12320	0.96742
-0.15732	0.61031
-0.08081	1.27351
1.01576	1.04394
-0.18282	0.10015
-0.13181	-0.05289
0.27621	-0.30797
-0.28482	-0.05289
0.25071	-0.02739
0.60773	0.32972
0.35272	0.20219
-0.15732	-0.46102
-0.02981	0.17668
0.19971	0.86539
0.17421	0.12566
0.14870	-0.92016
-0.02981	-0.33348
0.25071	-0.25695
0.53123	0.63582
0.14870	0.66132
0.25071	0.43176
-0.31033	0.61031
0.45472	0.15117
0.32721	0.17668
0.53123	0.22769
-0.56534	0.43176
-0.28482	-0.20594
0.40372	-0.71609
0.65874	-0.28246
0.17421	1.09496
-0.08081	-1.78742
0.14870	1.06945
-0.02981	0.73785
0.12320	0.73785
0.17421	0.15117
0.22521	-0.63957
0.42922	0.35523
0.12320	0.71234
0.02119	-0.18043
-0.00431	-0.05289
0.12320	0.38074
0.04670	0.12566
0.19971	-0.48652
0.27621	0.10015
0.22521	0.71234
0.27621	0.61031
0.07220	-0.05289
-0.48884	0.45726
0.81175	0.04914
-0.15732	-0.81812
0.35272	-0.35899
0.22521	0.02363
-0.15732	0.73785
0.02119	0.45726
0.22521	0.10015
0.19971	0.43176
-0.31033	0.73785
0.40372	0.63582
0.32721	-0.05289
0.04670	-1.20074
0.40372	-0.20594
0.27621	0.73785
0.32721	0.76336
0.32721	0.35523
-0.33583	0.15117
-0.59084	0.17668
0.45472	0.35523
0.53123	-0.48652
0.30171	0.43176
0.04670	-0.33348
0.07220	-0.28246
-0.18282	-0.53754
0.40372	0.17668
-0.08081	0.58480
0.25071	1.06945
0.70974	0.53379
-0.08081	0.32972
0.09770	-0.12942
-0.02981	-0.30797
-0.00431	-0.33348
0.17421	0.58480
0.07220	-0.18043
0.17421	0.78886
0.12320	0.20219
0.14870	0.30422
0.22521	-0.61406
0.14870	-0.02739
0.19971	0.07465
-0.23382	-0.05289
0.53123	0.40625
0.12320	0.55929
-0.41233	0.58480
0.30171	0.99292
1.21977	-2.37410
0.02119	-0.46102
0.32721	-0.48652
0.45472	1.63062
-0.69285	1.01843
-0.02981	1.04394
0.32721	-0.61406
0.19971	0.45726
0.22521	0.53379
-0.05531	-0.99668
-0.00431	0.30422
0.40372	0.61031
0.30171	0.02363
0.19971	-0.15492
0.07220	-0.86914
0.14870	0.27871
0.27621	0.27871
0.12320	0.43176
-0.51434	0.30422
0.09770	0.35523
0.55673	0.43176
0.48022	0.12566
0.19971	-0.15492
0.09770	-0.48652
-0.15732	-0.25695
0.17421	0.43176
0.19971	-0.30797
0.19971	0.83988
0.17421	-0.41000
0.12320	0.76336
0.04670	0.35523
0.19971	0.89089
0.35272	0.50828
0.22521	0.12566
0.04670	-0.35899
-0.05531	-1.37929
0.09770	0.07465
0.22521	1.68163
0.19971	0.35523
-0.20832	-0.43551
0.32721	-0.51203
0.32721	0.63582
0.12320	0.55929
0.19971	-1.22625
0.25071	0.22769
0.02119	0.66132
-0.08081	0.43176
-0.08081	0.15117
0.27621	0.10015
0.07220	0.02363
0.91375	0.10015
0.12320	0.25320
-0.69285	0.15117
-0.18282	0.20219
0.25071	-0.20594
0.35272	0.25320
1.09226	-0.41000
0.17421	0.73785
-0.20832	-0.18043
-0.05531	-0.25695
0.19971	0.55929
-0.05531	0.96742
0.30171	-0.07840
0.25071	0.55929
0.02119	-0.10391
0.22521	0.66132
0.14870	0.35523
0.37822	0.50828
0.04670	-1.45582
-0.15732	0.38074
0.22521	0.43176
0.25071	-0.10391
0.19971	0.40625
0.32721	-0.10391
0.37822	1.19699
-0.38683	0.89089
-0.38683	0.04914
0.55673	-1.63437
0.42922	-0.46102
0.25071	0.78886
0.07220	0.76336
0.19971	0.38074
0.17421	-0.10391
0.04670	0.63582
0.17421	0.55929
0.09770	-0.18043
0.09770	0.04914
-0.15732	0.10015
0.19971	0.43176
0.32721	-0.33348
0.19971	0.12566
-0.02981	-0.38449
0.22521	0.27871
0.53123	0.83988
0.32721	0.38074
-0.02981	-0.15492
-0.25932	0.04914
-0.02981	1.78367
0.09770	-1.55785
-0.08081	-0.48652
0.22521	-0.48652
-0.31033	0.63582
1.24527	0.81437
0.42922	0.38074
-0.05531	0.83988
0.14870	0.68683
0.12320	0.40625
0.22521	0.02363
0.07220	-0.41000
-0.18282	0.17668
-0.31033	-0.81812
0.32721	0.40625
0.12320	0.12566
0.22521	0.53379
0.68424	-0.41000
-0.23382	-1.07320
-0.38683	0.35523
-0.15732	0.81437
0.78624	0.63582
0.70974	1.37554
0.35272	0.12566
-0.18282	0.07465
0.22521	-0.56305
0.09770	0.20219
-0.13181	-0.05289
0.25071	-0.92016
0.22521	0.43176
-0.23382	0.58480
0.19971	0.50828
0.30171	0.53379
0.07220	0.58480
0.35272	0.27871
0.35272	0.04914
-0.05531	-1.07320
-0.13181	-0.25695
0.07220	0.04914
0.27621	0.02363
0.07220	0.45726
0.30171	0.43176
-0.13181	-0.00188
0.25071	0.35523
0.65874	0.53379
0.12320	0.02363
0.07220	0.35523
0.02119	-1.65988
0.14870	0.20219
0.07220	0.68683
-0.00431	0.58480
0.09770	0.27871
0.35272	0.43176
0.04670	0.35523
-0.23382	0.48277
0.53123	-0.15492
0.27621	0.15117
-0.08081	0.40625
0.22521	-0.53754
0.42922	-1.65988
0.04670	-0.38449
0.25071	0.76336
0.25071	1.29902
0.04670	0.73785
-0.23382	-0.15492
0.91375	0.38074
0.30171	0.78886
-0.23382	0.30422
0.02119	-0.02739
0.09770	-0.33348
0.09770	-0.12942
-0.20832	0.20219
0.35272	0.43176
0.50573	0.61031
0.35272	-1.17523
0.42922	-0.00188
0.17421	0.48277
-0.33583	-0.61406
0.02119	0.35523
0.07220	0.91640
0.14870	0.40625
0.07220	0.27871
0.19971	-0.00188
0.48022	0.15117
0.19971	0.45726
0.12320	0.27871
0.09770	-0.18043
0.02119	0.15117
0.25071	-0.12942
0.22521	-0.46102
0.22521	-0.15492
0.30171	0.53379
0.22521	0.61031
0.07220	0.58480
0.02119	-0.28246
-0.10631	0.30422
0.12320	0.55929
0.48022	-0.05289
0.22521	0.38074
-0.13181	0.04914
-0.28482	-1.32828
0.22521	0.43176
0.60773	0.53379
0.50573	0.40625
0.02119	-0.41000
0.02119	-0.12942
0.17421	0.35523
0.07220	0.71234
-0.00431	0.20219
0.12320	0.12566
0.04670	-0.56305
0.17421	0.38074
0.40372	0.43176
0.22521	0.43176
-0.00431	0.38074
-0.43783	0.30422
0.76074	0.25320
0.32721	-0.79262
0.17421	0.32972
0.14870	-0.00188
0.22521	0.17668
0.07220	-0.05289
0.19971	0.35523
0.04670	0.10015
-0.15732	0.10015
-0.00431	0.25320
-0.05531	0.89089
0.17421	0.61031
0.30171	-0.23145
0.88825	-0.28246
0.07220	-0.23145
-0.18282	0.63582
0.09770	0.04914
0.30171	-0.02739
0.53123	0.66132
0.60773	-0.46102
0.04670	-0.86914
0.12320	0.78886
-0.10631	0.27871
-0.20832	0.78886
0.09770	-0.18043
-0.00431	-0.23145
0.07220	0.04914
0.35272	0.15117
0.30171	0.38074
0.27621	0.30422
0.22521	0.25320
0.04670	0.25320
0.22521	0.15117
-0.00431	0.17668
-0.20832	-0.38449
-0.00431	0.63582
0.81175	-0.48652
0.32721	0.30422
0.32721	-0.86914
0.17421	-0.05289
-0.02981	0.73785
-0.08081	0.48277
0.07220	0.48277
0.12320	-0.18043
0.12320	-0.00188
0.12320	0.63582
0.07220	-0.48652
0.45472	0.48277
0.30171	0.27871
0.07220	0.66132
0.07220	0.71234
0.19971	-0.61406
0.17421	-0.28246
0.04670	-0.05289
0.12320	0.55929
-0.33583	0.96742
0.37822	-0.84363
0.32721	-0.18043
-0.00431	0.55929
-0.33583	-0.18043
0.58223	0.55929
0.60773	0.55929
-0.20832	0.45726
0.14870	-0.25695
0.35272	-0.56305
-0.05531	-0.58856
-0.05531	0.71234
0.22521	0.50828
0.12320	0.55929
0.07220	-0.89465
0.14870	0.48277
0.19971	0.55929
0.22521	-0.00188
0.17421	-0.07840
-0.13181	1.12046
0.22521	0.55929
0.30171	1.40105
0.14870	-2.60367
0.25071	-0.02739
0.68424	0.40625
-0.18282	0.48277
-0.56534	0.35523
0.73524	0.48277
0.50573	0.02363
0.14870	0.15117
-0.02981	0.45726
-0.18282	0.76336
-0.05531	-1.63437
0.27621	0.40625
0.35272	0.48277
0.19971	0.15117
0.12320	0.02363
-0.05531	-0.00188
-0.05531	0.30422
0.17421	0.27871
0.17421	0.53379
0.09770	-0.12942
0.53123	-0.46102
0.40372	-1.32828
0.12320	-0.48652
-0.08081	1.45206
-0.28482	-0.00188
0.32721	1.06945
0.40372	0.63582
0.04670	0.83988
-0.02981	0.53379
0.02119	0.35523
0.17421	-0.30797
0.35272	-0.76711
-0.00431	0.04914
0.48022	0.27871
0.19971	0.02363
0.22521	0.02363
0.02119	0.25320
0.02119	0.12566
0.45472	0.55929
0.07220	-0.84363
-0.31033	0.12566
0.07220	0.10015
0.17421	0.25320
0.07220	0.48277
0.35272	0.66132
0.12320	-0.61406
0.17421	0.43176
0.25071	-0.76711
0.30171	0.86539
-0.00431	0.63582
0.22521	-0.30797
0.14870	-0.48652
0.04670	0.07465
-0.18282	0.76336
-0.23382	0.35523
0.19971	0.02363
0.60773	0.45726
0.60773	0.58480
0.12320	0.25320
0.12320	-1.50683
-0.15732	0.66132
-0.02981	0.15117
0.14870	-0.46102
0.07220	0.43176
-0.08081	0.20219
0.22521	0.30422
0.42922	-0.38449
0.25071	-0.63957
0.02119	0.27871
-0.08081	0.50828
0.22521	-0.02739
0.32721	0.58480
-0.08081	0.30422
0.09770	0.22769
0.30171	0.78886
0.53123	-0.38449
0.04670	-0.63957
0.07220	0.68683
0.12320	0.35523
0.19971	-0.02739
0.09770	-0.02739
0.09770	0.45726
-0.20832	0.12566
0.37822	-0.33348
0.37822	0.22769
0.07220	0.30422
0.07220	0.12566
0.25071	0.02363
0.19971	-0.05289
0.09770	0.12566
0.27621	0.73785
0.17421	0.45726
0.22521	-0.25695
0.02119	0.17668
-0.13181	-0.56305
0.04670	0.27871
0.37822	-0.81812
-0.20832	0.66132
-0.05531	0.89089
0.60773	0.32972
0.22521	0.17668
0.25071	0.20219
0.27621	-0.25695
-0.48884	0.32972
0.60773	-0.94566
0.55673	0.91640
0.04670	0.45726
0.09770	0.43176
0.07220	-0.10391
-0.53984	0.50828
0.25071	-0.23145
0.63323	0.25320
0.02119	-0.12942
0.17421	0.45726
-0.02981	0.04914
-0.00431	0.63582
0.12320	-0.43551
0.35272	0.20219
0.32721	0.40625
0.19971	0.68683
0.25071	-0.02739
0.14870	-0.18043
0.09770	0.10015
0.32721	-0.02739
0.07220	0.10015
-0.13181	-0.63957
0.19971	-0.48652
0.32721	1.04394
-0.05531	0.35523
0.12320	0.58480
0.35272	0.61031
0.12320	0.32972
-0.08081	0.27871
0.32721	0.35523
0.04670	0.12566
0.32721	0.22769
0.19971	-0.76711
0.04670	-1.65988
-0.08081	0.43176
-0.36133	0.96742
0.63323	-0.51203
0.25071	0.30422
-0.31033	0.58480
-0.20832	-0.46102
0.45472	-0.63957
0.73524	1.35003
0.32721	0.45726
0.02119	1.14597
0.12320	0.25320
0.12320	-0.63957
0.02119	-0.74160
0.19971	-0.30797
0.25071	0.35523
0.19971	0.35523
-0.00431	0.38074
0.12320	-0.23145
0.32721	-0.66508
0.17421	0.96742
0.02119	0.83988
0.12320	-1.32828
0.32721	0.30422
-0.02981	0.35523
0.19971	0.66132
0.14870	0.81437
0.32721	0.30422
0.17421	-0.28246
0.09770	-0.92016
0.27621	0.73785
0.02119	0.17668
-0.00431	0.27871
0.17421	0.55929
0.60773	-0.38449
0.22521	-0.41000
0.04670	0.17668
-0.25932	0.20219
0.07220	0.04914
0.27621	0.04914
-0.08081	0.40625
0.48022	0.15117
0.22521	0.07465
0.19971	0.66132
-0.05531	0.63582
0.25071	-0.05289
0.27621	-0.35899
0.17421	-0.25695
0.25071	0.10015
0.17421	0.81437
0.17421	-0.25695
0.07220	0.55929
0.07220	-0.05289
-0.56534	0.66132
-0.41233	1.40105
0.40372	0.22769
0.53123	-2.85874
0.53123	-1.99148
0.88825	1.52859
0.37822	1.45206
-0.02981	0.68683
-0.15732	0.55929
-0.02981	0.53379
-0.00431	0.25320
-0.05531	-0.25695
-0.13181	-0.07840
0.19971	-0.25695
0.50573	-0.15492
0.04670	0.07465
0.32721	-0.15492
0.09770	0.40625
0.19971	0.17668
0.22521	0.32972
-0.02981	0.02363
0.02119	0.12566
0.27621	0.58480
0.12320	-0.48652
0.32721	-0.99668
0.35272	0.32972
0.14870	0.83988
0.27621	1.35003
-0.00431	0.78886
0.14870	-0.76711
0.17421	0.10015
-0.02981	0.91640
-0.10631	0.27871
0.02119	0.20219
0.58223	-0.07840
0.35272	0.02363
-0.38683	-0.02739
-0.41233	-0.02739
0.48022	-1.60887
0.70974	0.48277
0.09770	0.17668
0.09770	0.45726
0.30171	0.55929
0.14870	0.35523
-0.13181	0.30422
0.12320	0.25320
0.25071	0.27871
0.12320	0.07465
-0.00431	0.32972
0.14870	-0.05289
0.14870	0.22769
0.09770	-0.00188
0.17421	0.35523
0.09770	0.25320
0.07220	0.15117
0.17421	0.02363
0.17421	-0.84363
-0.02981	-0.48652
0.12320	0.35523
0.65874	0.55929
0.27621	0.58480
0.14870	1.14597
-0.05531	0.73785
-0.08081	0.07465
-0.28482	0.27871
0.02119	-0.00188
0.55673	0.15117
0.40372	0.10015
0.22521	0.04914
0.09770	-0.02739
0.19971	0.04914
0.27621	-0.30797
-0.43783	-0.28246
-0.08081	-0.38449
0.30171	0.27871
0.02119	0.20219
0.30171	0.40625
0.65874	0.68683
0.22521	0.22769
0.02119	0.32972
0.14870	0.22769
0.09770	0.17668
0.14870	0.35523
0.02119	0.04914
0.22521	0.15117
0.02119	0.12566
-0.23382	-0.05289
0.32721	-0.30797
0.32721	0.43176
0.12320	0.96742
0.19971	0.12566
0.17421	-0.25695
0.42922	0.61031
0.17421	-0.07840
-0.05531	0.43176
-0.02981	-0.46102
0.12320	0.66132
0.22521	0.35523
0.17421	0.10015
0.22521	0.43176
-0.10631	0.53379
0.55673	-0.02739
0.17421	-0.33348
0.09770	-1.55785
-0.00431	0.17668
-0.31033	-0.43551
0.30171	0.45726
0.22521	0.63582
-0.18282	0.55929
0.32721	0.76336
0.12320	0.27871
0.58223	0.15117
-0.02981	-0.28246
-0.38683	0.27871
-0.18282	-0.07840
0.63323	-0.18043
0.27621	0.25320
0.17421	0.35523
0.17421	-0.10391
0.27621	0.68683
0.17421	0.66132
-0.02981	0.58480
0.22521	0.02363
0.02119	-1.35379
0.22521	-0.10391
0.40372	0.30422
0.25071	0.50828
-0.02981	-0.79262
-0.10631	0.48277
0.12320	0.71234
0.30171	0.86539
0.09770	0.22769
0.12320	-0.07840
0.45472	-0.43551
0.27621	0.30422
0.17421	0.25320
-0.05531	0.45726
0.09770	-0.23145
0.35272	0.25320
-0.02981	0.35523
-0.02981	0.48277
0.09770	0.15117
0.19971	-0.15492
0.25071	-0.81812
0.07220	-0.05289
0.27621	0.96742
0.22521	0.71234
0.30171	0.30422
0.22521	0.66132
0.02119	0.22769
0.07220	0.81437
0.02119	0.25320
0.07220	-0.63957
0.35272	-1.12422
0.04670	-1.14973
-0.05531	0.20219
0.30171	1.06945
0.63323	0.50828
-0.08081	0.73785
0.17421	0.58480
0.12320	0.43176
0.07220	0.07465
-0.00431	0.04914
0.40372	-0.00188
0.32721	0.10015
-0.08081	-0.43551
0.27621	0.40625
-0.08081	-0.05289
0.42922	0.17668
-0.36133	0.48277
0.53123	-0.28246
0.04670	0.43176
0.17421	-0.43551
0.04670	1.14597
0.12320	0.45726
0.30171	-0.43551
0.07220	0.15117
-0.00431	-1.02219
0.02119	0.55929
0.30171	0.27871
0.19971	0.30422
0.09770	0.73785
0.19971	0.12566
-0.00431	0.71234
0.07220	0.32972
0.09770	0.96742
0.22521	-3.03730
0.12320	-0.61406
0.42922	0.71234
0.40372	0.86539
-0.18282	0.73785
0.30171	0.78886
0.07220	0.45726
-0.05531	0.35523
0.22521	-0.30797
0.27621	-0.07840
0.12320	0.02363
0.35272	0.04914
-0.46334	0.20219
0.25071	-0.18043
0.58223	0.50828
0.04670	0.02363
-0.10631	0.15117
0.02119	0.20219
-0.08081	0.53379
0.25071	0.55929
0.07220	0.96742
0.27621	-0.48652
0.25071	0.04914
0.30171	-0.76711
0.30171	-0.38449
0.02119	0.10015
-0.00431	-0.51203
0.40372	0.94191
0.22521	1.17148
-0.13181	0.71234
0.09770	0.94191
0.27621	-1.07320
0.22521	0.53379
0.17421	-0.30797
0.12320	-2.37410
0.09770	1.29902
0.17421	1.22250
-0.10631	0.35523
0.19971	-0.53754
0.19971	-0.25695
0.14870	0.10015
0.07220	0.53379
0.35272	1.04394
0.30171	0.15117
0.14870	-0.18043
0.14870	-0.00188
0.22521	0.07465
0.48022	-0.35899
-0.36133	0.35523
-0.56534	-0.05289
0.19971	0.10015
0.50573	0.27871
0.40372	0.53379
0.19971	0.73785
0.22521	0.55929
0.04670	-0.00188
0.09770	-0.69059
-0.20832	-0.48652
0.32721	-1.43031
0.17421	0.83988
-0.46334	1.06945
0.19971	0.71234
0.86275	-0.00188
0.22521	0.53379
-0.28482	0.27871
0.02119	0.15117
0.25071	0.35523
0.04670	-0.46102
0.04670	-0.38449
0.55673	-0.00188
0.22521	0.55929
-0.00431	-0.10391
-0.08081	-0.15492
-0.00431	0.76336
0.22521	0.81437
0.32721	-0.07840
0.22521	-0.84363
0.07220	0.45726
0.37822	-0.23145
-0.02981	-0.02739
-0.10631	0.81437
0.27621	0.35523
0.17421	-0.28246
0.14870	-1.63437
0.30171	0.02363
0.12320	0.73785
-0.08081	1.01843
0.12320	0.10015
0.27621	0.35523
0.22521	0.38074
-0.15732	0.76336
0.50573	-0.25695
0.32721	0.25320
0.25071	0.25320
-0.53984	-0.61406
-0.31033	-0.25695
0.30171	0.35523
0.22521	-0.51203
0.25071	-0.18043
0.30171	-0.94566
0.45472	0.53379
0.17421	0.99292
0.12320	0.71234
0.09770	0.40625
0.07220	0.32972
0.19971	0.27871
0.04670	0.32972
-0.31033	-0.10391
0.35272	-0.38449
0.55673	0.02363
-0.31033	-0.05289
0.22521	0.22769
0.40372	0.07465
0.09770	0.20219
0.27621	-0.46102
0.09770	1.09496
-0.13181	-0.76711
-0.00431	0.35523
0.27621	0.89089
0.35272	0.12566
0.22521	-0.23145
0.25071	0.66132
-0.05531	-0.18043
0.02119	0.20219
0.32721	0.35523
0.02119	0.61031
0.27621	0.17668
-0.18282	-0.25695
0.70974	-0.02739
0.35272	1.06945
-0.33583	-0.10391
0.02119	-1.12422
0.32721	-1.25176
0.32721	-0.05289
0.30171	1.27351
-0.00431	0.78886
-0.15732	0.71234
0.35272	0.48277
0.07220	0.50828
-0.48884	0.35523
-0.02981	0.40625
0.48022	-0.43551
0.58223	-0.53754
0.30171	-0.69059
0.14870	-0.02739
0.35272	0.78886
-0.02981	0.55929
0.19971	0.55929
0.19971	-0.00188
0.07220	-1.02219
0.04670	-0.20594
-0.00431	1.17148
-0.20832	0.35523
0.14870	0.22769
0.19971	0.71234
0.12320	0.04914
0.27621	-0.05289
0.45472	0.12566
0.17421	-0.10391
0.04670	-0.12942
0.19971	-0.43551
0.07220	0.55929
0.14870	0.35523
0.19971	0.48277
0.14870	0.38074
0.14870	-0.05289
0.17421	0.10015
0.12320	0.30422
0.12320	0.10015
0.32721	0.27871
0.27621	-0.10391
-0.18282	-0.86914
0.04670	0.73785
0.25071	-0.18043
0.12320	0.73785
0.32721	-0.48652
0.22521	1.47757
0.42922	-0.56305
0.07220	0.45726
-0.25932	0.91640
-0.15732	0.91640
0.45472	0.25320
0.58223	-0.02739
0.32721	-0.23145
0.09770	-0.05289
0.12320	-0.02739
-0.31033	-0.05289
0.07220	-0.43551
0.42922	0.30422
-0.13181	-0.05289
0.27621	-1.04770
0.37822	-0.18043
0.25071	0.10015
0.12320	0.99292
0.25071	0.78886
0.02119	0.63582
-0.02981	0.58480
0.12320	0.53379
0.27621	-0.30797
-0.10631	0.17668
0.32721	0.22769
0.42922	0.10015
0.30171	0.07465
0.17421	0.15117
-0.15732	-0.00188
0.35272	-0.38449
0.25071	0.04914
-0.15732	0.58480
-0.00431	0.32972
0.14870	-0.00188
0.12320	-0.07840
-0.02981	-0.23145
0.19971	0.35523
0.27621	0.86539
0.14870	-0.00188
0.14870	0.04914
0.07220	0.04914
-0.15732	-2.68019
0.53123	-0.41000
0.45472	0.73785
-0.08081	1.19699
0.30171	1.65613
0.09770	1.01843
0.12320	0.91640
0.09770	0.35523
-0.08081	0.12566
0.09770	-0.48652
0.04670	-0.10391
0.30171	-0.92016
0.19971	-0.63957
0.14870	0.66132
0.19971	0.20219
0.19971	0.25320
-0.00431	0.02363
0.19971	0.12566
-0.25932	0.10015
0.35272	-0.07840
0.96476	0.15117
-0.31033	0.35523
-0.46334	0.63582
0.19971	1.19699
0.50573	-0.43551
0.73524	-0.58856
-0.13181	-0.20594
0.07220	0.30422
0.45472	0.35523
0.17421	0.50828
-0.15732	0.12566
0.07220	0.53379
-0.20832	0.83988
0.25071	0.73785
0.45472	-0.12942
0.07220	-0.46102
0.25071	-0.97117
0.22521	-1.91496
0.02119	1.24800
0.19971	1.19699
0.09770	0.73785
0.22521	0.61031
0.07220	-0.28246
0.14870	0.63582
0.17421	0.20219
0.14870	0.15117
0.27621	-0.18043
0.09770	0.22769
0.07220	0.07465
0.04670	0.32972
0.27621	-0.66508
0.09770	-0.10391
0.45472	-0.51203
0.27621	0.73785
-0.05531	-0.46102
0.09770	0.32972
-0.15732	1.24800
0.22521	0.66132
0.07220	0.22769
0.35272	0.22769
0.12320	-0.58856
0.14870	0.55929
0.07220	0.25320
0.14870	0.58480
0.14870	0.55929
0.86275	-0.18043
-0.15732	-0.92016
-0.41233	0.15117
0.07220	0.35523
0.30171	0.12566
0.30171	0.02363
0.27621	0.40625
0.12320	0.10015
0.35272	0.43176
-0.05531	-0.00188
0.22521	-0.46102
0.14870	-0.15492
0.02119	-0.12942
0.09770	0.53379
0.02119	0.81437
0.22521	0.63582
0.25071	0.45726
0.12320	0.02363
0.12320	-0.20594
0.19971	0.48277
0.14870	0.40625
-0.28482	0.12566
0.19971	0.04914
-0.00431	0.15117
0.53123	0.32972
0.40372	-0.51203
0.14870	-0.99668
-0.02981	-0.28246
0.07220	0.04914
0.14870	0.66132
0.22521	0.22769
0.22521	0.27871
0.07220	0.61031
0.04670	0.27871
0.09770	0.32972
0.22521	0.20219
0.27621	0.38074
0.19971	0.04914
0.12320	0.15117
0.19971	0.12566
0.09770	-0.02739
0.17421	-0.63957
0.07220	0.20219
0.12320	0.53379
0.19971	0.15117
-0.00431	0.12566
0.35272	0.20219
0.48022	0.15117
0.14870	0.10015
0.12320	0.12566
0.09770	-0.00188
0.07220	0.20219
0.04670	0.25320
0.22521	0.25320
0.04670	0.04914
0.02119	-0.38449
0.32721	0.61031
0.14870	0.50828
0.22521	-0.23145
0.12320	-0.28246
-0.00431	0.32972
0.35272	0.22769
0.32721	-0.28246
-0.33583	-0.23145
0.40372	0.68683
0.65874	0.43176
0.02119	0.68683
-0.13181	0.55929
0.07220	-1.60887
0.30171	-0.53754
-0.20832	0.66132
0.40372	1.01843
-0.08081	0.55929
-0.18282	-0.74160
0.35272	0.25320
0.58223	0.04914
