0.37822	0.20219
0.12320	0.27871
0.07220	0.15117
-0.00431	0.17668
0.04670	0.10015
0.12320	0.10015
0.07220	0.07465
0.14870	0.10015
0.27621	0.22769
0.19971	0.15117
0.09770	0.17668
0.17421	0.20219
0.22521	0.22769
0.14870	0.17668
0.09770	0.02363
0.12320	0.07465
0.27621	0.12566
0.09770	0.10015
0.12320	0.10015
0.19971	0.25320
0.14870	0.15117
0.12320	0.20219
0.04670	0.17668
0.07220	0.17668
0.22521	0.10015
0.14870	0.07465
0.17421	-0.00188
0.17421	0.10015
0.19971	0.20219
0.22521	0.22769
0.14870	0.15117
0.07220	0.22769
0.12320	0.25320
0.22521	0.15117
0.09770	0.04914
0.14870	0.10015
0.19971	0.07465
0.14870	0.07465
0.17421	0.20219
0.14870	0.12566
0.12320	0.17668
-0.00431	0.30422
0.32721	0.12566
0.22521	0.17668
0.19971	0.10015
0.02119	-0.05289
0.12320	0.10015
0.12320	0.12566
0.19971	0.10015
0.17421	0.27871
0.04670	0.15117
0.14870	0.17668
0.12320	0.22769
-0.02981	0.10015
0.63323	0.17668
0.30171	0.07465
0.07220	0.10015
0.07220	0.17668
-0.08081	0.10015
0.14870	0.17668
0.19971	0.17668
0.07220	0.17668
0.22521	0.25320
0.22521	0.12566
0.09770	0.12566
0.25071	0.10015
0.19971	0.04914
0.12320	0.15117
0.12320	0.17668
0.19971	0.15117
0.22521	0.22769
0.14870	0.20219
-0.00431	0.12566
0.09770	0.17668
0.09770	0.12566
0.09770	-0.00188
0.19971	0.17668
0.22521	0.04914
0.09770	0.10015
0.02119	0.25320
0.22521	0.25320
0.27621	0.25320
0.09770	0.20219
0.12320	0.22769
0.02119	0.10015
0.09770	0.10015
0.12320	0.17668
0.35272	0.02363
0.07220	0.15117
0.14870	0.20219
0.17421	0.12566
0.17421	0.20219
0.19971	0.25320
0.14870	0.07465
0.07220	0.15117
0.22521	0.15117
0.19971	0.02363
0.07220	0.15117
0.22521	0.20219
0.12320	0.20219
0.17421	0.10015
0.19971	0.30422
0.12320	0.20219
0.14870	0.15117
0.22521	0.15117
0.17421	0.04914
0.12320	0.04914
0.22521	0.17668
0.09770	0.20219
0.09770	0.10015
0.07220	0.17668
0.27621	0.27871
0.48022	0.17668
0.09770	0.07465
0.04670	0.10015
0.14870	0.17668
0.17421	0.10015
0.09770	0.10015
0.14870	0.07465
0.22521	0.20219
0.17421	0.20219
0.07220	0.20219
0.17421	0.20219
0.17421	0.22769
0.17421	0.10015
0.07220	0.02363
0.12320	0.20219
0.14870	0.10015
0.17421	0.07465
0.17421	0.27871
0.12320	0.20219
0.09770	0.17668
0.14870	0.25320
-0.00431	0.17668
0.25071	0.12566
0.17421	0.15117
0.09770	0.07465
0.04670	0.02363
0.17421	0.22769
0.14870	0.20219
0.19971	0.12566
0.17421	0.25320
0.02119	0.15117
0.19971	0.25320
0.17421	0.04914
0.19971	0.10015
0.12320	0.15117
0.07220	0.02363
0.12320	0.12566
0.12320	0.17668
0.07220	0.12566
0.19971	0.22769
0.04670	0.20219
0.14870	0.22769
0.19971	0.17668
0.12320	-0.02739
0.07220	0.07465
0.14870	0.20219
0.22521	0.17668
0.14870	0.10015
0.17421	0.22769
0.17421	0.22769
0.12320	0.15117
0.12320	0.15117
0.19971	0.10015
0.12320	0.02363
0.12320	0.12566
0.22521	0.17668
0.04670	0.12566
0.09770	0.20219
0.17421	0.27871
0.32721	0.20219
0.12320	0.20219
0.04670	0.17668
0.25071	0.07465
0.09770	0.04914
0.09770	0.12566
0.12320	0.20219
0.07220	0.12566
0.27621	0.12566
0.19971	0.20219
0.17421	0.30422
0.12320	0.20219
0.07220	0.12566
-0.18282	0.10015
0.40372	0.12566
0.40372	0.02363
0.32721	0.07465
0.02119	0.20219
0.02119	0.17668
0.02119	0.12566
0.04670	0.17668
0.14870	0.27871
0.22521	0.15117
0.22521	0.04914
0.12320	0.10015
0.19971	0.12566
0.14870	0.12566
0.12320	0.04914
0.12320	0.20219
0.22521	0.25320
0.14870	0.22769
0.12320	0.20219
0.12320	0.20219
0.14870	0.07465
0.19971	0.15117
0.09770	0.04914
0.22521	0.20219
0.12320	0.04914
0.22521	0.17668
0.09770	0.20219
0.12320	0.20219
0.17421	0.15117
0.12320	0.02363
0.14870	0.15117
0.17421	0.10015
0.17421	0.25320
-0.18282	0.10015
0.37822	0.17668
0.42922	0.22769
0.17421	0.12566
0.04670	0.35523
0.02119	0.10015
-0.13181	0.10015
-0.05531	0.04914
0.50573	0.04914
0.32721	0.10015
0.14870	0.15117
0.07220	0.07465
0.04670	0.12566
0.19971	0.20219
0.14870	0.25320
0.09770	0.22769
0.22521	0.15117
0.17421	-0.00188
0.14870	0.07465
0.22521	0.10015
0.17421	0.02363
0.14870	0.20219
0.19971	0.17668
0.04670	0.07465
0.14870	0.35523
0.17421	0.20219
0.12320	0.17668
0.22521	0.12566
0.09770	0.10015
0.07220	-0.00188
0.17421	0.10015
0.25071	0.20219
0.14870	0.15117
0.17421	0.15117
0.22521	0.17668
0.12320	0.20219
-0.00431	0.10015
0.14870	0.12566
-0.05531	0.07465
0.55673	0.04914
0.27621	0.04914
0.14870	0.12566
-0.05531	0.17668
0.22521	0.10015
-0.02981	0.27871
0.02119	0.22769
0.17421	0.25320
0.12320	0.10015
0.02119	0.04914
0.30171	-0.02739
0.27621	0.12566
0.17421	0.22769
0.17421	0.20219
0.09770	0.12566
0.09770	0.12566
0.17421	0.15117
0.19971	0.22769
0.07220	0.17668
0.12320	0.10015
0.12320	0.07465
0.14870	0.04914
0.19971	0.15117
0.17421	0.15117
0.12320	0.15117
0.12320	0.27871
0.17421	0.20219
0.14870	0.15117
0.07220	0.02363
0.09770	0.12566
0.22521	0.10015
0.14870	0.04914
0.09770	0.15117
0.09770	0.25320
0.22521	0.17668
0.14870	0.15117
0.09770	0.17668
0.19971	0.22769
0.14870	0.07465
0.17421	0.12566
0.17421	0.07465
0.09770	0.15117
0.22521	0.22769
0.17421	0.15117
0.17421	0.15117
0.12320	0.30422
0.09770	0.17668
0.22521	0.15117
0.12320	0.12566
0.14870	0.04914
0.12320	0.15117
0.09770	-0.00188
0.22521	0.10015
0.07220	0.15117
0.25071	0.20219
0.27621	0.27871
0.09770	0.15117
0.07220	0.22769
0.17421	0.07465
0.07220	0.04914
0.09770	0.17668
0.19971	0.04914
0.48022	0.17668
0.32721	0.25320
0.04670	0.12566
0.02119	0.20219
0.07220	0.27871
0.07220	0.10015
0.22521	0.04914
0.17421	0.07465
0.14870	0.02363
0.22521	0.17668
0.09770	0.10015
0.14870	0.17668
0.22521	0.30422
0.07220	0.10015
0.14870	0.17668
0.12320	0.20219
0.09770	0.12566
0.14870	0.04914
0.17421	0.17668
0.04670	0.10015
0.12320	0.20219
0.14870	0.15117
0.07220	0.15117
0.22521	0.25320
0.02119	0.12566
0.12320	0.22769
0.17421	0.10015
0.19971	0.07465
0.12320	0.17668
0.14870	-0.00188
0.07220	0.20219
0.12320	0.12566
0.17421	0.25320
0.22521	0.17668
0.09770	0.17668
0.25071	0.25320
0.14870	0.15117
0.12320	0.07465
0.19971	0.15117
0.07220	0.07465
0.09770	0.12566
0.37822	0.15117
0.37822	0.22769
0.02119	0.20219
0.04670	0.10015
0.02119	0.15117
0.12320	0.15117
0.17421	0.07465
0.04670	0.10015
0.17421	0.20219
0.25071	0.10015
0.19971	0.12566
0.09770	0.20219
0.22521	0.20219
0.25071	0.20219
0.09770	0.10015
0.09770	0.10015
0.09770	0.15117
0.22521	0.10015
0.22521	0.04914
0.07220	0.15117
0.12320	0.27871
0.27621	0.15117
0.07220	0.15117
0.07220	0.22769
0.07220	0.25320
0.12320	0.15117
0.07220	-0.00188
0.12320	0.04914
0.12320	0.15117
0.55673	0.12566
0.25071	0.22769
-0.00431	0.17668
0.02119	0.15117
0.12320	0.22769
0.19971	0.17668
0.14870	-0.00188
0.07220	0.02363
0.12320	0.07465
0.19971	0.17668
0.25071	0.15117
0.04670	0.12566
0.17421	0.17668
0.22521	0.27871
0.07220	0.25320
0.12320	0.12566
0.22521	0.17668
0.17421	0.04914
0.14870	0.02363
0.19971	0.15117
0.09770	0.15117
0.12320	0.20219
0.19971	0.27871
0.04670	0.15117
0.17421	0.20219
0.25071	0.17668
0.12320	-0.00188
0.12320	0.04914
0.22521	0.10015
0.07220	0.04914
-0.02981	0.12566
0.30171	0.25320
0.19971	0.15117
0.07220	0.27871
0.07220	0.27871
0.07220	0.10015
0.12320	0.10015
0.22521	0.12566
0.14870	0.07465
0.09770	0.04914
0.17421	0.17668
0.22521	0.25320
0.17421	0.20219
0.07220	0.17668
0.07220	0.22769
0.25071	0.17668
0.09770	0.07465
0.14870	0.15117
0.22521	0.10015
0.12320	0.10015
0.19971	0.22769
0.09770	0.15117
0.17421	0.17668
0.14870	0.30422
0.14870	0.20219
0.07220	0.10015
0.14870	0.20219
0.14870	0.12566
0.07220	-0.00188
0.12320	0.10015
0.19971	0.12566
0.09770	0.12566
0.09770	0.30422
0.19971	0.20219
0.19971	0.20219
0.19971	0.15117
-0.33583	0.02363
0.53123	0.10015
0.32721	0.10015
0.02119	0.04914
-0.08081	0.07465
0.14870	0.27871
0.07220	0.17668
0.14870	0.25320
0.19971	0.30422
0.12320	0.15117
0.17421	0.10015
0.27621	0.15117
0.17421	-0.00188
0.09770	0.12566
0.25071	0.20219
0.09770	0.15117
0.12320	0.22769
0.07220	0.27871
0.30171	0.20219
0.12320	0.07465
0.09770	0.15117
0.09770	0.02363
0.14870	0.07465
0.17421	0.12566
0.12320	0.07465
0.14870	0.25320
0.17421	0.17668
0.07220	0.25320
0.22521	0.25320
0.07220	0.10015
0.14870	0.15117
0.12320	-0.00188
0.07220	0.07465
0.22521	0.10015
0.12320	0.15117
0.12320	0.30422
0.09770	0.20219
0.17421	0.25320
0.19971	0.20219
0.12320	0.25320
0.04670	0.04914
0.12320	0.04914
0.22521	0.12566
0.09770	-0.00188
0.17421	0.15117
0.17421	0.20219
0.12320	0.20219
0.12320	0.10015
0.14870	0.32972
0.22521	0.20219
0.14870	0.04914
0.22521	0.15117
0.14870	0.02363
0.07220	0.07465
0.14870	0.20219
0.12320	0.12566
0.07220	0.20219
0.17421	0.25320
0.19971	0.12566
0.02119	0.17668
0.19971	0.15117
0.12320	-0.02739
0.07220	0.07465
0.22521	0.17668
0.12320	0.10015
0.12320	0.22769
0.14870	0.25320
0.17421	0.25320
0.12320	0.15117
0.09770	0.15117
0.22521	0.15117
0.17421	-0.02739
-0.23382	0.07465
0.60773	0.07465
0.25071	0.10015
0.14870	0.27871
-0.00431	0.12566
-0.05531	0.15117
0.12320	0.27871
0.12320	0.12566
0.14870	0.07465
0.14870	0.07465
0.19971	0.04914
0.12320	0.12566
0.22521	0.17668
0.17421	0.12566
0.12320	0.20219
0.12320	0.30422
0.19971	0.22769
0.07220	0.07465
0.07220	0.02363
0.02119	0.10015
0.37822	0.10015
0.32721	0.17668
0.09770	0.15117
-0.05531	0.10015
0.12320	0.25320
0.19971	0.27871
0.14870	0.15117
0.09770	0.22769
0.04670	0.15117
0.30171	0.07465
0.12320	0.04914
0.07220	0.07465
0.22521	0.12566
0.35272	0.30422
0.02119	0.12566
-0.00431	0.25320
0.07220	0.27871
0.19971	0.15117
0.09770	0.12566
0.12320	0.10015
0.12320	-0.00188
0.14870	0.12566
0.19971	0.20219
0.09770	0.20219
0.14870	0.17668
0.14870	0.22769
0.07220	0.12566
0.09770	0.17668
0.25071	0.07465
0.22521	0.02363
0.09770	0.15117
0.09770	0.04914
0.07220	0.17668
0.22521	0.25320
0.17421	0.12566
0.07220	0.25320
0.22521	0.27871
0.09770	0.10015
0.09770	0.15117
0.27621	0.12566
-0.31033	0.02363
0.53123	0.10015
0.37822	0.20219
0.02119	0.12566
0.02119	0.22769
0.07220	0.22769
0.04670	0.17668
0.17421	0.15117
0.12320	0.02363
0.17421	0.10015
0.14870	0.02363
0.12320	0.12566
-0.00431	0.22769
0.32721	0.22769
0.25071	0.12566
0.07220	0.25320
0.04670	0.25320
0.19971	0.15117
0.14870	0.02363
0.09770	0.04914
0.14870	0.15117
0.19971	0.10015
0.14870	0.04914
0.09770	0.20219
0.22521	0.22769
0.12320	0.17668
0.09770	0.12566
0.14870	0.15117
0.19971	0.17668
0.19971	0.04914
0.09770	0.04914
0.22521	0.10015
0.12320	0.12566
0.07220	0.12566
0.22521	0.27871
0.12320	0.25320
0.07220	0.15117
0.17421	0.20219
0.14870	0.10015
0.14870	-0.02739
0.22521	0.07465
0.09770	0.12566
0.14870	0.15117
0.17421	0.15117
0.14870	0.15117
0.19971	0.15117
0.09770	0.15117
0.14870	0.25320
0.17421	0.10015
0.04670	0.04914
0.12320	0.17668
0.14870	0.02363
0.07220	0.12566
0.14870	0.20219
0.22521	0.20219
0.12320	0.22769
0.17421	0.15117
0.14870	0.12566
0.22521	0.10015
0.14870	0.12566
0.12320	0.10015
0.09770	0.02363
0.19971	0.12566
0.22521	0.27871
0.12320	0.20219
0.09770	0.12566
0.12320	0.17668
0.17421	0.17668
0.19971	0.17668
0.19971	0.04914
0.14870	0.02363
0.14870	0.10015
0.22521	0.17668
0.22521	0.30422
0.12320	0.15117
0.09770	0.17668
0.17421	0.17668
0.12320	0.15117
0.14870	0.15117
0.14870	0.15117
0.14870	0.04914
0.09770	0.02363
0.14870	0.17668
0.22521	0.27871
0.12320	0.20219
0.09770	0.12566
0.07220	0.17668
0.02119	0.17668
0.25071	0.15117
0.14870	0.04914
0.09770	0.02363
0.17421	0.12566
0.17421	0.20219
0.14870	0.25320
0.09770	0.12566
0.09770	0.25320
0.19971	0.30422
0.12320	0.15117
0.04670	0.02363
0.19971	0.04914
0.32721	0.20219
0.09770	0.02363
0.09770	0.12566
0.19971	0.20219
0.12320	0.15117
0.04670	0.20219
0.12320	0.27871
0.22521	0.15117
0.14870	0.10015
0.12320	-0.05289
0.14870	0.12566
0.22521	0.20219
0.09770	0.02363
0.14870	0.22769
0.25071	0.20219
0.12320	0.30422
0.04670	0.15117
0.22521	0.17668
0.17421	0.07465
0.09770	-0.02739
0.17421	-0.00188
0.19971	0.15117
0.07220	0.20219
0.09770	0.15117
0.17421	0.20219
0.17421	0.27871
0.17421	0.20219
0.07220	0.15117
0.12320	0.17668
0.17421	0.04914
0.07220	0.10015
0.14870	0.15117
0.22521	0.15117
0.14870	0.20219
0.12320	0.17668
0.17421	0.32972
0.17421	0.15117
0.02119	0.17668
0.12320	0.15117
0.19971	0.02363
0.09770	0.07465
0.14870	0.15117
0.12320	0.10015
0.09770	0.17668
0.22521	0.25320
0.09770	0.12566
0.22521	0.17668
0.12320	0.12566
0.09770	0.02363
0.19971	0.10015
0.14870	0.10015
0.07220	0.07465
0.19971	0.20219
0.14870	0.20219
0.14870	0.10015
0.19971	0.32972
0.12320	0.20219
0.07220	0.10015
0.22521	0.15117
0.12320	0.04914
-0.05531	0.07465
0.32721	0.15117
0.45472	0.10015
0.14870	0.17668
0.12320	0.20219
0.02119	0.15117
0.07220	0.20219
0.17421	0.25320
0.12320	0.07465
0.07220	0.07465
0.17421	0.15117
0.27621	0.10015
0.07220	0.12566
0.17421	0.20219
0.14870	0.25320
0.35272	0.27871
0.25071	-0.00188
0.07220	0.15117
0.04670	0.12566
0.14870	0.10015
0.14870	-0.02739
0.12320	-0.00188
0.04670	-0.33348
0.17421	0.55929
0.12320	0.86539
0.07220	0.40625
0.25071	0.38074
0.19971	-0.02739
0.07220	-1.37929
0.14870	-0.10391
0.12320	0.71234
-0.79486	-0.58856
1.14327	1.27351
0.50573	1.55410
-0.10631	1.09496
0.02119	-0.00188
0.14870	-1.25176
-0.08081	-1.99148
-0.10631	0.17668
0.40372	0.40625
0.17421	0.99292
0.19971	0.43176
0.09770	0.30422
0.19971	-0.10391
-0.18282	-0.41000
1.37278	0.58480
0.25071	0.71234
-3.01350	0.78886
1.52579	-0.12942
1.95932	-0.25695
-0.33583	-1.50683
0.60773	0.68683
-0.79486	1.57960
0.42922	0.07465
1.06676	-2.75671
-0.97337	0.48277
-0.56534	0.71234
2.13783	0.96742
0.40372	0.76336
-1.02437	-0.30797
-0.00431	1.75816
-0.00431	0.25320
-0.25932	-5.71561
-0.38683	-1.20074
1.85731	0.61031
1.75531	2.57441
-0.38683	1.96222
-2.12094	1.75816
-0.31033	3.56921
0.86275	-1.48133
0.99026	0.27871
0.37822	1.27351
0.65874	0.73785
0.04670	0.27871
-0.41233	0.76336
0.35272	-0.56305
-0.20832	0.40625
0.53123	0.45726
-0.46334	-4.54226
-0.92237	-3.49644
0.19971	-3.52195
-0.41233	-0.53754
-0.08081	3.54370
1.93382	4.00284
1.09226	4.41096
0.91375	2.70194
1.16877	2.85499
-3.16651	-0.28246
-0.94787	-1.68539
1.32178	-2.85874
0.58223	-5.33300
0.42922	0.32972
-0.69285	4.13038
-0.13181	1.42656
1.44929	0.55929
0.40372	0.58480
0.76074	1.88570
0.09770	-0.61406
-0.28482	0.68683
-0.79486	-0.76711
-0.15732	0.25320
-0.08081	0.32972
0.99026	-0.61406
-0.43783	-1.58336
0.02119	0.02363
1.32178	1.65613
0.40372	-1.27726
0.04670	0.76336
-0.28482	-1.86394
0.14870	-3.01179
-1.33039	1.50308
1.09226	3.18659
1.72980	1.70714
0.42922	1.47757
-0.15732	3.56921
-0.18282	2.42136
-0.43783	-0.97117
-0.76936	-9.13365
0.07220	-1.07320
-0.02981	1.24800
0.27621	0.50828
0.76074	2.95702
1.37278	1.70714
-0.89686	1.57960
-0.00431	0.10015
0.35272	0.25320
0.35272	-1.60887
-1.02437	-0.99668
1.37278	-0.41000
-0.00431	-0.20594
0.09770	1.57960
0.07220	-0.46102
0.76074	-0.46102
0.19971	-3.26687
0.32721	-2.27207
-0.99887	2.19179
0.42922	2.85499
-0.10631	2.08976
0.48022	1.09496
-0.20832	1.93671
0.12320	-0.38449
0.91375	0.40625
0.68424	-0.71609
0.27621	-2.01699
-0.08081	0.35523
-0.28482	0.15117
-0.08081	0.53379
-0.38683	-0.30797
0.35272	1.60511
1.09226	-0.48652
0.25071	-0.71609
-0.13181	0.27871
0.25071	0.58480
-0.23382	0.83988
-0.00431	0.12566
0.09770	1.01843
-0.38683	-1.32828
-0.38683	-2.93527
0.78624	1.42656
-0.08081	1.86019
0.12320	-0.43551
0.22521	-2.75671
1.32178	1.12046
-0.61635	1.83468
-0.69285	1.47757
0.63323	1.32453
0.50573	1.01843
1.78081	0.30422
0.48022	-0.56305
-0.87136	-0.56305
-0.25932	0.12566
-0.74385	-0.18043
0.02119	0.78886
-0.92237	-1.99148
1.24527	0.30422
0.42922	-0.92016
-0.43783	-0.10391
0.58223	1.04394
0.83725	0.20219
0.42922	0.89089
-0.08081	-0.61406
0.35272	-0.38449
-0.15732	1.24800
-0.74385	1.19699
0.25071	1.32453
1.04126	0.63582
0.07220	0.55929
0.48022	-2.27207
-0.15732	-1.58336
-0.10631	0.55929
0.17421	1.29902
0.53123	1.19699
-0.61635	-0.76711
0.99026	-1.20074
-0.31033	-0.00188
0.32721	1.45206
0.42922	2.03874
-0.46334	-3.01179
0.40372	-0.43551
-0.20832	1.01843
-0.28482	1.17148
0.63323	0.76336
1.50029	0.89089
-1.45790	0.83988
-0.18282	-0.69059
0.27621	0.27871
-0.00431	-0.25695
1.70430	-0.10391
1.29628	-0.07840
-1.61091	-0.71609
-0.13181	0.50828
0.30171	0.15117
-0.51434	-0.33348
-0.08081	0.55929
1.42379	0.81437
0.60773	0.73785
-0.51434	-0.86914
-0.38683	0.02363
-0.10631	-0.33348
0.19971	-0.15492
0.09770	0.61031
0.55673	-0.30797
-0.15732	-0.38449
0.45472	2.01323
0.96476	-1.07320
0.12320	1.24800
-0.28482	0.78886
0.22521	1.06945
0.12320	-1.86394
0.17421	-0.76711
0.27621	-0.35899
-0.59084	-0.33348
-0.10631	-0.00188
0.83725	0.02363
0.04670	1.37554
-0.84586	1.14597
0.53123	0.53379
1.75531	-2.57816
0.12320	0.53379
-0.79486	0.73785
-0.69285	0.17668
0.12320	0.10015
1.21977	-0.05289
0.27621	-0.25695
-0.41233	-0.43551
0.40372	-0.35899
-1.53441	1.29902
0.76074	0.58480
0.73524	-0.15492
-0.18282	-1.07320
-0.13181	0.35523
0.68424	1.12046
0.63323	1.12046
0.12320	0.86539
0.04670	-0.10391
0.27621	-1.50683
0.32721	0.38074
0.07220	0.32972
-0.59084	-0.02739
0.27621	-1.25176
0.58223	0.17668
-0.33583	0.20219
0.14870	0.50828
0.73524	-0.15492
-1.12638	0.38074
-0.25932	0.66132
1.50029	1.14597
-0.18282	0.25320
-0.00431	-0.41000
0.50573	-0.53754
0.07220	-1.58336
0.32721	0.12566
0.09770	0.48277
-0.18282	1.19699
0.25071	1.01843
0.14870	-0.66508
-0.00431	0.83988
0.30171	-1.91496
0.14870	-0.74160
0.09770	1.22250
-0.08081	0.30422
-0.48884	1.14597
1.37278	1.04394
0.45472	1.12046
-0.41233	0.22769
-0.38683	-0.28246
0.63323	0.02363
0.32721	-0.43551
-0.18282	0.12566
0.14870	-0.89465
-0.33583	-0.71609
0.65874	0.38074
-1.55991	0.63582
-0.08081	-0.05289
1.72980	0.76336
0.78624	-0.00188
0.12320	-0.07840
-0.00431	0.53379
0.02119	0.96742
-0.31033	-0.23145
-0.18282	0.96742
0.14870	-0.92016
0.19971	-0.28246
0.17421	-0.12942
-0.10631	0.45726
-0.05531	0.04914
1.06676	0.22769
0.83725	-0.12942
-0.05531	0.96742
-0.13181	0.55929
-0.08081	-1.60887
-0.18282	-1.02219
-0.00431	0.78886
0.35272	1.65613
0.19971	0.94191
-0.08081	-0.07840
0.17421	-1.99148
0.19971	0.50828
0.30171	0.68683
-0.08081	0.22769
-0.05531	-0.02739
0.50573	-0.51203
0.42922	0.68683
-0.87136	0.73785
0.99026	0.22769
0.63323	0.81437
-0.69285	0.66132
0.14870	-1.20074
-0.08081	0.48277
0.73524	-1.48133
-0.28482	-0.43551
-0.61635	0.83988
0.22521	0.71234
0.19971	0.86539
0.14870	-0.15492
0.45472	0.12566
-0.18282	-0.46102
0.12320	0.99292
0.73524	0.04914
0.68424	0.32972
-0.33583	-0.41000
-0.23382	-0.02739
-0.31033	0.76336
0.63323	0.10015
0.32721	0.40625
0.53123	0.17668
-0.43783	0.50828
1.06676	-0.58856
-0.20832	0.02363
-0.48884	0.89089
-0.97337	-0.66508
0.12320	0.55929
0.48022	0.81437
0.19971	0.71234
0.32721	-0.86914
-0.48884	0.83988
0.19971	0.89089
0.27621	0.38074
0.14870	-0.99668
-0.05531	-1.68539
0.48022	0.43176
0.53123	0.94191
-0.13181	1.17148
-0.64185	1.27351
0.73524	0.43176
0.88825	-1.17523
0.17421	0.45726
-0.20832	1.35003
-0.43783	-0.02739
0.02119	0.58480
0.19971	-1.71090
0.09770	-1.40480
0.25071	-0.58856
-0.10631	0.61031
0.68424	0.81437
0.37822	1.24800
-0.31033	1.04394
0.37822	0.17668
0.04670	0.12566
0.04670	0.22769
-0.38683	-0.69059
0.58223	0.17668
0.53123	0.15117
0.48022	0.71234
0.07220	-0.46102
-0.05531	-0.00188
-0.20832	-0.35899
-0.20832	0.91640
0.65874	-0.43551
0.53123	-0.25695
-0.59084	0.30422
0.83725	0.91640
-1.10088	0.73785
-0.05531	1.06945
0.81175	-0.99668
0.19971	-0.79262
0.17421	0.78886
0.14870	0.55929
-0.08081	0.40625
0.17421	0.32972
0.22521	0.20219
0.37822	-1.30277
0.09770	0.27871
-0.33583	-0.05289
-0.15732	0.50828
0.50573	0.30422
1.70430	-0.23145
-0.10631	0.63582
-0.48884	0.53379
-0.25932	1.12046
0.30171	-0.25695
-0.28482	0.04914
0.12320	0.99292
0.12320	0.27871
0.50573	0.96742
0.73524	-0.86914
0.19971	-1.35379
-0.13181	0.27871
0.04670	1.09496
0.17421	0.71234
0.17421	0.43176
0.17421	0.73785
0.14870	0.15117
0.09770	0.86539
0.07220	-0.89465
0.02119	-0.61406
0.04670	-0.12942
0.30171	0.12566
0.37822	0.35523
-0.59084	0.12566
0.68424	-0.18043
0.19971	-0.12942
0.63323	0.99292
-0.02981	0.45726
-0.28482	-0.10391
-0.15732	-0.35899
0.27621	0.22769
-0.08081	0.61031
0.19971	1.45206
0.22521	-0.12942
-0.20832	-0.56305
0.88825	-2.19554
-0.08081	0.32972
-0.00431	1.06945
0.50573	0.81437
0.32721	1.47757
0.02119	0.40625
0.07220	-0.10391
0.07220	-0.02739
0.14870	-0.15492
0.02119	-0.33348
0.04670	0.32972
0.76074	-0.12942
0.14870	-0.05289
-0.15732	0.68683
-0.08081	0.25320
0.17421	0.22769
0.50573	0.15117
0.17421	-0.10391
0.60773	-0.12942
-0.41233	-0.23145
-0.31033	0.30422
0.32721	-0.25695
0.09770	-0.05289
-0.02981	0.78886
-0.53984	1.04394
1.14327	0.73785
0.70974	0.20219
-0.08081	-0.58856
-0.48884	-0.12942
-0.43783	-0.79262
0.48022	0.71234
1.50029	1.17148
0.07220	0.50828
0.42922	0.43176
-0.10631	-1.40480
-0.33583	0.07465
-0.02981	0.81437
0.19971	0.61031
-0.15732	0.45726
0.14870	0.38074
0.14870	-0.10391
0.17421	-0.84363
0.22521	-0.89465
0.07220	0.73785
0.19971	0.07465
0.30171	-0.12942
0.70974	-0.33348
-0.28482	-0.00188
-0.59084	0.78886
0.99026	0.55929
0.09770	0.50828
-0.74385	0.66132
-0.18282	0.32972
0.50573	0.22769
0.32721	-0.25695
0.45472	-0.30797
0.14870	-1.37929
0.37822	0.66132
0.35272	0.71234
-0.23382	0.53379
0.25071	0.25320
0.07220	0.07465
0.22521	-0.00188
0.76074	0.32972
-0.99887	0.07465
-0.31033	-0.33348
0.68424	0.43176
0.48022	0.89089
0.12320	-0.12942
-0.23382	-0.69059
0.35272	0.45726
0.04670	0.20219
0.17421	0.25320
0.68424	-0.48652
0.42922	-1.12422
-0.18282	0.30422
0.02119	0.96742
0.04670	1.06945
-0.13181	0.63582
0.27621	-0.05289
0.40372	0.58480
-0.00431	0.25320
0.35272	0.15117
0.25071	-0.76711
0.04670	-0.05289
0.22521	0.27871
0.22521	-0.63957
0.42922	0.20219
-0.61635	0.71234
-0.53984	0.96742
0.58223	0.50828
-0.20832	-0.66508
0.32721	-0.30797
0.27621	0.66132
0.48022	0.73785
0.65874	0.15117
-0.18282	0.07465
0.48022	0.35523
0.12320	-0.74160
-0.76936	0.04914
0.07220	0.25320
0.17421	-0.18043
0.12320	0.30422
-0.05531	0.17668
-0.36133	0.02363
0.96476	-0.10391
0.65874	0.30422
0.32721	0.22769
-0.69285	0.48277
-0.10631	0.40625
0.30171	0.07465
0.22521	0.25320
0.04670	-0.05289
0.27621	0.04914
0.04670	0.76336
0.22521	0.40625
0.45472	-2.62918
-0.38683	0.25320
0.07220	0.35523
0.25071	0.76336
0.17421	1.09496
0.45472	0.10015
0.42922	0.53379
-0.51434	-0.00188
-0.02981	0.27871
0.40372	0.55929
0.02119	-0.56305
0.09770	-0.38449
0.32721	-0.05289
0.27621	-0.07840
0.04670	0.22769
-0.53984	0.30422
0.35272	0.35523
-0.13181	0.45726
0.53123	0.20219
0.63323	0.45726
0.02119	0.20219
-0.18282	0.35523
0.32721	-0.69059
0.22521	0.20219
-0.05531	0.30422
0.07220	0.40625
0.32721	-0.58856
0.35272	0.58480
-0.05531	0.40625
-0.00431	-0.66508
0.14870	0.04914
-0.10631	0.10015
0.78624	0.89089
0.53123	0.76336
-0.33583	0.50828
0.09770	-0.25695
0.07220	-0.81812
0.17421	0.07465
0.02119	0.63582
0.12320	0.12566
0.22521	0.45726
0.07220	-0.46102
0.04670	-0.00188
-0.15732	0.27871
0.50573	-0.25695
0.81175	0.10015
-0.23382	0.50828
0.19971	-0.20594
0.32721	0.07465
0.07220	0.73785
-0.66735	0.35523
-0.20832	-0.23145
0.48022	0.04914
0.63323	-0.23145
0.37822	0.86539
-0.59084	-0.25695
0.42922	1.17148
0.22521	-0.97117
0.27621	-0.63957
0.17421	0.73785
0.02119	1.32453
-0.15732	0.32972
0.19971	-1.40480
0.35272	0.35523
0.19971	1.22250
-0.08081	0.15117
-0.46334	0.50828
0.91375	0.07465
0.53123	-0.18043
-0.15732	-0.25695
0.02119	0.10015
0.07220	0.22769
0.04670	0.15117
0.19971	0.12566
0.14870	0.20219
0.40372	0.20219
-0.00431	-0.43551
0.14870	0.02363
-0.08081	0.15117
0.27621	0.71234
0.30171	0.38074
-0.08081	0.10015
0.30171	0.10015
0.12320	0.04914
0.17421	0.38074
0.12320	0.17668
0.02119	0.10015
0.48022	-0.15492
0.12320	0.25320
0.53123	-0.56305
-0.00431	0.81437
0.19971	0.35523
0.12320	0.45726
0.12320	0.40625
-0.64185	0.04914
-0.33583	0.22769
0.45472	0.02363
0.58223	0.15117
0.07220	-0.28246
0.27621	-0.02739
0.12320	0.81437
0.32721	-0.33348
0.19971	0.12566
-0.08081	-0.02739
0.07220	0.07465
0.35272	0.32972
0.04670	0.63582
-0.10631	0.53379
0.40372	0.45726
0.50573	0.40625
-0.15732	0.30422
0.30171	-0.76711
0.27621	0.02363
-0.25932	0.35523
-0.02981	0.38074
0.09770	-0.10391
0.07220	-0.18043
0.42922	0.35523
0.53123	0.55929
-0.64185	-0.12942
0.32721	0.58480
0.50573	-0.66508
-0.10631	-0.74160
0.02119	0.96742
0.68424	0.38074
0.19971	0.63582
-0.15732	-0.51203
0.07220	0.45726
0.14870	-0.20594
0.27621	0.63582
-0.02981	0.63582
-0.28482	0.35523
0.35272	0.07465
0.81175	0.04914
-0.20832	0.04914
-0.33583	0.12566
0.60773	-0.33348
0.27621	-0.02739
-0.28482	-0.10391
0.45472	0.61031
0.63323	-0.20594
-0.05531	-0.43551
0.09770	0.35523
0.02119	0.48277
-0.15732	0.22769
-0.28482	0.17668
0.40372	0.20219
1.11776	-0.51203
-0.53984	0.50828
0.04670	0.32972
-0.20832	0.35523
0.55673	0.76336
0.04670	0.07465
-0.08081	0.50828
0.40372	-0.38449
0.07220	-0.05289
0.07220	0.32972
0.32721	-0.15492
0.12320	-0.38449
0.32721	0.32972
0.14870	-0.18043
-0.10631	0.17668
-0.00431	0.40625
0.45472	0.22769
0.32721	0.15117
0.32721	0.15117
0.02119	0.38074
0.40372	0.48277
-0.13181	0.43176
-0.51434	0.38074
-0.05531	0.25320
0.55673	-0.81812
0.17421	-0.25695
0.14870	-0.33348
0.37822	0.20219
0.27621	0.63582
-0.02981	0.66132
0.50573	0.35523
0.42922	0.30422
0.09770	0.58480
-0.59084	-0.15492
0.07220	-0.00188
0.32721	0.04914
0.09770	-0.02739
0.30171	0.22769
-0.00431	0.02363
-0.00431	0.12566
0.12320	-0.20594
0.14870	0.30422
0.25071	0.58480
0.35272	-1.12422
0.60773	0.32972
-0.18282	0.38074
0.55673	0.58480
0.12320	0.45726
-0.18282	0.40625
0.07220	0.02363
-0.08081	-0.10391
0.17421	0.22769
0.19971	0.27871
0.19971	0.10015
0.35272	0.07465
-0.10631	-0.00188
0.14870	0.15117
0.19971	0.10015
0.53123	0.15117
0.45472	-0.56305
0.02119	0.25320
0.22521	0.07465
0.35272	0.48277
-0.00431	0.32972
-0.15732	0.35523
0.48022	0.48277
0.32721	0.10015
-0.02981	0.35523
-0.05531	-0.25695
0.07220	-0.74160
0.19971	-0.41000
-0.23382	0.04914
0.58223	0.38074
-0.31033	1.17148
-0.15732	0.89089
0.09770	0.15117
0.35272	-0.20594
0.22521	0.02363
0.27621	0.22769
0.32721	0.20219
0.19971	-0.18043
0.48022	-0.25695
0.25071	-0.05289
0.22521	0.73785
-0.10631	-0.20594
-0.13181	-0.48652
-0.13181	0.71234
0.19971	-0.28246
0.32721	0.32972
0.09770	0.73785
-0.00431	-0.33348
0.40372	0.48277
0.58223	0.68683
0.09770	0.35523
0.09770	0.15117
0.19971	0.17668
-0.13181	0.04914
0.27621	-0.05289
0.25071	-0.10391
0.81175	0.04914
-0.36133	0.20219
-0.08081	0.20219
0.22521	0.12566
0.19971	0.40625
-0.13181	-0.99668
0.14870	-0.00188
0.73524	0.78886
0.19971	0.30422
-0.10631	0.35523
0.48022	0.50828
0.55673	0.32972
-0.25932	-0.02739
0.58223	0.15117
-0.28482	0.12566
-0.51434	-0.02739
0.17421	-0.12942
0.32721	0.04914
0.45472	0.22769
0.22521	0.20219
0.27621	0.32972
0.45472	0.30422
-0.05531	-0.00188
0.17421	-0.00188
0.09770	-0.10391
0.19971	-0.05289
0.07220	0.17668
0.09770	0.66132
0.12320	-0.41000
0.19971	0.15117
0.37822	0.86539
-0.43783	0.35523
0.25071	0.04914
0.02119	-0.00188
-0.20832	0.17668
0.19971	-0.05289
0.14870	0.15117
0.25071	0.45726
-0.00431	0.35523
-0.05531	0.35523
0.70974	-0.51203
0.42922	-0.99668
-0.10631	0.35523
0.12320	1.12046
-0.05531	0.07465
0.19971	-0.53754
0.02119	0.35523
0.07220	0.53379
0.19971	0.35523
0.30171	0.15117
0.42922	0.07465
-0.13181	0.38074
0.27621	0.15117
0.19971	0.40625
0.12320	0.02363
0.17421	0.10015
-0.10631	-0.46102
0.25071	-0.00188
0.60773	0.15117
0.27621	-0.07840
-0.51434	0.35523
-0.28482	0.38074
0.45472	0.04914
0.40372	0.20219
0.22521	0.22769
0.14870	0.25320
0.14870	0.07465
0.22521	0.12566
0.09770	-0.35899
0.07220	0.02363
0.12320	0.73785
0.09770	0.07465
-0.00431	0.45726
0.12320	0.61031
0.22521	0.20219
0.58223	-0.18043
-0.05531	-0.10391
-0.02981	-0.30797
-0.25932	-0.20594
0.27621	0.02363
1.21977	0.55929
0.07220	0.10015
-0.33583	0.66132
0.17421	0.40625
0.07220	-0.99668
-0.43783	0.45726
0.42922	0.20219
0.25071	-0.00188
-0.02981	0.76336
0.25071	0.32972
0.22521	0.07465
0.07220	0.20219
0.68424	0.27871
0.68424	0.20219
0.02119	0.48277
-0.33583	0.25320
-0.08081	-0.35899
-0.20832	-0.97117
0.19971	0.40625
0.02119	0.61031
0.27621	0.35523
0.58223	0.35523
0.19971	0.04914
-0.28482	0.15117
0.17421	0.20219
0.17421	-0.05289
0.17421	-0.18043
0.78624	-0.00188
-0.00431	0.20219
-0.64185	0.04914
0.14870	0.25320
0.53123	0.32972
0.50573	0.25320
-0.13181	0.25320
-0.20832	0.63582
0.40372	0.53379
0.25071	-0.12942
0.25071	-0.12942
0.45472	-0.10391
0.37822	0.20219
0.07220	0.30422
-0.13181	-0.07840
-0.25932	0.83988
-0.00431	-1.17523
-0.08081	-0.10391
0.17421	0.58480
0.25071	0.45726
0.55673	0.38074
0.40372	0.25320
0.09770	0.15117
-0.00431	0.38074
0.12320	1.19699
0.09770	-0.35899
0.14870	-0.53754
0.02119	-0.71609
0.48022	0.38074
0.22521	0.50828
-0.25932	0.12566
-0.13181	0.12566
0.14870	0.04914
0.45472	0.35523
0.17421	0.15117
0.09770	0.20219
-0.08081	0.20219
0.02119	-0.05289
0.09770	0.22769
0.25071	0.40625
0.19971	0.48277
0.40372	-0.15492
0.17421	-0.58856
-0.33583	-0.05289
-0.31033	-0.35899
0.48022	0.40625
1.24527	0.48277
0.02119	0.32972
-0.92237	0.12566
0.09770	0.35523
0.58223	0.35523
0.02119	0.27871
0.58223	0.66132
0.27621	-0.25695
0.12320	-0.94566
0.02119	0.76336
0.25071	0.30422
-0.08081	0.38074
0.09770	0.27871
0.42922	0.04914
0.27621	-0.23145
-0.23382	-0.28246
-0.10631	0.04914
-0.33583	0.32972
0.50573	0.43176
0.45472	0.27871
0.22521	0.25320
-0.18282	0.40625
-0.10631	0.12566
0.50573	-0.15492
0.35272	-0.23145
0.22521	-0.66508
0.19971	0.55929
0.27621	0.30422
0.19971	0.43176
-0.02981	1.09496
0.60773	-0.00188
0.25071	0.04914
-0.13181	-0.05289
0.12320	0.12566
0.22521	0.27871
-0.31033	-0.33348
0.42922	0.07465
-0.48884	0.20219
0.04670	-0.69059
0.25071	-0.25695
0.22521	1.09496
0.42922	0.55929
-0.00431	0.27871
0.25071	-0.28246
0.35272	0.25320
0.25071	0.04914
0.60773	0.10015
-0.02981	0.17668
-0.23382	0.15117
0.07220	0.35523
0.14870	0.50828
0.04670	-0.05289
0.02119	-0.43551
0.17421	0.10015
0.30171	-0.07840
0.14870	-0.02739
-0.08081	0.25320
-0.05531	0.81437
0.55673	0.61031
0.07220	0.22769
-0.23382	-0.00188
0.19971	0.27871
0.91375	-0.25695
0.02119	-0.05289
-0.20832	-0.56305
-0.08081	-0.48652
0.32721	0.45726
0.04670	0.50828
-0.15732	0.78886
0.35272	0.38074
0.58223	0.35523
-0.41233	-0.02739
0.09770	-0.23145
0.48022	0.61031
0.50573	0.53379
-0.20832	-0.43551
-0.33583	0.15117
0.17421	-0.38449
0.22521	-0.48652
0.35272	0.71234
0.32721	0.40625
0.12320	0.25320
0.02119	-0.20594
0.17421	0.12566
0.14870	0.45726
0.48022	0.15117
-0.00431	-0.00188
-0.46334	0.20219
0.07220	0.17668
0.42922	0.45726
0.07220	0.07465
0.55673	0.12566
-0.08081	-0.20594
-0.18282	-0.23145
0.19971	-0.18043
0.40372	-0.30797
-0.25932	0.30422
0.14870	0.89089
0.19971	1.17148
0.32721	-0.02739
0.19971	0.12566
0.02119	0.25320
0.02119	0.17668
0.60773	-0.20594
0.07220	0.30422
0.07220	0.15117
-0.08081	-0.15492
0.48022	-0.12942
-0.05531	-0.86914
0.30171	0.27871
0.09770	0.22769
0.04670	0.99292
-0.00431	0.83988
0.09770	0.45726
0.02119	0.22769
0.12320	-0.69059
0.22521	-0.25695
0.22521	0.40625
0.04670	0.38074
-0.28482	-0.00188
-0.10631	0.17668
1.09226	0.04914
0.32721	-0.30797
0.02119	0.48277
0.07220	0.45726
0.12320	0.07465
0.19971	-0.23145
0.12320	0.30422
0.07220	0.27871
0.22521	0.04914
0.19971	0.48277
0.17421	0.43176
-0.28482	0.38074
0.14870	-0.00188
0.12320	-0.46102
-0.00431	-0.12942
1.04126	0.22769
-0.18282	0.61031
-0.36133	0.38074
0.45472	0.53379
0.35272	-0.15492
0.37822	-0.38449
0.19971	-0.18043
0.04670	0.15117
0.22521	0.40625
0.07220	-0.05289
0.09770	0.38074
0.17421	1.06945
0.17421	0.58480
0.14870	0.22769
0.42922	0.10015
0.32721	-0.56305
-0.10631	-0.07840
-0.20832	-0.99668
0.07220	0.02363
0.32721	0.10015
0.32721	0.61031
-0.20832	0.53379
0.02119	0.43176
0.60773	0.40625
0.65874	0.20219
0.42922	0.17668
-0.79486	-0.00188
0.04670	-0.10391
0.42922	0.40625
0.14870	-0.58856
-0.18282	0.35523
0.40372	0.43176
0.02119	0.12566
0.14870	0.15117
0.32721	0.32972
0.14870	0.10015
0.09770	-0.48652
0.32721	-0.00188
0.40372	0.45726
-0.02981	0.50828
-0.08081	0.25320
0.45472	0.35523
-0.08081	-0.63957
-0.28482	-0.46102
-0.10631	0.94191
0.50573	0.73785
0.68424	0.91640
0.12320	0.10015
0.32721	-0.28246
0.09770	-0.35899
0.02119	-1.02219
0.19971	0.17668
0.04670	0.25320
0.19971	0.61031
-0.08081	0.61031
0.17421	0.66132
0.07220	0.53379
0.37822	0.04914
0.50573	-0.38449
-0.08081	-0.15492
-0.08081	-0.10391
0.25071	0.15117
0.04670	0.32972
0.42922	0.15117
0.32721	0.20219
-0.36133	-0.07840
0.42922	0.38074
0.40372	0.43176
-0.13181	0.15117
-0.15732	-0.15492
0.30171	-0.12942
0.70974	0.63582
0.42922	0.12566
-0.13181	-0.07840
0.07220	-0.02739
0.02119	0.66132
-0.33583	0.78886
-0.33583	-0.10391
0.17421	0.30422
0.02119	-0.46102
0.48022	-0.07840
0.30171	0.17668
0.30171	-0.05289
0.25071	0.43176
0.07220	0.40625
0.99026	0.17668
0.53123	0.30422
-0.31033	0.17668
-0.25932	0.15117
0.22521	0.04914
0.19971	-0.56305
0.12320	0.32972
-0.13181	0.71234
0.02119	0.22769
0.32721	-0.07840
0.32721	-0.18043
0.07220	0.38074
-0.10631	-0.07840
0.22521	0.12566
0.30171	0.07465
0.19971	-0.02739
0.25071	0.68683
0.42922	-0.00188
-0.02981	0.22769
-0.05531	0.32972
0.12320	-0.00188
0.17421	0.15117
0.25071	0.25320
0.02119	0.04914
-0.43783	-0.46102
0.45472	0.38074
0.58223	0.68683
-0.53984	0.30422
-0.18282	0.45726
0.48022	-0.30797
-0.13181	-0.23145
0.73524	0.15117
0.65874	0.10015
0.22521	-0.07840
-0.02981	-0.25695
0.02119	0.12566
0.12320	0.07465
0.17421	0.68683
-0.02981	0.58480
-0.08081	0.55929
0.22521	0.38074
0.32721	0.20219
0.12320	0.02363
-0.00431	-0.43551
0.14870	0.38074
0.17421	0.76336
0.22521	-0.10391
-0.05531	-0.10391
-0.38683	-0.41000
0.45472	-1.55785
0.60773	-0.74160
0.45472	0.53379
0.12320	1.27351
-0.41233	1.42656
0.37822	0.50828
0.09770	0.20219
0.12320	-0.10391
0.07220	-0.07840
0.17421	0.25320
0.04670	0.40625
-0.18282	0.20219
0.68424	0.07465
0.12320	0.25320
-0.05531	-0.23145
-0.15732	0.15117
0.32721	-0.61406
0.09770	-0.18043
0.09770	-0.00188
0.14870	0.86539
0.35272	0.68683
0.25071	-0.07840
0.14870	0.40625
0.22521	0.20219
0.27621	0.12566
0.07220	0.07465
0.04670	0.04914
-0.00431	0.02363
0.63323	0.27871
-0.53984	0.32972
-0.56534	0.22769
0.96476	0.15117
0.30171	-0.20594
0.27621	-0.15492
0.12320	0.32972
0.07220	0.12566
0.12320	0.20219
-0.00431	0.43176
0.04670	0.25320
0.48022	0.15117
0.42922	0.12566
-0.28482	0.07465
-0.25932	0.22769
0.45472	0.45726
0.60773	0.04914
-0.20832	0.53379
0.63323	-0.99668
0.32721	-0.43551
-0.00431	0.35523
-0.10631	0.15117
-0.48884	0.71234
0.07220	0.38074
-0.08081	0.17668
0.19971	0.86539
0.42922	0.02363
0.27621	0.43176
-0.08081	-0.53754
0.32721	-0.38449
0.27621	-0.10391
0.27621	0.02363
0.22521	0.22769
0.22521	0.76336
-0.00431	0.66132
0.30171	0.30422
0.14870	-0.30797
-0.13181	-0.28246
0.14870	0.30422
0.17421	0.66132
-0.18282	0.48277
0.27621	-0.23145
0.32721	-0.00188
-0.13181	-0.23145
0.07220	-0.00188
0.45472	0.48277
0.22521	0.38074
-0.23382	0.25320
0.19971	-0.66508
0.30171	-0.33348
0.40372	0.68683
0.02119	0.38074
-0.48884	0.53379
0.30171	0.25320
-0.48884	0.40625
0.37822	0.25320
1.09226	-0.20594
0.40372	-0.00188
0.12320	0.02363
0.19971	0.07465
-0.15732	-0.20594
-0.18282	0.22769
0.17421	0.43176
0.14870	0.35523
-0.05531	0.12566
0.25071	0.43176
0.17421	-0.28246
0.42922	-0.48652
0.14870	-0.63957
-0.13181	-0.15492
-0.00431	0.71234
0.30171	0.94191
0.32721	0.55929
0.25071	0.63582
0.17421	-0.05289
0.30171	0.76336
0.09770	-0.07840
0.07220	-1.04770
0.04670	-0.00188
-0.02981	0.22769
0.19971	0.86539
0.22521	0.66132
-0.00431	0.25320
0.09770	-0.15492
0.65874	-0.18043
-0.08081	-0.43551
-0.23382	-0.02739
0.17421	-0.07840
0.22521	-0.33348
0.22521	0.40625
0.09770	0.30422
0.04670	0.58480
0.37822	0.53379
0.19971	0.32972
0.02119	0.50828
-0.36133	0.17668
-0.08081	0.02363
0.99026	-0.15492
1.16877	-0.53754
0.17421	0.32972
-0.64185	-0.41000
-0.15732	0.35523
0.12320	0.71234
0.27621	0.63582
-0.10631	0.27871
-0.15732	0.07465
0.55673	-0.05289
0.07220	-0.56305
0.17421	0.30422
0.70974	0.76336
0.14870	0.32972
-0.15732	0.45726
-0.00431	-0.18043
-0.02981	-1.09871
0.17421	-0.35899
0.14870	0.48277
0.19971	0.50828
0.37822	0.50828
0.07220	0.17668
0.27621	-0.10391
-0.00431	0.27871
0.04670	-0.02739
-0.00431	0.55929
0.12320	0.20219
0.09770	0.32972
0.19971	0.12566
0.12320	-0.46102
0.22521	0.40625
0.17421	0.12566
0.07220	0.40625
0.19971	-0.74160
0.27621	-0.15492
0.32721	0.76336
0.22521	0.25320
-0.00431	0.12566
0.07220	0.58480
0.09770	0.30422
0.12320	-0.00188
-0.08081	-0.51203
-0.02981	0.20219
0.02119	0.15117
0.35272	0.43176
0.68424	0.45726
-0.10631	0.50828
-0.08081	-0.10391
0.17421	-0.25695
0.27621	0.07465
0.17421	-0.69059
-0.08081	-0.00188
0.22521	0.35523
0.27621	0.45726
-0.25932	0.66132
0.22521	0.66132
0.07220	0.58480
0.42922	0.22769
0.48022	0.04914
-0.10631	-0.20594
0.02119	0.07465
0.19971	0.27871
0.04670	-0.00188
0.07220	0.43176
0.19971	-0.12942
0.12320	-0.15492
-0.08081	-0.53754
0.35272	-0.10391
0.22521	0.35523
-0.05531	0.43176
-0.00431	0.71234
0.42922	0.25320
0.07220	0.27871
0.07220	0.76336
0.12320	-0.05289
0.25071	0.10015
-0.05531	-0.20594
0.07220	-0.33348
0.32721	-0.48652
0.25071	0.22769
0.30171	0.32972
0.04670	-0.05289
-0.00431	0.50828
0.14870	0.53379
0.09770	-0.05289
0.17421	0.53379
-0.00431	0.55929
0.04670	0.35523
0.17421	0.02363
0.22521	-0.15492
0.42922	-0.43551
-0.10631	0.04914
-0.00431	-0.63957
0.70974	0.61031
0.22521	0.78886
-0.20832	0.27871
-0.61635	0.30422
0.07220	0.48277
0.99026	-0.41000
0.32721	-0.48652
0.14870	0.40625
-0.00431	0.73785
0.19971	-0.00188
-0.10631	0.02363
0.09770	0.07465
0.07220	0.22769
0.09770	0.20219
0.37822	0.04914
0.35272	0.20219
-0.25932	0.04914
0.27621	0.02363
0.37822	0.22769
0.37822	0.30422
0.25071	0.53379
-0.13181	0.32972
0.07220	-0.56305
0.07220	0.20219
0.14870	-0.20594
0.19971	0.32972
0.25071	0.68683
0.02119	0.12566
0.09770	0.07465
0.27621	0.27871
0.17421	0.78886
0.22521	0.35523
0.07220	-0.28246
0.04670	-0.25695
-0.05531	0.04914
-0.02981	0.66132
0.50573	-0.23145
0.58223	0.22769
0.19971	0.20219
0.02119	0.40625
0.02119	0.25320
0.17421	0.04914
0.19971	-0.43551
-0.46334	-0.05289
-0.20832	0.17668
0.42922	0.04914
0.88825	-0.07840
0.40372	0.35523
0.09770	0.61031
0.14870	0.45726
-0.20832	0.25320
-0.46334	0.22769
0.42922	-0.00188
0.27621	-0.15492
0.12320	0.17668
0.42922	0.32972
0.04670	0.32972
0.02119	0.15117
0.22521	0.22769
0.27621	0.20219
0.32721	-0.23145
-0.15732	0.15117
-0.46334	-0.18043
0.50573	-0.51203
0.83725	0.71234
-0.02981	0.48277
-0.08081	0.78886
0.07220	-0.33348
0.19971	-0.28246
0.04670	0.35523
0.02119	0.25320
0.12320	0.48277
0.14870	0.35523
0.42922	0.53379
-0.00431	0.30422
0.09770	-1.63437
0.14870	-0.20594
0.53123	0.20219
0.02119	0.53379
0.22521	0.50828
0.25071	0.07465
0.14870	0.45726
-0.05531	0.30422
-0.00431	0.22769
-0.02981	0.10015
0.76074	0.15117
0.19971	-0.02739
-0.20832	0.07465
-0.05531	0.22769
0.32721	0.20219
0.30171	0.10015
0.07220	0.35523
0.53123	-0.02739
0.12320	0.25320
-0.15732	-0.02739
-0.05531	0.04914
-0.00431	0.25320
0.12320	0.20219
0.17421	0.02363
0.27621	0.43176
0.22521	0.15117
0.12320	0.25320
0.32721	-0.53754
0.32721	-0.20594
0.40372	0.53379
0.09770	0.53379
-0.02981	0.30422
0.27621	-0.00188
0.22521	0.04914
-0.23382	0.04914
0.04670	0.50828
0.30171	0.40625
0.22521	0.12566
0.04670	0.20219
0.02119	-0.02739
0.19971	0.25320
0.19971	-0.20594
0.07220	-0.56305
0.07220	-0.51203
0.19971	0.58480
0.42922	0.32972
0.19971	0.48277
-0.15732	-0.07840
0.27621	0.66132
0.42922	0.66132
-0.00431	0.02363
0.02119	0.12566
0.32721	-0.02739
0.32721	0.07465
0.17421	0.10015
0.19971	-0.00188
-0.02981	0.12566
0.09770	-0.15492
-0.25932	0.25320
0.04670	0.86539
0.25071	0.30422
0.09770	0.35523
-0.15732	-0.07840
0.73524	-0.48652
0.88825	-0.71609
0.17421	-0.07840
-0.36133	0.02363
0.07220	0.68683
-0.13181	0.73785
0.45472	0.71234
0.35272	0.40625
-0.66735	0.10015
0.14870	0.10015
0.42922	-0.00188
0.30171	0.04914
0.04670	-0.18043
0.02119	0.12566
0.27621	0.22769
0.12320	-0.18043
-0.13181	0.22769
0.30171	0.38074
0.25071	-0.15492
0.22521	0.38074
0.27621	-0.92016
0.17421	0.40625
0.09770	0.45726
-0.10631	0.35523
0.22521	0.22769
0.65874	-0.18043
0.17421	0.27871
-0.00431	0.55929
-0.05531	0.07465
0.02119	0.22769
0.37822	-0.12942
-0.00431	-0.07840
-0.08081	0.25320
0.30171	0.10015
0.25071	0.25320
0.04670	0.40625
0.02119	0.45726
0.22521	-0.25695
0.30171	-0.33348
0.22521	-1.04770
0.04670	0.38074
-0.08081	0.94191
0.19971	0.68683
0.30171	0.38074
0.12320	0.53379
0.09770	1.12046
0.32721	0.22769
0.14870	0.20219
0.25071	-0.28246
-0.61635	-0.94566
0.50573	-0.10391
0.17421	0.30422
0.25071	0.25320
-0.18282	0.17668
0.09770	0.20219
0.09770	0.25320
0.04670	0.22769
0.22521	0.38074
0.27621	-0.25695
0.50573	-0.28246
0.27621	0.43176
0.02119	0.38074
0.17421	0.45726
-0.02981	0.10015
0.04670	0.02363
0.04670	0.35523
0.35272	0.43176
0.22521	0.32972
0.07220	-0.33348
0.22521	0.04914
0.32721	0.22769
0.22521	-0.02739
-0.00431	0.02363
0.02119	0.68683
-0.15732	-0.07840
0.17421	-0.30797
0.27621	0.20219
0.07220	-0.43551
0.12320	0.66132
0.32721	0.66132
0.25071	0.27871
0.07220	0.45726
0.09770	-0.07840
0.02119	-0.20594
0.27621	0.17668
0.19971	0.07465
0.12320	0.07465
0.04670	0.45726
0.14870	0.10015
0.12320	-0.15492
0.27621	0.04914
-0.08081	0.50828
0.30171	-0.05289
0.19971	0.17668
0.12320	0.58480
-0.00431	0.45726
0.04670	-0.28246
-0.13181	0.25320
0.53123	0.15117
0.27621	-0.00188
-0.08081	0.35523
0.07220	0.50828
0.04670	-0.28246
0.07220	0.32972
0.30171	0.10015
0.19971	0.02363
0.32721	0.15117
0.19971	0.20219
0.27621	0.07465
0.25071	-0.00188
-0.05531	0.04914
0.14870	0.22769
-0.02981	0.10015
0.07220	0.35523
0.30171	0.30422
-0.28482	-0.00188
0.14870	-0.07840
0.25071	0.07465
0.30171	0.22769
0.22521	0.15117
0.17421	0.17668
0.30171	0.38074
0.17421	0.22769
0.09770	-0.20594
0.02119	0.22769
0.14870	-0.05289
0.09770	0.20219
0.02119	0.66132
0.22521	0.81437
0.27621	-0.58856
0.04670	-2.19554
-0.18282	0.66132
0.02119	0.53379
0.42922	0.89089
0.40372	0.73785
0.09770	0.43176
0.32721	0.22769
0.07220	0.12566
-0.00431	-0.51203
-0.00431	-0.05289
0.27621	0.15117
0.09770	0.17668
-0.13181	0.76336
0.19971	0.10015
0.27621	0.30422
-0.02981	-0.23145
0.58223	-0.33348
0.32721	0.25320
0.09770	0.27871
0.09770	-0.10391
0.02119	0.15117
-0.02981	0.32972
0.17421	0.35523
0.02119	0.45726
0.02119	0.07465
0.22521	0.20219
0.58223	0.32972
0.50573	0.04914
-0.00431	0.04914
-0.15732	-0.05289
0.09770	0.12566
-0.05531	0.38074
0.14870	-0.15492
0.14870	0.27871
0.19971	0.10015
-0.05531	-0.15492
0.17421	0.43176
0.19971	0.73785
0.22521	0.12566
0.32721	-0.38449
0.09770	0.07465
-0.31033	0.22769
