0.07220	0.25320
0.12320	0.22769
0.12320	0.07465
0.09770	0.20219
0.17421	0.07465
0.09770	0.12566
0.17421	0.07465
0.12320	0.10015
0.19971	0.25320
0.17421	0.10015
0.07220	0.30422
0.17421	0.30422
0.17421	0.20219
0.07220	0.04914
0.17421	0.02363
0.22521	0.12566
0.07220	0.04914
0.14870	0.17668
0.25071	0.15117
0.09770	0.10015
0.14870	0.30422
0.17421	0.25320
0.04670	0.12566
0.12320	0.15117
0.17421	0.15117
0.12320	0.04914
0.14870	0.07465
0.22521	0.17668
0.09770	0.15117
0.12320	0.17668
0.22521	0.30422
0.14870	0.15117
-0.05531	0.17668
0.32721	0.15117
0.17421	0.04914
-0.00431	0.15117
0.14870	0.12566
0.07220	0.15117
0.14870	0.20219
0.17421	0.04914
0.07220	0.30422
0.27621	0.15117
0.09770	0.15117
0.19971	0.15117
0.12320	0.12566
0.22521	0.04914
0.12320	0.02363
0.17421	0.20219
0.12320	0.15117
0.14870	0.15117
0.14870	0.22769
0.09770	0.22769
0.19971	0.12566
0.09770	0.20219
0.22521	0.10015
0.04670	0.10015
0.12320	0.04914
0.12320	0.17668
0.17421	0.25320
0.14870	0.15117
0.02119	0.17668
0.22521	0.20219
0.14870	0.10015
0.07220	0.10015
0.14870	0.20219
0.19971	0.12566
0.14870	0.04914
0.07220	0.25320
0.17421	0.12566
0.09770	0.22769
0.14870	0.22769
0.14870	0.10015
0.12320	0.15117
0.19971	0.15117
0.14870	0.15117
0.12320	0.15117
0.19971	0.10015
0.09770	0.20219
0.22521	0.20219
0.12320	0.20219
0.12320	0.25320
0.12320	0.04914
0.09770	0.17668
0.19971	0.27871
0.14870	0.15117
0.17421	0.10015
0.19971	0.10015
0.07220	0.04914
0.02119	0.17668
0.37822	0.15117
0.12320	0.25320
0.17421	0.10015
0.09770	0.15117
0.09770	0.12566
0.12320	0.10015
0.14870	0.02363
0.14870	0.15117
0.12320	0.10015
0.14870	0.15117
0.14870	0.15117
0.12320	0.22769
0.14870	0.17668
0.22521	0.17668
0.07220	0.17668
0.19971	0.12566
0.14870	0.07465
0.17421	0.17668
0.14870	0.15117
0.14870	0.15117
0.19971	0.27871
0.14870	0.10015
0.17421	0.10015
0.19971	0.15117
0.09770	0.04914
0.12320	0.12566
0.17421	0.10015
0.07220	0.07465
0.19971	0.12566
0.17421	0.15117
0.12320	0.25320
0.17421	0.15117
0.09770	0.22769
0.25071	0.12566
0.04670	0.17668
0.22521	0.12566
0.14870	0.02363
0.07220	0.10015
0.22521	0.15117
0.12320	0.04914
0.14870	0.15117
0.19971	0.17668
0.14870	0.07465
0.14870	0.22769
0.22521	0.20219
0.12320	0.02363
0.09770	0.12566
0.19971	0.02363
0.14870	0.12566
0.07220	0.15117
0.40372	0.20219
0.12320	0.20219
0.07220	0.22769
0.14870	0.10015
0.09770	0.15117
0.14870	0.15117
0.14870	0.02363
0.17421	0.17668
0.22521	-0.00188
0.17421	0.20219
0.14870	0.17668
0.17421	0.25320
0.14870	0.20219
0.12320	0.17668
0.12320	0.07465
0.12320	0.07465
0.07220	0.15117
0.22521	0.04914
0.14870	0.22769
0.19971	0.07465
0.09770	0.38074
0.19971	-0.07840
0.04670	0.22769
0.19971	0.22769
0.09770	0.15117
0.22521	0.17668
0.07220	0.20219
0.22521	0.04914
0.07220	0.02363
0.22521	0.04914
0.09770	0.20219
0.22521	0.22769
0.04670	0.15117
0.12320	0.30422
0.14870	0.10015
0.12320	0.02363
0.22521	0.15117
0.07220	0.12566
0.19971	0.10015
0.25071	0.15117
0.12320	0.27871
0.04670	0.12566
0.19971	0.20219
0.12320	0.22769
0.09770	0.07465
0.14870	0.20219
0.22521	0.07465
0.14870	0.12566
0.17421	0.12566
0.12320	0.12566
0.14870	0.20219
0.12320	0.12566
0.14870	0.27871
0.09770	0.07465
0.17421	0.20219
0.30171	0.02363
0.09770	0.17668
0.14870	0.02363
0.07220	0.17668
0.19971	0.15117
0.14870	0.15117
0.12320	0.20219
0.22521	0.25320
0.12320	0.07465
0.14870	0.17668
0.17421	0.12566
0.09770	-0.00188
0.14870	0.12566
0.12320	0.20219
0.09770	0.20219
0.14870	0.17668
0.19971	0.27871
0.07220	0.12566
0.14870	0.15117
0.22521	0.17668
0.07220	0.04914
0.14870	0.15117
0.12320	0.10015
0.07220	0.25320
0.22521	0.17668
0.12320	-0.00188
0.09770	0.30422
0.22521	0.25320
0.09770	0.22769
0.17421	0.25320
0.12320	0.07465
0.09770	0.12566
0.14870	0.12566
0.19971	0.07465
0.07220	0.15117
0.14870	0.17668
0.17421	0.15117
0.14870	0.25320
0.19971	0.20219
0.07220	0.10015
0.14870	0.15117
0.12320	0.10015
0.07220	0.02363
0.22521	0.25320
0.14870	0.15117
0.09770	0.22769
0.19971	0.25320
0.14870	0.12566
0.14870	0.22769
0.19971	0.15117
0.07220	0.12566
0.14870	0.10015
0.22521	-0.00188
-0.05531	0.20219
0.32721	0.15117
0.14870	0.12566
0.12320	0.22769
0.09770	0.20219
0.12320	0.20219
0.17421	0.15117
0.07220	0.12566
0.14870	0.20219
0.17421	0.02363
0.09770	0.25320
0.22521	0.12566
0.07220	0.12566
0.12320	0.20219
0.12320	0.15117
0.22521	0.15117
0.17421	0.15117
0.19971	0.15117
0.12320	0.04914
0.14870	0.15117
0.14870	0.12566
0.14870	0.22769
0.12320	0.07465
0.12320	0.25320
0.12320	0.17668
0.07220	0.30422
0.22521	0.07465
0.19971	0.02363
0.12320	0.15117
0.14870	0.07465
0.14870	0.27871
0.22521	0.17668
0.07220	0.12566
0.12320	0.30422
0.17421	0.15117
0.07220	0.04914
0.14870	0.20219
0.19971	0.12566
0.07220	0.07465
0.19971	0.12566
0.12320	0.02363
0.17421	0.22769
0.12320	0.12566
0.09770	0.25320
0.19971	0.27871
0.14870	0.12566
0.14870	0.22769
0.14870	0.04914
0.07220	-0.00188
0.22521	0.15117
-0.05531	0.15117
0.32721	0.20219
0.19971	0.22769
0.07220	0.32972
0.02119	0.15117
0.14870	0.15117
0.12320	0.04914
0.09770	0.15117
0.22521	0.15117
0.09770	0.10015
0.25071	0.12566
0.12320	0.15117
0.17421	0.17668
0.22521	0.12566
0.09770	0.17668
0.19971	0.20219
0.09770	0.12566
0.14870	-0.05289
0.12320	0.12566
0.12320	0.25320
0.19971	0.15117
0.09770	0.22769
0.22521	0.20219
0.02119	0.20219
0.12320	0.17668
0.22521	0.07465
0.12320	0.17668
0.12320	0.10015
0.07220	-0.00188
0.19971	0.15117
0.14870	0.35523
0.09770	-0.10391
0.12320	0.22769
0.14870	-0.05289
0.04670	0.25320
0.14870	0.32972
0.14870	0.20219
0.09770	0.12566
0.12320	0.17668
0.19971	0.02363
0.14870	0.17668
0.12320	0.17668
0.17421	0.10015
0.12320	0.17668
0.22521	0.20219
0.12320	0.10015
0.14870	0.17668
0.22521	0.04914
0.12320	0.07465
0.17421	0.20219
0.17421	0.04914
0.07220	0.17668
0.22521	0.17668
0.14870	0.17668
0.09770	0.07465
0.19971	0.25320
0.14870	0.20219
0.12320	-0.05289
0.14870	0.10015
0.09770	0.12566
0.30171	0.30422
0.14870	0.12566
0.02119	0.20219
0.12320	0.15117
0.12320	0.10015
0.14870	0.17668
0.22521	0.10015
0.17421	0.07465
0.09770	0.07465
0.22521	0.17668
0.09770	0.10015
0.14870	0.25320
0.14870	0.17668
0.12320	0.20219
0.12320	0.20219
0.12320	0.04914
0.12320	0.15117
0.17421	0.04914
0.07220	0.12566
0.22521	0.22769
0.12320	0.27871
0.14870	-0.30797
0.22521	0.22769
0.17421	0.30422
0.14870	0.17668
0.19971	0.27871
0.17421	0.20219
0.12320	0.07465
0.19971	0.17668
0.07220	-0.00188
0.12320	0.15117
0.22521	0.22769
0.14870	0.27871
0.09770	-0.02739
0.19971	0.22769
0.14870	0.25320
0.07220	0.20219
0.07220	0.20219
0.19971	0.04914
0.07220	0.02363
0.12320	0.25320
0.22521	0.20219
0.09770	0.17668
0.12320	0.30422
-0.02981	0.10015
0.22521	0.15117
0.22521	0.10015
0.12320	0.04914
0.09770	0.15117
0.12320	0.02363
0.14870	0.20219
0.19971	0.12566
0.09770	0.17668
0.22521	0.20219
0.07220	0.04914
0.19971	0.15117
0.14870	0.12566
0.14870	0.22769
0.22521	0.07465
0.09770	0.15117
0.22521	0.20219
0.09770	0.07465
0.19971	0.22769
0.09770	0.10015
0.12320	0.22769
0.22521	0.04914
0.04670	0.15117
0.22521	0.20219
0.17421	0.04914
0.07220	0.07465
0.22521	0.15117
0.17421	0.15117
0.09770	0.17668
0.22521	0.27871
0.17421	0.25320
0.09770	0.22769
0.12320	0.04914
0.27621	0.12566
0.17421	0.12566
0.09770	0.04914
0.19971	0.17668
0.22521	0.15117
0.09770	0.02363
0.12320	0.22769
0.17421	0.32972
0.12320	0.25320
0.09770	-0.00188
0.17421	0.10015
0.14870	0.12566
0.07220	0.10015
0.22521	0.15117
0.07220	0.25320
0.22521	0.17668
0.09770	0.22769
0.22521	0.27871
0.14870	0.17668
0.12320	-0.25695
0.12320	0.12566
0.09770	0.20219
0.07220	0.17668
0.27621	0.10015
0.19971	0.25320
0.12320	0.22769
0.09770	0.25320
0.17421	0.20219
0.12320	0.12566
0.14870	0.12566
0.19971	0.15117
0.09770	0.10015
0.17421	0.04914
0.12320	0.15117
0.14870	0.17668
0.22521	0.20219
0.12320	0.20219
0.04670	0.17668
0.14870	0.25320
0.22521	0.17668
0.07220	0.12566
0.22521	0.12566
0.14870	0.17668
0.19971	0.15117
0.17421	0.15117
0.12320	0.20219
0.12320	0.12566
0.14870	0.27871
0.14870	0.10015
0.07220	0.15117
0.22521	0.15117
0.14870	0.22769
0.07220	-0.23145
0.22521	0.04914
0.07220	0.27871
0.22521	0.22769
0.12320	0.17668
0.14870	0.25320
0.12320	0.10015
0.09770	0.20219
0.22521	0.12566
0.12320	0.04914
0.14870	0.12566
0.22521	0.00000
0.07220	0.00000
0.14870	0.00000
0.09770	0.07465
0.09770	0.20219
0.22521	0.20219
0.14870	0.17668
0.14870	0.27871
0.22521	0.15117
0.09770	-0.00188
0.07220	0.15117
0.30171	0.20219
0.19971	0.12566
0.17421	0.25320
0.12320	0.17668
0.09770	-0.00188
0.14870	0.07465
0.12320	0.30422
0.22521	0.25320
0.09770	0.17668
0.19971	0.22769
0.12320	0.02363
0.22521	0.15117
0.12320	0.12566
0.14870	0.10015
0.14870	0.17668
0.17421	0.20219
0.14870	0.20219
0.12320	0.04914
0.19971	0.22769
0.14870	0.10015
0.07220	0.22769
0.12320	0.04914
0.12320	0.15117
0.22521	0.22769
0.09770	0.12566
0.14870	0.25320
0.17421	0.04914
0.09770	0.07465
0.12320	0.20219
0.22521	0.22769
0.14870	0.17668
0.09770	0.02363
0.19971	0.30422
0.12320	0.15117
0.14870	0.17668
0.22521	0.25320
0.07220	0.12566
0.14870	0.12566
0.22521	0.20219
0.12320	0.07465
0.14870	0.04914
0.19971	0.20219
0.14870	0.15117
0.12320	0.10015
0.14870	0.17668
0.12320	0.30422
0.22521	0.15117
0.14870	0.12566
0.09770	0.10015
0.14870	0.17668
0.17421	0.10015
-0.05531	0.10015
0.35272	0.15117
0.07220	0.17668
0.09770	0.27871
0.07220	0.12566
0.12320	0.25320
0.14870	0.20219
0.09770	0.15117
0.22521	0.15117
0.14870	-0.00188
0.09770	0.07465
0.17421	0.10015
0.14870	0.04914
0.17421	0.17668
0.22521	0.25320
0.07220	0.07465
0.17421	0.15117
0.14870	0.15117
0.09770	0.15117
0.22521	0.17668
0.14870	-0.35899
0.09770	0.15117
0.17421	0.40625
0.07220	0.32972
0.14870	-0.00188
0.12320	0.32972
0.12320	0.12566
0.22521	0.25320
0.14870	0.04914
0.14870	0.10015
0.17421	0.12566
0.14870	-0.02739
0.22521	0.15117
0.04670	0.02363
0.12320	0.30422
0.19971	0.35523
0.17421	0.12566
0.07220	0.12566
0.14870	0.20219
0.14870	0.12566
0.09770	0.15117
0.12320	0.20219
0.12320	0.10015
0.12320	0.22769
0.17421	0.25320
0.17421	0.22769
0.12320	0.12566
0.14870	0.17668
0.22521	0.12566
0.14870	0.04914
0.17421	0.02363
0.12320	0.10015
0.19971	0.10015
0.14870	0.07465
0.09770	0.25320
0.17421	0.27871
0.14870	0.20219
0.09770	0.07465
0.17421	0.22769
0.12320	0.10015
0.07220	-0.00188
0.35272	0.25320
0.12320	0.15117
0.02119	0.12566
0.17421	0.17668
0.12320	0.20219
0.07220	0.15117
0.19971	0.15117
0.17421	0.12566
0.07220	0.04914
0.19971	0.20219
0.17421	-0.00188
0.07220	0.04914
0.14870	0.22769
0.12320	0.35523
0.09770	0.25320
0.14870	0.22769
0.22521	0.25320
0.12320	0.12566
0.14870	-0.00188
0.12320	0.15117
0.09770	0.12566
0.07220	0.22769
0.14870	0.35523
0.09770	-0.28246
0.07220	0.15117
0.14870	0.25320
0.22521	0.35523
0.14870	0.22769
0.07220	0.10015
0.12320	-0.15492
0.17421	0.30422
0.12320	0.22769
0.12320	0.30422
0.22521	0.32972
0.12320	0.32972
0.07220	0.02363
0.14870	0.04914
0.22521	0.35523
0.07220	-0.10391
0.07220	-0.48652
0.17421	-0.12942
0.12320	0.83988
0.09770	0.40625
0.04670	-0.30797
0.22521	0.71234
0.25071	0.02363
0.12320	0.73785
0.12320	1.04394
0.07220	0.71234
0.02119	-1.58336
0.02119	-0.76711
0.35272	-1.09871
0.25071	0.15117
0.45472	1.06945
-0.33583	0.83988
0.07220	0.20219
0.37822	0.02363
0.27621	-0.20594
0.14870	0.91640
-0.02981	1.32453
0.12320	0.17668
0.09770	-0.10391
0.17421	-1.50683
0.25071	-1.25176
0.48022	0.25320
-0.43783	1.14597
-0.02981	1.14597
0.55673	0.86539
0.17421	0.76336
-0.15732	0.94191
0.17421	0.71234
0.09770	-0.76711
0.27621	-0.12942
0.14870	-0.41000
0.83725	-0.99668
0.19971	-1.88945
-0.97337	1.04394
-0.20832	0.50828
0.55673	1.93671
0.55673	1.37554
0.12320	0.55929
-0.25932	-0.18043
0.30171	-1.02219
0.60773	-2.11902
0.70974	-1.43031
0.02119	1.42656
-0.51434	1.83468
0.02119	0.89089
0.42922	1.29902
-0.02981	1.27351
0.02119	0.76336
0.19971	0.40625
0.45472	-0.51203
-0.10631	-0.12942
0.07220	0.27871
0.48022	-0.12942
0.37822	-1.91496
0.19971	-2.93527
-0.05531	-0.02739
-0.08081	-0.07840
0.04670	0.45726
-0.08081	1.09496
0.04670	1.09496
0.30171	0.40625
0.37822	1.32453
0.60773	-0.63957
0.30171	0.55929
0.12320	0.61031
-0.10631	0.22769
-0.10631	0.71234
0.09770	0.76336
0.04670	-0.15492
0.17421	-1.37929
0.22521	-2.57816
0.12320	0.89089
0.09770	1.83468
0.22521	0.32972
0.09770	-1.60887
0.02119	0.58480
0.17421	0.99292
0.25071	0.86539
0.30171	0.12566
0.19971	0.76336
0.25071	0.53379
-0.10631	1.09496
0.22521	0.35523
0.09770	-1.65988
0.17421	-1.53234
0.02119	-0.02739
-0.28482	0.07465
0.68424	0.25320
0.45472	-0.51203
-0.08081	1.04394
0.12320	0.86539
0.32721	0.91640
0.25071	0.61031
-0.20832	0.35523
-0.18282	0.55929
0.07220	-0.74160
0.14870	0.17668
0.17421	0.17668
0.70974	-0.10391
0.04670	-2.39961
-0.10631	0.76336
0.12320	0.76336
0.12320	0.78886
0.04670	0.38074
0.14870	0.50828
0.12320	0.50828
0.07220	0.02363
0.50573	-0.97117
0.40372	-0.41000
0.09770	0.45726
0.40372	0.71234
-0.15732	0.68683
-0.08081	0.45726
0.17421	0.45726
0.17421	-0.43551
0.14870	0.32972
0.19971	-0.10391
0.09770	0.22769
0.22521	-2.01699
0.30171	0.83988
0.02119	1.45206
0.07220	0.81437
0.37822	-0.05289
0.22521	-0.10391
-0.02981	0.27871
0.02119	0.78886
0.12320	-0.79262
-0.05531	-0.25695
0.25071	0.71234
0.17421	0.50828
0.40372	0.61031
0.30171	0.22769
0.22521	-0.15492
0.02119	-0.20594
0.02119	0.35523
-0.02981	-0.43551
0.07220	-0.41000
0.17421	0.32972
0.07220	0.43176
0.19971	0.12566
0.19971	0.48277
0.09770	0.48277
0.22521	0.02363
0.17421	-0.23145
0.09770	0.10015
0.12320	0.25320
0.22521	0.25320
0.17421	0.30422
0.17421	0.20219
0.04670	0.27871
0.25071	-0.18043
0.22521	0.48277
0.07220	0.55929
-0.02981	0.38074
0.19971	-1.91496
0.12320	0.10015
0.37822	1.27351
0.19971	0.83988
-0.02981	0.25320
-0.00431	-1.17523
-0.02981	0.32972
0.14870	1.42656
0.12320	0.02363
0.14870	-2.27207
0.19971	1.17148
0.48022	1.63062
0.35272	-0.07840
-0.10631	0.02363
0.02119	-0.25695
0.09770	0.45726
0.09770	-0.02739
0.19971	0.25320
0.04670	0.45726
0.09770	-0.07840
0.22521	0.22769
0.30171	0.04914
0.09770	0.04914
0.22521	0.20219
0.09770	0.04914
0.07220	0.10015
0.14870	0.38074
-0.20832	0.43176
0.53123	0.12566
0.27621	0.15117
0.12320	-0.58856
0.02119	0.55929
-0.05531	-0.38449
0.09770	-0.23145
0.07220	0.48277
0.22521	1.12046
0.25071	-0.56305
0.07220	0.25320
0.27621	1.24800
0.22521	0.25320
0.12320	0.45726
0.22521	-1.60887
0.09770	0.53379
0.09770	0.38074
0.04670	0.25320
-0.08081	0.40625
0.09770	0.27871
0.40372	0.27871
0.14870	-0.25695
0.07220	0.27871
0.12320	-0.05289
-0.05531	-0.10391
0.48022	0.07465
0.27621	-1.09871
0.14870	-0.15492
-0.02981	1.52859
0.19971	0.15117
0.12320	0.50828
-0.08081	0.58480
0.25071	-0.00188
-0.08081	0.78886
0.14870	0.50828
0.42922	0.71234
0.30171	-0.63957
-0.05531	-0.35899
0.25071	0.38074
0.30171	-0.35899
0.09770	-0.43551
0.17421	0.20219
0.19971	-0.86914
0.07220	0.76336
-0.08081	0.53379
0.14870	0.68683
0.30171	0.48277
0.12320	0.15117
0.14870	0.55929
-0.00431	0.04914
0.25071	-0.10391
0.58223	-0.53754
0.12320	0.35523
0.02119	0.63582
-0.28482	-0.51203
0.58223	-0.38449
0.40372	-0.61406
-0.02981	0.20219
-0.08081	0.68683
-0.08081	0.27871
0.14870	0.10015
0.17421	0.35523
0.07220	0.27871
0.37822	0.35523
0.14870	0.02363
0.19971	0.12566
0.09770	-0.02739
0.19971	0.55929
0.02119	-0.43551
0.12320	0.71234
0.22521	-0.02739
0.12320	-0.74160
0.19971	0.94191
0.42922	0.25320
0.02119	-0.61406
0.02119	-0.00188
-0.00431	0.17668
0.02119	0.35523
-0.13181	0.04914
0.32721	0.83988
0.14870	1.04394
0.30171	0.89089
0.25071	0.30422
0.09770	0.02363
0.19971	-0.66508
0.19971	-0.20594
0.12320	-0.35899
0.17421	0.78886
0.12320	-1.63437
0.04670	0.66132
0.07220	0.38074
0.12320	0.58480
-0.05531	0.25320
0.22521	0.35523
0.32721	0.38074
0.09770	-0.25695
0.02119	0.17668
0.14870	0.43176
0.17421	-0.63957
0.04670	0.35523
0.14870	0.48277
0.37822	0.81437
0.32721	-0.25695
-0.13181	-0.25695
0.25071	-0.10391
0.40372	0.15117
0.12320	0.53379
0.09770	-0.23145
0.17421	-0.66508
-0.05531	0.78886
0.12320	0.25320
0.04670	0.50828
0.19971	0.48277
0.04670	0.15117
0.17421	-0.12942
0.45472	-0.10391
0.58223	0.68683
-0.05531	-0.33348
-0.05531	-0.05289
0.22521	-0.56305
-0.15732	0.17668
0.02119	0.15117
0.63323	0.43176
0.14870	0.35523
0.09770	0.25320
0.12320	0.15117
-0.02981	-0.10391
0.14870	-0.10391
0.17421	0.35523
0.19971	-0.28246
0.09770	0.25320
0.14870	0.27871
0.22521	0.61031
0.25071	0.94191
0.22521	0.73785
-0.02981	-0.81812
0.07220	-0.71609
0.17421	-0.63957
0.07220	-1.20074
-0.08081	1.47757
0.27621	1.19699
0.12320	0.66132
0.27621	-0.15492
0.12320	0.27871
0.14870	-0.00188
0.14870	-0.28246
0.12320	0.55929
-0.05531	0.04914
0.19971	-0.00188
0.19971	-0.07840
0.22521	-0.30797
0.35272	0.50828
-0.00431	0.22769
0.22521	0.02363
0.19971	0.02363
0.09770	0.55929
-0.00431	-0.94566
0.58223	-0.25695
0.35272	0.48277
-0.00431	0.61031
-0.23382	0.83988
0.04670	0.10015
0.14870	-0.00188
0.04670	0.32972
0.17421	0.53379
0.25071	0.45726
0.22521	-0.02739
0.25071	-1.60887
0.22521	-0.05289
0.22521	0.40625
0.02119	0.86539
0.27621	0.86539
-0.02981	-0.30797
0.14870	0.30422
0.19971	0.15117
0.32721	-0.05289
0.14870	-0.46102
0.14870	0.17668
0.02119	0.27871
0.19971	0.63582
0.17421	0.78886
-0.00431	-0.43551
0.12320	-0.94566
0.14870	-0.10391
0.09770	0.04914
-0.13181	0.99292
0.22521	0.94191
0.14870	1.12046
0.37822	-0.76711
0.14870	-0.56305
0.14870	0.38074
0.27621	0.17668
-0.00431	1.04394
0.12320	0.86539
0.07220	-0.58856
0.40372	0.35523
0.09770	-0.02739
0.09770	-0.46102
0.07220	0.25320
0.07220	-0.18043
0.14870	0.22769
0.12320	0.02363
0.19971	0.48277
0.22521	-0.02739
0.17421	-0.18043
0.42922	0.30422
-0.13181	0.27871
0.27621	0.20219
0.12320	0.10015
-0.23382	0.78886
0.25071	-0.94566
0.55673	-0.15492
0.12320	-0.05289
0.14870	0.91640
0.12320	0.73785
-0.02981	0.53379
0.09770	-0.10391
0.19971	-0.51203
0.22521	0.76336
0.07220	0.17668
0.30171	0.76336
0.12320	0.10015
0.30171	-0.15492
0.17421	-0.18043
-0.05531	-0.66508
0.19971	0.27871
0.12320	-0.10391
-0.13181	-0.10391
0.22521	0.50828
0.27621	-0.05289
0.30171	0.35523
0.22521	0.50828
0.17421	-0.25695
-0.05531	0.48277
0.32721	0.50828
0.14870	-0.63957
-0.28482	0.22769
0.35272	-0.12942
0.17421	0.30422
-0.00431	0.27871
0.32721	0.55929
0.22521	-0.00188
-0.05531	0.25320
0.19971	-0.10391
0.19971	-0.41000
0.25071	0.04914
0.12320	0.25320
0.04670	0.35523
0.32721	0.45726
0.25071	0.17668
0.12320	0.17668
-0.02981	0.25320
-0.08081	-0.02739
0.30171	0.76336
0.09770	-0.23145
0.14870	0.15117
0.12320	0.02363
0.12320	0.10015
0.25071	-0.86914
0.19971	-0.25695
-0.18282	0.83988
0.60773	0.71234
0.14870	0.40625
0.22521	0.66132
-0.10631	-0.20594
-0.10631	-0.33348
0.09770	-0.33348
0.30171	0.76336
0.30171	0.15117
0.04670	0.20219
0.48022	-0.25695
0.22521	0.45726
0.12320	0.35523
0.12320	0.35523
-0.28482	-0.66508
-0.00431	0.10015
0.40372	-0.05289
-0.02981	0.55929
0.25071	1.09496
0.30171	0.71234
-0.05531	-0.33348
0.17421	0.04914
0.17421	-0.33348
0.19971	-0.05289
0.12320	0.12566
0.09770	-0.20594
0.17421	0.48277
-0.02981	0.15117
0.22521	0.58480
0.17421	-0.56305
0.14870	0.83988
0.27621	0.10015
0.17421	0.30422
0.22521	-0.46102
0.12320	0.20219
0.12320	0.38074
0.17421	-0.00188
0.07220	0.68683
0.19971	0.40625
0.19971	-0.63957
0.17421	1.32453
0.17421	-0.02739
-0.15732	0.07465
0.35272	-0.92016
0.09770	-0.23145
0.09770	0.66132
0.27621	0.27871
-0.00431	0.12566
-0.08081	0.78886
0.58223	-0.28246
0.14870	0.50828
-0.00431	0.48277
0.02119	-0.33348
-0.10631	0.04914
0.17421	-0.02739
0.35272	0.10015
0.30171	-0.15492
0.07220	-0.30797
0.12320	-0.46102
0.17421	0.53379
-0.02981	0.86539
0.02119	-0.05289
0.27621	0.27871
0.07220	0.15117
0.17421	0.22769
0.30171	0.43176
0.14870	-0.10391
0.04670	0.22769
0.22521	0.73785
0.17421	1.37554
0.12320	-1.81293
0.12320	-0.79262
0.09770	0.43176
0.17421	0.99292
0.02119	0.68683
0.17421	0.58480
0.09770	0.48277
0.17421	0.35523
0.25071	-0.15492
0.04670	0.38074
-0.10631	-0.10391
0.32721	-0.35899
0.27621	0.10015
0.19971	0.22769
0.02119	0.43176
0.32721	-0.43551
0.02119	-0.30797
0.37822	-0.00188
0.22521	0.58480
0.14870	0.76336
-0.08081	0.12566
-0.08081	0.22769
0.12320	0.38074
0.27621	0.45726
0.12320	-0.10391
0.17421	0.30422
0.17421	0.17668
-0.05531	-0.00188
0.30171	0.15117
0.25071	0.55929
0.17421	0.17668
0.17421	-0.00188
0.02119	-0.41000
0.17421	-0.51203
0.17421	0.20219
-0.10631	0.45726
0.22521	0.61031
0.12320	0.96742
0.12320	-0.28246
0.07220	-1.37929
0.02119	0.83988
0.32721	0.40625
-0.02981	0.32972
0.25071	1.12046
0.35272	0.78886
0.14870	0.35523
0.02119	-0.18043
0.14870	0.30422
0.17421	-0.46102
0.22521	-0.38449
-0.08081	-0.66508
-0.02981	-0.10391
0.12320	0.89089
0.30171	0.07465
0.02119	0.17668
0.17421	-0.74160
0.32721	0.35523
0.09770	0.38074
0.02119	0.61031
-0.13181	0.50828
0.45472	0.61031
0.19971	-0.86914
0.22521	0.12566
0.30171	0.68683
-0.05531	0.27871
0.07220	-0.53754
0.07220	0.02363
-0.00431	0.43176
0.30171	0.66132
0.12320	-0.38449
0.35272	0.02363
0.12320	0.38074
0.12320	0.43176
0.25071	0.25320
0.12320	0.15117
0.04670	0.40625
-0.02981	-0.28246
0.22521	-1.12422
0.19971	-0.07840
0.02119	0.43176
0.48022	0.07465
0.07220	0.86539
0.07220	0.22769
0.09770	-0.15492
-0.00431	0.71234
0.19971	0.48277
0.22521	0.30422
0.22521	-0.00188
0.14870	0.20219
0.12320	0.15117
0.19971	-0.12942
0.30171	0.53379
0.04670	-0.12942
-0.02981	-0.15492
0.12320	-0.18043
0.17421	-0.41000
0.27621	-0.25695
-0.02981	0.71234
-0.08081	1.01843
0.35272	-0.25695
0.27621	-0.41000
0.09770	0.68683
0.02119	0.86539
0.09770	0.83988
0.42922	0.43176
0.14870	0.48277
-0.02981	-0.25695
-0.25932	-0.48652
0.17421	-0.48652
0.37822	0.58480
0.32721	0.15117
0.19971	-0.12942
0.07220	-0.20594
0.12320	0.71234
0.17421	0.53379
-0.25932	0.73785
0.19971	0.73785
0.40372	0.68683
0.22521	-0.94566
0.02119	-0.94566
0.19971	0.61031
0.07220	0.66132
0.27621	0.68683
0.07220	0.73785
0.14870	0.17668
0.30171	-0.02739
0.12320	-0.18043
0.12320	0.07465
0.14870	0.25320
0.14870	0.17668
0.25071	0.43176
0.14870	0.25320
0.30171	-1.17523
-0.36133	0.50828
0.48022	-0.86914
0.32721	-0.20594
0.04670	1.37554
-0.02981	-0.46102
-0.08081	0.76336
0.19971	-0.00188
0.19971	0.40625
0.22521	0.63582
0.30171	-0.18043
0.02119	-0.86914
-0.00431	-0.76711
0.07220	0.73785
0.17421	0.66132
0.22521	0.53379
0.07220	0.22769
0.07220	0.20219
0.22521	0.15117
0.09770	-0.41000
0.37822	0.99292
0.27621	-0.41000
-0.05531	-0.97117
-0.05531	0.50828
0.30171	0.86539
0.17421	0.32972
-0.00431	-0.41000
0.17421	-0.58856
0.30171	-0.28246
0.17421	0.94191
0.19971	1.01843
0.25071	0.63582
0.17421	0.43176
0.07220	0.17668
0.17421	0.07465
0.09770	-0.69059
-0.18282	-0.18043
0.27621	0.66132
0.19971	0.68683
0.04670	0.53379
0.12320	0.20219
0.37822	-0.30797
0.17421	-0.92016
0.07220	0.83988
0.04670	1.24800
0.14870	-0.94566
0.40372	-0.18043
0.37822	0.61031
0.27621	0.68683
0.07220	0.81437
-0.31033	-0.41000
0.19971	0.20219
0.35272	-0.33348
0.09770	-0.46102
0.07220	0.30422
0.14870	0.40625
0.04670	0.22769
0.07220	0.48277
0.22521	0.76336
0.32721	-0.51203
0.14870	-0.30797
-0.08081	-1.32828
0.14870	0.66132
0.22521	0.86539
0.22521	0.76336
0.19971	0.15117
0.30171	0.35523
0.09770	0.22769
0.35272	0.66132
0.04670	-1.81293
-0.15732	-0.07840
0.14870	0.86539
0.09770	-0.18043
0.22521	0.10015
0.17421	0.71234
0.07220	0.02363
0.12320	0.32972
0.22521	0.04914
0.02119	0.15117
0.09770	0.45726
-0.05531	0.86539
0.27621	0.12566
0.12320	-0.18043
0.19971	-0.35899
0.04670	0.35523
0.09770	0.58480
0.30171	0.10015
0.14870	-0.35899
0.14870	-0.56305
0.30171	0.32972
0.09770	0.76336
0.27621	0.61031
0.22521	-0.28246
0.12320	-0.46102
-0.08081	0.27871
0.07220	0.32972
0.30171	0.86539
0.12320	-0.18043
0.22521	-0.76711
0.09770	1.01843
0.30171	0.48277
0.17421	0.48277
0.09770	-0.48652
0.22521	0.53379
-0.08081	0.20219
0.30171	-0.76711
0.30171	-0.56305
0.14870	1.01843
0.07220	1.19699
0.12320	0.61031
0.04670	0.20219
0.22521	-0.66508
0.19971	-0.38449
0.42922	0.43176
0.19971	0.61031
0.14870	0.02363
0.22521	0.22769
0.07220	-0.61406
0.09770	-0.00188
0.14870	0.66132
0.12320	0.58480
0.14870	0.20219
0.19971	-0.25695
0.14870	0.32972
-0.00431	-0.07840
0.30171	0.07465
0.09770	0.32972
0.22521	0.20219
0.02119	0.17668
0.14870	0.25320
0.35272	0.32972
0.37822	-0.48652
0.04670	-1.09871
0.04670	0.94191
0.09770	0.73785
0.02119	0.73785
0.19971	0.22769
0.14870	-0.05289
0.14870	0.50828
0.32721	0.20219
0.09770	-0.00188
0.30171	-0.02739
-0.02981	-0.41000
-0.00431	-0.05289
0.25071	-0.02739
0.14870	-0.38449
0.25071	0.43176
0.27621	0.68683
0.07220	-0.02739
0.09770	0.45726
0.04670	-0.18043
0.32721	0.25320
0.17421	0.71234
-0.00431	-0.00188
0.22521	-0.12942
0.32721	-0.15492
-0.02981	0.45726
-0.28482	0.45726
0.12320	0.40625
0.25071	0.50828
0.07220	-1.27726
0.32721	0.07465
0.42922	0.91640
0.27621	0.20219
0.19971	0.50828
0.02119	0.25320
0.07220	-0.15492
0.07220	0.25320
0.09770	-0.05289
0.17421	0.17668
0.25071	0.20219
0.22521	0.53379
0.19971	-0.18043
0.14870	-0.10391
0.14870	0.15117
0.02119	0.32972
0.19971	0.38074
0.19971	-0.86914
0.12320	0.63582
0.14870	0.48277
0.19971	0.17668
-0.02981	-0.05289
0.07220	-0.53754
0.12320	-0.02739
0.25071	0.63582
0.32721	0.12566
0.30171	0.99292
0.19971	0.68683
-0.05531	0.04914
-0.28482	-0.20594
0.42922	-1.48133
0.25071	0.38074
0.07220	0.71234
0.17421	0.48277
0.07220	0.53379
0.25071	-0.28246
0.19971	0.20219
0.12320	0.27871
0.19971	0.10015
0.25071	0.22769
0.09770	-0.00188
0.07220	-0.00188
0.17421	0.45726
0.12320	0.30422
0.19971	-0.79262
0.12320	0.07465
0.09770	0.55929
0.09770	0.45726
0.09770	-0.35899
0.12320	0.17668
0.22521	0.22769
0.19971	0.55929
0.17421	0.48277
0.22521	0.38074
0.02119	0.35523
0.17421	0.22769
0.27621	1.06945
0.12320	-1.58336
-0.10631	-0.30797
0.09770	0.76336
0.14870	1.01843
0.19971	-0.97117
0.27621	0.53379
0.12320	0.04914
0.27621	0.35523
0.12320	0.02363
0.19971	0.07465
0.09770	-0.12942
0.37822	0.32972
0.09770	0.15117
-0.13181	0.66132
-0.00431	0.38074
0.12320	-0.05289
0.02119	-1.45582
0.25071	0.10015
-0.05531	0.50828
0.42922	0.10015
0.27621	0.76336
0.09770	0.40625
0.22521	0.10015
0.09770	0.07465
0.22521	0.55929
0.22521	0.50828
0.02119	0.22769
0.17421	0.22769
0.22521	-0.79262
0.09770	-0.69059
-0.02981	0.07465
0.09770	-1.12422
-0.05531	1.14597
0.09770	1.40105
0.32721	0.55929
0.27621	0.55929
-0.02981	-0.56305
0.09770	0.15117
-0.08081	0.22769
0.35272	-0.00188
0.25071	0.76336
0.09770	0.17668
0.22521	0.15117
-0.08081	-2.09351
0.19971	-0.35899
0.35272	0.86539
0.02119	0.86539
0.25071	0.63582
0.14870	0.63582
-0.36133	0.22769
0.17421	0.27871
0.53123	0.30422
0.04670	-0.28246
0.04670	0.43176
0.27621	-0.23145
0.04670	-0.58856
0.07220	0.58480
0.12320	-0.23145
0.07220	0.71234
0.30171	0.10015
0.22521	0.35523
0.04670	-0.56305
0.02119	0.45726
0.35272	1.12046
0.07220	0.76336
0.22521	0.22769
0.19971	-0.63957
0.12320	0.10015
0.09770	0.35523
0.22521	0.45726
0.04670	0.10015
0.09770	-0.56305
0.22521	0.07465
0.09770	0.27871
0.32721	0.10015
0.17421	0.25320
-0.00431	0.30422
0.02119	0.20219
0.30171	-0.07840
0.12320	-0.35899
0.12320	-0.02739
0.25071	0.71234
0.17421	0.86539
0.14870	0.30422
-0.02981	-0.30797
0.17421	-0.30797
0.12320	0.43176
0.22521	-0.05289
0.30171	1.01843
0.02119	0.68683
0.22521	-0.23145
0.22521	0.35523
0.09770	-1.07320
0.12320	0.48277
0.14870	1.09496
0.19971	0.02363
0.42922	-0.33348
0.02119	0.12566
-0.18282	0.22769
0.17421	0.15117
0.12320	-0.25695
0.22521	0.48277
0.22521	0.55929
0.40372	0.53379
-0.00431	-0.23145
-0.10631	-1.99148
0.42922	0.55929
0.22521	0.45726
0.12320	0.45726
0.04670	0.04914
0.07220	0.61031
0.22521	0.63582
0.07220	0.61031
0.32721	0.55929
0.09770	-0.86914
0.14870	-0.12942
0.09770	0.22769
0.02119	0.66132
0.14870	-1.63437
0.09770	0.12566
0.22521	0.66132
0.14870	1.06945
0.25071	1.14597
0.17421	0.32972
0.04670	-0.23145
0.30171	0.68683
0.09770	-1.55785
0.14870	0.10015
0.19971	-0.05289
0.14870	-0.02739
0.12320	0.55929
0.25071	0.58480
0.17421	0.53379
0.02119	0.66132
0.14870	0.04914
0.25071	-0.30797
0.17421	-0.07840
0.14870	0.12566
0.25071	0.12566
0.19971	0.17668
-0.13181	0.45726
0.22521	0.43176
0.04670	-0.18043
-0.02981	-2.19554
0.32721	-0.58856
0.40372	1.04394
0.04670	1.14597
0.02119	1.27351
0.09770	1.35003
0.27621	-0.35899
0.07220	0.02363
0.02119	-0.10391
0.25071	0.04914
0.09770	0.15117
0.42922	0.27871
0.19971	0.12566
0.02119	-0.00188
0.09770	0.12566
0.19971	0.40625
0.09770	-0.58856
0.17421	-0.05289
0.14870	0.20219
0.19971	-0.25695
0.17421	-0.38449
0.09770	0.15117
-0.08081	0.78886
0.14870	0.43176
0.12320	0.40625
0.09770	0.10015
0.22521	-0.00188
0.19971	-0.46102
0.17421	0.35523
0.14870	0.48277
0.27621	0.73785
0.12320	0.73785
0.17421	0.50828
0.22521	0.38074
-0.20832	0.04914
0.19971	-2.06800
0.07220	-0.76711
0.19971	0.94191
0.27621	-0.20594
0.22521	0.35523
0.12320	0.96742
0.17421	0.40625
0.02119	0.63582
0.02119	-0.12942
0.32721	0.27871
0.04670	0.63582
-0.00431	-0.33348
0.25071	-1.45582
0.37822	-0.20594
-0.10631	0.66132
-0.15732	0.73785
0.37822	0.48277
0.40372	-0.05289
0.04670	0.20219
0.22521	-0.07840
0.19971	0.45726
0.22521	0.22769
0.02119	0.27871
0.04670	0.22769
0.12320	0.50828
0.02119	-0.58856
0.12320	0.04914
0.17421	0.02363
0.12320	0.04914
0.12320	0.27871
0.35272	0.22769
0.09770	0.04914
0.19971	-0.07840
0.12320	0.55929
-0.00431	0.43176
0.12320	0.22769
0.45472	-1.91496
0.22521	0.66132
-0.18282	0.89089
0.48022	0.53379
0.19971	0.96742
-0.00431	-1.45582
-0.13181	0.55929
0.30171	0.38074
0.12320	-0.18043
-0.18282	0.78886
-0.02981	0.76336
0.30171	0.58480
0.27621	-0.33348
0.35272	0.12566
0.22521	0.04914
0.12320	-0.02739
0.22521	0.15117
0.07220	-0.43551
0.09770	-0.20594
0.22521	0.22769
0.12320	0.32972
0.07220	-0.41000
0.27621	0.43176
-0.02981	0.53379
0.04670	-0.58856
0.14870	0.17668
0.35272	-0.46102
0.07220	0.99292
-0.15732	0.83988
0.12320	0.10015
0.19971	-1.17523
0.32721	1.40105
0.42922	-0.38449
0.27621	0.58480
0.12320	1.12046
0.04670	0.02363
0.27621	0.15117
0.07220	0.15117
0.04670	0.20219
0.09770	-0.30797
0.02119	-0.25695
0.02119	-0.05289
0.22521	0.07465
0.30171	-0.10391
-0.13181	-0.00188
0.04670	0.45726
0.22521	-0.15492
0.14870	0.17668
0.04670	-0.41000
0.19971	0.17668
0.17421	0.38074
0.32721	0.45726
0.17421	0.86539
-0.02981	0.32972
0.35272	0.53379
0.07220	0.32972
-0.15732	-0.33348
0.22521	-0.23145
0.12320	-0.51203
0.25071	0.48277
0.09770	0.71234
0.12320	-0.10391
0.27621	0.53379
0.19971	0.10015
0.07220	-0.89465
0.14870	0.22769
0.27621	0.55929
0.02119	0.58480
0.02119	0.55929
0.22521	-0.53754
0.40372	-0.92016
0.12320	0.40625
0.12320	-0.00188
0.17421	0.35523
0.12320	0.40625
0.17421	0.50828
0.17421	0.45726
0.19971	0.45726
-0.25932	0.30422
0.17421	-0.12942
0.17421	0.50828
0.22521	0.15117
0.17421	-0.23145
0.12320	-1.78742
-0.00431	-0.00188
0.30171	1.09496
0.07220	1.17148
0.35272	0.32972
0.50573	-0.86914
0.09770	-0.05289
-0.05531	0.68683
0.09770	-0.30797
0.14870	0.50828
0.04670	0.48277
0.22521	0.35523
0.12320	-0.30797
0.12320	0.53379
0.27621	0.48277
0.09770	0.15117
0.17421	0.17668
0.25071	0.63582
0.09770	-0.35899
0.07220	-0.63957
0.32721	-0.38449
-0.00431	-1.17523
0.17421	0.61031
0.12320	0.91640
0.12320	0.61031
0.09770	0.86539
0.12320	0.99292
0.09770	0.27871
0.07220	-0.69059
0.17421	-0.28246
0.19971	0.30422
0.22521	-0.05289
0.30171	0.12566
0.02119	0.38074
-0.13181	0.35523
0.12320	0.04914
0.35272	0.25320
-0.02981	0.15117
0.37822	-0.10391
0.12320	-0.23145
0.12320	0.63582
0.25071	-0.66508
0.30171	0.22769
0.02119	0.50828
0.02119	0.07465
-0.05531	0.35523
0.09770	0.55929
0.17421	0.43176
0.22521	-0.00188
0.27621	0.15117
-0.05531	0.02363
0.17421	0.04914
0.22521	0.04914
-0.00431	0.71234
0.22521	0.04914
0.65874	-1.09871
-0.00431	-1.22625
0.14870	1.63062
0.02119	1.47757
0.02119	0.53379
0.30171	0.22769
0.09770	0.15117
-0.23382	0.30422
0.22521	-0.48652
0.12320	-0.43551
0.22521	0.07465
0.09770	0.20219
0.12320	0.17668
0.07220	0.12566
0.25071	0.12566
0.22521	0.10015
0.17421	0.04914
0.02119	0.15117
-0.08081	0.22769
0.04670	0.27871
0.09770	0.35523
0.40372	-0.30797
0.35272	-0.38449
0.04670	0.73785
0.27621	0.89089
-0.08081	0.32972
-0.02981	0.38074
0.09770	-0.15492
0.09770	-0.61406
0.30171	0.04914
0.25071	0.58480
0.22521	0.17668
-0.28482	0.81437
0.09770	0.71234
0.19971	-0.74160
0.14870	0.25320
0.40372	0.71234
0.32721	-0.07840
0.02119	0.12566
0.02119	0.61031
0.12320	-0.05289
0.17421	0.22769
0.25071	0.17668
0.12320	-0.41000
0.17421	-0.28246
-0.02981	0.02363
0.30171	-0.25695
0.22521	0.58480
0.09770	0.61031
-0.31033	0.45726
0.07220	-0.00188
0.27621	0.20219
0.22521	0.43176
0.22521	0.43176
0.25071	0.55929
-0.02981	-0.10391
0.27621	0.15117
-0.00431	-0.35899
0.14870	1.06945
0.22521	-1.40480
0.04670	-0.25695
0.27621	0.48277
0.09770	1.01843
0.17421	0.68683
0.14870	-0.20594
0.07220	-1.02219
0.14870	0.40625
0.17421	-0.38449
0.12320	0.76336
0.04670	0.71234
-0.08081	0.22769
0.22521	0.20219
0.12320	-0.15492
0.17421	0.02363
0.19971	0.61031
0.22521	0.30422
-0.08081	-0.48652
0.25071	-0.71609
0.32721	-0.46102
0.02119	0.66132
0.07220	0.45726
-0.13181	0.38074
0.14870	0.35523
0.22521	0.27871
0.27621	0.61031
-0.02981	-0.69059
0.07220	0.45726
0.22521	0.12566
0.12320	0.43176
0.14870	0.30422
0.07220	0.10015
0.27621	0.50828
-0.00431	-0.05289
0.25071	0.15117
0.27621	0.25320
0.19971	-0.07840
-0.00431	-0.58856
0.27621	-0.23145
0.17421	0.40625
0.04670	0.17668
0.14870	-0.10391
0.09770	0.04914
0.14870	0.63582
0.17421	0.55929
0.12320	0.40625
0.14870	0.38074
0.02119	0.04914
0.25071	0.38074
0.17421	-1.37929
0.12320	0.12566
0.25071	0.76336
0.07220	0.38074
0.17421	0.22769
0.09770	0.35523
0.17421	0.02363
0.04670	-0.56305
0.19971	0.10015
0.04670	0.27871
0.17421	0.89089
0.02119	-0.38449
0.30171	0.10015
0.32721	-0.02739
0.04670	0.32972
0.37822	0.27871
0.07220	-0.00188
0.07220	0.27871
0.07220	-0.56305
0.14870	0.17668
0.09770	0.50828
-0.02981	0.63582
0.37822	0.38074
0.27621	0.32972
0.02119	0.10015
0.12320	0.38074
0.17421	0.27871
0.45472	-0.92016
0.22521	0.25320
-0.08081	0.15117
0.04670	-0.51203
-0.02981	0.81437
0.09770	-0.18043
0.30171	0.68683
0.12320	0.55929
0.12320	0.12566
0.22521	0.50828
0.14870	0.04914
0.12320	-0.35899
0.22521	0.17668
-0.08081	-0.20594
0.32721	0.25320
0.25071	0.10015
0.09770	0.15117
0.14870	0.38074
-0.10631	0.30422
0.25071	-0.28246
0.07220	-0.48652
0.02119	0.02363
0.40372	1.55410
0.22521	-1.99148
-0.00431	0.12566
0.19971	0.58480
0.14870	1.12046
0.09770	0.71234
0.42922	0.30422
-0.05531	0.89089
-0.28482	0.02363
0.22521	-0.56305
0.19971	-1.30277
0.19971	0.66132
0.22521	0.40625
0.07220	0.17668
0.22521	0.38074
0.07220	0.15117
0.12320	0.04914
0.53123	-0.12942
0.35272	-0.10391
-0.08081	-0.15492
0.17421	-0.02739
0.07220	-0.41000
-0.10631	0.53379
0.25071	0.45726
0.12320	0.40625
0.27621	0.38074
0.07220	0.38074
0.12320	-0.02739
0.30171	0.07465
0.19971	0.38074
-0.08081	0.20219
0.14870	-0.43551
0.17421	0.22769
0.14870	0.04914
0.17421	0.25320
0.07220	0.04914
0.07220	0.17668
0.22521	1.55410
0.17421	-0.53754
0.14870	-0.05289
0.27621	0.30422
0.12320	0.17668
0.27621	0.25320
0.07220	0.15117
0.17421	0.12566
0.22521	-0.56305
-0.08081	-0.20594
-0.10631	0.27871
0.32721	0.10015
0.40372	0.20219
0.25071	0.66132
0.09770	0.68683
0.19971	-0.18043
0.17421	-0.58856
0.02119	0.43176
-0.20832	0.55929
0.32721	0.30422
0.17421	-0.25695
0.12320	-1.45582
0.17421	0.78886
0.27621	1.52859
0.19971	1.09496
0.09770	-1.12422
-0.13181	-0.02739
0.19971	0.30422
0.30171	-0.15492
0.12320	0.71234
-0.05531	0.63582
0.09770	0.20219
0.17421	0.35523
0.27621	0.04914
0.12320	-0.61406
0.17421	-0.10391
0.19971	0.32972
0.12320	-0.41000
-0.00431	0.35523
0.19971	-0.05289
0.12320	0.15117
0.14870	0.43176
0.27621	0.35523
0.14870	-0.00188
0.19971	-0.10391
0.27621	0.43176
0.04670	-0.97117
0.27621	0.76336
0.12320	0.58480
0.17421	0.63582
0.02119	0.38074
0.02119	0.17668
0.30171	0.35523
0.22521	0.30422
-0.23382	-0.79262
0.32721	-1.17523
0.32721	-0.00188
0.02119	0.66132
0.07220	0.61031
0.12320	0.86539
0.30171	-0.10391
0.19971	-0.25695
0.09770	0.50828
0.30171	-0.12942
0.12320	-0.02739
-0.10631	-0.89465
0.14870	0.07465
0.30171	1.06945
0.32721	0.40625
0.07220	0.45726
0.17421	0.63582
0.07220	-0.18043
0.07220	-0.02739
0.14870	0.07465
0.12320	-0.02739
-0.05531	0.04914
0.19971	0.12566
0.22521	0.10015
0.19971	-0.02739
-0.05531	0.32972
0.22521	0.30422
0.12320	-0.43551
0.25071	0.02363
0.27621	0.45726
0.04670	0.55929
0.14870	0.63582
0.30171	0.91640
0.14870	0.40625
-0.02981	-1.76191
0.19971	-0.30797
0.19971	0.71234
0.09770	1.01843
0.17421	0.50828
0.12320	0.61031
0.25071	0.35523
0.09770	0.15117
0.12320	-0.00188
0.27621	-0.23145
0.14870	-0.25695
0.17421	-0.23145
0.04670	-0.15492
0.27621	0.22769
0.02119	0.17668
0.19971	0.35523
0.19971	-0.18043
0.19971	0.04914
0.12320	-0.20594
0.07220	0.58480
0.09770	0.50828
0.19971	0.68683
0.14870	0.53379
0.09770	0.04914
0.27621	-0.35899
0.09770	-0.35899
-0.00431	-1.78742
0.07220	1.04394
0.27621	0.40625
0.19971	1.12046
0.22521	1.04394
0.48022	1.06945
0.17421	-0.71609
-0.08081	-0.02739
0.04670	0.22769
0.09770	0.02363
-0.05531	-0.35899
0.30171	0.17668
0.07220	-0.12942
-0.02981	0.17668
0.42922	0.22769
0.32721	0.04914
-0.15732	-0.07840
0.30171	-0.89465
0.19971	-0.07840
0.25071	0.89089
0.07220	0.83988
-0.05531	0.45726
0.09770	0.43176
0.07220	0.55929
0.17421	0.17668
0.19971	-0.00188
0.19971	-0.41000
0.22521	-0.15492
0.04670	-0.79262
0.22521	0.32972
0.19971	0.45726
0.25071	0.22769
-0.00431	0.99292
0.32721	0.32972
0.07220	0.71234
0.04670	-0.07840
-0.05531	0.04914
0.09770	-1.68539
0.32721	0.35523
-0.00431	0.17668
0.55673	1.12046
0.14870	-0.84363
-0.00431	0.35523
-0.23382	-0.02739
0.22521	0.12566
0.25071	0.10015
0.42922	0.45726
0.17421	0.40625
-0.10631	0.32972
0.27621	0.15117
0.17421	0.22769
0.07220	0.17668
0.22521	0.17668
0.09770	0.04914
0.17421	0.04914
0.19971	0.07465
0.12320	0.20219
0.14870	0.43176
0.02119	0.55929
0.07220	-0.18043
0.07220	-2.27207
0.27621	-0.15492
0.07220	1.14597
0.14870	1.06945
0.14870	1.09496
0.22521	0.81437
0.27621	0.55929
-0.23382	-1.14973
0.17421	-0.18043
0.35272	0.32972
0.22521	0.25320
0.14870	0.10015
0.19971	0.27871
0.02119	-0.05289
0.12320	0.20219
0.09770	-0.12942
0.07220	0.15117
0.02119	-0.35899
0.48022	-0.41000
0.17421	-0.61406
0.22521	0.58480
-0.13181	0.86539
0.02119	0.73785
0.22521	0.71234
0.35272	0.43176
0.14870	0.45726
0.09770	0.04914
0.02119	-0.07840
0.14870	0.35523
0.09770	-1.02219
0.22521	0.40625
0.09770	0.25320
0.09770	-1.48133
0.30171	0.66132
0.12320	-0.00188
0.19971	0.86539
0.37822	0.86539
0.25071	0.30422
0.07220	0.07465
0.07220	-0.48652
0.12320	0.40625
-0.00431	0.55929
0.12320	-0.18043
0.27621	0.04914
0.12320	-0.35899
0.04670	0.04914
0.12320	-0.05289
0.27621	-0.20594
0.22521	-0.05289
0.12320	0.86539
-0.13181	0.55929
0.07220	0.43176
0.17421	0.22769
0.45472	0.35523
0.17421	0.63582
0.07220	0.48277
0.14870	-0.86914
0.22521	-0.38449
0.14870	-1.07320
0.19971	-0.48652
0.12320	1.50308
0.07220	1.37554
-0.00431	0.96742
0.37822	0.50828
0.37822	0.25320
0.22521	0.04914
0.19971	0.07465
0.17421	-0.18043
-0.05531	-0.35899
0.19971	-0.12942
-0.05531	0.02363
0.02119	-0.25695
-0.00431	0.10015
0.07220	0.40625
0.22521	-0.02739
0.32721	0.25320
0.07220	0.30422
0.19971	0.07465
0.35272	0.22769
0.09770	0.25320
0.14870	0.83988
0.07220	-0.74160
0.32721	0.61031
0.09770	0.50828
-0.02981	0.76336
0.07220	-1.04770
0.42922	-0.71609
0.12320	-1.27726
-0.00431	0.43176
-0.13181	1.47757
0.17421	1.17148
0.30171	-0.05289
0.27621	-0.02739
0.30171	0.45726
-0.15732	0.27871
0.07220	0.22769
0.09770	-0.05289
0.27621	-0.30797
0.19971	-0.05289
0.19971	0.10015
0.27621	-0.00188
0.12320	-0.00188
-0.05531	0.25320
0.14870	0.20219
0.12320	0.10015
0.19971	-0.18043
0.14870	-0.05289
0.09770	0.20219
0.07220	0.58480
0.14870	-0.02739
0.12320	0.45726
0.07220	0.53379
0.19971	0.71234
0.30171	-1.07320
0.27621	-0.35899
0.12320	-0.25695
0.12320	0.55929
0.19971	0.83988
0.07220	0.63582
0.12320	-0.00188
0.22521	0.38074
0.12320	0.35523
0.02119	-0.20594
0.42922	0.04914
0.27621	0.10015
0.09770	-0.25695
0.04670	-0.28246
-0.05531	0.04914
0.19971	0.20219
-0.00431	0.20219
0.19971	0.32972
0.19971	-0.02739
0.19971	0.66132
-0.02981	0.07465
0.19971	-0.69059
0.17421	0.40625
0.27621	0.10015
0.09770	0.20219
0.07220	0.68683
0.35272	0.89089
0.22521	-0.51203
0.19971	-0.00188
0.19971	0.58480
0.14870	-0.66508
-0.13181	0.20219
0.02119	-0.46102
0.02119	0.89089
0.02119	1.17148
0.30171	-0.12942
0.30171	0.02363
0.19971	0.10015
0.09770	0.17668
0.09770	0.58480
0.22521	0.32972
0.32721	0.17668
0.09770	-1.09871
0.12320	-0.61406
0.19971	0.22769
0.22521	0.45726
0.27621	0.58480
-0.13181	0.48277
-0.05531	0.27871
0.17421	0.22769
0.22521	-0.18043
0.32721	0.20219
0.25071	-0.20594
0.22521	0.35523
0.07220	0.22769
0.17421	0.10015
0.19971	-0.15492
0.09770	0.22769
0.22521	0.27871
0.02119	0.45726
0.09770	-0.02739
0.14870	0.15117
0.02119	0.22769
0.32721	0.40625
0.32721	0.40625
0.02119	0.55929
0.14870	0.12566
0.27621	0.15117
0.27621	-0.79262
0.14870	0.17668
0.02119	0.17668
0.17421	0.43176
0.12320	-1.22625
-0.02981	0.68683
0.07220	0.76336
0.12320	0.48277
0.22521	0.38074
0.30171	0.48277
0.09770	0.20219
0.55673	0.10015
0.17421	-0.00188
-0.25932	-0.43551
-0.28482	-0.15492
0.42922	0.17668
0.25071	0.30422
0.32721	0.71234
0.12320	0.02363
0.07220	-0.35899
0.14870	0.53379
0.22521	0.63582
0.22521	0.10015
0.04670	-0.28246
0.19971	0.38074
-0.10631	1.37554
0.14870	-0.38449
0.19971	-0.28246
0.14870	0.02363
0.09770	-1.02219
0.14870	0.02363
0.09770	0.99292
0.12320	0.63582
0.19971	0.38074
0.37822	-0.23145
0.09770	0.61031
0.07220	0.76336
0.14870	-0.35899
0.25071	-0.94566
0.04670	-0.10391
0.12320	0.07465
0.22521	0.43176
0.02119	0.27871
0.48022	0.58480
0.27621	0.50828
0.12320	0.20219
-0.08081	0.32972
-0.28482	-0.35899
-0.00431	0.04914
0.25071	0.20219
0.30171	0.17668
0.30171	0.07465
0.19971	0.04914
0.19971	0.43176
0.17421	-0.00188
-0.00431	0.53379
0.19971	-1.02219
0.04670	-0.81812
0.22521	-1.50683
0.17421	1.24800
0.07220	1.80917
-0.02981	1.35003
0.22521	0.45726
0.17421	-0.94566
0.09770	0.27871
0.30171	0.48277
0.25071	0.15117
0.07220	0.45726
0.07220	0.30422
0.25071	-0.48652
0.04670	-0.33348
0.17421	0.20219
0.32721	0.04914
0.17421	0.81437
0.07220	-1.12422
0.07220	-1.68539
