0.14870	0.25320
0.07220	0.32972
0.22521	0.10015
0.14870	0.04914
0.12320	0.27871
0.22521	0.22769
0.12320	0.15117
0.14870	0.07465
0.22521	-0.05289
0.02119	0.25320
0.17421	0.27871
0.27621	0.25320
0.19971	0.04914
0.12320	0.30422
0.17421	0.32972
0.09770	0.17668
0.12320	0.15117
0.17421	0.07465
0.02119	-0.00188
0.14870	0.12566
0.14870	-0.05289
-0.18282	0.17668
0.68424	0.32972
0.76074	-0.18043
0.12320	0.22769
-0.23382	0.38074
-0.08081	-0.12942
0.07220	0.43176
0.02119	0.10015
0.02119	0.15117
0.12320	0.04914
0.22521	0.38074
0.27621	0.22769
0.19971	0.12566
0.12320	0.02363
0.07220	0.12566
0.12320	0.32972
0.12320	-0.33348
0.09770	0.10015
0.07220	0.12566
0.19971	0.27871
0.25071	0.15117
0.07220	0.15117
-0.00431	0.10015
0.02119	0.35523
0.14870	0.32972
0.19971	0.04914
0.35272	0.04914
0.40372	0.02363
-0.46334	0.15117
-0.18282	0.04914
0.53123	0.20219
0.40372	0.43176
-0.08081	0.30422
0.27621	-0.12942
0.22521	0.38074
0.30171	0.40625
0.07220	0.27871
0.02119	0.17668
-0.02981	0.02363
-0.02981	-0.05289
0.14870	-0.12942
0.12320	-0.00188
0.12320	0.10015
0.25071	0.22769
0.19971	0.17668
-0.05531	0.22769
0.27621	0.22769
0.42922	0.17668
0.12320	0.07465
0.07220	0.17668
0.19971	-0.00188
0.12320	0.07465
-0.08081	0.15117
0.07220	0.35523
0.48022	0.22769
0.30171	0.27871
0.04670	0.27871
0.07220	0.12566
-0.00431	-0.02739
0.09770	0.17668
0.17421	0.10015
0.02119	0.04914
0.25071	0.22769
0.19971	0.20219
0.22521	0.12566
-0.05531	0.10015
0.83725	0.25320
-0.18282	0.15117
-0.64185	0.04914
-0.13181	0.22769
0.40372	-0.25695
0.35272	-0.20594
0.25071	0.63582
0.30171	-0.15492
0.30171	-0.02739
0.02119	0.43176
0.07220	0.35523
0.02119	0.35523
-0.05531	0.30422
0.09770	0.25320
0.22521	0.12566
0.17421	-0.02739
0.22521	0.17668
0.12320	0.10015
0.07220	0.04914
0.12320	0.22769
0.12320	0.07465
0.19971	0.04914
0.27621	0.02363
0.17421	0.07465
0.07220	0.25320
0.22521	0.17668
-0.02981	0.22769
-0.13181	0.25320
1.14327	0.15117
0.32721	0.17668
-0.08081	0.25320
-0.13181	0.04914
0.09770	0.20219
0.12320	0.04914
0.12320	0.17668
0.09770	0.22769
0.02119	0.04914
0.12320	0.22769
0.25071	0.17668
0.14870	0.15117
0.07220	0.27871
0.14870	0.12566
0.27621	-0.05289
0.27621	0.15117
0.09770	0.12566
0.12320	-0.02739
0.22521	0.17668
0.12320	0.25320
0.07220	0.20219
0.04670	0.40625
0.14870	-0.12942
0.19971	0.17668
0.45472	0.30422
-0.02981	-0.15492
-0.51434	-0.12942
0.37822	0.20219
0.12320	0.38074
0.32721	0.38074
0.40372	-0.10391
0.81175	0.45726
-0.33583	0.43176
-0.69285	0.22769
0.58223	0.12566
0.37822	0.04914
0.04670	0.02363
0.17421	0.10015
-0.23382	0.10015
0.68424	0.15117
0.27621	0.02363
0.12320	0.17668
-0.10631	-0.00188
0.04670	0.07465
0.25071	0.15117
0.48022	0.17668
-0.15732	0.30422
-0.69285	0.12566
0.48022	0.22769
0.40372	0.25320
0.37822	0.27871
0.37822	0.35523
0.25071	0.20219
0.02119	-0.25695
0.53123	-0.33348
0.19971	0.10015
0.02119	0.10015
0.07220	0.22769
0.40372	0.43176
-0.28482	0.48277
-0.92237	0.35523
0.58223	0.20219
0.63323	0.15117
0.14870	-0.07840
0.32721	-0.12942
0.37822	-0.05289
-0.25932	-0.28246
-0.36133	0.30422
0.40372	0.30422
0.30171	0.25320
0.25071	0.27871
0.27621	0.12566
0.04670	0.04914
0.07220	0.20219
0.14870	0.10015
0.25071	0.02363
0.19971	0.15117
0.09770	0.20219
0.09770	0.35523
0.07220	0.04914
0.07220	-0.07840
0.32721	0.15117
0.19971	0.15117
0.14870	0.35523
0.40372	0.45726
0.12320	0.07465
0.02119	0.07465
0.14870	0.38074
0.14870	0.22769
0.14870	-0.10391
0.27621	0.32972
0.09770	0.35523
0.17421	-0.30797
-0.08081	0.02363
0.32721	-0.02739
0.48022	-0.02739
0.04670	-0.12942
0.02119	0.48277
-0.08081	0.53379
0.02119	0.35523
0.35272	0.38074
0.07220	0.22769
0.42922	-0.05289
0.32721	0.15117
-0.13181	-0.05289
-0.00431	0.07465
0.12320	0.25320
0.02119	0.17668
0.09770	0.04914
0.22521	0.22769
0.22521	0.20219
0.19971	0.07465
0.25071	0.25320
0.22521	0.25320
0.04670	-0.18043
0.07220	0.17668
0.09770	0.27871
0.07220	0.25320
0.19971	0.12566
0.09770	-0.18043
0.14870	0.20219
0.22521	0.71234
0.09770	-0.07840
0.22521	-0.02739
0.09770	-0.12942
0.12320	-0.25695
0.12320	0.27871
0.09770	0.32972
0.17421	0.71234
0.14870	0.40625
0.07220	0.30422
0.12320	0.20219
0.22521	-0.10391
0.09770	0.04914
-0.10631	0.10015
0.45472	-0.02739
0.35272	-0.00188
0.25071	0.10015
-0.00431	0.15117
0.07220	0.25320
-0.00431	0.22769
0.14870	0.04914
0.14870	0.15117
0.12320	0.25320
0.14870	0.17668
0.22521	-0.23145
0.17421	0.20219
0.07220	0.35523
0.22521	0.32972
0.19971	-0.02739
0.48022	0.38074
-0.48884	0.30422
-0.41233	0.25320
0.40372	0.12566
0.27621	-0.23145
0.22521	-0.05289
0.25071	-0.15492
0.22521	-0.05289
0.07220	0.61031
0.02119	0.25320
0.27621	0.35523
0.12320	0.43176
0.09770	0.22769
0.07220	0.10015
0.19971	-0.07840
0.12320	-0.25695
0.07220	0.22769
-0.05531	0.30422
0.37822	0.12566
0.37822	0.22769
0.04670	0.25320
0.09770	0.38074
0.07220	-0.53754
0.04670	-0.35899
0.19971	0.48277
0.17421	0.20219
0.12320	-0.00188
0.22521	0.35523
0.14870	0.40625
0.17421	0.40625
0.17421	0.40625
0.17421	-0.23145
0.12320	0.30422
0.12320	-0.25695
0.17421	0.32972
0.14870	0.17668
0.12320	0.12566
0.19971	0.07465
-0.13181	0.15117
0.35272	0.17668
0.32721	0.27871
0.07220	0.25320
0.07220	0.10015
0.17421	-0.00188
0.12320	-0.25695
0.07220	0.17668
0.17421	0.35523
0.14870	0.45726
0.07220	0.43176
0.22521	-0.48652
0.14870	0.15117
0.14870	-0.05289
0.12320	0.43176
0.07220	0.32972
0.22521	0.07465
0.07220	0.22769
0.14870	-0.35899
0.17421	0.38074
0.22521	0.50828
0.09770	0.30422
0.04670	0.15117
0.02119	0.15117
0.22521	0.10015
0.30171	0.02363
0.17421	-0.05289
0.04670	0.02363
0.09770	0.04914
0.12320	0.17668
0.12320	0.17668
0.17421	0.17668
0.07220	0.15117
0.14870	0.15117
0.25071	0.22769
0.14870	0.15117
0.17421	0.12566
0.22521	0.20219
0.12320	0.27871
-0.08081	0.40625
0.32721	0.12566
0.32721	-0.05289
-0.05531	0.04914
-0.08081	0.02363
0.07220	0.43176
0.17421	0.32972
0.22521	0.17668
0.17421	0.22769
0.17421	0.25320
0.12320	-0.74160
0.07220	0.04914
0.12320	0.40625
0.14870	0.30422
0.07220	0.22769
0.25071	0.25320
0.22521	0.17668
0.12320	-0.00188
0.12320	0.07465
0.12320	0.30422
0.22521	0.25320
0.09770	0.15117
0.09770	0.04914
0.14870	-0.76711
0.25071	0.17668
0.14870	0.45726
0.14870	0.53379
0.09770	-0.07840
0.14870	0.35523
0.19971	0.27871
0.12320	0.32972
0.07220	0.25320
0.14870	-0.30797
0.17421	-0.61406
0.12320	0.45726
0.14870	0.53379
0.22521	0.48277
0.19971	0.22769
0.12320	0.04914
-0.08081	0.15117
0.48022	0.02363
0.19971	0.07465
0.17421	0.15117
0.07220	0.20219
-0.13181	0.10015
0.17421	0.15117
0.32721	0.15117
0.19971	0.10015
0.12320	0.07465
0.12320	0.17668
0.12320	0.20219
0.17421	0.17668
0.22521	0.25320
0.12320	0.25320
0.04670	0.02363
0.30171	-0.15492
0.14870	0.22769
0.09770	0.20219
0.17421	0.38074
0.07220	0.20219
0.14870	0.15117
0.22521	0.38074
0.14870	-0.00188
0.12320	-0.66508
0.14870	-0.56305
0.19971	0.58480
0.12320	0.61031
0.14870	0.35523
0.22521	0.32972
0.12320	0.17668
0.09770	-0.25695
0.17421	0.12566
0.22521	0.22769
0.19971	0.04914
0.04670	0.12566
0.14870	0.12566
0.22521	0.17668
0.14870	0.10015
0.07220	0.15117
0.09770	0.27871
0.25071	0.20219
0.12320	0.20219
0.09770	0.22769
0.17421	0.15117
0.17421	0.04914
0.14870	-0.07840
0.17421	0.15117
0.14870	0.20219
0.19971	0.22769
0.22521	0.15117
-0.02981	0.17668
0.40372	0.35523
0.32721	0.43176
0.09770	-0.12942
0.04670	-0.15492
-0.00431	-0.25695
0.19971	0.45726
0.22521	0.55929
0.12320	-0.15492
0.12320	0.25320
0.17421	0.43176
0.19971	0.17668
0.12320	0.20219
0.12320	0.30422
0.09770	0.30422
0.14870	-0.41000
0.09770	0.04914
0.12320	0.25320
0.19971	0.15117
0.19971	0.22769
0.25071	0.15117
0.12320	0.15117
0.07220	0.27871
0.12320	0.17668
0.12320	0.04914
0.07220	-0.12942
0.25071	0.35523
0.14870	0.27871
0.09770	0.20219
0.12320	0.27871
0.19971	0.38074
0.14870	-0.20594
0.07220	0.12566
0.17421	0.25320
0.17421	0.20219
0.07220	0.02363
0.14870	0.27871
0.14870	0.15117
0.09770	0.17668
0.22521	-0.00188
0.14870	-0.15492
0.17421	0.04914
0.22521	-0.00188
0.07220	0.48277
0.12320	0.45726
-0.18282	0.30422
0.27621	0.12566
0.45472	0.20219
0.12320	0.20219
-0.10631	-0.33348
0.07220	0.17668
0.09770	0.27871
0.07220	-0.12942
0.17421	0.35523
0.17421	0.30422
0.12320	0.61031
0.27621	-0.05289
0.17421	0.10015
0.14870	-0.23145
0.19971	-0.35899
0.09770	0.40625
0.12320	-0.00188
0.14870	0.45726
0.12320	0.40625
0.17421	0.40625
0.09770	0.22769
0.14870	0.10015
0.22521	0.15117
0.07220	-0.07840
0.12320	0.20219
0.17421	0.17668
0.04670	0.15117
0.19971	0.04914
0.12320	-0.05289
0.22521	0.04914
0.14870	0.15117
0.12320	0.15117
0.22521	0.38074
0.09770	0.20219
0.12320	0.27871
0.22521	-0.23145
0.09770	0.38074
0.12320	0.35523
0.22521	0.38074
0.12320	0.12566
0.12320	0.27871
0.22521	-0.28246
-0.10631	0.02363
0.27621	0.15117
0.35272	0.15117
0.19971	0.07465
0.12320	0.35523
-0.02981	0.35523
0.04670	0.04914
0.12320	-0.10391
0.07220	-0.28246
0.14870	0.30422
0.12320	-0.00188
0.14870	0.43176
0.30171	0.35523
0.27621	0.20219
0.12320	0.25320
0.09770	0.25320
-0.00431	0.10015
-0.00431	0.15117
0.22521	-0.00188
0.17421	-0.02739
0.17421	-0.18043
0.25071	0.25320
0.12320	0.48277
0.09770	-0.46102
0.14870	0.55929
0.09770	0.40625
0.25071	0.45726
0.14870	0.25320
0.07220	0.07465
0.17421	0.12566
0.17421	-0.05289
0.17421	0.02363
0.25071	0.22769
0.09770	-0.05289
0.12320	0.17668
0.12320	-0.02739
0.02119	0.22769
0.14870	0.25320
0.14870	-0.07840
0.07220	0.30422
0.17421	0.38074
0.14870	0.17668
0.09770	0.32972
0.19971	0.25320
0.14870	0.15117
0.17421	0.15117
0.12320	0.38074
0.09770	0.04914
0.14870	0.15117
0.22521	0.10015
0.07220	-0.61406
0.14870	0.15117
0.22521	0.25320
0.09770	0.48277
0.19971	0.50828
0.12320	0.32972
-0.02981	0.10015
0.32721	0.32972
0.22521	0.17668
0.30171	-0.48652
0.02119	0.22769
0.09770	0.07465
0.12320	0.20219
0.14870	0.17668
0.22521	0.61031
0.07220	0.58480
0.22521	-0.20594
0.17421	-0.53754
0.07220	-0.30797
0.12320	0.48277
0.27621	0.38074
0.17421	0.35523
0.17421	0.20219
0.09770	0.12566
0.02119	-0.00188
0.19971	0.17668
0.17421	0.30422
0.22521	0.32972
0.09770	0.30422
0.07220	0.25320
0.14870	-0.23145
0.19971	-0.07840
0.12320	0.10015
0.17421	0.40625
0.09770	0.07465
0.22521	0.43176
0.12320	0.25320
0.12320	0.17668
0.22521	0.20219
0.09770	-0.07840
0.17421	0.15117
-0.02981	0.02363
0.19971	0.20219
0.17421	0.30422
0.09770	0.38074
0.14870	-0.00188
0.14870	0.10015
0.17421	0.15117
0.12320	0.45726
-0.15732	-0.28246
0.42922	0.25320
0.30171	0.07465
0.07220	0.25320
-0.00431	0.25320
0.02119	0.25320
0.02119	0.22769
0.09770	0.15117
0.30171	0.17668
0.37822	-0.05289
0.09770	0.12566
0.02119	0.20219
0.17421	0.25320
0.09770	0.10015
0.09770	0.22769
0.19971	-0.30797
0.22521	0.30422
0.12320	0.20219
0.07220	-0.00188
0.19971	-0.18043
0.27621	0.63582
0.14870	0.25320
0.07220	0.27871
0.12320	-0.07840
0.22521	-0.41000
0.12320	0.30422
0.09770	0.25320
0.14870	0.40625
0.22521	0.66132
0.07220	0.02363
0.14870	0.04914
0.14870	0.17668
0.07220	-0.28246
0.19971	-0.10391
0.22521	0.27871
0.14870	0.35523
0.09770	0.20219
0.14870	-0.05289
0.22521	0.32972
0.02119	0.15117
0.14870	0.12566
-0.00431	0.15117
0.12320	0.04914
0.19971	0.20219
-0.18282	0.15117
0.37822	0.12566
0.25071	0.12566
0.12320	0.15117
-0.02981	0.32972
0.09770	0.50828
0.12320	-0.74160
0.09770	0.25320
0.25071	0.55929
-0.10631	0.40625
0.09770	0.61031
0.32721	0.12566
0.12320	-0.89465
0.17421	-1.32828
0.14870	-0.18043
0.12320	1.17148
0.27621	1.09496
0.09770	0.35523
0.12320	0.30422
0.09770	0.63582
0.07220	0.45726
0.22521	-0.66508
0.27621	0.25320
0.17421	-0.20594
-0.00431	0.15117
0.02119	0.40625
0.32721	0.12566
0.25071	-0.66508
0.14870	-0.74160
-0.00431	-0.56305
-0.00431	0.22769
0.35272	-0.74160
0.22521	0.81437
-0.02981	0.81437
0.22521	1.50308
0.37822	0.38074
0.42922	1.12046
-0.13181	1.57960
-0.05531	-0.12942
-0.05531	0.38074
-0.18282	-3.90456
0.32721	0.50828
0.53123	-1.83844
0.17421	-0.99668
0.09770	1.24800
0.93925	0.12566
1.04126	0.68683
-0.08081	1.17148
-0.64185	1.09496
-0.31033	0.35523
0.40372	0.61031
0.17421	-0.63957
0.22521	-0.30797
-0.74385	-0.46102
-0.74385	0.20219
0.45472	0.61031
1.50029	-0.41000
1.93382	0.38074
-0.28482	0.68683
-0.36133	1.37554
0.02119	0.66132
0.12320	0.81437
0.32721	-3.36890
-0.41233	-3.24136
-0.18282	0.86539
0.27621	1.37554
0.35272	1.83468
0.14870	0.38074
0.17421	0.40625
0.04670	1.14597
0.35272	1.06945
0.32721	1.80917
0.12320	-1.99148
-0.69285	-3.52195
1.83181	1.04394
-0.41233	-0.35899
-0.53984	1.32453
-0.08081	0.63582
-0.18282	-0.02739
0.78624	-1.14973
0.63323	0.45726
0.19971	0.02363
-0.84586	-1.02219
0.78624	2.37034
0.42922	0.27871
-0.25932	0.78886
0.14870	1.19699
0.45472	-2.83324
-0.05531	0.76336
-0.13181	-0.86914
0.17421	0.63582
0.12320	0.17668
0.02119	0.78886
0.40372	-0.74160
0.40372	0.53379
-0.66735	0.25320
0.02119	-0.76711
0.93925	0.61031
0.63323	0.76336
-0.15732	-1.27726
-0.13181	1.65613
-0.13181	-2.06800
0.58223	-0.10391
-0.23382	0.99292
0.32721	1.27351
0.17421	1.42656
0.76074	1.22250
-0.59084	-2.34859
0.32721	1.29902
0.19971	1.78367
-0.25932	-0.30797
0.09770	0.83988
0.04670	-1.32828
0.14870	-4.23616
0.83725	0.58480
-0.31033	0.66132
1.52579	1.65613
-1.43240	1.45206
-0.89686	0.96742
-0.28482	1.14597
0.76074	-0.07840
0.42922	-0.41000
0.40372	-2.90976
0.37822	1.12046
0.55673	0.66132
0.42922	0.12566
-0.02981	0.15117
0.17421	-0.30797
-0.66735	1.09496
-0.43783	0.45726
0.58223	-0.18043
0.32721	-0.25695
-0.23382	-0.58856
0.60773	0.61031
0.58223	0.02363
0.55673	0.66132
-0.05531	0.45726
0.02119	1.63062
0.35272	-0.18043
-0.61635	-3.21585
-0.89686	0.78886
0.73524	0.38074
1.01576	1.68163
0.42922	-0.38449
-0.28482	-0.05289
0.35272	-0.10391
0.32721	1.12046
-0.02981	0.68683
-0.28482	-0.05289
0.40372	-0.56305
0.63323	0.58480
-0.18282	0.71234
0.93925	0.30422
-0.87136	0.02363
0.48022	-0.38449
-0.00431	-0.71609
0.30171	0.30422
0.35272	1.22250
0.25071	-2.19554
0.02119	-0.12942
0.19971	1.09496
0.42922	-0.15492
0.19971	1.57960
-0.02981	0.55929
0.14870	0.68683
0.07220	0.96742
0.02119	0.50828
0.25071	-0.07840
0.25071	0.43176
0.22521	-0.05289
0.48022	-1.91496
-0.59084	0.61031
-0.74385	0.53379
0.45472	-0.46102
0.55673	-0.20594
0.70974	0.68683
0.37822	0.27871
-0.61635	0.25320
0.96476	0.35523
-0.10631	-0.12942
0.30171	-0.69059
0.40372	1.01843
0.04670	0.68683
-0.31033	1.09496
0.02119	1.09496
-0.18282	0.04914
-1.04987	-0.97117
1.93382	-1.96597
-0.66735	0.53379
0.48022	0.45726
0.32721	0.96742
0.07220	1.57960
0.07220	1.14597
0.53123	0.66132
-0.15732	-0.18043
-0.69285	0.43176
0.35272	0.07465
0.50573	-1.02219
0.53123	-0.25695
0.37822	-2.60367
0.40372	0.78886
0.27621	0.99292
-0.05531	1.32453
0.12320	0.89089
-0.00431	0.40625
0.19971	-1.48133
0.25071	0.43176
-0.28482	-1.02219
0.04670	-1.17523
-1.22839	1.37554
0.48022	-0.23145
0.93925	0.68683
0.48022	0.96742
0.25071	0.30422
0.27621	0.35523
0.35272	-0.20594
-0.33583	0.25320
0.14870	0.50828
-0.33583	-0.15492
0.68424	-0.20594
0.12320	0.38074
-1.22839	-0.76711
0.70974	0.22769
1.32178	-0.38449
0.12320	-0.05289
-0.13181	1.24800
0.07220	1.47757
0.30171	-1.22625
-0.02981	-1.27726
-0.02981	1.09496
0.14870	1.14597
0.17421	0.76336
0.19971	-0.23145
0.27621	0.25320
0.09770	-0.23145
0.14870	0.38074
-0.02981	1.01843
0.30171	-1.65988
0.40372	0.38074
1.19427	0.71234
0.32721	1.50308
-0.94787	-0.97117
-0.28482	-0.56305
-0.05531	0.99292
0.37822	0.96742
1.34728	-0.92016
-0.48884	-0.92016
-1.27939	0.61031
0.30171	-0.00188
1.01576	0.17668
0.70974	0.66132
0.12320	0.17668
0.14870	-0.00188
0.09770	0.22769
0.25071	-0.00188
-0.08081	0.12566
0.09770	-0.00188
-0.02981	0.38074
-0.08081	-0.20594
0.60773	0.63582
0.19971	0.27871
0.02119	0.25320
0.12320	-0.30797
-0.00431	-0.71609
0.25071	0.02363
0.30171	0.55929
-0.00431	0.99292
-0.05531	0.50828
0.32721	-0.46102
0.37822	0.78886
0.09770	0.83988
0.25071	1.27351
0.27621	-2.06800
0.02119	-1.63437
0.12320	0.76336
0.09770	0.73785
0.12320	1.50308
0.27621	1.04394
0.02119	1.17148
0.25071	-0.53754
0.19971	-1.50683
-0.02981	0.91640
0.22521	0.83988
0.12320	0.55929
-0.13181	-1.81293
0.27621	-0.33348
0.14870	0.50828
0.78624	0.10015
0.32721	1.09496
-1.15188	0.86539
0.02119	0.55929
1.06676	-0.84363
0.19971	0.07465
-0.05531	-1.12422
0.55673	0.86539
-0.69285	-1.32828
1.55129	0.35523
-1.10088	0.35523
-0.23382	0.35523
0.09770	0.55929
0.32721	0.17668
0.37822	0.22769
-0.48884	0.20219
0.96476	0.76336
0.53123	-0.02739
-0.18282	0.15117
-0.15732	-0.51203
0.07220	-0.05289
0.17421	0.76336
-0.36133	-1.32828
0.76074	0.07465
0.37822	-0.20594
-0.13181	0.91640
-0.08081	-0.33348
0.40372	1.06945
0.35272	1.68163
-0.02981	1.57960
0.07220	0.22769
0.07220	0.73785
0.14870	-0.20594
0.12320	-0.43551
0.09770	-1.30277
0.14870	0.66132
0.25071	-1.45582
0.04670	0.48277
0.12320	0.25320
0.40372	0.35523
0.17421	0.17668
0.02119	0.22769
-0.08081	0.78886
0.02119	-1.73640
0.50573	-0.99668
0.25071	1.35003
0.07220	0.30422
-0.08081	0.38074
0.40372	0.91640
0.48022	1.12046
-0.10631	1.32453
-0.31033	0.53379
0.37822	-0.84363
0.19971	-0.63957
0.14870	-0.25695
-0.13181	0.32972
0.78624	0.53379
0.14870	-0.43551
-0.48884	0.12566
0.17421	-0.10391
0.17421	0.17668
0.30171	-0.63957
0.19971	0.45726
-0.00431	-0.76711
0.30171	-0.20594
-0.43783	0.81437
0.70974	0.55929
0.27621	0.38074
0.09770	-0.15492
0.04670	0.10015
0.32721	1.06945
0.27621	-0.12942
-0.23382	0.25320
0.04670	0.58480
-0.00431	0.45726
-0.15732	-1.17523
0.42922	0.50828
0.22521	0.07465
0.12320	0.73785
0.22521	-0.12942
0.19971	-0.48652
0.14870	-0.53754
0.40372	-0.66508
0.02119	0.81437
-0.00431	0.96742
-0.00431	0.73785
0.32721	0.76336
0.32721	-0.46102
-0.02981	0.55929
-0.05531	0.73785
0.35272	-1.63437
0.17421	-0.23145
0.02119	0.43176
0.14870	-0.56305
-0.02981	0.71234
0.48022	-0.12942
0.50573	1.12046
-0.13181	0.48277
-0.18282	0.32972
0.09770	0.45726
0.35272	0.32972
0.30171	0.15117
0.32721	-0.25695
0.17421	-0.61406
0.07220	-0.23145
-0.13181	0.12566
-0.10631	0.55929
0.22521	0.50828
0.27621	0.71234
0.19971	0.32972
0.25071	-0.02739
0.32721	-0.89465
-0.05531	-0.79262
0.14870	0.58480
0.22521	0.61031
-0.08081	0.10015
-0.15732	0.89089
0.14870	0.86539
0.19971	0.55929
0.30171	-1.68539
-0.02981	-0.81812
0.25071	-0.53754
0.27621	-1.43031
0.14870	1.78367
0.14870	1.78367
0.48022	0.58480
0.30171	1.29902
-0.18282	0.91640
-0.84586	-0.58856
-0.15732	0.15117
-0.05531	-0.15492
1.60230	-0.35899
0.76074	-0.56305
-0.08081	-0.20594
-0.18282	0.32972
-0.05531	0.96742
-0.10631	-0.10391
0.22521	0.17668
0.25071	-1.81293
0.09770	0.22769
-0.53984	0.78886
0.88825	0.71234
0.14870	0.43176
-0.00431	0.91640
0.14870	-0.30797
0.19971	0.04914
0.02119	0.76336
-0.00431	0.50828
0.14870	-0.28246
0.04670	-0.10391
0.32721	0.32972
0.30171	0.25320
0.04670	0.61031
-0.00431	0.43176
0.19971	-0.84363
0.22521	-0.15492
0.17421	-1.68539
0.19971	1.57960
0.12320	0.63582
0.35272	0.66132
-0.15732	-0.66508
0.25071	-0.18043
0.12320	-0.25695
0.07220	1.09496
-0.53984	-0.15492
0.60773	0.66132
0.37822	-0.23145
0.48022	0.25320
-0.08081	-0.05289
-0.10631	0.25320
0.22521	0.66132
0.12320	0.25320
0.12320	-0.35899
-0.02981	-0.63957
0.32721	0.86539
0.19971	0.45726
0.14870	-0.86914
0.60773	-0.38449
0.45472	0.48277
-0.56534	0.35523
-0.51434	0.32972
0.50573	0.15117
0.42922	-0.18043
0.40372	0.20219
0.25071	0.83988
0.09770	-1.07320
0.30171	0.66132
0.22521	0.38074
0.04670	0.15117
-0.10631	0.40625
-0.00431	0.71234
0.12320	0.55929
0.04670	-0.28246
0.30171	-0.94566
-0.00431	0.02363
0.48022	0.25320
0.30171	0.40625
-0.05531	0.50828
-0.28482	-0.38449
0.07220	-0.00188
0.19971	-0.35899
0.45472	0.99292
-0.05531	0.61031
0.19971	0.07465
0.25071	0.55929
0.19971	-0.15492
0.22521	-0.15492
0.22521	-0.30797
0.04670	-0.97117
0.12320	0.32972
0.09770	0.86539
0.12320	-0.33348
0.12320	0.55929
0.17421	0.68683
0.14870	0.27871
-0.10631	-1.22625
0.53123	0.76336
-0.56534	0.32972
0.63323	0.25320
0.09770	0.32972
-0.02981	0.50828
0.22521	-0.99668
0.22521	0.32972
0.07220	-0.15492
0.19971	-0.20594
0.04670	0.78886
-0.08081	0.35523
0.45472	0.20219
-0.05531	1.06945
-0.13181	-1.81293
0.19971	-0.05289
0.32721	0.48277
0.02119	0.53379
0.14870	0.43176
0.53123	-0.81812
0.32721	0.50828
-0.38683	0.15117
0.14870	0.35523
0.53123	0.48277
0.27621	0.12566
0.04670	-0.10391
0.17421	0.35523
0.12320	-0.56305
0.02119	0.81437
0.07220	-1.07320
0.04670	-0.20594
0.22521	-0.63957
0.25071	0.96742
-0.08081	1.06945
0.37822	0.45726
0.30171	-0.12942
-0.05531	0.10015
-0.13181	0.48277
0.45472	0.30422
0.53123	0.17668
0.04670	-0.51203
0.07220	-0.18043
0.12320	0.35523
0.12320	-0.81812
0.19971	-0.58856
-0.13181	0.17668
0.12320	0.71234
0.07220	0.38074
0.19971	-0.25695
0.19971	-0.18043
0.42922	0.12566
0.27621	0.22769
0.14870	0.25320
-0.08081	1.29902
-0.00431	0.81437
0.12320	0.66132
0.14870	-0.02739
0.19971	0.20219
0.12320	0.32972
0.19971	-1.30277
0.14870	0.22769
0.07220	-0.12942
-0.00431	0.43176
0.30171	1.04394
0.30171	-0.00188
0.12320	0.22769
-0.00431	-1.71090
0.07220	-0.48652
0.19971	0.40625
0.27621	0.53379
0.19971	1.32453
0.14870	-1.68539
0.14870	0.53379
-0.00431	0.63582
0.30171	0.71234
0.17421	-0.25695
-0.61635	0.71234
0.83725	0.71234
0.22521	-0.05289
0.22521	-0.69059
0.17421	0.25320
-0.15732	0.43176
0.02119	0.12566
0.02119	0.66132
-0.08081	0.17668
0.04670	-0.00188
1.29628	-0.84363
0.09770	0.43176
-0.36133	0.55929
-0.02981	-0.35899
0.22521	-0.25695
0.07220	0.68683
0.14870	0.20219
-0.08081	0.02363
0.22521	0.73785
0.12320	-0.25695
0.42922	0.61031
0.07220	-0.15492
-0.25932	0.83988
0.32721	0.55929
0.02119	0.35523
0.22521	0.22769
0.25071	-2.34859
0.09770	0.63582
0.27621	1.32453
0.12320	-0.53754
-0.08081	0.66132
0.37822	1.27351
0.14870	-0.41000
-0.23382	-0.28246
0.14870	0.15117
0.35272	0.55929
0.12320	-0.25695
0.09770	0.55929
0.04670	0.43176
0.27621	0.30422
0.19971	-1.91496
0.09770	0.38074
0.22521	-0.25695
0.12320	0.94191
0.14870	0.81437
0.32721	0.55929
0.04670	-0.00188
0.09770	-0.38449
0.27621	-0.12942
0.02119	0.17668
0.14870	0.66132
0.04670	0.43176
0.19971	0.45726
0.25071	0.35523
0.27621	0.45726
-0.13181	-0.84363
0.12320	-0.00188
0.40372	-0.15492
0.07220	0.22769
-0.05531	0.30422
0.27621	0.35523
0.30171	0.58480
0.19971	-0.15492
0.02119	-0.10391
0.04670	0.22769
0.45472	0.15117
0.42922	0.63582
-0.28482	-0.81812
0.12320	1.35003
0.14870	-1.81293
0.09770	0.30422
0.02119	-0.86914
-0.00431	-0.43551
0.32721	1.01843
0.25071	-0.33348
0.22521	1.88570
0.17421	0.89089
0.14870	0.94191
-0.00431	0.30422
0.19971	-0.30797
0.22521	-0.15492
0.22521	0.20219
0.09770	-0.18043
0.07220	0.27871
0.07220	0.35523
0.14870	-0.00188
0.02119	-0.15492
-0.20832	0.02363
0.37822	0.07465
0.53123	0.35523
0.30171	-0.66508
0.04670	0.10015
0.04670	0.45726
-0.08081	0.61031
-0.15732	-0.51203
0.07220	0.50828
0.19971	0.81437
0.53123	-0.48652
0.12320	0.63582
0.04670	-0.61406
0.07220	-0.48652
0.37822	-0.25695
0.19971	1.27351
-0.13181	1.32453
0.14870	0.83988
0.17421	-0.25695
0.19971	-0.48652
0.07220	0.30422
-0.05531	0.81437
0.70974	-0.51203
0.25071	-0.23145
-0.13181	-0.28246
0.09770	1.06945
-0.00431	-0.94566
0.19971	0.30422
0.12320	0.53379
0.07220	-0.81812
0.30171	0.71234
0.35272	0.22769
0.12320	0.25320
-0.02981	-0.43551
0.02119	-0.05289
0.25071	0.78886
0.25071	-0.02739
0.27621	-0.46102
0.27621	-0.02739
0.12320	0.73785
0.12320	0.89089
0.07220	0.73785
0.17421	0.89089
0.07220	-0.30797
0.12320	-0.53754
-0.08081	-1.09871
0.32721	-0.12942
0.32721	0.50828
0.07220	0.32972
0.07220	0.76336
0.12320	0.02363
0.27621	-0.66508
0.12320	0.07465
-0.08081	0.53379
0.07220	0.30422
0.12320	0.22769
0.02119	0.73785
0.50573	-0.43551
0.09770	0.38074
0.12320	-0.05289
0.17421	0.22769
0.07220	0.53379
0.19971	-0.15492
0.12320	-0.35899
0.12320	-0.10391
0.14870	1.19699
0.07220	0.83988
0.19971	-0.71609
0.12320	-0.76711
0.40372	0.96742
0.25071	1.06945
-0.15732	-0.10391
-0.08081	0.30422
0.27621	0.10015
0.17421	-0.35899
0.04670	0.30422
0.17421	0.30422
0.19971	0.30422
0.02119	-0.25695
0.22521	-0.28246
0.17421	0.07465
0.17421	0.17668
-0.13181	0.27871
0.12320	0.55929
0.37822	-0.38449
0.19971	-0.20594
0.07220	0.76336
0.35272	1.06945
0.17421	-0.33348
0.09770	0.12566
0.14870	0.76336
0.07220	-0.81812
0.09770	0.53379
0.19971	0.04914
0.14870	0.32972
0.25071	0.35523
0.22521	0.35523
-0.00431	-0.33348
0.19971	0.27871
0.14870	0.43176
0.07220	0.17668
0.09770	0.25320
0.09770	-0.38449
0.17421	0.17668
0.22521	0.15117
0.14870	0.35523
0.19971	0.35523
0.07220	-0.38449
0.17421	0.02363
0.27621	0.63582
0.12320	0.76336
0.19971	-2.01699
0.19971	0.32972
-0.05531	0.61031
0.17421	0.73785
0.25071	0.55929
0.12320	-0.05289
-0.15732	0.43176
0.25071	1.12046
0.27621	-0.35899
0.14870	-0.92016
0.32721	-0.76711
0.22521	0.55929
0.25071	0.63582
0.14870	0.25320
-0.18282	-0.30797
-0.10631	0.25320
0.09770	1.24800
0.27621	0.89089
0.45472	1.01843
0.32721	0.40625
0.07220	-0.23145
-0.02981	0.12566
0.14870	-0.66508
0.07220	-0.12942
0.04670	-0.07840
0.17421	-0.56305
0.22521	0.15117
0.12320	0.45726
0.32721	0.73785
-0.00431	-0.94566
0.12320	0.66132
-0.08081	0.38074
0.70974	-0.58856
0.22521	0.38074
0.17421	0.53379
0.07220	0.76336
-0.15732	0.53379
-0.05531	-0.25695
0.27621	0.25320
0.17421	-0.18043
0.14870	0.04914
-0.05531	-0.38449
0.17421	0.17668
0.14870	-0.38449
0.27621	0.55929
0.14870	0.76336
-0.05531	0.15117
-0.00431	-0.79262
0.53123	0.66132
0.17421	1.06945
0.17421	0.38074
0.12320	-0.97117
-0.13181	-0.12942
0.19971	0.68683
0.14870	0.35523
0.14870	0.43176
0.04670	0.32972
0.09770	0.53379
0.14870	0.25320
0.12320	0.99292
0.27621	-0.66508
0.12320	-0.18043
0.12320	-1.91496
0.19971	0.50828
0.09770	0.86539
0.12320	0.76336
0.25071	0.55929
0.09770	0.30422
0.17421	0.63582
0.22521	0.22769
0.19971	-0.35899
0.04670	0.20219
0.30171	-0.33348
0.45472	-0.99668
0.14870	0.53379
-0.10631	0.68683
-0.05531	0.50828
0.27621	0.35523
0.27621	0.07465
-0.02981	0.04914
0.04670	0.83988
0.19971	0.43176
0.42922	-0.51203
0.27621	-1.43031
0.27621	0.53379
0.17421	0.76336
0.04670	0.53379
0.22521	0.38074
0.12320	-0.05289
0.17421	0.30422
0.07220	0.71234
0.04670	-0.43551
0.12320	0.61031
0.04670	-2.39961
0.27621	-0.28246
0.19971	0.10015
0.32721	1.27351
-0.23382	0.66132
0.04670	1.22250
0.09770	0.63582
0.42922	-1.91496
0.17421	-1.27726
0.09770	0.58480
0.12320	0.71234
0.35272	0.58480
0.35272	0.40625
-0.33583	0.22769
0.07220	0.12566
0.12320	0.12566
0.22521	-0.33348
0.14870	0.02363
0.07220	-0.71609
0.19971	0.25320
0.19971	0.30422
0.19971	0.22769
0.14870	0.17668
0.19971	0.27871
0.12320	-0.10391
0.17421	0.32972
0.35272	0.71234
0.07220	0.17668
-0.38683	0.04914
0.22521	0.02363
0.22521	0.38074
0.58223	0.53379
0.32721	-1.14973
-0.15732	0.63582
0.09770	-0.89465
-0.05531	-0.15492
-0.28482	0.50828
0.25071	1.04394
0.65874	0.83988
0.40372	0.76336
-0.05531	0.17668
0.17421	0.53379
0.12320	0.22769
0.12320	-0.00188
0.17421	-0.10391
0.09770	-0.28246
0.04670	-0.15492
0.09770	-0.28246
0.09770	-0.15492
0.19971	-0.15492
0.14870	-0.05289
0.17421	0.17668
0.12320	0.22769
0.07220	0.25320
0.17421	0.35523
0.19971	0.63582
0.09770	0.89089
0.17421	1.22250
0.22521	-0.89465
0.22521	-0.30797
0.22521	-1.20074
0.19971	-0.20594
0.07220	0.43176
0.14870	1.52859
0.19971	1.57960
-0.13181	-1.48133
0.63323	0.83988
0.04670	0.78886
-0.08081	0.40625
0.12320	0.17668
0.35272	0.27871
0.09770	-0.76711
-0.05531	-0.30797
0.14870	-0.05289
0.17421	-0.15492
0.30171	-0.02739
0.32721	0.04914
0.19971	0.10015
0.09770	0.12566
0.09770	0.25320
0.14870	0.32972
-0.25932	0.30422
0.19971	0.38074
0.32721	0.20219
0.19971	0.20219
0.22521	0.15117
0.14870	0.43176
0.07220	-0.61406
0.14870	-0.07840
0.30171	1.12046
0.12320	0.83988
0.19971	0.25320
0.02119	-0.30797
0.17421	-0.35899
0.12320	0.53379
0.30171	-0.61406
0.25071	-0.41000
0.17421	0.50828
-0.00431	0.91640
0.02119	0.83988
0.17421	0.27871
0.09770	0.22769
0.17421	0.40625
0.04670	-1.22625
0.07220	-0.00188
0.42922	0.38074
0.12320	-0.15492
0.22521	-0.05289
-0.02981	-0.10391
-0.00431	-0.20594
0.37822	0.30422
0.25071	-0.15492
0.27621	0.35523
0.14870	0.66132
-0.05531	0.61031
-0.08081	0.48277
0.37822	0.76336
0.22521	-0.05289
-0.00431	0.45726
-0.10631	-1.68539
0.07220	0.27871
0.27621	0.91640
0.32721	0.27871
0.22521	0.22769
-0.02981	-0.48652
0.12320	-1.58336
0.14870	0.83988
0.35272	0.71234
0.30171	0.76336
0.02119	-1.88945
0.09770	1.01843
0.07220	0.63582
0.25071	0.89089
0.02119	0.43176
-0.00431	0.48277
0.04670	-0.23145
0.14870	-0.86914
0.09770	-0.48652
0.35272	0.32972
0.48022	0.43176
0.17421	0.10015
-0.08081	0.38074
-0.08081	-0.07840
0.12320	0.76336
-0.00431	1.09496
0.35272	-2.39961
0.12320	-0.33348
0.14870	0.17668
0.25071	0.17668
0.17421	1.42656
0.12320	1.57960
0.17421	0.48277
0.02119	0.48277
0.12320	0.20219
0.27621	0.10015
0.14870	0.04914
0.09770	-0.33348
0.14870	-0.66508
0.14870	0.25320
0.04670	-0.56305
0.14870	0.02363
0.27621	0.38074
0.19971	0.17668
-0.08081	0.30422
0.12320	0.40625
0.09770	0.20219
0.27621	-0.25695
0.12320	-0.66508
0.12320	-0.28246
0.35272	0.94191
0.19971	-0.66508
0.09770	0.81437
0.19971	0.76336
0.04670	0.78886
0.17421	0.53379
0.25071	0.20219
0.09770	0.12566
0.02119	-0.00188
0.07220	-0.15492
0.12320	-0.18043
0.19971	-0.10391
0.14870	-0.10391
-0.00431	0.02363
0.09770	0.15117
0.22521	0.20219
0.12320	0.12566
0.27621	0.25320
0.17421	0.20219
0.17421	0.20219
0.22521	0.27871
0.09770	0.22769
0.19971	0.22769
0.42922	0.15117
0.25071	0.32972
-0.18282	0.78886
-0.20832	1.06945
0.07220	-0.00188
-0.02981	-2.85874
0.99026	-1.40480
0.48022	0.73785
0.19971	0.86539
0.09770	1.73265
-0.08081	1.40105
0.17421	1.01843
0.12320	0.61031
0.12320	0.10015
-0.00431	-0.10391
0.17421	-0.33348
0.09770	-0.53754
0.07220	-0.46102
0.19971	-0.30797
0.07220	-0.30797
0.17421	-0.12942
0.19971	0.04914
0.09770	0.15117
0.17421	0.35523
0.27621	0.32972
0.09770	0.30422
0.12320	0.38074
0.22521	0.35523
0.12320	0.25320
0.12320	0.30422
0.12320	0.32972
0.02119	0.27871
0.17421	0.35523
0.17421	0.22769
0.25071	0.15117
0.14870	-0.15492
0.09770	0.15117
0.19971	0.32972
-0.18282	1.40105
0.22521	-1.48133
0.30171	-1.14973
-0.00431	-1.37929
-0.08081	1.27351
0.32721	0.81437
0.30171	0.76336
0.14870	0.96742
0.12320	0.63582
0.25071	0.50828
0.02119	0.15117
0.09770	-0.05289
0.30171	-0.23145
-0.00431	-0.12942
0.30171	-0.46102
0.09770	-0.20594
0.07220	0.02363
0.09770	-0.05289
0.12320	0.12566
0.04670	0.20219
0.19971	0.55929
0.22521	0.22769
0.17421	0.27871
0.12320	-0.63957
0.14870	-0.00188
0.22521	1.01843
0.12320	-0.10391
0.07220	0.71234
-0.00431	0.43176
0.09770	0.73785
0.32721	1.17148
0.09770	0.17668
0.09770	0.10015
0.14870	-0.41000
0.42922	0.48277
0.09770	0.02363
-0.28482	-0.18043
0.35272	0.07465
0.02119	-0.97117
0.19971	-0.20594
0.32721	0.15117
0.12320	0.27871
0.17421	0.40625
-0.02981	-0.12942
-0.02981	0.25320
0.17421	0.53379
-0.00431	0.32972
0.14870	0.17668
0.25071	-0.12942
0.19971	-1.12422
0.30171	0.58480
0.14870	-0.30797
0.09770	-0.20594
0.19971	0.96742
0.14870	0.86539
0.12320	0.43176
0.22521	0.15117
0.27621	0.94191
0.17421	0.10015
0.07220	-0.10391
-0.05531	-1.37929
0.07220	0.53379
0.22521	0.22769
0.12320	0.43176
0.17421	-0.30797
0.25071	-0.51203
0.04670	0.58480
0.19971	0.10015
0.19971	0.45726
0.19971	-0.05289
-0.05531	-1.50683
-0.05531	0.68683
0.12320	0.73785
-0.00431	0.81437
0.25071	0.99292
0.60773	0.15117
0.19971	-0.23145
0.19971	0.30422
0.63323	-0.05289
0.17421	-0.48652
-0.00431	-0.05289
-0.00431	0.55929
-0.02981	0.66132
0.02119	-0.15492
-0.15732	0.22769
0.22521	0.55929
0.22521	0.04914
0.09770	0.27871
0.04670	-1.45582
0.40372	-0.35899
0.17421	0.27871
0.09770	1.29902
0.25071	1.04394
0.40372	0.53379
0.17421	-0.76711
0.07220	-0.30797
0.12320	0.48277
0.04670	0.22769
0.07220	0.22769
0.04670	0.20219
0.17421	0.30422
0.19971	0.04914
0.19971	-0.61406
0.19971	0.17668
0.14870	0.58480
0.04670	0.32972
-0.10631	0.38074
-0.00431	0.40625
0.09770	0.04914
0.25071	-0.69059
0.30171	0.48277
0.22521	-0.25695
0.27621	0.63582
0.22521	-0.30797
0.12320	-0.10391
0.02119	0.17668
0.09770	-0.18043
-0.00431	0.55929
-0.02981	0.66132
0.32721	0.66132
0.22521	0.17668
-0.10631	-0.12942
0.14870	-0.05289
0.12320	0.30422
0.40372	0.12566
0.22521	0.35523
-0.00431	-1.65988
0.25071	-0.00188
0.30171	0.30422
0.07220	0.86539
0.09770	0.50828
0.04670	-0.35899
0.09770	0.61031
0.12320	0.83988
0.17421	0.73785
0.04670	-1.02219
0.14870	-0.12942
0.22521	0.04914
0.17421	0.55929
0.17421	0.66132
0.09770	-0.18043
0.02119	0.27871
0.14870	1.01843
0.12320	-0.97117
0.17421	0.73785
0.14870	-0.92016
0.12320	-0.07840
0.09770	-0.38449
0.42922	0.66132
-0.41233	0.99292
0.45472	0.04914
0.12320	0.38074
0.09770	0.22769
0.14870	0.12566
0.02119	0.12566
0.12320	0.02363
0.09770	-0.10391
0.30171	-0.07840
0.48022	0.15117
0.12320	0.04914
-0.13181	0.04914
0.09770	-0.12942
0.30171	0.17668
0.12320	0.58480
0.07220	0.81437
0.30171	0.45726
0.37822	-1.48133
-0.15732	0.68683
0.04670	0.40625
0.25071	0.99292
-0.00431	-2.52714
0.17421	-0.10391
0.22521	1.19699
0.12320	1.29902
0.02119	1.57960
0.12320	0.94191
0.22521	0.04914
0.32721	-1.68539
0.17421	-0.25695
0.02119	0.15117
0.27621	0.35523
0.12320	0.30422
-0.10631	0.32972
0.25071	0.20219
0.25071	-0.41000
0.09770	0.12566
0.12320	0.30422
-0.05531	0.27871
0.30171	0.35523
0.17421	0.04914
-0.15732	0.15117
0.25071	0.12566
0.14870	-1.20074
0.32721	0.71234
0.37822	0.55929
0.09770	0.45726
0.09770	0.12566
0.14870	0.50828
0.07220	1.35003
0.19971	-1.12422
0.14870	0.35523
0.14870	0.32972
0.14870	0.12566
0.09770	-0.58856
0.22521	-0.35899
0.09770	0.55929
0.17421	0.45726
0.07220	0.22769
0.09770	-0.02739
0.09770	0.48277
0.48022	0.58480
0.19971	0.83988
-0.02981	-1.88945
0.07220	-0.92016
0.12320	1.01843
0.14870	-0.41000
0.14870	0.43176
0.45472	0.22769
0.14870	1.01843
0.09770	0.76336
-0.08081	-0.12942
0.19971	0.50828
0.27621	-0.07840
0.07220	0.32972
0.14870	0.25320
0.14870	-0.69059
0.12320	0.04914
0.07220	0.07465
0.14870	0.04914
0.12320	0.07465
0.19971	0.07465
0.25071	0.15117
0.07220	0.61031
0.17421	-1.12422
0.07220	0.43176
0.07220	0.61031
0.12320	0.50828
0.63323	0.20219
0.37822	0.15117
-0.10631	-0.05289
-0.00431	0.76336
0.09770	-0.30797
0.02119	-1.30277
0.14870	1.12046
0.12320	1.50308
0.17421	0.96742
0.12320	0.55929
0.19971	0.38074
0.12320	-1.02219
0.19971	-0.20594
0.25071	0.12566
-0.00431	-0.05289
0.02119	-0.07840
0.35272	-0.00188
-0.00431	0.07465
-0.00431	-0.18043
-0.00431	0.27871
0.27621	0.76336
-0.13181	-0.38449
0.40372	0.50828
0.42922	0.32972
0.19971	0.43176
0.14870	0.89089
0.09770	-1.53234
0.09770	-0.23145
0.02119	0.63582
0.09770	0.99292
0.19971	0.55929
-0.10631	0.27871
0.07220	0.27871
0.19971	0.32972
0.27621	-0.25695
0.17421	0.40625
0.19971	-0.66508
0.14870	0.07465
0.07220	0.40625
0.22521	-1.02219
0.12320	0.17668
0.14870	0.25320
0.17421	-0.23145
0.27621	1.06945
0.25071	-0.63957
0.07220	0.17668
0.14870	0.63582
0.09770	0.83988
-0.10631	0.35523
0.07220	0.35523
0.12320	0.15117
0.32721	-0.05289
0.22521	-0.02739
0.17421	0.20219
0.09770	-0.10391
0.19971	-0.20594
0.12320	-0.18043
0.12320	0.25320
0.12320	-0.25695
-0.25932	0.02363
0.40372	0.15117
0.22521	0.48277
-0.00431	-0.00188
0.07220	0.15117
0.09770	0.61031
0.42922	0.66132
0.32721	0.12566
0.27621	0.43176
0.09770	0.15117
-0.28482	0.32972
0.12320	0.02363
0.19971	0.50828
0.22521	-1.94047
0.14870	-0.46102
0.14870	0.78886
0.02119	0.71234
0.07220	0.45726
0.14870	-0.15492
0.17421	-0.69059
0.14870	0.27871
0.17421	0.35523
0.17421	0.45726
0.09770	-0.46102
0.09770	0.17668
-0.08081	0.45726
0.22521	0.10015
0.17421	0.45726
0.22521	0.43176
0.25071	0.27871
0.12320	-0.15492
0.07220	0.20219
-0.08081	0.40625
0.37822	0.66132
-0.08081	-0.74160
0.35272	-0.74160
0.22521	0.50828
0.32721	0.63582
0.12320	0.38074
-0.00431	0.38074
0.17421	-0.61406
0.09770	0.10015
0.22521	-0.15492
-0.10631	-0.02739
0.09770	0.25320
0.12320	0.20219
0.02119	0.66132
0.37822	0.53379
0.45472	0.94191
0.22521	0.96742
0.02119	-3.16484
0.22521	-0.30797
0.12320	0.71234
0.09770	0.68683
0.02119	0.38074
0.12320	0.35523
0.17421	0.07465
0.19971	-0.07840
0.14870	0.10015
0.07220	0.17668
0.09770	0.25320
0.17421	0.32972
0.25071	0.04914
0.09770	-0.18043
0.19971	-1.14973
0.25071	1.01843
0.12320	-1.32828
-0.13181	0.58480
0.37822	1.27351
0.40372	0.66132
0.27621	1.17148
-0.02981	0.50828
-0.02981	-0.10391
-0.02981	0.50828
0.30171	-0.20594
0.22521	-1.32828
0.14870	0.30422
0.19971	-0.07840
-0.05531	0.66132
0.27621	-0.41000
0.14870	-0.15492
0.27621	0.30422
0.12320	0.04914
0.30171	0.45726
0.22521	0.78886
-0.31033	-0.05289
0.12320	-0.02739
0.12320	-0.05289
-0.05531	0.40625
-0.00431	-0.56305
0.42922	0.04914
0.22521	0.53379
0.27621	0.32972
0.25071	0.10015
0.17421	0.02363
0.14870	0.63582
0.12320	0.53379
0.04670	-0.07840
0.04670	-0.76711
0.14870	-0.28246
0.17421	0.63582
-0.05531	0.55929
0.22521	0.17668
0.14870	-0.38449
0.22521	0.38074
0.12320	0.25320
0.14870	-0.00188
0.19971	0.55929
0.19971	0.15117
0.32721	-0.05289
0.17421	0.07465
0.12320	0.15117
0.12320	0.17668
0.09770	0.22769
0.02119	-0.10391
0.07220	0.25320
-0.02981	0.22769
0.19971	0.30422
0.42922	-0.46102
0.14870	0.68683
0.25071	-0.23145
0.17421	0.40625
-0.15732	-0.10391
0.22521	0.22769
0.30171	0.83988
-0.05531	-1.58336
-0.00431	0.40625
0.12320	0.68683
0.30171	0.55929
0.32721	0.27871
0.22521	0.76336
-0.13181	0.38074
0.25071	0.22769
0.32721	0.30422
0.35272	0.10015
0.19971	-0.10391
0.07220	-0.25695
0.07220	-0.10391
-0.02981	0.02363
0.14870	0.30422
0.22521	0.20219
0.07220	0.04914
0.17421	-0.38449
-0.10631	-0.20594
0.48022	0.43176
0.22521	0.81437
0.22521	0.76336
-0.00431	0.32972
0.12320	-0.99668
0.25071	0.25320
0.02119	0.58480
0.25071	0.81437
0.22521	0.58480
0.25071	0.04914
0.12320	-0.02739
0.25071	0.22769
0.12320	-0.15492
0.22521	0.12566
0.09770	0.15117
0.12320	0.07465
0.14870	0.22769
0.04670	-0.07840
0.27621	0.04914
0.12320	0.35523
-0.13181	-0.33348
0.27621	0.55929
0.25071	-0.46102
0.09770	0.71234
0.07220	-0.15492
0.42922	0.35523
0.40372	0.66132
0.14870	-0.35899
-0.00431	0.45726
-0.02981	-0.94566
0.07220	0.45726
0.02119	0.58480
0.14870	0.63582
0.04670	0.40625
0.27621	1.04394
0.19971	-0.69059
0.12320	0.17668
0.19971	-0.97117
0.25071	0.43176
0.19971	0.48277
0.07220	0.48277
0.14870	-0.48652
0.25071	0.07465
0.22521	0.07465
0.07220	0.04914
0.17421	-0.05289
-0.05531	0.22769
0.04670	0.15117
0.14870	0.17668
0.17421	0.17668
0.12320	0.17668
0.12320	0.20219
0.07220	0.22769
0.37822	0.40625
0.30171	0.30422
0.12320	0.15117
0.12320	-0.02739
0.02119	-0.46102
0.09770	-1.02219
0.09770	0.71234
0.25071	-0.43551
0.17421	0.99292
0.22521	1.09496
0.25071	0.53379
0.22521	0.66132
0.17421	0.50828
-0.00431	-0.89465
0.14870	-0.18043
0.17421	-0.15492
0.02119	-0.10391
0.04670	0.22769
0.25071	0.27871
0.14870	0.12566
0.09770	-0.23145
-0.08081	-0.51203
-0.05531	0.55929
0.40372	0.45726
0.37822	0.22769
0.22521	0.30422
0.22521	0.38074
0.07220	-0.20594
-0.00431	0.02363
0.30171	0.17668
0.14870	0.22769
-0.05531	0.20219
0.09770	0.63582
0.17421	1.01843
0.19971	0.30422
0.14870	-0.79262
0.12320	-2.22105
-0.05531	0.63582
0.04670	0.45726
0.32721	0.50828
0.32721	1.22250
0.35272	0.04914
0.07220	0.55929
0.02119	-0.02739
0.12320	0.32972
0.25071	0.27871
-0.08081	-0.12942
0.27621	0.04914
-0.08081	-0.38449
0.30171	0.02363
0.14870	0.07465
0.32721	0.22769
0.14870	0.35523
0.12320	0.17668
0.09770	0.32972
0.22521	-0.53754
0.12320	-0.12942
-0.20832	0.63582
0.14870	-0.07840
0.27621	-0.07840
0.35272	0.86539
0.12320	0.35523
0.19971	-0.02739
0.17421	0.66132
-0.08081	0.61031
0.27621	0.38074
0.45472	-0.25695
0.02119	-0.56305
-0.15732	-1.12422
0.14870	0.78886
0.09770	1.57960
0.12320	-0.97117
0.17421	-0.05289
0.12320	-0.00188
0.07220	0.48277
0.22521	0.38074
0.07220	0.30422
0.32721	0.25320
0.30171	0.30422
0.25071	0.02363
0.07220	0.25320
0.09770	0.30422
0.12320	0.02363
0.14870	-0.43551
-0.08081	-0.46102
0.09770	0.86539
0.42922	0.35523
0.17421	0.91640
-0.05531	-0.12942
0.07220	-0.71609
0.27621	0.38074
0.25071	0.71234
0.22521	0.45726
0.27621	-0.66508
0.27621	0.30422
0.09770	0.35523
0.25071	0.40625
0.17421	0.17668
0.09770	0.07465
-0.05531	0.55929
-0.10631	-0.46102
0.19971	0.20219
0.32721	-0.05289
0.37822	0.71234
0.19971	0.53379
0.12320	0.55929
-0.08081	-0.33348
0.17421	-0.76711
0.12320	0.15117
0.19971	0.68683
0.17421	0.81437
0.27621	0.27871
0.07220	0.91640
0.07220	-0.12942
0.12320	-0.81812
0.12320	0.35523
0.14870	-0.10391
0.22521	0.30422
0.30171	0.38074
0.17421	0.38074
0.12320	0.30422
0.09770	0.32972
0.09770	0.20219
-0.13181	0.15117
0.25071	-0.43551
0.19971	-0.20594
0.14870	0.20219
0.19971	0.38074
0.02119	0.17668
0.40372	0.04914
0.22521	0.02363
0.12320	0.12566
0.25071	0.27871
0.19971	0.89089
0.02119	-0.46102
-0.10631	0.20219
0.14870	0.02363
0.19971	0.35523
0.14870	0.55929
0.22521	0.12566
0.22521	0.22769
0.09770	-0.23145
0.09770	0.48277
0.09770	-0.15492
0.12320	0.04914
0.22521	0.43176
0.48022	-0.84363
0.30171	0.27871
0.07220	-0.35899
-0.02981	0.35523
-0.02981	0.45726
0.07220	0.17668
0.17421	0.61031
0.17421	0.43176
0.22521	0.35523
0.19971	-0.05289
0.07220	0.07465
-0.05531	-0.76711
0.32721	0.38074
0.37822	0.76336
0.19971	0.10015
0.19971	-0.15492
0.14870	0.43176
0.12320	0.68683
0.02119	-0.05289
0.14870	0.10015
0.25071	0.30422
0.25071	-0.00188
0.09770	0.40625
0.02119	-0.74160
0.35272	0.68683
0.14870	0.04914
-0.15732	-0.58856
0.17421	0.40625
0.32721	0.32972
0.22521	-0.02739
0.09770	0.48277
0.14870	-0.05289
0.35272	0.38074
0.27621	0.12566
0.02119	0.20219
0.17421	0.55929
-0.02981	0.30422
-0.18282	-0.28246
0.25071	-0.86914
0.27621	0.17668
0.17421	0.35523
0.19971	-0.38449
0.30171	0.66132
-0.02981	0.45726
0.09770	0.40625
0.19971	0.32972
0.17421	-0.00188
0.25071	-0.33348
-0.00431	0.12566
0.09770	0.76336
0.19971	0.04914
-0.13181	0.20219
0.60773	-0.41000
0.42922	0.38074
0.32721	0.38074
-0.02981	-0.05289
-0.13181	-0.35899
-0.08081	0.48277
0.32721	0.55929
-0.05531	0.43176
-0.10631	0.50828
-0.02981	0.55929
0.32721	0.25320
0.14870	-0.81812
0.22521	-0.23145
0.35272	-0.38449
0.14870	0.40625
0.09770	0.10015
0.02119	-0.28246
0.30171	0.40625
0.07220	0.30422
0.07220	0.43176
0.02119	0.38074
0.25071	0.40625
0.12320	0.68683
0.17421	-0.15492
0.27621	-0.02739
0.14870	0.07465
0.02119	-0.66508
0.07220	0.43176
0.12320	0.32972
0.19971	0.40625
0.22521	-0.02739
0.22521	-0.18043
0.04670	0.58480
-0.02981	0.66132
0.14870	0.50828
0.25071	-1.04770
0.14870	0.48277
0.02119	-0.07840
0.17421	0.73785
0.19971	-0.07840
0.22521	-0.12942
0.17421	-0.12942
0.09770	0.07465
-0.05531	0.58480
0.02119	-0.20594
0.09770	0.15117
0.27621	-0.28246
0.37822	-0.30797
