0.37822	0.22769
0.12320	0.15117
0.04670	0.10015
0.22521	0.12566
0.12320	0.10015
0.02119	-0.02739
0.19971	0.17668
0.22521	0.15117
0.12320	0.20219
0.14870	0.30422
0.09770	0.10015
0.14870	0.15117
0.14870	0.22769
0.22521	0.15117
0.19971	0.04914
0.14870	0.15117
0.12320	0.20219
0.09770	0.15117
0.14870	0.10015
0.19971	0.20219
0.17421	0.30422
0.09770	0.12566
0.14870	0.20219
0.22521	0.12566
0.09770	0.02363
0.14870	0.15117
-0.00431	0.12566
0.35272	0.04914
0.37822	0.22769
0.12320	0.30422
-0.02981	0.10015
0.12320	0.20219
-0.08081	0.17668
0.25071	0.20219
0.27621	0.20219
0.07220	0.07465
0.09770	0.17668
0.14870	0.10015
0.25071	0.20219
0.07220	0.12566
0.25071	0.20219
0.07220	0.15117
0.09770	0.12566
0.17421	0.10015
0.25071	0.15117
0.22521	0.15117
0.09770	0.02363
0.14870	0.27871
0.02119	0.12566
0.19971	0.27871
0.14870	0.17668
0.12320	0.15117
0.22521	0.17668
0.12320	0.15117
0.07220	0.10015
0.14870	0.17668
0.14870	0.07465
0.17421	0.15117
0.25071	0.20219
0.17421	0.15117
0.07220	0.22769
0.19971	0.20219
0.09770	0.15117
0.14870	0.12566
0.14870	0.10015
0.07220	-0.02739
0.22521	0.15117
-0.02981	0.15117
0.30171	0.20219
0.27621	0.25320
0.09770	0.15117
0.19971	0.20219
-0.36133	0.15117
0.50573	0.10015
0.27621	0.15117
-0.00431	-0.00188
0.07220	0.10015
0.12320	0.10015
0.14870	0.20219
0.25071	0.25320
0.12320	0.17668
0.22521	0.25320
0.17421	0.07465
0.14870	0.15117
0.17421	0.07465
0.09770	0.04914
0.17421	0.15117
0.14870	0.15117
0.12320	0.17668
0.12320	0.25320
0.12320	0.12566
0.19971	0.20219
0.07220	0.10015
0.19971	0.17668
0.07220	-0.00188
0.25071	0.12566
0.04670	0.04914
0.19971	0.17668
0.07220	0.15117
0.14870	0.22769
0.32721	0.20219
0.09770	0.12566
0.12320	0.20219
-0.05531	0.15117
0.32721	0.12566
0.37822	0.15117
-0.00431	0.07465
0.09770	0.25320
0.02119	0.12566
0.12320	0.20219
0.14870	0.17668
0.14870	0.15117
0.17421	0.12566
-0.13181	0.12566
0.32721	0.10015
0.40372	0.04914
0.27621	0.12566
-0.05531	0.22769
0.02119	0.22769
0.09770	0.20219
0.12320	0.17668
0.12320	0.12566
0.14870	0.12566
0.17421	0.15117
0.32721	0.20219
0.17421	-0.00188
0.17421	0.17668
0.09770	0.10015
0.12320	0.17668
0.19971	0.15117
0.09770	0.15117
0.14870	0.30422
0.19971	0.22769
0.17421	0.04914
0.22521	0.15117
0.07220	0.10015
0.19971	0.17668
0.07220	0.15117
0.14870	0.12566
0.25071	0.22769
0.07220	0.20219
0.07220	0.17668
0.19971	0.22769
0.09770	0.07465
0.14870	0.10015
0.19971	0.15117
0.07220	0.15117
0.17421	0.17668
0.22521	0.12566
0.12320	0.20219
0.09770	0.17668
0.14870	0.15117
0.22521	0.15117
0.17421	0.17668
0.07220	0.04914
0.12320	0.15117
0.22521	0.15117
0.09770	0.17668
-0.02981	0.07465
0.40372	0.20219
0.48022	0.27871
0.12320	0.15117
-0.08081	0.10015
0.07220	0.15117
0.07220	0.15117
0.04670	0.07465
0.19971	0.12566
0.22521	0.20219
0.27621	0.20219
0.12320	0.12566
-0.08081	0.25320
0.32721	0.17668
0.22521	0.20219
0.19971	0.17668
0.09770	0.04914
0.12320	0.12566
0.17421	0.07465
0.12320	0.10015
0.04670	0.12566
0.14870	0.17668
0.22521	0.25320
0.17421	0.12566
0.07220	0.12566
0.12320	0.12566
0.14870	0.17668
0.17421	0.07465
0.30171	0.10015
0.14870	0.22769
0.07220	0.17668
0.09770	0.17668
0.12320	0.20219
0.22521	0.17668
0.14870	0.04914
0.14870	0.17668
0.22521	0.22769
0.14870	0.15117
0.09770	0.02363
0.14870	0.12566
0.17421	0.25320
0.07220	0.12566
0.14870	0.17668
0.12320	0.15117
0.04670	0.15117
0.35272	0.15117
0.09770	0.04914
0.14870	0.10015
0.04670	0.12566
0.14870	0.15117
-0.25932	0.12566
0.58223	0.20219
0.32721	0.17668
0.02119	0.15117
0.02119	0.22769
0.14870	0.12566
0.09770	0.07465
0.09770	0.15117
0.12320	0.02363
0.37822	0.12566
0.19971	0.20219
-0.00431	0.12566
0.09770	0.25320
0.14870	0.10015
0.14870	0.17668
0.12320	0.12566
0.17421	0.04914
0.25071	0.20219
0.12320	0.15117
0.09770	0.15117
0.22521	0.22769
0.12320	0.12566
0.07220	0.12566
0.12320	0.25320
0.12320	0.25320
0.07220	0.15117
0.19971	0.10015
0.09770	0.02363
0.12320	0.07465
0.17421	0.12566
0.27621	0.17668
0.30171	0.22769
0.04670	0.17668
-0.00431	0.17668
0.04670	0.22769
0.12320	0.04914
0.12320	0.12566
0.14870	0.10015
0.09770	0.02363
0.25071	0.22769
0.19971	0.20219
0.17421	0.15117
0.22521	0.30422
0.17421	0.15117
0.14870	0.04914
0.19971	0.17668
0.04670	0.12566
0.14870	0.07465
0.14870	0.12566
0.09770	0.17668
0.19971	0.15117
0.07220	0.15117
0.17421	0.22769
0.17421	0.17668
0.12320	0.12566
-0.23382	0.12566
0.58223	0.02363
0.19971	0.17668
0.02119	0.04914
0.12320	0.25320
0.09770	0.12566
0.12320	0.22769
0.04670	0.22769
-0.10631	0.15117
0.37822	0.12566
0.12320	0.15117
0.12320	0.15117
0.12320	-0.02739
0.19971	0.15117
0.17421	0.17668
0.09770	0.17668
0.22521	0.22769
0.09770	0.10015
0.14870	0.17668
0.14870	0.04914
0.12320	0.12566
0.14870	0.12566
0.12320	-0.05289
0.14870	0.15117
0.22521	0.20219
0.07220	0.22769
0.19971	0.27871
0.12320	0.15117
0.12320	0.22769
0.19971	0.12566
0.09770	0.10015
0.22521	0.15117
0.12320	0.10015
0.09770	0.10015
0.25071	0.22769
0.19971	0.12566
0.25071	0.17668
0.09770	0.15117
0.09770	0.15117
0.14870	0.10015
0.17421	0.15117
0.17421	0.10015
0.02119	0.12566
0.25071	0.22769
0.14870	0.12566
0.12320	0.25320
0.17421	0.12566
0.12320	0.27871
0.12320	0.15117
0.14870	0.12566
-0.05531	0.12566
0.27621	0.12566
0.40372	0.15117
0.04670	0.02363
0.07220	0.25320
0.12320	0.17668
0.25071	0.22769
0.07220	0.20219
0.04670	0.07465
0.19971	0.07465
0.14870	0.12566
0.17421	0.10015
0.22521	0.20219
0.12320	0.04914
0.14870	0.25320
0.17421	0.12566
0.07220	0.25320
0.12320	0.22769
0.09770	0.10015
0.14870	0.17668
0.17421	0.07465
0.14870	0.15117
0.12320	0.04914
0.14870	0.10015
0.14870	0.10015
0.14870	0.17668
0.17421	0.17668
0.09770	0.20219
0.12320	0.25320
0.02119	0.12566
0.32721	0.12566
0.17421	0.22769
-0.00431	0.02363
0.17421	0.15117
0.12320	0.12566
0.09770	0.15117
0.22521	0.20219
0.09770	0.17668
0.22521	0.22769
0.17421	0.04914
0.14870	0.20219
0.17421	0.04914
0.14870	0.15117
0.12320	0.02363
0.12320	0.20219
0.22521	0.17668
0.09770	0.17668
0.22521	0.25320
0.12320	0.12566
0.07220	0.12566
0.19971	0.17668
0.12320	0.12566
0.04670	0.10015
0.25071	0.17668
0.27621	0.15117
0.17421	0.04914
-0.00431	0.17668
0.14870	0.25320
0.12320	0.12566
0.04670	0.15117
0.12320	0.17668
0.22521	0.22769
0.02119	-0.00188
0.25071	0.07465
0.19971	0.20219
0.37822	0.15117
0.35272	0.20219
0.25071	0.10015
-0.02981	0.12566
-0.00431	0.20219
0.04670	0.02363
0.07220	0.12566
0.17421	0.12566
0.22521	0.07465
0.30171	0.15117
0.09770	0.22769
0.22521	0.20219
0.09770	0.22769
0.14870	0.25320
0.14870	0.10015
0.12320	0.17668
0.19971	0.12566
0.12320	0.12566
0.17421	0.10015
0.14870	0.17668
0.12320	0.17668
0.12320	0.15117
0.07220	0.15117
0.19971	0.12566
0.09770	0.10015
0.22521	0.17668
0.09770	0.12566
0.14870	0.10015
0.14870	0.12566
0.14870	0.12566
0.12320	0.15117
0.09770	0.20219
0.19971	0.22769
0.02119	0.17668
0.40372	0.22769
0.14870	0.07465
0.09770	0.20219
-0.00431	0.07465
0.19971	0.12566
0.19971	0.15117
0.07220	0.17668
0.14870	0.20219
0.07220	0.12566
0.22521	0.25320
0.09770	0.12566
0.14870	0.12566
0.12320	0.10015
0.14870	0.04914
0.22521	0.17668
0.09770	0.07465
0.22521	0.27871
0.14870	0.12566
0.12320	0.20219
0.19971	0.20219
0.07220	0.17668
0.09770	0.20219
0.17421	-0.00188
0.25071	0.10015
-0.08081	0.10015
0.37822	0.15117
0.25071	0.20219
0.09770	0.12566
0.14870	0.25320
-0.05531	0.12566
0.07220	0.15117
0.17421	0.12566
0.09770	0.07465
0.22521	0.07465
0.12320	0.15117
0.25071	0.20219
0.09770	0.20219
0.22521	0.20219
0.09770	0.22769
0.22521	0.17668
-0.00431	0.10015
0.37822	0.20219
0.17421	0.04914
0.07220	0.20219
0.12320	0.04914
0.04670	0.17668
0.22521	0.17668
0.02119	0.15117
0.12320	0.22769
0.14870	0.07465
0.12320	0.15117
0.19971	0.12566
0.09770	0.10015
0.22521	0.20219
0.07220	0.12566
0.27621	0.10015
0.17421	0.20219
0.07220	0.17668
0.09770	0.20219
0.17421	0.10015
-0.00431	0.15117
0.27621	0.20219
0.19971	0.07465
0.17421	0.12566
0.17421	0.07465
-0.00431	0.15117
0.12320	0.20219
0.17421	0.10015
0.25071	0.22769
0.19971	0.17668
-0.00431	0.04914
0.12320	0.15117
0.22521	0.17668
0.07220	0.10015
0.17421	0.15117
0.19971	0.20219
0.09770	0.20219
0.02119	0.17668
0.40372	0.25320
0.14870	0.12566
0.12320	0.22769
0.12320	0.02363
0.14870	0.12566
0.12320	0.10015
0.07220	0.04914
0.22521	0.25320
0.09770	0.07465
0.14870	0.17668
0.12320	0.15117
0.14870	0.15117
0.19971	0.20219
0.07220	-0.00188
0.22521	0.22769
-0.31033	0.02363
0.63323	0.22769
0.22521	0.15117
0.07220	0.17668
0.02119	0.20219
0.07220	0.15117
0.12320	0.30422
0.07220	0.07465
0.19971	0.17668
0.12320	0.12566
0.12320	0.10015
0.17421	0.02363
0.14870	0.10015
0.22521	0.25320
0.07220	0.15117
0.22521	0.25320
0.09770	0.15117
0.14870	0.17668
0.22521	0.12566
0.07220	0.04914
0.19971	0.17668
0.09770	0.10015
0.12320	0.25320
0.22521	0.17668
0.07220	0.15117
0.14870	0.25320
0.12320	0.15117
0.09770	0.15117
0.32721	0.12566
0.12320	0.04914
0.17421	0.15117
0.12320	-0.05289
-0.08081	0.10015
0.32721	0.17668
0.17421	0.15117
0.02119	0.22769
0.14870	0.25320
0.12320	0.15117
0.12320	0.04914
0.17421	0.12566
0.25071	0.10015
0.17421	0.04914
0.19971	0.07465
0.22521	0.22769
0.17421	0.30422
0.07220	0.17668
0.17421	0.12566
0.22521	0.27871
0.17421	0.20219
0.02119	-0.00188
0.12320	0.10015
0.17421	0.10015
0.12320	-0.00188
0.14870	0.25320
0.22521	0.25320
0.09770	0.25320
0.17421	0.22769
0.12320	0.12566
0.07220	0.02363
0.17421	0.17668
0.12320	0.07465
0.14870	0.15117
0.22521	0.20219
0.09770	0.15117
0.17421	0.25320
0.22521	0.17668
0.07220	0.20219
0.14870	0.25320
0.14870	-0.12942
0.07220	0.12566
0.17421	0.15117
0.25071	0.20219
0.07220	0.25320
0.12320	-0.05289
0.25071	0.02363
-0.13181	0.35523
0.55673	0.25320
0.25071	0.32972
0.09770	0.15117
-0.02981	0.12566
-0.08081	0.02363
0.17421	0.04914
0.35272	0.25320
0.09770	0.10015
0.09770	0.20219
0.17421	0.30422
0.14870	0.10015
0.12320	-0.48652
0.19971	0.04914
0.17421	0.32972
0.22521	0.53379
0.32721	0.53379
0.14870	0.55929
0.02119	0.07465
0.04670	-0.69059
0.02119	-0.28246
-0.71835	-1.45582
1.55129	0.81437
1.24527	1.22250
0.91375	0.63582
-2.37596	0.73785
-2.63097	0.22769
0.35272	0.10015
-0.41233	1.04394
4.71350	-0.07840
0.76074	-0.63957
-0.23382	0.07465
-1.15188	0.71234
0.86275	-2.50164
-3.16651	-0.02739
0.60773	0.04914
0.42922	-0.71609
0.78624	0.22769
-0.51434	1.68163
1.14327	1.32453
0.12320	0.66132
-2.17195	-0.23145
3.13239	0.53379
-2.45246	-0.66508
-1.17738	0.71234
1.72980	-0.41000
0.50573	0.35523
0.58223	0.83988
-2.29945	-1.20074
0.42922	-0.30797
2.16333	2.14077
-0.36133	-0.48652
0.35272	0.10015
1.19427	-1.40480
-0.48884	-2.80773
-1.53441	1.29902
0.55673	2.80397
0.60773	-3.16484
0.45472	2.19179
0.32721	1.83468
0.32721	3.84979
0.60773	-2.50164
1.24527	-0.20594
-0.25932	-1.17523
0.35272	0.94191
-1.27939	0.53379
-0.56534	0.81437
-0.41233	0.25320
1.37278	0.38074
0.40372	-0.20594
-0.08081	0.73785
0.60773	-1.27726
0.65874	0.15117
0.02119	-1.22625
-1.43240	-0.07840
0.91375	-0.10391
0.68424	-1.63437
0.12320	0.55929
0.12320	0.91640
0.32721	1.96222
-0.20832	1.63062
-0.28482	0.35523
0.25071	-0.97117
-0.92237	-0.18043
0.68424	-0.23145
0.68424	0.02363
0.22521	1.14597
-0.00431	0.32972
-0.00431	0.71234
0.19971	0.25320
-0.10631	-1.04770
1.52579	0.43176
-0.05531	0.76336
-1.04987	1.22250
0.42922	-2.88425
0.40372	-0.10391
0.14870	0.25320
0.14870	0.10015
-0.02981	-1.40480
0.02119	0.07465
0.12320	-0.12942
0.45472	1.22250
-0.51434	1.80917
1.04126	-0.07840
-0.36133	-0.51203
0.04670	1.14597
0.37822	0.73785
0.04670	-0.35899
-0.08081	-1.50683
0.02119	1.01843
0.68424	1.17148
-0.00431	1.04394
-0.10631	0.68683
0.07220	-0.61406
0.32721	-0.38449
0.14870	0.30422
-0.10631	-0.33348
-0.31033	-0.46102
0.78624	0.15117
0.99026	-1.12422
-0.28482	0.76336
1.11776	0.43176
0.02119	-0.35899
-0.33583	-0.76711
-0.71835	0.71234
0.22521	1.17148
-0.00431	0.25320
0.14870	1.68163
1.19427	0.10015
-0.13181	-0.18043
-0.74385	0.76336
-0.79486	-1.25176
0.91375	0.04914
0.73524	0.20219
0.02119	0.68683
-0.33583	0.43176
0.35272	0.15117
0.42922	0.10015
0.53123	0.48277
0.22521	0.04914
0.58223	0.53379
-0.10631	-1.12422
-0.38683	-0.56305
0.19971	0.02363
0.22521	0.61031
0.27621	-0.38449
0.04670	1.63062
0.09770	0.73785
0.42922	-0.20594
0.14870	-0.89465
-0.05531	-1.86394
0.12320	-0.23145
-0.13181	1.47757
-0.13181	1.35003
1.04126	0.99292
0.04670	0.96742
0.65874	0.07465
-0.87136	-0.12942
0.27621	0.32972
0.27621	-0.30797
0.19971	0.25320
-0.43783	0.17668
0.04670	-0.63957
0.35272	-0.53754
0.32721	-0.46102
0.42922	0.73785
0.17421	1.22250
0.17421	-0.97117
0.09770	-1.25176
-0.10631	0.04914
0.81175	1.22250
-0.53984	0.89089
0.48022	0.32972
-0.02981	0.27871
0.09770	0.58480
0.22521	0.73785
0.07220	-0.53754
-0.08081	0.30422
0.02119	0.02363
0.48022	-0.46102
0.53123	-0.97117
0.27621	0.50828
0.42922	0.38074
-1.12638	0.48277
-0.13181	0.10015
1.47479	-0.07840
0.27621	0.66132
0.32721	0.55929
0.02119	0.86539
0.07220	-0.43551
-0.31033	-0.92016
-0.08081	-0.56305
-0.18282	-0.12942
0.22521	1.22250
0.25071	0.73785
0.12320	-0.12942
0.45472	0.66132
0.60773	-0.10391
0.19971	0.53379
0.68424	0.78886
-0.53984	-0.00188
-0.51434	0.22769
0.48022	-0.23145
0.42922	-0.00188
0.22521	-0.76711
0.25071	0.04914
0.19971	-0.05289
-0.36133	0.96742
1.42379	0.63582
-1.04987	-1.73640
-0.48884	-0.63957
0.35272	1.09496
0.27621	1.37554
-0.02981	0.35523
0.27621	-0.07840
0.27621	-0.05289
0.22521	0.45726
0.32721	0.45726
0.40372	0.35523
-0.20832	0.10015
-0.13181	0.17668
1.19427	0.12566
-0.10631	-0.30797
-0.33583	-0.23145
0.19971	-1.45582
0.42922	0.17668
0.09770	0.96742
-0.15732	0.22769
-0.02981	0.32972
0.14870	0.43176
0.09770	0.73785
0.76074	-0.02739
0.63323	-1.48133
-0.46334	0.25320
0.55673	0.81437
-0.23382	0.86539
-0.15732	0.32972
0.40372	0.40625
0.42922	0.43176
0.42922	0.12566
0.19971	-0.61406
0.09770	0.58480
0.19971	-1.48133
0.02119	-0.51203
-0.20832	1.01843
0.32721	0.04914
0.14870	0.63582
0.02119	0.55929
0.32721	0.89089
-0.00431	-0.38449
0.45472	0.04914
0.09770	0.32972
-0.08081	-0.07840
0.17421	0.25320
0.32721	0.50828
-0.02981	0.15117
0.22521	0.17668
0.07220	-2.73121
-0.10631	-0.53754
0.30171	1.42656
0.42922	0.78886
0.14870	0.99292
0.17421	0.86539
0.17421	-0.20594
0.17421	-0.46102
0.02119	0.38074
0.14870	0.71234
0.17421	0.99292
0.04670	-0.46102
0.42922	-1.25176
0.17421	0.63582
-0.08081	0.43176
0.22521	0.63582
0.22521	0.04914
-0.13181	0.15117
-0.08081	0.07465
0.60773	-0.00188
0.81175	-0.35899
-0.08081	0.25320
0.19971	0.32972
-0.10631	0.43176
-0.23382	0.15117
0.27621	0.30422
0.22521	-0.23145
0.55673	0.45726
-0.25932	0.02363
-0.25932	-0.28246
0.42922	1.50308
0.32721	-0.51203
0.30171	0.15117
0.27621	-1.20074
0.22521	-0.05289
0.19971	1.14597
0.19971	1.45206
-0.00431	0.66132
-0.08081	-0.02739
0.07220	0.43176
-0.23382	-1.71090
0.30171	-0.05289
0.32721	-0.74160
0.02119	0.45726
0.07220	1.12046
0.27621	0.12566
0.07220	-0.69059
0.30171	1.14597
0.40372	0.94191
0.02119	-0.35899
0.27621	0.17668
0.14870	-0.12942
-0.43783	0.15117
0.60773	-0.46102
0.32721	0.25320
0.12320	-0.07840
0.27621	0.12566
0.07220	0.20219
-0.23382	0.38074
0.02119	0.27871
0.07220	-0.00188
0.12320	0.20219
0.19971	-0.05289
0.25071	-0.48652
0.45472	0.07465
-0.28482	0.35523
-0.23382	0.86539
0.37822	1.12046
0.68424	1.32453
0.14870	0.25320
-0.20832	-1.99148
0.19971	-1.53234
0.27621	1.12046
0.27621	0.66132
0.40372	0.58480
0.07220	0.17668
-0.08081	0.45726
0.17421	0.45726
0.02119	-0.05289
0.04670	0.04914
0.22521	-0.41000
0.09770	-0.20594
0.14870	-0.12942
0.12320	1.12046
0.14870	-0.74160
0.35272	0.12566
0.19971	0.22769
-0.13181	0.30422
-0.20832	0.27871
0.35272	0.22769
0.53123	0.58480
0.81175	0.27871
-0.10631	0.38074
0.09770	0.15117
0.45472	-2.29757
-0.38683	0.61031
-0.41233	0.40625
0.22521	0.48277
0.76074	0.91640
-0.05531	0.73785
-0.05531	0.55929
0.35272	0.35523
0.12320	0.50828
0.25071	0.30422
0.30171	0.35523
0.30171	-2.34859
0.02119	-0.79262
0.12320	-0.28246
0.17421	0.63582
0.17421	0.48277
0.14870	0.73785
0.22521	0.83988
-0.05531	0.40625
0.12320	0.30422
0.17421	-0.66508
-0.08081	-0.58856
-0.02981	0.10015
0.14870	0.07465
0.37822	0.63582
-0.05531	0.73785
0.45472	0.04914
0.35272	-0.53754
0.09770	0.25320
0.17421	0.15117
0.14870	0.91640
0.02119	0.55929
0.04670	0.10015
0.12320	-0.99668
0.19971	0.27871
0.35272	0.48277
0.22521	0.40625
-0.18282	0.25320
-0.02981	0.30422
0.40372	0.15117
0.37822	0.12566
0.02119	-0.33348
0.07220	0.32972
0.07220	0.86539
0.53123	-1.20074
0.14870	-0.12942
0.19971	-0.20594
0.19971	0.50828
-0.61635	0.43176
-0.33583	0.07465
0.50573	-0.02739
0.19971	0.15117
0.48022	0.61031
0.37822	0.73785
0.02119	0.73785
0.17421	0.17668
0.12320	-0.00188
0.02119	-0.00188
0.09770	-0.15492
-0.43783	0.22769
0.37822	0.20219
0.55673	-1.17523
0.07220	-0.07840
0.81175	0.83988
-0.10631	0.53379
-0.31033	-0.25695
0.25071	-0.20594
0.22521	0.43176
0.02119	0.48277
0.22521	-0.41000
0.22521	0.10015
0.07220	0.94191
0.42922	-0.30797
0.02119	0.76336
-0.36133	0.48277
0.35272	0.32972
0.60773	0.07465
0.09770	-0.05289
0.19971	-0.23145
0.19971	-0.35899
0.19971	0.12566
0.27621	0.17668
0.02119	-0.12942
0.02119	0.55929
0.09770	-0.15492
0.09770	-0.30797
0.32721	-0.46102
0.32721	0.53379
0.19971	0.15117
-0.33583	0.35523
-0.18282	0.30422
0.53123	-0.18043
0.48022	1.14597
0.17421	0.63582
0.58223	0.61031
-0.00431	-0.38449
0.02119	-1.53234
-0.00431	0.10015
-0.00431	0.96742
0.17421	0.73785
0.42922	0.53379
0.27621	0.43176
0.02119	0.15117
0.14870	0.25320
0.17421	0.10015
0.04670	0.12566
0.22521	-0.84363
0.37822	-1.25176
-0.02981	0.66132
0.02119	0.63582
0.12320	0.40625
0.25071	0.35523
0.27621	0.30422
0.04670	0.15117
0.07220	0.17668
0.30171	0.30422
0.09770	0.20219
0.14870	0.43176
0.12320	0.83988
-0.00431	-0.00188
0.17421	-1.37929
0.32721	-0.10391
0.19971	-1.17523
-0.02981	-0.48652
0.50573	1.29902
0.27621	1.06945
0.19971	1.57960
-0.00431	0.99292
0.02119	-1.14973
-0.25932	0.43176
0.40372	0.35523
0.73524	0.15117
-0.43783	-0.05289
-0.38683	0.35523
0.55673	-0.35899
0.42922	0.07465
0.27621	-2.01699
0.14870	-0.38449
0.07220	0.45726
0.22521	0.58480
0.30171	0.45726
0.22521	0.66132
-0.10631	0.35523
-0.00431	0.22769
0.04670	0.32972
0.22521	0.22769
0.07220	-0.10391
0.12320	0.58480
0.32721	0.81437
0.07220	0.04914
0.04670	-0.53754
0.35272	-1.45582
0.17421	-1.07320
0.12320	-0.66508
0.30171	0.86539
0.02119	1.01843
0.07220	1.65613
0.19971	1.12046
0.07220	0.68683
0.04670	0.66132
-0.20832	0.12566
0.58223	-0.07840
0.73524	-0.33348
0.17421	-0.33348
-0.13181	-0.43551
0.07220	-0.84363
0.17421	-0.07840
0.27621	0.15117
-0.02981	-0.20594
0.25071	0.43176
0.04670	0.30422
0.22521	0.43176
-0.18282	0.10015
0.37822	0.61031
0.50573	0.53379
-0.02981	-0.48652
0.25071	0.10015
0.27621	0.27871
-0.31033	-0.05289
-0.02981	0.48277
0.32721	-0.02739
0.32721	0.45726
0.09770	0.45726
0.25071	0.53379
0.19971	0.76336
0.14870	-1.99148
0.17421	-0.10391
0.07220	0.63582
0.04670	0.38074
0.30171	0.71234
0.27621	-0.94566
0.14870	-0.92016
-0.05531	0.35523
-0.28482	0.63582
-0.13181	0.32972
-0.00431	-0.23145
0.68424	1.17148
0.42922	-0.12942
0.19971	0.15117
0.17421	0.48277
0.02119	0.22769
0.02119	-0.18043
0.02119	-0.05289
0.12320	0.20219
0.09770	-0.10391
0.32721	-0.58856
-0.02981	-0.02739
-0.02981	0.55929
0.45472	0.78886
0.32721	0.78886
0.09770	0.32972
-0.02981	0.12566
0.09770	-0.61406
0.19971	-0.33348
0.25071	0.96742
0.07220	0.43176
0.07220	-0.02739
-0.28482	-0.20594
0.48022	0.43176
0.14870	-0.02739
0.53123	0.22769
0.32721	0.45726
-0.08081	0.45726
-0.02981	0.12566
0.14870	0.25320
0.12320	-0.00188
-0.08081	-0.00188
0.17421	-0.30797
-0.02981	-0.92016
0.25071	0.30422
0.37822	0.83988
0.17421	1.06945
-0.20832	0.45726
0.53123	0.17668
0.48022	-0.89465
0.19971	0.07465
0.09770	0.20219
0.02119	0.07465
-0.15732	0.45726
0.12320	0.35523
0.25071	0.07465
0.22521	0.17668
-0.00431	0.35523
0.09770	0.07465
0.40372	0.27871
0.17421	-1.20074
-0.08081	0.89089
0.09770	0.02363
0.22521	0.38074
0.42922	1.01843
0.55673	-0.25695
0.22521	0.45726
0.07220	0.61031
-0.02981	0.30422
0.12320	-1.04770
-0.02981	0.25320
0.14870	0.48277
0.48022	0.17668
-0.05531	0.40625
-0.28482	0.35523
0.07220	-0.51203
0.35272	-0.43551
0.45472	-0.15492
0.30171	0.20219
0.09770	0.53379
0.27621	0.50828
0.07220	0.35523
-0.00431	0.30422
0.02119	0.53379
-0.33583	-0.15492
0.73524	0.17668
0.40372	-0.18043
0.07220	-0.07840
-0.08081	0.45726
0.19971	-0.38449
0.27621	0.22769
0.04670	0.86539
0.07220	-0.02739
-0.02981	-1.12422
0.09770	0.61031
0.22521	0.55929
0.17421	0.38074
0.30171	0.25320
0.04670	-0.20594
0.09770	0.91640
0.42922	-0.43551
0.17421	-0.18043
-0.00431	-1.88945
0.19971	1.12046
0.12320	0.71234
0.30171	0.68683
0.17421	-0.53754
0.22521	-0.12942
0.02119	0.89089
0.09770	0.76336
0.09770	0.10015
0.14870	-0.38449
0.14870	-0.18043
0.17421	0.04914
0.09770	0.43176
0.12320	0.38074
0.17421	0.12566
0.30171	0.30422
0.17421	0.27871
0.02119	-0.33348
0.22521	-0.38449
0.32721	0.17668
0.37822	-0.86914
-0.00431	0.53379
0.70974	1.06945
-0.13181	0.38074
-0.38683	-0.15492
0.27621	0.50828
0.09770	0.71234
0.17421	-0.25695
0.17421	0.07465
0.17421	0.17668
0.17421	0.55929
0.02119	-0.76711
0.37822	0.32972
0.14870	0.50828
-0.08081	0.25320
0.40372	0.66132
0.22521	-0.66508
0.17421	0.20219
0.32721	-0.33348
0.07220	0.27871
-0.10631	0.91640
0.12320	0.55929
0.27621	0.35523
0.04670	-0.58856
0.07220	-1.04770
0.27621	0.48277
0.12320	0.55929
-0.00431	0.61031
0.48022	0.48277
0.19971	0.48277
0.19971	0.04914
0.09770	-0.25695
0.12320	0.30422
0.12320	0.12566
0.12320	0.02363
0.17421	-0.20594
-0.18282	-0.07840
0.30171	-0.00188
0.63323	0.22769
0.27621	-0.05289
-0.18282	-0.33348
0.07220	0.63582
0.04670	0.53379
0.07220	-0.38449
0.22521	0.66132
0.22521	0.96742
0.12320	-0.10391
0.17421	-0.05289
-0.00431	0.27871
0.04670	0.12566
0.32721	0.48277
0.02119	-0.05289
0.25071	-0.48652
0.25071	0.22769
0.22521	0.35523
0.02119	0.07465
0.04670	0.27871
0.27621	0.35523
0.27621	0.30422
0.12320	0.63582
0.07220	0.27871
0.09770	-0.07840
0.12320	-2.60367
0.14870	0.48277
0.07220	1.14597
0.09770	0.45726
0.25071	0.86539
0.09770	0.32972
-0.13181	0.15117
0.55673	0.17668
0.32721	-0.07840
-0.05531	0.94191
0.07220	-0.58856
0.02119	-0.79262
-0.18282	0.30422
0.48022	0.40625
0.37822	0.32972
0.07220	0.17668
0.14870	-0.00188
0.04670	0.66132
0.09770	-0.18043
0.07220	0.38074
0.12320	0.30422
0.25071	0.10015
0.27621	-0.35899
0.12320	-0.76711
0.27621	0.61031
0.27621	0.30422
0.07220	0.35523
0.17421	-0.05289
0.07220	0.04914
0.07220	0.63582
0.19971	0.15117
0.32721	0.61031
0.02119	0.27871
-0.02981	0.10015
-0.00431	0.22769
0.50573	0.45726
0.53123	-0.56305
-0.13181	0.10015
0.12320	0.15117
0.07220	-0.33348
0.09770	-0.00188
0.17421	0.02363
0.50573	0.35523
-0.02981	0.81437
-0.08081	-0.35899
0.09770	-0.25695
0.22521	-0.02739
0.30171	0.15117
0.30171	0.02363
0.17421	1.14597
0.58223	-0.48652
0.19971	0.43176
0.17421	0.30422
-0.02981	0.38074
0.09770	0.61031
0.07220	0.20219
0.09770	0.15117
0.19971	0.17668
-0.05531	-1.37929
0.30171	-0.74160
0.25071	0.04914
0.19971	0.58480
-0.05531	0.58480
0.12320	-0.20594
-0.08081	0.81437
-0.02981	0.02363
0.58223	0.35523
0.25071	0.94191
0.07220	0.61031
0.04670	-1.04770
-0.05531	0.02363
0.40372	0.50828
0.17421	-0.05289
0.17421	0.32972
0.07220	0.32972
0.07220	0.35523
0.17421	-0.35899
0.02119	0.07465
0.17421	0.17668
0.27621	0.43176
0.04670	0.02363
0.12320	0.15117
0.17421	-0.48652
0.27621	0.38074
0.27621	0.25320
0.09770	0.27871
0.12320	-0.81812
0.09770	0.30422
0.09770	0.15117
-0.53984	0.83988
0.53123	0.61031
0.58223	-0.10391
0.04670	-0.18043
-0.08081	0.04914
0.12320	0.32972
0.07220	1.06945
0.19971	0.10015
0.12320	0.35523
0.09770	0.40625
0.25071	0.04914
-0.15732	-0.07840
-0.05531	-0.35899
0.32721	-0.94566
0.35272	0.25320
0.40372	0.45726
-0.02981	0.55929
0.25071	0.35523
0.27621	-0.43551
0.19971	-0.15492
-0.08081	0.76336
0.07220	0.12566
0.02119	-0.58856
-0.05531	0.40625
0.25071	0.45726
0.22521	0.35523
0.14870	0.25320
0.04670	-0.15492
0.40372	0.10015
-0.02981	-0.12942
-0.05531	0.27871
0.53123	-0.00188
0.09770	0.22769
0.09770	0.17668
-0.02981	-0.35899
0.04670	0.58480
-0.28482	-0.00188
0.63323	-0.41000
0.50573	0.10015
0.27621	0.04914
-0.33583	0.55929
-0.00431	0.76336
0.30171	0.83988
0.12320	0.55929
0.22521	-0.10391
0.25071	-0.28246
-0.08081	-0.61406
0.14870	0.22769
0.19971	-0.07840
0.22521	1.24800
-0.00431	-1.25176
-0.18282	-0.76711
0.22521	0.71234
0.40372	-0.69059
0.37822	0.78886
-0.08081	0.50828
0.09770	0.66132
0.25071	0.66132
0.02119	-0.28246
0.07220	-0.43551
0.02119	-0.20594
0.02119	0.68683
0.35272	0.86539
0.04670	-0.43551
0.27621	0.02363
0.12320	-0.74160
0.27621	-0.43551
0.35272	-0.12942
0.12320	0.78886
-0.28482	0.89089
-0.02981	0.86539
0.63323	0.55929
0.32721	0.07465
-0.08081	0.10015
0.32721	0.20219
0.17421	0.07465
0.04670	-0.07840
0.09770	-0.28246
-0.05531	-1.07320
0.02119	0.15117
0.30171	0.35523
0.22521	0.35523
0.09770	0.38074
0.27621	0.43176
0.25071	0.38074
0.30171	-0.51203
0.25071	0.07465
0.19971	0.66132
-0.02981	0.45726
0.17421	0.07465
-0.05531	-0.66508
0.14870	0.50828
0.17421	1.06945
0.19971	-0.81812
0.12320	-0.35899
0.25071	0.58480
0.19971	0.68683
0.09770	0.50828
0.09770	0.25320
0.12320	0.27871
0.12320	0.25320
0.48022	0.04914
-0.08081	0.30422
-0.38683	-1.17523
-0.00431	0.71234
0.40372	-0.35899
0.37822	0.61031
0.22521	-0.66508
0.25071	0.25320
-0.33583	1.22250
0.86275	-0.20594
0.53123	0.15117
-0.00431	0.04914
-0.31033	0.10015
-0.00431	0.71234
0.12320	0.04914
-0.02981	-0.12942
0.14870	-0.43551
0.35272	0.04914
0.02119	0.66132
-0.02981	0.30422
0.19971	0.25320
0.37822	-0.25695
0.17421	0.25320
0.04670	0.25320
0.48022	0.32972
0.25071	0.43176
0.17421	-0.02739
-0.08081	0.25320
-0.02981	0.12566
0.17421	0.22769
-0.05531	0.15117
0.22521	0.50828
0.35272	0.35523
0.27621	0.30422
0.17421	-0.92016
0.02119	-0.30797
0.12320	0.66132
0.37822	-0.58856
0.17421	0.32972
-0.28482	0.86539
0.27621	0.91640
0.30171	0.76336
0.07220	0.66132
0.12320	-0.66508
0.07220	-0.66508
-0.18282	0.43176
0.50573	0.04914
0.35272	-0.43551
0.14870	0.68683
-0.10631	-0.28246
0.22521	0.38074
0.22521	0.50828
0.09770	0.50828
0.19971	0.20219
0.17421	0.04914
0.14870	-0.46102
0.19971	-0.51203
0.14870	-0.05289
0.27621	0.55929
0.07220	0.63582
0.04670	0.43176
0.19971	-0.02739
0.17421	-0.48652
0.07220	0.50828
0.07220	0.53379
0.14870	0.25320
0.40372	-0.35899
0.32721	0.35523
0.09770	0.15117
0.30171	-0.12942
0.32721	0.81437
-0.38683	-0.00188
-0.64185	0.07465
0.19971	0.27871
0.65874	0.20219
0.35272	0.04914
0.17421	-0.07840
0.09770	0.15117
0.32721	-0.43551
0.19971	-0.15492
0.09770	0.50828
0.12320	0.86539
0.12320	0.50828
0.12320	-0.25695
-0.00431	0.04914
0.27621	-0.05289
-0.38683	0.35523
0.37822	0.12566
0.37822	0.27871
-0.10631	0.68683
0.27621	0.71234
0.22521	-0.00188
0.19971	-1.37929
-0.08081	0.35523
0.09770	-0.05289
0.19971	-0.23145
0.27621	-0.61406
0.19971	0.45726
-0.10631	0.83988
0.07220	0.71234
0.42922	0.35523
0.27621	0.58480
0.09770	-0.51203
0.32721	0.17668
0.07220	-0.43551
0.04670	0.43176
-0.00431	-0.07840
-0.02981	-0.05289
0.19971	0.35523
0.37822	0.55929
0.22521	0.38074
0.14870	0.63582
0.14870	0.07465
0.04670	0.63582
0.32721	-0.92016
0.27621	-0.51203
0.04670	0.48277
-0.10631	0.20219
0.14870	0.55929
0.42922	0.12566
0.17421	-0.10391
0.04670	0.45726
0.09770	0.27871
0.09770	0.53379
0.09770	-0.28246
-0.08081	-0.02739
0.25071	0.15117
0.63323	0.30422
-0.08081	0.35523
0.04670	0.17668
0.45472	-0.58856
0.27621	0.66132
0.19971	0.38074
0.07220	0.40625
0.07220	0.15117
0.09770	-0.84363
0.12320	0.45726
0.25071	0.45726
-0.18282	-0.38449
0.12320	0.10015
0.17421	0.53379
0.32721	0.73785
0.42922	0.58480
0.12320	0.15117
-0.10631	0.35523
0.42922	0.20219
0.35272	-0.07840
0.22521	-0.71609
-0.13181	0.30422
-0.13181	-1.12422
0.12320	0.71234
0.22521	0.48277
0.25071	0.27871
0.17421	0.71234
0.12320	-0.33348
-0.13181	0.17668
0.32721	0.30422
0.27621	0.55929
0.35272	0.66132
-0.05531	-0.51203
-0.20832	-0.35899
-0.02981	-0.07840
0.42922	-0.99668
0.30171	1.12046
0.12320	1.12046
0.14870	0.68683
0.27621	-0.02739
-0.18282	0.22769
0.40372	-0.12942
0.76074	0.25320
0.22521	0.53379
-0.15732	-0.38449
-0.20832	-0.02739
0.09770	0.17668
0.22521	0.25320
0.04670	-0.00188
0.17421	0.04914
0.12320	-0.43551
0.19971	-0.07840
0.04670	0.66132
-0.02981	0.48277
0.58223	-0.76711
0.53123	0.17668
0.02119	0.94191
0.25071	0.02363
-0.08081	0.22769
-0.08081	-0.07840
0.12320	0.07465
0.09770	0.61031
-0.00431	1.01843
0.17421	0.04914
0.30171	-0.35899
0.25071	-0.86914
0.22521	-0.20594
0.35272	0.66132
0.19971	0.81437
0.12320	-0.46102
-0.00431	-0.18043
0.07220	0.55929
0.14870	0.58480
0.19971	-0.05289
0.22521	0.22769
0.12320	0.02363
-0.08081	-0.10391
-0.08081	-0.12942
0.07220	0.40625
0.27621	-0.07840
0.22521	0.50828
0.19971	0.30422
-0.00431	0.17668
0.22521	-0.89465
0.42922	0.78886
0.53123	0.07465
0.19971	-0.35899
0.14870	0.78886
-0.10631	1.19699
0.07220	0.30422
0.12320	-0.02739
0.07220	0.25320
-0.02981	-1.09871
0.14870	0.35523
0.19971	0.04914
-0.05531	0.63582
0.19971	0.63582
0.40372	0.50828
0.22521	0.10015
0.17421	-0.02739
-0.00431	-0.02739
0.27621	-0.33348
0.22521	0.15117
0.04670	0.25320
-0.20832	-0.20594
0.48022	0.20219
0.40372	0.27871
-0.23382	0.10015
-0.15732	0.35523
0.07220	-0.02739
0.25071	0.17668
0.17421	0.45726
0.32721	-0.20594
0.19971	-0.10391
-0.00431	0.78886
0.22521	0.12566
0.02119	0.32972
0.22521	0.45726
0.32721	-1.96597
0.07220	0.76336
-0.31033	0.99292
0.32721	0.61031
0.27621	0.15117
0.14870	-0.74160
0.04670	0.32972
0.02119	0.66132
0.25071	0.58480
-0.08081	-0.30797
0.50573	0.20219
0.32721	-0.18043
-0.00431	0.17668
-0.28482	0.20219
0.22521	0.25320
0.17421	-0.28246
0.25071	0.32972
0.17421	-0.35899
0.14870	0.12566
0.27621	0.48277
0.12320	0.22769
-0.00431	0.17668
0.14870	0.15117
0.22521	0.17668
0.19971	-0.05289
0.07220	0.32972
0.09770	0.27871
-0.02981	0.27871
0.12320	0.76336
0.12320	0.04914
0.27621	-0.25695
0.02119	-0.56305
0.14870	-0.18043
0.22521	0.55929
0.12320	0.76336
0.14870	-0.07840
0.07220	0.38074
0.02119	0.73785
0.45472	0.55929
0.27621	0.12566
0.25071	-0.63957
0.12320	-0.23145
-0.38683	0.63582
0.02119	0.50828
0.09770	-0.38449
0.22521	-0.48652
0.25071	0.50828
0.22521	0.02363
-0.20832	0.58480
0.68424	0.15117
0.07220	-0.38449
0.17421	0.30422
0.12320	-0.58856
0.07220	0.73785
0.02119	0.61031
0.09770	0.53379
-0.08081	0.40625
0.32721	-0.05289
0.35272	0.25320
0.02119	0.55929
-0.00431	-0.94566
0.02119	0.45726
0.14870	-0.94566
0.19971	-0.94566
0.19971	0.63582
0.14870	1.04394
0.25071	0.43176
0.19971	0.38074
0.04670	0.58480
0.14870	0.25320
0.17421	0.25320
0.12320	0.10015
0.25071	-0.05289
0.19971	0.10015
0.02119	0.10015
0.07220	-0.43551
0.12320	-0.35899
0.12320	-0.02739
0.07220	0.35523
-0.18282	0.83988
0.32721	0.66132
0.17421	0.10015
0.25071	0.17668
0.42922	-0.43551
0.07220	0.38074
-0.20832	0.40625
0.27621	-1.17523
0.32721	0.48277
-0.15732	0.50828
0.53123	0.58480
0.25071	0.58480
-0.05531	-0.33348
-0.20832	-0.05289
0.22521	0.02363
0.17421	0.76336
0.04670	-1.02219
0.09770	-0.51203
0.32721	0.17668
0.25071	0.61031
0.12320	0.96742
0.19971	0.04914
0.12320	-0.43551
0.19971	0.20219
0.12320	0.30422
0.14870	0.30422
0.12320	0.35523
0.35272	0.22769
0.17421	-0.58856
0.12320	-0.05289
0.04670	0.15117
0.19971	0.48277
0.17421	0.32972
0.19971	0.15117
0.04670	0.35523
0.02119	0.17668
0.14870	-0.71609
0.02119	0.20219
0.32721	-0.10391
0.27621	0.38074
0.09770	0.45726
0.14870	0.76336
0.22521	0.50828
0.07220	0.32972
-0.20832	-0.46102
0.12320	-0.05289
0.25071	0.27871
0.30171	-1.17523
0.48022	0.25320
0.17421	0.96742
-0.13181	0.68683
0.02119	1.04394
0.09770	-0.18043
0.09770	-0.81812
0.53123	-0.00188
0.30171	0.45726
-0.00431	0.48277
-0.02981	0.38074
-0.02981	0.02363
0.12320	0.22769
0.22521	0.02363
0.22521	-0.12942
0.04670	-0.05289
0.19971	-0.35899
0.17421	0.22769
0.02119	0.58480
0.04670	-0.28246
0.30171	0.10015
0.22521	-0.38449
0.09770	0.86539
-0.02981	0.91640
-0.15732	0.48277
0.50573	-1.22625
0.70974	0.15117
0.02119	-0.02739
-0.10631	1.17148
-0.02981	0.66132
0.09770	-0.35899
0.32721	0.55929
0.12320	0.53379
-0.20832	-0.02739
0.19971	0.10015
0.35272	-0.15492
0.19971	0.17668
0.07220	0.55929
0.04670	-0.10391
0.19971	-0.84363
0.45472	0.10015
0.30171	0.25320
0.09770	0.12566
-0.05531	0.15117
0.07220	-0.48652
0.04670	0.35523
0.19971	0.20219
0.14870	0.53379
-0.02981	0.66132
0.25071	-0.56305
0.09770	0.25320
-0.00431	-0.12942
0.53123	-0.35899
0.22521	0.30422
0.14870	0.99292
-0.08081	0.15117
-0.08081	0.04914
0.02119	0.50828
0.09770	0.55929
0.14870	0.40625
0.27621	0.61031
0.25071	-0.05289
0.22521	-1.30277
0.25071	-0.23145
0.09770	-0.30797
0.09770	-0.00188
-0.10631	0.40625
0.22521	0.55929
0.25071	0.48277
0.17421	-0.76711
0.25071	0.35523
0.12320	0.40625
-0.20832	0.43176
0.09770	0.10015
0.35272	-0.05289
0.37822	-0.63957
-0.08081	0.22769
0.04670	0.53379
-0.00431	0.40625
0.17421	0.48277
0.12320	0.22769
-0.05531	0.22769
0.35272	0.40625
0.40372	-0.63957
0.22521	-0.15492
-0.02981	0.15117
-0.08081	0.45726
0.14870	0.45726
0.17421	0.61031
0.02119	-0.33348
-0.38683	-0.23145
0.55673	0.78886
0.48022	-1.14973
0.19971	0.10015
0.09770	0.38074
0.04670	-0.43551
0.19971	0.48277
0.09770	0.53379
0.02119	0.68683
0.09770	0.76336
0.07220	0.96742
0.07220	-0.28246
0.25071	-0.15492
0.30171	-1.22625
0.25071	0.12566
0.09770	0.53379
0.27621	-0.12942
0.09770	-0.99668
-0.23382	0.55929
0.07220	0.76336
0.07220	0.53379
0.37822	0.10015
0.45472	0.04914
0.17421	0.30422
0.19971	0.17668
-0.00431	0.02363
0.14870	0.15117
0.22521	0.15117
-0.05531	0.43176
0.07220	-0.10391
0.37822	0.15117
0.07220	0.04914
0.07220	0.91640
0.12320	0.10015
0.22521	-0.61406
0.02119	-1.37929
0.27621	0.25320
0.07220	0.45726
0.22521	1.06945
-0.02981	0.38074
0.12320	0.83988
0.81175	-0.30797
0.53123	0.22769
0.14870	-0.10391
-0.18282	0.45726
-0.08081	-0.28246
0.07220	-0.23145
0.07220	0.22769
0.12320	0.30422
0.22521	0.12566
0.12320	0.20219
0.17421	0.25320
0.25071	0.10015
0.48022	0.25320
0.12320	0.10015
0.04670	0.15117
-0.02981	-1.53234
0.37822	-0.07840
0.19971	0.96742
-0.00431	0.20219
0.12320	0.58480
0.12320	0.48277
0.17421	0.53379
0.07220	0.30422
0.30171	0.22769
0.27621	0.10015
0.14870	0.02363
0.09770	-0.10391
0.04670	0.15117
0.02119	0.43176
0.19971	-0.58856
0.09770	-0.56305
0.14870	0.40625
0.32721	0.20219
0.22521	0.02363
0.17421	0.48277
0.12320	0.22769
-0.25932	0.22769
0.14870	-0.35899
0.14870	1.01843
0.45472	-0.10391
0.22521	-0.23145
-0.15732	-0.15492
0.30171	0.63582
0.50573	0.35523
-0.00431	0.35523
0.12320	0.25320
-0.02981	0.17668
-0.10631	0.02363
0.09770	-0.51203
0.17421	0.45726
0.07220	-0.10391
0.17421	0.25320
0.30171	0.30422
0.14870	0.04914
0.09770	0.04914
0.30171	0.10015
0.14870	0.17668
0.04670	0.25320
0.07220	0.48277
0.12320	0.66132
0.09770	-1.27726
0.12320	-0.05289
0.25071	0.43176
0.12320	0.38074
0.14870	0.17668
0.12320	0.30422
0.14870	0.48277
-0.08081	0.50828
0.55673	-0.30797
0.68424	-0.35899
-0.15732	0.48277
-0.08081	0.96742
0.02119	-0.97117
0.07220	-0.02739
0.22521	-0.46102
0.25071	0.10015
0.35272	0.91640
-0.00431	0.89089
-0.15732	0.83988
0.32721	0.17668
0.45472	0.40625
0.17421	0.17668
0.04670	0.02363
-0.00431	-0.02739
0.12320	-0.12942
0.07220	0.04914
0.19971	0.10015
0.09770	0.27871
0.32721	-1.40480
0.09770	-1.58336
0.30171	1.09496
-0.02981	1.06945
-0.08081	0.83988
0.14870	-0.10391
0.09770	0.35523
0.12320	0.38074
0.12320	0.45726
0.32721	0.58480
0.32721	-0.35899
0.12320	0.04914
0.04670	0.35523
-0.00431	0.25320
0.19971	0.04914
0.37822	-0.20594
0.07220	-0.07840
0.19971	0.12566
0.27621	0.45726
0.09770	-0.15492
-0.15732	-0.86914
0.22521	0.68683
0.32721	0.86539
0.22521	0.99292
-0.05531	-0.15492
-0.15732	-0.07840
0.32721	0.22769
0.32721	0.17668
-0.02981	0.10015
0.09770	0.12566
0.12320	-0.00188
0.27621	-0.02739
0.22521	0.10015
0.19971	0.20219
0.17421	0.15117
0.09770	0.17668
0.17421	-0.00188
0.07220	0.27871
-0.15732	0.68683
0.55673	0.10015
0.04670	-0.46102
0.14870	0.12566
0.60773	-0.48652
0.25071	0.45726
-0.00431	0.61031
-0.13181	-0.00188
0.07220	0.43176
0.12320	0.38074
0.17421	0.48277
-0.00431	0.10015
0.22521	0.04914
0.32721	-0.05289
0.30171	0.04914
0.17421	0.25320
0.25071	-0.12942
0.07220	-0.15492
-0.00431	-0.10391
0.17421	-0.07840
0.22521	0.02363
0.12320	0.48277
0.07220	0.50828
0.07220	0.30422
0.04670	-0.71609
0.14870	0.45726
0.37822	0.68683
0.32721	0.71234
-0.18282	0.43176
0.02119	0.25320
0.22521	-0.25695
0.22521	-2.39961
0.14870	0.22769
-0.00431	0.83988
0.14870	0.35523
0.35272	0.66132
0.12320	0.99292
-0.13181	0.76336
0.30171	0.55929
0.63323	0.25320
0.30171	-0.05289
-0.05531	-0.51203
-0.00431	-0.58856
0.12320	0.20219
0.27621	0.02363
0.22521	0.10015
0.12320	0.71234
-0.00431	-1.02219
0.40372	0.02363
0.30171	0.30422
-0.18282	0.48277
0.04670	0.61031
0.09770	0.43176
0.22521	0.30422
0.09770	-0.05289
0.14870	0.25320
0.17421	-0.00188
0.22521	-0.28246
0.22521	0.38074
0.12320	0.40625
0.14870	0.22769
0.09770	-0.38449
-0.00431	0.30422
0.32721	0.35523
0.17421	-0.41000
0.02119	0.50828
0.14870	1.22250
0.17421	-0.53754
0.09770	-0.05289
0.02119	-2.06800
-0.10631	0.76336
0.60773	0.55929
0.27621	0.86539
-0.05531	0.66132
0.27621	0.71234
0.02119	0.30422
-0.10631	0.25320
-0.05531	-0.38449
0.07220	-0.58856
0.37822	-0.43551
0.40372	0.17668
0.22521	0.15117
-0.71835	-0.10391
0.60773	0.30422
0.42922	0.35523
0.09770	0.43176
-0.10631	0.32972
0.27621	0.15117
0.22521	0.07465
0.04670	0.02363
0.04670	0.12566
0.07220	0.38074
0.35272	0.55929
0.14870	0.12566
-0.02981	-0.20594
0.07220	-0.46102
0.25071	0.50828
0.25071	0.15117
0.12320	-0.58856
0.27621	-1.07320
0.27621	1.29902
0.09770	0.76336
0.09770	0.91640
0.02119	0.63582
0.12320	0.55929
0.07220	-0.41000
0.09770	-0.18043
0.25071	-0.28246
0.19971	-0.02739
0.30171	-1.37929
0.14870	0.32972
0.12320	0.40625
0.37822	0.48277
-0.08081	0.27871
0.07220	0.17668
0.14870	0.27871
0.02119	0.07465
0.19971	0.38074
0.32721	-0.00188
-0.08081	0.17668
0.09770	-0.18043
0.19971	-0.25695
0.19971	0.55929
0.12320	0.40625
0.07220	0.58480
0.45472	0.27871
0.25071	0.32972
0.02119	0.02363
-0.05531	0.30422
0.12320	0.12566
0.09770	-1.40480
0.35272	-0.74160
0.09770	1.40105
0.09770	0.02363
0.30171	0.66132
0.14870	0.45726
0.17421	0.81437
0.14870	0.58480
-0.28482	0.25320
0.17421	-0.66508
0.55673	-0.23145
0.12320	-0.05289
-0.05531	0.35523
0.02119	0.48277
0.12320	0.27871
0.32721	0.30422
0.22521	0.12566
0.09770	-0.05289
0.12320	-0.84363
0.09770	0.15117
-0.02981	0.43176
0.17421	0.53379
0.50573	0.27871
0.17421	0.27871
0.07220	0.45726
0.19971	0.45726
0.12320	0.04914
0.12320	-0.33348
0.17421	0.53379
0.22521	-0.10391
-0.05531	0.20219
0.30171	-0.46102
-0.00431	0.53379
0.22521	-0.02739
0.48022	-0.46102
-0.10631	0.66132
0.32721	0.55929
0.40372	0.58480
0.14870	0.43176
-0.08081	0.35523
0.04670	0.12566
0.12320	-0.30797
0.12320	-0.23145
0.02119	0.10015
0.04670	-0.02739
0.14870	0.32972
0.27621	0.12566
0.25071	0.27871
0.19971	-0.71609
0.17421	-0.00188
0.19971	0.04914
-0.05531	1.29902
0.22521	1.17148
0.25071	0.63582
0.19971	-1.17523
0.02119	-0.20594
0.04670	0.86539
0.25071	0.20219
0.40372	0.27871
0.04670	-0.43551
0.07220	0.68683
0.09770	-0.00188
0.12320	0.55929
-0.20832	-0.10391
-0.02981	0.40625
0.19971	0.71234
0.35272	-0.61406
0.27621	-0.18043
0.19971	-0.20594
0.25071	0.20219
0.12320	0.10015
0.22521	0.15117
0.07220	0.45726
-0.05531	0.50828
0.09770	0.04914
-0.08081	0.07465
0.63323	-0.56305
0.30171	0.55929
0.14870	0.38074
0.53123	0.45726
0.12320	-0.23145
0.04670	0.27871
-0.13181	0.30422
0.17421	0.17668
0.14870	0.48277
0.12320	0.10015
0.19971	0.15117
-0.20832	-0.86914
0.19971	-0.33348
0.27621	0.32972
0.22521	0.30422
0.17421	0.55929
0.27621	0.15117
0.09770	0.35523
0.19971	-0.05289
0.14870	0.71234
0.30171	0.89089
0.40372	-1.40480
-0.20832	-1.04770
-0.28482	0.61031
0.25071	1.37554
0.35272	0.25320
0.19971	0.66132
0.09770	-0.66508
0.14870	-0.10391
0.35272	0.61031
0.09770	0.45726
0.04670	0.22769
0.19971	0.02363
0.12320	-0.05289
0.22521	-0.07840
0.07220	0.15117
0.09770	0.12566
0.12320	0.07465
0.27621	-0.00188
0.37822	0.30422
0.09770	-0.66508
0.30171	0.43176
0.14870	0.55929
0.17421	0.04914
0.02119	0.20219
0.04670	0.27871
-0.05531	0.07465
-0.05531	0.27871
0.55673	-0.15492
0.48022	0.32972
0.14870	0.50828
-0.00431	0.38074
-0.25932	-0.12942
-0.05531	0.22769
0.32721	0.66132
0.35272	0.38074
0.14870	-0.41000
0.22521	-1.09871
0.22521	0.66132
0.19971	0.48277
0.09770	0.58480
0.17421	-0.12942
0.22521	-0.51203
-0.00431	0.32972
-0.00431	0.45726
0.19971	0.38074
0.04670	0.66132
0.17421	0.15117
0.19971	-0.12942
0.22521	0.12566
0.40372	0.10015
0.12320	-0.23145
-0.20832	0.10015
0.45472	0.30422
0.02119	-0.43551
-0.23382	0.48277
0.22521	0.91640
0.12320	0.61031
0.12320	-0.38449
0.19971	-0.18043
0.22521	-0.23145
0.22521	0.30422
0.22521	0.50828
-0.05531	0.76336
0.12320	0.20219
0.19971	0.17668
0.58223	-0.28246
0.22521	-0.02739
-0.00431	-0.00188
-0.02981	0.35523
-0.02981	0.30422
0.02119	0.12566
0.42922	-0.41000
0.35272	0.32972
0.09770	0.22769
0.02119	0.25320
0.12320	0.30422
0.17421	-0.00188
-0.10631	-0.02739
0.17421	0.32972
0.25071	-0.02739
0.07220	-0.23145
0.07220	-0.23145
0.30171	0.48277
-0.02981	-0.46102
0.37822	0.61031
0.22521	0.66132
0.07220	0.86539
0.12320	0.25320
0.19971	0.48277
0.12320	-0.18043
0.04670	0.17668
0.22521	-0.97117
0.12320	-0.15492
0.17421	-0.15492
0.02119	-0.56305
0.12320	1.01843
0.14870	0.78886
0.22521	0.38074
0.12320	0.45726
0.07220	0.40625
-0.08081	0.12566
0.58223	0.02363
0.40372	-0.18043
0.02119	-0.07840
0.19971	0.12566
0.09770	-0.79262
0.07220	0.10015
0.04670	0.35523
-0.10631	0.50828
0.40372	0.43176
0.32721	0.73785
0.17421	-0.02739
0.02119	-0.20594
0.12320	0.43176
0.02119	0.35523
0.19971	0.48277
0.14870	0.50828
0.37822	0.22769
0.12320	-0.05289
-0.08081	-0.15492
-0.05531	-0.28246
0.12320	-0.10391
0.40372	0.35523
0.25071	0.55929
0.09770	0.17668
0.17421	0.30422
0.22521	-1.30277
0.04670	0.55929
-0.02981	0.63582
0.22521	0.02363
0.14870	0.71234
0.30171	-0.15492
0.02119	0.25320
0.19971	-0.89465
0.17421	0.96742
0.17421	0.22769
0.12320	0.61031
0.07220	0.35523
0.12320	0.22769
0.14870	-0.43551
0.19971	-0.61406
0.09770	0.61031
0.17421	0.78886
0.22521	-0.12942
0.22521	0.32972
0.02119	-0.35899
0.04670	0.53379
0.19971	0.17668
0.22521	-0.07840
0.09770	0.15117
0.07220	-0.07840
0.12320	0.50828
0.17421	0.45726
0.30171	0.35523
0.14870	0.10015
