-0.18282	0.22769
-0.02981	0.20219
0.02119	0.12566
0.04670	0.20219
0.09770	0.20219
0.27621	0.12566
0.17421	0.22769
0.17421	0.20219
0.17421	0.07465
0.19971	0.15117
0.17421	0.12566
0.14870	0.10015
0.12320	0.12566
0.12320	0.12566
0.09770	0.22769
0.09770	0.17668
0.07220	0.15117
0.17421	0.15117
0.19971	0.15117
0.22521	0.15117
0.17421	0.17668
0.17421	0.20219
0.12320	0.10015
0.09770	0.07465
0.09770	0.15117
0.12320	0.20219
0.14870	0.20219
0.17421	0.20219
0.17421	0.15117
0.19971	0.15117
0.14870	0.17668
0.17421	0.10015
0.12320	0.12566
0.12320	0.10015
0.07220	0.20219
0.12320	0.04914
0.12320	0.17668
0.17421	0.25320
0.17421	0.04914
0.14870	0.15117
0.14870	0.32972
0.19971	0.35523
0.27621	0.30422
0.22521	0.25320
0.14870	0.12566
0.09770	0.12566
0.07220	-0.02739
0.12320	-0.10391
0.19971	0.07465
0.12320	0.15117
0.04670	0.30422
0.09770	0.25320
0.22521	0.20219
0.12320	0.17668
0.17421	0.22769
0.12320	0.07465
0.12320	-0.02739
0.32721	0.12566
0.27621	0.15117
-0.10631	0.17668
0.68424	0.25320
0.12320	0.22769
0.07220	0.25320
0.32721	0.20219
0.14870	0.12566
-0.18282	0.04914
0.25071	0.07465
-0.02981	0.30422
0.40372	0.15117
-0.28482	0.10015
0.42922	-0.28246
2.36734	0.27871
-0.05531	0.32972
0.14870	0.27871
-2.63097	0.32972
-1.20288	0.32972
2.67337	-0.12942
1.01576	-0.02739
-0.28482	0.32972
-0.87136	0.25320
-0.23382	0.22769
0.76074	0.17668
0.91375	0.02363
0.02119	0.02363
-0.23382	0.15117
0.09770	0.10015
0.02119	0.15117
0.19971	0.15117
0.27621	0.15117
0.35272	0.20219
0.30171	0.25320
0.27621	0.15117
0.22521	-0.02739
0.17421	-0.30797
0.14870	0.02363
-0.00431	0.48277
0.04670	0.38074
0.02119	-0.18043
0.12320	0.35523
0.07220	0.53379
0.02119	0.45726
0.12320	0.25320
0.27621	0.15117
0.22521	-0.41000
0.12320	-0.35899
0.09770	0.22769
0.17421	0.27871
0.12320	0.27871
0.14870	0.30422
0.22521	0.25320
0.14870	-0.00188
0.25071	-0.18043
0.17421	0.22769
0.12320	0.25320
0.14870	0.22769
0.12320	0.27871
0.14870	0.10015
0.14870	0.15117
0.14870	0.25320
0.09770	0.10015
0.12320	0.04914
0.09770	-0.05289
0.14870	-0.15492
0.25071	0.12566
0.22521	0.25320
0.02119	0.43176
-0.00431	0.32972
0.19971	0.32972
0.30171	0.32972
0.30171	-0.12942
-0.00431	0.15117
0.55673	0.02363
0.07220	-0.53754
0.07220	0.25320
0.09770	0.45726
-0.00431	0.38074
0.07220	0.48277
0.12320	0.35523
0.12320	0.15117
0.07220	-0.18043
0.12320	-0.30797
0.12320	0.20219
0.22521	-0.00188
0.25071	0.22769
0.14870	0.48277
0.19971	-0.69059
0.14870	0.38074
0.22521	0.63582
0.12320	0.63582
0.07220	-1.37929
0.19971	-0.25695
0.22521	1.19699
0.25071	0.76336
0.14870	0.43176
0.09770	0.63582
0.04670	-0.10391
0.04670	-0.79262
0.07220	0.40625
0.02119	0.94191
0.12320	-0.18043
0.27621	-0.58856
0.22521	0.10015
0.27621	0.17668
0.14870	-0.02739
0.12320	0.17668
0.07220	0.25320
0.12320	0.32972
0.12320	0.02363
0.12320	0.45726
0.19971	0.25320
0.19971	-0.53754
0.12320	0.04914
0.19971	0.63582
0.17421	-0.00188
0.14870	0.02363
0.14870	0.15117
0.12320	0.55929
0.14870	0.48277
0.07220	-0.05289
0.09770	0.25320
0.09770	0.20219
0.17421	0.02363
0.14870	0.20219
0.17421	0.15117
0.22521	0.04914
0.19971	-1.76191
0.22521	0.04914
0.17421	0.45726
0.14870	0.99292
0.12320	0.53379
0.09770	-0.58856
0.09770	-0.05289
0.12320	0.55929
0.17421	0.58480
0.25071	0.58480
0.14870	0.32972
0.19971	0.20219
0.17421	-0.15492
0.25071	0.15117
0.30171	-0.02739
0.22521	-0.46102
-0.02981	0.17668
0.09770	0.02363
0.14870	0.25320
0.17421	0.22769
0.19971	0.27871
0.19971	0.40625
0.22521	0.35523
0.12320	-0.28246
0.09770	0.20219
0.12320	0.07465
0.19971	0.50828
0.22521	0.32972
0.12320	0.58480
0.07220	0.38074
0.12320	0.22769
0.19971	-1.43031
0.12320	0.04914
0.07220	0.40625
0.07220	0.25320
0.04670	0.35523
0.22521	0.30422
0.25071	-0.15492
0.32721	0.27871
0.30171	0.30422
0.22521	0.12566
0.12320	0.07465
0.07220	0.04914
0.09770	-0.18043
0.07220	-0.15492
0.04670	0.32972
0.07220	0.53379
0.14870	0.25320
0.09770	-0.07840
0.09770	0.27871
0.12320	0.20219
0.19971	0.43176
0.25071	0.30422
0.17421	0.15117
0.12320	0.04914
0.07220	0.10015
0.12320	0.17668
0.19971	0.10015
0.12320	0.07465
0.12320	0.02363
0.09770	0.32972
0.14870	-0.07840
0.17421	-0.02739
0.07220	-0.23145
0.07220	0.38074
0.14870	0.55929
0.27621	0.45726
0.25071	0.17668
0.14870	-0.43551
0.09770	-0.10391
0.17421	0.35523
0.12320	0.58480
0.22521	0.38074
0.12320	0.12566
0.04670	-0.18043
0.07220	0.58480
0.22521	-0.10391
0.19971	-0.23145
0.14870	0.35523
0.14870	-0.23145
0.17421	0.27871
0.04670	0.12566
0.12320	0.40625
0.19971	0.38074
0.09770	-0.25695
-0.05531	0.30422
0.22521	0.38074
0.37822	0.32972
0.17421	0.15117
0.17421	0.12566
0.19971	-0.10391
0.19971	-0.41000
0.17421	0.07465
0.07220	0.43176
-0.00431	0.20219
0.22521	-0.23145
0.25071	0.35523
0.19971	0.38074
0.12320	0.10015
0.07220	0.53379
0.12320	0.10015
0.25071	0.22769
0.12320	0.27871
0.07220	0.07465
0.14870	-0.25695
0.22521	0.15117
0.25071	-0.00188
0.14870	0.43176
0.09770	0.07465
0.17421	0.04914
0.22521	0.32972
0.27621	0.15117
0.12320	0.04914
0.09770	0.15117
-0.10631	0.15117
-0.05531	0.20219
0.32721	0.25320
0.32721	0.15117
0.25071	0.25320
0.19971	0.17668
0.12320	-0.18043
0.07220	0.40625
0.14870	-0.46102
0.14870	0.27871
0.09770	0.38074
0.07220	0.20219
0.09770	0.25320
0.25071	0.30422
0.27621	-0.30797
0.25071	0.15117
0.12320	0.10015
0.07220	0.27871
0.02119	0.58480
0.12320	0.35523
0.19971	0.04914
0.19971	0.45726
0.22521	0.02363
0.27621	-0.35899
0.14870	0.02363
0.17421	0.32972
0.09770	0.17668
0.07220	-0.00188
0.14870	0.04914
0.04670	0.35523
0.09770	0.38074
0.17421	-0.41000
0.19971	0.12566
0.17421	0.10015
0.17421	0.35523
0.07220	0.22769
0.02119	0.27871
0.19971	0.20219
0.09770	0.15117
0.09770	0.12566
0.27621	0.04914
0.25071	0.12566
0.17421	0.22769
0.22521	0.32972
0.19971	0.10015
0.09770	0.04914
0.12320	-0.15492
0.02119	-0.05289
0.07220	-0.02739
0.14870	0.55929
0.09770	0.45726
0.09770	0.45726
0.19971	-0.00188
0.17421	0.12566
0.12320	0.10015
0.22521	0.20219
0.19971	0.04914
0.25071	0.22769
0.17421	0.10015
0.14870	0.07465
0.12320	-0.71609
0.14870	0.25320
0.12320	0.58480
0.12320	0.27871
0.12320	0.35523
0.19971	-0.48652
0.22521	0.17668
0.19971	0.50828
0.07220	0.58480
0.12320	0.58480
0.12320	-0.33348
0.12320	0.17668
0.22521	-0.10391
0.17421	0.15117
0.17421	0.30422
0.14870	0.15117
0.09770	0.15117
0.09770	-0.20594
0.04670	0.17668
0.17421	0.22769
0.14870	0.20219
0.09770	0.07465
0.12320	0.61031
0.25071	-0.02739
0.25071	0.12566
0.12320	-0.05289
0.17421	0.55929
0.14870	0.35523
0.12320	-0.18043
0.17421	-0.58856
0.14870	0.40625
0.09770	0.48277
0.02119	0.38074
0.19971	0.35523
0.22521	0.27871
0.25071	0.12566
0.17421	-0.02739
0.09770	-0.05289
0.12320	0.15117
0.19971	0.07465
0.09770	0.15117
0.09770	0.20219
0.12320	0.04914
0.17421	0.12566
0.12320	-0.05289
0.19971	0.30422
0.25071	0.35523
0.25071	0.12566
0.12320	-0.02739
0.07220	0.20219
0.09770	0.35523
0.19971	0.35523
0.09770	0.32972
0.09770	-0.25695
0.17421	-0.10391
0.22521	0.81437
0.12320	0.07465
0.02119	-0.18043
0.12320	-0.38449
0.17421	0.27871
0.17421	0.66132
0.12320	0.45726
0.12320	0.43176
0.27621	-0.41000
0.12320	0.38074
0.07220	-0.05289
0.19971	0.15117
0.19971	0.15117
0.19971	0.07465
0.12320	0.12566
0.07220	0.15117
0.07220	0.20219
0.09770	0.17668
0.17421	0.17668
0.27621	0.10015
0.12320	0.15117
0.14870	0.15117
0.07220	0.27871
0.07220	0.15117
0.17421	0.17668
0.12320	-0.02739
0.12320	0.22769
0.12320	-0.07840
0.17421	0.15117
0.35272	0.10015
0.27621	0.27871
0.22521	0.43176
0.14870	0.22769
0.04670	0.20219
0.12320	0.27871
0.12320	0.25320
0.17421	0.07465
0.17421	-0.12942
0.17421	0.20219
0.12320	-0.00188
0.07220	-0.12942
0.02119	0.25320
0.12320	0.27871
0.22521	-0.00188
0.17421	0.10015
0.25071	-0.20594
0.22521	-0.18043
0.14870	0.43176
0.09770	0.45726
0.14870	0.32972
0.14870	0.45726
0.09770	0.35523
0.19971	0.15117
0.14870	-0.00188
0.17421	-1.30277
0.17421	0.50828
0.22521	0.61031
0.09770	0.45726
0.09770	0.58480
0.14870	0.30422
0.12320	-0.00188
0.12320	-0.43551
0.22521	-0.05289
0.19971	0.30422
0.22521	0.27871
0.12320	0.20219
0.12320	0.10015
0.09770	0.12566
0.09770	0.10015
0.19971	0.04914
0.14870	0.10015
0.14870	0.15117
0.17421	0.25320
0.14870	0.10015
0.12320	0.17668
0.12320	0.02363
0.17421	0.20219
0.12320	0.12566
0.09770	0.02363
0.12320	-0.15492
0.17421	0.22769
0.12320	0.40625
0.04670	0.45726
0.09770	0.27871
0.12320	0.02363
0.22521	0.00000
0.27621	0.22769
0.25071	0.30422
0.32721	0.07465
0.17421	0.15117
0.12320	-0.07840
0.12320	0.22769
0.09770	0.48277
0.07220	0.30422
0.04670	-0.25695
0.02119	-0.25695
0.02119	0.32972
0.07220	0.43176
0.22521	0.20219
0.17421	0.12566
0.14870	0.04914
0.12320	0.15117
0.22521	0.10015
0.17421	0.07465
0.22521	0.27871
0.27621	0.15117
0.14870	0.02363
0.22521	0.10015
0.19971	0.27871
0.09770	0.35523
0.09770	0.40625
0.04670	0.35523
0.14870	-1.04770
0.12320	-0.02739
-0.00431	0.68683
-0.00431	0.45726
0.14870	0.07465
0.14870	0.07465
0.22521	0.86539
0.27621	0.40625
0.22521	-0.25695
0.19971	-0.46102
0.12320	0.35523
-0.00431	-0.00188
0.14870	0.38074
0.12320	0.40625
0.19971	0.25320
0.22521	0.04914
0.17421	0.04914
0.09770	0.12566
0.12320	0.15117
0.19971	0.02363
0.09770	0.10015
0.07220	-0.00188
0.12320	0.07465
0.17421	0.20219
0.27621	0.22769
0.25071	0.17668
0.17421	0.12566
0.12320	0.17668
0.07220	0.22769
0.07220	0.10015
0.09770	0.25320
0.17421	0.07465
0.12320	0.17668
0.07220	0.20219
-0.00431	0.02363
0.17421	0.35523
0.22521	0.15117
0.19971	-0.18043
0.25071	0.22769
0.19971	0.61031
0.19971	-0.25695
0.12320	0.25320
0.12320	0.15117
0.17421	0.25320
0.12320	0.04914
0.12320	-0.05289
0.14870	0.48277
0.14870	0.22769
0.07220	0.10015
0.14870	0.22769
0.04670	0.17668
0.02119	-0.35899
0.14870	-0.05289
0.17421	-0.05289
0.12320	0.02363
0.07220	0.07465
0.12320	0.35523
0.14870	0.15117
0.19971	0.12566
0.17421	-0.00188
0.17421	0.25320
0.12320	0.22769
0.12320	0.04914
0.07220	-0.00188
0.02119	0.10015
0.19971	0.30422
0.19971	0.12566
0.19971	-0.00188
0.19971	0.22769
0.19971	0.15117
0.19971	-0.12942
0.12320	0.22769
0.14870	0.32972
0.12320	0.27871
0.12320	0.22769
0.12320	-0.30797
0.09770	0.22769
0.12320	0.04914
0.12320	0.27871
0.14870	0.22769
0.17421	0.20219
0.19971	0.22769
0.17421	0.20219
0.07220	0.22769
0.14870	-0.18043
0.17421	-0.38449
0.25071	-0.05289
0.17421	0.40625
0.04670	0.48277
0.12320	0.40625
0.09770	0.22769
0.17421	0.25320
0.12320	0.10015
0.12320	0.02363
0.12320	0.07465
0.22521	0.17668
0.17421	0.30422
0.12320	0.15117
0.12320	-0.25695
0.12320	0.25320
0.19971	-0.02739
0.14870	0.25320
0.12320	0.35523
0.04670	0.35523
0.12320	0.04914
0.17421	0.04914
0.17421	0.32972
0.12320	0.38074
0.12320	0.20219
0.22521	0.17668
0.25071	-0.23145
0.04670	0.22769
0.09770	0.32972
0.19971	0.25320
0.14870	0.38074
0.22521	-0.53754
0.25071	0.12566
0.12320	-0.33348
0.14870	0.63582
0.02119	0.04914
0.04670	1.14597
-0.00431	-0.33348
0.17421	-0.56305
0.30171	1.63062
0.30171	-0.61406
0.19971	-0.51203
0.22521	1.52859
0.09770	0.35523
0.02119	0.96742
-0.02981	-2.47613
-0.08081	0.40625
0.07220	1.42656
0.17421	-0.28246
0.32721	0.15117
0.27621	-0.25695
0.09770	1.86019
0.17421	0.22769
0.22521	-0.28246
0.19971	-0.97117
0.42922	-1.12422
0.30171	0.40625
0.14870	2.08976
-0.08081	-0.56305
-0.38683	-0.23145
-0.71835	-0.28246
-0.53984	-2.39961
-0.28482	3.59471
0.35272	1.83468
0.83725	0.96742
1.14327	-0.63957
0.96476	-1.25176
0.83725	1.22250
0.35272	0.38074
-0.02981	-0.25695
-0.25932	-0.28246
-0.46334	-1.88945
-0.20832	-0.66508
-0.15732	7.90552
-0.36133	-4.51675
-0.82036	0.91640
0.02119	-0.99668
0.42922	-0.63957
1.04126	-3.77702
0.83725	-1.76191
0.42922	7.29334
-0.13181	0.20219
-0.36133	2.03874
-0.51434	-2.62918
-0.00431	1.27351
0.30171	-1.22625
0.88825	-1.94047
1.14327	5.83940
1.42379	-2.04250
1.01576	-4.49124
0.32721	2.54890
-0.94787	1.06945
-2.29945	-0.66508
-1.61091	-1.07320
0.02119	0.40625
1.11776	0.53379
1.09226	-0.10391
0.27621	0.86539
-0.74385	-0.05289
-0.13181	-2.29757
1.24527	1.91120
1.19427	2.57441
0.50573	2.49788
-0.41233	-0.74160
-0.23382	-2.19554
0.07220	-2.60367
0.02119	3.39065
0.22521	-1.83844
0.17421	-0.76711
-0.28482	3.59471
0.14870	1.40105
-0.59084	-0.97117
-0.15732	-4.77183
-0.18282	2.70194
0.37822	1.22250
0.55673	0.83988
0.88825	-0.48652
1.65330	-0.20594
1.34728	0.30422
0.45472	-0.58856
-0.59084	2.62542
-1.50890	-0.23145
-0.97337	-1.88945
-0.28482	1.47757
0.45472	0.38074
0.88825	-0.74160
0.65874	1.35003
0.58223	-1.60887
0.53123	-0.02739
0.02119	0.32972
0.14870	0.45726
0.50573	-0.41000
0.14870	0.12566
-0.13181	-1.60887
-0.33583	0.58480
-0.36133	1.35003
-0.13181	1.52859
0.12320	-1.63437
0.37822	1.96222
0.37822	-0.28246
-0.08081	1.96222
-0.48884	-1.25176
-0.20832	-0.10391
0.48022	2.26831
0.73524	-0.10391
0.53123	0.12566
0.65874	-3.93007
0.76074	-0.66508
0.02119	-0.46102
-0.08081	1.52859
-0.28482	2.37034
0.25071	0.38074
0.73524	2.37034
0.53123	-2.52714
-0.18282	-1.76191
-0.51434	-1.50683
0.22521	1.96222
0.32721	1.80917
0.45472	1.06945
-0.02981	-0.61406
-0.41233	0.78886
-0.08081	0.32972
0.45472	-0.84363
0.40372	-0.30797
0.22521	0.12566
0.04670	-0.33348
-0.13181	-0.10391
-0.28482	1.52859
0.30171	-0.61406
0.25071	0.55929
0.32721	-0.25695
0.48022	1.68163
0.35272	1.12046
-0.00431	2.03874
0.07220	-1.63437
0.12320	-2.55265
0.58223	-0.46102
0.63323	-0.41000
0.19971	1.50308
-0.02981	1.14597
-0.36133	-0.69059
-0.33583	1.57960
-0.43783	-1.02219
-0.10631	0.53379
0.45472	-1.32828
0.73524	0.40625
0.76074	1.04394
0.55673	0.86539
-0.08081	-0.20594
-0.25932	0.63582
0.02119	0.83988
0.86275	-0.63957
0.45472	0.89089
-0.28482	-0.99668
-1.53441	0.35523
-1.53441	-0.35899
0.73524	0.43176
1.57679	0.35523
1.62780	-1.45582
0.91375	1.06945
0.42922	-1.04770
0.37822	1.98773
0.02119	1.27351
-0.18282	0.43176
-0.48884	-0.69059
-0.71835	-0.38449
-0.15732	-1.76191
0.02119	0.55929
0.42922	1.60511
0.45472	1.35003
-0.10631	-0.15492
-0.00431	-0.53754
0.22521	-2.52714
0.30171	1.78367
0.09770	0.04914
-0.05531	-0.12942
0.30171	1.50308
0.40372	0.38074
0.14870	1.01843
0.42922	-1.30277
0.45472	2.70194
0.86275	-0.15492
0.40372	-1.50683
-0.48884	0.48277
-0.89686	-1.71090
-1.20288	-1.76191
-0.00431	2.19179
0.81175	0.86539
0.73524	0.38074
0.81175	0.61031
0.40372	-0.28246
0.19971	-0.23145
0.19971	-1.09871
-0.00431	-0.99668
-0.05531	-0.23145
0.27621	0.91640
-0.00431	1.86019
0.22521	0.38074
0.22521	0.50828
-0.28482	0.22769
-0.48884	-1.71090
-0.02981	2.01323
0.27621	0.25320
0.73524	1.06945
0.27621	0.12566
-0.79486	-1.96597
-1.22839	0.22769
0.40372	0.86539
0.88825	1.42656
1.34728	0.45726
1.09226	-1.07320
0.73524	-0.86914
0.42922	-0.33348
0.07220	1.88570
-0.38683	-0.38449
-0.33583	1.27351
-0.08081	-2.73121
-0.05531	-1.07320
0.02119	2.90601
-0.00431	1.98773
-0.02981	0.94191
-0.00431	-2.62918
-0.02981	-0.07840
0.40372	0.15117
0.37822	-0.00188
0.32721	0.43176
0.40372	0.53379
0.42922	0.73785
-0.48884	0.61031
-1.10088	-0.35899
-0.56534	-0.18043
0.50573	0.91640
1.52579	0.04914
1.06676	0.58480
0.55673	-3.64948
-0.00431	-1.81293
0.19971	2.29382
0.58223	1.12046
0.27621	2.08976
-0.48884	-0.15492
-0.53984	0.12566
-0.31033	-1.43031
-0.02981	1.45206
0.25071	1.68163
0.35272	-0.99668
0.50573	0.96742
0.30171	-0.30797
-0.36133	0.45726
-0.79486	-2.04250
0.02119	0.04914
0.55673	-1.07320
0.48022	1.47757
0.45472	1.98773
0.45472	0.38074
0.60773	-1.07320
0.30171	1.37554
-0.02981	-0.23145
-0.08081	-0.12942
0.19971	0.94191
0.45472	0.17668
0.19971	-0.58856
-0.13181	-0.12942
-1.04987	1.78367
0.02119	-1.60887
0.78624	-0.18043
0.63323	0.25320
-0.46334	0.22769
-0.69285	0.58480
0.37822	0.17668
0.83725	-0.66508
0.93925	1.19699
0.27621	-1.02219
0.12320	0.94191
0.22521	-1.30277
0.27621	0.83988
0.27621	1.35003
0.40372	0.99292
0.04670	1.27351
-0.13181	-0.25695
-0.25932	-1.50683
-0.28482	2.67644
-0.08081	-2.55265
0.25071	0.07465
-0.00431	0.40625
-0.02981	0.30422
-0.00431	0.45726
0.22521	-1.02219
0.45472	-0.46102
0.30171	2.52339
0.45472	-1.32828
0.35272	-1.76191
0.32721	-1.68539
0.19971	2.34484
-0.08081	0.96742
0.02119	1.29902
0.22521	1.04394
0.37822	-1.37929
-0.05531	1.06945
-0.43783	0.17668
-0.08081	-1.22625
0.22521	-0.02739
0.40372	1.57960
0.12320	-0.00188
0.83725	0.55929
0.65874	0.25320
0.14870	-0.48652
-0.36133	-0.48652
-0.33583	0.66132
0.25071	-0.35899
0.60773	1.04394
0.50573	-0.20594
0.07220	0.10015
-0.00431	-0.43551
0.12320	1.37554
-0.08081	-1.81293
-0.02981	0.71234
-0.05531	1.32453
0.17421	-1.73640
0.09770	-0.10391
-0.02981	1.35003
0.25071	1.83468
0.42922	1.12046
0.27621	0.10015
0.12320	0.81437
-0.05531	0.61031
-0.13181	0.43176
0.55673	-1.40480
0.48022	-2.29757
0.30171	0.17668
0.09770	0.53379
-0.15732	0.89089
0.02119	1.09496
0.30171	-0.02739
0.48022	-0.76711
0.42922	0.68683
0.02119	0.86539
-0.18282	-0.61406
-0.05531	0.53379
-0.33583	1.32453
-0.48884	0.55929
0.19971	-1.09871
0.22521	1.27351
0.40372	-1.04770
0.35272	-0.51203
0.81175	1.12046
0.68424	-0.71609
-0.05531	0.15117
-0.76936	1.60511
0.12320	0.43176
0.40372	-0.81812
0.30171	0.10015
0.04670	0.99292
-0.25932	-1.12422
0.07220	0.30422
0.22521	0.76336
0.40372	-0.48652
-0.02981	-0.99668
0.12320	1.73265
-0.02981	0.35523
0.17421	2.11527
0.14870	-4.15964
0.14870	-0.23145
0.37822	0.94191
0.37822	0.76336
0.22521	1.24800
-0.08081	0.48277
-0.31033	0.71234
-0.13181	-1.68539
0.48022	1.19699
0.32721	-0.20594
0.42922	-0.18043
0.22521	-0.41000
0.37822	0.66132
0.42922	-0.56305
-0.00431	0.71234
-0.33583	0.61031
0.04670	-0.10391
-0.10631	2.31933
0.19971	-4.44022
-0.00431	0.12566
0.17421	1.96222
0.09770	1.14597
0.68424	0.50828
0.55673	0.32972
0.02119	-1.40480
-0.31033	-0.20594
-0.53984	1.32453
-0.18282	0.86539
0.22521	-0.15492
0.35272	0.96742
0.50573	0.17668
0.83725	-2.24656
0.70974	0.99292
0.32721	-0.05289
0.32721	1.45206
-0.36133	0.30422
-0.25932	-0.25695
-0.13181	-1.73640
-0.25932	-0.02739
0.14870	-0.53754
0.35272	3.05905
0.22521	2.19179
0.04670	0.78886
0.17421	-2.57816
0.02119	-0.61406
0.14870	-0.15492
0.60773	1.06945
0.32721	1.17148
0.27621	-0.86914
0.12320	0.99292
-0.18282	-0.86914
0.04670	-1.27726
-0.00431	-0.33348
0.12320	-1.14973
0.12320	2.01323
0.22521	1.52859
0.22521	-0.20594
0.14870	1.55410
0.27621	-1.07320
0.25071	-0.10391
0.40372	-2.45062
-0.00431	0.15117
-0.05531	1.47757
-0.25932	0.20219
0.12320	0.96742
0.53123	-0.76711
0.45472	1.65613
-0.02981	0.02363
0.17421	-0.99668
0.27621	0.25320
0.07220	0.76336
0.04670	0.63582
-0.15732	-0.66508
-0.10631	0.15117
0.50573	-1.58336
0.27621	0.78886
-0.10631	-0.20594
0.17421	0.48277
-0.31033	1.27351
0.60773	2.03874
0.68424	1.47757
0.48022	-5.94518
0.30171	2.08976
-0.08081	-1.17523
-0.02981	0.68683
0.02119	0.78886
0.07220	-0.00188
-0.08081	0.83988
-0.02981	0.58480
0.04670	1.19699
-0.02981	0.12566
0.19971	-0.92016
0.32721	1.01843
0.37822	-0.35899
0.30171	-0.23145
0.30171	0.17668
0.04670	-1.55785
0.19971	-0.25695
-0.15732	0.66132
-0.05531	0.17668
0.02119	1.78367
0.22521	-0.43551
0.73524	-0.53754
0.60773	1.47757
0.30171	-1.37929
-0.10631	1.22250
0.02119	1.01843
0.17421	-0.69059
0.14870	0.32972
0.19971	0.38074
-0.31033	0.27871
-0.51434	-0.99668
0.14870	1.52859
0.53123	-0.00188
0.58223	0.48277
0.25071	-0.10391
0.17421	-0.28246
0.09770	-0.35899
-0.08081	-1.20074
0.25071	0.38074
0.12320	1.24800
-0.02981	0.89089
0.07220	-0.86914
0.27621	0.48277
0.37822	0.04914
0.17421	-0.33348
-0.05531	1.78367
-0.36133	0.86539
0.27621	-1.60887
0.50573	-1.07320
0.60773	0.81437
0.37822	1.75816
-0.08081	-0.56305
0.12320	0.71234
-0.13181	0.20219
-0.08081	-0.81812
0.32721	0.15117
0.22521	-0.15492
0.35272	-0.61406
0.12320	1.55410
0.17421	1.04394
0.19971	0.78886
0.35272	-2.70570
0.30171	-1.48133
-0.13181	1.91120
-0.13181	-1.40480
0.30171	2.24281
0.32721	-0.61406
-0.10631	1.80917
-0.28482	0.81437
-0.89686	-0.15492
0.42922	-1.71090
1.06676	0.55929
0.86275	1.70714
0.53123	-1.17523
0.55673	1.14597
0.09770	-0.05289
-0.38683	-0.38449
-0.43783	-0.76711
-0.20832	1.57960
-0.15732	-1.09871
0.17421	-0.56305
0.42922	0.91640
0.14870	0.78886
0.27621	0.45726
0.17421	0.30422
-0.08081	-0.23145
0.09770	0.86539
0.55673	0.45726
0.17421	-0.18043
0.07220	-0.86914
0.27621	1.12046
0.02119	-0.25695
0.17421	0.53379
0.22521	-1.37929
0.30171	0.02363
0.48022	-0.15492
-0.08081	2.03874
-0.18282	2.08976
-0.36133	-0.18043
-0.36133	-1.81293
0.63323	0.53379
0.37822	0.02363
0.22521	0.63582
0.45472	0.96742
0.32721	0.78886
0.30171	-0.02739
-0.08081	-0.56305
-0.08081	0.20219
-0.00431	-1.58336
0.19971	0.71234
0.22521	0.32972
0.17421	-0.51203
0.12320	0.68683
-0.05531	-0.58856
-0.00431	-0.46102
0.27621	0.86539
0.17421	0.45726
0.12320	-0.00188
0.42922	1.45206
0.45472	-0.46102
0.07220	-3.03730
-0.71835	0.55929
-0.18282	2.01323
0.63323	1.14597
0.55673	1.65613
0.35272	-0.48652
0.19971	1.04394
0.02119	-0.76711
0.12320	-1.20074
-0.20832	-0.00188
-0.02981	-1.09871
0.32721	0.22769
0.22521	0.25320
0.09770	0.89089
0.27621	-0.20594
0.17421	-0.05289
0.22521	-0.79262
0.30171	0.30422
0.04670	0.96742
-0.28482	1.40105
-0.28482	0.58480
0.32721	-0.43551
0.37822	-0.38449
0.45472	-1.25176
0.37822	0.20219
0.45472	0.91640
-0.20832	-0.05289
-0.15732	0.91640
0.32721	1.42656
0.22521	-0.23145
0.14870	1.52859
-0.25932	-0.41000
-0.51434	-2.60367
0.32721	-1.20074
0.99026	0.15117
0.58223	0.15117
-0.13181	0.71234
0.14870	1.22250
0.30171	1.22250
0.14870	-0.35899
-0.08081	-1.65988
-0.13181	0.86539
0.17421	-0.81812
0.17421	0.45726
-0.02981	-0.28246
-0.05531	0.76336
0.37822	0.45726
0.12320	0.76336
0.30171	0.10015
0.32721	-2.57816
0.27621	0.40625
0.17421	1.63062
0.04670	2.16628
-0.00431	-0.51203
0.17421	-0.97117
0.19971	0.38074
0.30171	0.76336
0.32721	0.25320
0.14870	-0.56305
-0.20832	-0.46102
-0.38683	-0.07840
-0.28482	0.73785
0.40372	-0.63957
0.45472	1.75816
0.55673	0.04914
0.53123	-0.61406
0.35272	0.25320
0.30171	-0.25695
-0.02981	1.50308
-0.51434	-0.97117
0.30171	-1.09871
0.27621	-0.23145
0.09770	1.32453
0.25071	1.19699
0.27621	0.12566
0.09770	0.78886
-0.48884	-0.51203
-0.18282	0.25320
0.35272	-0.15492
0.14870	-0.51203
0.12320	0.48277
0.07220	0.73785
0.55673	0.07465
0.45472	-0.35899
0.63323	0.07465
0.30171	0.45726
-0.02981	-0.79262
0.07220	0.81437
-0.08081	0.53379
-0.08081	0.63582
-0.13181	0.45726
0.50573	-1.63437
0.48022	-1.27726
0.37822	1.75816
0.07220	-0.20594
-0.69285	-0.07840
-0.00431	-2.70570
0.37822	0.71234
0.42922	1.01843
0.32721	1.42656
0.22521	0.76336
0.27621	0.22769
0.17421	0.17668
0.07220	0.07465
0.04670	-0.30797
-0.05531	-0.41000
0.14870	0.22769
0.14870	-0.07840
-0.08081	-0.12942
0.32721	0.53379
0.09770	-0.18043
-0.08081	-0.18043
0.04670	0.15117
0.09770	1.35003
0.40372	-1.71090
0.19971	0.99292
0.27621	1.42656
0.37822	-0.97117
0.35272	0.96742
0.30171	-0.28246
-0.02981	0.63582
-0.10631	-0.30797
0.45472	0.53379
0.12320	1.12046
-0.38683	-0.00188
-0.18282	0.89089
-0.13181	-1.86394
-0.02981	0.45726
-0.02981	0.61031
0.73524	-0.30797
0.37822	-0.48652
0.42922	0.43176
0.50573	1.57960
0.32721	1.12046
0.19971	-0.48652
0.12320	-0.25695
-0.00431	0.38074
-0.20832	-0.38449
-0.18282	-0.18043
0.02119	0.78886
-0.10631	-0.25695
0.14870	0.32972
0.27621	-0.46102
0.45472	0.20219
0.37822	0.83988
0.32721	0.96742
0.40372	-0.07840
0.17421	0.35523
0.12320	0.48277
0.02119	-0.94566
-0.33583	-0.30797
-0.08081	0.61031
0.37822	-0.23145
0.40372	0.91640
0.30171	0.78886
-0.13181	-0.46102
-0.41233	-0.10391
0.19971	0.35523
0.12320	-0.18043
0.42922	0.45726
0.55673	1.32453
0.30171	-0.07840
0.45472	-0.25695
0.32721	0.22769
-0.00431	-1.17523
-0.38683	-0.63957
-0.69285	2.62542
0.32721	-0.94566
0.65874	-0.69059
0.32721	0.30422
0.42922	1.88570
0.02119	0.32972
-0.08081	-2.37410
0.25071	1.68163
0.14870	0.63582
0.19971	-0.02739
0.09770	-0.00188
0.04670	-0.00188
-0.02981	-0.35899
0.17421	0.89089
0.12320	0.22769
-0.20832	-1.48133
0.07220	0.55929
0.12320	-0.38449
0.35272	0.30422
0.32721	1.27351
0.12320	-0.76711
0.17421	-0.15492
0.04670	-0.18043
0.30171	-0.74160
0.40372	2.16628
0.60773	0.83988
0.19971	0.48277
-0.10631	0.12566
-0.23382	0.12566
-0.08081	-0.10391
0.27621	0.55929
0.17421	-0.46102
0.30171	-0.00188
0.22521	-0.35899
0.17421	-0.18043
-0.00431	0.86539
-0.20832	1.09496
-0.08081	0.17668
0.14870	1.32453
0.12320	-2.14453
-0.28482	0.17668
0.32721	-0.02739
0.42922	-0.46102
0.91375	-1.07320
0.73524	0.99292
0.30171	2.26831
0.17421	0.71234
-0.28482	1.22250
-0.18282	-0.10391
-0.38683	0.02363
-0.59084	-0.94566
0.04670	1.55410
-0.28482	-2.01699
0.27621	-0.18043
0.40372	-2.22105
1.04126	0.10015
1.01576	0.89089
0.58223	1.88570
0.27621	1.14597
0.02119	-0.71609
-0.08081	3.56921
-0.20832	-4.66979
-0.28482	-0.20594
0.02119	1.86019
0.12320	0.66132
0.02119	-0.05289
-0.02981	-0.25695
0.25071	0.96742
-0.02981	0.66132
-0.38683	-0.46102
-0.31033	-0.28246
0.63323	-0.89465
0.93925	0.38074
0.70974	0.27871
0.50573	0.38074
-0.05531	-0.58856
-0.41233	0.25320
0.19971	-0.05289
-0.02981	2.49788
0.32721	-0.71609
0.27621	-1.53234
0.09770	0.78886
0.22521	-0.15492
0.09770	0.40625
-0.20832	-0.18043
0.14870	1.17148
0.19971	0.61031
0.14870	-0.23145
0.17421	-0.25695
-0.10631	-0.07840
-0.00431	0.15117
-0.18282	1.09496
-0.31033	-0.81812
0.42922	-0.61406
0.60773	1.01843
0.86275	-2.09351
0.65874	0.76336
0.63323	0.91640
0.30171	0.86539
-0.41233	0.15117
-0.79486	1.09496
-0.69285	-0.97117
0.32721	-2.85874
0.63323	1.09496
0.70974	-0.86914
0.76074	0.86539
0.27621	2.70194
-0.31033	0.12566
-0.61635	0.63582
-0.18282	-0.18043
0.27621	-0.97117
0.27621	0.71234
0.25071	0.25320
0.30171	-0.38449
0.09770	-1.88945
0.30171	1.22250
0.27621	-0.15492
0.12320	1.42656
0.12320	0.76336
-0.02981	-0.25695
0.19971	0.17668
0.27621	-1.07320
-0.00431	1.04394
0.19971	0.40625
-0.33583	0.50828
-0.59084	0.86539
0.42922	-0.56305
0.78624	0.96742
0.45472	0.15117
0.42922	0.25320
0.30171	-2.19554
0.04670	0.30422
-0.05531	-0.66508
0.09770	2.03874
-0.15732	0.55929
-0.31033	0.45726
-0.10631	-0.48652
-0.02981	1.14597
0.32721	0.10015
0.68424	-0.38449
0.48022	0.15117
0.27621	0.73785
-0.08081	-2.09351
0.02119	1.35003
0.30171	0.30422
0.30171	-0.05289
0.07220	0.81437
0.17421	0.68683
0.14870	-0.53754
-0.05531	1.52859
-0.15732	-0.71609
-0.33583	-1.32828
0.09770	0.10015
0.53123	0.78886
0.53123	-0.51203
0.68424	0.40625
0.58223	1.12046
0.04670	1.57960
-0.41233	1.45206
-0.20832	-0.76711
0.14870	-0.84363
0.32721	-1.04770
0.17421	0.58480
0.09770	0.25320
0.45472	1.83468
0.25071	-2.09351
-0.28482	1.55410
0.17421	-0.51203
0.32721	0.71234
0.32721	-0.25695
0.22521	-0.02739
-0.10631	0.50828
-0.28482	0.96742
-0.38683	-2.17003
-0.08081	0.66132
0.76074	0.89089
0.40372	0.58480
0.19971	-0.00188
0.09770	0.58480
0.25071	0.38074
0.30171	-0.23145
-0.25932	0.76336
0.12320	-1.37929
0.30171	0.25320
0.19971	-0.79262
0.25071	-1.14973
0.25071	0.94191
0.60773	0.96742
0.30171	0.58480
-0.20832	0.07465
-0.18282	-0.02739
-0.71835	-0.28246
-0.66735	1.65613
0.25071	0.45726
0.50573	-0.46102
0.78624	0.02363
0.76074	0.12566
0.58223	0.15117
0.37822	0.02363
0.14870	-0.74160
-0.20832	-0.48652
0.02119	0.78886
0.14870	0.91640
0.04670	-0.30797
-0.13181	0.38074
-0.05531	0.78886
0.19971	-0.43551
0.12320	1.14597
0.27621	-1.50683
0.40372	-0.76711
0.32721	1.80917
0.09770	0.45726
-0.10631	-0.35899
0.17421	1.93671
0.30171	-0.51203
0.30171	0.61031
-0.28482	-0.30797
0.04670	0.02363
0.48022	-0.99668
0.65874	-0.41000
0.45472	0.63582
0.14870	1.45206
-0.13181	-0.05289
-0.28482	-1.83844
-0.02981	0.96742
-0.18282	1.96222
-0.02981	0.96742
0.42922	-0.79262
0.70974	0.35523
0.22521	0.66132
0.30171	-0.71609
0.32721	-0.00188
0.02119	0.22769
-0.18282	0.32972
-0.53984	0.55929
0.30171	0.81437
0.48022	0.81437
0.30171	0.10015
0.04670	-1.27726
-0.02981	-3.54745
-0.00431	1.04394
0.19971	1.75816
0.35272	0.71234
0.35272	-0.51203
0.55673	2.49788
0.32721	-0.05289
-0.23382	1.37554
-0.25932	1.06945
0.04670	0.12566
0.17421	-1.60887
-0.08081	-0.43551
0.37822	-1.40480
0.37822	0.96742
0.35272	2.19179
-0.00431	-2.96078
-0.08081	1.24800
0.14870	0.89089
0.27621	-0.71609
-0.08081	-0.46102
0.07220	0.50828
0.12320	1.19699
0.17421	-0.41000
0.50573	0.91640
0.22521	0.99292
0.27621	-0.30797
0.32721	0.96742
0.35272	-1.32828
-0.08081	0.89089
-0.23382	-1.76191
-0.08081	-0.28246
-0.00431	0.35523
0.02119	0.55929
-0.05531	1.83468
0.14870	-1.17523
0.78624	0.35523
0.65874	0.71234
0.07220	1.19699
-0.33583	0.22769
-0.46334	0.35523
0.25071	-0.89465
0.30171	0.17668
0.45472	-0.99668
0.32721	1.65613
0.25071	-2.39961
0.27621	0.63582
0.17421	0.86539
0.09770	-0.10391
0.25071	-1.04770
0.12320	1.35003
-0.10631	0.83988
-0.31033	1.09496
-0.28482	0.55929
0.02119	-0.25695
0.40372	-0.76711
0.58223	0.55929
0.37822	0.07465
0.12320	0.94191
0.07220	-0.28246
0.19971	0.76336
0.17421	-0.97117
0.35272	-1.09871
0.04670	-0.23145
0.30171	0.48277
0.30171	0.38074
0.04670	0.66132
-0.25932	0.86539
-0.13181	0.40625
-0.10631	0.66132
0.27621	-0.41000
0.22521	0.22769
0.02119	-0.02739
0.37822	-0.41000
0.63323	0.48277
0.37822	0.20219
0.32721	0.10015
0.19971	0.45726
0.02119	-0.48652
0.02119	-0.56305
-0.10631	1.35003
-0.18282	0.78886
-0.00431	-0.94566
0.17421	0.45726
0.07220	-0.00188
-0.31033	-0.74160
0.07220	0.71234
0.48022	0.99292
0.70974	-0.25695
0.30171	1.35003
0.55673	0.40625
0.32721	-0.35899
-0.00431	-1.04770
-0.18282	0.35523
-0.38683	-0.05289
0.19971	-0.53754
0.27621	0.78886
0.42922	0.76336
0.19971	-0.84363
0.07220	1.32453
-0.28482	-0.46102
0.14870	0.96742
0.32721	0.27871
0.25071	-1.17523
0.27621	-0.69059
0.27621	0.53379
0.35272	1.78367
0.02119	-1.96597
-0.02981	0.76336
0.02119	1.37554
-0.20832	-0.12942
-0.08081	0.66132
0.09770	-0.84363
0.53123	0.17668
0.65874	0.40625
0.32721	0.12566
0.27621	0.15117
0.30171	0.63582
0.30171	-0.25695
-0.00431	0.35523
-0.02981	1.27351
-0.36133	-1.78742
-0.31033	0.71234
0.25071	-0.92016
0.42922	0.38074
0.37822	0.15117
0.50573	1.32453
-0.08081	-2.22105
-0.74385	0.02363
-0.28482	1.96222
0.02119	1.78367
0.81175	-0.41000
0.58223	1.52859
0.58223	-2.93527
0.40372	0.66132
0.09770	0.86539
-0.00431	-0.28246
-0.08081	0.32972
-0.10631	-0.12942
-0.00431	0.15117
-0.00431	0.89089
0.17421	-0.53754
0.17421	-0.02739
0.19971	-0.56305
0.12320	-1.07320
0.12320	1.70714
0.40372	0.10015
0.42922	-0.46102
0.19971	1.06945
-0.38683	-0.89465
-0.76936	-0.25695
-0.89686	0.94191
-0.18282	1.57960
1.04126	0.66132
1.14327	-1.68539
0.88825	1.01843
0.78624	-0.46102
0.53123	0.48277
0.30171	-0.71609
-0.13181	1.22250
-0.38683	0.07465
-0.33583	-1.09871
0.17421	1.22250
-0.13181	0.32972
-0.33583	0.89089
-0.15732	0.07465
-0.13181	-1.40480
0.32721	-1.04770
0.35272	0.99292
0.30171	0.91640
0.45472	0.38074
0.19971	-0.25695
0.17421	-0.07840
0.22521	-0.43551
0.09770	0.48277
0.30171	1.29902
-0.00431	0.48277
-0.31033	-0.99668
0.14870	-0.15492
0.09770	-0.69059
0.48022	1.42656
0.27621	0.66132
0.30171	0.32972
0.12320	0.78886
-0.08081	-0.15492
-0.33583	-0.25695
0.19971	-0.25695
0.42922	0.15117
0.17421	-0.05289
0.09770	0.07465
0.09770	0.76336
0.17421	0.27871
0.02119	0.10015
-0.05531	-0.38449
0.12320	-0.33348
0.22521	0.25320
0.22521	0.61031
0.14870	-0.23145
0.40372	0.53379
0.22521	0.53379
0.07220	0.66132
0.07220	-0.56305
0.07220	-1.88945
0.17421	0.07465
0.25071	1.17148
0.02119	0.48277
-0.28482	0.20219
-0.43783	0.66132
0.32721	0.17668
0.58223	0.10015
0.58223	-0.02739
0.42922	0.25320
0.27621	0.53379
0.22521	-0.30797
0.37822	0.48277
0.07220	0.96742
-0.33583	-1.88945
-0.23382	0.27871
0.09770	0.50828
0.35272	0.66132
0.12320	-0.18043
-0.05531	-0.02739
-0.05531	1.01843
0.14870	1.12046
0.35272	-0.35899
0.37822	-1.43031
0.17421	0.71234
0.14870	0.99292
0.14870	-0.05289
0.22521	1.06945
0.32721	-0.66508
0.30171	-0.23145
0.12320	-0.23145
-0.08081	0.89089
-0.31033	-0.66508
0.48022	0.45726
0.37822	-0.12942
-0.23382	0.32972
-0.61635	0.45726
-0.82036	0.30422
0.45472	1.63062
1.01576	-0.46102
0.81175	-0.84363
0.70974	0.17668
0.58223	0.22769
0.09770	0.25320
-0.02981	-0.18043
-0.33583	0.02363
-0.28482	0.04914
-0.15732	0.61031
0.14870	0.50828
0.32721	0.15117
0.22521	-0.25695
0.04670	-2.45062
0.12320	1.60511
0.17421	1.17148
0.50573	0.78886
-0.00431	0.07465
-0.00431	0.68683
-0.28482	-1.45582
-0.31033	1.29902
0.68424	0.81437
0.81175	-1.88945
0.58223	-0.02739
0.40372	0.02363
0.22521	0.81437
0.09770	0.02363
-0.02981	-0.43551
0.07220	1.45206
-0.00431	-0.58856
-0.13181	-1.07320
-0.08081	0.71234
-0.10631	1.68163
0.12320	-0.41000
0.04670	0.07465
0.27621	-0.33348
0.45472	-0.79262
0.53123	1.78367
0.27621	1.50308
-0.05531	-0.02739
-0.53984	-2.01699
-0.00431	1.01843
0.48022	-0.05289
0.53123	0.99292
0.55673	0.96742
0.53123	-0.23145
-0.02981	0.15117
0.14870	0.35523
-0.02981	-0.30797
0.02119	-0.07840
0.32721	0.25320
-0.05531	0.15117
-0.46334	0.25320
-0.08081	0.22769
0.12320	-0.61406
0.25071	-0.15492
0.40372	0.71234
0.30171	-0.07840
0.22521	-0.25695
0.27621	0.96742
0.40372	0.86539
0.30171	1.19699
0.17421	-0.15492
-0.23382	-0.69059
-0.05531	1.12046
0.04670	-1.14973
0.19971	0.43176
0.45472	0.38074
0.48022	0.91640
0.42922	0.30422
0.19971	-1.99148
-0.10631	1.12046
-0.31033	-2.09351
-0.36133	1.70714
-0.36133	0.78886
0.60773	-0.35899
0.65874	1.35003
0.48022	1.24800
0.27621	0.35523
0.27621	-2.32308
0.27621	-1.65988
0.50573	0.50828
-0.10631	0.45726
-0.43783	0.22769
-1.43240	1.70714
-0.38683	-0.51203
0.42922	-0.15492
0.73524	0.27871
0.96476	-0.23145
1.06676	0.94191
0.50573	0.02363
0.07220	-0.63957
-0.13181	-0.51203
-0.13181	1.17148
0.17421	2.06425
0.35272	-0.71609
0.22521	-0.46102
-0.00431	-0.48652
-0.00431	0.17668
-0.31033	1.32453
-1.02437	-0.41000
0.07220	0.43176
0.68424	0.15117
0.70974	-2.11902
0.73524	0.04914
0.63323	0.12566
0.17421	1.50308
0.04670	1.70714
0.02119	0.63582
0.04670	-1.43031
0.07220	0.68683
0.14870	-0.97117
0.19971	1.70714
0.32721	-0.02739
0.07220	-1.48133
-0.25932	0.50828
-0.66735	0.96742
-0.36133	0.99292
0.32721	-0.28246
0.48022	-0.33348
0.70974	0.53379
0.65874	-0.66508
0.32721	0.43176
0.04670	0.12566
-0.69285	-0.51203
-0.59084	0.83988
0.55673	-0.00188
0.76074	0.86539
0.58223	-0.25695
0.48022	-1.12422
-0.00431	-0.76711
0.30171	2.77847
-0.02981	-1.81293
0.07220	1.68163
-0.00431	0.10015
-0.18282	0.10015
0.12320	0.86539
-0.05531	-0.69059
-0.05531	0.30422
0.14870	0.35523
0.25071	0.15117
0.17421	-0.51203
0.09770	1.32453
0.35272	-3.03730
0.40372	1.04394
0.42922	-0.23145
0.19971	0.53379
-0.13181	0.61031
0.04670	0.48277
0.12320	1.04394
0.27621	0.40625
0.17421	1.06945
-0.00431	-0.30797
0.17421	-0.97117
0.30171	-0.15492
-0.05531	0.27871
-0.02981	0.76336
-0.08081	0.71234
0.35272	-0.33348
0.32721	0.20219
0.30171	-0.41000
0.19971	0.25320
0.42922	0.53379
0.04670	0.25320
-0.28482	0.12566
-0.71835	-0.63957
-0.10631	0.43176
0.30171	0.71234
0.48022	0.43176
0.81175	-0.00188
0.63323	-0.12942
0.17421	0.71234
-0.13181	0.02363
-0.10631	-0.25695
-0.08081	-0.71609
0.02119	1.27351
0.09770	-1.45582
0.48022	1.27351
0.37822	0.66132
0.27621	0.53379
0.02119	-2.39961
-0.05531	-0.63957
-0.10631	1.98773
0.19971	-0.56305
0.22521	0.04914
0.09770	-0.48652
0.22521	1.32453
0.22521	1.01843
0.27621	0.76336
-0.02981	-0.61406
-0.15732	0.10015
0.04670	-0.48652
0.53123	1.42656
0.58223	-1.12422
0.42922	0.25320
-0.08081	-0.99668
-0.46334	1.75816
-0.51434	-0.81812
0.14870	-0.48652
0.55673	1.01843
0.17421	0.45726
0.32721	0.61031
0.32721	0.55929
0.58223	-0.71609
0.25071	0.32972
0.14870	1.04394
0.09770	-1.86394
0.19971	0.10015
0.09770	0.78886
-0.33583	0.45726
-0.18282	0.73785
-0.31033	1.78367
-0.38683	-0.76711
0.42922	0.02363
0.37822	-0.92016
0.45472	0.07465
0.48022	0.94191
0.53123	0.78886
0.42922	1.45206
0.17421	-1.35379
0.12320	-1.45582
0.27621	-0.46102
-0.10631	1.78367
-0.18282	-0.20594
-0.28482	0.10015
0.27621	1.50308
0.30171	-0.69059
0.40372	-0.25695
0.32721	0.96742
0.12320	0.38074
-0.18282	-0.71609
0.19971	0.20219
0.14870	0.32972
0.09770	1.35003
-0.02981	-0.48652
0.37822	-0.00188
0.42922	-1.35379
0.19971	1.29902
0.02119	0.63582
0.32721	-1.83844
0.35272	-2.14453
0.30171	1.96222
0.14870	1.37554
-0.13181	0.96742
-0.53984	0.43176
-0.51434	0.27871
0.25071	0.15117
0.50573	0.02363
0.70974	-0.07840
0.73524	-0.43551
0.42922	0.04914
0.42922	-0.66508
0.17421	1.04394
-0.56534	0.99292
-0.46334	-0.00188
-0.23382	-1.68539
0.19971	0.81437
0.32721	0.35523
0.50573	-0.00188
0.42922	1.17148
0.12320	0.45726
-0.05531	-1.65988
0.12320	-0.12942
0.32721	0.48277
0.42922	-1.88945
0.37822	1.45206
-0.08081	0.96742
-0.13181	0.43176
-0.08081	0.76336
-0.08081	0.25320
0.12320	0.40625
0.42922	0.58480
0.25071	0.32972
0.27621	-0.38449
0.25071	-0.35899
0.04670	0.15117
0.19971	-0.15492
0.19971	-0.76711
0.12320	0.30422
0.02119	-0.05289
0.19971	0.40625
0.04670	-0.51203
-0.00431	-0.51203
0.27621	1.22250
0.22521	-0.76711
0.22521	1.17148
-0.08081	0.76336
-0.00431	-0.28246
-0.02981	-0.15492
0.55673	-0.94566
0.53123	1.17148
0.42922	0.55929
-0.05531	0.50828
-0.31033	0.22769
-0.43783	0.04914
-0.46334	0.63582
0.63323	0.71234
0.86275	0.55929
0.58223	0.30422
0.17421	-0.58856
0.04670	-1.02219
0.07220	0.04914
-0.13181	-2.01699
-0.18282	-0.02739
-0.02981	0.15117
0.32721	1.06945
0.17421	1.98773
0.22521	0.53379
0.40372	-0.38449
0.22521	1.57960
0.14870	0.02363
-0.02981	-0.02739
0.09770	-0.25695
-0.02981	-0.41000
0.02119	-0.05289
0.35272	0.17668
0.42922	0.71234
0.40372	0.22769
0.32721	-2.34859
0.25071	0.43176
0.19971	0.45726
-0.25932	1.19699
-0.08081	1.04394
-0.18282	0.10015
0.19971	-0.94566
0.02119	1.14597
0.07220	-0.30797
0.02119	-0.15492
0.19971	-0.20594
0.17421	0.53379
0.50573	-0.07840
0.37822	0.66132
0.22521	0.25320
0.19971	0.20219
-0.10631	-0.15492
-0.08081	0.94191
0.04670	0.66132
0.32721	-0.25695
0.27621	-0.12942
0.02119	0.32972
-0.00431	-0.84363
-0.28482	-0.02739
-0.20832	0.12566
-0.08081	0.32972
0.30171	-0.51203
0.02119	-0.10391
0.73524	1.42656
0.48022	-0.18043
0.12320	1.09496
0.25071	0.91640
-0.02981	0.55929
0.17421	-0.05289
0.12320	-0.61406
0.04670	-2.24656
-0.08081	0.20219
-0.02981	0.94191
0.07220	-0.15492
0.35272	1.70714
0.32721	0.83988
-0.18282	-1.30277
0.04670	1.57960
-0.15732	-0.46102
0.14870	-0.58856
0.25071	0.45726
0.42922	-1.12422
0.40372	0.02363
0.25071	0.89089
0.17421	-0.00188
0.22521	1.06945
0.07220	0.27871
0.12320	0.73785
0.12320	-0.05289
-0.15732	-0.05289
-0.18282	-0.00188
0.27621	0.86539
0.32721	-0.79262
0.12320	-0.20594
0.04670	0.61031
-0.08081	-0.56305
-0.15732	0.71234
0.73524	-0.05289
0.40372	1.27351
0.32721	-0.02739
-0.13181	-2.45062
0.22521	0.50828
0.25071	-0.05289
0.07220	-0.00188
0.12320	1.70714
0.35272	0.40625
0.30171	0.38074
0.17421	0.35523
0.12320	0.32972
-0.08081	-0.18043
-0.28482	0.04914
-0.20832	1.17148
0.04670	-1.68539
0.37822	-0.23145
0.48022	1.73265
0.32721	-0.61406
0.45472	-0.10391
0.27621	0.04914
0.07220	-0.28246
0.19971	0.48277
0.04670	-0.02739
-0.13181	0.53379
-0.10631	0.58480
0.14870	-0.00188
0.35272	-0.33348
0.32721	0.83988
0.30171	0.89089
0.14870	0.38074
0.04670	0.15117
0.07220	-0.35899
-0.18282	0.68683
0.07220	0.25320
0.25071	-0.25695
0.19971	-0.02739
0.19971	-0.05289
0.14870	0.50828
-0.05531	-0.20594
0.09770	0.32972
0.17421	0.20219
0.12320	0.78886
0.27621	0.02363
0.40372	0.07465
0.42922	-0.28246
0.22521	-1.73640
0.32721	0.53379
0.07220	0.04914
-0.10631	1.50308
-0.61635	0.10015
-0.18282	-0.02739
0.53123	0.55929
0.40372	0.55929
0.68424	-0.41000
0.22521	-0.07840
-0.10631	-0.20594
-0.38683	1.17148
-0.28482	-0.12942
0.32721	0.99292
0.53123	-0.18043
0.32721	-0.51203
0.50573	-0.94566
0.22521	0.38074
0.07220	0.71234
-0.13181	0.27871
-0.28482	0.50828
0.22521	-0.12942
0.50573	-0.74160
0.07220	0.27871
0.17421	1.65613
-0.18282	-0.58856
-0.46334	-0.63957
0.09770	0.61031
0.48022	0.40625
0.42922	0.91640
0.42922	-0.07840
0.30171	0.17668
0.40372	-0.51203
0.07220	0.55929
-0.00431	-0.56305
0.12320	1.09496
0.14870	0.61031
0.02119	0.02363
-0.02981	-0.15492
-0.08081	-0.69059
-0.02981	0.94191
0.22521	-2.27207
0.30171	-0.18043
0.22521	1.06945
0.02119	1.91120
0.42922	0.43176
0.17421	-0.61406
0.32721	0.45726
-0.18282	0.02363
-0.18282	0.17668
0.32721	-0.23145
0.19971	-0.35899
0.07220	1.24800
0.25071	0.22769
0.27621	-0.28246
0.19971	-0.05289
0.60773	1.50308
0.70974	-0.07840
0.09770	-0.86914
-0.13181	-0.53754
-0.48884	0.76336
-0.15732	-0.00188
0.32721	-1.35379
-0.00431	1.37554
0.07220	-1.27726
0.35272	0.86539
0.19971	0.71234
0.12320	1.96222
0.07220	-0.23145
0.14870	0.25320
0.14870	-0.35899
0.12320	1.14597
0.07220	-1.32828
0.14870	-0.10391
0.22521	-0.41000
0.27621	0.63582
0.02119	1.35003
-0.08081	1.55410
0.04670	0.20219
0.22521	-0.35899
0.32721	-0.76711
0.32721	0.10015
0.09770	0.27871
0.22521	-0.33348
0.22521	-1.17523
-0.02981	-0.18043
-0.20832	0.94191
0.30171	0.83988
0.32721	0.40625
0.19971	0.94191
0.25071	0.35523
0.02119	-0.05289
0.14870	-0.43551
0.14870	-0.79262
0.09770	-0.28246
-0.43783	-0.71609
-0.13181	1.78367
0.22521	-0.12942
0.65874	1.04394
0.58223	-0.20594
0.25071	0.40625
-0.02981	-0.46102
-0.18282	1.24800
-0.18282	-0.25695
0.42922	0.02363
0.50573	0.02363
0.25071	0.66132
0.02119	0.27871
-0.00431	0.83988
0.27621	-0.66508
0.19971	-1.32828
0.25071	-0.76711
0.09770	0.99292
0.02119	-0.00188
0.09770	0.45726
-0.13181	1.27351
0.07220	0.02363
0.30171	0.83988
0.27621	0.12566
0.45472	-0.30797
0.42922	0.15117
0.63323	-0.43551
0.22521	1.83468
-0.05531	0.30422
0.12320	-0.92016
0.02119	0.48277
0.19971	-0.43551
0.07220	-0.33348
-0.05531	0.96742
0.32721	-0.97117
-0.00431	0.68683
-0.33583	0.45726
-0.33583	0.30422
-0.48884	-0.15492
0.07220	-0.23145
0.93925	-0.74160
1.09226	1.70714
0.88825	-0.00188
0.40372	-0.05289
0.25071	1.29902
-0.31033	-0.46102
-0.59084	-0.38449
0.17421	0.35523
0.40372	0.12566
0.40372	-0.20594
0.17421	1.09496
0.19971	1.01843
0.12320	-0.71609
-0.00431	0.40625
-0.20832	0.40625
-0.02981	-1.83844
0.17421	0.02363
0.14870	0.89089
-0.18282	-0.89465
0.40372	-0.07840
0.37822	0.66132
0.22521	0.15117
0.37822	-0.94566
0.40372	1.47757
0.25071	0.43176
-0.10631	-0.58856
-0.33583	0.32972
0.25071	0.81437
0.55673	1.78367
0.48022	-1.07320
0.14870	-1.22625
-0.28482	0.86539
0.07220	0.81437
0.09770	0.22769
0.25071	0.76336
0.22521	0.58480
0.42922	-0.71609
0.22521	-0.12942
-0.23382	0.15117
0.02119	-0.28246
0.22521	0.86539
0.12320	-0.63957
0.07220	-0.23145
0.17421	-0.28246
0.22521	-0.25695
0.19971	-0.00188
0.32721	2.21730
0.25071	-0.51203
0.35272	-0.51203
0.14870	0.58480
-0.00431	1.14597
-0.23382	0.20219
-0.87136	-0.33348
-0.15732	0.45726
0.65874	-0.66508
0.73524	0.20219
0.45472	0.22769
0.42922	0.68683
0.22521	1.04394
0.48022	0.10015
0.37822	-0.69059
0.22521	-0.43551
0.02119	-0.07840
-0.41233	-0.30797
-0.36133	0.71234
-0.10631	0.63582
0.30171	-0.38449
0.55673	0.86539
0.40372	0.10015
0.30171	0.25320
0.30171	0.07465
-0.02981	0.63582
-0.20832	1.24800
-0.00431	-1.43031
0.42922	-2.55265
0.35272	2.03874
0.12320	-0.43551
0.22521	-0.02739
0.14870	0.91640
0.09770	0.17668
0.17421	0.17668
0.14870	0.35523
0.07220	0.38074
-0.00431	-1.04770
