0.27621	0.25320
0.12320	0.25320
0.17421	0.07465
0.12320	0.15117
0.12320	0.04914
0.12320	-0.05289
0.07220	-0.02739
0.14870	0.17668
0.17421	0.25320
0.12320	0.22769
0.07220	-0.10391
0.09770	-0.07840
0.07220	-0.10391
0.12320	0.15117
0.09770	0.40625
0.12320	0.22769
0.19971	0.30422
0.22521	0.27871
0.14870	0.07465
0.12320	0.20219
0.12320	0.17668
0.14870	0.02363
0.09770	-0.00188
0.14870	-0.02739
0.12320	0.25320
0.07220	-0.12942
0.14870	-0.00188
0.22521	0.45726
0.17421	0.25320
0.19971	0.20219
0.09770	0.27871
0.14870	0.22769
0.22521	0.20219
0.12320	0.20219
0.12320	0.10015
0.07220	0.02363
0.14870	0.12566
0.19971	0.15117
0.17421	0.10015
0.19971	0.20219
0.07220	0.10015
0.09770	0.15117
0.14870	0.20219
0.22521	-0.00188
0.09770	-0.00188
0.12320	0.12566
0.09770	0.22769
0.14870	0.35523
0.22521	0.17668
0.17421	0.20219
0.14870	0.10015
0.07220	0.07465
0.14870	0.22769
0.19971	0.20219
0.17421	0.20219
0.12320	0.10015
0.07220	0.12566
0.07220	0.07465
0.17421	-0.05289
0.27621	0.32972
0.17421	0.20219
0.09770	-0.23145
0.19971	0.22769
0.12320	0.20219
0.07220	0.25320
0.12320	0.07465
0.19971	0.22769
0.22521	0.22769
0.19971	0.30422
0.09770	0.20219
0.14870	-0.07840
0.14870	0.02363
0.19971	0.20219
0.19971	0.32972
0.12320	0.27871
-0.00431	0.10015
0.14870	-0.33348
0.22521	0.22769
0.12320	0.12566
0.09770	0.22769
0.19971	0.30422
0.22521	0.22769
0.22521	0.25320
0.12320	0.12566
0.09770	-0.02739
0.04670	0.12566
0.07220	0.15117
0.14870	0.22769
0.22521	0.10015
0.17421	0.20219
0.09770	-0.18043
0.14870	0.25320
0.22521	0.04914
0.12320	0.20219
0.12320	0.32972
0.07220	0.12566
0.17421	0.38074
0.22521	0.17668
0.19971	0.25320
0.14870	0.07465
0.14870	0.10015
0.09770	0.07465
0.14870	0.17668
0.17421	0.15117
0.12320	0.12566
0.12320	0.02363
0.07220	0.15117
0.14870	0.15117
0.25071	0.17668
0.22521	0.17668
0.17421	0.20219
0.09770	0.04914
0.12320	0.20219
0.12320	0.27871
0.17421	-0.05289
0.19971	-0.07840
0.14870	0.32972
0.09770	0.22769
0.17421	0.20219
0.17421	0.45726
0.25071	0.07465
0.22521	0.17668
0.12320	-0.12942
0.12320	-0.02739
0.04670	-0.25695
0.07220	0.02363
0.14870	0.40625
0.19971	0.43176
0.27621	0.48277
0.27621	0.30422
0.17421	0.20219
0.07220	0.04914
0.09770	0.10015
0.09770	0.02363
0.12320	0.07465
0.14870	0.17668
0.19971	0.04914
0.17421	-0.10391
0.09770	0.10015
0.14870	0.12566
0.12320	0.30422
0.19971	0.10015
0.17421	0.22769
0.12320	0.25320
0.02119	0.17668
0.07220	0.15117
0.12320	0.20219
0.09770	0.25320
0.09770	0.07465
0.14870	0.07465
0.19971	-0.05289
0.17421	0.30422
0.22521	0.38074
0.14870	0.32972
0.17421	0.15117
0.12320	-0.38449
0.14870	-0.10391
0.17421	0.15117
0.19971	0.35523
0.14870	0.38074
0.09770	0.20219
0.14870	0.15117
0.14870	-0.05289
0.12320	0.15117
0.12320	0.20219
0.19971	0.25320
0.19971	0.27871
0.17421	-0.10391
0.17421	-0.15492
0.17421	0.17668
0.09770	0.35523
0.07220	0.10015
0.17421	0.27871
0.12320	0.25320
0.12320	0.15117
0.14870	-0.07840
0.22521	-0.00188
0.22521	0.53379
0.25071	0.40625
0.17421	0.35523
0.19971	-0.61406
0.07220	0.17668
0.07220	0.27871
0.12320	0.17668
0.12320	0.17668
0.12320	0.30422
0.22521	0.17668
0.17421	0.10015
0.14870	-0.00188
0.09770	0.12566
0.09770	0.17668
0.17421	0.10015
0.14870	0.12566
0.19971	0.07465
0.09770	0.10015
0.14870	0.22769
0.07220	0.25320
0.19971	0.02363
0.22521	0.07465
0.25071	0.20219
0.14870	0.17668
0.14870	0.32972
0.19971	0.22769
0.17421	0.15117
0.07220	-0.02739
0.07220	-0.00188
0.14870	0.07465
0.19971	0.45726
0.17421	0.20219
0.17421	0.22769
0.12320	0.22769
0.17421	0.22769
0.22521	-0.43551
0.19971	0.17668
0.17421	-0.00188
0.09770	-0.05289
0.07220	0.32972
0.14870	0.35523
0.25071	0.38074
0.19971	0.25320
0.09770	0.20219
0.09770	0.15117
0.12320	0.02363
0.04670	0.07465
0.09770	0.15117
0.19971	0.04914
0.14870	0.15117
0.17421	0.15117
0.12320	0.20219
0.19971	0.04914
0.14870	0.20219
0.19971	0.20219
0.12320	0.20219
0.07220	0.07465
0.12320	0.12566
0.19971	0.22769
0.07220	0.12566
0.17421	0.17668
0.22521	0.20219
0.19971	0.25320
0.09770	0.17668
0.09770	0.04914
0.14870	0.07465
0.19971	0.17668
0.09770	0.04914
0.07220	0.17668
0.07220	0.07465
0.14870	0.20219
0.25071	0.25320
0.19971	-0.00188
0.12320	0.25320
0.17421	-0.05289
0.12320	0.25320
0.17421	0.17668
0.17421	0.50828
0.12320	-0.05289
0.07220	-0.15492
0.09770	0.25320
0.09770	0.40625
0.19971	0.45726
0.14870	0.43176
0.14870	0.17668
0.12320	0.12566
0.22521	-0.05289
0.17421	0.15117
0.07220	-0.05289
0.07220	-0.00188
0.12320	0.10015
0.17421	0.12566
0.19971	0.25320
0.22521	0.17668
0.22521	0.10015
0.12320	0.17668
0.12320	0.12566
0.07220	0.04914
0.12320	0.02363
0.12320	0.15117
0.22521	0.25320
0.14870	0.25320
0.12320	0.20219
0.09770	0.10015
0.17421	0.07465
0.19971	0.17668
0.12320	0.20219
0.07220	-0.05289
0.12320	0.22769
0.19971	0.48277
0.14870	0.35523
0.09770	-0.66508
0.17421	-0.18043
0.17421	0.61031
0.25071	0.53379
0.12320	0.38074
0.12320	-0.23145
0.09770	-0.20594
0.12320	0.20219
0.22521	0.25320
0.14870	0.27871
0.17421	0.27871
0.12320	0.15117
0.12320	0.02363
0.17421	-0.05289
0.12320	0.20219
0.17421	0.25320
0.12320	0.15117
0.07220	-0.00188
0.09770	0.10015
0.12320	0.12566
0.22521	0.35523
0.25071	0.25320
0.19971	0.15117
0.17421	0.20219
0.12320	0.17668
0.12320	0.22769
0.17421	0.07465
0.12320	-0.05289
0.12320	0.10015
0.09770	0.15117
0.09770	0.22769
0.27621	0.43176
0.22521	-0.05289
0.25071	0.32972
0.09770	-0.12942
0.14870	-0.00188
0.02119	0.25320
0.04670	0.15117
0.07220	0.30422
0.17421	0.22769
0.14870	0.15117
0.27621	0.27871
0.22521	0.17668
0.27621	0.04914
0.14870	-0.20594
0.12320	0.07465
0.12320	-0.02739
0.12320	0.15117
0.07220	0.15117
0.09770	0.17668
0.09770	0.15117
0.12320	0.22769
0.09770	-0.07840
0.09770	0.04914
0.04670	0.15117
0.07220	-0.05289
0.07220	-0.00188
0.12320	0.15117
0.14870	0.15117
0.14870	0.22769
0.09770	0.22769
0.12320	0.25320
0.09770	0.12566
0.09770	0.10015
0.12320	0.15117
0.07220	0.10015
0.09770	0.25320
0.12320	-0.00188
0.17421	0.20219
0.17421	-0.46102
0.14870	0.45726
0.19971	0.38074
0.14870	0.10015
0.22521	0.45726
0.22521	0.43176
0.12320	0.15117
0.12320	0.20219
0.07220	0.12566
0.12320	0.07465
0.17421	0.15117
0.17421	0.10015
0.22521	0.27871
0.22521	0.15117
0.17421	-0.05289
0.12320	-0.18043
0.07220	0.20219
0.07220	0.20219
0.12320	0.17668
0.22521	0.32972
0.19971	0.30422
0.22521	0.17668
0.17421	0.04914
0.12320	0.02363
0.07220	0.22769
0.12320	0.25320
0.14870	0.15117
0.17421	0.22769
0.12320	-0.00188
0.07220	-0.05289
0.07220	0.10015
0.17421	0.27871
0.22521	0.32972
0.17421	0.20219
0.09770	0.20219
0.07220	0.27871
0.14870	0.22769
0.17421	0.25320
0.19971	-0.46102
0.17421	0.12566
0.19971	-0.05289
0.14870	0.25320
0.12320	0.40625
0.12320	0.27871
0.12320	0.32972
0.12320	0.40625
0.19971	0.17668
0.19971	-0.35899
0.09770	-0.23145
0.12320	0.04914
0.17421	0.30422
0.07220	0.30422
0.12320	0.30422
0.19971	0.22769
0.12320	0.15117
0.22521	0.32972
0.22521	0.12566
0.09770	0.10015
0.07220	0.04914
0.07220	0.04914
0.07220	0.15117
0.12320	0.10015
0.22521	0.20219
0.25071	0.27871
0.12320	0.17668
0.12320	0.15117
0.12320	0.02363
0.04670	0.17668
0.09770	0.22769
0.02119	0.15117
0.14870	-0.05289
0.25071	-0.05289
0.27621	0.30422
0.22521	0.48277
0.17421	-0.23145
0.09770	0.32972
0.07220	0.30422
0.09770	0.02363
0.12320	0.35523
0.19971	0.17668
0.19971	0.20219
0.17421	0.17668
0.22521	0.04914
0.12320	0.10015
0.09770	-0.02739
0.09770	0.04914
0.19971	0.30422
0.12320	0.15117
0.09770	0.02363
0.04670	-0.30797
0.12320	0.40625
0.22521	0.35523
0.25071	0.35523
0.17421	0.25320
0.09770	0.17668
0.07220	0.10015
0.14870	0.04914
0.14870	0.07465
0.14870	0.15117
0.14870	0.17668
0.25071	0.04914
0.22521	-0.15492
0.25071	0.10015
0.17421	0.43176
0.07220	0.35523
0.12320	0.27871
0.22521	-0.07840
0.12320	0.27871
0.04670	-0.10391
0.12320	-0.02739
0.22521	0.35523
0.25071	0.22769
0.12320	0.20219
0.17421	0.12566
0.14870	0.15117
0.12320	0.10015
0.09770	0.12566
0.02119	-0.18043
0.14870	0.22769
0.12320	0.12566
0.17421	0.17668
0.12320	0.04914
0.19971	0.20219
0.25071	0.25320
0.17421	0.25320
0.02119	0.15117
0.14870	0.17668
0.09770	0.07465
0.14870	0.15117
0.17421	0.15117
0.09770	0.20219
0.07220	0.10015
0.19971	0.17668
0.22521	-0.02739
0.17421	0.17668
0.12320	0.02363
0.04670	0.20219
0.09770	0.22769
0.14870	0.20219
0.17421	0.15117
0.09770	0.12566
0.14870	0.20219
0.19971	0.32972
0.25071	0.22769
0.14870	0.04914
0.07220	-0.23145
0.14870	0.04914
0.12320	0.20219
0.19971	0.48277
0.14870	-0.15492
0.12320	0.15117
0.14870	-0.00188
0.22521	0.53379
0.17421	0.45726
0.12320	-0.02739
0.12320	-0.02739
0.22521	0.10015
0.09770	0.22769
0.04670	0.12566
0.14870	0.15117
0.22521	0.12566
0.19971	0.12566
0.17421	0.17668
0.12320	0.12566
0.14870	-0.00188
0.14870	0.15117
0.19971	0.30422
0.09770	-0.12942
0.12320	0.12566
0.07220	0.20219
0.14870	0.17668
0.19971	0.22769
0.25071	0.27871
0.22521	0.20219
0.17421	0.15117
0.09770	0.02363
0.12320	-0.12942
0.17421	-0.02739
0.17421	0.25320
0.12320	0.22769
0.14870	0.12566
0.07220	0.15117
0.12320	0.17668
0.14870	0.17668
0.17421	0.27871
0.25071	0.15117
0.19971	0.04914
0.12320	-0.07840
0.14870	0.27871
0.07220	-0.05289
0.07220	0.12566
0.07220	0.15117
0.17421	0.48277
0.17421	0.43176
0.25071	0.15117
0.17421	-0.07840
0.09770	-0.10391
0.12320	0.15117
0.07220	0.30422
0.09770	0.02363
0.19971	0.22769
0.22521	0.22769
0.27621	0.25320
0.17421	0.25320
0.14870	0.10015
0.12320	0.02363
0.14870	0.07465
0.09770	0.02363
0.07220	0.10015
0.09770	0.12566
0.14870	0.20219
0.14870	0.25320
0.17421	0.22769
0.17421	0.10015
0.09770	0.04914
0.12320	0.25320
0.09770	0.12566
0.12320	0.17668
0.17421	0.17668
0.22521	0.25320
0.22521	0.22769
0.17421	0.30422
0.17421	0.17668
0.17421	0.12566
0.12320	-0.10391
0.14870	0.25320
0.14870	0.30422
0.12320	-0.00188
0.12320	0.02363
0.12320	-0.15492
0.12320	0.30422
0.09770	0.32972
0.17421	0.30422
0.25071	0.02363
0.19971	0.20219
0.19971	-0.00188
0.12320	0.30422
0.12320	0.25320
0.12320	0.12566
0.09770	0.12566
0.07220	0.12566
0.17421	-0.00188
0.17421	0.15117
0.14870	0.10015
0.12320	0.10015
0.12320	0.10015
0.14870	0.15117
0.14870	0.04914
0.09770	0.04914
0.12320	-0.33348
0.07220	0.20219
0.09770	0.25320
0.19971	0.40625
0.22521	0.27871
0.22521	0.25320
0.14870	0.22769
0.12320	0.17668
0.09770	0.10015
0.09770	0.15117
0.19971	0.15117
0.14870	0.10015
0.17421	0.12566
0.09770	0.12566
0.12320	0.12566
0.14870	0.15117
0.14870	0.10015
0.09770	0.02363
0.09770	0.17668
0.12320	0.25320
0.19971	0.25320
0.25071	0.25320
0.22521	0.32972
0.25071	0.25320
0.25071	0.15117
0.17421	-0.23145
0.12320	-0.05289
0.07220	0.20219
0.04670	0.17668
0.12320	0.20219
0.14870	0.22769
0.19971	0.27871
0.22521	0.25320
0.22521	-0.25695
0.22521	0.27871
0.14870	0.12566
0.17421	0.04914
0.07220	-0.10391
0.04670	0.17668
0.07220	0.20219
0.12320	0.25320
0.22521	0.22769
0.14870	0.20219
0.19971	0.07465
0.17421	-0.15492
0.07220	0.12566
0.17421	0.17668
0.12320	0.15117
0.12320	0.20219
0.12320	0.22769
0.14870	0.20219
0.22521	0.25320
0.25071	0.20219
0.17421	0.25320
0.17421	0.12566
0.22521	0.17668
0.19971	0.25320
0.19971	0.12566
0.17421	0.20219
0.07220	0.25320
0.12320	0.20219
0.19971	0.17668
0.17421	-0.15492
0.14870	0.20219
0.17421	0.04914
0.17421	-0.20594
0.04670	0.10015
0.09770	0.30422
0.12320	-0.07840
0.02119	-0.15492
0.14870	0.43176
0.19971	0.30422
0.19971	0.40625
0.22521	0.53379
0.19971	0.43176
0.17421	-0.00188
0.17421	-0.20594
0.12320	-0.58856
-0.00431	0.35523
-0.00431	0.43176
0.04670	-0.23145
0.12320	-1.09871
0.19971	0.40625
0.19971	1.14597
0.27621	-0.10391
0.17421	-0.07840
0.12320	1.09496
0.17421	1.52859
0.14870	-0.86914
-0.00431	-0.02739
0.07220	0.86539
0.22521	1.17148
0.30171	-1.09871
0.37822	-0.25695
0.42922	2.19179
0.12320	-1.37929
-0.00431	-4.26167
-0.15732	4.18139
-0.18282	0.20219
0.14870	-0.92016
0.25071	-0.84363
0.09770	2.85499
-0.08081	1.14597
0.86275	1.86019
0.73524	-1.32828
0.35272	-0.05289
0.12320	-2.14453
-0.41233	-0.33348
-0.18282	0.38074
0.07220	5.09967
-0.05531	-3.31788
0.40372	-3.98109
0.14870	2.24281
0.32721	4.46198
-0.18282	-4.18515
-0.23382	0.32972
-0.71835	2.34484
0.17421	0.04914
0.63323	-7.78174
0.78624	5.15069
0.63323	-1.17523
1.01576	0.91640
0.48022	4.23241
-0.38683	-5.79214
-1.40690	6.75768
-0.48884	-2.85874
0.60773	1.24800
1.55129	6.52811
1.06676	-0.46102
0.19971	-1.60887
-0.89686	-2.62918
-0.89686	-1.88945
0.04670	1.45206
0.09770	-1.45582
-0.53984	-0.28246
-0.87136	-1.86394
0.58223	1.32453
2.31634	4.84460
1.95932	-2.29757
0.83725	1.91120
-0.97337	1.12046
-1.91693	2.77847
-0.10631	-0.61406
0.88825	-2.52714
1.60230	-3.75152
1.29628	0.43176
0.40372	0.38074
-0.99887	-1.27726
-1.71292	0.17668
-0.79486	0.30422
-0.64185	1.27351
0.58223	3.00804
0.37822	-4.33819
0.50573	-0.46102
0.68424	1.75816
0.65874	-0.66508
0.58223	0.50828
0.42922	1.27351
-0.25932	0.53379
-0.25932	2.37034
-0.20832	0.50828
-0.23382	-0.86914
-0.76936	-0.76711
-0.43783	-1.71090
0.81175	0.35523
0.09770	-0.56305
-0.38683	-0.07840
0.42922	1.17148
1.50029	0.10015
1.65330	0.66132
1.14327	0.73785
0.63323	0.89089
-0.05531	0.63582
-0.05531	0.15117
-0.43783	1.45206
-0.71835	-1.17523
-0.53984	-2.14453
-0.05531	-0.97117
-0.48884	-1.40480
-0.08081	2.06425
0.02119	0.76336
0.25071	2.59991
0.07220	0.55929
0.55673	-0.05289
0.88825	0.38074
0.73524	-0.56305
0.40372	0.76336
0.83725	-0.89465
-0.13181	-1.91496
-1.04987	0.81437
-1.63641	-0.18043
-0.79486	-0.15492
1.37278	-0.46102
1.65330	1.52859
1.14327	1.17148
0.42922	-0.43551
-0.02981	1.96222
0.32721	-1.27726
0.50573	-2.14453
0.48022	1.42656
0.12320	1.42656
-0.43783	0.66132
-1.10088	0.96742
-1.07538	-2.11902
-0.23382	0.61031
0.37822	-0.97117
0.50573	-1.40480
0.55673	0.10015
0.02119	2.14077
0.02119	1.19699
0.48022	0.96742
0.83725	0.45726
0.55673	0.25320
0.50573	0.30422
0.40372	0.10015
-0.02981	-0.10391
-0.31033	-0.51203
-0.23382	-0.94566
0.25071	0.15117
0.30171	-0.00188
0.27621	0.55929
0.17421	-0.10391
-0.08081	-0.99668
0.22521	-0.79262
0.37822	0.45726
0.02119	1.78367
-0.15732	1.37554
-0.43783	1.14597
0.22521	0.25320
0.58223	0.63582
0.27621	-0.81812
0.37822	0.25320
0.27621	-0.97117
-0.08081	-1.45582
-0.97337	0.53379
-0.46334	-0.00188
0.63323	0.48277
1.01576	3.26312
0.88825	-1.04770
-0.05531	-1.94047
-0.48884	-1.53234
-0.02981	1.42656
-0.33583	2.19179
0.55673	0.91640
0.70974	0.32972
-0.05531	-2.14453
-0.00431	-0.30797
0.12320	0.25320
0.50573	0.55929
0.45472	-0.15492
-0.05531	-0.07840
-0.41233	0.53379
-0.46334	-1.07320
0.22521	1.12046
0.60773	1.78367
0.58223	-1.35379
0.14870	-2.37410
-0.36133	0.89089
0.07220	0.27871
0.17421	0.73785
0.12320	0.96742
0.50573	1.06945
0.50573	-0.43551
0.30171	0.55929
0.30171	0.25320
0.19971	-0.94566
0.02119	-0.79262
-0.59084	0.45726
-0.61635	-0.02739
-0.20832	0.99292
0.12320	-0.23145
0.53123	-0.23145
0.83725	1.19699
0.83725	-0.28246
0.68424	-0.15492
0.45472	0.10015
0.22521	0.20219
-0.08081	0.43176
-0.13181	0.55929
-0.53984	0.68683
-0.64185	-0.05289
-0.38683	-0.86914
0.32721	0.81437
0.40372	0.50828
0.86275	1.37554
0.50573	-3.01179
0.12320	1.01843
-0.41233	0.22769
-0.89686	0.45726
-0.18282	0.17668
0.48022	0.27871
0.83725	1.45206
0.83725	0.12566
0.78624	-0.76711
0.73524	-0.20594
0.14870	0.48277
-0.71835	-0.38449
-0.25932	0.04914
0.37822	0.91640
-0.02981	0.25320
-0.08081	-0.30797
-0.08081	0.68683
0.45472	0.12566
0.48022	-0.30797
0.37822	-0.89465
0.19971	0.61031
-0.13181	0.61031
-0.31033	-0.05289
-0.05531	0.89089
0.07220	1.24800
0.22521	-3.03730
0.12320	1.83468
0.32721	-0.02739
0.55673	0.99292
0.42922	1.40105
0.19971	1.12046
-0.64185	-1.73640
-0.43783	-0.20594
0.86275	0.61031
0.83725	-0.56305
0.55673	-0.28246
0.12320	1.19699
-0.18282	0.02363
0.02119	0.40625
-0.08081	1.04394
-0.08081	-2.09351
0.32721	1.09496
0.12320	-0.28246
-0.25932	-0.33348
-0.36133	0.30422
0.35272	2.24281
0.65874	-1.71090
0.73524	-1.35379
0.25071	-0.07840
0.09770	0.53379
-0.08081	-0.05289
-0.05531	0.43176
-0.08081	1.09496
0.30171	1.86019
0.14870	1.01843
-0.02981	-0.81812
-0.15732	-1.45582
0.04670	-0.12942
0.25071	-0.84363
-0.02981	1.27351
0.19971	-0.20594
0.25071	0.63582
0.19971	0.91640
-0.31033	-0.48652
0.07220	0.45726
0.58223	-0.02739
0.53123	0.22769
-0.31033	0.76336
-0.18282	0.04914
-0.00431	-0.30797
0.53123	-0.41000
0.60773	-0.51203
0.42922	0.20219
0.48022	0.68683
-0.18282	0.02363
-0.10631	1.88570
-0.08081	0.63582
-0.66735	-0.84363
-0.56534	-0.05289
-0.48884	-0.38449
0.70974	0.17668
1.14327	1.12046
1.21977	-0.76711
0.53123	0.20219
0.14870	0.83988
-0.02981	-0.38449
0.02119	-0.84363
-0.08081	-0.33348
-0.08081	0.27871
-0.31033	0.48277
-0.43783	2.67644
-0.64185	-1.02219
-0.05531	0.38074
0.50573	0.63582
0.70974	-0.15492
0.78624	0.73785
0.73524	-1.17523
0.12320	0.50828
0.04670	0.04914
-0.69285	0.10015
0.04670	0.71234
0.37822	-1.17523
0.32721	-0.43551
0.07220	0.66132
0.07220	0.55929
-0.02981	0.61031
0.17421	-1.25176
0.25071	0.71234
0.19971	1.24800
-0.36133	-1.27726
0.30171	0.71234
0.40372	1.57960
0.48022	-1.53234
0.63323	-1.14973
0.53123	1.29902
-0.23382	1.14597
-1.22839	-0.79262
-1.15188	0.02363
0.02119	1.45206
0.73524	-0.71609
0.91375	0.55929
0.76074	-0.15492
0.53123	-0.02739
0.17421	0.35523
0.04670	0.45726
-0.00431	1.04394
-0.18282	0.43176
-0.53984	-0.10391
-0.79486	-0.92016
0.19971	0.15117
0.42922	-0.58856
0.63323	1.37554
0.63323	0.83988
0.55673	-0.79262
0.27621	-2.17003
0.32721	-1.04770
-0.13181	0.53379
-0.53984	0.58480
-0.18282	1.73265
0.32721	1.06945
0.40372	1.04394
0.30171	0.04914
0.30171	-0.69059
0.27621	-0.53754
0.09770	0.89089
0.40372	-1.58336
-0.18282	0.58480
-0.69285	0.17668
-0.28482	-0.99668
0.09770	0.30422
0.58223	0.35523
0.96476	-0.43551
0.96476	0.12566
0.35272	0.71234
-0.41233	1.24800
-0.69285	-0.33348
-0.23382	0.35523
0.45472	0.15117
0.53123	2.03874
0.32721	-4.26167
-0.13181	1.29902
0.12320	1.24800
0.42922	-0.33348
0.32721	0.61031
0.27621	0.22769
0.22521	-0.53754
0.02119	0.55929
-0.08081	-0.74160
0.09770	-0.25695
0.32721	3.23761
0.04670	-0.66508
-0.43783	1.47757
-0.25932	-3.57296
-0.20832	-0.81812
0.22521	0.99292
0.42922	0.38074
0.76074	1.17148
0.93925	1.57960
0.73524	0.12566
-0.13181	0.22769
-0.28482	0.89089
0.09770	-1.25176
-0.05531	0.22769
0.35272	0.73785
0.30171	-0.05289
0.22521	-0.23145
0.09770	-0.76711
0.07220	0.96742
0.42922	-1.91496
0.09770	0.76336
-0.61635	1.37554
-0.31033	-0.28246
-0.10631	0.32972
0.02119	0.63582
0.60773	0.10015
1.04126	1.06945
0.93925	0.55929
0.60773	0.55929
-0.25932	0.55929
-0.87136	-0.63957
-0.64185	-0.10391
0.30171	-2.37410
0.83725	-1.60887
0.42922	0.63582
0.30171	2.42136
0.17421	2.08976
0.22521	-0.23145
0.53123	-0.07840
0.14870	-0.02739
-0.36133	0.83988
-0.31033	-2.50164
-0.10631	-0.84363
-0.53984	1.65613
0.37822	0.10015
0.48022	0.40625
0.65874	-0.02739
0.55673	1.55410
0.45472	0.55929
0.25071	0.99292
0.02119	-3.36890
-0.05531	1.17148
-0.48884	0.35523
-0.15732	-0.05289
0.25071	0.22769
0.22521	-0.69059
0.42922	1.14597
0.30171	0.17668
0.17421	-0.56305
-0.10631	0.99292
-0.08081	0.02363
0.09770	0.17668
0.12320	1.12046
0.14870	-0.28246
0.32721	0.58480
0.53123	-2.45062
0.37822	1.63062
0.14870	-0.35899
0.07220	0.43176
0.42922	1.55410
-0.02981	0.04914
-0.53984	0.63582
-0.48884	-0.53754
-0.00431	-1.17523
0.27621	0.07465
0.63323	0.96742
0.83725	0.25320
0.58223	-0.46102
0.27621	-0.33348
0.12320	-0.10391
-0.05531	0.25320
-0.51434	0.81437
-0.13181	0.89089
0.17421	-0.66508
0.53123	0.76336
0.48022	-0.15492
0.42922	0.78886
0.14870	-1.32828
0.07220	0.96742
0.17421	0.15117
0.04670	-0.86914
0.32721	1.01843
0.30171	0.61031
0.04670	-1.94047
-0.36133	-0.43551
-0.76936	-0.41000
0.45472	0.99292
0.55673	1.04394
0.88825	-0.25695
0.30171	0.91640
-0.31033	0.20219
-0.38683	0.45726
0.45472	0.27871
0.42922	-0.61406
0.68424	-0.00188
0.73524	0.27871
0.19971	0.66132
-0.15732	-0.25695
-0.79486	-0.38449
-0.10631	-1.37929
0.45472	0.55929
0.17421	0.83988
0.02119	1.40105
-0.28482	-2.42511
-0.23382	2.29382
0.40372	0.61031
0.70974	0.25320
0.53123	1.96222
0.42922	-0.41000
-0.15732	0.63582
-0.48884	-0.61406
0.07220	-0.33348
0.14870	-0.25695
0.27621	0.35523
0.02119	-0.48652
0.12320	-1.12422
0.22521	1.75816
0.35272	-0.71609
0.19971	0.78886
-0.31033	-0.51203
-0.46334	0.99292
0.30171	0.38074
0.58223	0.63582
0.60773	0.63582
0.40372	0.71234
0.19971	-1.53234
-0.46334	0.66132
-0.31033	-0.20594
0.19971	0.07465
0.60773	-1.63437
0.27621	-0.28246
0.09770	0.43176
0.09770	1.45206
0.14870	0.22769
0.17421	-0.15492
-0.05531	-0.56305
-0.20832	0.20219
-0.13181	0.99292
-0.05531	0.89089
0.37822	0.45726
0.14870	-0.33348
0.53123	-0.41000
0.68424	-0.10391
0.30171	0.76336
-0.33583	0.15117
0.04670	-0.51203
0.48022	-2.50164
0.30171	2.37034
-0.33583	1.78367
0.19971	0.55929
0.27621	-0.79262
0.35272	-0.92016
0.45472	0.76336
0.14870	-0.46102
-0.13181	1.24800
-0.74385	-0.25695
-0.79486	0.48277
0.50573	-0.69059
0.58223	1.32453
0.65874	0.48277
0.63323	0.15117
0.48022	-2.14453
0.32721	-0.10391
-0.08081	0.99292
-0.51434	1.57960
0.09770	0.43176
0.12320	0.35523
-0.05531	-1.53234
-0.25932	-0.74160
-0.05531	0.38074
0.50573	1.37554
0.65874	1.24800
0.30171	-0.43551
0.19971	-1.45582
-0.10631	0.32972
-0.59084	0.04914
0.42922	0.30422
0.50573	1.63062
0.63323	0.45726
0.27621	-0.56305
0.42922	0.73785
0.17421	0.43176
-0.20832	-0.28246
-0.25932	0.86539
-0.33583	-0.53754
0.02119	-0.10391
0.32721	-0.56305
0.22521	0.83988
0.27621	0.15117
0.73524	0.96742
0.83725	-0.61406
0.35272	-0.63957
-0.20832	-0.30797
-0.69285	0.17668
-0.43783	0.83988
0.30171	0.71234
0.42922	-0.18043
0.42922	0.63582
0.19971	-0.25695
0.27621	1.60511
0.22521	0.55929
0.07220	-0.28246
0.02119	-0.69059
-0.02981	-2.32308
0.17421	1.14597
-0.02981	1.14597
-0.10631	-0.58856
0.17421	0.17668
0.45472	0.20219
0.19971	1.24800
-0.08081	0.32972
-0.00431	0.50828
0.37822	0.15117
0.73524	0.04914
0.35272	-1.86394
-0.08081	0.86539
-0.20832	0.32972
0.32721	0.20219
0.53123	0.50828
0.58223	0.66132
-0.10631	-1.02219
-0.53984	0.40625
-0.00431	1.29902
0.14870	-0.58856
0.19971	0.50828
0.02119	0.25320
0.04670	0.27871
0.42922	-0.97117
0.37822	-0.12942
0.22521	0.45726
-0.20832	-0.56305
0.12320	1.45206
0.12320	-0.46102
0.19971	0.48277
0.27621	0.76336
0.14870	0.32972
0.14870	-0.05289
0.07220	0.94191
0.35272	-0.94566
0.19971	0.27871
0.07220	0.53379
0.07220	-0.86914
0.07220	1.06945
-0.05531	0.76336
-0.41233	0.66132
-0.13181	-0.86914
0.50573	0.94191
0.70974	-2.32308
0.88825	0.07465
0.45472	0.32972
0.07220	1.06945
-0.61635	-0.20594
-1.04987	-0.10391
0.40372	1.01843
0.70974	-0.28246
0.68424	-0.28246
0.25071	-0.05289
0.32721	1.27351
0.12320	2.67644
0.17421	-2.60367
0.17421	-0.51203
-0.08081	-1.04770
-0.00431	1.22250
0.04670	1.06945
0.25071	0.78886
-0.18282	-0.41000
-0.13181	1.22250
-0.08081	-1.20074
-0.20832	0.27871
0.27621	1.29902
0.73524	-0.56305
0.73524	-0.12942
0.83725	0.12566
0.37822	0.78886
-0.46334	0.30422
-0.36133	-0.23145
-0.41233	0.81437
0.35272	-0.46102
0.63323	1.60511
0.42922	-1.12422
0.53123	-1.09871
0.58223	2.14077
0.07220	0.73785
-0.38683	-1.37929
-0.59084	-0.56305
-0.61635	1.12046
0.02119	0.40625
0.68424	0.40625
0.48022	0.71234
0.63323	-0.38449
0.25071	0.12566
0.14870	0.63582
0.07220	0.07465
0.14870	1.68163
0.02119	-2.04250
-0.20832	-0.79262
-0.38683	0.15117
-0.08081	-0.86914
0.83725	-0.00188
0.58223	-0.23145
0.09770	1.35003
-0.31033	0.22769
0.07220	2.16628
0.37822	1.17148
0.12320	-1.48133
-0.20832	-1.65988
-0.08081	0.30422
0.32721	-0.30797
0.48022	2.03874
0.22521	0.07465
0.32721	-2.62918
0.14870	2.52339
0.02119	-0.28246
0.19971	-0.74160
-0.18282	0.53379
-0.08081	0.12566
0.14870	0.17668
0.35272	1.01843
0.37822	-0.30797
-0.13181	-0.18043
-0.38683	-1.48133
0.07220	0.45726
0.50573	-0.02739
0.65874	1.45206
0.48022	0.86539
0.14870	0.83988
0.09770	-0.76711
0.14870	0.96742
-0.13181	0.07465
-0.46334	-0.46102
-0.00431	0.10015
0.32721	-0.35899
0.50573	-0.05289
0.53123	-0.12942
0.17421	0.86539
0.09770	0.91640
-0.13181	0.20219
-0.10631	-2.34859
-0.00431	1.04394
0.04670	0.15117
0.50573	0.30422
0.40372	1.57960
0.22521	0.53379
0.14870	1.29902
-0.05531	0.38074
0.30171	-0.51203
0.22521	-0.71609
-0.00431	-1.94047
-0.05531	0.15117
0.35272	0.38074
0.42922	1.19699
0.17421	-0.66508
-0.08081	0.73785
-0.59084	-0.15492
-0.66735	1.19699
0.12320	-1.40480
0.42922	2.75296
0.60773	-1.22625
0.42922	-0.12942
0.42922	-0.30797
0.48022	2.14077
0.58223	-0.38449
0.48022	1.01843
0.12320	-0.71609
-0.38683	0.71234
-0.41233	-0.51203
-0.10631	-0.12942
0.04670	0.38074
0.17421	0.38074
0.42922	-0.05289
0.02119	0.25320
-0.08081	-0.35899
0.17421	0.94191
0.60773	-0.51203
0.19971	0.63582
-0.15732	-0.15492
-0.61635	0.45726
-0.13181	-2.01699
0.76074	0.78886
0.76074	-0.02739
0.60773	2.77847
0.12320	1.27351
0.12320	-0.81812
-0.00431	0.43176
0.22521	-1.22625
0.17421	-1.30277
0.07220	0.04914
-0.66735	0.27871
-0.23382	-1.27726
0.48022	2.75296
0.48022	0.96742
0.40372	-1.30277
0.27621	-0.63957
0.19971	-0.25695
0.12320	0.86539
0.12320	0.83988
0.02119	1.06945
0.04670	0.99292
-0.18282	-1.43031
-0.20832	-0.79262
0.37822	0.43176
0.45472	0.48277
0.53123	0.66132
0.17421	-0.58856
0.02119	0.71234
0.02119	0.15117
-0.02981	0.07465
-0.00431	-0.86914
0.40372	0.50828
0.25071	0.91640
-0.05531	0.83988
0.12320	0.48277
0.37822	-2.34859
0.60773	0.25320
0.48022	-0.02739
-0.36133	0.78886
-0.46334	0.48277
-0.18282	-0.00188
0.12320	0.83988
0.53123	0.96742
0.55673	1.04394
0.37822	-1.88945
0.19971	0.04914
0.02119	-0.74160
0.02119	0.63582
0.19971	0.10015
0.12320	1.06945
-0.33583	0.96742
-0.31033	-0.58856
-0.28482	0.63582
0.07220	-0.71609
0.60773	0.68683
0.65874	0.22769
0.45472	-0.56305
0.14870	0.10015
0.27621	0.17668
0.17421	-0.18043
-0.28482	0.10015
-0.51434	-1.22625
0.40372	0.10015
0.65874	-0.56305
0.22521	0.55929
0.19971	1.24800
0.14870	0.73785
0.27621	1.47757
0.09770	0.35523
-0.13181	0.55929
-0.48884	-0.18043
-0.36133	-0.51203
0.02119	-0.25695
0.86275	-0.23145
1.01576	0.20219
0.60773	0.04914
-0.02981	-0.43551
-0.76936	-0.58856
-0.87136	0.53379
0.37822	0.86539
0.53123	-0.58856
0.35272	0.86539
0.40372	-0.05289
0.48022	0.96742
0.32721	1.19699
0.14870	0.96742
0.02119	-0.66508
-0.05531	-2.11902
-0.13181	0.38074
-0.28482	0.61031
-0.00431	0.40625
0.27621	0.20219
0.32721	-1.53234
0.40372	1.01843
0.53123	0.99292
0.53123	-0.63957
0.22521	0.12566
-0.28482	1.17148
-0.76936	-0.00188
-1.04987	0.20219
-0.10631	0.58480
0.73524	-0.41000
1.09226	-1.78742
0.96476	1.86019
0.68424	0.53379
0.53123	0.83988
-0.05531	-0.25695
-0.46334	0.63582
-0.28482	0.02363
-0.00431	-0.58856
0.12320	-0.05289
-0.00431	1.17148
0.02119	0.02363
0.19971	-0.23145
0.22521	-1.02219
0.40372	-0.30797
0.25071	0.22769
0.04670	0.22769
-0.18282	-0.89465
-0.33583	0.91640
0.19971	1.47757
0.42922	1.17148
0.73524	0.53379
0.78624	0.35523
0.50573	0.71234
0.09770	0.15117
-0.28482	-0.02739
-0.64185	0.53379
-0.38683	-0.92016
0.12320	-0.15492
0.27621	-0.18043
0.37822	-0.63957
0.68424	0.71234
0.37822	-0.30797
0.22521	-0.79262
0.02119	0.66132
-0.00431	0.83988
-0.15732	1.47757
-0.05531	-0.15492
0.30171	-0.10391
0.02119	0.45726
0.12320	0.58480
0.22521	-0.48652
0.48022	0.66132
0.22521	-0.63957
0.22521	-0.38449
0.12320	0.91640
0.09770	1.06945
-0.10631	-0.86914
0.09770	-1.37929
0.04670	0.40625
0.07220	0.27871
-0.02981	1.63062
0.27621	0.30422
0.40372	-0.05289
-0.13181	-0.35899
0.32721	-0.15492
0.73524	1.24800
0.09770	-0.51203
0.04670	0.94191
0.42922	-0.35899
0.55673	-0.51203
0.45472	-0.12942
0.12320	0.25320
-0.53984	0.89089
-0.92237	1.04394
-0.13181	-0.18043
0.19971	0.25320
0.50573	-0.35899
0.45472	0.43176
0.30171	0.12566
0.45472	0.25320
-0.00431	-0.51203
0.25071	0.50828
-0.18282	-0.48652
-0.08081	0.66132
0.48022	1.04394
0.25071	0.55929
0.14870	-0.56305
-0.08081	-1.32828
0.04670	0.73785
0.60773	2.01323
0.35272	-0.28246
-0.84586	-0.61406
-0.64185	0.61031
-0.31033	-0.25695
0.70974	-2.50164
1.04126	1.91120
1.01576	-0.56305
0.86275	1.06945
0.12320	1.40105
-0.33583	0.73785
-0.08081	-0.84363
-0.31033	1.68163
-0.08081	0.35523
-0.08081	0.40625
0.30171	-1.04770
0.37822	-1.99148
0.17421	1.06945
0.14870	0.04914
0.09770	0.99292
0.12320	-0.89465
0.50573	-0.76711
0.27621	0.35523
0.02119	1.60511
-0.69285	0.68683
-0.71835	0.22769
0.32721	1.47757
0.70974	-1.07320
0.99026	0.15117
0.81175	0.17668
0.42922	0.71234
-0.02981	-0.15492
-0.25932	0.17668
-0.00431	-0.63957
-0.02981	-1.40480
0.25071	1.57960
-0.18282	-0.02739
-0.25932	0.76336
-0.13181	-0.28246
0.09770	1.40105
0.45472	-0.41000
0.83725	-0.63957
0.68424	-0.51203
0.58223	1.22250
0.12320	0.15117
-0.25932	1.57960
-0.28482	0.12566
-0.05531	0.78886
-0.31033	0.12566
-0.51434	0.07465
0.19971	-0.56305
0.53123	-0.99668
0.48022	-0.18043
0.40372	0.48277
0.19971	1.19699
-0.05531	-0.79262
0.40372	-0.38449
0.32721	1.24800
-0.31033	-2.09351
-0.36133	0.89089
-0.00431	0.58480
0.27621	2.01323
0.40372	0.96742
0.07220	-0.41000
0.19971	-0.10391
0.25071	0.86539
0.53123	-0.51203
0.37822	0.15117
0.12320	-0.63957
-0.10631	1.27351
-0.33583	-0.76711
0.09770	-0.81812
-0.00431	-0.25695
0.19971	-0.12942
0.42922	0.63582
0.42922	0.89089
0.32721	1.06945
0.32721	-1.30277
0.09770	1.32453
-0.05531	0.66132
-0.18282	1.32453
-0.05531	-0.23145
0.12320	-2.29757
0.27621	-0.25695
0.14870	0.81437
0.12320	0.20219
-0.20832	0.35523
-0.46334	0.40625
0.50573	-0.92016
0.68424	0.94191
0.53123	-0.25695
0.25071	0.91640
-0.25932	1.37554
0.07220	-0.15492
0.53123	0.25320
0.32721	0.10015
-0.10631	-0.79262
-0.10631	0.27871
0.02119	-0.00188
0.22521	-0.23145
0.32721	0.50828
0.37822	0.10015
-0.08081	0.50828
-0.10631	0.45726
0.17421	-0.56305
0.12320	-0.43551
0.22521	1.17148
0.12320	-1.86394
0.12320	1.91120
0.14870	0.20219
0.12320	1.68163
0.27621	-0.12942
-0.00431	-0.86914
-0.56534	0.27871
-0.20832	0.94191
0.42922	-0.58856
0.88825	0.15117
0.93925	-0.76711
0.60773	0.17668
-0.08081	0.96742
-0.46334	1.06945
0.17421	-0.28246
0.32721	0.17668
0.17421	-0.10391
0.04670	0.25320
-0.05531	-0.02739
0.07220	0.07465
0.27621	-0.00188
0.30171	0.12566
0.27621	0.53379
-0.10631	0.94191
-0.23382	1.24800
0.37822	0.96742
0.37822	-1.14973
0.14870	-0.51203
-0.00431	0.94191
-0.23382	-0.48652
0.17421	0.04914
0.37822	-0.25695
0.48022	-0.56305
0.50573	0.48277
0.42922	-0.48652
0.04670	1.27351
-0.84586	0.66132
-0.92237	-0.66508
0.32721	1.37554
0.48022	0.53379
0.91375	0.30422
0.88825	-0.05289
0.40372	-0.66508
0.07220	-0.25695
-0.18282	0.10015
-0.61635	0.68683
-0.15732	0.32972
0.09770	-0.69059
0.17421	0.76336
0.02119	0.07465
0.07220	-2.06800
0.53123	1.19699
0.32721	1.24800
0.25071	0.35523
0.48022	0.63582
0.17421	0.25320
-0.31033	-1.17523
-0.33583	-0.51203
0.27621	0.04914
0.12320	1.37554
0.32721	0.61031
0.45472	-0.41000
0.53123	0.43176
0.53123	1.37554
0.12320	-0.81812
-0.25932	-0.74160
-0.69285	-0.46102
-0.69285	0.66132
0.35272	0.66132
0.55673	0.25320
0.60773	0.35523
0.50573	0.48277
0.30171	-0.05289
0.12320	-0.12942
0.12320	-1.40480
0.19971	2.67644
-0.23382	-0.51203
-0.20832	0.55929
0.02119	0.99292
-0.13181	-0.15492
0.50573	0.12566
0.70974	-0.63957
0.40372	0.07465
-0.13181	0.02363
-0.36133	0.27871
0.12320	-1.81293
0.37822	0.86539
0.76074	-1.17523
0.32721	1.42656
0.04670	1.32453
-0.48884	0.40625
-0.18282	-0.63957
0.27621	0.10015
0.81175	0.63582
0.25071	0.86539
0.09770	0.68683
0.48022	-0.05289
0.02119	-0.71609
-0.25932	0.45726
-0.05531	1.27351
0.17421	-3.08831
0.32721	0.71234
0.27621	0.10015
-0.08081	-0.02739
-0.08081	1.35003
0.40372	0.40625
0.30171	0.17668
0.17421	-0.33348
0.09770	-0.56305
0.07220	0.81437
0.32721	0.96742
0.40372	0.91640
0.25071	-0.38449
0.09770	0.78886
-0.08081	0.15117
0.07220	-0.30797
0.14870	-0.71609
-0.02981	0.89089
-0.20832	-1.14973
0.30171	-0.10391
0.53123	0.55929
0.12320	0.50828
-0.51434	-0.35899
-0.38683	0.55929
0.48022	-0.66508
0.78624	-0.30797
0.73524	1.09496
0.78624	0.94191
0.42922	0.71234
0.37822	0.63582
-0.10631	-0.81812
-0.59084	-0.07840
-0.38683	0.17668
-0.28482	0.02363
-0.00431	-0.79262
0.30171	0.04914
0.30171	0.58480
0.40372	0.35523
0.19971	0.48277
-0.13181	0.27871
-0.25932	0.91640
0.12320	-0.10391
0.63323	-0.05289
0.65874	0.15117
0.40372	1.09496
0.17421	-1.12422
-0.00431	-1.27726
-0.02981	-0.89465
0.32721	1.42656
-0.00431	0.32972
-0.36133	1.06945
-0.00431	0.07465
0.32721	0.22769
0.42922	-0.53754
0.55673	0.32972
0.50573	1.37554
-0.02981	-0.05289
0.07220	-1.58336
0.02119	0.73785
-0.41233	0.55929
0.04670	0.55929
0.09770	-0.38449
0.14870	-0.18043
-0.00431	-0.20594
0.30171	-0.33348
0.27621	-0.00188
-0.02981	0.71234
0.53123	1.06945
0.55673	0.73785
0.50573	-0.99668
0.58223	0.53379
-0.00431	-0.05289
-0.56534	0.20219
-0.64185	0.10015
-0.64185	-1.09871
0.19971	1.22250
0.58223	-0.48652
0.68424	0.07465
0.53123	0.86539
0.40372	0.25320
0.17421	0.32972
0.02119	0.91640
0.02119	0.15117
-0.10631	-1.65988
-0.08081	0.48277
-0.18282	0.15117
-0.02981	-0.41000
0.09770	0.76336
0.37822	-0.58856
0.55673	-1.12422
0.04670	0.96742
0.02119	0.76336
0.07220	0.71234
0.32721	0.43176
0.60773	0.10015
0.37822	-0.05289
0.02119	-0.30797
-0.15732	-0.07840
0.09770	-0.00188
0.55673	0.53379
0.32721	0.58480
0.14870	-0.69059
-0.31033	0.32972
-0.43783	0.53379
-0.00431	-1.48133
0.45472	0.45726
0.58223	-0.28246
0.19971	0.27871
0.04670	1.91120
0.04670	2.11527
0.22521	-0.30797
0.07220	-1.71090
-0.41233	0.40625
-0.05531	0.32972
0.55673	0.38074
0.68424	-0.10391
0.27621	0.07465
-0.02981	0.15117
0.14870	-0.10391
0.12320	0.99292
-0.18282	-1.53234
0.30171	-0.07840
0.12320	0.76336
0.02119	0.22769
0.07220	0.38074
0.50573	-0.18043
0.63323	0.58480
0.40372	0.32972
-0.36133	-0.94566
-0.59084	1.01843
0.07220	1.17148
0.22521	0.76336
0.48022	-0.89465
0.58223	-1.45582
0.37822	0.17668
0.35272	0.68683
0.17421	0.50828
-0.00431	1.06945
-0.31033	1.55410
-0.79486	-1.12422
-0.18282	-0.46102
0.50573	-0.38449
0.73524	0.81437
0.63323	-0.35899
0.27621	0.15117
0.14870	0.71234
0.14870	0.15117
0.02119	0.17668
-0.10631	-0.30797
-0.25932	-0.00188
-0.31033	0.50828
-0.15732	-0.61406
0.22521	-0.28246
0.60773	1.09496
0.65874	-0.15492
0.58223	0.55929
-0.02981	0.63582
-0.33583	-0.53754
-0.51434	0.96742
-0.28482	-0.18043
0.30171	-0.63957
0.73524	0.22769
0.53123	0.73785
0.55673	0.20219
0.35272	0.17668
0.32721	0.40625
0.25071	0.99292
0.25071	-0.81812
0.02119	-1.43031
-0.36133	0.30422
-0.64185	0.66132
-0.43783	0.48277
0.19971	0.04914
0.37822	-0.23145
0.50573	0.71234
0.53123	1.40105
0.37822	-0.30797
0.02119	-1.20074
-0.00431	0.71234
-0.15732	0.35523
-0.08081	-0.07840
0.32721	-0.07840
0.42922	0.45726
0.58223	-0.46102
0.40372	1.47757
0.09770	-0.41000
-0.08081	0.66132
-0.08081	-0.41000
-0.20832	-0.61406
-0.31033	0.91640
0.17421	0.55929
0.37822	0.43176
0.60773	0.15117
0.50573	-0.48652
0.14870	0.25320
0.09770	0.45726
0.09770	-0.92016
0.02119	0.32972
0.19971	-0.07840
-0.05531	0.22769
-0.10631	0.25320
0.14870	0.17668
0.14870	-0.74160
0.12320	0.10015
0.02119	0.45726
0.25071	2.31933
0.37822	0.48277
-0.05531	-0.86914
-0.15732	-0.84363
0.35272	0.07465
0.25071	-0.20594
0.02119	0.73785
0.27621	0.91640
0.32721	1.22250
0.45472	-2.19554
0.22521	1.06945
0.14870	0.78886
-0.53984	-0.38449
-0.05531	-0.92016
0.50573	-0.28246
0.55673	-0.58856
0.37822	1.12046
-0.36133	0.86539
-0.13181	0.32972
0.50573	-0.58856
0.19971	1.22250
-0.56534	0.50828
-0.10631	-0.35899
0.19971	-0.61406
0.42922	0.02363
0.68424	0.66132
0.32721	-0.99668
0.04670	0.43176
0.17421	0.15117
0.19971	0.48277
0.19971	1.17148
-0.23382	-0.20594
-0.15732	-0.48652
0.17421	-0.33348
0.17421	0.94191
0.30171	0.17668
0.32721	0.17668
0.04670	-0.18043
-0.33583	-0.61406
-0.15732	-0.15492
0.58223	0.55929
0.63323	-0.00188
0.12320	0.17668
-0.36133	0.73785
-0.15732	0.81437
0.25071	0.58480
0.53123	0.10015
0.76074	-1.73640
0.55673	-1.02219
0.25071	0.86539
-0.08081	1.06945
-0.31033	0.32972
-0.28482	-0.25695
0.22521	0.96742
0.32721	-0.51203
0.22521	1.22250
-0.15732	-1.37929
-0.18282	0.15117
0.40372	1.14597
0.19971	1.01843
-0.00431	-0.97117
0.30171	-0.41000
0.63323	0.83988
0.22521	-0.12942
0.22521	0.40625
0.12320	0.30422
-0.15732	-0.25695
-0.02981	0.45726
-0.10631	1.19699
0.22521	-0.48652
0.27621	0.22769
0.12320	-0.15492
0.07220	0.91640
0.25071	-0.25695
0.30171	-1.30277
-0.08081	-0.15492
-0.38683	-1.20074
0.07220	0.91640
0.50573	1.40105
0.63323	1.19699
0.73524	0.96742
0.35272	0.50828
0.14870	-0.07840
0.02119	0.20219
-0.64185	-0.63957
-0.28482	-0.28246
0.19971	-0.48652
0.35272	-0.25695
0.32721	1.29902
0.12320	-0.79262
-0.08081	-0.71609
0.12320	1.42656
0.09770	0.10015
0.07220	0.66132
0.22521	-0.28246
0.09770	0.07465
0.22521	0.45726
0.40372	0.27871
0.32721	-0.15492
0.50573	0.61031
0.25071	-0.05289
-0.33583	-0.25695
-0.76936	0.61031
-0.43783	0.61031
0.27621	-0.02739
0.63323	-0.35899
0.83725	-0.33348
0.53123	0.43176
0.58223	0.25320
0.35272	0.63582
-0.20832	-0.48652
-0.61635	-1.14973
-0.02981	0.89089
-0.00431	-0.33348
-0.08081	0.30422
0.07220	2.47238
0.25071	0.04914
0.53123	-0.51203
0.53123	0.25320
0.32721	-0.81812
0.19971	1.01843
0.17421	-0.48652
-0.00431	0.91640
-0.08081	-1.27726
0.04670	1.01843
0.02119	-0.58856
0.04670	-0.28246
0.27621	0.68683
0.40372	1.29902
0.02119	-0.66508
-0.48884	-0.20594
-0.43783	0.63582
0.37822	1.47757
0.78624	-1.45582
0.68424	0.12566
0.48022	1.57960
0.27621	0.43176
0.32721	-0.35899
0.07220	0.89089
-0.28482	0.66132
-0.20832	-0.76711
-0.02981	-1.20074
0.42922	0.30422
0.25071	0.50828
-0.05531	0.48277
-0.23382	-0.00188
0.22521	-1.73640
0.32721	0.86539
0.42922	0.86539
0.65874	-0.48652
0.12320	1.04394
-0.36133	1.14597
-0.00431	0.71234
0.07220	0.17668
0.37822	-0.23145
0.25071	-1.14973
0.25071	-0.94566
0.02119	1.27351
-0.02981	-0.66508
0.12320	0.91640
0.40372	0.20219
0.12320	-0.48652
-0.13181	-0.25695
-0.25932	-0.15492
-0.20832	0.43176
0.02119	0.81437
0.40372	-0.33348
0.50573	0.53379
0.32721	1.24800
0.14870	-0.30797
0.50573	0.38074
0.53123	0.96742
0.22521	-0.74160
-0.00431	0.71234
-0.31033	-0.74160
-0.41233	1.45206
-0.20832	-0.79262
0.07220	-2.17003
0.45472	1.09496
0.73524	0.40625
0.65874	0.61031
-0.00431	-0.97117
-0.36133	0.02363
-0.10631	0.89089
0.14870	0.15117
-0.00431	0.76336
0.14870	-0.20594
0.37822	1.29902
0.42922	-0.30797
0.37822	0.38074
0.30171	0.58480
-0.02981	-0.89465
0.30171	0.55929
0.12320	-0.66508
-0.20832	1.01843
0.09770	-0.05289
0.09770	0.40625
0.27621	-1.09871
0.27621	0.10015
0.17421	0.96742
0.04670	-0.51203
0.04670	1.65613
0.22521	-0.00188
0.14870	0.07465
-0.02981	0.17668
-0.00431	-0.12942
0.12320	0.10015
0.25071	-0.18043
0.09770	-0.10391
0.32721	-0.02739
-0.02981	0.76336
0.42922	1.68163
-0.02981	-0.58856
0.04670	0.38074
0.12320	-0.63957
0.27621	0.25320
0.45472	1.29902
0.25071	-0.58856
0.19971	-1.58336
0.14870	0.96742
0.09770	0.30422
0.04670	0.45726
-0.10631	-0.79262
0.04670	0.73785
0.04670	-1.04770
0.14870	-0.56305
0.09770	2.39585
-0.43783	0.73785
-0.25932	1.09496
0.35272	0.68683
0.76074	0.12566
0.76074	-0.66508
0.81175	-1.07320
0.40372	0.40625
-0.08081	0.10015
-0.18282	-0.66508
-0.13181	0.43176
-0.13181	0.04914
-0.23382	0.20219
-0.00431	-0.15492
0.30171	0.50828
0.42922	-0.35899
0.12320	0.68683
0.25071	-0.94566
0.30171	-0.46102
0.37822	1.27351
0.07220	0.63582
-0.48884	0.25320
-0.56534	0.30422
0.27621	0.83988
0.70974	0.66132
0.55673	-0.76711
0.30171	0.45726
0.22521	-1.32828
0.07220	1.68163
0.32721	0.30422
0.04670	0.15117
-0.08081	-0.97117
-0.28482	-1.58336
-0.13181	-0.30797
0.19971	2.06425
-0.08081	0.68683
0.45472	-0.63957
0.58223	0.73785
0.40372	1.01843
0.37822	0.94191
0.09770	-0.79262
-0.08081	-0.69059
-0.05531	0.02363
0.02119	0.22769
0.37822	-0.63957
0.25071	-0.25695
0.14870	-0.12942
-0.00431	0.15117
0.04670	0.61031
0.19971	-0.23145
0.25071	0.50828
0.25071	1.24800
0.12320	-0.38449
0.32721	0.86539
0.09770	0.07465
-0.10631	0.22769
-0.31033	-1.37929
-0.46334	0.89089
0.02119	-0.15492
0.73524	0.35523
0.70974	-0.10391
0.70974	-0.12942
0.55673	0.71234
-0.13181	0.22769
-0.74385	-0.18043
-0.18282	1.04394
0.68424	0.43176
0.63323	0.71234
0.40372	-0.56305
-0.31033	-1.55785
-0.05531	0.58480
0.42922	-0.69059
0.32721	1.83468
0.22521	-1.22625
0.12320	0.73785
0.07220	0.15117
0.04670	0.63582
-0.08081	1.12046
-0.28482	-0.23145
-0.84586	-0.66508
-0.10631	-0.20594
0.58223	0.96742
0.70974	1.09496
0.55673	0.83988
0.70974	-0.38449
0.55673	-0.97117
0.48022	0.68683
-0.00431	1.24800
-0.25932	-0.92016
-0.05531	0.35523
-0.23382	-0.66508
-0.28482	1.06945
-0.13181	0.61031
0.19971	-0.99668
0.14870	-0.25695
0.19971	0.63582
0.50573	0.78886
0.42922	0.25320
0.19971	-0.46102
0.42922	0.15117
0.40372	1.17148
0.07220	0.86539
-0.13181	-0.05289
-0.08081	-0.20594
0.30171	-1.83844
0.12320	0.55929
-0.08081	0.38074
-0.23382	0.78886
-0.00431	0.45726
0.02119	-0.81812
-0.31033	-0.00188
-0.13181	0.94191
0.55673	-0.58856
0.93925	0.86539
1.19427	0.15117
0.83725	0.43176
0.30171	0.61031
-0.79486	-0.25695
-1.20288	-0.69059
-0.43783	0.04914
0.60773	-0.18043
0.63323	-0.05289
0.65874	0.61031
0.58223	-0.51203
0.37822	0.45726
0.09770	0.91640
-0.00431	-0.30797
-0.08081	-0.18043
-0.02981	1.06945
-0.10631	0.89089
0.22521	-0.46102
0.07220	0.25320
0.19971	0.07465
0.22521	0.02363
0.07220	1.52859
-0.23382	-1.12422
-0.31033	-1.68539
0.27621	0.30422
0.58223	-0.43551
0.55673	0.30422
0.63323	0.50828
0.32721	0.68683
-0.10631	0.63582
0.07220	0.99292
0.25071	-1.07320
0.04670	0.96742
0.12320	-0.56305
0.02119	0.22769
0.27621	-0.38449
0.37822	-0.12942
0.27621	0.43176
-0.05531	0.83988
-0.51434	-0.58856
-0.53984	1.17148
-0.13181	0.61031
0.73524	0.04914
0.81175	0.10015
0.22521	-0.12942
-0.18282	-1.04770
0.42922	-0.28246
0.32721	0.35523
0.45472	0.99292
0.19971	-0.41000
0.25071	0.78886
0.37822	-0.48652
-0.28482	-0.86914
-0.23382	2.19179
0.09770	-1.37929
0.19971	0.83988
0.27621	1.17148
0.32721	-0.66508
0.30171	0.20219
0.22521	0.02363
-0.00431	1.35003
-0.15732	-0.35899
-0.05531	-1.12422
0.17421	0.43176
0.35272	0.32972
0.42922	-0.58856
-0.10631	0.17668
-0.08081	-0.81812
0.32721	1.04394
0.30171	1.19699
0.07220	-0.66508
-0.28482	0.30422
-0.28482	0.35523
0.19971	0.76336
0.81175	-0.05289
1.11776	0.55929
0.60773	-0.89465
0.12320	0.78886
-0.33583	0.17668
-0.18282	0.04914
0.32721	0.38074
0.17421	0.61031
0.07220	-0.58856
0.19971	-0.63957
0.17421	0.89089
-0.08081	0.53379
-0.28482	0.53379
-0.56534	-0.69059
-0.56534	0.30422
0.30171	-0.28246
0.88825	0.83988
0.96476	-0.35899
0.48022	-0.20594
0.12320	1.17148
-0.08081	-0.10391
-0.08081	0.91640
-0.00431	-0.28246
0.22521	-0.94566
0.68424	-0.66508
0.42922	0.61031
0.22521	1.14597
-0.20832	0.40625
-0.25932	-0.10391
-0.31033	-0.00188
-0.64185	0.81437
0.30171	0.10015
0.32721	0.81437
0.73524	-1.43031
0.93925	0.71234
0.70974	-1.09871
0.14870	-0.81812
-0.33583	1.14597
-0.20832	0.76336
0.07220	0.96742
0.12320	0.78886
-0.08081	-0.41000
0.17421	0.25320
0.25071	1.14597
0.17421	-0.84363
0.19971	-0.97117
0.17421	-1.50683
