0.12320	-0.25695
0.14870	1.06945
0.09770	-0.74160
0.12320	0.27871
0.12320	0.61031
0.14870	0.61031
0.22521	-0.48652
0.22521	0.40625
0.19971	-0.30797
0.12320	0.76336
0.04670	-0.02739
0.09770	1.14597
0.17421	-1.02219
0.17421	-0.61406
0.17421	0.22769
0.17421	1.22250
0.14870	0.30422
0.14870	0.50828
0.19971	0.35523
0.19971	0.30422
0.19971	0.30422
0.22521	-0.99668
0.12320	-0.20594
0.14870	0.25320
0.12320	-0.46102
0.14870	0.63582
0.04670	-1.02219
0.07220	-0.74160
0.09770	0.10015
0.07220	0.73785
0.14870	1.68163
0.17421	0.83988
0.14870	0.50828
0.14870	-0.51203
0.14870	0.04914
0.14870	0.55929
0.12320	0.27871
0.12320	-0.81812
0.17421	0.38074
0.22521	-0.15492
0.14870	-0.92016
0.17421	0.48277
0.17421	0.53379
0.14870	0.66132
0.12320	-0.63957
0.17421	0.43176
0.14870	0.10015
0.17421	0.25320
0.14870	0.07465
0.09770	0.27871
0.07220	0.25320
0.14870	0.43176
0.14870	0.10015
0.17421	-0.18043
0.27621	0.20219
0.22521	0.32972
0.14870	0.22769
0.07220	0.17668
0.12320	-0.00188
0.12320	0.12566
0.19971	0.20219
0.12320	0.10015
0.14870	-0.38449
0.09770	0.27871
0.09770	0.32972
0.14870	0.35523
0.14870	0.35523
0.19971	0.10015
0.22521	0.32972
0.12320	-0.35899
0.14870	0.22769
0.09770	0.30422
0.12320	0.25320
0.07220	0.27871
0.12320	0.10015
0.12320	-0.00188
0.17421	-0.00188
0.12320	0.22769
0.12320	0.10015
0.17421	0.04914
0.22521	-0.35899
0.22521	0.45726
0.12320	0.66132
0.09770	0.45726
0.12320	0.35523
0.12320	-0.10391
0.14870	-0.58856
0.19971	0.30422
0.12320	0.43176
0.14870	0.43176
0.09770	0.25320
0.17421	0.07465
0.14870	-0.74160
0.07220	0.50828
0.09770	0.55929
0.17421	0.20219
0.17421	0.12566
0.22521	-0.00188
0.14870	0.15117
0.14870	0.27871
0.22521	0.15117
0.12320	0.15117
0.14870	0.17668
0.17421	-0.25695
0.14870	0.22769
0.12320	0.25320
0.04670	0.10015
0.09770	0.10015
0.04670	0.12566
0.12320	-0.25695
0.12320	0.38074
0.14870	0.45726
0.19971	0.48277
0.25071	0.22769
0.17421	-0.56305
0.14870	-0.76711
0.09770	0.45726
0.09770	0.58480
0.04670	0.38074
0.02119	0.32972
0.07220	0.20219
0.09770	0.32972
0.17421	0.25320
0.17421	0.10015
0.22521	-0.20594
0.22521	0.17668
0.17421	0.30422
0.22521	0.25320
0.12320	0.04914
0.17421	-0.46102
0.19971	0.25320
0.22521	0.32972
0.14870	0.27871
0.14870	0.30422
0.19971	0.38074
0.09770	-0.02739
0.07220	-0.02739
0.14870	0.04914
0.12320	0.27871
0.12320	0.30422
0.12320	0.32972
0.12320	0.20219
0.09770	0.30422
0.19971	0.04914
0.17421	0.25320
0.22521	0.20219
0.19971	0.07465
0.19971	-0.12942
0.19971	0.10015
0.09770	0.25320
0.12320	-0.10391
0.17421	0.25320
0.14870	-0.10391
0.14870	0.20219
0.17421	0.38074
0.09770	0.22769
0.07220	0.22769
0.07220	-0.18043
0.04670	0.10015
0.09770	0.15117
0.12320	0.63582
0.19971	0.43176
0.22521	0.25320
0.22521	-0.05289
0.27621	0.25320
0.22521	0.15117
0.22521	-0.00188
0.19971	-0.05289
0.12320	0.20219
0.12320	0.32972
0.04670	0.35523
0.09770	-0.15492
0.07220	0.12566
0.17421	-0.00188
0.17421	0.20219
0.14870	-0.05289
0.22521	-0.07840
0.19971	0.02363
0.07220	0.32972
0.07220	0.17668
0.04670	0.27871
0.07220	0.27871
0.09770	0.30422
0.17421	0.22769
0.17421	0.32972
0.17421	0.32972
0.17421	-0.35899
0.19971	-0.43551
0.19971	0.27871
0.14870	0.32972
0.22521	0.53379
0.14870	0.35523
0.12320	0.02363
0.17421	-0.41000
0.27621	-0.48652
0.14870	0.35523
0.19971	0.40625
0.12320	0.48277
0.07220	0.53379
0.14870	-0.15492
0.09770	0.25320
0.14870	-0.00188
0.14870	-0.12942
0.22521	-0.15492
0.25071	0.61031
0.25071	0.20219
0.12320	0.25320
0.12320	0.27871
0.14870	0.12566
0.09770	0.04914
0.12320	0.10015
0.12320	0.17668
0.17421	0.10015
0.25071	0.20219
0.19971	0.15117
0.14870	-0.10391
0.17421	-0.00188
0.12320	-0.61406
0.17421	0.45726
0.09770	0.32972
0.14870	0.58480
0.09770	0.04914
0.07220	0.10015
0.07220	0.20219
0.09770	0.35523
0.17421	0.35523
0.14870	0.32972
0.19971	0.30422
0.12320	0.55929
0.14870	-0.99668
0.07220	0.04914
0.07220	0.32972
0.14870	0.30422
0.22521	0.12566
0.17421	0.10015
0.09770	-0.07840
0.14870	0.15117
0.17421	0.20219
0.12320	0.10015
0.14870	0.25320
0.14870	0.25320
0.22521	0.12566
0.19971	0.15117
0.17421	0.20219
0.19971	0.22769
0.14870	0.12566
0.07220	-0.00188
0.09770	0.04914
0.12320	-0.15492
0.12320	0.07465
0.04670	0.48277
0.12320	0.35523
0.14870	-0.05289
0.12320	-0.07840
0.12320	-0.15492
0.09770	-0.20594
0.04670	0.27871
0.07220	0.43176
0.07220	0.68683
0.07220	0.48277
0.07220	0.04914
0.14870	0.27871
0.14870	0.02363
0.12320	0.04914
0.27621	0.10015
0.25071	0.15117
0.22521	-0.07840
0.12320	0.07465
0.12320	-0.15492
0.07220	-0.05289
0.12320	-0.10391
0.07220	0.32972
0.14870	0.55929
0.12320	0.32972
0.12320	0.10015
0.12320	-0.07840
0.12320	0.40625
0.07220	0.45726
0.14870	0.02363
0.17421	-0.51203
0.19971	0.35523
0.17421	0.81437
0.12320	0.12566
0.14870	-0.30797
0.12320	-0.23145
0.09770	-0.35899
0.14870	0.68683
0.14870	0.63582
0.19971	0.43176
0.12320	0.25320
0.12320	-0.35899
0.09770	0.25320
0.09770	0.15117
0.07220	0.22769
0.17421	0.40625
0.14870	0.02363
0.22521	-0.02739
0.17421	0.10015
0.19971	0.17668
0.12320	0.35523
0.22521	0.43176
0.25071	0.20219
0.19971	-0.56305
0.22521	0.27871
0.17421	0.10015
0.17421	0.45726
0.12320	0.27871
0.17421	0.32972
0.12320	0.38074
0.09770	0.32972
0.04670	-0.18043
0.07220	0.15117
0.09770	0.22769
0.14870	0.45726
0.19971	0.25320
0.17421	-0.20594
0.12320	-0.12942
0.14870	0.22769
0.19971	0.30422
0.19971	0.35523
0.17421	0.17668
0.09770	-0.05289
0.07220	-0.15492
0.14870	0.12566
0.17421	0.43176
0.25071	0.30422
0.19971	-0.18043
0.14870	0.22769
0.04670	0.22769
0.07220	-0.35899
0.14870	0.43176
0.14870	0.17668
0.14870	0.30422
0.17421	0.38074
0.17421	0.30422
0.14870	-0.25695
0.17421	0.32972
0.07220	0.15117
0.07220	0.07465
0.07220	0.04914
0.07220	0.04914
0.14870	0.10015
0.17421	0.10015
0.14870	0.12566
0.17421	0.15117
0.22521	0.15117
0.22521	0.04914
0.19971	0.17668
0.17421	0.35523
0.17421	0.30422
0.22521	0.25320
0.22521	-0.33348
0.22521	0.02363
0.12320	0.30422
0.14870	-0.18043
0.14870	0.55929
0.17421	-0.07840
0.17421	0.22769
0.07220	-0.07840
0.07220	0.53379
0.07220	0.15117
0.12320	0.48277
0.22521	0.10015
0.19971	-0.10391
0.09770	0.30422
0.14870	0.17668
0.09770	0.12566
0.19971	0.15117
0.12320	0.12566
0.12320	0.12566
0.14870	0.12566
0.19971	0.15117
0.19971	0.07465
0.14870	0.07465
0.19971	0.15117
0.09770	0.17668
0.14870	0.15117
0.12320	0.17668
0.12320	0.15117
0.14870	0.48277
0.12320	0.27871
0.14870	-0.15492
0.14870	-0.97117
0.07220	0.55929
0.17421	-0.05289
0.09770	-0.05289
0.12320	0.58480
0.09770	0.99292
0.07220	0.45726
0.09770	-0.43551
0.04670	-0.10391
0.07220	0.40625
0.14870	-0.35899
0.17421	0.04914
0.19971	0.35523
0.19971	0.20219
0.14870	0.15117
0.12320	0.04914
0.19971	0.15117
0.19971	0.15117
0.19971	0.04914
0.22521	0.15117
0.14870	0.04914
0.14870	0.07465
0.12320	-0.18043
0.12320	0.10015
0.17421	0.25320
0.12320	0.22769
0.17421	0.35523
0.14870	0.07465
0.14870	-0.38449
0.12320	-0.12942
0.14870	0.55929
0.22521	0.35523
0.17421	0.15117
0.12320	-0.02739
0.14870	0.10015
0.12320	0.20219
0.07220	0.07465
0.02119	0.20219
0.04670	-0.05289
0.09770	0.17668
0.12320	0.07465
0.09770	-0.12942
0.09770	0.35523
0.09770	0.30422
0.12320	0.10015
0.14870	-0.15492
0.12320	0.22769
0.12320	0.43176
0.25071	0.22769
0.22521	0.07465
0.14870	0.35523
0.14870	0.35523
0.19971	-0.05289
0.12320	0.10015
0.14870	0.22769
0.19971	0.32972
0.22521	0.15117
0.14870	-0.00188
0.19971	-0.30797
0.19971	0.32972
0.22521	0.27871
0.22521	0.38074
0.19971	-0.15492
0.17421	0.17668
0.17421	-0.61406
0.07220	-0.05289
0.07220	0.58480
0.09770	0.30422
0.17421	0.50828
0.17421	0.45726
0.22521	-0.15492
0.19971	0.27871
0.17421	-0.38449
0.09770	0.43176
0.07220	0.35523
0.12320	0.15117
0.14870	-0.43551
0.12320	0.25320
0.19971	0.20219
0.19971	0.30422
0.19971	0.10015
0.14870	0.15117
0.17421	0.02363
0.12320	-0.41000
0.17421	0.25320
0.07220	0.17668
0.09770	0.27871
0.09770	0.04914
0.07220	0.27871
0.09770	0.25320
0.17421	0.20219
0.25071	0.10015
0.25071	0.15117
0.14870	0.15117
0.09770	0.04914
0.07220	0.17668
0.14870	0.32972
0.17421	0.32972
0.12320	-0.53754
0.09770	-1.14973
0.07220	0.32972
0.12320	0.53379
0.27621	0.48277
0.27621	0.63582
0.17421	0.58480
0.12320	0.12566
0.07220	0.27871
0.07220	0.04914
0.14870	-0.10391
0.17421	-0.18043
0.22521	-0.23145
0.17421	0.32972
0.07220	0.25320
0.17421	0.32972
0.17421	0.15117
0.17421	0.00000
0.22521	0.00000
0.09770	0.00000
0.02119	-0.02739
0.14870	0.22769
0.22521	0.22769
0.22521	0.17668
0.22521	0.17668
0.14870	-0.10391
0.07220	0.25320
0.09770	0.25320
0.07220	0.27871
0.09770	-0.12942
0.17421	-0.05289
0.22521	0.30422
0.14870	0.12566
0.17421	0.40625
0.17421	0.35523
0.17421	0.30422
0.12320	-0.28246
0.09770	-0.00188
0.07220	-0.30797
0.09770	0.50828
0.12320	0.12566
0.17421	-0.00188
0.12320	0.04914
0.14870	0.50828
0.27621	0.53379
0.22521	0.15117
0.12320	0.22769
0.14870	0.15117
0.12320	0.20219
0.14870	0.15117
0.12320	0.17668
0.14870	0.12566
0.14870	0.04914
0.14870	0.15117
0.19971	0.07465
0.17421	-0.12942
0.09770	0.12566
0.07220	0.20219
0.02119	0.25320
0.07220	0.15117
0.07220	0.12566
0.14870	0.04914
0.14870	-0.05289
0.17421	-0.10391
0.17421	0.35523
0.17421	0.35523
0.12320	0.20219
0.12320	-0.12942
0.12320	0.04914
0.09770	0.20219
0.14870	0.40625
0.17421	0.12566
0.14870	0.53379
0.22521	-0.35899
0.27621	-0.35899
0.22521	-0.15492
0.22521	0.38074
0.22521	0.61031
0.19971	0.50828
0.17421	0.43176
0.19971	0.22769
0.17421	0.17668
0.17421	0.20219
0.14870	0.20219
0.30171	-0.02739
0.25071	0.02363
0.19971	0.22769
0.19971	0.43176
0.22521	-0.48652
0.19971	-0.58856
0.14870	-0.41000
0.22521	0.66132
0.22521	0.71234
0.19971	0.58480
0.25071	0.50828
0.22521	0.43176
0.22521	0.30422
0.19971	0.17668
0.22521	0.15117
0.17421	0.15117
0.19971	0.07465
0.22521	0.07465
0.19971	0.22769
0.22521	0.15117
0.25071	-0.18043
0.22521	-0.00188
0.27621	0.25320
0.17421	0.27871
0.19971	0.35523
0.17421	0.20219
0.19971	-0.10391
0.19971	0.32972
0.27621	0.50828
0.19971	0.32972
0.25071	0.35523
0.22521	0.35523
0.22521	-0.43551
0.19971	0.30422
0.17421	-0.15492
0.17421	0.45726
0.19971	0.02363
0.17421	0.27871
0.22521	0.27871
0.14870	0.27871
0.19971	-0.20594
0.17421	0.15117
0.12320	0.32972
0.09770	0.10015
0.12320	-0.07840
0.09770	-0.20594
0.07220	0.27871
0.09770	0.12566
0.09770	0.15117
0.12320	0.15117
0.17421	0.32972
0.17421	0.32972
0.22521	0.15117
0.12320	-0.28246
0.17421	0.25320
0.07220	0.35523
0.04670	-0.23145
0.04670	-0.05289
0.14870	-0.05289
0.27621	0.40625
0.22521	0.73785
0.14870	0.38074
0.07220	0.40625
0.17421	0.32972
0.09770	-0.25695
0.07220	-0.02739
0.17421	-0.92016
0.14870	0.32972
0.14870	0.04914
0.09770	0.86539
0.12320	0.76336
0.22521	-0.05289
0.27621	1.27351
0.22521	-0.71609
0.09770	-1.14973
0.02119	0.10015
-0.08081	0.30422
-0.02981	0.63582
0.09770	1.50308
0.22521	-0.38449
0.48022	1.42656
0.42922	-0.79262
0.27621	0.40625
0.17421	-2.83324
0.09770	0.30422
-0.18282	0.68683
-0.38683	0.50828
-0.13181	1.12046
0.35272	-1.04770
0.45472	3.11007
0.35272	0.22769
0.50573	-3.70050
0.48022	1.60511
0.37822	-1.73640
-0.08081	1.75816
-0.41233	0.43176
-0.31033	3.74776
-0.15732	-2.11902
0.27621	-3.98109
0.60773	1.37554
0.45472	1.52859
0.35272	-0.41000
0.04670	1.27351
-0.56534	-0.74160
-0.20832	-2.29757
0.30171	1.50308
0.70974	3.39065
0.76074	2.90601
0.32721	-3.08831
0.17421	-4.03210
-0.23382	-1.35379
-0.28482	2.90601
0.42922	1.65613
0.30171	-0.61406
0.40372	2.19179
-0.18282	-0.05289
-0.46334	0.04914
-0.10631	-3.72601
-0.23382	0.83988
0.09770	0.48277
0.32721	1.55410
-0.53984	0.35523
-0.33583	1.09496
1.01576	1.35003
1.32178	-2.32308
1.29628	1.14597
1.44929	-2.90976
1.19427	5.53330
0.02119	-1.68539
-1.89143	1.37554
-2.27395	-0.10391
-1.07538	-0.28246
0.19971	2.19179
0.53123	-11.91400
0.76074	1.96222
1.06676	4.07936
0.37822	2.85499
0.40372	-1.32828
0.96476	0.89089
0.17421	2.49788
-0.15732	3.74776
-0.48884	-3.39441
0.09770	-0.86914
0.50573	1.78367
0.32721	-0.56305
-0.15732	-1.88945
-0.15732	-1.22625
-0.23382	-2.80773
-0.53984	1.40105
-0.23382	1.09496
0.14870	-1.32828
0.65874	2.06425
0.35272	-0.76711
0.37822	2.11527
0.73524	-0.76711
1.14327	1.60511
0.40372	-0.74160
-0.94787	-0.30797
-0.43783	1.55410
0.40372	0.71234
0.63323	-0.74160
0.60773	-1.22625
0.25071	0.76336
-0.31033	-0.86914
-0.18282	-0.74160
-0.15732	2.03874
0.37822	-0.79262
0.63323	2.11527
0.91375	0.32972
0.48022	0.66132
0.30171	-1.35379
-0.99887	1.19699
-2.14644	-0.86914
-1.48340	0.73785
-1.35589	-0.94566
1.16877	-1.43031
2.31634	-0.20594
2.26534	-0.48652
1.75531	0.43176
1.34728	1.83468
0.63323	0.58480
-0.00431	2.95702
-0.43783	-1.02219
-0.18282	-4.10862
-0.38683	0.91640
-0.53984	-1.83844
-1.30489	3.18659
-1.33039	1.63062
-0.46334	-1.04770
0.81175	1.91120
0.88825	0.35523
0.58223	-2.09351
-0.20832	-1.50683
-0.61635	0.43176
0.50573	-0.46102
1.16877	-1.27726
0.93925	2.06425
0.70974	0.58480
0.42922	0.96742
0.14870	0.40625
-0.20832	0.43176
0.04670	-0.12942
-0.25932	-1.48133
-0.46334	0.15117
-0.71835	-0.41000
-0.64185	1.40105
0.50573	1.04394
0.86275	-0.76711
1.04126	1.35003
1.14327	0.45726
-0.08081	-0.30797
-1.07538	0.32972
-0.87136	-0.30797
0.68424	0.53379
1.04126	0.58480
0.88825	0.43176
0.76074	-0.86914
0.50573	-1.32828
-0.31033	1.55410
-0.41233	-0.28246
-0.71835	-0.20594
-1.04987	-0.48652
0.50573	1.09496
0.68424	0.53379
0.22521	0.27871
0.17421	0.30422
0.25071	0.50828
0.40372	0.43176
0.22521	1.19699
0.12320	1.19699
-0.00431	-2.39961
0.09770	-2.27207
0.04670	1.98773
-0.10631	0.45726
0.09770	0.20219
0.73524	-2.11902
0.81175	0.04914
0.19971	1.17148
-0.36133	-0.10391
-0.92237	2.08976
-0.00431	0.25320
0.81175	0.96742
0.25071	0.12566
0.19971	0.50828
0.45472	0.66132
0.04670	-1.07320
0.27621	-1.48133
0.60773	-0.15492
-0.43783	0.10015
-0.18282	1.04394
-0.74385	1.98773
-0.36133	0.50828
0.25071	-0.79262
0.73524	-0.10391
0.81175	-1.73640
0.99026	0.96742
0.42922	0.25320
0.37822	-0.00188
0.30171	-0.61406
-0.20832	0.86539
-0.48884	2.49788
-0.64185	-1.22625
-0.28482	-0.86914
-0.18282	0.53379
-0.02981	-0.89465
0.45472	1.93671
0.35272	1.19699
0.65874	0.35523
0.63323	-0.48652
0.32721	-2.11902
0.22521	1.68163
-0.02981	1.14597
0.09770	-1.63437
-0.00431	0.20219
-0.13181	0.32972
-0.08081	-0.48652
0.48022	0.91640
0.50573	0.68683
0.55673	1.83468
-0.36133	0.40625
-0.89686	0.02363
0.40372	-0.66508
0.50573	-0.38449
0.53123	0.20219
0.83725	-0.61406
0.32721	-0.69059
0.04670	-0.18043
-0.28482	-0.05289
0.58223	2.59991
0.83725	0.63582
0.07220	-1.68539
-1.35589	-0.02739
-2.17195	-0.71609
-0.64185	0.86539
0.91375	1.47757
1.50029	1.09496
1.62780	-0.89465
1.19427	1.55410
0.93925	0.81437
0.45472	0.22769
-0.28482	-2.09351
-0.31033	1.27351
-0.97337	-2.04250
-0.20832	2.82948
-0.02981	-1.78742
0.30171	2.19179
0.32721	0.02363
0.48022	0.81437
0.42922	-0.97117
0.27621	-0.66508
-0.05531	0.27871
-0.15732	0.38074
0.37822	0.86539
0.32721	-0.12942
0.22521	-0.15492
0.02119	-1.81293
-0.15732	2.44687
-0.13181	-0.56305
0.25071	-1.17523
0.42922	0.68683
-0.31033	2.03874
-0.10631	0.20219
0.14870	-0.33348
-0.15732	0.10015
0.48022	-0.81812
0.78624	0.22769
0.86275	1.35003
0.70974	-0.92016
0.12320	0.35523
-0.46334	-0.76711
-0.38683	0.78886
-0.38683	0.25320
-0.38683	2.24281
-0.08081	-0.56305
0.63323	-0.97117
0.09770	-4.66979
0.30171	4.25792
0.22521	0.55929
0.68424	1.01843
0.42922	-0.05289
0.30171	0.30422
-0.43783	0.81437
-0.23382	0.96742
0.02119	-0.43551
0.22521	0.99292
0.60773	-1.09871
0.55673	2.26831
0.53123	-1.09871
0.32721	-1.99148
-0.08081	0.89089
-0.33583	-0.35899
-1.04987	-1.99148
-0.28482	1.14597
0.70974	1.57960
0.63323	1.93671
0.76074	0.66132
0.73524	-1.40480
0.53123	-0.28246
-0.10631	0.35523
-0.48884	2.03874
-0.31033	-0.69059
-0.00431	-1.50683
-0.00431	0.07465
0.07220	0.17668
-0.48884	0.12566
0.45472	1.24800
0.32721	-1.78742
0.42922	1.37554
0.40372	-0.00188
0.19971	1.06945
0.48022	0.10015
0.53123	-0.58856
0.04670	-0.48652
-0.87136	1.27351
-0.41233	0.32972
0.91375	0.22769
0.73524	-0.63957
-0.13181	0.43176
0.37822	-0.25695
0.60773	0.17668
0.63323	1.17148
0.22521	-0.38449
0.07220	-1.40480
-0.13181	1.50308
-0.18282	0.10015
-0.31033	1.93671
-0.13181	-1.73640
0.27621	-0.53754
0.40372	1.78367
0.40372	-0.33348
0.12320	0.30422
-0.13181	0.96742
0.12320	0.91640
0.25071	-2.27207
0.30171	0.10015
0.14870	-0.89465
-0.05531	1.52859
0.04670	0.45726
0.32721	-2.22105
-0.18282	0.68683
-0.64185	1.57960
0.22521	1.75816
0.63323	1.50308
0.40372	-1.78742
0.60773	0.07465
0.27621	-0.05289
-0.13181	1.22250
-0.38683	0.02363
0.17421	1.04394
0.55673	-3.21585
0.53123	0.96742
0.14870	-1.07320
0.14870	1.78367
0.12320	0.96742
-0.23382	0.04914
-0.33583	-0.41000
0.04670	0.73785
0.12320	0.73785
0.07220	0.48277
0.25071	-0.92016
0.32721	1.65613
0.14870	-1.50683
-0.41233	-0.20594
-0.08081	1.04394
0.45472	1.78367
0.40372	1.93671
0.70974	-1.86394
0.86275	-2.04250
0.32721	-0.18043
0.12320	-0.02739
-0.28482	0.55929
-1.15188	1.98773
-0.28482	0.15117
0.45472	0.17668
0.45472	0.55929
0.60773	1.04394
0.40372	0.27871
0.55673	-0.94566
0.65874	-0.43551
0.27621	-0.23145
-0.00431	0.50828
-0.20832	-0.76711
-0.97337	0.68683
-0.38683	-0.41000
0.45472	0.89089
0.53123	-0.10391
0.42922	0.55929
0.12320	0.68683
0.32721	-0.66508
0.17421	0.63582
0.32721	0.53379
0.19971	-0.18043
0.42922	-0.94566
0.48022	0.55929
-0.18282	0.02363
-0.74385	-2.57816
-0.64185	1.45206
-0.15732	0.15117
0.40372	1.12046
0.65874	1.75816
0.73524	0.78886
-0.00431	-1.48133
-0.23382	0.07465
0.37822	-2.62918
0.55673	0.96742
0.58223	1.17148
0.78624	1.01843
0.42922	-0.79262
-0.33583	1.01843
0.04670	0.02363
-0.08081	-0.15492
-0.23382	0.02363
-0.08081	0.30422
-0.20832	-0.76711
-0.13181	-0.66508
-0.18282	0.55929
0.32721	1.35003
0.22521	-1.58336
0.45472	0.27871
0.07220	0.04914
-0.23382	-0.30797
-0.00431	-0.28246
0.30171	-0.00188
0.50573	1.42656
-0.00431	2.49788
-0.79486	-0.74160
0.50573	1.52859
0.99026	-2.55265
0.81175	0.07465
0.32721	-0.23145
-0.18282	0.76336
-0.02981	-0.51203
0.30171	1.14597
0.09770	0.45726
0.19971	-1.76191
-0.08081	0.48277
-0.48884	0.63582
-0.28482	0.66132
0.09770	-0.97117
0.27621	-0.71609
-0.00431	0.63582
-0.08081	0.76336
0.12320	-0.00188
0.30171	0.45726
0.30171	-0.48652
-0.18282	0.50828
0.14870	1.24800
0.40372	-0.69059
0.76074	-1.45582
0.68424	1.32453
0.40372	1.63062
0.63323	0.20219
0.37822	1.37554
0.02119	-0.56305
-0.38683	-1.73640
-0.84586	-1.17523
-0.43783	1.52859
-0.02981	-1.22625
0.53123	1.52859
0.91375	0.73785
0.63323	0.76336
0.12320	1.17148
-0.33583	-1.12422
-0.13181	-0.35899
0.19971	0.66132
0.17421	-0.46102
0.22521	0.66132
0.07220	0.76336
0.09770	-1.73640
0.32721	0.58480
0.14870	0.76336
0.17421	0.02363
0.30171	-0.05289
0.17421	0.32972
0.09770	1.14597
0.35272	-0.10391
0.55673	-1.73640
0.40372	0.55929
0.42922	1.78367
0.48022	1.32453
0.27621	-0.43551
-0.59084	0.15117
-1.17738	0.20219
-0.38683	0.89089
-0.28482	-1.02219
0.73524	1.27351
0.88825	-0.10391
0.25071	-0.15492
-0.23382	0.43176
0.07220	-0.46102
0.45472	0.53379
0.45472	1.47757
0.55673	1.14597
0.27621	0.48277
0.25071	-2.34859
0.04670	0.12566
0.02119	0.71234
-0.20832	-0.07840
0.04670	0.10015
0.02119	0.66132
0.27621	-1.04770
0.30171	0.20219
-0.36133	-0.15492
0.14870	-0.23145
0.53123	2.19179
0.02119	0.04914
-0.41233	0.58480
-0.48884	-0.30797
0.27621	-1.63437
0.68424	-0.69059
0.70974	0.94191
0.53123	-0.30797
0.63323	0.63582
0.58223	0.73785
0.32721	0.58480
-0.51434	-0.41000
-1.63641	0.73785
-0.48884	0.71234
0.45472	-0.46102
0.99026	0.40625
0.83725	-0.79262
0.88825	1.57960
0.63323	-1.09871
-0.08081	0.25320
-0.46334	0.81437
-0.64185	0.15117
-0.31033	0.50828
0.30171	-0.92016
0.53123	-0.20594
0.45472	1.01843
0.40372	-0.25695
0.30171	1.01843
0.37822	-0.18043
0.35272	0.53379
0.02119	-0.69059
-0.33583	1.22250
-0.41233	-0.30797
-0.38683	-1.20074
0.40372	0.25320
0.50573	0.76336
0.91375	1.52859
0.48022	1.63062
0.60773	-0.30797
0.19971	-1.32828
-0.46334	0.63582
-1.30489	-0.43551
-0.87136	0.55929
0.40372	-0.33348
0.86275	-0.76711
1.29628	0.96742
1.11776	1.01843
0.42922	0.30422
-0.08081	-0.56305
-0.25932	0.48277
0.45472	-1.50683
0.12320	0.73785
-0.18282	0.58480
-0.59084	0.99292
-0.41233	-2.29757
0.73524	1.55410
0.65874	0.58480
0.12320	1.12046
-0.51434	0.50828
-0.28482	0.27871
0.50573	-0.58856
0.53123	0.15117
0.60773	0.02363
0.40372	1.17148
-0.25932	-0.51203
-0.20832	-0.33348
0.17421	-1.25176
0.50573	-0.25695
0.40372	1.47757
0.32721	-0.20594
0.30171	0.78886
-0.10631	-1.07320
-0.18282	-0.46102
-0.28482	2.52339
0.27621	-0.15492
0.19971	-0.97117
0.14870	1.78367
-0.33583	1.68163
-0.56534	0.30422
0.58223	-0.25695
1.04126	0.27871
0.78624	-2.01699
0.83725	0.10015
-0.23382	-0.02739
-0.28482	0.53379
-0.25932	0.27871
0.14870	-0.74160
0.60773	-0.38449
-0.02981	1.88570
-0.10631	0.48277
0.42922	-1.20074
0.42922	0.04914
0.40372	0.76336
0.19971	-0.46102
0.02119	-0.00188
-0.02981	1.01843
0.12320	0.63582
0.19971	0.04914
0.22521	0.32972
0.32721	1.70714
-0.46334	0.04914
-1.48340	0.27871
0.17421	0.20219
0.83725	1.42656
1.16877	1.93671
0.76074	-7.37362
0.50573	-0.46102
0.14870	1.22250
-0.05531	1.73265
0.07220	0.89089
-0.10631	-1.22625
-0.43783	0.86539
-0.53984	0.30422
0.27621	1.73265
0.60773	-0.15492
0.55673	0.40625
0.53123	-1.37929
0.22521	0.48277
-0.05531	-0.35899
-0.38683	0.40625
-0.15732	0.73785
0.17421	0.15117
0.45472	0.55929
0.27621	0.58480
0.19971	0.04914
0.22521	-0.74160
0.19971	-2.52714
0.37822	0.43176
0.32721	1.06945
-0.00431	0.27871
-0.23382	0.66132
-0.15732	-0.35899
0.09770	0.86539
0.07220	1.42656
0.40372	0.76336
0.55673	0.20219
0.12320	-1.96597
-0.84586	-0.20594
0.07220	1.27351
0.40372	0.04914
0.12320	-0.74160
0.09770	0.27871
0.32721	1.09496
0.40372	0.81437
0.55673	-0.99668
0.25071	-0.86914
0.19971	1.40105
0.22521	-0.46102
-0.05531	-0.00188
-0.18282	2.31933
-0.08081	-1.63437
0.07220	-0.53754
0.22521	1.60511
0.30171	0.04914
-0.05531	-1.35379
-0.18282	0.20219
0.35272	1.60511
0.37822	-0.05289
0.50573	-0.05289
0.35272	-1.07320
0.27621	1.01843
0.09770	0.81437
0.09770	0.86539
0.40372	-2.75671
0.55673	0.61031
0.07220	0.86539
-0.20832	-0.07840
-0.15732	0.55929
-0.05531	0.73785
-0.18282	0.07465
0.02119	-0.00188
-0.23382	-0.35899
0.65874	1.27351
0.32721	-2.09351
0.02119	0.53379
0.19971	1.98773
0.17421	-0.81812
0.02119	0.15117
-0.15732	-0.00188
0.12320	0.58480
0.55673	0.10015
0.70974	0.15117
0.37822	1.04394
-0.05531	-1.35379
-0.56534	-1.14973
-0.00431	1.42656
0.40372	1.42656
0.32721	0.71234
0.25071	0.04914
0.19971	0.68683
0.17421	0.53379
-0.15732	-0.10391
-0.15732	-0.33348
-0.08081	-1.32828
0.07220	0.30422
0.55673	0.45726
0.58223	0.07465
0.09770	0.83988
-0.10631	0.38074
0.17421	1.06945
0.30171	-1.40480
0.09770	0.68683
-0.18282	-0.25695
-0.36133	0.76336
0.25071	-0.30797
0.19971	1.24800
0.17421	1.35003
0.22521	-1.71090
0.78624	-0.18043
0.70974	-0.61406
0.48022	0.89089
0.19971	0.78886
0.22521	0.04914
-0.18282	-0.15492
-0.31033	1.01843
0.14870	-0.25695
-0.28482	0.55929
-0.05531	0.78886
-0.59084	-0.38449
0.35272	0.40625
0.53123	-1.40480
0.27621	0.94191
0.09770	0.91640
0.76074	0.89089
0.88825	-0.02739
0.32721	-0.05289
-0.33583	0.53379
-0.51434	-1.17523
-0.38683	0.15117
-0.25932	0.68683
-0.02981	0.45726
0.32721	-1.04770
0.63323	-0.63957
0.55673	0.10015
0.40372	1.22250
-0.05531	0.32972
-0.08081	0.04914
-0.05531	0.83988
0.17421	0.10015
0.07220	-0.41000
-0.13181	0.22769
0.14870	-0.56305
0.40372	1.45206
0.42922	0.22769
0.07220	0.38074
-0.05531	0.45726
-0.00431	-1.17523
0.09770	-1.40480
0.42922	0.91640
0.07220	0.15117
0.32721	1.60511
-0.69285	0.78886
-0.56534	1.19699
0.76074	0.48277
0.78624	0.66132
0.32721	-1.58336
0.55673	-0.35899
0.17421	0.17668
0.04670	-0.30797
-0.15732	0.10015
-0.23382	0.76336
0.32721	0.15117
0.48022	-2.11902
0.22521	1.78367
-0.02981	1.22250
-0.71835	-0.51203
-0.76936	0.15117
0.35272	0.91640
0.63323	-0.97117
0.78624	1.17148
0.48022	-2.96078
-0.00431	1.73265
-0.56534	-0.53754
0.09770	1.09496
0.63323	0.48277
0.42922	1.17148
0.22521	0.58480
-0.02981	-0.15492
0.12320	-0.35899
0.27621	-0.46102
0.25071	-0.53754
0.02119	-1.65988
-0.18282	1.93671
0.12320	0.83988
0.50573	0.22769
0.30171	-1.25176
0.22521	1.68163
0.25071	-1.55785
0.40372	-0.10391
0.19971	0.10015
-0.15732	1.22250
0.12320	0.86539
0.25071	0.63582
0.04670	-0.63957
0.32721	-0.28246
-0.10631	0.32972
0.42922	1.06945
0.32721	0.43176
-0.31033	-0.92016
-0.71835	0.04914
0.22521	-0.81812
0.32721	0.63582
0.32721	-0.66508
0.99026	1.91120
0.86275	-1.12422
0.50573	0.76336
0.27621	-0.53754
-0.33583	0.83988
-0.25932	0.83988
-0.53984	0.30422
-0.08081	0.38074
0.17421	-0.41000
0.17421	1.45206
0.17421	-2.50164
0.35272	-0.38449
0.37822	1.86019
0.50573	1.06945
0.32721	-0.15492
-0.13181	-1.20074
-0.51434	-1.32828
-0.76936	-0.84363
-0.38683	2.16628
0.53123	0.43176
1.11776	1.12046
0.83725	-0.25695
0.73524	0.35523
0.40372	-0.18043
-0.08081	0.25320
-0.48884	0.32972
-0.31033	1.29902
0.12320	-0.58856
0.32721	-1.04770
0.32721	0.45726
0.04670	-0.51203
-0.28482	-0.07840
0.27621	0.73785
0.50573	0.71234
0.27621	-0.56305
0.27621	-0.46102
0.09770	0.89089
0.35272	1.17148
-0.36133	-0.79262
-0.08081	1.37554
0.19971	-0.97117
0.40372	0.73785
0.58223	-0.63957
0.70974	0.96742
0.48022	0.89089
0.02119	-0.10391
-0.20832	-1.50683
-0.20832	-0.28246
-0.15732	0.73785
0.17421	1.14597
-0.08081	0.10015
0.42922	0.71234
0.42922	-0.86914
0.40372	-0.71609
-0.02981	0.35523
-0.69285	0.10015
-0.13181	0.63582
0.07220	0.66132
0.68424	-0.30797
0.53123	1.01843
0.45472	0.12566
0.25071	-2.09351
0.02119	-0.05289
0.14870	-0.69059
0.17421	0.89089
0.32721	1.22250
0.02119	1.63062
-0.15732	0.45726
-0.31033	-0.23145
-0.41233	0.07465
0.37822	0.10015
0.53123	0.25320
0.58223	0.07465
0.63323	0.12566
0.58223	-1.94047
0.45472	0.55929
0.65874	0.15117
-0.05531	0.32972
-0.94787	0.38074
-0.61635	-0.61406
-0.76936	0.73785
0.17421	0.55929
0.65874	0.35523
0.91375	0.61031
0.91375	0.12566
0.76074	-0.30797
-0.28482	-0.23145
-1.10088	-0.28246
-0.38683	0.25320
0.32721	1.24800
0.55673	0.66132
0.70974	-1.45582
0.19971	0.02363
0.50573	1.35003
0.04670	-0.35899
-0.20832	1.09496
-0.02981	0.22769
0.19971	-0.48652
0.37822	1.47757
0.04670	0.89089
-0.28482	-0.56305
-0.10631	0.63582
-0.00431	-1.78742
0.22521	1.01843
0.40372	-0.63957
0.27621	-2.45062
0.07220	2.47238
0.07220	-0.12942
-0.13181	0.17668
-0.20832	0.68683
0.17421	1.63062
0.07220	-1.65988
0.30171	0.86539
0.48022	0.83988
0.63323	-0.58856
0.12320	0.50828
-0.31033	0.04914
-0.87136	-0.15492
-0.46334	1.52859
0.30171	-0.15492
0.76074	-1.02219
0.27621	-0.25695
0.04670	1.14597
0.25071	0.32972
0.48022	0.04914
0.55673	0.89089
0.40372	0.45726
0.02119	-0.61406
0.14870	-0.23145
-0.18282	-0.71609
-0.28482	1.68163
-0.28482	-0.35899
-0.46334	0.30422
0.32721	0.43176
0.55673	-0.28246
0.63323	1.17148
0.63323	1.06945
0.37822	1.12046
0.07220	-1.09871
-0.18282	-1.35379
-0.38683	1.19699
0.40372	0.32972
0.37822	0.48277
0.25071	-0.28246
0.45472	0.68683
0.42922	0.78886
0.48022	-0.33348
0.48022	-0.43551
-0.02981	0.55929
-0.51434	-1.07320
-0.64185	-1.14973
-0.15732	0.55929
0.30171	0.86539
0.73524	0.35523
0.58223	1.24800
0.65874	0.50828
0.63323	-1.17523
-0.36133	-0.23145
-0.43783	-0.15492
-0.33583	0.83988
-0.18282	0.91640
0.25071	-0.46102
0.73524	0.55929
1.01576	-0.46102
0.37822	0.53379
0.12320	-0.02739
-0.13181	0.43176
-0.31033	0.63582
-0.43783	0.61031
-0.00431	-2.60367
0.58223	-0.25695
0.55673	1.57960
0.32721	0.83988
-0.00431	-0.18043
0.07220	0.99292
0.07220	-0.99668
-0.13181	0.22769
-0.18282	2.08976
0.32721	1.17148
0.50573	-1.02219
0.42922	0.78886
0.27621	-2.11902
-0.23382	0.12566
-0.02981	-2.09351
0.32721	0.66132
0.35272	1.47757
0.07220	1.22250
-0.08081	1.09496
0.02119	1.09496
0.27621	0.04914
0.53123	-1.27726
0.50573	0.30422
-0.08081	-0.00188
-0.94787	-1.22625
-1.25389	0.22769
0.45472	1.09496
0.76074	0.30422
1.14327	-0.69059
0.81175	0.32972
0.17421	0.48277
-0.10631	0.45726
-0.38683	0.48277
0.14870	-0.99668
0.27621	0.53379
0.22521	1.29902
0.12320	0.81437
0.12320	-1.45582
0.27621	-0.18043
0.07220	-0.51203
0.19971	0.99292
-0.00431	0.66132
-0.10631	0.32972
0.19971	-0.02739
-0.00431	0.81437
0.02119	-0.18043
-0.36133	0.45726
-0.20832	0.27871
0.35272	-1.73640
0.65874	1.22250
0.73524	1.42656
0.68424	1.91120
0.40372	-1.53234
0.27621	-0.71609
-0.48884	2.01323
-1.10088	-1.37929
-0.13181	-1.65988
0.09770	1.12046
0.42922	0.81437
0.63323	-0.66508
0.35272	0.91640
0.40372	-0.61406
0.30171	1.19699
-0.02981	1.47757
-0.13181	0.20219
-0.05531	0.40625
0.12320	-0.43551
0.32721	-0.56305
0.30171	-0.05289
0.12320	0.35523
-0.08081	0.40625
0.17421	0.12566
0.04670	0.25320
-0.13181	-0.61406
-0.10631	-0.56305
0.45472	1.17148
0.53123	0.43176
0.04670	-1.22625
0.04670	0.32972
-0.23382	-0.25695
0.12320	1.55410
0.63323	-0.43551
0.53123	0.27871
0.45472	0.10015
0.19971	-0.18043
-0.18282	-0.23145
-0.08081	1.40105
0.19971	0.76336
-0.08081	-0.94566
-0.13181	0.61031
-0.00431	0.55929
0.09770	-1.53234
0.07220	-0.46102
0.14870	0.71234
0.25071	-0.07840
0.19971	-0.61406
0.19971	1.68163
0.12320	1.19699
0.09770	0.15117
0.45472	-3.95558
0.63323	0.73785
0.40372	1.91120
-0.13181	0.63582
-0.18282	0.76336
-0.05531	-0.33348
0.19971	1.27351
0.30171	0.17668
0.27621	-0.30797
0.35272	0.45726
0.04670	-0.35899
-0.25932	-0.92016
-0.02981	-0.76711
0.19971	-0.20594
0.27621	1.12046
0.02119	1.06945
-0.00431	0.43176
-0.02981	0.91640
0.32721	0.25320
0.30171	-3.24136
0.22521	0.89089
-0.31033	0.58480
0.22521	0.89089
0.32721	1.06945
0.07220	-0.35899
0.30171	0.10015
0.53123	0.30422
0.22521	-0.51203
-0.23382	-0.10391
-0.23382	-0.97117
-0.00431	0.55929
0.25071	0.73785
0.45472	0.32972
0.35272	0.45726
0.07220	-0.07840
-0.38683	1.57960
-0.43783	-0.46102
0.17421	-0.66508
0.37822	0.61031
0.07220	-0.46102
-0.08081	-0.00188
0.32721	-0.41000
0.12320	0.76336
0.19971	-0.71609
0.27621	0.76336
0.37822	0.78886
0.35272	-1.43031
0.17421	0.99292
-0.33583	1.04394
-0.38683	2.08976
0.17421	-0.89465
0.30171	-1.73640
0.22521	0.76336
0.42922	0.61031
0.40372	-0.38449
0.22521	1.93671
0.27621	-0.66508
0.22521	-0.12942
0.12320	-0.12942
0.19971	0.32972
0.19971	1.29902
0.04670	-1.65988
-0.25932	0.04914
-0.38683	0.71234
-1.20288	1.60511
-0.71835	-0.23145
0.88825	-0.35899
0.96476	-0.00188
1.29628	1.01843
0.91375	-1.27726
0.48022	-0.48652
0.14870	1.19699
-0.23382	0.22769
-0.28482	-0.10391
-0.48884	0.40625
-0.02981	0.07465
0.25071	1.04394
0.17421	-0.81812
0.09770	1.12046
0.14870	-0.38449
-0.05531	-0.63957
-0.00431	-0.02739
-0.05531	0.89089
0.19971	0.61031
0.25071	-0.63957
0.12320	-0.05289
0.58223	0.50828
0.65874	0.07465
0.53123	0.61031
0.07220	1.17148
-0.28482	-0.53754
0.30171	1.19699
0.32721	0.68683
0.53123	-3.52195
0.40372	0.58480
0.17421	0.35523
-0.28482	0.27871
-0.46334	1.55410
0.04670	0.48277
0.37822	-0.02739
0.17421	-0.71609
0.25071	-0.02739
0.09770	0.30422
-0.15732	0.27871
-0.10631	1.01843
0.07220	-0.76711
0.60773	0.45726
0.37822	1.27351
-0.10631	-1.32828
-0.20832	0.86539
-0.05531	0.45726
0.09770	-1.17523
0.37822	0.73785
0.76074	-0.05289
0.73524	-1.40480
0.68424	0.32972
0.32721	1.04394
-0.36133	1.14597
-0.69285	1.01843
0.19971	-0.07840
0.30171	-0.63957
0.42922	1.40105
0.35272	-0.61406
0.35272	-0.48652
-0.05531	0.27871
-0.92237	-0.94566
-0.84586	0.04914
-0.36133	0.17668
0.17421	0.50828
0.93925	1.09496
0.96476	0.43176
0.83725	0.68683
0.48022	0.12566
0.02119	0.45726
-0.33583	-0.15492
-0.00431	-0.12942
0.09770	-0.66508
0.14870	1.35003
0.02119	-0.25695
0.14870	0.43176
0.14870	-1.58336
0.19971	0.91640
0.09770	1.73265
-0.18282	-0.76711
0.02119	0.68683
0.25071	0.55929
0.55673	-1.17523
0.55673	0.35523
0.45472	-0.74160
0.27621	0.32972
-0.38683	0.99292
-0.05531	0.53379
0.25071	1.50308
-0.10631	-0.41000
-0.18282	-0.48652
-1.04987	0.32972
0.14870	-0.00188
1.04126	-1.48133
1.21977	1.65613
1.14327	0.32972
0.25071	0.50828
-0.10631	0.15117
-0.05531	1.04394
-0.61635	0.40625
0.02119	-0.63957
-0.10631	-0.20594
0.04670	1.78367
0.40372	-0.86914
0.37822	-3.93007
-0.43783	-0.30797
-0.69285	1.19699
-0.13181	0.99292
0.48022	1.01843
0.83725	1.47757
0.45472	0.15117
0.45472	0.17668
0.50573	0.30422
0.32721	0.68683
0.07220	-0.35899
-0.38683	-0.79262
-0.25932	-0.07840
0.04670	1.06945
-0.13181	-0.61406
-0.31033	-0.05289
-0.15732	0.27871
0.76074	-1.48133
0.68424	0.50828
-0.05531	0.53379
-0.69285	0.91640
-0.00431	0.83988
1.06676	1.37554
1.14327	0.27871
0.78624	-0.20594
0.32721	-1.20074
-0.15732	0.02363
0.19971	0.58480
-0.08081	1.47757
-0.08081	-0.38449
-0.13181	-0.76711
-0.20832	0.63582
-0.23382	-0.56305
0.30171	-0.89465
-0.38683	1.35003
-0.51434	0.91640
0.25071	0.15117
0.27621	0.07465
0.22521	0.35523
0.12320	1.65613
0.48022	-2.57816
0.70974	-2.04250
0.78624	1.09496
0.40372	0.91640
0.07220	1.27351
-0.66735	-0.12942
-0.64185	0.15117
-0.08081	-0.25695
0.32721	1.35003
0.19971	-0.86914
0.40372	-0.71609
0.37822	1.22250
0.30171	0.91640
-0.23382	0.83988
-0.20832	0.04914
0.27621	-0.51203
0.19971	0.10015
-0.05531	0.17668
-0.15732	1.32453
-0.00431	-0.23145
0.30171	-1.40480
0.17421	0.89089
0.14870	0.63582
0.35272	-0.33348
0.37822	-0.15492
0.09770	0.53379
-0.18282	-0.99668
-0.28482	1.14597
-0.13181	-0.56305
0.12320	-0.23145
0.22521	0.96742
0.32721	0.22769
0.53123	0.20219
0.50573	0.40625
0.40372	-0.10391
-0.02981	0.43176
-0.05531	1.12046
-0.20832	0.25320
0.09770	-0.81812
0.22521	-0.18043
-0.20832	0.38074
-0.48884	0.83988
0.09770	-0.84363
-0.13181	0.40625
0.42922	0.55929
0.53123	-0.43551
0.42922	1.01843
0.42922	-0.53754
-0.02981	0.96742
-0.08081	0.81437
-0.20832	-0.43551
-0.05531	-1.43031
-0.31033	0.63582
0.27621	0.53379
0.70974	0.22769
0.50573	0.30422
0.09770	1.04394
-0.02981	-0.02739
-0.20832	-1.12422
0.17421	0.15117
0.40372	0.78886
0.25071	0.10015
-0.13181	0.61031
0.35272	1.27351
0.55673	0.20219
0.37822	-2.50164
0.12320	1.06945
-0.02981	0.32972
0.07220	1.60511
0.09770	-0.00188
0.07220	0.04914
-0.02981	0.61031
-0.25932	0.15117
-0.08081	0.66132
-0.08081	-1.78742
-0.08081	-0.74160
0.27621	-1.09871
0.81175	0.94191
0.93925	0.61031
0.17421	1.63062
-0.18282	-0.46102
0.02119	-0.35899
0.12320	-0.28246
0.12320	1.04394
0.04670	2.59991
0.19971	-0.12942
0.35272	-3.16484
0.45472	1.22250
0.25071	-0.18043
0.12320	0.12566
0.14870	0.76336
-0.59084	-1.37929
-0.43783	0.63582
0.07220	0.71234
0.60773	-0.41000
0.48022	0.83988
0.42922	-0.86914
0.48022	1.14597
0.09770	-1.50683
-0.05531	0.45726
-0.23382	1.17148
0.37822	0.02363
0.32721	-0.66508
0.14870	0.99292
0.27621	0.35523
0.17421	-0.18043
0.14870	0.15117
-0.08081	0.20219
-0.31033	-0.02739
-0.20832	0.02363
0.09770	0.89089
0.40372	-0.28246
0.30171	0.63582
0.17421	-0.02739
0.27621	-1.73640
0.22521	-0.76711
0.30171	1.68163
0.14870	1.63062
0.17421	0.45726
0.32721	-0.58856
0.12320	1.04394
0.02119	0.66132
0.04670	0.25320
0.09770	-1.07320
0.27621	-0.28246
0.12320	1.57960
0.48022	-0.12942
0.65874	1.24800
-0.10631	-1.76191
-0.05531	0.25320
0.22521	0.61031
0.32721	0.50828
0.22521	0.63582
0.14870	-0.35899
-0.25932	-0.33348
-0.84586	-0.25695
-0.20832	0.81437
0.45472	-0.25695
0.55673	1.91120
0.78624	-0.56305
0.60773	-0.66508
0.35272	0.40625
0.25071	0.43176
-0.28482	-0.35899
0.35272	1.17148
0.50573	0.55929
-0.13181	-0.30797
0.42922	-0.18043
0.27621	-0.86914
-0.76936	0.32972
-0.56534	1.06945
-0.15732	-0.53754
0.63323	0.38074
0.86275	-4.08312
0.93925	1.68163
0.76074	2.14077
0.27621	0.94191
-0.15732	1.50308
-0.10631	-0.30797
-0.10631	-0.00188
-0.20832	1.04394
-0.10631	-3.93007
-0.10631	1.06945
0.14870	-0.15492
0.17421	0.78886
0.32721	0.58480
0.35272	1.42656
0.22521	0.50828
-0.02981	-0.15492
-0.23382	-3.21585
0.09770	0.66132
0.35272	0.58480
0.53123	-1.22625
-0.13181	0.76336
0.35272	1.55410
0.35272	0.22769
0.07220	0.73785
-0.08081	0.32972
-0.28482	0.99292
0.32721	0.40625
0.70974	0.17668
0.37822	-0.92016
0.09770	0.94191
0.27621	-1.09871
0.25071	0.55929
0.12320	-0.81812
-0.08081	1.37554
-0.23382	-0.20594
-0.33583	-0.38449
-0.05531	-0.05289
0.53123	0.55929
0.42922	1.68163
-0.18282	-1.94047
-0.02981	0.55929
-0.00431	0.25320
0.55673	0.81437
0.63323	0.86539
0.48022	1.32453
0.42922	-1.14973
-0.36133	1.14597
-0.48884	-0.97117
-0.00431	-0.84363
0.45472	0.63582
0.63323	-0.71609
0.30171	3.41616
0.32721	-1.63437
0.14870	0.96742
-0.05531	0.96742
0.12320	-0.05289
0.09770	0.38074
0.17421	0.68683
0.07220	0.02363
0.07220	-0.74160
-0.13181	-0.20594
-0.41233	-0.25695
-0.02981	1.40105
0.68424	-0.63957
0.93925	0.50828
0.19971	0.76336
0.68424	-0.38449
0.53123	0.55929
0.04670	0.22769
-0.20832	0.02363
-0.33583	-1.30277
0.22521	-0.56305
0.37822	0.96742
0.17421	0.76336
0.17421	0.20219
0.14870	-0.05289
0.22521	0.55929
0.17421	0.35523
-0.18282	-0.58856
-0.31033	0.53379
-0.23382	0.04914
0.27621	0.02363
0.07220	0.48277
0.68424	-0.94566
0.76074	0.20219
0.55673	0.04914
0.09770	0.10015
-0.08081	-0.30797
0.40372	0.99292
0.37822	-1.09871
0.19971	1.14597
-0.23382	0.96742
-0.38683	-1.20074
-0.18282	0.38074
0.17421	-0.46102
0.42922	-0.00188
0.22521	1.80917
0.27621	-0.79262
0.50573	0.76336
0.42922	0.81437
0.22521	0.76336
-0.38683	0.40625
-0.38683	-1.30277
-0.02981	-0.41000
0.22521	1.19699
0.35272	-0.79262
0.81175	-1.27726
0.14870	0.27871
0.32721	1.98773
0.22521	1.55410
0.17421	-1.07320
-0.02981	1.29902
-0.00431	-1.32828
-0.31033	-1.58336
0.17421	1.09496
0.14870	2.08976
0.09770	-0.05289
-0.08081	-0.02739
-0.00431	-0.25695
0.37822	-0.61406
0.53123	0.20219
-0.00431	1.32453
0.17421	-0.63957
0.14870	1.68163
0.22521	-0.38449
-0.13181	-0.46102
-0.71835	-0.66508
-0.28482	0.22769
0.32721	1.24800
0.50573	0.76336
0.68424	-0.15492
0.68424	-0.86914
0.32721	-0.53754
0.02119	-0.20594
-0.10631	0.25320
-0.53984	0.40625
0.09770	0.73785
0.17421	0.63582
0.14870	0.20219
0.27621	-0.46102
0.27621	-1.48133
0.22521	-0.20594
0.37822	0.32972
0.22521	-0.02739
0.09770	0.32972
0.09770	2.01323
-0.18282	0.89089
-0.18282	0.27871
-0.15732	-1.12422
-0.18282	1.27351
0.17421	-2.32308
0.45472	1.78367
0.50573	-0.81812
0.17421	0.17668
-0.00431	0.50828
0.12320	0.55929
0.40372	0.45726
0.04670	0.61031
-0.20832	-0.35899
0.30171	-0.41000
0.50573	-0.30797
0.40372	1.01843
-0.05531	-0.10391
-0.48884	0.61031
-0.36133	-0.92016
0.68424	0.66132
0.73524	1.19699
0.55673	1.42656
0.37822	-0.76711
0.27621	-0.53754
0.02119	0.40625
-0.05531	0.76336
-0.20832	-1.53234
-0.00431	0.27871
-0.23382	-1.25176
-0.20832	1.12046
0.07220	0.55929
-0.10631	1.98773
0.17421	-0.56305
0.68424	-2.06800
0.50573	0.81437
0.12320	-0.35899
-0.59084	0.96742
0.02119	0.83988
0.81175	0.86539
0.70974	-2.65468
0.48022	1.06945
0.09770	1.47757
0.19971	1.19699
0.07220	-1.27726
-0.18282	-1.09871
-0.10631	0.61031
0.22521	-1.22625
0.12320	0.63582
0.07220	0.32972
0.12320	0.43176
-0.08081	-0.53754
0.19971	0.89089
0.37822	0.40625
0.30171	-1.17523
0.07220	0.83988
-0.10631	0.91640
-0.20832	2.39585
0.14870	-0.61406
0.78624	-0.69059
0.73524	0.66132
0.35272	0.55929
-0.02981	-0.02739
-0.31033	-0.07840
0.22521	-0.02739
0.22521	0.35523
0.55673	-0.81812
0.40372	1.22250
-0.00431	0.53379
0.27621	0.04914
0.07220	-0.20594
0.37822	-1.53234
0.04670	1.14597
-0.71835	0.22769
-0.94787	0.35523
-0.00431	0.78886
0.63323	-1.22625
0.78624	0.66132
0.86275	0.48277
0.48022	1.22250
0.48022	-1.22625
-0.02981	0.45726
-0.10631	-1.12422
-0.10631	-0.86914
-0.13181	1.70714
-0.15732	0.86539
0.04670	-1.43031
0.30171	-0.20594
0.30171	0.45726
0.02119	1.70714
0.27621	0.22769
0.27621	0.58480
0.19971	-0.23145
0.17421	-0.20594
0.12320	-0.18043
0.17421	-0.35899
0.25071	0.43176
-0.05531	0.25320
-0.00431	-1.25176
0.35272	0.66132
0.42922	-0.76711
0.50573	1.06945
0.14870	0.71234
0.17421	1.57960
-0.05531	0.43176
-0.02981	0.66132
0.12320	0.20219
-0.20832	-0.46102
0.32721	0.04914
0.48022	0.78886
0.37822	-0.92016
-0.20832	-0.20594
-0.38683	0.20219
-0.13181	0.25320
0.32721	0.55929
0.35272	-0.86914
0.35272	-0.35899
0.35272	-0.69059
0.40372	0.58480
0.50573	0.66132
-0.00431	2.37034
-0.08081	-0.66508
0.14870	1.80917
0.09770	-2.52714
0.09770	-0.15492
0.02119	1.78367
-0.10631	1.45206
-0.25932	-0.51203
-0.28482	0.35523
0.14870	-0.07840
0.42922	-0.02739
0.45472	-0.02739
0.35272	-0.07840
0.27621	-0.81812
0.09770	0.20219
0.04670	0.96742
0.12320	0.27871
0.53123	-0.38449
0.35272	-2.06800
-0.25932	1.06945
-0.20832	-0.48652
-0.43783	2.06425
0.07220	0.63582
0.22521	1.12046
0.63323	0.27871
0.53123	-0.20594
0.30171	0.76336
0.35272	0.02363
0.17421	0.91640
0.07220	-0.07840
-0.02981	-2.85874
-0.20832	-0.30797
-0.10631	1.04394
-0.00431	-0.12942
0.07220	0.25320
0.14870	-0.30797
0.32721	0.68683
-0.00431	-0.18043
0.27621	0.61031
0.30171	1.35003
0.63323	0.12566
0.35272	0.48277
-0.13181	-1.02219
-0.38683	1.65613
0.14870	-0.20594
0.22521	-1.99148
0.14870	0.68683
0.40372	-0.53754
0.50573	1.98773
0.27621	0.25320
-0.02981	-0.69059
-0.05531	1.98773
0.14870	-0.33348
0.12320	-1.86394
-0.13181	0.58480
-0.41233	0.43176
-0.33583	0.68683
0.50573	0.30422
0.93925	-0.00188
1.16877	0.25320
0.68424	0.12566
-0.00431	0.50828
-1.43240	-1.58336
-0.79486	0.86539
0.50573	0.48277
0.73524	-0.18043
0.65874	-0.51203
0.37822	2.26831
0.37822	-0.48652
0.14870	0.25320
0.37822	0.55929
0.02119	-0.05289
-0.10631	-0.63957
-0.13181	-0.07840
0.04670	1.45206
-0.10631	-0.15492
-0.08081	-0.46102
-0.02981	1.06945
0.55673	-1.65988
-0.02981	-0.43551
0.48022	0.81437
0.19971	1.42656
0.14870	0.63582
0.40372	-0.23145
0.48022	-1.45582
0.25071	-0.28246
-0.18282	1.04394
-0.10631	-0.33348
0.09770	1.83468
0.07220	0.20219
0.42922	0.48277
0.42922	0.58480
0.45472	0.07465
0.45472	-1.76191
0.17421	-0.48652
-0.38683	0.96742
-0.79486	0.25320
-1.04987	-0.12942
-0.10631	0.17668
0.76074	-0.41000
0.96476	1.42656
0.86275	-0.07840
0.73524	-0.20594
0.55673	-0.25695
0.45472	0.63582
-0.02981	0.73785
-0.18282	1.35003
-0.64185	0.86539
-0.66735	-0.48652
0.09770	-0.53754
-0.08081	-3.08831
0.35272	0.17668
0.53123	1.88570
0.68424	0.32972
0.30171	0.07465
0.09770	0.91640
-0.15732	1.04394
-0.43783	0.22769
0.07220	0.15117
0.14870	0.48277
0.35272	-0.35899
0.68424	-0.61406
0.63323	-0.05289
0.07220	-0.97117
0.42922	0.25320
-0.13181	-0.81812
0.32721	2.29382
0.27621	1.29902
0.04670	-0.30797
-0.23382	1.09496
-0.20832	0.50828
0.02119	-1.78742
-0.00431	0.38074
0.17421	-0.25695
0.37822	-0.61406
0.40372	0.83988
0.30171	0.86539
0.22521	-0.84363
-0.18282	-0.05289
-0.20832	0.40625
-0.02981	1.35003
0.45472	0.30422
0.17421	-1.55785
-0.10631	-0.25695
0.07220	-0.81812
0.37822	1.57960
0.76074	1.57960
0.60773	1.04394
0.35272	-0.46102
0.14870	0.50828
0.04670	1.63062
-0.18282	-2.01699
-0.18282	-0.20594
-0.25932	0.12566
-0.28482	0.45726
0.09770	-0.66508
0.30171	1.04394
0.32721	-0.43551
0.55673	1.09496
0.09770	1.42656
-0.43783	-1.73640
-0.31033	-0.05289
0.32721	-0.05289
0.37822	1.52859
0.65874	-0.25695
0.17421	-1.20074
-0.05531	0.25320
0.40372	0.35523
0.02119	0.96742
-0.00431	-0.15492
-0.23382	1.24800
0.12320	-0.41000
0.19971	-0.61406
-0.08081	0.07465
-0.02981	-0.05289
