-0.05531	-1.68539
0.02119	0.25320
0.27621	0.15117
0.12320	-0.35899
0.12320	0.48277
0.14870	0.53379
0.12320	0.43176
0.09770	0.45726
0.12320	0.43176
0.09770	0.25320
0.09770	-0.43551
0.19971	0.25320
0.25071	0.25320
0.25071	0.58480
0.19971	0.04914
0.09770	-0.28246
0.07220	0.43176
0.14870	0.30422
0.22521	0.61031
0.25071	-0.18043
0.17421	-0.79262
0.09770	0.35523
0.17421	0.99292
0.22521	0.27871
0.19971	0.61031
0.12320	-0.48652
0.07220	-0.15492
0.02119	0.07465
0.09770	1.32453
0.12320	-0.02739
0.22521	0.27871
0.22521	-0.05289
0.17421	0.04914
0.12320	-0.07840
0.12320	-0.02739
0.12320	0.25320
0.22521	-0.35899
0.19971	0.35523
0.09770	0.35523
0.07220	0.25320
0.17421	-0.05289
0.12320	0.83988
0.25071	0.81437
0.22521	-0.79262
0.07220	0.25320
0.22521	0.15117
0.14870	0.15117
0.04670	0.20219
-0.00431	0.17668
0.07220	0.25320
0.27621	0.04914
0.22521	0.27871
0.19971	0.25320
0.22521	-0.00188
0.12320	0.86539
-0.08081	-1.78742
0.14870	1.55410
0.30171	-0.94566
0.12320	-0.63957
-0.00431	1.70714
0.17421	0.04914
0.12320	0.53379
0.22521	0.04914
0.19971	0.55929
0.12320	0.45726
0.09770	-0.07840
0.12320	1.14597
0.07220	-3.31788
0.12320	0.58480
0.14870	0.30422
0.17421	0.63582
0.14870	0.73785
0.14870	0.43176
0.17421	0.04914
0.09770	0.20219
0.32721	0.35523
0.22521	0.15117
0.22521	0.25320
0.12320	-0.05289
0.02119	-0.41000
0.19971	0.20219
0.17421	0.17668
0.12320	0.83988
0.19971	-0.05289
0.22521	0.66132
0.09770	0.20219
0.45472	-0.25695
0.04670	0.17668
0.12320	-0.07840
0.07220	0.58480
0.12320	0.22769
0.14870	1.04394
0.19971	-0.66508
0.25071	-1.25176
0.22521	0.86539
0.30171	0.53379
0.14870	0.30422
0.09770	0.07465
-0.00431	-0.23145
0.19971	0.58480
0.04670	0.43176
0.55673	0.91640
0.37822	-0.51203
0.12320	-0.71609
-0.08081	0.45726
-0.05531	0.55929
0.09770	0.38074
0.19971	-0.71609
0.14870	0.35523
0.19971	0.81437
0.12320	0.81437
0.09770	0.61031
0.22521	-0.25695
0.19971	0.04914
0.17421	-0.46102
0.22521	-0.58856
0.22521	0.17668
0.12320	0.27871
0.12320	0.27871
0.09770	0.10015
0.07220	0.48277
0.09770	-0.99668
0.12320	0.43176
0.14870	0.15117
0.12320	0.17668
0.22521	0.30422
0.12320	0.22769
0.02119	0.48277
-0.05531	-0.25695
0.68424	-0.10391
0.35272	0.55929
0.07220	0.32972
-0.05531	-0.05289
-0.02981	0.27871
0.04670	-0.28246
0.07220	1.09496
0.14870	0.10015
0.30171	-0.86914
0.07220	0.48277
0.12320	-0.12942
0.17421	0.17668
0.17421	0.61031
0.22521	-0.71609
0.19971	0.53379
0.17421	0.20219
0.04670	0.30422
0.12320	0.40625
0.17421	0.04914
0.22521	-0.00188
0.17421	0.10015
-0.00431	0.22769
0.02119	0.07465
0.12320	0.83988
0.27621	0.22769
0.30171	0.45726
0.12320	-0.12942
0.12320	-0.81812
0.09770	0.71234
0.12320	0.30422
0.09770	-0.00188
0.12320	0.17668
0.12320	0.20219
0.17421	0.17668
0.22521	0.25320
0.22521	0.10015
0.12320	0.04914
0.12320	0.40625
0.07220	0.12566
0.04670	0.02363
0.12320	0.17668
0.12320	-0.20594
0.02119	-0.28246
0.14870	0.17668
0.17421	1.17148
0.25071	-0.71609
0.07220	0.22769
0.19971	0.58480
0.12320	-0.25695
0.25071	0.53379
0.14870	0.38074
0.12320	0.17668
0.09770	0.20219
0.04670	0.22769
0.09770	0.22769
0.17421	0.04914
0.17421	0.20219
0.14870	0.02363
0.14870	0.17668
0.12320	-0.18043
0.12320	0.25320
0.19971	0.07465
0.22521	0.15117
0.14870	0.40625
0.22521	0.22769
0.25071	0.15117
0.14870	0.04914
0.14870	0.07465
0.04670	0.22769
0.04670	0.32972
0.07220	-0.15492
0.12320	0.58480
0.07220	-0.18043
0.04670	-0.05289
0.09770	0.25320
0.07220	0.35523
0.12320	0.27871
0.14870	0.12566
0.14870	-0.02739
0.19971	0.15117
0.12320	0.04914
0.14870	0.38074
0.22521	1.12046
0.22521	0.66132
0.22521	-0.74160
0.22521	-0.15492
0.25071	0.15117
0.12320	0.12566
0.09770	0.20219
0.09770	0.35523
0.14870	0.38074
0.14870	0.12566
0.14870	0.12566
0.17421	0.25320
0.09770	0.27871
0.12320	0.22769
0.09770	0.04914
0.09770	0.40625
0.07220	0.02363
0.04670	-0.07840
0.07220	-0.76711
0.07220	0.86539
0.07220	0.45726
0.12320	-0.23145
0.12320	0.48277
0.12320	0.25320
0.19971	0.10015
0.12320	0.12566
-0.02981	0.20219
0.02119	0.55929
0.09770	0.53379
0.12320	-0.33348
0.17421	-0.28246
0.17421	-0.79262
0.14870	0.76336
0.14870	0.15117
0.14870	-0.56305
0.17421	0.40625
0.14870	0.38074
0.12320	-0.02739
0.17421	-0.66508
0.19971	1.40105
0.17421	0.22769
0.19971	-0.05289
0.22521	0.71234
0.25071	0.55929
0.22521	0.17668
0.22521	-0.02739
0.19971	0.12566
0.19971	0.22769
0.17421	0.15117
0.19971	0.10015
0.22521	0.07465
0.25071	0.27871
0.25071	0.30422
0.22521	0.25320
0.25071	0.40625
0.14870	0.27871
0.12320	0.04914
0.14870	-0.05289
0.14870	0.20219
0.14870	0.32972
0.19971	0.35523
0.22521	0.10015
0.27621	0.20219
0.17421	0.15117
0.22521	0.20219
0.22521	0.78886
0.19971	0.02363
0.19971	-0.05289
0.19971	-0.05289
0.25071	0.15117
0.25071	0.15117
0.27621	0.17668
0.19971	0.15117
0.27621	0.25320
0.19971	0.35523
0.19971	0.43176
0.12320	-0.05289
0.12320	-0.07840
0.07220	-0.00188
0.07220	-0.00188
0.14870	0.50828
0.19971	0.38074
0.17421	0.12566
0.09770	-1.07320
0.07220	0.76336
0.07220	0.86539
0.09770	0.15117
0.04670	-0.58856
0.12320	0.02363
0.12320	0.04914
0.09770	0.04914
0.09770	0.89089
0.07220	-0.23145
0.09770	-0.38449
0.12320	-0.07840
0.19971	0.07465
0.14870	0.12566
0.07220	0.10015
0.12320	0.12566
0.09770	0.20219
0.07220	0.17668
0.09770	-0.00188
0.17421	0.12566
0.14870	0.27871
0.12320	0.04914
0.17421	0.76336
0.14870	0.07465
0.12320	0.07465
0.12320	-0.02739
0.12320	-0.00188
0.12320	0.53379
0.12320	-0.56305
0.14870	-0.61406
0.14870	1.29902
0.12320	0.66132
0.17421	0.53379
0.14870	0.20219
0.19971	-0.35899
0.22521	-0.56305
0.22521	-0.25695
0.22521	-0.12942
0.22521	0.17668
0.22521	0.38074
0.22521	0.45726
0.17421	0.45726
0.14870	0.35523
0.09770	0.27871
0.09770	0.25320
0.14870	0.25320
0.14870	0.22769
0.12320	0.22769
0.17421	-0.00188
0.14870	0.10015
0.07220	0.07465
0.09770	0.27871
0.09770	0.10015
0.09770	0.17668
0.09770	0.10015
0.25071	0.25320
0.22521	0.12566
0.25071	-0.05289
0.25071	0.10015
0.14870	-0.23145
0.14870	0.30422
0.14870	0.27871
0.07220	0.35523
0.07220	-0.18043
0.07220	-0.07840
0.07220	0.94191
0.14870	0.17668
0.14870	-0.10391
0.17421	0.10015
0.19971	-0.05289
0.22521	0.17668
0.12320	-0.48652
0.14870	0.66132
0.12320	0.10015
0.09770	0.10015
0.17421	0.17668
0.27621	0.04914
0.27621	0.17668
0.14870	0.30422
0.02119	0.25320
0.30171	0.22769
0.19971	0.20219
0.17421	0.15117
0.17421	0.07465
0.07220	0.02363
0.07220	0.27871
0.07220	-0.23145
0.12320	-0.71609
0.07220	0.81437
0.12320	0.45726
0.09770	0.07465
0.07220	-0.10391
0.09770	0.20219
-0.02981	0.20219
0.17421	0.17668
0.12320	0.20219
0.12320	0.22769
0.19971	0.20219
0.25071	0.22769
0.27621	0.20219
0.19971	0.10015
0.35272	0.17668
0.27621	0.12566
0.17421	0.12566
0.07220	0.07465
0.09770	0.10015
0.07220	0.15117
0.09770	0.10015
0.04670	-0.00188
0.14870	0.48277
0.14870	0.27871
0.14870	0.71234
0.17421	-0.10391
0.19971	-0.71609
0.14870	0.86539
0.02119	0.12566
0.14870	-1.40480
0.19971	0.40625
0.25071	0.35523
0.22521	0.94191
0.27621	0.43176
0.14870	-0.30797
0.12320	0.35523
-0.02981	0.25320
-0.00431	-0.66508
0.19971	0.50828
0.19971	-0.38449
0.25071	1.09496
0.22521	0.15117
0.27621	0.30422
0.12320	0.66132
0.07220	-1.02219
0.09770	0.22769
0.27621	0.96742
0.25071	-1.07320
0.22521	1.17148
0.27621	0.30422
0.12320	0.22769
0.12320	0.10015
0.14870	0.68683
0.09770	0.66132
0.07220	-0.53754
0.14870	-0.20594
0.12320	0.04914
0.14870	-0.69059
0.07220	-0.05289
0.14870	0.50828
0.07220	-0.43551
0.12320	0.43176
0.37822	0.17668
0.12320	0.45726
-0.15732	-0.46102
0.32721	0.76336
0.09770	0.40625
0.14870	0.25320
0.09770	-0.05289
0.14870	-0.86914
0.14870	0.50828
0.12320	0.20219
0.17421	-0.12942
0.12320	0.45726
0.17421	0.12566
0.30171	0.43176
0.12320	-0.00188
-0.08081	-0.00188
0.48022	-0.00188
0.17421	0.15117
0.07220	0.07465
0.07220	0.07465
0.17421	0.22769
0.25071	0.55929
0.25071	0.30422
0.22521	-0.05289
0.22521	0.04914
0.12320	-0.00188
0.09770	0.22769
0.19971	0.71234
0.30171	-1.02219
0.17421	0.61031
0.22521	0.45726
0.19971	0.35523
0.17421	0.15117
0.12320	0.22769
0.04670	-0.18043
0.07220	-0.05289
0.07220	-1.45582
-0.00431	0.73785
0.09770	0.86539
0.37822	0.73785
0.19971	0.58480
0.09770	0.27871
0.14870	0.25320
0.25071	-0.53754
-0.00431	-0.12942
-0.00431	-0.02739
0.09770	0.04914
0.17421	0.48277
0.14870	0.20219
0.22521	0.43176
0.22521	0.66132
0.17421	-0.84363
0.12320	1.96222
-0.13181	-4.49124
0.17421	1.52859
0.40372	0.91640
0.14870	0.66132
-0.02981	0.53379
0.25071	0.35523
0.02119	0.02363
0.22521	0.12566
0.12320	-0.02739
0.07220	0.04914
0.12320	0.02363
0.17421	0.02363
0.27621	-0.00188
0.17421	0.04914
0.07220	0.20219
-0.05531	0.15117
0.22521	0.25320
0.30171	0.22769
0.02119	0.10015
-0.41233	0.07465
1.70430	0.20219
0.86275	0.40625
0.32721	0.30422
-0.43783	0.30422
-0.33583	0.25320
0.02119	0.17668
-0.18282	0.15117
-0.08081	0.04914
0.07220	0.07465
0.19971	0.10015
0.12320	0.20219
0.42922	0.12566
0.19971	-0.05289
-0.05531	0.50828
0.19971	-0.41000
0.78624	-0.41000
0.37822	1.12046
-0.00431	0.15117
0.37822	0.32972
-0.13181	0.35523
-0.64185	0.17668
0.83725	0.25320
0.25071	-0.05289
-0.33583	0.12566
-0.33583	0.15117
-0.41233	0.04914
1.34728	0.07465
-0.08081	0.04914
0.48022	0.15117
0.04670	0.15117
-0.13181	0.17668
0.04670	0.27871
0.12320	0.25320
0.37822	0.45726
0.17421	0.15117
0.19971	0.02363
0.19971	0.15117
0.25071	0.15117
0.09770	0.02363
0.02119	0.12566
0.30171	0.10015
-0.15732	0.02363
0.45472	0.04914
0.14870	0.12566
0.37822	0.20219
0.04670	0.07465
-0.05531	0.30422
0.09770	0.35523
0.04670	0.04914
0.07220	0.10015
0.12320	0.07465
0.12320	0.04914
0.07220	0.15117
0.19971	0.15117
0.27621	0.15117
-0.02981	0.07465
0.25071	0.27871
0.19971	0.20219
0.27621	0.22769
0.30171	-0.20594
0.30171	0.04914
0.25071	0.45726
-0.10631	-0.07840
-0.00431	-0.53754
0.12320	0.32972
0.09770	0.71234
0.22521	0.61031
0.32721	-0.05289
0.22521	0.91640
-0.10631	-0.15492
0.02119	0.76336
0.19971	1.12046
0.50573	-2.80773
0.37822	-1.04770
0.37822	3.90081
0.12320	-3.08831
0.25071	-0.86914
-0.18282	2.31933
-0.31033	1.78367
-0.20832	-2.32308
-0.15732	0.86539
0.12320	-0.07840
0.40372	-2.47613
0.60773	6.75768
0.45472	-6.14924
0.27621	1.50308
0.53123	-1.27726
0.45472	5.43127
-0.53984	-1.35379
-0.43783	-0.94566
-0.51434	-1.14973
0.27621	-0.28246
0.42922	-3.72601
0.04670	-1.35379
-0.53984	7.90552
-0.18282	0.76336
0.99026	3.49268
1.62780	-10.76615
1.52579	4.76807
0.73524	-3.36890
-0.20832	10.55833
-1.15188	-6.60838
-0.97337	-5.25647
-1.35589	2.19179
-1.33039	4.89561
0.88825	3.00804
2.16333	-0.94566
1.78081	-2.29757
0.02119	5.43127
-0.71835	2.08976
-0.13181	3.13558
-0.28482	1.47757
0.55673	1.52859
0.81175	2.85499
0.30171	-10.02642
0.14870	-0.25695
0.45472	1.04394
0.78624	0.32972
0.19971	-2.32308
-0.48884	-2.42511
-1.30489	7.59943
-0.71835	-0.61406
-0.56534	-0.07840
0.78624	1.12046
0.55673	-0.89465
-0.31033	-3.57296
-0.23382	-4.72081
-0.46334	2.37034
0.25071	1.47757
1.32178	1.96222
1.16877	2.37034
-0.53984	2.01323
-0.10631	0.25320
0.04670	0.50828
0.42922	0.22769
-0.36133	-0.79262
-0.66735	-4.89936
0.35272	-1.17523
1.32178	2.29382
1.14327	-2.32308
1.09226	6.09448
1.01576	3.11007
-0.31033	-5.02690
-0.84586	-0.41000
-0.92237	1.52859
-0.84586	0.25320
-0.56534	0.15117
-0.59084	0.68683
0.60773	1.12046
0.93925	0.20219
0.60773	0.30422
0.02119	0.38074
-0.15732	-0.51203
0.09770	0.02363
0.60773	0.25320
0.73524	-0.74160
0.40372	0.63582
-0.05531	0.07465
0.65874	0.50828
0.45472	-1.02219
-0.59084	0.20219
-1.07538	-1.60887
-1.30489	0.66132
-0.00431	0.91640
0.04670	0.58480
0.83725	0.66132
0.86275	0.43176
1.29628	1.14597
1.27078	1.75816
0.70974	0.04914
0.32721	-0.35899
-0.05531	0.20219
-0.20832	-0.56305
-0.15732	-0.46102
-0.02981	-0.38449
-0.18282	3.03355
-0.10631	-2.47613
-0.89686	-1.14973
-0.79486	0.63582
-0.25932	1.35003
-0.43783	-0.25695
0.83725	0.30422
1.34728	0.10015
1.16877	0.81437
0.73524	0.04914
0.60773	-0.15492
0.30171	-1.99148
0.22521	0.45726
-0.18282	0.89089
-0.38683	0.63582
-0.46334	0.30422
-0.23382	-0.48652
0.04670	1.27351
0.48022	-1.53234
0.27621	-0.48652
-0.18282	1.17148
-0.33583	0.55929
0.12320	0.12566
0.22521	0.20219
0.27621	0.89089
0.48022	0.68683
0.93925	0.17668
0.22521	-0.18043
-0.61635	-0.18043
0.32721	-0.25695
1.04126	-0.43551
0.40372	1.52859
0.35272	0.83988
-0.87136	-4.95038
-0.28482	-0.25695
-0.48884	1.47757
0.78624	1.37554
1.09226	1.12046
0.81175	1.04394
0.42922	1.40105
-0.05531	-0.48652
0.04670	-0.81812
0.02119	0.22769
-0.18282	0.61031
-0.33583	1.09496
-0.18282	-0.46102
-0.31033	-1.35379
-0.10631	-0.25695
-0.08081	0.30422
0.09770	0.96742
0.19971	0.45726
0.48022	-0.63957
0.60773	-0.66508
0.45472	3.31413
0.35272	-1.68539
0.35272	0.83988
0.27621	2.72745
0.25071	1.50308
0.14870	-0.66508
0.22521	1.01843
-0.05531	-0.43551
0.02119	-0.69059
0.32721	-1.32828
0.17421	-0.20594
-0.18282	0.63582
-0.20832	-0.10391
1.21977	0.96742
0.53123	0.48277
0.12320	-0.35899
-0.82036	0.10015
-0.46334	0.53379
1.01576	0.55929
0.65874	0.12566
-0.79486	-0.58856
-1.30489	-0.25695
0.58223	0.61031
1.29628	0.83988
1.09226	0.99292
0.99026	-0.58856
0.63323	0.53379
0.19971	0.91640
-0.10631	0.89089
-0.69285	0.32972
-0.64185	-0.51203
-0.13181	-0.51203
-0.08081	0.61031
0.17421	0.55929
0.32721	-0.10391
0.07220	-0.10391
0.27621	0.12566
0.22521	-0.33348
0.40372	0.94191
0.53123	0.30422
0.78624	1.52859
0.22521	-0.74160
-0.69285	0.17668
-1.55991	-1.60887
-1.02437	0.55929
0.83725	1.37554
1.50029	0.10015
1.27078	1.24800
1.32178	-0.99668
1.32178	2.80397
0.40372	-0.20594
-0.61635	-2.27207
-1.81492	-1.55785
-1.40690	-0.20594
0.07220	2.21730
0.45472	-0.66508
0.35272	1.63062
0.76074	0.04914
0.50573	-0.33348
-0.43783	0.17668
-0.33583	-0.48652
-0.20832	1.55410
0.14870	-0.99668
-0.02981	-0.53754
0.07220	1.50308
0.65874	0.83988
0.73524	-0.30797
0.73524	-0.58856
0.30171	-0.81812
0.12320	0.96742
0.12320	1.22250
0.12320	0.96742
0.02119	-0.94566
-0.36133	1.32453
-0.59084	-1.86394
-0.20832	0.58480
0.50573	0.61031
1.06676	-0.86914
0.37822	0.78886
0.04670	-1.58336
-0.46334	0.22769
-0.10631	1.24800
0.58223	1.63062
0.14870	1.24800
0.02119	-0.10391
0.55673	0.45726
0.35272	0.99292
0.40372	-1.71090
-0.10631	-2.19554
-0.00431	0.76336
0.48022	0.66132
0.76074	0.61031
0.58223	0.12566
-0.05531	0.58480
0.81175	0.10015
0.19971	-1.12422
-0.92237	0.63582
-2.45246	0.50828
-1.12638	-1.17523
0.58223	1.86019
1.14327	0.81437
1.29628	-2.78222
1.06676	-0.38449
0.65874	0.71234
0.30171	1.40105
0.14870	1.01843
-0.00431	0.86539
-0.15732	1.01843
-0.13181	0.86539
-0.00431	-0.46102
0.02119	-0.76711
0.02119	-0.00188
-0.31033	-3.06281
-0.13181	-0.30797
-0.08081	-0.94566
0.45472	-1.94047
0.63323	2.29382
0.35272	1.83468
0.17421	1.52859
-0.41233	0.83988
-0.00431	0.32972
0.86275	-0.02739
0.42922	-0.35899
0.60773	0.40625
0.60773	0.94191
0.02119	0.55929
-0.56534	-2.14453
-0.08081	-3.08831
0.53123	-0.66508
-0.56534	0.66132
-0.82036	0.71234
-1.20288	1.52859
-0.46334	1.40105
0.93925	1.57960
1.78081	-0.25695
1.42379	0.55929
0.93925	0.55929
0.12320	-2.47613
-0.13181	0.45726
0.12320	0.25320
-0.08081	0.55929
-0.02981	0.15117
-0.10631	-0.20594
-0.18282	-0.97117
-0.41233	-1.17523
-0.15732	2.57441
-0.18282	1.37554
-0.31033	1.70714
-0.05531	-4.59327
0.42922	-2.04250
0.42922	0.17668
0.35272	1.52859
0.35272	1.14597
0.58223	2.77847
0.53123	1.42656
0.45472	-0.15492
-0.28482	-0.58856
0.07220	-0.07840
0.32721	0.91640
0.88825	0.99292
0.32721	-5.15444
-0.46334	-0.18043
-0.87136	0.22769
-1.33039	0.27871
0.19971	1.88570
0.58223	-0.30797
1.16877	0.63582
1.04126	-0.20594
0.76074	0.55929
0.96476	0.66132
0.04670	0.53379
-1.61091	-0.15492
-2.06994	-0.20594
0.02119	-0.56305
1.09226	-0.28246
1.24527	0.91640
0.81175	-0.12942
0.45472	0.12566
0.25071	-0.05289
-0.08081	1.35003
-0.00431	0.17668
-0.10631	0.30422
-0.08081	-0.48652
-0.20832	-1.91496
-0.13181	0.94191
0.04670	1.27351
0.27621	0.96742
0.22521	-0.58856
0.19971	-0.00188
0.25071	-0.00188
0.27621	1.35003
0.35272	-0.92016
0.37822	-0.30797
0.14870	0.48277
0.22521	0.07465
0.04670	-0.84363
-0.05531	1.75816
0.12320	2.52339
0.07220	-0.28246
-0.13181	-2.57816
0.02119	-0.81812
0.30171	0.63582
0.78624	-1.04770
0.55673	1.27351
-0.05531	-0.38449
0.19971	0.15117
0.04670	0.76336
-0.13181	1.17148
-0.48884	0.20219
0.09770	1.17148
0.55673	-1.50683
0.70974	0.94191
0.91375	-0.46102
0.02119	-0.35899
-0.23382	0.12566
-0.13181	1.17148
-0.13181	-1.32828
0.07220	0.66132
0.55673	-0.41000
0.40372	0.38074
-0.15732	0.04914
0.25071	2.06425
0.02119	-1.12422
0.02119	0.50828
0.12320	-0.41000
0.27621	0.89089
0.25071	-2.22105
0.14870	0.04914
-0.08081	0.96742
0.32721	1.17148
0.25071	0.71234
-0.25932	0.63582
0.25071	-0.25695
0.50573	-0.10391
-0.02981	-1.12422
-0.08081	-1.30277
0.02119	1.83468
0.63323	0.43176
0.27621	-1.09871
0.14870	-0.30797
-0.20832	0.81437
-0.41233	0.94191
0.93925	0.50828
0.78624	0.71234
0.40372	1.14597
-1.30489	-1.27726
-1.68742	-2.37410
-0.97337	0.07465
0.63323	1.19699
2.01032	2.24281
1.65330	-1.22625
1.11776	2.01323
0.60773	1.60511
0.32721	-0.69059
-0.20832	0.12566
-0.41233	-0.30797
-0.48884	-1.96597
-0.48884	0.32972
-0.36133	0.66132
-0.46334	0.99292
-0.25932	-0.05289
-0.00431	-0.10391
0.22521	-0.66508
0.55673	-0.00188
0.42922	1.09496
0.42922	-1.04770
0.37822	1.06945
0.42922	0.15117
0.30171	1.70714
0.19971	0.17668
0.14870	-0.51203
0.02119	0.10015
0.17421	0.48277
0.25071	1.32453
0.30171	-1.65988
0.40372	-0.18043
-0.10631	0.04914
-0.36133	0.15117
-0.51434	-0.02739
-0.43783	0.63582
0.40372	0.15117
0.86275	1.96222
1.04126	-0.23145
0.53123	-0.81812
0.19971	-0.86914
-0.18282	-0.51203
0.12320	1.14597
-0.66735	0.17668
-0.20832	0.17668
0.50573	0.96742
0.50573	1.35003
0.25071	-0.30797
0.12320	-0.76711
0.12320	0.55929
0.22521	0.73785
0.27621	-0.07840
0.07220	-1.07320
-0.41233	-0.76711
-0.38683	0.81437
0.14870	0.20219
0.50573	-0.66508
0.40372	-0.99668
0.25071	0.25320
0.27621	1.22250
0.35272	-0.33348
0.27621	0.81437
0.32721	-0.46102
0.22521	1.17148
0.12320	0.73785
-0.05531	-0.10391
-0.28482	-0.66508
-0.41233	1.24800
-0.13181	-0.30797
0.88825	0.10015
0.48022	0.25320
0.48022	1.12046
-0.08081	0.27871
0.09770	-0.41000
0.30171	-2.06800
0.25071	-0.43551
0.12320	1.88570
-0.08081	-0.46102
-0.20832	-0.35899
-0.15732	-0.10391
-0.08081	1.86019
0.55673	0.50828
1.24527	-0.07840
0.55673	0.04914
-0.10631	0.45726
-0.15732	-0.35899
0.22521	0.48277
0.19971	-0.35899
0.09770	0.78886
-0.00431	-1.07320
-0.05531	0.10015
-0.08081	0.91640
0.37822	-0.23145
-0.15732	-0.71609
0.32721	1.37554
0.09770	1.50308
-0.02981	-1.37929
0.04670	0.25320
0.12320	2.62542
0.12320	-2.55265
0.09770	-0.74160
0.27621	0.45726
0.86275	1.42656
0.83725	-0.28246
0.60773	0.71234
-0.41233	-0.66508
-0.36133	0.27871
0.40372	1.24800
-0.48884	-0.51203
-0.33583	0.30422
-0.41233	-0.71609
0.48022	0.48277
0.70974	-0.23145
0.78624	0.40625
0.53123	-0.46102
0.35272	0.48277
0.17421	1.29902
0.02119	0.12566
-0.51434	-0.41000
-0.28482	0.71234
-0.13181	-0.10391
0.14870	0.73785
0.55673	-0.25695
0.14870	1.60511
-0.23382	-0.76711
0.17421	-0.12942
0.73524	-0.10391
0.63323	-0.97117
0.32721	0.68683
-0.08081	2.16628
0.14870	-0.05289
0.14870	0.32972
0.02119	-0.05289
0.04670	-0.25695
0.25071	-0.25695
0.32721	-0.33348
0.19971	0.63582
0.27621	0.17668
-0.33583	-0.63957
-0.18282	-0.02739
0.02119	0.07465
-0.05531	1.32453
0.04670	0.15117
0.32721	0.10015
0.73524	0.15117
0.19971	-1.02219
0.37822	-0.12942
-0.46334	1.50308
-0.10631	1.17148
0.22521	1.14597
0.25071	0.02363
0.25071	0.61031
0.25071	-1.22625
0.60773	-0.79262
0.58223	1.27351
0.30171	0.68683
-0.41233	-0.15492
-0.56534	0.43176
-0.08081	-1.86394
-0.51434	-0.46102
-0.76936	-0.84363
0.78624	1.06945
1.11776	1.17148
0.96476	2.06425
0.73524	-1.78742
0.48022	0.53379
0.27621	1.12046
-0.23382	0.91640
-0.36133	-0.89465
-0.41233	-0.84363
-0.08081	-0.05289
0.04670	0.48277
0.02119	0.58480
0.09770	0.35523
0.25071	0.68683
0.32721	-1.65988
0.09770	0.83988
0.19971	-0.00188
0.42922	1.50308
0.04670	-0.63957
-0.31033	-0.30797
-0.71835	0.55929
0.42922	1.35003
1.09226	-0.69059
0.93925	0.15117
0.60773	-0.35899
0.65874	1.04394
0.12320	1.40105
-0.36133	-0.51203
-0.31033	0.91640
-0.00431	-2.01699
0.25071	0.45726
0.32721	0.91640
-0.28482	-0.61406
-0.82036	0.83988
-1.22839	-0.48652
0.35272	0.61031
0.86275	0.35523
0.63323	0.22769
0.53123	-0.46102
0.32721	-0.69059
0.27621	-0.20594
0.22521	0.45726
0.17421	0.50828
0.42922	1.42656
0.02119	0.38074
-0.15732	0.22769
0.12320	1.32453
0.14870	-0.43551
0.04670	-0.28246
-0.25932	-2.04250
0.12320	-0.41000
0.37822	2.16628
0.32721	0.22769
0.17421	-0.86914
0.40372	0.07465
0.14870	0.68683
-0.20832	0.53379
0.22521	0.76336
-0.02981	-0.07840
-0.36133	-0.53754
0.17421	0.55929
0.48022	0.02363
0.55673	0.58480
0.42922	0.22769
0.68424	0.30422
0.63323	1.37554
-0.10631	-4.05761
-0.89686	-0.10391
-1.02437	1.47757
0.02119	-0.48652
0.81175	-0.05289
0.68424	1.32453
0.40372	1.73265
0.63323	1.22250
0.19971	-1.07320
-0.00431	0.78886
-0.18282	-0.10391
-0.28482	-0.28246
0.40372	-0.33348
0.45472	0.20219
0.32721	-0.12942
0.02119	-0.20594
0.45472	0.15117
0.12320	0.35523
0.32721	-0.48652
0.37822	-0.46102
-0.18282	-1.25176
-0.97337	1.80917
-0.71835	-0.05289
0.19971	0.78886
0.63323	0.15117
0.73524	-1.07320
0.63323	0.99292
0.02119	0.53379
-0.13181	1.78367
0.27621	-0.76711
0.35272	0.91640
0.14870	-0.63957
0.40372	0.12566
0.25071	-0.23145
-0.02981	-0.41000
-0.08081	0.07465
0.22521	1.57960
0.35272	-1.30277
0.42922	0.96742
0.04670	1.06945
-0.48884	-1.04770
-0.36133	0.25320
-0.00431	0.43176
0.58223	-1.45582
0.86275	0.25320
0.60773	-0.25695
0.30171	0.22769
-0.25932	0.96742
-0.05531	0.99292
0.22521	-0.30797
-0.08081	0.38074
-0.53984	0.15117
-0.25932	0.32972
-0.08081	-0.05289
0.40372	-0.58856
0.86275	0.99292
0.55673	0.27871
0.50573	-0.38449
0.37822	1.93671
0.53123	0.17668
-0.18282	-1.76191
-0.28482	-0.46102
-0.15732	-0.12942
-0.38683	-0.10391
-0.79486	0.04914
-0.23382	0.35523
0.45472	0.78886
0.55673	1.60511
0.63323	0.94191
0.68424	1.78367
0.42922	-2.01699
0.25071	-0.43551
-0.08081	-0.48652
-0.02981	0.55929
0.12320	-0.66508
0.22521	0.66132
-0.08081	-0.00188
0.04670	0.53379
0.17421	-0.35899
0.30171	0.50828
0.25071	0.04914
0.12320	-0.00188
-0.64185	-0.30797
-0.20832	-0.51203
-0.31033	1.14597
0.32721	-0.56305
0.63323	0.83988
0.88825	-0.79262
0.76074	1.12046
0.60773	-0.25695
0.42922	0.30422
0.35272	0.63582
0.12320	-0.56305
-0.20832	1.12046
-0.05531	0.10015
-0.05531	-0.00188
-0.66735	0.04914
-0.08081	0.10015
-0.20832	0.86539
0.53123	-0.46102
-0.33583	-0.76711
0.32721	-0.07840
0.60773	0.40625
0.83725	0.45726
0.63323	-0.53754
0.12320	0.04914
-0.20832	1.70714
-0.10631	-0.89465
0.14870	0.38074
0.22521	0.78886
0.17421	1.22250
-0.13181	-0.43551
-0.20832	-1.17523
0.07220	0.71234
0.32721	0.91640
-0.00431	0.32972
-0.02981	-3.64948
-0.10631	-0.48652
0.19971	-0.10391
0.22521	2.62542
-0.13181	0.35523
0.07220	-0.53754
0.30171	0.12566
0.22521	-0.00188
0.22521	0.78886
-0.05531	1.01843
0.35272	1.06945
0.40372	-1.43031
-0.15732	-0.51203
-0.41233	0.71234
-0.10631	-0.28246
0.07220	-0.05289
0.37822	0.78886
0.35272	-0.28246
0.60773	-0.53754
0.86275	0.61031
0.12320	0.10015
-0.51434	0.04914
-0.28482	0.55929
0.50573	-0.07840
0.32721	0.58480
0.32721	-1.17523
0.27621	0.15117
-0.05531	0.04914
-0.33583	0.68683
0.12320	-1.71090
0.04670	0.89089
0.32721	1.42656
0.37822	1.35003
0.07220	-0.02739
0.30171	0.73785
0.32721	-0.00188
0.22521	1.01843
-0.10631	-1.86394
-0.28482	-0.71609
-0.15732	0.68683
0.40372	-0.30797
0.35272	-1.37929
0.83725	0.15117
0.58223	0.53379
0.14870	1.17148
0.27621	1.29902
-0.43783	1.04394
-0.66735	-0.00188
-0.82036	-0.35899
0.27621	0.66132
1.11776	-1.07320
0.88825	-1.07320
0.73524	-0.00188
0.30171	1.47757
-0.43783	0.83988
-0.18282	-0.05289
0.27621	0.10015
0.12320	-1.07320
0.07220	0.50828
-0.10631	-0.58856
-0.33583	-0.07840
-0.10631	0.38074
0.32721	0.35523
0.68424	0.73785
0.17421	0.20219
0.35272	0.91640
0.32721	0.63582
0.27621	-1.17523
-0.15732	-1.09871
-0.56534	0.43176
-0.28482	0.55929
0.48022	0.12566
0.53123	-0.94566
0.17421	0.04914
0.53123	-0.94566
0.22521	0.45726
0.30171	1.14597
0.07220	0.86539
-0.08081	0.89089
-0.10631	-0.46102
-0.56534	-0.30797
-0.51434	-1.09871
0.35272	0.61031
0.55673	-0.66508
0.60773	0.99292
0.37822	0.55929
0.04670	1.96222
-0.41233	-1.45582
0.07220	-0.58856
-0.28482	0.53379
-0.18282	-0.15492
0.35272	0.07465
0.50573	-0.18043
0.35272	-0.23145
0.27621	0.58480
0.32721	-0.07840
0.55673	0.07465
-0.23382	1.12046
-0.28482	-0.05289
-0.18282	-0.66508
0.17421	-0.07840
0.09770	1.27351
0.40372	0.40625
0.55673	0.45726
0.37822	0.40625
-0.10631	-2.47613
-0.13181	0.40625
0.04670	0.96742
-0.20832	0.15117
0.02119	0.55929
0.55673	-1.02219
0.58223	0.96742
0.81175	0.02363
0.60773	-0.94566
0.17421	0.48277
-0.38683	-0.05289
-0.61635	0.15117
-0.38683	1.12046
-0.00431	-1.27726
0.45472	-0.43551
0.42922	0.81437
0.42922	1.78367
0.12320	-0.30797
0.12320	0.12566
0.32721	0.02363
0.27621	-1.37929
0.32721	-0.23145
0.27621	0.22769
-0.13181	1.01843
0.04670	1.09496
-0.15732	0.43176
0.14870	-0.61406
0.12320	0.02363
-0.02981	-1.99148
-0.00431	0.68683
0.42922	2.44687
0.40372	0.20219
0.19971	-1.65988
0.02119	-0.46102
-0.13181	0.99292
0.37822	1.24800
0.40372	2.26831
0.25071	-2.83324
0.02119	-0.79262
-0.36133	0.32972
0.45472	0.81437
0.35272	-0.20594
-0.02981	0.27871
-0.05531	0.83988
0.22521	0.22769
0.73524	-0.20594
0.42922	-0.86914
-0.56534	-0.38449
-0.59084	-0.12942
-0.13181	0.48277
0.60773	0.66132
0.48022	0.55929
0.65874	0.45726
0.55673	-0.15492
0.17421	-0.00188
0.22521	-0.20594
-0.36133	0.91640
-0.25932	0.91640
0.02119	-0.66508
0.07220	-0.76711
0.37822	3.00804
-0.00431	-0.48652
0.35272	-0.69059
0.45472	0.53379
0.30171	0.91640
-0.08081	0.32972
-0.15732	-0.20594
-0.69285	0.12566
-0.18282	1.04394
0.55673	-0.05289
0.83725	-2.80773
0.68424	-0.25695
-0.18282	0.73785
-0.23382	0.76336
0.22521	0.45726
0.40372	-0.41000
0.45472	1.52859
0.19971	1.27351
0.32721	-0.43551
0.17421	0.68683
-0.08081	0.32972
-0.15732	-0.99668
-0.23382	-1.48133
-0.13181	0.43176
-0.05531	0.68683
0.17421	0.68683
0.32721	0.45726
0.50573	-0.48652
0.37822	0.81437
0.37822	1.09496
0.19971	-0.76711
-0.13181	-0.20594
-0.59084	1.17148
-0.89686	0.89089
0.27621	-1.60887
1.06676	-0.33348
1.14327	-0.23145
0.63323	0.83988
0.07220	-0.66508
-0.20832	0.94191
0.19971	1.93671
0.25071	0.35523
-0.00431	-0.84363
-0.18282	-0.97117
0.07220	0.45726
0.40372	1.45206
0.37822	1.60511
0.32721	-3.29238
0.07220	0.35523
-0.48884	0.89089
-0.59084	0.10015
0.09770	0.53379
0.14870	0.91640
0.30171	-0.41000
0.76074	0.27871
0.65874	-1.37929
0.63323	2.21730
0.09770	-0.48652
0.25071	0.83988
0.07220	0.48277
-0.38683	0.22769
-0.25932	-0.81812
0.27621	0.30422
0.07220	-0.48652
0.22521	-0.28246
0.45472	-0.05289
0.14870	0.86539
0.09770	0.96742
0.12320	0.81437
0.09770	0.35523
0.22521	-1.83844
0.07220	0.68683
0.25071	0.55929
0.22521	0.02363
0.32721	0.35523
0.12320	0.81437
0.12320	0.20219
0.09770	0.76336
-0.05531	1.09496
0.02119	-1.30277
-0.05531	-0.25695
0.60773	-0.23145
0.81175	0.38074
0.35272	-0.18043
-0.13181	-0.41000
0.14870	0.07465
0.32721	0.58480
-0.02981	-0.12942
0.14870	0.55929
-0.18282	1.17148
-0.13181	-1.68539
-0.02981	0.91640
0.25071	1.37554
0.14870	-0.20594
-0.23382	0.68683
0.02119	-0.63957
0.48022	-1.58336
-0.10631	1.50308
0.27621	0.45726
0.40372	0.86539
0.60773	-0.25695
0.42922	-0.71609
-0.18282	0.83988
-0.31033	1.06945
-0.53984	0.10015
0.42922	-0.02739
0.19971	-0.61406
0.12320	-1.48133
0.76074	0.22769
0.73524	-0.05289
0.73524	1.42656
0.32721	-0.15492
-0.31033	1.40105
-0.08081	-1.27726
-0.15732	0.71234
0.12320	0.55929
0.07220	0.76336
-0.10631	-1.32828
0.27621	0.89089
0.37822	0.40625
0.30171	1.24800
0.14870	0.48277
0.09770	0.27871
0.09770	-0.46102
0.12320	-0.25695
0.12320	0.83988
0.04670	-0.23145
0.07220	-0.92016
0.32721	-0.92016
0.19971	-1.48133
0.02119	0.91640
-0.13181	0.96742
0.09770	0.99292
0.30171	1.01843
0.12320	0.53379
-0.10631	-1.22625
0.04670	-0.15492
0.30171	0.73785
0.96476	0.91640
0.65874	-0.63957
0.25071	0.15117
-0.48884	0.76336
-0.33583	-0.20594
-0.59084	0.45726
-0.25932	-0.10391
0.50573	-0.07840
0.55673	-1.17523
0.50573	1.01843
0.32721	-0.10391
0.12320	0.25320
0.25071	-0.10391
0.12320	-0.28246
-0.13181	0.83988
-0.41233	-0.69059
-0.18282	1.27351
0.40372	-1.17523
0.48022	0.30422
0.25071	0.17668
-0.10631	0.94191
0.12320	0.89089
0.42922	1.57960
0.32721	-0.10391
0.17421	-0.71609
-0.02981	-0.20594
0.09770	0.50828
0.48022	-0.38449
0.42922	0.91640
0.14870	-0.66508
0.07220	0.30422
-0.13181	0.10015
-0.20832	-1.07320
-0.05531	0.02363
0.14870	0.78886
-0.25932	0.17668
-0.02981	-0.10391
0.30171	-0.51203
0.60773	0.71234
1.32178	0.10015
0.40372	0.15117
-0.36133	1.57960
-0.71835	0.25320
-0.15732	0.55929
0.30171	0.35523
0.55673	-0.12942
0.63323	0.20219
0.32721	-0.30797
-0.08081	0.27871
-0.02981	0.17668
-0.28482	-0.58856
-0.59084	0.25320
0.04670	-0.23145
0.32721	-0.86914
0.55673	1.32453
0.42922	0.20219
0.35272	-0.38449
-0.05531	-0.46102
-0.05531	0.22769
0.35272	0.73785
0.07220	1.65613
0.12320	-0.58856
0.25071	0.89089
0.17421	0.10015
0.04670	-0.89465
-0.00431	0.17668
0.19971	0.30422
0.37822	-0.53754
0.32721	0.61031
0.25071	-0.07840
-0.13181	0.73785
-0.23382	-0.69059
0.55673	-1.07320
0.48022	0.63582
-0.18282	1.37554
-0.74385	0.86539
-0.48884	-0.00188
-0.10631	-0.20594
0.91375	0.81437
1.29628	-0.00188
0.88825	0.04914
0.40372	0.25320
0.22521	1.09496
0.14870	-0.33348
0.14870	-0.84363
0.22521	0.25320
-0.46334	-0.38449
-0.84586	-0.23145
-0.92237	1.70714
-0.25932	-0.58856
0.30171	0.15117
0.53123	0.63582
0.81175	0.48277
0.73524	0.35523
0.42922	-0.84363
0.17421	-1.63437
0.22521	2.29382
0.35272	1.88570
0.09770	0.71234
-0.00431	0.66132
-0.46334	-0.07840
0.02119	0.10015
0.27621	0.86539
0.19971	-1.12422
0.14870	-2.29757
0.25071	-0.71609
0.12320	-0.28246
0.22521	0.04914
0.07220	1.32453
0.35272	0.55929
-0.08081	-0.12942
0.19971	1.04394
-0.05531	0.38074
-0.05531	0.35523
0.35272	0.38074
0.40372	0.04914
-0.25932	-0.84363
0.02119	0.81437
0.53123	-0.18043
0.30171	-0.69059
0.42922	1.06945
0.19971	0.27871
0.30171	-0.53754
0.35272	0.53379
0.12320	0.81437
-0.00431	-0.38449
0.02119	-0.48652
-0.00431	-0.66508
-0.00431	1.40105
0.07220	-0.18043
0.09770	0.32972
0.22521	0.10015
0.17421	0.27871
0.22521	1.32453
-0.08081	0.30422
-0.28482	-2.57816
-0.02981	0.50828
0.53123	1.86019
0.53123	-0.61406
0.58223	-1.37929
0.65874	1.70714
0.35272	1.27351
-0.15732	0.73785
0.09770	0.30422
-0.10631	0.63582
-0.23382	-1.96597
-0.33583	-0.41000
0.12320	0.20219
0.53123	0.83988
0.37822	0.50828
0.27621	1.24800
0.27621	0.02363
-0.05531	-0.10391
0.17421	0.17668
0.27621	-0.23145
-0.25932	0.45726
-0.43783	-0.63957
-0.69285	-0.12942
0.45472	0.55929
0.96476	-0.58856
0.53123	0.91640
0.70974	0.63582
0.32721	0.02363
0.09770	0.04914
-0.31033	-0.02739
-0.05531	1.06945
-0.08081	0.20219
0.45472	0.55929
0.17421	-0.33348
-0.08081	0.02363
0.73524	-0.46102
-0.15732	-1.58336
-0.10631	1.24800
-0.13181	0.89089
0.04670	0.35523
0.17421	0.30422
0.32721	0.61031
0.37822	0.35523
0.55673	0.12566
0.50573	-0.51203
0.35272	0.76336
0.02119	-0.61406
-0.18282	-0.25695
-0.05531	0.86539
0.09770	-1.04770
-0.02981	-0.25695
0.07220	-0.76711
0.09770	0.73785
0.22521	0.71234
0.40372	1.35003
0.19971	0.63582
0.40372	-0.84363
0.55673	0.07465
0.04670	0.63582
-0.79486	0.81437
-0.38683	-0.56305
0.04670	1.01843
0.83725	-0.15492
1.04126	-0.30797
0.45472	-0.30797
0.09770	0.27871
-0.18282	-0.12942
0.32721	0.17668
0.14870	1.17148
0.12320	0.38074
0.25071	-1.73640
-0.15732	1.12046
-0.00431	-0.58856
-0.18282	1.83468
-0.31033	-1.27726
-0.13181	-0.30797
0.32721	0.63582
0.48022	0.02363
0.53123	-0.18043
0.63323	1.19699
0.17421	1.60511
-0.43783	0.99292
-0.15732	0.48277
-0.28482	-0.51203
0.42922	-1.37929
0.50573	-0.99668
0.17421	0.38074
0.55673	1.09496
0.37822	0.35523
0.17421	0.38074
-0.13181	-0.18043
-0.13181	-0.41000
-0.20832	-0.20594
-0.02981	0.43176
0.17421	0.22769
0.32721	0.86539
0.32721	-0.33348
0.04670	-0.15492
0.17421	0.22769
0.25071	0.48277
0.04670	0.48277
-0.13181	0.30422
0.07220	-0.28246
0.12320	1.22250
0.70974	0.22769
0.96476	-0.48652
0.12320	-0.28246
-0.00431	-0.05289
-0.69285	0.25320
-0.15732	-0.05289
0.50573	0.96742
0.40372	0.50828
0.09770	-0.33348
0.04670	-1.37929
0.14870	-0.63957
0.02119	0.15117
0.09770	1.57960
0.32721	1.06945
0.40372	-0.74160
0.14870	0.94191
-0.02981	0.25320
0.02119	0.63582
-0.74385	-0.20594
0.12320	-0.35899
0.53123	0.53379
0.65874	-1.22625
0.73524	0.20219
0.37822	1.01843
0.32721	-0.94566
0.09770	0.73785
0.12320	1.78367
-0.05531	0.50828
-0.02981	-0.74160
-0.15732	0.40625
0.09770	-1.58336
0.27621	0.63582
0.37822	-0.07840
0.68424	0.68683
0.32721	0.91640
-0.10631	-0.05289
-0.33583	0.76336
-0.13181	0.04914
-0.43783	-0.05289
0.12320	-1.12422
0.37822	0.89089
1.50029	-1.50683
1.24527	0.48277
1.09226	0.40625
0.02119	0.68683
-1.07538	0.30422
-0.51434	-0.23145
0.19971	-0.97117
0.37822	1.24800
0.32721	0.71234
-0.28482	-0.99668
0.37822	0.04914
0.19971	0.89089
0.07220	1.32453
-0.20832	0.43176
-0.48884	0.12566
-0.13181	-0.30797
0.30171	-2.45062
0.04670	0.48277
0.09770	0.22769
0.22521	-0.33348
0.30171	0.50828
0.37822	0.94191
0.25071	1.14597
0.19971	0.71234
0.02119	-0.35899
0.02119	0.43176
-0.05531	-3.77702
0.07220	0.48277
0.14870	-0.25695
0.19971	0.96742
0.35272	1.14597
0.09770	1.27351
-0.66735	1.55410
-0.08081	-0.10391
0.35272	-0.28246
0.63323	0.48277
0.48022	-1.04770
0.02119	-0.86914
0.32721	0.55929
0.55673	-0.84363
0.53123	0.58480
0.17421	0.02363
-0.13181	0.61031
-0.46334	1.55410
-0.33583	0.32972
-0.15732	-1.32828
-0.10631	-1.35379
0.09770	0.20219
0.35272	0.91640
0.58223	0.20219
0.73524	1.96222
0.58223	-0.15492
-0.10631	-0.00188
0.07220	-0.10391
-0.20832	-0.86914
-0.25932	0.45726
-0.08081	0.73785
0.12320	0.22769
0.19971	-0.20594
0.25071	0.02363
0.40372	0.50828
0.42922	1.01843
0.37822	-0.00188
0.19971	0.17668
-0.33583	-1.50683
-0.13181	0.43176
0.30171	0.66132
0.30171	-0.30797
0.40372	1.70714
0.07220	-1.45582
-0.05531	0.86539
0.17421	1.06945
0.17421	1.19699
0.12320	-0.15492
0.12320	-1.81293
0.09770	0.32972
-0.20832	0.20219
-0.05531	-0.02739
-0.08081	-0.18043
0.37822	0.15117
0.65874	-0.46102
0.22521	0.12566
-0.08081	1.68163
0.25071	-0.02739
0.35272	0.30422
0.30171	0.48277
-0.08081	-0.46102
0.19971	0.22769
0.32721	-0.30797
-0.05531	0.35523
0.35272	0.38074
-0.08081	0.15117
-0.28482	0.45726
-0.18282	-0.30797
0.40372	0.22769
0.48022	0.30422
0.35272	0.04914
0.27621	-0.02739
0.19971	-0.74160
0.14870	-0.25695
0.12320	-0.05289
-0.05531	1.55410
0.12320	1.12046
0.22521	1.06945
-0.05531	0.55929
0.19971	-1.04770
0.19971	-3.49644
0.32721	1.80917
-0.08081	1.22250
-0.20832	-0.46102
-0.10631	0.96742
0.32721	-0.02739
0.37822	0.38074
0.63323	0.78886
0.37822	-0.10391
-0.00431	0.22769
0.09770	0.68683
0.32721	0.25320
-0.23382	-0.28246
0.27621	0.40625
0.19971	0.10015
-0.25932	-1.27726
-0.33583	-0.10391
-0.02981	0.66132
0.50573	-0.20594
0.35272	0.20219
0.30171	-0.07840
-0.48884	0.43176
0.27621	0.96742
0.48022	0.58480
0.48022	0.12566
0.50573	0.32972
0.50573	0.73785
0.30171	-0.25695
-0.05531	-0.99668
0.09770	0.63582
-0.25932	-0.00188
-0.15732	0.22769
-0.05531	0.66132
-0.00431	0.73785
-0.10631	-1.20074
-0.00431	-1.71090
0.17421	-1.40480
0.22521	2.42136
0.30171	0.30422
0.19971	1.14597
0.07220	1.04394
0.07220	0.15117
0.45472	0.20219
0.19971	0.43176
0.30171	0.32972
0.40372	0.27871
0.14870	-0.76711
0.02119	-1.35379
0.19971	-1.83844
-0.10631	1.78367
0.09770	0.68683
-0.10631	1.12046
-0.53984	-0.56305
-0.33583	-0.07840
0.42922	-0.00188
0.53123	1.65613
0.73524	0.68683
0.42922	0.10015
0.50573	-0.05289
0.04670	0.43176
0.42922	-0.10391
-0.10631	-0.10391
-0.18282	-0.02739
-0.23382	0.04914
-0.02981	0.30422
0.17421	-0.18043
0.17421	-2.22105
0.22521	-0.07840
-0.00431	1.04394
0.32721	1.37554
0.14870	1.06945
0.22521	0.32972
0.12320	0.81437
-0.00431	-1.22625
0.14870	0.53379
0.04670	1.52859
0.25071	-2.27207
0.40372	-0.00188
0.25071	1.75816
0.48022	-0.10391
0.27621	0.20219
0.45472	-0.46102
-0.28482	-0.51203
-0.46334	1.01843
-0.18282	-0.25695
-0.08081	0.86539
0.42922	0.45726
0.53123	0.15117
0.55673	-1.30277
0.53123	0.25320
0.27621	1.06945
0.02119	0.63582
-0.00431	-0.51203
0.04670	0.22769
0.14870	0.25320
-0.02981	-0.71609
0.17421	0.76336
-0.20832	1.75816
-0.64185	-0.38449
-0.51434	-0.94566
0.14870	-0.05289
0.53123	0.61031
0.78624	0.38074
0.65874	0.32972
0.42922	-0.86914
0.02119	0.25320
0.14870	0.63582
0.19971	-0.25695
0.04670	1.55410
0.35272	-1.09871
0.17421	1.12046
0.40372	-0.51203
0.17421	-2.75671
-0.31033	1.60511
0.22521	3.26312
-0.02981	1.35003
0.07220	-0.81812
0.35272	-0.58856
0.40372	-0.33348
-0.46334	-0.66508
-0.84586	0.89089
-0.05531	-0.35899
1.01576	-0.07840
1.34728	0.15117
0.68424	-0.23145
-0.02981	0.58480
-0.23382	-1.60887
0.25071	1.01843
0.22521	0.94191
0.07220	0.86539
0.04670	-0.00188
-0.38683	-0.30797
0.07220	-0.25695
0.27621	0.25320
0.32721	0.76336
0.04670	-0.25695
-0.05531	1.37554
-0.00431	-0.33348
0.35272	-0.10391
0.07220	-0.38449
0.22521	0.32972
0.19971	0.15117
0.12320	0.61031
0.25071	0.27871
0.22521	-0.15492
0.04670	0.12566
-0.08081	0.10015
0.32721	-0.79262
0.35272	-0.23145
0.04670	1.01843
-0.08081	1.98773
0.30171	-1.40480
0.70974	-0.02739
0.12320	0.81437
-0.05531	0.25320
0.22521	0.02363
0.17421	0.83988
0.42922	0.45726
0.40372	-0.41000
-0.20832	-0.92016
-0.64185	0.48277
-0.18282	1.70714
0.45472	0.38074
0.70974	0.89089
0.53123	-1.04770
-0.18282	-0.89465
-0.38683	1.09496
0.17421	0.91640
0.19971	-0.35899
0.63323	-0.99668
0.42922	-0.25695
0.12320	0.17668
-0.10631	1.09496
-0.28482	-0.46102
0.04670	0.86539
0.35272	0.45726
0.25071	-2.57816
0.37822	1.32453
0.17421	0.81437
0.12320	0.32972
0.37822	0.76336
-0.00431	0.04914
0.14870	0.04914
0.27621	-1.94047
0.22521	0.50828
-0.10631	1.96222
0.04670	-0.30797
-0.28482	0.91640
-0.08081	-0.79262
-0.08081	-0.02739
-0.13181	-0.28246
0.48022	0.68683
0.96476	0.86539
0.91375	0.81437
0.48022	-0.02739
0.53123	-0.02739
-0.28482	-0.61406
-0.28482	0.45726
0.19971	-0.02739
0.27621	1.22250
-0.48884	0.12566
-0.33583	-1.88945
0.04670	0.55929
0.42922	0.35523
0.45472	0.10015
0.14870	0.55929
0.14870	0.15117
0.07220	-0.25695
0.32721	-0.56305
-0.02981	1.37554
-0.02981	1.32453
0.27621	-0.02739
0.60773	-1.09871
0.42922	1.17148
0.55673	-1.12422
0.37822	1.04394
0.25071	0.63582
-0.13181	0.55929
-0.23382	-0.23145
-0.05531	0.53379
-0.13181	0.17668
-0.28482	-0.35899
0.07220	-0.51203
-0.00431	0.48277
0.30171	-0.46102
0.60773	0.55929
0.35272	-1.25176
0.30171	1.01843
-0.20832	1.06945
-0.84586	0.15117
-0.31033	-0.99668
0.96476	0.15117
1.11776	1.35003
0.78624	0.48277
0.37822	0.76336
0.27621	0.76336
-0.36133	-0.76711
-0.13181	-0.99668
0.17421	-0.12942
0.09770	-0.02739
-0.00431	0.73785
-0.31033	-0.41000
-0.05531	0.30422
0.07220	0.07465
0.17421	0.20219
0.35272	1.19699
0.27621	0.96742
0.09770	-0.92016
0.02119	1.29902
0.07220	-1.45582
0.30171	-0.33348
0.35272	-0.33348
0.40372	1.45206
0.19971	1.14597
0.17421	-0.10391
0.30171	0.12566
-0.05531	0.17668
-0.05531	-0.00188
-0.36133	0.73785
0.50573	-0.53754
0.50573	0.02363
-0.00431	-0.20594
-0.38683	-0.20594
-0.33583	-0.25695
0.12320	0.83988
0.30171	0.58480
0.63323	0.25320
0.73524	-1.58336
0.37822	0.66132
0.19971	1.12046
0.04670	-0.02739
0.37822	0.94191
0.19971	0.81437
-0.13181	0.12566
-0.10631	-0.48652
0.02119	0.96742
-0.48884	-1.30277
-0.15732	0.63582
0.04670	0.10015
0.27621	0.53379
0.04670	-0.05289
0.12320	-0.48652
0.48022	-0.20594
0.48022	-0.46102
0.25071	1.32453
0.09770	1.04394
0.27621	-0.33348
0.19971	-0.74160
0.17421	-0.92016
0.02119	0.76336
0.14870	1.22250
0.32721	0.91640
0.30171	-0.33348
0.30171	0.25320
0.27621	0.73785
0.53123	-0.20594
0.22521	0.32972
-0.31033	-0.07840
-0.23382	0.25320
0.17421	-0.43551
0.32721	0.22769
0.09770	0.22769
0.50573	-0.30797
0.42922	0.45726
0.55673	0.45726
0.19971	0.12566
0.04670	-0.61406
-0.43783	-0.35899
-0.25932	0.53379
-0.23382	0.20219
-0.28482	0.68683
0.09770	-1.17523
0.45472	0.76336
0.58223	0.22769
0.76074	0.83988
0.48022	0.99292
0.17421	1.17148
-0.20832	-0.79262
-0.43783	-0.74160
0.07220	-0.63957
0.48022	-1.02219
0.32721	0.89089
0.12320	2.31933
0.27621	-0.61406
0.25071	1.37554
-0.00431	-1.50683
0.02119	-0.84363
-0.08081	0.55929
-0.38683	1.57960
-0.08081	0.15117
-0.08081	-0.02739
0.14870	0.10015
0.60773	-0.05289
0.63323	-0.23145
0.14870	0.68683
0.22521	0.02363
0.32721	0.40625
0.17421	-1.48133
-0.13181	-1.20074
-0.08081	1.93671
-0.02981	1.09496
0.19971	-0.35899
0.45472	0.12566
0.40372	0.35523
-0.05531	0.73785
0.17421	0.30422
0.07220	0.32972
0.09770	0.76336
0.30171	-0.46102
-0.20832	-0.43551
-0.10631	0.76336
-0.61635	-0.41000
0.22521	0.32972
0.60773	-1.09871
0.63323	0.04914
0.45472	-0.25695
0.58223	1.40105
0.50573	0.83988
0.07220	0.61031
-0.20832	0.22769
-0.31033	0.27871
-0.02981	0.61031
0.27621	-0.25695
0.17421	-0.38449
-0.08081	-0.25695
-0.15732	0.17668
0.17421	-0.61406
0.42922	0.22769
0.22521	0.27871
0.48022	1.19699
0.27621	1.73265
0.14870	0.50828
0.02119	0.10015
0.04670	-1.63437
0.09770	0.10015
0.19971	0.40625
0.37822	0.45726
0.53123	-1.88945
-0.00431	0.02363
-0.28482	0.68683
-0.25932	0.25320
0.17421	0.12566
0.53123	1.29902
0.55673	0.55929
0.09770	0.22769
0.22521	0.35523
-0.02981	-0.05289
0.07220	-0.10391
-0.15732	-0.53754
0.22521	0.50828
0.12320	-1.20074
-0.31033	0.40625
0.19971	0.99292
0.12320	-0.20594
0.02119	0.17668
0.04670	-0.61406
0.32721	0.48277
0.32721	-0.12942
0.40372	2.08976
0.30171	1.12046
0.19971	-0.05289
0.12320	-1.83844
0.14870	0.53379
0.14870	1.24800
0.02119	0.50828
-0.02981	0.50828
0.14870	-1.25176
0.14870	1.57960
0.53123	-1.27726
0.40372	-0.15492
0.09770	0.43176
-0.10631	0.45726
0.40372	0.12566
0.55673	1.24800
0.02119	-1.17523
-0.41233	0.15117
-0.53984	1.14597
0.40372	-0.07840
0.48022	0.81437
0.27621	-0.58856
0.04670	-2.11902
-0.25932	-1.09871
-0.02981	0.35523
0.37822	1.47757
0.14870	1.42656
0.42922	-0.18043
0.53123	0.86539
0.30171	-0.12942
0.37822	0.22769
0.22521	-0.99668
-0.31033	1.17148
-0.48884	-0.66508
-0.10631	0.35523
0.04670	1.27351
0.09770	-0.69059
0.30171	-0.25695
0.45472	0.68683
0.32721	-0.12942
0.25071	0.17668
0.17421	-0.99668
0.27621	0.04914
-0.13181	-0.15492
-0.13181	-0.00188
0.07220	1.17148
0.30171	-0.00188
0.04670	0.15117
0.25071	0.89089
1.04126	0.25320
0.42922	1.14597
-0.76936	-0.97117
-1.20288	-1.76191
-0.33583	0.48277
0.60773	0.04914
0.83725	1.91120
0.68424	1.55410
0.83725	-0.41000
0.73524	0.53379
0.19971	-0.46102
-0.15732	-0.97117
-0.23382	0.07465
-0.28482	0.73785
0.04670	-0.43551
-0.28482	0.71234
-0.33583	-1.27726
-0.25932	-0.38449
0.42922	-0.07840
0.35272	1.57960
0.37822	1.37554
0.32721	-1.02219
0.25071	1.63062
0.12320	-0.46102
0.40372	0.99292
0.45472	-1.78742
0.55673	0.15117
0.25071	0.61031
0.02119	0.99292
0.25071	0.35523
0.22521	-1.17523
-0.31033	-0.23145
-0.02981	0.10015
