0.25071	0.22769
0.14870	0.25320
0.12320	0.15117
0.09770	0.12566
0.17421	0.10015
0.14870	0.02363
0.22521	0.25320
0.17421	0.07465
0.12320	0.15117
0.12320	0.02363
0.09770	0.15117
0.07220	0.15117
0.17421	0.30422
0.22521	0.25320
0.17421	0.25320
0.22521	0.10015
0.12320	0.07465
0.07220	0.12566
0.12320	-0.05289
0.14870	0.12566
0.17421	0.20219
0.19971	0.17668
0.22521	0.27871
0.17421	0.15117
0.17421	0.12566
0.07220	0.04914
0.12320	0.15117
0.17421	0.22769
0.12320	0.15117
0.07220	0.10015
0.14870	0.10015
0.25071	0.12566
0.17421	0.10015
0.07220	0.17668
0.22521	0.22769
0.17421	0.17668
0.14870	0.07465
0.07220	0.10015
0.12320	0.15117
0.12320	0.25320
0.22521	0.12566
0.14870	0.04914
0.12320	0.20219
0.22521	0.22769
0.14870	0.17668
0.09770	0.10015
0.09770	0.15117
0.12320	0.15117
0.19971	0.17668
0.17421	0.17668
0.12320	0.15117
0.07220	0.04914
0.14870	0.10015
0.27621	0.25320
0.17421	0.07465
0.09770	0.10015
0.12320	0.17668
0.17421	0.20219
0.12320	0.17668
0.12320	-0.02739
0.17421	0.22769
0.14870	0.20219
0.12320	0.12566
0.14870	0.12566
0.22521	0.27871
0.12320	0.10015
0.09770	0.12566
0.09770	0.12566
0.19971	0.20219
0.14870	0.10015
0.09770	0.12566
0.14870	0.25320
0.22521	0.12566
0.17421	0.10015
0.12320	0.17668
0.12320	0.15117
0.17421	0.12566
0.12320	0.22769
0.07220	0.15117
0.09770	0.15117
0.14870	0.20219
0.22521	0.10015
0.19971	0.12566
0.09770	0.20219
0.17421	0.15117
0.19971	0.22769
0.17421	0.12566
0.04670	0.12566
0.04670	0.02363
0.14870	0.07465
0.19971	0.22769
0.19971	0.22769
0.19971	0.15117
0.19971	0.15117
0.09770	0.17668
0.14870	0.12566
0.12320	0.17668
0.17421	0.22769
0.19971	0.10015
0.25071	0.15117
0.14870	0.10015
0.14870	0.04914
0.09770	0.10015
0.17421	0.12566
0.17421	0.17668
0.12320	0.25320
0.14870	0.25320
0.12320	0.20219
0.12320	0.17668
0.12320	0.20219
0.12320	0.20219
0.14870	0.15117
0.09770	0.12566
0.14870	0.17668
0.17421	0.25320
0.17421	0.17668
0.14870	-0.10391
0.14870	0.10015
0.07220	0.15117
0.14870	0.22769
0.19971	0.25320
0.22521	0.20219
0.14870	0.22769
0.17421	0.20219
0.17421	0.04914
0.14870	0.07465
0.12320	0.15117
0.09770	0.15117
0.04670	0.17668
0.09770	0.12566
0.09770	0.12566
0.14870	0.17668
0.22521	0.22769
0.22521	0.17668
0.14870	0.12566
0.07220	0.12566
0.07220	0.10015
0.14870	0.12566
0.19971	0.22769
0.22521	0.22769
0.19971	0.07465
0.14870	0.10015
0.17421	0.17668
0.19971	0.10015
0.07220	0.04914
0.07220	0.10015
0.09770	0.12566
0.12320	0.15117
0.12320	0.17668
0.19971	0.22769
0.22521	0.20219
0.22521	0.12566
0.17421	0.04914
0.09770	0.12566
0.07220	0.17668
0.07220	0.17668
0.14870	0.20219
0.12320	0.12566
0.17421	0.15117
0.19971	0.25320
0.17421	0.20219
0.19971	0.12566
0.22521	0.15117
0.12320	0.15117
0.09770	0.12566
0.07220	0.15117
0.09770	0.15117
0.12320	0.12566
0.17421	0.07465
0.17421	0.20219
0.22521	0.17668
0.17421	0.22769
0.17421	0.25320
0.19971	0.20219
0.17421	0.15117
0.14870	0.25320
0.12320	0.15117
0.12320	0.17668
0.04670	-0.00188
0.12320	0.04914
0.14870	0.10015
0.14870	0.25320
0.22521	0.20219
0.22521	0.15117
0.17421	0.15117
0.17421	0.07465
0.07220	0.10015
0.04670	0.07465
0.19971	0.12566
0.19971	0.25320
0.14870	0.20219
0.09770	0.02363
0.14870	0.12566
0.12320	0.20219
0.22521	0.20219
0.14870	0.15117
0.09770	0.15117
0.07220	0.04914
0.14870	0.02363
0.14870	0.10015
0.14870	0.25320
0.22521	0.15117
0.14870	0.15117
0.12320	0.17668
0.14870	0.15117
0.19971	0.25320
0.22521	0.07465
0.12320	0.10015
0.07220	0.12566
0.12320	0.20219
0.14870	0.12566
0.19971	0.20219
0.25071	0.25320
0.14870	0.15117
0.14870	0.10015
0.12320	0.15117
0.09770	0.07465
0.07220	0.04914
0.12320	0.04914
0.17421	0.15117
0.12320	0.22769
0.12320	0.22769
0.25071	0.25320
0.25071	0.15117
0.22521	0.12566
0.14870	0.02363
0.14870	0.07465
0.07220	0.04914
0.09770	0.07465
0.12320	0.17668
0.14870	0.12566
0.19971	0.30422
0.17421	0.25320
0.17421	0.17668
0.12320	0.12566
0.04670	0.15117
0.09770	0.10015
0.09770	0.04914
0.12320	0.04914
0.19971	0.17668
0.19971	0.20219
0.22521	0.25320
0.17421	0.20219
0.19971	0.20219
0.14870	0.15117
0.09770	0.02363
0.07220	0.02363
0.14870	0.02363
0.12320	0.12566
0.22521	0.15117
0.22521	0.20219
0.19971	0.15117
0.22521	0.25320
0.22521	0.25320
0.17421	0.17668
0.12320	0.20219
0.12320	0.15117
0.07220	0.07465
0.07220	0.04914
0.07220	0.15117
0.12320	0.17668
0.14870	0.17668
0.14870	0.22769
0.22521	0.12566
0.25071	0.20219
0.22521	0.12566
0.14870	0.12566
0.12320	0.02363
0.12320	0.04914
0.12320	0.12566
0.09770	0.10015
0.14870	0.07465
0.17421	0.17668
0.17421	0.15117
0.12320	0.17668
0.14870	0.22769
0.14870	0.07465
0.12320	0.15117
0.09770	0.10015
0.09770	0.07465
0.17421	0.17668
0.17421	0.15117
0.19971	0.25320
0.22521	0.30422
0.22521	0.17668
0.22521	0.12566
0.14870	0.25320
0.12320	0.20219
0.07220	0.12566
0.09770	-0.00188
0.14870	0.10015
0.22521	0.12566
0.22521	0.22769
0.27621	0.20219
0.22521	0.20219
0.12320	0.04914
0.07220	0.17668
0.12320	0.07465
0.12320	0.15117
0.17421	0.15117
0.22521	0.22769
0.17421	0.25320
0.17421	0.12566
0.17421	0.07465
0.14870	0.15117
0.07220	0.07465
0.07220	0.10015
0.12320	0.17668
0.19971	0.02363
0.22521	0.22769
0.17421	0.20219
0.12320	0.12566
0.17421	0.07465
0.19971	0.12566
0.09770	0.17668
0.12320	0.17668
0.14870	0.10015
0.19971	0.20219
0.17421	0.22769
0.14870	0.10015
0.14870	0.10015
0.07220	0.12566
0.09770	0.12566
0.17421	0.15117
0.14870	0.15117
0.12320	0.15117
0.22521	0.15117
0.12320	0.04914
0.09770	0.02363
0.17421	0.17668
0.22521	0.12566
0.12320	0.07465
0.04670	0.17668
0.17421	0.25320
0.14870	0.20219
0.12320	0.15117
0.09770	0.10015
0.07220	0.15117
0.14870	0.12566
0.14870	0.20219
0.12320	0.15117
0.22521	0.15117
0.12320	0.15117
0.17421	0.10015
0.09770	0.15117
0.07220	0.15117
0.12320	0.25320
0.19971	0.17668
0.19971	0.20219
0.14870	0.22769
0.14870	0.20219
0.14870	0.15117
0.12320	0.12566
0.19971	-0.00188
0.14870	0.17668
0.19971	0.25320
0.22521	0.20219
0.19971	0.12566
0.09770	0.10015
0.07220	0.07465
0.09770	0.12566
0.17421	0.20219
0.17421	0.25320
0.14870	0.17668
0.09770	0.07465
0.12320	0.07465
0.12320	0.17668
0.17421	0.20219
0.14870	0.10015
0.07220	0.20219
0.09770	0.04914
0.14870	0.17668
0.22521	0.25320
0.17421	0.15117
0.09770	0.02363
0.14870	0.15117
0.12320	0.12566
0.17421	0.15117
0.17421	0.22769
0.12320	0.22769
0.19971	0.17668
0.17421	0.20219
0.09770	0.10015
0.12320	0.10015
0.14870	0.12566
0.14870	0.17668
0.12320	0.20219
0.19971	0.12566
0.17421	0.07465
0.17421	0.10015
0.12320	0.15117
0.12320	0.15117
0.17421	0.25320
0.22521	0.17668
0.17421	0.07465
0.14870	0.10015
0.07220	0.20219
0.04670	0.10015
0.12320	0.25320
0.19971	0.12566
0.12320	0.15117
0.04670	0.12566
0.19971	0.17668
0.25071	0.25320
0.22521	0.22769
0.19971	0.15117
0.12320	0.10015
0.07220	0.10015
0.04670	0.15117
0.14870	0.22769
0.22521	0.10015
0.12320	0.17668
0.17421	0.10015
0.17421	0.15117
0.19971	0.20219
0.22521	0.15117
0.12320	0.04914
0.12320	0.07465
0.07220	0.10015
0.14870	0.20219
0.14870	0.25320
0.22521	0.15117
0.17421	0.17668
0.12320	0.07465
0.09770	0.12566
0.12320	0.10015
0.19971	0.10015
0.17421	0.22769
0.12320	0.10015
0.09770	0.12566
0.09770	0.15117
0.14870	0.20219
0.19971	0.22769
0.17421	0.20219
0.22521	0.10015
0.14870	0.20219
0.07220	0.15117
0.12320	0.12566
0.19971	0.15117
0.14870	0.10015
0.09770	0.12566
0.14870	0.17668
0.22521	0.25320
0.17421	0.17668
0.12320	0.04914
0.17421	0.12566
0.19971	0.22769
0.19971	0.15117
0.12320	0.07465
0.09770	0.17668
0.07220	0.15117
0.14870	0.22769
0.22521	0.15117
0.14870	0.17668
0.17421	0.04914
0.07220	0.15117
0.12320	0.20219
0.09770	0.20219
0.17421	0.17668
0.19971	0.10015
0.17421	0.10015
0.09770	0.12566
0.09770	0.17668
0.17421	0.25320
0.14870	0.27871
0.22521	0.17668
0.19971	0.15117
0.12320	0.04914
0.04670	0.12566
0.12320	0.22769
0.14870	0.15117
0.19971	0.15117
0.12320	0.15117
0.17421	0.17668
0.14870	0.15117
0.19971	0.20219
0.14870	0.10015
0.09770	0.02363
0.12320	0.04914
0.14870	0.15117
0.22521	0.20219
0.09770	0.10015
0.17421	0.17668
0.22521	0.27871
0.14870	0.10015
0.07220	0.15117
0.14870	0.22769
0.19971	0.10015
0.07220	0.04914
0.12320	0.15117
0.19971	0.12566
0.14870	0.15117
0.17421	0.10015
0.09770	0.20219
0.12320	0.25320
0.19971	0.15117
0.14870	0.20219
0.07220	0.04914
0.09770	0.02363
0.12320	0.20219
0.25071	0.17668
0.22521	0.15117
0.14870	0.15117
0.17421	0.12566
0.07220	0.15117
0.07220	0.15117
0.14870	0.12566
0.22521	0.15117
0.22521	0.17668
0.14870	0.25320
0.12320	0.10015
0.09770	0.15117
0.09770	0.10015
0.17421	0.15117
0.12320	0.12566
0.17421	0.22769
0.22521	0.20219
0.19971	0.15117
0.12320	0.15117
0.09770	0.12566
0.12320	0.10015
0.09770	0.20219
0.14870	0.20219
0.17421	0.17668
0.19971	0.15117
0.12320	0.12566
0.07220	0.12566
0.09770	0.12566
0.04670	0.15117
0.14870	0.22769
0.12320	0.20219
0.19971	0.20219
0.17421	0.20219
0.09770	0.07465
0.09770	0.10015
0.12320	0.02363
0.12320	0.20219
0.17421	0.22769
0.14870	0.15117
0.14870	0.07465
0.07220	0.12566
0.14870	0.17668
0.27621	0.30422
0.22521	0.10015
0.25071	0.10015
0.22521	0.15117
0.14870	0.17668
0.12320	0.02363
0.12320	0.02363
0.12320	0.12566
0.14870	0.10015
0.12320	0.15117
0.09770	0.15117
0.17421	0.22769
0.19971	0.10015
0.12320	0.10015
0.14870	0.10015
0.04670	0.12566
0.17421	0.17668
0.17421	0.22769
0.22521	0.17668
0.22521	0.17668
0.22521	0.15117
0.17421	0.12566
0.07220	0.10015
0.17421	0.15117
0.14870	0.20219
0.19971	0.17668
0.19971	0.17668
0.19971	0.12566
0.17421	0.12566
0.09770	0.20219
0.17421	0.15117
0.14870	0.20219
0.25071	0.10015
0.09770	0.10015
0.09770	0.10015
0.07220	0.12566
0.04670	0.07465
0.12320	0.17668
0.12320	0.25320
0.22521	0.22769
0.22521	0.15117
0.17421	0.15117
0.12320	0.15117
0.07220	0.04914
0.07220	0.07465
0.12320	0.10015
0.14870	0.12566
0.14870	0.25320
0.14870	0.12566
0.22521	0.25320
0.17421	0.15117
0.19971	0.20219
0.12320	0.10015
0.12320	0.15117
0.12320	0.15117
0.17421	0.15117
0.12320	0.17668
0.14870	0.15117
0.09770	0.17668
0.07220	0.12566
0.17421	0.20219
0.27621	0.17668
0.22521	0.17668
0.19971	0.15117
0.14870	0.15117
0.12320	0.07465
0.12320	0.02363
0.09770	0.07465
0.09770	0.20219
0.12320	0.15117
0.17421	0.25320
0.19971	0.27871
0.25071	0.20219
0.09770	0.17668
0.17421	0.10015
0.04670	0.07465
0.12320	0.12566
0.22521	0.15117
0.12320	0.17668
0.09770	0.10015
0.19971	0.10015
0.19971	0.15117
0.22521	0.25320
0.12320	0.12566
0.07220	0.12566
0.12320	0.07465
0.04670	0.12566
0.12320	0.15117
0.14870	0.15117
0.19971	0.22769
0.27621	0.30422
0.17421	0.07465
0.12320	0.12566
0.14870	0.15117
0.19971	0.20219
0.12320	0.12566
0.07220	0.17668
0.07220	-0.00188
0.09770	0.20219
0.17421	0.17668
0.17421	0.25320
0.19971	0.17668
0.12320	0.07465
0.07220	0.12566
0.14870	0.15117
0.22521	0.12566
0.17421	0.20219
0.14870	0.12566
0.04670	0.20219
0.07220	0.12566
0.22521	0.22769
0.22521	0.22769
0.17421	0.15117
0.12320	0.20219
0.07220	0.15117
0.12320	0.04914
0.12320	0.10015
0.19971	0.20219
0.17421	0.22769
0.12320	0.15117
0.17421	0.10015
0.17421	0.07465
0.07220	0.12566
0.17421	0.20219
0.22521	0.20219
0.19971	0.22769
0.17421	0.20219
0.14870	0.22769
0.14870	0.12566
0.12320	0.15117
0.12320	0.04914
0.12320	0.12566
0.07220	0.04914
0.12320	0.10015
0.17421	0.15117
0.19971	0.22769
0.19971	0.20219
0.19971	0.20219
0.22521	0.12566
0.22521	0.20219
0.14870	0.30422
0.19971	0.20219
0.12320	0.12566
0.12320	0.17668
0.14870	0.12566
0.07220	0.15117
0.04670	0.15117
0.12320	0.15117
0.14870	0.17668
0.14870	0.20219
0.14870	0.15117
0.25071	0.20219
0.25071	0.10015
0.17421	0.15117
0.19971	0.17668
0.17421	0.12566
0.19971	0.12566
0.19971	0.15117
0.19971	0.15117
0.19971	0.15117
0.22521	0.15117
0.17421	0.20219
0.17421	0.15117
0.12320	0.17668
0.12320	0.07465
0.07220	0.04914
0.12320	0.10015
0.14870	0.20219
0.14870	0.15117
0.22521	0.15117
0.25071	0.25320
0.17421	0.25320
0.14870	0.15117
0.12320	0.15117
0.09770	0.07465
0.07220	0.07465
0.04670	0.07465
0.14870	0.20219
0.14870	0.12566
0.22521	0.20219
0.25071	0.22769
0.17421	0.15117
0.09770	0.12566
0.09770	0.02363
0.07220	0.12566
0.14870	0.15117
0.02119	0.10015
0.12320	0.12566
0.12320	0.17668
0.14870	0.20219
0.14870	0.25320
0.17421	0.22769
0.22521	0.25320
0.17421	0.22769
0.25071	0.17668
0.17421	0.10015
0.14870	0.02363
0.14870	0.04914
0.17421	0.17668
0.09770	0.10015
0.12320	0.10015
0.19971	-0.02739
0.14870	0.17668
0.09770	0.10015
0.12320	0.17668
0.19971	0.27871
0.19971	0.22769
0.14870	0.22769
0.14870	-0.30797
0.07220	-0.05289
0.12320	0.43176
0.14870	0.32972
0.27621	0.38074
0.22521	0.32972
0.14870	0.40625
0.14870	0.25320
0.09770	0.15117
0.14870	-0.56305
-0.00431	-0.07840
0.09770	-1.02219
0.09770	0.38074
0.14870	0.55929
0.22521	1.47757
0.22521	-0.48652
0.30171	0.53379
0.14870	0.73785
0.12320	0.17668
0.07220	-0.15492
0.19971	0.53379
-0.05531	0.20219
-0.18282	0.73785
-0.15732	-1.68539
0.09770	-0.38449
0.53123	0.30422
0.42922	-0.56305
0.22521	3.49268
0.22521	-2.45062
0.42922	1.37554
0.02119	-0.94566
-0.36133	0.17668
-0.36133	4.10487
0.14870	-0.92016
0.27621	-3.26687
0.73524	1.96222
0.73524	0.76336
0.53123	0.10015
0.30171	1.24800
-0.18282	2.16628
-0.59084	-2.11902
-0.08081	-0.71609
0.22521	-3.82804
0.14870	-0.99668
0.53123	4.02835
0.12320	2.39585
0.22521	1.29902
0.17421	-2.50164
-0.18282	1.86019
0.17421	-4.13413
0.91375	1.50308
0.07220	4.48749
-0.53984	-0.74160
0.14870	-2.39961
0.12320	1.65613
-0.02981	-0.97117
-0.15732	2.65093
0.27621	1.01843
1.04126	-0.25695
0.93925	-0.12942
1.21977	-0.38449
1.75531	-2.04250
-0.18282	-2.29757
-3.24301	-0.66508
-2.45246	1.14597
0.32721	3.11007
0.76074	2.21730
2.16333	-1.30277
2.11233	-0.25695
1.37278	2.08976
-0.05531	-4.74632
-1.40690	-2.57816
-1.25389	2.77847
-0.48884	1.96222
0.50573	2.65093
0.68424	2.08976
0.81175	-0.66508
0.22521	-2.32308
-0.71835	-2.50164
-0.87136	0.96742
-0.36133	1.17148
0.60773	-0.10391
1.24527	0.12566
0.81175	0.63582
0.91375	1.63062
-0.79486	-0.20594
-1.15188	-1.14973
-0.08081	-1.99148
0.73524	-4.18515
-0.31033	2.19179
-0.38683	3.00804
0.37822	2.54890
0.55673	3.00804
1.32178	0.32972
2.08683	0.63582
1.83181	-0.46102
1.39828	-0.46102
-0.82036	-0.30797
-2.57997	-1.12422
-1.20288	-0.25695
-0.28482	-1.55785
0.32721	-0.86914
0.78624	1.88570
0.48022	0.38074
0.60773	-3.03730
-0.05531	-1.25176
-0.18282	3.00804
-0.59084	2.29382
0.02119	-0.33348
0.63323	0.94191
0.88825	0.63582
0.40372	0.78886
-0.13181	-0.48652
-0.66735	-0.53754
-0.05531	-1.50683
0.35272	0.81437
-0.00431	0.66132
-0.38683	-1.04770
-0.31033	-1.30277
0.68424	0.66132
1.39828	1.83468
1.14327	1.75816
0.45472	-0.51203
0.32721	0.68683
-0.00431	-0.30797
0.32721	0.83988
0.04670	-1.32828
-0.08081	-0.00188
-0.43783	-0.35899
-0.53984	-1.30277
-0.25932	0.45726
-0.05531	-0.48652
0.04670	0.94191
0.48022	0.71234
-0.02981	0.86539
0.45472	-0.41000
-0.00431	1.32453
-0.08081	0.25320
0.48022	-1.65988
-0.08081	0.76336
-0.02981	-0.99668
0.35272	-0.28246
0.60773	1.83468
0.32721	-0.28246
0.63323	0.43176
1.14327	1.40105
0.78624	-0.63957
0.40372	-0.71609
0.07220	0.45726
-0.33583	0.50828
-0.41233	-0.99668
-0.20832	1.17148
-0.25932	1.93671
-0.08081	-1.58336
0.14870	-0.76711
-0.38683	-0.35899
-1.20288	-1.25176
-0.82036	0.99292
-0.13181	0.15117
0.55673	1.04394
1.14327	1.17148
1.29628	1.06945
0.96476	0.78886
0.65874	0.15117
0.35272	-0.56305
0.12320	0.20219
0.14870	-0.02739
-0.05531	-0.43551
0.09770	-1.48133
-0.38683	1.09496
-0.74385	-1.94047
-0.08081	-0.28246
0.12320	0.63582
0.55673	0.63582
-0.00431	-0.07840
-1.35589	1.01843
-0.18282	0.89089
0.65874	1.01843
0.60773	0.30422
1.21977	-1.17523
1.29628	1.98773
1.04126	-1.32828
0.58223	0.50828
0.27621	0.45726
0.12320	0.07465
-0.79486	-1.12422
-1.66191	0.02363
-0.89686	0.27871
-0.18282	0.38074
0.40372	0.76336
0.68424	-0.53754
0.65874	1.22250
0.32721	0.50828
0.45472	-0.10391
0.30171	1.40105
-0.10631	-1.48133
-0.05531	0.58480
-0.18282	0.25320
0.27621	-0.61406
0.45472	0.02363
0.19971	0.50828
0.12320	2.65093
0.30171	-1.20074
0.50573	-1.09871
0.14870	0.30422
-0.28482	0.66132
-0.08081	0.86539
0.25071	-0.28246
-0.00431	0.58480
0.12320	-0.05289
0.17421	0.07465
0.55673	-1.17523
0.25071	-0.86914
0.19971	0.91640
-0.08081	-0.81812
0.50573	1.93671
-0.20832	-0.43551
-0.10631	-0.28246
0.50573	0.55929
0.50573	-0.86914
0.30171	0.04914
-0.46334	1.24800
-0.74385	0.73785
0.37822	0.61031
1.21977	1.29902
0.81175	-0.66508
0.27621	-0.81812
-0.15732	-0.07840
0.19971	-0.38449
0.17421	0.30422
0.12320	0.73785
0.12320	0.20219
-0.05531	-0.02739
-0.18282	1.17148
-0.08081	1.35003
-0.61635	0.17668
0.14870	-3.62398
0.30171	0.55929
0.37822	1.70714
0.48022	0.73785
0.40372	-1.20074
0.32721	-1.50683
0.27621	1.37554
0.27621	0.45726
0.22521	0.15117
0.25071	0.07465
0.09770	1.27351
-0.08081	1.01843
-0.13181	-0.61406
-0.15732	-0.66508
0.17421	2.85499
0.17421	-0.15492
0.35272	-2.24656
0.48022	0.94191
0.14870	-0.20594
0.30171	0.61031
-0.28482	0.20219
-0.51434	-1.78742
0.12320	-0.76711
1.01576	0.71234
0.86275	0.91640
0.35272	0.73785
-0.28482	1.19699
-0.36133	-0.30797
0.86275	-0.35899
0.83725	0.10015
-0.20832	0.76336
-1.63641	-0.41000
-2.29945	1.78367
-0.25932	-1.86394
1.29628	0.68683
1.55129	-0.97117
1.39828	-1.02219
0.73524	1.32453
0.50573	-0.35899
-0.05531	-0.53754
-0.18282	1.88570
-0.20832	0.94191
-0.36133	-0.28246
-0.46334	0.30422
-0.18282	0.96742
-0.00431	-0.63957
0.07220	-0.23145
0.19971	-1.68539
0.37822	0.48277
0.48022	0.38074
0.37822	-0.69059
-0.00431	1.01843
-0.02981	0.48277
-0.23382	0.10015
0.68424	0.71234
0.63323	-0.00188
0.07220	0.22769
-0.84586	-0.86914
0.25071	-0.46102
1.24527	1.14597
0.88825	0.68683
0.53123	0.55929
0.14870	-0.25695
-0.31033	1.04394
-0.31033	-1.73640
-0.66735	-0.51203
-0.10631	0.45726
0.42922	0.43176
0.73524	0.17668
0.63323	0.17668
0.19971	-1.04770
-0.31033	1.29902
0.12320	0.91640
0.32721	-0.12942
0.09770	-1.25176
-0.74385	1.65613
-0.76936	0.12566
0.32721	0.78886
0.78624	-0.00188
0.58223	0.40625
0.50573	-0.15492
0.42922	0.20219
0.40372	0.20219
0.32721	-2.55265
-0.05531	-0.10391
0.02119	0.86539
-0.00431	1.06945
-0.10631	0.35523
0.02119	-0.18043
0.50573	0.76336
0.22521	0.63582
-0.48884	-0.58856
0.22521	-0.89465
0.22521	0.89089
0.50573	0.96742
0.88825	-0.28246
0.32721	0.04914
-0.10631	-0.25695
-0.41233	0.63582
0.12320	0.99292
0.22521	-1.99148
0.22521	-0.58856
-0.00431	1.06945
-0.02981	2.08976
-0.15732	0.04914
0.22521	0.17668
0.53123	0.94191
0.40372	-1.58336
0.22521	-0.28246
0.04670	-0.00188
-0.23382	0.35523
-0.00431	0.50828
0.07220	0.83988
0.12320	-2.04250
-0.28482	0.48277
-0.15732	0.25320
0.78624	0.71234
0.83725	1.52859
0.45472	-1.07320
0.02119	-0.12942
0.32721	0.71234
0.04670	0.04914
0.22521	0.35523
-0.33583	-0.41000
-1.45790	0.55929
-0.28482	0.07465
0.63323	0.58480
1.14327	-0.61406
1.06676	-0.25695
0.55673	0.89089
0.37822	-0.20594
-0.00431	0.50828
-0.64185	-0.61406
-0.41233	0.07465
-0.08081	0.73785
0.45472	0.20219
0.50573	-0.23145
-0.23382	-0.15492
-0.46334	0.12566
-0.23382	0.32972
0.35272	0.17668
0.53123	0.43176
0.45472	0.58480
0.37822	1.40105
0.09770	-0.46102
0.02119	-1.96597
-0.00431	-0.30797
0.09770	1.27351
0.17421	0.17668
0.30171	2.14077
0.27621	1.42656
-0.43783	-3.62398
-0.25932	-1.43031
-0.31033	0.66132
0.02119	1.27351
0.45472	1.40105
0.40372	-0.94566
0.19971	0.53379
0.25071	0.86539
0.37822	-0.53754
0.12320	0.15117
-0.13181	-0.10391
0.22521	0.25320
0.25071	-0.63957
0.02119	-0.76711
-0.56534	0.25320
0.02119	-0.10391
0.70974	0.86539
0.40372	0.27871
0.09770	0.78886
0.02119	0.86539
0.32721	0.71234
0.68424	-0.02739
0.50573	-0.99668
0.32721	0.43176
0.14870	0.89089
-0.36133	0.04914
-0.31033	-1.22625
-0.82036	1.37554
-0.43783	-0.18043
0.17421	0.15117
0.93925	0.81437
0.78624	-0.35899
0.19971	-0.43551
-0.02981	1.86019
0.12320	-0.69059
0.32721	0.63582
0.58223	-0.00188
0.27621	1.17148
0.17421	-0.12942
-0.05531	-0.05289
0.04670	-0.30797
0.02119	-0.35899
0.09770	-0.10391
0.12320	0.55929
0.09770	0.27871
-0.20832	0.35523
-0.33583	-0.10391
-0.28482	-0.28246
0.60773	-0.28246
0.88825	0.86539
0.65874	2.98253
-0.10631	-0.43551
-0.18282	-0.15492
0.02119	0.83988
0.30171	-0.97117
0.22521	-0.53754
0.37822	0.89089
0.42922	-1.20074
0.09770	1.63062
0.09770	-0.28246
-0.23382	-2.17003
0.04670	0.58480
0.27621	1.55410
0.09770	1.40105
0.07220	-0.48652
-0.28482	0.83988
0.25071	-1.76191
-0.31033	0.78886
-0.28482	1.42656
0.19971	-0.79262
0.42922	0.02363
0.83725	0.27871
0.86275	0.12566
0.30171	0.50828
0.09770	0.96742
-0.28482	-0.61406
0.22521	0.30422
0.27621	-0.74160
-0.02981	0.45726
0.02119	0.12566
-0.02981	0.40625
0.09770	0.43176
0.09770	0.76336
0.27621	0.04914
0.27621	1.70714
0.12320	-0.97117
0.27621	0.27871
-0.25932	0.61031
0.25071	-0.48652
0.09770	-0.58856
0.09770	0.86539
0.09770	-0.02739
-0.02981	0.86539
-0.05531	0.04914
0.09770	0.02363
0.32721	1.09496
0.50573	-2.22105
0.40372	0.76336
0.22521	0.76336
0.07220	1.17148
-0.08081	-2.39961
-0.13181	-0.25695
-0.18282	1.32453
-0.43783	-0.33348
0.30171	-0.41000
0.58223	0.61031
0.45472	2.19179
-0.53984	-2.27207
-0.36133	0.91640
0.40372	0.73785
0.32721	-0.46102
0.07220	-0.20594
-0.02981	0.63582
0.63323	0.53379
0.63323	0.45726
0.58223	0.07465
0.42922	0.15117
0.32721	-0.97117
0.12320	-0.05289
-0.08081	0.86539
-0.46334	0.76336
-0.36133	0.17668
-0.05531	-0.25695
0.50573	-0.05289
0.12320	0.94191
-0.43783	-0.15492
0.07220	0.38074
0.27621	-0.05289
0.73524	1.68163
0.37822	-1.45582
0.37822	0.94191
0.02119	-1.76191
-0.41233	0.66132
-0.15732	0.94191
-0.02981	-0.20594
0.63323	1.80917
0.55673	1.45206
0.14870	-0.89465
0.17421	-1.55785
0.27621	-0.58856
-0.02981	0.68683
-0.15732	0.81437
0.14870	0.25320
0.37822	-0.66508
0.12320	-0.00188
-0.00431	0.45726
-1.25389	1.06945
-0.76936	-0.71609
0.50573	-1.25176
0.73524	-1.50683
0.99026	1.09496
0.60773	0.07465
0.40372	1.19699
0.14870	0.96742
0.02119	-0.00188
0.25071	0.25320
0.22521	-0.66508
0.12320	1.35003
-0.00431	-0.43551
-0.18282	-0.35899
-0.48884	0.15117
-0.38683	-0.71609
0.17421	0.07465
0.58223	1.42656
0.91375	-0.05289
0.63323	0.27871
0.04670	-0.12942
0.12320	-1.32828
0.12320	-0.25695
-0.00431	0.53379
-0.15732	-0.58856
0.02119	2.59991
0.25071	-0.97117
0.37822	-0.25695
0.25071	1.50308
0.17421	-0.35899
-0.20832	1.14597
-0.25932	0.15117
0.07220	-0.61406
0.12320	-1.27726
0.22521	0.99292
0.37822	0.04914
0.22521	0.07465
-0.00431	0.30422
0.02119	0.55929
0.37822	0.78886
0.53123	0.30422
0.53123	-0.12942
0.02119	-0.51203
-0.13181	1.98773
-0.20832	1.04394
-0.48884	-3.41992
0.25071	-1.09871
0.35272	0.94191
0.17421	1.86019
0.63323	-0.00188
0.40372	0.81437
0.63323	0.43176
0.40372	-1.65988
0.17421	0.78886
-0.20832	0.68683
-0.43783	0.73785
0.19971	0.04914
0.14870	0.66132
0.19971	0.61031
-0.00431	-1.96597
0.07220	0.89089
0.27621	0.12566
0.27621	0.66132
-0.08081	-1.02219
-0.38683	0.02363
0.12320	0.83988
0.42922	-1.12422
0.60773	0.63582
0.30171	0.86539
0.09770	-0.92016
-0.00431	0.83988
0.19971	1.01843
0.12320	0.07465
0.14870	0.63582
0.22521	-0.61406
0.32721	0.15117
0.12320	1.01843
0.02119	2.42136
0.25071	-4.05761
0.35272	0.63582
0.40372	0.50828
0.07220	0.61031
-0.20832	0.58480
0.02119	-0.58856
-0.28482	0.20219
0.19971	-0.18043
0.12320	-0.89465
-0.00431	1.60511
0.04670	1.27351
-0.10631	-0.66508
0.09770	-0.28246
0.35272	0.25320
0.40372	0.55929
0.50573	-0.74160
0.27621	-1.76191
-0.00431	0.20219
-0.51434	0.45726
-0.20832	1.60511
0.09770	-0.10391
0.12320	0.66132
0.32721	0.40625
0.53123	0.53379
0.53123	0.20219
0.42922	0.45726
0.14870	-0.28246
-0.48884	-0.79262
-0.36133	0.43176
-0.15732	-0.38449
0.35272	0.61031
0.45472	0.86539
0.19971	-0.97117
0.02119	0.45726
-0.08081	0.63582
0.22521	-1.27726
0.07220	0.55929
0.09770	-2.06800
0.30171	1.04394
0.30171	0.99292
0.42922	1.29902
0.12320	0.32972
-0.25932	0.04914
-0.20832	-0.81812
-0.05531	0.89089
0.48022	-0.81812
0.09770	1.14597
0.02119	0.10015
0.17421	-0.25695
0.42922	0.43176
0.32721	-0.86914
0.14870	0.48277
0.22521	-0.51203
-0.10631	0.48277
-0.10631	0.55929
0.32721	1.24800
0.27621	-1.30277
0.30171	-0.63957
-0.02981	0.48277
0.07220	0.15117
-0.00431	0.17668
-0.13181	0.58480
0.17421	-1.14973
0.30171	1.12046
0.27621	0.58480
0.09770	0.40625
-0.36133	-0.94566
-0.36133	-0.12942
-0.08081	-0.51203
0.53123	1.17148
0.88825	1.75816
0.63323	-1.65988
0.12320	0.35523
0.17421	1.19699
0.02119	0.61031
-0.13181	0.45726
-0.48884	-2.29757
-0.23382	-1.02219
0.48022	1.09496
0.70974	1.37554
0.60773	2.67644
0.45472	-1.43031
0.17421	-1.17523
-0.00431	0.20219
0.07220	0.83988
-0.28482	-0.46102
-0.28482	-0.05289
-0.08081	-0.23145
0.14870	0.30422
0.30171	0.83988
0.27621	-0.92016
0.30171	0.25320
0.40372	0.45726
0.14870	1.06945
0.12320	0.40625
0.19971	-0.41000
0.27621	-0.15492
-0.00431	-0.58856
-0.51434	1.01843
-0.46334	-0.25695
0.48022	-0.15492
0.73524	1.37554
0.70974	0.86539
0.48022	-1.35379
0.17421	0.58480
-0.02981	0.48277
-0.05531	-0.46102
-0.20832	-0.46102
0.14870	0.07465
-0.15732	-0.10391
0.22521	-0.86914
0.76074	2.06425
0.48022	-0.07840
0.32721	-0.51203
0.04670	0.40625
0.07220	1.09496
-0.28482	0.12566
-0.15732	0.04914
0.04670	-1.76191
0.42922	0.53379
0.14870	1.42656
0.32721	0.99292
0.19971	-0.00188
0.02119	0.15117
-0.00431	-0.38449
0.42922	0.22769
0.32721	-0.25695
0.30171	0.10015
-0.25932	-0.84363
-0.05531	-0.23145
-0.05531	-0.63957
0.07220	-1.48133
0.17421	2.49788
0.02119	0.35523
0.42922	-0.07840
0.60773	0.89089
0.58223	-0.10391
0.19971	-0.00188
0.07220	0.48277
0.32721	0.48277
0.27621	-0.35899
-0.28482	-0.28246
-0.64185	0.50828
-0.33583	-1.40480
-0.10631	-0.07840
0.60773	0.66132
0.48022	1.57960
0.32721	0.53379
0.09770	0.68683
0.17421	-0.12942
0.48022	-0.10391
0.22521	0.22769
0.07220	1.06945
-0.13181	-0.33348
-0.31033	-1.35379
0.25071	-1.25176
0.42922	0.27871
0.42922	0.86539
0.25071	0.15117
-0.13181	-0.07840
-0.25932	0.81437
0.19971	1.12046
0.40372	-1.14973
0.48022	0.96742
0.22521	-0.63957
-0.48884	0.35523
0.14870	0.17668
0.53123	0.76336
0.48022	0.20219
-0.00431	-0.63957
-0.36133	-0.43551
-0.08081	-0.12942
0.48022	1.27351
0.76074	1.04394
-0.08081	-0.23145
0.22521	0.02363
-0.00431	-0.58856
-0.10631	0.91640
0.12320	-1.50683
0.25071	0.48277
0.50573	0.89089
0.12320	0.91640
0.27621	-1.63437
0.14870	0.66132
0.12320	0.78886
0.22521	-0.25695
0.07220	-0.10391
0.19971	0.25320
-0.10631	1.06945
-0.20832	-0.02739
0.25071	-0.94566
0.30171	-0.02739
0.12320	1.65613
-0.08081	-0.51203
0.12320	1.24800
0.55673	-0.84363
0.40372	-2.50164
0.12320	-0.02739
0.02119	1.52859
0.17421	1.27351
0.19971	0.76336
0.19971	-0.00188
0.07220	0.86539
0.07220	-0.43551
0.22521	-0.28246
-0.02981	-0.15492
0.04670	0.38074
0.30171	0.99292
0.02119	-0.28246
0.07220	-1.40480
-0.18282	-0.15492
0.14870	0.15117
0.32721	1.40105
0.40372	-0.20594
0.53123	-0.41000
0.37822	0.07465
0.30171	1.45206
0.12320	-0.05289
0.07220	-0.71609
-0.48884	1.75816
0.02119	0.27871
0.09770	0.07465
0.14870	-0.00188
0.07220	0.55929
0.14870	-1.83844
-0.10631	0.45726
0.30171	0.96742
0.48022	-0.33348
0.35272	0.15117
0.50573	0.30422
-0.10631	0.32972
-0.51434	-0.25695
-0.48884	-0.69059
-0.13181	1.27351
0.55673	0.35523
0.50573	-0.00188
0.58223	0.40625
0.60773	-1.25176
0.19971	1.19699
0.19971	0.35523
-0.20832	-0.63957
-0.18282	0.12566
0.17421	0.32972
0.25071	0.96742
0.22521	1.06945
-0.15732	-0.28246
-0.43783	-0.25695
-0.43783	-0.92016
0.48022	0.15117
0.81175	-0.35899
0.35272	0.25320
0.07220	0.12566
0.27621	1.57960
0.53123	0.81437
0.50573	-0.10391
-0.25932	0.25320
-0.46334	-1.96597
-0.61635	0.73785
-0.25932	0.45726
0.55673	2.03874
0.60773	-2.09351
0.81175	-1.30277
0.73524	0.71234
0.30171	1.12046
-0.10631	0.78886
-0.23382	0.73785
-0.46334	-1.22625
-0.36133	1.24800
0.19971	0.38074
0.32721	0.32972
0.27621	-1.04770
0.25071	0.04914
0.55673	0.61031
0.22521	-0.53754
-0.00431	0.10015
-0.05531	0.91640
0.27621	0.30422
0.22521	-0.20594
0.22521	0.38074
0.09770	-0.61406
0.02119	0.15117
0.30171	1.17148
0.14870	0.83988
0.12320	-2.80773
-0.28482	0.96742
0.04670	1.04394
0.30171	0.96742
0.40372	0.53379
0.02119	-0.07840
-0.02981	-0.28246
0.45472	-0.18043
0.22521	-0.76711
0.22521	0.22769
-0.48884	-0.15492
-0.23382	0.73785
0.02119	-1.37929
0.55673	-0.25695
0.63323	1.42656
0.48022	-0.25695
0.12320	0.66132
-0.08081	-0.38449
-0.13181	1.47757
-0.18282	-0.99668
0.19971	-0.94566
0.04670	-0.12942
-0.02981	1.55410
0.27621	0.12566
0.45472	0.55929
-0.02981	0.76336
0.17421	0.12566
-0.18282	-0.46102
0.32721	0.30422
0.48022	0.22769
0.55673	0.50828
0.14870	0.35523
-0.10631	-0.15492
-0.02981	-1.30277
0.09770	0.38074
0.09770	-0.15492
0.37822	-0.07840
0.35272	-0.12942
0.22521	1.17148
-0.53984	-0.51203
-0.61635	-0.66508
0.02119	1.70714
0.48022	-1.81293
0.48022	1.22250
0.42922	0.66132
0.42922	-1.25176
0.35272	0.20219
0.12320	1.37554
0.17421	-0.07840
-0.38683	-0.30797
-0.28482	0.43176
-0.05531	-0.28246
0.40372	0.45726
0.35272	0.12566
0.35272	-0.18043
0.27621	0.35523
0.19971	0.30422
0.19971	0.25320
0.17421	-0.00188
0.17421	-0.05289
0.07220	-0.18043
-0.20832	-0.53754
-0.05531	0.32972
0.27621	0.73785
0.14870	0.07465
0.32721	0.55929
0.22521	-1.53234
0.02119	-0.25695
0.32721	-0.20594
0.07220	2.85499
0.14870	1.14597
-0.00431	-0.89465
0.27621	1.01843
0.37822	-0.86914
0.37822	-2.09351
0.12320	0.68683
-0.08081	0.81437
0.07220	-0.20594
0.25071	-0.28246
0.32721	0.78886
0.14870	1.32453
0.04670	1.96222
-0.59084	0.22769
-0.20832	0.53379
0.35272	-2.22105
0.30171	-1.55785
0.30171	0.94191
0.55673	1.47757
0.70974	-0.46102
0.45472	0.86539
0.02119	-0.66508
-0.18282	0.68683
-0.18282	0.04914
0.19971	0.61031
0.27621	0.15117
0.14870	-0.25695
0.02119	-0.12942
-0.41233	0.17668
0.12320	0.25320
0.35272	0.71234
0.25071	-0.58856
0.27621	-0.74160
0.35272	0.15117
0.27621	0.63582
0.12320	1.60511
0.09770	-0.30797
0.04670	1.06945
0.25071	1.86019
0.14870	-0.84363
0.22521	0.25320
0.30171	-0.05289
0.30171	0.15117
0.22521	-0.25695
-0.05531	-0.97117
-0.20832	-0.25695
-0.18282	-1.02219
0.12320	0.43176
0.12320	0.58480
-0.38683	0.63582
-0.18282	0.32972
0.22521	0.53379
0.60773	0.02363
0.55673	1.01843
0.25071	-1.12422
-0.18282	0.12566
0.19971	1.17148
0.27621	0.32972
-0.02981	-0.38449
0.14870	1.12046
-0.02981	-0.89465
0.12320	-0.18043
0.19971	0.86539
0.27621	0.10015
0.17421	-1.32828
-0.05531	-0.74160
0.02119	-0.07840
-0.10631	1.37554
-0.28482	1.06945
-0.18282	1.17148
-0.02981	-0.86914
0.17421	-0.41000
0.32721	-0.18043
0.22521	-0.30797
0.32721	0.76336
0.53123	-0.84363
0.60773	1.29902
0.42922	0.20219
-0.18282	0.48277
-0.05531	-0.00188
0.25071	0.17668
-0.33583	-0.48652
-0.10631	-0.12942
0.22521	0.73785
0.48022	0.55929
0.48022	0.73785
0.37822	-0.20594
0.48022	-0.35899
0.40372	0.53379
0.02119	-1.14973
-0.46334	0.61031
-0.61635	0.63582
-0.31033	-0.15492
0.48022	-1.09871
0.60773	3.74776
0.30171	-4.08312
0.45472	0.07465
0.32721	1.50308
0.17421	1.22250
0.22521	-0.00188
-0.05531	0.76336
-0.15732	0.71234
0.07220	0.71234
0.22521	-0.76711
0.32721	-0.86914
-0.08081	0.83988
-0.13181	-0.12942
-0.02981	0.27871
0.12320	-0.02739
0.35272	-0.07840
0.37822	0.55929
0.14870	-0.00188
0.35272	-0.00188
0.30171	0.15117
-0.00431	0.89089
-0.36133	0.32972
-0.00431	-0.48652
0.30171	0.99292
0.37822	-0.63957
0.09770	0.32972
0.53123	0.94191
0.40372	1.04394
-0.10631	0.73785
-0.20832	0.96742
0.07220	-1.94047
0.42922	-0.66508
0.32721	0.45726
0.48022	0.48277
0.48022	0.58480
0.04670	0.22769
-0.31033	1.01843
-0.13181	-0.58856
-0.10631	-0.41000
0.12320	0.73785
-0.00431	-3.19035
0.30171	0.76336
0.50573	0.96742
0.25071	0.86539
0.32721	1.22250
0.09770	-0.66508
0.02119	-0.18043
0.25071	0.40625
0.09770	-0.81812
0.30171	0.96742
0.17421	1.29902
-0.18282	-1.40480
-0.02981	-0.12942
0.07220	0.02363
0.32721	-0.23145
0.50573	1.32453
0.45472	1.32453
0.22521	-0.86914
0.12320	0.27871
-0.05531	0.17668
-0.18282	-0.99668
-0.08081	0.45726
0.35272	0.66132
0.27621	0.50828
0.17421	0.61031
0.02119	-0.23145
0.35272	-0.46102
0.76074	-0.05289
0.68424	1.12046
0.07220	-0.02739
-0.94787	-0.23145
-1.50890	-0.94566
-0.08081	-0.38449
0.83725	0.94191
1.16877	0.30422
0.76074	0.99292
0.40372	-0.20594
0.02119	0.76336
0.14870	-0.23145
-0.00431	0.02363
-0.00431	0.50828
-0.15732	-0.69059
-0.02981	1.19699
-0.28482	1.17148
0.60773	-0.99668
0.02119	-0.15492
0.32721	-0.18043
0.58223	-0.02739
0.35272	1.57960
0.12320	-0.10391
-0.18282	-0.25695
-0.20832	-1.68539
-0.31033	0.02363
0.19971	0.22769
0.42922	0.50828
0.40372	1.04394
0.53123	0.91640
0.27621	0.12566
-0.05531	0.22769
0.07220	0.12566
0.12320	0.27871
0.04670	-0.81812
0.07220	-0.05289
0.07220	-0.18043
0.09770	-1.78742
0.40372	1.52859
0.30171	0.66132
0.19971	0.61031
-0.02981	0.61031
-0.36133	-0.58856
-0.25932	-0.79262
0.17421	-0.18043
0.22521	0.96742
0.25071	0.10015
0.22521	-0.02739
0.50573	-1.12422
0.19971	0.22769
0.02119	0.53379
-0.38683	0.91640
0.09770	0.86539
0.40372	-1.94047
0.30171	0.48277
-0.08081	1.65613
-0.15732	-1.14973
0.22521	-1.09871
0.40372	-0.25695
-0.08081	-0.41000
-0.05531	2.06425
0.17421	1.68163
0.12320	0.30422
0.53123	-0.48652
0.55673	0.07465
0.04670	-0.46102
-0.94787	-0.15492
-0.64185	0.71234
0.07220	0.94191
0.53123	-1.35379
1.01576	-0.86914
0.60773	0.53379
0.35272	-0.35899
0.40372	0.61031
0.27621	0.50828
0.32721	0.22769
0.25071	-0.25695
-0.13181	1.68163
-0.51434	-0.74160
-0.38683	-0.58856
0.27621	-0.20594
0.30171	0.53379
0.14870	1.75816
0.14870	-1.48133
0.27621	0.71234
0.40372	1.57960
0.32721	-0.33348
0.04670	0.61031
0.35272	-0.30797
0.37822	0.43176
0.14870	0.20219
-0.02981	-0.84363
-0.38683	-0.71609
0.25071	0.10015
0.48022	-1.45582
0.35272	0.35523
0.19971	1.27351
0.07220	0.22769
0.25071	0.35523
0.22521	1.37554
-0.10631	-1.55785
0.09770	0.27871
-0.02981	0.35523
-0.18282	-0.02739
-0.13181	0.96742
0.48022	0.61031
0.42922	0.04914
0.12320	0.12566
-0.15732	-1.20074
0.04670	-0.58856
0.42922	-0.07840
0.58223	1.88570
-0.05531	0.04914
0.19971	0.12566
0.27621	-0.35899
0.30171	-1.17523
0.40372	0.12566
0.04670	0.32972
-0.18282	0.45726
-0.33583	0.15117
0.25071	1.01843
0.42922	0.48277
0.42922	0.17668
0.27621	0.73785
-0.31033	-0.28246
-0.18282	0.30422
-0.00431	1.32453
0.17421	-2.47613
0.35272	-0.58856
0.32721	0.63582
0.09770	0.71234
0.22521	0.43176
0.19971	0.27871
0.35272	0.76336
0.63323	-0.69059
0.58223	-1.27726
0.04670	1.32453
-0.33583	0.38074
-0.53984	-0.05289
-0.23382	-0.02739
0.55673	1.19699
0.37822	-0.23145
0.32721	0.45726
0.53123	0.58480
0.45472	-0.05289
0.30171	-0.94566
0.19971	0.15117
-0.10631	-0.00188
-0.41233	0.73785
0.07220	-0.41000
0.02119	0.58480
0.02119	0.66132
0.02119	0.04914
0.32721	0.66132
0.27621	-0.76711
0.40372	0.66132
0.35272	0.63582
0.04670	-0.66508
-0.71835	0.38074
-0.59084	-0.66508
0.48022	0.10015
0.55673	-1.43031
0.55673	0.61031
0.65874	1.24800
0.30171	1.19699
0.07220	-0.61406
0.04670	0.45726
0.12320	0.86539
0.14870	-0.02739
0.12320	0.25320
0.27621	0.04914
0.27621	0.25320
0.02119	0.30422
0.04670	-0.51203
0.14870	0.35523
0.04670	0.40625
0.19971	-0.61406
0.02119	0.10015
-0.08081	-0.56305
-0.05531	0.94191
0.19971	-0.07840
0.50573	-0.05289
0.22521	0.73785
-0.08081	0.20219
0.17421	0.89089
0.12320	0.45726
0.12320	-0.10391
0.19971	-0.35899
-0.08081	0.61031
0.04670	-1.55785
0.53123	0.55929
0.35272	-0.10391
0.17421	-0.28246
-0.13181	0.83988
0.02119	0.20219
0.42922	0.22769
0.17421	0.30422
-0.28482	-0.00188
-0.69285	0.83988
-0.13181	-0.05289
0.40372	-1.53234
0.42922	-0.30797
0.55673	0.96742
0.40372	0.35523
0.12320	0.02363
0.02119	0.94191
-0.23382	-1.22625
0.07220	1.17148
0.32721	-0.99668
0.32721	0.63582
0.14870	0.15117
-0.20832	-0.89465
0.02119	0.04914
0.53123	1.75816
0.42922	0.35523
0.12320	0.20219
0.02119	0.61031
-0.02981	-0.66508
0.19971	-0.79262
0.35272	0.10015
0.45472	0.25320
0.32721	0.45726
0.19971	-0.00188
-0.08081	0.32972
-0.48884	0.94191
-0.15732	-2.27207
0.32721	1.09496
0.25071	0.20219
0.32721	-0.00188
0.42922	0.10015
0.17421	0.96742
-0.02981	-0.66508
-0.05531	-0.18043
-0.00431	-0.38449
0.04670	0.55929
0.22521	0.94191
0.25071	0.55929
0.63323	0.30422
0.50573	-0.05289
0.27621	0.15117
0.22521	1.14597
0.27621	-0.71609
0.07220	-0.69059
-0.02981	0.35523
0.22521	-0.43551
0.02119	0.83988
-0.15732	0.02363
0.04670	0.45726
0.02119	0.71234
0.14870	-0.69059
0.19971	-0.43551
0.25071	-0.30797
0.42922	-0.41000
0.53123	0.20219
0.12320	0.68683
-0.53984	1.27351
-0.76936	0.58480
-0.36133	-0.43551
0.45472	0.38074
1.04126	0.76336
0.99026	-0.25695
0.70974	0.22769
0.22521	-0.25695
-0.25932	0.50828
-0.10631	0.12566
0.19971	0.91640
0.07220	-2.32308
0.09770	1.22250
0.22521	-0.18043
0.19971	-0.74160
-0.08081	1.57960
-0.20832	0.17668
0.12320	-0.53754
0.04670	0.20219
0.27621	0.22769
0.35272	1.40105
0.22521	-2.55265
-0.20832	0.96742
-0.23382	-0.61406
-0.05531	1.06945
0.70974	-1.32828
0.53123	1.80917
0.50573	0.76336
0.09770	0.17668
0.35272	1.17148
0.32721	-0.63957
0.17421	0.91640
-0.20832	-0.18043
-0.38683	-0.02739
-0.13181	-0.74160
0.25071	-0.30797
0.37822	-0.00188
0.32721	-0.10391
0.17421	-0.43551
0.22521	-0.12942
0.22521	1.06945
-0.00431	-0.48652
-0.13181	0.71234
-0.02981	-0.46102
0.19971	-0.20594
0.02119	0.10015
-0.08081	1.63062
0.22521	-2.17003
0.42922	-0.15492
0.48022	1.60511
0.22521	-0.05289
-0.36133	0.45726
-0.02981	0.61031
0.37822	-0.10391
0.37822	-0.10391
0.53123	1.47757
0.60773	0.02363
0.14870	-0.35899
0.04670	-0.33348
-0.08081	0.30422
-0.33583	-0.74160
-0.28482	-0.33348
0.02119	0.17668
0.32721	0.32972
0.35272	0.45726
0.35272	0.15117
0.40372	0.02363
-0.08081	0.17668
-0.18282	0.53379
-0.28482	1.09496
-0.02981	-0.99668
0.27621	-0.66508
0.53123	-0.23145
0.53123	0.61031
0.37822	1.37554
0.27621	0.20219
0.17421	1.22250
-0.08081	0.07465
-0.15732	-0.61406
-0.36133	-1.55785
0.30171	1.32453
0.42922	1.22250
0.22521	-1.88945
0.27621	0.89089
0.30171	-0.81812
0.19971	0.30422
-0.28482	0.58480
-0.33583	0.63582
0.07220	0.35523
-0.00431	0.07465
-0.05531	-0.76711
0.19971	-0.15492
0.40372	-0.05289
0.35272	0.55929
0.09770	0.10015
-0.00431	0.22769
0.04670	-0.23145
0.22521	0.43176
0.27621	-0.02739
0.12320	0.02363
0.27621	0.55929
-0.00431	1.19699
-0.25932	-2.83324
-0.05531	1.06945
0.42922	0.12566
0.27621	0.45726
0.22521	-0.51203
-0.05531	0.96742
-0.13181	-0.20594
0.27621	1.50308
0.09770	-0.25695
0.04670	-2.22105
0.09770	1.37554
-0.00431	0.66132
0.19971	0.43176
0.12320	0.99292
0.17421	-0.25695
0.07220	-0.25695
0.07220	-0.02739
0.07220	-0.38449
0.12320	0.63582
0.09770	0.71234
-0.05531	-0.61406
0.27621	-0.05289
0.45472	-0.25695
0.40372	0.55929
0.14870	0.53379
-0.23382	0.27871
0.22521	-0.81812
0.42922	-0.00188
0.32721	0.78886
0.22521	-0.38449
-0.25932	0.78886
-0.15732	0.91640
0.14870	0.55929
0.30171	0.15117
0.32721	-0.46102
0.14870	0.17668
-0.15732	0.20219
-0.13181	0.15117
-0.00431	-0.43551
0.14870	-1.17523
0.27621	0.96742
0.86275	0.30422
0.50573	-0.05289
0.53123	0.96742
0.17421	0.50828
-0.23382	0.89089
-0.46334	-0.12942
0.02119	-0.23145
0.48022	-0.46102
0.45472	2.39585
0.37822	0.53379
0.45472	-2.93527
0.27621	0.35523
0.04670	1.22250
0.14870	0.50828
0.09770	-0.94566
-0.23382	0.10015
-0.18282	0.45726
-0.18282	-0.12942
0.17421	2.88050
0.63323	-2.45062
0.53123	-0.99668
0.09770	1.40105
0.04670	1.17148
0.09770	0.12566
0.09770	-0.10391
0.17421	0.43176
0.07220	-0.05289
0.12320	-0.46102
0.42922	0.15117
0.42922	0.15117
0.22521	-0.02739
0.04670	0.02363
-0.02981	0.04914
-0.02981	0.58480
0.14870	1.17148
0.45472	-0.71609
0.32721	0.83988
0.30171	0.20219
0.32721	0.30422
0.42922	0.02363
0.40372	0.40625
0.07220	0.78886
-0.36133	-0.18043
-0.02981	-0.12942
0.09770	0.43176
0.02119	-0.61406
0.12320	0.63582
-0.02981	0.66132
0.48022	0.12566
0.58223	0.07465
0.55673	0.71234
0.48022	-0.07840
0.32721	0.35523
0.19971	1.27351
0.04670	-0.30797
-0.18282	-1.32828
-0.51434	0.15117
-0.20832	0.25320
0.14870	-0.53754
0.53123	-1.45582
0.45472	1.19699
0.02119	0.55929
-0.00431	0.94191
0.27621	0.63582
0.81175	0.55929
0.48022	-0.30797
0.32721	0.17668
-0.15732	1.68163
-0.64185	-1.48133
-0.31033	-1.55785
0.53123	0.61031
0.30171	0.15117
0.25071	0.38074
0.17421	0.12566
0.25071	0.66132
0.30171	0.53379
-0.00431	-1.22625
-0.05531	1.06945
0.02119	-0.07840
-0.13181	-0.33348
0.07220	0.73785
0.27621	0.32972
0.32721	-0.58856
0.19971	0.40625
-0.02981	0.02363
-0.28482	-0.00188
-0.00431	0.68683
0.53123	0.22769
0.63323	-0.30797
0.32721	0.61031
0.30171	0.53379
-0.18282	0.15117
-0.25932	0.55929
0.07220	-0.05289
0.30171	-1.09871
0.50573	0.94191
0.27621	0.22769
0.17421	-0.33348
-0.05531	0.17668
-0.05531	0.61031
0.07220	0.50828
0.19971	-0.92016
0.42922	-0.41000
0.19971	0.10015
0.17421	1.91120
-0.10631	-0.74160
-0.23382	0.35523
-0.41233	-0.18043
0.09770	-0.12942
0.37822	0.83988
0.53123	0.55929
0.55673	-0.46102
0.32721	1.17148
0.37822	-0.43551
0.53123	0.68683
0.35272	0.61031
-0.08081	-1.27726
-0.31033	0.89089
0.07220	0.91640
0.35272	-0.12942
0.19971	-0.38449
0.35272	0.48277
0.22521	0.94191
0.27621	1.14597
0.12320	-1.27726
0.04670	-1.43031
0.27621	-1.02219
0.12320	1.42656
0.07220	0.76336
-0.28482	0.63582
-0.33583	-0.10391
0.02119	0.68683
0.45472	1.42656
0.65874	-0.23145
0.60773	-0.35899
0.17421	-1.22625
0.17421	-0.56305
-0.13181	0.66132
-1.02437	0.43176
-0.51434	-0.25695
0.42922	0.17668
0.70974	0.15117
0.76074	0.25320
0.60773	0.32972
0.50573	0.20219
0.09770	1.35003
-0.08081	0.40625
-0.18282	-0.94566
-0.20832	0.17668
-0.28482	-1.37929
-0.02981	0.35523
0.32721	1.60511
0.50573	0.96742
0.30171	0.12566
0.27621	2.14077
0.07220	-0.81812
-0.10631	-0.58856
-0.08081	-1.22625
0.17421	-0.20594
0.30171	0.38074
0.40372	1.91120
0.42922	0.12566
0.35272	-0.23145
0.37822	0.04914
0.12320	-0.02739
0.12320	0.66132
0.30171	0.55929
0.04670	-0.05289
-0.23382	-0.71609
-0.00431	-0.46102
0.32721	0.25320
0.27621	1.63062
0.68424	0.61031
0.73524	0.32972
0.37822	0.27871
-0.02981	-0.12942
-0.41233	1.91120
-0.33583	-0.23145
0.09770	-0.35899
0.35272	-1.48133
0.58223	-0.33348
0.37822	0.89089
0.27621	0.68683
0.25071	0.35523
-0.05531	0.61031
-0.43783	-0.02739
-0.28482	-0.56305
-0.10631	0.45726
0.04670	-1.09871
0.35272	0.76336
0.50573	0.50828
0.37822	-0.10391
0.22521	0.55929
-0.15732	-0.56305
-0.13181	1.06945
-0.10631	-0.30797
0.14870	0.99292
0.30171	-0.05289
0.19971	0.40625
0.32721	-0.41000
0.30171	-0.46102
0.25071	-1.68539
0.12320	-0.58856
0.22521	1.29902
0.22521	1.17148
0.09770	1.24800
0.07220	0.81437
0.12320	0.55929
0.17421	-0.20594
0.25071	0.55929
0.22521	-0.43551
0.37822	-0.35899
0.63323	0.25320
0.35272	-1.63437
0.12320	0.58480
-0.41233	-0.02739
-0.46334	0.61031
0.37822	0.76336
0.32721	0.76336
0.40372	0.89089
0.12320	0.27871
0.12320	-1.32828
0.12320	-0.02739
0.04670	-0.00188
0.07220	0.43176
0.22521	-0.56305
0.17421	-0.00188
0.35272	0.86539
