0.25071	0.30422
0.17421	0.15117
0.12320	0.15117
0.09770	0.22769
0.12320	0.07465
0.19971	0.17668
0.12320	0.07465
0.04670	0.12566
0.07220	0.10015
0.14870	0.32972
0.19971	0.20219
0.17421	0.04914
0.19971	0.20219
0.12320	0.25320
0.07220	0.20219
0.09770	0.07465
0.04670	0.10015
0.04670	0.25320
0.07220	0.22769
0.09770	0.17668
0.07220	-0.05289
0.12320	0.04914
0.19971	-0.33348
0.14870	-0.25695
0.12320	0.68683
0.14870	0.55929
0.09770	0.32972
0.09770	0.45726
0.19971	0.22769
0.22521	0.22769
0.25071	-0.35899
0.22521	0.04914
0.27621	0.25320
0.17421	0.20219
0.12320	0.04914
0.09770	0.12566
0.09770	0.22769
0.12320	0.20219
0.19971	0.04914
0.14870	-0.05289
0.09770	0.15117
0.09770	0.30422
0.17421	0.07465
0.14870	0.25320
0.14870	0.17668
0.19971	0.22769
0.12320	0.10015
0.14870	-0.18043
0.14870	0.35523
0.22521	0.35523
0.12320	0.35523
0.17421	0.17668
0.12320	0.25320
0.12320	0.17668
0.07220	0.10015
0.14870	-0.56305
0.12320	0.02363
0.12320	0.12566
0.17421	0.15117
0.17421	0.45726
0.19971	0.55929
0.19971	0.48277
0.27621	0.27871
0.22521	0.17668
0.17421	-0.10391
0.22521	0.04914
0.12320	0.20219
0.12320	0.22769
0.14870	0.20219
0.09770	0.20219
0.14870	0.04914
0.19971	0.04914
0.19971	0.22769
0.12320	0.43176
0.12320	0.12566
0.12320	-0.00188
0.12320	-0.00188
0.14870	0.30422
0.12320	-0.00188
0.14870	0.40625
0.14870	0.66132
0.17421	-0.12942
0.19971	0.20219
0.12320	-0.20594
0.17421	0.38074
0.14870	0.38074
0.04670	0.35523
0.07220	-0.18043
0.07220	-0.20594
0.09770	-0.25695
0.04670	0.20219
0.09770	0.02363
0.19971	0.35523
0.17421	0.25320
0.14870	0.38074
0.22521	-0.02739
0.14870	0.15117
0.14870	-0.05289
0.19971	0.32972
0.22521	0.40625
0.22521	0.40625
0.17421	0.17668
0.19971	-0.23145
0.14870	-0.46102
0.09770	0.25320
0.07220	0.40625
0.07220	0.22769
0.09770	0.12566
0.14870	0.07465
0.17421	0.55929
0.22521	0.17668
0.25071	0.02363
0.17421	-0.25695
0.14870	0.12566
0.04670	0.17668
0.14870	0.40625
0.12320	0.25320
0.09770	-0.74160
0.12320	0.12566
0.22521	0.32972
0.22521	0.30422
0.25071	0.27871
0.19971	0.15117
0.17421	0.17668
0.09770	0.04914
0.09770	0.20219
0.12320	0.10015
0.09770	0.04914
0.19971	-0.15492
0.14870	0.43176
0.09770	0.15117
0.09770	-0.51203
0.19971	0.02363
0.22521	0.48277
0.14870	0.35523
0.14870	0.40625
0.07220	0.35523
0.09770	0.25320
0.19971	0.12566
0.19971	0.12566
0.12320	0.07465
0.17421	0.12566
0.12320	0.15117
0.17421	0.15117
0.14870	-0.74160
0.22521	0.10015
0.09770	0.27871
0.12320	0.25320
0.09770	0.30422
0.09770	0.20219
0.12320	0.30422
0.12320	0.38074
0.14870	-0.10391
0.19971	0.25320
0.17421	-0.18043
0.19971	0.15117
0.22521	0.35523
0.17421	0.32972
0.19971	0.15117
0.19971	0.43176
0.22521	0.45726
0.12320	0.17668
0.14870	-0.61406
0.17421	-0.28246
0.12320	0.22769
0.09770	0.17668
0.04670	0.30422
0.07220	0.30422
0.09770	0.22769
0.09770	0.10015
0.07220	0.02363
0.09770	0.10015
0.19971	0.17668
0.14870	0.27871
0.12320	0.17668
0.22521	-0.38449
0.17421	-0.00188
0.17421	0.35523
0.19971	0.45726
0.14870	0.45726
0.14870	0.30422
0.14870	-0.51203
0.09770	0.02363
0.12320	0.45726
0.19971	0.17668
0.17421	0.10015
0.17421	0.15117
0.17421	0.30422
0.17421	-0.10391
0.22521	0.27871
0.17421	0.43176
0.19971	0.25320
0.17421	0.32972
0.17421	-0.10391
0.14870	0.20219
0.14870	-0.00188
0.12320	0.35523
0.12320	0.25320
0.12320	0.10015
0.12320	0.27871
0.12320	0.25320
0.17421	-0.43551
0.17421	-0.66508
0.17421	0.35523
0.04670	0.63582
0.07220	0.17668
0.07220	0.27871
0.09770	0.40625
0.17421	0.07465
0.25071	0.35523
0.25071	0.40625
0.22521	-0.12942
0.25071	0.20219
0.22521	0.22769
0.19971	0.25320
0.19971	0.17668
0.19971	-0.15492
0.12320	-0.28246
0.17421	0.22769
0.17421	0.32972
0.14870	0.43176
0.09770	-0.12942
0.14870	0.30422
0.07220	0.12566
0.09770	0.20219
0.14870	0.27871
0.17421	0.15117
0.19971	0.20219
0.17421	0.07465
0.22521	0.10015
0.12320	0.22769
0.17421	0.15117
0.14870	-0.00188
0.12320	-0.10391
0.22521	0.10015
0.19971	0.17668
0.12320	-0.10391
0.02119	0.32972
0.09770	0.40625
0.07220	0.35523
0.12320	0.38074
0.22521	0.12566
0.27621	0.02363
0.07220	-0.05289
0.07220	-0.51203
0.14870	0.25320
0.14870	0.63582
0.14870	-0.07840
0.14870	-0.05289
0.19971	0.32972
0.14870	0.40625
0.09770	0.38074
0.12320	0.22769
0.14870	0.22769
0.22521	0.04914
0.22521	0.12566
0.12320	0.07465
0.09770	0.04914
0.09770	0.02363
0.07220	0.04914
0.14870	0.22769
0.19971	0.25320
0.27621	-0.02739
0.25071	-0.02739
0.12320	0.27871
0.25071	0.17668
0.09770	0.02363
0.04670	0.45726
0.07220	0.15117
0.14870	-0.02739
0.19971	0.40625
0.22521	0.43176
0.19971	-0.43551
0.14870	-0.15492
0.09770	0.38074
0.09770	0.43176
0.04670	0.30422
0.07220	0.20219
0.12320	0.04914
0.17421	-0.10391
0.22521	0.30422
0.25071	0.25320
0.27621	0.15117
0.14870	0.12566
0.14870	-0.00188
0.12320	-0.00188
0.04670	0.04914
0.02119	0.10015
0.12320	0.25320
0.12320	0.22769
0.22521	0.17668
0.22521	0.12566
0.17421	0.07465
0.17421	0.10015
0.07220	0.15117
0.09770	0.17668
0.12320	0.68683
0.07220	0.76336
0.19971	-0.43551
0.22521	-1.14973
0.25071	-0.00188
0.19971	-0.10391
0.14870	0.55929
0.09770	0.96742
0.12320	0.81437
0.09770	0.50828
0.07220	0.32972
0.09770	0.17668
0.17421	-0.00188
0.17421	-0.10391
0.17421	-0.12942
0.14870	-0.00188
0.12320	0.02363
0.19971	-0.00188
0.22521	-0.07840
0.19971	-0.00188
0.12320	0.04914
0.02119	0.20219
0.12320	0.20219
0.14870	0.32972
0.22521	0.22769
0.17421	0.17668
0.17421	0.15117
0.19971	0.20219
0.12320	0.15117
0.07220	0.17668
0.09770	0.22769
0.12320	0.35523
0.12320	0.63582
0.07220	-0.35899
0.12320	-0.61406
0.12320	0.04914
0.12320	0.38074
0.14870	-0.12942
0.12320	-0.05289
0.17421	0.66132
0.12320	0.61031
0.12320	0.50828
0.19971	0.27871
0.19971	0.20219
0.22521	0.17668
0.25071	0.10015
0.25071	0.04914
0.22521	0.02363
0.19971	0.04914
0.14870	-0.02739
0.12320	-0.05289
0.12320	0.20219
0.07220	-0.05289
0.07220	0.15117
0.12320	0.27871
0.17421	0.30422
0.25071	0.45726
0.17421	0.35523
0.14870	0.25320
0.07220	-0.63957
0.12320	0.10015
0.07220	0.48277
0.12320	-0.07840
0.19971	0.32972
0.14870	0.55929
0.07220	0.43176
0.14870	0.25320
0.17421	-0.51203
0.14870	-0.12942
0.17421	-0.00188
0.22521	0.61031
0.14870	0.43176
0.09770	-0.00188
0.17421	0.20219
0.14870	0.25320
0.14870	0.12566
0.12320	0.12566
0.19971	-0.15492
0.14870	0.27871
0.17421	0.07465
0.22521	0.25320
0.09770	0.20219
0.07220	0.25320
0.14870	0.17668
0.17421	0.20219
0.12320	0.20219
0.14870	-0.07840
0.12320	-0.25695
0.09770	0.12566
0.07220	0.25320
0.04670	-0.56305
0.12320	0.40625
0.12320	0.55929
0.22521	0.35523
0.25071	0.45726
0.19971	0.20219
0.17421	0.12566
0.12320	-0.30797
0.12320	-0.18043
0.12320	-0.38449
0.07220	0.27871
0.04670	0.38074
0.12320	0.27871
0.07220	0.30422
0.14870	0.38074
0.19971	0.30422
0.27621	0.04914
0.22521	-0.07840
0.17421	-0.05289
0.19971	0.22769
0.14870	0.22769
0.12320	0.30422
0.14870	-0.30797
0.17421	0.30422
0.09770	0.32972
0.09770	0.25320
0.14870	0.30422
0.09770	-0.28246
0.04670	0.27871
0.14870	-0.05289
0.12320	-0.07840
0.09770	0.25320
0.14870	0.35523
0.19971	0.25320
0.22521	0.35523
0.22521	0.27871
0.22521	0.35523
0.22521	-0.12942
0.22521	-0.05289
0.12320	0.22769
0.12320	0.04914
0.12320	-0.05289
0.14870	0.30422
0.14870	0.12566
0.17421	-0.07840
0.09770	0.25320
0.12320	0.40625
0.09770	0.25320
0.12320	-0.20594
0.12320	0.12566
0.22521	0.32972
0.19971	0.25320
0.17421	0.15117
0.14870	0.22769
0.12320	0.30422
0.14870	0.04914
0.12320	-0.02739
0.09770	0.15117
0.14870	0.10015
0.14870	-0.02739
0.14870	0.50828
0.17421	-0.23145
0.19971	-0.10391
0.19971	0.35523
0.12320	0.53379
0.19971	0.35523
0.19971	0.27871
0.12320	0.22769
0.12320	0.17668
0.12320	0.20219
0.12320	0.22769
0.12320	0.10015
0.12320	-0.05289
0.14870	-0.86914
0.14870	0.45726
0.22521	0.58480
0.25071	0.48277
0.25071	0.40625
0.17421	0.22769
0.17421	0.10015
0.22521	0.15117
0.09770	0.22769
0.19971	0.25320
0.19971	0.02363
0.14870	0.22769
0.22521	0.10015
0.17421	-0.10391
0.17421	0.20219
0.17421	0.45726
0.12320	0.27871
0.09770	0.22769
0.09770	0.22769
0.12320	0.17668
0.22521	0.20219
0.22521	0.35523
0.22521	0.04914
0.27621	0.40625
0.17421	0.04914
0.12320	0.17668
0.12320	0.02363
0.12320	0.27871
0.09770	0.30422
0.17421	0.20219
0.19971	0.04914
0.12320	0.27871
0.19971	-0.15492
0.22521	0.32972
0.17421	0.22769
0.14870	0.04914
0.09770	-0.10391
0.02119	0.20219
0.04670	0.20219
0.12320	0.00000
0.07220	0.00000
0.14870	-0.15492
0.17421	0.20219
0.27621	0.53379
0.19971	-0.15492
0.14870	0.10015
0.12320	0.32972
0.12320	0.20219
0.04670	0.10015
0.07220	0.02363
0.07220	0.04914
0.07220	0.02363
0.09770	0.12566
0.12320	0.20219
0.07220	0.15117
0.14870	0.04914
0.12320	0.15117
0.04670	0.15117
0.12320	0.20219
0.07220	0.15117
0.04670	-0.07840
0.09770	0.04914
0.17421	0.32972
0.17421	0.30422
0.17421	0.27871
0.14870	0.12566
0.09770	0.10015
0.04670	0.02363
0.04670	0.10015
0.02119	0.07465
0.09770	-0.12942
0.09770	-0.18043
0.09770	0.25320
0.12320	0.25320
0.07220	0.17668
0.09770	0.25320
0.09770	0.04914
0.04670	-0.10391
0.09770	-0.12942
0.12320	0.02363
0.14870	0.40625
0.12320	0.27871
0.17421	0.17668
0.25071	0.32972
0.22521	0.27871
0.22521	0.27871
0.19971	-0.30797
0.17421	0.25320
0.17421	-0.05289
0.22521	0.07465
0.19971	0.35523
0.22521	0.38074
0.22521	0.45726
0.22521	0.35523
0.22521	0.32972
0.22521	0.22769
0.12320	-0.00188
0.14870	-0.30797
0.09770	0.30422
0.12320	0.10015
0.14870	0.12566
0.12320	0.17668
0.17421	0.20219
0.19971	0.20219
0.17421	0.27871
0.14870	0.20219
0.14870	0.27871
0.12320	0.25320
0.17421	0.15117
0.17421	0.15117
0.25071	0.15117
0.14870	0.22769
0.12320	0.38074
0.12320	0.32972
0.07220	0.25320
0.12320	-0.89465
0.14870	-0.00188
0.19971	0.40625
0.12320	0.50828
0.07220	0.32972
0.04670	0.27871
0.17421	0.27871
0.17421	0.10015
0.22521	-0.43551
0.17421	-0.12942
0.12320	-0.28246
0.12320	0.43176
0.12320	0.50828
0.19971	0.35523
0.22521	0.20219
0.19971	0.15117
0.19971	0.15117
0.17421	0.04914
0.17421	0.27871
0.14870	0.20219
0.12320	0.15117
0.14870	0.15117
0.12320	0.02363
-0.00431	0.02363
0.02119	0.02363
0.09770	0.22769
0.07220	0.02363
0.19971	0.15117
0.17421	0.15117
0.17421	0.17668
0.12320	0.20219
0.14870	0.30422
0.12320	0.20219
0.12320	-0.07840
0.22521	-0.28246
0.19971	0.15117
0.22521	0.45726
0.22521	0.40625
0.25071	0.25320
0.22521	0.17668
0.17421	0.12566
0.17421	0.25320
0.19971	0.22769
0.22521	0.20219
0.19971	0.10015
0.17421	0.12566
0.14870	0.22769
0.17421	0.10015
0.12320	0.07465
0.12320	0.04914
0.04670	0.10015
0.07220	0.04914
0.09770	0.04914
0.09770	0.20219
0.09770	0.35523
0.14870	0.43176
0.22521	0.10015
0.25071	-0.74160
0.19971	0.07465
0.14870	0.43176
0.04670	0.53379
0.07220	0.61031
0.14870	0.50828
0.12320	0.25320
0.17421	0.17668
0.22521	-0.05289
0.17421	-0.10391
0.12320	-0.46102
0.12320	0.38074
0.09770	0.45726
0.14870	0.30422
0.14870	-0.38449
0.12320	0.12566
0.19971	0.20219
0.19971	0.32972
0.19971	0.30422
0.14870	0.17668
0.14870	0.10015
0.17421	0.25320
0.17421	0.25320
0.14870	0.12566
0.07220	0.04914
0.07220	-0.23145
0.04670	-0.28246
0.07220	0.40625
0.17421	0.35523
0.19971	0.20219
0.25071	0.32972
0.22521	0.02363
0.22521	-0.63957
0.19971	-1.02219
0.19971	1.63062
0.17421	0.89089
0.19971	-0.33348
0.22521	1.32453
0.17421	0.81437
0.07220	-1.07320
-0.05531	-1.32828
0.17421	-0.33348
0.19971	1.24800
0.22521	-0.18043
0.35272	0.45726
0.14870	2.95702
0.04670	0.73785
0.14870	0.91640
0.12320	-3.64948
0.09770	0.04914
-0.15732	1.06945
0.25071	-4.13413
0.48022	3.51819
0.32721	0.22769
0.17421	-3.95558
0.12320	6.42608
-0.10631	-3.24136
-0.15732	4.10487
0.04670	-0.58856
0.35272	-1.04770
0.09770	1.68163
0.25071	0.78886
0.12320	0.02363
0.30171	-1.58336
0.04670	-2.06800
-0.00431	4.97213
-0.00431	-1.32828
0.17421	-3.36890
0.53123	1.63062
0.45472	-2.39961
0.40372	0.94191
-0.48884	3.28862
-0.69285	1.24800
-0.15732	-1.27726
0.55673	1.37554
0.58223	-1.81293
0.91375	0.96742
0.63323	0.55929
0.53123	3.72225
-0.18282	-0.00188
-0.64185	-5.12893
-1.02437	0.71234
-1.17738	-0.86914
-0.59084	-1.07320
0.55673	1.80917
1.34728	2.72745
2.11233	-0.10391
2.03582	1.22250
1.37278	-1.76191
0.35272	0.45726
-0.89686	0.15117
-1.30489	2.29382
-0.84586	-0.12942
-0.13181	1.24800
0.22521	0.45726
0.45472	1.68163
-0.43783	-0.33348
-0.38683	-0.92016
-0.00431	-4.41472
0.22521	-2.88425
0.83725	2.57441
0.22521	2.24281
-0.31033	1.01843
-0.08081	4.07936
0.81175	-0.30797
1.14327	-0.81812
1.16877	2.08976
0.68424	-0.71609
0.27621	-0.58856
-0.48884	-4.64429
-0.18282	0.76336
-0.28482	1.50308
-0.25932	2.14077
0.25071	2.21730
0.58223	-2.60367
0.19971	1.73265
-0.48884	-1.58336
-1.53441	0.25320
-1.81492	1.52859
0.32721	0.15117
1.52579	1.19699
1.98482	-1.86394
1.67880	0.66132
0.25071	0.71234
-0.82036	-0.66508
-0.28482	1.37554
-0.36133	0.38074
-0.05531	-0.07840
0.32721	0.86539
0.73524	-0.56305
0.86275	0.22769
0.58223	-0.10391
-0.13181	1.32453
-0.25932	0.91640
-0.82036	0.66132
-0.33583	-2.73121
0.04670	-0.56305
0.83725	-0.43551
0.63323	2.42136
0.19971	1.27351
-0.76936	0.73785
-0.89686	-0.00188
0.27621	0.91640
0.81175	-0.43551
1.04126	1.29902
0.73524	-3.11382
0.99026	0.43176
0.73524	0.48277
-0.18282	-0.61406
-1.66191	2.59991
-0.89686	-3.08831
0.30171	1.88570
0.42922	3.00804
0.81175	0.68683
0.86275	-0.05289
0.53123	-1.04770
0.19971	0.10015
-0.10631	0.78886
-0.23382	-0.35899
-0.10631	0.71234
0.09770	0.07465
0.12320	0.73785
0.50573	-1.45582
0.27621	-1.30277
-0.20832	0.63582
-0.36133	1.12046
-0.15732	0.76336
0.07220	-0.46102
0.37822	0.55929
0.37822	-0.02739
0.14870	0.89089
0.55673	-0.35899
0.22521	-0.20594
0.70974	0.63582
0.60773	0.10015
0.04670	1.32453
-0.36133	-0.38449
0.17421	-0.02739
0.35272	-0.30797
0.35272	1.47757
-0.08081	-2.55265
-0.08081	-0.35899
-0.18282	0.76336
0.22521	0.04914
0.32721	0.81437
0.17421	-0.33348
0.04670	1.37554
-0.00431	-0.43551
0.32721	1.42656
0.48022	-0.30797
0.48022	-0.15492
0.07220	0.71234
-0.59084	1.83468
-0.15732	-1.88945
0.30171	0.30422
0.32721	-0.89465
0.45472	1.45206
0.27621	-4.13413
0.04670	2.59991
0.12320	0.96742
0.30171	0.94191
0.50573	0.55929
0.83725	0.02363
0.73524	0.89089
-0.10631	-0.46102
-0.89686	-0.81812
-1.10088	0.10015
-0.10631	0.10015
0.83725	0.91640
0.86275	0.10015
0.70974	-0.38449
0.42922	-0.48652
0.19971	-0.07840
0.07220	-0.38449
-0.10631	0.86539
-0.31033	1.37554
-0.15732	-0.00188
-0.02981	-0.33348
-0.02981	-1.58336
-0.00431	-1.17523
0.07220	1.63062
0.22521	-1.09871
0.37822	1.19699
0.02119	1.98773
-0.00431	0.91640
-0.13181	0.68683
-0.00431	-1.14973
0.50573	-2.09351
0.65874	-0.25695
0.27621	1.14597
-0.10631	0.81437
-0.00431	0.22769
0.25071	-0.69059
0.37822	-0.28246
0.35272	1.42656
-0.05531	-1.02219
-0.61635	0.81437
-0.31033	0.04914
-0.02981	-0.07840
0.48022	0.45726
0.53123	-1.50683
0.37822	0.48277
0.02119	0.81437
0.04670	0.76336
0.17421	0.66132
0.04670	-0.46102
-0.28482	-0.69059
-0.41233	-0.43551
-0.43783	-2.55265
-0.00431	3.74776
0.42922	0.81437
0.65874	-0.33348
0.50573	-0.48652
0.45472	-0.25695
0.04670	-0.20594
-0.00431	-0.10391
0.42922	0.04914
0.17421	0.91640
-0.18282	-0.05289
-0.53984	0.04914
-0.36133	-0.07840
0.22521	-0.35899
0.32721	1.09496
0.55673	0.71234
0.48022	1.19699
0.35272	-1.68539
0.40372	0.04914
0.40372	1.37554
0.35272	0.12566
0.12320	1.80917
-0.20832	-1.17523
-0.66735	-0.94566
-0.76936	-0.33348
0.09770	0.45726
0.48022	-0.86914
0.76074	0.15117
0.48022	0.15117
0.22521	1.24800
0.32721	0.50828
0.09770	-1.50683
0.09770	1.14597
0.12320	-0.58856
-0.28482	0.71234
-0.13181	0.48277
-0.31033	-1.12422
0.14870	0.68683
0.32721	0.91640
0.81175	1.14597
0.65874	0.17668
0.53123	0.50828
-0.02981	0.45726
-0.71835	0.38074
-0.41233	-0.15492
-0.08081	-2.24656
0.32721	1.40105
0.53123	-0.74160
0.76074	0.96742
0.45472	0.27871
0.30171	-0.51203
0.14870	0.12566
0.07220	0.10015
0.02119	0.48277
-0.18282	-0.81812
-0.38683	0.58480
-0.25932	2.31933
0.19971	-2.65468
0.12320	0.81437
0.12320	-1.12422
0.09770	1.60511
0.40372	1.01843
0.55673	-0.58856
0.65874	0.61031
0.42922	0.20219
-0.38683	-0.00188
-0.10631	-0.30797
-0.00431	0.55929
0.42922	0.83988
0.50573	-0.97117
0.65874	0.45726
0.40372	0.25320
-0.08081	-0.35899
-0.64185	0.53379
-0.84586	-0.61406
0.37822	-0.28246
0.40372	-0.35899
0.35272	1.06945
0.14870	0.25320
0.02119	0.89089
0.07220	-0.25695
0.14870	0.76336
0.04670	-1.32828
0.12320	0.12566
0.35272	1.12046
0.48022	0.66132
0.40372	0.04914
0.12320	-1.22625
0.09770	0.25320
0.07220	0.71234
0.17421	1.17148
0.22521	1.17148
0.35272	-1.25176
0.17421	0.40625
-0.20832	-0.20594
0.12320	0.07465
0.63323	0.73785
1.04126	0.63582
0.68424	0.22769
0.02119	0.27871
-0.53984	-0.46102
-1.15188	-1.27726
-0.02981	1.06945
0.65874	-0.41000
0.73524	0.66132
0.53123	0.91640
0.12320	-0.79262
-0.23382	0.35523
-0.28482	1.19699
0.27621	0.83988
0.40372	-0.56305
0.30171	0.71234
0.07220	-0.97117
-0.05531	-0.20594
0.19971	0.10015
0.07220	0.25320
-0.10631	0.38074
0.19971	-1.63437
0.12320	1.40105
-0.23382	-1.58336
0.04670	1.04394
0.58223	2.26831
0.32721	-1.94047
0.25071	0.96742
0.12320	1.27351
0.45472	0.30422
-0.00431	-1.17523
-0.02981	0.35523
0.30171	-0.43551
0.12320	1.06945
0.30171	1.32453
0.04670	-1.45582
-0.10631	0.89089
-0.18282	-1.02219
0.35272	1.06945
0.30171	0.22769
0.35272	1.40105
0.12320	-1.25176
-0.02981	1.04394
-0.08081	1.01843
-0.25932	-1.25176
0.22521	-0.46102
0.60773	0.66132
0.45472	1.14597
0.35272	0.04914
0.14870	0.04914
0.07220	0.61031
-0.00431	-0.10391
0.09770	-0.02739
0.30171	-0.76711
0.27621	0.12566
0.25071	0.78886
-0.05531	1.37554
-0.38683	-3.03730
-0.00431	1.91120
0.09770	0.25320
0.32721	0.38074
0.45472	-0.92016
0.50573	0.22769
0.58223	-0.07840
-0.38683	1.98773
-0.59084	0.15117
0.17421	0.83988
0.12320	-0.20594
0.68424	1.04394
0.58223	0.02363
0.19971	-0.46102
0.09770	-0.76711
0.22521	-0.74160
0.12320	0.25320
-0.10631	0.27871
0.22521	0.96742
0.25071	-1.02219
0.22521	0.86539
0.32721	1.17148
-0.00431	-0.05289
-0.13181	-0.61406
0.22521	0.45726
0.32721	0.81437
0.22521	-0.05289
0.45472	-0.23145
0.07220	0.71234
0.42922	1.29902
0.32721	-2.22105
-0.00431	-1.53234
-0.43783	1.40105
-0.46334	-0.69059
-0.20832	-0.10391
0.27621	0.76336
0.76074	0.53379
0.45472	0.58480
-0.05531	0.45726
-0.15732	1.37554
0.30171	-1.37929
0.32721	-1.20074
0.48022	0.17668
0.40372	-0.05289
-0.08081	0.50828
-0.79486	1.22250
-1.07538	0.30422
0.07220	-1.32828
0.68424	-0.33348
0.68424	1.17148
0.55673	0.10015
0.22521	-0.92016
0.22521	0.30422
0.14870	0.53379
-0.02981	0.15117
-0.36133	1.01843
-0.25932	0.81437
-0.05531	-2.29757
0.22521	0.38074
0.07220	0.53379
0.27621	1.27351
0.42922	-0.94566
0.32721	-0.48652
0.02119	-0.05289
0.07220	0.94191
0.09770	0.53379
-0.08081	0.43176
0.02119	-0.28246
0.53123	0.15117
0.81175	-0.46102
0.63323	-0.07840
0.37822	-0.28246
0.25071	-0.51203
-0.15732	-0.38449
-0.74385	0.73785
-0.38683	0.55929
0.48022	0.81437
0.50573	-0.05289
0.02119	0.25320
-0.18282	-0.69059
-0.00431	1.01843
0.27621	0.07465
0.50573	0.40625
0.53123	-0.48652
0.32721	0.30422
0.04670	0.53379
0.09770	-0.38449
0.09770	0.02363
0.04670	0.55929
-0.00431	-0.10391
0.22521	0.25320
0.14870	-0.25695
0.14870	-1.88945
0.02119	2.16628
0.22521	1.93671
0.09770	-1.50683
0.04670	0.15117
-0.15732	1.01843
-0.64185	0.02363
-0.41233	0.78886
0.50573	-1.22625
1.01576	-1.14973
1.01576	0.96742
0.58223	0.89089
0.37822	0.96742
0.17421	0.30422
-0.05531	0.20219
-0.28482	-0.30797
-0.18282	0.38074
-0.23382	-0.86914
-0.33583	-1.48133
0.02119	1.32453
0.35272	0.30422
0.48022	-1.40480
0.32721	0.76336
0.27621	0.96742
0.22521	1.01843
-0.08081	0.12566
0.09770	0.43176
0.22521	0.81437
0.22521	-2.06800
0.42922	-0.99668
0.12320	0.22769
0.04670	1.78367
0.02119	1.29902
0.32721	-0.66508
0.02119	-0.28246
-0.13181	1.47757
0.14870	-0.10391
0.30171	-1.09871
0.32721	-0.74160
0.04670	0.53379
-0.15732	-0.12942
0.19971	0.50828
0.53123	0.04914
0.50573	-0.15492
0.12320	0.17668
0.07220	-0.07840
0.14870	-0.56305
0.30171	0.86539
0.19971	0.94191
-0.05531	0.71234
0.12320	-0.00188
-0.00431	0.66132
-0.00431	-0.69059
0.04670	0.17668
0.09770	-0.53754
0.19971	0.25320
0.27621	0.71234
0.07220	0.40625
0.09770	0.17668
0.35272	-1.04770
0.30171	-0.84363
0.40372	-0.86914
0.30171	0.78886
0.14870	1.24800
-0.08081	0.83988
-0.00431	-0.58856
0.35272	1.24800
0.35272	0.68683
0.55673	0.58480
0.42922	-0.35899
0.09770	0.35523
0.27621	-0.28246
0.17421	0.25320
-0.08081	-0.53754
-0.25932	0.76336
-0.20832	-0.76711
-0.10631	0.43176
-0.18282	-0.99668
0.27621	-1.25176
0.42922	0.55929
0.55673	1.93671
0.22521	-1.86394
-0.13181	1.60511
0.12320	0.48277
0.40372	1.01843
0.42922	0.63582
0.45472	0.94191
0.19971	-0.46102
0.09770	0.15117
0.02119	-0.79262
-0.18282	-0.10391
-0.20832	-0.46102
-0.10631	-1.81293
0.30171	2.14077
0.42922	0.15117
0.37822	0.35523
0.25071	0.50828
0.27621	-0.10391
0.35272	1.06945
0.35272	0.40625
-0.08081	0.91640
-0.20832	-0.38449
0.30171	0.10015
0.12320	1.29902
0.19971	-0.97117
0.14870	-0.10391
0.32721	0.20219
0.27621	0.63582
0.42922	-0.00188
0.50573	0.45726
0.14870	-0.48652
-0.08081	0.30422
-0.53984	-0.69059
-0.23382	-0.97117
0.12320	-0.18043
0.35272	1.88570
0.65874	0.02363
0.50573	1.12046
0.40372	-0.25695
0.17421	0.20219
-0.00431	-0.05289
-0.15732	-1.76191
-0.02981	0.35523
-0.05531	1.24800
0.27621	2.08976
0.14870	-1.40480
0.12320	-0.23145
0.32721	0.12566
0.07220	-0.46102
-0.10631	-0.41000
0.09770	0.48277
0.42922	0.81437
0.35272	0.48277
0.04670	-0.25695
-0.25932	0.40625
-0.10631	-0.20594
0.55673	-0.35899
0.55673	-0.28246
0.07220	0.40625
0.09770	0.89089
0.32721	0.71234
0.25071	0.53379
0.32721	0.40625
0.07220	-0.10391
0.02119	-0.18043
0.02119	-1.35379
0.02119	1.06945
-0.10631	-0.05289
0.07220	-0.00188
0.27621	0.81437
0.35272	0.15117
-0.02981	1.70714
-0.20832	-0.79262
0.25071	-1.17523
0.22521	0.73785
0.53123	0.15117
0.07220	0.78886
-0.25932	0.78886
0.17421	-0.38449
0.35272	-0.79262
0.42922	0.58480
0.22521	0.73785
0.22521	0.66132
0.32721	-0.84363
0.04670	-0.35899
-0.41233	-0.20594
-0.18282	0.30422
-0.08081	0.32972
-0.08081	0.55929
0.09770	-0.56305
0.42922	-0.23145
0.25071	0.71234
0.40372	0.58480
0.17421	0.55929
0.25071	0.55929
0.02119	-0.97117
-0.41233	-1.12422
-0.20832	-0.66508
0.30171	2.08976
0.55673	-0.12942
0.53123	0.78886
0.37822	-0.28246
0.12320	-0.30797
0.02119	0.61031
0.19971	0.25320
0.32721	0.38074
0.42922	-0.66508
0.42922	-1.12422
0.09770	0.73785
-0.23382	1.91120
-0.08081	0.78886
0.17421	0.53379
0.04670	-0.12942
0.02119	0.20219
0.14870	-0.56305
0.32721	0.04914
0.02119	-0.25695
-0.02981	-0.79262
-0.05531	0.22769
0.27621	1.06945
0.58223	0.43176
0.40372	-0.20594
0.17421	0.66132
0.30171	-2.55265
0.60773	-0.15492
0.12320	2.11527
-0.79486	1.12046
-0.92237	-0.15492
0.37822	0.17668
0.32721	-0.53754
0.73524	1.37554
0.58223	-0.02739
0.42922	1.04394
0.30171	0.61031
0.09770	-1.27726
-0.10631	-0.81812
-0.02981	1.06945
0.09770	0.58480
0.12320	0.86539
-0.02981	0.04914
-0.10631	-0.15492
0.27621	0.22769
0.22521	-1.35379
0.12320	-0.76711
0.02119	0.30422
-0.10631	1.40105
0.04670	1.01843
0.19971	0.78886
0.35272	0.83988
0.37822	-1.04770
0.48022	0.07465
0.14870	0.10015
-0.00431	0.27871
0.22521	0.45726
0.27621	0.35523
0.14870	0.10015
0.07220	-0.41000
-0.15732	-0.07840
0.19971	0.25320
0.50573	-0.30797
0.12320	0.45726
0.02119	-0.97117
-0.15732	0.61031
-0.25932	0.86539
0.07220	0.71234
0.25071	0.96742
0.42922	1.52859
0.14870	-1.20074
0.22521	-1.04770
0.50573	0.02363
0.17421	-0.97117
-0.23382	0.91640
-0.18282	-0.76711
-0.02981	1.17148
0.45472	0.32972
0.14870	0.50828
0.14870	1.52859
0.45472	-0.02739
0.42922	0.12566
0.25071	-0.00188
-0.02981	-0.30797
0.25071	-1.65988
0.09770	-0.89465
0.02119	0.38074
-0.20832	1.14597
-0.33583	-0.46102
0.07220	1.14597
0.17421	-0.02739
0.50573	0.17668
0.53123	0.27871
-0.33583	-0.84363
-0.10631	-0.18043
0.58223	-0.15492
0.37822	0.53379
0.32721	1.06945
0.12320	0.15117
0.14870	0.35523
0.22521	0.35523
-0.13181	-0.05289
-0.15732	-0.58856
-0.28482	0.83988
0.12320	0.53379
0.35272	-0.46102
0.22521	-1.43031
0.32721	0.30422
0.48022	1.09496
0.37822	0.89089
-0.51434	-0.66508
-0.51434	0.45726
-0.71835	0.04914
-0.18282	-0.66508
0.63323	1.32453
1.04126	0.32972
1.27078	0.61031
0.86275	-0.97117
0.35272	-0.23145
-0.33583	0.04914
-1.04987	0.45726
-0.33583	0.30422
0.27621	-0.02739
0.42922	1.12046
0.32721	0.04914
0.25071	0.27871
0.22521	0.12566
0.07220	-0.23145
0.12320	-0.18043
0.27621	1.22250
-0.15732	-0.48652
-0.38683	-0.99668
-0.31033	0.50828
-0.20832	-1.32828
0.35272	0.02363
0.86275	0.53379
0.83725	1.40105
0.25071	0.55929
0.27621	0.17668
0.04670	0.30422
0.19971	-0.28246
0.27621	-0.15492
-0.08081	0.63582
-0.05531	1.17148
-0.79486	-0.10391
-0.74385	0.99292
0.27621	-0.84363
0.78624	0.12566
0.73524	-0.05289
0.53123	-1.88945
0.22521	-0.61406
0.17421	0.32972
0.19971	1.68163
0.17421	1.88570
-0.15732	-1.78742
-0.20832	-0.00188
-0.02981	0.35523
0.19971	0.25320
0.48022	0.20219
0.35272	1.63062
0.02119	-0.25695
-0.00431	0.17668
-0.31033	-0.35899
0.42922	0.63582
0.65874	0.40625
0.58223	-0.66508
0.07220	-0.07840
0.12320	-0.99668
0.17421	0.20219
-0.18282	1.09496
0.04670	0.02363
0.19971	0.15117
0.32721	-0.46102
0.30171	-0.58856
0.09770	1.50308
-0.00431	1.60511
-0.38683	-0.81812
-0.69285	-1.07320
-0.31033	0.66132
0.58223	0.78886
1.04126	-0.41000
0.88825	-0.20594
0.58223	0.27871
0.12320	0.66132
-0.08081	0.83988
-0.05531	-1.88945
-0.13181	-0.30797
-0.08081	1.78367
0.27621	0.20219
0.35272	1.37554
0.14870	-2.83324
-0.00431	0.91640
-0.20832	1.42656
0.04670	-2.11902
0.30171	0.55929
0.19971	1.75816
0.19971	-0.25695
0.35272	0.07465
0.35272	0.04914
0.42922	-0.10391
-0.10631	0.02363
-0.31033	-0.10391
-0.94787	-0.28246
-0.59084	1.22250
0.78624	0.02363
1.24527	-0.28246
1.24527	0.07465
0.70974	0.81437
-0.13181	-0.05289
-0.61635	0.10015
-0.23382	0.02363
0.22521	-1.37929
0.35272	0.78886
0.17421	1.22250
0.19971	-0.28246
0.30171	0.66132
0.27621	0.89089
0.30171	0.53379
0.17421	-0.41000
-0.08081	-0.20594
0.02119	0.15117
0.07220	0.38074
-0.05531	-0.23145
0.12320	0.17668
0.27621	-0.94566
0.48022	0.12566
0.65874	1.50308
0.32721	0.73785
-0.48884	-0.84363
-1.33039	-0.81812
-0.33583	-0.10391
0.63323	0.30422
0.70974	0.73785
0.78624	1.24800
0.78624	-0.51203
0.53123	0.10015
0.22521	0.25320
-0.10631	0.43176
-0.08081	-1.17523
-0.10631	1.68163
-0.31033	0.40625
-0.28482	0.02363
-0.18282	0.20219
-0.38683	-0.66508
-0.28482	-0.71609
0.12320	0.27871
0.55673	1.14597
0.55673	0.25320
0.55673	-0.46102
0.17421	-0.00188
-0.02981	-0.07840
0.30171	0.53379
0.19971	0.61031
0.30171	0.61031
0.58223	-0.51203
0.17421	-0.30797
-0.43783	1.22250
-0.31033	-1.65988
0.12320	-0.07840
0.45472	2.03874
0.42922	0.43176
0.25071	-1.53234
0.04670	-0.81812
-0.00431	-1.83844
-0.36133	1.04394
-0.33583	2.65093
0.37822	-0.10391
0.30171	0.38074
-0.02981	0.22769
-0.13181	0.02363
0.35272	0.96742
0.63323	0.02363
0.73524	0.68683
0.53123	-0.74160
0.42922	-0.07840
0.12320	0.48277
-0.18282	0.27871
-0.25932	-0.00188
-0.00431	-0.41000
0.32721	-0.46102
0.07220	-0.33348
0.22521	0.96742
0.32721	1.12046
0.04670	-0.89465
-0.08081	-0.12942
-0.33583	1.06945
-0.05531	1.12046
0.53123	0.61031
0.68424	-0.28246
0.58223	-1.07320
0.42922	-1.20074
0.30171	0.20219
0.09770	1.09496
0.30171	0.94191
-0.08081	0.50828
-0.02981	-0.38449
-0.20832	0.32972
-0.38683	-1.48133
0.02119	0.86539
0.09770	-0.07840
0.22521	-0.10391
0.30171	0.43176
0.25071	-0.23145
0.14870	0.20219
0.07220	0.15117
-0.05531	0.38074
0.09770	-1.07320
0.30171	1.65613
0.19971	-0.84363
-0.00431	-0.15492
-0.99887	0.73785
-0.89686	0.53379
0.65874	0.68683
0.73524	0.45726
0.63323	-0.84363
0.53123	0.30422
0.50573	0.50828
0.12320	0.10015
-0.10631	-1.27726
-0.10631	0.25320
-0.41233	0.22769
-0.28482	-0.30797
-0.08081	0.58480
0.22521	1.47757
0.58223	-1.12422
0.63323	-0.15492
0.45472	0.25320
0.32721	-0.20594
0.12320	0.53379
-0.00431	1.17148
-0.10631	0.58480
-0.10631	-0.12942
-0.25932	0.38074
0.07220	-0.33348
0.58223	0.76336
0.53123	0.32972
0.35272	-0.35899
0.09770	0.02363
0.25071	-0.99668
0.25071	-0.58856
0.22521	0.73785
-0.20832	1.22250
-0.41233	-0.02739
-0.36133	0.22769
0.27621	0.81437
0.48022	-0.10391
0.58223	0.86539
0.32721	-1.99148
0.19971	-0.18043
0.42922	0.30422
0.22521	0.53379
-0.10631	1.68163
-0.15732	0.35523
0.14870	0.53379
0.09770	-0.30797
0.07220	0.02363
0.25071	0.25320
0.45472	-0.81812
0.25071	-0.43551
0.17421	1.88570
-0.00431	-0.94566
-0.02981	0.15117
-0.08081	-0.02739
-0.13181	-0.10391
0.07220	0.50828
0.37822	0.50828
0.78624	0.22769
0.68424	-0.53754
0.63323	0.38074
0.02119	-0.76711
-0.28482	-0.15492
-0.36133	0.30422
-0.28482	2.54890
0.48022	0.99292
0.42922	-1.53234
0.30171	0.22769
0.02119	-0.20594
-0.18282	0.22769
0.12320	-0.46102
0.04670	0.04914
0.07220	1.19699
0.27621	-0.18043
0.37822	0.15117
0.35272	-0.05289
0.12320	0.12566
-0.10631	-0.99668
-0.53984	0.27871
-0.23382	0.78886
0.42922	-0.18043
0.78624	0.73785
0.55673	-0.05289
0.45472	0.89089
0.32721	0.61031
0.19971	-0.38449
-0.10631	-1.14973
-0.13181	0.76336
-0.10631	1.52859
-0.28482	0.12566
-0.05531	-1.40480
0.04670	1.12046
0.17421	0.02363
-0.23382	-1.86394
0.07220	-0.15492
0.53123	0.83988
0.30171	0.58480
0.32721	0.55929
0.37822	0.30422
0.12320	0.32972
0.12320	0.15117
-0.13181	0.25320
0.09770	0.40625
0.42922	0.04914
0.48022	0.02363
0.14870	-0.35899
0.19971	0.30422
0.12320	0.20219
-0.02981	-0.12942
-0.20832	-0.61406
-0.10631	0.58480
0.27621	0.43176
0.32721	0.10015
0.09770	-0.89465
0.02119	0.86539
0.35272	1.27351
0.42922	-0.00188
0.37822	0.45726
0.32721	-0.30797
0.07220	0.81437
-0.15732	-2.14453
0.04670	-0.63957
0.14870	0.94191
0.22521	0.63582
-0.05531	0.58480
-0.25932	0.71234
0.35272	0.73785
0.45472	0.76336
0.35272	-0.61406
0.09770	-0.86914
0.14870	-1.07320
0.25071	-0.07840
0.04670	0.86539
0.04670	0.40625
0.19971	0.68683
0.42922	-0.38449
0.48022	-0.43551
0.14870	1.22250
-0.28482	-0.05289
-0.48884	0.22769
-0.15732	0.58480
-0.13181	0.89089
0.30171	0.32972
0.81175	-0.76711
0.86275	-0.25695
0.45472	0.86539
0.02119	0.20219
-0.36133	0.04914
-0.20832	-0.18043
0.14870	-1.04770
0.19971	-1.76191
0.40372	1.50308
0.22521	0.53379
0.17421	1.14597
0.37822	0.99292
0.22521	-0.02739
0.27621	0.27871
-0.08081	0.25320
-0.36133	-0.63957
-0.31033	-0.35899
0.02119	-0.15492
0.12320	-0.28246
0.12320	0.63582
0.37822	0.17668
0.93925	0.22769
0.78624	0.35523
0.27621	0.66132
-0.28482	-0.10391
-0.23382	-0.56305
-0.13181	-0.38449
-0.46334	0.15117
-0.74385	1.14597
-0.00431	-2.09351
0.45472	-0.18043
0.76074	1.83468
0.73524	1.09496
0.58223	0.25320
0.40372	-0.92016
-0.28482	-0.41000
-0.56534	1.09496
-0.41233	0.48277
-0.18282	0.99292
0.37822	0.04914
0.14870	-0.05289
0.27621	-1.12422
0.25071	1.14597
0.63323	-0.46102
0.32721	0.58480
-0.20832	0.40625
-1.07538	-1.17523
-0.79486	0.45726
0.73524	0.83988
0.99026	0.20219
1.04126	-0.07840
0.65874	1.04394
0.48022	0.17668
0.17421	-0.56305
0.02119	-1.37929
0.09770	1.52859
0.12320	0.96742
-0.28482	0.10015
-0.51434	0.58480
-0.41233	-0.56305
-0.18282	-0.05289
0.22521	0.38074
0.42922	1.12046
0.19971	-0.12942
0.32721	-0.99668
0.70974	0.61031
0.73524	-0.15492
0.09770	0.71234
-0.53984	0.15117
-0.13181	-1.09871
0.19971	-0.15492
0.12320	0.43176
0.32721	-0.89465
0.25071	0.43176
0.12320	1.29902
-0.02981	0.58480
-0.02981	0.86539
0.19971	0.12566
0.48022	0.86539
0.14870	-1.68539
-0.13181	0.53379
-0.08081	0.15117
-0.33583	-0.18043
0.40372	1.09496
0.86275	0.15117
0.55673	0.43176
0.09770	-0.66508
-0.00431	-0.18043
0.27621	1.27351
0.53123	-0.48652
0.53123	0.43176
0.42922	0.38074
-0.20832	0.63582
-0.33583	0.10015
-0.46334	-0.12942
0.09770	0.76336
0.73524	-0.23145
0.48022	-0.25695
0.14870	0.35523
-0.46334	-0.41000
-0.74385	0.43176
0.40372	0.35523
0.86275	0.73785
0.83725	0.02363
0.63323	0.48277
0.35272	0.96742
0.12320	0.15117
-0.08081	-0.07840
0.12320	-2.34859
-0.05531	1.60511
0.09770	1.01843
-0.02981	-0.76711
-0.10631	1.04394
-0.20832	-0.48652
0.17421	0.48277
0.48022	0.45726
0.22521	0.30422
-0.15732	0.25320
-0.38683	-2.09351
0.09770	0.04914
0.73524	1.17148
0.68424	-0.43551
0.68424	1.04394
0.25071	0.81437
0.07220	-0.63957
0.02119	1.12046
-0.08081	-0.74160
-0.31033	1.60511
0.07220	0.78886
0.17421	-1.27726
0.25071	-0.10391
0.42922	-0.66508
0.14870	0.50828
0.22521	0.43176
0.22521	0.99292
0.22521	-0.02739
0.07220	0.25320
-0.43783	0.38074
-0.31033	-0.25695
-0.00431	0.66132
0.30171	-0.35899
0.58223	-0.66508
0.65874	-0.69059
0.60773	1.65613
0.40372	1.19699
0.17421	0.07465
-0.13181	0.22769
-0.25932	0.96742
-0.33583	-0.46102
-0.02981	-0.74160
0.37822	-0.69059
0.19971	0.89089
0.14870	0.25320
0.07220	0.04914
0.19971	-0.46102
0.37822	0.83988
0.07220	-1.60887
-0.23382	-0.07840
-0.25932	-0.05289
-0.10631	1.50308
0.45472	1.96222
0.86275	0.04914
0.73524	-1.91496
0.22521	1.22250
-0.23382	0.81437
-0.31033	0.25320
-0.00431	0.20219
0.32721	0.32972
0.17421	-0.07840
-0.08081	-0.69059
0.37822	-0.63957
0.07220	1.12046
0.09770	0.76336
0.22521	-0.07840
0.73524	0.02363
0.30171	-0.99668
0.12320	0.15117
-0.25932	0.20219
-0.41233	0.12566
0.07220	0.04914
0.27621	0.35523
0.45472	1.75816
0.40372	0.61031
0.37822	-0.33348
0.30171	-1.55785
-0.10631	-0.35899
-0.20832	1.17148
-0.15732	1.32453
-0.13181	-0.23145
0.19971	0.50828
0.42922	-0.38449
0.45472	-0.07840
0.53123	1.12046
0.32721	-3.16484
-0.31033	0.66132
-0.53984	0.55929
-0.23382	0.32972
0.14870	0.81437
0.50573	1.09496
0.45472	0.12566
0.60773	-0.99668
0.50573	-0.79262
0.37822	-0.02739
0.19971	0.94191
-0.00431	0.55929
-0.20832	0.35523
-0.48884	-0.30797
-0.56534	-0.05289
-0.05531	0.86539
0.07220	-0.15492
0.50573	-0.23145
0.55673	0.30422
0.53123	0.10015
0.32721	0.17668
0.53123	0.02363
0.22521	-0.07840
-0.69285	-1.58336
-0.08081	0.61031
0.22521	0.22769
0.42922	0.96742
0.48022	0.99292
0.30171	-0.61406
-0.00431	-0.25695
-0.00431	0.32972
-0.00431	0.96742
-0.00431	-0.99668
0.14870	0.99292
0.07220	0.30422
-0.18282	-0.20594
-0.36133	0.32972
0.09770	0.68683
0.53123	-1.17523
0.53123	0.83988
0.42922	0.83988
0.55673	-1.02219
0.19971	-0.23145
-0.20832	0.27871
-0.28482	-0.76711
0.09770	0.07465
0.25071	0.40625
0.37822	0.53379
0.35272	0.94191
0.58223	0.99292
0.25071	-0.15492
-0.13181	-0.41000
-0.31033	0.20219
-0.10631	0.71234
-0.08081	-1.58336
0.07220	0.81437
-0.13181	-0.15492
0.25071	-0.18043
0.53123	0.25320
0.60773	0.35523
0.50573	1.35003
0.27621	-0.35899
0.02119	-0.35899
-0.25932	0.76336
-0.00431	0.30422
0.02119	-0.00188
0.12320	-0.35899
-0.31033	0.50828
0.14870	0.76336
0.91375	0.07465
0.68424	-0.41000
-0.02981	0.30422
-0.25932	-1.17523
-0.33583	0.96742
0.37822	0.25320
0.37822	0.40625
0.37822	-0.05289
0.55673	0.43176
0.32721	0.50828
0.32721	0.81437
0.04670	-0.28246
-0.08081	1.98773
-0.31033	-1.30277
-0.38683	-0.61406
0.17421	-1.12422
0.35272	1.57960
0.63323	0.38074
0.58223	0.20219
0.17421	-0.20594
-0.43783	-0.15492
-0.64185	-0.99668
0.22521	0.89089
0.45472	0.15117
0.19971	0.83988
-0.10631	-0.20594
0.07220	0.12566
0.32721	-0.07840
0.76074	0.43176
0.73524	0.43176
0.45472	0.38074
0.12320	0.58480
-0.43783	0.15117
-0.38683	-0.02739
0.35272	-0.97117
0.22521	-0.71609
-0.31033	1.40105
-0.00431	0.04914
0.30171	0.91640
0.53123	0.12566
0.30171	-0.18043
0.14870	1.06945
0.17421	-0.35899
0.17421	-0.20594
0.19971	0.32972
0.09770	-0.15492
-0.46334	-0.15492
-0.94787	1.24800
-0.48884	-1.09871
0.60773	0.81437
0.93925	-0.71609
0.70974	0.35523
0.60773	0.55929
0.19971	0.76336
-0.25932	0.83988
-0.43783	-0.86914
0.09770	-0.61406
0.25071	1.27351
0.27621	-0.97117
0.35272	0.99292
0.37822	-0.05289
-0.10631	0.66132
-0.05531	-0.38449
0.22521	0.15117
-0.05531	0.58480
-0.61635	0.15117
-0.18282	0.27871
0.78624	-0.23145
1.11776	0.38074
0.93925	-0.30797
0.45472	1.12046
0.12320	0.15117
-0.41233	0.55929
-0.18282	-0.51203
0.09770	1.24800
0.09770	-0.76711
0.19971	-0.10391
0.09770	0.04914
-0.08081	0.22769
-0.02981	0.78886
0.02119	0.02363
0.27621	-0.25695
0.40372	0.12566
0.22521	0.86539
-0.08081	-2.65468
0.04670	1.27351
0.25071	0.78886
0.07220	0.07465
0.19971	0.32972
0.17421	1.04394
0.30171	-1.07320
0.45472	0.35523
0.37822	0.32972
0.25071	0.02363
-0.25932	0.35523
-0.46334	0.58480
0.09770	1.14597
0.09770	-1.71090
0.37822	-0.81812
0.65874	0.81437
0.35272	0.63582
0.14870	0.53379
-0.08081	0.27871
-0.23382	0.17668
0.04670	-0.00188
0.09770	-0.43551
0.04670	0.32972
0.17421	0.68683
0.30171	-1.78742
0.27621	1.04394
0.22521	-0.20594
0.22521	0.45726
0.48022	0.45726
-0.43783	0.73785
-0.43783	0.25320
-0.43783	-0.97117
-0.18282	0.32972
0.68424	0.61031
0.93925	0.48277
0.91375	-0.33348
0.73524	0.55929
0.32721	0.15117
-0.05531	-1.58336
-0.31033	0.45726
-0.31033	1.04394
-0.23382	0.45726
-0.15732	-0.53754
-0.13181	0.94191
0.25071	-0.05289
0.40372	0.94191
0.40372	0.32972
0.25071	-0.25695
0.17421	0.10015
-0.10631	-0.46102
-0.28482	-1.17523
0.27621	-0.25695
0.30171	0.07465
0.45472	0.30422
0.42922	1.09496
0.32721	0.10015
0.35272	0.76336
-0.20832	0.48277
-0.33583	0.43176
-0.00431	-0.30797
0.25071	-0.12942
0.27621	0.17668
0.40372	-0.02739
0.48022	0.12566
0.40372	-0.28246
0.09770	0.40625
-0.28482	0.30422
-0.56534	0.43176
0.25071	-0.00188
0.76074	-0.07840
0.35272	0.76336
-0.10631	0.20219
-0.31033	-0.86914
-0.43783	1.35003
0.25071	1.17148
0.78624	-0.86914
0.53123	-1.91496
0.27621	-0.18043
-0.00431	2.29382
-0.05531	1.12046
0.12320	-1.53234
-0.00431	1.32453
-0.02981	0.35523
0.27621	-0.46102
0.42922	0.35523
0.58223	-0.58856
0.12320	-0.79262
-0.25932	0.96742
-0.46334	-0.41000
-0.33583	0.58480
0.25071	-0.10391
0.50573	0.25320
0.53123	0.73785
0.58223	-0.86914
0.50573	0.96742
0.30171	1.50308
-0.05531	-0.61406
-0.48884	-0.35899
-0.10631	0.07465
-0.56534	0.55929
-0.38683	0.50828
0.68424	-0.30797
0.76074	-0.05289
0.58223	0.66132
0.48022	0.96742
0.30171	0.04914
-0.02981	0.27871
-0.33583	-0.12942
-0.31033	0.17668
0.22521	-0.46102
0.32721	0.66132
0.25071	0.10015
-0.02981	-0.99668
0.12320	0.96742
0.32721	0.22769
0.42922	-2.06800
0.14870	-0.20594
-0.41233	1.63062
-0.20832	0.35523
0.07220	0.81437
0.27621	0.66132
0.58223	0.71234
0.37822	-0.18043
0.27621	0.38074
0.40372	0.12566
0.50573	0.02363
0.17421	-1.30277
-0.76936	-0.20594
-1.27939	-0.05289
0.17421	-0.07840
0.53123	0.78886
0.63323	-0.10391
0.73524	0.45726
0.48022	0.83988
0.37822	0.73785
-0.15732	0.17668
-0.10631	1.37554
0.27621	-0.25695
0.12320	-1.35379
-0.00431	-1.09871
-0.31033	0.40625
-0.13181	1.17148
0.32721	-0.07840
0.32721	1.35003
0.17421	-0.02739
0.60773	0.86539
0.50573	-0.07840
0.25071	0.17668
0.07220	0.45726
0.14870	-0.02739
0.35272	-0.05289
0.22521	-0.07840
-0.10631	0.04914
-0.31033	-0.76711
-0.00431	1.06945
0.04670	0.45726
0.35272	-0.76711
0.42922	1.93671
0.48022	-0.41000
0.14870	-1.68539
-0.23382	-0.48652
-0.18282	1.40105
-0.28482	0.76336
0.12320	0.86539
0.35272	0.71234
0.73524	-0.15492
0.63323	0.73785
0.35272	-0.92016
0.50573	1.01843
-0.00431	0.17668
-0.20832	0.50828
0.02119	-0.99668
0.25071	-0.76711
0.14870	-0.28246
-0.18282	0.15117
-0.00431	0.63582
0.27621	0.68683
0.07220	0.55929
0.12320	0.45726
0.04670	-0.28246
0.22521	-1.30277
0.02119	1.37554
0.12320	0.63582
0.50573	1.12046
0.53123	-0.18043
0.50573	-0.69059
0.17421	-0.10391
-0.08081	0.99292
-0.31033	0.25320
-0.10631	0.38074
0.25071	0.32972
0.40372	-0.12942
0.35272	0.20219
0.27621	-1.81293
-0.13181	1.17148
0.02119	-0.28246
-0.13181	0.94191
-0.05531	0.35523
0.22521	0.76336
0.12320	-0.89465
0.22521	0.30422
0.35272	0.66132
0.42922	0.10015
0.35272	0.25320
0.53123	0.17668
0.48022	0.73785
0.04670	0.25320
-0.18282	0.04914
-0.74385	-0.58856
-0.56534	0.38074
0.32721	-0.07840
0.40372	0.48277
0.32721	-1.32828
0.12320	0.38074
0.27621	-0.05289
0.60773	0.43176
0.48022	0.35523
0.32721	0.91640
0.45472	0.20219
0.14870	1.22250
0.02119	0.45726
-0.36133	-0.46102
-0.66735	-0.20594
0.07220	1.17148
0.48022	-0.43551
0.45472	0.30422
0.19971	0.02363
0.02119	-1.73640
0.19971	0.12566
0.25071	0.58480
0.48022	0.45726
0.58223	0.63582
0.27621	-0.05289
-0.33583	0.76336
-0.18282	0.15117
-0.28482	-2.06800
0.04670	0.45726
0.22521	1.04394
0.73524	2.16628
0.65874	-0.51203
0.53123	-0.33348
0.09770	0.22769
-0.02981	0.35523
0.17421	-1.53234
0.14870	0.78886
0.14870	0.38074
-0.15732	-0.35899
-0.13181	0.35523
-0.02981	0.61031
-0.23382	0.10015
-0.23382	0.38074
0.35272	0.81437
0.76074	-0.46102
0.65874	-0.28246
0.37822	0.96742
-0.13181	-2.42511
-0.28482	-0.30797
0.19971	1.35003
0.30171	-0.12942
0.37822	0.73785
0.12320	0.50828
0.19971	0.94191
0.02119	1.17148
-0.20832	-0.38449
-0.02981	0.04914
0.30171	0.58480
0.50573	-0.05289
0.32721	-0.15492
0.14870	-1.02219
-0.00431	-0.25695
-0.00431	0.71234
-0.05531	0.30422
0.07220	-0.86914
-0.18282	0.58480
0.30171	0.76336
0.58223	0.45726
0.37822	-0.89465
0.07220	0.38074
-0.28482	1.14597
-0.10631	0.07465
0.42922	0.38074
0.30171	-0.10391
0.12320	0.02363
-0.02981	-1.25176
0.42922	0.07465
0.68424	1.73265
0.50573	0.20219
0.27621	0.43176
-0.00431	0.63582
-0.08081	0.32972
-0.08081	0.02363
-0.08081	-0.66508
-0.08081	-0.30797
-0.05531	0.07465
0.02119	0.53379
0.30171	-0.79262
0.25071	1.04394
0.19971	0.04914
0.09770	-0.23145
0.07220	0.15117
0.17421	-0.23145
-0.05531	1.45206
0.19971	0.66132
0.50573	0.71234
0.60773	-0.66508
0.50573	-0.53754
0.30171	0.91640
0.09770	0.50828
0.12320	-0.05289
0.19971	-0.66508
-0.02981	0.07465
-0.18282	0.30422
-0.31033	0.17668
-0.59084	-0.71609
0.02119	0.15117
0.42922	1.14597
0.63323	0.45726
0.53123	0.02363
-0.00431	0.53379
-0.20832	-0.28246
0.42922	-0.02739
0.45472	0.22769
0.48022	0.30422
0.40372	-0.46102
0.22521	0.58480
0.09770	-0.99668
-0.13181	0.50828
-0.36133	0.27871
-0.13181	0.96742
0.22521	0.71234
0.27621	-0.18043
0.12320	0.22769
0.04670	-1.17523
-0.23382	-0.46102
0.04670	1.47757
0.70974	0.78886
0.50573	0.10015
0.27621	-1.88945
0.12320	1.98773
0.25071	-0.69059
0.07220	1.17148
0.30171	-1.27726
0.22521	0.89089
-0.05531	1.09496
-0.38683	-0.46102
-0.15732	0.32972
0.25071	-0.38449
0.22521	-0.20594
0.37822	0.15117
0.07220	0.66132
0.07220	0.43176
0.35272	0.35523
0.73524	-1.09871
0.35272	1.01843
-0.13181	0.73785
-0.51434	0.10015
-0.02981	-0.00188
0.48022	-0.20594
0.63323	0.22769
0.55673	-0.15492
0.45472	-0.48652
0.27621	0.10015
0.14870	1.70714
-0.20832	0.22769
-0.08081	-0.15492
-0.28482	-0.48652
-0.38683	0.66132
-0.61635	-0.23145
0.04670	0.38074
0.58223	0.76336
0.60773	-3.06281
0.40372	-0.28246
0.25071	-0.07840
0.37822	1.06945
0.22521	3.03355
0.27621	0.83988
0.14870	1.22250
-0.00431	-0.35899
0.12320	-1.04770
-0.08081	-0.58856
-0.13181	0.22769
-0.00431	0.78886
0.17421	-1.20074
0.12320	-0.69059
0.14870	-0.25695
0.32721	1.35003
0.60773	0.86539
0.37822	0.04914
-0.05531	0.43176
-0.15732	-0.43551
-0.71835	0.55929
-0.10631	0.30422
0.42922	-0.25695
0.65874	0.30422
0.70974	0.30422
0.73524	0.43176
0.40372	-0.43551
-0.15732	0.02363
-0.18282	0.15117
-0.18282	-0.05289
-0.13181	-0.28246
0.07220	1.40105
