0.12320	-0.25695
0.12320	-0.51203
0.17421	0.61031
0.17421	0.76336
0.14870	-0.12942
0.04670	-0.05289
0.07220	0.35523
0.07220	-0.69059
0.02119	0.07465
0.09770	0.63582
0.09770	0.66132
0.12320	0.17668
0.17421	-0.02739
0.17421	0.20219
0.07220	0.04914
0.07220	0.12566
0.07220	-0.23145
0.04670	0.04914
0.12320	0.25320
0.14870	0.32972
0.14870	0.20219
0.14870	0.32972
0.14870	0.38074
0.22521	0.45726
0.22521	0.12566
0.22521	0.02363
0.19971	-0.05289
0.14870	-0.05289
0.19971	0.45726
0.14870	-1.07320
0.14870	0.50828
0.09770	0.43176
0.07220	0.25320
0.17421	0.50828
0.12320	0.50828
0.14870	-0.20594
0.12320	-1.12422
0.02119	0.58480
0.09770	0.30422
0.14870	0.12566
0.14870	0.25320
0.14870	0.32972
0.19971	0.38074
0.22521	0.12566
0.17421	-0.41000
0.12320	0.02363
0.09770	0.10015
0.07220	0.17668
0.04670	0.12566
0.14870	0.15117
0.19971	-0.10391
0.22521	0.20219
0.17421	0.40625
0.17421	-0.10391
0.14870	0.48277
0.14870	0.17668
0.12320	0.04914
0.09770	0.04914
0.04670	0.20219
0.14870	0.07465
0.17421	0.58480
0.14870	-0.18043
0.19971	-0.66508
0.14870	0.12566
0.17421	0.71234
0.19971	0.15117
0.12320	-0.53754
0.09770	0.48277
0.07220	0.35523
0.14870	-0.46102
0.07220	0.68683
0.14870	0.61031
0.19971	0.35523
0.25071	0.12566
0.12320	-0.00188
0.12320	-0.15492
0.07220	-0.18043
0.07220	-0.12942
0.04670	0.17668
0.14870	0.38074
0.17421	0.10015
0.22521	0.17668
0.17421	0.58480
0.22521	0.40625
0.22521	0.10015
0.19971	-0.20594
0.19971	0.15117
0.19971	-0.74160
0.17421	0.78886
0.22521	0.43176
0.22521	0.10015
0.22521	0.22769
0.27621	0.25320
0.17421	0.58480
0.17421	0.73785
0.14870	-0.48652
0.12320	0.48277
0.02119	0.07465
0.09770	0.10015
0.12320	0.12566
0.14870	0.32972
0.19971	-0.56305
0.17421	0.38074
0.19971	0.04914
0.17421	0.10015
0.19971	0.04914
0.22521	0.07465
0.19971	0.40625
0.14870	0.07465
0.17421	-0.76711
0.22521	0.78886
0.14870	0.32972
0.17421	0.22769
0.22521	0.10015
0.22521	0.43176
0.14870	0.22769
0.09770	-0.05289
0.07220	0.38074
0.04670	-0.76711
0.07220	0.20219
0.09770	0.61031
0.14870	0.17668
0.19971	0.04914
0.19971	0.22769
0.22521	0.30422
0.17421	0.04914
0.19971	-0.12942
0.09770	0.02363
0.12320	0.15117
0.14870	0.02363
0.12320	0.43176
0.07220	0.40625
0.12320	-0.07840
0.09770	0.07465
0.09770	-0.20594
0.04670	0.43176
0.09770	0.27871
0.02119	0.12566
0.02119	0.15117
0.14870	0.07465
0.19971	-0.00188
0.22521	0.25320
0.17421	0.53379
0.22521	0.32972
0.17421	0.10015
0.07220	0.25320
0.12320	-0.18043
0.07220	-0.58856
0.12320	0.35523
0.12320	0.27871
0.12320	0.32972
0.09770	-0.84363
0.22521	0.76336
0.12320	0.89089
0.09770	0.07465
0.14870	-0.86914
0.12320	0.73785
0.14870	-0.25695
0.14870	0.50828
0.14870	0.15117
0.17421	0.02363
0.19971	0.17668
0.25071	0.48277
0.22521	0.17668
0.19971	0.02363
0.12320	-0.10391
0.12320	-0.07840
0.07220	0.17668
0.12320	0.07465
0.07220	0.15117
0.09770	0.25320
0.12320	0.27871
0.07220	0.15117
0.12320	-0.00188
0.12320	0.07465
0.07220	0.22769
0.04670	0.04914
0.02119	-0.07840
0.02119	0.25320
0.09770	0.35523
0.12320	-0.05289
0.09770	0.20219
0.19971	0.02363
0.14870	0.02363
0.09770	0.45726
0.04670	0.50828
0.09770	-0.15492
0.02119	-0.30797
0.09770	-0.00188
0.07220	0.45726
0.09770	-0.51203
0.09770	-0.20594
0.12320	0.50828
0.12320	-0.30797
0.07220	-0.61406
0.07220	-0.94566
0.07220	1.45206
0.09770	0.12566
0.12320	0.63582
0.12320	0.43176
0.14870	0.25320
0.19971	0.04914
0.14870	0.15117
0.19971	0.25320
0.09770	-0.12942
0.04670	-0.02739
0.04670	-0.25695
0.12320	-0.30797
0.07220	-0.00188
0.14870	0.30422
0.17421	0.43176
0.17421	0.15117
0.19971	0.55929
0.17421	0.27871
0.14870	0.12566
0.14870	0.12566
0.22521	0.43176
0.17421	0.32972
0.17421	0.10015
0.17421	0.12566
0.25071	0.50828
0.14870	0.32972
0.17421	-0.07840
0.19971	0.04914
0.12320	0.20219
0.07220	0.20219
0.04670	0.20219
0.07220	-0.86914
0.07220	-0.35899
0.07220	0.76336
0.09770	-0.10391
0.17421	1.22250
0.27621	0.30422
0.25071	0.04914
0.17421	0.12566
0.12320	0.15117
0.07220	-0.23145
0.12320	-0.10391
0.14870	-0.12942
0.19971	-1.04770
0.17421	0.40625
0.14870	0.81437
0.17421	0.96742
0.19971	0.48277
0.12320	-0.00188
0.04670	-0.07840
0.09770	0.22769
0.14870	0.12566
0.12320	-0.00188
0.17421	-0.12942
0.12320	0.04914
0.09770	0.50828
0.14870	0.35523
0.27621	0.35523
0.22521	-0.56305
0.12320	0.25320
0.12320	-0.05289
0.09770	0.38074
0.04670	-0.23145
0.14870	-0.25695
0.17421	0.04914
0.19971	0.99292
0.25071	0.58480
0.27621	0.38074
0.22521	0.10015
0.19971	-1.04770
0.17421	0.76336
0.19971	-0.05289
0.12320	-0.48652
0.12320	0.48277
0.09770	0.48277
0.09770	0.32972
0.12320	0.40625
0.12320	-0.05289
0.09770	0.15117
0.07220	0.02363
0.04670	0.25320
0.04670	-0.00188
0.04670	-0.12942
0.04670	-0.00188
0.12320	-0.25695
0.12320	0.04914
0.19971	0.20219
0.17421	0.25320
0.12320	0.40625
0.07220	0.07465
0.07220	0.07465
0.04670	-0.25695
0.07220	-0.05289
0.07220	0.07465
0.12320	0.35523
0.17421	0.58480
0.12320	-0.58856
0.14870	1.19699
0.12320	-0.66508
0.17421	0.48277
0.22521	0.15117
0.17421	-0.05289
0.14870	0.27871
0.14870	0.27871
0.17421	0.35523
0.14870	0.50828
0.14870	0.15117
0.17421	-0.05289
0.14870	0.10015
0.14870	-0.07840
0.14870	0.04914
0.12320	0.35523
0.12320	-0.02739
0.14870	0.76336
0.12320	-0.02739
0.17421	-0.15492
0.19971	-0.33348
0.17421	0.25320
0.14870	0.50828
0.14870	0.43176
0.14870	0.35523
0.12320	-0.10391
0.12320	-0.56305
0.14870	-0.15492
0.12320	0.12566
0.14870	0.40625
0.17421	0.22769
0.17421	0.10015
0.17421	0.10015
0.12320	0.15117
0.14870	0.25320
0.14870	0.20219
0.04670	0.10015
0.09770	-0.12942
0.12320	-0.02739
0.09770	0.20219
0.12320	0.58480
0.12320	0.91640
0.09770	-1.22625
0.12320	0.30422
0.12320	0.89089
0.07220	-0.07840
0.07220	-0.02739
0.09770	-0.35899
0.14870	-0.20594
0.12320	-0.58856
0.17421	0.76336
0.22521	0.96742
0.22521	1.27351
0.12320	0.38074
0.12320	-0.25695
0.09770	-0.71609
0.07220	0.04914
0.09770	-0.12942
0.12320	-0.07840
0.04670	0.27871
0.09770	-0.12942
0.12320	0.48277
0.14870	0.32972
0.14870	0.25320
0.12320	-0.15492
0.12320	-0.00188
0.12320	0.12566
0.17421	0.48277
0.19971	0.40625
0.22521	0.35523
0.25071	0.25320
0.17421	0.17668
0.14870	0.10015
0.07220	0.15117
0.07220	-0.07840
0.12320	-0.20594
0.12320	-0.33348
0.12320	-0.05289
0.09770	0.25320
0.07220	0.58480
0.12320	-0.07840
0.14870	-0.25695
0.07220	1.22250
0.07220	-0.12942
0.09770	-0.46102
0.04670	0.38074
0.09770	-0.07840
0.09770	0.02363
0.07220	0.27871
0.09770	0.02363
0.07220	0.94191
0.12320	0.38074
0.12320	-0.56305
0.09770	-0.35899
0.07220	0.55929
0.09770	-0.63957
0.04670	0.12566
0.14870	0.45726
0.22521	0.15117
0.22521	0.20219
0.22521	0.04914
0.27621	0.38074
0.17421	0.17668
0.12320	0.27871
0.14870	-0.05289
0.09770	0.04914
0.12320	0.15117
0.09770	0.15117
0.12320	0.22769
0.07220	0.20219
0.14870	0.12566
0.17421	0.38074
0.17421	0.17668
0.14870	-0.05289
0.19971	0.20219
0.17421	-0.20594
0.17421	0.91640
0.19971	0.27871
0.17421	-0.63957
0.12320	0.55929
0.14870	0.30422
0.12320	0.53379
0.09770	0.02363
0.07220	-0.15492
0.14870	-1.12422
0.09770	0.43176
0.17421	0.63582
0.19971	0.63582
0.22521	0.55929
0.25071	0.15117
0.17421	-0.35899
0.17421	0.04914
0.17421	0.10015
0.04670	0.15117
0.07220	0.04914
0.04670	-0.25695
0.02119	-0.07840
0.07220	0.91640
0.14870	0.32972
0.09770	-0.12942
0.14870	-0.02739
0.19971	0.27871
0.14870	-0.38449
0.12320	0.04914
0.19971	0.50828
0.12320	0.45726
0.09770	0.35523
0.09770	0.40625
0.19971	0.76336
0.22521	-0.61406
0.22521	0.48277
0.22521	0.30422
0.17421	-0.63957
0.09770	0.43176
0.19971	0.78886
0.12320	0.15117
0.12320	0.10015
0.17421	0.17668
0.14870	0.17668
0.17421	0.15117
0.17421	0.43176
0.25071	-0.07840
0.12320	0.02363
0.12320	0.12566
0.14870	0.07465
0.17421	-0.15492
0.12320	-0.00188
0.12320	0.04914
0.12320	0.45726
0.17421	0.45726
0.12320	0.43176
0.12320	0.50828
0.09770	0.07465
0.09770	-0.76711
0.17421	0.20219
0.14870	-0.00188
0.12320	0.17668
0.19971	-0.10391
0.22521	0.12566
0.14870	-0.05289
0.14870	0.91640
0.07220	0.71234
0.09770	-0.07840
0.14870	-0.20594
0.12320	0.07465
0.17421	0.02363
0.19971	0.07465
0.19971	-0.12942
0.17421	0.04914
0.14870	1.09496
0.14870	0.07465
0.12320	0.04914
0.09770	0.07465
0.04670	-0.05289
0.09770	0.07465
0.02119	-0.12942
0.09770	0.20219
0.12320	-0.05289
0.22521	0.27871
0.22521	0.30422
0.22521	0.25320
0.27621	0.20219
0.14870	0.45726
0.14870	0.35523
0.09770	0.32972
0.04670	-0.56305
0.09770	-0.18043
0.12320	-0.25695
0.14870	0.78886
0.22521	0.38074
0.14870	0.35523
0.12320	0.22769
0.12320	-0.18043
0.19971	0.38074
0.14870	-0.18043
0.17421	-0.20594
0.19971	0.58480
0.19971	0.40625
0.25071	0.25320
0.19971	-0.23145
0.25071	-0.10391
0.19971	0.86539
0.14870	0.32972
0.12320	0.53379
0.14870	0.20219
0.17421	-0.05289
0.17421	0.66132
0.19971	-0.63957
0.22521	0.15117
0.12320	0.68683
0.17421	-0.05289
0.17421	0.17668
0.14870	0.17668
0.04670	0.07465
0.07220	0.15117
0.09770	0.20219
0.12320	0.27871
0.14870	0.04914
0.14870	0.02363
0.14870	0.25320
0.25071	0.25320
0.25071	0.35523
0.14870	0.32972
0.14870	0.20219
0.17421	-0.94566
-0.00431	0.86539
0.04670	0.71234
0.07220	0.07465
0.22521	-0.76711
0.17421	0.22769
0.22521	0.40625
0.27621	0.68683
0.22521	0.48277
0.14870	0.17668
0.14870	0.15117
0.04670	0.02363
0.04670	0.12566
0.07220	-0.61406
0.12320	0.12566
0.07220	0.04914
0.14870	0.45726
0.17421	0.15117
0.17421	0.04914
0.12320	0.22769
0.14870	0.32972
0.19971	0.66132
0.22521	-0.66508
0.17421	0.12566
0.17421	0.63582
0.14870	0.40625
0.12320	0.25320
0.12320	0.12566
0.09770	0.02363
0.04670	0.17668
0.09770	-0.10391
0.07220	-0.12942
0.12320	0.10015
0.14870	0.20219
0.22521	-0.23145
0.22521	-0.05289
0.17421	0.63582
0.17421	0.12566
0.09770	0.50828
0.09770	0.07465
0.09770	-0.74160
0.12320	0.76336
0.19971	0.04914
0.19971	-0.56305
0.22521	0.81437
0.12320	0.43176
0.09770	0.27871
0.19971	0.22769
0.22521	0.12566
0.17421	0.38074
0.12320	0.35523
0.07220	-0.63957
0.14870	0.12566
0.14870	-0.20594
0.25071	-0.92016
0.17421	0.76336
0.12320	0.27871
0.17421	0.48277
0.14870	0.35523
0.19971	0.22769
0.12320	0.15117
0.14870	0.10015
0.04670	0.15117
0.12320	0.12566
0.14870	0.04914
0.14870	0.10015
0.25071	0.43176
0.17421	0.17668
0.17421	-0.25695
0.07220	-0.23145
0.17421	-0.25695
0.12320	0.91640
0.19971	0.38074
0.14870	0.35523
0.12320	0.07465
0.12320	0.38074
0.12320	-0.66508
0.17421	-0.30797
0.22521	0.50828
0.12320	-0.02739
0.07220	0.81437
0.07220	-0.51203
0.12320	0.38074
0.12320	0.32972
0.22521	0.15117
0.27621	0.04914
0.14870	0.43176
0.17421	0.43176
0.09770	0.30422
0.04670	0.22769
0.07220	0.04914
0.12320	0.10015
0.14870	-0.48652
0.17421	-1.04770
0.22521	0.45726
0.17421	0.15117
0.17421	0.45726
0.19971	0.20219
0.09770	0.63582
0.04670	1.04394
0.09770	0.22769
0.12320	-0.38449
0.09770	-0.30797
0.19971	0.71234
0.19971	0.12566
0.12320	-1.02219
0.19971	0.78886
0.19971	0.76336
0.09770	0.27871
0.07220	0.15117
0.07220	0.12566
0.07220	-0.00188
0.09770	-0.12942
0.07220	-0.07840
0.17421	0.10015
0.19971	0.10015
0.22521	0.32972
0.22521	0.99292
0.14870	-0.46102
0.14870	0.04914
0.12320	0.45726
0.07220	0.17668
0.04670	-0.02739
0.09770	0.20219
0.09770	0.83988
0.14870	-0.20594
0.22521	-0.28246
0.17421	0.35523
0.09770	0.35523
0.02119	0.10015
0.12320	-0.20594
0.09770	-0.18043
0.17421	0.22769
0.25071	0.22769
0.19971	0.45726
0.14870	-0.41000
0.09770	0.66132
0.09770	0.40625
0.07220	-0.25695
0.17421	-0.43551
0.09770	0.50828
0.12320	0.61031
0.22521	0.45726
0.19971	0.27871
0.22521	0.04914
0.12320	-0.18043
0.17421	0.35523
0.12320	-0.25695
0.12320	0.45726
0.12320	0.04914
0.14870	0.15117
0.14870	0.10015
0.09770	-0.23145
0.14870	0.35523
0.25071	0.27871
0.22521	0.30422
0.27621	-0.20594
0.22521	0.55929
0.19971	0.53379
0.22521	0.71234
0.19971	-0.38449
0.09770	-0.35899
0.14870	1.01843
0.19971	0.17668
0.22521	0.10015
0.25071	-0.10391
0.27621	-0.86914
0.25071	0.35523
0.22521	0.81437
0.17421	-0.00188
0.19971	0.02363
0.12320	0.25320
0.12320	0.30422
0.14870	0.68683
0.14870	-0.02739
0.27621	-0.33348
0.17421	0.81437
0.25071	0.38074
0.19971	0.25320
0.17421	0.15117
0.19971	0.30422
0.17421	-0.10391
0.17421	0.15117
0.19971	0.15117
0.22521	0.20219
0.19971	-0.15492
0.22521	-0.05289
0.27621	0.02363
0.22521	0.10015
0.12320	0.20219
0.12320	0.35523
0.12320	0.40625
0.04670	0.02363
0.09770	0.15117
0.07220	0.55929
0.09770	0.17668
0.17421	-0.46102
0.17421	-0.69059
0.14870	1.47757
0.19971	0.68683
0.14870	-0.18043
0.19971	0.63582
0.19971	-0.25695
0.19971	-0.48652
0.22521	0.20219
0.19971	-0.10391
0.12320	-0.99668
0.14870	0.61031
0.14870	0.38074
0.14870	0.45726
0.09770	0.38074
0.07220	0.55929
0.04670	0.17668
0.07220	-0.12942
0.09770	0.20219
0.14870	-0.05289
0.14870	0.32972
0.14870	0.30422
0.09770	0.17668
0.09770	0.07465
0.22521	0.15117
0.17421	0.10015
0.19971	0.10015
0.12320	0.02363
0.14870	-0.51203
0.17421	0.38074
0.12320	0.38074
0.12320	0.12566
0.09770	0.20219
0.04670	-0.18043
0.07220	0.30422
0.02119	0.25320
0.07220	0.45726
0.14870	-0.28246
0.17421	0.38074
0.19971	-0.33348
0.14870	0.27871
0.14870	0.20219
0.12320	0.17668
0.07220	0.04914
0.09770	0.17668
0.07220	0.50828
0.12320	-0.48652
0.14870	-0.20594
0.22521	0.83988
0.12320	0.30422
0.09770	0.30422
0.12320	0.20219
0.17421	-0.15492
0.12320	0.27871
0.22521	-0.43551
0.19971	-0.58856
0.19971	0.71234
0.12320	0.63582
0.14870	0.63582
0.09770	-0.10391
0.09770	0.45726
0.09770	-0.30797
0.12320	-0.56305
0.07220	-0.35899
0.09770	0.32972
0.04670	0.30422
0.12320	0.40625
0.12320	0.55929
0.12320	-0.15492
0.14870	-0.25695
0.14870	-0.05289
0.14870	0.53379
0.09770	0.38074
0.07220	0.66132
0.07220	-0.00188
0.07220	-0.10391
0.07220	-0.02739
0.09770	-0.28246
0.07220	0.10015
0.12320	0.22769
0.14870	0.35523
0.25071	0.15117
0.22521	0.04914
0.19971	-0.10391
0.12320	0.63582
0.12320	0.17668
0.12320	-0.12942
0.12320	0.12566
0.12320	0.22769
0.07220	0.20219
0.14870	0.04914
0.12320	-0.38449
0.07220	-0.02739
0.07220	0.38074
0.02119	-0.58856
0.07220	1.29902
0.12320	0.53379
0.17421	-1.53234
0.14870	0.73785
0.09770	0.71234
0.09770	0.63582
0.12320	0.17668
0.09770	-0.33348
0.14870	-0.33348
0.12320	-0.23145
0.09770	-0.51203
0.09770	-0.10391
0.25071	0.68683
0.14870	0.48277
0.12320	0.17668
0.17421	0.17668
0.09770	0.25320
0.17421	0.35523
0.22521	0.35523
0.17421	0.55929
0.12320	0.02363
0.09770	-0.35899
0.07220	0.35523
0.14870	-0.35899
0.22521	0.55929
0.17421	-0.10391
0.12320	0.32972
0.12320	0.17668
0.14870	0.66132
0.22521	0.35523
0.22521	0.10015
0.12320	0.17668
0.07220	-0.86914
0.04670	0.86539
0.12320	-0.76711
0.09770	0.50828
0.02119	0.48277
0.09770	-0.97117
0.25071	0.10015
0.25071	2.34484
0.27621	0.10015
0.22521	-1.22625
0.17421	-0.07840
0.07220	-0.43551
0.12320	1.50308
0.27621	0.45726
0.22521	-1.09871
-0.10631	1.52859
-0.23382	-0.51203
-0.13181	-0.02739
0.17421	-1.45582
0.07220	0.73785
0.30171	0.81437
0.55673	0.91640
0.63323	-0.61406
0.45472	2.82948
0.04670	-2.62918
-0.36133	2.75296
-0.31033	0.20219
0.22521	-2.52714
0.53123	-2.14453
0.48022	0.45726
0.12320	3.00804
-0.43783	-0.76711
-0.23382	-0.28246
0.45472	-0.38449
0.53123	1.24800
0.14870	3.41616
-0.08081	-6.45534
0.09770	3.49268
-0.33583	-1.30277
-0.18282	-2.50164
0.09770	4.48749
0.50573	-5.10343
0.76074	2.16628
1.11776	0.73785
0.55673	-1.12422
-0.51434	-0.28246
-1.22839	0.17668
-0.79486	0.48277
0.07220	0.89089
-0.15732	-2.93527
-0.53984	1.37554
1.06676	0.94191
1.60230	3.74776
1.19427	2.11527
0.63323	1.24800
0.53123	-2.22105
0.45472	-4.36370
0.48022	-1.25176
-0.15732	-0.23145
-1.78942	-0.28246
-2.70748	1.09496
-1.35589	1.06945
0.22521	-0.12942
1.16877	0.76336
2.03582	2.67644
2.13783	-3.80253
1.32178	2.98253
0.50573	1.88570
-0.56534	-7.45014
-0.41233	2.70194
-0.02981	0.38074
0.88825	0.50828
0.78624	1.01843
-0.18282	1.57960
-1.40690	-0.58856
-2.63097	-2.29757
-0.69285	-0.05289
0.40372	1.68163
1.29628	-2.34859
1.16877	-1.68539
1.01576	0.99292
1.52579	3.39065
0.78624	1.47757
0.55673	-1.58336
-0.18282	-0.76711
-0.59084	0.04914
-0.23382	-1.73640
-0.33583	0.78886
-0.43783	0.25320
0.32721	-0.41000
0.53123	-1.50683
-0.46334	-0.10391
-0.66735	1.06945
-0.20832	0.10015
1.01576	1.68163
1.34728	0.76336
1.21977	-1.07320
1.19427	-0.43551
0.55673	1.14597
-0.51434	0.50828
-1.86593	0.63582
-1.68742	0.55929
-0.48884	0.30422
1.04126	-4.59327
1.34728	-1.43031
0.63323	0.04914
0.12320	2.21730
-0.08081	2.65093
0.02119	-2.52714
0.40372	0.89089
1.09226	0.32972
0.48022	2.62542
-0.33583	-0.63957
-1.48340	1.68163
-0.76936	0.22769
0.50573	-0.69059
0.88825	-0.66508
0.83725	1.37554
0.53123	-0.23145
0.12320	-1.37929
0.14870	-0.38449
0.12320	0.99292
0.12320	0.83988
-0.08081	-0.12942
0.07220	-0.94566
-0.20832	0.63582
-0.46334	0.53379
-0.69285	1.27351
-0.69285	0.04914
0.30171	0.45726
0.76074	-0.58856
0.83725	0.32972
0.91375	-0.30797
0.81175	0.38074
0.58223	0.15117
0.42922	-1.02219
0.19971	-2.04250
-0.33583	-0.58856
-0.38683	2.16628
0.09770	1.47757
0.22521	0.25320
0.02119	-0.23145
-0.18282	0.10015
-0.41233	0.22769
-0.13181	-1.02219
0.27621	0.45726
0.27621	0.71234
0.32721	0.55929
0.17421	-0.38449
0.25071	0.43176
0.22521	-1.14973
0.17421	0.20219
0.32721	0.48277
0.65874	0.91640
0.48022	-0.53754
0.35272	0.10015
0.12320	-0.15492
-0.23382	-0.58856
-0.08081	1.47757
-0.02981	0.25320
0.02119	0.27871
0.30171	0.89089
0.32721	0.02363
-0.05531	0.35523
-0.15732	-1.91496
-0.53984	0.94191
-0.41233	-0.69059
0.22521	-0.41000
0.19971	1.42656
0.50573	0.58480
0.58223	0.40625
0.73524	-0.23145
0.40372	1.04394
0.04670	0.17668
0.25071	-0.20594
0.09770	0.94191
0.19971	0.91640
0.17421	-0.33348
0.12320	-0.84363
-0.08081	-1.43031
0.17421	-0.74160
0.09770	1.60511
-0.18282	-0.94566
-1.04987	1.60511
-0.87136	1.22250
-0.13181	1.17148
0.73524	0.40625
1.29628	-1.81293
0.99026	-0.63957
0.65874	1.47757
0.42922	-0.12942
0.09770	0.81437
0.12320	0.94191
0.07220	-0.38449
0.02119	1.22250
-0.08081	-2.52714
-0.38683	-1.45582
0.12320	2.21730
0.09770	-0.53754
0.30171	-0.02739
0.27621	0.61031
-0.13181	0.55929
-0.36133	0.40625
0.27621	0.38074
0.48022	-0.63957
0.60773	0.15117
0.73524	-0.02739
0.09770	1.06945
-0.43783	0.35523
-0.51434	-1.40480
-0.25932	0.45726
0.68424	-0.74160
0.12320	-0.48652
-0.31033	2.01323
0.50573	-0.71609
0.68424	0.50828
0.70974	2.21730
0.50573	-0.30797
0.27621	1.06945
0.07220	-2.19554
-0.13181	-0.61406
-0.13181	0.55929
-0.18282	-0.05289
-0.31033	0.91640
0.12320	0.55929
0.40372	-0.35899
0.27621	-0.76711
0.14870	0.63582
-0.02981	0.43176
-0.20832	1.01843
0.12320	0.55929
-0.08081	0.15117
0.27621	0.71234
0.53123	-2.47613
0.78624	0.12566
0.65874	1.06945
0.17421	0.53379
0.04670	0.27871
-0.51434	1.12046
-0.18282	-0.53754
0.37822	0.55929
0.48022	-2.29757
0.27621	0.02363
0.22521	1.17148
0.12320	1.09496
0.27621	0.50828
0.48022	-0.05289
0.09770	0.63582
-0.10631	0.76336
-0.76936	0.48277
-0.15732	0.04914
0.63323	-1.68539
0.58223	0.43176
0.27621	-0.74160
0.19971	0.53379
0.55673	0.25320
0.58223	1.40105
0.27621	-0.15492
-0.25932	-0.48652
-0.71835	1.93671
-0.38683	-1.20074
-0.28482	0.40625
0.27621	0.55929
0.91375	0.78886
0.78624	0.81437
0.42922	-1.02219
0.17421	0.22769
0.53123	0.30422
0.48022	-0.35899
0.04670	-0.20594
-0.31033	0.04914
-0.31033	-1.71090
-0.56534	0.61031
0.17421	1.42656
0.35272	0.07465
0.14870	-0.48652
0.42922	-0.94566
0.35272	1.50308
0.45472	1.14597
0.04670	0.81437
-0.13181	0.43176
0.09770	-0.56305
0.17421	-0.38449
0.12320	0.38074
0.40372	0.02363
0.37822	-0.30797
0.12320	1.01843
-0.31033	-1.68539
0.02119	0.63582
0.35272	0.43176
0.25071	0.66132
0.30171	0.22769
0.32721	0.63582
0.25071	0.35523
-0.43783	-0.89465
-0.18282	-1.37929
-0.10631	1.50308
-0.51434	0.89089
0.07220	1.14597
0.81175	-0.97117
1.14327	1.35003
0.65874	0.96742
0.37822	-0.51203
0.19971	-0.28246
0.19971	0.55929
-0.00431	-2.52714
-0.31033	-1.43031
-0.33583	2.01323
-0.25932	0.66132
-0.15732	0.81437
0.25071	0.76336
0.42922	-1.55785
0.17421	0.63582
0.27621	-0.76711
-0.00431	-0.28246
0.35272	0.68683
0.25071	1.27351
0.58223	0.48277
0.42922	-0.63957
-0.10631	0.27871
-0.48884	0.55929
0.48022	0.68683
0.25071	-1.07320
-0.08081	0.81437
0.22521	-0.30797
0.45472	-0.86914
0.17421	0.71234
-0.00431	0.35523
-0.28482	0.55929
0.14870	-0.07840
0.17421	0.96742
0.02119	-0.66508
0.42922	-0.25695
0.53123	0.78886
0.35272	1.75816
0.14870	-0.79262
-0.31033	-1.27726
-0.46334	0.81437
0.14870	-0.07840
0.12320	0.68683
0.27621	0.38074
0.58223	-0.00188
0.12320	-0.63957
0.14870	0.61031
0.12320	-0.41000
0.25071	1.40105
0.68424	0.15117
0.22521	-1.96597
0.12320	0.53379
-0.10631	0.61031
-0.43783	1.91120
0.12320	1.19699
0.40372	-0.56305
0.50573	0.35523
0.07220	0.86539
0.14870	0.10015
0.09770	-1.30277
0.25071	-0.05289
0.22521	-0.48652
0.19971	1.12046
0.14870	-1.07320
0.17421	0.63582
0.09770	0.15117
-0.05531	1.32453
-0.10631	-0.58856
-0.08081	-0.20594
0.48022	1.37554
0.22521	0.73785
0.14870	-1.22625
-0.38683	0.55929
-0.02981	1.09496
0.48022	0.02363
0.30171	0.20219
0.53123	-0.48652
0.22521	0.17668
0.40372	0.15117
0.09770	0.25320
0.07220	-0.71609
0.07220	0.55929
0.02119	0.02363
0.04670	0.66132
0.04670	-0.86914
0.14870	0.71234
0.65874	0.94191
0.35272	-0.00188
0.07220	-1.25176
-0.79486	0.55929
-0.94787	0.10015
0.58223	0.63582
0.63323	0.66132
0.55673	0.50828
0.42922	1.12046
0.58223	-0.56305
0.48022	-0.38449
0.04670	0.76336
-0.53984	-0.25695
-0.31033	-0.33348
-0.05531	-0.00188
0.30171	0.04914
0.32721	0.10015
0.45472	0.81437
0.30171	-0.69059
0.14870	-0.74160
-0.00431	0.20219
-0.25932	0.83988
-0.10631	0.45726
0.12320	2.52339
0.30171	-1.27726
0.22521	-0.84363
-0.05531	0.22769
-0.53984	0.81437
-0.02981	-0.53754
0.40372	-0.30797
0.65874	0.68683
0.70974	0.53379
0.14870	-0.35899
-0.08081	0.15117
-0.08081	0.35523
0.27621	-1.02219
0.37822	-0.07840
0.35272	-0.35899
-0.00431	0.83988
-0.33583	0.63582
-0.31033	0.32972
0.09770	1.01843
0.35272	0.55929
0.40372	-1.20074
0.45472	0.15117
0.32721	-0.15492
-0.00431	-1.76191
-0.05531	1.04394
-0.05531	0.55929
0.19971	-0.53754
0.14870	1.09496
0.09770	2.03874
0.25071	-0.07840
0.40372	-0.92016
0.14870	-0.07840
-0.36133	0.96742
-0.23382	1.06945
-0.23382	-3.21585
0.22521	-0.05289
0.55673	1.09496
0.48022	0.91640
0.40372	0.40625
0.19971	-0.12942
0.07220	0.32972
0.19971	0.68683
0.19971	0.20219
0.12320	0.15117
0.14870	-1.02219
0.17421	0.61031
-0.48884	-0.05289
-1.04987	-0.51203
-0.28482	0.12566
0.73524	0.45726
0.93925	0.43176
1.04126	1.17148
0.30171	0.83988
-0.48884	-0.33348
-0.33583	-0.20594
0.02119	-0.05289
0.53123	-0.99668
0.48022	0.43176
0.22521	0.40625
0.22521	1.65613
0.25071	-0.41000
0.12320	-1.76191
-0.25932	0.81437
-0.48884	1.24800
-0.36133	-0.86914
-0.02981	-0.05289
0.19971	0.89089
0.42922	0.20219
0.42922	0.68683
0.45472	0.61031
0.42922	0.02363
0.48022	0.22769
0.32721	0.15117
0.17421	-0.23145
-0.05531	-1.14973
-0.05531	-1.17523
-0.28482	1.88570
-0.28482	-0.23145
0.35272	0.86539
0.53123	0.17668
0.55673	1.24800
0.35272	1.01843
-0.33583	-1.99148
-0.25932	-0.79262
0.30171	0.25320
0.55673	1.01843
0.68424	0.38074
0.40372	0.45726
-0.13181	0.73785
0.04670	-0.35899
0.09770	-0.69059
0.25071	1.75816
0.27621	1.60511
0.12320	-0.89465
-0.33583	-1.58336
-0.56534	1.57960
-0.10631	-1.12422
0.30171	-0.97117
0.45472	-0.51203
0.35272	0.40625
0.30171	1.27351
0.32721	0.58480
0.30171	0.35523
0.12320	0.27871
0.09770	0.73785
0.09770	0.17668
0.07220	-1.20074
0.12320	0.73785
0.04670	0.07465
-0.00431	0.53379
-0.05531	0.50828
0.35272	1.29902
0.40372	-1.17523
0.40372	0.76336
-0.02981	-2.50164
0.17421	-0.58856
-0.15732	0.32972
0.45472	0.53379
0.65874	1.37554
0.27621	0.76336
0.04670	0.04914
-0.05531	-0.43551
-0.25932	0.66132
-0.28482	-0.02739
-0.05531	0.17668
0.27621	0.91640
0.32721	0.27871
0.27621	0.20219
0.37822	-0.00188
0.19971	-1.45582
0.27621	0.48277
0.27621	0.91640
0.19971	-0.63957
0.25071	-0.81812
-0.05531	0.20219
-0.18282	0.78886
-0.02981	-0.25695
-0.02981	1.06945
0.27621	-0.20594
0.40372	0.35523
0.50573	0.12566
0.60773	0.76336
0.27621	0.25320
-0.10631	0.63582
-0.00431	0.86539
0.07220	0.30422
0.04670	-0.38449
-0.02981	0.12566
-0.10631	0.63582
0.32721	0.17668
0.37822	-1.81293
0.14870	0.35523
-0.28482	-0.81812
-0.41233	0.58480
0.48022	0.68683
0.53123	-1.50683
0.50573	1.35003
0.17421	0.66132
-0.08081	0.96742
0.27621	-0.71609
0.32721	1.27351
0.04670	-0.76711
0.35272	0.25320
0.27621	-0.25695
-0.15732	0.43176
0.02119	1.14597
0.12320	-0.28246
0.45472	1.14597
0.30171	-0.79262
0.09770	-0.66508
-0.08081	-0.25695
0.02119	-0.33348
-0.13181	0.02363
0.04670	0.40625
0.17421	0.83988
0.25071	0.76336
0.14870	0.45726
0.19971	0.40625
0.50573	-0.05289
0.32721	-0.35899
0.04670	-0.12942
-0.41233	1.27351
-0.64185	-0.61406
0.12320	-0.00188
0.35272	0.45726
0.55673	0.30422
0.88825	0.02363
0.63323	0.25320
0.30171	-0.10391
0.07220	0.20219
0.07220	0.38074
0.32721	-0.18043
-0.23382	0.07465
-0.87136	-0.35899
-0.28482	0.66132
0.02119	-0.46102
0.30171	0.30422
0.65874	0.73785
0.60773	-0.18043
0.35272	1.22250
-0.13181	0.55929
0.12320	0.32972
0.27621	-0.33348
0.27621	-0.10391
0.07220	-0.61406
0.27621	0.15117
0.53123	-0.12942
0.19971	0.48277
-0.13181	0.25320
-0.99887	0.73785
-0.84586	0.22769
0.50573	0.02363
0.73524	-3.24136
0.70974	2.39585
0.65874	0.32972
0.50573	-0.38449
0.27621	1.37554
0.19971	0.66132
0.14870	-0.10391
-0.20832	-0.99668
0.09770	0.76336
-0.05531	0.96742
-0.33583	-1.40480
-0.28482	-0.43551
0.02119	0.12566
0.45472	1.04394
0.42922	0.78886
0.37822	0.50828
0.60773	-0.10391
0.45472	0.50828
-0.15732	-0.10391
-0.48884	-0.30797
-0.48884	-1.99148
0.35272	0.07465
0.53123	1.19699
0.42922	0.12566
0.53123	0.20219
0.50573	0.68683
0.40372	-0.61406
0.19971	1.06945
-0.10631	1.47757
-0.59084	0.55929
-0.99887	-1.50683
-0.28482	1.50308
0.48022	-1.04770
0.58223	0.10015
0.86275	0.66132
0.35272	0.35523
0.22521	-0.20594
0.04670	0.04914
-0.05531	-0.12942
0.32721	0.48277
0.12320	0.35523
0.04670	-0.05289
0.02119	0.40625
-0.02981	-0.35899
-0.10631	-0.81812
0.12320	-0.05289
0.32721	1.04394
0.50573	1.78367
0.22521	2.11527
-0.15732	0.02363
-0.15732	-1.27726
0.27621	-0.58856
0.32721	-2.06800
0.37822	0.78886
0.14870	0.45726
0.17421	0.25320
0.04670	0.20219
0.19971	1.27351
0.02119	0.68683
-0.05531	-1.40480
0.14870	-0.56305
0.30171	0.91640
0.48022	-0.71609
0.40372	-0.79262
-0.13181	1.96222
-0.23382	0.43176
-0.23382	0.66132
-0.05531	-1.50683
0.55673	0.73785
0.30171	0.45726
0.32721	-0.38449
0.37822	0.40625
0.22521	-0.05289
0.12320	0.43176
0.02119	-0.20594
-0.33583	-0.86914
-0.38683	0.78886
0.25071	0.83988
0.63323	0.12566
0.63323	0.35523
0.45472	-0.05289
0.17421	0.20219
-0.13181	-0.25695
-0.05531	1.65613
0.02119	-1.58336
0.27621	-0.18043
0.22521	0.40625
-0.15732	0.81437
-0.53984	0.04914
0.04670	1.06945
0.12320	-1.27726
-0.10631	-0.00188
0.45472	1.42656
0.65874	0.30422
0.73524	-1.17523
-0.05531	0.45726
-0.15732	0.76336
0.30171	0.73785
0.68424	0.02363
0.65874	-0.58856
0.09770	-0.46102
-0.05531	0.04914
-0.02981	0.32972
0.07220	0.50828
-0.00431	0.25320
0.12320	0.12566
0.02119	-1.07320
0.07220	0.35523
-0.15732	1.12046
0.22521	0.43176
0.17421	0.63582
0.12320	0.40625
0.14870	-0.15492
0.35272	-0.48652
0.32721	-2.37410
0.07220	1.27351
-0.31033	0.38074
-0.25932	0.91640
-0.08081	0.32972
0.37822	0.45726
0.48022	0.32972
0.55673	-0.86914
0.37822	0.25320
0.32721	0.58480
0.19971	0.81437
0.09770	-0.10391
-0.02981	-0.94566
-0.13181	-0.30797
0.04670	0.89089
0.09770	-0.94566
-0.02981	0.96742
0.30171	-0.92016
0.37822	0.81437
0.02119	0.35523
-0.10631	0.81437
-0.18282	0.22769
-0.41233	0.25320
0.17421	0.55929
0.58223	0.91640
0.63323	-0.48652
0.53123	-0.94566
0.55673	-2.47613
-0.28482	0.94191
-0.31033	-0.58856
-0.05531	2.19179
0.32721	1.60511
0.45472	0.45726
0.40372	-0.48652
0.37822	-0.86914
0.12320	0.45726
-0.13181	0.61031
-0.33583	0.76336
-0.13181	0.32972
0.19971	-0.63957
0.19971	0.63582
0.22521	-0.02739
0.07220	0.61031
0.35272	-1.78742
0.40372	-0.46102
0.12320	0.55929
-0.08081	0.43176
0.12320	-0.99668
0.32721	1.57960
0.42922	0.86539
0.22521	0.43176
-0.00431	0.30422
0.12320	0.45726
0.17421	-0.33348
0.07220	0.58480
0.14870	0.71234
-0.23382	-0.84363
-0.10631	0.45726
-0.33583	-0.61406
-0.20832	0.38074
0.35272	0.35523
0.73524	-0.56305
0.63323	-0.12942
0.32721	0.17668
-0.18282	0.55929
-0.05531	-0.05289
0.27621	-0.99668
0.58223	-1.17523
0.30171	1.50308
-0.00431	0.89089
-0.13181	-0.05289
-0.02981	0.81437
0.30171	1.68163
0.37822	-0.46102
0.17421	0.61031
-0.28482	0.10015
-0.13181	0.68683
0.19971	-0.00188
0.14870	-0.23145
0.17421	-1.09871
0.22521	-0.86914
0.37822	-1.32828
0.58223	0.99292
0.30171	0.27871
-0.05531	0.96742
-0.05531	-0.12942
-0.05531	0.53379
0.02119	-1.12422
0.22521	0.99292
0.30171	1.01843
0.17421	0.20219
0.17421	-0.10391
0.12320	0.71234
0.12320	0.89089
0.25071	-0.07840
0.14870	0.04914
-0.05531	0.25320
-0.05531	-0.41000
0.02119	-0.53754
0.30171	-1.17523
0.12320	0.02363
-0.00431	0.32972
0.37822	1.12046
0.53123	0.61031
0.32721	-0.15492
0.30171	1.14597
0.17421	-0.51203
0.19971	-0.97117
0.19971	-0.86914
-0.20832	0.86539
-0.51434	1.12046
-0.59084	-0.66508
-0.25932	0.02363
0.17421	0.89089
0.86275	0.71234
0.91375	1.32453
0.58223	-0.05289
0.40372	-1.40480
0.17421	0.40625
0.09770	-0.23145
0.07220	-0.18043
-0.02981	-0.02739
0.09770	-0.46102
-0.08081	1.27351
-0.23382	0.45726
0.09770	0.32972
0.32721	0.45726
0.50573	-0.30797
0.45472	-0.56305
0.25071	0.38074
0.09770	0.45726
-0.28482	-0.74160
0.07220	-0.00188
0.42922	0.17668
0.35272	0.73785
0.09770	-0.07840
-0.00431	0.25320
0.17421	0.45726
-0.00431	-0.30797
0.14870	0.99292
0.04670	0.20219
0.25071	-0.48652
0.42922	-2.04250
0.35272	0.76336
0.37822	2.34484
-0.10631	0.89089
-0.48884	0.17668
-0.28482	-0.05289
0.32721	-0.30797
0.63323	-0.05289
0.42922	0.66132
0.14870	0.96742
0.22521	-1.53234
0.58223	0.50828
0.63323	0.63582
0.37822	0.07465
-0.38683	0.32972
-0.18282	0.15117
0.04670	-0.56305
0.22521	-0.15492
0.32721	-0.15492
0.25071	0.63582
0.19971	0.76336
0.27621	-0.89465
-0.00431	0.58480
0.02119	0.40625
-0.15732	0.15117
0.09770	0.45726
0.14870	0.27871
0.32721	-1.22625
0.35272	0.96742
0.19971	0.32972
0.25071	-0.35899
0.19971	-0.05289
-0.00431	1.73265
0.02119	-0.33348
0.19971	-0.79262
0.30171	0.86539
-0.08081	1.09496
-0.15732	-0.35899
0.30171	-0.84363
0.60773	-0.25695
0.53123	0.22769
0.17421	0.40625
-0.13181	-0.46102
0.04670	0.48277
0.12320	0.76336
0.02119	0.48277
0.35272	-0.46102
0.27621	-0.28246
0.04670	0.96742
-0.05531	-0.18043
0.14870	-1.02219
0.22521	1.29902
0.02119	0.58480
-0.05531	0.43176
0.02119	0.73785
0.12320	0.04914
0.37822	-1.32828
0.12320	-0.15492
0.07220	-0.23145
0.09770	0.32972
0.07220	0.58480
0.14870	1.60511
0.40372	-0.71609
0.53123	-0.15492
0.30171	0.63582
-0.02981	0.35523
-0.13181	-1.65988
0.12320	-0.10391
0.12320	-0.30797
0.14870	1.04394
0.32721	0.58480
0.53123	0.25320
0.35272	0.91640
-0.08081	0.25320
-0.33583	0.30422
-0.05531	1.04394
-0.02981	-0.89465
0.22521	-1.02219
-0.08081	1.04394
0.02119	0.15117
0.27621	-0.79262
0.32721	-0.28246
0.27621	0.76336
0.30171	0.63582
0.09770	-1.48133
-0.02981	0.63582
0.04670	0.71234
0.19971	0.53379
0.02119	0.91640
0.35272	0.25320
0.14870	-0.23145
0.14870	-0.46102
0.19971	0.86539
0.07220	0.76336
0.32721	-0.00188
0.25071	-0.20594
0.22521	-0.51203
-0.15732	0.81437
-0.02981	0.02363
0.19971	0.25320
0.25071	-0.25695
0.40372	0.38074
0.09770	-0.46102
-0.02981	0.96742
0.12320	0.04914
0.12320	-0.05289
0.32721	1.06945
-0.05531	0.10015
0.35272	-0.35899
0.27621	0.25320
-0.02981	-0.02739
0.12320	0.40625
0.35272	0.71234
0.19971	0.04914
-0.18282	-0.10391
-0.48884	-0.43551
-0.20832	-0.00188
0.22521	-0.25695
0.40372	0.53379
0.58223	-0.38449
0.48022	0.20219
0.25071	0.38074
-0.23382	0.45726
0.19971	0.50828
0.42922	-1.20074
0.22521	-0.00188
-0.00431	0.86539
-0.08081	0.27871
0.09770	1.32453
0.12320	1.57960
0.09770	-1.60887
0.12320	-0.79262
0.12320	1.14597
0.19971	0.48277
0.12320	-0.35899
0.30171	0.32972
0.19971	0.58480
0.25071	-0.02739
0.22521	-0.46102
0.22521	-0.30797
-0.00431	0.89089
-0.28482	-0.35899
-0.25932	0.76336
0.25071	0.78886
0.35272	-0.25695
0.35272	0.04914
0.40372	-0.05289
0.25071	-0.33348
0.02119	1.63062
0.09770	-0.20594
0.50573	-0.76711
0.30171	0.55929
0.09770	0.66132
0.19971	-0.15492
0.07220	-0.58856
-0.28482	0.30422
-0.23382	-0.00188
-0.28482	-0.02739
0.17421	0.99292
0.32721	-0.35899
0.42922	0.30422
0.19971	0.12566
-0.02981	0.48277
0.04670	0.55929
-0.28482	-1.09871
0.02119	-0.33348
-0.08081	-1.14973
0.12320	0.86539
0.60773	0.38074
0.58223	0.66132
0.48022	0.55929
0.09770	0.76336
-0.08081	0.17668
0.07220	-0.12942
0.12320	-0.63957
-0.18282	-1.43031
-0.20832	1.55410
0.12320	0.48277
0.09770	-0.84363
0.09770	1.40105
0.19971	0.78886
0.07220	0.30422
0.25071	0.10015
0.45472	-0.07840
0.12320	-0.18043
-0.10631	-0.12942
0.12320	-0.05289
0.30171	0.15117
0.12320	0.35523
0.19971	0.45726
0.27621	0.20219
0.07220	-0.81812
-0.20832	0.50828
-0.13181	0.48277
0.25071	-1.04770
0.53123	-1.12422
0.40372	1.55410
-0.15732	0.68683
-0.08081	0.76336
0.14870	1.01843
0.42922	1.65613
0.40372	-1.17523
0.48022	0.78886
0.19971	-0.18043
-0.05531	-0.48652
-0.20832	-1.09871
-0.05531	0.40625
-0.36133	0.96742
-0.15732	-0.33348
0.09770	0.71234
0.19971	-0.46102
0.04670	-0.53754
0.37822	0.53379
0.81175	0.35523
0.32721	1.32453
-0.25932	0.71234
-0.36133	-1.22625
0.12320	-0.38449
0.50573	0.04914
0.32721	0.20219
0.45472	1.40105
0.65874	0.04914
0.32721	0.55929
0.07220	0.61031
-0.28482	-0.76711
-0.33583	0.10015
-0.00431	0.50828
0.22521	0.25320
0.27621	-0.63957
0.32721	0.73785
0.27621	-0.35899
0.27621	0.32972
-0.02981	-0.84363
-0.36133	-0.48652
-0.69285	0.30422
-0.25932	1.52859
0.30171	-0.10391
0.63323	-1.99148
0.96476	0.02363
0.81175	1.83468
0.50573	1.40105
0.02119	0.53379
-0.33583	0.35523
-0.08081	-0.46102
-0.02981	0.71234
0.35272	-0.86914
0.27621	-0.00188
-0.05531	0.50828
0.02119	-0.35899
-0.05531	-0.25695
0.32721	-0.43551
0.22521	0.15117
0.12320	0.63582
0.14870	0.83988
-0.02981	-0.20594
0.02119	0.12566
0.17421	2.08976
0.12320	-1.09871
0.30171	0.15117
0.37822	-1.12422
0.63323	0.15117
0.30171	-0.07840
0.04670	0.73785
0.04670	1.09496
0.17421	-0.00188
0.19971	0.48277
0.04670	0.53379
-0.08081	-0.20594
-0.33583	0.81437
0.12320	0.32972
0.40372	-0.86914
-0.02981	-1.58336
-0.18282	0.15117
-0.02981	0.20219
0.12320	0.76336
0.60773	0.61031
0.70974	-0.05289
0.70974	0.48277
0.30171	-0.10391
-0.02981	-0.25695
-0.59084	0.63582
-0.18282	0.83988
0.32721	-0.38449
0.35272	-0.58856
0.32721	-0.69059
-0.00431	0.15117
-0.25932	1.17148
0.14870	0.55929
0.14870	0.96742
0.22521	0.58480
0.17421	-0.51203
0.07220	-0.51203
0.14870	0.10015
0.30171	0.04914
0.45472	-0.53754
0.27621	-0.46102
0.09770	1.37554
0.17421	0.20219
-0.00431	0.35523
0.09770	0.40625
0.04670	-0.56305
-0.08081	-0.25695
0.04670	-0.84363
0.35272	0.81437
0.32721	1.27351
0.22521	0.76336
0.35272	0.10015
0.25071	0.66132
-0.18282	0.45726
-0.41233	-1.86394
-0.18282	0.20219
0.30171	0.50828
0.58223	0.10015
0.76074	1.01843
0.68424	0.15117
-0.05531	-0.56305
-0.13181	1.37554
0.07220	-1.83844
0.12320	-1.81293
-0.10631	0.53379
-0.56534	0.71234
-0.00431	1.06945
0.35272	1.14597
0.50573	0.04914
0.58223	0.30422
0.48022	0.10015
0.27621	0.22769
0.17421	-0.84363
-0.00431	0.38074
0.09770	0.50828
0.04670	0.96742
-0.05531	-0.41000
-0.36133	0.17668
-0.28482	-0.61406
0.27621	-0.18043
0.37822	0.71234
0.58223	0.15117
0.50573	-0.30797
0.40372	-1.27726
0.14870	0.32972
-0.02981	1.29902
-0.23382	0.04914
-0.13181	0.25320
-0.15732	1.19699
0.09770	0.55929
0.22521	-0.89465
0.12320	0.81437
0.40372	0.58480
0.53123	0.27871
0.35272	-0.07840
0.19971	-0.71609
0.12320	0.50828
0.04670	-0.66508
0.04670	0.02363
-0.02981	1.37554
-0.08081	0.53379
-0.13181	0.50828
-0.00431	-1.99148
0.45472	2.19179
0.63323	0.12566
0.48022	0.71234
0.25071	-0.35899
-0.02981	0.02363
-0.31033	0.07465
0.09770	0.20219
0.30171	0.27871
0.55673	-0.33348
0.53123	0.58480
0.32721	-0.05289
0.02119	0.22769
-0.48884	-0.76711
-0.20832	0.25320
-0.08081	-0.51203
0.37822	0.71234
0.37822	0.20219
0.27621	-0.58856
0.22521	1.86019
0.19971	-0.35899
0.12320	0.17668
0.19971	1.12046
0.02119	-0.05289
0.07220	0.25320
0.14870	-0.61406
0.12320	-0.33348
0.17421	0.15117
-0.13181	-0.15492
-0.00431	0.07465
0.12320	-0.23145
0.30171	0.20219
0.27621	0.78886
0.32721	0.50828
-0.43783	0.55929
0.09770	0.07465
0.65874	-0.53754
0.40372	1.63062
0.27621	-0.66508
0.35272	0.32972
0.09770	-0.00188
0.09770	0.45726
0.40372	-0.99668
0.12320	0.94191
-0.23382	-0.51203
-0.43783	0.17668
-0.33583	0.27871
0.32721	0.50828
0.30171	0.27871
0.12320	0.27871
0.32721	0.50828
0.35272	0.38074
0.12320	0.02363
0.19971	0.10015
0.07220	-0.12942
-0.08081	0.12566
0.09770	0.53379
0.27621	-0.05289
0.40372	0.86539
0.27621	-0.97117
0.12320	-0.92016
0.02119	-0.15492
0.35272	1.09496
0.14870	-0.02739
0.07220	-0.76711
-0.10631	1.12046
-0.33583	0.32972
0.30171	0.86539
0.50573	-0.51203
0.37822	0.53379
0.27621	0.73785
0.25071	-0.15492
0.12320	-0.51203
0.12320	0.15117
0.30171	0.58480
0.09770	0.32972
-0.28482	-0.18043
-0.05531	-0.20594
0.02119	-0.46102
0.45472	0.10015
0.02119	0.43176
0.14870	0.12566
0.35272	-0.46102
0.73524	0.48277
0.53123	0.91640
0.12320	-0.89465
0.07220	0.81437
-0.28482	-0.05289
-0.20832	0.83988
-0.02981	-1.27726
0.19971	1.22250
0.22521	0.10015
0.12320	-0.28246
-0.05531	0.73785
0.14870	0.53379
0.27621	-0.25695
0.14870	-0.33348
0.17421	-0.58856
-0.02981	0.27871
0.37822	1.65613
0.50573	0.86539
0.30171	-1.78742
-0.18282	0.53379
-0.53984	0.63582
-0.38683	0.40625
0.07220	0.40625
0.93925	-0.86914
0.93925	-0.12942
0.53123	0.61031
0.19971	0.89089
-0.00431	-0.58856
-0.02981	1.29902
0.12320	0.94191
0.02119	0.02363
-0.08081	-0.53754
-0.08081	-0.05289
-0.02981	-0.71609
0.12320	0.30422
0.12320	0.43176
-0.18282	-0.25695
-0.36133	-0.00188
-0.13181	-0.20594
0.14870	-0.58856
0.83725	1.37554
0.73524	-0.46102
0.55673	1.17148
0.42922	-0.15492
-0.20832	0.68683
0.17421	0.66132
0.35272	0.27871
-0.13181	-0.43551
-0.20832	-0.25695
-0.20832	0.48277
-0.18282	0.78886
0.48022	-1.25176
0.73524	0.78886
0.58223	0.99292
0.09770	0.02363
0.30171	0.40625
0.27621	-0.51203
0.17421	-0.84363
-0.13181	-0.94566
0.04670	0.96742
-0.00431	0.43176
-0.00431	0.76336
0.17421	1.22250
-0.05531	0.78886
-0.00431	-0.38449
0.14870	-0.56305
0.32721	-0.33348
0.37822	1.17148
0.19971	-1.17523
0.25071	0.91640
0.32721	0.58480
0.25071	0.61031
0.07220	-0.71609
0.12320	1.57960
-0.05531	-0.84363
-0.25932	-0.12942
-0.00431	0.89089
0.42922	0.43176
0.65874	-0.20594
0.60773	-0.63957
0.25071	-0.07840
-0.41233	0.76336
-0.25932	-0.92016
-0.13181	0.78886
0.32721	0.83988
0.12320	0.55929
0.17421	-0.89465
0.37822	0.04914
0.14870	0.27871
0.07220	0.22769
0.02119	0.63582
0.25071	-0.58856
0.07220	0.07465
-0.13181	1.06945
-0.05531	0.63582
0.27621	1.01843
0.07220	-0.15492
0.32721	-1.45582
0.40372	0.27871
0.22521	-0.79262
0.17421	-1.71090
0.09770	1.70714
-0.00431	1.17148
0.14870	0.50828
0.48022	0.12566
0.35272	1.57960
0.25071	-0.46102
0.14870	-1.12422
-0.00431	0.32972
-0.13181	1.17148
0.02119	-0.00188
0.17421	-1.22625
0.22521	0.30422
0.09770	0.35523
-0.05531	0.25320
0.14870	-0.15492
0.09770	0.50828
0.25071	0.61031
0.42922	-0.69059
0.22521	0.55929
0.02119	-0.61406
-0.10631	1.47757
-0.00431	-1.68539
0.40372	0.83988
0.27621	0.78886
-0.10631	-0.23145
-0.18282	0.25320
0.04670	-0.00188
0.30171	-0.12942
0.27621	-0.71609
0.22521	0.10015
0.22521	0.71234
0.32721	1.06945
0.07220	-0.76711
0.07220	0.45726
-0.08081	-0.51203
-0.15732	0.02363
-0.05531	-0.51203
0.02119	0.27871
0.02119	1.14597
0.35272	0.15117
0.30171	0.10015
0.25071	-0.15492
0.09770	-0.48652
0.27621	0.04914
0.07220	0.04914
-0.23382	0.91640
0.25071	1.17148
0.42922	0.35523
0.25071	-0.12942
0.12320	-1.04770
0.12320	0.38074
0.25071	0.78886
0.19971	-0.56305
0.12320	0.07465
-0.02981	0.04914
-0.13181	0.22769
-0.48884	0.07465
-0.43783	-1.25176
0.12320	-0.35899
0.63323	0.89089
0.48022	1.14597
0.35272	0.43176
0.58223	1.04394
0.42922	0.10015
0.27621	-1.35379
0.19971	-0.79262
-0.08081	-0.43551
-0.13181	-0.12942
-0.08081	0.32972
0.04670	3.08456
0.14870	0.99292
0.30171	0.22769
0.17421	-0.66508
0.12320	-0.10391
0.07220	0.55929
-0.00431	-0.28246
0.02119	-0.18043
0.12320	0.20219
0.42922	0.12566
0.58223	-0.12942
0.32721	0.63582
-0.02981	0.32972
-0.25932	0.38074
-0.41233	-0.15492
0.07220	-0.46102
0.53123	-0.12942
0.53123	0.45726
0.25071	-0.41000
-0.08081	-0.74160
0.14870	1.47757
0.40372	-0.12942
0.07220	-0.33348
-0.20832	0.17668
0.04670	1.37554
0.35272	0.45726
0.22521	0.76336
0.09770	-0.20594
-0.00431	-0.00188
0.07220	0.02363
0.09770	0.15117
0.04670	0.04914
0.27621	-0.28246
0.37822	0.17668
0.53123	0.35523
0.19971	0.20219
0.12320	0.27871
0.02119	0.55929
0.09770	-1.14973
0.42922	0.63582
0.42922	-0.86914
0.27621	1.52859
-0.25932	0.02363
-0.48884	-0.00188
0.14870	0.50828
0.25071	-1.86394
0.45472	1.12046
0.53123	0.71234
0.32721	0.22769
0.30171	1.01843
0.25071	-0.53754
-0.00431	0.22769
0.07220	0.07465
-0.05531	-0.05289
0.02119	-0.97117
0.14870	0.53379
-0.28482	0.78886
-0.18282	1.14597
0.17421	0.04914
0.42922	-1.65988
0.96476	0.38074
0.55673	0.22769
0.09770	0.27871
-0.18282	-0.10391
-0.08081	1.35003
0.09770	-0.38449
0.25071	0.22769
0.32721	1.04394
0.09770	0.40625
-0.02981	-0.43551
0.17421	-0.56305
0.22521	-0.05289
0.14870	-0.48652
-0.05531	0.63582
-0.23382	0.35523
-0.28482	-2.42511
-0.02981	-0.25695
0.30171	1.29902
0.30171	0.86539
0.50573	0.43176
0.37822	1.83468
0.37822	-0.25695
0.14870	-0.33348
0.02119	-0.18043
-0.18282	0.20219
-0.13181	0.58480
0.35272	-0.18043
0.37822	0.30422
0.35272	0.20219
0.32721	-0.02739
-0.08081	0.66132
-0.00431	0.55929
0.12320	-0.51203
0.45472	-0.30797
0.30171	0.27871
0.22521	0.25320
0.07220	-0.10391
0.04670	0.73785
-0.02981	-0.05289
-0.20832	0.22769
0.04670	-0.05289
0.32721	-0.33348
0.45472	-0.25695
0.27621	1.19699
0.30171	-0.56305
0.22521	0.55929
-0.18282	0.45726
-0.36133	0.76336
0.30171	0.02363
0.32721	0.20219
0.45472	0.25320
0.09770	-0.74160
0.30171	0.66132
0.22521	-0.10391
-0.02981	-0.66508
-0.25932	1.17148
-0.05531	0.27871
0.30171	-1.27726
0.27621	1.14597
0.50573	0.25320
0.32721	-1.71090
0.19971	0.66132
-0.15732	1.04394
-0.43783	1.17148
0.02119	1.29902
0.19971	-1.09871
0.25071	-0.63957
0.19971	-0.51203
0.35272	0.91640
0.70974	0.07465
0.65874	0.89089
0.27621	0.22769
-0.31033	-0.18043
-0.56534	-0.58856
-0.10631	0.30422
0.42922	-0.20594
0.53123	0.76336
0.40372	-0.30797
0.22521	-0.35899
0.02119	1.09496
0.07220	1.12046
0.14870	-0.46102
0.17421	-1.94047
0.14870	1.68163
0.14870	-0.15492
0.02119	0.50828
0.09770	2.31933
0.07220	-0.71609
0.27621	0.17668
0.42922	-0.69059
0.17421	-0.71609
-0.10631	-0.76711
-0.08081	0.10015
0.27621	1.35003
0.42922	0.83988
0.37822	0.04914
0.22521	-0.58856
