0.17421	0.25320
0.22521	0.30422
0.27621	0.55929
0.19971	0.10015
0.12320	0.02363
0.12320	0.17668
0.14870	0.25320
0.04670	-0.05289
0.04670	0.15117
0.07220	0.12566
0.09770	-0.02739
0.09770	0.22769
0.09770	0.22769
0.14870	0.20219
0.14870	0.17668
0.14870	0.20219
0.19971	0.17668
0.19971	0.10015
0.22521	-0.02739
0.22521	0.17668
0.14870	0.02363
0.14870	0.15117
0.14870	0.30422
0.09770	0.40625
0.14870	0.27871
0.14870	0.02363
0.19971	0.22769
0.14870	0.27871
0.12320	0.20219
0.07220	-0.00188
0.14870	-0.00188
0.14870	0.27871
0.17421	0.15117
0.22521	0.22769
0.14870	-0.58856
0.09770	-0.35899
0.07220	0.35523
0.12320	0.48277
0.14870	0.53379
0.22521	0.35523
0.17421	0.02363
0.17421	0.10015
0.17421	0.10015
0.09770	0.27871
0.14870	0.32972
0.17421	0.17668
0.19971	0.07465
0.19971	-0.20594
0.12320	0.15117
0.17421	0.35523
0.17421	0.22769
0.17421	0.12566
0.12320	0.10015
0.14870	0.12566
0.12320	0.25320
0.19971	0.15117
0.19971	0.10015
0.12320	-0.48652
0.17421	0.38074
0.12320	0.12566
0.19971	0.17668
0.17421	-0.15492
0.22521	0.30422
0.22521	0.45726
0.12320	0.35523
0.12320	0.25320
0.09770	0.12566
0.09770	0.02363
0.09770	0.07465
0.14870	-0.00188
0.14870	0.17668
0.22521	0.17668
0.25071	0.22769
0.12320	0.15117
0.07220	0.04914
0.09770	-0.00188
0.14870	-0.41000
0.12320	0.30422
0.12320	0.20219
0.22521	0.55929
0.22521	0.45726
0.14870	0.32972
0.12320	0.10015
0.12320	0.30422
0.14870	-0.33348
0.17421	-0.25695
0.22521	0.45726
0.14870	0.38074
0.09770	0.35523
0.17421	0.30422
0.22521	0.32972
0.25071	0.10015
0.17421	-0.10391
0.12320	0.15117
0.12320	0.22769
0.19971	0.20219
0.09770	0.07465
0.09770	-0.20594
0.14870	0.25320
0.14870	0.10015
0.09770	0.30422
0.09770	0.17668
0.14870	0.35523
0.22521	0.15117
0.12320	0.17668
0.07220	0.12566
0.07220	0.15117
0.17421	0.20219
0.22521	0.15117
0.19971	0.10015
0.19971	0.04914
0.14870	0.07465
0.22521	0.22769
0.12320	0.04914
0.17421	0.17668
0.17421	0.30422
0.19971	0.07465
0.17421	0.10015
0.14870	0.10015
0.07220	0.15117
0.09770	0.22769
0.14870	0.22769
0.14870	0.17668
0.22521	-0.28246
0.14870	0.17668
0.14870	0.22769
0.19971	0.43176
0.12320	0.10015
0.12320	0.27871
0.07220	0.25320
0.22521	0.17668
0.17421	-0.07840
0.09770	0.32972
0.14870	0.48277
0.14870	0.15117
0.19971	0.04914
0.17421	-0.05289
0.12320	0.17668
0.07220	0.25320
0.14870	0.12566
0.14870	-0.00188
0.19971	0.02363
0.19971	0.22769
0.17421	0.22769
0.19971	0.17668
0.04670	-0.10391
0.14870	0.10015
0.19971	0.32972
0.22521	0.12566
0.12320	0.07465
0.07220	0.30422
0.17421	0.50828
0.22521	0.48277
0.19971	0.25320
0.12320	-0.07840
0.17421	-0.48652
0.12320	0.10015
0.12320	0.45726
0.17421	0.35523
0.09770	-0.41000
0.09770	0.04914
0.12320	0.58480
0.14870	0.48277
0.22521	0.17668
0.12320	0.17668
0.07220	0.02363
0.07220	0.07465
0.12320	-0.00188
0.22521	0.12566
0.07220	0.02363
0.12320	0.02363
0.17421	0.20219
0.22521	0.10015
0.17421	0.15117
0.14870	0.15117
0.12320	0.07465
0.04670	0.04914
0.14870	0.10015
0.22521	0.25320
0.22521	0.38074
0.17421	0.35523
0.17421	0.40625
0.12320	-0.02739
0.09770	0.10015
0.07220	0.02363
0.17421	-0.00188
0.19971	0.22769
0.17421	0.45726
0.14870	0.35523
0.14870	0.35523
0.12320	0.12566
0.12320	-0.00188
0.17421	-0.46102
0.07220	0.07465
0.07220	0.12566
0.04670	0.25320
0.07220	-0.00188
0.07220	0.45726
0.07220	0.32972
0.17421	0.12566
0.14870	-0.18043
0.17421	0.35523
0.22521	0.45726
0.22521	0.15117
0.12320	0.30422
0.12320	0.22769
0.14870	0.10015
0.14870	0.04914
0.07220	0.02363
0.14870	0.15117
0.14870	0.17668
0.17421	0.25320
0.22521	0.20219
0.19971	0.27871
0.14870	0.25320
0.12320	0.17668
0.04670	0.10015
0.07220	-0.46102
0.14870	0.27871
0.17421	0.35523
0.12320	0.20219
0.22521	0.22769
0.17421	0.07465
0.14870	0.20219
0.07220	0.20219
0.14870	0.50828
0.12320	0.15117
0.19971	-0.15492
0.12320	-1.04770
0.09770	-0.05289
0.14870	0.68683
0.17421	0.76336
0.14870	0.55929
0.09770	0.17668
0.14870	0.15117
0.12320	0.12566
0.12320	0.02363
0.19971	-0.05289
0.14870	0.17668
0.07220	-0.18043
0.12320	0.07465
0.17421	0.15117
0.22521	0.25320
0.17421	0.20219
0.17421	0.15117
0.14870	0.32972
0.07220	0.10015
0.12320	0.04914
0.07220	-0.00188
0.09770	0.35523
0.09770	0.22769
0.14870	0.22769
0.19971	-0.74160
0.19971	0.20219
0.19971	0.30422
0.19971	0.40625
0.09770	0.43176
0.07220	0.27871
0.14870	0.32972
0.14870	0.32972
0.22521	0.20219
0.17421	-0.05289
0.09770	-0.18043
0.12320	-0.18043
0.22521	-0.05289
0.19971	0.48277
0.12320	0.30422
0.12320	0.20219
0.07220	0.10015
0.09770	-0.00188
0.07220	0.22769
0.12320	0.17668
0.09770	0.32972
0.07220	0.12566
0.12320	0.04914
0.12320	0.20219
0.12320	0.25320
0.12320	0.17668
0.22521	0.15117
0.22521	0.27871
0.22521	0.10015
0.19971	0.30422
0.12320	-0.12942
0.12320	-0.02739
0.07220	0.15117
0.12320	-0.02739
0.12320	0.30422
0.22521	0.48277
0.22521	0.43176
0.19971	0.22769
0.17421	0.30422
0.17421	0.25320
0.17421	0.15117
0.14870	-0.81812
0.12320	-0.05289
0.14870	0.32972
0.17421	0.53379
0.19971	-0.10391
0.22521	0.43176
0.12320	0.12566
0.17421	0.22769
0.09770	-0.00188
0.09770	0.15117
0.17421	0.27871
0.17421	0.20219
0.12320	0.12566
0.04670	0.07465
0.07220	0.04914
0.17421	0.12566
0.17421	0.04914
0.14870	0.15117
0.12320	0.20219
0.17421	0.35523
0.14870	0.25320
0.19971	0.15117
0.14870	-0.63957
0.09770	0.25320
0.12320	0.50828
0.22521	0.30422
0.14870	0.30422
0.12320	0.07465
0.17421	0.12566
0.22521	0.02363
0.12320	0.15117
0.04670	0.15117
0.14870	0.15117
0.09770	-0.02739
0.22521	-0.05289
0.12320	0.27871
0.17421	0.32972
0.07220	0.20219
0.12320	0.30422
0.14870	0.22769
0.14870	0.22769
0.19971	-0.56305
0.17421	0.02363
0.12320	0.30422
0.14870	0.25320
0.12320	0.22769
0.12320	0.15117
0.04670	0.27871
0.17421	0.27871
0.25071	0.38074
0.25071	-0.66508
0.12320	0.10015
0.07220	0.07465
0.09770	0.35523
0.12320	0.38074
0.22521	0.22769
0.12320	-0.05289
0.07220	0.15117
0.19971	0.17668
0.19971	0.32972
0.14870	0.22769
0.07220	0.12566
0.17421	0.10015
0.12320	0.17668
0.14870	0.15117
0.14870	0.17668
0.07220	-0.02739
0.14870	0.10015
0.19971	0.30422
0.22521	-0.00188
0.25071	-0.07840
0.12320	-0.05289
0.04670	0.12566
0.09770	0.38074
0.19971	0.27871
0.19971	0.30422
0.14870	0.25320
0.17421	0.30422
0.09770	0.22769
0.12320	0.10015
0.22521	-0.97117
0.22521	0.30422
0.14870	0.55929
0.12320	0.45726
0.04670	0.27871
0.12320	0.04914
0.17421	0.17668
0.19971	0.25320
0.22521	0.17668
0.22521	0.22769
0.17421	-0.02739
0.09770	0.04914
0.12320	0.10015
0.22521	0.12566
0.12320	0.15117
0.07220	-0.00188
0.17421	0.10015
0.22521	-0.33348
0.17421	0.32972
0.07220	0.30422
0.07220	0.32972
0.14870	-0.38449
0.12320	0.43176
0.17421	0.32972
0.14870	0.38074
0.14870	0.22769
0.12320	-0.07840
0.07220	0.17668
0.09770	0.02363
0.12320	0.15117
0.14870	0.04914
0.19971	0.32972
0.12320	0.22769
0.12320	0.15117
0.07220	0.10015
0.14870	0.02363
0.22521	0.22769
0.19971	0.25320
0.14870	0.32972
0.07220	-0.00188
0.17421	0.02363
0.14870	-0.23145
0.19971	0.12566
0.17421	0.17668
0.07220	0.12566
0.12320	0.35523
0.14870	0.02363
0.22521	0.40625
0.22521	-0.07840
0.17421	0.30422
0.17421	0.15117
0.07220	-0.18043
0.12320	0.32972
0.19971	0.48277
0.12320	0.15117
0.07220	0.07465
0.12320	0.12566
0.14870	0.12566
0.12320	0.12566
0.19971	0.15117
0.22521	0.27871
0.12320	0.12566
0.04670	-0.05289
0.12320	-0.20594
0.07220	0.04914
0.22521	0.30422
0.17421	0.25320
0.09770	-0.23145
0.14870	0.35523
0.22521	0.50828
0.25071	0.35523
0.14870	0.30422
0.12320	0.48277
0.12320	0.10015
0.09770	0.15117
0.07220	-0.79262
0.09770	0.10015
0.14870	0.32972
0.17421	0.32972
0.14870	0.35523
0.22521	0.25320
0.17421	0.17668
0.22521	0.12566
0.19971	0.20219
0.12320	-0.20594
0.17421	0.04914
0.25071	0.35523
0.22521	0.27871
0.17421	0.15117
0.14870	0.27871
0.17421	0.12566
0.14870	0.10015
0.07220	-0.02739
0.14870	0.15117
0.14870	0.12566
0.19971	-0.15492
0.22521	0.35523
0.14870	0.25320
0.22521	0.20219
0.09770	0.10015
0.09770	0.04914
0.12320	0.32972
0.12320	0.25320
0.17421	0.25320
0.12320	0.07465
0.04670	0.10015
0.07220	0.07465
0.09770	0.10015
0.12320	0.17668
0.19971	0.20219
0.19971	0.04914
0.14870	-0.07840
0.09770	0.17668
0.09770	0.17668
0.19971	0.17668
0.22521	0.04914
0.17421	-0.05289
0.07220	0.32972
0.14870	0.35523
0.19971	-0.07840
0.22521	-0.10391
0.12320	0.22769
0.04670	0.07465
0.04670	0.17668
0.12320	0.32972
0.12320	0.32972
0.19971	0.20219
0.22521	0.25320
0.17421	-0.00188
0.12320	0.04914
0.09770	-0.81812
0.17421	0.35523
0.12320	0.38074
0.19971	0.30422
0.22521	0.40625
0.09770	0.32972
0.09770	0.15117
0.12320	-0.05289
0.19971	-0.23145
0.25071	0.40625
0.14870	0.40625
0.17421	0.30422
0.04670	0.07465
0.12320	-0.12942
0.17421	0.25320
0.12320	0.22769
0.07220	0.12566
0.17421	0.12566
0.27621	0.27871
0.17421	0.22769
0.14870	0.10015
0.07220	0.04914
0.17421	-0.00188
0.22521	0.20219
0.12320	0.22769
0.07220	0.12566
0.09770	0.30422
0.14870	0.25320
0.14870	0.20219
0.22521	-0.05289
0.22521	0.10015
0.22521	0.30422
0.22521	0.30422
0.17421	0.22769
0.17421	0.30422
0.19971	0.10015
0.25071	0.02363
0.17421	0.15117
0.17421	0.20219
0.19971	0.20219
0.14870	0.10015
0.12320	0.07465
0.09770	-0.07840
0.09770	0.10015
0.14870	0.07465
0.14870	0.25320
0.22521	0.32972
0.17421	0.22769
0.09770	0.12566
0.17421	0.10015
0.22521	0.12566
0.22521	-0.20594
0.14870	0.04914
0.04670	0.22769
0.12320	0.43176
0.14870	0.30422
0.17421	-0.23145
0.09770	0.20219
0.14870	0.40625
0.17421	0.32972
0.19971	0.20219
0.12320	0.20219
0.12320	0.15117
0.12320	0.12566
0.09770	-0.35899
0.09770	0.10015
0.17421	-0.05289
0.14870	0.35523
0.25071	0.27871
0.22521	0.35523
0.12320	0.27871
0.12320	0.15117
0.07220	-0.10391
0.04670	-0.00188
0.07220	0.22769
0.14870	0.35523
0.17421	0.27871
0.14870	0.17668
0.12320	0.02363
0.14870	0.12566
0.25071	0.22769
0.22521	0.12566
0.14870	0.04914
0.12320	0.17668
0.17421	0.25320
0.12320	0.20219
0.14870	0.15117
0.09770	0.15117
0.14870	0.22769
0.25071	0.15117
0.12320	0.04914
0.04670	-0.00188
0.12320	0.12566
0.22521	0.25320
0.14870	0.04914
0.09770	0.15117
0.14870	0.25320
0.25071	0.32972
0.17421	0.15117
0.09770	0.12566
0.14870	0.17668
0.12320	0.04914
0.12320	0.04914
0.09770	-0.23145
0.19971	0.10015
0.17421	0.20219
0.07220	0.22769
0.14870	0.50828
0.17421	0.15117
0.09770	0.07465
0.12320	0.12566
0.12320	0.10015
0.17421	0.07465
0.12320	0.12566
0.12320	-0.41000
0.19971	0.40625
0.14870	0.27871
0.09770	0.22769
0.12320	-0.20594
0.14870	0.38074
0.14870	0.30422
0.22521	0.22769
0.14870	0.17668
0.12320	-0.00188
0.07220	0.07465
0.14870	0.07465
0.17421	0.22769
0.25071	0.12566
0.25071	0.30422
0.22521	0.12566
0.12320	0.10015
0.14870	-0.02739
0.14870	0.17668
0.12320	0.17668
0.04670	0.15117
0.07220	0.17668
0.09770	0.15117
0.09770	0.15117
0.14870	0.17668
0.14870	0.15117
0.14870	0.17668
0.12320	0.12566
0.12320	0.20219
0.14870	0.15117
0.12320	0.12566
0.14870	0.15117
0.25071	0.17668
0.12320	0.30422
0.22521	0.25320
0.22521	0.25320
0.17421	0.35523
0.12320	0.17668
0.07220	-0.07840
0.02119	-0.35899
0.02119	-0.00188
0.09770	0.38074
0.07220	-0.74160
0.12320	0.40625
0.12320	0.50828
0.09770	0.30422
0.12320	0.25320
0.04670	0.38074
0.14870	0.25320
0.09770	0.04914
0.12320	0.07465
0.12320	0.15117
0.14870	0.30422
0.19971	0.38074
0.17421	0.32972
0.17421	-0.51203
0.12320	-1.12422
0.07220	0.30422
0.07220	0.48277
0.04670	0.83988
0.09770	0.83988
0.12320	0.35523
0.19971	0.38074
0.12320	-1.14973
0.14870	-0.71609
0.12320	1.12046
0.17421	1.29902
0.17421	1.57960
0.22521	-2.29757
0.22521	0.20219
0.12320	0.15117
0.14870	1.86019
0.30171	-1.53234
0.14870	0.17668
0.12320	2.34484
0.32721	-4.05761
-0.20832	1.68163
-0.33583	-0.23145
0.14870	0.10015
0.32721	0.73785
0.32721	-1.02219
0.35272	0.94191
0.19971	1.09496
0.30171	5.07416
0.14870	3.39065
0.19971	-9.46525
0.40372	-1.48133
-0.33583	0.20219
-0.51434	-0.56305
-0.46334	2.29382
0.19971	-0.46102
0.42922	3.13558
0.76074	0.07465
1.09226	-1.50683
0.50573	0.38074
0.40372	0.27871
0.58223	2.29382
-0.48884	1.04394
-0.94787	-1.30277
-0.64185	1.17148
-0.23382	-0.48652
0.58223	-1.32828
0.93925	-0.30797
0.09770	-1.30277
-0.00431	-0.48652
-0.36133	-0.53754
0.27621	-0.33348
0.60773	3.67124
0.63323	-0.41000
0.27621	2.08976
0.55673	2.21730
0.42922	0.20219
1.04126	2.08976
1.42379	-2.52714
0.30171	-6.58288
-0.94787	-0.48652
-2.63097	3.23761
-2.65648	1.06945
-1.71292	-0.05289
0.12320	1.98773
1.21977	-2.93527
2.26534	1.19699
2.87738	1.06945
2.13783	0.30422
1.11776	0.02363
0.65874	0.38074
0.07220	2.85499
-0.41233	0.02363
-1.25389	-1.20074
-1.86593	0.45726
-1.50890	0.22769
-1.20288	-2.52714
0.55673	-0.02739
1.67880	-0.18043
1.11776	1.98773
-0.18282	-1.58336
-1.10088	-1.76191
-0.41233	-0.15492
1.90832	2.42136
1.80631	1.47757
1.60230	1.27351
0.83725	-0.30797
0.48022	0.50828
-0.00431	0.25320
-0.28482	-0.10391
-0.36133	0.86539
-0.76936	-0.79262
-1.10088	-0.69059
-1.12638	-0.07840
-0.76936	2.24281
-0.08081	-0.84363
-0.02981	1.91120
0.60773	-1.94047
0.91375	0.43176
1.72980	0.78886
1.90832	-1.73640
0.88825	0.68683
-0.38683	1.55410
-0.74385	-1.09871
0.68424	-0.71609
0.96476	0.48277
0.04670	0.71234
-0.64185	1.83468
-0.76936	-0.41000
-0.48884	0.68683
0.35272	0.22769
0.40372	3.05905
0.55673	-2.09351
0.42922	-0.56305
0.07220	1.96222
-0.20832	-1.71090
-0.02981	-0.94566
0.17421	0.96742
0.35272	0.89089
0.19971	-0.35899
0.14870	-2.50164
-0.31033	-0.61406
-0.41233	-0.97117
0.48022	1.32453
0.40372	2.29382
0.09770	1.19699
-0.10631	0.43176
0.32721	1.14597
0.42922	1.45206
0.42922	-1.76191
0.65874	0.35523
0.02119	-2.50164
-0.36133	-1.50683
0.25071	2.08976
0.42922	0.66132
0.48022	-0.07840
0.40372	-0.05289
0.12320	0.53379
0.02119	0.66132
-0.02981	0.35523
-0.05531	0.22769
0.12320	0.94191
0.14870	1.29902
0.32721	-3.31788
0.48022	-1.09871
0.04670	-0.00188
-0.69285	0.71234
-1.02437	1.24800
-0.59084	1.01843
0.81175	1.24800
1.16877	0.61031
0.81175	0.20219
0.27621	-0.48652
0.76074	1.01843
0.53123	-1.09871
0.27621	-1.55785
-0.00431	0.50828
-0.00431	0.25320
-0.02981	0.55929
0.37822	0.89089
0.25071	0.76336
-0.38683	0.89089
-0.89686	-0.33348
-0.79486	-0.07840
0.09770	0.40625
0.55673	-0.35899
0.32721	-0.71609
-0.02981	0.20219
0.14870	0.66132
0.68424	-0.18043
0.86275	0.04914
0.30171	0.04914
0.25071	0.61031
0.14870	0.94191
-0.00431	-0.79262
-0.05531	-0.53754
-0.20832	1.68163
0.02119	0.96742
0.32721	-0.99668
0.17421	1.98773
0.17421	-0.58856
0.27621	-1.94047
0.02119	0.07465
-0.10631	2.21730
-0.23382	-2.19554
0.19971	0.61031
0.53123	1.12046
0.70974	0.58480
0.53123	0.50828
-0.08081	-1.17523
-0.99887	-0.35899
-0.18282	-1.53234
0.45472	2.37034
0.99026	1.75816
0.83725	1.37554
0.48022	0.20219
0.14870	-1.86394
0.12320	0.20219
0.07220	-0.12942
-0.48884	-1.53234
-1.55991	0.25320
-0.46334	0.45726
0.48022	0.53379
0.65874	-0.20594
0.83725	1.09496
0.60773	-0.69059
0.25071	1.70714
0.35272	0.94191
-0.25932	-3.82804
0.02119	1.19699
-0.15732	1.22250
-0.00431	-1.91496
0.40372	-0.10391
0.27621	1.78367
0.09770	1.06945
-0.20832	-0.25695
0.02119	0.22769
0.32721	-0.05289
0.22521	1.78367
0.07220	0.50828
0.40372	-0.25695
0.81175	-1.32828
0.76074	-0.46102
-0.25932	-0.15492
-1.33039	-0.23145
-2.17195	0.63582
0.22521	-0.51203
0.99026	1.24800
1.37278	-0.02739
1.34728	0.83988
1.11776	-1.60887
0.60773	-0.23145
0.27621	1.32453
-0.08081	-0.79262
-0.10631	0.50828
-0.31033	-0.48652
-1.30489	0.38074
-0.66735	0.55929
0.04670	0.99292
0.45472	-1.83844
0.65874	2.31933
0.55673	1.17148
0.19971	-2.50164
-0.00431	-0.02739
0.09770	-1.14973
0.17421	0.30422
-0.02981	1.37554
0.45472	0.30422
0.22521	0.61031
0.45472	0.55929
0.32721	0.12566
-0.20832	0.20219
-0.13181	-0.76711
0.32721	1.29902
0.48022	-1.55785
0.99026	-1.17523
0.65874	-0.74160
-0.36133	1.12046
-2.40146	-0.25695
-1.40690	0.58480
1.01576	2.26831
1.37278	-0.43551
0.96476	0.27871
0.73524	1.40105
0.17421	0.04914
0.04670	-0.23145
0.12320	0.71234
0.40372	0.22769
0.96476	-0.86914
-0.13181	0.63582
-0.23382	-2.27207
-0.38683	0.81437
-0.38683	0.43176
0.27621	0.22769
-0.05531	-0.00188
0.02119	0.15117
-0.15732	-0.74160
-0.13181	3.00804
0.32721	-0.58856
0.53123	0.68683
0.63323	-0.89465
0.42922	-0.79262
0.17421	0.71234
0.19971	-0.07840
0.53123	1.09496
0.25071	0.45726
-0.33583	1.04394
-0.53984	0.32972
-0.28482	-1.58336
0.42922	0.12566
0.48022	-1.12422
0.78624	0.99292
0.40372	0.22769
-0.13181	0.94191
-0.33583	0.15117
-0.08081	-2.22105
0.55673	0.89089
0.22521	2.16628
-0.05531	0.55929
-0.20832	0.50828
-0.08081	-0.10391
0.17421	2.29382
0.35272	-1.60887
-0.05531	-1.20074
-0.20832	-0.48652
0.40372	1.35003
0.32721	0.10015
0.50573	-0.07840
0.60773	-0.51203
0.37822	0.04914
0.02119	1.37554
-0.10631	0.58480
-0.00431	-2.19554
-0.20832	0.32972
-0.13181	-0.18043
0.25071	1.65613
0.19971	4.07936
0.04670	-3.72601
-0.05531	-0.33348
0.07220	0.30422
0.12320	-0.18043
0.42922	-0.61406
0.12320	1.57960
-0.02981	1.12046
0.17421	0.40625
0.65874	1.57960
0.55673	-1.94047
0.14870	-0.56305
0.07220	-1.12422
0.14870	-0.53754
-0.00431	2.42136
0.32721	0.66132
0.22521	0.71234
0.19971	-0.23145
-0.18282	-1.55785
-0.02981	-0.28246
-0.36133	0.63582
0.35272	-1.07320
-0.23382	1.27351
-0.48884	1.42656
0.12320	0.71234
0.86275	0.76336
1.01576	0.45726
0.76074	0.91640
0.07220	-0.92016
-0.18282	-0.86914
0.07220	-0.25695
0.07220	-0.05289
0.07220	0.89089
-0.00431	0.02363
0.35272	-0.38449
0.07220	-0.69059
0.12320	0.61031
0.07220	1.14597
0.09770	-4.23616
-0.05531	0.40625
-0.05531	1.52859
-0.53984	1.80917
-0.08081	1.06945
0.53123	0.25320
0.68424	1.12046
0.70974	-0.38449
0.48022	1.32453
0.22521	-1.17523
-0.08081	-0.58856
0.02119	0.86539
-0.10631	0.35523
0.17421	-1.07320
0.42922	0.63582
-0.10631	-0.30797
0.02119	-0.51203
0.14870	0.63582
0.27621	0.07465
0.27621	0.12566
-0.13181	1.12046
0.04670	-0.15492
0.70974	-0.76711
0.65874	-0.53754
-0.33583	0.86539
-0.99887	-0.15492
-0.56534	0.96742
0.68424	1.70714
0.93925	0.78886
0.91375	-0.20594
0.50573	-0.05289
0.12320	0.20219
-0.61635	-1.91496
-0.10631	0.55929
0.09770	-0.66508
0.32721	2.21730
0.12320	1.09496
0.09770	-0.18043
0.17421	-1.20074
0.25071	0.43176
0.09770	0.91640
0.12320	-2.09351
-0.05531	2.34484
-0.00431	-1.09871
0.09770	-3.62398
0.30171	1.83468
-0.08081	2.06425
0.37822	2.85499
0.55673	-0.66508
0.60773	0.10015
0.22521	0.89089
-0.20832	-0.25695
-0.38683	0.04914
-0.10631	0.53379
0.68424	-0.89465
0.48022	-0.25695
0.09770	-1.20074
-0.61635	-0.05289
0.02119	0.63582
0.32721	-0.10391
0.53123	-1.55785
0.53123	1.12046
0.30171	1.63062
-0.20832	-0.30797
-0.69285	-0.79262
-0.82036	0.50828
-0.08081	0.43176
0.50573	0.83988
0.88825	1.04394
0.83725	0.68683
0.81175	1.09496
0.58223	-1.65988
-0.28482	0.40625
-0.51434	-1.48133
-0.18282	0.55929
0.17421	0.48277
-0.02981	-0.43551
0.02119	0.66132
-0.28482	0.96742
0.27621	0.02363
0.27621	0.40625
0.32721	-1.86394
0.27621	1.14597
0.32721	-0.38449
0.25071	1.09496
0.12320	-0.53754
0.02119	1.24800
-0.15732	-0.00188
0.04670	-3.19035
0.17421	1.63062
0.09770	0.89089
0.40372	0.32972
0.42922	-0.15492
0.48022	0.66132
0.19971	1.19699
-0.02981	-0.61406
0.14870	0.20219
0.22521	-0.35899
0.25071	-0.12942
-0.10631	0.63582
-0.36133	-0.33348
0.07220	-0.07840
0.19971	-1.96597
0.12320	1.09496
0.25071	0.96742
0.32721	1.17148
0.42922	-0.15492
0.22521	-0.79262
0.17421	0.94191
0.17421	-0.30797
-0.18282	0.66132
0.17421	-1.40480
0.09770	0.68683
-0.10631	-0.02739
0.14870	1.01843
0.45472	1.19699
0.42922	1.19699
0.55673	-0.66508
0.40372	-0.02739
0.02119	0.35523
0.02119	-0.48652
-0.02981	-0.07840
0.07220	0.40625
0.22521	0.04914
-0.00431	0.45726
0.09770	0.30422
-0.02981	-4.66979
0.07220	-0.02739
0.22521	0.30422
0.35272	2.01323
0.40372	2.54890
0.14870	0.73785
0.48022	0.99292
0.02119	0.25320
-0.53984	-0.97117
-1.17738	0.96742
0.04670	-0.25695
0.78624	-2.24656
0.86275	0.73785
0.65874	-0.07840
0.63323	-0.81812
0.53123	0.96742
0.35272	0.99292
-0.31033	-0.86914
-0.41233	0.20219
-0.18282	0.30422
-0.18282	0.15117
-0.05531	1.24800
0.12320	-1.04770
0.17421	0.61031
0.35272	0.45726
0.32721	0.04914
0.32721	1.06945
0.14870	0.45726
0.04670	0.63582
0.12320	-2.70570
0.37822	0.30422
0.07220	1.37554
0.14870	1.19699
-0.25932	-0.00188
-0.31033	0.66132
0.17421	-0.66508
0.40372	0.07465
0.48022	0.66132
0.27621	1.12046
0.22521	-2.50164
0.48022	0.12566
0.32721	1.04394
0.25071	0.35523
-0.15732	0.17668
-0.23382	-0.89465
-0.15732	-1.86394
0.04670	0.61031
0.17421	1.12046
0.12320	1.04394
0.12320	0.27871
0.25071	-1.30277
0.19971	1.14597
0.02119	1.35003
0.07220	1.68163
0.22521	0.78886
0.32721	-0.71609
0.45472	0.15117
0.30171	-1.20074
-0.10631	-0.30797
-0.53984	0.45726
-0.41233	-0.76711
0.42922	1.09496
0.48022	0.02363
0.37822	0.25320
0.55673	0.45726
0.27621	0.71234
0.27621	0.53379
0.27621	-0.15492
0.27621	0.55929
0.22521	0.25320
-0.51434	0.22769
-0.46334	-0.81812
0.22521	-1.07320
0.45472	0.78886
0.37822	0.96742
0.32721	-0.58856
0.37822	1.01843
0.25071	-2.06800
0.09770	1.98773
-0.18282	0.45726
-0.08081	0.81437
0.07220	0.91640
0.09770	0.22769
-0.02981	0.25320
0.14870	-1.20074
0.32721	-0.25695
0.55673	-0.92016
0.27621	-1.07320
0.32721	0.20219
0.27621	1.01843
0.42922	1.78367
0.19971	0.10015
0.09770	0.99292
-0.94787	-0.63957
-0.25932	0.45726
0.40372	-0.38449
0.60773	0.30422
0.58223	0.48277
-0.05531	1.68163
-0.00431	0.99292
0.22521	-2.73121
0.14870	-1.60887
0.19971	1.63062
0.25071	0.63582
0.25071	-0.46102
0.14870	-0.07840
0.30171	1.37554
0.32721	1.14597
-0.20832	0.73785
-0.43783	-0.05289
-0.28482	-1.07320
0.07220	-0.20594
0.60773	1.98773
0.30171	0.99292
0.07220	0.40625
0.04670	-2.88425
-0.02981	-0.41000
0.53123	0.66132
0.76074	0.61031
0.45472	0.78886
0.22521	0.96742
0.09770	0.76336
0.04670	0.73785
0.09770	0.50828
0.07220	-1.53234
-0.10631	1.17148
-0.25932	-1.55785
-0.20832	1.14597
0.04670	-0.97117
0.27621	-0.30797
0.42922	-0.61406
0.32721	0.30422
0.27621	0.55929
0.30171	0.45726
0.09770	0.40625
0.19971	2.44687
-0.05531	-0.35899
0.02119	0.04914
-0.05531	-1.58336
0.27621	0.91640
0.60773	0.10015
0.68424	-0.10391
0.22521	1.22250
0.19971	-1.22625
0.02119	0.58480
-0.05531	0.12566
-0.28482	0.68683
-0.31033	-0.38449
-0.20832	0.20219
0.35272	-0.46102
0.32721	-0.58856
0.40372	0.35523
0.04670	0.50828
0.14870	1.50308
-0.38683	-1.83844
0.35272	0.78886
0.99026	0.66132
0.55673	1.37554
0.19971	-0.79262
-0.18282	1.22250
-0.05531	-2.19554
0.27621	1.09496
0.32721	-1.63437
0.32721	1.73265
0.12320	-0.35899
-0.15732	0.20219
-0.71835	-0.05289
-0.59084	1.06945
0.02119	0.48277
0.83725	0.04914
0.83725	2.26831
0.42922	-2.11902
0.17421	0.66132
0.17421	-0.07840
0.14870	0.86539
-0.00431	0.04914
-0.02981	-0.07840
-0.23382	-0.43551
-0.00431	0.43176
0.50573	0.30422
0.50573	0.58480
0.27621	-0.84363
-0.13181	0.63582
-0.28482	0.35523
0.04670	0.58480
0.30171	-0.30797
0.42922	-1.68539
0.30171	1.24800
0.02119	-0.86914
-0.08081	0.53379
-0.10631	1.42656
0.14870	0.30422
0.48022	0.04914
-0.02981	0.35523
-0.08081	-0.10391
0.42922	0.45726
0.32721	-0.58856
0.30171	0.20219
0.42922	-0.33348
0.14870	-0.07840
0.27621	0.91640
-0.02981	0.99292
0.53123	0.71234
-0.05531	-1.02219
-0.20832	-0.66508
0.09770	-0.35899
0.09770	0.58480
0.37822	-0.61406
0.32721	0.40625
0.12320	0.17668
-0.05531	1.86019
-0.25932	-1.48133
-0.23382	-0.15492
0.27621	1.45206
0.60773	-0.69059
0.68424	-0.28246
0.32721	1.55410
-0.71835	0.81437
-0.15732	0.38074
0.73524	-0.71609
0.48022	1.14597
0.04670	-0.69059
0.17421	-0.41000
0.40372	-0.66508
0.19971	1.24800
0.09770	-0.35899
-0.13181	1.55410
-0.23382	0.20219
-0.02981	1.37554
0.14870	-0.76711
0.37822	-0.38449
0.12320	0.17668
0.14870	0.50828
0.22521	-0.92016
0.09770	1.32453
0.12320	0.76336
0.19971	-0.43551
0.32721	-1.12422
0.04670	-0.30797
0.09770	1.40105
0.12320	0.63582
-0.08081	-0.10391
0.02119	-0.02739
0.32721	0.83988
0.27621	0.02363
0.19971	-0.10391
0.19971	-0.86914
0.70974	0.40625
0.19971	1.01843
0.27621	0.25320
0.07220	1.14597
-0.20832	-1.88945
-0.36133	-1.37929
0.22521	0.61031
0.17421	1.40105
0.40372	-0.15492
-0.05531	0.83988
-0.02981	0.04914
-0.25932	-0.51203
-0.20832	-0.56305
-0.18282	1.14597
0.58223	1.93671
0.65874	-0.07840
0.58223	-2.45062
0.42922	0.76336
0.22521	-0.66508
0.25071	1.93671
0.27621	0.71234
0.07220	-0.48652
-0.56534	0.71234
-0.33583	-1.40480
0.27621	1.06945
0.27621	-1.02219
0.25071	0.45726
0.22521	1.17148
-0.18282	-0.69059
0.32721	0.38074
0.70974	0.71234
0.14870	-0.00188
-0.18282	0.53379
0.12320	1.06945
0.30171	-0.53754
0.22521	-1.12422
0.17421	-0.35899
0.19971	1.57960
0.19971	-1.07320
0.37822	1.24800
0.22521	0.25320
0.17421	-1.60887
0.12320	0.53379
-0.23382	0.27871
-0.46334	1.32453
-0.23382	0.55929
0.45472	-0.56305
0.50573	0.45726
0.25071	1.35003
0.40372	-1.50683
0.40372	0.20219
-0.00431	0.32972
-0.08081	-1.17523
-0.20832	0.55929
-0.38683	0.40625
0.55673	1.22250
0.86275	1.57960
0.91375	-3.06281
-0.33583	-0.99668
-0.13181	1.65613
-0.00431	-0.00188
-0.00431	-1.09871
0.22521	0.96742
-0.00431	0.76336
0.09770	1.12046
0.02119	0.58480
0.17421	0.12566
0.50573	0.17668
0.37822	-0.86914
0.35272	0.43176
0.12320	-0.15492
0.07220	-0.43551
0.07220	0.10015
-0.08081	-0.02739
0.07220	0.63582
-0.02981	0.22769
-0.08081	0.12566
-0.00431	0.55929
0.32721	-0.25695
0.55673	-0.12942
0.58223	0.83988
0.09770	0.58480
-0.33583	-0.76711
-0.74385	0.45726
-0.10631	-0.35899
0.78624	1.06945
0.68424	-0.35899
0.30171	-0.56305
0.25071	0.61031
0.68424	0.43176
-0.02981	0.96742
-0.51434	0.45726
-0.05531	-1.04770
0.30171	0.35523
0.25071	-0.51203
0.07220	0.55929
0.32721	0.10015
0.27621	0.53379
0.02119	0.40625
0.19971	0.81437
0.25071	-0.79262
0.09770	-0.30797
-0.02981	0.50828
-0.25932	1.47757
-0.48884	0.22769
0.19971	-0.23145
0.53123	-0.28246
0.63323	-0.10391
0.50573	0.04914
0.30171	-0.84363
0.17421	1.19699
0.09770	0.15117
-0.23382	-0.05289
-0.25932	0.63582
0.07220	0.86539
0.32721	0.86539
0.14870	-0.84363
0.25071	-0.07840
0.58223	0.94191
0.45472	-2.09351
0.22521	0.30422
-0.46334	0.25320
-0.33583	-0.48652
0.32721	0.73785
0.04670	-0.05289
0.60773	1.40105
0.07220	0.91640
-0.10631	2.16628
0.22521	0.04914
0.07220	-1.04770
0.12320	-1.40480
0.40372	-0.38449
0.27621	0.07465
0.12320	1.47757
0.12320	-0.10391
0.19971	0.07465
0.07220	0.78886
0.12320	0.96742
0.19971	-1.63437
0.07220	0.48277
-0.08081	0.76336
-0.10631	-0.66508
0.09770	0.86539
0.42922	-0.35899
0.50573	-0.46102
0.35272	1.04394
0.02119	1.06945
-0.28482	-0.86914
-0.46334	0.63582
0.09770	0.02363
0.37822	0.04914
0.65874	0.10015
0.60773	0.32972
0.65874	0.53379
0.32721	-0.25695
-0.18282	0.15117
-0.18282	0.10015
-0.05531	-0.63957
0.14870	0.53379
0.12320	-0.12942
0.02119	1.06945
0.12320	-0.89465
-0.02981	0.22769
-0.08081	-0.89465
-0.15732	0.61031
-0.33583	1.17148
0.42922	1.04394
0.40372	-0.23145
0.53123	-0.15492
0.22521	0.17668
0.02119	0.76336
0.07220	-0.66508
0.45472	-1.37929
0.32721	0.48277
0.12320	0.27871
-0.05531	0.04914
-0.10631	-0.25695
0.32721	1.04394
0.35272	-0.12942
0.25071	1.29902
0.19971	-2.17003
0.02119	-0.94566
0.25071	1.57960
0.07220	-0.74160
-0.05531	0.66132
-0.18282	0.53379
0.09770	0.27871
0.14870	0.68683
0.30171	-0.56305
0.32721	-0.05289
0.02119	0.73785
0.04670	-0.25695
0.22521	0.15117
0.40372	-0.41000
0.30171	-0.35899
0.19971	-0.10391
0.04670	1.93671
0.35272	0.76336
0.40372	0.94191
0.37822	-2.42511
-0.05531	1.12046
-0.38683	-0.63957
-0.13181	0.22769
-0.08081	0.20219
0.27621	0.43176
0.53123	0.25320
0.45472	-0.02739
0.04670	0.32972
-0.56534	0.66132
-0.02981	0.50828
0.65874	0.86539
0.73524	-1.76191
0.48022	-0.53754
-0.41233	-0.38449
-0.43783	0.89089
0.02119	1.24800
0.35272	0.48277
0.37822	-0.00188
0.32721	-0.84363
0.32721	1.35003
0.22521	0.86539
0.19971	-0.10391
0.09770	-0.02739
0.12320	0.53379
0.02119	0.50828
-0.18282	0.38074
-0.13181	-0.76711
0.07220	0.20219
0.37822	0.66132
0.48022	-1.04770
0.14870	-0.12942
0.25071	0.38074
0.04670	0.10015
0.07220	0.17668
-0.08081	-0.99668
-0.20832	0.04914
0.19971	-0.25695
0.32721	0.86539
0.40372	1.22250
0.40372	0.76336
0.17421	-0.38449
0.12320	0.94191
-0.13181	-1.96597
-0.10631	0.50828
0.19971	-0.69059
0.27621	1.65613
0.42922	-0.43551
0.12320	0.55929
-0.10631	0.22769
0.07220	0.22769
0.22521	-0.20594
0.25071	0.30422
-0.05531	-0.89465
-0.05531	-1.17523
0.04670	1.06945
0.17421	-1.20074
0.63323	1.68163
0.45472	0.43176
-0.08081	0.27871
-0.51434	-0.30797
0.02119	0.55929
0.60773	-0.12942
0.30171	0.35523
0.37822	0.07465
0.14870	0.63582
0.19971	0.35523
-0.10631	-0.41000
-0.20832	1.32453
-0.18282	0.73785
0.09770	-5.05241
0.32721	0.04914
0.53123	1.78367
0.30171	1.57960
0.17421	0.04914
0.19971	-0.51203
0.02119	0.35523
-0.08081	0.10015
0.07220	0.04914
0.22521	0.91640
0.22521	0.30422
0.32721	0.35523
0.19971	-0.30797
0.04670	-0.84363
-0.10631	0.38074
0.37822	0.55929
0.42922	-0.84363
0.04670	0.45726
0.04670	0.04914
-0.23382	-0.76711
-0.05531	0.53379
-0.18282	1.06945
0.35272	0.63582
0.40372	-0.05289
0.25071	0.12566
0.27621	0.15117
0.63323	0.02363
0.70974	-0.69059
0.22521	0.96742
-0.31033	-0.97117
-0.31033	0.15117
-0.43783	0.35523
-0.08081	1.24800
0.02119	0.61031
0.40372	0.04914
0.48022	-0.15492
0.30171	-0.41000
-0.00431	1.42656
0.17421	-0.84363
0.32721	1.45206
0.42922	0.20219
0.17421	-0.99668
-0.20832	0.53379
0.14870	-0.84363
-0.08081	-0.07840
0.07220	0.30422
0.30171	0.32972
0.45472	0.32972
0.40372	0.61031
0.09770	-0.51203
0.09770	0.35523
-0.25932	0.35523
-0.00431	-0.71609
0.19971	0.10015
0.42922	1.37554
0.30171	1.09496
-0.10631	-0.33348
-0.28482	-0.71609
0.14870	-0.99668
0.32721	0.86539
0.40372	0.89089
0.45472	0.68683
0.35272	-0.15492
0.12320	-0.23145
0.09770	0.76336
0.14870	-0.86914
-0.08081	-1.17523
-0.02981	0.32972
-0.28482	1.57960
-0.00431	0.20219
0.25071	0.04914
0.32721	-0.51203
0.02119	-0.00188
-0.10631	0.32972
0.17421	0.55929
0.50573	-0.33348
0.30171	-0.10391
0.58223	-0.28246
0.27621	0.27871
-0.18282	1.40105
-0.13181	0.32972
-0.08081	0.15117
0.22521	0.15117
0.42922	-0.15492
0.58223	0.27871
0.30171	0.43176
0.04670	-0.25695
-0.18282	0.50828
-0.31033	-0.84363
-0.05531	-0.20594
0.07220	0.35523
0.35272	-0.30797
0.37822	0.91640
0.22521	0.10015
0.32721	0.76336
0.27621	0.22769
-0.00431	2.03874
-0.08081	-1.68539
0.09770	1.27351
0.02119	-0.56305
0.14870	0.40625
0.14870	0.02363
0.14870	0.40625
0.19971	0.58480
0.19971	-0.33348
0.22521	-0.15492
0.40372	0.55929
0.53123	-1.88945
0.40372	0.12566
0.22521	1.06945
0.17421	2.31933
0.04670	0.20219
0.25071	-0.81812
-0.00431	0.55929
-0.05531	0.76336
-0.13181	-0.38449
0.14870	0.94191
-0.25932	-2.17003
-0.51434	-0.61406
0.07220	0.58480
0.55673	0.61031
0.60773	-0.05289
0.60773	0.55929
0.50573	0.81437
0.17421	0.53379
0.22521	-0.18043
-0.05531	0.32972
-0.00431	0.27871
0.22521	0.02363
0.02119	0.27871
-0.13181	0.38074
-0.13181	0.94191
-0.08081	-1.91496
0.22521	0.04914
0.50573	0.94191
0.35272	-0.48652
0.22521	-1.91496
0.22521	2.67644
0.19971	-0.43551
0.14870	-0.63957
-0.08081	0.61031
-0.13181	1.65613
0.12320	1.68163
0.07220	0.30422
0.17421	-0.69059
0.22521	-0.48652
0.30171	0.86539
0.30171	-0.02739
0.07220	-1.17523
0.04670	-0.18043
0.09770	0.86539
0.14870	0.27871
0.19971	-0.74160
0.25071	-0.51203
0.27621	0.04914
0.30171	-0.46102
0.35272	1.17148
0.19971	1.22250
-0.13181	0.15117
-0.36133	0.71234
-0.28482	0.17668
0.17421	-0.33348
0.35272	-0.56305
0.27621	-0.05289
0.19971	-0.20594
0.32721	-0.71609
0.27621	0.58480
0.32721	0.78886
0.37822	0.94191
0.17421	0.22769
0.07220	-0.00188
-0.31033	0.35523
-0.08081	0.50828
0.25071	0.07465
0.25071	-0.30797
-0.02981	-0.41000
0.19971	-0.81812
0.22521	0.73785
0.30171	0.83988
0.37822	-1.71090
0.19971	0.99292
0.02119	1.65613
-0.05531	-0.38449
0.12320	0.50828
0.02119	-0.84363
0.09770	-0.48652
-0.10631	0.66132
-0.31033	1.37554
0.19971	-0.18043
0.50573	0.32972
0.50573	0.63582
0.37822	0.38074
0.55673	-1.78742
0.48022	-2.11902
0.09770	0.61031
-0.61635	1.09496
-0.56534	0.30422
-0.23382	1.37554
0.30171	-0.66508
0.60773	0.17668
0.53123	-0.15492
0.65874	0.55929
0.50573	0.68683
0.14870	0.43176
-0.05531	-0.33348
-0.46334	0.68683
-0.08081	-0.00188
0.09770	-0.05289
-0.00431	-0.43551
0.45472	0.27871
0.22521	0.10015
0.27621	-0.15492
0.32721	-0.10391
0.40372	0.66132
0.12320	0.15117
0.14870	0.61031
-0.28482	1.60511
-0.28482	-2.09351
-0.02981	0.35523
0.32721	-0.97117
0.32721	1.57960
0.32721	-0.81812
-0.08081	-0.84363
0.07220	2.39585
0.22521	1.27351
0.48022	1.45206
0.42922	-0.63957
0.37822	-0.71609
-0.28482	-0.15492
-0.41233	0.35523
-0.10631	-0.66508
0.37822	-0.35899
0.63323	0.15117
0.37822	0.86539
0.32721	-0.41000
0.25071	-0.07840
0.04670	0.61031
-0.18282	0.91640
0.12320	0.61031
-0.18282	0.99292
-0.02981	-0.61406
0.25071	-1.12422
0.12320	0.63582
0.12320	-0.25695
0.12320	0.45726
0.53123	-0.18043
0.53123	0.40625
0.19971	1.60511
-0.02981	0.25320
-0.36133	0.30422
-0.08081	0.30422
0.02119	-0.30797
0.48022	-0.07840
0.60773	0.40625
0.37822	-0.99668
0.22521	-0.33348
0.04670	0.20219
0.09770	0.96742
0.02119	0.48277
0.14870	-0.05289
0.09770	-1.04770
-0.02981	-0.15492
-0.02981	-0.69059
0.04670	1.78367
0.02119	-0.46102
0.07220	1.12046
0.35272	1.37554
0.12320	-0.99668
0.30171	-0.53754
0.14870	0.96742
0.19971	-0.35899
-0.00431	-0.15492
0.12320	0.83988
0.22521	0.32972
0.35272	0.10015
0.37822	-0.86914
0.22521	0.45726
0.02119	0.55929
-0.23382	-0.05289
-0.02981	0.02363
-0.20832	-1.37929
0.22521	-0.63957
0.40372	0.45726
0.45472	1.80917
0.30171	0.73785
-0.02981	0.07465
-0.41233	-0.63957
-0.18282	0.81437
0.17421	-0.02739
0.55673	-0.61406
0.45472	0.32972
0.19971	0.20219
-0.00431	0.40625
-0.38683	0.25320
0.19971	-0.25695
0.58223	1.06945
0.45472	0.58480
0.19971	-0.38449
-0.33583	-0.69059
-0.20832	-1.12422
0.14870	0.78886
0.37822	0.66132
0.25071	-0.38449
0.40372	1.27351
0.32721	-0.00188
0.17421	0.83988
-0.31033	-0.18043
-0.33583	-0.15492
0.25071	-0.97117
0.45472	0.61031
0.07220	0.30422
0.17421	0.66132
0.42922	0.35523
0.30171	1.24800
0.09770	-1.37929
0.09770	1.22250
0.22521	0.86539
0.19971	-0.35899
0.22521	0.10015
0.25071	-2.90976
0.09770	0.45726
0.09770	0.76336
0.04670	0.45726
0.12320	1.27351
0.12320	0.40625
0.12320	-0.20594
0.12320	-0.15492
0.17421	0.61031
-0.00431	-0.02739
-0.02981	-0.25695
0.09770	0.58480
0.25071	-0.71609
0.12320	0.45726
0.45472	0.78886
0.37822	-0.15492
0.45472	-1.30277
0.27621	0.89089
-0.00431	0.76336
-0.23382	0.30422
-0.13181	-0.18043
0.12320	0.27871
0.27621	0.53379
0.42922	-0.05289
0.30171	-0.15492
0.02119	1.12046
0.17421	-1.25176
0.04670	1.06945
0.07220	0.63582
-0.08081	0.07465
-0.10631	0.40625
-0.08081	-0.71609
0.32721	0.43176
0.53123	-0.69059
0.70974	0.76336
0.22521	0.35523
-0.28482	-3.62398
-0.64185	1.47757
0.19971	0.27871
0.19971	1.17148
0.22521	1.27351
0.19971	-0.05289
0.48022	0.68683
0.53123	0.66132
0.30171	0.66132
0.32721	0.38074
0.22521	-0.84363
0.17421	0.22769
0.02119	-1.20074
-0.08081	-0.58856
0.09770	0.68683
-0.08081	0.53379
-0.08081	0.20219
-0.08081	-1.14973
0.25071	-1.07320
0.58223	2.19179
0.22521	0.20219
0.12320	0.76336
0.25071	0.68683
-0.00431	-0.89465
-0.13181	0.45726
0.14870	-0.10391
0.04670	-1.96597
0.32721	0.76336
0.53123	0.15117
0.45472	1.57960
0.22521	-0.33348
0.17421	1.06945
-0.02981	1.24800
0.25071	-0.33348
0.25071	-0.28246
0.14870	-0.35899
-0.38683	-1.30277
-0.23382	-0.38449
-0.05531	1.06945
0.30171	-0.89465
0.40372	0.81437
0.27621	0.38074
0.32721	1.14597
0.48022	-0.56305
0.32721	0.94191
0.12320	2.19179
0.17421	-1.73640
0.04670	-0.07840
-0.00431	-0.66508
-0.00431	-0.30797
0.17421	1.04394
0.22521	0.40625
0.07220	1.19699
0.32721	-0.46102
-0.25932	0.15117
0.14870	-0.33348
0.07220	0.12566
0.19971	0.58480
0.42922	-0.12942
0.17421	-0.25695
0.19971	0.30422
0.35272	0.25320
0.40372	0.61031
0.19971	1.37554
0.14870	-1.12422
0.04670	-0.30797
0.17421	-0.10391
0.12320	-0.81812
0.07220	1.04394
0.04670	1.01843
0.14870	1.04394
0.19971	-0.28246
-0.10631	0.20219
-0.33583	0.53379
0.07220	-0.71609
0.37822	0.63582
0.45472	-0.28246
0.40372	-0.28246
-0.02981	0.25320
0.04670	-1.35379
0.17421	1.22250
0.09770	0.04914
0.25071	-0.25695
0.19971	0.71234
0.04670	-0.25695
0.35272	1.04394
0.53123	0.68683
0.35272	-1.78742
0.19971	1.68163
-0.05531	-0.00188
0.02119	-0.86914
-0.13181	0.35523
0.04670	-0.58856
0.14870	1.01843
0.14870	0.30422
0.09770	0.20219
0.14870	0.63582
0.07220	-0.33348
-0.13181	0.35523
0.02119	-0.18043
0.35272	-0.33348
0.53123	-0.07840
0.53123	-0.33348
0.04670	0.58480
0.22521	1.57960
0.12320	-0.81812
-0.28482	0.48277
-0.00431	0.73785
0.48022	-0.66508
0.63323	0.30422
0.42922	0.32972
0.32721	-0.05289
-0.20832	0.32972
-0.10631	0.53379
0.12320	0.78886
0.17421	0.63582
-0.25932	-0.61406
0.14870	0.35523
0.35272	0.30422
0.27621	0.15117
0.27621	0.07465
-0.10631	-0.61406
0.19971	-0.69059
0.42922	-0.79262
0.37822	0.61031
-0.00431	1.14597
0.07220	0.32972
0.19971	-0.02739
0.37822	1.57960
0.42922	0.22769
0.19971	-0.66508
0.12320	-0.10391
0.12320	-0.56305
-0.13181	0.15117
-0.28482	-0.53754
-0.13181	0.12566
-0.46334	0.50828
-0.05531	0.83988
0.55673	0.89089
0.55673	0.76336
0.53123	0.12566
0.14870	-0.12942
0.09770	-0.74160
0.22521	0.10015
0.14870	-0.18043
0.19971	0.32972
0.12320	0.10015
0.07220	-0.12942
0.07220	-0.63957
0.09770	0.94191
0.22521	0.40625
0.07220	-1.12422
0.25071	-0.61406
0.27621	0.68683
0.04670	1.57960
0.02119	-0.15492
0.22521	1.47757
0.37822	-0.07840
0.35272	0.76336
-0.18282	0.55929
0.27621	-0.05289
0.27621	-2.37410
0.30171	-0.38449
0.37822	0.81437
0.14870	0.68683
-0.46334	0.15117
-0.59084	-0.63957
-0.48884	0.48277
0.63323	-0.38449
0.73524	-0.07840
0.68424	1.47757
0.32721	1.55410
0.25071	-1.09871
0.17421	-2.04250
0.12320	0.89089
0.02119	0.40625
0.12320	0.02363
0.14870	1.01843
0.09770	0.32972
0.14870	-0.66508
0.22521	0.50828
0.02119	0.58480
-0.08081	0.22769
-0.05531	-0.33348
0.07220	-1.71090
0.12320	0.83988
0.04670	-0.28246
0.22521	0.27871
0.50573	0.04914
0.37822	0.76336
0.27621	-0.18043
0.14870	0.86539
0.22521	0.43176
0.17421	-0.71609
-0.02981	1.22250
0.09770	-0.97117
0.07220	1.12046
0.07220	0.12566
0.07220	0.02363
0.42922	-0.56305
-0.02981	1.17148
0.07220	0.35523
0.07220	-0.74160
0.07220	1.19699
0.17421	-0.74160
0.07220	-0.05289
0.22521	0.66132
0.45472	0.89089
0.27621	0.55929
0.58223	-1.07320
0.32721	0.61031
0.07220	-0.66508
-0.13181	0.96742
-0.08081	-0.71609
0.02119	0.48277
0.09770	-0.02739
0.14870	0.96742
0.12320	0.71234
0.12320	0.45726
0.32721	0.53379
-0.00431	-0.25695
-0.10631	-0.81812
-0.33583	-0.56305
0.02119	-1.37929
0.48022	1.86019
0.78624	0.30422
0.48022	-0.28246
0.22521	0.58480
-0.18282	-0.07840
-0.23382	2.26831
0.22521	-1.71090
0.68424	1.01843
0.58223	1.06945
0.42922	-0.18043
0.37822	0.10015
0.07220	-0.38449
-0.02981	-0.76711
-0.33583	0.58480
0.14870	0.48277
0.25071	0.04914
0.27621	0.66132
0.22521	-1.27726
0.12320	0.76336
-0.08081	0.12566
0.09770	0.40625
0.09770	0.10015
-0.00431	0.99292
0.09770	-0.25695
0.12320	0.12566
0.63323	-0.23145
0.40372	-0.33348
0.19971	-0.53754
-0.13181	0.38074
-0.08081	0.71234
0.25071	0.32972
0.19971	-0.10391
0.12320	1.01843
0.02119	0.32972
0.22521	0.15117
0.42922	0.73785
0.48022	0.10015
0.30171	-0.02739
0.30171	0.10015
0.07220	0.02363
-0.08081	0.22769
-0.28482	-0.30797
0.09770	-0.15492
0.14870	1.70714
0.04670	-2.42511
0.30171	0.55929
0.07220	-0.00188
0.30171	-0.02739
0.32721	1.40105
0.25071	-0.38449
0.12320	0.91640
0.09770	-0.66508
0.12320	0.38074
-0.18282	-0.00188
0.02119	0.73785
0.27621	0.81437
0.32721	0.63582
0.42922	0.58480
0.42922	-1.17523
-0.08081	-0.12942
-0.43783	-0.84363
-0.20832	0.89089
-0.18282	0.55929
0.02119	0.40625
0.40372	1.17148
0.48022	-0.81812
0.63323	-0.00188
0.40372	0.48277
0.35272	0.94191
0.22521	-0.05289
0.14870	-1.65988
-0.15732	0.22769
-0.15732	0.91640
-0.46334	0.50828
-0.05531	-0.86914
0.27621	1.12046
0.40372	1.42656
0.32721	0.10015
0.37822	0.43176
0.07220	0.10015
-0.02981	-0.07840
0.07220	-0.46102
0.19971	0.20219
0.09770	-0.66508
0.25071	0.17668
0.09770	-0.18043
0.02119	-0.12942
0.07220	0.55929
0.17421	0.17668
0.60773	0.02363
0.70974	0.38074
-0.43783	0.78886
-0.89686	-1.37929
-1.22839	0.27871
0.22521	0.73785
1.09226	-0.30797
1.27078	0.83988
1.01576	0.02363
0.40372	0.27871
0.07220	0.32972
-0.15732	-0.00188
-0.23382	0.15117
0.02119	0.50828
-0.02981	1.68163
0.07220	-0.89465
-0.05531	-1.60887
-0.33583	0.38074
-0.36133	0.45726
-0.00431	0.45726
0.40372	-0.53754
0.55673	0.76336
0.42922	-0.10391
0.32721	1.29902
0.30171	-0.41000
0.25071	0.43176
0.09770	0.58480
0.07220	-0.51203
0.25071	-0.86914
0.02119	0.78886
-0.10631	0.35523
-0.28482	0.76336
0.30171	0.50828
0.37822	1.06945
0.32721	-1.37929
0.40372	-0.48652
0.12320	-0.97117
0.22521	1.32453
0.09770	0.35523
0.07220	0.30422
0.12320	0.27871
-0.23382	0.76336
0.02119	-0.25695
0.12320	0.12566
0.12320	0.32972
0.32721	-0.51203
0.63323	-1.07320
0.48022	-0.48652
-0.10631	0.22769
-0.79486	0.86539
-0.51434	0.12566
0.17421	1.12046
0.83725	0.07465
0.76074	0.48277
0.63323	0.35523
-0.02981	0.68683
-0.28482	-0.71609
-0.28482	-1.02219
0.14870	0.35523
0.58223	0.02363
0.40372	0.32972
0.14870	0.61031
-0.05531	1.14597
-0.10631	-0.84363
-0.02981	0.04914
0.09770	0.40625
0.12320	1.19699
0.27621	-1.30277
0.27621	0.48277
0.14870	-0.18043
-0.00431	0.89089
-0.00431	0.45726
0.04670	-0.28246
0.27621	0.73785
0.22521	0.73785
0.14870	-0.25695
0.25071	-1.02219
0.19971	-0.18043
-0.00431	0.63582
0.14870	0.78886
0.04670	-0.41000
-0.08081	-0.18043
0.07220	1.47757
0.53123	-0.35899
0.32721	0.32972
0.40372	-0.07840
0.40372	-0.99668
0.22521	0.96742
0.04670	0.35523
-0.41233	-0.63957
-0.84586	0.40625
-0.48884	-0.15492
0.42922	-0.25695
0.76074	0.55929
0.73524	0.66132
0.45472	0.43176
0.07220	-0.02739
0.02119	0.02363
0.19971	-0.00188
0.17421	0.63582
0.12320	1.27351
-0.00431	-0.30797
0.12320	0.12566
-0.02981	-1.25176
0.14870	-2.14453
0.07220	0.89089
0.14870	0.04914
0.07220	1.24800
0.02119	0.99292
0.27621	-0.05289
0.27621	-0.51203
0.04670	1.68163
-0.31033	-0.33348
-0.15732	-0.51203
0.19971	-0.53754
0.42922	0.50828
0.37822	0.45726
0.42922	-2.19554
0.32721	-0.02739
0.27621	0.50828
-0.10631	1.09496
0.12320	1.40105
0.02119	0.96742
0.35272	0.43176
0.45472	-0.15492
0.22521	0.25320
-0.23382	0.12566
-0.48884	-0.76711
-0.18282	-0.53754
0.09770	0.17668
0.76074	-0.18043
0.63323	0.89089
0.53123	-0.48652
0.48022	0.68683
0.35272	0.53379
0.25071	1.12046
0.19971	-0.05289
-0.05531	-0.61406
-0.38683	0.45726
-0.28482	-0.10391
-0.46334	-0.28246
-0.15732	1.27351
0.07220	1.12046
0.32721	-0.15492
0.45472	-0.41000
0.53123	-0.46102
0.48022	-0.86914
0.42922	0.78886
0.25071	0.15117
0.17421	0.17668
-0.18282	0.76336
-0.15732	2.08976
0.02119	-0.20594
0.09770	0.55929
0.48022	-1.91496
0.35272	0.76336
0.22521	-0.15492
-0.02981	0.10015
0.07220	-0.07840
-0.08081	0.63582
0.09770	-0.38449
0.02119	0.32972
0.22521	0.15117
0.50573	0.10015
