0.14870	0.43176
0.07220	-0.00188
0.14870	0.07465
0.22521	-0.18043
0.12320	0.30422
0.07220	0.38074
0.19971	0.30422
0.17421	0.15117
0.22521	0.07465
0.22521	-0.02739
0.17421	-0.05289
0.27621	0.45726
0.19971	0.30422
0.12320	-0.02739
0.14870	0.15117
0.07220	0.25320
0.32721	0.35523
0.12320	0.22769
0.12320	0.20219
0.09770	-0.07840
0.07220	-0.05289
0.09770	0.12566
0.07220	0.53379
0.04670	0.02363
0.14870	-0.10391
0.17421	0.27871
0.17421	-0.05289
0.22521	0.15117
0.25071	0.27871
0.17421	0.35523
0.14870	-0.00188
0.09770	0.15117
0.07220	-0.20594
0.12320	0.17668
0.12320	0.12566
0.19971	0.10015
0.25071	0.43176
0.19971	0.22769
-0.08081	0.07465
0.37822	0.30422
0.19971	0.02363
0.02119	0.45726
0.04670	0.35523
0.09770	0.04914
0.17421	-0.00188
0.14870	-0.15492
0.17421	0.12566
0.09770	-0.30797
0.19971	0.40625
0.19971	0.48277
0.22521	0.32972
0.22521	0.30422
0.09770	0.02363
0.04670	-0.15492
0.07220	-0.43551
0.14870	0.20219
0.19971	0.50828
0.09770	0.10015
0.12320	0.43176
0.14870	0.17668
0.22521	0.43176
0.14870	0.17668
0.17421	0.15117
0.17421	-0.35899
0.04670	0.32972
0.02119	0.12566
0.07220	0.30422
0.09770	-0.25695
0.12320	-0.15492
0.09770	0.32972
0.14870	0.22769
0.14870	0.22769
0.14870	0.20219
0.14870	0.17668
0.12320	0.12566
0.19971	0.22769
0.22521	0.20219
0.22521	0.27871
0.25071	0.15117
0.17421	0.15117
0.14870	-0.25695
0.12320	0.22769
0.07220	0.07465
0.09770	0.25320
0.12320	0.40625
0.25071	0.45726
0.22521	0.27871
0.14870	0.15117
0.19971	0.12566
0.14870	-0.38449
0.14870	-0.35899
0.12320	-0.20594
0.07220	0.43176
0.07220	0.20219
0.19971	0.30422
0.12320	0.12566
0.14870	0.48277
0.22521	0.30422
0.25071	0.15117
0.22521	0.32972
0.14870	0.25320
0.12320	0.07465
0.07220	0.02363
0.14870	0.38074
0.19971	-0.05289
0.19971	-0.18043
0.14870	-0.02739
0.19971	-0.02739
0.17421	0.45726
0.07220	0.38074
0.07220	0.17668
0.04670	0.27871
0.12320	0.27871
0.12320	0.15117
0.19971	0.38074
0.22521	0.20219
0.22521	0.15117
0.25071	-0.30797
0.25071	0.20219
0.22521	0.25320
0.14870	0.20219
0.09770	0.15117
0.14870	0.20219
0.12320	0.15117
0.04670	0.12566
0.09770	0.20219
0.09770	0.04914
0.17421	0.12566
0.22521	0.17668
0.22521	0.02363
0.22521	0.25320
0.22521	0.38074
0.12320	0.25320
0.17421	0.22769
0.22521	0.04914
0.25071	-0.18043
0.14870	-0.00188
0.17421	0.15117
0.17421	0.32972
0.09770	0.48277
0.09770	0.40625
0.04670	0.04914
0.07220	-0.18043
0.02119	-0.15492
0.07220	0.15117
0.07220	-0.18043
0.12320	-0.05289
0.09770	0.17668
0.07220	0.17668
0.12320	0.10015
0.14870	0.25320
0.14870	0.25320
0.22521	0.22769
0.14870	0.10015
0.12320	0.17668
0.14870	0.25320
0.09770	-0.10391
0.17421	-0.23145
0.17421	0.10015
0.19971	0.15117
0.22521	0.43176
0.22521	0.40625
0.17421	0.22769
0.17421	0.32972
0.14870	0.25320
0.14870	0.07465
0.14870	-0.00188
0.14870	0.38074
0.17421	0.15117
0.14870	0.17668
0.17421	-0.53754
0.12320	0.10015
0.12320	0.20219
0.07220	0.15117
0.09770	0.15117
0.14870	0.32972
0.17421	0.48277
0.22521	-0.25695
0.22521	0.22769
0.17421	0.22769
0.14870	-0.23145
0.14870	0.25320
0.12320	-0.15492
0.14870	0.45726
0.12320	0.27871
0.17421	0.45726
0.14870	0.25320
0.09770	0.04914
0.09770	-0.02739
0.14870	0.07465
0.12320	0.30422
0.19971	-0.00188
0.19971	0.12566
0.12320	0.02363
0.14870	0.27871
0.09770	-0.25695
0.14870	0.10015
0.19971	0.32972
0.25071	0.35523
0.25071	0.25320
0.17421	0.22769
0.07220	0.15117
0.04670	-0.07840
0.09770	0.27871
0.17421	0.22769
0.19971	0.25320
0.19971	0.12566
0.14870	0.02363
0.12320	-0.05289
0.09770	0.27871
0.14870	0.15117
0.12320	0.38074
0.19971	0.20219
0.12320	-0.05289
0.09770	0.15117
0.19971	0.25320
0.22521	0.17668
0.14870	0.12566
0.09770	0.32972
0.17421	-0.28246
0.19971	0.07465
0.12320	-0.10391
0.09770	0.35523
0.12320	0.30422
0.19971	0.35523
0.12320	0.25320
0.12320	0.17668
0.14870	-0.02739
0.17421	0.10015
0.17421	-0.23145
0.07220	0.15117
0.14870	0.30422
0.22521	0.30422
0.17421	0.17668
0.12320	0.12566
0.12320	0.15117
0.17421	0.25320
0.22521	0.20219
0.14870	0.10015
0.12320	-0.35899
0.07220	0.27871
0.12320	0.48277
0.14870	0.22769
0.19971	0.15117
0.19971	-0.00188
0.07220	0.02363
0.12320	0.20219
0.25071	0.35523
0.14870	0.07465
0.17421	0.30422
0.09770	0.25320
0.17421	0.15117
0.19971	-0.02739
0.12320	0.12566
0.07220	0.10015
0.17421	0.12566
0.14870	0.17668
0.19971	0.17668
0.17421	0.04914
0.09770	0.10015
0.14870	0.17668
0.12320	0.15117
0.19971	0.22769
0.19971	0.20219
0.19971	0.25320
0.17421	0.20219
0.07220	-0.05289
0.09770	-0.00188
0.12320	0.12566
0.14870	0.07465
0.14870	0.10015
0.12320	0.45726
0.17421	0.45726
0.12320	0.27871
0.12320	0.04914
0.17421	0.04914
0.25071	0.40625
0.22521	0.32972
0.25071	0.12566
0.14870	0.25320
0.07220	-0.28246
0.04670	0.17668
0.14870	0.10015
0.09770	0.15117
0.19971	0.25320
0.17421	0.17668
0.14870	0.15117
0.12320	-0.33348
0.19971	0.27871
0.17421	0.15117
0.25071	0.17668
0.12320	0.22769
0.09770	0.15117
0.07220	0.22769
0.12320	0.02363
0.12320	0.10015
0.22521	0.22769
0.25071	0.30422
0.17421	0.22769
0.17421	0.17668
0.07220	-0.25695
0.07220	0.17668
0.12320	-0.23145
0.12320	0.22769
0.14870	0.22769
0.22521	0.25320
0.17421	0.17668
0.09770	0.25320
0.14870	0.25320
0.22521	0.20219
0.14870	0.17668
0.07220	0.10015
0.12320	0.30422
0.12320	0.02363
0.19971	0.07465
0.12320	-0.46102
0.07220	0.17668
0.17421	0.20219
0.27621	0.35523
0.14870	0.30422
0.09770	0.32972
0.04670	0.32972
0.14870	-0.20594
0.19971	0.15117
0.12320	0.04914
0.12320	0.02363
0.17421	0.32972
0.22521	0.30422
0.17421	0.22769
0.07220	0.12566
0.14870	0.10015
0.22521	0.07465
0.12320	0.04914
0.04670	0.07465
0.14870	0.17668
0.14870	0.17668
0.19971	0.22769
0.12320	0.07465
0.14870	0.20219
0.17421	0.27871
0.19971	0.15117
0.12320	0.15117
0.07220	0.35523
0.14870	0.20219
0.19971	0.07465
0.12320	-0.15492
0.07220	0.02363
0.12320	0.22769
0.25071	0.55929
0.17421	0.17668
0.09770	-0.12942
0.14870	0.17668
0.17421	0.15117
0.17421	-0.00188
0.12320	0.20219
0.09770	-0.05289
0.17421	0.40625
0.22521	0.27871
0.19971	0.27871
0.19971	-0.05289
0.12320	0.20219
0.07220	0.17668
0.12320	0.15117
0.12320	0.17668
0.19971	0.17668
0.19971	0.20219
0.12320	0.15117
0.14870	0.17668
0.09770	0.15117
0.17421	-0.10391
0.14870	-0.05289
0.17421	0.27871
0.22521	0.45726
0.12320	0.20219
0.14870	0.10015
0.09770	-0.38449
0.14870	0.30422
0.19971	0.45726
0.27621	0.38074
0.14870	0.12566
0.07220	-0.18043
0.07220	0.20219
0.12320	0.27871
0.14870	-0.05289
0.14870	0.04914
0.09770	0.27871
0.14870	0.15117
0.22521	0.04914
0.19971	0.15117
0.12320	0.22769
0.19971	0.25320
0.14870	0.17668
0.07220	-0.05289
0.12320	0.10015
0.22521	0.17668
0.12320	0.15117
0.07220	0.27871
0.14870	0.07465
0.27621	0.25320
0.25071	-0.05289
0.09770	0.15117
0.14870	0.35523
0.17421	0.43176
0.04670	0.07465
0.09770	0.07465
0.12320	0.02363
0.14870	-0.35899
0.07220	0.17668
0.17421	0.30422
0.17421	0.63582
0.22521	0.25320
0.19971	0.15117
0.12320	0.04914
0.09770	-0.28246
0.09770	0.27871
0.14870	0.20219
0.14870	0.22769
0.27621	0.25320
0.17421	0.20219
0.12320	0.04914
0.09770	0.04914
0.12320	0.30422
0.19971	0.27871
0.12320	0.12566
0.07220	-0.10391
0.14870	-0.25695
0.14870	0.30422
0.22521	0.35523
0.17421	0.43176
0.14870	0.22769
0.07220	0.17668
0.14870	0.10015
0.14870	0.07465
0.19971	0.04914
0.22521	0.12566
0.09770	0.15117
0.09770	0.04914
0.09770	0.10015
0.19971	0.22769
0.14870	0.15117
0.17421	0.20219
0.19971	0.04914
0.17421	0.25320
0.19971	0.38074
0.22521	0.22769
0.17421	0.07465
0.17421	-0.07840
0.17421	0.43176
0.09770	0.30422
0.07220	-0.30797
0.07220	0.25320
0.09770	0.12566
0.12320	-0.05289
0.12320	-0.07840
0.12320	0.35523
0.22521	0.27871
0.22521	0.20219
0.22521	0.20219
0.25071	-0.07840
0.22521	0.15117
0.22521	0.15117
0.19971	0.20219
0.19971	0.22769
0.12320	0.15117
0.19971	0.15117
0.22521	0.15117
0.22521	0.15117
0.22521	0.20219
0.22521	0.30422
0.25071	0.10015
0.12320	0.20219
0.14870	-0.41000
0.07220	0.53379
0.04670	0.22769
0.07220	0.12566
0.07220	-0.00188
0.09770	0.35523
0.07220	0.22769
0.12320	0.12566
0.14870	0.12566
0.12320	0.10015
0.14870	-0.02739
0.14870	0.04914
0.04670	-0.02739
0.14870	0.17668
0.19971	0.25320
0.14870	0.38074
0.09770	0.10015
0.12320	0.20219
0.17421	-0.05289
0.22521	0.20219
0.14870	0.12566
0.14870	0.38074
0.04670	0.35523
0.12320	0.30422
0.19971	0.25320
0.12320	0.15117
0.17421	-0.10391
0.12320	0.15117
0.17421	0.17668
0.12320	0.02363
0.22521	0.15117
0.12320	0.10015
0.07220	0.15117
0.14870	0.22769
0.22521	0.17668
0.04670	0.10015
0.17421	0.17668
0.17421	0.22769
0.22521	0.15117
0.07220	-0.10391
0.14870	0.12566
0.22521	0.10015
0.09770	0.02363
0.07220	0.32972
0.07220	0.27871
0.19971	0.38074
0.19971	0.30422
0.17421	-0.25695
0.14870	0.10015
0.09770	-0.15492
0.14870	0.27871
0.12320	0.17668
0.17421	0.22769
0.19971	0.25320
0.22521	0.35523
0.22521	-0.25695
0.19971	0.22769
0.09770	0.43176
0.14870	0.30422
0.04670	0.20219
0.14870	0.10015
0.12320	-0.25695
0.14870	-0.00188
0.19971	0.45726
0.14870	0.12566
0.14870	-0.15492
0.09770	-0.05289
0.14870	0.45726
0.14870	0.32972
0.17421	0.25320
0.14870	0.20219
0.12320	0.15117
0.02119	0.04914
0.09770	0.02363
0.14870	0.12566
0.14870	0.20219
0.19971	0.25320
0.27621	0.15117
0.14870	0.04914
0.14870	-0.10391
0.09770	0.20219
0.12320	0.30422
0.12320	0.27871
0.22521	0.27871
0.14870	0.12566
0.14870	0.04914
0.09770	0.12566
0.19971	0.10015
0.22521	0.17668
0.22521	0.22769
0.12320	0.12566
0.07220	0.15117
0.09770	0.04914
0.12320	0.04914
0.14870	0.20219
0.22521	0.20219
0.17421	-0.02739
0.12320	0.17668
0.07220	0.17668
0.09770	0.17668
0.14870	0.27871
0.19971	0.20219
0.09770	-0.02739
0.07220	0.15117
0.09770	0.02363
0.14870	0.32972
0.22521	0.27871
0.17421	0.20219
0.17421	-0.15492
0.12320	0.02363
0.14870	-0.23145
0.12320	0.40625
0.12320	0.45726
0.09770	0.45726
0.12320	0.32972
0.22521	-0.79262
0.22521	0.20219
0.19971	-0.00188
0.17421	0.43176
0.07220	0.32972
0.12320	0.25320
0.12320	0.22769
0.14870	0.32972
0.22521	0.04914
0.19971	0.07465
0.22521	0.04914
0.22521	0.10015
0.19971	0.02363
0.17421	0.02363
0.17421	0.07465
0.09770	0.12566
0.09770	0.15117
0.02119	0.10015
0.04670	0.15117
0.07220	0.15117
0.14870	0.17668
0.17421	0.20219
0.09770	0.17668
0.09770	0.07465
0.09770	0.07465
0.12320	0.25320
0.12320	-0.00188
0.17421	-0.00188
0.22521	0.38074
0.12320	0.32972
0.14870	0.07465
0.14870	0.07465
0.09770	-0.07840
0.09770	0.32972
0.14870	0.20219
0.14870	0.22769
0.19971	0.20219
0.19971	-0.02739
0.12320	0.07465
0.07220	0.12566
0.14870	-0.23145
0.14870	0.35523
0.25071	0.27871
0.17421	0.20219
0.07220	0.15117
0.07220	0.10015
0.12320	0.12566
0.12320	0.15117
0.12320	0.12566
0.22521	0.20219
0.22521	0.20219
0.25071	0.17668
0.25071	0.22769
0.14870	0.22769
0.14870	0.22769
0.12320	0.35523
0.12320	0.04914
0.12320	-0.53754
0.07220	0.25320
0.09770	0.07465
0.07220	0.17668
0.17421	0.07465
0.19971	0.07465
0.17421	0.43176
0.19971	0.35523
0.22521	0.35523
0.17421	0.15117
0.19971	-0.00188
0.12320	0.32972
0.14870	0.35523
0.12320	0.17668
0.12320	-1.07320
0.09770	-0.61406
0.19971	0.61031
0.12320	0.76336
0.19971	0.86539
0.12320	0.35523
0.09770	-0.23145
0.14870	0.12566
0.17421	0.45726
0.12320	0.25320
0.19971	-1.48133
0.12320	0.89089
0.12320	-0.02739
0.14870	0.15117
0.02119	-0.97117
-0.08081	0.66132
0.12320	2.06425
0.32721	1.22250
0.35272	-0.69059
0.40372	0.66132
0.19971	-1.27726
-0.02981	-1.02219
-0.02981	2.16628
0.25071	1.06945
0.37822	-1.83844
0.37822	0.25320
0.35272	-0.92016
0.14870	1.04394
-0.02981	-1.04770
-0.41233	3.64573
-0.64185	-0.20594
0.09770	-0.84363
0.17421	0.58480
0.48022	-1.27726
0.30171	0.22769
0.45472	-0.46102
0.45472	1.78367
0.19971	0.35523
0.32721	0.76336
0.02119	1.98773
0.19971	-3.70050
0.17421	-2.47613
0.12320	1.83468
-0.05531	1.75816
0.12320	1.83468
-0.25932	-0.63957
-0.10631	0.81437
1.34728	-4.89936
0.63323	6.24752
-0.33583	-0.66508
-1.25389	-2.68019
-1.30489	2.85499
0.60773	-2.09351
1.83181	3.08456
2.16333	-3.03730
1.72980	-0.66508
0.60773	6.83420
-0.10631	-3.49644
-1.58541	-0.35899
-2.70748	-6.27678
-2.78398	0.40625
0.19971	3.49268
1.80631	2.19179
2.54586	1.12046
1.39828	3.90081
0.12320	0.04914
-0.25932	-0.05289
-0.31033	-1.04770
0.30171	-3.36890
0.45472	0.27871
0.45472	0.25320
0.45472	-3.03730
0.48022	0.96742
-0.05531	-0.28246
-0.74385	0.25320
-1.99343	2.77847
-1.25389	-0.94566
-0.31033	-1.17523
-1.45790	2.11527
1.47479	1.55410
2.87738	-0.71609
2.54586	-0.20594
1.01576	-3.39441
0.22521	1.93671
0.30171	0.27871
-0.08081	-1.99148
-0.43783	1.06945
-0.64185	2.26831
-0.23382	3.64573
-0.10631	-1.68539
0.04670	0.17668
0.53123	1.93671
0.58223	-2.24656
-0.31033	1.52859
-0.53984	-2.17003
-1.25389	-0.89465
-0.92237	-0.23145
1.24527	3.33964
0.99026	-0.41000
0.17421	-1.22625
0.65874	-0.53754
0.50573	0.55929
0.68424	-0.20594
0.96476	-3.44542
0.78624	2.37034
0.45472	1.37554
0.14870	1.75816
-0.33583	3.69675
-0.69285	0.02363
-0.51434	0.07465
0.14870	0.04914
0.09770	0.12566
0.32721	1.45206
0.42922	-2.80773
0.14870	-0.23145
-0.02981	-1.86394
-0.31033	-0.97117
-0.56534	0.02363
0.30171	1.35003
0.50573	1.52859
0.63323	0.78886
0.58223	-1.37929
-0.48884	0.58480
0.25071	0.76336
0.42922	-0.92016
0.40372	4.38546
0.58223	1.50308
0.78624	-5.74112
0.42922	-0.07840
0.37822	1.65613
-0.38683	-1.60887
-0.82036	1.68163
0.32721	2.01323
0.17421	-0.25695
0.27621	-2.39961
0.07220	-0.05289
-0.20832	-0.66508
-0.25932	0.83988
0.09770	1.27351
0.30171	0.63582
0.25071	0.94191
-0.02981	0.66132
-0.10631	0.25320
-0.10631	0.27871
0.04670	-0.35899
0.42922	0.22769
0.50573	0.43176
0.63323	-0.86914
0.45472	0.50828
0.07220	-0.25695
0.40372	-0.63957
0.40372	1.19699
0.17421	-1.04770
0.25071	0.35523
0.27621	2.67644
0.02119	0.20219
-0.31033	0.17668
-0.41233	0.53379
-0.28482	-2.55265
0.17421	-2.04250
0.50573	1.01843
0.50573	0.58480
0.45472	1.19699
0.48022	0.58480
0.07220	1.47757
-0.20832	-0.48652
-0.36133	0.15117
-0.76936	-1.65988
0.37822	0.66132
0.99026	0.55929
0.81175	-0.38449
0.27621	0.86539
-0.33583	-0.25695
0.42922	-0.97117
0.22521	-0.18043
-0.20832	1.06945
-0.33583	0.71234
0.32721	0.50828
0.76074	-0.89465
0.42922	0.55929
0.35272	0.07465
0.35272	1.01843
-0.13181	-4.33819
-0.20832	0.78886
-0.33583	0.71234
-0.79486	2.24281
-0.59084	2.52339
0.45472	-3.82804
0.73524	-0.66508
0.35272	1.24800
0.45472	3.23761
0.58223	-0.53754
0.32721	0.91640
0.07220	0.71234
0.30171	-0.48652
0.42922	-3.01179
0.40372	0.96742
-0.20832	0.96742
-0.25932	-3.31788
-0.28482	1.42656
0.04670	0.66132
0.42922	0.10015
0.12320	-0.76711
0.07220	1.86019
0.14870	-1.63437
0.42922	-0.25695
0.37822	1.27351
0.12320	-0.20594
-0.18282	1.42656
-0.31033	1.65613
0.30171	0.99292
0.60773	-0.33348
0.76074	0.25320
0.70974	-1.55785
-0.02981	1.88570
-0.92237	0.04914
-1.07538	-1.40480
-0.66735	-0.00188
0.60773	1.06945
0.91375	0.68683
0.27621	-1.73640
0.19971	0.15117
0.78624	0.32972
0.30171	0.25320
0.32721	-0.48652
0.42922	1.40105
0.32721	-0.79262
0.45472	-0.63957
-0.10631	0.66132
-0.48884	1.86019
-0.48884	2.01323
-0.10631	-0.25695
-0.13181	-0.89465
0.02119	-0.84363
0.04670	-1.71090
0.27621	-2.09351
0.30171	0.15117
0.19971	0.86539
0.19971	1.63062
0.32721	0.91640
0.37822	0.27871
0.27621	1.57960
0.19971	-0.89465
0.40372	0.04914
0.48022	-0.66508
0.60773	-0.41000
0.09770	0.91640
-0.64185	-1.81293
-0.92237	-0.74160
-0.76936	1.88570
0.12320	0.89089
0.91375	0.73785
1.11776	0.48277
0.68424	-0.28246
1.19427	1.70714
1.06676	-1.20074
0.22521	-0.81812
-1.07538	-0.05289
-1.35589	1.60511
-0.84586	0.55929
0.42922	-2.34859
1.06676	0.10015
0.55673	0.04914
0.19971	-1.25176
0.40372	1.42656
0.35272	-0.20594
0.14870	0.50828
-0.18282	1.37554
-0.56534	0.81437
-0.18282	2.19179
0.19971	-1.48133
0.22521	-1.02219
0.27621	0.20219
0.45472	0.68683
0.40372	-0.71609
0.45472	0.94191
0.53123	-0.15492
0.58223	-0.41000
-0.28482	1.45206
-0.61635	1.73265
-0.23382	-0.69059
0.48022	0.15117
0.40372	0.86539
0.42922	-1.76191
0.40372	-0.69059
0.30171	0.61031
0.07220	1.42656
-0.18282	0.63582
-0.05531	-1.17523
-0.36133	1.60511
0.37822	-2.14453
0.50573	0.12566
0.81175	-0.07840
0.40372	1.68163
-0.28482	0.45726
-0.84586	0.50828
-0.64185	0.38074
0.42922	-2.29757
0.73524	1.35003
0.63323	1.40105
0.50573	0.45726
-0.23382	0.35523
0.19971	0.55929
0.19971	0.68683
0.14870	-1.37929
0.02119	1.32453
-0.02981	0.17668
0.30171	1.45206
0.02119	-0.84363
0.17421	-2.85874
0.07220	-0.07840
0.17421	-0.48652
-0.00431	0.30422
-0.08081	1.98773
-0.28482	1.50308
0.04670	1.37554
-0.15732	-1.07320
0.19971	-0.20594
0.76074	-0.53754
0.81175	1.01843
0.68424	1.12046
0.32721	-0.33348
-0.38683	-1.78742
-0.13181	1.12046
0.32721	1.17148
0.07220	-0.74160
-0.64185	-0.07840
-0.33583	-0.63957
0.22521	0.12566
0.40372	0.99292
0.53123	0.55929
0.45472	0.12566
0.42922	2.39585
0.53123	1.60511
0.04670	-1.94047
-0.02981	-2.47613
-0.10631	-2.04250
-0.43783	2.62542
-0.31033	-0.58856
-0.15732	1.40105
0.50573	0.17668
0.55673	-0.23145
0.50573	1.75816
0.37822	-0.63957
0.32721	-0.81812
0.30171	-0.12942
0.04670	-0.35899
-0.15732	1.27351
-0.23382	-0.10391
-0.31033	-0.71609
0.37822	0.25320
0.68424	0.02363
0.63323	1.12046
0.68424	1.01843
0.27621	1.96222
-0.25932	-3.90456
-1.55991	0.76336
-0.99887	-0.20594
0.63323	2.14077
0.78624	0.35523
0.73524	1.55410
0.58223	-0.58856
0.58223	-0.56305
0.40372	0.20219
0.35272	-0.33348
-0.13181	0.35523
-0.00431	0.04914
-0.10631	-0.00188
-0.31033	0.04914
-0.38683	0.40625
-0.00431	1.17148
0.48022	-0.71609
0.65874	0.25320
0.40372	-0.46102
0.04670	-1.04770
0.09770	0.04914
0.17421	-0.10391
0.09770	1.32453
0.22521	1.04394
0.35272	-1.71090
0.42922	-0.25695
0.19971	0.12566
-0.08081	0.76336
-0.20832	1.47757
0.09770	1.22250
0.42922	1.68163
0.53123	-3.06281
0.19971	0.10015
0.07220	-0.33348
0.25071	-0.41000
0.25071	-0.92016
-0.28482	-0.81812
-0.20832	0.71234
0.14870	0.45726
0.40372	1.47757
0.32721	0.04914
0.09770	1.29902
-0.33583	-0.02739
-0.13181	-2.55265
0.04670	-0.02739
0.32721	0.15117
0.50573	2.03874
0.53123	1.75816
0.09770	-2.04250
0.25071	-0.76711
-0.08081	0.20219
-0.20832	0.61031
-0.05531	-0.25695
0.22521	0.30422
0.37822	0.58480
0.37822	0.04914
0.35272	0.22769
0.22521	0.55929
-0.08081	2.11527
-0.28482	-3.19035
0.09770	-0.48652
0.55673	0.04914
-0.00431	0.22769
-0.36133	2.52339
-0.08081	1.96222
0.14870	0.96742
0.32721	-0.84363
0.53123	-1.53234
0.63323	0.17668
0.45472	0.50828
-0.13181	0.15117
-0.10631	-1.53234
0.07220	1.78367
0.37822	-0.02739
0.25071	1.01843
0.22521	-0.48652
-0.20832	-0.99668
-0.33583	0.63582
-0.31033	0.96742
0.14870	-0.56305
0.22521	0.15117
0.37822	1.22250
0.04670	-0.51203
-0.15732	0.89089
0.22521	0.78886
0.45472	-1.68539
-0.00431	0.55929
0.30171	1.37554
0.68424	0.38074
0.60773	-0.15492
0.81175	0.25320
0.25071	0.10015
0.19971	0.04914
-0.79486	-1.07320
-0.66735	0.53379
-0.53984	1.93671
-0.61635	0.22769
0.65874	-0.05289
0.99026	2.08976
0.78624	-1.09871
0.17421	-2.45062
0.02119	-0.00188
0.14870	-0.02739
0.40372	1.17148
0.27621	1.55410
-0.76936	0.22769
-0.76936	-0.33348
-0.02981	1.40105
0.53123	0.12566
0.53123	-1.53234
0.14870	0.15117
0.02119	-2.09351
0.42922	0.94191
0.48022	0.86539
0.35272	0.04914
0.25071	1.47757
0.27621	-0.41000
0.07220	0.40625
-0.00431	-0.66508
0.19971	0.50828
-0.00431	0.32972
0.02119	-0.20594
-0.23382	0.10015
0.02119	1.47757
0.27621	-1.22625
0.55673	0.27871
0.45472	-0.84363
0.32721	-0.41000
-0.18282	0.32972
0.07220	0.91640
0.37822	2.52339
-0.31033	-0.56305
0.19971	-0.71609
0.63323	0.40625
0.37822	-0.23145
0.50573	0.55929
0.22521	0.76336
-0.10631	-1.12422
-0.02981	-0.63957
-0.00431	1.06945
0.53123	0.76336
0.27621	-0.10391
-0.33583	1.27351
-0.64185	-0.99668
-0.25932	-0.02739
0.22521	0.20219
0.70974	0.96742
0.58223	1.09496
-0.08081	-0.28246
-0.18282	-0.56305
0.37822	-0.18043
0.32721	1.52859
0.32721	0.12566
0.42922	-3.29238
0.12320	-0.35899
-0.13181	-0.23145
-0.02981	1.52859
0.22521	1.91120
0.04670	0.83988
0.22521	-0.15492
0.07220	1.35003
0.14870	1.47757
0.07220	-1.86394
0.45472	-0.69059
0.42922	0.25320
0.30171	0.32972
-0.28482	-0.12942
-0.28482	0.22769
-0.23382	-0.23145
0.14870	0.73785
0.58223	0.96742
0.53123	-2.83324
0.58223	0.04914
0.09770	1.93671
0.12320	-1.65988
0.04670	2.19179
0.17421	-0.07840
-0.10631	-2.52714
-0.31033	1.50308
0.17421	3.23761
0.22521	-1.09871
0.40372	1.19699
0.40372	-0.05289
0.07220	0.04914
-0.59084	0.30422
0.19971	-0.30797
0.48022	0.32972
0.45472	1.45206
0.22521	-1.12422
0.09770	-3.87905
0.25071	1.06945
0.07220	0.43176
0.07220	0.58480
0.30171	0.35523
0.32721	1.52859
0.40372	1.32453
-0.23382	1.22250
-1.25389	-0.30797
-0.89686	-1.20074
0.09770	0.40625
0.96476	0.76336
0.91375	-1.86394
0.68424	-0.05289
0.25071	0.27871
0.22521	0.48277
0.22521	2.03874
0.07220	0.25320
-0.05531	0.27871
-0.13181	-2.14453
-0.13181	1.60511
0.27621	-0.66508
0.32721	0.20219
0.19971	-0.35899
0.19971	0.55929
0.19971	-0.46102
0.30171	1.27351
0.14870	1.93671
-0.18282	-0.46102
0.12320	-1.12422
0.14870	-2.19554
0.37822	1.32453
0.37822	0.58480
-0.10631	3.08456
0.09770	-0.41000
-0.20832	-3.11382
-0.38683	-0.33348
-0.25932	-0.89465
0.53123	1.80917
1.21977	1.83468
0.81175	0.50828
0.32721	-0.02739
-0.41233	0.17668
-0.10631	-0.07840
0.25071	-0.46102
0.37822	1.73265
-0.05531	-1.17523
-0.10631	0.35523
0.25071	-1.12422
0.37822	0.40625
-0.00431	0.50828
-0.31033	-0.15492
-0.10631	-0.28246
0.17421	0.58480
0.12320	-1.02219
0.48022	1.50308
0.30171	-0.33348
0.19971	0.30422
0.12320	2.19179
0.12320	-0.58856
0.25071	1.45206
0.19971	-2.78222
0.27621	0.12566
0.30171	0.30422
0.09770	0.63582
-0.13181	0.73785
-0.08081	0.22769
-0.15732	-1.04770
0.22521	-1.02219
-0.25932	-0.15492
0.35272	2.24281
0.63323	0.20219
0.83725	-0.18043
0.53123	-0.48652
0.22521	0.83988
0.02119	1.45206
-0.08081	0.25320
-0.08081	-1.40480
0.02119	0.32972
0.17421	-0.61406
0.37822	-0.35899
0.22521	0.81437
-0.00431	-0.92016
-0.13181	1.47757
-0.02981	0.99292
0.04670	-0.30797
-0.00431	-1.94047
0.32721	0.17668
0.14870	0.63582
0.60773	2.47238
0.30171	0.55929
-0.20832	-0.38449
-0.05531	-0.07840
0.27621	0.40625
0.30171	-0.99668
0.19971	0.63582
-0.02981	0.15117
-0.00431	0.04914
0.12320	0.27871
0.17421	-2.19554
0.37822	-0.38449
0.27621	0.58480
0.12320	0.38074
0.09770	1.09496
0.09770	0.45726
-0.10631	2.19179
-0.00431	-0.02739
0.35272	-0.41000
0.42922	0.12566
0.25071	-0.53754
0.19971	-0.43551
-0.00431	0.53379
-0.41233	0.25320
-0.23382	0.17668
-0.08081	-0.48652
-0.08081	1.93671
0.73524	-0.51203
0.48022	-1.88945
0.55673	0.50828
0.53123	0.40625
0.37822	-0.18043
0.07220	1.32453
-0.59084	1.22250
-0.28482	-0.28246
0.37822	0.76336
0.63323	-0.61406
-0.05531	0.48277
0.14870	0.25320
-0.13181	0.43176
0.02119	0.91640
0.32721	-0.05289
0.04670	-0.07840
0.09770	1.06945
-0.05531	-3.26687
0.19971	-0.69059
0.40372	1.01843
0.35272	1.19699
-0.05531	0.71234
-0.25932	-0.15492
-0.08081	2.06425
0.14870	0.17668
0.58223	-4.18515
0.42922	0.61031
0.19971	0.20219
0.32721	0.50828
0.45472	0.94191
0.27621	1.19699
-0.36133	-0.76711
-0.89686	0.10015
-0.00431	1.01843
0.60773	0.63582
0.25071	0.76336
0.14870	-2.37410
0.30171	0.45726
0.42922	-0.43551
0.37822	0.63582
0.19971	1.40105
-0.13181	0.35523
-0.38683	0.66132
-0.20832	-0.58856
0.14870	-2.14453
0.32721	1.22250
0.37822	1.80917
0.27621	-1.07320
0.04670	0.76336
0.65874	1.04394
0.42922	-1.55785
0.32721	0.96742
-0.59084	0.78886
-0.61635	0.61031
0.30171	-0.92016
0.30171	0.81437
0.30171	-1.02219
0.02119	0.86539
0.58223	0.76336
0.68424	0.02363
0.45472	-0.71609
0.19971	0.50828
-0.10631	-2.01699
-0.36133	1.27351
-0.79486	0.45726
0.02119	0.38074
0.55673	-0.99668
0.58223	1.09496
0.40372	1.96222
0.30171	-1.17523
0.17421	0.25320
0.02119	-0.53754
0.07220	1.12046
-0.00431	0.53379
0.07220	-0.07840
0.19971	0.17668
-0.13181	0.43176
-0.15732	0.48277
0.32721	-1.94047
0.09770	-0.56305
0.14870	0.50828
0.19971	1.29902
0.48022	1.55410
0.50573	-0.43551
0.45472	-0.20594
0.30171	-1.14973
0.17421	1.42656
0.30171	1.09496
-0.28482	-0.35899
-0.51434	-2.27207
-0.10631	0.78886
-0.13181	1.04394
-0.00431	-0.35899
0.53123	-0.05289
0.81175	0.43176
0.48022	0.71234
-0.02981	-0.02739
-0.20832	0.86539
0.63323	-0.15492
-0.02981	-0.63957
-0.08081	0.12566
0.17421	1.09496
0.45472	-0.20594
0.40372	-0.48652
0.32721	-1.20074
0.09770	1.47757
-0.02981	0.96742
0.04670	0.15117
-0.02981	0.38074
-0.23382	-0.69059
0.19971	1.75816
0.35272	-0.84363
0.22521	0.07465
0.25071	-0.02739
0.02119	0.45726
-0.08081	1.09496
-0.13181	0.25320
0.30171	-0.92016
0.37822	-0.46102
0.55673	0.66132
0.55673	0.89089
0.04670	-0.41000
-0.51434	1.35003
-0.38683	-0.30797
0.14870	0.32972
0.53123	0.38074
0.65874	-0.10391
0.25071	0.35523
0.02119	0.15117
-0.61635	0.17668
-0.82036	-0.69059
0.40372	-0.28246
0.53123	0.12566
0.53123	0.25320
0.55673	1.06945
0.32721	0.38074
0.07220	0.17668
0.09770	1.06945
0.09770	-0.69059
-0.05531	-0.07840
-0.00431	0.15117
0.07220	-0.51203
0.12320	-0.12942
-0.18282	1.24800
-0.25932	0.71234
0.09770	-3.21585
0.22521	0.22769
0.32721	0.94191
0.17421	0.83988
0.40372	0.35523
0.12320	0.73785
0.02119	-1.30277
0.07220	0.55929
0.27621	0.45726
0.55673	0.73785
0.35272	0.58480
0.14870	1.37554
-0.13181	-0.46102
-0.13181	-2.45062
0.04670	-0.48652
0.04670	0.38074
0.30171	0.27871
0.45472	0.99292
0.22521	-1.76191
0.04670	2.39585
-0.08081	-0.66508
-0.00431	0.61031
0.14870	-0.41000
0.12320	-0.07840
0.22521	0.17668
0.37822	1.29902
0.37822	1.01843
0.42922	-0.23145
0.04670	0.07465
-0.71835	-0.05289
-0.28482	0.04914
0.09770	0.61031
0.53123	-0.89465
0.45472	0.27871
0.40372	-0.05289
0.37822	0.43176
0.32721	-0.33348
0.02119	0.53379
-0.33583	-0.66508
-0.08081	-1.78742
0.58223	1.27351
0.30171	0.99292
0.22521	0.48277
0.02119	0.35523
0.04670	1.47757
-0.02981	-0.00188
0.09770	-1.58336
-0.41233	-0.25695
0.17421	0.22769
0.53123	0.71234
0.42922	-0.81812
0.17421	0.68683
-0.31033	0.20219
-0.23382	1.27351
0.19971	0.91640
0.68424	-1.25176
0.73524	-0.84363
0.30171	-0.30797
-0.13181	0.40625
-0.08081	-0.23145
0.04670	-1.35379
0.07220	1.98773
-0.13181	0.10015
0.12320	-0.92016
0.12320	-0.48652
0.14870	0.10015
0.32721	1.04394
-0.15732	1.57960
-0.13181	0.20219
-0.18282	-1.09871
0.35272	-0.00188
0.78624	-0.23145
0.58223	0.15117
-0.13181	-0.07840
-0.23382	-0.00188
-0.20832	0.68683
0.60773	0.61031
0.53123	-0.84363
0.40372	0.91640
0.30171	-0.53754
0.17421	0.25320
-0.13181	-0.28246
-0.38683	0.71234
-0.15732	0.76336
0.40372	-1.45582
0.55673	0.20219
0.04670	0.45726
-0.18282	0.10015
-0.15732	1.17148
-0.02981	-0.69059
0.22521	-0.84363
0.40372	1.19699
0.42922	0.48277
0.22521	0.02363
0.37822	1.19699
0.09770	-1.48133
0.12320	-0.28246
0.09770	-0.56305
-0.28482	0.78886
-0.00431	0.45726
0.53123	0.22769
0.48022	0.22769
0.14870	-0.12942
0.22521	1.35003
0.32721	-1.30277
0.17421	-0.51203
0.09770	0.35523
-0.20832	0.89089
-0.08081	0.55929
-0.18282	-1.60887
0.19971	0.66132
0.42922	0.38074
0.63323	0.04914
0.45472	1.17148
0.32721	1.60511
-0.10631	-0.20594
-0.20832	-0.02739
-0.41233	-0.25695
-0.18282	-1.76191
0.07220	0.55929
0.02119	-1.30277
0.17421	1.29902
0.19971	0.66132
0.50573	0.38074
0.50573	1.24800
0.40372	-0.63957
0.09770	1.06945
-0.18282	-1.30277
0.12320	1.09496
0.14870	0.15117
0.04670	0.61031
0.12320	-0.15492
0.32721	0.07465
0.22521	-1.04770
0.17421	0.30422
0.32721	-1.83844
0.22521	1.19699
-0.28482	1.88570
-0.20832	-2.90976
0.22521	0.73785
-0.13181	1.98773
0.09770	-0.41000
0.53123	-0.20594
0.81175	1.17148
0.78624	0.76336
0.04670	0.96742
-0.99887	-1.40480
-0.99887	-0.00188
0.68424	0.50828
0.68424	0.43176
0.53123	0.45726
0.48022	-1.14973
0.07220	-0.92016
0.02119	0.76336
-0.05531	-0.61406
-0.43783	0.78886
0.02119	0.66132
0.27621	1.45206
0.40372	-1.60887
0.30171	0.04914
0.22521	0.66132
0.22521	-0.00188
0.04670	0.22769
-0.23382	0.61031
-0.10631	1.73265
0.09770	0.04914
0.25071	-0.38449
0.30171	-0.46102
0.17421	0.04914
0.32721	0.91640
0.25071	-0.35899
-0.00431	-1.25176
-0.79486	1.17148
-0.33583	0.25320
0.07220	-0.05289
0.32721	-0.92016
0.65874	0.86539
0.30171	0.76336
0.04670	0.15117
0.53123	-1.40480
0.58223	0.55929
0.58223	0.43176
0.32721	0.73785
0.19971	0.02363
-0.13181	-0.18043
-0.82036	-0.00188
-1.02437	0.61031
-0.25932	1.09496
0.53123	-0.79262
0.53123	0.40625
0.60773	-0.33348
0.48022	0.40625
0.30171	-0.76711
0.07220	1.29902
0.02119	1.73265
0.35272	0.25320
-0.23382	-0.15492
-0.02981	-0.74160
0.22521	-1.25176
0.37822	-0.51203
0.12320	1.04394
0.14870	0.68683
0.22521	1.01843
0.14870	0.86539
0.12320	-0.81812
0.02119	-0.76711
-0.02981	-0.02739
0.27621	1.63062
0.12320	1.04394
0.22521	-0.58856
0.32721	0.86539
0.32721	0.91640
0.48022	-0.84363
0.32721	-0.56305
0.30171	2.75296
-0.15732	-0.56305
-0.64185	-0.00188
-0.79486	-0.35899
0.12320	-1.09871
0.88825	0.45726
0.78624	1.14597
-0.28482	0.63582
-0.36133	0.20219
0.14870	-1.02219
0.88825	-0.20594
0.68424	-0.18043
0.73524	-0.69059
-0.25932	1.24800
0.27621	0.91640
0.27621	0.25320
0.30171	-0.23145
-0.25932	0.91640
-0.23382	-0.07840
-0.08081	0.35523
0.17421	0.22769
0.12320	0.43176
0.12320	0.12566
0.19971	-1.27726
0.07220	-1.02219
-0.05531	-0.61406
0.02119	0.48277
0.14870	0.71234
0.22521	2.14077
0.58223	0.55929
0.45472	0.12566
0.14870	0.38074
0.35272	-5.00139
0.30171	1.86019
0.35272	0.86539
0.04670	1.47757
-0.10631	-0.46102
-0.20832	0.45726
0.02119	-0.15492
0.14870	-0.56305
0.22521	1.04394
0.17421	-0.51203
0.07220	-0.74160
0.27621	1.70714
-0.05531	0.76336
-0.41233	-0.23145
-0.48884	-0.25695
-0.05531	0.20219
0.22521	-0.76711
0.70974	1.04394
1.06676	0.12566
0.55673	-0.74160
-0.13181	-0.02739
0.02119	0.81437
0.37822	0.66132
0.45472	1.45206
0.73524	-0.89465
0.12320	-0.97117
-0.51434	-0.12942
-0.48884	1.19699
-0.28482	0.17668
0.02119	-0.99668
-0.05531	0.78886
0.22521	0.94191
0.58223	-0.48652
0.19971	0.45726
0.53123	-1.09871
0.48022	1.04394
0.32721	-0.56305
0.22521	0.40625
0.09770	0.50828
-0.00431	-0.20594
-0.18282	-0.33348
-0.13181	0.83988
0.04670	0.40625
0.19971	0.35523
0.14870	-1.27726
0.07220	1.37554
0.07220	-0.41000
0.17421	-0.05289
0.40372	-1.09871
0.12320	1.83468
0.02119	2.01323
0.19971	-2.80773
0.73524	0.07465
0.37822	0.83988
0.27621	-0.02739
-0.66735	0.38074
-0.94787	0.66132
-1.33039	0.22769
0.27621	0.10015
1.72980	0.25320
1.70430	0.15117
1.14327	-0.05289
0.81175	-0.05289
0.25071	0.15117
0.09770	0.20219
-0.23382	-0.43551
-0.66735	0.71234
-0.92237	0.20219
-1.25389	-0.51203
-1.66191	-1.25176
-0.13181	0.99292
1.27078	0.99292
1.21977	1.29902
1.29628	-2.98628
1.11776	-0.28246
0.70974	1.32453
0.25071	2.11527
-0.02981	-0.66508
-0.00431	-0.25695
-0.08081	1.04394
0.02119	-0.35899
-0.13181	0.25320
-0.56534	-0.76711
-0.64185	-0.33348
0.19971	0.27871
0.55673	-0.02739
0.42922	-0.94566
0.50573	0.10015
-0.10631	-0.56305
0.30171	1.37554
0.07220	-0.38449
0.25071	0.04914
0.50573	0.99292
0.53123	0.12566
0.42922	0.17668
0.12320	1.01843
-0.13181	1.75816
0.02119	-0.28246
0.40372	-1.07320
0.30171	0.15117
0.14870	0.25320
-0.31033	-0.63957
0.19971	-0.94566
-0.10631	0.91640
0.02119	-0.20594
-0.92237	0.02363
-1.07538	-0.02739
0.70974	0.94191
1.42379	-0.92016
1.24527	0.55929
0.83725	-0.56305
0.53123	1.83468
0.07220	-0.02739
-0.31033	0.61031
-0.74385	0.50828
-0.18282	-2.27207
0.04670	0.15117
-0.53984	0.02363
-0.00431	1.06945
0.37822	1.04394
0.55673	-0.25695
0.58223	-0.18043
0.53123	-0.05289
0.22521	0.15117
-0.13181	1.29902
-0.15732	-0.79262
0.12320	0.48277
0.50573	-0.25695
0.42922	-0.10391
0.14870	1.22250
-0.18282	-0.58856
-0.13181	1.42656
0.88825	0.66132
0.53123	-0.74160
-0.13181	-0.12942
0.02119	0.10015
0.55673	1.93671
0.25071	-0.97117
0.32721	-0.25695
-0.02981	-0.33348
-0.61635	0.15117
-0.00431	0.17668
0.45472	0.91640
0.58223	-1.22625
0.37822	0.61031
0.12320	0.27871
-0.20832	0.10015
0.07220	-0.38449
0.12320	-0.10391
0.09770	1.12046
0.25071	-1.81293
0.19971	1.73265
0.17421	-0.41000
-0.18282	1.19699
-0.25932	0.76336
0.14870	-0.10391
0.25071	-0.51203
0.32721	-1.17523
0.35272	0.22769
0.12320	0.71234
0.19971	2.21730
0.58223	-0.58856
0.70974	-1.04770
0.09770	-0.76711
-0.82036	0.89089
-0.51434	0.55929
0.17421	0.02363
0.63323	0.58480
0.42922	0.12566
0.76074	0.53379
0.70974	0.45726
0.12320	0.43176
-0.38683	-0.30797
-0.20832	0.71234
0.45472	0.40625
0.12320	-0.05289
-0.00431	-0.66508
-0.05531	-0.63957
0.14870	-0.86914
0.35272	0.71234
0.42922	-0.74160
0.60773	0.71234
0.35272	0.68683
-0.10631	0.17668
-1.10088	0.38074
-0.74385	0.89089
0.09770	0.76336
0.60773	-2.83324
0.76074	1.01843
0.60773	0.38074
0.32721	-0.35899
0.55673	0.99292
0.30171	1.60511
0.32721	0.55929
-0.25932	0.04914
-0.08081	0.55929
-0.28482	-0.07840
-0.15732	-0.74160
0.25071	-0.07840
0.53123	-0.53754
0.68424	0.10015
0.53123	0.86539
0.19971	0.45726
-0.87136	0.04914
-0.61635	-0.33348
0.32721	0.27871
0.73524	-0.63957
0.88825	0.38074
0.50573	1.96222
0.12320	-0.79262
-0.10631	0.76336
-0.00431	-1.96597
0.53123	1.32453
0.45472	0.91640
-0.20832	-0.23145
-1.15188	0.94191
0.22521	-0.48652
0.53123	0.71234
0.93925	-0.07840
1.09226	-0.43551
0.50573	-0.25695
-0.36133	-0.07840
-0.87136	1.01843
-0.28482	-0.10391
0.48022	0.38074
0.55673	0.25320
0.30171	-0.56305
0.14870	-0.23145
0.12320	0.86539
0.07220	-0.66508
0.04670	-0.15492
0.07220	0.53379
0.09770	0.55929
0.09770	1.63062
0.17421	-0.51203
-0.08081	0.30422
-0.13181	-1.73640
0.12320	-0.38449
0.32721	2.16628
0.45472	1.27351
0.48022	-1.12422
0.17421	-0.35899
0.14870	0.76336
0.45472	1.22250
0.68424	-0.61406
-0.38683	0.02363
-0.15732	-1.14973
0.32721	-1.43031
-0.10631	1.63062
-0.08081	0.53379
0.45472	-0.86914
0.45472	-1.27726
0.58223	1.42656
0.60773	0.40625
0.14870	1.86019
-0.33583	-0.81812
-0.48884	0.50828
-0.05531	1.22250
-0.05531	-1.45582
-0.10631	0.55929
0.04670	1.17148
0.32721	-1.43031
0.63323	0.35523
0.50573	0.94191
0.40372	0.58480
0.02119	0.20219
0.02119	-0.38449
-0.20832	-0.28246
0.35272	0.86539
0.17421	-0.02739
-0.00431	0.02363
0.04670	0.30422
0.22521	-0.58856
0.27621	0.12566
0.27621	-0.35899
-0.02981	0.22769
-0.23382	0.38074
-0.66735	1.14597
-0.28482	-0.35899
0.68424	0.55929
0.65874	-0.89465
0.63323	0.10015
0.50573	1.47757
0.55673	1.32453
0.27621	0.02363
0.09770	-0.76711
-0.05531	0.20219
-0.13181	0.04914
-0.28482	-0.20594
0.17421	0.86539
0.07220	-0.18043
0.07220	-0.74160
-0.08081	-0.15492
0.17421	1.50308
0.09770	0.15117
0.04670	-1.50683
0.27621	0.58480
0.32721	0.25320
0.42922	-0.10391
-0.05531	1.47757
-0.18282	-0.61406
0.32721	-1.14973
0.50573	0.35523
0.53123	0.15117
-0.00431	0.55929
-1.12638	0.38074
-0.64185	0.10015
0.81175	0.17668
0.99026	-0.46102
0.76074	-0.48652
0.60773	-0.18043
0.32721	1.27351
0.12320	0.81437
-0.10631	-0.35899
-0.18282	0.48277
-0.08081	-0.00188
-0.08081	-1.09871
-0.08081	2.08976
0.12320	0.22769
0.04670	-1.73640
0.19971	0.71234
-0.05531	0.55929
-0.18282	0.20219
0.12320	-0.48652
0.42922	0.12566
0.48022	-0.76711
0.40372	0.22769
0.27621	1.22250
0.32721	0.32972
0.42922	0.15117
0.22521	-0.58856
-0.10631	0.43176
0.09770	0.83988
0.17421	-0.51203
0.14870	0.63582
-0.69285	-0.92016
-0.92237	-0.61406
0.30171	0.66132
0.88825	0.99292
0.81175	-1.17523
0.40372	0.45726
0.14870	1.32453
-0.10631	0.91640
-0.08081	2.85499
0.14870	-0.76711
0.22521	-0.81812
0.22521	-0.84363
0.09770	-0.48652
0.04670	-0.66508
0.07220	-0.23145
0.02119	0.40625
-0.13181	0.04914
0.14870	1.24800
0.35272	0.81437
0.30171	-0.43551
0.14870	-0.69059
0.09770	0.35523
0.27621	0.17668
0.32721	0.12566
0.04670	0.76336
0.12320	0.45726
0.09770	0.35523
-0.08081	0.32972
-0.18282	0.38074
-0.15732	-0.58856
0.14870	-1.91496
0.45472	1.24800
0.48022	0.63582
0.27621	1.98773
0.17421	-0.07840
-0.10631	0.38074
-0.05531	-0.63957
0.07220	-1.40480
0.09770	-0.92016
0.25071	1.04394
0.40372	1.37554
0.40372	0.17668
0.42922	-1.09871
0.32721	1.32453
-0.15732	-1.25176
-0.53984	1.32453
-0.46334	0.40625
0.17421	-0.58856
0.40372	0.15117
0.32721	0.66132
0.02119	0.04914
-0.10631	0.89089
0.30171	-0.48652
0.42922	1.35003
0.27621	-0.56305
0.50573	0.27871
0.48022	-0.46102
0.37822	-0.20594
-0.61635	0.07465
-0.97337	0.30422
0.02119	-0.07840
0.65874	0.04914
0.68424	0.25320
0.58223	-0.61406
0.65874	0.61031
0.53123	1.29902
0.17421	0.45726
-0.59084	-0.18043
-1.22839	1.06945
-0.46334	0.12566
0.30171	0.17668
0.35272	-0.84363
0.81175	0.02363
1.09226	1.60511
0.78624	0.15117
-0.38683	0.38074
-0.66735	-2.01699
0.09770	0.02363
0.42922	-0.66508
-0.08081	0.12566
-0.28482	2.44687
-0.23382	-1.50683
0.35272	2.29382
0.70974	0.35523
0.76074	0.02363
0.40372	-0.41000
0.45472	-1.09871
0.27621	-0.43551
-0.02981	0.78886
-0.69285	1.40105
-0.41233	1.24800
0.04670	0.66132
0.27621	0.22769
0.37822	-0.41000
0.65874	-0.30797
0.35272	-0.35899
0.12320	-0.35899
-0.53984	0.17668
-0.61635	-0.05289
-0.02981	-0.48652
0.27621	1.01843
0.91375	1.70714
1.11776	1.01843
0.65874	-0.76711
0.32721	-0.46102
0.02119	0.04914
-0.18282	0.66132
0.02119	-1.40480
0.17421	0.66132
-0.10631	0.30422
-0.64185	1.24800
-0.84586	0.27871
0.02119	0.61031
0.68424	-0.28246
0.68424	0.02363
0.53123	-1.40480
0.17421	1.04394
0.73524	-1.45582
0.63323	-0.05289
-0.41233	0.89089
-1.04987	2.06425
-0.25932	-0.00188
0.25071	-0.00188
0.55673	-0.12942
0.68424	0.22769
0.91375	0.17668
0.53123	0.53379
0.14870	0.73785
-0.53984	-0.35899
-0.66735	-0.66508
-0.15732	0.22769
0.40372	-0.18043
0.45472	0.68683
0.22521	-0.12942
0.02119	-0.25695
-0.18282	0.45726
0.25071	0.35523
0.32721	0.32972
0.04670	-1.58336
0.19971	-0.12942
0.19971	1.65613
0.17421	1.42656
0.25071	1.06945
0.14870	1.73265
0.12320	-3.54745
0.17421	-0.38449
-0.69285	0.55929
-0.33583	0.38074
0.60773	0.12566
0.70974	1.70714
0.53123	0.30422
0.53123	-0.81812
0.19971	0.15117
0.02119	0.55929
0.04670	-0.92016
-0.00431	-1.48133
-0.18282	0.45726
0.02119	0.25320
-0.18282	1.57960
0.27621	-0.43551
0.25071	0.27871
0.22521	0.30422
0.14870	0.38074
-0.18282	-1.30277
0.17421	0.76336
0.22521	1.50308
0.14870	-1.48133
0.14870	-0.18043
0.27621	0.73785
0.42922	1.80917
0.14870	0.17668
-0.10631	-0.00188
0.04670	-0.81812
0.27621	-0.53754
0.27621	-0.25695
0.40372	-0.15492
0.27621	1.80917
0.25071	-0.20594
-0.20832	0.27871
-0.05531	0.61031
0.32721	0.25320
0.07220	-0.23145
0.12320	-0.86914
0.37822	1.06945
0.14870	-0.71609
0.12320	0.50828
0.40372	0.25320
0.40372	0.86539
0.32721	-0.00188
0.22521	0.10015
-0.15732	0.71234
-0.43783	-1.27726
0.12320	1.32453
0.48022	0.07465
0.53123	0.73785
0.50573	-0.99668
0.14870	0.55929
0.04670	0.02363
-0.05531	0.27871
-0.13181	-0.35899
-0.02981	0.81437
-0.25932	-0.58856
-0.28482	-0.15492
0.04670	1.04394
0.55673	-0.61406
0.73524	-0.48652
0.32721	1.35003
0.19971	0.89089
0.02119	-0.05289
0.14870	-0.58856
-0.05531	-0.48652
0.35272	0.25320
0.42922	1.63062
0.09770	-0.69059
-0.13181	-0.86914
-0.13181	0.30422
0.32721	0.50828
0.37822	1.78367
0.25071	-0.74160
0.27621	0.17668
0.09770	0.02363
-0.05531	0.38074
0.04670	-1.20074
0.07220	0.10015
0.17421	0.35523
0.30171	-0.28246
0.25071	0.76336
0.12320	-0.05289
-0.00431	0.20219
0.07220	-0.23145
0.27621	0.40625
0.22521	1.22250
0.17421	0.96742
-0.28482	-0.23145
-0.23382	-0.81812
0.35272	-0.86914
0.40372	0.71234
0.65874	-1.55785
0.73524	1.35003
0.50573	1.12046
0.07220	1.37554
-0.46334	1.12046
-0.59084	-0.92016
-0.00431	-0.74160
0.19971	0.02363
0.32721	0.66132
0.25071	0.50828
0.45472	0.40625
0.55673	0.38074
0.42922	-0.48652
-0.48884	-0.43551
-0.74385	-0.41000
-0.53984	-0.05289
0.12320	-0.56305
1.01576	1.17148
0.78624	0.12566
0.58223	0.86539
-0.02981	1.17148
-0.28482	-1.50683
0.04670	0.40625
0.14870	0.81437
0.02119	1.24800
0.37822	0.10015
0.37822	-0.66508
0.02119	-0.18043
0.17421	0.12566
0.42922	0.53379
-0.13181	0.53379
-0.38683	-1.12422
-0.41233	-0.28246
-0.05531	0.43176
0.48022	1.63062
0.53123	-0.18043
0.53123	0.25320
0.27621	-0.56305
0.42922	-0.92016
0.19971	-0.51203
0.19971	1.42656
-0.08081	1.09496
-0.25932	-0.66508
0.19971	1.24800
0.07220	-0.58856
0.14870	0.81437
0.27621	0.15117
0.37822	-0.33348
0.22521	-1.04770
0.22521	0.43176
0.32721	-0.30797
0.32721	0.76336
0.22521	-0.35899
0.09770	1.78367
0.04670	0.81437
0.07220	-3.44542
-0.02981	-0.28246
-0.08081	0.43176
0.07220	0.83988
0.35272	1.24800
0.37822	0.58480
-0.02981	0.02363
-0.13181	-0.92016
0.22521	0.91640
0.07220	-0.12942
0.02119	-0.53754
0.53123	-0.10391
0.73524	0.76336
0.50573	0.94191
0.45472	0.45726
0.60773	-0.20594
0.02119	0.78886
-0.64185	-0.00188
-0.31033	-0.23145
0.04670	-1.25176
0.14870	1.22250
0.02119	0.04914
-0.05531	-0.12942
-0.18282	0.94191
0.09770	1.19699
0.45472	-1.07320
0.30171	-0.56305
0.02119	0.61031
0.12320	-0.12942
0.14870	0.86539
0.37822	0.96742
0.48022	-0.12942
0.32721	0.86539
0.32721	-0.07840
0.14870	0.40625
0.14870	-0.89465
-0.02981	0.10015
-0.23382	-0.71609
0.09770	-0.86914
0.19971	1.47757
0.09770	1.19699
-0.23382	-0.43551
-0.25932	0.12566
0.30171	-0.46102
0.27621	1.32453
0.37822	1.04394
0.60773	-0.84363
0.50573	-0.76711
0.25071	-0.02739
0.02119	0.55929
-0.02981	0.73785
0.12320	-0.00188
0.14870	-0.00188
0.22521	-1.45582
-0.10631	-1.50683
-0.46334	0.38074
-0.51434	1.37554
0.12320	1.17148
0.60773	-0.86914
0.78624	0.63582
0.68424	0.78886
-0.20832	0.76336
-0.38683	0.83988
0.30171	0.27871
0.55673	0.25320
0.30171	-0.43551
-0.08081	-0.58856
0.25071	-0.02739
0.50573	-0.25695
-0.13181	-0.99668
-0.36133	-0.07840
0.12320	0.71234
0.22521	0.94191
0.22521	0.99292
0.02119	0.81437
0.17421	-0.20594
0.14870	-0.79262
-0.02981	0.99292
-0.00431	-2.83324
0.12320	1.19699
0.32721	0.55929
0.32721	0.99292
0.30171	-0.18043
0.12320	1.09496
-0.05531	0.35523
-0.18282	0.55929
-0.25932	-0.71609
0.27621	-0.69059
0.60773	0.12566
0.42922	0.58480
0.25071	-0.15492
0.40372	1.01843
0.25071	-0.20594
0.19971	0.76336
0.09770	-0.41000
-0.08081	0.07465
-0.15732	0.68683
0.09770	0.07465
0.32721	-0.53754
0.04670	-1.32828
-0.51434	0.99292
-1.02437	-0.51203
-0.31033	1.55410
0.40372	1.04394
0.60773	0.99292
0.73524	-0.15492
0.93925	1.57960
1.01576	-0.51203
0.73524	-0.81812
0.25071	-0.15492
-0.28482	-0.02739
-0.79486	-1.22625
-0.53984	-0.63957
0.17421	1.98773
0.22521	0.27871
0.12320	-0.28246
0.32721	-0.38449
0.53123	0.61031
0.50573	1.17148
0.32721	0.50828
-0.56534	0.66132
-0.84586	-0.33348
-0.10631	-0.18043
0.53123	0.43176
0.73524	-1.50683
0.53123	0.61031
0.27621	-0.02739
0.09770	0.76336
0.35272	-0.79262
0.14870	0.58480
0.14870	0.50828
0.02119	-0.02739
-0.08081	0.04914
0.25071	0.76336
0.37822	0.76336
0.19971	0.25320
-0.23382	-0.97117
-0.33583	-0.38449
-0.08081	0.25320
-0.00431	1.29902
-0.05531	-0.61406
0.70974	-0.63957
1.34728	1.12046
1.21977	-0.05289
0.07220	-1.20074
-0.87136	-0.46102
-0.69285	2.47238
-0.08081	0.17668
0.70974	0.07465
0.96476	-0.69059
0.35272	-0.53754
-0.10631	0.15117
-0.84586	1.09496
-1.02437	0.94191
-0.76936	-0.02739
0.91375	1.04394
1.14327	0.45726
1.19427	-1.43031
1.04126	-0.07840
1.16877	0.78886
0.22521	-0.12942
-0.48884	-0.20594
-1.02437	0.55929
-1.22839	-0.46102
-0.94787	-1.30277
