0.19971	0.38074
0.32721	0.38074
0.22521	0.25320
0.17421	0.32972
0.12320	0.17668
-0.08081	0.04914
0.14870	-0.79262
0.17421	-0.35899
0.02119	0.12566
0.07220	0.58480
0.12320	0.83988
0.25071	0.40625
0.09770	-0.05289
0.07220	-0.00188
0.42922	0.27871
0.04670	0.15117
0.04670	-0.05289
0.09770	0.02363
0.12320	-0.02739
0.19971	0.04914
0.12320	0.38074
0.27621	0.38074
0.22521	0.30422
0.17421	0.04914
0.17421	0.15117
0.12320	-0.05289
-0.25932	0.40625
0.32721	0.38074
0.27621	0.07465
0.14870	-0.00188
0.07220	0.25320
0.04670	0.25320
0.09770	0.07465
0.22521	-0.18043
0.14870	0.10015
0.07220	0.45726
0.17421	0.32972
0.37822	0.30422
0.09770	0.20219
-0.15732	-0.00188
0.12320	-0.00188
0.19971	-0.15492
0.17421	0.04914
0.25071	0.15117
0.25071	0.63582
0.14870	0.22769
0.07220	0.35523
0.14870	0.58480
0.17421	0.25320
0.22521	-0.12942
0.19971	-1.27726
0.14870	-0.05289
0.17421	0.32972
0.09770	0.50828
0.12320	0.55929
0.09770	0.30422
0.07220	0.45726
0.07220	0.32972
0.14870	-0.02739
0.09770	-0.53754
0.07220	0.07465
-0.13181	0.10015
0.32721	0.22769
0.40372	0.20219
0.02119	0.25320
-0.13181	-0.28246
0.35272	-0.05289
0.19971	0.30422
-0.00431	0.04914
0.14870	0.25320
0.19971	0.50828
0.22521	0.40625
0.14870	0.30422
0.17421	0.27871
0.25071	0.22769
0.27621	-0.02739
0.22521	0.04914
0.14870	-0.51203
0.17421	-0.20594
0.17421	0.35523
0.14870	0.32972
0.17421	0.35523
0.17421	0.32972
0.17421	0.30422
0.07220	0.15117
0.07220	-0.10391
0.12320	-0.25695
0.09770	0.17668
0.17421	0.43176
0.12320	0.38074
0.17421	0.07465
0.17421	0.25320
0.14870	0.07465
0.09770	0.12566
0.17421	0.02363
0.12320	0.17668
0.14870	0.35523
0.09770	0.10015
0.22521	0.25320
0.30171	0.12566
0.14870	-0.56305
0.07220	0.04914
0.09770	-0.05289
0.04670	0.40625
0.30171	0.48277
0.17421	0.45726
0.04670	0.40625
0.14870	-0.00188
0.12320	-0.46102
0.12320	0.20219
-0.00431	0.22769
0.63323	0.45726
0.22521	-0.02739
0.07220	0.30422
0.09770	-0.69059
0.04670	0.38074
0.04670	0.32972
0.12320	0.35523
0.12320	0.07465
-0.00431	0.32972
0.27621	0.43176
0.09770	0.02363
0.22521	0.02363
0.25071	-0.10391
0.19971	0.02363
0.14870	-0.07840
0.09770	0.07465
0.04670	0.30422
0.07220	0.27871
0.09770	0.10015
0.17421	0.25320
0.19971	0.35523
0.17421	-0.46102
0.19971	0.35523
0.12320	0.20219
0.14870	0.20219
0.07220	0.20219
0.04670	-0.05289
0.12320	0.25320
0.14870	0.07465
0.17421	0.30422
0.25071	0.30422
0.14870	0.17668
0.17421	0.04914
0.07220	-0.05289
0.04670	-0.05289
0.07220	0.22769
0.35272	0.27871
0.12320	0.25320
0.09770	0.04914
0.07220	-0.30797
0.07220	-0.15492
0.17421	0.61031
0.22521	0.30422
0.17421	-0.05289
0.12320	-0.18043
0.04670	0.55929
0.07220	0.17668
0.07220	0.30422
0.14870	0.17668
0.17421	0.10015
0.14870	0.22769
0.19971	0.20219
0.14870	0.15117
0.14870	0.15117
0.22521	0.07465
0.22521	0.15117
0.12320	0.15117
0.14870	0.07465
0.14870	-0.15492
0.12320	-0.18043
-0.05531	0.22769
0.35272	0.68683
0.30171	-0.43551
0.17421	0.55929
0.17421	0.02363
0.07220	0.20219
-0.02981	0.25320
0.04670	0.22769
0.17421	0.15117
0.17421	0.27871
0.27621	0.20219
0.19971	0.12566
0.12320	0.12566
-0.00431	-0.28246
0.32721	0.02363
0.14870	0.22769
0.04670	0.25320
0.17421	0.38074
0.19971	-0.12942
0.14870	0.27871
0.14870	-0.07840
0.19971	0.20219
0.12320	0.20219
0.14870	0.12566
0.19971	0.43176
0.12320	0.30422
0.09770	-0.00188
0.07220	0.07465
0.17421	0.25320
0.19971	0.04914
0.19971	0.20219
0.12320	0.15117
0.14870	0.17668
0.19971	0.22769
0.19971	-0.02739
0.12320	0.17668
0.02119	0.04914
0.04670	0.30422
0.14870	0.10015
0.14870	0.22769
0.27621	-0.10391
0.27621	-0.30797
0.19971	0.15117
0.12320	0.73785
0.12320	0.32972
0.14870	0.22769
0.02119	0.12566
0.07220	-0.02739
0.09770	0.25320
0.14870	0.17668
0.14870	0.12566
0.17421	0.12566
0.14870	0.07465
0.14870	0.07465
0.22521	0.15117
0.19971	0.12566
0.19971	0.22769
0.19971	0.15117
0.14870	-0.20594
0.12320	-0.51203
0.14870	0.04914
0.14870	0.73785
0.17421	0.40625
0.09770	0.32972
0.09770	0.25320
0.12320	0.20219
0.17421	0.17668
0.12320	0.17668
0.17421	0.10015
0.07220	-0.43551
0.14870	0.25320
0.22521	0.32972
0.17421	0.30422
0.17421	0.17668
0.07220	0.07465
0.09770	-0.05289
0.14870	0.25320
0.19971	0.22769
0.12320	0.35523
0.07220	-0.10391
0.19971	0.27871
0.27621	0.20219
0.02119	-0.12942
0.22521	0.02363
0.19971	0.27871
0.12320	0.32972
0.07220	0.17668
0.07220	-0.38449
0.12320	0.27871
0.22521	0.45726
0.22521	0.35523
0.17421	0.25320
0.12320	0.12566
0.12320	0.10015
0.12320	0.15117
0.17421	0.15117
0.12320	0.15117
0.12320	0.10015
0.09770	0.10015
0.12320	0.10015
0.09770	0.61031
0.17421	0.38074
0.14870	-0.23145
0.22521	-1.02219
0.22521	-0.86914
0.12320	0.38074
0.02119	0.76336
0.12320	0.76336
0.22521	0.53379
0.17421	0.53379
0.12320	0.38074
0.17421	0.10015
0.17421	-0.00188
0.09770	-0.05289
0.14870	-0.02739
0.12320	-0.00188
0.19971	-0.02739
0.19971	0.02363
0.12320	-0.00188
0.14870	-0.05289
0.12320	0.07465
0.09770	0.25320
0.09770	0.22769
0.07220	0.30422
0.14870	0.17668
0.09770	0.07465
0.12320	-0.00188
0.12320	0.25320
0.22521	0.48277
0.22521	0.35523
0.22521	0.25320
0.25071	-2.01699
0.25071	0.58480
0.07220	0.91640
0.37822	0.81437
0.17421	0.25320
0.04670	0.53379
0.02119	-0.51203
0.14870	0.07465
0.17421	0.07465
0.17421	-0.00188
0.17421	-0.12942
0.27621	0.27871
0.22521	0.25320
0.14870	0.15117
0.07220	0.07465
0.07220	0.15117
0.04670	0.12566
0.14870	0.22769
0.19971	0.17668
0.25071	0.17668
0.19971	0.15117
0.07220	0.17668
0.07220	0.10015
0.07220	0.07465
0.14870	0.20219
0.09770	0.20219
0.14870	0.12566
0.17421	0.27871
0.14870	0.38074
0.14870	0.40625
0.27621	0.02363
0.22521	-0.92016
0.17421	0.07465
0.19971	0.83988
0.17421	0.83988
0.14870	0.78886
0.19971	-0.58856
0.12320	-0.05289
0.14870	0.43176
0.14870	0.15117
0.14870	0.17668
0.09770	-0.05289
0.09770	-0.10391
0.12320	-0.18043
0.12320	-0.00188
0.09770	0.07465
0.14870	0.20219
0.14870	0.04914
0.12320	0.17668
0.22521	0.20219
0.25071	0.30422
0.22521	0.25320
0.19971	0.40625
0.07220	-0.35899
0.12320	0.35523
0.12320	-0.18043
0.22521	0.20219
0.22521	0.40625
0.17421	0.32972
0.09770	0.17668
0.12320	0.12566
0.17421	0.15117
0.14870	0.04914
0.22521	0.12566
0.12320	0.20219
0.09770	0.27871
0.07220	-0.05289
0.07220	0.10015
0.17421	0.07465
0.07220	0.22769
0.32721	0.12566
0.22521	-0.07840
0.02119	0.20219
0.12320	0.45726
0.17421	0.38074
0.12320	0.17668
0.14870	-0.66508
0.09770	0.58480
0.09770	0.25320
0.17421	0.48277
0.14870	-0.28246
0.22521	0.04914
0.25071	0.40625
0.12320	0.45726
0.09770	0.22769
0.07220	0.17668
0.12320	0.07465
0.14870	0.22769
0.25071	0.07465
0.25071	0.12566
0.17421	0.15117
0.09770	0.10015
0.09770	-0.10391
0.09770	-0.46102
0.12320	0.10015
0.12320	0.43176
0.19971	0.55929
0.12320	-0.02739
0.14870	0.30422
0.14870	0.45726
0.12320	0.10015
0.19971	0.15117
0.14870	0.10015
0.19971	0.35523
0.22521	-0.02739
0.12320	0.15117
0.12320	-0.18043
0.09770	0.15117
0.17421	0.27871
0.09770	0.20219
0.17421	0.15117
0.14870	0.15117
0.22521	0.12566
0.12320	0.22769
0.07220	0.04914
0.12320	0.15117
0.14870	-0.48652
0.22521	-0.30797
0.17421	0.45726
0.14870	0.43176
0.12320	0.38074
0.12320	0.25320
0.22521	0.25320
0.19971	0.38074
0.12320	0.17668
0.12320	0.17668
0.09770	-0.07840
0.09770	0.02363
0.12320	0.02363
0.09770	-0.46102
0.12320	-0.12942
0.17421	0.25320
0.14870	-0.02739
0.12320	0.25320
0.12320	0.15117
0.09770	0.45726
0.12320	0.43176
0.17421	0.35523
0.14870	0.27871
0.27621	0.35523
0.25071	0.25320
0.22521	0.20219
0.22521	0.12566
0.22521	0.10015
0.22521	0.07465
0.17421	-0.00188
0.12320	0.04914
0.12320	0.10015
0.14870	0.40625
0.14870	-0.05289
0.12320	-0.18043
0.12320	-0.63957
0.17421	0.40625
0.12320	0.50828
0.14870	0.71234
0.22521	0.45726
0.12320	0.20219
0.14870	0.15117
0.14870	0.04914
0.09770	-0.02739
0.19971	0.12566
0.19971	0.04914
0.22521	-0.02739
0.09770	0.15117
0.07220	0.02363
0.07220	0.04914
0.12320	0.25320
0.17421	0.35523
0.12320	0.27871
0.14870	0.07465
0.19971	-0.25695
0.22521	0.17668
0.19971	0.15117
0.19971	0.45726
0.17421	0.32972
0.12320	0.10015
0.12320	-0.07840
0.09770	0.32972
0.07220	0.20219
0.09770	-0.33348
0.12320	-0.02739
0.09770	-0.00188
0.14870	0.50828
0.12320	0.58480
0.12320	0.50828
0.12320	0.35523
0.19971	0.12566
0.22521	-0.25695
0.19971	0.15117
0.22521	-0.00188
0.22521	0.15117
0.14870	-0.69059
0.09770	0.04914
0.14870	0.35523
0.07220	0.35523
0.02119	0.38074
0.12320	0.22769
0.04670	0.20219
0.17421	0.20219
0.25071	0.25320
0.22521	0.20219
0.25071	0.10015
0.12320	-0.00188
0.14870	-0.00188
0.07220	0.15117
0.12320	0.25320
0.22521	0.15117
0.19971	0.20219
0.17421	0.17668
0.17421	0.10015
0.17421	0.25320
0.17421	0.10015
0.09770	0.12566
0.07220	0.22769
0.04670	0.10015
0.04670	0.15117
0.14870	0.20219
0.14870	0.12566
0.14870	0.15117
0.22521	0.17668
0.22521	0.20219
0.19971	0.53379
0.14870	0.50828
0.14870	0.02363
0.12320	-0.84363
0.09770	-0.25695
0.02119	0.40625
0.07220	0.50828
0.12320	0.50828
0.17421	0.48277
0.22521	-0.00188
0.22521	0.22769
0.27621	-0.20594
0.12320	0.25320
0.12320	0.53379
0.04670	0.32972
0.07220	0.17668
0.07220	-0.53754
0.14870	0.04914
0.12320	0.25320
0.27621	0.35523
0.22521	0.27871
0.22521	0.25320
0.19971	-0.02739
0.19971	0.10015
0.14870	0.25320
0.12320	-0.05289
0.09770	0.12566
0.09770	0.22769
0.12320	0.22769
0.17421	0.22769
0.09770	0.12566
0.12320	0.10015
0.14870	0.20219
0.19971	0.10015
0.19971	0.15117
0.17421	0.10015
0.22521	0.22769
0.25071	0.35523
0.22521	0.35523
0.22521	0.38074
0.17421	0.17668
0.19971	0.15117
0.17421	0.04914
0.07220	0.07465
0.07220	0.07465
0.12320	-0.05289
0.17421	0.15117
0.25071	0.20219
0.22521	0.30422
0.25071	0.32972
0.17421	-0.41000
0.14870	0.15117
0.07220	0.27871
0.07220	0.07465
0.12320	0.25320
0.14870	-0.43551
0.14870	-0.05289
0.14870	0.17668
0.17421	0.61031
0.14870	0.22769
0.25071	0.20219
0.14870	0.25320
0.12320	0.38074
0.12320	0.50828
0.07220	0.22769
0.17421	0.07465
0.12320	0.02363
0.12320	-0.07840
0.17421	-0.00188
0.14870	-0.02739
0.19971	0.07465
0.19971	0.04914
0.22521	0.12566
0.12320	0.25320
0.04670	0.12566
0.07220	0.17668
0.14870	0.25320
0.17421	0.25320
0.22521	0.22769
0.17421	0.20219
0.07220	0.15117
0.09770	0.10015
0.14870	0.15117
0.14870	0.12566
0.17421	0.10015
0.12320	0.15117
0.12320	0.17668
0.14870	-0.02739
0.17421	0.15117
0.22521	0.22769
0.17421	0.07465
0.07220	0.22769
0.07220	0.15117
0.12320	0.12566
0.17421	0.17668
0.19971	0.10015
0.14870	0.15117
0.04670	0.10015
0.09770	0.22769
0.19971	-0.00188
0.19971	0.20219
0.17421	0.30422
0.12320	0.20219
0.14870	0.22769
0.07220	-0.00188
0.07220	0.12566
0.17421	-0.00188
0.19971	0.22769
0.22521	0.20219
0.19971	0.43176
0.19971	0.07465
0.12320	0.20219
0.07220	-0.05289
0.04670	0.32972
0.04670	-0.48652
0.12320	0.10015
0.17421	0.17668
0.17421	0.10015
0.14870	0.27871
0.19971	-0.25695
0.17421	0.43176
0.25071	0.55929
0.22521	-0.02739
0.19971	0.15117
0.14870	0.17668
0.22521	0.43176
0.22521	0.10015
0.14870	0.25320
0.14870	0.91640
0.22521	-0.05289
0.12320	0.17668
0.12320	-1.27726
0.09770	-1.30277
0.04670	1.35003
-0.00431	2.01323
0.04670	0.45726
0.14870	-1.22625
0.04670	-1.81293
0.27621	0.02363
0.30171	2.85499
0.30171	1.27351
0.17421	-0.79262
0.25071	0.25320
0.35272	-0.79262
0.19971	1.47757
0.25071	0.76336
-0.13181	0.73785
-0.64185	-2.22105
-0.79486	-1.48133
0.37822	-0.05289
0.91375	0.38074
1.06676	1.63062
-0.00431	-0.84363
-0.61635	-0.25695
-0.10631	-2.29757
-0.00431	3.00804
0.35272	2.03874
1.14327	4.02835
1.04126	-1.78742
0.88825	-1.30277
0.32721	3.79878
-0.89686	-3.24136
-1.12638	-4.66979
0.22521	-1.09871
0.17421	2.14077
-0.18282	3.54370
0.53123	-1.63437
0.12320	2.03874
0.19971	0.86539
0.37822	-3.26687
0.70974	1.27351
-0.20832	0.38074
-0.53984	1.42656
-1.76392	-1.17523
-0.59084	2.59991
1.44929	-0.89465
1.55129	-4.46573
0.83725	-2.78222
0.19971	2.65093
0.63323	5.53330
-0.36133	-1.48133
-0.66735	1.60511
1.04126	0.20219
1.29628	3.08456
1.01576	0.38074
0.04670	-3.24136
-1.53441	-1.50683
-1.25389	1.37554
0.12320	-0.89465
-0.66735	-1.20074
-0.69285	-0.07840
0.63323	-0.53754
1.62780	3.00804
1.19427	1.17148
0.27621	1.45206
0.19971	0.04914
0.30171	2.34484
-0.53984	-2.90976
-2.12094	-2.78222
-0.92237	0.38074
0.96476	1.19699
1.70430	1.86019
1.27078	0.89089
1.04126	-3.01179
0.73524	2.44687
0.09770	1.06945
-0.18282	0.55929
0.37822	1.45206
-0.08081	0.40625
0.42922	-1.63437
-0.36133	-0.41000
-1.84042	1.78367
-1.99343	-3.49644
-1.30489	-0.23145
0.45472	-1.27726
1.57679	-1.50683
2.31634	1.96222
1.55129	2.90601
0.42922	-1.09871
0.32721	2.16628
0.14870	-1.73640
0.32721	-0.76711
0.02119	1.24800
-0.08081	1.63062
-0.13181	0.02363
-0.31033	-2.11902
-0.51434	1.55410
-0.23382	1.42656
-0.56534	-0.30797
-0.15732	1.65613
-0.10631	-0.92016
0.53123	-1.17523
0.96476	0.43176
0.65874	1.01843
0.19971	-1.27726
-0.23382	0.35523
0.02119	0.07465
0.73524	1.06945
0.91375	-1.09871
0.30171	-0.89465
-0.87136	-2.68019
-0.59084	1.17148
0.40372	3.23761
0.45472	1.52859
0.27621	-0.66508
0.22521	-2.62918
-0.15732	0.78886
0.27621	0.96742
0.53123	1.22250
-0.20832	1.17148
0.40372	-0.51203
0.07220	-0.56305
-0.28482	0.04914
0.22521	1.14597
0.07220	-0.71609
0.25071	0.48277
0.53123	0.50828
0.12320	-0.25695
-0.76936	-0.05289
-0.97337	-0.02739
-0.08081	0.27871
0.37822	0.48277
0.45472	0.17668
0.53123	-0.46102
0.65874	-0.18043
0.88825	0.50828
0.53123	0.91640
0.19971	0.83988
-0.05531	0.35523
-0.02981	0.07465
0.22521	-0.18043
0.32721	-2.96078
0.02119	1.09496
0.04670	1.96222
0.12320	0.07465
-0.13181	-0.99668
0.32721	0.83988
0.53123	-0.81812
0.19971	-0.25695
-0.59084	2.03874
-3.21751	-0.10391
-0.64185	-2.29757
1.34728	1.63062
2.11233	0.04914
2.08683	0.55929
1.01576	-1.04770
-0.15732	0.83988
-0.48884	0.55929
0.32721	0.02363
0.55673	-0.30797
0.35272	-0.53754
0.02119	-0.74160
-0.25932	1.27351
-0.20832	-0.25695
-0.23382	0.45726
-0.38683	-0.05289
-0.15732	0.45726
0.14870	0.76336
0.19971	0.55929
0.17421	0.25320
0.22521	-0.28246
0.42922	1.09496
0.68424	1.52859
0.81175	0.07465
0.70974	-4.51675
0.30171	2.72745
-0.31033	1.78367
-0.41233	-1.04770
0.42922	-0.07840
0.58223	2.21730
0.42922	-2.09351
-0.51434	-0.51203
-0.10631	1.78367
0.02119	1.06945
0.09770	-1.12422
0.37822	0.10015
-0.08081	0.73785
0.35272	-0.43551
0.50573	-0.35899
0.40372	1.06945
0.22521	-0.69059
0.22521	-0.05289
-0.28482	-0.51203
-0.20832	0.53379
-0.10631	-0.38449
-0.05531	1.14597
-0.25932	-0.15492
0.37822	1.04394
0.68424	1.06945
0.30171	-0.10391
-0.51434	-0.43551
-0.51434	-1.78742
0.35272	0.15117
0.32721	1.78367
0.40372	0.81437
0.19971	-1.86394
0.12320	0.94191
0.32721	-2.14453
0.22521	1.88570
0.30171	1.01843
0.14870	-1.35379
0.09770	1.88570
0.17421	-1.30277
-0.10631	0.78886
0.02119	0.91640
-0.00431	0.25320
-0.23382	0.96742
-0.10631	-0.25695
0.04670	-0.81812
0.25071	-1.09871
0.50573	0.38074
-0.15732	0.35523
0.45472	0.20219
0.93925	0.04914
0.50573	0.91640
-0.05531	0.30422
-0.38683	-2.73121
-0.05531	-1.48133
0.45472	2.19179
0.53123	0.86539
-0.00431	-0.00188
-0.10631	1.57960
-0.20832	0.71234
0.27621	-1.48133
0.30171	0.50828
0.17421	-0.58856
0.22521	0.83988
-0.53984	-0.30797
0.04670	-0.28246
0.25071	4.02835
0.48022	-1.50683
0.48022	-2.85874
-0.13181	0.83988
-0.48884	-0.18043
-0.05531	0.12566
0.55673	0.38074
0.53123	1.93671
0.60773	-0.43551
0.55673	0.38074
0.53123	-0.71609
0.45472	-0.61406
-0.13181	1.57960
-0.59084	0.86539
-0.20832	2.21730
-0.00431	-0.56305
-0.02981	-2.88425
0.25071	-1.37929
0.42922	-0.94566
0.45472	2.39585
-0.02981	0.15117
-0.18282	1.09496
-0.18282	0.68683
0.53123	0.35523
0.22521	-0.12942
0.27621	0.61031
0.22521	-1.30277
0.17421	-0.20594
-0.00431	0.30422
0.12320	0.35523
-0.00431	0.61031
0.02119	0.73785
0.14870	-2.27207
0.58223	0.53379
0.58223	-0.51203
0.53123	0.63582
0.19971	1.35003
-0.25932	-0.02739
-0.13181	1.32453
-0.79486	-2.24656
0.12320	-0.66508
0.12320	0.68683
0.58223	0.99292
0.73524	2.24281
0.55673	-0.89465
0.68424	-0.58856
0.32721	1.91120
-0.00431	-1.55785
-0.84586	-1.58336
-0.99887	1.75816
0.35272	0.48277
0.60773	-1.14973
0.63323	0.96742
0.09770	-0.46102
0.14870	0.12566
0.35272	0.78886
0.27621	-0.66508
0.30171	-0.86914
-0.10631	0.35523
-0.25932	2.21730
-0.05531	-0.99668
0.12320	1.12046
0.35272	0.15117
0.32721	-0.56305
0.32721	0.15117
-0.28482	-0.74160
0.22521	0.04914
-0.18282	0.81437
-0.05531	-3.13933
0.17421	1.01843
0.40372	1.45206
0.78624	1.12046
-0.13181	0.61031
-0.18282	0.43176
0.40372	1.42656
0.70974	-0.33348
0.40372	1.80917
-0.00431	-0.92016
-0.31033	-4.97589
0.14870	1.14597
0.07220	-0.00188
0.42922	1.98773
0.53123	0.66132
0.32721	1.73265
-0.33583	-0.71609
-0.33583	0.58480
0.09770	-0.02739
0.25071	0.63582
0.37822	0.15117
0.42922	-1.12422
0.17421	-0.10391
-0.08081	-0.53754
-0.13181	1.50308
0.19971	-0.30797
0.35272	-0.94566
0.37822	1.60511
0.04670	-1.63437
0.27621	0.02363
-0.08081	1.01843
0.14870	1.12046
0.40372	2.52339
0.40372	-1.78742
0.63323	0.83988
0.48022	1.42656
0.07220	-0.35899
-0.28482	-0.58856
-0.53984	0.78886
-0.15732	1.09496
0.58223	-0.23145
0.17421	0.04914
-0.10631	0.15117
0.35272	-1.53234
0.37822	-0.61406
-0.02981	1.06945
0.40372	0.89089
0.48022	-0.15492
0.17421	0.76336
-0.46334	0.99292
-0.36133	-0.20594
0.55673	-0.58856
0.53123	1.01843
0.50573	0.89089
0.22521	-0.92016
-0.05531	0.55929
-0.05531	0.22769
0.04670	-1.48133
0.22521	0.96742
0.02119	1.88570
-0.20832	-1.14973
0.07220	0.27871
0.12320	1.14597
0.48022	-1.14973
0.45472	0.61031
0.22521	-0.41000
0.14870	-0.63957
-0.13181	-0.43551
0.25071	1.09496
0.30171	0.83988
0.12320	0.45726
0.35272	0.17668
0.58223	-2.14453
0.32721	0.45726
-0.13181	0.78886
-0.31033	0.02363
-0.13181	1.24800
0.07220	1.01843
0.32721	-0.15492
0.22521	0.40625
0.19971	-2.09351
-0.18282	0.07465
0.30171	0.02363
0.07220	1.19699
0.40372	1.57960
0.25071	-1.50683
0.12320	1.83468
0.14870	-0.99668
-0.28482	-0.66508
-0.08081	-0.28246
-0.05531	0.38074
0.58223	-0.46102
0.50573	0.45726
0.70974	0.15117
0.30171	0.20219
-0.56534	1.57960
-0.82036	0.63582
0.12320	-0.10391
0.68424	1.17148
0.50573	0.40625
0.12320	-0.30797
-0.05531	-0.61406
0.30171	0.22769
0.76074	-0.58856
0.48022	0.99292
0.12320	0.32972
0.02119	-1.43031
0.07220	1.65613
0.30171	0.35523
0.02119	-3.21585
-0.31033	-0.15492
-0.28482	2.49788
0.17421	-1.12422
0.09770	-1.48133
0.09770	0.99292
0.17421	0.78886
0.07220	0.58480
-0.00431	0.48277
0.50573	0.89089
0.32721	0.76336
0.42922	-0.81812
0.12320	1.78367
-0.05531	-2.47613
0.14870	-0.05289
0.02119	0.50828
0.42922	1.40105
0.37822	0.10015
-0.18282	-0.46102
-0.15732	0.43176
-0.33583	-0.23145
-0.38683	1.47757
0.40372	-1.58336
0.86275	-0.53754
0.70974	1.24800
1.01576	-0.05289
0.63323	-0.05289
0.25071	0.30422
-0.36133	0.91640
-0.33583	-1.20074
-0.00431	0.32972
0.32721	2.44687
0.19971	0.61031
0.07220	-1.22625
0.04670	-0.76711
-0.08081	0.04914
-0.15732	-0.66508
-0.08081	1.50308
-0.31033	-1.48133
0.19971	1.29902
0.68424	-0.12942
0.55673	1.42656
0.27621	1.57960
0.17421	-0.33348
0.35272	-1.27726
0.37822	0.25320
0.48022	-0.05289
0.45472	-1.43031
-0.15732	1.27351
-0.10631	-0.10391
0.12320	0.68683
-0.08081	1.01843
0.42922	1.47757
0.19971	0.35523
0.12320	1.09496
0.22521	-3.13933
0.07220	-0.33348
0.32721	-0.15492
-0.28482	0.96742
-0.61635	0.63582
-0.10631	0.17668
0.45472	0.76336
1.16877	-0.66508
1.01576	0.66132
0.09770	0.81437
-0.23382	0.30422
0.12320	-0.28246
0.07220	-0.38449
0.02119	-0.74160
-0.20832	0.45726
-0.28482	-0.61406
-0.18282	-0.07840
0.19971	0.15117
0.70974	1.37554
0.48022	2.29382
0.27621	0.02363
-0.00431	0.12566
-0.02981	-0.00188
0.22521	-0.53754
0.30171	0.10015
0.25071	0.45726
0.09770	0.86539
0.32721	1.06945
0.19971	-0.18043
0.17421	-0.94566
-0.13181	-1.20074
0.02119	-0.43551
-0.02981	0.91640
-0.10631	-0.25695
0.60773	1.06945
0.37822	1.40105
0.37822	1.29902
0.40372	-0.25695
0.42922	-0.00188
0.14870	-1.22625
-0.00431	0.10015
-0.00431	-1.17523
0.27621	2.54890
0.09770	-1.25176
0.02119	-0.15492
-0.94787	0.12566
-0.82036	0.35523
0.42922	0.17668
0.63323	0.22769
0.58223	0.58480
0.70974	0.35523
0.17421	0.96742
0.27621	0.83988
0.14870	-0.76711
0.02119	-2.19554
0.07220	0.55929
0.32721	1.73265
0.50573	-1.17523
0.35272	1.65613
0.14870	-0.35899
0.09770	1.63062
0.12320	-0.48652
-0.05531	-0.00188
-0.31033	0.17668
-0.36133	0.50828
0.19971	0.25320
0.37822	0.78886
0.42922	-2.73121
0.50573	0.40625
0.17421	1.60511
-0.25932	-0.51203
-0.15732	0.07465
0.25071	0.45726
0.58223	0.20219
0.60773	-0.18043
0.40372	0.04914
-0.18282	-0.38449
-0.18282	-0.76711
0.27621	1.37554
0.14870	-0.86914
0.27621	0.78886
-0.28482	0.35523
-0.41233	0.96742
-0.05531	0.91640
0.68424	0.43176
0.60773	-0.12942
0.35272	0.43176
0.07220	-0.20594
0.04670	-0.10391
0.09770	-0.05289
0.35272	-0.41000
0.27621	-0.30797
0.22521	-0.58856
0.02119	-0.02739
-0.53984	0.20219
-0.38683	-0.51203
-0.74385	0.66132
0.32721	2.06425
0.81175	-0.30797
0.73524	-0.79262
0.42922	-0.23145
0.30171	1.96222
0.60773	1.73265
0.12320	1.29902
-0.10631	-1.63437
0.09770	-0.35899
0.35272	0.73785
0.12320	-0.00188
-0.00431	0.99292
-0.05531	-0.69059
0.19971	-2.29757
-0.08081	1.88570
-0.23382	0.38074
0.40372	-0.23145
0.35272	-1.81293
0.22521	-0.25695
0.07220	1.91120
0.17421	-0.63957
0.65874	0.22769
0.42922	1.22250
0.12320	2.08976
-0.23382	0.58480
-0.92237	-2.11902
-0.56534	-0.12942
0.50573	0.99292
0.88825	0.76336
0.73524	-0.33348
0.53123	0.86539
0.48022	-0.81812
0.32721	-0.10391
-0.00431	-1.40480
0.04670	1.37554
-0.02981	-0.18043
-0.18282	0.10015
-0.00431	1.75816
-0.48884	-0.33348
-0.48884	-0.35899
-0.18282	0.58480
0.53123	0.15117
1.09226	0.45726
0.68424	-1.14973
0.32721	0.22769
-0.13181	1.06945
0.12320	1.29902
0.14870	-0.23145
0.22521	-1.20074
0.22521	0.12566
0.07220	0.35523
0.25071	-0.10391
0.02119	0.71234
0.07220	0.04914
0.32721	-0.56305
0.14870	0.20219
-0.36133	-0.43551
-0.61635	0.58480
0.40372	-0.00188
0.35272	-0.81812
0.25071	1.73265
0.35272	0.81437
0.68424	0.73785
0.68424	0.35523
-0.02981	-2.27207
-0.71835	0.50828
-0.76936	1.24800
0.12320	-0.56305
0.45472	-2.17003
0.86275	0.58480
0.27621	1.14597
0.30171	1.60511
0.35272	0.99292
0.50573	-1.27726
0.45472	0.50828
0.02119	-0.35899
-0.84586	0.25320
-0.84586	-0.41000
-0.15732	1.27351
0.48022	0.32972
0.78624	-0.56305
0.35272	-0.51203
0.58223	0.32972
0.37822	0.96742
-0.15732	-0.94566
0.02119	0.81437
0.09770	0.48277
0.17421	-0.12942
0.35272	-0.86914
0.45472	-0.33348
0.17421	0.15117
-0.31033	2.49788
-0.18282	1.17148
0.32721	-3.24136
0.40372	-1.73640
0.37822	3.00804
-0.18282	0.48277
-0.18282	-0.18043
-0.43783	0.50828
0.48022	0.45726
0.86275	1.29902
0.70974	0.91640
0.04670	-1.30277
-0.10631	0.76336
-0.13181	-0.15492
0.22521	0.04914
-0.05531	-0.07840
-0.00431	0.58480
0.09770	-2.06800
0.40372	1.22250
0.25071	-0.18043
0.07220	0.55929
0.09770	-1.20074
-0.10631	-0.00188
-0.08081	0.83988
0.04670	0.40625
0.04670	-0.25695
0.19971	0.55929
0.53123	0.66132
0.60773	0.12566
0.17421	0.61031
-0.38683	0.91640
-0.79486	-3.31788
-0.48884	1.32453
0.30171	1.35003
0.78624	-0.15492
0.58223	-1.20074
0.60773	1.17148
0.48022	0.40625
0.30171	0.22769
0.02119	-1.48133
0.07220	0.89089
0.04670	-0.43551
0.07220	0.38074
-0.00431	0.32972
-0.20832	0.66132
0.09770	0.55929
0.09770	-0.05289
0.04670	-0.00188
0.02119	-0.89465
-0.13181	0.76336
0.22521	2.37034
0.30171	-0.66508
0.32721	-0.86914
0.17421	-0.28246
0.25071	1.04394
0.32721	-0.20594
0.53123	0.99292
0.30171	0.43176
-0.13181	0.40625
-0.05531	0.71234
0.27621	-0.86914
0.37822	-0.07840
0.02119	-0.97117
0.09770	0.35523
0.19971	-0.89465
0.17421	0.68683
0.12320	0.50828
0.12320	0.76336
0.12320	1.78367
0.12320	0.15117
0.02119	-3.24136
-0.36133	0.55929
-0.10631	0.58480
0.58223	1.45206
0.37822	-0.58856
0.42922	0.04914
0.30171	-0.25695
0.42922	0.68683
0.14870	1.14597
-0.10631	-0.43551
0.02119	1.45206
0.14870	-0.12942
0.22521	0.76336
0.35272	-1.58336
0.27621	-1.14973
0.07220	0.17668
-0.10631	1.52859
0.02119	-0.41000
0.12320	0.66132
0.17421	-0.66508
-0.02981	-0.61406
0.25071	1.63062
0.48022	0.38074
0.32721	0.99292
0.19971	-1.12422
-0.20832	-0.12942
0.19971	0.76336
0.48022	0.25320
0.42922	-0.20594
-0.08081	0.55929
-0.18282	-0.61406
-0.15732	1.45206
-0.10631	-1.27726
0.02119	-1.37929
0.45472	0.10015
0.48022	2.29382
0.45472	0.55929
0.42922	0.30422
0.45472	1.14597
0.19971	-0.12942
-0.08081	-0.38449
-0.20832	0.48277
-0.18282	0.96742
0.35272	-0.38449
0.27621	-2.75671
-0.15732	-2.70570
-0.82036	-0.05289
0.02119	1.17148
0.50573	1.73265
0.53123	0.86539
0.83725	0.30422
0.60773	1.42656
0.37822	-0.10391
0.19971	0.43176
0.07220	0.73785
-0.20832	-0.53754
-0.05531	0.25320
0.17421	-0.79262
0.09770	-0.02739
-0.20832	0.50828
0.02119	-1.32828
0.25071	-0.10391
0.17421	-1.22625
0.50573	0.43176
0.32721	0.58480
-0.08081	1.01843
-0.05531	1.04394
0.14870	1.45206
0.32721	0.63582
0.35272	-1.73640
0.02119	-0.74160
-0.28482	1.24800
-0.13181	0.40625
0.37822	0.22769
0.22521	0.48277
0.27621	-1.50683
0.35272	1.75816
0.27621	-0.76711
0.42922	0.71234
0.17421	0.35523
0.17421	-0.02739
0.09770	0.86539
-0.05531	-1.40480
-0.18282	-0.12942
-0.15732	-0.10391
0.25071	1.83468
0.27621	-0.63957
-0.13181	-0.38449
-0.48884	-0.35899
-0.00431	0.43176
0.60773	-1.43031
0.68424	1.42656
0.40372	0.61031
0.45472	0.96742
0.30171	0.63582
-0.15732	-0.41000
-0.20832	0.45726
0.35272	0.15117
0.22521	-0.58856
0.07220	0.99292
0.07220	0.40625
-0.23382	-1.48133
-0.18282	-0.35899
-0.25932	-0.41000
0.37822	0.68683
0.50573	0.96742
0.70974	0.20219
0.55673	-0.66508
-0.10631	-0.00188
0.32721	0.91640
0.19971	1.06945
-0.05531	1.17148
-0.05531	0.15117
0.27621	-0.18043
0.19971	-0.33348
0.22521	-0.07840
0.19971	0.15117
0.12320	0.10015
-0.02981	-0.38449
-0.25932	0.61031
0.07220	0.40625
-0.23382	0.89089
0.04670	0.50828
0.42922	-0.76711
0.30171	-0.23145
0.02119	-0.35899
0.09770	1.47757
0.19971	-0.58856
0.40372	-1.22625
0.40372	0.04914
0.19971	2.26831
-0.20832	0.12566
0.35272	-0.69059
0.14870	-0.20594
0.30171	0.35523
0.58223	1.40105
0.12320	-1.65988
-0.23382	0.71234
-0.38683	1.04394
-0.23382	0.83988
0.63323	-0.33348
0.83725	-0.23145
0.48022	0.02363
-0.13181	0.55929
-0.51434	-0.61406
0.07220	1.29902
0.25071	0.25320
-0.13181	-0.51203
0.19971	1.52859
0.35272	-2.47613
0.42922	0.86539
0.50573	-0.28246
-0.02981	0.12566
0.02119	0.66132
0.04670	0.50828
-0.15732	1.32453
-0.10631	-2.14453
-0.02981	0.04914
0.35272	0.22769
0.07220	-0.00188
0.07220	0.89089
0.27621	-0.71609
0.19971	0.45726
0.32721	0.83988
0.53123	1.29902
0.25071	0.10015
0.37822	0.68683
0.12320	0.30422
-0.18282	-0.63957
-0.23382	-0.07840
-0.13181	-1.07320
0.07220	0.25320
0.27621	-0.48652
0.32721	1.42656
0.09770	-1.32828
-0.00431	-0.41000
0.02119	0.43176
0.35272	1.37554
0.27621	1.35003
0.35272	0.96742
-0.20832	0.78886
0.02119	-1.48133
0.30171	0.83988
0.55673	-0.35899
-0.08081	-0.46102
-0.13181	-0.15492
0.35272	0.02363
0.30171	1.04394
0.30171	0.12566
-0.05531	0.35523
0.22521	-0.05289
0.09770	1.50308
0.22521	0.15117
0.19971	-2.47613
0.17421	0.83988
-0.00431	0.50828
-0.13181	-0.00188
0.35272	0.89089
-0.25932	-0.76711
0.02119	-0.00188
0.04670	-0.43551
0.25071	1.70714
0.63323	0.32972
0.53123	0.02363
0.32721	-0.00188
0.37822	-0.07840
0.27621	-0.58856
-0.05531	0.40625
-0.38683	-0.41000
0.04670	0.68683
0.17421	0.27871
0.07220	0.68683
0.14870	0.12566
0.02119	-0.71609
0.17421	-0.18043
-0.00431	0.48277
-0.00431	0.99292
0.25071	0.17668
0.45472	0.45726
0.27621	-2.83324
0.02119	0.15117
-0.13181	0.76336
-0.08081	1.35003
0.58223	-0.84363
0.27621	0.35523
0.37822	0.50828
0.12320	-0.12942
-0.41233	-0.69059
-0.61635	0.86539
0.02119	0.17668
0.63323	-1.37929
0.78624	0.02363
0.53123	0.55929
0.14870	0.45726
0.02119	0.83988
-0.02981	0.89089
-0.28482	-0.94566
-0.10631	0.27871
0.14870	0.89089
0.12320	0.32972
0.35272	1.29902
0.12320	-1.60887
0.09770	0.27871
0.12320	1.09496
0.27621	-0.84363
0.50573	0.40625
0.63323	-0.94566
-0.08081	-1.20074
-0.25932	0.45726
-0.20832	0.71234
0.40372	1.78367
0.42922	-0.23145
0.48022	1.17148
0.04670	-0.81812
-0.28482	-0.35899
0.12320	1.27351
0.07220	-2.04250
0.25071	-1.53234
0.22521	1.17148
0.30171	0.78886
0.22521	1.45206
0.17421	1.70714
0.30171	-0.69059
0.07220	-1.14973
0.12320	0.04914
0.12320	-0.84363
-0.02981	-1.25176
0.17421	-0.02739
0.30171	1.22250
-0.00431	2.52339
0.02119	0.94191
0.22521	-0.48652
0.19971	0.99292
0.27621	-0.56305
0.30171	-0.69059
0.09770	-0.51203
-0.18282	-0.53754
0.22521	-0.35899
0.37822	1.17148
0.22521	-0.30797
0.19971	0.68683
-0.15732	0.07465
-0.33583	0.43176
-0.18282	0.96742
0.27621	0.55929
0.63323	-0.84363
0.73524	-2.42511
0.45472	0.55929
-0.18282	0.45726
-0.00431	1.70714
0.17421	-0.74160
0.14870	1.12046
0.09770	-0.18043
0.32721	-0.46102
0.22521	1.55410
0.02119	0.58480
-0.00431	-1.88945
-0.25932	0.61031
-0.23382	-0.71609
-0.31033	0.55929
0.04670	0.73785
0.27621	-0.25695
0.42922	1.32453
0.50573	0.91640
0.60773	-0.56305
0.48022	-0.56305
0.25071	-0.07840
-0.23382	0.07465
0.12320	-1.25176
0.17421	0.81437
-0.02981	0.73785
0.12320	0.91640
0.22521	1.19699
0.17421	-0.41000
-0.05531	-1.86394
-0.31033	1.75816
-0.02981	-0.23145
0.42922	-0.79262
0.50573	1.50308
0.53123	0.27871
0.40372	1.60511
0.19971	-0.69059
-0.13181	-0.38449
-0.18282	0.73785
-0.46334	-0.58856
-0.13181	0.63582
0.50573	-0.79262
0.55673	-0.63957
0.58223	1.06945
0.02119	1.06945
0.12320	1.19699
0.45472	-2.39961
0.12320	1.24800
0.12320	1.83468
0.02119	-2.34859
-0.28482	0.86539
-0.08081	1.96222
0.19971	-1.63437
0.35272	0.38074
0.22521	-0.30797
0.32721	0.71234
0.19971	0.78886
0.58223	-1.65988
0.42922	0.22769
0.17421	0.83988
-0.20832	-0.46102
-0.33583	-0.07840
0.09770	0.40625
0.09770	0.96742
0.14870	1.24800
0.53123	-0.07840
0.42922	-0.89465
0.14870	0.30422
0.22521	-0.07840
-0.15732	-1.12422
-0.38683	0.63582
-0.51434	0.02363
0.32721	1.57960
0.73524	2.26831
0.60773	-2.62918
0.27621	0.48277
0.25071	0.86539
0.19971	-0.51203
0.04670	0.58480
-0.00431	-0.20594
-0.00431	0.15117
0.19971	0.43176
0.14870	0.04914
0.07220	0.40625
0.14870	-0.18043
0.04670	-0.86914
-0.31033	0.83988
0.04670	0.38074
-0.10631	0.15117
0.35272	-0.30797
0.40372	-0.25695
0.53123	1.65613
0.76074	-0.18043
0.22521	-0.43551
0.22521	-0.58856
-0.02981	2.95702
-0.41233	-1.86394
-0.56534	0.99292
-0.31033	0.61031
0.60773	0.78886
0.55673	-0.33348
0.37822	0.04914
0.76074	-0.43551
0.42922	-0.38449
-0.00431	-1.53234
-0.10631	0.89089
0.22521	0.99292
-0.00431	0.45726
-0.02981	1.09496
0.07220	0.25320
0.14870	0.30422
-0.00431	-1.35379
-0.02981	0.30422
0.14870	0.30422
-0.00431	-0.51203
0.22521	0.53379
0.42922	1.86019
0.40372	-1.04770
0.40372	0.32972
-0.25932	-1.20074
-0.25932	0.63582
-0.51434	0.27871
0.19971	0.25320
0.55673	1.42656
0.88825	1.37554
0.70974	-1.37929
0.22521	-0.46102
-0.00431	0.17668
-0.13181	-0.63957
-0.00431	0.38074
0.25071	0.22769
0.07220	0.99292
0.14870	0.25320
0.02119	0.76336
-0.10631	-0.15492
-0.13181	0.53379
-0.10631	-0.00188
0.30171	0.22769
0.35272	-1.99148
0.48022	1.06945
0.58223	0.66132
-0.18282	-1.02219
-0.59084	0.96742
-0.82036	0.22769
0.27621	0.55929
0.83725	-0.76711
0.58223	0.83988
0.53123	1.04394
0.07220	0.40625
0.19971	0.10015
0.25071	0.02363
0.27621	-3.21585
0.19971	1.19699
0.30171	-0.12942
0.04670	0.71234
-0.28482	1.47757
-0.51434	-0.35899
-0.33583	-0.92016
-0.08081	1.14597
0.25071	-0.61406
0.48022	0.76336
0.42922	-0.15492
0.35272	0.99292
0.30171	1.47757
0.22521	0.73785
0.17421	0.27871
0.19971	-0.58856
0.19971	-1.88945
-0.00431	-0.53754
-0.25932	1.09496
0.19971	-0.35899
0.02119	1.01843
0.45472	0.66132
0.53123	0.76336
0.50573	-1.32828
0.07220	-0.69059
-0.13181	-0.10391
0.07220	-0.33348
0.12320	1.17148
-0.05531	0.55929
-0.20832	0.61031
-0.25932	0.76336
0.42922	-0.63957
0.35272	-0.35899
0.45472	0.73785
0.19971	0.86539
-0.13181	0.17668
0.48022	-0.89465
0.30171	-1.45582
0.30171	1.29902
0.73524	-0.10391
0.65874	0.27871
-0.05531	0.76336
-0.46334	0.35523
-1.12638	0.43176
-0.05531	-0.46102
0.37822	-1.48133
0.22521	0.61031
-0.18282	-0.23145
0.60773	1.37554
0.81175	-0.76711
0.37822	-0.92016
0.50573	1.52859
0.12320	0.22769
-0.05531	1.52859
-0.00431	-0.30797
0.07220	-0.61406
0.09770	0.94191
0.09770	-0.15492
-0.02981	-0.25695
0.09770	-0.99668
0.09770	-0.99668
0.17421	-0.20594
-0.46334	1.01843
-0.20832	0.07465
0.48022	-0.30797
0.37822	-0.18043
0.68424	2.16628
0.63323	0.89089
0.32721	-0.02739
0.14870	-2.90976
-0.13181	1.57960
-0.13181	1.04394
0.14870	-0.35899
0.60773	-0.66508
0.19971	0.10015
0.04670	0.25320
0.09770	-1.83844
-0.38683	1.06945
-0.23382	1.09496
0.19971	0.22769
0.58223	-0.18043
0.42922	-0.69059
0.02119	0.78886
-0.20832	0.27871
0.32721	0.58480
0.19971	0.35523
0.27621	-0.58856
0.19971	1.06945
0.19971	-0.53754
0.12320	0.25320
0.22521	1.35003
0.27621	-0.05289
0.50573	-1.40480
0.19971	0.38074
-0.10631	-1.07320
-0.13181	1.55410
-0.64185	1.04394
-0.20832	-0.84363
0.63323	1.29902
0.50573	-0.51203
0.76074	-0.79262
0.70974	-0.12942
0.58223	0.48277
0.07220	0.15117
-0.59084	0.89089
-0.41233	0.73785
0.22521	-0.35899
0.32721	-1.07320
0.42922	0.50828
0.19971	0.58480
0.17421	0.35523
0.14870	-0.48652
0.27621	0.68683
0.17421	1.04394
0.22521	0.25320
0.07220	-2.06800
-0.00431	1.06945
-0.92237	0.30422
0.17421	1.52859
0.42922	-2.42511
0.37822	0.27871
0.35272	0.35523
0.53123	-0.18043
0.27621	1.22250
0.07220	0.17668
-0.05531	0.58480
0.12320	1.47757
0.19971	-1.78742
0.40372	-0.15492
0.37822	0.78886
-0.00431	0.78886
-0.00431	0.20219
-0.08081	-1.02219
-0.00431	1.37554
0.35272	0.55929
0.30171	0.76336
-0.31033	-1.32828
-0.20832	-1.81293
-0.02981	1.45206
-0.28482	-1.30277
0.70974	0.53379
0.63323	0.61031
0.63323	1.09496
0.32721	0.43176
0.19971	0.61031
0.09770	-0.25695
0.12320	-0.10391
0.27621	0.07465
0.30171	-0.35899
0.09770	1.60511
-0.28482	-0.30797
-0.48884	0.40625
-0.36133	-1.30277
0.02119	0.55929
0.60773	0.25320
0.53123	-0.02739
0.32721	1.17148
0.17421	0.25320
0.17421	0.91640
0.32721	-0.74160
0.32721	0.32972
-0.00431	0.81437
-0.08081	-0.35899
-0.10631	0.53379
0.02119	-0.41000
0.27621	-3.16484
0.19971	-0.43551
0.45472	1.14597
0.32721	0.63582
0.07220	2.57441
0.30171	-0.12942
0.19971	0.48277
0.12320	-1.37929
-0.02981	1.55410
-0.15732	0.17668
-0.05531	0.48277
0.27621	0.17668
0.12320	-0.84363
0.17421	0.63582
0.19971	-0.94566
0.22521	0.68683
0.02119	-0.66508
-0.20832	0.32972
0.37822	0.38074
0.78624	1.17148
0.37822	0.17668
0.12320	0.15117
0.37822	-0.05289
0.19971	1.17148
0.30171	-1.25176
-0.51434	-1.32828
-0.20832	1.29902
-0.41233	-1.04770
0.50573	0.91640
0.63323	2.08976
0.50573	0.55929
0.07220	-0.00188
0.09770	0.20219
0.14870	0.10015
-0.38683	-0.23145
-0.13181	0.83988
0.22521	-0.48652
0.40372	-0.99668
0.42922	0.99292
0.50573	1.22250
0.50573	-0.94566
0.42922	-1.43031
0.19971	-0.30797
-0.13181	0.55929
-0.31033	1.70714
-0.31033	0.71234
-0.05531	-0.02739
0.30171	0.15117
0.25071	0.94191
0.04670	0.22769
0.22521	0.22769
0.17421	-1.43031
0.27621	0.66132
-0.23382	-0.66508
-0.31033	-0.25695
-0.13181	1.63062
0.42922	-0.35899
-0.02981	0.78886
-0.08081	0.20219
0.45472	0.66132
0.70974	0.17668
0.93925	-1.04770
0.53123	0.86539
0.04670	-0.81812
-0.08081	0.48277
-0.02981	1.06945
0.14870	-0.10391
0.07220	-1.20074
0.12320	0.38074
-0.02981	1.55410
-0.38683	0.81437
0.04670	-0.35899
0.50573	0.89089
0.60773	0.48277
0.50573	-1.27726
0.32721	-1.09871
-0.28482	1.01843
-0.36133	0.91640
-0.33583	0.30422
0.48022	1.91120
0.55673	-1.17523
0.30171	-1.17523
-0.00431	-1.02219
0.02119	0.96742
0.07220	-0.12942
-0.00431	0.45726
0.19971	1.17148
0.12320	-0.00188
-0.02981	0.78886
0.27621	-0.71609
0.25071	-1.22625
0.19971	0.45726
-0.05531	1.01843
-0.08081	0.73785
0.30171	0.68683
0.45472	2.01323
0.19971	-0.10391
0.12320	-1.76191
0.07220	0.48277
0.30171	1.17148
0.50573	-1.50683
0.35272	-0.25695
0.09770	1.22250
-0.08081	-0.66508
-0.25932	1.37554
-0.10631	-2.45062
-0.05531	0.48277
0.14870	1.57960
0.27621	0.61031
-0.33583	-0.46102
-0.61635	-0.46102
0.76074	0.20219
1.27078	-0.25695
0.99026	0.55929
0.32721	0.45726
-0.08081	-0.10391
-0.02981	0.71234
0.22521	-0.10391
0.02119	-0.10391
0.09770	0.86539
0.04670	0.07465
-0.43783	0.48277
-0.08081	-1.37929
0.12320	0.25320
0.30171	-0.05289
0.22521	1.04394
0.12320	1.42656
0.37822	-0.69059
0.50573	0.66132
0.14870	0.55929
-0.10631	-1.20074
-0.31033	-1.68539
0.32721	0.94191
0.40372	-0.81812
0.42922	1.65613
0.07220	1.91120
0.12320	0.22769
-0.02981	-1.68539
-0.10631	0.30422
0.09770	0.94191
0.32721	-0.76711
0.30171	-1.02219
0.19971	0.81437
-0.41233	1.19699
-0.59084	-0.35899
-0.05531	0.43176
0.30171	0.40625
0.53123	0.58480
0.42922	-0.18043
0.76074	0.32972
0.42922	-0.30797
0.35272	-0.30797
-0.15732	0.73785
-0.18282	-2.09351
-0.31033	0.55929
0.04670	1.32453
0.17421	1.19699
0.30171	1.55410
0.48022	-2.78222
0.32721	1.80917
0.19971	0.35523
0.25071	0.78886
0.25071	-0.48652
0.07220	0.81437
-0.36133	-1.12422
0.02119	0.48277
0.35272	0.15117
0.17421	-1.25176
0.30171	1.29902
-0.25932	-0.15492
-0.08081	-0.28246
0.50573	-0.28246
0.35272	0.89089
0.45472	1.14597
0.19971	0.61031
0.04670	-0.28246
0.07220	0.76336
0.04670	0.89089
0.12320	-3.77702
0.12320	0.63582
0.32721	1.57960
0.27621	0.12566
0.30171	1.22250
0.22521	-0.94566
0.02119	0.30422
0.04670	0.61031
-0.15732	0.96742
0.19971	-0.23145
0.25071	0.27871
0.27621	1.06945
0.04670	-2.42511
-0.08081	-0.61406
0.09770	1.01843
0.30171	1.04394
-0.00431	0.66132
0.40372	0.15117
0.32721	-0.63957
0.02119	-0.02739
-0.00431	0.53379
0.14870	0.73785
0.37822	-1.22625
0.32721	-1.45582
0.17421	1.04394
0.09770	1.35003
0.14870	-0.20594
0.22521	1.40105
0.04670	0.55929
-0.02981	0.76336
0.02119	-1.27726
0.17421	0.86539
0.30171	0.58480
0.07220	-0.30797
-0.05531	-0.18043
0.19971	1.09496
0.37822	-0.81812
0.12320	-0.10391
0.40372	-0.05289
0.12320	1.47757
-0.05531	-2.34859
0.14870	0.30422
0.53123	1.32453
0.14870	0.40625
0.17421	-0.61406
-0.00431	0.66132
-0.97337	-0.05289
-0.87136	1.27351
0.17421	0.15117
0.81175	0.50828
0.86275	-0.48652
0.91375	0.30422
0.65874	0.63582
0.32721	-0.12942
0.07220	-0.66508
-0.02981	-0.12942
-0.18282	0.83988
-0.13181	0.17668
-0.00431	0.27871
0.17421	-0.61406
0.04670	0.91640
-0.15732	0.20219
-0.23382	-1.99148
0.40372	0.25320
0.07220	0.76336
0.25071	0.76336
0.35272	2.49788
-0.00431	-1.99148
0.12320	-1.58336
0.19971	0.43176
-0.00431	0.68683
0.19971	1.45206
0.40372	0.78886
0.25071	0.04914
0.17421	-0.69059
0.22521	0.43176
0.12320	0.40625
-0.31033	-1.53234
-0.38683	-0.20594
-0.10631	1.80917
0.22521	0.40625
0.17421	-0.23145
0.30171	0.25320
0.37822	-0.51203
0.22521	-0.05289
0.17421	-0.18043
0.30171	0.25320
0.22521	-1.35379
0.30171	-0.07840
0.12320	1.78367
0.30171	1.04394
0.07220	0.10015
-0.41233	0.61031
-0.05531	-0.46102
0.22521	0.15117
0.32721	0.55929
0.37822	-0.43551
0.42922	-0.61406
0.27621	-0.46102
-0.25932	-0.23145
-0.20832	0.25320
0.22521	-0.02739
0.35272	1.45206
0.19971	1.47757
0.02119	-0.97117
0.19971	0.30422
0.45472	0.91640
0.27621	-1.40480
0.22521	1.37554
0.14870	0.96742
0.02119	0.07465
-0.00431	-0.46102
0.12320	0.73785
0.07220	-0.43551
0.58223	-0.28246
-0.05531	-0.20594
0.14870	-0.23145
-0.25932	-0.02739
-0.48884	0.10015
0.32721	-0.71609
0.93925	-0.86914
0.22521	1.32453
0.12320	0.96742
-0.15732	2.37034
-0.00431	-1.45582
0.37822	-0.20594
0.78624	0.78886
0.22521	0.22769
-0.05531	-0.48652
0.12320	-0.10391
-0.02981	0.12566
0.07220	1.12046
-0.00431	0.04914
0.02119	-1.17523
0.17421	1.12046
0.25071	1.06945
0.19971	0.48277
0.22521	0.38074
0.32721	-0.51203
0.27621	-1.78742
-0.18282	-0.84363
-0.59084	0.25320
0.14870	0.99292
0.86275	-1.40480
0.37822	1.83468
0.32721	1.75816
-0.02981	-0.58856
-0.20832	1.70714
0.04670	0.40625
0.55673	-0.92016
0.30171	-0.20594
0.40372	-0.15492
0.25071	0.68683
0.09770	1.19699
-0.08081	-0.61406
-0.15732	-0.46102
0.22521	0.20219
0.60773	0.07465
0.27621	-0.41000
-0.46334	0.45726
-1.22839	0.25320
-0.61635	0.63582
0.48022	-1.09871
0.55673	0.89089
0.73524	-0.56305
1.01576	-0.43551
0.55673	0.78886
0.04670	2.42136
0.14870	-0.38449
0.07220	-0.74160
-0.36133	1.19699
-0.13181	-0.51203
0.25071	-1.04770
0.22521	-1.43031
0.09770	-1.04770
0.14870	0.78886
0.42922	1.55410
0.30171	1.55410
-0.56534	-0.38449
-0.69285	1.09496
0.30171	-0.12942
0.48022	1.29902
0.17421	-3.31788
0.32721	2.37034
0.50573	-1.76191
0.32721	-0.00188
0.14870	0.22769
0.37822	0.78886
0.70974	0.45726
0.27621	0.50828
-0.08081	-0.25695
-0.31033	0.35523
-0.41233	0.86539
-0.18282	0.61031
0.50573	0.35523
0.19971	-0.41000
0.32721	-0.76711
0.68424	0.68683
0.48022	0.66132
0.14870	1.01843
-0.76936	-1.12422
-0.08081	0.07465
0.68424	-0.25695
0.58223	0.40625
0.37822	-1.48133
-0.61635	1.06945
-0.56534	0.17668
0.19971	0.40625
0.78624	1.80917
0.65874	-0.20594
0.37822	0.73785
0.02119	-1.20074
0.02119	0.73785
0.02119	-0.51203
0.07220	0.58480
-0.00431	-0.56305
0.02119	1.27351
0.19971	-2.09351
0.27621	0.83988
0.22521	-1.22625
0.19971	1.12046
0.02119	2.26831
0.09770	0.07465
0.32721	-1.60887
0.45472	-0.35899
-0.00431	0.96742
-0.18282	0.86539
-0.13181	-1.04770
-0.13181	1.22250
0.19971	0.76336
0.68424	-0.35899
0.65874	0.48277
0.07220	-0.51203
-0.38683	-1.81293
-0.53984	0.32972
0.12320	0.10015
0.86275	0.27871
0.63323	0.99292
0.07220	1.19699
0.07220	1.27351
-0.15732	-0.43551
-0.00431	-0.25695
0.22521	0.50828
0.32721	0.50828
0.22521	-0.28246
0.40372	-2.22105
0.25071	1.14597
-0.05531	0.27871
-0.20832	0.02363
-0.08081	1.29902
0.07220	-1.40480
-0.02981	1.04394
0.14870	0.25320
0.35272	-1.25176
0.37822	0.96742
0.07220	0.12566
0.40372	2.08976
0.19971	-0.35899
-0.00431	0.20219
0.09770	-1.04770
0.32721	0.20219
0.14870	0.07465
-0.10631	0.10015
0.37822	0.89089
0.35272	0.04914
0.45472	0.25320
0.02119	0.07465
-0.36133	-0.48652
0.30171	-0.46102
0.35272	-0.15492
0.22521	0.71234
0.35272	-0.12942
0.48022	1.40105
0.19971	2.26831
-0.36133	-1.14973
-0.64185	0.20219
-0.41233	-0.10391
0.14870	0.15117
0.53123	-0.05289
0.40372	-0.56305
0.35272	1.60511
0.27621	-0.69059
0.40372	-0.46102
0.45472	-0.10391
0.25071	-0.15492
-0.10631	0.73785
-0.48884	-0.20594
-0.41233	-0.79262
0.27621	0.10015
0.53123	0.78886
0.48022	0.27871
0.19971	-0.00188
0.12320	1.04394
0.07220	0.45726
0.04670	0.61031
0.50573	-0.41000
0.17421	0.83988
0.09770	-1.14973
-0.43783	0.02363
-0.13181	0.30422
0.09770	0.30422
0.63323	-1.20074
0.42922	0.50828
0.09770	1.01843
-0.00431	0.30422
0.32721	-0.07840
0.30171	0.15117
0.14870	1.27351
0.12320	-1.45582
-0.02981	1.04394
-0.20832	1.19699
-0.08081	-1.96597
0.25071	0.96742
0.30171	0.10015
0.48022	0.45726
0.19971	-0.30797
-0.48884	-0.30797
-0.79486	1.17148
-0.28482	0.30422
0.91375	-0.86914
1.14327	0.04914
0.76074	-0.69059
0.58223	2.16628
-0.00431	-0.02739
-0.10631	-0.05289
0.32721	0.20219
0.04670	1.01843
0.04670	-0.76711
-0.20832	0.20219
0.02119	0.86539
0.07220	-3.26687
0.17421	2.01323
0.19971	-1.50683
0.25071	-0.25695
0.22521	2.54890
0.27621	1.06945
0.12320	0.63582
0.02119	0.43176
-0.31033	-0.97117
