0.25071	-0.71609
0.22521	0.20219
0.17421	0.61031
0.14870	0.43176
0.04670	0.61031
0.07220	-0.00188
0.04670	-0.02739
0.14870	-0.66508
0.14870	0.15117
0.25071	0.55929
0.17421	0.43176
0.17421	0.32972
0.04670	-0.02739
0.04670	-0.00188
0.04670	0.04914
0.04670	-0.00188
0.12320	-0.05289
0.17421	-0.25695
0.14870	0.22769
0.17421	0.32972
0.25071	0.10015
0.22521	0.30422
0.12320	0.25320
0.12320	0.25320
0.12320	0.22769
0.09770	0.15117
0.12320	0.15117
0.12320	0.12566
0.25071	0.12566
0.25071	0.17668
0.25071	0.27871
0.14870	0.25320
0.12320	0.04914
0.14870	-0.02739
0.12320	0.10015
0.02119	0.17668
0.09770	-0.05289
0.14870	0.22769
0.17421	0.27871
0.27621	0.35523
0.14870	0.25320
0.12320	0.15117
0.12320	0.10015
0.12320	0.07465
0.04670	-0.07840
0.12320	0.12566
0.14870	0.27871
0.12320	-0.00188
0.14870	-0.23145
0.17421	0.48277
0.19971	0.10015
0.19971	0.45726
0.22521	0.20219
0.19971	-0.33348
0.17421	0.32972
0.12320	0.40625
0.07220	0.25320
0.14870	0.22769
0.17421	-0.12942
0.17421	0.10015
0.25071	-0.25695
0.14870	-0.25695
0.12320	0.35523
0.07220	0.27871
0.04670	0.27871
0.12320	0.27871
0.12320	0.27871
0.22521	0.25320
0.22521	0.30422
0.22521	0.04914
0.22521	0.12566
0.12320	0.04914
0.12320	0.12566
0.07220	0.10015
0.12320	0.07465
0.22521	-0.30797
0.22521	0.45726
0.17421	0.07465
0.09770	-0.02739
0.17421	-0.10391
0.25071	0.40625
0.12320	0.32972
0.09770	0.32972
0.12320	0.25320
0.09770	0.22769
0.12320	0.15117
0.19971	0.15117
0.17421	0.04914
0.09770	0.02363
0.12320	0.15117
0.17421	0.17668
0.22521	0.17668
0.17421	0.10015
0.12320	0.04914
0.14870	0.04914
0.07220	0.04914
0.09770	0.15117
0.09770	0.12566
0.09770	-0.02739
0.09770	0.32972
0.17421	0.58480
0.14870	0.12566
0.09770	-0.56305
0.14870	-0.63957
0.19971	0.61031
0.19971	0.78886
0.17421	0.50828
0.17421	0.15117
0.17421	0.35523
0.14870	0.30422
0.19971	0.17668
0.07220	0.15117
0.07220	0.07465
0.09770	0.02363
0.12320	0.04914
0.12320	0.10015
0.14870	0.12566
0.14870	0.15117
0.22521	0.15117
0.25071	0.20219
0.25071	0.32972
0.22521	0.22769
0.14870	0.15117
0.19971	-0.20594
0.17421	0.30422
0.12320	0.32972
0.12320	0.38074
0.12320	0.22769
0.14870	0.25320
0.14870	0.32972
0.12320	0.27871
0.07220	0.07465
0.09770	-0.86914
0.04670	0.07465
0.14870	0.30422
0.12320	0.32972
0.12320	0.20219
0.12320	-0.00188
0.17421	-0.15492
0.12320	0.25320
0.09770	0.20219
0.12320	0.07465
0.04670	0.04914
0.07220	0.10015
0.04670	0.17668
0.07220	0.25320
0.17421	0.04914
0.14870	-0.10391
0.07220	-0.71609
0.14870	0.15117
0.09770	0.27871
0.09770	0.32972
0.07220	0.38074
0.07220	0.30422
0.02119	0.15117
0.07220	0.12566
0.09770	0.07465
0.07220	0.12566
0.07220	0.07465
0.17421	0.17668
0.17421	0.17668
0.12320	0.04914
0.14870	-0.15492
0.17421	-0.20594
0.14870	0.32972
0.22521	0.45726
0.22521	0.22769
0.25071	0.22769
0.22521	0.07465
0.22521	0.30422
0.22521	0.53379
0.12320	0.61031
0.09770	-0.10391
0.04670	-0.46102
0.07220	-0.71609
0.07220	0.20219
0.12320	0.27871
0.12320	0.38074
0.09770	0.27871
0.17421	0.32972
0.17421	0.10015
0.14870	-0.00188
0.17421	0.32972
0.19971	0.27871
0.17421	0.15117
0.19971	0.20219
0.19971	0.10015
0.14870	0.12566
0.14870	0.07465
0.17421	0.12566
0.17421	0.04914
0.14870	0.04914
0.12320	0.04914
0.12320	0.07465
0.02119	0.04914
0.12320	0.07465
0.14870	0.15117
0.17421	0.17668
0.22521	0.12566
0.22521	0.25320
0.22521	0.58480
0.22521	-0.00188
0.22521	-0.30797
0.17421	0.35523
0.12320	0.30422
0.07220	0.12566
0.09770	-0.30797
0.09770	0.10015
0.09770	0.32972
0.14870	0.27871
0.12320	0.25320
0.09770	0.17668
0.14870	0.10015
0.12320	0.12566
0.12320	0.12566
0.19971	0.15117
0.19971	0.17668
0.22521	0.15117
0.17421	0.15117
0.19971	0.15117
0.19971	0.15117
0.12320	0.10015
0.09770	0.20219
0.09770	0.17668
0.04670	0.07465
0.02119	0.07465
0.04670	0.07465
0.09770	0.20219
0.12320	0.17668
0.12320	0.15117
0.14870	0.12566
0.22521	0.17668
0.22521	0.22769
0.22521	0.12566
0.12320	0.04914
0.12320	0.04914
0.04670	0.25320
0.12320	0.38074
0.12320	-0.02739
0.25071	0.15117
0.17421	-0.07840
0.17421	0.17668
0.04670	-0.56305
0.12320	0.43176
0.12320	0.43176
0.14870	0.15117
0.22521	0.35523
0.17421	0.25320
0.17421	0.22769
0.09770	0.12566
0.12320	0.17668
0.09770	0.12566
0.09770	-0.05289
0.12320	-0.15492
0.17421	0.20219
0.12320	0.15117
0.09770	0.15117
0.07220	0.50828
0.14870	0.17668
0.27621	0.25320
0.25071	-0.66508
0.14870	0.20219
0.12320	0.38074
0.07220	0.32972
0.07220	0.07465
0.12320	0.25320
0.14870	-0.46102
0.12320	0.27871
0.19971	0.27871
0.22521	0.66132
0.22521	-0.33348
0.12320	0.25320
0.17421	0.38074
0.14870	0.27871
0.12320	0.17668
0.07220	0.12566
0.07220	0.02363
0.09770	0.04914
0.12320	0.12566
0.09770	0.12566
0.14870	0.10015
0.17421	0.15117
0.14870	0.25320
0.14870	0.17668
0.19971	0.15117
0.19971	-0.15492
0.22521	0.30422
0.14870	0.27871
0.07220	0.27871
0.12320	0.20219
0.17421	0.12566
0.14870	0.17668
0.19971	0.30422
0.19971	0.50828
0.12320	-0.23145
0.17421	-0.00188
0.14870	0.02363
0.07220	0.30422
0.17421	0.53379
0.14870	0.30422
0.22521	-0.35899
0.17421	-0.51203
0.09770	0.27871
0.17421	0.22769
0.04670	0.58480
0.14870	0.25320
0.14870	-0.10391
0.22521	0.32972
0.07220	0.20219
0.09770	0.27871
0.12320	-0.15492
0.14870	0.35523
0.19971	0.25320
0.17421	0.10015
0.04670	-0.18043
0.04670	0.07465
0.12320	0.17668
0.14870	0.07465
0.22521	0.12566
0.17421	0.07465
0.14870	0.15117
0.09770	0.20219
0.12320	0.25320
0.14870	0.22769
0.19971	0.25320
0.12320	0.10015
0.12320	0.20219
0.14870	0.17668
0.09770	0.22769
0.17421	0.27871
0.19971	0.10015
0.12320	-0.41000
0.07220	0.15117
0.14870	0.17668
0.19971	0.40625
0.19971	-0.23145
0.14870	0.45726
0.09770	0.12566
0.17421	0.45726
0.25071	0.22769
0.14870	0.22769
0.09770	0.12566
0.07220	0.17668
0.22521	0.07465
0.14870	-0.56305
0.04670	-0.02739
0.14870	0.48277
0.22521	-0.05289
0.17421	0.22769
0.09770	0.32972
0.19971	0.35523
0.19971	0.35523
0.12320	0.12566
0.07220	0.07465
0.14870	0.04914
0.19971	0.04914
0.14870	0.15117
0.07220	0.10015
0.09770	0.25320
0.17421	0.27871
0.14870	0.22769
0.25071	-0.51203
0.12320	0.20219
0.09770	-0.00188
0.04670	0.43176
0.07220	0.30422
0.12320	0.20219
0.12320	-0.33348
0.14870	0.27871
0.22521	0.32972
0.19971	0.38074
0.25071	0.30422
0.19971	0.25320
0.14870	-0.56305
0.12320	0.53379
0.12320	0.15117
0.12320	0.10015
0.12320	-0.46102
0.07220	0.43176
0.14870	0.40625
0.14870	0.25320
0.17421	0.02363
0.25071	0.25320
0.22521	0.25320
0.14870	0.10015
0.12320	-0.05289
0.12320	0.10015
0.09770	0.25320
0.12320	0.27871
0.14870	-0.15492
0.27621	0.17668
0.14870	0.20219
0.12320	0.12566
0.12320	-0.20594
0.14870	0.48277
0.12320	0.35523
0.09770	0.40625
0.09770	0.02363
0.07220	0.32972
0.14870	-0.58856
0.14870	0.43176
0.17421	-0.48652
0.12320	0.22769
0.14870	0.40625
0.17421	0.38074
0.12320	0.25320
0.12320	0.17668
0.09770	0.25320
0.14870	-0.12942
0.19971	-0.15492
0.27621	-0.10391
0.14870	0.30422
0.12320	0.22769
0.12320	0.20219
0.04670	0.15117
0.04670	0.10015
0.12320	-0.00188
0.09770	0.10015
0.12320	0.07465
0.19971	0.22769
0.14870	0.20219
0.22521	0.22769
0.22521	0.27871
0.12320	0.12566
0.04670	0.12566
0.07220	0.15117
0.09770	0.15117
0.12320	0.12566
0.22521	0.35523
0.25071	0.15117
0.14870	0.10015
0.17421	0.25320
0.07220	-0.46102
0.07220	0.07465
0.04670	-0.58856
0.14870	0.48277
0.12320	0.63582
0.07220	0.58480
0.17421	0.45726
0.22521	0.43176
0.22521	0.17668
0.22521	0.02363
0.12320	-0.38449
0.12320	0.12566
0.07220	0.38074
0.07220	0.12566
0.14870	0.10015
0.14870	-0.46102
0.17421	0.35523
0.25071	0.30422
0.14870	-0.00188
0.12320	0.30422
0.12320	0.35523
0.12320	0.20219
0.12320	0.20219
0.12320	0.15117
0.09770	0.07465
0.12320	0.15117
0.14870	0.20219
0.17421	0.15117
0.17421	-0.15492
0.14870	0.40625
0.12320	0.20219
0.22521	0.15117
0.12320	0.25320
0.12320	0.12566
0.14870	-0.10391
0.12320	-0.61406
0.14870	0.66132
0.14870	0.73785
0.25071	0.12566
0.22521	-0.23145
0.14870	-0.51203
0.14870	0.35523
0.09770	0.53379
0.07220	0.30422
0.12320	0.20219
0.14870	0.20219
0.17421	0.15117
0.25071	0.15117
0.22521	0.27871
0.19971	0.02363
0.19971	-0.46102
0.12320	-0.33348
0.09770	0.22769
0.04670	0.38074
0.14870	0.22769
0.17421	0.45726
0.14870	0.17668
0.25071	0.30422
0.22521	0.27871
0.12320	0.15117
0.12320	0.04914
0.07220	-0.15492
0.12320	0.10015
0.12320	0.25320
0.22521	0.20219
0.12320	0.17668
0.09770	0.12566
0.19971	0.20219
0.17421	0.22769
0.25071	0.15117
0.14870	0.10015
0.09770	0.10015
0.12320	0.15117
0.07220	0.10015
0.12320	0.22769
0.09770	0.15117
0.14870	0.04914
0.14870	-0.58856
0.22521	0.30422
0.19971	0.40625
0.14870	0.45726
0.12320	0.27871
0.09770	0.10015
0.07220	-0.23145
0.07220	0.17668
0.14870	0.07465
0.17421	0.50828
0.14870	0.50828
0.17421	0.02363
0.09770	-1.07320
0.14870	0.40625
0.04670	0.25320
0.07220	0.25320
0.07220	0.35523
0.07220	0.27871
0.09770	0.04914
0.12320	0.07465
0.12320	0.15117
0.17421	0.10015
0.17421	0.15117
0.07220	0.12566
0.14870	0.07465
0.14870	0.15117
0.19971	0.07465
0.19971	0.10015
0.22521	0.17668
0.22521	0.35523
0.19971	0.38074
0.22521	-0.07840
0.19971	0.22769
0.12320	0.45726
0.12320	0.25320
0.09770	0.15117
0.12320	0.02363
0.17421	0.10015
0.14870	0.35523
0.07220	0.22769
0.12320	0.10015
0.14870	0.12566
0.09770	0.12566
0.07220	-0.05289
0.04670	-0.05289
0.07220	0.04914
0.04670	0.22769
0.12320	-0.10391
0.09770	-0.12942
0.17421	-0.02739
0.17421	0.45726
0.19971	0.45726
0.12320	0.32972
0.12320	-0.15492
0.12320	-0.41000
0.12320	0.38074
0.12320	0.43176
0.19971	0.25320
0.22521	0.27871
0.22521	0.25320
0.17421	0.25320
0.17421	0.25320
0.17421	0.07465
0.09770	0.10015
0.04670	-0.05289
0.07220	-0.05289
0.07220	0.02363
0.12320	-0.00188
0.07220	0.10015
0.09770	0.10015
0.09770	0.22769
0.07220	0.35523
0.07220	0.32972
0.07220	-0.63957
0.09770	-0.63957
0.12320	0.02363
0.07220	0.32972
0.07220	0.43176
0.07220	0.48277
0.07220	0.43176
0.09770	0.35523
0.17421	0.15117
0.07220	-0.02739
0.17421	-0.10391
0.09770	-0.00188
0.04670	-0.00188
0.12320	-0.02739
0.19971	0.04914
0.22521	0.20219
0.12320	0.15117
0.14870	0.30422
0.17421	0.12566
0.12320	0.15117
0.04670	-0.07840
0.07220	-0.00188
0.07220	0.45726
0.12320	0.22769
0.14870	0.32972
0.17421	-0.25695
0.14870	0.43176
0.22521	0.45726
0.22521	0.43176
0.14870	0.22769
0.22521	0.25320
0.22521	0.22769
0.17421	0.35523
0.19971	-0.38449
0.22521	0.10015
0.22521	0.07465
0.17421	0.12566
0.17421	0.17668
0.17421	0.07465
0.19971	-0.02739
0.12320	0.12566
0.14870	-0.00188
0.12320	0.20219
0.14870	0.22769
0.12320	0.10015
0.17421	-0.10391
0.17421	0.20219
0.25071	0.25320
0.19971	-0.43551
0.14870	0.12566
0.17421	0.48277
0.14870	0.40625
0.19971	0.30422
0.14870	0.15117
0.14870	0.10015
0.17421	0.04914
0.17421	-0.02739
0.17421	0.02363
0.14870	-0.07840
0.09770	-0.05289
0.12320	0.02363
0.12320	0.27871
0.09770	0.20219
0.12320	0.27871
0.14870	-0.71609
0.09770	-0.25695
0.19971	-0.20594
0.17421	0.68683
0.17421	0.91640
0.14870	0.55929
0.04670	-0.38449
0.09770	-1.65988
-0.08081	0.15117
-0.05531	1.06945
-0.00431	0.73785
0.04670	2.52339
0.30171	0.20219
0.22521	-1.81293
-0.20832	-1.30277
-0.18282	1.06945
0.09770	-1.17523
0.65874	1.42656
0.58223	2.52339
0.42922	0.81437
0.32721	1.29902
-0.08081	-2.80773
-0.05531	-3.31788
-0.20832	1.45206
-0.05531	-2.19554
0.35272	1.52859
0.12320	3.11007
0.02119	3.23761
0.27621	-3.39441
0.25071	1.88570
0.40372	0.96742
0.25071	1.45206
0.40372	-1.81293
-0.15732	-3.44542
-0.31033	0.25320
-0.56534	0.86539
0.30171	2.88050
0.42922	-2.55265
0.19971	3.67124
0.73524	-0.71609
0.02119	1.27351
0.40372	0.12566
0.22521	-2.09351
0.02119	-1.48133
0.48022	0.40625
0.02119	1.78367
0.37822	1.68163
-0.25932	-3.64948
-0.66735	-3.36890
-1.38139	0.66132
0.22521	2.21730
1.65330	2.34484
1.19427	1.73265
0.25071	-0.20594
-0.69285	-0.33348
-0.51434	1.04394
1.11776	-0.33348
1.21977	-2.29757
0.19971	-0.20594
-0.99887	0.48277
-1.45790	2.52339
-0.59084	1.50308
0.07220	-0.86914
0.53123	-0.56305
2.21434	-2.06800
1.55129	2.16628
-0.13181	-2.75671
-0.59084	0.81437
-0.08081	1.01843
0.40372	1.63062
0.70974	1.40105
0.63323	0.58480
-0.20832	-1.17523
-1.12638	0.43176
-0.13181	1.70714
0.48022	-0.35899
0.22521	-0.07840
-0.59084	-0.30797
-1.91693	-0.25695
-1.12638	-0.56305
-0.00431	-4.51675
1.78081	0.45726
1.95932	1.98773
1.39828	2.29382
0.35272	1.57960
0.86275	1.52859
0.45472	-0.48652
-0.18282	-0.89465
0.22521	1.47757
-0.74385	-0.25695
-1.20288	0.68683
-1.20288	-1.76191
-0.94787	0.83988
0.37822	0.27871
0.68424	-1.63437
1.09226	-1.17523
0.86275	1.57960
0.83725	0.94191
0.50573	0.38074
0.12320	2.77847
0.19971	-1.63437
0.17421	0.32972
0.09770	-2.11902
-0.74385	0.30422
-0.64185	0.50828
-0.48884	0.48277
0.22521	-1.65988
-0.18282	-0.23145
-0.23382	0.66132
0.37822	1.14597
0.91375	1.55410
0.86275	0.91640
0.93925	0.58480
0.78624	-0.25695
0.86275	-2.24656
0.30171	-0.38449
0.12320	-0.18043
-1.35589	0.76336
-2.09544	1.63062
-0.59084	-1.30277
0.81175	-0.46102
1.16877	-0.84363
1.21977	-0.25695
0.99026	0.76336
0.45472	1.14597
-0.56534	-0.05289
-0.79486	1.78367
-0.13181	-2.75671
0.30171	0.15117
0.76074	1.37554
0.02119	0.76336
-0.61635	-0.25695
-0.36133	1.04394
-0.33583	-0.48652
1.24527	0.63582
1.04126	1.14597
0.68424	0.12566
0.22521	0.45726
0.40372	0.04914
-0.38683	-0.51203
-0.82036	-0.15492
-0.41233	-0.97117
0.02119	0.15117
0.83725	-0.46102
1.24527	1.09496
0.63323	1.57960
-0.48884	-0.33348
-0.69285	1.09496
-0.46334	-1.12422
0.83725	0.35523
0.83725	0.17668
0.35272	0.20219
0.42922	-0.33348
0.22521	-0.10391
0.40372	2.47238
0.12320	-0.28246
0.02119	1.17148
-0.00431	0.02363
-0.05531	0.20219
-0.00431	-1.83844
-0.10631	-0.46102
-0.15732	0.96742
-0.00431	0.10015
0.55673	-0.97117
0.25071	0.55929
-0.38683	1.45206
-0.59084	1.50308
0.55673	-0.81812
0.93925	2.03874
0.65874	-1.50683
0.60773	0.17668
-0.18282	1.06945
-0.08081	-0.81812
-0.25932	0.96742
-0.13181	0.50828
0.83725	-1.17523
0.70974	0.40625
0.12320	-1.27726
0.40372	-1.37929
0.32721	1.88570
0.04670	1.63062
-0.10631	-1.22625
-0.02981	0.07465
-0.33583	-0.51203
-0.25932	0.91640
0.25071	1.68163
0.48022	1.45206
0.50573	-0.33348
0.17421	0.58480
-0.53984	-0.56305
-0.38683	0.96742
0.50573	0.45726
0.63323	-4.66979
0.42922	-0.12942
0.07220	-0.30797
-0.10631	1.96222
0.50573	-0.61406
0.42922	0.15117
0.25071	0.73785
0.19971	1.91120
0.12320	0.63582
0.22521	-1.30277
0.12320	0.73785
-0.28482	1.06945
-0.31033	-0.15492
0.19971	-1.81293
0.45472	-0.76711
0.30171	1.55410
0.04670	0.30422
-0.18282	-0.30797
0.27621	1.14597
0.19971	1.04394
-0.76936	-0.30797
-1.81492	0.07465
0.53123	0.45726
1.55129	0.20219
1.67880	-0.46102
1.39828	-0.81812
1.60230	0.66132
0.53123	0.45726
-1.20288	0.17668
-2.45246	0.76336
-1.20288	0.35523
0.99026	0.30422
1.09226	2.11527
0.93925	-1.14973
0.86275	0.30422
0.45472	0.10015
-0.00431	-0.81812
-0.38683	-0.56305
-0.59084	-0.69059
-0.43783	-0.76711
-0.05531	2.52339
-0.00431	0.15117
0.04670	1.06945
0.22521	-0.25695
0.53123	0.45726
0.42922	-0.76711
0.22521	0.40625
0.30171	-1.02219
0.22521	0.73785
0.19971	-0.23145
0.19971	-0.25695
0.02119	0.32972
0.35272	1.73265
0.32721	0.27871
0.48022	0.35523
-0.20832	-0.02739
-0.46334	-0.63957
-0.38683	-0.46102
0.32721	0.15117
1.01576	0.91640
0.50573	-0.76711
-0.36133	0.22769
-0.46334	0.83988
0.93925	0.27871
0.60773	0.76336
0.35272	-1.78742
0.17421	1.22250
-0.33583	-0.02739
-0.18282	0.66132
0.07220	0.25320
-0.18282	1.04394
-0.02981	-1.55785
0.30171	-0.10391
0.63323	1.47757
0.40372	0.96742
0.04670	0.48277
-0.48884	-2.11902
-0.66735	1.32453
-0.13181	-0.97117
0.50573	0.94191
0.99026	1.35003
0.83725	-0.15492
0.65874	0.55929
-0.20832	-0.48652
-0.02981	-0.25695
0.22521	0.71234
0.22521	0.12566
0.07220	-0.81812
-0.08081	0.10015
-0.15732	0.20219
0.09770	0.27871
0.12320	0.78886
-0.18282	1.06945
-0.08081	-0.46102
0.12320	-0.74160
0.50573	1.42656
0.63323	0.50828
0.02119	-0.74160
-0.33583	-0.02739
0.35272	-1.02219
1.04126	2.08976
0.42922	0.86539
-0.13181	0.22769
-0.36133	-0.89465
0.22521	0.25320
0.65874	0.40625
0.53123	0.53379
0.14870	0.61031
-0.20832	-0.28246
-0.64185	-0.84363
0.35272	0.38074
0.12320	0.32972
0.12320	0.86539
-0.71835	1.29902
-0.66735	-0.56305
0.70974	-1.07320
0.76074	0.27871
0.63323	1.17148
0.91375	-0.81812
0.60773	1.22250
0.02119	-0.12942
-0.84586	0.40625
-0.59084	1.55410
0.45472	-0.41000
0.42922	-0.05289
0.42922	-1.48133
0.19971	1.42656
0.04670	0.32972
-0.15732	-1.60887
-0.10631	0.53379
-0.02981	0.25320
-0.51434	-0.33348
0.12320	0.55929
0.63323	0.35523
0.60773	0.63582
0.55673	-0.20594
0.35272	-0.53754
0.09770	0.20219
0.12320	-0.12942
-0.02981	0.63582
0.04670	0.63582
-0.28482	0.96742
-0.46334	-2.37410
0.09770	0.12566
0.22521	-0.28246
0.27621	0.89089
-0.02981	0.38074
-0.05531	0.45726
0.25071	1.01843
0.81175	-0.10391
0.53123	-0.12942
0.73524	-0.43551
0.78624	-0.66508
0.25071	1.42656
-0.10631	-0.25695
-0.48884	0.58480
-0.48884	-0.58856
0.04670	-0.20594
0.22521	0.94191
0.12320	-0.05289
0.09770	-0.71609
0.02119	2.26831
0.12320	-0.58856
0.25071	-0.92016
0.09770	0.20219
0.32721	0.02363
-0.00431	-0.33348
0.07220	0.91640
0.32721	-0.41000
0.12320	0.68683
0.09770	1.12046
0.09770	1.65613
0.58223	0.30422
0.48022	1.12046
-0.10631	-1.81293
-0.00431	-0.46102
-0.00431	0.04914
0.02119	0.35523
-0.00431	-0.05289
0.07220	0.25320
0.25071	0.58480
0.35272	1.24800
0.07220	-0.86914
-0.31033	-1.14973
0.27621	-1.78742
0.37822	-0.30797
-0.08081	-0.15492
-0.10631	1.68163
-0.00431	2.59991
0.25071	0.91640
0.63323	0.86539
0.76074	0.55929
0.55673	-0.38449
-0.08081	-0.00188
-0.18282	-0.56305
-0.02981	-2.32308
-0.20832	-0.48652
-0.05531	0.83988
0.55673	-0.10391
0.48022	0.48277
-0.10631	0.45726
-0.08081	0.55929
-0.15732	0.35523
-0.05531	-0.18043
0.55673	-0.28246
0.37822	1.45206
0.25071	-0.41000
0.14870	0.50828
0.14870	-2.06800
0.17421	0.12566
-0.15732	1.45206
0.17421	1.96222
-0.05531	-3.16484
0.27621	1.29902
0.25071	0.45726
0.14870	-0.05289
0.19971	2.37034
0.02119	-1.43031
-0.02981	1.55410
0.40372	0.83988
0.22521	0.58480
0.32721	-1.04770
0.30171	-1.22625
-0.08081	-0.41000
-0.36133	-0.15492
0.02119	0.02363
0.19971	0.81437
0.37822	0.32972
0.53123	-1.73640
0.32721	-1.50683
-0.18282	1.63062
-0.69285	1.22250
0.27621	1.63062
0.78624	0.81437
0.40372	-2.93527
0.30171	-1.35379
-0.33583	2.37034
-0.28482	1.29902
0.04670	-1.83844
-0.13181	0.55929
0.55673	1.52859
0.30171	-1.83844
0.19971	1.88570
0.30171	-0.38449
0.17421	-0.79262
0.19971	0.76336
-0.10631	0.02363
-0.18282	-0.89465
-0.08081	-0.66508
0.04670	-0.15492
0.12320	1.22250
0.02119	0.66132
-0.02981	0.35523
0.53123	-0.69059
0.58223	-1.22625
0.22521	1.42656
-0.05531	-1.65988
0.22521	-0.00188
-0.05531	1.09496
0.09770	1.27351
0.17421	0.86539
0.22521	-0.51203
0.50573	0.38074
0.27621	1.01843
-0.05531	-0.02739
-0.02981	0.27871
-0.48884	0.04914
0.02119	-0.89465
0.37822	0.25320
0.25071	-0.10391
0.27621	0.48277
0.40372	0.81437
0.12320	0.32972
-0.15732	0.15117
0.22521	0.30422
0.40372	-0.99668
0.42922	0.15117
0.14870	0.15117
-0.41233	-0.61406
-0.25932	-0.23145
0.22521	0.78886
0.25071	0.94191
0.22521	-0.20594
-0.08081	1.55410
0.09770	0.04914
0.50573	-0.74160
-0.28482	0.91640
0.07220	-1.07320
0.42922	0.38074
0.09770	-0.46102
-0.05531	0.27871
0.04670	0.63582
0.22521	-0.25695
0.14870	-0.05289
-0.00431	-0.15492
0.07220	0.20219
-0.02981	-2.29757
-0.15732	1.32453
0.55673	2.37034
0.81175	-1.07320
0.32721	1.88570
-0.38683	0.30422
-0.36133	-0.48652
0.27621	-1.17523
0.55673	-0.41000
0.32721	0.94191
0.02119	0.66132
0.02119	0.81437
0.22521	-0.12942
0.12320	1.65613
-0.15732	1.04394
-0.02981	0.04914
0.12320	-5.07792
0.60773	0.22769
0.48022	0.96742
-0.05531	0.86539
-0.53984	-0.20594
-0.56534	1.17148
0.19971	0.15117
0.63323	0.40625
0.76074	-0.76711
0.50573	-0.43551
0.19971	0.32972
-0.20832	-1.78742
-0.38683	0.76336
0.19971	1.09496
0.04670	0.73785
-0.00431	0.22769
0.22521	-0.35899
-0.51434	-2.14453
-0.25932	0.61031
0.42922	0.58480
0.09770	0.99292
0.30171	0.35523
-0.10631	-0.15492
-0.33583	0.43176
0.14870	0.02363
0.63323	0.12566
0.45472	1.12046
0.45472	-0.35899
0.27621	-0.35899
0.19971	-0.71609
0.12320	0.20219
0.14870	1.60511
-0.08081	-1.07320
-0.33583	-0.10391
0.22521	0.91640
0.58223	1.75816
0.19971	-1.76191
0.27621	-0.23145
-0.08081	0.53379
-0.48884	0.96742
0.17421	-0.33348
0.50573	1.50308
0.58223	-0.48652
0.50573	0.48277
0.32721	-0.02739
-0.18282	-0.05289
0.30171	0.55929
0.40372	0.53379
0.30171	-1.60887
-0.05531	-0.20594
-0.38683	1.80917
-0.71835	-0.92016
-0.59084	0.43176
0.22521	0.55929
0.60773	0.99292
0.70974	-0.20594
0.70974	-1.25176
0.60773	-0.63957
-0.05531	0.63582
0.02119	0.15117
0.17421	0.89089
0.30171	1.83468
0.09770	-0.48652
0.14870	-1.55785
0.12320	1.09496
-0.13181	-0.00188
-0.15732	0.86539
-0.23382	-1.02219
0.37822	0.53379
0.55673	0.10015
0.55673	0.68683
0.07220	0.22769
-0.33583	-1.81293
0.09770	0.63582
0.40372	-0.15492
0.42922	-0.61406
-0.08081	1.14597
-0.02981	0.73785
-0.08081	0.22769
0.32721	-0.58856
0.60773	-1.09871
0.40372	-1.71090
-0.15732	1.17148
-0.18282	1.12046
-0.02981	0.63582
-0.05531	1.27351
0.07220	1.22250
0.40372	0.32972
0.42922	-0.46102
0.50573	-0.33348
0.04670	0.91640
-0.56534	0.10015
-1.04987	-3.24136
0.07220	0.32972
0.07220	0.22769
0.19971	0.15117
0.88825	-0.28246
1.34728	1.09496
1.04126	-0.10391
0.65874	1.55410
-0.08081	0.25320
-0.20832	0.86539
-0.13181	-0.38449
-0.05531	-0.28246
-0.10631	0.40625
-0.08081	0.55929
-0.13181	-0.38449
0.12320	1.35003
0.37822	1.65613
0.40372	-1.99148
0.04670	-0.38449
-0.13181	-0.12942
0.30171	-1.68539
0.17421	1.24800
0.19971	1.17148
-0.13181	-0.86914
-0.08081	1.06945
0.50573	0.91640
0.58223	-1.17523
0.07220	0.96742
0.07220	-0.02739
-0.28482	-1.12422
-0.10631	1.14597
-0.20832	-0.43551
0.09770	0.55929
0.22521	-1.27726
0.27621	2.11527
-0.23382	-0.02739
0.25071	-0.35899
0.48022	0.63582
0.32721	-0.25695
0.22521	0.30422
0.17421	-0.10391
0.17421	1.06945
0.35272	-0.15492
0.12320	1.17148
-0.36133	-0.25695
-0.71835	-2.90976
0.45472	1.50308
0.68424	-0.07840
0.55673	-0.02739
0.19971	2.52339
0.32721	0.22769
0.40372	0.86539
0.07220	-0.41000
-0.15732	0.86539
-0.02981	-1.20074
0.37822	-1.25176
0.27621	0.45726
-0.05531	0.78886
0.12320	0.55929
0.07220	1.52859
0.25071	-1.17523
0.27621	0.81437
0.27621	-0.00188
0.07220	-0.71609
-0.10631	0.30422
0.19971	0.04914
0.48022	-0.56305
0.22521	0.43176
-0.13181	0.78886
-0.28482	0.53379
0.04670	-0.23145
0.25071	-1.04770
0.81175	1.42656
0.63323	1.01843
0.19971	0.76336
-0.20832	-2.47613
-0.38683	-0.05289
0.02119	0.20219
0.32721	1.45206
0.60773	0.40625
0.22521	-0.05289
0.35272	0.68683
0.07220	-2.06800
-0.38683	1.06945
-0.20832	-1.58336
0.04670	0.15117
0.40372	1.19699
0.35272	0.48277
0.42922	0.78886
0.37822	-0.79262
0.09770	0.38074
-0.10631	-0.41000
-0.13181	1.52859
-0.08081	-1.02219
-0.05531	0.58480
0.17421	0.43176
0.35272	0.30422
0.63323	-0.99668
0.35272	0.02363
0.09770	1.06945
-0.18282	-0.15492
-0.41233	-0.69059
0.22521	-0.20594
0.48022	0.32972
0.35272	0.86539
0.04670	0.22769
-0.05531	-0.86914
0.48022	1.37554
0.25071	-0.30797
-0.13181	0.58480
-0.08081	0.71234
-0.00431	0.07465
-0.02981	-0.05289
-0.08081	-0.92016
0.42922	-1.07320
0.25071	2.03874
0.27621	-1.76191
0.37822	0.73785
0.55673	-0.28246
0.14870	0.30422
0.02119	1.29902
-0.08081	1.19699
-0.20832	1.68163
0.07220	-1.04770
0.35272	-1.91496
0.25071	-0.61406
0.07220	1.91120
0.37822	1.63062
0.32721	0.45726
-0.05531	-2.29757
0.14870	0.10015
0.32721	0.96742
0.30171	1.19699
0.55673	-0.10391
0.37822	-0.97117
0.12320	0.55929
-0.15732	-0.30797
-0.31033	0.68683
-0.10631	-0.12942
-0.00431	-0.15492
0.14870	0.22769
-0.13181	0.61031
0.04670	0.99292
0.68424	0.99292
0.73524	0.20219
0.65874	-1.53234
0.09770	-0.15492
0.09770	-0.28246
-0.00431	-0.28246
-0.13181	-0.23145
0.02119	0.22769
-0.13181	-0.05289
-0.00431	0.58480
0.22521	0.96742
0.25071	-0.43551
0.25071	0.15117
0.09770	-0.35899
-0.13181	-1.14973
0.27621	-0.35899
0.12320	0.83988
0.73524	1.22250
0.60773	-0.12942
0.45472	0.76336
0.53123	1.27351
0.27621	-0.38449
0.02119	-0.97117
-0.20832	-0.30797
0.25071	-0.41000
-0.18282	1.12046
-0.20832	-0.12942
0.02119	0.76336
0.35272	0.15117
-0.00431	1.19699
0.04670	-0.94566
0.68424	0.22769
0.60773	0.04914
0.35272	0.45726
-0.43783	1.57960
-0.13181	-0.30797
0.45472	-2.11902
0.45472	1.73265
0.25071	1.65613
0.07220	-2.50164
0.14870	-0.71609
0.42922	0.43176
0.22521	0.86539
-0.18282	0.02363
-0.05531	0.99292
0.32721	0.91640
-0.02981	1.47757
0.14870	-0.23145
0.04670	-1.09871
0.14870	-0.28246
0.09770	0.30422
0.17421	0.63582
0.27621	0.48277
0.25071	0.15117
0.30171	-2.09351
0.17421	-0.41000
0.25071	1.01843
0.02119	0.94191
0.14870	0.61031
-0.02981	0.38074
0.04670	1.50308
0.27621	-1.27726
0.50573	-1.50683
0.48022	0.22769
0.32721	0.63582
-0.38683	0.96742
-0.76936	0.10015
-0.05531	1.01843
0.93925	-0.76711
0.48022	-0.25695
0.04670	-0.07840
0.07220	-0.18043
0.17421	0.07465
0.48022	-1.27726
0.09770	1.83468
-0.18282	-0.81812
-0.38683	-0.46102
-0.13181	0.83988
0.42922	0.63582
0.50573	0.68683
0.37822	0.71234
0.14870	-0.51203
0.35272	-0.25695
0.22521	-0.10391
-0.33583	0.35523
-0.92237	-0.25695
-0.15732	0.15117
0.55673	0.40625
0.60773	0.35523
0.48022	-0.20594
0.17421	0.35523
0.25071	0.78886
0.14870	0.15117
0.22521	-1.20074
0.25071	0.17668
0.02119	0.89089
-0.13181	-1.50683
-0.46334	1.32453
-0.20832	-0.51203
-0.13181	-0.10391
0.17421	1.27351
0.30171	0.45726
0.40372	-0.81812
0.48022	0.20219
0.58223	0.76336
0.04670	-0.58856
-0.18282	0.86539
-0.76936	1.06945
-0.38683	0.02363
0.32721	-0.15492
0.53123	-0.66508
0.53123	-0.25695
0.55673	0.12566
0.58223	0.10015
0.37822	-0.25695
0.09770	0.73785
-0.53984	-0.66508
-0.48884	-0.35899
-0.02981	-0.46102
0.35272	0.22769
0.32721	1.78367
-0.05531	-0.79262
-0.15732	0.22769
-0.66735	0.07465
0.73524	0.63582
0.68424	-0.79262
0.55673	-1.32828
0.42922	1.50308
0.42922	0.58480
0.25071	1.06945
0.02119	0.35523
-0.08081	0.45726
-0.02981	0.12566
-0.05531	-0.28246
-0.08081	0.12566
0.04670	0.15117
0.12320	-1.76191
0.22521	0.58480
0.07220	0.12566
0.19971	0.38074
0.19971	-1.12422
0.19971	1.22250
0.07220	-0.15492
0.14870	0.35523
0.25071	1.24800
0.25071	1.45206
0.55673	-0.92016
0.48022	-0.97117
0.09770	0.94191
-0.05531	0.55929
-0.64185	-1.25176
-0.00431	-0.15492
0.60773	0.30422
0.55673	-0.18043
0.32721	1.86019
0.42922	-0.43551
0.27621	0.04914
0.30171	-0.28246
0.12320	1.01843
0.19971	-0.05289
-0.20832	-0.84363
-0.41233	0.89089
-0.38683	1.12046
-0.10631	0.32972
0.19971	0.10015
-0.00431	-0.46102
0.09770	-0.43551
0.42922	-1.94047
0.48022	0.81437
0.42922	1.73265
0.37822	-0.35899
0.04670	0.38074
-0.53984	0.89089
-0.02981	0.17668
0.40372	0.04914
0.53123	0.53379
0.45472	-2.11902
0.12320	0.96742
0.25071	0.17668
0.27621	0.17668
0.02119	1.14597
-0.08081	-0.05289
-0.13181	0.55929
-0.28482	0.07465
0.14870	0.07465
0.45472	0.10015
0.37822	-0.38449
0.14870	-0.15492
0.27621	0.27871
0.02119	-0.48652
0.17421	0.40625
0.12320	0.55929
0.04670	-0.05289
-0.18282	0.27871
0.19971	0.78886
0.07220	0.04914
0.22521	-0.41000
0.22521	0.35523
0.12320	1.32453
0.25071	0.12566
0.22521	-1.22625
-0.00431	0.43176
-0.64185	0.32972
-0.36133	0.76336
0.53123	0.83988
0.53123	-1.99148
0.42922	0.66132
0.65874	1.70714
0.35272	-0.71609
0.07220	-0.33348
-0.38683	-0.41000
-0.66735	0.35523
0.22521	-0.18043
0.40372	0.73785
0.32721	1.14597
-0.10631	1.29902
-0.18282	-1.68539
-0.36133	0.27871
-0.05531	0.20219
0.45472	-0.18043
0.50573	0.02363
0.63323	0.94191
0.32721	-0.35899
0.40372	0.20219
0.25071	-0.07840
-0.00431	0.40625
-0.10631	-0.58856
-0.13181	-0.38449
0.12320	0.73785
0.32721	-0.71609
-0.25932	0.81437
-0.43783	1.17148
0.02119	0.99292
0.37822	0.22769
0.70974	-2.42511
0.50573	0.22769
0.37822	-0.66508
0.60773	0.78886
0.17421	1.32453
-0.38683	1.40105
-0.08081	0.78886
0.17421	0.55929
0.14870	0.02363
0.14870	-0.58856
0.02119	0.32972
-0.08081	-0.43551
0.22521	0.07465
0.25071	0.22769
-0.05531	-0.63957
-0.10631	-0.61406
0.12320	-0.99668
0.22521	0.53379
-0.20832	-0.43551
-0.25932	0.35523
0.37822	0.68683
0.32721	1.06945
0.50573	-0.63957
0.37822	1.27351
0.09770	-0.76711
0.40372	0.45726
-0.02981	1.17148
-0.20832	-1.78742
-0.08081	1.78367
0.27621	-0.48652
0.32721	-1.73640
0.30171	0.32972
0.30171	1.55410
-0.18282	1.06945
0.02119	-0.86914
-0.13181	-0.12942
-0.08081	-1.86394
0.12320	0.12566
0.37822	-0.28246
-0.02981	0.76336
0.68424	1.06945
0.63323	0.89089
0.35272	-0.07840
0.19971	0.27871
0.07220	-0.35899
0.04670	-0.43551
0.02119	0.50828
-0.08081	-0.05289
-0.23382	0.20219
-0.66735	0.66132
0.19971	-0.35899
0.70974	0.76336
0.60773	-0.15492
0.63323	-0.53754
0.37822	1.32453
-0.10631	-0.33348
-0.05531	1.19699
-0.18282	-1.81293
-0.00431	-0.02739
-0.08081	1.24800
0.40372	0.96742
0.37822	1.17148
0.32721	-0.05289
0.19971	-0.99668
-0.31033	-0.46102
0.09770	-0.56305
0.37822	0.58480
0.14870	0.25320
0.17421	0.04914
0.02119	0.25320
0.12320	1.17148
0.37822	-2.29757
0.27621	-0.63957
0.17421	0.81437
0.22521	0.99292
0.14870	0.20219
0.19971	0.35523
-0.23382	-0.74160
-0.00431	0.81437
0.22521	0.86539
0.22521	0.96742
0.32721	-0.99668
0.27621	-0.74160
-0.25932	0.07465
0.09770	0.40625
0.30171	0.30422
0.22521	0.99292
-0.13181	0.20219
-0.13181	-0.20594
-0.51434	-1.35379
0.12320	0.35523
1.04126	0.38074
0.58223	1.06945
-0.33583	-0.33348
-0.99887	0.25320
-0.31033	-0.92016
0.73524	0.55929
0.91375	0.71234
0.96476	-0.28246
0.58223	-0.12942
0.09770	0.86539
0.04670	-0.00188
0.30171	-0.15492
-0.08081	-0.43551
-0.36133	0.27871
-0.31033	0.68683
-0.05531	0.07465
0.17421	0.35523
0.40372	1.12046
0.14870	1.01843
-0.02981	-0.81812
0.27621	-0.28246
0.37822	1.01843
0.40372	0.30422
-0.00431	-2.11902
-0.13181	0.17668
0.09770	-1.83844
0.35272	1.45206
0.25071	1.19699
0.40372	0.81437
0.22521	0.73785
0.14870	0.81437
0.12320	-0.38449
-0.10631	0.66132
-0.05531	-0.86914
0.17421	-0.79262
0.07220	0.27871
0.22521	0.81437
0.22521	0.30422
0.22521	0.58480
0.32721	0.04914
0.30171	-0.07840
0.09770	-0.05289
0.27621	1.22250
0.17421	0.43176
-0.02981	-0.23145
-0.28482	-0.25695
0.04670	-1.43031
0.32721	-0.69059
0.37822	3.08456
0.14870	-1.88945
-0.08081	0.53379
-0.18282	-0.15492
0.17421	-0.41000
-0.00431	1.98773
-0.02981	-0.66508
0.19971	0.68683
0.32721	-0.53754
0.35272	-0.00188
0.42922	0.53379
0.53123	-0.97117
0.50573	0.15117
0.42922	-0.33348
-0.10631	-0.07840
-0.46334	1.06945
-0.51434	0.50828
-0.25932	-0.15492
0.27621	1.32453
0.35272	0.40625
0.27621	-1.02219
0.32721	-0.18043
0.27621	-0.74160
0.27621	0.55929
0.12320	0.27871
-0.13181	0.55929
-0.10631	0.15117
0.12320	0.17668
0.55673	0.61031
0.60773	0.32972
0.53123	-0.38449
0.32721	0.89089
0.04670	-1.17523
-0.00431	0.45726
-0.08081	0.63582
0.04670	0.86539
-0.02981	0.32972
0.17421	-1.45582
0.19971	0.48277
0.09770	-1.88945
0.27621	0.25320
0.53123	2.26831
0.09770	1.86019
-0.23382	-0.18043
-0.25932	-0.10391
-0.00431	-0.30797
0.25071	0.53379
0.73524	-0.30797
0.63323	0.25320
0.50573	0.35523
-0.08081	0.58480
-0.76936	-0.74160
-0.82036	-0.97117
0.30171	0.30422
0.65874	0.68683
0.35272	0.68683
-0.00431	-0.69059
0.02119	-0.63957
0.37822	1.01843
0.55673	0.12566
0.27621	-0.10391
0.12320	0.30422
-0.10631	0.32972
-0.61635	0.15117
-0.10631	0.66132
0.12320	0.30422
0.22521	0.63582
0.30171	0.45726
0.19971	-0.35899
0.27621	-1.45582
-0.00431	-1.35379
-0.20832	-0.07840
-0.61635	0.83988
-0.08081	1.55410
0.58223	0.40625
0.83725	0.17668
0.68424	0.45726
0.60773	-0.69059
-0.00431	0.20219
-0.05531	-0.20594
0.09770	1.55410
0.37822	0.68683
0.22521	-1.60887
0.19971	0.43176
-0.23382	1.01843
-0.69285	-0.15492
0.02119	-0.66508
0.45472	0.27871
0.25071	1.27351
-0.10631	0.45726
0.02119	-0.18043
0.32721	-1.07320
0.50573	-0.00188
0.37822	0.55929
0.58223	0.50828
0.37822	0.48277
0.30171	-0.15492
0.09770	-0.33348
-0.48884	-0.12942
-0.43783	-0.00188
-0.05531	1.17148
-0.00431	0.91640
-0.02981	0.58480
0.37822	0.66132
0.27621	-3.11382
0.12320	0.63582
0.35272	1.80917
0.35272	-0.66508
0.25071	-0.10391
-0.00431	-1.14973
0.09770	1.83468
0.30171	-0.46102
0.04670	0.94191
-0.36133	0.99292
-0.18282	0.61031
-0.25932	-0.25695
0.27621	-1.53234
0.42922	0.20219
0.48022	0.66132
0.53123	1.22250
0.25071	-0.02739
0.14870	-0.02739
0.12320	-2.17003
0.22521	0.86539
0.25071	0.61031
0.12320	0.22769
0.04670	0.04914
0.02119	0.83988
-0.08081	0.66132
-0.02981	-0.76711
0.02119	0.58480
0.35272	-0.12942
0.50573	-0.18043
0.60773	-0.05289
0.27621	-0.25695
-0.08081	1.04394
-0.28482	1.14597
-0.02981	0.25320
0.07220	0.83988
-0.10631	-1.04770
0.22521	-3.11382
0.63323	0.15117
0.50573	0.76336
0.25071	0.50828
-0.05531	1.01843
-0.15732	1.29902
-0.10631	0.10015
0.27621	-0.12942
0.30171	0.45726
0.12320	-0.69059
-0.15732	0.25320
0.48022	0.91640
0.53123	-0.15492
0.37822	-0.41000
0.40372	-0.20594
0.17421	0.38074
0.12320	0.50828
0.19971	0.17668
0.14870	0.35523
0.14870	0.15117
0.17421	0.15117
0.19971	0.81437
0.17421	0.04914
0.09770	-0.05289
0.04670	0.15117
0.25071	0.43176
0.32721	0.25320
0.27621	0.10015
0.53123	-0.23145
0.12320	0.10015
0.09770	0.17668
0.14870	0.71234
0.17421	0.38074
0.42922	1.14597
0.17421	-1.09871
0.14870	-0.69059
0.32721	0.81437
0.12320	0.10015
-0.00431	0.55929
-0.13181	1.01843
0.17421	-0.38449
0.19971	-0.56305
0.32721	-0.61406
0.07220	0.07465
-0.28482	0.53379
-0.31033	0.30422
-0.38683	-0.51203
0.02119	0.10015
0.68424	0.78886
0.42922	0.20219
0.32721	0.68683
0.22521	-0.66508
0.60773	-0.07840
0.37822	0.99292
-0.00431	0.07465
-0.02981	0.53379
-0.05531	-1.02219
-0.18282	0.86539
0.07220	-0.35899
0.48022	1.17148
0.32721	-1.30277
0.12320	0.53379
-0.13181	-0.05289
0.02119	0.71234
0.32721	0.25320
0.19971	-1.45582
0.19971	-0.00188
0.19971	0.53379
0.07220	1.37554
0.12320	-0.35899
0.25071	0.73785
0.12320	-0.15492
0.09770	0.83988
0.19971	0.53379
0.27621	0.86539
0.17421	0.25320
0.32721	-1.09871
0.07220	-0.43551
0.22521	0.81437
-0.20832	-0.05289
-0.31033	-0.05289
0.17421	1.09496
0.30171	-0.15492
0.30171	-0.30797
0.58223	1.17148
0.27621	-0.66508
-0.08081	0.43176
0.14870	-0.76711
0.25071	-0.66508
0.53123	0.43176
-0.00431	1.14597
-0.08081	0.94191
-0.28482	0.15117
-0.08081	0.17668
0.22521	-0.20594
0.40372	0.17668
0.22521	-0.69059
-0.00431	0.07465
-0.13181	0.17668
-0.18282	0.71234
0.30171	3.05905
0.32721	-6.42983
0.07220	1.78367
0.32721	-0.53754
0.27621	2.08976
0.25071	-0.12942
0.17421	-0.33348
0.17421	1.75816
0.27621	-0.00188
0.17421	0.07465
0.42922	0.22769
-0.00431	-0.33348
-0.08081	0.45726
0.09770	0.07465
0.07220	-0.56305
0.32721	-0.05289
0.04670	0.10015
0.12320	0.81437
-0.48884	0.15117
-0.59084	-0.12942
0.14870	-0.46102
0.65874	0.45726
0.86275	0.63582
0.48022	-0.07840
0.17421	-0.61406
-0.02981	1.75816
-0.20832	-0.05289
0.35272	-0.53754
0.27621	-0.35899
0.27621	0.86539
0.04670	-0.07840
-0.18282	-0.56305
0.09770	0.07465
0.25071	1.19699
0.12320	0.25320
-0.08081	-0.23145
0.35272	0.17668
0.25071	1.42656
0.22521	-1.37929
0.50573	0.38074
0.48022	0.83988
0.25071	-1.32828
0.09770	0.63582
-0.23382	0.04914
0.02119	-0.58856
0.19971	1.04394
0.12320	-0.05289
-0.13181	0.25320
0.12320	0.25320
0.22521	0.20219
-0.00431	-2.39961
0.37822	1.22250
0.32721	1.52859
0.58223	0.22769
0.12320	-0.00188
0.12320	0.81437
0.22521	0.15117
-0.05531	0.04914
-0.02981	0.55929
-0.00431	-0.07840
-0.08081	-0.53754
0.07220	-0.38449
0.48022	-0.76711
0.32721	0.94191
0.09770	0.35523
0.40372	0.53379
0.40372	0.96742
-0.02981	-1.32828
0.04670	-0.23145
-0.08081	1.04394
-0.02981	0.55929
0.32721	0.61031
0.30171	0.50828
-0.15732	-1.32828
-0.02981	0.25320
0.45472	0.17668
0.25071	0.10015
0.30171	0.66132
0.42922	-0.69059
0.27621	-0.46102
-0.20832	0.66132
-0.28482	-0.33348
-0.05531	0.10015
0.19971	1.57960
0.27621	1.19699
0.14870	-0.89465
-0.00431	-2.17003
0.14870	-0.46102
0.04670	0.86539
0.09770	0.15117
0.17421	0.71234
0.09770	0.63582
0.32721	0.32972
0.53123	0.53379
0.25071	0.10015
0.30171	-0.18043
0.04670	0.30422
-0.13181	0.20219
0.02119	0.15117
0.17421	-0.25695
-0.00431	0.50828
0.27621	-0.58856
0.27621	0.58480
0.19971	0.58480
0.19971	0.50828
0.02119	-0.18043
0.09770	-0.07840
0.12320	-0.28246
-0.20832	1.09496
-0.18282	0.73785
0.25071	0.45726
0.65874	1.83468
0.68424	-2.22105
0.12320	-0.66508
0.07220	0.35523
0.07220	0.02363
-0.02981	1.01843
-0.13181	-0.46102
-0.38683	-0.97117
0.35272	0.20219
0.58223	1.27351
0.32721	0.25320
0.07220	1.65613
0.17421	0.68683
0.17421	-0.30797
0.07220	-2.11902
-0.00431	0.96742
-0.02981	-0.05289
0.30171	-1.07320
0.09770	0.96742
0.12320	0.20219
0.14870	0.02363
0.17421	0.15117
0.40372	-0.02739
0.22521	0.45726
0.04670	1.27351
-0.10631	-0.69059
-0.20832	-2.27207
0.37822	0.94191
0.12320	-1.20074
0.14870	0.99292
-0.05531	1.50308
0.04670	0.35523
0.19971	0.94191
0.22521	1.75816
0.45472	1.65613
0.37822	-3.44542
0.30171	-0.25695
0.02119	-0.05289
-0.33583	0.30422
0.04670	0.53379
-0.00431	-0.12942
-0.08081	0.73785
-0.02981	0.12566
0.42922	-0.15492
0.42922	-0.43551
0.25071	-0.30797
0.40372	0.40625
0.07220	0.04914
0.60773	-0.12942
0.22521	0.22769
-0.08081	0.66132
-0.25932	-0.43551
0.02119	0.20219
0.09770	-0.15492
0.04670	1.52859
-0.00431	-1.35379
0.02119	0.17668
-0.00431	1.22250
0.32721	0.61031
0.14870	0.94191
0.42922	0.66132
0.25071	-0.56305
0.27621	-1.04770
0.22521	0.10015
0.02119	0.02363
0.27621	0.25320
-0.02981	-0.69059
-0.08081	-1.65988
0.09770	1.37554
0.14870	1.73265
0.53123	-0.00188
0.55673	-0.66508
0.32721	0.96742
-0.00431	0.55929
-0.13181	-0.56305
0.09770	0.07465
0.25071	-0.66508
0.12320	1.06945
0.35272	-0.10391
0.12320	-0.23145
-0.28482	1.17148
-0.20832	0.20219
0.04670	-0.10391
0.60773	-0.25695
0.81175	0.81437
0.02119	-0.48652
-0.28482	0.50828
-0.33583	0.22769
0.09770	-0.02739
0.30171	-0.02739
0.50573	0.86539
0.53123	0.58480
0.35272	-3.54745
-0.08081	0.22769
0.04670	0.55929
-0.28482	1.37554
-0.02981	0.66132
0.30171	1.40105
0.09770	-0.00188
0.32721	0.20219
0.35272	0.40625
0.27621	-0.48652
0.30171	-0.41000
0.35272	-0.30797
0.09770	0.68683
0.12320	0.22769
0.14870	-0.25695
0.07220	0.35523
-0.02981	-0.28246
0.02119	-0.25695
-0.02981	1.70714
0.32721	-1.45582
0.35272	0.48277
0.19971	1.68163
0.02119	0.76336
-0.00431	0.12566
0.09770	0.27871
0.30171	0.25320
0.12320	-0.63957
-0.00431	-1.02219
-0.05531	0.89089
0.30171	0.27871
0.40372	-0.20594
0.55673	0.63582
0.27621	-0.23145
0.04670	-0.12942
0.19971	-0.99668
0.07220	0.17668
-0.23382	0.55929
-0.15732	0.40625
0.02119	-0.28246
-0.08081	-0.15492
0.12320	0.27871
0.19971	0.55929
0.42922	2.06425
0.25071	-2.11902
0.37822	0.04914
-0.00431	-0.61406
-0.31033	0.76336
-0.08081	2.08976
0.14870	-0.05289
0.04670	-0.00188
0.09770	0.40625
0.30171	0.07465
0.30171	-0.58856
0.30171	-0.28246
0.19971	0.20219
0.12320	-0.00188
-0.15732	0.66132
-0.48884	-0.07840
-0.10631	1.55410
0.37822	-1.17523
0.25071	-1.63437
0.02119	1.73265
0.22521	0.22769
0.63323	-0.46102
0.55673	0.53379
0.35272	0.15117
0.14870	0.43176
-0.00431	-0.07840
-0.18282	0.91640
0.14870	1.40105
-0.10631	-0.28246
-0.02981	-1.20074
0.02119	-0.15492
0.17421	0.35523
0.14870	0.61031
-0.13181	0.02363
-0.18282	0.35523
0.45472	-0.05289
0.68424	0.10015
0.73524	0.86539
0.60773	-0.02739
0.19971	0.45726
0.09770	-0.81812
-0.28482	-2.39961
-0.13181	0.81437
-0.31033	2.14077
0.19971	1.60511
0.48022	-0.10391
0.60773	0.78886
0.40372	0.40625
0.37822	-0.58856
-0.13181	0.17668
0.14870	0.15117
0.17421	0.22769
-0.05531	-1.30277
-0.08081	0.35523
-0.33583	0.15117
0.17421	0.53379
0.53123	0.38074
0.35272	0.58480
0.19971	0.04914
0.25071	-0.15492
0.45472	0.63582
0.19971	-1.86394
-0.13181	0.38074
0.04670	1.04394
0.19971	1.06945
0.14870	0.83988
0.32721	-2.50164
0.48022	0.30422
-0.05531	-0.18043
-0.05531	1.40105
-0.08081	0.12566
0.22521	0.96742
0.22521	0.86539
0.22521	0.15117
0.22521	-0.35899
-0.02981	-0.00188
-0.13181	-0.66508
0.19971	-0.74160
0.37822	0.15117
-0.05531	0.78886
-0.20832	-0.38449
-0.00431	-0.07840
0.09770	-0.86914
0.27621	0.20219
0.09770	1.12046
0.32721	1.32453
0.14870	-1.02219
0.09770	-0.48652
0.09770	0.32972
0.30171	0.63582
-0.08081	0.66132
-0.38683	0.35523
-0.56534	-0.51203
-0.05531	1.06945
0.40372	0.40625
0.76074	-1.04770
0.76074	-0.23145
0.53123	-0.74160
-0.28482	0.55929
0.25071	0.83988
0.22521	0.32972
0.27621	-0.20594
0.27621	-1.17523
0.02119	0.17668
-0.00431	0.89089
-0.00431	0.63582
-0.18282	0.78886
-0.02981	0.22769
-0.08081	-0.10391
0.04670	-0.15492
0.25071	0.32972
0.17421	0.02363
0.27621	0.07465
0.37822	0.76336
-0.18282	-1.96597
-0.05531	0.15117
0.40372	0.78886
0.50573	0.81437
0.58223	-0.00188
0.30171	0.48277
0.07220	0.73785
-0.25932	-0.30797
-0.28482	0.04914
0.12320	-0.99668
0.04670	0.12566
-0.00431	0.50828
0.14870	0.50828
0.32721	1.37554
0.07220	0.55929
-0.00431	-0.15492
0.25071	-0.66508
0.07220	-0.28246
0.14870	1.75816
0.22521	-0.84363
0.19971	-0.63957
0.25071	0.22769
-0.20832	-2.09351
0.30171	1.09496
0.45472	1.32453
0.30171	0.96742
0.19971	-0.46102
0.04670	-1.22625
0.07220	0.58480
0.07220	0.71234
0.09770	0.83988
0.07220	-0.46102
0.22521	0.32972
-0.00431	0.10015
-0.08081	0.38074
0.09770	-0.12942
0.12320	-1.68539
0.25071	0.45726
0.09770	0.17668
0.14870	0.10015
0.07220	0.35523
0.02119	1.57960
0.07220	-0.28246
-0.02981	-2.14453
0.70974	1.19699
0.19971	-0.23145
-0.08081	1.42656
0.32721	1.42656
0.22521	-0.41000
0.02119	-0.51203
-0.08081	-0.74160
0.07220	0.07465
0.12320	0.15117
0.19971	0.30422
0.09770	0.17668
-0.18282	-0.30797
-0.15732	0.86539
0.02119	0.63582
0.12320	1.19699
0.14870	-2.34859
0.17421	0.58480
0.12320	-0.63957
0.12320	2.21730
0.02119	-0.63957
0.02119	-1.30277
-0.10631	-0.48652
0.30171	0.43176
0.37822	0.35523
0.19971	1.32453
0.04670	1.78367
0.02119	0.50828
0.12320	-1.73640
0.27621	0.22769
0.12320	0.35523
-0.05531	0.20219
-0.15732	0.25320
0.09770	0.04914
0.48022	-0.07840
0.65874	0.43176
0.40372	-0.25695
0.32721	-0.05289
-0.18282	0.66132
-0.28482	-0.51203
0.09770	-0.61406
0.32721	0.91640
0.32721	0.71234
0.19971	-0.46102
0.04670	0.50828
-0.13181	0.48277
-0.36133	0.27871
-0.23382	0.27871
0.19971	0.35523
0.27621	-0.10391
0.53123	0.43176
0.63323	-0.56305
0.35272	0.25320
0.02119	0.30422
-0.28482	-0.30797
0.17421	-0.10391
0.42922	-0.43551
0.07220	0.66132
-0.31033	0.96742
-0.28482	-0.56305
0.35272	-0.46102
0.58223	0.04914
0.32721	0.68683
0.17421	1.86019
0.19971	-0.02739
0.19971	0.25320
-0.05531	-1.86394
-0.13181	-0.07840
-0.05531	1.27351
0.45472	1.88570
0.27621	1.14597
0.22521	0.30422
0.27621	-0.53754
-0.00431	-0.46102
0.09770	-0.15492
0.22521	-0.05289
0.19971	-0.41000
-0.20832	-0.71609
-0.20832	0.35523
0.32721	0.55929
0.63323	0.45726
0.73524	0.45726
0.32721	1.09496
0.14870	-1.40480
-0.02981	0.50828
0.07220	-0.41000
0.12320	1.37554
0.02119	1.57960
0.12320	-0.79262
0.19971	-0.00188
0.32721	0.32972
0.35272	0.45726
0.07220	-0.05289
0.07220	-0.33348
-0.41233	0.04914
-0.23382	0.04914
0.04670	0.30422
0.65874	0.17668
0.65874	-0.28246
0.53123	-0.81812
