0.14870	0.83988
0.14870	-0.74160
0.22521	-0.43551
0.17421	0.04914
0.14870	0.76336
0.07220	0.66132
0.09770	0.32972
0.19971	0.15117
0.17421	0.15117
0.12320	-0.05289
0.07220	-0.05289
0.09770	0.10015
0.14870	0.04914
0.27621	0.10015
0.17421	0.15117
0.09770	0.22769
0.09770	0.25320
0.12320	0.07465
0.19971	-0.43551
0.17421	-0.02739
0.19971	0.61031
0.14870	0.30422
0.12320	0.25320
0.09770	0.96742
0.14870	-0.86914
0.17421	0.58480
0.14870	0.58480
0.09770	-0.10391
0.07220	0.15117
0.17421	-0.12942
0.17421	-0.56305
0.22521	0.45726
0.27621	0.15117
0.19971	-0.10391
0.09770	0.25320
0.04670	0.48277
0.09770	0.35523
0.12320	0.38074
0.14870	0.38074
0.14870	-0.56305
0.17421	-0.53754
0.07220	0.10015
0.19971	0.25320
0.19971	0.45726
0.12320	0.50828
0.12320	0.04914
0.07220	0.04914
0.12320	0.22769
0.12320	0.27871
0.22521	0.15117
0.19971	-0.00188
0.07220	0.15117
0.19971	0.35523
0.19971	-0.81812
0.22521	0.53379
0.12320	0.66132
0.14870	0.04914
0.09770	-0.18043
0.07220	0.53379
0.14870	0.38074
0.22521	0.32972
0.22521	0.25320
0.25071	0.02363
0.14870	-0.07840
0.12320	0.07465
0.09770	0.15117
0.12320	0.17668
0.09770	0.20219
0.12320	0.17668
0.22521	0.12566
0.17421	-0.43551
0.17421	0.22769
0.12320	0.43176
0.17421	0.35523
0.19971	0.02363
0.17421	0.43176
0.22521	0.30422
0.19971	0.38074
0.04670	0.04914
0.12320	-0.58856
0.22521	0.15117
0.14870	0.55929
0.09770	0.30422
0.09770	-0.12942
0.12320	0.35523
0.19971	-0.02739
0.17421	0.20219
0.09770	0.55929
0.09770	0.04914
0.14870	0.12566
0.22521	0.15117
0.22521	0.10015
0.12320	0.22769
0.09770	0.22769
0.12320	-0.00188
0.19971	0.20219
0.17421	0.04914
0.12320	-0.84363
0.04670	0.61031
0.14870	0.76336
0.17421	0.12566
0.19971	0.15117
0.19971	-0.10391
0.12320	0.45726
0.12320	0.30422
0.19971	0.20219
0.12320	-0.23145
0.07220	0.12566
0.04670	0.25320
0.14870	0.20219
0.22521	0.15117
0.14870	0.07465
0.17421	0.07465
0.19971	0.73785
0.14870	-0.74160
0.07220	0.38074
0.07220	0.30422
0.09770	0.43176
0.12320	-0.56305
0.22521	0.48277
0.17421	0.30422
0.14870	0.43176
0.14870	0.22769
0.17421	0.25320
0.22521	0.50828
0.22521	0.04914
0.17421	-0.28246
0.14870	-0.20594
0.09770	-0.00188
0.09770	0.22769
0.17421	0.38074
0.12320	0.35523
0.17421	0.22769
0.22521	0.15117
0.22521	0.04914
0.12320	0.02363
0.07220	0.07465
0.09770	0.20219
0.12320	0.25320
0.17421	-0.38449
0.25071	0.17668
0.25071	0.55929
0.22521	-0.25695
0.22521	0.55929
0.12320	0.40625
0.14870	0.53379
0.09770	-0.28246
0.07220	-0.02739
0.04670	0.17668
0.19971	0.38074
0.14870	0.35523
0.22521	0.25320
0.19971	-0.05289
0.17421	-0.56305
0.12320	0.53379
0.07220	-0.02739
0.12320	0.12566
0.19971	0.25320
0.17421	0.27871
0.17421	0.25320
0.14870	0.30422
0.12320	0.10015
0.17421	0.22769
0.19971	0.07465
0.09770	-0.25695
0.17421	0.10015
0.02119	0.02363
0.07220	-0.00188
0.07220	0.43176
0.17421	0.35523
0.17421	0.15117
0.12320	-0.12942
0.17421	0.10015
0.22521	-0.63957
0.19971	0.50828
0.19971	0.35523
0.12320	0.40625
0.04670	0.40625
0.07220	0.45726
0.12320	0.17668
0.22521	-0.58856
0.09770	-0.23145
0.19971	0.04914
0.17421	0.35523
0.22521	0.48277
0.14870	0.15117
0.12320	0.02363
0.07220	-0.15492
0.12320	0.17668
0.22521	0.30422
0.14870	0.27871
0.07220	0.15117
0.17421	0.45726
0.22521	0.30422
0.12320	-0.05289
0.04670	-0.99668
0.09770	0.38074
0.12320	0.38074
0.14870	0.58480
0.19971	0.20219
0.22521	0.32972
0.14870	-0.07840
0.09770	-0.20594
0.12320	0.15117
0.17421	0.40625
0.19971	1.01843
0.12320	-0.97117
0.12320	0.10015
0.07220	-0.12942
0.17421	0.73785
0.22521	0.17668
0.22521	-0.15492
0.14870	-0.07840
0.17421	0.25320
0.14870	0.61031
0.17421	0.35523
0.17421	-0.10391
0.17421	0.02363
0.12320	0.04914
0.17421	0.17668
0.12320	0.07465
0.12320	0.15117
0.14870	0.32972
0.14870	0.15117
0.25071	0.25320
0.22521	0.15117
0.19971	-0.25695
0.17421	-0.35899
0.19971	0.43176
0.17421	0.22769
0.12320	0.25320
0.14870	0.40625
0.17421	0.35523
0.22521	0.10015
0.19971	0.04914
0.09770	0.15117
0.09770	0.25320
0.09770	0.15117
0.04670	0.30422
0.19971	-0.48652
0.14870	0.25320
0.19971	-0.43551
0.12320	1.04394
0.19971	-0.79262
0.14870	0.66132
0.09770	0.63582
0.09770	0.25320
0.09770	0.27871
0.02119	0.15117
0.12320	0.17668
0.12320	0.04914
0.14870	0.12566
0.25071	-0.61406
0.19971	0.17668
0.07220	0.38074
0.02119	0.35523
0.12320	-0.15492
0.12320	0.25320
0.22521	-0.56305
0.19971	0.76336
0.22521	0.53379
0.14870	0.66132
0.12320	0.25320
0.09770	0.04914
0.17421	-0.51203
0.09770	-0.33348
0.14870	0.53379
0.14870	0.32972
0.19971	0.32972
0.17421	0.45726
0.12320	0.32972
0.19971	0.15117
0.09770	0.22769
0.09770	-0.30797
0.17421	0.04914
0.12320	0.30422
0.17421	0.25320
0.12320	-0.61406
0.07220	0.12566
0.12320	0.04914
0.07220	0.35523
0.22521	0.40625
0.27621	0.38074
0.19971	0.15117
0.14870	0.17668
0.02119	0.15117
0.07220	0.22769
0.12320	0.35523
0.14870	0.10015
0.22521	-0.05289
0.09770	0.58480
0.17421	-0.89465
0.09770	0.58480
0.12320	-0.15492
0.17421	0.22769
0.14870	0.66132
0.22521	0.50828
0.17421	-0.00188
0.17421	0.61031
0.14870	-0.10391
0.12320	0.02363
0.14870	0.27871
0.17421	0.43176
0.09770	0.15117
0.12320	-1.14973
0.12320	-0.71609
0.07220	0.63582
0.07220	0.91640
0.12320	-0.48652
0.12320	0.55929
0.12320	0.32972
0.14870	0.38074
0.17421	0.35523
0.17421	-0.12942
0.14870	0.25320
0.22521	0.15117
0.25071	0.38074
0.12320	0.22769
0.12320	-0.23145
0.07220	-0.43551
0.07220	0.38074
0.17421	0.45726
0.22521	0.45726
0.25071	-0.35899
0.14870	0.38074
0.12320	0.61031
0.07220	0.10015
0.04670	0.22769
0.04670	0.81437
0.12320	0.10015
0.22521	-0.15492
0.19971	-0.02739
0.14870	0.91640
0.12320	-1.02219
0.17421	-0.15492
0.09770	-0.48652
0.22521	0.48277
0.17421	0.71234
0.12320	-0.00188
0.07220	0.68683
0.07220	0.43176
0.14870	0.55929
0.14870	-0.86914
0.14870	0.07465
0.17421	0.48277
0.22521	0.55929
0.22521	-0.12942
0.22521	-0.10391
0.19971	-0.56305
0.12320	0.27871
0.14870	0.38074
0.09770	0.27871
0.12320	0.25320
0.14870	0.22769
0.17421	0.53379
0.14870	-0.15492
0.14870	0.38074
0.19971	-0.51203
0.19971	-0.15492
0.19971	0.66132
0.14870	0.73785
0.12320	0.45726
0.09770	0.15117
0.12320	0.50828
0.12320	-0.20594
0.07220	0.25320
0.12320	-0.63957
0.12320	-0.23145
0.07220	-0.05289
0.14870	0.32972
0.12320	0.61031
0.04670	0.68683
0.22521	0.78886
0.17421	-0.00188
0.25071	0.04914
0.17421	0.50828
0.09770	0.15117
0.12320	0.04914
0.17421	-1.20074
0.12320	0.20219
0.12320	0.40625
0.14870	0.43176
0.22521	0.53379
0.09770	-0.10391
0.09770	0.04914
0.07220	0.96742
0.09770	-0.69059
0.09770	0.35523
0.22521	0.40625
0.25071	0.78886
0.30171	0.12566
0.17421	-0.38449
0.09770	-0.00188
0.04670	0.20219
0.02119	0.43176
0.17421	-0.28246
0.19971	0.17668
0.19971	0.25320
0.12320	0.12566
0.17421	-0.15492
0.25071	0.07465
0.19971	0.25320
0.17421	0.58480
0.07220	0.20219
0.12320	0.32972
0.14870	-0.33348
0.19971	0.43176
0.07220	0.25320
0.09770	-0.25695
0.07220	0.15117
0.17421	0.38074
0.17421	0.27871
0.25071	0.35523
0.22521	0.12566
0.22521	0.25320
0.12320	0.45726
0.07220	-0.94566
0.04670	-0.05289
0.25071	0.32972
0.17421	0.35523
0.17421	0.22769
0.14870	0.32972
0.19971	0.40625
0.14870	0.43176
0.22521	-0.76711
0.19971	0.15117
0.12320	0.15117
0.04670	0.53379
0.07220	-0.38449
0.09770	-0.02739
0.17421	-0.38449
0.12320	0.58480
0.17421	0.66132
0.17421	0.61031
0.17421	0.35523
0.12320	-0.18043
0.14870	0.12566
0.19971	0.32972
0.19971	-0.07840
0.19971	-0.12942
0.25071	-0.63957
0.22521	0.55929
0.27621	0.32972
0.22521	0.38074
0.12320	0.04914
0.12320	0.17668
0.14870	0.30422
0.04670	0.48277
-0.02981	0.10015
0.07220	-0.35899
0.17421	0.15117
0.17421	-0.33348
0.22521	0.61031
0.12320	0.10015
0.14870	0.32972
0.12320	0.96742
0.14870	-1.27726
0.09770	0.27871
0.22521	0.71234
0.22521	0.76336
0.17421	0.61031
0.22521	0.17668
0.22521	-0.99668
0.22521	0.45726
0.12320	0.40625
0.09770	-0.28246
0.12320	-0.07840
0.07220	0.22769
0.09770	0.30422
0.14870	-0.25695
0.17421	-0.23145
0.17421	0.48277
0.17421	0.68683
0.22521	0.50828
0.17421	0.27871
0.19971	-0.46102
0.25071	-0.33348
0.12320	0.35523
0.19971	0.30422
0.14870	0.25320
0.17421	0.20219
0.17421	0.20219
0.09770	0.25320
0.09770	0.20219
0.09770	0.12566
0.09770	-0.02739
0.12320	0.22769
0.12320	0.12566
0.19971	0.04914
0.22521	-0.43551
0.25071	-0.15492
0.19971	0.96742
0.14870	0.27871
0.12320	0.12566
0.09770	0.07465
0.14870	0.48277
0.25071	0.25320
0.19971	0.07465
0.14870	-0.05289
0.09770	0.00000
0.19971	0.25320
0.25071	0.30422
0.19971	0.20219
0.04670	-0.79262
-0.02981	-0.56305
0.07220	0.71234
0.09770	0.68683
0.12320	0.55929
0.14870	0.35523
0.17421	-0.35899
0.14870	0.22769
0.14870	-0.00188
0.17421	-0.51203
0.14870	0.10015
0.22521	0.68683
0.12320	0.61031
0.19971	0.50828
0.14870	0.40625
0.12320	0.30422
0.12320	0.04914
0.09770	-0.02739
0.17421	-0.12942
0.17421	0.10015
0.30171	-0.02739
0.22521	0.76336
0.17421	-0.10391
0.14870	-0.46102
0.09770	-0.18043
0.12320	0.04914
0.12320	-0.02739
0.12320	0.25320
0.17421	0.32972
0.17421	0.38074
0.14870	0.38074
0.22521	0.25320
0.19971	-0.00188
0.22521	0.38074
0.12320	-0.10391
0.12320	0.10015
0.04670	-0.02739
0.04670	0.32972
0.14870	0.20219
0.22521	0.10015
0.27621	0.35523
0.22521	0.45726
0.22521	0.10015
0.12320	-0.35899
0.12320	-0.43551
0.07220	-0.41000
0.09770	0.32972
0.12320	0.71234
0.22521	0.45726
0.17421	-0.20594
0.22521	0.27871
0.17421	0.22769
0.22521	0.35523
0.12320	0.48277
0.09770	0.55929
0.22521	0.73785
0.12320	-0.07840
0.14870	-0.51203
0.09770	-0.33348
0.12320	-0.12942
0.09770	0.02363
0.09770	0.04914
0.07220	0.27871
0.07220	0.27871
0.12320	0.04914
0.19971	0.15117
0.12320	-0.30797
0.17421	0.45726
0.14870	0.40625
0.19971	0.38074
0.19971	0.45726
0.19971	0.12566
0.19971	0.20219
0.22521	-0.35899
0.19971	0.32972
0.17421	0.07465
0.12320	0.12566
0.17421	0.12566
0.12320	0.12566
0.12320	0.30422
0.19971	0.07465
0.12320	0.38074
0.19971	0.32972
0.14870	0.25320
0.14870	0.10015
0.14870	0.35523
0.22521	0.07465
0.07220	-0.28246
0.07220	-1.40480
0.17421	1.12046
0.22521	0.04914
0.27621	0.27871
0.17421	0.63582
0.07220	0.27871
0.04670	0.15117
0.12320	0.27871
0.22521	0.32972
0.19971	-0.18043
0.17421	0.12566
0.12320	0.22769
0.17421	-0.07840
0.07220	0.04914
0.07220	0.25320
0.22521	0.15117
0.25071	0.30422
0.27621	-0.97117
0.19971	0.35523
0.19971	0.40625
0.17421	0.61031
0.12320	-0.23145
0.09770	0.32972
0.02119	-0.25695
0.09770	-0.18043
0.17421	0.76336
0.22521	0.53379
0.19971	0.10015
0.25071	0.38074
0.22521	0.25320
0.22521	0.17668
0.25071	0.15117
0.19971	0.02363
0.14870	-0.05289
0.12320	0.07465
0.12320	-0.15492
0.07220	-0.15492
0.04670	0.27871
0.12320	0.35523
0.09770	0.22769
0.09770	-0.05289
0.07220	0.04914
0.07220	-0.23145
0.17421	0.45726
0.22521	-0.10391
0.25071	0.81437
0.27621	0.32972
0.22521	0.20219
0.14870	0.35523
0.12320	0.45726
0.14870	-0.99668
0.19971	0.38074
0.17421	0.20219
0.12320	0.02363
0.04670	0.30422
0.02119	0.17668
0.09770	0.20219
0.09770	0.22769
0.02119	-0.51203
0.02119	0.07465
0.09770	-0.23145
0.12320	-0.53754
0.14870	0.10015
0.07220	0.73785
0.02119	0.22769
0.07220	0.76336
0.17421	0.78886
0.07220	0.66132
0.14870	-1.53234
0.19971	-0.74160
0.17421	0.76336
0.17421	-0.99668
0.22521	1.27351
0.09770	0.25320
0.12320	0.17668
-0.00431	0.94191
0.02119	0.94191
0.17421	-0.10391
0.12320	-0.84363
0.22521	-0.86914
0.12320	0.96742
0.30171	-1.04770
0.27621	1.75816
-0.02981	1.37554
0.04670	-1.58336
0.50573	-0.66508
0.37822	0.50828
0.25071	-0.46102
0.02119	3.05905
0.22521	1.35003
0.35272	-0.46102
0.19971	2.19179
0.19971	-2.83324
-0.43783	-2.55265
-0.25932	-0.81812
0.09770	-2.14453
-0.08081	3.87530
0.02119	1.09496
0.78624	1.75816
0.27621	-0.86914
0.14870	2.93151
0.19971	-2.78222
-0.76936	-1.43031
-0.64185	1.14597
0.45472	-1.09871
1.14327	1.80917
1.14327	0.73785
0.88825	-3.75152
0.86275	-0.25695
0.73524	1.78367
-0.69285	1.55410
-0.46334	1.80917
-0.46334	0.15117
-0.43783	0.07465
0.14870	-1.91496
0.81175	0.58480
0.12320	-4.95038
0.63323	2.80397
-0.92237	1.35003
-0.66735	0.07465
-0.71835	2.67644
-0.23382	-1.30277
-0.25932	-2.57816
0.25071	-0.05289
0.42922	-0.56305
2.03582	4.20690
2.39285	0.73785
2.18883	-1.68539
2.80087	2.06425
1.52579	-1.07320
-0.02981	-1.99148
-2.83499	-0.28246
-4.11007	0.45726
-1.61091	-2.45062
0.12320	3.16108
-0.79486	5.15069
0.14870	-0.05289
1.27078	-3.31788
2.59686	-1.83844
1.06676	-0.48652
-0.25932	-0.18043
-0.13181	2.39585
-0.13181	-0.81812
-0.15732	-0.12942
-0.53984	1.04394
-1.58541	1.27351
0.53123	1.09496
1.52579	-1.20074
1.29628	0.81437
2.59686	1.42656
1.65330	-0.79262
-0.38683	1.78367
-2.17195	0.55929
-1.78942	-0.56305
0.12320	-5.69010
1.37278	-2.19554
1.06676	1.06945
0.07220	4.18139
-2.09544	0.81437
-1.20288	2.11527
0.88825	2.14077
1.47479	-0.46102
1.34728	1.37554
1.16877	-1.73640
0.53123	-0.53754
0.27621	0.99292
-0.23382	1.04394
-0.38683	-0.69059
-1.15188	-3.08831
-1.30489	0.12566
-0.33583	-1.27726
0.07220	0.35523
0.76074	2.72745
1.37278	1.75816
0.78624	-1.04770
-0.61635	1.24800
-1.22839	-1.07320
0.30171	2.06425
0.63323	-3.36890
0.78624	2.34484
0.60773	-1.40480
0.68424	2.72745
0.09770	-0.07840
0.76074	1.55410
-0.08081	-0.89465
-0.69285	-0.71609
-0.05531	-0.46102
0.09770	-0.79262
-0.13181	1.78367
0.14870	0.12566
0.45472	-3.44542
-0.28482	-1.83844
-0.46334	0.83988
0.02119	2.82948
0.40372	1.57960
0.37822	2.08976
0.53123	1.22250
0.17421	-0.76711
0.19971	-0.33348
-0.05531	0.73785
-0.23382	-0.25695
-0.05531	0.83988
0.27621	0.48277
1.01576	-0.92016
1.09226	0.73785
0.25071	-0.63957
-0.08081	-2.73121
-0.15732	-0.25695
-0.48884	0.99292
-0.15732	1.17148
-0.41233	0.53379
-0.46334	0.63582
0.42922	2.14077
0.32721	0.12566
0.65874	-0.71609
0.63323	-1.20074
0.63323	0.12566
0.55673	-0.20594
-0.08081	-0.00188
-0.23382	0.04914
-0.28482	1.52859
-0.31033	0.55929
-0.13181	-0.41000
0.25071	-1.88945
-0.13181	0.83988
0.09770	0.99292
0.68424	3.08456
0.70974	-2.73121
0.35272	1.55410
0.32721	2.80397
0.42922	-0.05289
0.53123	-3.90456
0.37822	0.94191
-0.05531	-0.81812
-0.69285	0.45726
-1.10088	0.35523
-0.48884	0.76336
0.78624	1.22250
1.19427	1.47757
0.73524	-0.48652
0.42922	-0.99668
0.45472	-2.14453
0.27621	-0.71609
0.22521	-0.86914
0.99026	0.81437
-0.05531	2.90601
-0.41233	-0.58856
-1.25389	0.61031
-1.04987	-0.05289
0.65874	0.66132
0.78624	1.78367
0.86275	-0.05289
1.27078	-1.81293
0.04670	0.02363
0.25071	0.27871
-1.25389	-0.07840
-0.08081	2.29382
0.60773	-0.92016
1.01576	-1.04770
1.16877	-0.69059
0.45472	2.82948
-0.36133	-1.40480
-0.64185	-0.41000
-0.69285	1.22250
-0.61635	-1.68539
0.17421	1.68163
0.53123	1.65613
0.30171	0.68683
0.86275	0.30422
0.73524	2.62542
0.73524	-1.17523
-0.36133	-1.40480
-0.79486	-2.42511
-1.33039	0.53379
-0.08081	0.38074
0.81175	1.52859
1.32178	1.60511
1.06676	0.71234
-0.13181	-1.76191
-0.41233	0.10015
0.19971	2.16628
0.73524	0.20219
-0.00431	0.58480
-0.20832	-2.29757
-0.36133	-1.20074
0.02119	-0.89465
0.40372	0.40625
0.99026	1.96222
0.91375	1.57960
0.04670	-0.89465
-0.61635	0.25320
-0.48884	0.76336
-0.46334	-0.18043
0.32721	0.04914
0.50573	0.81437
0.83725	-2.19554
0.53123	1.35003
0.48022	-0.43551
0.30171	1.09496
-0.08081	-0.74160
-0.84586	-1.17523
-1.02437	-0.99668
0.04670	2.19179
0.07220	1.78367
0.07220	-0.12942
0.37822	0.63582
0.83725	1.55410
0.68424	-0.23145
0.48022	-1.68539
0.32721	0.53379
0.19971	0.25320
0.19971	-0.10391
0.12320	1.42656
-0.18282	1.86019
-0.02981	-0.66508
0.02119	-1.58336
0.17421	0.99292
0.27621	-0.05289
0.07220	-0.56305
-0.20832	1.01843
-0.46334	-1.09871
0.37822	1.14597
0.40372	-1.07320
-0.02981	-0.10391
0.12320	1.52859
0.12320	0.58480
0.32721	1.32453
0.88825	0.27871
1.06676	-0.66508
0.76074	0.12566
-0.53984	-1.68539
-1.78942	0.32972
-1.10088	1.24800
0.63323	0.30422
1.01576	-1.04770
0.99026	-0.56305
0.73524	0.48277
0.07220	1.50308
-0.20832	-0.71609
0.09770	0.02363
-0.53984	-0.46102
-0.74385	0.07465
0.22521	2.14077
0.60773	0.25320
0.58223	1.35003
0.27621	2.57441
0.17421	-2.32308
0.30171	-0.61406
0.09770	-1.12422
0.04670	1.06945
-0.02981	-0.99668
0.09770	0.53379
0.09770	0.96742
0.22521	0.99292
0.32721	0.63582
0.04670	1.17148
0.02119	-0.23145
0.17421	-0.02739
-0.33583	-0.94566
0.40372	-0.28246
-0.15732	0.66132
0.48022	-2.22105
0.42922	0.66132
-0.15732	0.58480
0.22521	0.76336
0.35272	0.68683
-1.10088	-1.50683
0.60773	1.57960
0.91375	-0.79262
0.96476	1.22250
0.60773	-0.51203
0.70974	0.43176
0.04670	1.35003
-0.02981	1.32453
-0.43783	-2.50164
-0.28482	-0.43551
-0.18282	0.48277
-0.20832	-0.74160
0.14870	3.31413
0.02119	0.55929
0.22521	0.50828
0.27621	0.12566
0.22521	0.35523
0.22521	-0.99668
0.27621	0.45726
0.35272	-1.02219
0.35272	0.22769
0.22521	-0.25695
-0.08081	-2.27207
0.02119	0.61031
-0.36133	1.78367
0.45472	-0.63957
0.88825	-0.76711
1.04126	1.98773
-0.28482	-0.51203
-1.02437	0.76336
-0.25932	1.45206
0.25071	0.55929
0.35272	-0.35899
0.30171	0.22769
0.55673	1.09496
0.53123	0.38074
0.81175	0.10015
0.12320	-0.07840
-0.25932	-0.23145
-0.76936	-0.20594
-0.33583	0.45726
0.14870	-0.25695
0.45472	-1.43031
0.30171	-0.84363
0.27621	1.52859
0.12320	1.47757
-0.15732	0.30422
0.14870	-0.66508
0.22521	0.63582
-0.10631	0.20219
-0.36133	-0.07840
0.17421	0.45726
0.76074	1.45206
0.76074	0.43176
0.50573	0.76336
-0.08081	1.29902
0.76074	0.81437
0.02119	-5.35850
-0.46334	-0.56305
-0.28482	-0.20594
-0.20832	0.78886
0.37822	1.73265
-0.08081	-0.99668
0.12320	1.14597
0.63323	2.08976
0.70974	-1.07320
0.25071	-0.81812
0.53123	-1.09871
0.09770	0.96742
0.30171	1.14597
0.07220	0.27871
-0.18282	0.27871
-0.74385	0.66132
-0.89686	-1.68539
-0.20832	1.14597
0.45472	-0.79262
1.14327	-0.58856
0.99026	1.17148
0.86275	-0.05289
-0.38683	0.78886
-0.79486	1.68163
0.22521	0.27871
0.73524	-2.62918
0.25071	1.75816
-0.33583	1.78367
0.12320	1.19699
0.50573	-2.70570
0.04670	-1.07320
0.02119	1.63062
0.12320	0.63582
0.14870	0.89089
-0.02981	-2.01699
-0.15732	1.50308
0.12320	1.47757
0.48022	0.22769
0.25071	-1.55785
0.17421	-0.86914
0.25071	-0.46102
0.25071	0.99292
-0.05531	0.45726
-0.13181	0.66132
0.02119	0.45726
0.14870	0.43176
0.35272	0.40625
0.50573	0.25320
0.37822	-0.43551
0.22521	-0.12942
-0.59084	-0.33348
-0.53984	-1.04770
0.70974	0.78886
0.55673	1.19699
0.58223	0.15117
-0.79486	1.01843
-0.59084	1.17148
0.50573	0.66132
1.65330	-2.47613
1.29628	1.32453
-0.31033	-0.15492
-0.87136	-0.35899
-0.20832	0.99292
0.60773	-1.02219
0.70974	0.48277
0.50573	0.20219
-0.15732	0.15117
-0.48884	0.99292
-0.69285	-1.58336
0.40372	2.62542
0.60773	2.16628
0.30171	-0.18043
-0.33583	-0.76711
-0.64185	-1.68539
-0.05531	0.04914
0.50573	-0.35899
0.55673	0.96742
0.58223	0.83988
0.12320	1.29902
0.19971	-1.09871
-0.56534	0.96742
-0.18282	-0.07840
0.30171	0.04914
0.30171	-0.00188
0.76074	-0.69059
-0.13181	0.40625
0.07220	1.57960
0.37822	1.17148
0.37822	-2.85874
0.22521	0.43176
-0.13181	-0.69059
-0.08081	-0.56305
0.02119	1.17148
-0.00431	2.29382
-0.74385	-1.68539
-0.84586	1.52859
0.83725	0.78886
0.99026	-0.58856
0.58223	-0.15492
0.27621	0.53379
0.07220	-1.65988
0.83725	1.52859
0.45472	2.11527
0.17421	-3.59847
0.48022	0.35523
-0.08081	0.61031
-0.64185	1.04394
-0.76936	-0.10391
-0.02981	2.01323
0.12320	-0.51203
0.25071	-1.40480
0.19971	0.35523
0.17421	1.55410
0.40372	0.15117
0.12320	-1.48133
-0.10631	0.68683
-0.20832	0.91640
-0.08081	0.02363
0.35272	0.76336
0.55673	-1.07320
0.40372	-1.12422
0.09770	0.61031
-0.51434	1.86019
0.09770	-0.94566
0.48022	-1.40480
0.68424	1.04394
0.32721	1.55410
0.30171	0.53379
0.04670	-0.30797
0.27621	0.50828
0.40372	1.52859
0.04670	2.75296
-0.53984	-3.98109
-0.41233	-1.99148
0.07220	0.45726
0.09770	-0.18043
0.42922	1.24800
0.37822	1.37554
0.37822	0.17668
0.27621	-2.83324
0.40372	0.86539
0.09770	1.37554
0.19971	0.40625
0.19971	0.76336
0.22521	0.38074
0.17421	-0.28246
-0.08081	0.53379
-0.28482	-0.41000
-0.18282	1.06945
0.42922	-0.48652
0.53123	-2.73121
0.14870	1.47757
0.30171	2.11527
0.53123	-0.51203
0.37822	-0.38449
0.02119	1.55410
-0.00431	-0.76711
-0.56534	-0.18043
-0.74385	1.37554
0.32721	0.99292
0.99026	-1.09871
0.88825	-2.52714
0.35272	0.63582
-0.20832	0.76336
-0.20832	0.71234
0.22521	0.04914
0.22521	0.25320
0.09770	2.21730
0.09770	-0.71609
0.27621	-0.53754
0.07220	-0.56305
-0.02981	0.66132
0.04670	-0.12942
0.58223	-0.66508
0.40372	2.08976
0.25071	-0.48652
0.25071	1.24800
0.27621	-0.46102
-0.31033	-0.79262
-0.41233	0.66132
0.02119	0.12566
0.35272	1.01843
-0.00431	-0.23145
0.19971	0.96742
0.09770	-1.45582
0.30171	0.68683
0.27621	0.61031
-0.20832	-0.15492
0.25071	-1.04770
0.53123	0.71234
0.04670	-0.86914
-0.02981	1.09496
-0.13181	1.17148
-0.00431	0.76336
-0.41233	0.02363
-0.48884	0.45726
-0.13181	-1.53234
0.35272	1.52859
0.63323	0.53379
0.86275	1.32453
0.70974	-0.99668
0.17421	-1.14973
-0.15732	0.04914
-0.20832	0.58480
-0.05531	-0.25695
0.30171	-0.79262
0.14870	-0.41000
0.30171	0.45726
-0.87136	-0.41000
-0.87136	0.38074
0.32721	0.30422
0.48022	2.34484
0.83725	-0.15492
0.27621	0.86539
0.63323	-0.89465
0.48022	-1.99148
-0.08081	0.27871
-0.10631	1.06945
-0.08081	1.17148
0.12320	1.17148
0.42922	-0.86914
0.30171	-1.20074
-0.08081	1.04394
-0.28482	-1.76191
-0.25932	0.73785
-0.00431	-0.05289
-0.08081	-0.35899
0.19971	0.66132
0.48022	1.57960
0.81175	0.83988
0.32721	-0.20594
-0.23382	0.63582
-0.69285	2.21730
-0.71835	-2.09351
0.48022	-0.76711
0.86275	-0.63957
0.12320	0.17668
0.25071	0.61031
0.42922	1.17148
0.48022	0.71234
0.42922	1.29902
-0.05531	0.48277
0.22521	-0.71609
0.27621	-2.88425
-0.20832	-0.99668
-0.25932	0.89089
-0.13181	1.09496
0.27621	-0.48652
0.17421	0.55929
0.88825	1.19699
0.73524	0.94191
0.09770	0.66132
-0.43783	0.25320
-0.51434	0.45726
0.09770	1.37554
0.68424	-1.86394
0.91375	-0.53754
0.42922	-0.86914
-0.13181	0.45726
-0.20832	0.99292
0.32721	0.45726
0.37822	0.86539
0.02119	-0.00188
0.40372	0.02363
0.40372	-0.10391
0.17421	-0.20594
-0.00431	1.29902
0.12320	-1.17523
0.30171	-0.43551
0.42922	0.68683
-0.02981	-0.10391
-0.20832	0.61031
-0.25932	0.66132
-0.08081	2.34484
0.02119	-2.14453
0.37822	-1.35379
0.68424	-0.38449
0.63323	1.22250
0.19971	1.73265
0.02119	1.14597
0.07220	-1.02219
0.50573	0.53379
-0.15732	-0.61406
-0.02981	0.58480
0.19971	0.30422
0.40372	1.12046
0.27621	-1.58336
0.14870	0.55929
0.02119	-0.38449
-0.10631	0.30422
0.14870	-0.18043
0.45472	-0.58856
0.02119	2.62542
0.45472	-0.81812
0.07220	-0.76711
0.30171	-0.10391
0.14870	1.06945
-0.13181	-0.56305
0.02119	0.55929
0.04670	0.40625
-0.15732	-0.25695
-0.13181	0.40625
0.12320	-0.05289
0.35272	0.68683
0.63323	1.96222
0.27621	-1.17523
-0.20832	-0.94566
-0.18282	-0.71609
0.12320	1.65613
0.07220	0.20219
0.60773	1.35003
0.63323	-0.79262
-0.08081	0.71234
-0.08081	0.17668
-0.20832	-0.12942
0.32721	-0.25695
0.55673	0.50828
0.50573	0.22769
0.30171	-0.05289
-0.97337	0.12566
-0.46334	0.17668
0.40372	-1.02219
0.50573	1.40105
0.53123	1.17148
0.22521	-2.19554
0.09770	-2.17003
-0.02981	0.89089
0.02119	1.04394
-0.08081	0.76336
0.09770	1.24800
-0.05531	0.73785
0.17421	0.73785
0.32721	-0.23145
0.09770	1.91120
0.02119	-0.86914
-0.56534	-0.92016
-0.43783	0.45726
0.70974	1.35003
0.63323	-1.86394
0.68424	-0.63957
0.55673	0.99292
0.09770	-2.01699
0.19971	1.73265
-0.05531	0.45726
0.17421	-1.02219
0.19971	0.89089
0.19971	0.27871
0.07220	1.24800
0.09770	0.61031
0.22521	-0.38449
0.27621	0.73785
0.19971	-0.56305
-0.82036	-1.99148
-0.71835	1.12046
-0.15732	-0.18043
0.81175	-0.25695
0.99026	1.52859
0.17421	0.43176
-0.23382	0.43176
0.27621	0.12566
0.63323	-1.04770
0.53123	-0.94566
0.02119	0.61031
0.25071	0.04914
0.12320	0.81437
0.50573	-0.41000
0.32721	1.06945
0.12320	0.94191
-0.28482	0.17668
-0.41233	-0.38449
-0.28482	-2.06800
-0.43783	0.32972
0.25071	0.38074
1.01576	2.52339
0.93925	-1.48133
0.53123	1.12046
0.17421	-1.07320
-0.25932	0.15117
0.02119	1.86019
0.53123	0.50828
0.48022	0.15117
0.12320	-0.20594
-0.13181	0.07465
-0.20832	0.12566
0.04670	-0.63957
0.25071	0.83988
0.19971	-0.94566
-0.13181	1.06945
0.09770	1.42656
0.19971	-1.40480
0.37822	-0.33348
0.65874	0.89089
-0.31033	0.61031
-0.38683	-0.15492
-0.08081	0.91640
0.48022	-0.33348
-0.05531	0.73785
0.32721	-2.34859
0.37822	-0.18043
0.12320	0.91640
0.27621	0.63582
0.19971	0.96742
0.40372	2.34484
0.22521	-0.97117
-0.05531	0.96742
-0.23382	0.30422
-0.25932	-2.88425
0.25071	1.63062
-0.00431	-0.30797
0.12320	0.45726
0.32721	-0.28246
0.07220	0.55929
0.32721	0.12566
0.48022	0.30422
0.50573	-0.15492
0.60773	0.76336
0.32721	0.58480
0.04670	0.96742
-0.38683	-0.35899
-0.71835	0.22769
-0.28482	0.63582
0.35272	-0.05289
0.09770	-1.48133
0.32721	0.91640
0.09770	0.20219
0.17421	1.12046
0.19971	-1.02219
-0.28482	0.91640
0.25071	0.66132
0.07220	0.83988
0.60773	1.57960
0.12320	-3.62398
-0.76936	-1.45582
-0.89686	1.91120
0.50573	-1.94047
0.91375	0.81437
0.55673	2.03874
0.35272	2.21730
0.45472	0.15117
0.65874	-0.74160
0.53123	0.43176
0.27621	-0.66508
-0.10631	-0.33348
-0.51434	0.61031
-0.02981	-1.81293
-0.20832	1.01843
-0.33583	0.91640
0.07220	1.40105
0.37822	0.04914
0.48022	-1.12422
0.32721	0.76336
0.48022	0.55929
0.17421	0.30422
0.14870	-0.48652
-0.00431	0.04914
-0.20832	0.32972
-0.18282	-0.10391
0.02119	-0.00188
0.73524	0.89089
0.65874	1.42656
-0.15732	-0.89465
-0.18282	0.76336
-0.20832	0.22769
0.83725	-0.28246
0.40372	-1.32828
0.32721	0.68683
-0.76936	0.17668
-0.23382	-0.86914
0.50573	0.63582
0.58223	1.65613
0.53123	0.96742
0.04670	-0.18043
0.17421	0.63582
0.22521	2.37034
0.07220	-0.43551
-0.02981	-1.73640
0.19971	-0.46102
0.25071	0.81437
0.17421	0.10015
-0.23382	1.27351
-0.53984	0.53379
-0.13181	-0.10391
0.32721	0.50828
0.45472	0.48277
0.91375	1.17148
0.73524	-0.46102
0.53123	-2.34859
-0.71835	0.22769
0.07220	1.04394
0.48022	1.52859
0.45472	0.32972
0.25071	0.86539
0.04670	-0.02739
0.04670	1.27351
-0.10631	-0.56305
0.02119	-0.76711
-0.48884	0.66132
0.19971	-0.00188
0.45472	-2.09351
0.40372	0.55929
0.12320	0.63582
-0.20832	1.37554
-0.13181	-0.33348
0.35272	0.81437
0.32721	0.76336
0.50573	0.02363
0.27621	2.26831
0.17421	-2.04250
-0.13181	-0.30797
0.25071	-1.04770
0.17421	-1.20074
0.14870	-0.86914
-0.71835	1.55410
0.07220	1.68163
0.63323	0.71234
0.63323	0.38074
0.30171	0.40625
0.02119	-0.56305
0.40372	-1.27726
0.22521	-0.79262
0.27621	0.66132
0.27621	0.61031
0.14870	-0.51203
-0.08081	0.04914
-0.38683	0.07465
-0.25932	-0.02739
-0.33583	0.96742
-0.10631	-0.02739
0.55673	-0.30797
0.58223	-0.15492
0.19971	0.68683
0.19971	0.81437
0.30171	0.45726
-0.13181	0.81437
-0.05531	-2.80773
0.48022	0.40625
0.32721	-0.43551
0.42922	2.57441
0.50573	-0.58856
0.12320	0.48277
0.02119	0.02363
-0.08081	0.50828
-0.08081	0.66132
-0.05531	-1.25176
0.17421	0.15117
0.30171	0.43176
0.04670	-0.48652
-0.02981	0.35523
0.17421	0.07465
-0.41233	1.22250
-0.46334	-0.97117
-0.23382	0.30422
-0.05531	-1.27726
0.70974	0.35523
0.96476	0.40625
1.14327	0.53379
0.86275	0.53379
0.30171	0.58480
-0.28482	0.40625
-0.43783	1.12046
0.09770	-0.43551
0.42922	-0.05289
0.32721	-0.53754
0.12320	-0.89465
-0.00431	2.80397
-0.66735	-1.63437
-0.36133	0.40625
0.12320	1.29902
0.32721	0.27871
0.45472	-0.74160
0.70974	0.27871
0.40372	0.94191
0.14870	0.68683
0.02119	-0.05289
0.14870	0.63582
0.25071	-3.70050
-0.02981	1.40105
-0.15732	1.47757
0.25071	0.12566
0.27621	-0.05289
0.09770	0.38074
0.07220	-0.20594
-0.69285	0.96742
0.14870	-1.07320
0.58223	0.58480
0.19971	0.89089
0.35272	0.50828
0.68424	-0.43551
0.60773	0.96742
0.60773	-0.05289
0.37822	-1.35379
0.14870	-0.51203
-0.31033	0.91640
-0.56534	0.94191
-0.20832	0.43176
0.12320	-2.27207
0.19971	-0.61406
0.42922	0.89089
0.53123	1.55410
0.35272	1.91120
-0.00431	-1.35379
-0.05531	0.02363
-0.48884	-0.23145
-0.38683	0.32972
-0.08081	1.27351
0.76074	-0.25695
0.73524	0.50828
0.45472	-1.02219
0.14870	0.15117
0.35272	-0.30797
0.37822	-0.79262
0.07220	0.78886
-0.23382	0.55929
-0.43783	1.65613
-0.15732	0.15117
0.09770	-2.85874
0.50573	0.86539
0.78624	1.04394
0.48022	1.68163
-0.13181	0.61031
-0.46334	0.07465
-0.13181	-0.07840
0.12320	-0.25695
0.50573	0.22769
0.40372	-0.86914
0.58223	0.32972
0.12320	0.07465
0.07220	-0.53754
0.17421	-0.46102
-0.18282	0.55929
0.53123	-0.25695
0.37822	0.78886
0.22521	-0.28246
0.02119	0.58480
-0.20832	0.61031
0.07220	-0.46102
0.17421	0.32972
0.02119	0.58480
0.02119	-0.48652
0.42922	-0.92016
0.42922	1.32453
0.35272	0.81437
-0.13181	-0.35899
-0.41233	-2.34859
-0.36133	0.50828
0.07220	0.96742
-0.08081	0.86539
0.55673	-0.84363
0.60773	0.68683
0.55673	1.14597
0.25071	-0.63957
0.04670	-0.66508
0.32721	1.37554
0.42922	-0.28246
0.17421	1.14597
-0.20832	-1.30277
-0.20832	0.81437
0.12320	0.76336
0.32721	-0.69059
-0.02981	0.71234
-0.71835	0.07465
0.12320	1.12046
0.86275	-0.43551
0.83725	0.50828
0.55673	0.58480
0.35272	0.76336
0.55673	-0.23145
0.70974	-0.20594
0.22521	-0.10391
-0.23382	-0.56305
-0.53984	-0.18043
-1.61091	0.15117
-0.20832	1.09496
0.60773	0.32972
0.63323	-0.79262
0.60773	1.27351
0.60773	0.99292
0.55673	1.17148
0.17421	-1.17523
-0.38683	-1.48133
0.02119	-0.46102
0.04670	0.07465
0.22521	1.86019
-0.00431	0.40625
0.02119	2.08976
0.22521	1.19699
0.40372	-0.12942
0.45472	-0.20594
0.27621	0.17668
0.22521	-1.50683
0.09770	0.12566
-0.02981	0.20219
-0.02981	1.14597
-0.31033	0.48277
-0.13181	0.02363
0.22521	-0.25695
0.25071	-0.38449
0.40372	0.30422
0.35272	0.61031
0.55673	0.66132
0.58223	-0.89465
0.45472	-1.53234
-0.02981	0.38074
0.14870	1.27351
0.14870	1.37554
-0.08081	0.32972
0.09770	-0.43551
0.32721	0.35523
-0.23382	0.32972
-0.76936	1.22250
-0.59084	-0.35899
0.48022	0.22769
0.93925	0.04914
0.40372	-0.43551
-0.51434	-0.30797
0.17421	-0.46102
0.12320	-0.51203
0.42922	1.14597
0.50573	0.81437
0.45472	0.25320
0.17421	-1.78742
0.02119	0.48277
0.37822	0.43176
0.30171	1.24800
0.14870	0.68683
-0.28482	-0.71609
-0.74385	0.35523
-0.48884	1.04394
0.14870	0.04914
0.53123	-0.71609
0.63323	-1.81293
0.63323	1.29902
0.17421	-0.38449
-0.28482	0.43176
-0.18282	0.83988
0.07220	1.40105
0.25071	-0.15492
0.32721	-0.05289
0.42922	-1.25176
0.53123	0.86539
0.25071	0.15117
0.19971	-0.53754
0.02119	1.63062
-0.15732	-0.66508
-0.10631	2.24281
0.04670	-1.30277
0.32721	-1.88945
0.22521	-2.60367
0.17421	1.80917
0.04670	2.59991
0.12320	0.50828
0.27621	-0.28246
0.35272	1.06945
-0.05531	0.43176
-0.23382	0.71234
0.27621	-1.35379
0.37822	0.58480
0.37822	1.06945
0.37822	0.43176
-0.02981	-0.74160
0.07220	-1.50683
-0.10631	0.35523
-0.38683	-0.81812
-0.69285	-0.10391
0.50573	0.17668
0.93925	2.70194
1.11776	0.30422
0.78624	0.76336
0.42922	-2.65468
0.14870	-1.14973
-0.05531	0.55929
-0.18282	1.45206
-0.48884	1.29902
-0.69285	-0.30797
-0.46334	1.73265
-0.02981	0.66132
0.40372	0.76336
0.50573	-1.76191
0.48022	0.66132
0.37822	0.22769
0.32721	0.12566
0.12320	-1.32828
0.37822	0.55929
0.40372	-1.07320
-0.25932	-0.58856
-0.64185	1.83468
-0.64185	0.99292
0.02119	2.57441
0.96476	-0.63957
1.29628	0.63582
0.65874	0.22769
-0.23382	0.25320
-0.25932	-0.15492
0.04670	1.17148
0.19971	-0.35899
0.07220	-0.63957
0.19971	0.27871
0.40372	0.55929
0.14870	-0.15492
0.42922	-0.81812
0.19971	-0.15492
0.09770	0.66132
-0.15732	0.78886
-0.43783	0.38074
-0.46334	-1.58336
0.35272	-2.19554
-0.10631	1.47757
-0.13181	0.94191
0.55673	1.01843
1.04126	0.73785
0.60773	1.98773
0.73524	1.68163
0.53123	-2.50164
0.12320	-0.41000
-0.36133	-1.58336
-0.33583	0.22769
0.04670	0.32972
0.04670	0.25320
-0.05531	1.17148
0.02119	1.22250
0.19971	-0.89465
0.32721	1.68163
0.02119	-0.58856
-0.48884	-2.55265
-0.25932	0.83988
0.53123	-0.35899
0.53123	0.53379
0.53123	0.48277
0.42922	0.45726
0.02119	-0.38449
-0.31033	0.20219
-0.18282	0.53379
0.27621	-0.25695
0.50573	0.99292
0.12320	-0.20594
0.07220	0.10015
0.14870	-1.76191
0.17421	-0.84363
0.25071	-0.69059
-0.20832	0.81437
0.25071	0.61031
-0.15732	1.27351
-0.43783	1.32453
0.09770	-0.20594
0.65874	-0.18043
0.42922	0.86539
0.40372	-0.97117
0.02119	-0.81812
0.25071	-1.96597
0.12320	1.27351
-0.36133	1.17148
-0.18282	-0.02739
0.27621	-0.05289
0.27621	0.58480
0.40372	1.06945
0.14870	0.86539
-0.08081	-0.94566
0.22521	0.43176
0.30171	-0.74160
0.27621	1.47757
0.25071	0.15117
0.12320	0.81437
-0.02981	-0.33348
-0.05531	-0.41000
0.14870	-1.32828
0.32721	0.30422
0.02119	1.45206
-0.10631	-1.07320
-0.18282	2.29382
-0.05531	-0.84363
0.17421	0.96742
0.17421	-1.25176
0.37822	1.14597
0.12320	0.10015
0.58223	-0.05289
0.53123	-0.51203
0.40372	0.68683
-0.28482	-0.69059
-0.38683	0.76336
0.02119	0.63582
0.25071	-0.05289
0.50573	-1.30277
0.37822	1.22250
0.09770	0.71234
-0.08081	-1.30277
-0.20832	-0.23145
-0.23382	1.37554
0.07220	0.50828
0.40372	0.76336
0.50573	-1.04770
0.27621	0.83988
0.17421	-0.48652
0.32721	-1.55785
0.14870	0.96742
-0.33583	-0.05289
0.17421	1.09496
0.25071	-0.10391
0.35272	0.35523
0.53123	1.55410
0.42922	-0.25695
0.30171	0.53379
0.27621	-1.20074
0.27621	-0.41000
0.02119	-0.46102
-0.23382	0.94191
-0.92237	-0.23145
-0.97337	-0.89465
0.12320	1.55410
0.60773	0.12566
1.06676	1.06945
0.83725	0.04914
0.19971	-0.48652
-0.00431	0.48277
-0.02981	1.57960
0.40372	-1.53234
0.30171	0.04914
-0.10631	1.40105
0.17421	0.81437
0.37822	0.40625
0.12320	-0.63957
0.07220	-1.02219
-0.10631	0.50828
0.09770	-0.51203
-0.10631	-0.76711
-0.00431	1.06945
0.02119	0.76336
0.02119	-0.25695
0.22521	0.15117
0.14870	0.66132
0.14870	0.35523
-0.08081	0.12566
0.14870	-0.86914
0.27621	0.78886
0.32721	1.29902
0.50573	-1.45582
0.27621	2.37034
0.48022	0.73785
0.63323	-0.30797
-0.71835	-1.65988
-0.99887	-0.35899
-0.18282	1.12046
0.50573	-0.18043
0.78624	0.12566
0.70974	0.25320
0.48022	1.24800
0.14870	-0.66508
-0.25932	-1.07320
-0.41233	1.63062
-0.33583	-0.33348
0.09770	-0.25695
0.37822	-0.20594
0.30171	0.96742
0.04670	0.53379
-0.00431	0.61031
0.09770	-0.35899
0.12320	-2.04250
-0.18282	0.48277
0.14870	-0.35899
0.42922	-1.27726
0.40372	0.73785
0.12320	-0.33348
0.14870	0.99292
-0.13181	0.71234
-0.20832	-0.81812
0.32721	1.45206
0.55673	-0.58856
0.60773	1.04394
0.32721	0.04914
0.04670	0.73785
-0.38683	-0.05289
-0.38683	-0.61406
0.63323	0.15117
0.12320	0.73785
0.25071	-1.20074
0.14870	1.57960
0.40372	0.35523
0.53123	0.25320
-0.13181	0.30422
-0.25932	0.25320
0.25071	-0.20594
0.22521	0.02363
0.30171	0.04914
0.55673	-0.84363
0.50573	1.57960
0.12320	0.61031
-0.08081	-0.46102
-0.18282	0.58480
0.17421	0.71234
0.35272	3.00804
0.42922	-3.03730
0.53123	0.43176
0.35272	-0.25695
0.35272	-1.07320
-0.08081	1.01843
-0.08081	-0.58856
0.07220	0.99292
0.09770	0.25320
0.19971	1.17148
0.19971	-0.10391
0.19971	0.25320
0.19971	-0.25695
-0.02981	-0.48652
0.19971	0.02363
0.27621	0.15117
0.19971	0.12566
-0.08081	0.30422
0.09770	0.58480
0.30171	-0.00188
0.53123	-0.00188
0.37822	-0.51203
0.48022	0.17668
0.25071	0.43176
0.02119	1.29902
-0.51434	-0.12942
-0.28482	0.50828
0.09770	-1.53234
0.73524	0.61031
0.32721	-0.41000
0.17421	1.45206
-0.15732	-0.05289
0.22521	1.37554
0.32721	-0.18043
0.40372	-1.40480
0.27621	0.89089
0.14870	-0.00188
0.04670	1.65613
-0.43783	0.55929
-0.08081	-1.17523
0.35272	0.94191
0.32721	0.32972
0.32721	-2.01699
0.12320	-0.58856
-0.41233	0.43176
-0.02981	0.32972
0.27621	-0.05289
0.53123	1.52859
0.55673	0.83988
0.30171	-0.58856
0.25071	0.10015
-0.18282	1.29902
-0.08081	-0.43551
0.25071	0.99292
0.07220	-0.02739
-0.33583	-1.20074
-0.51434	-0.35899
-0.20832	0.58480
0.63323	1.42656
0.70974	0.22769
0.68424	1.47757
0.37822	-1.25176
-0.08081	-2.32308
-0.00431	0.63582
0.19971	0.55929
0.12320	0.99292
-0.08081	1.06945
-0.41233	0.86539
-0.15732	-1.25176
0.37822	-1.65988
0.76074	0.91640
0.60773	1.47757
0.07220	0.94191
-0.13181	-1.30277
0.07220	-0.00188
0.17421	-0.94566
0.25071	-0.05289
0.02119	1.04394
-0.20832	0.50828
-0.05531	1.17148
0.30171	0.61031
0.45472	-0.02739
0.32721	0.86539
0.35272	-1.09871
0.40372	0.20219
0.07220	0.32972
0.02119	-0.35899
0.22521	-0.05289
0.22521	1.14597
-0.02981	1.60511
-0.10631	-4.15964
-0.08081	0.66132
0.07220	1.68163
-0.18282	0.86539
0.19971	0.71234
0.30171	0.53379
0.30171	0.25320
0.37822	0.25320
0.19971	-2.09351
-0.00431	0.53379
0.02119	-0.25695
-0.53984	1.12046
-0.08081	0.89089
0.60773	-1.48133
0.78624	0.12566
0.76074	0.71234
0.42922	1.40105
-0.15732	0.50828
-0.33583	0.32972
-0.31033	-0.18043
-0.25932	-1.71090
-0.05531	-0.23145
0.53123	-0.18043
0.07220	0.61031
-0.02981	1.91120
0.22521	0.35523
0.48022	2.03874
0.53123	1.47757
0.37822	-0.20594
0.35272	-1.02219
0.04670	-0.63957
-0.08081	-0.30797
-0.08081	-0.58856
-0.20832	0.32972
0.07220	0.07465
0.14870	0.53379
0.25071	0.53379
0.22521	0.43176
0.14870	0.10015
0.27621	1.37554
-0.10631	-0.66508
0.14870	-0.97117
0.32721	-0.05289
0.19971	0.55929
0.32721	0.99292
0.17421	0.63582
0.09770	0.02363
-0.08081	0.76336
-0.05531	0.35523
0.32721	0.30422
0.19971	-0.58856
-0.13181	-1.60887
0.53123	0.96742
0.78624	0.38074
0.86275	0.83988
0.17421	-0.69059
-0.28482	0.27871
-0.31033	1.29902
0.04670	-1.35379
0.27621	0.53379
0.35272	0.02363
0.73524	-0.12942
0.35272	1.47757
-0.00431	0.17668
-0.36133	-0.18043
-0.23382	0.27871
0.25071	-1.07320
0.27621	-0.18043
-0.00431	0.17668
0.27621	1.40105
0.09770	1.17148
0.14870	0.32972
0.14870	0.48277
0.17421	0.53379
0.12320	0.45726
0.35272	-0.58856
0.19971	-1.60887
-0.25932	-0.33348
-0.43783	0.30422
0.27621	-0.18043
0.45472	0.61031
0.76074	1.01843
0.73524	-0.15492
0.73524	-0.53754
0.22521	2.47238
-0.10631	-1.14973
0.25071	0.32972
0.25071	-0.05289
0.40372	-0.25695
0.02119	0.63582
-0.28482	0.63582
-0.10631	-0.25695
-0.48884	-0.33348
0.14870	0.35523
0.45472	1.04394
0.55673	0.43176
0.22521	-0.66508
-0.05531	-0.00188
0.02119	0.15117
0.22521	0.45726
0.32721	0.20219
0.09770	-0.20594
0.42922	0.12566
0.53123	0.12566
0.32721	-0.97117
-0.08081	-0.58856
-0.25932	2.08976
0.09770	-0.48652
0.14870	1.27351
0.07220	0.73785
-0.13181	-2.98628
-0.59084	1.80917
-0.46334	0.17668
0.27621	0.66132
0.60773	-0.00188
0.58223	0.35523
0.22521	0.40625
0.14870	-0.30797
0.19971	0.07465
0.42922	-0.46102
-0.10631	0.61031
-0.20832	-2.60367
-0.00431	0.15117
0.14870	0.15117
0.22521	1.60511
0.42922	0.86539
0.22521	1.37554
-0.00431	-0.43551
0.17421	0.71234
0.32721	-0.18043
0.19971	-2.34859
0.19971	0.86539
-0.00431	0.27871
-0.05531	1.14597
0.02119	-0.48652
0.07220	0.63582
0.32721	0.17668
0.30171	0.38074
0.14870	0.25320
-0.00431	-0.25695
-0.48884	-1.91496
-0.31033	-0.25695
0.42922	1.45206
0.40372	1.73265
0.73524	-0.92016
0.53123	0.12566
0.02119	-0.58856
-0.13181	0.91640
-0.05531	0.10015
0.02119	0.25320
-0.15732	1.35003
0.42922	-0.43551
0.50573	-1.17523
0.60773	0.45726
0.35272	0.63582
-0.08081	-0.07840
-0.33583	0.66132
-0.13181	0.15117
0.30171	1.37554
0.22521	-0.94566
0.12320	-1.20074
0.17421	0.71234
0.25071	-1.22625
0.12320	1.32453
0.14870	1.22250
-0.15732	-0.23145
0.12320	0.12566
0.22521	-0.20594
0.09770	0.35523
0.37822	1.22250
0.40372	-0.71609
0.35272	-1.17523
-0.18282	0.38074
-0.31033	0.53379
0.48022	-0.97117
0.32721	0.76336
0.58223	0.86539
0.37822	-0.10391
-0.02981	-0.66508
-0.08081	1.04394
0.30171	1.04394
0.27621	0.89089
0.58223	-1.32828
0.42922	-0.97117
-0.13181	-1.12422
-0.28482	0.78886
-0.05531	1.06945
-0.02981	0.35523
0.25071	1.78367
0.19971	-0.30797
0.09770	-1.32828
0.09770	0.04914
0.12320	0.76336
0.12320	1.22250
-0.02981	0.91640
0.35272	-1.09871
0.42922	-1.20074
0.45472	-0.46102
0.27621	1.24800
0.12320	0.73785
0.17421	1.32453
-0.02981	-3.21585
0.37822	0.40625
-0.23382	0.61031
-0.69285	1.75816
-0.05531	-0.02739
0.48022	0.45726
0.42922	-0.43551
0.53123	-0.00188
0.55673	0.55929
0.37822	0.20219
0.04670	-0.46102
-0.05531	-0.61406
-0.28482	0.32972
-0.10631	0.66132
0.07220	0.22769
0.09770	-1.35379
0.30171	0.99292
0.25071	0.50828
0.27621	0.48277
0.17421	-1.35379
0.04670	0.96742
0.07220	0.35523
-0.15732	-0.18043
0.37822	1.55410
0.53123	-0.58856
0.45472	0.48277
0.19971	1.19699
0.19971	0.73785
0.25071	-1.32828
0.17421	-0.12942
0.22521	-0.41000
0.12320	0.71234
0.14870	-0.18043
0.17421	-0.58856
0.14870	1.29902
0.12320	0.07465
-0.02981	0.32972
0.32721	0.66132
0.45472	-0.18043
0.30171	-0.56305
-0.08081	0.07465
-0.38683	-0.20594
-0.76936	-0.86914
0.12320	3.08456
0.81175	0.91640
0.93925	-1.04770
0.65874	-0.84363
0.50573	0.32972
0.09770	0.07465
-0.00431	-0.35899
-0.23382	0.76336
-0.25932	0.40625
0.14870	0.48277
0.12320	-1.02219
0.22521	0.38074
0.09770	0.02363
0.35272	0.17668
0.40372	1.27351
0.12320	-2.22105
-0.18282	1.22250
-0.33583	0.73785
0.09770	-0.48652
0.37822	-0.07840
0.37822	-0.41000
0.27621	-0.20594
0.32721	-0.89465
0.17421	0.81437
0.07220	0.38074
0.17421	0.38074
0.19971	-0.23145
-0.02981	0.71234
-0.23382	1.06945
-0.10631	-0.28246
0.14870	0.30422
0.40372	-1.17523
0.12320	0.35523
-0.10631	2.03874
-0.31033	-2.65468
0.17421	0.38074
0.30171	-0.18043
0.30171	0.55929
0.37822	0.81437
0.42922	1.29902
0.25071	-0.43551
-0.05531	-1.40480
-0.08081	0.38074
-0.02981	1.37554
0.19971	1.78367
0.17421	-3.08831
0.14870	-0.69059
0.02119	-0.02739
-0.08081	1.17148
-0.18282	0.94191
0.30171	0.22769
0.42922	0.48277
0.02119	-0.25695
0.32721	-0.10391
0.19971	-0.25695
0.17421	0.32972
0.42922	0.15117
0.48022	-0.43551
0.40372	0.30422
-0.10631	-0.07840
-0.53984	0.45726
-0.74385	0.78886
-0.18282	0.02363
0.42922	0.25320
0.53123	-0.30797
0.48022	1.09496
0.42922	-1.02219
0.68424	-0.46102
0.40372	0.78886
-0.13181	1.93671
-0.79486	-0.89465
-0.61635	-1.50683
0.32721	-0.94566
0.58223	1.37554
0.48022	0.35523
0.35272	0.58480
0.45472	2.03874
0.04670	0.73785
0.19971	-0.07840
0.17421	-0.38449
0.09770	-1.45582
-0.08081	-0.46102
-0.05531	0.63582
0.30171	1.04394
0.04670	0.30422
0.22521	-1.07320
0.02119	-0.02739
0.25071	2.57441
0.25071	-0.43551
0.12320	-3.39441
0.19971	1.01843
0.17421	1.17148
0.17421	1.09496
0.22521	-0.07840
0.07220	-0.07840
0.22521	0.10015
0.42922	0.81437
0.45472	0.04914
-0.36133	0.15117
-0.56534	-0.00188
-0.51434	-1.68539
-0.05531	-0.07840
0.76074	0.04914
0.42922	0.66132
0.37822	1.19699
0.25071	-0.41000
0.27621	1.14597
0.42922	0.15117
0.35272	0.45726
0.25071	-1.58336
0.12320	0.63582
-0.08081	1.73265
-0.99887	-1.12422
-1.04987	1.24800
0.53123	-0.48652
1.01576	-0.81812
0.99026	-0.41000
0.73524	0.43176
0.40372	0.32972
0.25071	0.04914
-0.20832	0.38074
-0.23382	0.68683
0.07220	0.25320
0.25071	0.07465
0.25071	0.12566
-0.00431	0.22769
-0.28482	-0.94566
-0.31033	-0.46102
-0.23382	0.86539
0.02119	0.32972
0.53123	-0.74160
0.73524	-0.46102
0.40372	-0.07840
0.40372	0.45726
0.42922	0.78886
0.19971	-1.12422
0.02119	1.22250
-0.00431	1.14597
-0.02981	2.34484
-0.33583	-0.58856
0.53123	-0.10391
0.37822	-0.66508
0.07220	-0.25695
0.27621	-0.15492
0.63323	0.15117
0.27621	0.55929
0.19971	0.45726
-0.20832	0.25320
-0.18282	0.45726
0.09770	0.20219
0.27621	0.02363
0.12320	0.55929
0.04670	-1.65988
0.37822	-0.69059
0.37822	0.53379
0.58223	1.09496
0.12320	1.37554
-0.36133	-0.76711
-0.00431	-0.35899
0.40372	0.86539
0.04670	-0.46102
0.25071	0.61031
0.30171	-0.15492
0.14870	0.55929
