-0.08081	0.20219
0.12320	0.12566
0.27621	0.17668
0.19971	0.17668
-0.05531	0.20219
0.09770	0.04914
0.48022	0.17668
0.12320	0.15117
0.22521	0.20219
0.07220	0.12566
0.22521	0.15117
0.09770	0.12566
0.09770	0.15117
0.19971	0.22769
0.04670	0.17668
0.27621	0.10015
0.02119	0.15117
-0.13181	0.15117
0.27621	0.15117
0.22521	0.15117
0.27621	0.15117
0.25071	0.07465
0.19971	0.20219
0.19971	0.04914
0.27621	0.20219
0.02119	0.12566
0.02119	0.17668
0.22521	0.17668
0.17421	0.15117
0.12320	0.17668
0.12320	0.15117
0.14870	0.17668
0.17421	0.25320
0.07220	0.10015
0.17421	0.12566
0.07220	0.17668
0.09770	0.12566
0.12320	0.22769
0.17421	0.07465
0.22521	0.27871
0.14870	0.15117
0.19971	0.25320
0.07220	0.15117
0.02119	0.10015
0.09770	0.20219
0.19971	0.04914
0.12320	0.10015
0.17421	0.22769
0.12320	0.10015
0.22521	0.12566
0.17421	0.12566
0.02119	0.10015
0.27621	0.15117
0.02119	0.12566
0.17421	0.20219
0.27621	0.17668
0.25071	0.02363
-0.00431	0.10015
0.04670	0.17668
0.45472	0.12566
0.14870	0.17668
0.09770	0.22769
0.19971	0.22769
0.04670	0.04914
0.19971	0.15117
0.02119	0.04914
0.14870	0.22769
0.04670	0.12566
0.22521	0.22769
0.17421	0.15117
0.17421	0.17668
-0.00431	0.15117
0.19971	0.15117
0.27621	0.17668
0.25071	0.12566
0.17421	0.15117
-0.00431	0.10015
0.14870	0.07465
0.14870	0.27871
0.12320	0.07465
0.25071	0.17668
0.09770	0.17668
0.12320	0.17668
0.07220	0.15117
-0.00431	0.10015
0.17421	0.20219
0.09770	0.12566
0.35272	0.15117
0.12320	0.17668
-0.08081	0.12566
0.12320	0.12566
0.25071	0.27871
0.17421	0.10015
0.25071	0.17668
-0.00431	-0.00188
0.17421	0.22769
0.17421	0.02363
0.19971	0.22769
0.09770	0.07465
0.12320	0.20219
-0.00431	0.15117
0.09770	0.20219
0.14870	0.10015
0.25071	0.20219
0.07220	0.10015
0.22521	0.17668
0.09770	-0.02739
0.25071	0.22769
0.14870	0.07465
0.14870	0.20219
0.12320	0.10015
0.07220	0.27871
0.09770	0.12566
0.25071	0.12566
0.27621	0.10015
-0.05531	0.10015
0.17421	0.15117
0.22521	0.15117
0.14870	0.17668
0.14870	0.10015
0.32721	0.25320
0.17421	0.17668
0.37822	0.12566
-0.02981	0.15117
-0.23382	0.07465
0.02119	0.25320
0.22521	0.02363
0.22521	0.15117
0.17421	0.17668
0.27621	0.20219
0.12320	0.04914
0.22521	0.20219
0.09770	0.12566
0.14870	0.20219
0.09770	0.07465
0.22521	0.17668
0.07220	0.02363
0.17421	0.27871
0.07220	0.10015
0.19971	0.25320
0.12320	0.10015
0.19971	0.25320
0.02119	0.17668
0.22521	0.10015
0.22521	0.20219
0.09770	0.07465
0.22521	0.20219
0.04670	0.10015
0.19971	0.27871
0.19971	0.17668
0.14870	0.17668
0.07220	0.10015
0.14870	0.15117
0.14870	0.15117
0.07220	-0.00188
0.19971	0.17668
0.22521	-0.00188
0.19971	0.22769
-0.00431	0.15117
0.12320	0.07465
0.07220	0.20219
0.12320	0.17668
0.32721	0.30422
0.32721	0.04914
0.09770	0.10015
0.02119	0.07465
0.27621	0.07465
0.22521	0.15117
0.12320	0.17668
0.09770	0.25320
0.02119	0.07465
0.25071	0.15117
0.07220	0.15117
0.09770	0.17668
0.22521	0.15117
0.07220	0.07465
0.12320	0.20219
0.17421	0.12566
0.12320	0.20219
0.12320	0.15117
0.17421	0.12566
0.19971	0.17668
0.14870	0.07465
0.14870	0.15117
0.12320	0.04914
0.27621	0.10015
0.12320	0.17668
0.04670	0.12566
0.19971	0.10015
0.02119	0.10015
-0.00431	0.17668
0.32721	0.10015
0.17421	0.25320
-0.00431	0.12566
0.14870	0.12566
0.19971	0.20219
0.14870	0.07465
0.25071	0.17668
0.12320	0.15117
0.12320	0.30422
0.09770	0.15117
0.17421	0.15117
0.22521	0.20219
0.12320	0.07465
0.07220	0.15117
0.12320	0.17668
0.12320	0.07465
0.14870	0.12566
0.04670	0.15117
0.14870	0.07465
0.04670	0.22769
0.07220	0.20219
0.14870	0.15117
0.22521	0.20219
0.27621	0.07465
0.27621	0.20219
-0.00431	0.07465
0.12320	0.25320
0.12320	0.22769
0.17421	0.07465
-0.00431	0.25320
0.04670	0.17668
0.14870	0.22769
0.14870	0.07465
0.27621	0.07465
0.17421	0.17668
0.14870	0.04914
0.17421	0.22769
0.04670	0.10015
0.19971	0.20219
0.12320	0.12566
0.04670	0.12566
0.12320	0.25320
0.35272	0.12566
0.17421	-0.00188
0.04670	0.20219
0.09770	0.12566
0.19971	0.22769
0.17421	0.15117
0.02119	0.15117
0.02119	0.12566
0.40372	0.10015
0.25071	0.25320
0.07220	0.12566
0.14870	0.10015
0.22521	0.20219
0.09770	0.04914
0.17421	0.15117
0.04670	0.12566
0.12320	0.20219
0.12320	0.25320
0.14870	0.17668
0.17421	0.20219
0.07220	0.12566
0.22521	0.17668
0.09770	0.04914
0.09770	0.15117
0.12320	0.07465
0.22521	0.17668
0.09770	0.17668
0.30171	0.15117
0.14870	0.22769
0.07220	0.17668
-0.08081	0.15117
0.17421	0.15117
0.48022	0.15117
-0.05531	0.12566
0.25071	0.12566
0.19971	0.12566
0.04670	0.15117
0.07220	0.10015
0.12320	0.15117
0.12320	0.20219
0.27621	0.17668
0.07220	0.15117
0.17421	0.12566
0.09770	0.17668
0.19971	0.02363
0.17421	0.32972
0.12320	0.04914
0.12320	0.17668
0.12320	0.25320
0.19971	0.10015
0.07220	0.17668
0.12320	0.15117
0.12320	0.10015
0.12320	-0.00188
0.17421	0.20219
0.09770	0.15117
0.22521	0.20219
0.09770	0.15117
0.22521	0.15117
0.14870	0.25320
0.14870	0.07465
0.09770	0.20219
0.09770	0.10015
0.19971	0.20219
0.09770	0.15117
0.14870	0.20219
0.07220	0.10015
0.12320	0.22769
0.09770	0.15117
0.30171	0.15117
0.17421	0.12566
0.22521	0.15117
0.07220	0.12566
-0.10631	0.10015
0.22521	0.10015
0.30171	0.17668
0.07220	0.12566
-0.00431	0.25320
0.14870	0.10015
0.12320	0.20219
0.27621	0.12566
0.37822	0.15117
0.22521	0.10015
0.12320	0.10015
0.17421	0.12566
0.04670	0.10015
0.17421	0.22769
0.07220	0.12566
0.09770	0.27871
0.04670	0.04914
0.07220	0.20219
0.12320	0.07465
0.14870	0.22769
0.19971	0.10015
0.17421	0.17668
0.14870	0.15117
0.17421	0.07465
0.19971	0.15117
0.12320	0.20219
0.17421	0.25320
0.14870	0.12566
0.17421	0.17668
0.12320	0.07465
0.12320	0.17668
0.07220	0.15117
0.22521	0.20219
0.09770	0.12566
0.22521	0.25320
0.12320	0.12566
0.14870	0.17668
0.07220	0.10015
0.14870	0.15117
0.19971	0.10015
0.14870	0.15117
0.12320	0.12566
0.02119	0.10015
0.09770	0.17668
0.32721	0.12566
0.09770	0.15117
0.14870	0.15117
0.22521	0.15117
0.09770	0.20219
0.12320	0.07465
0.04670	0.20219
0.12320	0.12566
0.14870	0.17668
0.17421	0.17668
0.27621	0.15117
0.07220	0.20219
0.14870	0.04914
0.14870	0.10015
-0.05531	0.15117
0.17421	0.15117
0.19971	0.12566
0.07220	0.20219
0.09770	0.15117
0.14870	0.17668
0.12320	0.22769
0.17421	0.10015
0.22521	0.22769
0.17421	0.10015
0.19971	0.10015
0.09770	0.10015
-0.08081	0.02363
-0.05531	0.15117
0.32721	0.10015
0.14870	0.22769
0.07220	0.15117
0.27621	0.20219
0.14870	0.17668
0.07220	0.17668
0.14870	0.17668
0.22521	0.07465
0.12320	0.15117
0.14870	0.10015
0.14870	0.22769
0.14870	0.10015
0.19971	0.15117
0.02119	0.15117
0.19971	0.25320
0.12320	0.17668
0.17421	0.04914
0.14870	0.15117
0.04670	0.07465
0.17421	0.20219
0.12320	0.15117
0.22521	0.20219
0.12320	0.10015
0.22521	0.22769
0.02119	0.15117
0.27621	0.17668
0.17421	0.04914
0.12320	0.12566
-0.10631	0.12566
0.19971	0.15117
-0.05531	0.17668
0.40372	0.15117
0.14870	0.17668
0.22521	0.17668
0.22521	0.15117
0.04670	0.15117
0.19971	0.20219
0.09770	0.04914
0.30171	0.20219
-0.20832	0.10015
0.19971	0.20219
0.07220	0.17668
0.14870	0.07465
0.27621	0.27871
0.07220	0.17668
0.09770	0.20219
0.07220	0.15117
0.25071	0.22769
0.12320	0.07465
0.14870	0.15117
0.07220	0.15117
0.17421	0.22769
0.09770	0.10015
0.17421	0.20219
0.12320	0.17668
0.14870	0.10015
0.14870	0.15117
0.09770	0.02363
0.17421	0.17668
0.09770	0.12566
0.17421	0.17668
0.09770	0.15117
0.12320	0.07465
0.14870	0.17668
0.14870	0.15117
0.27621	0.22769
0.04670	0.12566
0.07220	0.20219
0.02119	0.04914
0.22521	0.20219
0.07220	0.04914
0.25071	0.20219
0.27621	0.10015
0.35272	0.25320
0.12320	0.07465
0.04670	0.17668
0.04670	0.10015
0.12320	0.12566
0.09770	0.12566
0.14870	0.10015
0.14870	0.30422
0.09770	0.04914
0.25071	0.17668
0.09770	0.15117
0.17421	0.12566
-0.02981	0.12566
0.27621	0.15117
0.19971	0.12566
0.19971	0.15117
0.07220	0.15117
0.19971	0.15117
0.17421	0.12566
0.09770	0.20219
0.09770	0.20219
0.17421	0.04914
0.17421	0.17668
0.07220	0.10015
0.14870	0.17668
0.02119	0.04914
0.25071	0.20219
0.12320	0.07465
0.04670	0.15117
0.14870	0.12566
0.22521	0.25320
0.09770	0.15117
0.22521	0.15117
0.09770	0.07465
0.14870	0.12566
0.04670	0.12566
0.22521	0.22769
0.12320	0.15117
0.27621	0.30422
0.12320	0.07465
0.04670	0.22769
-0.00431	0.12566
0.22521	0.20219
0.12320	0.02363
0.32721	0.25320
0.09770	-0.00188
0.22521	0.15117
0.14870	0.00000
0.09770	0.00000
0.27621	0.22769
0.02119	0.12566
0.12320	0.22769
-0.00431	0.12566
0.14870	0.15117
0.22521	0.25320
0.12320	0.02363
0.12320	0.07465
0.25071	0.20219
0.12320	0.07465
0.14870	0.15117
0.12320	0.22769
0.07220	0.12566
0.17421	0.15117
0.14870	0.17668
0.07220	0.07465
0.30171	0.15117
-0.08081	0.12566
0.19971	0.12566
0.19971	0.17668
0.12320	0.10015
0.19971	0.20219
0.12320	0.15117
0.25071	0.22769
0.27621	0.25320
0.02119	0.04914
-0.08081	0.15117
0.07220	0.20219
0.19971	0.10015
0.30171	0.22769
0.19971	0.10015
0.09770	0.10015
0.19971	0.20219
0.07220	0.20219
0.12320	0.15117
0.12320	0.02363
0.12320	0.07465
0.22521	0.25320
0.07220	0.25320
0.17421	0.10015
0.12320	0.02363
0.19971	0.22769
0.12320	0.15117
0.14870	0.17668
0.17421	0.17668
0.17421	0.17668
0.19971	0.25320
0.12320	0.04914
0.17421	0.17668
0.12320	0.15117
-0.08081	0.07465
-0.02981	0.20219
0.32721	0.30422
0.37822	0.04914
0.27621	0.12566
0.17421	0.04914
0.02119	0.20219
0.14870	0.12566
-0.05531	0.15117
0.09770	0.30422
0.22521	0.04914
0.17421	0.12566
0.02119	1.40105
0.35272	-1.78742
0.22521	0.25320
0.30171	0.15117
0.12320	-2.22105
-0.31033	0.10015
-0.28482	1.78367
0.55673	1.57960
0.25071	0.61031
0.42922	1.19699
0.27621	-0.07840
0.40372	2.37034
-0.18282	-1.17523
-0.51434	-6.86346
-0.10631	-0.79262
0.40372	1.65613
0.37822	0.66132
0.19971	1.60511
0.35272	1.57960
0.27621	0.96742
0.12320	0.94191
0.17421	-0.43551
0.19971	-0.02739
0.02119	-1.35379
-0.02981	1.47757
0.02119	-2.80773
0.22521	1.50308
0.50573	2.47238
-0.10631	1.35003
-0.20832	-12.29661
0.02119	-2.42511
0.12320	3.11007
0.17421	3.59471
0.25071	3.00804
0.30171	-0.58856
0.12320	1.04394
0.14870	1.63062
0.14870	2.47238
0.04670	2.11527
0.25071	-0.48652
0.12320	-2.70570
0.12320	-2.24656
0.12320	-0.48652
0.04670	0.20219
0.12320	0.10015
0.09770	-0.18043
0.09770	0.86539
0.14870	0.76336
0.22521	2.03874
0.22521	-2.22105
0.37822	2.85499
0.02119	-8.54697
0.07220	0.86539
0.07220	2.29382
0.37822	1.73265
0.30171	1.60511
-0.02981	1.01843
0.27621	1.68163
0.19971	-0.84363
-0.08081	-0.28246
-0.23382	-2.27207
0.14870	0.99292
0.40372	-0.25695
0.22521	0.94191
0.32721	0.89089
0.22521	0.68683
0.02119	-0.10391
0.30171	0.02363
0.65874	0.32972
-0.28482	0.04914
-0.13181	0.35523
0.02119	0.45726
0.12320	-0.79262
-0.05531	-1.07320
0.14870	-1.04770
0.19971	0.76336
-0.00431	1.06945
0.48022	0.99292
0.32721	1.32453
0.25071	-1.63437
0.14870	1.52859
0.35272	0.53379
0.25071	-4.82284
-0.28482	2.08976
-0.28482	1.42656
0.35272	1.06945
0.12320	-0.15492
0.17421	0.32972
0.17421	1.60511
0.30171	-2.39961
0.27621	3.49268
0.12320	-2.80773
0.07220	-0.05289
0.12320	0.43176
0.17421	0.04914
0.22521	0.71234
0.19971	0.71234
0.07220	-0.58856
0.09770	-0.94566
0.09770	-2.09351
0.27621	-0.46102
0.27621	0.55929
0.12320	0.73785
-0.48884	1.45206
0.12320	-2.09351
0.30171	0.91640
0.09770	0.63582
0.27621	-0.56305
0.19971	1.17148
0.27621	0.61031
0.09770	-0.38449
0.19971	0.76336
0.32721	-0.86914
-0.18282	-0.02739
0.09770	0.58480
0.17421	0.32972
0.37822	0.43176
0.22521	-1.14973
0.07220	0.45726
-0.00431	0.35523
0.17421	-0.02739
0.07220	1.27351
0.07220	0.40625
0.42922	-0.69059
0.17421	1.40105
0.02119	0.58480
0.27621	-0.23145
0.12320	-1.76191
0.14870	-3.06281
0.17421	0.43176
0.17421	3.36515
0.12320	2.85499
0.14870	-1.37929
0.14870	0.71234
0.12320	0.99292
0.07220	0.48277
0.04670	-0.12942
0.32721	-0.18043
0.07220	0.04914
-0.05531	-0.05289
0.04670	-1.20074
0.32721	-0.35899
0.40372	-0.25695
0.27621	-0.00188
0.14870	0.35523
-0.00431	0.20219
0.14870	0.15117
0.12320	0.04914
0.25071	0.86539
0.09770	0.32972
0.17421	0.22769
0.12320	-0.12942
0.22521	1.06945
0.14870	0.04914
-0.02981	0.27871
-0.00431	0.27871
0.25071	0.30422
0.37822	0.02363
0.12320	0.27871
0.14870	-1.48133
-0.05531	-1.30277
0.22521	1.70714
0.04670	1.24800
0.25071	0.89089
0.25071	-0.71609
0.07220	-1.35379
0.22521	1.42656
0.07220	-0.41000
0.12320	1.55410
0.12320	-0.89465
0.02119	0.53379
0.17421	-0.05289
0.07220	0.10015
0.07220	1.55410
0.07220	-0.28246
0.09770	-0.07840
0.37822	-0.00188
0.32721	0.04914
0.19971	-0.38449
0.19971	0.55929
0.04670	0.48277
0.07220	-1.37929
0.12320	0.38074
0.14870	0.86539
0.12320	0.10015
0.22521	0.86539
0.12320	0.45726
0.09770	-0.33348
0.25071	-1.07320
0.14870	0.94191
0.14870	1.22250
-0.02981	-0.94566
0.14870	-0.23145
0.30171	0.91640
0.14870	0.27871
0.04670	-0.46102
0.19971	-0.43551
0.25071	0.73785
0.12320	0.55929
0.07220	0.40625
0.27621	0.02363
0.07220	-0.51203
0.14870	0.20219
0.27621	0.45726
0.22521	0.35523
-0.02981	-0.69059
0.09770	-0.25695
0.09770	0.73785
0.25071	1.09496
0.12320	-0.18043
0.04670	-0.38449
0.09770	0.83988
0.17421	1.14597
0.37822	-1.27726
0.17421	-0.05289
0.07220	0.50828
0.22521	-0.46102
0.04670	0.96742
0.17421	-1.07320
-0.00431	-0.51203
0.14870	1.32453
0.07220	1.04394
0.30171	0.25320
0.09770	0.58480
0.07220	0.22769
0.02119	-0.69059
0.22521	-0.35899
0.22521	0.30422
0.14870	0.02363
0.19971	0.35523
0.12320	0.17668
0.17421	-0.18043
-0.00431	-0.18043
0.30171	0.50828
0.25071	0.45726
-0.05531	0.55929
-0.08081	-0.12942
0.04670	0.27871
0.25071	0.43176
-0.08081	0.30422
0.14870	-0.02739
0.35272	-0.56305
0.22521	0.86539
0.14870	0.12566
0.25071	0.43176
0.19971	-0.86914
0.07220	0.25320
-0.08081	0.45726
0.17421	0.12566
-0.00431	0.94191
0.17421	-1.27726
0.25071	0.99292
0.17421	0.53379
0.22521	-0.41000
-0.00431	0.96742
0.17421	-2.04250
0.12320	0.25320
0.17421	0.66132
0.07220	-0.10391
0.02119	0.17668
0.14870	0.71234
0.27621	1.06945
0.19971	-0.46102
0.07220	0.40625
0.27621	-0.56305
0.07220	0.40625
0.12320	-0.07840
0.17421	-0.07840
0.12320	0.38074
0.14870	1.57960
-0.05531	-0.66508
0.19971	-0.20594
0.22521	0.20219
0.25071	-0.20594
0.09770	0.73785
0.32721	0.20219
0.12320	0.07465
0.19971	-0.18043
-0.13181	-0.18043
-0.02981	0.45726
0.12320	0.22769
0.42922	0.43176
0.32721	0.15117
0.22521	0.15117
-0.00431	0.55929
0.04670	0.53379
-0.00431	-0.86914
0.22521	0.10015
0.09770	0.38074
0.25071	0.45726
0.25071	0.40625
0.14870	-1.50683
0.09770	0.89089
0.02119	1.04394
0.17421	-0.76711
0.27621	-1.04770
0.14870	0.58480
0.12320	1.24800
0.17421	0.91640
0.07220	-0.00188
0.09770	-1.65988
0.17421	0.12566
0.07220	0.76336
0.22521	1.22250
0.09770	-0.30797
0.14870	0.22769
0.27621	-0.15492
0.12320	0.68683
0.12320	0.53379
0.14870	-0.02739
0.22521	0.76336
0.25071	-0.00188
0.09770	0.04914
0.22521	0.35523
0.07220	-0.58856
0.02119	0.81437
0.07220	-0.71609
0.14870	0.07465
0.12320	0.25320
0.30171	-0.56305
0.04670	0.15117
0.37822	0.35523
-0.02981	0.04914
0.07220	0.55929
0.17421	0.55929
0.40372	0.17668
0.17421	0.30422
0.25071	-0.35899
-0.13181	0.27871
0.09770	0.27871
0.27621	0.27871
0.14870	0.07465
0.02119	0.12566
-0.15732	0.35523
0.25071	0.48277
0.40372	-1.20074
-0.00431	0.71234
0.07220	0.50828
0.14870	0.32972
0.22521	-0.28246
0.12320	-0.92016
0.32721	-1.50683
0.27621	1.40105
0.30171	1.17148
0.14870	0.81437
0.12320	-0.94566
-0.02981	0.66132
0.07220	0.66132
0.14870	-0.66508
0.17421	0.81437
-0.02981	0.27871
0.27621	-0.53754
0.17421	-0.63957
0.32721	0.22769
0.02119	0.15117
-0.05531	0.22769
0.22521	0.15117
0.27621	0.38074
0.35272	0.02363
0.02119	0.22769
0.14870	0.17668
0.02119	0.10015
0.17421	0.40625
0.07220	0.38074
0.14870	0.40625
0.14870	-0.07840
0.09770	-0.46102
0.17421	0.58480
0.14870	0.83988
0.19971	-0.99668
0.25071	0.53379
0.14870	0.55929
-0.31033	-0.66508
-0.10631	0.50828
0.35272	0.76336
0.45472	0.38074
0.30171	-0.92016
0.25071	-0.48652
0.12320	0.86539
0.25071	0.86539
0.09770	0.27871
-0.05531	0.20219
0.25071	-0.99668
0.12320	0.76336
-0.02981	0.30422
0.17421	0.25320
0.30171	0.25320
-0.38683	0.61031
0.50573	-0.15492
0.19971	-0.48652
-0.48884	0.15117
0.07220	0.27871
0.53123	0.10015
0.17421	-0.23145
0.37822	0.12566
0.30171	0.32972
0.37822	-0.38449
0.14870	0.50828
-0.18282	0.32972
-0.13181	0.32972
0.50573	0.27871
-0.00431	-0.28246
0.22521	0.48277
0.37822	0.68683
-0.00431	0.45726
-0.18282	-1.22625
0.27621	-0.51203
0.22521	1.06945
0.42922	0.04914
0.22521	0.38074
-0.76936	0.35523
-0.18282	0.45726
0.63323	0.63582
0.37822	0.22769
0.53123	-0.02739
0.14870	-1.04770
0.19971	0.45726
-0.00431	-1.32828
0.27621	0.96742
0.17421	0.53379
0.12320	0.58480
0.19971	0.55929
0.02119	0.45726
0.07220	0.55929
0.22521	-0.89465
0.17421	-0.02739
0.30171	-1.02219
-0.15732	0.71234
0.04670	0.86539
-0.18282	0.35523
0.04670	0.45726
0.04670	0.91640
0.63323	-0.15492
0.35272	0.32972
0.53123	-0.30797
0.04670	-0.05289
-0.20832	0.78886
0.07220	-0.71609
0.22521	0.35523
0.14870	-0.30797
0.35272	-0.41000
0.02119	0.45726
0.09770	1.47757
0.12320	0.35523
0.07220	0.17668
0.09770	0.02363
0.07220	-0.05289
0.14870	0.73785
0.17421	-0.48652
0.19971	-0.25695
-0.02981	-0.86914
0.32721	0.27871
0.25071	0.17668
-0.00431	0.81437
0.27621	0.25320
0.37822	0.45726
-0.08081	-0.46102
0.12320	-0.89465
0.09770	0.83988
0.37822	0.15117
0.22521	0.17668
-0.00431	0.25320
0.53123	0.10015
0.32721	0.35523
-1.12638	0.35523
-0.08081	-0.58856
0.55673	0.35523
0.50573	-0.69059
0.32721	0.43176
0.35272	0.40625
0.12320	1.01843
-0.15732	0.12566
0.22521	-0.07840
0.25071	-1.40480
0.12320	0.61031
0.12320	0.86539
0.02119	0.38074
0.07220	0.12566
0.22521	-0.12942
0.17421	-0.46102
0.32721	0.94191
-0.08081	1.01843
-0.02981	-0.23145
0.35272	0.38074
0.68424	-0.66508
-0.33583	0.35523
0.09770	-1.58336
0.04670	0.94191
0.19971	-0.53754
0.32721	-0.02739
0.22521	0.61031
0.19971	1.14597
0.17421	1.27351
0.02119	0.32972
0.32721	-1.09871
0.07220	-1.68539
-0.10631	0.48277
0.32721	1.35003
-0.25932	-0.12942
-0.18282	0.30422
0.32721	0.02363
0.48022	0.66132
0.17421	0.63582
0.12320	-0.66508
0.32721	0.45726
0.09770	0.12566
0.12320	-0.35899
0.07220	0.10015
0.19971	0.15117
0.07220	-0.15492
0.12320	0.38074
0.09770	0.45726
0.19971	-0.33348
-0.00431	0.32972
0.22521	0.12566
0.19971	0.61031
0.30171	-0.18043
0.02119	-0.48652
0.19971	0.35523
0.32721	0.61031
-0.20832	0.25320
0.30171	0.55929
0.19971	-0.74160
-0.08081	0.38074
0.22521	-1.76191
0.32721	0.96742
-0.05531	0.86539
0.14870	0.58480
0.25071	0.53379
0.42922	-2.09351
0.12320	0.91640
0.55673	0.63582
-0.38683	0.50828
-0.41233	0.76336
0.12320	-0.20594
0.35272	-0.46102
0.14870	-0.38449
0.25071	0.71234
0.22521	0.40625
0.07220	-0.74160
0.07220	0.30422
0.14870	0.17668
0.17421	-0.10391
0.09770	0.81437
0.27621	0.55929
0.14870	-0.43551
0.22521	-0.46102
0.02119	-0.33348
0.25071	0.86539
0.17421	0.25320
0.14870	0.66132
0.37822	0.04914
-0.20832	-0.46102
-0.28482	0.91640
0.02119	0.78886
0.45472	0.50828
0.42922	0.58480
0.42922	-0.51203
-0.05531	-0.05289
0.17421	0.35523
0.22521	0.50828
0.19971	-0.30797
0.17421	-1.99148
0.09770	0.45726
0.42922	0.66132
0.07220	0.48277
-0.53984	0.58480
0.12320	0.32972
0.48022	0.25320
0.30171	-0.05289
0.27621	0.35523
0.09770	0.02363
0.14870	0.35523
0.19971	-0.66508
0.09770	-0.46102
0.12320	0.81437
0.02119	0.50828
0.22521	0.27871
0.17421	-0.38449
0.12320	0.63582
0.12320	0.71234
0.07220	0.32972
0.30171	-0.46102
0.19971	-1.32828
0.14870	0.68683
0.12320	0.71234
0.02119	0.50828
0.09770	-0.15492
0.25071	-0.20594
0.22521	-0.07840
0.32721	0.73785
0.17421	-0.18043
-0.05531	0.30422
0.14870	0.48277
0.12320	0.38074
0.17421	0.17668
0.32721	-0.38449
0.12320	-0.43551
-0.10631	0.76336
0.22521	-0.18043
0.07220	0.43176
0.19971	-0.25695
0.58223	0.53379
-0.18282	-0.12942
-0.33583	0.66132
0.35272	-0.28246
0.32721	0.35523
0.32721	-0.28246
0.09770	0.32972
0.12320	0.61031
0.17421	0.15117
0.25071	0.12566
0.19971	0.35523
-0.08081	0.45726
0.07220	-1.04770
0.14870	0.73785
-0.00431	-0.02739
0.12320	-0.35899
0.22521	-0.05289
0.04670	-0.33348
0.14870	0.55929
0.27621	0.43176
0.19971	0.04914
0.30171	1.22250
0.30171	-0.46102
0.12320	0.25320
0.04670	-0.38449
-0.10631	-0.69059
0.30171	-0.15492
0.83725	0.38074
0.09770	0.30422
-0.89686	0.71234
-0.00431	1.06945
0.55673	0.10015
0.27621	-0.00188
0.35272	-0.10391
0.37822	-0.76711
0.02119	0.35523
0.09770	0.04914
0.17421	0.27871
0.22521	0.27871
0.12320	0.04914
-0.05531	0.35523
-0.10631	0.25320
-0.02981	-0.43551
0.27621	0.12566
0.19971	0.17668
0.14870	0.17668
0.14870	0.25320
0.19971	0.35523
0.30171	0.04914
0.04670	0.45726
0.17421	0.55929
0.07220	-0.25695
0.25071	0.35523
0.22521	-0.53754
0.22521	0.12566
0.09770	0.25320
0.12320	-1.14973
-0.13181	0.83988
-0.05531	0.83988
0.19971	-0.23145
0.30171	0.81437
0.25071	0.86539
0.22521	-0.07840
0.09770	-0.63957
0.17421	0.32972
-0.00431	-0.10391
0.25071	0.25320
0.04670	-0.07840
0.60773	0.35523
-0.18282	0.68683
-0.51434	0.04914
0.19971	-0.99668
0.53123	0.43176
0.42922	-0.02739
0.22521	0.73785
0.02119	0.58480
0.25071	-0.25695
0.19971	-0.18043
0.04670	-0.81812
0.30171	0.58480
0.07220	1.22250
0.12320	0.81437
-0.02981	-0.63957
0.17421	0.30422
0.12320	0.27871
0.07220	0.27871
0.04670	0.07465
0.14870	-0.07840
0.22521	0.20219
0.17421	0.15117
0.22521	-0.12942
0.22521	0.20219
0.12320	-0.15492
0.25071	-1.12422
0.04670	0.78886
-0.10631	0.61031
0.32721	0.66132
0.30171	0.63582
0.42922	0.30422
-0.46334	0.02363
-0.46334	-0.07840
0.32721	0.07465
0.53123	0.10015
0.17421	0.20219
0.14870	-0.46102
0.17421	-0.12942
0.22521	0.86539
-0.15732	0.55929
0.04670	-0.74160
0.40372	0.27871
0.27621	0.40625
0.19971	0.15117
-0.02981	0.15117
0.07220	0.04914
0.02119	0.15117
0.09770	0.04914
0.35272	0.50828
0.07220	-0.89465
0.12320	0.86539
0.07220	0.02363
0.14870	-1.50683
0.30171	0.78886
0.27621	1.35003
0.42922	0.55929
-0.53984	-0.10391
-0.18282	0.10015
0.45472	0.73785
0.53123	-0.56305
0.12320	0.45726
0.22521	0.35523
0.22521	0.45726
0.12320	0.27871
0.07220	0.15117
-0.18282	-0.05289
0.17421	-0.15492
0.12320	-0.02739
0.27621	0.25320
0.19971	0.04914
0.02119	0.17668
0.02119	0.20219
0.37822	0.38074
0.17421	0.04914
0.12320	-0.46102
0.22521	0.35523
0.07220	0.15117
-0.02981	0.35523
-0.00431	0.45726
0.27621	0.27871
0.14870	0.45726
0.12320	0.66132
0.04670	1.04394
0.25071	-0.99668
0.65874	-0.71609
-0.53984	-0.28246
-0.36133	-0.33348
0.53123	0.43176
0.63323	0.45726
0.22521	0.58480
0.07220	0.02363
0.25071	-0.00188
-0.05531	0.15117
0.12320	0.22769
0.25071	0.35523
0.25071	0.20219
-0.18282	0.07465
0.25071	-0.46102
0.12320	-1.25176
0.12320	0.38074
0.25071	1.19699
0.17421	0.55929
0.12320	0.30422
0.17421	-0.20594
0.30171	0.15117
0.17421	0.83988
0.07220	-0.02739
0.04670	-0.25695
-0.38683	0.17668
0.25071	1.04394
0.12320	-0.51203
0.22521	0.27871
0.60773	0.30422
0.30171	0.38074
0.12320	-0.25695
0.14870	-0.15492
0.09770	0.04914
0.09770	0.15117
0.02119	-0.15492
0.07220	0.15117
0.04670	0.22769
0.17421	0.38074
0.27621	0.55929
0.07220	-1.02219
0.19971	0.35523
0.07220	0.43176
0.32721	-0.35899
0.14870	0.86539
0.07220	0.15117
0.12320	1.12046
0.14870	-0.86914
0.37822	0.10015
-0.00431	0.55929
0.27621	0.30422
0.12320	-1.25176
0.17421	0.73785
0.07220	0.58480
0.22521	0.55929
0.04670	-0.28246
0.14870	0.32972
0.48022	0.30422
0.25071	0.17668
-0.64185	0.20219
-0.10631	-0.92016
0.65874	0.20219
0.19971	0.76336
0.04670	0.04914
0.30171	-0.12942
0.22521	-0.74160
0.09770	0.45726
0.19971	0.43176
0.19971	0.66132
0.17421	0.73785
-0.05531	-0.56305
0.19971	0.50828
0.02119	0.10015
0.25071	-0.41000
0.07220	0.83988
0.07220	0.99292
0.14870	-0.89465
0.19971	-1.20074
0.17421	0.58480
0.12320	1.04394
0.09770	-0.07840
0.27621	0.83988
-0.00431	0.25320
0.32721	-0.30797
0.58223	-0.74160
-0.66735	0.38074
-0.15732	0.35523
0.50573	0.55929
0.40372	0.89089
0.14870	-1.09871
0.09770	-0.63957
0.37822	0.48277
-0.00431	0.91640
-0.20832	-0.41000
0.25071	0.43176
0.22521	0.32972
0.14870	0.30422
0.17421	0.53379
0.17421	-0.56305
0.19971	-0.10391
0.04670	0.99292
0.14870	0.73785
0.02119	-0.79262
0.12320	-1.22625
0.17421	1.09496
0.07220	0.86539
0.14870	0.71234
0.12320	0.35523
0.22521	0.55929
0.17421	0.02363
0.19971	0.22769
0.14870	-1.25176
0.12320	0.15117
0.19971	-0.05289
0.30171	0.50828
0.42922	0.45726
-0.43783	-0.41000
-0.36133	0.32972
0.53123	0.32972
0.40372	0.27871
0.09770	0.17668
0.22521	0.15117
0.19971	0.10015
0.32721	0.07465
0.17421	0.45726
-0.08081	-0.12942
-0.08081	0.15117
-0.05531	-0.25695
0.19971	-0.30797
0.32721	0.27871
0.27621	-0.20594
0.27621	0.45726
0.19971	-0.00188
0.19971	0.53379
0.19971	0.71234
0.02119	0.15117
0.12320	0.40625
0.09770	0.35523
0.12320	0.50828
0.14870	-0.48652
0.07220	0.04914
0.14870	0.04914
0.17421	-0.07840
0.02119	0.15117
0.27621	0.12566
0.14870	0.12566
0.19971	0.15117
0.12320	0.20219
0.09770	0.25320
0.53123	-0.07840
0.27621	0.12566
-0.59084	0.58480
-0.18282	0.53379
0.40372	-0.25695
0.45472	0.66132
0.30171	-0.97117
0.22521	0.61031
-0.13181	0.15117
-0.00431	1.14597
0.42922	-0.35899
0.12320	0.71234
0.14870	0.04914
0.17421	0.07465
0.12320	0.22769
0.12320	0.04914
-0.08081	0.12566
0.09770	0.04914
0.22521	-0.02739
0.12320	0.10015
0.17421	0.02363
0.09770	0.10015
0.12320	0.27871
0.14870	-0.69059
0.27621	0.48277
0.09770	0.50828
0.25071	0.25320
0.19971	-0.41000
0.14870	0.07465
0.04670	0.71234
0.12320	1.06945
0.14870	0.07465
0.30171	-0.33348
-0.33583	-0.02739
-0.20832	0.35523
0.58223	-0.69059
0.27621	-0.02739
0.27621	0.99292
0.09770	1.12046
-0.02981	-0.94566
0.25071	0.63582
0.17421	-0.25695
0.09770	0.20219
0.19971	-0.00188
0.12320	0.10015
0.14870	0.10015
0.12320	0.81437
0.12320	-1.02219
0.17421	0.48277
0.04670	0.35523
0.14870	-0.18043
0.07220	-1.35379
0.30171	0.78886
0.02119	0.53379
-0.00431	0.48277
0.14870	0.76336
0.50573	0.58480
0.22521	-0.28246
0.14870	0.27871
0.40372	0.22769
0.02119	-0.00188
-0.53984	0.12566
0.48022	0.07465
0.53123	-0.00188
0.19971	-0.12942
0.02119	0.15117
0.19971	0.20219
0.32721	0.07465
0.30171	0.32972
-0.18282	0.27871
0.04670	0.35523
0.07220	-0.66508
0.09770	0.45726
0.27621	0.76336
0.12320	-1.09871
0.22521	0.40625
0.04670	0.78886
0.17421	-0.28246
0.02119	0.83988
0.25071	0.40625
0.02119	0.02363
0.17421	-2.19554
0.22521	0.94191
0.02119	0.71234
-0.00431	0.35523
0.35272	0.35523
0.22521	0.22769
0.19971	0.15117
0.58223	-0.00188
0.04670	0.12566
-0.53984	-0.15492
0.02119	0.10015
0.30171	0.10015
0.35272	-0.38449
0.48022	0.20219
0.02119	0.53379
0.17421	1.06945
-0.05531	0.07465
0.17421	-0.23145
-0.23382	-0.41000
0.22521	0.45726
0.30171	0.83988
0.27621	0.30422
0.02119	0.12566
0.07220	-0.71609
-0.18282	0.50828
0.27621	0.45726
0.19971	0.43176
0.27621	0.02363
0.25071	0.04914
0.17421	-0.12942
0.14870	0.07465
0.17421	0.40625
-0.00431	0.07465
0.12320	-0.33348
0.02119	-0.02739
0.14870	0.22769
0.25071	0.30422
0.22521	0.55929
0.07220	0.30422
0.12320	0.04914
0.22521	-0.51203
0.73524	0.10015
-0.23382	1.27351
-1.12638	0.04914
0.37822	0.04914
0.68424	-0.97117
0.45472	0.53379
0.19971	0.35523
0.22521	0.71234
0.17421	0.43176
0.04670	0.30422
-0.18282	0.15117
0.14870	0.04914
0.22521	-0.33348
0.09770	-0.10391
0.19971	0.20219
0.12320	0.15117
0.22521	0.22769
0.07220	0.53379
0.02119	-0.28246
0.07220	0.50828
0.32721	-0.79262
0.37822	-0.28246
-0.13181	-0.02739
0.02119	0.71234
0.30171	0.76336
0.04670	0.22769
0.25071	0.25320
0.02119	0.61031
-0.08081	-0.25695
0.42922	0.07465
0.30171	0.15117
0.14870	-0.05289
0.02119	-0.05289
0.50573	-0.05289
-0.02981	0.15117
-0.64185	0.48277
0.25071	0.12566
0.48022	-0.00188
0.35272	-0.48652
0.42922	-0.30797
0.02119	0.55929
0.07220	0.61031
0.12320	0.43176
0.19971	0.38074
0.09770	-1.40480
0.02119	0.07465
0.30171	1.09496
0.17421	0.83988
0.04670	0.20219
-0.08081	-1.07320
-0.02981	0.50828
0.32721	-0.66508
0.17421	0.35523
0.17421	0.50828
0.30171	0.53379
0.27621	-0.81812
0.22521	0.27871
0.17421	0.04914
0.19971	0.32972
-0.08081	0.61031
0.09770	0.10015
0.17421	-0.02739
0.53123	-0.43551
-0.18282	0.38074
-0.18282	0.45726
0.40372	0.38074
0.09770	0.22769
0.22521	0.15117
0.45472	0.35523
0.22521	0.04914
0.27621	0.15117
0.12320	0.17668
0.17421	-0.97117
0.12320	0.40625
-0.05531	0.43176
-0.13181	0.32972
0.12320	0.17668
0.27621	0.38074
0.30171	0.15117
0.12320	0.35523
0.27621	-0.51203
0.07220	0.25320
0.22521	0.02363
-0.00431	0.61031
0.19971	0.68683
0.12320	0.61031
0.35272	-1.88945
0.30171	-0.10391
-0.05531	1.14597
0.09770	-0.41000
0.07220	0.71234
0.19971	0.63582
0.19971	0.27871
0.14870	0.07465
0.19971	0.02363
0.04670	-0.05289
0.60773	0.04914
-0.00431	0.02363
-0.38683	0.17668
-0.20832	0.04914
0.37822	0.15117
0.22521	-0.25695
0.37822	0.20219
0.25071	0.30422
0.22521	0.50828
0.12320	0.76336
0.27621	-0.51203
0.09770	-0.99668
0.12320	0.83988
0.04670	0.63582
0.14870	0.73785
0.09770	0.50828
0.17421	-0.20594
0.04670	-0.56305
0.12320	0.32972
0.22521	0.40625
0.48022	0.02363
-0.28482	0.58480
-0.38683	-0.25695
0.42922	0.30422
0.37822	0.22769
0.09770	-0.18043
0.37822	-0.07840
0.17421	0.12566
0.27621	0.53379
0.19971	0.94191
0.07220	-0.66508
0.09770	0.17668
0.07220	-2.24656
0.07220	1.42656
-0.00431	0.45726
0.17421	1.06945
0.14870	0.38074
0.12320	0.45726
0.55673	0.50828
-0.41233	0.68683
-0.41233	-0.79262
0.25071	-1.09871
0.32721	-0.35899
0.53123	1.17148
0.40372	0.68683
0.27621	0.25320
0.19971	0.07465
0.12320	-0.05289
-0.05531	-0.18043
0.07220	-0.23145
0.17421	0.25320
0.14870	0.35523
-0.00431	0.43176
-0.00431	-0.46102
0.53123	0.38074
0.09770	0.38074
-0.08081	0.22769
0.04670	0.20219
0.30171	0.17668
0.07220	-0.05289
0.12320	0.35523
0.45472	0.66132
0.19971	-0.43551
0.04670	0.10015
0.09770	0.63582
0.07220	0.27871
0.42922	0.20219
0.30171	0.76336
-0.46334	0.12566
-0.25932	0.38074
0.48022	-4.69530
0.27621	0.91640
0.30171	1.65613
0.17421	1.88570
0.27621	0.32972
-0.13181	0.32972
0.19971	0.07465
0.12320	0.15117
0.12320	-0.02739
0.19971	-0.86914
0.04670	0.40625
0.22521	0.35523
0.12320	-0.63957
0.19971	0.35523
-0.00431	0.53379
0.09770	0.30422
0.27621	-0.05289
0.12320	0.25320
0.17421	0.27871
0.30171	0.38074
0.25071	-0.00188
-0.15732	0.02363
-0.02981	0.02363
0.12320	0.53379
0.27621	0.58480
0.32721	-0.84363
0.42922	0.20219
0.07220	0.22769
-0.15732	0.17668
0.17421	-0.18043
0.35272	0.71234
0.07220	0.30422
0.60773	0.83988
-0.20832	-1.83844
-0.38683	1.06945
0.37822	-0.02739
0.37822	0.68683
0.25071	-0.00188
-0.05531	-0.76711
0.27621	0.35523
0.27621	0.32972
-0.02981	0.35523
0.12320	0.48277
0.25071	0.48277
0.04670	0.02363
0.19971	-0.71609
0.14870	0.30422
0.42922	0.12566
0.09770	0.27871
-0.23382	0.10015
0.25071	0.55929
0.35272	0.15117
0.17421	-0.25695
0.02119	-1.20074
0.17421	0.94191
0.14870	0.86539
0.25071	0.38074
0.09770	0.02363
0.02119	0.17668
-0.02981	-0.10391
0.19971	0.27871
0.17421	1.17148
0.50573	-0.35899
0.42922	-0.15492
-0.51434	-0.63957
-0.10631	0.68683
0.68424	-0.66508
0.22521	0.35523
0.07220	0.07465
0.02119	1.09496
0.40372	0.30422
0.14870	-0.05289
0.17421	-1.14973
0.14870	0.43176
0.09770	0.86539
0.09770	0.63582
0.04670	0.25320
0.12320	0.35523
0.14870	0.32972
0.22521	0.27871
0.19971	0.15117
0.22521	-0.05289
-0.02981	0.12566
-0.08081	0.27871
0.27621	-0.07840
0.30171	-0.63957
0.25071	0.10015
0.22521	0.17668
0.22521	0.17668
0.09770	0.30422
0.12320	0.25320
-0.08081	-0.02739
0.27621	0.04914
0.12320	0.17668
0.22521	0.40625
0.04670	0.48277
0.50573	-0.46102
-0.18282	0.38074
-0.38683	-0.12942
0.32721	0.63582
0.27621	0.10015
0.42922	0.48277
0.19971	-0.35899
0.22521	-0.30797
0.19971	0.58480
0.19971	0.66132
0.40372	-0.02739
-0.20832	-0.84363
-0.18282	0.76336
0.04670	0.55929
0.40372	0.12566
0.14870	-0.58856
0.25071	0.68683
0.19971	0.61031
0.32721	-0.25695
-0.05531	-0.46102
-0.05531	-0.58856
0.07220	0.43176
0.14870	0.86539
0.17421	0.22769
0.32721	0.15117
0.30171	0.02363
0.22521	0.12566
-0.08081	-0.15492
0.04670	0.07465
0.25071	0.53379
0.12320	-0.05289
0.32721	0.25320
0.17421	-0.25695
0.02119	0.15117
0.17421	0.40625
0.70974	0.04914
-0.38683	0.27871
-0.48884	0.50828
0.35272	0.35523
0.40372	0.43176
0.27621	-0.28246
0.04670	0.22769
0.22521	0.32972
0.14870	0.35523
0.25071	-0.28246
0.07220	0.43176
0.17421	0.10015
-0.00431	-0.12942
0.17421	0.35523
0.04670	1.04394
0.22521	-0.38449
0.09770	-0.43551
0.32721	-0.23145
0.12320	0.43176
0.27621	1.04394
0.02119	0.04914
0.09770	0.99292
0.27621	0.12566
0.22521	-0.00188
-0.20832	-0.15492
0.04670	0.50828
0.27621	-0.00188
0.17421	-0.10391
0.25071	-0.05289
0.27621	-0.15492
0.25071	0.55929
0.07220	0.25320
0.55673	-0.00188
0.04670	-0.89465
-0.64185	0.35523
0.07220	0.30422
0.27621	0.43176
0.14870	0.53379
0.42922	0.55929
0.17421	0.35523
0.35272	0.32972
0.14870	0.07465
0.19971	0.35523
0.04670	-0.46102
0.14870	0.07465
-0.02981	0.45726
0.25071	0.86539
0.14870	-2.60367
0.09770	-0.38449
-0.02981	1.01843
0.07220	1.14597
0.14870	0.78886
0.27621	0.48277
0.25071	0.07465
0.27621	-0.15492
0.17421	-0.41000
0.07220	0.27871
0.14870	-0.12942
0.22521	0.38074
0.32721	-0.00188
0.02119	-0.20594
0.12320	0.53379
0.07220	-0.20594
0.04670	0.10015
0.35272	-0.00188
-0.08081	0.45726
-0.02981	0.32972
0.19971	0.07465
0.40372	0.22769
0.50573	0.22769
-0.46334	0.30422
0.02119	0.43176
0.30171	-0.15492
0.27621	0.22769
0.07220	0.10015
0.32721	-0.28246
0.22521	0.25320
-0.00431	0.38074
0.17421	0.78886
0.19971	-1.35379
0.19971	0.58480
0.27621	0.17668
0.12320	0.30422
0.07220	0.35523
-0.00431	0.61031
0.12320	0.53379
0.27621	-0.00188
-0.05531	-1.45582
0.25071	0.25320
0.19971	0.61031
0.19971	0.86539
0.12320	-0.25695
0.09770	-0.63957
0.22521	0.55929
0.04670	-0.41000
0.78624	0.53379
-0.20832	0.53379
-0.76936	0.27871
0.35272	0.32972
0.37822	0.04914
0.45472	0.20219
0.22521	0.15117
0.12320	0.17668
0.09770	0.15117
0.14870	-0.46102
0.17421	0.15117
0.09770	0.25320
0.04670	0.02363
0.17421	0.25320
0.12320	0.12566
0.22521	0.40625
0.25071	0.10015
-0.20832	0.20219
-0.33583	-0.25695
0.37822	0.55929
0.32721	-0.56305
0.35272	-0.02739
0.27621	0.45726
0.19971	0.45726
0.25071	0.76336
0.04670	0.43176
0.14870	-0.33348
0.09770	0.04914
0.17421	0.17668
0.07220	0.02363
0.02119	-0.61406
0.25071	0.22769
0.17421	0.25320
0.04670	0.40625
0.12320	0.38074
0.25071	0.22769
0.45472	0.12566
-0.31033	0.07465
-0.28482	0.25320
0.42922	0.66132
0.37822	-1.55785
0.07220	0.10015
0.07220	-0.07840
0.37822	0.61031
0.30171	0.45726
0.02119	0.45726
-0.05531	0.25320
0.12320	0.30422
0.42922	0.15117
0.14870	0.17668
0.27621	-0.33348
-0.08081	-0.15492
-0.13181	0.63582
0.14870	-1.50683
0.35272	0.02363
0.12320	1.32453
0.30171	0.25320
0.22521	0.66132
0.22521	-0.10391
0.14870	0.07465
0.12320	-0.02739
0.12320	0.07465
-0.02981	-0.00188
0.17421	0.53379
0.14870	0.15117
0.35272	-0.35899
0.19971	-1.02219
0.12320	0.55929
0.60773	0.86539
-0.20832	0.58480
-0.61635	0.20219
0.27621	0.30422
0.48022	-0.30797
0.19971	0.30422
0.14870	0.68683
0.48022	-0.86914
0.07220	0.25320
0.27621	0.15117
0.17421	0.12566
0.09770	0.22769
0.12320	0.12566
0.02119	0.15117
0.14870	0.12566
0.14870	-0.00188
0.30171	0.15117
-0.00431	0.04914
-0.28482	0.30422
0.12320	0.22769
0.40372	0.71234
0.35272	-0.66508
0.45472	-0.25695
0.12320	0.40625
0.25071	0.35523
0.04670	0.15117
0.27621	0.27871
0.35272	0.53379
-0.41233	0.10015
-0.08081	0.25320
0.45472	0.40625
0.22521	-0.20594
0.32721	0.43176
0.07220	0.43176
0.17421	-0.00188
0.02119	0.07465
0.22521	0.04914
0.07220	0.15117
0.14870	0.15117
0.22521	0.17668
0.17421	0.04914
-0.02981	0.02363
-0.05531	-0.07840
0.35272	0.02363
0.27621	0.22769
0.17421	0.50828
0.02119	0.20219
0.09770	0.04914
0.37822	0.12566
0.17421	0.30422
-0.28482	0.22769
0.22521	0.76336
0.30171	-0.81812
0.30171	0.40625
0.22521	0.32972
0.02119	-0.25695
-0.31033	0.02363
0.19971	0.04914
0.45472	0.55929
0.32721	-0.43551
0.07220	0.55929
0.30171	0.40625
0.42922	-0.18043
0.19971	0.02363
-0.59084	0.20219
-0.41233	0.30422
0.48022	0.30422
0.14870	-0.28246
0.50573	0.17668
0.32721	0.25320
0.22521	0.25320
0.19971	0.17668
0.14870	0.04914
-0.02981	-0.33348
0.12320	0.25320
0.09770	0.35523
0.30171	0.48277
-0.00431	0.20219
0.14870	0.25320
0.07220	0.15117
0.12320	0.32972
0.04670	0.25320
0.22521	0.07465
0.04670	-0.10391
0.09770	0.15117
0.22521	0.10015
0.30171	0.12566
0.14870	0.04914
0.19971	0.61031
0.07220	0.48277
0.07220	-1.45582
0.02119	0.10015
0.35272	-1.27726
0.14870	0.48277
0.22521	1.06945
0.37822	1.17148
-0.51434	1.45206
-0.08081	-0.10391
0.37822	-0.38449
0.32721	0.25320
0.25071	0.17668
0.07220	0.22769
-0.00431	-0.00188
0.09770	-0.05289
0.17421	0.02363
0.17421	-0.05289
0.12320	-0.41000
0.12320	-0.02739
0.30171	0.22769
0.02119	0.27871
0.22521	0.25320
0.12320	0.30422
-0.00431	0.07465
-0.05531	0.12566
0.09770	0.45726
0.14870	0.61031
0.32721	0.32972
0.37822	0.96742
0.12320	-0.48652
0.12320	-0.41000
0.27621	-0.00188
-0.10631	0.10015
0.17421	0.17668
0.14870	0.71234
0.53123	0.61031
0.42922	-1.58336
-0.64185	0.27871
-0.10631	0.25320
0.42922	0.94191
0.27621	0.02363
0.22521	0.50828
0.12320	0.40625
0.27621	0.20219
0.22521	0.40625
0.02119	-0.28246
0.19971	0.10015
0.07220	0.27871
0.12320	0.17668
-0.00431	0.12566
0.14870	0.20219
0.12320	-0.69059
-0.08081	0.17668
0.12320	0.30422
0.42922	-0.00188
0.25071	0.27871
0.12320	0.43176
-0.02981	0.20219
0.19971	0.20219
0.17421	0.17668
0.30171	0.10015
0.07220	0.02363
0.17421	1.04394
0.12320	-0.05289
0.25071	-0.81812
0.27621	-1.43031
-0.38683	0.53379
0.09770	0.81437
0.12320	0.61031
0.35272	0.45726
0.27621	0.22769
0.25071	0.22769
0.27621	0.15117
0.19971	0.25320
0.07220	-0.28246
0.09770	-0.15492
0.02119	0.89089
0.17421	-1.37929
0.12320	0.55929
0.04670	0.55929
-0.00431	0.48277
0.17421	0.15117
0.19971	0.17668
0.09770	0.04914
0.19971	-0.00188
0.09770	-0.00188
0.14870	0.35523
0.12320	0.63582
0.22521	0.38074
0.12320	-0.89465
0.09770	0.12566
0.22521	0.71234
0.60773	-0.15492
0.32721	0.02363
-0.87136	0.40625
-0.33583	0.30422
0.50573	0.20219
0.32721	0.66132
0.37822	0.15117
0.19971	-1.12422
0.32721	0.81437
0.07220	0.27871
0.07220	0.48277
0.09770	0.35523
0.02119	0.15117
0.04670	0.20219
0.02119	0.07465
0.17421	0.15117
0.12320	-0.15492
0.12320	0.45726
0.17421	-0.71609
0.32721	0.43176
0.12320	-0.05289
0.14870	0.30422
0.04670	0.22769
0.14870	0.40625
-0.18282	0.10015
0.07220	0.30422
0.58223	0.38074
0.88825	0.40625
-0.56534	-0.46102
-0.38683	0.40625
0.60773	0.10015
0.50573	0.04914
0.30171	0.04914
0.12320	-0.18043
0.19971	0.45726
0.22521	0.45726
-0.02981	-0.38449
-0.08081	0.94191
0.02119	-0.12942
0.12320	0.32972
0.14870	0.17668
0.12320	0.17668
0.22521	0.04914
0.12320	-0.05289
0.22521	0.15117
0.12320	0.20219
0.27621	0.12566
0.12320	0.25320
0.25071	0.32972
0.07220	0.22769
0.19971	-0.20594
0.09770	0.04914
0.25071	-0.35899
0.12320	0.32972
0.22521	-1.45582
0.14870	0.83988
0.22521	1.32453
0.25071	0.17668
-0.36133	1.17148
-0.28482	0.12566
0.22521	0.55929
0.32721	-0.12942
0.60773	-0.89465
0.35272	-0.10391
0.22521	0.22769
0.14870	0.25320
0.02119	0.12566
0.19971	0.12566
-0.00431	0.02363
0.12320	0.25320
0.07220	0.02363
0.14870	0.10015
0.09770	0.15117
0.12320	0.17668
0.12320	0.22769
0.22521	0.17668
0.07220	0.38074
-0.05531	0.32972
0.40372	0.15117
0.30171	0.25320
0.04670	0.53379
0.17421	-0.43551
0.04670	-0.05289
0.40372	-0.20594
0.02119	0.02363
0.22521	-1.22625
0.14870	1.57960
0.30171	0.83988
0.60773	0.32972
-0.28482	-1.20074
-0.48884	1.06945
0.14870	0.45726
0.30171	0.40625
0.27621	0.35523
0.30171	-0.99668
0.32721	0.04914
0.14870	0.27871
0.09770	0.20219
0.09770	0.17668
0.02119	0.17668
0.14870	-0.00188
0.12320	-0.15492
0.12320	0.10015
0.14870	0.20219
0.12320	0.15117
0.04670	0.15117
0.14870	0.15117
0.37822	0.38074
0.07220	0.20219
0.02119	0.25320
0.19971	0.22769
0.37822	0.04914
0.17421	0.02363
0.09770	0.81437
0.22521	0.27871
0.07220	-1.14973
0.12320	-0.25695
0.12320	0.66132
0.25071	0.91640
0.45472	0.66132
0.07220	0.10015
-0.59084	-0.25695
-0.05531	-0.18043
0.42922	-0.97117
0.35272	0.73785
0.48022	0.68683
0.17421	-0.25695
0.19971	0.55929
-0.02981	-0.12942
0.30171	-0.18043
-0.05531	0.40625
0.07220	0.45726
-0.02981	-0.10391
0.22521	0.15117
0.12320	0.12566
0.30171	0.27871
0.22521	0.17668
0.22521	0.07465
0.09770	0.02363
-0.02981	0.04914
0.22521	0.48277
0.12320	-0.05289
0.30171	-0.48652
0.17421	0.20219
0.12320	0.35523
0.12320	0.81437
0.07220	0.68683
0.48022	-0.00188
0.14870	-0.69059
-0.20832	-0.25695
0.12320	0.38074
-0.38683	1.17148
-0.10631	-0.35899
0.58223	0.83988
0.48022	0.48277
0.37822	0.12566
0.09770	0.04914
0.27621	0.20219
0.25071	-0.12942
0.17421	-0.10391
0.04670	-0.05289
-0.10631	-0.05289
0.04670	0.10015
0.12320	-0.00188
0.14870	0.45726
0.19971	0.22769
0.19971	-0.05289
-0.00431	-0.58856
0.07220	1.27351
0.35272	0.25320
0.14870	-1.50683
0.17421	0.86539
0.19971	0.32972
0.02119	0.43176
0.17421	0.58480
0.07220	0.58480
0.09770	0.86539
0.19971	-0.69059
0.19971	-1.55785
0.12320	-1.22625
0.14870	1.09496
0.12320	0.48277
0.48022	0.53379
-0.38683	0.43176
-0.31033	0.94191
0.45472	0.04914
0.04670	-1.22625
0.25071	0.17668
0.60773	0.17668
0.02119	0.27871
0.07220	0.15117
0.37822	0.04914
0.14870	-0.05289
0.22521	0.04914
0.02119	0.22769
-0.00431	0.12566
0.02119	-0.00188
0.09770	0.20219
0.22521	0.45726
0.17421	0.40625
0.09770	0.25320
0.25071	-0.10391
0.27621	-0.02739
0.14870	-0.15492
-0.18282	0.27871
0.22521	0.04914
0.19971	0.96742
0.19971	-0.35899
0.25071	-0.86914
0.25071	0.27871
0.37822	1.68163
-0.38683	-0.41000
-0.18282	0.58480
0.50573	-0.28246
0.22521	0.04914
0.30171	0.55929
0.14870	0.55929
0.12320	0.58480
0.14870	0.35523
0.17421	-0.30797
0.27621	-0.58856
-0.02981	0.07465
0.04670	0.07465
0.25071	0.22769
0.19971	0.12566
-0.15732	0.25320
-0.02981	0.10015
0.40372	0.30422
0.30171	0.20219
0.19971	0.27871
0.12320	-0.02739
0.40372	0.20219
0.09770	0.17668
0.07220	0.12566
-0.05531	0.04914
0.22521	0.48277
0.12320	0.50828
0.30171	0.35523
0.14870	-0.35899
0.27621	-0.05289
-0.13181	1.06945
0.58223	-1.02219
-0.28482	0.71234
-0.36133	0.43176
0.30171	0.02363
0.40372	-1.14973
0.27621	0.76336
0.12320	0.76336
0.14870	0.43176
0.35272	0.48277
0.07220	-0.38449
0.17421	0.07465
-0.00431	0.53379
0.09770	0.50828
0.04670	0.07465
0.09770	-0.35899
0.17421	0.27871
0.12320	0.48277
0.22521	0.25320
0.19971	0.07465
0.22521	0.04914
0.25071	0.10015
0.04670	-0.05289
-0.18282	0.15117
0.19971	0.07465
0.42922	0.04914
-0.08081	0.10015
-0.02981	0.38074
0.37822	0.66132
0.32721	-0.12942
0.22521	-0.20594
0.19971	0.07465
0.12320	0.55929
