0.19971	0.32972
0.14870	0.15117
0.12320	0.22769
0.14870	-0.43551
0.14870	-0.15492
0.07220	0.61031
0.09770	0.35523
0.12320	0.27871
0.09770	0.32972
0.22521	0.10015
0.12320	0.12566
0.19971	0.12566
0.25071	0.12566
0.07220	0.32972
0.22521	-0.46102
0.12320	0.43176
0.12320	0.27871
0.19971	0.10015
0.14870	0.04914
0.14870	0.12566
0.14870	0.20219
0.09770	0.10015
0.22521	0.27871
0.07220	0.15117
0.25071	0.30422
0.17421	0.04914
-0.00431	-0.12942
0.12320	0.04914
0.22521	0.35523
0.09770	0.17668
0.07220	0.35523
0.19971	0.25320
0.27621	0.50828
0.07220	0.25320
0.14870	-0.38449
0.04670	0.07465
0.22521	0.17668
0.22521	0.22769
0.09770	0.15117
0.19971	0.32972
0.14870	0.25320
0.17421	-0.18043
0.07220	0.22769
0.17421	0.17668
0.14870	0.20219
0.09770	0.10015
0.22521	0.20219
0.04670	0.04914
0.14870	0.17668
0.12320	0.15117
0.14870	0.17668
0.09770	0.02363
0.12320	0.40625
0.17421	0.32972
0.07220	-0.23145
0.14870	-0.25695
0.14870	0.25320
0.22521	0.10015
0.14870	0.61031
0.07220	0.35523
0.19971	0.20219
0.14870	0.35523
0.17421	0.15117
0.07220	0.15117
0.22521	0.07465
0.14870	0.02363
-0.08081	0.10015
0.04670	0.04914
0.09770	0.22769
0.42922	0.35523
0.12320	-0.51203
0.14870	-0.05289
0.19971	-0.18043
0.25071	0.48277
0.12320	0.58480
0.12320	0.30422
0.02119	0.35523
0.09770	0.17668
0.14870	0.07465
0.09770	0.10015
0.27621	-0.05289
0.14870	0.22769
0.17421	0.17668
0.09770	-0.05289
0.25071	0.15117
-0.18282	0.73785
0.25071	-0.51203
0.12320	0.20219
0.25071	0.07465
0.12320	0.32972
0.17421	0.17668
0.17421	-0.35899
0.12320	0.40625
0.17421	0.35523
0.09770	0.25320
0.22521	0.17668
0.17421	0.02363
0.22521	0.27871
0.07220	-0.23145
0.07220	0.27871
0.12320	0.48277
0.07220	0.30422
0.32721	-0.28246
0.19971	-0.56305
0.19971	0.15117
0.12320	0.25320
0.12320	0.58480
0.19971	0.58480
0.09770	0.30422
0.04670	0.38074
0.07220	0.10015
0.37822	-0.05289
0.09770	0.10015
0.25071	0.45726
0.12320	-0.86914
0.09770	0.22769
0.12320	0.15117
0.14870	0.35523
0.12320	0.30422
0.07220	0.40625
0.19971	0.53379
0.09770	-1.07320
-0.02981	0.94191
0.19971	-0.86914
0.19971	0.71234
0.42922	0.55929
0.19971	0.20219
0.17421	-0.25695
0.07220	0.04914
0.04670	0.50828
0.19971	0.55929
0.42922	0.22769
0.22521	0.20219
-0.66735	0.04914
-0.08081	0.04914
0.37822	0.10015
0.35272	0.15117
0.27621	0.22769
0.25071	-0.53754
0.25071	-0.00188
0.17421	0.17668
0.04670	0.17668
0.14870	0.22769
0.12320	0.25320
0.22521	0.32972
0.19971	0.25320
-0.23382	0.12566
-0.15732	0.07465
0.19971	0.40625
0.48022	-0.10391
0.09770	0.15117
0.19971	0.35523
0.14870	0.38074
0.30171	0.35523
0.04670	0.25320
0.19971	-0.48652
0.12320	0.04914
0.14870	0.45726
0.22521	0.38074
0.02119	0.02363
0.12320	-0.02739
0.09770	0.02363
0.30171	0.10015
-0.00431	0.12566
0.22521	-0.10391
0.17421	0.63582
0.12320	0.61031
0.07220	0.45726
0.25071	0.25320
-0.00431	-0.25695
0.09770	0.20219
0.19971	0.12566
0.30171	0.12566
0.07220	0.38074
0.12320	-0.89465
0.22521	0.25320
0.02119	0.50828
0.53123	-0.41000
0.27621	0.32972
-0.38683	0.35523
-0.28482	0.15117
0.35272	0.20219
0.32721	0.55929
0.45472	-0.18043
0.30171	-0.28246
0.09770	-0.00188
0.22521	0.50828
0.17421	0.07465
0.07220	0.25320
0.09770	0.12566
0.07220	0.20219
0.14870	0.30422
0.02119	0.22769
0.22521	0.10015
0.07220	0.15117
0.19971	-0.79262
0.14870	0.38074
0.27621	0.27871
0.09770	0.20219
0.14870	0.12566
0.17421	0.40625
0.17421	0.38074
0.12320	0.15117
0.04670	-0.20594
0.27621	-0.05289
0.14870	-0.46102
0.14870	0.61031
0.25071	0.40625
0.04670	0.35523
0.09770	0.22769
0.14870	0.15117
0.07220	0.17668
0.12320	0.30422
0.17421	-0.74160
-0.02981	0.17668
0.04670	0.15117
0.22521	0.27871
0.19971	0.63582
0.27621	0.04914
-0.05531	-0.51203
0.22521	0.55929
0.27621	0.02363
0.09770	0.30422
0.12320	0.30422
0.12320	0.15117
0.09770	0.17668
0.04670	0.04914
0.17421	-0.12942
0.14870	0.22769
0.19971	0.17668
0.14870	0.07465
0.09770	0.22769
0.12320	0.15117
0.12320	0.12566
0.04670	0.04914
0.22521	0.10015
0.09770	0.15117
0.12320	0.20219
0.22521	0.20219
0.27621	-0.05289
-0.02981	-0.23145
0.19971	0.83988
0.48022	0.22769
-0.48884	0.02363
-0.36133	0.25320
0.55673	-0.02739
0.42922	0.40625
0.45472	0.30422
0.30171	-0.00188
0.22521	-0.58856
0.14870	0.07465
0.02119	0.30422
0.12320	0.45726
0.04670	0.58480
0.04670	0.35523
-0.00431	0.50828
0.07220	0.22769
0.25071	-1.17523
0.19971	0.43176
0.14870	0.27871
-0.00431	0.55929
0.19971	0.10015
0.25071	-0.00188
0.14870	-0.00188
0.17421	0.04914
0.12320	0.04914
0.27621	0.12566
0.25071	0.12566
-0.13181	0.15117
0.12320	0.04914
0.22521	0.22769
0.12320	0.38074
0.17421	0.17668
0.14870	0.25320
0.17421	0.12566
0.09770	0.10015
0.14870	0.27871
0.19971	0.25320
0.12320	0.07465
0.14870	0.12566
0.04670	0.30422
0.07220	0.25320
0.25071	0.20219
0.14870	-0.02739
0.09770	0.10015
-0.05531	0.20219
0.22521	0.02363
0.22521	0.20219
0.22521	0.17668
0.22521	-0.07840
0.12320	0.40625
0.14870	-0.10391
0.17421	0.25320
0.17421	0.38074
0.12320	0.32972
0.12320	0.35523
0.07220	0.12566
0.19971	-0.12942
0.09770	-0.66508
0.22521	0.66132
0.07220	0.53379
0.19971	0.35523
0.09770	0.45726
0.17421	0.10015
0.04670	0.12566
0.17421	-0.05289
0.17421	0.12566
-0.00431	0.02363
0.02119	-0.35899
0.32721	0.35523
0.35272	0.58480
0.04670	0.45726
0.12320	-0.58856
0.25071	-0.00188
0.22521	0.27871
0.07220	0.15117
0.22521	0.02363
0.09770	0.20219
0.19971	0.78886
0.19971	0.38074
-0.13181	-0.92016
0.14870	-0.05289
0.17421	0.12566
0.12320	0.45726
0.19971	0.40625
0.12320	0.15117
0.14870	0.17668
0.22521	0.04914
0.07220	0.07465
0.09770	-0.12942
0.14870	0.43176
0.14870	-0.18043
0.19971	0.35523
0.12320	0.17668
0.22521	0.12566
-0.00431	0.38074
0.12320	-0.30797
0.07220	0.20219
0.22521	0.43176
0.09770	0.17668
0.19971	-0.48652
0.12320	0.53379
0.27621	-0.86914
0.04670	0.43176
0.07220	0.86539
0.12320	0.55929
0.19971	0.35523
0.27621	0.27871
0.22521	0.04914
0.04670	0.02363
0.02119	0.10015
0.14870	0.15117
0.27621	-0.05289
0.02119	0.12566
0.17421	0.12566
0.19971	0.15117
0.09770	-0.10391
0.17421	0.35523
0.14870	-1.17523
0.25071	0.45726
0.19971	0.53379
0.32721	0.40625
-0.25932	0.38074
-0.33583	0.43176
0.22521	0.25320
0.35272	-0.25695
0.32721	0.43176
0.40372	-0.25695
0.22521	0.20219
0.22521	0.35523
0.12320	0.66132
0.22521	-0.35899
0.14870	0.04914
-0.10631	0.27871
-0.18282	0.10015
0.17421	0.25320
0.30171	0.07465
0.25071	0.25320
0.19971	0.10015
0.19971	0.20219
0.02119	0.04914
0.07220	0.02363
0.04670	0.38074
0.17421	0.45726
0.17421	-0.51203
0.19971	-0.05289
0.19971	0.38074
0.12320	0.27871
0.19971	0.35523
-0.05531	0.22769
0.14870	0.02363
0.09770	-0.00188
0.27621	0.20219
0.12320	0.27871
0.14870	0.10015
0.12320	0.17668
0.04670	0.12566
0.22521	-0.25695
0.12320	0.20219
0.22521	0.43176
0.07220	0.32972
0.09770	0.25320
0.12320	-0.46102
0.12320	-0.74160
0.19971	0.45726
0.07220	0.61031
0.27621	0.38074
0.04670	0.07465
0.22521	0.73785
0.17421	-0.00188
0.17421	-0.41000
0.14870	0.25320
0.12320	0.27871
0.07220	0.02363
0.12320	0.10015
0.30171	0.02363
-0.05531	0.07465
0.30171	-0.00188
0.17421	0.38074
0.02119	0.32972
0.17421	0.15117
0.09770	0.12566
0.25071	0.12566
0.12320	0.04914
0.30171	0.10015
0.02119	0.22769
0.12320	0.10015
0.12320	0.25320
0.17421	0.10015
0.14870	0.20219
0.19971	0.15117
0.09770	0.22769
0.12320	0.15117
0.19971	0.12566
0.09770	0.17668
0.12320	0.17668
0.12320	0.12566
0.02119	0.15117
0.14870	0.10015
0.12320	-0.02739
0.25071	0.15117
0.19971	0.20219
0.27621	0.17668
0.17421	0.45726
0.14870	0.66132
0.14870	-0.25695
0.25071	-0.38449
0.02119	-1.12422
0.14870	0.25320
0.07220	1.04394
0.12320	0.66132
0.12320	0.55929
0.14870	0.61031
0.22521	-0.53754
0.14870	0.17668
0.17421	-0.28246
0.14870	0.15117
0.07220	0.22769
0.14870	0.15117
-0.02981	0.22769
0.14870	0.40625
0.25071	0.04914
0.32721	-0.00188
0.25071	0.12566
-0.02981	-0.00188
0.14870	0.17668
0.09770	0.02363
0.19971	0.20219
0.09770	0.20219
0.09770	0.17668
0.14870	0.22769
0.14870	0.22769
0.19971	0.17668
0.14870	0.15117
0.12320	0.15117
0.12320	0.02363
0.14870	0.25320
0.02119	0.07465
0.22521	0.35523
0.14870	-0.18043
0.17421	0.20219
0.09770	0.15117
0.22521	0.32972
0.14870	-0.05289
0.22521	0.55929
0.17421	0.66132
0.17421	0.17668
0.12320	0.35523
0.14870	-1.48133
0.17421	-0.28246
0.09770	0.73785
0.17421	0.66132
0.22521	0.35523
0.07220	-0.00188
0.19971	0.45726
0.09770	0.66132
0.22521	0.00000
-0.00431	0.00000
0.22521	0.00000
0.07220	0.00000
0.22521	0.20219
0.09770	-0.20594
0.25071	0.02363
0.12320	0.12566
0.32721	0.12566
0.02119	0.04914
0.04670	0.15117
0.02119	0.07465
0.32721	0.15117
0.14870	0.15117
0.19971	0.17668
-0.02981	0.12566
0.32721	0.25320
0.09770	0.22769
0.27621	0.20219
0.14870	0.10015
0.25071	0.30422
0.04670	0.17668
0.02119	0.15117
0.04670	0.04914
0.25071	0.12566
0.09770	0.07465
0.14870	0.15117
0.14870	0.15117
0.12320	0.15117
0.09770	0.15117
0.09770	0.22769
0.22521	0.10015
0.17421	0.15117
0.14870	-0.12942
0.14870	0.38074
0.09770	0.38074
0.22521	-0.35899
0.14870	0.50828
-0.00431	0.38074
0.12320	0.32972
0.04670	0.04914
0.22521	0.38074
-0.02981	0.68683
0.22521	-1.17523
0.12320	0.15117
0.12320	0.12566
0.14870	0.53379
0.17421	0.22769
0.22521	-0.10391
0.09770	0.12566
0.19971	0.12566
0.14870	0.15117
0.14870	0.20219
-0.05531	0.15117
0.22521	0.15117
0.25071	0.20219
0.14870	0.10015
0.14870	0.15117
0.07220	0.04914
0.12320	0.25320
0.09770	0.12566
0.19971	0.15117
-0.00431	0.15117
0.14870	0.15117
0.17421	0.20219
0.04670	0.12566
0.25071	0.17668
0.04670	0.12566
0.07220	0.22769
0.14870	0.17668
0.32721	0.12566
0.17421	0.25320
0.19971	-0.28246
0.25071	0.22769
0.14870	0.20219
0.42922	0.25320
-0.20832	0.50828
-0.69285	-0.00188
0.07220	-0.10391
0.42922	-0.66508
0.45472	-0.15492
0.27621	0.78886
0.27621	1.47757
0.19971	-0.38449
0.09770	-0.02739
0.14870	0.15117
-0.00431	0.22769
0.17421	0.10015
0.19971	0.02363
0.14870	0.10015
0.02119	0.15117
0.12320	0.15117
0.14870	-0.25695
0.09770	0.07465
0.17421	0.38074
0.32721	0.27871
0.19971	0.30422
0.12320	0.43176
-0.08081	-1.07320
-0.00431	0.94191
0.19971	1.91120
0.32721	-0.61406
0.25071	-0.84363
-0.10631	1.78367
0.22521	-1.65988
0.27621	-0.18043
0.17421	-0.15492
0.27621	1.55410
0.22521	0.86539
0.04670	-0.86914
0.14870	0.94191
0.12320	-0.00188
-0.15732	0.48277
0.07220	0.91640
0.07220	2.90601
0.37822	-5.56257
0.53123	-3.03730
0.40372	-0.66508
-0.28482	3.23761
-0.10631	1.63062
0.12320	3.44167
0.12320	1.78367
0.37822	-3.06281
0.30171	1.50308
0.37822	-2.06800
0.27621	0.30422
0.42922	2.39585
0.02119	-0.63957
-0.38683	4.23241
-0.20832	-7.27159
0.22521	-1.53234
0.25071	-3.08831
0.27621	1.91120
0.42922	1.65613
0.68424	5.94143
0.27621	1.27351
-0.15732	-2.29757
-0.10631	-5.10343
0.04670	2.57441
0.14870	1.78367
0.14870	-1.20074
0.14870	1.27351
-0.18282	-2.19554
-0.08081	-0.81812
0.42922	0.96742
0.42922	-0.97117
0.25071	0.27871
0.19971	0.53379
0.14870	0.78886
0.14870	-1.22625
0.07220	0.58480
0.02119	-2.98628
-0.05531	1.73265
0.04670	3.97733
0.17421	-1.86394
0.04670	-1.22625
0.22521	-1.48133
0.14870	2.21730
0.17421	0.86539
0.25071	4.99764
0.22521	-1.55785
0.40372	-3.36890
0.32721	-0.02739
0.17421	1.19699
-0.20832	3.08456
0.07220	0.86539
0.22521	-3.41992
0.25071	2.01323
0.22521	0.71234
0.12320	-0.43551
0.17421	-1.09871
0.12320	-1.07320
0.07220	0.68683
0.27621	0.35523
0.07220	0.48277
0.07220	0.25320
0.09770	-2.34859
0.35272	0.27871
0.02119	0.83988
-0.31033	0.58480
0.32721	0.25320
-0.18282	0.17668
0.17421	3.77327
0.55673	0.83988
0.60773	-1.40480
0.30171	-2.01699
-0.10631	0.25320
-0.28482	0.73785
0.30171	2.62542
0.53123	2.65093
-0.02981	0.76336
-0.02981	-1.27726
-0.00431	-2.50164
0.17421	1.88570
0.12320	0.78886
0.27621	1.09496
0.07220	-0.86914
0.25071	0.76336
0.30171	-0.48652
0.32721	-1.37929
0.02119	-0.30797
0.12320	0.68683
0.27621	2.29382
0.12320	-1.27726
0.04670	0.38074
-0.02981	0.07465
0.22521	5.43127
0.27621	-2.85874
0.53123	0.68683
0.48022	1.29902
-0.41233	0.91640
-0.41233	0.50828
0.14870	0.25320
0.30171	-0.05289
0.35272	0.12566
0.25071	-0.12942
0.30171	-0.89465
0.07220	0.86539
0.07220	0.22769
0.14870	-1.86394
0.19971	1.35003
0.17421	0.12566
-0.08081	-0.25695
0.22521	1.57960
0.37822	1.17148
0.32721	0.17668
0.02119	1.50308
0.02119	0.99292
0.22521	-2.65468
0.07220	-1.22625
-0.05531	1.50308
0.09770	0.27871
0.27621	0.73785
0.22521	2.75296
0.12320	-0.46102
0.14870	1.04394
0.17421	-0.35899
0.09770	-0.43551
0.32721	-0.66508
-0.00431	0.53379
0.02119	0.35523
0.04670	-0.79262
0.17421	-0.05289
0.25071	0.50828
0.17421	0.35523
0.07220	0.71234
0.55673	0.30422
0.40372	0.45726
-0.71835	-0.92016
-0.20832	-1.12422
0.53123	0.76336
0.35272	0.58480
0.32721	0.61031
0.27621	1.63062
-0.00431	1.98773
0.25071	-6.63389
0.12320	-0.30797
0.02119	1.50308
0.32721	1.27351
0.22521	1.24800
-0.05531	1.09496
0.04670	-0.99668
0.37822	-3.21585
0.25071	2.19179
-0.02981	-0.10391
0.07220	-1.22625
0.17421	0.83988
0.14870	-0.63957
0.22521	0.78886
0.04670	0.32972
0.12320	0.96742
0.42922	-0.46102
0.27621	-0.20594
0.19971	0.99292
0.12320	-1.45582
0.14870	1.12046
-0.20832	2.39585
0.07220	-4.00659
0.14870	2.03874
0.14870	-1.68539
0.09770	1.22250
0.32721	1.40105
0.17421	0.86539
0.22521	0.55929
0.07220	-0.02739
0.12320	0.20219
0.30171	0.53379
0.40372	-0.05289
-0.48884	0.02363
-0.18282	-0.43551
0.40372	0.30422
0.42922	-1.40480
0.25071	-0.10391
0.17421	0.07465
0.19971	0.40625
0.35272	0.15117
0.22521	-0.15492
0.04670	0.32972
-0.02981	0.12566
0.17421	1.83468
-0.08081	1.01843
0.02119	-1.07320
0.27621	-0.81812
0.32721	-0.43551
0.19971	-0.76711
-0.00431	2.14077
0.17421	-0.63957
0.27621	-0.33348
0.17421	0.96742
0.07220	0.61031
-0.00431	-0.23145
0.09770	0.48277
0.12320	-0.07840
0.04670	-0.30797
0.22521	-0.79262
0.25071	0.22769
0.22521	0.76336
0.09770	-0.02739
0.22521	-0.25695
0.17421	0.91640
-0.10631	0.45726
-0.08081	0.86539
0.30171	0.45726
0.30171	-0.51203
0.50573	1.06945
-0.36133	-2.17003
-0.36133	0.71234
0.30171	0.76336
0.25071	0.32972
0.30171	0.40625
0.27621	0.73785
0.22521	0.50828
0.22521	-1.07320
0.09770	-0.51203
0.02119	1.73265
-0.08081	-2.52714
0.14870	1.12046
0.02119	1.12046
0.32721	0.71234
0.17421	0.53379
-0.18282	0.50828
0.17421	0.71234
0.35272	-1.20074
0.19971	0.15117
0.17421	-1.78742
0.19971	1.22250
0.22521	0.15117
-0.13181	0.78886
0.07220	-1.07320
0.32721	0.94191
0.19971	1.50308
0.12320	-1.78742
0.02119	-0.15492
0.30171	1.35003
0.17421	-0.18043
0.14870	1.19699
0.22521	-0.94566
-0.28482	-0.69059
-0.05531	1.06945
0.32721	1.22250
0.37822	-1.58336
0.12320	0.83988
0.37822	0.76336
0.04670	-0.35899
0.14870	0.58480
-0.02981	0.48277
0.30171	-1.86394
0.19971	0.15117
0.19971	-1.37929
0.07220	1.22250
0.14870	1.04394
0.07220	1.37554
0.17421	0.25320
0.17421	0.35523
0.12320	0.73785
0.17421	-1.30277
0.09770	-0.12942
0.32721	0.86539
0.22521	0.30422
-0.31033	-1.07320
0.22521	-0.71609
0.40372	1.19699
0.30171	0.02363
0.04670	0.94191
-0.02981	0.48277
0.19971	-0.35899
0.45472	1.27351
0.14870	0.66132
-0.05531	-0.30797
0.19971	-1.17523
0.12320	-0.71609
0.19971	-0.94566
0.58223	0.81437
-0.10631	-0.25695
-0.61635	0.96742
-0.33583	1.01843
0.40372	0.83988
0.53123	-1.81293
0.42922	1.17148
0.37822	-0.63957
0.27621	-0.10391
0.07220	-0.46102
0.25071	1.14597
0.07220	-0.46102
-0.02981	1.47757
0.12320	0.02363
0.12320	-0.38449
0.12320	-0.07840
0.09770	1.19699
0.19971	0.25320
0.12320	-1.83844
0.09770	-0.51203
0.02119	0.50828
0.30171	0.94191
-0.08081	0.12566
0.32721	-0.76711
0.17421	1.04394
0.30171	0.48277
0.27621	-0.69059
0.02119	-0.69059
-0.28482	1.63062
0.14870	-0.56305
0.17421	0.63582
0.14870	1.09496
0.22521	-0.58856
0.12320	0.73785
0.12320	-1.14973
0.58223	0.58480
0.42922	0.12566
-0.64185	0.55929
-0.41233	0.15117
0.37822	0.38074
0.37822	-0.00188
0.40372	0.61031
0.32721	-0.48652
0.17421	0.40625
0.25071	0.55929
0.12320	-0.89465
0.12320	0.17668
-0.02981	0.20219
0.09770	0.43176
0.19971	-0.00188
0.02119	0.32972
0.14870	0.71234
0.32721	-0.05289
-0.05531	0.99292
-0.00431	-1.02219
0.09770	1.12046
0.35272	0.96742
0.37822	-0.89465
0.27621	-0.10391
0.04670	0.45726
0.14870	1.06945
0.22521	1.32453
0.09770	-0.99668
0.17421	0.25320
0.04670	0.27871
0.37822	1.37554
0.07220	-1.55785
0.12320	0.48277
-0.00431	0.83988
0.30171	-1.40480
0.09770	0.58480
0.02119	-0.81812
0.12320	0.55929
0.37822	0.63582
0.55673	0.12566
-0.13181	-0.69059
-0.69285	0.48277
0.25071	0.71234
0.63323	1.17148
0.37822	-0.79262
0.37822	0.91640
0.17421	-0.10391
0.02119	-0.12942
0.02119	1.06945
0.02119	-0.12942
0.12320	0.45726
-0.00431	-1.60887
0.22521	1.24800
0.12320	0.32972
0.07220	0.22769
0.14870	0.66132
0.32721	-0.35899
0.07220	0.99292
-0.00431	-0.66508
0.27621	-0.00188
0.02119	0.15117
0.30171	0.53379
0.07220	0.40625
0.19971	0.20219
0.19971	0.25320
0.09770	0.25320
0.04670	0.17668
0.35272	-0.48652
0.50573	0.15117
0.22521	-0.15492
-0.59084	0.55929
-0.38683	-0.25695
0.45472	-2.47613
0.22521	1.37554
0.48022	1.29902
0.30171	0.86539
0.42922	-0.00188
0.32721	0.71234
-0.15732	0.12566
-0.31033	-0.51203
0.19971	0.78886
0.30171	-0.92016
0.04670	0.17668
0.19971	0.07465
0.12320	0.27871
0.22521	0.45726
0.07220	-0.00188
-0.00431	-0.25695
0.07220	0.63582
0.25071	0.73785
0.17421	-0.69059
0.25071	-1.91496
0.25071	0.86539
0.25071	1.86019
0.14870	0.63582
0.12320	0.12566
0.25071	-3.08831
-0.02981	1.50308
0.09770	0.66132
0.04670	0.63582
0.09770	0.73785
0.45472	0.53379
0.32721	-0.00188
-0.48884	0.94191
-0.15732	-0.66508
0.42922	-0.97117
0.32721	0.25320
0.35272	-0.51203
0.30171	0.68683
0.17421	0.86539
-0.02981	0.22769
0.07220	0.17668
0.14870	-0.66508
0.17421	-0.07840
0.19971	0.55929
0.02119	0.07465
0.09770	0.04914
0.17421	1.04394
0.02119	-0.02739
0.19971	0.35523
0.19971	0.25320
0.35272	0.20219
0.19971	-0.28246
-0.18282	0.15117
0.22521	0.25320
0.32721	0.15117
0.07220	-1.22625
0.22521	1.12046
0.12320	0.12566
0.27621	0.99292
0.12320	-0.30797
-0.00431	-1.65988
0.07220	1.42656
0.55673	0.50828
-0.13181	0.04914
-0.38683	1.19699
0.25071	-0.46102
0.58223	0.17668
0.27621	0.45726
-0.00431	-0.33348
0.32721	0.12566
0.19971	-0.02739
0.14870	0.43176
0.04670	0.15117
0.30171	0.15117
0.02119	0.40625
0.14870	-0.41000
0.17421	-0.41000
0.19971	0.30422
0.07220	0.76336
-0.08081	0.45726
0.09770	0.10015
-0.18282	0.04914
0.37822	0.22769
0.25071	-0.00188
0.45472	-0.38449
0.32721	1.96222
-0.28482	-2.42511
-0.28482	0.68683
0.53123	-0.00188
0.60773	0.22769
0.55673	1.70714
0.17421	-0.79262
0.12320	0.17668
-0.08081	0.45726
0.07220	0.68683
0.22521	0.40625
0.17421	-0.89465
0.07220	-0.56305
-0.33583	0.22769
0.02119	-0.00188
0.12320	-0.12942
0.04670	-0.56305
0.32721	0.25320
0.17421	0.30422
0.32721	0.91640
0.17421	0.86539
0.30171	-0.43551
0.04670	-1.20074
0.19971	-0.92016
0.22521	1.45206
0.07220	2.03874
0.12320	-1.68539
0.07220	1.01843
0.07220	0.73785
0.14870	-0.18043
0.63323	0.68683
-0.18282	-0.05289
-0.48884	-0.46102
0.09770	-0.74160
0.48022	-0.00188
0.50573	0.89089
0.32721	0.12566
0.32721	0.17668
-0.02981	0.04914
-0.08081	0.22769
0.14870	-0.15492
0.19971	0.43176
0.32721	-0.63957
0.04670	-0.69059
0.07220	0.50828
-0.13181	0.63582
0.14870	-0.18043
0.22521	1.40105
0.22521	-0.18043
0.09770	-0.15492
0.12320	0.66132
0.12320	-1.04770
0.27621	0.61031
-0.00431	0.43176
0.12320	0.15117
0.19971	0.76336
0.12320	-0.71609
0.22521	0.22769
0.19971	0.15117
0.19971	0.35523
-0.10631	-0.00188
0.19971	-1.04770
0.12320	0.53379
0.19971	-1.07320
0.30171	0.35523
0.60773	1.17148
0.04670	0.71234
-0.71835	0.30422
0.04670	0.76336
0.27621	0.04914
0.14870	-1.02219
0.22521	-0.35899
0.53123	0.50828
0.22521	-0.38449
0.37822	0.81437
-0.02981	0.20219
0.07220	-0.05289
-0.05531	0.76336
0.12320	0.78886
0.12320	-0.48652
0.14870	0.04914
-0.13181	0.45726
-0.08081	0.02363
0.60773	-0.10391
0.12320	0.15117
0.04670	0.32972
0.17421	-0.07840
0.35272	-0.94566
0.12320	-0.99668
0.25071	0.35523
0.12320	-0.02739
0.07220	0.91640
0.12320	0.63582
0.30171	0.45726
0.55673	0.35523
-0.69285	0.45726
-0.23382	0.30422
0.42922	0.53379
0.27621	-0.56305
0.37822	-0.99668
0.37822	-0.10391
0.04670	1.01843
0.12320	0.63582
0.32721	-0.05289
0.22521	0.04914
0.14870	0.45726
0.02119	-0.12942
0.02119	0.20219
0.04670	0.45726
0.07220	0.25320
0.09770	0.35523
0.12320	-0.05289
0.22521	0.43176
0.27621	0.02363
0.09770	0.81437
0.19971	-1.63437
0.17421	-0.23145
0.19971	1.37554
0.14870	0.66132
0.07220	0.48277
0.32721	0.22769
0.07220	0.20219
0.12320	0.07465
0.09770	-0.86914
0.19971	0.68683
0.12320	0.40625
-0.20832	0.45726
0.60773	-1.37929
0.04670	-0.51203
-0.76936	0.63582
0.32721	1.27351
0.40372	-0.51203
0.60773	0.55929
0.25071	0.55929
0.27621	0.45726
0.04670	0.12566
0.22521	0.10015
0.14870	-0.07840
-0.08081	-1.48133
-0.10631	-0.51203
0.25071	0.50828
0.12320	0.96742
0.04670	1.22250
0.09770	0.25320
0.22521	-0.56305
0.12320	0.55929
0.22521	0.58480
0.17421	1.12046
0.22521	-1.25176
0.14870	-1.25176
0.17421	0.86539
0.09770	0.71234
0.14870	-0.61406
0.35272	0.86539
0.27621	0.76336
-0.51434	0.25320
-0.23382	0.45726
0.53123	0.43176
0.32721	-1.55785
0.35272	-0.20594
0.09770	0.94191
0.17421	0.58480
0.14870	-0.43551
0.14870	0.32972
0.14870	0.25320
0.30171	0.58480
-0.00431	0.73785
-0.10631	-0.99668
0.22521	0.58480
0.04670	-0.30797
0.17421	-0.97117
0.22521	-0.71609
0.09770	1.12046
0.22521	0.22769
0.12320	0.71234
0.32721	0.86539
0.07220	-0.30797
0.17421	1.01843
0.02119	-1.07320
0.07220	-0.35899
0.09770	1.12046
0.22521	-1.35379
0.14870	0.20219
0.07220	0.35523
0.17421	0.83988
0.37822	1.09496
0.40372	-0.35899
-0.48884	-0.23145
-0.00431	0.30422
0.48022	0.15117
0.32721	0.12566
0.22521	-2.22105
-0.00431	0.76336
0.14870	1.17148
0.07220	-0.69059
0.12320	0.76336
0.30171	0.76336
0.30171	0.38074
0.17421	-0.05289
0.14870	0.48277
0.22521	0.55929
-0.10631	0.07465
-0.08081	-1.02219
0.02119	0.04914
0.42922	-0.18043
0.22521	0.53379
0.07220	0.81437
0.07220	-1.53234
0.22521	0.86539
0.30171	0.89089
0.17421	-0.23145
-0.10631	1.01843
0.04670	1.27351
0.48022	-1.99148
0.02119	0.35523
0.17421	-0.43551
0.09770	0.81437
0.53123	0.68683
0.09770	0.10015
-0.53984	0.27871
-0.20832	-0.33348
0.42922	0.38074
0.40372	0.86539
0.32721	-0.86914
0.22521	0.17668
0.27621	0.15117
-0.00431	0.02363
0.02119	0.22769
-0.00431	-0.74160
0.25071	1.01843
0.17421	0.50828
0.19971	0.38074
0.12320	0.96742
0.12320	0.48277
-0.10631	-0.58856
0.09770	-0.20594
0.12320	0.35523
0.27621	0.07465
0.22521	-0.15492
0.22521	-0.10391
0.25071	1.17148
0.04670	-0.20594
0.02119	0.04914
-0.13181	0.76336
0.22521	0.78886
0.27621	0.25320
0.27621	0.12566
-0.00431	0.27871
0.14870	0.27871
0.32721	0.12566
0.50573	-0.35899
-0.28482	-0.56305
-0.46334	0.86539
0.12320	0.02363
0.32721	-0.05289
0.32721	0.45726
0.32721	-0.63957
0.12320	0.17668
0.17421	0.96742
0.22521	0.71234
0.09770	0.20219
0.09770	0.17668
0.09770	-0.38449
0.14870	-0.38449
0.14870	-0.28246
0.14870	-0.05289
0.25071	1.17148
0.09770	-0.07840
0.17421	-0.61406
0.12320	0.94191
0.12320	0.45726
0.19971	-0.10391
-0.00431	0.61031
0.17421	-0.94566
0.12320	-0.23145
0.19971	0.66132
0.22521	0.73785
0.25071	-0.15492
0.02119	0.25320
-0.02981	0.66132
0.19971	-0.15492
0.17421	0.25320
0.07220	-0.41000
0.40372	0.38074
0.42922	-0.00188
-0.64185	-0.05289
-0.18282	-0.56305
0.37822	0.68683
0.22521	0.43176
0.32721	0.55929
0.14870	0.55929
0.22521	-1.04770
0.19971	0.07465
0.17421	0.48277
0.07220	0.20219
0.09770	0.20219
0.17421	0.81437
-0.02981	-0.46102
0.19971	-0.86914
0.09770	0.45726
0.25071	0.50828
0.17421	0.55929
0.12320	0.25320
-0.05531	-1.43031
0.30171	0.48277
-0.00431	1.32453
0.30171	-0.02739
0.19971	-0.76711
0.22521	0.45726
0.09770	-0.25695
0.27621	0.71234
-0.00431	0.32972
0.12320	0.25320
0.04670	0.43176
0.48022	0.40625
-0.28482	0.66132
-0.31033	-2.27207
0.32721	-0.20594
0.25071	1.01843
0.50573	-0.05289
0.35272	0.63582
0.07220	0.27871
0.25071	0.04914
0.02119	0.50828
0.12320	0.43176
-0.05531	0.73785
0.17421	-0.53754
0.25071	0.63582
0.09770	-0.76711
-0.00431	-0.71609
0.12320	0.25320
0.32721	-0.02739
0.12320	-0.25695
0.14870	1.24800
0.14870	0.73785
0.25071	0.63582
0.17421	0.81437
0.22521	-0.66508
0.17421	0.17668
0.19971	0.55929
0.17421	0.15117
-0.56534	0.10015
0.17421	-2.19554
0.53123	-0.23145
0.42922	0.76336
0.17421	0.86539
0.07220	1.32453
0.35272	0.89089
0.12320	0.04914
0.07220	-1.09871
-0.05531	0.30422
0.12320	0.81437
-0.02981	0.25320
0.12320	-0.10391
0.14870	0.07465
0.22521	0.55929
0.22521	0.04914
0.22521	0.15117
0.22521	-0.20594
-0.23382	0.12566
0.09770	0.22769
0.40372	-1.22625
0.19971	0.58480
0.17421	1.40105
0.14870	0.73785
0.09770	-0.56305
0.35272	-1.48133
0.07220	0.96742
-0.05531	0.12566
0.02119	0.15117
0.22521	0.20219
0.27621	0.76336
0.02119	1.04394
0.22521	0.27871
0.50573	-0.10391
0.32721	-0.92016
-0.59084	-0.58856
-0.20832	0.63582
0.35272	-0.20594
0.48022	0.81437
0.22521	-0.25695
0.22521	0.20219
0.12320	0.58480
0.17421	0.99292
-0.10631	-0.46102
0.19971	-0.86914
0.17421	-0.05289
0.27621	-0.74160
0.12320	2.08976
0.25071	0.55929
0.07220	0.27871
0.12320	-1.40480
0.14870	1.06945
0.04670	-0.20594
0.22521	0.07465
0.09770	0.25320
0.25071	-0.10391
0.14870	0.20219
0.32721	0.27871
0.04670	-0.38449
-0.10631	-0.00188
0.27621	0.35523
0.27621	0.12566
-0.13181	0.55929
0.32721	0.04914
0.60773	0.48277
-0.02981	-0.76711
-0.51434	0.55929
0.14870	-0.20594
0.53123	0.83988
0.37822	-0.20594
0.04670	0.15117
-0.08081	0.50828
0.37822	0.45726
0.22521	0.30422
0.17421	0.04914
-0.00431	0.20219
-0.13181	-0.30797
-0.00431	-1.02219
0.30171	0.58480
0.19971	1.22250
0.12320	0.04914
0.25071	-0.15492
0.25071	0.20219
0.14870	1.27351
0.14870	-1.07320
0.27621	-0.28246
0.42922	-0.12942
-0.25932	-0.48652
0.32721	1.32453
-0.18282	0.35523
-0.13181	0.58480
0.25071	0.71234
0.30171	0.63582
0.53123	-1.83844
0.14870	0.22769
0.30171	0.27871
0.17421	0.45726
0.07220	0.22769
-0.02981	0.25320
0.12320	0.22769
0.12320	0.86539
0.02119	-1.86394
0.12320	0.27871
0.07220	0.15117
0.32721	0.63582
0.17421	0.17668
0.12320	0.53379
0.19971	-0.00188
0.04670	0.30422
0.22521	-0.46102
0.35272	-0.30797
0.02119	0.71234
0.02119	1.45206
0.19971	-1.88945
0.17421	-0.61406
0.09770	0.15117
0.12320	1.27351
0.22521	0.07465
0.14870	0.45726
0.30171	0.66132
-0.25932	0.63582
0.17421	-0.20594
0.42922	0.22769
0.55673	-0.05289
-0.05531	-0.05289
-0.56534	-0.10391
0.22521	-0.00188
0.30171	0.71234
0.50573	-0.76711
0.30171	0.20219
0.12320	0.07465
-0.28482	1.27351
0.07220	-0.41000
0.32721	-0.05289
0.07220	0.71234
0.02119	0.35523
0.14870	-1.20074
0.35272	0.66132
0.19971	0.73785
0.27621	1.24800
0.09770	0.04914
-0.05531	-0.86914
0.02119	0.78886
0.02119	0.55929
0.22521	0.25320
0.22521	0.17668
0.12320	-0.05289
0.17421	-0.25695
0.27621	-0.18043
-0.00431	0.58480
0.22521	0.40625
0.37822	-1.12422
-0.25932	0.50828
-0.64185	0.12566
0.53123	0.35523
0.32721	0.04914
0.37822	0.43176
0.14870	0.48277
0.27621	0.48277
0.14870	0.76336
0.14870	0.99292
-0.00431	-2.85874
-0.02981	0.35523
0.19971	0.27871
0.09770	1.24800
0.07220	1.70714
0.14870	-2.37410
0.45472	0.48277
0.07220	0.94191
-0.28482	0.43176
0.02119	0.04914
0.32721	1.17148
0.25071	-0.07840
0.32721	-1.43031
0.22521	0.04914
0.30171	0.78886
0.12320	0.43176
0.22521	0.48277
0.02119	-0.66508
0.19971	0.25320
-0.05531	0.10015
0.02119	0.45726
0.22521	-0.00188
0.17421	0.40625
0.25071	-0.07840
0.17421	0.55929
0.48022	0.17668
0.30171	0.86539
-0.48884	-0.18043
-0.38683	-0.10391
0.22521	0.04914
0.27621	-0.46102
0.32721	0.45726
0.40372	0.68683
0.32721	-0.07840
-0.00431	-0.28246
0.22521	1.37554
0.02119	1.17148
0.25071	-0.92016
0.09770	0.30422
-0.08081	0.53379
-0.18282	-1.40480
0.22521	0.45726
0.40372	0.81437
0.02119	-0.58856
-0.02981	1.06945
0.25071	0.35523
0.32721	-0.84363
0.19971	-0.35899
0.17421	-0.33348
0.25071	1.17148
0.19971	0.61031
0.04670	0.20219
0.12320	0.38074
0.02119	0.10015
0.55673	0.04914
0.14870	0.15117
-0.51434	-0.07840
-0.15732	0.15117
0.35272	0.35523
0.25071	0.17668
0.22521	-1.22625
0.37822	0.63582
0.17421	0.61031
0.22521	0.53379
0.12320	0.76336
0.09770	-1.99148
0.17421	0.50828
0.27621	1.19699
0.02119	0.55929
-0.00431	0.58480
-0.00431	0.10015
0.25071	0.10015
0.12320	0.32972
0.19971	-0.23145
0.02119	-0.53754
0.04670	1.01843
0.32721	-1.35379
0.22521	-0.41000
0.25071	1.19699
0.04670	0.63582
0.12320	-0.56305
0.17421	0.50828
0.17421	0.27871
0.19971	0.22769
0.12320	0.02363
0.17421	0.32972
0.04670	-0.10391
0.14870	0.10015
0.09770	0.12566
0.17421	0.55929
0.14870	-0.20594
0.19971	0.25320
0.70974	0.22769
-0.25932	0.50828
-0.79486	-0.86914
0.14870	0.15117
0.73524	-1.04770
0.09770	1.29902
0.30171	0.32972
0.19971	-0.10391
0.19971	0.96742
0.17421	1.14597
0.12320	0.35523
0.09770	0.89089
0.17421	0.45726
0.19971	-0.79262
0.12320	0.35523
-0.00431	0.02363
-0.08081	0.15117
0.02119	0.43176
0.22521	0.30422
0.09770	-1.07320
0.19971	0.32972
0.04670	-0.51203
0.27621	0.81437
0.17421	0.48277
0.27621	-0.28246
0.14870	0.78886
0.30171	1.70714
0.12320	0.25320
0.14870	-1.07320
0.37822	0.04914
-0.23382	0.58480
-0.53984	-0.23145
0.32721	0.45726
0.40372	0.10015
0.45472	0.48277
0.25071	-0.58856
0.35272	0.58480
0.32721	0.78886
0.07220	0.73785
-0.10631	-0.46102
-0.18282	0.35523
0.30171	-0.35899
0.12320	-1.40480
0.30171	0.50828
0.27621	0.86539
0.02119	-0.05289
0.07220	0.25320
0.17421	1.40105
0.12320	-1.25176
0.14870	-0.48652
0.04670	0.68683
0.19971	0.55929
0.04670	0.12566
0.45472	0.45726
-0.13181	0.68683
-0.38683	0.40625
0.35272	0.35523
0.42922	0.17668
0.22521	-0.18043
0.27621	-0.53754
0.22521	-1.99148
-0.02981	0.55929
0.07220	0.66132
0.07220	1.01843
0.14870	-0.66508
0.22521	1.01843
-0.00431	0.48277
0.07220	-0.38449
0.40372	0.04914
0.14870	0.66132
-0.15732	-1.07320
0.19971	0.91640
0.12320	-0.12942
0.07220	0.35523
0.35272	-0.05289
0.12320	0.66132
0.19971	0.27871
0.40372	-0.05289
0.02119	-0.58856
-0.08081	0.35523
0.17421	0.04914
0.19971	0.83988
0.22521	0.43176
0.04670	0.68683
0.04670	-0.35899
0.12320	0.02363
0.55673	0.66132
-0.00431	0.63582
-0.28482	-1.43031
0.09770	-0.43551
0.17421	0.45726
0.22521	1.17148
0.32721	-1.37929
0.37822	-0.07840
0.32721	1.24800
0.07220	1.55410
0.09770	-0.10391
0.12320	0.02363
0.07220	-1.48133
0.12320	0.40625
0.02119	0.32972
0.17421	0.50828
0.07220	0.43176
0.12320	-0.10391
0.07220	-0.92016
0.25071	0.45726
0.02119	0.96742
-0.08081	-0.05289
0.02119	-0.43551
0.30171	0.55929
0.30171	0.12566
0.14870	0.48277
0.25071	0.91640
0.12320	-1.02219
0.45472	0.76336
-0.05531	-0.33348
-0.38683	-0.15492
0.09770	0.20219
0.48022	0.76336
0.14870	0.61031
0.32721	0.38074
0.07220	0.43176
0.17421	0.66132
0.17421	-0.61406
0.25071	-1.32828
0.17421	0.22769
-0.00431	0.45726
0.02119	0.45726
0.07220	0.30422
-0.00431	0.35523
0.19971	0.35523
0.22521	0.10015
0.25071	0.55929
0.19971	-1.55785
0.19971	0.63582
0.30171	0.96742
0.12320	0.96742
-0.08081	1.06945
-0.00431	-4.49124
0.37822	-0.15492
0.02119	0.86539
0.12320	1.19699
0.35272	1.19699
0.14870	1.12046
0.50573	0.83988
0.42922	0.10015
-0.79486	-2.04250
-0.08081	0.86539
0.37822	0.02363
0.48022	0.30422
0.42922	0.35523
0.14870	-0.66508
0.02119	0.20219
0.14870	0.71234
0.09770	0.27871
0.22521	-0.02739
0.17421	0.22769
0.09770	0.43176
0.19971	0.27871
0.02119	-0.18043
0.12320	0.66132
0.22521	-0.48652
-0.02981	0.73785
0.14870	-0.02739
0.35272	0.48277
0.19971	0.76336
0.14870	-1.40480
0.12320	0.04914
0.14870	0.89089
0.27621	-0.15492
-0.05531	0.02363
-0.00431	0.83988
0.35272	0.76336
-0.08081	1.17148
-0.08081	-0.76711
0.32721	-0.56305
0.27621	0.58480
0.35272	-0.18043
0.19971	-0.74160
0.17421	0.20219
0.07220	-0.12942
0.12320	0.96742
0.14870	-0.00188
0.25071	-0.10391
0.17421	0.30422
-0.02981	0.50828
-0.05531	0.27871
0.09770	-0.30797
0.04670	0.02363
0.12320	1.55410
0.25071	-0.28246
0.22521	-1.65988
0.27621	-1.60887
0.12320	0.50828
0.22521	1.37554
0.19971	1.17148
0.07220	0.55929
0.37822	-0.74160
0.07220	-0.56305
0.14870	0.81437
0.12320	0.91640
0.63323	0.30422
-0.02981	-0.05289
-0.82036	0.15117
0.12320	0.15117
0.50573	-0.25695
0.50573	0.43176
0.14870	-0.18043
0.12320	0.71234
0.19971	-0.48652
0.30171	-1.09871
-0.08081	1.68163
0.02119	-0.58856
0.19971	0.27871
0.25071	0.10015
0.12320	0.83988
0.12320	0.68683
0.17421	0.76336
-0.05531	0.27871
0.27621	0.07465
0.19971	-0.79262
0.32721	0.17668
0.12320	-0.69059
0.22521	-0.33348
0.04670	0.83988
0.07220	0.58480
-0.02981	0.25320
0.25071	0.17668
0.25071	-0.25695
0.19971	0.30422
0.14870	0.20219
0.22521	0.30422
0.04670	0.50828
0.12320	0.40625
0.40372	-1.14973
0.40372	0.15117
-0.53984	0.12566
-0.00431	0.66132
0.45472	-0.25695
0.32721	0.63582
0.07220	0.04914
0.25071	-0.61406
0.22521	0.10015
0.42922	1.04394
0.04670	0.04914
-0.64185	-0.18043
-0.18282	-1.45582
0.37822	2.24281
0.55673	0.15117
0.25071	0.63582
0.14870	0.48277
-0.00431	-0.38449
0.19971	-0.61406
0.02119	1.60511
0.22521	-1.68539
0.14870	0.40625
0.22521	-0.10391
0.12320	0.89089
0.12320	0.61031
0.02119	-0.15492
0.30171	-0.02739
0.30171	-0.07840
-0.48884	-0.05289
-0.10631	0.22769
0.53123	0.35523
0.25071	-0.79262
0.32721	0.63582
0.25071	0.10015
0.14870	-0.58856
0.09770	0.04914
0.19971	0.81437
0.12320	0.71234
0.04670	0.86539
0.14870	0.58480
-0.00431	-0.20594
0.17421	0.17668
0.30171	-0.53754
0.02119	0.38074
-0.38683	-0.18043
0.17421	0.63582
0.50573	-0.30797
0.40372	0.25320
0.19971	0.15117
-0.13181	-0.07840
0.22521	0.32972
0.45472	0.68683
-0.20832	-0.79262
-0.23382	0.07465
0.32721	0.40625
0.32721	0.22769
0.32721	0.17668
-0.00431	-0.43551
0.17421	0.58480
0.27621	0.61031
-0.15732	-0.05289
1.04126	0.55929
-0.25932	-1.37929
-0.89686	-1.12422
-0.00431	1.12046
0.35272	1.68163
0.22521	-1.02219
0.35272	1.12046
0.30171	0.32972
0.35272	0.04914
0.27621	0.76336
0.19971	0.25320
0.04670	-0.79262
0.17421	-0.74160
0.04670	1.09496
0.12320	-0.43551
-0.02981	0.12566
0.12320	0.89089
-0.13181	1.14597
0.07220	-0.63957
0.27621	0.02363
0.27621	0.35523
0.19971	0.55929
0.35272	0.43176
0.12320	-0.05289
0.04670	-0.56305
0.22521	-0.56305
0.09770	0.73785
0.12320	-0.25695
0.04670	-0.07840
0.14870	1.32453
0.12320	0.68683
0.19971	0.30422
0.07220	-0.51203
0.07220	0.86539
0.45472	0.76336
0.55673	-2.90976
-0.71835	0.83988
-0.43783	1.04394
0.53123	0.89089
0.58223	-0.51203
0.42922	0.02363
0.09770	-1.02219
0.17421	0.83988
-0.05531	0.68683
0.07220	0.66132
0.07220	0.61031
0.19971	-0.38449
0.07220	-0.02739
0.07220	-0.15492
0.19971	0.78886
0.22521	0.25320
0.02119	0.35523
0.12320	-0.71609
0.25071	0.53379
0.09770	-0.86914
0.12320	0.55929
0.17421	0.10015
0.14870	0.40625
-0.05531	0.61031
0.63323	0.48277
-0.08081	0.32972
-0.33583	-0.10391
0.32721	0.07465
0.14870	0.02363
0.42922	0.43176
0.27621	-0.28246
0.12320	0.10015
0.14870	0.02363
0.35272	-0.07840
0.17421	-1.48133
0.12320	1.57960
0.04670	-0.69059
-0.02981	-0.18043
0.07220	1.40105
-0.02981	0.99292
0.17421	-0.51203
0.14870	0.94191
0.19971	0.58480
0.19971	0.71234
-0.08081	-1.91496
0.25071	0.27871
0.19971	-0.35899
0.19971	0.55929
0.17421	-0.94566
0.22521	1.01843
0.04670	0.43176
0.02119	0.45726
0.35272	0.10015
0.27621	0.38074
0.12320	0.63582
0.09770	-0.35899
0.12320	0.15117
0.32721	-0.05289
0.45472	0.38074
-0.43783	-0.07840
-0.28482	-0.12942
0.14870	0.15117
0.40372	-0.43551
0.19971	-0.38449
0.32721	1.09496
0.27621	0.17668
0.02119	-0.25695
0.27621	1.35003
0.27621	-0.23145
-0.08081	0.55929
0.04670	-0.30797
0.35272	0.17668
0.04670	-0.10391
0.07220	0.35523
0.14870	0.10015
0.09770	-0.18043
0.17421	0.50828
0.12320	0.15117
0.14870	0.38074
0.25071	-1.37929
0.19971	0.27871
-0.02981	1.17148
-0.08081	0.35523
0.30171	-1.71090
0.19971	0.68683
0.14870	0.17668
0.53123	1.19699
0.19971	-1.76191
-0.59084	0.55929
-0.08081	0.78886
0.50573	0.25320
-0.02981	0.66132
0.27621	-0.07840
0.19971	0.55929
0.27621	0.86539
0.12320	-1.50683
0.07220	0.10015
0.22521	-0.02739
0.09770	0.12566
0.22521	0.12566
-0.05531	0.04914
0.02119	-0.12942
0.17421	0.17668
-0.05531	-0.23145
0.04670	0.45726
0.30171	1.37554
0.32721	-0.51203
-0.02981	0.63582
0.17421	-1.02219
0.14870	-0.18043
0.27621	0.76336
0.17421	0.83988
0.14870	0.76336
-0.02981	-0.66508
0.48022	0.50828
0.25071	0.55929
-0.56534	-0.99668
0.07220	0.71234
0.60773	-0.53754
0.19971	0.04914
0.37822	0.07465
0.19971	-0.66508
0.02119	0.63582
0.07220	0.63582
0.17421	0.35523
0.12320	0.94191
0.02119	-0.58856
0.19971	0.10015
0.25071	-0.86914
0.02119	-0.30797
0.25071	0.30422
0.30171	0.66132
0.25071	1.17148
0.04670	-0.86914
0.19971	0.43176
0.12320	0.96742
0.04670	0.53379
0.07220	0.45726
-0.02981	-0.25695
0.30171	0.04914
0.17421	0.40625
0.27621	-0.53754
0.12320	0.15117
0.22521	-0.12942
0.09770	0.02363
0.19971	0.55929
0.14870	0.25320
0.53123	-0.25695
-0.53984	0.53379
-0.51434	-0.56305
0.48022	2.06425
0.22521	-2.85874
0.27621	-1.12422
0.14870	-0.12942
0.45472	1.04394
0.35272	1.24800
0.22521	0.83988
0.07220	0.83988
0.12320	0.40625
0.12320	0.12566
0.02119	-0.07840
-0.05531	-0.10391
-0.05531	-0.15492
0.12320	-0.12942
0.27621	-0.07840
0.14870	-0.07840
0.17421	0.07465
0.17421	0.02363
0.17421	0.12566
0.17421	0.15117
0.19971	0.25320
0.25071	0.25320
0.09770	0.15117
0.25071	0.32972
0.12320	0.30422
0.17421	0.30422
0.09770	0.07465
0.19971	0.32972
0.04670	1.22250
0.22521	-0.79262
0.07220	2.16628
0.12320	-2.22105
0.12320	-1.68539
0.09770	1.27351
0.25071	1.09496
0.12320	0.91640
0.02119	-0.15492
0.30171	0.45726
0.50573	0.91640
-0.71835	0.66132
-0.53984	-0.10391
0.45472	-0.71609
0.96476	0.30422
0.09770	0.04914
-0.10631	0.76336
0.68424	-0.30797
0.27621	-0.38449
0.40372	0.02363
0.14870	0.15117
0.14870	0.27871
-0.08081	0.22769
-0.05531	0.17668
-0.02981	0.15117
0.12320	0.40625
0.14870	0.15117
0.07220	0.10015
0.14870	0.07465
0.09770	0.53379
0.19971	0.45726
0.12320	-0.35899
0.35272	-0.18043
0.02119	-0.05289
0.22521	0.48277
0.17421	-0.20594
0.12320	1.50308
0.12320	0.25320
0.32721	-2.14453
0.32721	-0.56305
-0.00431	0.99292
0.07220	0.96742
0.25071	1.01843
0.12320	-0.02739
0.04670	0.04914
0.09770	-0.89465
0.30171	0.30422
0.07220	0.15117
0.02119	0.32972
0.17421	0.15117
0.25071	0.07465
0.09770	0.50828
0.12320	-0.97117
0.17421	-0.23145
0.12320	0.30422
0.22521	0.22769
0.27621	1.22250
-0.00431	-0.43551
0.25071	0.02363
0.07220	0.27871
-0.00431	0.73785
0.58223	-0.38449
-0.05531	0.40625
-0.31033	-0.89465
0.12320	0.25320
0.40372	0.55929
0.48022	0.76336
0.09770	0.38074
-0.00431	0.04914
0.09770	-0.05289
0.50573	-0.58856
0.22521	0.38074
-0.33583	-0.18043
-0.05531	0.55929
0.35272	0.35523
0.27621	1.55410
0.19971	-1.09871
0.02119	-1.12422
0.22521	0.35523
0.14870	0.94191
0.22521	0.53379
0.09770	0.53379
-0.23382	0.25320
0.22521	-0.35899
0.12320	0.27871
0.35272	-0.33348
0.40372	0.15117
-0.41233	0.55929
-0.15732	0.40625
0.53123	-0.35899
0.32721	0.04914
0.25071	0.38074
0.19971	0.73785
0.14870	-0.35899
0.09770	0.35523
0.02119	0.55929
0.19971	-0.02739
0.37822	0.22769
-0.13181	0.55929
-0.05531	-0.86914
0.14870	0.15117
0.27621	1.12046
0.25071	-0.69059
0.22521	0.25320
0.04670	0.17668
0.14870	0.35523
0.02119	0.61031
0.09770	0.35523
0.09770	-0.61406
0.48022	-0.76711
0.14870	0.27871
-0.00431	1.55410
0.17421	-0.10391
0.42922	-0.79262
-0.05531	0.89089
0.25071	0.20219
0.07220	0.40625
0.22521	0.61031
-0.38683	-0.56305
-0.18282	0.02363
0.50573	1.40105
0.35272	-2.29757
0.19971	0.43176
0.17421	-0.18043
0.40372	0.58480
0.12320	0.53379
0.12320	0.27871
0.07220	0.10015
0.12320	0.10015
-0.31033	-0.07840
0.07220	0.07465
0.32721	0.15117
0.42922	0.81437
0.25071	-0.69059
0.14870	0.17668
0.12320	-0.05289
-0.05531	-0.48652
0.09770	-0.12942
0.12320	0.61031
0.09770	0.35523
0.22521	0.25320
0.14870	1.52859
0.27621	0.86539
0.25071	-0.23145
0.63323	-1.81293
-0.48884	1.17148
-0.41233	-1.04770
0.27621	-0.81812
0.37822	0.81437
0.40372	1.24800
0.25071	1.37554
0.35272	0.15117
0.19971	-0.69059
-0.00431	0.71234
0.09770	0.61031
0.07220	0.22769
0.02119	0.15117
0.17421	-0.10391
0.04670	-0.07840
0.17421	-0.02739
0.07220	0.35523
0.32721	-0.28246
0.19971	-0.25695
-0.00431	-0.15492
0.12320	0.50828
0.27621	1.04394
0.14870	1.35003
0.12320	-1.37929
0.19971	0.25320
0.12320	0.81437
0.22521	0.32972
0.17421	-0.00188
0.07220	-1.07320
0.48022	0.15117
-0.05531	1.17148
-0.48884	1.32453
0.07220	-3.49644
0.63323	0.99292
0.04670	0.96742
-0.05531	0.61031
0.53123	-0.46102
0.40372	0.83988
-0.13181	0.30422
0.12320	-0.23145
0.12320	-1.07320
0.19971	0.04914
-0.05531	-0.25695
0.17421	0.96742
0.12320	0.38074
0.22521	0.38074
0.02119	-0.12942
0.17421	0.53379
0.14870	0.73785
0.19971	-0.28246
0.04670	-0.07840
0.30171	0.73785
0.19971	-1.12422
0.25071	0.15117
0.14870	-0.92016
0.17421	0.55929
0.53123	0.38074
0.12320	0.32972
-0.74385	0.43176
-0.08081	0.38074
0.70974	-0.05289
0.42922	1.14597
0.25071	-0.79262
-0.08081	-0.05289
0.07220	-0.41000
0.14870	1.01843
0.19971	0.78886
0.19971	-1.09871
-0.00431	0.40625
-0.15732	0.35523
0.32721	1.06945
0.32721	0.30422
0.27621	-0.33348
-0.18282	-2.01699
0.12320	1.50308
0.19971	1.12046
0.19971	-0.25695
0.09770	0.17668
0.17421	0.43176
0.19971	0.40625
0.17421	0.50828
0.07220	-0.38449
-0.05531	-0.02739
0.07220	0.12566
0.37822	0.04914
0.12320	0.25320
0.09770	1.01843
0.22521	-1.07320
0.12320	-0.81812
-0.00431	-0.18043
0.19971	1.35003
0.53123	1.27351
-0.15732	0.71234
-0.38683	-0.41000
0.12320	-0.20594
0.32721	0.50828
0.32721	-0.41000
0.45472	-0.00188
0.17421	0.78886
0.22521	0.22769
0.04670	-0.10391
0.07220	0.35523
-0.00431	0.15117
0.32721	0.30422
-0.08081	0.02363
-0.13181	0.17668
0.14870	-0.46102
0.27621	0.48277
0.09770	0.04914
0.25071	-0.35899
0.12320	1.06945
0.22521	0.55929
0.22521	-0.25695
0.12320	0.07465
0.35272	0.73785
0.07220	0.15117
0.14870	0.61031
0.14870	0.38074
0.19971	0.30422
0.09770	-0.25695
0.22521	0.10015
0.42922	-0.07840
0.14870	0.50828
-0.53984	-0.10391
0.09770	-0.12942
0.40372	0.83988
0.37822	0.45726
0.14870	-1.12422
0.27621	0.38074
0.19971	0.45726
0.19971	0.15117
0.02119	0.40625
-0.08081	0.07465
0.32721	0.07465
0.07220	0.27871
0.07220	-0.25695
0.12320	-0.15492
0.09770	-0.20594
0.04670	0.66132
0.50573	-0.86914
0.25071	0.73785
0.09770	0.66132
0.19971	0.38074
-0.02981	0.53379
0.17421	-0.05289
0.17421	0.71234
0.07220	0.17668
0.17421	-0.25695
0.27621	-0.99668
0.50573	0.02363
-0.31033	1.93671
-0.36133	-2.68019
0.42922	1.14597
0.37822	0.89089
0.14870	0.78886
0.17421	-0.51203
0.09770	0.40625
0.22521	0.38074
0.17421	0.63582
-0.00431	-0.07840
0.19971	-0.25695
0.22521	-0.05289
0.14870	0.17668
0.02119	0.02363
0.25071	0.27871
0.12320	0.61031
0.12320	-1.40480
0.09770	0.32972
0.07220	0.68683
0.14870	0.48277
0.25071	0.50828
0.12320	0.40625
0.25071	0.43176
0.30171	-0.84363
0.17421	0.27871
