0.19971	0.20219
0.04670	0.15117
0.12320	0.17668
0.14870	0.17668
0.07220	0.10015
0.12320	0.20219
0.17421	0.12566
0.04670	0.04914
0.19971	0.15117
0.17421	0.10015
0.19971	0.22769
0.04670	0.12566
-0.02981	0.20219
0.17421	0.15117
0.22521	0.12566
0.30171	0.17668
0.14870	0.04914
0.22521	0.07465
0.12320	0.20219
-0.20832	0.12566
-0.05531	0.17668
0.22521	0.27871
0.17421	0.12566
0.22521	0.15117
0.14870	0.04914
0.22521	0.12566
0.14870	0.20219
0.12320	0.10015
0.19971	0.22769
0.09770	0.07465
0.12320	0.25320
0.22521	0.12566
0.07220	0.22769
0.17421	0.04914
0.02119	0.17668
0.17421	0.04914
0.12320	0.12566
0.22521	0.17668
0.14870	0.12566
0.25071	0.17668
0.09770	0.12566
0.14870	0.17668
0.14870	0.20219
0.19971	0.12566
0.04670	0.10015
0.14870	0.15117
0.17421	0.04914
0.14870	0.15117
0.12320	0.15117
0.12320	0.15117
0.19971	0.17668
0.09770	0.20219
0.22521	0.17668
0.12320	0.15117
0.17421	0.15117
0.14870	0.10015
0.02119	0.07465
0.19971	0.15117
0.09770	0.20219
0.22521	0.12566
0.09770	0.25320
0.17421	0.15117
0.14870	0.20219
0.19971	0.10015
0.14870	0.17668
0.17421	0.10015
-0.08081	0.20219
0.12320	0.07465
0.12320	0.12566
0.19971	0.15117
0.09770	0.10015
0.22521	0.25320
0.22521	0.17668
0.22521	0.17668
0.19971	0.10015
0.02119	0.02363
0.12320	0.15117
0.19971	0.17668
0.14870	0.12566
0.17421	0.22769
0.02119	0.15117
0.14870	0.17668
0.19971	0.15117
0.12320	0.12566
0.22521	0.22769
0.12320	0.04914
0.17421	0.15117
0.17421	0.04914
0.07220	0.15117
0.22521	0.20219
0.12320	0.17668
0.14870	0.15117
0.12320	0.17668
0.09770	0.12566
0.14870	0.10015
0.17421	0.20219
0.17421	0.04914
0.14870	0.20219
0.19971	0.12566
0.07220	0.25320
0.12320	0.15117
0.17421	0.15117
0.19971	0.15117
0.14870	0.15117
0.12320	0.17668
0.09770	0.10015
0.30171	0.10015
0.14870	0.07465
0.09770	0.17668
0.17421	0.17668
0.09770	0.15117
0.19971	0.20219
0.12320	0.15117
0.22521	0.07465
0.14870	0.17668
0.22521	0.15117
0.02119	0.17668
0.19971	0.12566
0.04670	0.17668
0.19971	0.20219
0.17421	0.12566
0.25071	0.25320
0.07220	0.07465
0.12320	0.27871
0.12320	0.12566
0.27621	0.04914
0.27621	0.12566
0.07220	0.04914
0.12320	0.22769
0.17421	0.07465
0.04670	0.22769
0.22521	0.25320
0.17421	0.07465
0.25071	0.17668
-0.08081	0.04914
0.17421	0.22769
0.22521	0.10015
0.17421	0.12566
0.22521	0.15117
0.12320	0.10015
0.07220	0.25320
0.17421	0.10015
0.12320	0.17668
0.09770	0.17668
0.19971	0.12566
0.35272	0.17668
0.19971	-0.00188
0.25071	0.12566
0.19971	0.20219
0.04670	0.12566
0.14870	0.10015
0.02119	0.15117
0.19971	0.15117
0.22521	0.20219
0.09770	0.12566
0.12320	0.12566
0.07220	0.17668
0.12320	0.12566
0.22521	0.17668
0.19971	0.27871
0.25071	0.12566
0.17421	0.25320
0.02119	0.10015
0.19971	0.15117
0.22521	0.10015
0.07220	-0.00188
0.19971	0.04914
0.07220	0.10015
0.12320	0.10015
0.27621	0.17668
0.19971	0.22769
0.09770	0.17668
0.07220	0.25320
0.17421	0.17668
0.12320	0.15117
0.25071	0.20219
0.14870	0.04914
0.14870	0.17668
0.12320	0.15117
0.09770	0.17668
0.12320	0.20219
0.19971	0.07465
0.07220	0.07465
0.27621	0.25320
-0.02981	0.04914
0.14870	0.07465
0.22521	0.15117
0.17421	0.15117
0.22521	0.20219
0.09770	0.12566
0.12320	0.15117
0.22521	0.22769
0.04670	0.12566
0.19971	0.12566
0.14870	0.10015
0.09770	0.12566
0.27621	0.20219
0.12320	0.07465
0.12320	0.12566
0.07220	0.22769
0.12320	0.17668
0.12320	0.17668
0.12320	0.12566
0.09770	0.10015
0.22521	0.25320
0.09770	0.12566
0.14870	0.07465
0.17421	0.10015
0.04670	0.04914
0.19971	0.25320
0.09770	0.15117
0.14870	0.12566
0.14870	0.15117
0.09770	0.15117
0.27621	0.12566
0.07220	0.04914
0.09770	0.17668
0.17421	0.15117
0.22521	0.17668
-0.00431	0.17668
0.19971	0.12566
0.22521	0.20219
0.04670	0.15117
0.09770	0.17668
0.12320	0.10015
0.14870	0.17668
0.17421	0.12566
0.14870	0.10015
0.17421	0.20219
0.19971	0.10015
0.12320	0.20219
0.14870	0.15117
0.22521	0.25320
0.27621	0.07465
-0.05531	0.20219
0.12320	0.02363
0.07220	0.20219
0.25071	0.10015
0.09770	0.15117
0.30171	0.20219
0.12320	0.15117
0.22521	0.15117
-0.00431	0.15117
0.12320	0.12566
0.12320	0.15117
0.27621	0.15117
0.12320	0.20219
0.14870	0.10015
0.02119	0.17668
0.27621	0.12566
0.12320	0.07465
0.22521	0.20219
0.12320	0.15117
0.14870	0.10015
0.14870	0.15117
0.12320	0.10015
0.14870	0.02363
0.12320	0.20219
0.07220	0.22769
0.22521	0.10015
0.12320	0.20219
0.12320	0.15117
0.19971	0.27871
0.14870	0.15117
0.17421	0.02363
0.17421	0.22769
0.14870	0.10015
0.14870	0.15117
0.12320	0.22769
0.02119	0.10015
0.27621	0.20219
0.02119	0.22769
0.04670	0.15117
0.14870	0.20219
0.17421	0.07465
0.22521	0.10015
0.22521	0.10015
0.12320	0.15117
0.17421	0.20219
0.07220	0.17668
0.12320	0.25320
0.14870	0.10015
0.14870	0.25320
0.12320	0.07465
0.07220	0.15117
0.14870	0.10015
0.09770	0.04914
0.25071	0.12566
0.09770	0.20219
0.12320	0.22769
0.17421	0.17668
-0.08081	0.15117
0.17421	0.17668
0.14870	0.10015
0.25071	0.15117
0.14870	0.10015
0.14870	0.15117
0.19971	0.15117
-0.02981	0.12566
0.30171	0.20219
0.07220	0.12566
0.14870	0.20219
0.17421	0.12566
0.14870	0.12566
0.19971	0.04914
0.07220	0.17668
0.22521	0.10015
0.07220	0.15117
0.19971	0.17668
0.07220	0.04914
0.22521	0.30422
0.07220	0.12566
0.17421	0.17668
0.19971	0.20219
0.09770	0.12566
0.17421	0.12566
0.02119	0.12566
0.17421	0.02363
0.32721	0.15117
0.09770	0.12566
0.14870	0.22769
0.17421	0.12566
0.04670	0.25320
0.12320	0.10015
0.09770	0.17668
0.22521	0.10015
0.07220	0.12566
0.25071	0.12566
0.04670	0.20219
0.14870	0.17668
0.14870	0.15117
0.19971	0.15117
0.12320	0.12566
0.09770	0.12566
0.09770	0.02363
0.19971	0.25320
0.17421	0.10015
0.12320	0.15117
0.17421	0.12566
0.12320	0.12566
0.12320	0.22769
0.07220	0.10015
0.25071	0.12566
0.12320	0.20219
0.14870	0.17668
0.14870	0.15117
0.17421	0.04914
0.22521	0.15117
0.07220	0.15117
0.12320	0.10015
0.07220	0.27871
0.09770	0.12566
0.27621	0.17668
0.17421	0.17668
-0.05531	0.02363
0.25071	0.17668
0.12320	0.15117
0.19971	0.15117
0.19971	0.20219
0.17421	0.10015
0.09770	0.15117
0.04670	0.10015
0.14870	0.25320
0.17421	0.07465
0.02119	0.25320
0.17421	0.04914
0.12320	0.17668
0.27621	0.10015
-0.00431	0.10015
0.27621	0.17668
0.09770	0.20219
0.19971	0.15117
0.04670	0.20219
0.25071	0.04914
0.12320	0.12566
0.30171	0.12566
0.07220	0.07465
0.25071	0.17668
0.04670	0.12566
0.12320	0.20219
0.09770	0.12566
0.09770	0.25320
0.17421	0.04914
0.17421	0.15117
0.19971	0.15117
0.09770	0.12566
0.12320	0.17668
0.09770	0.07465
0.19971	0.25320
0.19971	0.12566
0.12320	0.17668
0.19971	0.15117
0.07220	0.15117
0.19971	0.15117
0.14870	0.07465
0.14870	0.15117
0.12320	0.10015
0.12320	0.10015
0.22521	0.27871
0.14870	0.04914
0.14870	0.25320
0.02119	0.20219
0.17421	0.25320
0.22521	0.07465
0.17421	0.10015
0.19971	0.17668
0.12320	0.04914
0.12320	0.17668
0.12320	0.15117
0.14870	0.12566
0.19971	0.22769
0.12320	0.17668
0.27621	0.17668
0.04670	0.15117
0.07220	0.10015
0.19971	0.20219
0.07220	0.10015
0.17421	0.15117
0.25071	0.12566
0.17421	0.07465
0.19971	0.25320
0.09770	0.12566
0.17421	0.20219
0.17421	0.15117
0.12320	0.20219
0.22521	0.02363
0.17421	0.10015
0.09770	0.15117
-0.02981	0.15117
0.12320	0.17668
0.12320	0.10015
0.14870	0.17668
0.19971	0.15117
0.25071	0.17668
0.14870	0.15117
-0.00431	0.07465
0.22521	0.12566
0.14870	0.22769
0.19971	0.04914
0.07220	0.15117
0.17421	0.22769
0.07220	0.20219
0.19971	0.22769
0.07220	0.04914
0.14870	0.15117
0.09770	-0.05289
0.12320	0.17668
0.22521	0.15117
0.09770	0.15117
0.22521	0.22769
0.07220	0.12566
0.04670	0.30422
0.14870	0.07465
0.09770	0.12566
0.27621	0.12566
0.12320	0.07465
0.27621	0.20219
0.09770	0.04914
0.12320	0.15117
0.17421	0.15117
0.09770	0.15117
0.14870	0.20219
0.02119	0.15117
0.17421	0.17668
0.09770	0.15117
0.27621	0.10015
0.12320	0.12566
0.17421	0.10015
0.09770	0.25320
0.22521	0.07465
0.02119	0.17668
0.22521	0.12566
0.12320	0.17668
0.12320	0.15117
0.14870	0.20219
0.09770	0.07465
0.09770	0.07465
0.19971	0.17668
0.17421	0.12566
0.17421	0.22769
0.17421	0.12566
0.09770	0.22769
0.12320	0.12566
0.14870	0.12566
0.22521	0.15117
0.04670	0.25320
0.22521	0.12566
0.09770	0.17668
0.25071	0.04914
0.07220	0.22769
0.14870	0.22769
-0.00431	0.15117
0.22521	0.25320
0.17421	0.15117
0.17421	-0.15492
0.17421	0.00000
0.22521	0.00000
0.12320	0.00000
0.07220	0.00000
0.22521	0.00000
0.12320	-0.05289
0.17421	0.10015
0.14870	0.25320
0.14870	0.27871
0.14870	0.22769
0.12320	0.25320
0.09770	0.22769
0.09770	0.22769
0.12320	0.07465
0.25071	0.22769
0.14870	0.15117
0.14870	0.22769
0.22521	0.07465
0.09770	0.12566
0.14870	0.25320
0.09770	0.12566
0.22521	0.30422
0.09770	-0.58856
0.22521	0.38074
0.07220	0.43176
0.19971	0.45726
0.19971	0.20219
0.04670	0.20219
0.12320	0.12566
0.17421	0.27871
0.12320	0.15117
0.12320	0.15117
0.17421	0.15117
0.12320	-0.00188
0.12320	0.15117
0.09770	0.04914
0.22521	0.07465
0.07220	0.12566
0.14870	0.12566
-0.02981	0.17668
0.30171	0.17668
0.07220	0.22769
0.27621	0.25320
0.07220	0.12566
0.19971	0.17668
0.22521	0.10015
0.14870	0.22769
0.02119	0.02363
0.17421	0.17668
0.19971	0.15117
0.09770	0.15117
0.19971	0.20219
0.04670	0.20219
0.19971	0.10015
0.17421	0.12566
0.17421	0.12566
0.19971	0.20219
0.14870	0.04914
0.25071	0.15117
-0.05531	0.15117
0.30171	0.12566
0.12320	0.30422
0.14870	0.15117
0.14870	0.15117
0.12320	0.15117
0.19971	0.12566
0.19971	0.10015
0.09770	0.10015
0.07220	0.17668
0.14870	0.15117
0.14870	0.17668
0.17421	0.10015
0.09770	0.02363
0.19971	0.35523
0.09770	0.12566
0.17421	0.17668
0.04670	0.15117
0.17421	0.20219
0.17421	0.07465
0.07220	0.15117
0.17421	0.15117
0.09770	0.17668
0.22521	0.12566
0.12320	0.17668
0.17421	0.17668
0.17421	0.10015
0.09770	0.12566
-0.00431	0.12566
0.27621	0.17668
0.12320	0.15117
0.14870	0.20219
0.27621	0.20219
0.14870	0.10015
0.12320	0.12566
0.14870	0.04914
0.12320	0.20219
0.12320	0.15117
0.04670	0.02363
0.14870	0.25320
0.12320	0.22769
0.27621	0.17668
0.14870	0.20219
0.12320	0.12566
0.14870	0.12566
0.09770	-0.00188
0.17421	0.15117
0.14870	0.15117
0.22521	0.15117
0.07220	0.25320
0.19971	0.02363
0.12320	-0.00188
0.19971	0.32972
0.17421	0.30422
0.09770	0.12566
0.17421	0.20219
0.17421	0.15117
0.14870	0.17668
0.04670	0.04914
0.09770	0.12566
0.25071	0.10015
0.04670	0.22769
0.14870	0.12566
0.17421	0.12566
0.17421	0.12566
0.22521	0.10015
0.17421	0.12566
0.22521	0.20219
0.09770	0.10015
0.19971	0.22769
0.07220	0.15117
0.22521	0.17668
0.17421	0.15117
0.02119	0.20219
0.12320	0.22769
0.04670	0.15117
0.27621	0.15117
0.09770	-0.00188
0.22521	0.12566
0.09770	0.10015
0.14870	0.22769
0.14870	0.15117
0.17421	0.17668
0.17421	0.22769
0.09770	0.07465
0.19971	0.10015
0.09770	0.12566
0.22521	0.15117
0.07220	0.07465
0.14870	0.25320
0.09770	0.17668
0.12320	0.15117
0.09770	0.22769
0.19971	0.17668
0.02119	0.12566
0.09770	0.17668
0.09770	0.10015
0.25071	0.12566
0.25071	0.15117
0.09770	0.15117
0.22521	0.20219
0.09770	0.07465
0.17421	0.25320
0.19971	0.12566
0.19971	0.02363
0.02119	0.35523
0.12320	-0.05289
0.22521	0.04914
0.09770	0.15117
0.19971	0.27871
0.09770	0.78886
-0.05531	-0.05289
0.35272	-1.22625
0.14870	0.17668
0.14870	0.81437
0.22521	1.04394
-0.02981	-1.17523
0.12320	0.71234
-0.00431	0.43176
0.27621	-1.25176
0.27621	0.91640
0.09770	0.86539
0.04670	0.91640
0.09770	-2.75671
-0.05531	-1.55785
0.04670	1.88570
0.32721	1.55410
0.53123	0.96742
-0.02981	-0.30797
-0.02981	-1.43031
0.12320	0.63582
0.14870	0.76336
0.37822	1.57960
-0.08081	0.61031
0.14870	-0.99668
0.35272	1.45206
0.19971	-2.78222
0.17421	-0.51203
0.04670	0.30422
0.12320	-1.58336
0.02119	-0.12942
0.22521	2.31933
0.02119	3.28862
0.32721	-1.12422
0.30171	-1.83844
-0.00431	2.21730
-0.28482	1.14597
-0.13181	-0.71609
0.14870	-1.53234
0.25071	0.96742
0.45472	-1.94047
0.27621	1.17148
0.42922	1.12046
0.30171	0.76336
0.12320	0.30422
-0.00431	0.25320
0.02119	-0.35899
0.22521	0.25320
0.22521	0.40625
-0.00431	-1.99148
0.14870	1.09496
0.07220	2.06425
0.02119	1.32453
0.27621	-5.63909
-0.05531	0.81437
0.22521	3.18659
0.32721	0.86539
0.14870	0.17668
0.14870	0.48277
0.22521	-0.02739
0.35272	-2.50164
0.09770	2.34484
-0.41233	1.09496
0.32721	0.68683
0.30171	0.58480
0.30171	0.81437
0.19971	-0.41000
0.04670	0.02363
0.14870	-0.84363
0.32721	0.55929
0.12320	1.70714
0.42922	-0.46102
0.12320	-0.76711
0.12320	-1.55785
-0.15732	-0.18043
0.17421	0.78886
0.07220	0.89089
0.27621	-0.15492
0.09770	2.59991
0.09770	-4.05761
0.09770	1.04394
-0.05531	-2.06800
0.22521	1.75816
0.12320	-2.22105
0.25071	1.04394
0.40372	-0.20594
0.17421	1.57960
0.14870	-1.35379
0.14870	1.19699
0.12320	0.10015
0.22521	0.58480
0.07220	-2.22105
0.25071	-1.02219
0.17421	0.43176
-0.02981	2.67644
-0.13181	1.68163
0.04670	-2.27207
0.30171	1.19699
0.35272	-1.12422
0.12320	-0.25695
0.04670	1.37554
-0.00431	1.22250
0.09770	1.65613
0.22521	-2.62918
0.22521	-1.63437
-0.00431	1.17148
0.14870	0.86539
0.09770	0.38074
0.17421	-0.05289
0.12320	0.04914
0.37822	0.22769
0.17421	0.66132
0.09770	0.32972
0.07220	-0.46102
-0.05531	-0.81812
0.30171	0.76336
0.30171	0.96742
0.09770	-0.30797
0.19971	-1.53234
0.04670	1.29902
0.22521	0.48277
0.40372	1.88570
-0.15732	0.12566
-0.15732	-2.45062
0.30171	-0.30797
0.27621	1.73265
0.12320	2.77847
0.22521	-0.97117
0.19971	-2.19554
0.04670	1.68163
0.12320	0.25320
-0.05531	-4.33819
0.32721	0.68683
-0.05531	1.35003
0.30171	1.93671
0.17421	0.96742
-0.02981	-0.51203
0.12320	0.71234
0.27621	0.07465
0.12320	0.30422
0.14870	0.40625
0.07220	-0.12942
0.25071	1.47757
0.22521	-0.15492
0.12320	-1.76191
0.07220	-0.53754
0.12320	-0.97117
0.25071	1.52859
0.12320	-0.20594
0.19971	0.71234
0.04670	0.48277
0.12320	0.12566
0.22521	0.10015
0.04670	0.35523
0.12320	-0.28246
0.32721	1.01843
0.02119	0.50828
0.17421	0.38074
0.09770	0.10015
0.22521	-0.10391
0.12320	-0.00188
0.30171	0.25320
0.17421	-0.07840
0.12320	-1.12422
0.02119	0.71234
0.22521	0.12566
0.30171	0.50828
0.09770	0.48277
-0.02981	1.78367
0.19971	-6.50635
0.14870	1.06945
0.14870	0.50828
0.27621	1.47757
0.32721	2.59991
0.14870	-1.32828
0.19971	-1.17523
0.02119	1.35003
-0.08081	1.17148
0.09770	-0.38449
0.12320	-1.30277
0.19971	1.65613
0.30171	-0.86914
0.07220	-1.86394
0.19971	0.63582
0.19971	0.81437
0.14870	1.06945
0.12320	-1.30277
0.09770	0.45726
0.25071	0.53379
0.17421	0.48277
0.12320	-1.73640
0.02119	0.15117
0.12320	0.99292
0.04670	0.04914
0.30171	0.55929
0.14870	-0.10391
0.27621	-0.30797
0.22521	-0.33348
0.12320	1.78367
-0.28482	-0.53754
0.25071	0.30422
0.12320	-0.69059
0.22521	0.32972
0.27621	0.96742
0.40372	0.53379
0.09770	0.83988
0.12320	0.22769
-0.08081	-0.35899
0.14870	-1.07320
0.14870	-1.99148
0.25071	0.94191
0.12320	1.27351
0.09770	-1.48133
0.22521	1.17148
0.02119	0.68683
-0.02981	0.66132
0.27621	0.15117
0.30171	0.30422
0.04670	-0.33348
0.22521	0.17668
0.32721	1.47757
0.12320	-0.71609
0.19971	-2.22105
0.12320	0.83988
0.22521	0.68683
0.04670	0.32972
0.27621	0.73785
0.07220	-0.28246
0.22521	-0.02739
0.02119	0.81437
0.09770	0.76336
0.12320	-0.23145
0.17421	-0.25695
0.19971	0.58480
0.14870	0.22769
0.04670	-0.33348
0.27621	-1.20074
0.14870	0.27871
0.17421	0.55929
-0.00431	0.89089
0.17421	-1.12422
0.22521	0.94191
0.12320	0.15117
0.30171	0.43176
0.32721	-0.94566
0.22521	0.45726
-0.05531	1.04394
0.30171	0.58480
0.22521	-0.53754
-0.05531	-0.86914
0.02119	-1.04770
0.14870	0.78886
0.04670	1.98773
0.07220	-2.70570
0.14870	1.50308
0.25071	-0.23145
0.27621	0.27871
0.17421	0.20219
0.22521	1.04394
0.17421	0.71234
0.07220	-2.47613
0.14870	0.32972
0.12320	-0.15492
0.12320	0.99292
0.14870	-0.38449
0.19971	0.48277
0.25071	0.83988
0.17421	0.15117
0.02119	0.55929
0.14870	0.40625
0.09770	-0.46102
0.07220	0.22769
0.19971	-0.33348
0.27621	-0.30797
0.30171	-0.02739
0.02119	0.55929
0.22521	0.63582
0.22521	0.22769
-0.05531	0.07465
0.12320	0.02363
0.07220	0.30422
0.37822	0.48277
0.27621	-0.58856
0.27621	0.04914
-0.00431	0.40625
0.09770	0.20219
0.22521	0.30422
-0.02981	0.48277
0.30171	-1.30277
0.25071	0.27871
0.02119	-0.18043
0.07220	0.27871
0.09770	1.55410
0.30171	-1.55785
0.19971	1.06945
0.27621	-0.66508
0.07220	0.89089
0.02119	0.30422
0.07220	1.86019
0.17421	0.99292
0.22521	-0.86914
0.09770	0.15117
0.14870	0.02363
0.12320	0.32972
0.12320	-0.53754
0.22521	0.66132
0.25071	-1.50683
0.14870	-0.05289
0.09770	-0.12942
0.09770	-0.25695
0.12320	1.24800
0.09770	0.15117
0.30171	-1.71090
0.17421	1.04394
0.14870	0.63582
-0.10631	0.50828
0.22521	1.35003
0.25071	-3.62398
0.19971	1.09496
0.27621	0.71234
0.02119	0.43176
0.14870	0.94191
-0.02981	0.55929
0.04670	0.38074
0.04670	0.04914
0.09770	-0.53754
0.53123	-0.71609
0.22521	1.32453
0.12320	-1.99148
-0.10631	0.68683
0.09770	0.40625
0.17421	-0.18043
0.07220	0.20219
0.19971	0.76336
0.22521	0.20219
0.09770	0.04914
0.22521	0.07465
0.17421	0.07465
0.22521	0.35523
0.22521	0.43176
0.14870	0.50828
0.04670	-1.35379
-0.05531	0.73785
0.25071	0.55929
0.09770	-0.25695
0.17421	1.14597
0.19971	0.30422
0.14870	-0.33348
0.30171	-2.11902
0.02119	1.17148
0.09770	0.35523
0.04670	0.68683
0.02119	0.30422
0.27621	-0.94566
0.50573	0.61031
0.27621	0.25320
-0.08081	0.30422
0.12320	0.38074
-0.00431	-0.28246
0.27621	0.38074
0.19971	-0.12942
0.19971	-0.07840
0.09770	-0.18043
0.14870	0.55929
0.02119	0.58480
0.12320	-0.58856
0.17421	0.43176
0.32721	-0.86914
0.19971	0.96742
0.09770	-0.46102
0.09770	0.58480
0.09770	2.16628
0.35272	-1.09871
0.07220	-0.43551
0.09770	0.94191
0.19971	0.61031
0.12320	0.20219
0.04670	0.22769
0.14870	-1.73640
0.22521	-0.00188
0.02119	1.14597
0.22521	-0.00188
0.30171	-0.07840
0.30171	-0.30797
0.09770	1.55410
0.07220	0.04914
0.02119	-0.53754
0.22521	-0.84363
0.22521	0.30422
0.19971	0.53379
0.07220	0.68683
0.17421	1.22250
0.02119	0.45726
0.17421	-0.69059
0.12320	0.22769
0.22521	0.32972
0.14870	1.68163
0.04670	-1.40480
-0.00431	-0.20594
0.25071	1.27351
0.19971	1.06945
0.17421	-0.00188
0.17421	0.66132
0.02119	0.22769
-0.00431	-0.12942
0.12320	-0.12942
0.07220	0.02363
0.14870	-0.10391
0.25071	0.04914
0.32721	0.07465
0.17421	0.17668
0.19971	0.17668
0.02119	0.22769
0.17421	0.30422
0.09770	0.15117
0.09770	0.17668
0.12320	0.35523
0.02119	-0.15492
0.22521	0.86539
0.17421	0.22769
0.09770	0.17668
0.02119	-2.90976
0.37822	1.50308
0.19971	0.25320
0.09770	-0.76711
-0.05531	1.68163
0.27621	1.19699
0.17421	-0.33348
0.04670	-0.20594
0.12320	0.43176
0.12320	0.73785
0.12320	0.17668
0.25071	0.25320
0.14870	0.61031
0.14870	0.45726
0.02119	-0.48652
0.30171	0.30422
0.07220	-0.12942
-0.00431	-0.35899
0.09770	-0.02739
0.22521	0.15117
0.32721	0.25320
-0.00431	0.20219
0.09770	-1.27726
-0.00431	0.04914
0.25071	1.06945
0.17421	1.04394
0.32721	0.81437
0.27621	0.71234
0.27621	0.55929
0.02119	0.25320
0.17421	-0.15492
0.12320	-0.02739
0.07220	-0.48652
0.14870	0.12566
0.09770	-0.43551
0.07220	-2.04250
-0.02981	0.96742
0.32721	0.76336
0.22521	0.81437
0.07220	0.50828
0.32721	1.09496
0.12320	0.53379
0.14870	-0.66508
0.17421	-0.07840
0.09770	0.04914
-0.02981	0.38074
0.12320	0.35523
0.27621	-0.51203
-0.08081	0.15117
0.22521	0.15117
0.22521	0.07465
0.25071	0.55929
0.19971	0.35523
0.07220	-0.02739
0.09770	0.53379
0.14870	0.53379
0.14870	-0.25695
0.12320	0.58480
0.19971	0.91640
0.12320	0.02363
0.12320	0.22769
-0.02981	0.20219
0.30171	0.27871
0.19971	-0.10391
0.14870	-0.23145
0.14870	0.15117
0.27621	-0.48652
0.25071	-0.02739
0.17421	0.04914
-0.00431	1.29902
0.19971	-0.53754
0.02119	0.68683
0.04670	-0.56305
0.19971	-0.18043
0.22521	1.37554
0.19971	0.30422
0.17421	0.66132
0.09770	0.50828
0.02119	0.20219
0.22521	-0.07840
0.17421	-1.40480
0.22521	0.30422
0.14870	0.76336
0.14870	-0.61406
0.02119	1.52859
-0.00431	0.10015
0.27621	-0.30797
0.04670	0.50828
0.22521	0.10015
0.19971	-0.18043
0.27621	0.38074
0.17421	0.10015
0.09770	0.25320
0.14870	0.12566
0.09770	-0.30797
0.14870	0.20219
0.09770	0.27871
0.09770	0.81437
-0.00431	0.35523
0.19971	0.48277
0.25071	-1.73640
0.32721	-1.53234
0.22521	1.40105
-0.18282	0.81437
0.14870	-0.38449
0.42922	0.91640
0.02119	1.27351
0.25071	-1.35379
0.12320	0.40625
0.19971	0.02363
0.09770	0.22769
0.22521	0.22769
0.12320	0.10015
0.19971	-0.66508
-0.05531	0.07465
-0.02981	0.22769
0.04670	1.40105
0.19971	-1.45582
0.27621	-0.07840
0.25071	-2.27207
0.25071	1.14597
0.22521	1.27351
0.09770	0.71234
0.04670	0.66132
0.12320	-1.12422
0.25071	0.22769
0.12320	0.38074
0.19971	-0.97117
0.02119	0.48277
0.35272	0.10015
0.07220	0.55929
0.12320	0.73785
-0.00431	1.60511
0.09770	-4.33819
0.14870	0.45726
0.19971	0.10015
0.25071	0.81437
0.17421	0.94191
0.17421	0.68683
0.19971	0.40625
0.07220	-0.79262
0.19971	-0.89465
0.02119	0.94191
0.27621	0.81437
0.12320	0.10015
0.12320	1.22250
0.17421	-1.45582
0.12320	0.43176
0.17421	0.38074
0.09770	-0.15492
0.22521	0.50828
0.04670	0.07465
0.19971	0.48277
0.14870	-0.18043
0.14870	-0.35899
0.17421	0.40625
0.25071	0.30422
0.19971	0.61031
-0.15732	0.32972
0.30171	0.20219
-0.00431	-0.35899
0.27621	0.50828
0.25071	0.63582
0.30171	-1.43031
0.07220	0.96742
0.14870	0.45726
0.07220	0.30422
0.30171	0.35523
0.09770	0.58480
0.22521	-0.48652
-0.05531	-0.15492
0.22521	0.32972
0.07220	0.30422
0.12320	1.22250
0.30171	-0.76711
-0.00431	-0.66508
-0.02981	0.40625
0.12320	-0.28246
0.48022	0.30422
0.17421	0.89089
0.19971	0.22769
0.17421	-0.20594
0.12320	0.73785
-0.00431	0.61031
0.19971	-1.83844
0.19971	1.42656
0.07220	0.25320
0.12320	-0.46102
0.14870	-0.18043
0.07220	0.63582
0.17421	0.40625
0.07220	0.71234
0.30171	-0.18043
0.22521	0.25320
-0.10631	0.53379
0.07220	0.15117
0.22521	-1.25176
0.37822	-0.89465
0.22521	0.83988
0.22521	0.68683
-0.08081	0.25320
0.17421	-0.18043
0.14870	0.12566
0.22521	-0.05289
0.19971	0.53379
0.27621	0.32972
-0.05531	0.35523
-0.02981	0.40625
0.09770	0.27871
0.25071	-0.25695
0.02119	-0.51203
0.22521	-0.23145
0.27621	0.86539
0.22521	0.73785
0.07220	-0.58856
0.07220	0.32972
-0.00431	0.50828
0.19971	0.53379
0.22521	-0.05289
0.14870	-0.92016
0.14870	0.30422
0.25071	0.83988
-0.00431	-0.02739
0.17421	-0.00188
0.04670	-0.05289
0.17421	0.71234
-0.02981	0.20219
0.27621	-1.25176
0.19971	0.76336
0.14870	0.96742
0.19971	-2.85874
0.22521	1.14597
0.12320	1.35003
0.09770	-0.12942
0.14870	0.17668
0.35272	0.78886
0.04670	0.63582
-0.02981	-0.81812
0.07220	-1.30277
0.32721	0.83988
0.27621	-0.46102
0.22521	0.78886
0.09770	0.61031
0.07220	0.96742
0.04670	-0.97117
0.32721	0.48277
0.17421	0.27871
0.02119	0.58480
0.25071	-0.79262
0.19971	0.68683
-0.15732	-0.38449
0.14870	0.02363
0.14870	0.17668
0.27621	0.30422
0.25071	0.22769
-0.08081	0.32972
-0.05531	0.40625
0.14870	0.10015
0.27621	-0.30797
0.19971	-0.69059
0.17421	0.73785
0.32721	0.55929
0.25071	0.10015
0.14870	0.30422
0.04670	0.35523
0.07220	0.32972
0.30171	1.55410
0.02119	-1.81293
0.19971	0.12566
0.12320	-1.60887
0.12320	1.17148
0.09770	0.50828
0.09770	-0.76711
0.09770	0.66132
0.12320	0.89089
0.12320	0.55929
0.07220	0.48277
0.19971	0.45726
0.27621	0.91640
0.14870	-1.32828
0.22521	0.02363
0.22521	1.19699
0.02119	0.25320
0.12320	-1.73640
0.04670	0.53379
0.09770	1.17148
0.09770	0.30422
0.12320	-0.10391
0.17421	1.09496
0.14870	-1.30277
0.17421	0.15117
0.12320	1.04394
0.12320	0.20219
0.14870	0.45726
0.17421	0.55929
0.12320	-0.02739
0.02119	-0.15492
0.19971	-0.51203
0.19971	0.12566
0.35272	0.45726
-0.08081	0.12566
0.17421	0.15117
0.07220	0.12566
0.30171	0.78886
0.14870	-0.23145
0.27621	0.27871
0.12320	-0.53754
0.22521	1.22250
0.07220	-0.61406
0.07220	-0.15492
0.02119	0.48277
-0.02981	0.94191
0.32721	0.50828
0.27621	-0.35899
0.17421	-0.20594
0.17421	0.45726
0.12320	-0.12942
0.25071	-0.23145
0.02119	0.10015
0.17421	0.15117
0.14870	0.38074
0.07220	0.55929
0.14870	0.94191
0.17421	-3.21585
0.09770	0.96742
0.14870	0.86539
0.14870	0.22769
0.22521	0.30422
0.14870	0.20219
0.17421	0.27871
0.17421	0.15117
0.12320	0.30422
0.12320	0.17668
0.17421	-0.02739
0.19971	-0.84363
0.19971	0.04914
0.04670	0.40625
0.12320	1.24800
0.22521	-0.46102
0.14870	0.38074
0.02119	-0.05289
0.14870	-0.43551
0.32721	-0.43551
0.22521	0.76336
0.22521	0.91640
0.07220	-0.18043
0.12320	0.32972
-0.00431	0.20219
0.02119	0.25320
-0.00431	-0.05289
0.25071	0.15117
0.25071	0.10015
0.17421	0.32972
0.07220	-0.41000
0.17421	-0.71609
0.17421	-0.12942
0.14870	0.76336
0.19971	0.76336
0.19971	0.40625
0.09770	0.25320
0.22521	0.38074
0.09770	-0.48652
0.12320	0.07465
0.19971	-0.46102
0.19971	-1.17523
0.17421	1.27351
0.04670	0.32972
0.12320	0.58480
0.19971	0.86539
0.19971	0.25320
0.17421	-0.28246
0.02119	-0.71609
0.19971	0.02363
0.12320	0.83988
0.12320	0.15117
0.22521	-1.37929
0.14870	0.55929
0.30171	0.20219
0.14870	0.43176
0.02119	0.17668
0.04670	0.27871
0.02119	0.10015
0.22521	0.76336
0.25071	-1.35379
0.22521	0.15117
0.27621	1.01843
0.25071	-0.10391
-0.08081	0.61031
-0.05531	0.22769
0.25071	-0.00188
0.04670	0.22769
0.25071	-0.30797
0.19971	1.42656
0.09770	-1.53234
-0.00431	0.66132
0.19971	0.50828
0.25071	0.43176
0.02119	0.22769
0.30171	0.48277
0.14870	0.15117
0.25071	-0.25695
0.12320	-0.25695
0.17421	-0.10391
0.07220	0.68683
0.14870	-0.02739
-0.00431	0.40625
0.12320	0.25320
0.14870	0.25320
0.09770	0.22769
0.12320	-0.18043
0.14870	0.17668
0.25071	-0.07840
0.04670	-0.30797
0.25071	0.61031
0.09770	1.57960
0.27621	0.25320
0.04670	-0.99668
0.30171	-3.72601
-0.08081	1.40105
0.27621	1.32453
0.04670	1.04394
0.14870	0.81437
0.19971	-0.33348
0.19971	0.15117
-0.00431	0.04914
0.17421	0.22769
0.17421	-0.00188
0.17421	-0.10391
0.12320	0.02363
0.14870	0.15117
0.12320	-0.10391
0.27621	-0.43551
0.17421	0.25320
-0.00431	0.25320
-0.00431	-0.35899
0.09770	0.27871
0.22521	1.55410
0.12320	-2.11902
0.40372	0.45726
0.19971	0.61031
0.12320	0.38074
0.14870	0.63582
0.12320	0.20219
0.14870	0.20219
0.19971	0.02363
-0.05531	0.15117
0.07220	0.15117
0.27621	-0.12942
0.19971	-1.25176
0.14870	0.58480
0.12320	-1.27726
0.17421	0.07465
0.09770	1.50308
0.22521	1.09496
0.22521	0.27871
0.07220	0.20219
0.14870	0.48277
0.07220	-0.66508
0.32721	0.27871
0.35272	-0.00188
0.04670	0.02363
0.04670	0.04914
0.02119	0.43176
0.22521	0.20219
0.17421	-0.02739
0.09770	-0.00188
0.17421	0.17668
0.19971	-0.15492
0.09770	0.53379
0.07220	-0.35899
0.19971	-0.51203
0.25071	0.07465
0.07220	0.73785
-0.05531	0.48277
0.19971	0.25320
0.19971	0.63582
0.19971	0.25320
0.30171	-0.12942
0.19971	0.15117
0.09770	1.32453
0.02119	-2.42511
0.22521	0.55929
0.07220	-1.20074
0.07220	1.32453
0.12320	0.99292
0.02119	0.20219
0.02119	0.17668
0.17421	0.25320
0.37822	0.22769
0.27621	0.17668
0.12320	0.32972
0.09770	-0.69059
0.27621	-1.07320
-0.05531	0.17668
0.12320	0.27871
0.12320	0.40625
0.19971	0.35523
0.14870	0.48277
0.07220	-0.23145
0.04670	0.35523
0.30171	0.27871
0.17421	0.04914
0.50573	0.38074
0.07220	0.43176
-0.48884	-0.10391
0.12320	0.20219
0.50573	-0.61406
0.27621	0.86539
0.25071	0.27871
0.27621	0.32972
0.02119	0.10015
0.02119	-1.20074
-0.00431	0.32972
0.17421	0.53379
0.30171	0.58480
0.22521	0.45726
0.12320	-0.48652
0.22521	0.61031
-0.02981	-0.35899
0.07220	0.25320
0.19971	0.04914
0.14870	0.78886
0.17421	0.07465
0.27621	-0.05289
0.22521	-0.51203
0.04670	1.19699
0.02119	-1.43031
0.07220	0.25320
0.19971	0.48277
0.17421	0.45726
0.22521	0.30422
0.17421	0.15117
0.30171	0.22769
0.12320	-0.00188
-0.00431	0.17668
0.22521	0.12566
0.19971	0.07465
0.19971	0.40625
-0.15732	-0.18043
0.17421	0.32972
0.30171	0.04914
0.22521	0.04914
0.09770	0.30422
0.12320	0.50828
0.19971	0.40625
0.22521	-0.94566
0.37822	-0.07840
0.04670	-0.10391
-0.18282	0.71234
-0.13181	-0.00188
0.48022	0.68683
0.19971	0.66132
0.14870	-0.05289
0.19971	-0.28246
0.22521	-0.38449
0.17421	-0.99668
0.12320	0.73785
0.12320	1.73265
0.09770	-1.91496
0.07220	0.43176
0.17421	0.89089
0.19971	-0.58856
0.12320	-0.05289
0.22521	0.96742
0.12320	-1.55785
0.17421	-0.10391
0.22521	-0.25695
0.04670	0.71234
0.22521	0.96742
0.12320	-0.15492
0.14870	0.38074
0.22521	0.32972
-0.00431	0.40625
0.12320	0.15117
0.17421	0.30422
0.27621	-0.46102
0.09770	0.55929
0.02119	-1.04770
0.02119	-0.76711
0.19971	0.40625
0.14870	0.76336
0.14870	0.91640
0.17421	0.27871
0.12320	0.15117
0.14870	0.22769
0.25071	-0.89465
-0.33583	0.45726
0.12320	0.30422
0.12320	0.32972
0.40372	-0.02739
0.32721	-0.02739
0.22521	0.30422
0.14870	-0.10391
0.12320	0.86539
0.17421	-1.68539
0.12320	-0.07840
0.22521	-0.23145
0.12320	0.27871
0.02119	1.73265
0.12320	0.55929
0.02119	0.27871
0.02119	-0.51203
0.30171	-1.37929
0.32721	0.02363
0.37822	0.68683
0.02119	0.91640
-0.15732	0.45726
0.27621	0.38074
0.25071	0.17668
0.14870	-0.05289
0.22521	0.25320
0.22521	-0.69059
0.14870	0.73785
0.02119	0.07465
-0.05531	0.12566
0.30171	-0.51203
0.12320	0.04914
0.25071	0.66132
0.12320	0.35523
0.27621	0.30422
0.19971	0.27871
-0.18282	0.20219
0.07220	0.22769
0.12320	0.71234
0.27621	-1.14973
0.17421	0.45726
0.19971	0.86539
0.19971	-1.04770
0.22521	0.63582
0.25071	0.30422
0.07220	-0.51203
0.09770	-0.05289
0.25071	0.45726
0.04670	0.50828
0.02119	1.27351
0.17421	0.71234
0.27621	-0.43551
0.09770	0.58480
0.19971	-0.69059
0.07220	0.22769
0.12320	0.17668
0.17421	0.15117
0.09770	0.15117
0.22521	0.15117
0.02119	-0.02739
0.19971	0.17668
0.14870	0.25320
0.30171	-0.00188
0.02119	0.35523
0.25071	-0.12942
0.07220	-0.00188
0.25071	-0.10391
0.27621	0.53379
0.04670	1.09496
-0.05531	-0.43551
0.17421	-2.80773
0.14870	1.14597
0.12320	1.22250
0.42922	0.53379
0.19971	-0.25695
0.09770	0.04914
-0.02981	0.96742
0.25071	0.50828
0.22521	0.43176
0.12320	0.25320
0.09770	0.15117
0.14870	-0.10391
0.12320	-0.69059
0.07220	-0.15492
0.17421	0.35523
0.12320	0.02363
0.07220	0.10015
0.27621	0.35523
0.19971	0.20219
0.14870	0.12566
0.27621	0.27871
0.02119	0.20219
0.22521	0.40625
0.19971	-0.15492
0.12320	1.35003
0.04670	-1.48133
0.02119	0.48277
0.09770	0.43176
0.27621	1.37554
0.27621	-1.48133
0.14870	0.71234
0.07220	0.96742
0.02119	0.45726
0.17421	-0.71609
0.32721	-0.76711
0.17421	0.78886
0.12320	0.68683
0.19971	0.43176
-0.02981	0.17668
0.17421	0.20219
0.19971	-0.07840
0.14870	0.12566
-0.00431	0.02363
0.19971	-0.00188
0.14870	-0.02739
0.25071	0.15117
0.12320	-0.07840
0.22521	0.30422
0.04670	0.07465
0.22521	0.81437
0.14870	0.35523
0.12320	-0.10391
0.19971	-0.56305
-0.08081	-0.46102
0.14870	1.37554
0.14870	1.63062
0.17421	-0.07840
0.19971	-1.22625
0.17421	0.58480
0.12320	0.10015
0.22521	0.17668
0.12320	-0.07840
0.14870	0.17668
0.12320	0.15117
0.17421	0.38074
0.07220	0.07465
0.17421	0.35523
0.12320	-0.69059
0.19971	0.35523
0.07220	0.32972
0.17421	0.30422
0.07220	0.58480
0.19971	-0.81812
0.35272	0.30422
0.09770	0.27871
0.04670	0.17668
0.27621	0.43176
0.22521	0.10015
0.25071	-0.02739
-0.08081	0.12566
0.09770	0.55929
0.19971	0.48277
0.22521	0.32972
0.09770	0.15117
0.12320	0.15117
0.27621	0.07465
0.14870	0.12566
0.14870	0.20219
0.17421	-0.46102
0.07220	0.53379
0.17421	-0.48652
0.07220	1.01843
0.17421	-1.07320
0.07220	0.91640
0.22521	-0.07840
0.12320	1.06945
0.09770	-0.15492
0.17421	-0.48652
0.22521	-1.02219
-0.10631	1.63062
0.09770	-0.28246
-0.05531	0.55929
0.58223	1.32453
0.48022	-0.20594
0.22521	0.10015
0.12320	-1.43031
-0.00431	0.35523
0.04670	0.30422
0.04670	0.10015
0.22521	0.10015
0.02119	-0.05289
0.12320	0.40625
-0.00431	-0.02739
0.27621	0.25320
0.14870	0.10015
0.27621	0.43176
0.09770	0.22769
0.12320	-0.07840
0.09770	0.63582
0.22521	0.22769
0.07220	0.38074
0.04670	-0.97117
0.17421	0.94191
0.27621	-0.79262
0.12320	-0.07840
0.17421	0.43176
0.04670	1.12046
0.25071	0.68683
0.07220	0.15117
0.19971	-0.02739
0.12320	0.07465
0.12320	0.76336
0.04670	-0.74160
0.25071	0.25320
0.19971	-0.66508
0.14870	-1.27726
-0.13181	0.45726
0.19971	1.06945
0.17421	0.61031
0.22521	0.30422
0.04670	0.12566
0.27621	0.30422
-0.00431	-0.74160
0.19971	0.25320
0.22521	0.71234
0.22521	0.02363
0.09770	0.15117
0.17421	0.17668
0.09770	0.15117
0.12320	0.15117
0.09770	0.45726
0.02119	0.02363
0.17421	0.68683
0.12320	-1.25176
0.22521	0.27871
0.02119	-0.35899
0.22521	0.76336
0.09770	0.76336
0.19971	-0.23145
0.09770	0.17668
0.12320	0.35523
0.14870	0.30422
0.25071	0.25320
0.17421	-0.53754
0.09770	0.20219
0.19971	0.20219
0.19971	0.20219
0.12320	0.10015
0.17421	0.17668
0.07220	-0.02739
0.17421	0.40625
0.12320	0.02363
0.12320	-0.58856
0.14870	-0.46102
0.07220	0.63582
0.07220	1.17148
-0.05531	-0.15492
0.35272	0.83988
0.12320	-0.15492
0.14870	-1.04770
0.37822	0.76336
0.02119	0.40625
0.12320	0.68683
0.17421	0.81437
0.14870	-0.35899
0.12320	0.38074
0.07220	0.30422
0.22521	0.15117
0.09770	-0.02739
0.19971	-0.86914
0.14870	0.02363
0.25071	0.40625
0.17421	0.02363
-0.08081	0.17668
0.09770	0.45726
0.25071	0.10015
0.17421	0.35523
0.22521	0.15117
0.32721	-0.25695
-0.02981	0.73785
0.14870	-0.63957
0.04670	0.45726
0.25071	0.45726
0.22521	0.53379
-0.05531	-0.20594
-0.02981	-1.32828
0.22521	0.71234
0.17421	0.45726
0.22521	0.40625
0.19971	0.35523
0.04670	0.15117
0.17421	0.22769
0.17421	-0.02739
0.22521	0.15117
0.02119	0.17668
0.22521	0.91640
0.09770	-0.99668
0.17421	-1.02219
0.12320	-0.43551
0.19971	0.96742
0.07220	0.71234
0.25071	0.48277
0.09770	0.63582
0.09770	0.40625
0.07220	0.04914
0.19971	0.22769
0.17421	-0.02739
0.12320	-0.00188
0.32721	0.22769
0.14870	-0.43551
0.17421	-0.58856
0.17421	0.25320
0.14870	0.27871
-0.05531	0.30422
0.19971	0.55929
0.22521	0.15117
0.12320	-0.81812
0.25071	1.14597
0.27621	1.29902
0.25071	-0.66508
-0.18282	0.38074
0.12320	-0.00188
0.14870	-1.45582
0.14870	0.81437
0.19971	1.35003
0.19971	-0.41000
0.17421	-2.27207
0.09770	1.22250
0.02119	1.24800
0.04670	0.81437
0.25071	0.30422
0.17421	0.43176
0.07220	0.10015
-0.13181	0.78886
0.07220	-1.17523
0.37822	-0.18043
0.27621	0.38074
0.35272	-0.81812
0.17421	0.22769
0.14870	0.32972
0.02119	0.25320
0.14870	0.04914
0.04670	-0.23145
0.09770	0.45726
0.12320	0.22769
0.19971	0.22769
0.19971	0.15117
0.12320	0.25320
0.12320	0.53379
0.07220	0.38074
0.14870	0.45726
0.07220	0.17668
0.17421	-0.10391
0.22521	-2.39961
0.32721	0.07465
0.17421	0.66132
0.17421	0.71234
0.09770	-0.81812
0.12320	1.57960
0.07220	-0.00188
0.14870	0.83988
-0.08081	-0.25695
0.30171	0.38074
0.14870	0.40625
0.19971	-0.23145
0.37822	0.04914
-0.08081	-0.07840
-0.00431	-0.25695
0.07220	0.27871
0.17421	0.27871
0.30171	-1.07320
0.12320	-0.12942
0.30171	0.53379
0.14870	0.38074
0.17421	0.73785
0.14870	0.35523
0.12320	0.45726
0.14870	-0.35899
0.14870	0.45726
0.07220	0.17668
0.02119	-0.15492
0.07220	0.66132
0.42922	-0.12942
0.22521	-0.43551
0.19971	0.48277
0.02119	0.96742
0.07220	0.61031
0.09770	0.27871
0.22521	-0.46102
0.07220	-0.25695
0.32721	0.81437
0.09770	-0.05289
0.17421	-0.48652
0.07220	0.78886
0.22521	-0.89465
0.07220	0.68683
0.22521	-0.35899
0.30171	-0.07840
0.17421	0.12566
-0.20832	0.45726
-0.05531	0.53379
0.37822	0.25320
0.19971	0.15117
0.09770	0.07465
0.14870	0.40625
0.12320	-0.74160
0.17421	0.15117
0.12320	0.43176
0.22521	0.35523
0.12320	-0.05289
0.14870	-0.79262
0.22521	0.40625
0.12320	0.66132
0.27621	0.61031
-0.31033	0.10015
-0.05531	0.50828
0.22521	-0.18043
0.14870	-0.12942
0.25071	0.45726
0.22521	0.45726
0.12320	0.48277
0.17421	-0.48652
0.14870	0.55929
0.14870	-0.41000
0.14870	0.27871
0.04670	0.50828
0.19971	-1.30277
0.12320	1.12046
0.27621	0.53379
0.12320	-0.35899
0.25071	-0.61406
0.02119	0.40625
0.09770	0.58480
0.09770	0.25320
0.12320	0.17668
0.17421	0.30422
0.17421	0.58480
0.14870	-0.61406
0.19971	-0.18043
0.32721	-0.18043
-0.15732	0.76336
-0.05531	1.19699
0.04670	0.30422
0.12320	-0.48652
0.25071	-0.25695
0.27621	0.83988
0.27621	0.02363
0.27621	0.91640
-0.08081	-0.02739
-0.00431	0.61031
0.27621	-0.76711
0.04670	0.25320
0.17421	0.07465
0.22521	0.12566
0.12320	0.12566
0.22521	0.15117
0.17421	0.15117
0.09770	0.07465
0.12320	0.15117
0.17421	0.07465
0.09770	0.12566
0.04670	0.12566
0.19971	0.45726
0.19971	0.55929
0.17421	0.17668
0.19971	0.20219
0.14870	-1.43031
0.09770	0.32972
0.27621	0.89089
0.12320	0.61031
0.25071	0.55929
0.02119	0.25320
0.14870	0.83988
0.07220	-0.00188
0.22521	-1.81293
0.09770	0.50828
0.02119	1.04394
-0.05531	-0.35899
0.32721	1.06945
0.14870	-0.79262
0.25071	0.02363
0.09770	0.48277
0.32721	0.10015
0.09770	0.22769
0.19971	0.50828
0.12320	0.02363
-0.08081	-0.28246
0.22521	0.22769
0.14870	0.17668
0.09770	0.17668
0.17421	-0.05289
0.22521	0.35523
0.12320	0.17668
0.19971	0.50828
0.19971	0.04914
0.19971	-0.35899
0.14870	-0.51203
0.14870	0.68683
0.17421	0.61031
0.07220	0.48277
0.27621	0.40625
-0.02981	0.12566
-0.10631	-0.30797
0.35272	0.66132
0.25071	0.22769
0.14870	-0.51203
0.07220	-2.27207
0.17421	1.27351
0.30171	2.01323
0.07220	-0.53754
0.22521	0.25320
0.09770	0.63582
0.09770	0.40625
-0.00431	0.55929
0.12320	-0.66508
0.35272	-0.25695
0.17421	0.32972
0.27621	0.22769
-0.00431	-0.25695
0.17421	-0.05289
0.12320	-0.25695
0.07220	0.40625
0.12320	0.45726
0.07220	0.40625
0.25071	-0.69059
-0.00431	0.38074
0.17421	0.25320
0.17421	0.55929
0.12320	0.35523
0.14870	0.17668
0.14870	0.02363
0.12320	0.35523
0.27621	0.27871
0.19971	0.86539
0.14870	-3.47093
-0.15732	-0.20594
0.09770	1.32453
0.35272	1.06945
0.14870	1.22250
0.22521	0.78886
0.14870	0.32972
0.09770	0.04914
0.19971	-0.02739
0.09770	-0.41000
0.14870	-0.51203
0.07220	0.58480
0.22521	0.25320
0.04670	-0.35899
0.22521	-0.12942
0.12320	0.45726
0.19971	0.35523
0.07220	-0.38449
0.04670	0.50828
0.22521	0.71234
-0.18282	0.10015
-0.08081	0.07465
0.55673	1.06945
0.48022	0.43176
0.22521	-0.66508
0.12320	0.17668
0.19971	0.71234
0.02119	0.38074
0.19971	-0.51203
0.12320	-0.02739
0.09770	0.55929
0.09770	0.22769
0.22521	-0.02739
0.07220	1.29902
0.19971	-1.35379
0.25071	-1.07320
0.04670	1.17148
0.25071	0.81437
0.14870	0.48277
0.19971	0.32972
0.09770	0.30422
0.27621	-0.05289
0.07220	-0.05289
0.17421	-0.15492
0.25071	0.45726
0.09770	0.68683
0.22521	-1.07320
0.12320	-0.35899
0.09770	0.04914
0.19971	0.68683
0.04670	0.50828
0.09770	-0.15492
-0.02981	0.58480
0.02119	0.91640
0.22521	0.22769
0.17421	-1.30277
0.19971	0.40625
0.14870	0.50828
0.22521	-0.12942
0.12320	0.78886
0.09770	1.06945
0.17421	-2.14453
0.04670	-0.28246
0.17421	1.35003
0.14870	-0.53754
0.12320	0.96742
0.17421	0.76336
0.12320	-0.86914
0.14870	-0.71609
0.14870	1.04394
0.25071	0.89089
0.09770	0.61031
-0.23382	-0.38449
0.22521	0.10015
0.50573	0.27871
0.07220	0.04914
0.19971	0.04914
0.19971	0.17668
0.12320	-0.25695
-0.00431	0.12566
0.17421	0.35523
0.07220	0.07465
0.02119	0.02363
0.12320	0.20219
0.25071	0.15117
0.12320	0.17668
0.27621	0.32972
0.02119	0.22769
0.14870	0.12566
0.07220	-0.89465
0.27621	0.38074
0.07220	0.99292
0.25071	-0.86914
0.12320	1.27351
-0.05531	0.04914
0.14870	0.17668
0.17421	0.48277
0.07220	-0.33348
0.19971	0.55929
-0.00431	-0.30797
0.19971	-0.25695
0.30171	-0.10391
0.30171	0.20219
0.27621	0.35523
0.04670	0.53379
0.12320	0.50828
0.14870	0.63582
0.04670	-0.51203
0.09770	-0.61406
0.12320	-0.05289
0.17421	0.04914
0.22521	0.20219
0.19971	0.48277
0.04670	0.61031
-0.13181	0.76336
0.25071	0.45726
0.19971	-0.56305
0.19971	0.35523
0.32721	0.43176
0.12320	0.22769
0.14870	-0.23145
0.09770	-0.05289
0.25071	-0.86914
0.22521	-0.30797
0.12320	0.96742
0.12320	0.76336
0.22521	0.35523
-0.08081	-0.12942
0.17421	-0.12942
0.22521	0.38074
0.12320	0.40625
0.17421	0.61031
0.02119	0.12566
0.12320	-0.02739
0.12320	-0.28246
0.19971	-0.05289
0.32721	0.15117
0.22521	-0.00188
0.22521	0.17668
0.17421	0.15117
-0.00431	0.12566
0.14870	0.38074
0.07220	0.20219
0.02119	0.32972
0.19971	0.22769
0.04670	0.15117
0.17421	0.30422
-0.00431	0.10015
0.12320	0.12566
0.25071	0.50828
0.09770	1.55410
0.19971	-0.74160
0.19971	-1.99148
0.32721	-0.99668
0.12320	0.17668
0.07220	1.78367
0.02119	0.55929
0.09770	0.30422
0.02119	0.91640
-0.18282	0.53379
0.22521	0.22769
0.42922	0.02363
0.19971	-0.18043
0.30171	-0.18043
0.12320	-0.28246
0.12320	-0.12942
0.14870	-0.05289
0.04670	0.02363
0.19971	0.22769
0.09770	0.04914
0.12320	0.25320
0.12320	0.15117
0.09770	0.27871
0.19971	0.27871
0.09770	0.25320
0.22521	0.10015
0.07220	0.35523
0.22521	0.68683
0.09770	-0.12942
0.17421	0.43176
0.09770	0.94191
0.22521	0.04914
0.14870	-1.02219
0.25071	-0.25695
-0.15732	0.99292
0.19971	-0.84363
0.32721	-2.29757
0.35272	1.88570
-0.13181	0.66132
0.09770	1.01843
0.07220	-0.05289
0.22521	0.50828
0.17421	0.20219
0.30171	-0.00188
0.30171	0.04914
-0.02981	-0.05289
-0.05531	-0.10391
0.27621	-0.25695
0.19971	0.07465
0.12320	0.04914
0.12320	0.07465
0.19971	0.15117
0.14870	0.15117
0.19971	0.25320
0.09770	0.15117
0.17421	0.25320
0.12320	0.22769
0.07220	0.35523
0.12320	0.20219
0.12320	0.45726
0.22521	-0.86914
0.22521	0.86539
0.09770	0.94191
0.14870	-1.50683
0.22521	-0.74160
0.12320	0.40625
0.17421	1.42656
0.09770	0.78886
0.27621	-0.53754
0.14870	-0.56305
-0.18282	0.61031
0.07220	0.43176
0.40372	0.38074
0.22521	-0.25695
0.22521	0.04914
0.14870	0.20219
0.17421	0.22769
0.04670	-0.10391
0.02119	-0.81812
0.27621	0.78886
0.04670	-0.69059
0.12320	0.35523
0.32721	0.73785
0.19971	0.53379
0.02119	-0.48652
0.12320	0.35523
0.19971	0.04914
0.27621	0.40625
0.17421	-0.56305
0.22521	1.12046
0.14870	-0.07840
-0.08081	0.94191
0.12320	0.58480
0.42922	-0.28246
0.09770	0.68683
0.19971	-1.12422
0.07220	-0.86914
0.19971	-0.53754
0.09770	0.63582
0.19971	0.15117
0.09770	0.45726
0.09770	0.50828
0.22521	0.53379
0.07220	0.43176
0.07220	0.48277
0.25071	0.25320
0.32721	0.15117
0.02119	-0.63957
0.12320	0.38074
0.02119	-0.43551
0.22521	-0.18043
0.25071	1.04394
0.12320	0.48277
0.07220	0.25320
0.14870	0.04914
0.30171	0.63582
0.09770	0.73785
0.07220	0.38074
0.12320	-0.35899
0.14870	-3.93007
0.27621	0.12566
0.14870	1.50308
0.17421	1.24800
0.14870	0.53379
0.14870	0.63582
0.17421	0.45726
0.17421	0.32972
0.07220	-0.66508
0.12320	-0.02739
0.17421	0.20219
0.17421	0.04914
0.22521	0.07465
0.12320	-0.15492
0.22521	0.22769
0.14870	0.10015
0.25071	0.20219
0.07220	0.22769
0.19971	0.20219
0.07220	-0.02739
0.12320	0.17668
0.12320	-0.00188
0.22521	0.17668
0.04670	0.10015
0.22521	0.63582
0.09770	0.66132
0.27621	0.07465
0.19971	0.15117
0.09770	-0.38449
0.02119	0.71234
-0.05531	-0.38449
0.30171	-1.09871
0.40372	-1.17523
0.22521	1.14597
0.22521	0.91640
0.19971	-0.66508
0.17421	1.04394
