0.12320	0.20219
0.07220	0.17668
0.14870	0.10015
0.22521	0.15117
0.14870	0.20219
0.07220	0.22769
0.12320	0.15117
0.22521	0.02363
0.22521	0.10015
0.17421	0.12566
0.12320	0.07465
0.12320	0.15117
0.04670	0.17668
0.14870	0.22769
0.12320	0.20219
0.17421	0.22769
0.12320	0.10015
0.22521	0.15117
0.14870	0.10015
0.14870	0.10015
0.12320	0.15117
0.09770	0.15117
0.14870	0.17668
0.14870	0.17668
0.19971	0.07465
0.22521	0.20219
0.12320	0.20219
0.12320	0.20219
0.17421	0.10015
0.22521	0.10015
0.17421	0.20219
0.09770	0.22769
0.12320	0.12566
0.25071	0.10015
0.14870	0.15117
0.12320	0.12566
0.12320	0.15117
0.19971	0.17668
0.17421	0.15117
0.19971	0.07465
0.09770	0.17668
0.02119	0.15117
0.09770	0.22769
0.14870	0.15117
0.17421	0.04914
0.19971	0.12566
0.12320	0.15117
0.14870	0.20219
0.12320	0.15117
0.19971	0.10015
0.12320	0.04914
0.14870	0.17668
0.12320	0.15117
0.07220	0.22769
0.17421	0.10015
0.19971	0.15117
0.14870	0.17668
0.09770	0.15117
0.12320	0.07465
0.17421	0.15117
0.19971	0.22769
0.07220	0.15117
0.17421	0.12566
0.14870	0.04914
0.17421	0.20219
0.04670	0.12566
0.12320	0.10015
0.19971	0.12566
0.12320	0.25320
0.12320	0.25320
0.19971	0.10015
0.22521	0.17668
0.09770	0.20219
0.04670	0.20219
0.12320	0.15117
0.17421	0.15117
0.14870	0.07465
0.12320	0.20219
0.09770	0.25320
0.04670	0.22769
0.12320	0.15117
0.22521	0.07465
0.14870	0.15117
0.12320	0.20219
0.09770	0.17668
0.09770	0.12566
0.17421	0.07465
0.22521	0.15117
0.12320	0.22769
0.17421	0.25320
0.09770	0.15117
0.12320	0.07465
0.22521	0.15117
0.12320	0.22769
0.14870	0.12566
0.09770	0.04914
0.14870	0.20219
0.22521	0.20219
0.14870	0.17668
0.04670	0.15117
0.14870	0.15117
0.19971	0.07465
0.12320	0.15117
0.09770	0.25320
0.09770	0.12566
0.14870	0.10015
0.19971	0.17668
0.14870	0.22769
0.09770	0.15117
0.14870	0.10015
0.22521	0.17668
0.12320	0.12566
0.14870	0.10015
0.22521	0.07465
0.14870	0.20219
0.09770	0.15117
0.22521	0.07465
0.19971	0.15117
0.12320	0.25320
0.12320	0.15117
0.12320	0.07465
0.22521	0.20219
0.17421	0.15117
0.04670	0.07465
0.12320	0.12566
0.19971	0.20219
0.12320	0.17668
0.07220	0.07465
0.14870	0.10015
0.22521	0.15117
0.12320	0.25320
0.09770	0.12566
0.07220	0.10015
0.17421	0.04914
0.19971	0.20219
0.14870	0.22769
0.12320	0.20219
0.09770	0.15117
0.14870	0.10015
0.12320	0.07465
0.22521	0.07465
0.22521	0.17668
0.17421	0.22769
0.09770	0.15117
0.04670	0.07465
0.12320	0.15117
0.17421	0.22769
0.12320	0.15117
0.12320	0.17668
0.14870	0.20219
0.22521	0.15117
0.12320	0.04914
0.12320	0.15117
0.14870	0.22769
0.14870	0.20219
0.14870	0.15117
0.19971	0.10015
0.22521	0.15117
0.17421	0.20219
0.04670	0.12566
0.14870	0.10015
0.19971	0.17668
0.14870	0.15117
0.14870	0.10015
0.19971	0.15117
0.22521	0.22769
0.12320	0.15117
0.09770	0.10015
0.14870	0.15117
0.22521	0.25320
0.14870	0.15117
0.07220	0.12566
0.17421	0.17668
0.12320	0.22769
0.07220	0.15117
0.14870	0.07465
0.22521	0.15117
0.12320	0.20219
0.07220	0.15117
0.12320	0.10015
0.22521	0.17668
0.19971	0.22769
0.09770	0.15117
0.09770	0.15117
0.19971	0.10015
0.22521	0.17668
0.14870	0.20219
0.07220	0.22769
0.14870	0.17668
0.22521	0.04914
0.22521	0.10015
0.14870	0.22769
-0.02981	0.20219
0.09770	0.15117
0.22521	0.10015
0.19971	0.15117
0.19971	0.20219
0.09770	0.15117
0.14870	0.15117
0.19971	0.10015
0.12320	0.17668
0.12320	0.15117
0.07220	0.12566
0.17421	0.04914
0.22521	0.10015
0.14870	-0.00188
0.14870	0.20219
0.09770	0.30422
0.19971	0.15117
0.14870	0.20219
0.22521	0.15117
0.12320	0.10015
0.07220	0.25320
0.17421	0.10015
0.22521	0.20219
0.19971	0.12566
0.09770	0.15117
0.14870	0.07465
0.14870	0.12566
0.07220	0.15117
0.14870	0.12566
0.22521	0.12566
0.12320	0.15117
0.09770	0.20219
0.14870	0.15117
0.25071	0.15117
0.22521	0.17668
0.14870	0.17668
0.12320	0.12566
0.12320	0.07465
0.12320	-0.02739
0.22521	0.22769
0.17421	0.27871
0.09770	0.25320
0.17421	0.15117
0.22521	0.10015
0.14870	0.12566
0.17421	0.17668
0.07220	0.12566
0.12320	0.12566
0.19971	0.15117
0.12320	0.17668
0.12320	0.15117
0.19971	0.15117
0.19971	0.25320
0.09770	0.12566
0.14870	0.04914
0.19971	0.12566
0.12320	0.22769
0.07220	0.10015
0.12320	0.20219
0.14870	0.20219
0.09770	0.15117
0.14870	0.04914
0.17421	0.07465
0.17421	0.27871
0.09770	0.25320
0.22521	0.12566
0.12320	0.17668
0.09770	0.10015
0.14870	0.10015
0.19971	0.07465
0.14870	0.04914
0.12320	0.25320
0.09770	0.22769
0.12320	0.15117
0.19971	0.07465
0.22521	0.15117
0.14870	0.17668
0.07220	0.15117
0.14870	0.02363
0.19971	0.15117
0.12320	0.10015
0.12320	0.20219
0.17421	0.15117
0.19971	0.15117
0.19971	0.10015
0.17421	0.10015
0.17421	0.15117
0.12320	0.22769
0.07220	0.25320
0.14870	0.17668
0.14870	0.12566
0.22521	0.17668
0.14870	0.22769
0.09770	0.07465
0.14870	0.04914
0.22521	0.17668
0.12320	0.22769
0.14870	0.12566
0.14870	0.10015
0.17421	0.12566
0.12320	0.17668
0.07220	0.25320
0.12320	0.25320
0.19971	0.15117
0.09770	0.07465
0.14870	0.22769
0.19971	0.12566
0.14870	0.10015
0.17421	0.12566
0.22521	0.12566
0.17421	0.07465
0.12320	0.15117
0.19971	0.22769
0.12320	0.15117
0.09770	0.04914
0.12320	0.20219
0.22521	0.15117
0.14870	0.15117
0.14870	0.15117
0.19971	0.22769
0.07220	0.15117
0.14870	0.10015
0.19971	0.15117
0.12320	0.12566
0.09770	0.10015
0.22521	0.25320
0.17421	0.12566
0.07220	0.07465
0.12320	0.17668
0.25071	0.15117
0.17421	0.22769
0.07220	0.15117
0.14870	0.17668
0.19971	0.07465
0.12320	0.15117
0.09770	0.25320
0.09770	0.15117
0.14870	0.10015
0.22521	0.25320
0.12320	0.07465
0.09770	0.15117
0.19971	0.15117
0.12320	0.02363
0.07220	0.12566
0.22521	0.22769
0.07220	0.17668
0.14870	0.10015
0.25071	0.17668
0.14870	0.30422
0.02119	0.10015
0.19971	0.12566
0.14870	-0.05289
0.27621	0.04914
0.12320	0.27871
0.09770	0.30422
0.09770	0.17668
0.19971	0.15117
0.12320	0.22769
0.07220	0.12566
0.14870	0.12566
0.17421	0.12566
0.14870	0.15117
0.07220	0.12566
0.07220	0.07465
0.27621	0.15117
0.19971	0.12566
0.07220	0.07465
0.09770	0.17668
0.19971	0.22769
0.14870	0.15117
0.09770	0.12566
0.12320	0.12566
0.22521	0.17668
0.09770	0.07465
0.09770	-0.05289
0.17421	0.12566
0.19971	0.17668
0.17421	0.38074
0.09770	0.32972
0.07220	0.20219
0.12320	0.10015
0.22521	0.10015
0.17421	0.15117
0.09770	0.12566
0.12320	0.12566
0.14870	0.04914
0.22521	0.02363
0.19971	0.15117
0.12320	0.15117
0.07220	0.25320
0.12320	0.30422
0.12320	0.20219
0.17421	0.15117
0.19971	0.17668
0.12320	0.17668
0.12320	0.15117
0.12320	0.10015
0.17421	0.15117
0.14870	0.15117
0.14870	0.12566
0.14870	0.04914
0.04670	0.10015
0.02119	0.12566
0.07220	0.12566
0.14870	0.15117
0.14870	0.20219
0.14870	0.32972
0.17421	0.27871
0.14870	0.20219
0.14870	0.12566
0.17421	0.12566
0.22521	0.04914
0.19971	0.12566
0.22521	0.12566
0.12320	0.22769
0.14870	0.17668
0.07220	0.17668
0.07220	0.22769
0.17421	0.20219
0.07220	0.15117
0.19971	0.12566
0.25071	0.02363
0.14870	0.10015
0.12320	0.12566
0.14870	0.04914
0.09770	0.17668
0.19971	0.32972
0.12320	0.15117
0.12320	0.12566
0.14870	0.04914
0.09770	0.04914
0.12320	0.45726
0.14870	0.35523
0.14870	0.20219
0.17421	0.07465
0.22521	0.02363
0.12320	-0.00188
0.14870	0.10015
0.19971	0.20219
0.12320	0.15117
0.09770	0.25320
0.07220	0.25320
0.19971	0.20219
0.12320	0.07465
0.19971	0.04914
0.19971	-0.02739
0.22521	0.15117
0.12320	0.32972
0.12320	0.22769
0.12320	0.20219
0.07220	0.15117
0.17421	0.20219
0.14870	0.15117
0.25071	0.07465
0.17421	0.10015
0.17421	0.17668
0.07220	0.20219
0.04670	0.15117
0.04670	0.15117
0.22521	0.07465
0.27621	0.12566
0.17421	0.22769
0.12320	0.20219
0.09770	0.15117
0.12320	0.15117
0.22521	0.10015
0.12320	0.15117
0.07220	0.10015
0.09770	0.10015
0.12320	0.07465
0.17421	0.10015
0.14870	0.17668
0.12320	0.22769
0.04670	0.25320
0.09770	0.20219
0.17421	0.02363
0.14870	0.10015
0.22521	0.32972
0.25071	0.20219
0.22521	0.04914
0.17421	0.15117
0.07220	-0.10391
0.09770	0.20219
0.09770	0.30422
0.14870	0.20219
0.14870	0.20219
0.19971	0.17668
0.14870	0.30422
0.07220	0.17668
0.12320	0.10015
0.22521	0.04914
0.12320	0.10015
0.12320	0.20219
0.12320	0.10015
0.19971	0.04914
0.22521	0.12566
0.17421	0.10015
0.09770	0.20219
0.07220	0.15117
0.27621	0.12566
0.12320	0.20219
0.07220	0.15117
0.04670	0.17668
0.17421	0.15117
0.25071	0.10015
0.22521	0.00000
0.09770	0.00000
0.07220	0.00000
0.12320	0.10015
0.22521	0.20219
0.14870	0.15117
0.04670	0.10015
0.14870	0.15117
0.22521	0.20219
0.14870	0.12566
0.09770	0.04914
0.07220	0.15117
0.14870	0.22769
0.22521	0.17668
0.19971	0.15117
0.22521	0.20219
0.22521	0.20219
0.12320	0.07465
0.02119	0.07465
0.09770	0.12566
0.17421	0.17668
0.17421	0.15117
0.22521	0.17668
0.14870	0.15117
0.14870	0.10015
0.07220	0.10015
0.17421	0.07465
0.14870	0.17668
0.22521	0.20219
0.17421	0.17668
0.07220	0.15117
0.09770	0.04914
0.12320	0.12566
0.14870	0.12566
0.27621	0.10015
0.09770	0.20219
0.02119	0.12566
0.09770	0.07465
0.19971	0.12566
0.07220	0.17668
0.09770	0.15117
0.17421	0.22769
0.19971	0.25320
0.19971	0.10015
0.19971	0.10015
0.12320	0.10015
0.09770	0.17668
0.14870	0.12566
0.19971	0.20219
0.14870	0.15117
0.12320	0.12566
0.19971	0.07465
0.09770	0.10015
0.07220	0.17668
0.17421	0.17668
0.19971	0.22769
0.17421	0.25320
0.14870	0.12566
0.07220	0.10015
0.07220	0.15117
0.14870	0.22769
0.22521	0.17668
0.12320	0.15117
0.12320	0.12566
0.09770	0.12566
0.09770	0.07465
0.17421	0.15117
0.17421	0.15117
0.19971	0.22769
0.14870	0.15117
0.17421	0.15117
0.07220	0.04914
0.14870	0.15117
0.19971	0.25320
0.17421	0.10015
0.14870	0.12566
0.07220	0.15117
0.12320	0.07465
0.14870	0.17668
0.14870	0.20219
0.12320	0.20219
0.19971	0.12566
0.14870	0.15117
0.12320	0.10015
0.07220	0.07465
0.09770	0.15117
0.14870	0.12566
0.17421	0.17668
0.14870	0.25320
0.17421	0.22769
0.14870	0.27871
0.12320	0.12566
0.07220	0.12566
0.09770	0.02363
0.14870	0.02363
0.14870	0.17668
0.22521	0.15117
0.25071	0.22769
0.12320	0.15117
0.04670	0.12566
0.09770	0.10015
0.12320	0.02363
0.14870	0.20219
0.22521	0.25320
0.19971	0.15117
0.09770	0.10015
0.12320	0.17668
0.14870	0.15117
0.12320	0.12566
0.07220	0.07465
0.12320	0.15117
0.22521	0.20219
0.07220	0.15117
0.17421	0.10015
0.19971	0.20219
0.12320	0.15117
0.12320	0.07465
0.14870	0.17668
0.22521	0.22769
0.14870	0.10015
0.09770	0.07465
0.12320	0.15117
0.19971	0.17668
0.14870	0.12566
0.12320	0.15117
0.07220	0.04914
0.14870	0.15117
0.19971	0.20219
0.12320	0.12566
0.07220	0.12566
0.14870	0.12566
0.22521	0.12566
0.14870	0.17668
0.07220	0.10015
0.14870	0.12566
0.22521	0.25320
0.14870	0.12566
0.07220	0.15117
0.14870	0.20219
0.14870	0.15117
0.04670	0.07465
0.14870	0.12566
0.22521	0.20219
0.14870	0.12566
0.12320	0.17668
0.07220	0.07465
0.07220	0.17668
0.14870	0.17668
0.22521	0.12566
0.22521	0.22769
0.19971	0.15117
0.07220	0.04914
0.12320	0.15117
0.14870	0.20219
0.12320	0.15117
0.07220	0.17668
0.17421	0.10015
0.12320	0.17668
0.19971	0.22769
0.22521	0.07465
0.12320	0.12566
0.07220	0.17668
0.09770	0.12566
0.07220	0.07465
0.14870	0.10015
0.17421	0.15117
0.17421	0.12566
0.19971	0.22769
0.17421	0.25320
0.22521	0.20219
0.12320	0.17668
0.12320	0.12566
0.14870	0.15117
0.09770	0.04914
0.09770	0.12566
0.12320	0.10015
0.14870	0.15117
0.12320	0.22769
0.19971	0.17668
0.22521	0.15117
0.14870	0.07465
0.12320	0.04914
0.14870	0.20219
0.17421	0.17668
0.17421	0.17668
0.14870	0.07465
0.09770	0.15117
0.17421	0.15117
0.17421	0.25320
0.19971	0.22769
0.19971	0.15117
0.14870	0.04914
0.07220	0.10015
0.09770	0.12566
0.14870	0.12566
0.19971	0.15117
0.19971	0.22769
0.12320	0.15117
0.14870	0.12566
0.09770	0.07465
0.09770	0.12566
0.09770	-0.00188
0.04670	0.04914
0.17421	0.12566
0.17421	0.12566
0.25071	0.15117
0.19971	0.25320
0.12320	0.20219
0.19971	0.20219
0.17421	0.15117
0.17421	0.17668
0.12320	0.15117
0.14870	0.15117
0.09770	0.04914
0.14870	0.07465
-0.10631	0.10015
0.17421	0.17668
0.19971	0.15117
0.12320	0.15117
0.14870	0.20219
0.19971	0.12566
0.19971	0.15117
0.14870	0.15117
0.22521	0.07465
0.14870	0.10015
0.14870	0.15117
0.04670	0.17668
0.12320	0.17668
0.14870	0.12566
-0.02981	-0.00188
0.09770	0.12566
0.37822	0.27871
0.22521	0.15117
0.25071	0.20219
0.17421	0.02363
0.12320	0.12566
0.19971	0.25320
0.45472	0.43176
-0.05531	0.17668
-0.31033	-0.20594
-0.02981	-0.18043
0.32721	0.15117
0.19971	0.81437
-0.02981	0.35523
0.42922	-0.12942
0.35272	-0.28246
0.04670	0.48277
0.25071	0.55929
0.68424	-0.61406
-0.00431	0.22769
-0.46334	-0.97117
0.12320	0.66132
-0.38683	1.75816
0.09770	1.45206
0.93925	-0.25695
0.63323	-2.55265
0.45472	0.76336
0.42922	3.39065
-0.05531	2.06425
-0.28482	-0.41000
-0.08081	-2.11902
-0.64185	-0.94566
-0.33583	-2.90976
0.30171	-1.88945
-0.10631	-2.39961
0.37822	-1.17523
0.32721	6.32404
0.99026	0.35523
-0.92237	4.99764
0.48022	8.16060
0.27621	-4.31269
0.53123	-2.50164
1.11776	0.81437
0.63323	-2.85874
0.30171	-4.92487
0.19971	-3.16484
0.37822	3.36515
-0.23382	2.16628
-1.20288	1.06945
-0.46334	-0.15492
-0.13181	0.20219
0.50573	1.35003
-0.99887	5.35475
0.58223	-3.77702
1.60230	-0.10391
1.34728	5.04866
-0.05531	-1.27726
-1.15188	-3.11382
-0.08081	-3.16484
0.35272	-1.71090
0.37822	1.17148
-0.02981	-0.18043
0.02119	0.30422
0.35272	1.01843
-0.08081	1.37554
0.07220	1.50308
-0.64185	1.09496
0.48022	0.83988
1.60230	0.45726
0.22521	0.25320
1.42379	-0.46102
-0.48884	-0.46102
-0.41233	-0.25695
0.27621	-0.10391
0.19971	0.10015
-0.66735	-0.28246
-0.87136	0.10015
0.02119	-0.02739
0.22521	0.12566
0.04670	-0.18043
0.04670	0.15117
0.17421	0.53379
0.35272	0.30422
0.53123	0.04914
0.58223	0.07465
0.58223	-0.66508
0.22521	0.86539
0.48022	0.73785
0.04670	0.73785
-0.13181	0.48277
0.12320	0.20219
-0.10631	-0.10391
-0.18282	-0.38449
0.04670	0.32972
0.19971	-0.00188
0.09770	0.07465
0.17421	-0.25695
-0.18282	0.40625
0.70974	0.53379
0.68424	0.12566
0.40372	-0.46102
-0.59084	0.53379
-0.13181	0.15117
0.14870	-0.05289
0.19971	-0.07840
0.19971	0.02363
-0.20832	0.27871
-0.28482	0.12566
0.27621	0.15117
0.42922	-0.02739
0.48022	1.52859
0.53123	1.19699
0.60773	-0.58856
0.42922	-1.27726
0.09770	-0.81812
-0.25932	0.53379
0.17421	1.22250
0.09770	0.58480
1.34728	0.58480
-0.28482	0.96742
-2.42696	-0.99668
0.58223	-1.07320
0.99026	-0.86914
0.78624	0.38074
-1.43240	0.43176
-0.61635	1.32453
0.32721	0.96742
0.55673	-0.66508
1.11776	-0.35899
-0.28482	0.12566
0.63323	0.96742
0.50573	0.68683
0.22521	0.50828
0.55673	1.68163
0.12320	-0.02739
-0.46334	-2.01699
0.12320	-1.43031
-0.38683	0.66132
-0.23382	1.27351
0.37822	0.55929
0.42922	-0.33348
-0.23382	0.07465
-0.05531	0.15117
0.83725	-0.07840
0.35272	-0.51203
-0.00431	0.38074
-0.00431	0.66132
0.09770	-0.02739
0.27621	-0.76711
0.19971	1.27351
0.32721	1.09496
0.58223	-0.28246
0.04670	-0.81812
-0.41233	-0.61406
0.17421	1.55410
0.42922	0.55929
0.07220	0.55929
-0.13181	-0.23145
0.30171	-0.12942
0.40372	-0.00188
0.32721	0.38074
0.22521	-0.07840
0.09770	-0.00188
-0.13181	-0.33348
0.17421	-0.38449
0.04670	-0.46102
-0.46334	-0.46102
-0.02981	-0.05289
0.02119	0.32972
-0.25932	2.03874
0.83725	0.86539
0.93925	2.08976
1.14327	0.66132
0.50573	-0.89465
0.30171	-0.38449
-0.46334	1.24800
-1.07538	0.53379
-0.20832	-0.56305
0.30171	-1.30277
0.53123	-1.30277
0.12320	-0.20594
0.17421	0.15117
0.19971	0.04914
0.12320	0.30422
0.19971	-0.05289
-0.13181	-0.35899
-0.10631	1.68163
-0.38683	2.54890
0.65874	0.63582
0.96476	-1.04770
0.50573	-1.22625
0.09770	-0.10391
0.07220	0.53379
-0.15732	-0.20594
-0.20832	-0.89465
-0.38683	0.43176
0.40372	1.91120
0.48022	1.32453
0.32721	0.04914
0.12320	-0.07840
-0.08081	-0.53754
-0.08081	-0.28246
0.25071	0.17668
0.35272	0.10015
0.30171	-0.63957
0.32721	-0.71609
0.17421	0.32972
0.17421	0.40625
0.12320	1.04394
0.07220	0.71234
0.04670	-0.33348
0.04670	-0.61406
0.07220	0.55929
-0.02981	0.55929
0.02119	0.38074
0.40372	0.25320
0.60773	0.17668
0.32721	0.17668
-0.05531	-0.10391
-0.05531	-0.28246
-0.18282	-0.15492
-0.10631	-0.15492
0.27621	-0.07840
0.35272	0.27871
0.35272	0.30422
0.30171	0.83988
0.27621	-0.53754
0.32721	0.20219
0.32721	2.16628
0.12320	0.55929
-0.00431	-0.38449
-0.25932	0.04914
-0.18282	0.91640
0.37822	-0.63957
0.40372	-0.61406
-0.00431	-0.20594
0.02119	-0.48652
0.22521	-0.51203
0.25071	-0.23145
0.12320	0.32972
0.17421	0.55929
0.04670	0.78886
0.12320	0.35523
0.14870	0.94191
0.19971	1.50308
0.07220	-0.10391
0.32721	-0.56305
0.37822	-0.18043
0.22521	0.50828
0.02119	-0.12942
0.07220	-0.53754
0.17421	-0.43551
0.14870	0.02363
0.09770	0.68683
0.12320	0.20219
0.14870	0.27871
0.32721	-0.20594
0.19971	0.32972
0.25071	0.38074
0.22521	0.04914
0.22521	0.30422
-0.08081	-0.15492
-0.00431	-0.58856
-0.05531	0.68683
0.12320	0.63582
0.25071	-0.07840
0.19971	0.25320
0.22521	0.17668
0.37822	0.04914
0.22521	0.25320
-0.08081	0.30422
0.12320	-0.20594
0.04670	0.35523
0.22521	1.04394
0.19971	0.35523
0.14870	-0.18043
0.14870	-0.63957
0.14870	-0.79262
0.22521	-0.05289
0.19971	0.25320
0.02119	0.38074
0.17421	1.01843
0.32721	1.27351
0.22521	0.12566
0.07220	0.07465
0.14870	-0.05289
0.04670	-0.30797
0.14870	-0.20594
0.17421	0.04914
0.12320	-0.33348
0.22521	0.68683
0.19971	0.25320
0.17421	0.02363
0.12320	0.10015
0.12320	0.04914
-0.05531	0.17668
0.12320	-0.38449
0.45472	-0.20594
0.27621	0.53379
0.02119	0.63582
-0.08081	0.17668
-0.02981	0.15117
0.17421	0.22769
0.40372	0.35523
0.42922	0.30422
0.22521	-0.07840
-0.15732	-0.53754
0.14870	-0.10391
0.17421	1.17148
0.09770	1.24800
0.17421	-0.12942
0.30171	-1.09871
0.02119	-0.30797
-0.08081	0.17668
-0.05531	0.50828
0.42922	0.25320
0.22521	0.30422
0.42922	0.32972
0.32721	0.35523
0.32721	0.10015
0.07220	-0.20594
-0.00431	-0.18043
0.07220	-0.05289
0.02119	0.10015
0.04670	0.45726
0.04670	-0.02739
0.12320	0.50828
0.22521	0.96742
0.12320	0.38074
0.14870	-0.12942
0.25071	-0.05289
0.22521	-0.33348
0.12320	-0.10391
0.12320	0.12566
0.07220	-0.05289
0.22521	0.20219
0.04670	-0.02739
0.14870	-0.38449
0.17421	0.27871
0.22521	0.45726
0.12320	1.35003
0.30171	0.35523
0.25071	0.17668
0.12320	0.04914
0.14870	0.25320
-0.00431	-0.05289
-0.00431	-0.43551
0.12320	-0.28246
0.12320	-0.05289
-0.05531	0.55929
0.25071	0.58480
0.22521	0.38074
-0.05531	-0.28246
0.14870	0.04914
0.27621	-0.66508
0.37822	0.76336
0.17421	1.40105
0.30171	0.55929
0.09770	-0.05289
0.19971	-0.10391
-0.02981	-0.10391
0.02119	-0.30797
0.25071	-0.58856
0.14870	-0.53754
0.12320	-0.41000
0.09770	1.37554
0.09770	1.55410
0.25071	0.96742
0.32721	0.35523
0.19971	-0.35899
0.19971	-0.71609
-0.00431	-0.38449
0.04670	-0.07840
0.07220	0.12566
0.02119	-0.38449
0.02119	-0.10391
0.09770	1.24800
0.19971	0.53379
0.42922	0.22769
0.27621	0.32972
0.12320	0.63582
0.12320	0.22769
0.12320	0.27871
0.07220	-0.38449
0.17421	-0.20594
0.14870	0.12566
-0.02981	0.20219
-0.18282	0.40625
0.19971	0.02363
0.30171	-0.25695
0.27621	0.07465
0.14870	0.35523
0.04670	-0.10391
0.14870	0.04914
0.25071	0.20219
0.17421	0.45726
0.14870	0.83988
0.12320	0.48277
0.12320	0.15117
0.04670	-0.58856
0.09770	-0.38449
0.19971	0.15117
0.22521	0.38074
0.22521	0.10015
-0.00431	0.04914
0.07220	0.10015
0.30171	0.45726
0.12320	0.63582
0.22521	-0.05289
0.12320	0.04914
0.22521	0.27871
0.12320	-0.02739
0.04670	0.15117
0.22521	0.02363
0.17421	0.83988
0.12320	0.27871
0.22521	0.17668
0.17421	-0.23145
0.17421	-0.02739
0.12320	0.07465
0.09770	-0.18043
0.04670	-0.07840
0.02119	0.17668
0.12320	0.25320
0.09770	0.38074
0.04670	0.35523
0.17421	0.50828
0.40372	0.15117
0.02119	-0.46102
0.30171	-0.63957
0.19971	0.63582
0.19971	1.47757
0.04670	0.53379
-0.15732	-0.12942
-0.02981	-0.51203
0.27621	0.10015
0.25071	0.27871
0.30171	-0.07840
0.27621	0.22769
0.17421	0.15117
0.02119	0.27871
-0.00431	0.02363
0.25071	0.07465
0.25071	0.32972
0.27621	-0.02739
-0.00431	-0.25695
0.09770	0.15117
0.19971	0.04914
0.12320	0.32972
-0.02981	0.43176
0.04670	0.27871
-0.02981	0.32972
0.19971	-0.15492
0.12320	-0.10391
0.09770	-0.05289
0.35272	0.25320
0.19971	0.68683
0.12320	0.20219
0.12320	-0.28246
0.17421	0.25320
0.17421	0.61031
0.19971	0.15117
0.09770	0.27871
0.22521	-0.25695
0.19971	-0.15492
0.22521	-0.35899
0.09770	0.04914
-0.18282	0.94191
-0.05531	0.20219
0.27621	-0.00188
0.27621	-0.05289
0.27621	0.04914
0.17421	0.30422
0.04670	0.10015
0.07220	0.02363
0.17421	0.07465
0.27621	0.38074
0.25071	0.40625
0.27621	0.20219
0.19971	-0.20594
0.19971	0.20219
0.22521	0.25320
0.02119	0.17668
0.09770	0.27871
0.17421	0.22769
0.04670	0.20219
-0.02981	0.10015
0.07220	-0.02739
0.32721	0.10015
0.25071	0.10015
0.22521	-0.15492
0.12320	0.38074
0.19971	0.15117
0.09770	0.10015
0.02119	-0.18043
0.19971	0.68683
0.22521	0.89089
0.14870	-0.23145
0.07220	0.07465
-0.00431	0.30422
0.04670	-0.07840
0.12320	-0.25695
0.09770	-0.23145
0.30171	-0.23145
0.12320	0.10015
0.22521	0.76336
0.27621	0.30422
0.40372	0.22769
0.19971	0.17668
0.12320	0.20219
-0.41233	0.22769
-0.28482	0.15117
0.30171	0.15117
0.53123	0.45726
0.48022	0.76336
0.25071	-0.18043
0.22521	-0.23145
0.14870	-0.20594
0.09770	-0.25695
0.02119	-0.05289
0.04670	0.22769
0.17421	0.15117
0.07220	0.68683
0.04670	0.83988
-0.02981	-0.12942
0.12320	-0.00188
0.17421	0.61031
0.32721	0.02363
0.32721	0.27871
0.35272	-0.00188
0.30171	-0.33348
0.19971	-0.28246
-0.00431	0.20219
0.04670	0.04914
-0.08081	-0.02739
0.14870	0.15117
0.32721	0.35523
0.22521	0.48277
0.17421	0.15117
0.17421	0.27871
0.14870	0.63582
0.02119	-0.25695
0.12320	-0.05289
0.22521	-0.07840
0.14870	0.30422
0.02119	0.63582
-0.02981	0.35523
0.14870	0.32972
0.22521	-0.10391
0.07220	-0.56305
-0.02981	-0.18043
0.48022	-0.25695
0.32721	0.04914
0.25071	1.12046
0.14870	0.45726
0.19971	0.20219
0.07220	0.27871
-0.00431	0.02363
0.12320	0.17668
0.25071	-0.07840
0.19971	0.27871
0.22521	0.10015
0.09770	-0.53754
0.07220	-0.28246
0.07220	0.61031
-0.00431	0.43176
0.30171	0.17668
0.14870	0.10015
0.25071	0.22769
0.12320	0.15117
-0.00431	-0.05289
0.25071	0.15117
0.32721	0.55929
0.07220	0.73785
0.02119	-0.63957
0.07220	-0.00188
0.17421	0.04914
0.14870	0.58480
0.04670	0.07465
0.22521	-0.02739
0.12320	0.20219
0.02119	0.12566
0.19971	0.04914
0.32721	-0.02739
0.27621	0.68683
-0.02981	0.17668
-0.28482	-0.15492
0.04670	0.07465
0.32721	0.04914
0.53123	0.27871
0.35272	0.55929
0.09770	0.25320
0.07220	0.32972
0.17421	0.04914
0.02119	0.04914
0.02119	-0.12942
0.17421	-0.07840
0.19971	0.15117
0.09770	0.22769
0.04670	-0.20594
0.12320	-0.20594
0.14870	0.35523
0.25071	0.22769
0.25071	0.73785
0.12320	0.22769
0.07220	0.10015
0.02119	0.48277
0.12320	0.58480
0.27621	0.07465
0.25071	-0.02739
0.14870	0.38074
0.25071	0.02363
0.25071	-0.92016
0.25071	-0.51203
0.04670	1.12046
-0.00431	0.22769
0.22521	0.25320
-0.00431	0.15117
-0.13181	-0.07840
0.07220	-0.02739
0.22521	0.48277
0.45472	-0.05289
0.35272	0.22769
0.09770	0.32972
0.14870	0.22769
0.17421	0.22769
-0.05531	0.10015
0.14870	-0.07840
0.25071	0.20219
-0.00431	0.04914
0.12320	0.20219
0.17421	0.15117
0.22521	0.38074
0.19971	0.50828
0.12320	0.50828
0.19971	0.17668
0.27621	-0.00188
0.07220	-0.07840
0.07220	-0.12942
0.04670	-0.56305
-0.08081	-0.56305
0.22521	0.17668
0.17421	0.43176
0.27621	0.38074
0.22521	-0.20594
0.14870	0.12566
0.19971	1.17148
0.45472	0.55929
0.32721	0.15117
0.04670	0.61031
-0.31033	0.61031
-0.02981	-0.05289
0.22521	-0.48652
0.19971	-0.46102
0.17421	-0.25695
0.19971	0.53379
0.25071	0.12566
0.19971	0.12566
0.14870	0.22769
0.14870	0.20219
0.09770	0.22769
0.12320	0.02363
0.14870	-0.07840
0.27621	0.22769
0.04670	0.55929
-0.02981	0.63582
0.09770	0.25320
0.22521	0.32972
0.17421	-0.10391
0.14870	-0.25695
0.32721	-0.25695
0.30171	-0.00188
0.09770	0.35523
-0.00431	0.02363
0.22521	0.78886
0.17421	0.32972
-0.00431	0.04914
0.17421	0.02363
0.27621	-0.15492
0.14870	-0.35899
0.19971	0.20219
0.14870	0.25320
0.07220	0.66132
0.09770	0.55929
0.17421	0.55929
0.12320	0.02363
0.07220	-0.15492
0.14870	-0.18043
0.22521	0.02363
-0.08081	0.12566
-0.18282	0.07465
0.12320	-0.30797
0.30171	-0.12942
0.27621	0.35523
0.42922	0.71234
0.22521	0.53379
0.32721	-0.00188
0.04670	0.15117
0.02119	-0.00188
0.09770	-0.00188
0.17421	0.07465
0.17421	0.12566
0.14870	0.17668
0.09770	0.02363
0.12320	0.10015
-0.02981	0.10015
0.09770	0.12566
0.12320	-0.05289
0.17421	-0.18043
0.25071	0.15117
0.25071	1.12046
0.22521	0.61031
-0.00431	-0.05289
-0.05531	0.12566
0.27621	0.12566
0.32721	-0.20594
0.22521	0.02363
0.30171	0.07465
0.12320	-0.12942
0.02119	-0.38449
-0.10631	0.07465
0.04670	0.20219
0.04670	0.48277
0.27621	0.58480
0.27621	0.48277
-0.02981	0.04914
-0.05531	-0.05289
0.37822	0.40625
0.30171	0.15117
0.17421	-0.02739
0.27621	-0.00188
0.35272	-0.10391
0.22521	0.02363
0.04670	0.35523
0.04670	0.30422
-0.02981	-0.10391
0.07220	0.17668
0.14870	0.20219
0.07220	-0.02739
0.17421	0.55929
0.09770	0.40625
0.30171	0.32972
0.32721	-0.63957
0.27621	0.48277
0.14870	0.45726
0.19971	0.07465
0.09770	0.55929
0.19971	0.10015
0.07220	-0.61406
0.07220	-0.76711
0.07220	-0.94566
-0.00431	0.91640
0.17421	0.83988
0.32721	0.55929
0.22521	0.45726
0.25071	0.30422
0.14870	0.27871
0.14870	0.25320
0.12320	0.27871
0.19971	-0.02739
0.25071	-0.12942
0.02119	0.04914
0.17421	0.02363
0.02119	-0.07840
-0.00431	-0.02739
0.14870	0.15117
0.12320	0.35523
0.22521	0.66132
0.37822	0.40625
0.17421	-0.05289
0.12320	-0.38449
0.07220	0.07465
0.02119	0.15117
0.27621	0.12566
0.12320	-0.30797
-0.13181	-0.15492
0.09770	0.96742
0.25071	0.43176
0.35272	0.10015
0.35272	1.29902
0.17421	0.20219
0.12320	-0.35899
0.19971	-0.10391
0.17421	-0.20594
0.04670	-0.38449
0.02119	0.04914
0.04670	0.07465
0.07220	0.10015
0.19971	0.17668
0.12320	0.55929
0.27621	0.66132
0.07220	0.55929
-0.02981	-0.07840
0.09770	-0.38449
0.30171	-0.35899
0.22521	0.38074
0.25071	-0.12942
0.19971	0.48277
0.22521	0.71234
0.14870	0.30422
0.09770	0.32972
0.12320	-0.12942
0.19971	0.04914
0.22521	0.04914
0.12320	-0.33348
0.14870	0.04914
-0.18282	0.58480
0.02119	0.35523
-0.02981	0.32972
0.12320	0.12566
0.50573	-0.18043
0.35272	-0.18043
0.07220	0.20219
0.12320	0.15117
0.04670	-0.02739
0.12320	0.22769
0.30171	0.22769
0.14870	0.48277
0.25071	0.22769
0.25071	-0.05289
0.12320	0.63582
0.02119	0.76336
-0.02981	0.15117
0.02119	-0.25695
0.12320	0.12566
0.25071	-0.12942
0.17421	-0.20594
0.19971	-0.00188
0.07220	0.15117
0.22521	0.27871
0.22521	0.66132
0.07220	0.20219
-0.13181	-0.15492
0.12320	-0.23145
0.17421	-0.10391
0.12320	0.07465
0.22521	0.91640
0.32721	0.43176
0.30171	0.43176
0.22521	-0.05289
0.09770	0.30422
0.04670	0.15117
0.17421	0.25320
-0.00431	-0.10391
-0.00431	-0.43551
0.22521	-0.33348
0.07220	0.30422
0.09770	0.15117
0.19971	0.10015
0.04670	0.02363
0.07220	0.25320
0.19971	0.25320
0.35272	0.35523
0.27621	0.30422
0.14870	0.17668
0.14870	0.43176
0.19971	0.40625
0.12320	0.20219
0.07220	-0.10391
0.14870	0.17668
-0.00431	-0.12942
0.09770	-0.38449
0.32721	0.04914
0.14870	0.55929
0.17421	0.25320
0.07220	-0.46102
0.09770	0.12566
0.19971	0.63582
0.19971	0.10015
0.22521	0.50828
0.17421	0.25320
0.17421	0.02363
0.17421	-0.12942
0.17421	0.25320
0.17421	0.48277
-0.00431	-0.15492
-0.00431	-0.25695
0.07220	-0.15492
0.17421	0.30422
0.09770	0.35523
0.14870	0.12566
0.12320	0.10015
-0.00431	0.45726
0.30171	0.32972
0.45472	0.45726
0.35272	0.32972
0.09770	-0.00188
0.07220	-0.23145
0.19971	0.38074
0.27621	0.02363
0.25071	0.25320
0.04670	-0.38449
-0.00431	-0.71609
-0.08081	0.43176
0.04670	0.17668
0.27621	0.45726
0.30171	0.32972
0.27621	0.22769
0.17421	0.04914
0.12320	0.15117
0.12320	0.30422
0.09770	0.20219
0.14870	-0.05289
0.09770	0.10015
0.14870	-0.12942
0.12320	0.10015
0.25071	0.02363
0.02119	-0.05289
0.12320	0.32972
0.40372	0.78886
0.25071	0.25320
0.19971	0.02363
-0.05531	0.04914
-0.05531	0.10015
0.30171	0.20219
0.19971	0.25320
0.17421	-0.00188
0.27621	0.10015
0.04670	0.07465
0.02119	-0.05289
0.30171	0.45726
0.22521	0.48277
0.19971	0.25320
0.12320	0.22769
0.19971	-0.02739
0.17421	-0.20594
0.22521	0.22769
0.02119	0.22769
0.04670	-0.10391
0.02119	-0.10391
-0.02981	0.15117
-0.00431	0.25320
0.22521	-0.07840
0.37822	0.10015
0.32721	0.35523
0.14870	0.12566
0.09770	-0.15492
-0.02981	-0.10391
0.25071	0.53379
0.30171	0.55929
0.12320	0.73785
0.25071	0.27871
0.30171	0.02363
0.17421	-0.56305
0.09770	-0.02739
0.07220	0.15117
0.14870	0.02363
0.02119	0.07465
0.04670	0.32972
0.12320	0.35523
0.14870	0.15117
0.12320	0.15117
0.02119	0.17668
0.17421	0.04914
0.25071	0.07465
0.19971	-0.41000
0.09770	-0.12942
0.17421	1.29902
0.22521	0.30422
0.22521	-0.00188
0.37822	-0.00188
0.02119	-0.00188
-0.15732	0.15117
0.17421	0.71234
0.22521	0.07465
0.07220	-0.35899
-0.02981	-0.41000
0.19971	0.15117
0.09770	0.27871
0.22521	0.15117
0.35272	0.04914
0.42922	0.12566
0.35272	0.30422
0.17421	0.35523
0.04670	0.55929
0.04670	0.30422
0.07220	0.07465
-0.08081	-0.02739
-0.00431	-0.05289
0.09770	0.10015
0.14870	0.15117
0.12320	0.02363
0.04670	0.02363
0.19971	0.22769
0.22521	0.25320
0.22521	0.15117
0.22521	0.04914
0.22521	0.20219
0.19971	0.45726
0.27621	0.07465
0.19971	0.40625
0.12320	-0.15492
0.07220	0.17668
0.12320	-0.18043
0.37822	0.07465
0.17421	0.25320
-0.00431	0.55929
-0.00431	0.45726
-0.46334	-0.61406
-0.53984	-0.10391
0.55673	0.25320
0.53123	0.78886
0.55673	0.22769
0.53123	-0.02739
0.25071	0.04914
0.32721	0.04914
0.19971	0.30422
0.07220	0.04914
-0.02981	0.20219
-0.05531	0.17668
-0.20832	0.55929
0.02119	0.25320
0.09770	0.12566
0.22521	0.10015
0.27621	-0.05289
0.17421	-0.18043
0.07220	-0.18043
0.12320	-0.25695
0.19971	0.22769
0.22521	0.10015
0.17421	0.63582
0.12320	1.09496
0.22521	-0.18043
0.19971	0.15117
0.22521	0.10015
0.22521	0.04914
0.17421	-0.28246
0.22521	-0.05289
0.22521	0.40625
-0.08081	0.15117
-0.13181	0.61031
0.27621	0.27871
0.14870	0.04914
0.25071	-0.02739
0.25071	-0.00188
0.19971	0.40625
0.07220	0.38074
0.07220	0.10015
0.04670	-0.25695
0.09770	0.25320
0.12320	0.25320
0.07220	0.10015
0.14870	0.20219
0.19971	0.30422
0.27621	0.25320
0.14870	-0.23145
0.17421	-0.02739
0.14870	0.12566
0.07220	0.27871
0.04670	0.12566
0.09770	0.20219
0.14870	0.20219
-0.08081	-0.05289
0.02119	-0.41000
0.30171	0.43176
0.32721	0.76336
0.07220	0.17668
0.32721	0.15117
0.32721	0.15117
0.12320	0.02363
0.27621	0.66132
0.22521	0.45726
0.09770	-0.05289
0.09770	-0.05289
0.22521	0.02363
-0.00431	0.04914
-0.23382	-0.23145
-0.20832	-0.05289
0.17421	0.15117
0.19971	0.04914
0.25071	0.20219
0.30171	0.43176
0.40372	0.35523
0.17421	-0.10391
0.09770	-0.46102
0.12320	0.73785
0.02119	0.78886
0.12320	0.35523
0.30171	0.17668
0.27621	0.30422
0.12320	-0.18043
0.17421	-0.25695
0.25071	-0.23145
0.07220	0.02363
0.07220	0.02363
0.07220	-0.30797
0.04670	0.55929
0.09770	0.71234
0.22521	0.15117
0.25071	0.22769
0.04670	0.04914
0.09770	-0.00188
0.14870	0.40625
-0.00431	0.25320
0.07220	0.40625
0.35272	0.43176
0.42922	0.22769
0.35272	-0.02739
0.17421	-0.23145
0.07220	-0.05289
0.09770	-0.12942
0.14870	-0.35899
0.09770	0.20219
0.12320	0.15117
-0.25932	0.32972
-0.38683	0.22769
0.14870	0.68683
0.48022	0.12566
0.58223	-0.07840
0.40372	-0.00188
0.19971	0.15117
0.12320	0.30422
-0.00431	-0.00188
0.04670	0.07465
0.07220	0.17668
0.14870	0.35523
0.07220	0.20219
0.07220	-0.12942
-0.00431	0.30422
0.04670	0.55929
0.14870	-0.25695
0.25071	-0.05289
0.07220	0.91640
0.22521	0.48277
0.19971	-0.30797
0.12320	0.12566
0.07220	0.15117
0.22521	-0.07840
0.14870	-0.33348
0.30171	0.10015
0.30171	0.27871
0.07220	0.02363
-0.02981	0.17668
0.12320	0.35523
0.32721	0.55929
0.22521	0.45726
0.12320	0.61031
0.30171	0.12566
0.04670	-0.35899
-0.13181	-0.00188
0.09770	-0.07840
0.30171	-0.00188
0.35272	0.07465
0.30171	0.04914
0.07220	0.20219
0.12320	-0.00188
-0.00431	-0.02739
0.14870	0.27871
0.12320	0.89089
0.02119	0.17668
0.02119	-0.05289
0.30171	0.04914
0.17421	-0.28246
0.19971	-0.25695
0.12320	0.38074
0.17421	0.66132
0.32721	0.63582
0.09770	0.35523
0.27621	0.10015
0.12320	-0.23145
0.17421	-0.30797
0.09770	-0.10391
-0.15732	0.04914
0.07220	0.32972
0.25071	0.58480
0.27621	-0.00188
0.30171	0.38074
0.17421	0.12566
0.17421	0.17668
0.30171	0.15117
0.09770	0.10015
0.27621	0.25320
0.04670	0.32972
0.07220	0.02363
0.02119	-0.25695
0.19971	0.15117
0.19971	0.27871
0.12320	0.30422
0.12320	-0.02739
0.12320	-0.46102
0.14870	0.40625
0.19971	1.37554
0.19971	0.66132
0.07220	-0.30797
0.14870	-0.58856
0.27621	-0.53754
0.27621	-0.15492
0.22521	0.66132
0.04670	0.50828
0.04670	0.32972
-0.05531	0.04914
0.27621	0.15117
0.12320	0.12566
0.09770	0.15117
0.32721	0.50828
0.27621	-0.15492
0.30171	-0.15492
0.19971	0.43176
0.07220	0.22769
0.04670	0.10015
0.14870	0.10015
0.14870	0.15117
0.17421	0.04914
0.09770	0.38074
0.09770	-0.07840
0.12320	-0.12942
0.12320	-0.12942
0.19971	0.99292
0.07220	0.68683
0.14870	-0.38449
0.02119	-0.28246
0.17421	-0.02739
0.19971	-0.00188
0.19971	0.40625
0.22521	0.35523
0.09770	0.30422
0.25071	0.68683
0.19971	-0.18043
0.19971	-0.05289
0.14870	0.78886
0.19971	-0.05289
0.17421	-0.12942
-0.08081	-0.05289
0.12320	0.17668
0.37822	0.17668
0.22521	0.15117
-0.00431	0.17668
-0.05531	0.12566
0.27621	0.30422
0.32721	0.27871
0.25071	0.15117
0.12320	-0.05289
-0.00431	0.04914
-0.05531	0.20219
-0.00431	0.25320
0.12320	0.27871
0.17421	0.22769
0.25071	-0.38449
0.17421	-0.58856
0.27621	0.71234
0.27621	0.81437
0.14870	0.35523
0.02119	-0.02739
0.12320	-0.20594
0.14870	0.22769
0.19971	0.32972
0.22521	0.12566
0.22521	0.32972
0.04670	0.55929
0.04670	0.30422
0.14870	-0.10391
0.14870	-0.05289
0.19971	-0.25695
0.17421	0.10015
0.09770	-0.10391
0.12320	0.22769
0.25071	0.30422
0.07220	0.35523
-0.00431	0.32972
0.17421	0.12566
0.19971	-0.05289
0.22521	0.30422
0.19971	-0.05289
0.22521	0.40625
-0.20832	0.48277
-0.20832	-0.02739
0.17421	0.02363
0.30171	-0.41000
0.30171	0.22769
0.30171	0.76336
0.42922	0.22769
0.07220	-0.18043
0.07220	-0.18043
0.07220	0.15117
-0.00431	0.25320
0.09770	0.04914
0.19971	0.53379
0.17421	0.02363
0.17421	0.30422
0.09770	0.30422
0.07220	0.04914
-0.00431	0.12566
0.09770	0.27871
0.14870	-0.05289
0.22521	-0.20594
0.19971	-0.15492
0.14870	-0.25695
0.12320	0.27871
0.25071	0.91640
0.14870	0.22769
0.04670	0.15117
0.14870	0.32972
0.17421	0.32972
0.27621	0.10015
0.19971	-0.35899
0.07220	-0.58856
-0.02981	-0.76711
0.17421	0.96742
0.07220	1.83468
0.17421	0.17668
0.45472	0.20219
0.27621	0.12566
0.12320	-0.02739
0.12320	-0.30797
-0.23382	-0.23145
0.04670	0.12566
0.32721	0.02363
0.42922	0.91640
0.27621	0.25320
0.07220	-0.00188
0.04670	0.20219
0.22521	-0.30797
-0.08081	-0.15492
-0.05531	-0.07840
0.09770	0.35523
0.25071	0.30422
0.22521	0.61031
0.04670	0.20219
0.17421	0.07465
0.27621	0.15117
0.12320	-0.20594
0.09770	0.07465
0.12320	0.27871
0.22521	-0.00188
0.12320	0.27871
-0.02981	0.58480
0.22521	-0.02739
0.12320	0.07465
0.02119	-0.07840
0.12320	0.12566
0.32721	0.15117
0.40372	0.17668
0.40372	0.35523
0.17421	0.15117
0.09770	-0.05289
0.14870	-0.00188
0.02119	0.43176
0.04670	0.30422
0.12320	0.04914
0.02119	0.22769
0.12320	0.22769
0.22521	0.04914
0.09770	0.43176
-0.00431	0.02363
0.25071	0.15117
0.12320	0.27871
0.25071	0.45726
0.25071	0.10015
0.12320	-0.33348
0.12320	-0.28246
0.12320	-0.63957
0.19971	-0.30797
0.27621	0.30422
0.27621	1.35003
0.25071	0.96742
0.02119	0.22769
-0.10631	0.10015
-0.02981	-0.00188
0.12320	0.32972
0.19971	0.12566
0.22521	-0.18043
0.22521	-0.07840
0.19971	0.27871
0.27621	0.20219
0.17421	0.17668
0.09770	-0.05289
-0.00431	0.15117
0.12320	-0.38449
0.07220	0.22769
0.32721	0.50828
0.32721	0.45726
0.14870	0.12566
0.12320	0.07465
0.04670	-0.15492
0.07220	0.04914
0.07220	0.35523
-0.00431	0.35523
0.17421	0.76336
0.40372	0.55929
0.27621	-0.23145
0.12320	-0.10391
0.09770	-0.35899
0.12320	-0.15492
0.19971	-0.00188
0.17421	0.25320
0.04670	0.25320
0.12320	0.07465
0.27621	0.07465
0.12320	0.58480
0.12320	0.99292
-0.00431	0.02363
0.09770	-0.25695
0.19971	0.61031
0.42922	-0.05289
0.32721	-0.18043
-0.31033	0.02363
-0.31033	0.40625
0.19971	-0.15492
0.30171	0.30422
0.48022	0.91640
0.45472	0.30422
0.48022	-0.00188
0.22521	-0.25695
0.25071	-0.15492
0.02119	0.10015
-0.00431	0.07465
-0.00431	-0.07840
-0.00431	0.17668
0.02119	0.30422
-0.05531	0.17668
0.07220	-0.00188
0.09770	-0.00188
0.19971	0.50828
0.30171	0.50828
0.17421	0.22769
0.12320	-0.02739
0.25071	0.35523
0.27621	0.48277
0.14870	0.07465
-0.00431	-0.05289
0.12320	-0.20594
0.12320	-0.15492
0.27621	0.07465
0.22521	0.66132
0.25071	0.02363
0.19971	-0.10391
0.19971	0.22769
-0.05531	0.10015
-0.25932	-0.05289
-0.02981	0.71234
0.35272	0.81437
0.37822	0.27871
0.42922	0.35523
0.14870	-0.00188
0.04670	-0.38449
0.07220	-0.18043
0.09770	0.25320
0.22521	0.02363
0.02119	-0.18043
0.09770	0.22769
-0.15732	0.20219
-0.08081	0.12566
0.27621	0.35523
0.19971	0.12566
0.27621	-0.15492
0.35272	0.15117
0.12320	0.63582
0.17421	0.22769
0.17421	0.22769
0.04670	0.55929
-0.02981	0.22769
0.25071	0.48277
0.27621	-0.05289
0.17421	-0.12942
0.12320	-0.05289
-0.00431	-0.15492
0.09770	0.35523
0.19971	-0.02739
0.19971	-0.25695
0.17421	-0.00188
-0.00431	0.02363
0.12320	0.50828
0.19971	0.71234
0.22521	0.78886
0.12320	0.04914
0.14870	-0.30797
0.14870	-0.20594
0.12320	0.10015
0.22521	0.66132
0.12320	0.02363
0.22521	0.07465
-0.00431	0.30422
0.14870	0.02363
0.35272	-0.35899
0.14870	0.20219
0.07220	-0.02739
0.19971	-0.18043
0.19971	0.10015
0.07220	0.43176
0.02119	0.43176
0.14870	0.38074
0.27621	0.12566
0.22521	0.22769
0.09770	0.20219
-0.08081	0.20219
-0.02981	0.48277
0.17421	-0.18043
0.27621	0.20219
0.04670	0.02363
0.09770	0.04914
0.25071	0.27871
0.09770	-0.05289
0.19971	-0.28246
0.02119	-0.05289
0.12320	0.20219
0.30171	0.17668
0.12320	0.20219
0.14870	0.68683
0.14870	0.22769
0.19971	0.45726
0.17421	-0.02739
0.17421	-0.28246
0.17421	0.96742
0.27621	0.22769
0.17421	-0.56305
-0.02981	-0.33348
0.14870	0.10015
0.12320	0.32972
0.12320	0.22769
0.09770	0.30422
0.12320	0.12566
0.32721	0.12566
-0.00431	0.73785
-0.08081	0.04914
0.09770	0.17668
0.30171	0.58480
0.14870	0.35523
0.32721	-0.41000
0.30171	-0.66508
0.14870	0.15117
0.09770	0.25320
0.14870	0.30422
0.22521	-0.18043
-0.00431	0.20219
0.12320	0.50828
0.19971	0.58480
0.30171	0.22769
0.12320	0.04914
0.07220	0.17668
0.07220	-0.12942
0.02119	-0.15492
0.04670	0.07465
0.09770	0.32972
0.09770	0.38074
0.22521	0.27871
0.25071	0.20219
0.25071	-0.10391
0.17421	-0.05289
0.19971	0.68683
0.25071	0.53379
0.19971	-0.41000
0.12320	0.04914
0.12320	0.32972
-0.13181	0.07465
-0.28482	0.25320
-0.10631	0.20219
0.37822	-0.33348
0.53123	-0.10391
0.07220	0.12566
0.22521	0.55929
0.42922	0.58480
0.32721	0.45726
0.30171	0.22769
0.14870	0.04914
0.12320	0.15117
0.12320	0.04914
0.02119	0.07465
0.02119	0.27871
-0.05531	0.10015
-0.13181	-0.35899
-0.00431	-0.28246
0.19971	0.17668
0.22521	0.58480
0.22521	0.40625
0.22521	0.20219
0.12320	-0.46102
0.22521	0.10015
0.12320	0.48277
0.22521	0.43176
0.35272	0.04914
0.12320	-0.15492
0.17421	0.17668
0.04670	0.68683
0.02119	0.35523
0.02119	-0.25695
0.37822	-0.15492
0.25071	0.25320
0.30171	0.45726
0.14870	-0.25695
0.07220	-0.00188
0.12320	0.22769
0.12320	0.27871
0.02119	0.12566
0.02119	0.02363
0.07220	0.27871
0.09770	0.17668
0.12320	0.10015
0.14870	0.40625
0.25071	0.40625
0.27621	0.20219
0.27621	0.17668
0.19971	-0.02739
0.27621	-0.23145
0.17421	-0.00188
0.04670	0.35523
0.07220	0.17668
0.17421	0.07465
0.14870	-0.00188
0.35272	0.35523
-0.13181	0.96742
-0.15732	-0.66508
-0.05531	-0.05289
0.35272	0.25320
0.45472	0.63582
0.30171	0.20219
0.35272	0.20219
0.30171	0.12566
0.12320	0.07465
0.19971	0.35523
0.12320	0.17668
-0.02981	-0.00188
-0.02981	0.07465
0.02119	-0.02739
0.12320	-0.02739
0.12320	-0.00188
0.12320	0.12566
0.17421	0.58480
0.12320	0.61031
0.07220	-0.05289
0.09770	-0.02739
0.19971	0.07465
0.22521	-0.12942
0.25071	0.25320
0.37822	0.55929
0.27621	0.61031
0.14870	0.22769
0.02119	-0.02739
-0.08081	-0.28246
-0.18282	0.30422
-0.33583	-0.05289
0.32721	0.15117
0.70974	0.40625
0.32721	-0.05289
0.22521	-0.02739
0.25071	0.53379
0.25071	-0.02739
0.12320	-0.18043
0.09770	0.25320
0.12320	0.61031
0.07220	0.25320
0.02119	-0.02739
0.02119	-0.02739
-0.02981	0.02363
0.09770	0.22769
0.14870	0.20219
0.27621	0.17668
0.19971	-0.05289
0.19971	-0.05289
0.25071	0.43176
0.27621	0.15117
0.12320	0.32972
0.14870	0.32972
0.07220	-0.10391
0.14870	-0.15492
0.02119	0.20219
0.17421	0.15117
0.19971	-0.10391
0.19971	0.94191
0.22521	0.30422
-0.00431	0.17668
0.07220	0.22769
0.09770	0.12566
0.14870	-0.05289
0.42922	-0.00188
0.22521	0.04914
0.12320	0.02363
0.12320	0.22769
0.22521	0.07465
0.17421	0.53379
0.02119	0.35523
0.04670	0.07465
0.02119	-0.05289
0.07220	-0.12942
0.02119	-0.05289
-0.08081	0.40625
0.17421	0.25320
0.37822	0.27871
0.32721	0.17668
0.32721	-0.02739
0.19971	0.15117
0.07220	-0.18043
0.07220	-0.23145
0.12320	0.22769
0.17421	1.27351
0.19971	0.38074
0.17421	-0.35899
0.17421	-0.28246
0.14870	0.20219
0.14870	0.55929
0.17421	0.53379
0.02119	0.25320
0.07220	-0.07840
0.09770	-0.28246
0.22521	0.27871
0.09770	-0.28246
0.02119	-0.12942
0.30171	0.76336
0.22521	0.45726
0.19971	0.20219
0.14870	-0.02739
0.25071	-0.15492
-0.05531	0.17668
0.02119	0.27871
0.17421	-0.00188
0.27621	0.20219
0.27621	0.38074
0.19971	0.25320
-0.05531	0.10015
-0.02981	-0.02739
0.07220	0.30422
0.32721	0.50828
0.25071	0.20219
0.07220	-0.35899
0.17421	0.07465
0.22521	0.20219
0.17421	-0.10391
0.07220	-0.58856
0.04670	0.73785
-0.08081	0.38074
-0.00431	0.15117
0.40372	-0.12942
0.37822	-0.23145
0.14870	1.12046
0.07220	0.55929
0.14870	0.10015
0.17421	0.15117
0.22521	0.07465
0.17421	-0.23145
0.07220	-0.20594
0.02119	0.27871
0.14870	0.55929
0.19971	-0.05289
0.32721	0.25320
-0.02981	0.04914
-0.10631	-0.00188
-0.08081	0.04914
0.22521	-0.15492
0.12320	0.15117
0.30171	0.30422
0.32721	0.40625
0.22521	0.22769
0.25071	0.55929
0.12320	0.30422
0.02119	0.30422
0.12320	0.12566
0.17421	0.10015
0.27621	-0.10391
0.14870	0.02363
0.14870	-0.07840
0.17421	-0.33348
0.27621	-0.05289
0.14870	0.53379
-0.13181	-0.10391
-0.02981	0.73785
0.22521	0.61031
0.22521	0.15117
0.35272	0.02363
0.30171	-0.18043
0.27621	0.32972
0.12320	0.45726
0.09770	0.10015
0.17421	0.17668
0.19971	-0.15492
0.12320	0.04914
0.12320	-0.28246
-0.20832	0.12566
-0.00431	0.32972
0.37822	-0.10391
0.32721	-0.02739
0.27621	0.81437
0.32721	0.45726
0.09770	-0.07840
0.02119	0.17668
