0.12320	0.20219
0.07220	0.17668
0.09770	0.10015
0.12320	0.10015
0.14870	0.25320
0.09770	0.17668
0.07220	0.10015
0.17421	0.07465
0.19971	0.12566
0.12320	0.15117
0.07220	0.20219
0.09770	0.20219
0.14870	0.15117
0.14870	0.04914
0.22521	0.15117
0.14870	0.15117
0.07220	0.20219
0.07220	0.22769
0.12320	0.15117
0.12320	0.15117
0.17421	0.04914
0.25071	0.07465
0.25071	0.17668
0.22521	0.17668
0.14870	0.20219
0.07220	0.12566
0.04670	0.12566
0.14870	0.04914
0.17421	0.12566
0.22521	0.20219
0.17421	0.15117
0.14870	0.07465
0.17421	0.12566
0.12320	0.12566
0.19971	0.20219
0.17421	0.17668
0.07220	0.15117
0.14870	0.10015
0.19971	0.12566
0.14870	0.22769
0.14870	0.12566
0.07220	0.12566
0.12320	0.17668
0.14870	0.10015
0.17421	0.10015
0.07220	0.15117
0.14870	0.20219
0.22521	0.15117
0.14870	0.15117
0.07220	0.15117
0.22521	0.15117
0.14870	0.04914
0.07220	0.15117
0.12320	0.22769
0.25071	0.17668
0.12320	0.07465
0.07220	0.20219
0.17421	0.15117
0.22521	0.12566
0.07220	0.20219
0.14870	0.12566
0.22521	0.15117
0.07220	0.15117
0.22521	0.04914
0.07220	0.25320
0.14870	0.10015
0.17421	0.12566
0.17421	0.15117
0.22521	0.12566
0.07220	0.12566
0.14870	0.07465
0.12320	0.15117
0.14870	0.17668
0.17421	0.07465
0.09770	0.17668
0.14870	0.15117
0.14870	0.10015
0.04670	0.15117
0.19971	0.22769
0.17421	0.10015
0.09770	0.15117
0.17421	0.20219
0.22521	0.17668
0.09770	0.02363
0.14870	0.15117
0.14870	0.22769
0.22521	0.17668
0.17421	0.07465
0.04670	0.12566
0.14870	0.17668
0.22521	0.17668
0.14870	0.10015
0.07220	0.07465
0.14870	0.07465
0.12320	0.10015
0.22521	0.22769
0.12320	0.20219
0.14870	0.17668
0.17421	0.20219
0.22521	0.15117
0.12320	0.04914
0.07220	0.17668
0.17421	0.15117
0.22521	0.12566
0.14870	0.10015
0.14870	0.17668
0.25071	0.20219
0.17421	0.12566
0.12320	0.07465
0.09770	0.07465
0.17421	0.10015
0.22521	0.20219
0.12320	0.15117
0.07220	0.04914
0.19971	0.17668
0.17421	0.12566
0.19971	0.22769
0.09770	0.17668
0.17421	0.10015
0.12320	0.10015
0.22521	0.15117
0.14870	0.25320
0.12320	0.17668
0.14870	0.07465
0.19971	0.10015
0.22521	0.17668
0.14870	0.22769
0.07220	0.15117
0.17421	0.04914
0.14870	0.20219
0.19971	0.20219
0.14870	0.07465
0.09770	0.10015
0.14870	0.15117
0.22521	0.12566
0.14870	0.07465
0.12320	0.25320
0.22521	0.12566
0.14870	0.10015
0.09770	0.17668
0.22521	0.12566
0.17421	0.04914
0.09770	0.17668
0.17421	0.17668
0.22521	0.15117
0.12320	0.10015
0.07220	0.07465
0.19971	0.12566
0.17421	0.15117
0.09770	0.10015
0.12320	0.22769
0.19971	0.12566
0.14870	0.07465
0.09770	0.15117
0.14870	0.20219
0.22521	0.15117
0.12320	0.12566
0.07220	0.12566
0.19971	0.17668
0.12320	0.04914
0.07220	0.15117
0.14870	0.17668
0.14870	0.10015
0.09770	0.07465
0.14870	0.27871
0.12320	0.15117
0.07220	0.15117
0.14870	0.10015
0.22521	0.12566
0.14870	0.22769
0.09770	0.10015
0.12320	0.10015
0.22521	0.17668
0.14870	0.12566
0.17421	0.17668
0.07220	0.17668
0.12320	0.07465
0.22521	0.10015
0.17421	0.17668
0.14870	0.20219
0.07220	0.15117
0.17421	0.10015
0.14870	0.17668
0.22521	0.22769
0.09770	0.15117
0.09770	0.07465
0.17421	0.17668
0.22521	0.10015
0.12320	0.17668
0.07220	0.15117
0.14870	0.10015
0.14870	0.10015
0.22521	0.17668
0.12320	0.25320
0.14870	0.17668
0.09770	0.10015
0.17421	0.07465
0.17421	0.15117
0.22521	0.22769
0.17421	0.07465
0.07220	0.15117
0.09770	0.22769
0.14870	0.17668
0.07220	0.02363
0.14870	0.17668
0.19971	0.20219
0.14870	0.20219
0.09770	0.15117
0.14870	0.07465
0.14870	0.15117
0.22521	0.22769
0.14870	0.20219
0.09770	0.15117
0.07220	0.07465
0.12320	0.15117
0.22521	0.20219
0.14870	0.15117
0.12320	0.10015
0.09770	0.12566
0.12320	0.15117
0.22521	0.20219
0.14870	0.15117
0.09770	0.10015
0.12320	0.15117
0.22521	0.22769
0.14870	0.22769
0.09770	0.17668
0.17421	0.12566
0.17421	0.17668
0.12320	0.25320
0.07220	0.10015
0.14870	0.04914
0.22521	0.15117
0.17421	0.15117
0.14870	0.17668
0.09770	0.15117
0.19971	0.20219
0.12320	0.15117
0.09770	0.07465
0.14870	0.15117
0.22521	0.17668
0.14870	0.15117
0.09770	0.12566
0.14870	0.07465
0.19971	0.25320
0.14870	0.22769
0.07220	0.04914
0.14870	0.07465
0.22521	0.15117
0.14870	0.20219
0.17421	0.22769
0.07220	0.15117
0.09770	0.12566
0.14870	0.17668
0.14870	0.10015
0.14870	0.20219
0.07220	0.17668
0.17421	0.22769
0.22521	0.12566
0.19971	0.12566
0.14870	0.15117
0.12320	0.22769
0.07220	0.10015
0.14870	0.02363
0.14870	0.12566
0.22521	0.20219
0.17421	0.12566
0.07220	0.22769
0.17421	0.15117
0.19971	0.20219
0.12320	0.17668
0.12320	0.15117
0.07220	0.17668
0.14870	0.20219
0.14870	0.17668
0.09770	0.17668
0.14870	0.20219
0.25071	0.12566
0.12320	0.15117
0.12320	0.22769
0.19971	0.15117
0.14870	0.04914
0.12320	0.15117
0.19971	0.04914
0.19971	0.04914
0.14870	0.22769
0.14870	0.30422
0.22521	0.22769
0.12320	0.10015
0.12320	0.15117
0.22521	0.17668
0.17421	0.07465
0.12320	0.22769
0.19971	0.27871
0.14870	0.17668
0.09770	0.12566
0.12320	0.07465
0.22521	0.22769
0.12320	0.22769
0.14870	0.20219
0.07220	0.02363
0.17421	-0.05289
0.25071	0.20219
0.19971	0.02363
0.12320	-0.10391
0.09770	0.32972
0.22521	0.50828
0.22521	0.43176
0.12320	0.15117
0.07220	0.15117
0.17421	0.12566
0.14870	0.04914
0.09770	0.10015
0.09770	0.22769
0.19971	0.12566
0.14870	0.10015
0.09770	0.15117
0.17421	0.17668
0.22521	0.20219
0.09770	0.10015
0.14870	0.15117
0.22521	0.10015
0.17421	0.12566
0.04670	-0.00188
0.14870	0.20219
0.19971	0.22769
0.12320	0.15117
0.17421	0.04914
0.14870	0.12566
0.22521	0.17668
0.14870	0.15117
0.09770	0.22769
0.14870	0.20219
0.19971	0.17668
0.14870	0.15117
0.09770	0.02363
0.17421	0.04914
0.14870	0.04914
0.09770	0.10015
0.09770	0.25320
0.14870	0.40625
0.17421	0.25320
0.09770	-0.02739
0.12320	0.07465
0.19971	0.15117
0.12320	0.25320
0.14870	0.15117
0.22521	0.20219
0.12320	0.02363
0.07220	-0.02739
0.17421	-0.10391
0.14870	0.20219
0.22521	0.45726
0.09770	0.22769
0.17421	0.22769
0.09770	0.20219
0.14870	0.12566
0.12320	0.02363
0.07220	0.04914
0.12320	0.22769
0.22521	0.15117
0.12320	0.07465
0.14870	0.17668
0.19971	0.15117
0.17421	0.15117
0.07220	0.15117
0.17421	0.15117
0.17421	0.25320
0.19971	0.17668
0.17421	0.12566
0.09770	0.02363
0.14870	-0.00188
0.19971	0.15117
0.14870	0.04914
0.09770	0.22769
0.14870	0.40625
0.19971	0.30422
0.12320	0.15117
0.07220	0.07465
0.12320	0.12566
0.22521	0.12566
0.17421	0.15117
0.14870	0.10015
0.12320	-0.00188
0.22521	0.12566
0.14870	0.20219
0.12320	0.15117
0.09770	0.12566
0.17421	0.10015
0.22521	0.12566
0.22521	0.17668
0.22521	0.22769
0.09770	0.10015
0.07220	0.02363
0.12320	0.20219
0.14870	0.22769
0.19971	0.30422
0.17421	0.17668
0.07220	0.12566
0.07220	0.17668
0.17421	0.04914
0.19971	0.10015
0.12320	0.22769
0.09770	0.10015
0.09770	0.22769
0.14870	0.12566
0.25071	0.12566
0.14870	0.25320
0.09770	0.17668
0.07220	0.17668
0.17421	0.10015
0.17421	0.15117
0.14870	0.07465
0.19971	-0.02739
0.22521	0.12566
0.12320	0.07465
0.12320	0.12566
0.12320	0.30422
0.09770	0.20219
0.09770	0.15117
0.14870	0.15117
0.17421	0.10015
0.22521	0.07465
0.14870	0.15117
0.17421	0.15117
0.12320	0.15117
0.07220	0.22769
0.17421	0.20219
0.17421	0.15117
0.14870	0.07465
0.09770	0.17668
0.14870	0.22769
0.22521	0.10015
0.14870	0.04914
0.07220	0.20219
0.17421	0.15117
0.22521	0.10015
0.07220	0.17668
0.14870	0.15117
0.19971	0.07465
0.14870	0.04914
0.14870	0.17668
0.19971	0.20219
0.09770	0.27871
0.14870	0.25320
0.19971	0.15117
0.12320	0.04914
0.09770	-0.02739
0.14870	0.04914
0.17421	-0.07840
0.07220	0.22769
0.07220	0.25320
0.22521	0.22769
0.07220	0.25320
0.14870	0.30422
0.19971	0.15117
0.14870	0.07465
0.09770	0.15117
0.14870	0.15117
0.17421	0.15117
0.19971	-0.02739
0.09770	0.17668
0.22521	0.10015
0.14870	-0.05289
0.12320	0.30422
0.22521	0.10015
0.12320	0.15117
0.12320	0.22769
0.22521	0.30422
0.17421	0.15117
0.07220	0.12566
0.14870	0.12566
0.22521	0.15117
0.14870	0.20219
0.09770	0.15117
0.17421	0.15117
0.12320	0.10015
0.07220	0.17668
0.14870	0.25320
0.19971	0.22769
0.14870	0.10015
0.04670	0.10015
0.19971	0.22769
0.22521	0.10015
0.12320	0.10015
0.14870	0.17668
0.22521	0.20219
0.22521	0.17668
0.14870	0.07465
0.14870	0.15117
0.17421	0.15117
0.17421	0.20219
0.07220	0.20219
0.12320	0.10015
0.14870	0.17668
0.22521	0.15117
0.14870	0.00000
0.09770	0.00000
0.14870	0.00000
0.12320	0.00000
0.07220	0.10015
0.14870	0.17668
0.22521	0.22769
0.09770	0.10015
0.12320	0.15117
0.22521	0.12566
0.14870	0.17668
0.09770	0.02363
0.19971	0.25320
0.12320	0.15117
0.07220	0.07465
0.19971	0.15117
0.17421	0.17668
0.09770	0.04914
0.14870	0.07465
0.19971	0.20219
0.12320	0.07465
0.14870	0.12566
0.09770	0.20219
0.14870	0.22769
0.22521	0.25320
0.12320	0.25320
0.17421	0.12566
0.07220	0.04914
0.09770	0.10015
0.17421	0.12566
0.22521	0.25320
0.22521	0.15117
0.17421	0.10015
0.14870	0.10015
0.07220	0.10015
0.14870	0.20219
0.19971	0.17668
0.14870	0.25320
0.14870	0.04914
0.07220	0.10015
0.14870	0.20219
0.22521	0.20219
0.14870	0.17668
0.12320	0.20219
0.07220	0.07465
0.14870	0.12566
0.12320	0.15117
0.22521	0.22769
0.14870	0.12566
0.17421	0.02363
0.07220	0.12566
0.14870	0.22769
0.19971	0.15117
0.19971	0.17668
0.07220	0.10015
0.17421	-0.00188
0.14870	0.20219
0.22521	0.25320
0.17421	0.15117
0.07220	0.15117
0.09770	0.10015
0.14870	0.12566
0.19971	0.17668
0.22521	0.20219
0.12320	0.15117
0.07220	0.07465
0.07220	0.15117
0.25071	0.25320
0.12320	0.15117
0.07220	0.10015
0.14870	0.17668
0.22521	0.15117
0.19971	0.15117
0.09770	0.10015
0.12320	0.17668
0.14870	0.17668
0.22521	0.12566
0.07220	0.20219
0.09770	0.07465
0.14870	0.15117
0.22521	0.22769
0.17421	0.15117
0.14870	0.15117
0.07220	0.15117
0.12320	0.10015
0.12320	0.12566
0.22521	0.20219
0.22521	0.17668
0.14870	0.22769
0.07220	0.15117
0.07220	0.04914
0.12320	0.10015
0.14870	0.17668
0.19971	0.22769
0.19971	0.20219
0.14870	0.15117
0.14870	0.12566
0.09770	0.04914
0.14870	0.07465
0.14870	0.10015
0.22521	0.25320
0.22521	0.22769
0.14870	0.17668
0.07220	0.10015
0.14870	0.15117
0.22521	0.15117
0.19971	0.20219
0.12320	0.17668
0.14870	0.10015
0.07220	0.12566
0.07220	0.15117
0.14870	0.15117
0.14870	0.20219
0.22521	0.17668
0.12320	0.15117
0.14870	0.15117
0.07220	0.10015
0.07220	0.15117
0.14870	0.17668
0.22521	0.20219
0.19971	0.15117
0.19971	0.20219
0.12320	0.12566
0.12320	0.10015
0.09770	0.17668
0.07220	0.10015
0.09770	0.22769
0.12320	0.20219
0.12320	0.17668
0.22521	0.25320
0.22521	0.17668
0.22521	0.12566
0.19971	0.12566
0.12320	0.15117
0.14870	0.17668
0.09770	0.12566
0.17421	0.12566
0.12320	0.15117
0.22521	0.20219
0.17421	0.15117
0.12320	0.04914
0.12320	0.15117
0.14870	0.20219
0.19971	0.17668
0.17421	0.15117
0.09770	0.07465
0.09770	0.07465
0.14870	0.25320
0.14870	0.22769
0.22521	0.12566
0.22521	0.15117
0.25071	0.15117
0.19971	0.17668
0.14870	0.20219
0.14870	0.04914
0.14870	0.04914
0.09770	0.12566
0.14870	0.15117
0.14870	0.15117
0.14870	0.20219
0.22521	0.25320
0.19971	0.20219
0.14870	0.15117
0.09770	0.15117
0.07220	0.10015
0.14870	0.10015
0.22521	0.20219
0.14870	0.15117
0.14870	0.07465
0.12320	0.07465
0.09770	0.07465
0.14870	0.10015
0.17421	0.15117
0.19971	0.25320
0.17421	0.17668
0.17421	0.15117
0.07220	0.04914
0.14870	0.15117
0.19971	0.20219
0.14870	0.12566
0.09770	0.12566
0.07220	0.07465
0.14870	0.15117
0.14870	0.15117
0.17421	0.22769
0.22521	0.12566
0.17421	0.27871
0.17421	0.10015
0.07220	0.12566
0.14870	0.17668
0.19971	0.12566
0.17421	0.10015
0.09770	0.10015
0.14870	0.04914
0.22521	0.20219
0.22521	0.17668
0.12320	0.12566
0.12320	0.12566
0.07220	0.12566
0.14870	0.17668
0.14870	0.22769
0.19971	0.17668
0.22521	0.17668
0.17421	0.04914
0.09770	0.15117
0.12320	0.25320
0.19971	0.07465
0.17421	0.10015
0.09770	0.20219
0.14870	0.17668
0.22521	0.17668
0.17421	0.04914
0.14870	0.17668
0.07220	0.30422
0.07220	0.10015
0.22521	0.10015
0.09770	0.04914
0.04670	0.02363
0.07220	0.12566
0.25071	0.20219
0.35272	0.25320
0.27621	0.25320
0.27621	0.17668
0.27621	0.27871
0.19971	0.04914
0.19971	0.17668
-0.08081	0.04914
-0.15732	-0.38449
0.07220	-0.28246
0.02119	0.50828
0.25071	0.25320
0.27621	0.53379
0.30171	0.40625
0.17421	0.30422
0.17421	0.40625
0.22521	0.25320
0.32721	-0.02739
0.27621	0.02363
0.07220	-0.23145
-0.43783	0.30422
-0.53984	-0.33348
0.96476	0.04914
0.48022	0.20219
-0.10631	-0.43551
-0.00431	0.40625
-0.25932	-0.23145
-0.05531	0.32972
0.42922	1.47757
0.45472	1.57960
0.35272	1.47757
0.07220	-1.04770
0.32721	-1.63437
0.02119	-2.45062
-0.25932	-2.04250
-0.08081	1.78367
1.34728	1.88570
-0.79486	1.93671
-0.53984	1.29902
0.50573	0.55929
0.81175	0.86539
0.53123	0.86539
0.07220	-1.48133
-0.08081	-1.35379
0.45472	-5.02690
0.73524	0.22769
-0.00431	2.16628
-0.64185	1.68163
-0.97337	1.17148
0.45472	1.06945
1.24527	-0.10391
0.81175	-1.53234
0.48022	-1.50683
-0.05531	2.57441
-0.41233	1.35003
-0.13181	0.20219
-0.31033	-3.13933
-0.51434	-1.50683
-0.89686	1.52859
0.25071	2.24281
1.24527	1.57960
0.70974	0.91640
0.30171	1.47757
-0.10631	1.32453
0.32721	-0.35899
0.55673	-2.50164
0.45472	-4.15964
-0.48884	-2.93527
0.37822	-0.99668
1.01576	1.88570
-2.12094	2.29382
-3.67654	2.59991
0.73524	1.57960
2.31634	1.70714
2.36734	1.19699
0.63323	1.37554
-1.48340	1.04394
1.14327	-0.51203
1.01576	-2.85874
0.19971	-4.97589
-0.43783	-3.72601
-0.59084	1.47757
-0.33583	2.93151
-0.64185	2.19179
-1.55991	1.50308
1.37278	1.04394
1.14327	0.61031
-2.01894	0.96742
0.07220	-0.25695
0.42922	-0.48652
0.09770	-2.52714
1.14327	-0.58856
1.11776	-0.53754
1.04126	0.91640
-0.46334	0.78886
-0.43783	0.94191
0.48022	0.83988
0.42922	0.71234
-1.12638	1.47757
0.09770	-0.43551
-0.13181	-1.53234
0.35272	-4.26167
0.35272	-0.74160
0.22521	2.34484
-0.15732	2.08976
0.27621	1.60511
0.65874	1.63062
0.73524	0.35523
-1.33039	0.20219
-0.18282	-0.25695
-0.38683	0.10015
3.15790	0.30422
1.34728	0.10015
-0.76936	-0.89465
-0.13181	-1.88945
0.07220	-1.12422
0.04670	0.35523
0.17421	1.01843
0.17421	0.76336
-0.08081	0.81437
-1.10088	0.50828
1.50029	0.17668
-1.07538	-0.46102
-0.20832	-0.76711
0.73524	1.14597
0.73524	0.86539
0.32721	0.73785
-0.10631	-2.52714
-0.20832	0.02363
-0.43783	1.63062
0.25071	1.29902
0.65874	1.47757
0.35272	0.71234
-0.51434	0.04914
0.27621	-0.30797
0.37822	0.91640
0.42922	0.40625
0.37822	-1.91496
-0.23382	-3.39441
-0.31033	-2.19554
-0.18282	1.29902
0.53123	1.80917
0.27621	1.45206
0.78624	1.37554
0.07220	0.96742
0.88825	0.81437
0.55673	0.48277
-0.18282	-0.00188
-2.83499	-0.48652
1.37278	-1.20074
0.70974	-0.35899
0.88825	0.10015
1.01576	0.68683
0.07220	0.10015
-0.71835	0.20219
0.07220	0.78886
-0.13181	-0.10391
0.22521	0.40625
0.09770	0.38074
0.09770	0.17668
-1.45790	0.25320
0.91375	0.12566
0.93925	0.12566
0.02119	0.10015
0.22521	0.27871
0.53123	-0.10391
0.32721	-0.07840
0.40372	-1.04770
0.45472	-0.05289
0.04670	0.68683
0.14870	0.89089
0.19971	0.02363
0.02119	0.20219
-0.08081	0.71234
-0.23382	0.91640
-0.05531	1.09496
0.09770	-0.63957
0.19971	-1.27726
0.45472	-0.12942
0.14870	0.10015
0.22521	0.53379
0.12320	0.91640
0.02119	-0.58856
-0.31033	-0.43551
0.27621	0.43176
0.70974	0.48277
0.32721	-0.02739
0.27621	1.40105
0.09770	0.17668
-0.10631	-0.86914
0.07220	-0.66508
0.27621	0.07465
0.12320	0.55929
0.14870	0.61031
-0.20832	0.73785
0.12320	-0.05289
0.25071	0.53379
0.12320	0.38074
0.22521	-0.84363
0.22521	-1.14973
0.04670	-0.79262
0.12320	0.73785
0.32721	1.57960
0.07220	0.96742
0.73524	0.32972
2.11233	-0.05289
-4.03357	-0.46102
-0.64185	0.17668
1.39828	0.66132
1.14327	0.07465
1.04126	-0.15492
0.48022	-0.25695
0.17421	0.04914
-0.38683	-0.12942
-0.25932	0.81437
0.70974	0.50828
0.22521	0.40625
-0.18282	-0.79262
-0.43783	0.20219
-0.08081	0.02363
0.30171	0.35523
-0.02981	0.25320
-0.66735	1.06945
0.48022	0.07465
0.50573	-0.38449
0.50573	-0.33348
0.37822	0.55929
0.35272	0.07465
-0.02981	0.17668
-0.08081	0.86539
0.30171	-0.61406
0.19971	-1.32828
0.09770	0.25320
0.04670	1.27351
0.14870	0.07465
0.22521	0.32972
0.12320	1.47757
-0.10631	-0.66508
0.17421	-1.88945
0.19971	-1.50683
0.09770	1.52859
0.17421	1.68163
0.17421	0.94191
0.14870	0.89089
0.09770	0.17668
0.22521	-0.61406
0.37822	-1.02219
0.14870	0.53379
0.07220	-0.00188
0.17421	0.53379
0.12320	0.58480
0.12320	0.35523
-0.05531	-0.05289
-0.00431	-0.35899
0.27621	-0.43551
0.35272	0.30422
-0.02981	0.32972
0.42922	0.25320
0.27621	-0.46102
0.50573	0.30422
0.12320	0.50828
0.19971	0.55929
-0.25932	0.40625
-0.28482	0.10015
-0.02981	0.35523
0.53123	-0.20594
0.32721	-0.46102
-0.10631	-0.92016
0.07220	0.17668
0.22521	0.73785
0.14870	1.09496
0.27621	0.32972
0.19971	-0.02739
0.04670	0.04914
0.14870	0.50828
0.12320	0.15117
0.14870	-0.35899
0.27621	-0.46102
0.17421	-0.25695
0.02119	0.32972
0.04670	1.04394
0.22521	0.71234
0.30171	0.02363
0.19971	-0.35899
0.09770	0.22769
0.09770	-0.12942
0.02119	0.17668
0.12320	-0.25695
0.12320	0.12566
0.07220	0.10015
0.22521	0.96742
0.27621	0.66132
0.17421	-0.00188
0.25071	-0.15492
0.30171	0.66132
0.12320	0.12566
0.09770	-0.33348
-0.20832	0.53379
0.22521	0.22769
0.27621	-0.38449
0.32721	-1.83844
0.53123	0.20219
0.32721	0.78886
-0.53984	0.50828
-0.05531	1.01843
0.48022	0.40625
0.30171	-0.25695
0.25071	-0.41000
0.19971	-0.38449
-0.05531	0.91640
0.04670	0.45726
0.07220	0.32972
0.25071	0.40625
0.12320	0.32972
0.19971	0.53379
0.02119	-0.15492
0.14870	-0.69059
0.17421	0.55929
0.12320	-0.25695
0.17421	0.15117
0.19971	0.38074
0.12320	-0.18043
0.19971	0.38074
0.27621	-0.33348
0.25071	0.58480
0.09770	-0.05289
0.22521	-0.46102
0.04670	0.66132
-0.13181	1.06945
-0.00431	0.17668
-0.05531	-0.30797
0.32721	-0.61406
0.17421	0.58480
0.37822	0.30422
0.25071	-0.18043
0.09770	0.10015
-0.02981	0.50828
0.02119	0.73785
0.04670	0.38074
0.12320	-0.51203
0.22521	-0.81812
0.37822	0.22769
0.30171	1.09496
0.17421	0.43176
0.07220	-0.07840
-0.02981	0.35523
0.02119	-0.05289
0.02119	0.50828
0.07220	-0.05289
0.19971	-0.28246
0.32721	-0.71609
0.42922	-0.53754
0.35272	0.50828
0.12320	1.14597
0.02119	1.09496
0.12320	0.20219
0.02119	-0.28246
-0.00431	-0.33348
-0.02981	0.43176
0.12320	0.27871
0.17421	0.45726
0.14870	0.30422
0.09770	-0.18043
0.07220	-0.10391
0.19971	0.53379
0.09770	-0.05289
0.17421	0.58480
0.27621	0.25320
0.25071	-0.38449
0.12320	-0.43551
0.07220	0.07465
0.12320	0.96742
0.09770	-0.00188
0.02119	-0.81812
0.12320	0.50828
0.27621	0.27871
0.27621	0.58480
0.09770	0.15117
0.14870	0.55929
0.14870	0.17668
0.07220	0.38074
0.14870	0.40625
0.04670	0.07465
-0.08081	0.07465
0.27621	-0.35899
0.32721	-0.46102
0.22521	0.04914
0.14870	0.78886
0.12320	0.22769
0.02119	-0.00188
0.07220	-0.02739
0.25071	-0.07840
0.25071	0.15117
0.19971	0.45726
0.12320	0.25320
-0.00431	-0.02739
-0.28482	-0.92016
0.04670	-0.12942
0.73524	0.55929
0.50573	0.48277
0.25071	0.86539
0.09770	0.61031
-0.08081	0.22769
0.02119	-0.10391
0.12320	0.15117
0.17421	0.12566
0.02119	0.10015
0.02119	0.22769
0.07220	0.12566
0.12320	0.02363
0.19971	0.07465
0.07220	0.17668
0.22521	-0.25695
0.27621	-0.86914
0.19971	-0.66508
0.12320	1.17148
0.12320	0.71234
0.12320	0.22769
0.12320	0.40625
0.17421	0.02363
0.12320	-0.07840
0.07220	0.25320
0.17421	0.78886
0.19971	0.10015
0.07220	0.27871
0.04670	0.12566
0.22521	-0.28246
0.14870	0.40625
0.12320	0.04914
0.09770	0.04914
0.17421	-0.25695
0.17421	-0.07840
0.32721	0.43176
0.09770	0.32972
0.12320	1.70714
0.19971	0.27871
0.02119	-0.46102
0.27621	-0.89465
0.17421	-0.86914
0.12320	0.58480
0.14870	0.71234
0.04670	0.73785
0.09770	0.30422
0.17421	-0.10391
0.07220	0.10015
0.19971	-0.20594
0.14870	0.73785
0.12320	0.78886
0.07220	-0.23145
0.14870	-0.97117
0.25071	-0.81812
0.09770	0.02363
0.02119	0.66132
0.32721	0.96742
0.30171	0.63582
0.09770	0.12566
0.02119	-0.00188
0.32721	0.10015
0.22521	0.58480
0.02119	1.27351
0.04670	-0.74160
0.09770	-1.04770
0.09770	-0.20594
0.19971	0.61031
0.12320	0.20219
0.09770	0.20219
0.07220	-0.58856
0.14870	-0.12942
0.09770	0.48277
0.12320	0.53379
0.19971	0.78886
0.22521	1.24800
0.37822	0.10015
0.14870	-0.76711
0.04670	0.02363
0.12320	0.15117
0.12320	0.45726
0.12320	0.25320
0.14870	0.30422
0.12320	-0.33348
0.19971	-0.18043
0.12320	-0.15492
0.04670	-0.02739
0.09770	0.81437
0.19971	0.63582
0.27621	0.25320
0.14870	-0.10391
-0.00431	0.40625
0.07220	-0.35899
0.14870	-1.22625
0.25071	0.10015
0.27621	0.66132
0.09770	1.01843
0.09770	0.61031
0.12320	0.40625
0.12320	0.10015
0.17421	0.12566
0.04670	0.04914
0.02119	0.17668
0.17421	0.12566
0.17421	-0.15492
0.14870	-0.12942
0.27621	-0.10391
0.22521	0.66132
0.22521	0.32972
0.12320	0.10015
0.09770	-0.38449
0.02119	-0.41000
0.04670	0.20219
0.17421	0.48277
0.14870	0.86539
0.12320	0.50828
0.35272	0.02363
0.27621	0.55929
0.14870	0.40625
0.12320	0.40625
0.12320	-0.05289
0.17421	-0.53754
0.07220	-0.30797
0.04670	0.43176
0.07220	0.10015
0.12320	-0.10391
0.07220	-0.15492
0.12320	0.35523
0.27621	0.45726
0.09770	0.27871
0.25071	0.20219
0.25071	0.20219
0.12320	0.12566
-0.02981	0.15117
0.19971	0.22769
0.12320	0.10015
0.07220	0.02363
0.04670	-0.02739
0.22521	0.17668
0.22521	0.25320
0.17421	0.30422
0.12320	0.30422
0.19971	-0.02739
0.17421	-0.25695
0.17421	-0.79262
0.14870	0.48277
0.09770	0.58480
0.22521	1.32453
0.14870	0.04914
0.12320	-0.38449
0.14870	-0.35899
0.19971	0.35523
0.14870	0.50828
0.12320	0.66132
0.22521	0.30422
0.04670	0.07465
0.25071	-0.12942
0.45472	0.02363
0.04670	0.10015
0.02119	0.02363
0.07220	-0.00188
0.02119	0.04914
-0.08081	-0.05289
0.17421	0.20219
0.40372	0.53379
0.32721	0.66132
0.22521	-0.33348
0.07220	-0.28246
0.04670	-0.58856
0.14870	-0.02739
0.09770	1.42656
0.12320	0.81437
0.02119	0.53379
0.09770	-0.23145
0.17421	-0.58856
0.30171	-0.10391
0.17421	0.55929
0.19971	0.63582
0.09770	0.30422
0.22521	0.25320
0.04670	0.12566
0.07220	0.04914
0.14870	-0.05289
0.22521	0.07465
0.14870	0.17668
0.09770	0.04914
0.14870	-0.18043
0.12320	0.12566
0.14870	-0.15492
0.17421	0.53379
0.14870	0.43176
0.02119	-0.05289
0.22521	-0.20594
0.14870	0.12566
0.17421	0.66132
0.14870	0.50828
0.14870	0.35523
0.07220	0.12566
0.04670	0.04914
0.17421	0.30422
0.30171	-0.25695
0.22521	-0.20594
0.17421	-0.61406
0.09770	0.58480
0.14870	0.53379
0.12320	0.20219
0.02119	0.07465
0.02119	-0.05289
0.04670	0.61031
0.19971	-0.02739
0.22521	0.20219
0.30171	-0.20594
0.19971	-0.10391
0.12320	-0.43551
0.09770	0.40625
0.14870	0.63582
0.17421	0.22769
0.09770	0.04914
0.04670	0.02363
0.22521	0.10015
0.09770	0.48277
0.14870	0.61031
0.14870	0.12566
0.27621	0.55929
0.09770	0.17668
0.19971	-0.28246
0.12320	0.02363
0.19971	-0.71609
0.19971	-0.35899
0.07220	0.94191
-0.02981	0.86539
-0.02981	0.22769
0.09770	-0.10391
0.25071	-0.18043
0.32721	-0.10391
0.32721	0.35523
0.30171	0.22769
0.30171	0.27871
0.09770	0.45726
0.07220	0.25320
0.04670	0.22769
0.02119	0.55929
0.12320	0.15117
0.19971	-0.18043
0.25071	-0.74160
0.12320	-0.12942
0.07220	0.45726
0.07220	0.15117
0.19971	0.10015
0.27621	0.10015
0.19971	0.78886
0.19971	0.45726
0.07220	0.45726
0.12320	-0.12942
0.19971	0.10015
-0.05531	0.43176
0.22521	0.10015
0.12320	0.02363
0.19971	-0.20594
0.32721	-0.30797
0.27621	0.63582
0.22521	0.10015
-0.00431	0.02363
-0.02981	0.48277
0.04670	-0.00188
0.07220	0.12566
0.02119	0.07465
0.07220	0.22769
0.37822	0.12566
0.32721	-0.12942
0.22521	-0.25695
0.32721	0.35523
0.14870	0.15117
0.12320	0.61031
0.07220	0.63582
0.09770	0.25320
0.14870	-0.25695
0.14870	-0.05289
0.17421	0.38074
0.27621	0.32972
0.14870	0.15117
0.02119	-0.35899
0.04670	0.38074
0.22521	0.32972
0.12320	-0.51203
0.07220	-0.41000
0.12320	0.66132
0.30171	0.17668
0.27621	0.30422
0.22521	0.25320
0.04670	0.25320
0.19971	0.20219
0.22521	0.12566
0.17421	0.02363
0.14870	0.25320
0.09770	0.17668
0.04670	-0.23145
0.17421	-0.18043
0.25071	-0.02739
0.22521	0.45726
0.04670	0.20219
0.02119	0.22769
0.12320	0.45726
0.14870	0.50828
-0.02981	-0.02739
0.19971	-0.05289
0.22521	-0.48652
0.27621	-0.02739
0.19971	0.71234
0.25071	0.50828
0.12320	0.32972
0.02119	0.35523
-0.00431	-0.15492
0.12320	0.02363
0.09770	0.15117
0.12320	0.35523
0.12320	0.20219
0.09770	-0.25695
0.22521	-0.12942
0.14870	0.17668
0.17421	0.04914
0.09770	0.35523
0.22521	0.63582
0.14870	0.50828
0.09770	-0.02739
0.19971	-0.25695
0.12320	0.07465
0.14870	0.04914
0.12320	0.07465
-0.00431	0.25320
0.07220	-0.05289
0.12320	0.86539
0.25071	0.45726
0.19971	-0.23145
0.17421	-0.25695
0.09770	0.17668
0.12320	0.32972
0.17421	0.17668
0.22521	-0.02739
0.14870	0.30422
0.09770	0.02363
0.12320	0.27871
0.12320	-0.05289
0.19971	-0.10391
0.22521	0.38074
0.12320	-0.05289
0.07220	0.10015
0.12320	0.25320
0.04670	-0.00188
0.02119	0.25320
0.19971	0.83988
0.14870	0.48277
0.14870	-0.71609
0.25071	-0.63957
0.19971	-0.10391
0.17421	0.45726
0.09770	0.96742
0.07220	0.66132
0.09770	0.43176
0.14870	0.22769
0.22521	-0.28246
0.22521	-0.00188
0.09770	-0.00188
0.27621	0.22769
0.25071	0.07465
0.12320	0.15117
0.14870	0.22769
0.04670	-0.05289
0.17421	0.20219
0.19971	-0.10391
0.12320	0.25320
0.09770	0.04914
0.07220	0.07465
0.14870	0.35523
0.19971	0.10015
0.17421	0.10015
0.17421	0.35523
0.09770	0.45726
0.14870	-0.05289
0.17421	0.15117
0.25071	0.45726
0.09770	0.25320
0.17421	0.30422
0.22521	-0.35899
0.19971	-0.84363
0.14870	0.20219
0.12320	0.55929
0.07220	0.71234
0.09770	0.40625
0.09770	0.43176
0.17421	-0.00188
0.12320	-0.18043
0.04670	0.12566
0.14870	0.20219
0.19971	0.40625
0.17421	-0.12942
0.14870	-0.02739
0.17421	-0.51203
0.09770	-0.15492
0.07220	0.61031
0.32721	0.45726
0.19971	0.22769
0.09770	0.15117
0.12320	0.30422
0.30171	0.02363
0.09770	-0.05289
-0.02981	-0.05289
0.12320	0.71234
0.22521	0.43176
0.19971	0.27871
0.19971	-0.00188
0.12320	-0.35899
0.07220	-0.23145
0.12320	0.25320
0.07220	-0.05289
0.27621	0.50828
0.27621	0.45726
0.17421	0.81437
0.19971	0.04914
0.07220	-0.61406
-0.00431	-0.10391
0.22521	0.38074
0.27621	0.45726
0.30171	0.55929
0.14870	0.22769
0.02119	0.17668
0.12320	0.10015
0.09770	-0.07840
0.19971	-0.15492
0.09770	-0.05289
0.04670	-0.02739
-0.00431	-0.02739
0.27621	0.30422
0.30171	0.35523
0.22521	0.38074
0.07220	0.15117
0.14870	0.15117
0.17421	0.12566
0.14870	0.04914
0.09770	0.20219
0.12320	0.38074
0.09770	0.10015
0.14870	0.04914
0.07220	-0.02739
0.02119	0.27871
0.09770	0.25320
0.40372	0.04914
0.02119	-0.00188
0.32721	-0.05289
0.32721	0.30422
0.27621	0.53379
0.04670	0.22769
0.07220	0.32972
0.09770	0.30422
0.14870	0.04914
0.19971	-0.10391
0.12320	0.04914
0.22521	-0.15492
-0.00431	-0.05289
-0.02981	0.32972
0.04670	0.20219
0.25071	-0.00188
0.17421	0.12566
0.09770	0.55929
0.19971	0.58480
0.22521	0.61031
0.32721	-0.35899
0.12320	-0.38449
0.12320	-1.12422
0.22521	0.30422
-0.13181	0.99292
-0.08081	0.58480
0.12320	0.71234
0.25071	0.32972
0.35272	0.15117
0.40372	0.25320
0.25071	-0.05289
0.02119	-0.41000
0.12320	-0.18043
0.14870	0.02363
0.02119	-0.10391
0.07220	0.43176
0.22521	0.25320
0.14870	0.02363
0.09770	-0.05289
0.12320	0.20219
0.17421	0.32972
0.17421	0.20219
0.07220	0.12566
0.25071	0.35523
0.22521	0.22769
0.14870	0.38074
0.07220	0.04914
0.12320	0.27871
0.09770	-0.20594
0.30171	-0.41000
0.30171	0.20219
0.12320	1.04394
0.14870	-0.07840
0.12320	0.25320
0.12320	0.12566
0.14870	-0.07840
0.04670	-0.15492
-0.00431	0.27871
0.30171	0.10015
0.22521	0.17668
0.19971	0.40625
0.14870	0.22769
0.04670	0.12566
0.09770	0.32972
0.22521	-0.02739
0.14870	0.02363
0.17421	0.27871
0.14870	-0.18043
0.14870	-0.07840
0.30171	0.35523
0.12320	0.53379
-0.00431	-0.25695
0.09770	0.02363
0.02119	0.17668
0.09770	0.20219
0.40372	0.15117
0.27621	0.81437
0.27621	0.58480
0.07220	0.12566
0.09770	0.20219
0.09770	0.40625
0.22521	-0.23145
0.22521	-0.46102
0.12320	-0.79262
-0.00431	0.10015
0.12320	0.48277
0.02119	0.68683
0.22521	0.25320
0.19971	0.10015
0.02119	0.17668
-0.02981	0.17668
0.30171	0.50828
0.32721	0.07465
0.27621	-0.07840
0.27621	0.43176
0.19971	0.12566
0.02119	0.07465
-0.05531	-0.00188
0.22521	0.10015
0.22521	-0.07840
0.12320	0.07465
0.07220	0.27871
0.19971	0.38074
0.09770	0.20219
0.25071	-0.15492
0.14870	-0.18043
0.09770	0.22769
-0.00431	1.17148
0.12320	0.35523
0.22521	-0.15492
0.22521	-0.23145
0.12320	-0.18043
0.19971	0.68683
0.19971	-0.07840
0.12320	0.12566
0.14870	0.22769
0.12320	0.10015
0.14870	0.15117
0.12320	0.20219
0.04670	0.04914
0.19971	-0.00188
0.07220	-0.00188
0.37822	-0.18043
0.25071	0.07465
0.22521	0.55929
0.14870	0.58480
0.14870	0.35523
0.09770	0.35523
0.22521	0.02363
0.17421	0.02363
0.17421	-0.18043
-0.02981	-0.02739
-0.02981	0.17668
0.09770	0.25320
0.09770	-0.12942
0.19971	-0.15492
0.35272	0.40625
0.45472	0.25320
0.19971	0.27871
0.04670	0.15117
0.07220	0.38074
0.04670	0.43176
0.14870	-0.07840
0.19971	-0.51203
0.17421	-0.43551
0.07220	0.25320
-0.13181	0.10015
0.17421	0.76336
0.19971	0.76336
0.12320	0.04914
0.22521	0.43176
0.35272	0.04914
0.27621	-0.10391
0.19971	0.30422
0.14870	0.04914
0.04670	0.04914
0.07220	-0.00188
-0.00431	-0.02739
0.17421	0.12566
0.12320	0.45726
0.12320	0.12566
0.12320	0.10015
0.12320	-0.33348
0.12320	0.12566
0.09770	0.45726
0.17421	0.35523
0.25071	0.66132
0.32721	0.32972
0.14870	-0.07840
0.12320	-0.46102
0.07220	-0.02739
-0.00431	0.32972
0.04670	0.55929
0.19971	0.38074
0.30171	0.07465
0.25071	-0.35899
0.09770	0.10015
0.22521	0.04914
0.09770	0.35523
0.25071	0.40625
0.04670	0.10015
0.04670	0.30422
0.07220	0.10015
0.17421	-0.18043
-0.00431	-0.10391
0.32721	0.12566
0.32721	0.02363
0.14870	0.38074
-0.00431	0.25320
0.12320	-0.00188
0.12320	0.07465
0.25071	0.35523
0.14870	0.43176
0.04670	-0.07840
0.14870	0.20219
0.19971	0.78886
0.12320	0.40625
0.07220	-0.02739
0.04670	-0.25695
0.22521	-0.28246
0.32721	-0.25695
0.27621	0.25320
0.12320	-0.00188
0.07220	0.86539
0.09770	0.58480
0.09770	0.55929
0.12320	0.02363
0.14870	-0.12942
0.14870	0.07465
0.22521	-0.25695
0.17421	0.12566
0.17421	0.25320
0.07220	0.27871
-0.05531	0.17668
0.12320	0.10015
0.22521	-0.02739
0.22521	0.20219
0.14870	0.20219
0.09770	0.15117
0.17421	0.15117
0.27621	0.35523
0.22521	0.02363
0.17421	-0.00188
0.17421	-0.20594
0.09770	0.12566
0.12320	1.14597
0.12320	0.35523
0.09770	-0.05289
0.07220	-0.43551
0.09770	0.20219
0.22521	0.27871
0.37822	0.38074
0.22521	0.32972
0.09770	0.04914
0.07220	0.32972
0.04670	-0.33348
0.12320	-0.00188
0.22521	-0.30797
0.25071	0.50828
0.22521	0.22769
0.19971	0.20219
0.07220	0.32972
0.12320	0.02363
0.09770	0.38074
-0.00431	0.17668
-0.05531	-0.07840
0.14870	0.17668
0.27621	-0.00188
0.30171	-0.07840
0.19971	0.30422
0.19971	0.22769
0.17421	0.04914
0.09770	0.02363
-0.05531	0.07465
0.17421	0.22769
0.27621	0.35523
0.17421	0.35523
0.14870	0.61031
0.19971	-0.10391
0.17421	0.02363
0.22521	0.10015
0.12320	0.04914
0.14870	-0.10391
0.14870	0.02363
0.07220	0.27871
0.12320	0.04914
0.09770	0.25320
-0.00431	0.07465
0.12320	0.15117
0.14870	0.12566
0.22521	0.25320
0.25071	0.27871
0.17421	0.32972
0.17421	0.22769
0.19971	0.22769
0.14870	0.07465
0.19971	0.07465
0.17421	0.04914
0.17421	0.10015
0.12320	0.10015
0.14870	0.27871
-0.08081	0.35523
0.02119	-0.23145
0.07220	-0.23145
0.09770	-0.56305
-0.02981	0.12566
0.22521	0.55929
0.35272	0.78886
0.40372	0.61031
0.30171	0.02363
0.25071	-0.12942
0.12320	1.24800
0.09770	0.10015
-0.00431	-0.00188
0.07220	0.17668
0.12320	-0.15492
0.09770	-0.15492
0.02119	0.02363
0.12320	0.04914
0.22521	-0.00188
0.19971	0.30422
0.12320	0.04914
0.22521	0.35523
0.19971	-0.15492
0.27621	-0.99668
0.14870	0.32972
0.12320	0.94191
0.04670	0.48277
0.22521	0.78886
0.25071	0.35523
0.14870	0.10015
-0.00431	-0.18043
0.02119	-0.23145
0.17421	0.35523
0.19971	0.27871
0.17421	0.20219
0.12320	0.17668
0.19971	0.17668
0.22521	0.22769
0.12320	-0.23145
0.12320	-0.28246
0.07220	0.38074
0.12320	0.73785
0.17421	0.07465
0.17421	-0.23145
0.12320	-0.35899
0.04670	0.35523
0.35272	0.53379
0.14870	0.30422
0.17421	-0.15492
0.22521	0.63582
-0.00431	0.15117
0.25071	0.25320
0.35272	0.45726
0.12320	0.15117
0.14870	0.20219
0.12320	0.12566
0.04670	-0.02739
0.04670	0.15117
0.07220	0.07465
0.22521	0.02363
0.14870	-0.30797
0.14870	-0.15492
0.04670	0.15117
0.09770	0.66132
0.09770	0.45726
0.19971	-0.00188
0.14870	0.81437
0.07220	-0.15492
0.02119	-0.35899
0.14870	-0.35899
0.27621	0.20219
0.40372	0.73785
0.30171	0.50828
0.27621	0.40625
0.09770	0.50828
0.14870	0.27871
0.07220	-0.00188
0.12320	-0.12942
0.04670	-0.07840
0.07220	-0.05289
0.02119	0.12566
0.17421	0.25320
0.22521	0.12566
0.12320	0.10015
0.09770	-0.10391
0.09770	0.35523
0.30171	0.04914
0.14870	0.25320
-0.00431	1.12046
0.25071	-0.30797
0.30171	-0.46102
0.32721	-0.41000
0.22521	-0.28246
-0.13181	0.30422
-0.33583	-0.05289
-0.18282	1.14597
0.32721	0.86539
0.30171	0.68683
0.48022	0.20219
0.53123	-0.02739
0.32721	0.12566
0.27621	-0.05289
0.12320	0.04914
0.07220	-0.10391
-0.05531	-0.18043
-0.00431	-0.07840
0.04670	0.02363
0.02119	0.07465
-0.00431	0.04914
0.09770	0.15117
0.22521	0.35523
0.14870	0.27871
0.09770	0.17668
0.19971	0.17668
0.25071	0.25320
0.17421	0.25320
0.14870	0.22769
0.19971	0.20219
0.32721	0.43176
0.22521	0.35523
0.12320	-0.63957
0.09770	-0.92016
0.12320	0.10015
0.12320	0.71234
0.02119	0.07465
-0.13181	0.73785
-0.05531	0.38074
0.27621	0.38074
0.45472	0.15117
0.40372	0.12566
0.22521	-0.05289
0.19971	0.04914
0.07220	0.12566
0.19971	-0.07840
0.17421	0.02363
-0.00431	-0.12942
0.02119	0.04914
-0.00431	0.15117
0.09770	0.22769
0.22521	0.40625
0.17421	0.55929
0.04670	0.25320
0.12320	-0.07840
0.12320	-0.07840
0.17421	-0.25695
0.22521	-0.25695
0.14870	-0.00188
0.07220	0.27871
0.14870	0.32972
0.19971	0.25320
0.17421	0.43176
0.19971	0.96742
0.19971	0.50828
0.22521	0.38074
0.19971	-0.10391
0.12320	-0.07840
0.04670	-0.12942
0.12320	0.61031
0.07220	0.12566
-0.00431	-0.20594
0.12320	0.04914
0.14870	0.10015
0.12320	-0.20594
0.12320	0.22769
-0.10631	0.43176
0.22521	-0.56305
0.42922	-0.05289
0.30171	0.30422
0.17421	0.32972
0.09770	0.27871
0.09770	0.15117
0.17421	0.35523
0.07220	0.30422
0.14870	0.22769
0.04670	-0.00188
0.27621	0.07465
0.17421	-0.00188
0.14870	0.40625
0.02119	0.04914
0.02119	-0.35899
0.04670	0.40625
0.22521	0.68683
0.32721	0.04914
0.30171	0.20219
0.17421	0.02363
0.12320	0.12566
0.17421	0.04914
0.12320	0.02363
0.02119	0.10015
0.07220	0.45726
0.12320	0.17668
0.09770	0.02363
0.14870	0.04914
0.14870	0.22769
0.22521	0.17668
0.19971	-0.05289
0.22521	-0.02739
0.09770	-0.00188
0.12320	0.32972
0.14870	0.27871
0.17421	0.35523
0.12320	0.27871
0.07220	0.22769
0.09770	-0.15492
0.12320	0.17668
0.09770	0.32972
0.17421	0.04914
0.07220	0.25320
0.12320	0.15117
0.14870	-0.15492
0.17421	0.58480
0.04670	-0.30797
0.19971	0.45726
0.22521	0.27871
0.22521	0.15117
0.02119	0.25320
0.12320	0.10015
0.22521	0.15117
0.04670	0.71234
0.12320	-0.02739
0.19971	-0.38449
0.22521	-0.20594
0.22521	0.07465
0.12320	0.22769
0.07220	0.10015
-0.00431	-0.02739
-0.00431	-0.05289
0.14870	0.12566
0.25071	0.38074
0.30171	0.20219
0.12320	0.45726
0.12320	0.22769
0.07220	0.43176
0.12320	0.07465
0.22521	0.15117
0.12320	0.12566
0.02119	0.04914
0.17421	0.20219
0.17421	-0.43551
0.14870	0.43176
0.25071	0.35523
0.12320	0.48277
0.22521	0.22769
0.17421	-0.20594
0.07220	-0.30797
0.09770	-0.38449
0.12320	-0.05289
0.04670	0.83988
0.04670	0.15117
0.09770	0.27871
0.19971	0.35523
0.35272	0.12566
0.22521	0.35523
0.09770	0.35523
0.25071	-0.18043
0.12320	0.02363
0.09770	-0.02739
0.19971	0.10015
0.09770	0.10015
0.14870	0.10015
0.22521	0.12566
0.12320	0.38074
0.07220	0.15117
0.14870	0.20219
0.19971	0.10015
0.09770	0.20219
0.07220	0.27871
0.19971	0.10015
0.19971	0.12566
0.12320	0.07465
0.25071	0.38074
0.25071	-0.10391
0.04670	-0.10391
0.12320	0.38074
-0.08081	-0.20594
0.02119	0.35523
0.35272	0.35523
0.32721	-0.05289
0.19971	0.32972
0.19971	0.17668
-0.00431	0.53379
-0.08081	0.20219
0.30171	-0.05289
0.25071	0.27871
0.12320	0.12566
0.12320	-0.00188
0.12320	-0.00188
0.04670	0.38074
0.07220	0.20219
0.14870	-0.05289
0.17421	-0.30797
0.17421	-0.18043
0.12320	0.99292
0.14870	0.35523
0.19971	0.04914
0.25071	0.07465
0.09770	-0.81812
0.14870	0.15117
0.19971	0.45726
0.17421	0.71234
0.12320	0.45726
0.09770	0.15117
0.12320	0.04914
0.17421	0.17668
0.12320	-0.25695
0.09770	-0.05289
0.19971	0.48277
0.14870	-0.30797
-0.00431	0.17668
0.22521	0.45726
0.30171	0.25320
0.22521	-0.10391
0.12320	0.17668
0.12320	0.15117
0.17421	0.35523
0.22521	0.30422
0.22521	0.25320
0.07220	0.02363
0.12320	-0.07840
0.04670	-0.12942
0.09770	0.53379
0.02119	-0.07840
0.07220	-0.12942
0.17421	-0.00188
0.30171	0.50828
0.22521	0.22769
0.19971	0.04914
0.25071	-0.23145
0.09770	0.45726
0.07220	0.27871
0.12320	0.35523
0.22521	-0.05289
0.04670	-0.02739
0.12320	0.58480
0.04670	0.45726
0.09770	0.17668
0.14870	0.27871
0.09770	0.02363
0.04670	-0.66508
0.22521	0.12566
0.30171	0.15117
0.25071	0.27871
0.07220	0.89089
0.17421	0.32972
0.27621	-0.25695
0.19971	-0.76711
0.22521	0.45726
0.12320	0.55929
0.09770	-0.10391
0.07220	-0.18043
0.02119	-0.58856
0.12320	0.40625
0.25071	0.45726
0.30171	0.38074
0.19971	0.25320
0.04670	0.22769
0.07220	0.32972
0.12320	0.17668
0.09770	-0.33348
0.09770	-0.05289
0.17421	0.45726
-0.08081	0.30422
0.14870	0.27871
0.19971	0.30422
0.22521	-0.12942
0.30171	0.10015
0.22521	0.50828
0.07220	0.22769
0.09770	-0.10391
0.17421	-0.05289
0.12320	-0.00188
0.12320	0.15117
0.12320	-0.02739
0.09770	-0.05289
0.12320	0.15117
0.09770	0.25320
0.12320	0.38074
0.19971	0.12566
0.19971	0.12566
0.14870	-0.05289
0.14870	0.30422
-0.00431	0.32972
0.12320	0.50828
0.22521	-0.10391
0.25071	-0.20594
0.22521	-0.18043
0.19971	0.32972
0.12320	0.27871
0.17421	0.73785
-0.00431	0.53379
0.14870	-0.00188
0.09770	-0.56305
0.09770	0.15117
0.25071	0.61031
0.42922	0.73785
0.17421	-0.07840
0.17421	0.25320
0.12320	-0.05289
0.02119	-0.46102
-0.02981	-0.20594
0.09770	0.25320
0.09770	0.17668
0.14870	0.15117
0.09770	0.20219
0.17421	0.10015
0.22521	0.32972
0.17421	-0.10391
0.17421	-0.18043
0.17421	-0.00188
0.07220	0.38074
0.19971	0.55929
0.09770	1.12046
0.22521	0.48277
0.22521	0.04914
0.09770	-0.25695
0.09770	-0.35899
0.19971	-0.02739
0.07220	-0.18043
0.12320	0.27871
0.12320	0.71234
0.22521	-0.05289
0.17421	-0.18043
0.12320	0.45726
0.22521	0.32972
0.17421	0.20219
0.07220	-0.23145
0.14870	0.12566
0.09770	0.45726
0.09770	0.35523
0.19971	-0.00188
0.12320	-0.15492
0.12320	-0.18043
0.14870	0.20219
0.04670	0.48277
0.07220	0.43176
0.04670	0.53379
0.02119	0.35523
0.27621	0.02363
0.32721	0.02363
0.27621	-0.15492
0.14870	0.30422
0.07220	0.15117
0.09770	-0.58856
0.09770	0.15117
0.14870	0.68683
-0.00431	0.32972
0.02119	0.35523
0.14870	0.22769
0.32721	0.38074
0.25071	-0.02739
0.14870	-0.15492
0.07220	0.04914
0.12320	-0.18043
0.14870	-0.30797
0.12320	0.04914
0.07220	0.58480
0.04670	0.66132
0.09770	0.30422
-0.00431	-0.02739
0.19971	0.43176
0.12320	0.30422
0.22521	-0.12942
0.19971	-0.25695
0.27621	0.27871
0.25071	0.20219
0.19971	0.20219
0.14870	0.10015
0.17421	0.04914
0.07220	0.02363
0.02119	0.12566
0.17421	-0.05289
0.30171	-0.10391
0.27621	0.30422
0.25071	0.40625
0.19971	0.71234
0.14870	0.22769
0.12320	-0.48652
0.09770	-0.46102
0.07220	0.17668
0.04670	0.32972
0.04670	0.15117
0.14870	0.86539
0.25071	0.63582
0.25071	-0.30797
0.12320	-0.86914
0.12320	0.07465
0.07220	0.45726
0.17421	0.53379
0.25071	0.50828
0.27621	-0.05289
0.22521	-0.30797
0.19971	0.58480
0.02119	0.38074
-0.10631	-0.10391
0.14870	-0.43551
0.27621	-0.86914
0.22521	0.50828
0.09770	0.81437
0.14870	0.58480
0.17421	0.55929
0.17421	0.15117
0.19971	-0.23145
0.22521	0.25320
0.19971	0.17668
0.25071	0.15117
0.12320	0.15117
-0.00431	-0.15492
0.02119	0.07465
-0.02981	0.15117
0.14870	0.12566
0.37822	0.10015
0.30171	0.55929
0.17421	0.15117
0.09770	-0.12942
0.12320	-0.02739
0.27621	-0.00188
0.17421	-0.25695
0.09770	1.01843
0.09770	0.25320
0.07220	-0.30797
-0.08081	0.22769
0.14870	0.22769
0.22521	0.25320
0.27621	0.04914
0.25071	0.25320
0.12320	0.07465
0.09770	-0.25695
0.09770	0.45726
0.17421	0.30422
0.12320	0.50828
0.02119	-0.07840
0.09770	0.15117
0.19971	-0.10391
0.19971	0.12566
0.22521	0.30422
0.22521	0.20219
0.19971	-0.15492
-0.08081	0.02363
-0.00431	0.02363
0.12320	0.30422
0.17421	0.40625
0.07220	0.22769
0.32721	0.15117
0.32721	0.15117
0.19971	0.12566
0.12320	-0.07840
0.14870	-0.18043
0.22521	0.12566
0.12320	0.73785
0.12320	0.22769
0.07220	-0.02739
-0.00431	-0.05289
0.07220	0.15117
0.19971	0.04914
0.27621	0.15117
0.25071	0.32972
0.25071	0.40625
0.09770	0.07465
0.07220	0.04914
0.12320	-0.46102
0.19971	-0.15492
0.07220	-0.02739
0.09770	0.50828
0.22521	0.81437
0.22521	0.22769
0.17421	0.15117
0.14870	0.17668
-0.43783	0.22769
0.70974	0.15117
0.32721	0.15117
-0.08081	0.17668
0.35272	0.10015
0.02119	-0.00188
-0.02981	-0.02739
-0.18282	-0.02739
0.40372	0.15117
1.01576	0.22769
0.17421	-0.02739
-1.91693	-0.10391
0.42922	-0.15492
0.70974	0.32972
0.86275	0.43176
0.22521	0.27871
0.19971	0.32972
0.22521	0.32972
0.19971	0.35523
0.12320	0.15117
0.12320	0.38074
0.09770	-0.12942
0.02119	-0.07840
0.07220	-0.38449
-0.05531	0.12566
-0.02981	0.22769
0.19971	0.10015
0.30171	-0.18043
0.27621	0.22769
0.09770	0.96742
0.25071	1.09496
0.25071	0.25320
0.22521	-0.02739
0.07220	-0.25695
0.09770	-0.33348
0.17421	0.20219
0.17421	0.04914
0.07220	-0.20594
0.12320	-0.05289
0.19971	0.22769
0.07220	0.27871
0.12320	0.30422
0.25071	0.53379
0.17421	0.10015
0.12320	0.10015
0.14870	-0.41000
0.19971	-0.15492
0.19971	0.25320
0.19971	0.50828
0.09770	0.68683
-0.00431	0.63582
-0.00431	0.30422
0.07220	0.04914
0.22521	-0.18043
0.14870	-0.07840
0.22521	0.15117
0.25071	-0.00188
0.12320	-0.02739
0.02119	-0.05289
0.12320	-0.20594
0.37822	0.15117
0.27621	0.61031
0.04670	0.32972
-0.02981	-0.25695
-0.10631	0.66132
0.22521	0.53379
0.17421	-0.07840
0.27621	-0.00188
0.42922	0.22769
0.32721	0.43176
0.19971	0.27871
0.09770	0.27871
-0.00431	-0.41000
-0.15732	-0.28246
0.12320	-0.12942
0.22521	-0.05289
0.35272	0.40625
0.17421	0.78886
0.07220	0.66132
0.12320	0.25320
0.12320	-0.00188
0.37822	-0.07840
0.04670	-0.02739
0.19971	0.15117
0.22521	0.20219
0.14870	0.20219
0.17421	0.15117
0.12320	0.12566
0.07220	0.15117
0.12320	-0.05289
0.07220	-0.18043
0.09770	0.15117
0.12320	0.63582
0.30171	0.30422
0.07220	0.10015
