0.14870	0.20219
0.22521	0.22769
0.22521	0.15117
0.14870	0.15117
0.12320	0.04914
0.07220	0.04914
0.14870	0.15117
0.07220	0.20219
0.12320	0.25320
0.22521	0.15117
0.14870	0.17668
0.09770	0.10015
0.07220	0.15117
0.17421	0.20219
0.22521	0.22769
0.14870	0.15117
0.14870	0.15117
0.12320	0.10015
0.09770	0.07465
0.17421	0.15117
0.12320	0.20219
0.22521	0.15117
0.12320	0.10015
0.04670	0.15117
0.14870	0.20219
0.22521	0.15117
0.19971	0.12566
0.14870	0.15117
0.14870	0.17668
0.19971	0.22769
0.17421	0.15117
0.14870	0.04914
0.09770	0.15117
0.09770	0.20219
0.22521	0.15117
0.22521	0.10015
0.12320	0.07465
0.12320	0.17668
0.12320	0.22769
0.14870	0.22769
0.19971	0.15117
0.19971	0.07465
0.14870	0.07465
0.09770	0.12566
0.12320	0.22769
0.12320	0.15117
0.22521	0.07465
0.12320	0.15117
0.09770	0.15117
0.14870	0.20219
0.19971	0.15117
0.12320	0.15117
0.14870	0.15117
0.07220	0.15117
0.14870	0.20219
0.22521	0.12566
0.14870	0.07465
0.07220	0.25320
0.12320	0.15117
0.22521	0.10015
0.17421	0.07465
0.07220	0.15117
0.19971	0.20219
0.19971	0.12566
0.09770	0.04914
0.14870	0.25320
0.19971	0.15117
0.22521	0.07465
0.12320	0.15117
0.09770	0.17668
0.14870	0.20219
0.19971	0.15117
0.04670	0.04914
0.04670	0.15117
0.30171	0.17668
0.22521	0.15117
0.14870	0.07465
0.09770	0.10015
0.14870	0.17668
0.12320	0.12566
0.19971	0.22769
0.22521	0.17668
0.22521	0.20219
0.17421	0.10015
0.12320	0.07465
0.09770	0.12566
0.09770	0.15117
0.14870	0.12566
0.14870	0.22769
0.22521	0.17668
0.22521	0.15117
0.17421	0.10015
0.17421	0.15117
0.09770	0.15117
0.07220	0.20219
-0.05531	0.15117
0.27621	0.12566
0.19971	0.04914
0.09770	0.12566
0.12320	0.12566
0.14870	0.15117
0.12320	0.12566
0.22521	0.22769
0.22521	0.15117
0.22521	0.15117
0.19971	0.15117
0.02119	0.04914
0.09770	0.17668
0.17421	0.15117
0.19971	0.15117
0.19971	0.12566
0.14870	0.15117
0.14870	0.15117
0.09770	0.20219
0.09770	0.15117
0.19971	0.15117
0.17421	0.10015
0.22521	0.15117
0.09770	0.17668
0.14870	0.20219
0.12320	0.15117
0.17421	0.12566
0.14870	0.12566
0.17421	0.15117
0.12320	0.10015
0.14870	0.10015
0.07220	0.17668
0.09770	0.15117
0.09770	0.20219
0.14870	0.17668
0.19971	0.20219
0.22521	0.12566
0.17421	0.07465
0.09770	0.17668
0.12320	0.25320
0.19971	0.12566
0.14870	0.10015
0.17421	0.15117
0.14870	0.20219
0.12320	0.22769
0.19971	0.10015
0.14870	0.04914
0.12320	0.15117
0.07220	0.22769
0.14870	0.20219
0.14870	0.15117
0.22521	0.10015
0.14870	0.07465
0.09770	0.20219
0.12320	0.17668
0.12320	0.20219
0.22521	0.12566
0.14870	0.07465
0.12320	0.12566
0.14870	0.20219
0.14870	0.17668
0.09770	0.04914
-0.08081	0.17668
0.17421	0.25320
0.27621	0.12566
0.35272	0.10015
0.09770	0.15117
0.14870	0.17668
0.22521	0.02363
0.09770	0.15117
0.12320	0.25320
0.19971	0.22769
0.19971	0.07465
0.12320	0.12566
0.07220	0.17668
0.14870	0.12566
0.22521	0.07465
0.14870	0.12566
0.14870	0.15117
0.09770	0.20219
0.22521	0.15117
0.19971	0.04914
0.17421	0.15117
0.07220	0.22769
0.12320	0.22769
0.19971	0.12566
0.25071	0.04914
0.14870	0.07465
-0.00431	0.12566
0.04670	0.20219
0.27621	0.15117
0.27621	0.22769
0.14870	0.12566
0.12320	0.15117
0.12320	0.07465
0.09770	0.10015
0.14870	0.15117
0.07220	0.12566
0.14870	0.22769
0.19971	0.15117
0.19971	0.10015
0.12320	0.15117
0.09770	0.22769
0.17421	0.22769
0.17421	0.15117
0.14870	0.10015
0.12320	0.07465
0.07220	0.10015
0.09770	0.15117
0.14870	0.12566
0.22521	0.15117
0.12320	0.10015
0.07220	0.15117
0.19971	0.22769
0.25071	0.17668
0.17421	0.04914
0.09770	0.17668
0.14870	0.22769
0.22521	0.17668
0.14870	0.15117
0.07220	0.10015
0.09770	0.12566
0.17421	0.22769
0.12320	0.10015
0.12320	0.15117
0.12320	0.15117
0.14870	0.20219
0.14870	0.17668
0.09770	0.15117
0.12320	0.20219
0.35272	0.15117
0.12320	0.15117
0.14870	0.25320
0.19971	0.15117
0.07220	0.17668
0.12320	0.15117
0.19971	0.15117
0.07220	0.07465
0.04670	0.15117
0.14870	0.15117
0.19971	0.10015
0.17421	0.15117
0.09770	0.20219
0.19971	0.15117
0.19971	0.07465
0.14870	0.15117
0.12320	0.22769
0.17421	0.04914
0.12320	0.20219
0.09770	0.22769
0.12320	0.15117
0.14870	0.15117
0.09770	0.15117
0.14870	0.15117
0.12320	0.04914
0.07220	0.22769
0.17421	0.15117
0.17421	0.17668
0.09770	0.07465
0.12320	0.22769
0.22521	0.15117
0.12320	0.07465
0.07220	0.17668
0.14870	0.22769
0.12320	0.17668
0.22521	0.07465
0.22521	0.12566
0.04670	0.22769
0.09770	0.20219
0.25071	0.17668
0.14870	0.07465
0.07220	0.15117
0.19971	0.15117
0.22521	0.15117
0.14870	0.15117
0.09770	0.10015
0.02119	0.10015
0.04670	0.22769
0.22521	0.15117
0.07220	0.10015
0.14870	0.07465
0.17421	0.04914
0.12320	0.15117
0.14870	0.20219
0.19971	0.15117
0.12320	0.15117
0.14870	0.07465
0.14870	0.15117
0.14870	0.17668
0.12320	0.07465
0.07220	0.15117
0.09770	0.20219
0.19971	0.15117
0.14870	0.10015
0.07220	0.15117
0.19971	0.15117
0.14870	0.07465
0.09770	0.12566
0.14870	0.20219
0.22521	0.15117
0.17421	0.10015
0.14870	0.15117
0.14870	0.15117
0.19971	0.20219
0.22521	0.04914
0.17421	0.15117
0.09770	0.22769
0.14870	0.17668
0.19971	0.12566
0.14870	0.10015
0.12320	0.07465
0.14870	0.20219
0.25071	0.15117
0.19971	0.07465
0.07220	0.12566
0.14870	0.15117
0.12320	0.25320
0.17421	0.15117
0.22521	0.12566
0.12320	0.07465
0.07220	0.10015
0.12320	0.22769
0.12320	0.20219
0.14870	0.22769
0.22521	0.15117
0.19971	0.02363
0.14870	0.10015
0.17421	0.10015
0.17421	0.10015
0.09770	0.15117
-0.05531	0.17668
0.19971	0.22769
0.19971	0.22769
0.22521	0.12566
0.22521	0.17668
0.19971	0.12566
0.14870	0.07465
0.04670	0.10015
0.07220	0.07465
0.07220	0.15117
0.12320	0.15117
0.14870	0.12566
0.17421	0.17668
0.19971	0.22769
0.22521	0.17668
0.22521	0.12566
0.22521	0.10015
0.09770	0.07465
0.17421	0.15117
0.14870	0.20219
0.22521	0.20219
0.12320	0.12566
0.17421	0.10015
0.04670	0.17668
0.22521	0.20219
-0.10631	0.15117
0.14870	0.10015
0.22521	0.15117
0.14870	0.25320
0.19971	0.15117
0.25071	0.12566
0.12320	0.10015
0.09770	0.12566
0.12320	0.25320
0.12320	0.12566
0.22521	0.07465
0.12320	0.04914
0.07220	0.15117
0.14870	0.20219
0.12320	0.12566
0.19971	0.10015
0.17421	0.15117
0.09770	0.12566
0.12320	0.22769
0.19971	0.22769
0.22521	0.15117
0.14870	0.04914
0.12320	0.04914
0.17421	0.22769
0.25071	0.25320
0.19971	0.10015
0.14870	0.04914
0.07220	0.15117
0.12320	0.17668
0.19971	0.12566
0.14870	0.10015
0.12320	0.20219
0.19971	0.15117
0.19971	0.04914
0.07220	0.22769
0.12320	0.12566
0.19971	0.04914
0.12320	0.12566
0.07220	0.12566
0.14870	0.25320
0.19971	0.20219
0.22521	0.15117
0.14870	0.10015
0.09770	0.10015
-0.08081	0.15117
0.30171	0.17668
0.25071	0.15117
0.17421	0.07465
0.09770	0.12566
0.12320	0.12566
0.27621	0.12566
0.12320	0.04914
-0.00431	0.15117
0.12320	0.25320
0.22521	0.17668
0.17421	0.10015
0.07220	0.15117
0.12320	0.22769
0.14870	0.17668
0.07220	0.15117
0.17421	0.15117
0.19971	0.17668
0.22521	0.15117
0.12320	0.07465
0.09770	0.15117
0.12320	0.25320
0.12320	0.15117
0.19971	0.15117
0.14870	0.10015
0.19971	0.25320
0.09770	0.20219
0.14870	0.12566
0.09770	0.07465
0.09770	0.10015
0.14870	0.17668
0.14870	0.20219
0.22521	0.10015
0.07220	0.07465
0.07220	0.15117
0.12320	0.22769
0.22521	0.12566
0.17421	0.07465
0.14870	0.15117
0.09770	0.20219
0.12320	0.15117
0.19971	0.10015
0.17421	0.04914
0.09770	0.17668
0.12320	0.20219
0.12320	0.15117
0.19971	0.10015
0.14870	0.10015
0.09770	0.17668
0.09770	0.15117
0.14870	0.22769
0.22521	0.15117
0.22521	0.10015
0.14870	0.15117
0.07220	0.22769
0.12320	0.22769
0.25071	0.22769
0.17421	0.15117
0.07220	0.12566
0.07220	0.07465
0.14870	0.15117
0.22521	0.12566
0.22521	0.12566
0.12320	0.15117
0.07220	0.12566
0.14870	0.15117
0.17421	0.22769
0.22521	0.15117
0.19971	0.17668
0.22521	0.07465
0.14870	0.04914
0.12320	0.15117
0.07220	0.20219
0.12320	0.15117
0.19971	0.10015
0.07220	0.04914
0.07220	0.15117
0.14870	0.20219
0.22521	0.15117
0.22521	0.12566
0.14870	0.10015
0.14870	0.15117
0.07220	0.04914
0.12320	0.12566
0.12320	0.15117
0.17421	0.25320
0.14870	0.15117
0.27621	0.12566
0.14870	0.15117
0.12320	0.17668
0.17421	0.15117
0.09770	0.12566
0.14870	0.07465
0.07220	0.15117
0.19971	0.17668
0.14870	0.20219
0.22521	0.12566
0.14870	0.04914
0.14870	0.07465
0.12320	0.15117
0.09770	0.25320
0.14870	0.22769
0.14870	0.12566
0.22521	0.17668
0.17421	0.12566
0.12320	0.00000
-0.02981	0.17668
0.12320	0.20219
0.32721	0.15117
0.17421	0.10015
0.12320	0.07465
0.09770	0.15117
0.14870	0.22769
0.12320	0.17668
0.19971	0.17668
0.14870	0.17668
0.25071	0.15117
0.17421	0.15117
0.12320	0.15117
0.22521	0.15117
0.14870	0.12566
0.19971	0.15117
0.02119	0.20219
0.19971	0.15117
0.09770	0.07465
0.14870	0.10015
0.14870	0.15117
0.22521	0.22769
0.12320	0.17668
0.12320	0.07465
0.07220	0.12566
0.09770	0.17668
0.22521	0.15117
0.17421	0.15117
0.14870	0.12566
0.07220	0.15117
0.17421	0.22769
0.12320	0.17668
0.22521	0.12566
0.17421	0.15117
0.12320	0.10015
0.27621	0.04914
0.07220	0.12566
0.04670	0.12566
0.04670	0.25320
0.30171	0.15117
0.17421	0.12566
0.07220	0.10015
0.07220	0.12566
0.19971	0.22769
0.22521	0.12566
0.12320	0.10015
0.12320	0.12566
0.09770	0.17668
0.12320	0.22769
0.22521	0.17668
0.09770	0.10015
0.12320	0.10015
0.19971	0.20219
0.09770	0.12566
0.19971	0.15117
0.09770	0.10015
0.14870	0.17668
0.14870	0.20219
0.22521	0.17668
0.14870	0.17668
0.12320	0.10015
0.09770	0.07465
0.17421	0.12566
0.17421	0.17668
0.14870	0.15117
0.14870	0.07465
0.14870	0.15117
0.19971	0.15117
0.22521	0.15117
0.14870	0.12566
0.07220	0.15117
0.17421	0.22769
0.17421	0.15117
0.12320	0.04914
0.07220	0.15117
0.19971	0.22769
0.22521	0.15117
0.14870	0.04914
0.12320	0.17668
-0.02981	0.15117
0.25071	0.25320
0.19971	0.15117
0.12320	0.07465
0.09770	0.15117
0.09770	0.22769
0.25071	0.17668
0.19971	0.12566
0.09770	0.12566
0.14870	0.12566
0.22521	0.15117
0.22521	0.25320
0.14870	0.17668
0.09770	0.10015
-0.05531	0.15117
0.14870	0.17668
0.14870	0.04914
0.12320	0.10015
0.12320	0.12566
0.09770	0.17668
0.32721	0.22769
0.19971	0.15117
0.07220	0.17668
0.02119	0.15117
0.12320	0.10015
0.19971	0.07465
0.25071	0.20219
0.14870	0.15117
0.09770	0.15117
0.09770	0.15117
0.09770	0.04914
0.19971	0.12566
0.14870	0.12566
0.14870	0.17668
0.22521	0.12566
0.19971	0.20219
0.14870	0.15117
0.07220	0.17668
0.09770	0.07465
0.14870	0.20219
0.14870	0.15117
0.25071	0.25320
0.12320	0.22769
0.09770	0.17668
0.19971	0.04914
0.17421	0.12566
0.04670	0.20219
0.30171	0.22769
0.17421	0.15117
0.12320	0.15117
0.12320	0.07465
0.25071	0.17668
0.19971	0.15117
0.04670	0.07465
0.17421	0.12566
0.04670	0.17668
0.32721	0.15117
-0.00431	0.15117
0.12320	0.10015
0.58223	0.17668
0.32721	0.22769
0.12320	0.15117
-0.13181	0.15117
-0.00431	0.10015
0.04670	0.17668
0.12320	0.12566
0.32721	0.17668
0.17421	0.15117
0.07220	0.04914
-0.31033	0.17668
-0.38683	0.27871
0.22521	0.15117
0.48022	0.10015
0.68424	0.20219
0.55673	0.25320
0.42922	0.02363
0.30171	0.07465
0.07220	-0.02739
0.35272	0.15117
0.02119	0.30422
-0.33583	0.71234
-0.38683	0.17668
-0.23382	-0.07840
-0.74385	-0.12942
0.60773	-0.35899
-0.20832	0.20219
0.42922	0.25320
0.99026	0.48277
0.99026	0.25320
1.27078	0.15117
0.37822	0.27871
-0.53984	0.15117
-1.84042	-0.05289
-1.22839	-0.12942
0.81175	0.22769
1.32178	0.91640
1.44929	-0.00188
0.91375	-0.63957
0.42922	-0.51203
-1.27939	0.91640
-0.99887	0.55929
0.12320	0.04914
0.88825	0.78886
0.78624	-0.69059
-0.20832	-1.73640
1.04126	0.81437
-0.25932	1.91120
-1.04987	1.78367
0.07220	1.04394
-0.82036	-2.01699
-0.28482	-1.68539
0.58223	-3.57296
0.32721	0.76336
0.53123	2.16628
-0.02981	0.04914
0.65874	-2.78222
0.81175	1.98773
0.73524	6.14549
0.78624	2.29382
0.53123	-1.02219
-0.46334	5.25272
-2.17195	-1.45582
-2.45246	-6.78694
0.14870	-8.59799
0.93925	-2.55265
1.39828	8.69627
0.37822	3.33964
2.77537	0.68683
2.85188	-0.84363
-1.35589	-0.25695
-0.33583	1.52859
-0.20832	1.17148
-0.25932	-2.70570
0.02119	0.25320
0.19971	1.55410
-0.28482	0.63582
-0.59084	-0.25695
-0.94787	-1.78742
0.32721	-1.58336
1.21977	-0.84363
0.48022	-0.00188
-0.56534	0.68683
-1.20288	0.66132
-0.89686	1.32453
0.93925	1.29902
0.96476	0.89089
1.04126	0.78886
0.60773	0.48277
-0.51434	0.10015
0.32721	-0.02739
0.65874	0.04914
1.62780	-0.20594
1.37278	-0.28246
0.53123	-0.53754
-1.10088	-0.33348
-2.75848	-0.76711
-0.18282	-0.25695
-0.99887	0.25320
0.30171	0.40625
-0.02981	0.43176
0.37822	0.22769
0.02119	0.45726
0.42922	0.35523
1.42379	0.58480
1.37278	0.48277
1.04126	0.35523
0.22521	0.04914
-0.05531	0.07465
-0.31033	0.04914
-0.36133	0.55929
-0.20832	0.10015
-0.10631	-0.25695
0.12320	-1.12422
0.07220	0.45726
0.19971	0.15117
0.40372	-0.02739
0.09770	0.04914
0.22521	0.76336
0.09770	0.48277
-0.05531	-0.10391
0.50573	1.09496
0.91375	1.73265
0.25071	1.78367
-0.33583	0.55929
-1.89143	-1.48133
0.96476	-1.88945
1.29628	-1.43031
0.09770	-0.81812
0.02119	-0.20594
-1.07538	0.15117
0.45472	0.32972
0.96476	0.63582
-0.61635	1.17148
0.48022	0.12566
0.73524	-0.18043
0.14870	1.35003
-0.15732	1.75816
-0.28482	0.68683
0.60773	-1.20074
1.29628	-2.34859
-1.38139	1.09496
-0.79486	1.37554
0.68424	2.19179
0.53123	1.47757
0.50573	0.55929
0.45472	-1.12422
1.01576	-1.45582
0.50573	-1.96597
-0.25932	-1.04770
-0.46334	0.55929
-0.31033	0.04914
0.35272	0.10015
0.07220	0.78886
-0.18282	-0.07840
0.22521	1.63062
-0.00431	0.55929
0.04670	-1.43031
0.50573	-0.99668
0.22521	0.66132
0.02119	1.42656
-0.02981	0.81437
-0.13181	0.53379
0.58223	0.73785
0.60773	1.65613
0.17421	0.50828
-0.00431	0.10015
-0.31033	0.20219
1.52579	-0.99668
-0.46334	-2.60367
0.50573	-1.96597
1.52579	0.40625
0.37822	0.61031
-1.53441	3.87530
-0.69285	1.06945
-0.10631	-0.81812
-0.00431	-1.40480
0.86275	-1.17523
0.93925	1.75816
0.12320	0.99292
-0.71835	-0.89465
0.09770	0.20219
0.73524	0.25320
0.53123	-1.12422
0.02119	-0.25695
-0.08081	-0.25695
-0.61635	-0.15492
0.04670	2.77847
0.63323	1.75816
0.63323	3.72225
0.60773	0.50828
0.25071	-1.53234
0.12320	-2.55265
0.09770	-2.01699
-0.08081	-0.74160
0.07220	-0.00188
0.12320	1.50308
-0.00431	1.75816
-0.20832	0.22769
-0.20832	-0.38449
0.14870	-0.56305
0.78624	-0.53754
0.14870	0.58480
-0.08081	1.19699
-0.08081	0.27871
0.02119	-0.18043
0.09770	0.25320
0.19971	0.43176
-0.61635	-0.00188
0.78624	0.02363
1.14327	-0.28246
1.16877	-0.18043
-0.76936	-0.86914
-0.48884	-0.41000
0.14870	1.27351
-0.97337	1.01843
0.55673	0.10015
0.91375	-0.10391
-0.00431	0.32972
-0.08081	0.91640
0.45472	1.75816
0.53123	1.78367
-0.13181	0.83988
-0.28482	-0.92016
0.12320	-1.78742
0.53123	-1.53234
0.50573	-1.71090
-0.05531	-0.05289
0.09770	0.86539
0.09770	-0.18043
0.14870	0.81437
0.04670	0.91640
0.09770	0.66132
-0.08081	0.73785
-0.18282	0.35523
0.22521	-0.23145
0.07220	0.38074
0.25071	0.53379
0.53123	0.55929
0.50573	-0.20594
0.50573	0.02363
0.32721	-0.05289
0.53123	-0.51203
-0.53984	0.04914
-0.10631	0.30422
0.63323	-0.07840
0.09770	0.86539
-0.08081	0.07465
0.19971	-0.43551
0.14870	-0.46102
0.02119	-0.15492
0.09770	0.61031
0.12320	0.04914
0.07220	0.38074
0.60773	0.76336
0.07220	0.02363
0.12320	-0.02739
0.07220	0.66132
0.22521	0.27871
-0.18282	-0.10391
-0.31033	0.04914
1.01576	0.17668
0.48022	0.12566
-0.13181	-0.12942
0.25071	0.10015
0.42922	0.55929
-0.10631	0.45726
-0.56534	-0.15492
0.91375	-0.23145
-0.48884	-0.46102
0.88825	-0.23145
0.73524	1.47757
-0.15732	0.48277
0.04670	0.43176
-0.00431	0.15117
-0.08081	-0.05289
0.22521	-0.30797
-0.13181	-0.05289
0.04670	-0.35899
0.42922	-0.25695
0.32721	0.76336
-0.25932	0.78886
0.19971	0.12566
1.01576	-0.12942
0.27621	-0.28246
-0.36133	0.96742
-0.38683	0.04914
0.17421	-0.15492
0.42922	0.07465
0.14870	0.35523
0.14870	0.45726
0.09770	-0.46102
0.02119	-0.74160
-0.08081	0.61031
0.19971	0.58480
0.35272	0.38074
0.37822	0.12566
0.19971	0.10015
0.30171	0.55929
0.09770	0.15117
0.04670	-0.20594
0.35272	-0.10391
-0.28482	0.58480
-0.48884	0.25320
0.17421	0.20219
0.32721	0.15117
0.14870	-0.56305
0.37822	-0.33348
0.19971	-0.12942
0.12320	0.32972
0.37822	0.50828
-0.05531	0.66132
0.40372	0.50828
0.12320	-0.76711
0.07220	0.27871
-0.08081	0.94191
-0.05531	-0.33348
0.04670	1.50308
0.12320	0.91640
0.22521	0.07465
0.22521	-0.71609
0.32721	-1.35379
0.25071	-0.63957
0.17421	0.25320
-0.02981	0.45726
0.32721	1.17148
0.37822	0.55929
0.12320	1.19699
0.07220	-0.20594
0.04670	-0.15492
0.12320	-0.05289
0.09770	-0.10391
-0.00431	0.02363
0.22521	-0.41000
0.25071	0.12566
0.22521	0.89089
0.07220	0.63582
0.12320	0.25320
0.27621	0.12566
0.32721	-0.10391
0.04670	-0.30797
-0.05531	-0.00188
-0.08081	0.58480
0.17421	0.32972
0.25071	0.10015
0.25071	0.02363
0.27621	-0.00188
0.02119	-0.02739
0.22521	0.32972
0.19971	0.53379
-0.02981	-0.02739
-0.15732	-0.38449
0.27621	-0.94566
0.37822	0.53379
0.40372	0.71234
0.09770	0.25320
0.27621	1.42656
0.02119	1.06945
-0.08081	-0.41000
0.55673	-0.02739
-0.41233	0.48277
-0.08081	0.02363
0.53123	-0.28246
0.27621	-0.46102
-0.18282	-0.35899
0.19971	-0.12942
0.32721	-0.05289
0.19971	0.22769
0.14870	0.50828
0.12320	0.45726
0.22521	0.55929
0.22521	0.35523
0.14870	0.15117
0.19971	0.04914
0.09770	-0.10391
0.04670	0.15117
-0.05531	-0.23145
0.40372	-0.18043
0.22521	0.66132
0.02119	-0.23145
0.02119	0.71234
0.32721	0.81437
0.17421	0.15117
0.02119	-0.15492
-0.05531	-0.23145
0.40372	0.30422
0.37822	-0.00188
0.14870	-0.00188
0.25071	0.40625
0.22521	0.12566
-0.18282	0.25320
0.14870	0.02363
0.22521	-0.20594
0.19971	-0.28246
0.12320	-0.46102
0.02119	0.15117
0.02119	0.55929
0.04670	0.73785
0.30171	1.35003
0.22521	0.48277
0.22521	0.73785
0.22521	0.15117
0.12320	-0.43551
0.19971	-0.41000
0.09770	-0.12942
0.12320	-0.51203
0.14870	-0.25695
0.22521	-0.07840
0.12320	-0.02739
0.07220	0.02363
0.02119	-0.07840
0.07220	1.09496
0.22521	1.65613
0.25071	0.15117
0.37822	-0.18043
0.25071	-0.38449
0.17421	-0.23145
0.17421	0.17668
0.09770	0.30422
0.07220	0.40625
0.02119	-0.00188
0.04670	-0.30797
0.07220	0.45726
0.22521	0.83988
0.12320	-0.20594
0.14870	0.61031
0.19971	0.22769
-0.23382	-0.15492
0.25071	-0.20594
0.55673	-0.25695
0.25071	-0.18043
0.07220	0.35523
0.04670	0.25320
-0.05531	-0.07840
-0.20832	-0.46102
0.04670	-0.20594
0.30171	0.45726
0.22521	0.55929
0.19971	0.61031
0.04670	0.68683
0.45472	0.32972
0.42922	0.32972
-0.10631	0.10015
0.14870	-0.00188
0.12320	0.38074
0.09770	0.04914
0.14870	-0.33348
0.09770	-0.38449
0.19971	0.20219
0.25071	-0.05289
0.14870	-0.41000
0.02119	0.02363
0.09770	1.01843
0.17421	0.45726
0.09770	0.40625
0.14870	0.27871
0.32721	-0.28246
0.17421	-0.05289
0.07220	-0.15492
0.02119	0.15117
-0.15732	0.22769
-0.20832	0.15117
0.04670	-0.00188
0.42922	0.45726
0.58223	1.37554
0.30171	0.40625
0.22521	0.02363
0.19971	-0.15492
0.09770	-0.41000
0.19971	-0.33348
0.19971	0.10015
0.12320	0.38074
-0.28482	0.20219
-0.31033	0.35523
0.22521	0.10015
0.32721	-0.15492
0.30171	0.25320
0.27621	-0.05289
0.19971	0.25320
0.19971	0.15117
0.19971	-0.10391
0.02119	0.63582
0.12320	1.32453
0.14870	0.02363
0.19971	-0.10391
0.12320	-0.69059
0.12320	-0.25695
0.17421	0.32972
0.22521	0.27871
0.07220	0.81437
-0.05531	0.86539
0.22521	-0.71609
0.04670	-0.28246
0.25071	0.04914
0.02119	-0.00188
0.50573	-0.05289
0.27621	0.04914
0.27621	0.35523
0.09770	0.48277
-0.08081	0.53379
0.04670	0.38074
0.02119	-0.07840
0.12320	-0.18043
0.19971	-0.10391
-0.00431	-0.07840
0.37822	0.30422
0.55673	0.27871
0.22521	0.20219
-0.15732	-0.07840
-0.10631	0.04914
0.12320	1.29902
0.09770	0.94191
0.12320	-0.63957
0.12320	0.02363
0.14870	0.17668
0.32721	0.25320
0.30171	-0.23145
0.14870	-0.41000
0.02119	-0.25695
0.02119	-0.02739
0.12320	-0.07840
-0.10631	-0.00188
0.02119	0.27871
0.42922	0.68683
0.35272	0.61031
0.27621	0.38074
0.17421	0.43176
0.04670	0.25320
0.19971	0.53379
0.12320	-0.02739
0.07220	-0.12942
-0.10631	-0.20594
-0.02981	-0.30797
0.14870	-0.10391
0.27621	0.27871
0.32721	0.32972
0.12320	0.40625
0.02119	0.32972
0.12320	0.10015
0.12320	-0.00188
0.02119	-0.35899
0.14870	0.53379
0.32721	0.22769
0.32721	0.81437
0.35272	0.48277
0.12320	-0.28246
-0.08081	-0.23145
-0.02981	-0.12942
0.07220	0.38074
0.12320	0.07465
0.22521	0.02363
0.12320	-0.07840
0.22521	-0.05289
0.30171	-0.23145
0.12320	1.45206
0.14870	1.78367
0.12320	-0.33348
0.12320	-0.79262
0.19971	-0.41000
0.04670	0.25320
-0.28482	0.32972
-0.05531	0.38074
0.32721	-0.00188
0.37822	-0.02739
0.40372	0.20219
0.17421	0.10015
0.14870	0.07465
0.12320	0.35523
0.32721	0.38074
0.12320	0.12566
0.12320	-0.28246
-0.00431	0.12566
0.04670	1.09496
0.07220	0.30422
0.22521	-0.02739
0.35272	-0.25695
0.30171	-0.18043
0.17421	-0.20594
0.12320	-0.18043
0.09770	0.02363
0.17421	0.40625
0.07220	0.76336
0.02119	0.20219
0.09770	0.30422
0.35272	0.45726
0.25071	-0.20594
0.02119	-0.18043
-0.00431	0.02363
-0.05531	0.25320
0.25071	0.20219
0.30171	0.15117
0.17421	-0.15492
0.17421	0.20219
0.14870	0.35523
0.25071	0.27871
0.14870	-0.00188
0.12320	-0.15492
0.19971	0.12566
0.22521	0.63582
0.07220	0.30422
0.12320	0.58480
0.14870	0.17668
-0.33583	-0.07840
-0.10631	-0.15492
0.48022	-0.20594
0.40372	-0.46102
0.27621	0.38074
0.17421	0.50828
0.19971	0.15117
0.27621	0.22769
0.02119	-0.12942
-0.00431	0.20219
0.19971	0.25320
0.14870	0.04914
0.07220	0.86539
0.07220	0.12566
0.17421	-0.30797
0.22521	0.25320
0.25071	0.53379
0.17421	0.04914
0.09770	-0.25695
0.14870	-0.00188
0.12320	0.48277
0.14870	0.07465
0.17421	-0.05289
0.25071	0.20219
0.17421	0.40625
0.12320	0.30422
-0.00431	-0.07840
0.17421	-0.12942
0.12320	0.07465
0.22521	0.02363
0.17421	0.35523
0.22521	0.30422
0.02119	0.10015
-0.00431	-0.56305
0.12320	-0.10391
0.22521	0.30422
0.22521	0.66132
0.27621	0.86539
0.19971	-0.18043
0.19971	0.15117
0.30171	0.66132
0.22521	0.55929
-0.02981	0.38074
-0.05531	-0.53754
0.02119	-0.79262
0.14870	-0.20594
0.14870	0.12566
0.17421	0.02363
0.19971	0.30422
0.22521	0.32972
0.14870	0.32972
0.14870	0.63582
0.22521	0.07465
0.14870	0.10015
0.09770	0.55929
0.14870	0.04914
0.14870	-0.30797
0.22521	-0.07840
0.17421	0.17668
0.12320	-0.02739
0.27621	0.40625
0.17421	0.50828
0.30171	-0.07840
0.12320	0.02363
0.09770	-0.12942
0.07220	0.30422
0.09770	0.17668
-0.02981	0.27871
0.12320	0.32972
0.22521	0.15117
0.30171	0.17668
0.12320	-0.00188
0.17421	-0.02739
0.27621	0.43176
0.27621	0.35523
0.02119	0.10015
0.25071	-0.18043
0.04670	-0.15492
-0.25932	-0.02739
-0.10631	0.99292
0.07220	0.04914
0.53123	-0.23145
0.50573	0.07465
0.25071	0.15117
0.09770	0.12566
0.07220	0.40625
0.12320	0.22769
0.19971	0.04914
0.09770	-0.25695
0.12320	-0.20594
0.07220	0.30422
0.07220	0.20219
0.19971	-0.05289
0.09770	0.35523
0.09770	0.53379
0.19971	0.48277
0.25071	0.61031
0.19971	0.02363
0.14870	-0.18043
0.27621	0.04914
0.25071	0.40625
0.25071	0.66132
0.07220	0.17668
-0.05531	-0.56305
-0.13181	-0.46102
-0.05531	-0.07840
0.30171	-0.07840
0.42922	0.04914
0.35272	0.89089
0.12320	0.81437
0.09770	-0.00188
0.07220	-0.15492
0.04670	0.30422
0.27621	0.04914
0.30171	0.02363
0.14870	0.02363
-0.02981	0.10015
0.04670	0.73785
0.22521	0.48277
0.14870	0.12566
0.17421	-0.07840
0.22521	-0.07840
0.19971	-0.02739
0.12320	0.04914
0.09770	0.04914
0.02119	0.38074
0.07220	0.30422
0.12320	0.25320
0.12320	-0.05289
0.07220	-0.02739
0.22521	-0.00188
0.25071	0.15117
0.02119	0.58480
0.17421	0.25320
0.30171	-0.12942
0.17421	-0.02739
0.19971	-0.02739
0.17421	0.15117
-0.10631	0.48277
0.04670	-0.07840
0.19971	-0.25695
0.19971	0.27871
0.19971	0.55929
0.25071	-0.05289
0.17421	0.25320
0.09770	0.81437
0.22521	0.83988
0.07220	-0.15492
-0.00431	-0.61406
0.14870	0.15117
0.25071	0.43176
0.22521	-0.07840
0.17421	0.15117
0.17421	-0.07840
0.17421	0.02363
0.22521	0.04914
0.09770	0.07465
0.22521	0.15117
0.22521	0.17668
0.25071	0.53379
0.12320	0.32972
0.12320	-0.12942
-0.33583	0.10015
0.02119	0.89089
0.58223	0.25320
0.02119	-0.23145
0.81175	-0.94566
-0.00431	-0.41000
-0.53984	0.63582
0.27621	0.83988
0.27621	0.68683
0.37822	0.53379
0.65874	0.22769
0.53123	-0.05289
0.12320	-0.07840
-0.13181	-0.07840
-0.18282	0.02363
-0.15732	0.30422
0.04670	0.20219
0.25071	-0.25695
0.30171	-0.38449
0.22521	-0.02739
0.27621	0.71234
0.14870	0.02363
0.12320	0.04914
0.14870	0.58480
0.19971	0.38074
0.14870	0.38074
0.09770	0.17668
0.09770	0.02363
0.19971	0.10015
0.22521	-0.02739
0.32721	0.35523
-0.02981	-0.05289
-0.02981	0.02363
0.02119	0.10015
0.22521	-0.20594
0.32721	0.04914
0.27621	0.22769
0.09770	-0.05289
0.22521	0.35523
0.19971	0.50828
0.19971	0.66132
0.22521	0.32972
0.17421	0.07465
0.14870	0.10015
0.07220	0.35523
0.07220	0.30422
0.02119	-0.15492
0.07220	-0.35899
0.19971	0.04914
0.12320	0.30422
-0.00431	0.30422
0.07220	-0.51203
0.32721	0.27871
0.32721	0.66132
0.19971	0.35523
0.04670	-0.02739
0.07220	0.04914
0.12320	-0.10391
0.27621	-0.05289
0.09770	0.58480
0.04670	0.22769
0.12320	0.15117
0.22521	0.20219
0.40372	0.25320
-0.08081	-0.00188
-0.00431	0.07465
0.17421	0.40625
0.17421	0.32972
0.14870	0.22769
0.14870	-0.15492
0.09770	-0.12942
0.25071	0.12566
0.22521	0.07465
0.27621	-0.02739
0.19971	0.38074
0.27621	0.78886
0.19971	0.43176
0.12320	0.30422
0.12320	0.02363
0.02119	-0.10391
0.02119	-0.12942
-0.02981	-0.07840
0.04670	0.25320
0.22521	0.15117
0.19971	0.04914
0.19971	-0.30797
0.32721	0.55929
0.40372	0.61031
0.07220	-0.05289
0.30171	0.35523
0.37822	0.15117
-0.15732	-0.05289
-0.20832	-0.07840
0.02119	-0.10391
0.14870	0.04914
0.22521	-0.10391
0.25071	0.20219
0.30171	1.14597
0.19971	0.50828
0.09770	-0.12942
0.35272	-0.25695
0.19971	-0.51203
0.07220	0.12566
0.02119	0.53379
0.02119	0.30422
0.09770	0.25320
-0.00431	0.12566
-0.05531	0.12566
0.14870	0.25320
0.35272	0.10015
0.25071	-0.07840
0.17421	-0.02739
0.32721	0.30422
0.14870	0.32972
0.02119	-0.10391
0.09770	0.12566
0.22521	0.43176
0.22521	0.50828
0.02119	-0.25695
0.17421	-0.63957
0.19971	0.02363
0.19971	0.55929
0.19971	0.66132
0.12320	0.43176
0.04670	-0.15492
0.12320	-0.07840
0.14870	0.17668
0.19971	0.15117
0.07220	0.04914
0.22521	-0.00188
0.27621	0.40625
0.22521	0.02363
0.12320	0.25320
0.19971	0.50828
0.09770	0.22769
0.12320	0.30422
-0.00431	-0.02739
0.48022	-0.28246
0.09770	-0.02739
-0.10631	-0.02739
-0.00431	0.25320
0.27621	0.17668
0.12320	0.02363
0.14870	0.22769
0.25071	0.30422
0.22521	0.40625
0.25071	0.91640
0.09770	0.35523
0.12320	-0.18043
-0.05531	-0.79262
-0.02981	-0.33348
0.17421	0.38074
0.17421	0.66132
0.14870	0.22769
0.19971	-0.02739
0.27621	0.12566
0.25071	0.15117
0.12320	0.20219
0.02119	0.25320
0.12320	0.25320
0.22521	0.27871
0.27621	0.17668
0.07220	0.07465
-0.00431	0.17668
-0.05531	0.02363
0.04670	-0.07840
0.32721	0.32972
0.37822	0.32972
0.19971	-0.20594
0.12320	-0.20594
0.30171	0.58480
0.12320	0.43176
0.02119	0.12566
0.04670	0.10015
0.14870	0.35523
0.17421	0.32972
-0.08081	0.10015
0.12320	-0.28246
0.32721	-0.38449
0.25071	0.07465
0.25071	0.40625
0.04670	0.10015
0.14870	0.45726
0.17421	0.48277
0.22521	0.27871
0.22521	-0.00188
0.12320	-0.02739
0.14870	0.17668
0.04670	0.20219
0.02119	-0.00188
0.09770	0.20219
0.40372	0.12566
0.25071	-0.23145
0.19971	-0.00188
0.02119	0.81437
0.02119	0.53379
0.09770	0.40625
0.07220	0.07465
0.45472	0.02363
0.27621	-0.28246
0.19971	-0.05289
0.09770	0.22769
-0.00431	0.15117
0.14870	-0.07840
0.19971	0.12566
0.25071	0.10015
0.14870	0.32972
0.07220	0.25320
0.07220	-0.05289
0.14870	-0.05289
0.09770	0.27871
0.22521	0.45726
0.22521	0.27871
-0.05531	0.30422
-0.05531	-0.02739
0.22521	0.04914
0.25071	0.22769
0.32721	0.15117
0.14870	0.25320
0.09770	0.22769
0.14870	0.32972
0.14870	0.43176
0.02119	-0.28246
0.42922	-0.63957
0.14870	0.45726
0.09770	0.78886
0.09770	-0.05289
0.09770	-0.33348
0.09770	0.17668
0.19971	0.22769
0.22521	0.10015
0.04670	0.02363
0.09770	0.40625
0.19971	0.50828
0.27621	0.10015
0.14870	0.15117
0.07220	0.20219
0.09770	0.02363
0.22521	0.02363
0.14870	-0.15492
0.09770	-0.05289
0.22521	0.17668
0.12320	0.17668
0.12320	0.17668
0.22521	0.27871
0.14870	0.10015
0.19971	0.10015
0.27621	0.25320
0.22521	0.35523
0.22521	0.66132
0.27621	0.48277
0.32721	0.61031
-0.00431	-0.38449
0.30171	-0.99668
-0.10631	0.20219
-0.87136	-0.86914
-0.33583	0.15117
0.07220	0.48277
0.73524	0.50828
0.63323	0.55929
0.73524	0.40625
0.50573	0.32972
0.30171	0.15117
0.17421	0.07465
-0.00431	0.10015
0.02119	0.04914
-0.08081	0.02363
-0.10631	0.07465
-0.05531	0.04914
0.07220	0.15117
0.09770	0.10015
0.04670	0.20219
0.07220	0.12566
0.14870	0.15117
0.22521	0.38074
0.32721	0.35523
0.30171	-0.10391
0.19971	-0.00188
0.14870	0.35523
0.09770	0.30422
0.17421	0.15117
0.17421	-0.10391
0.09770	-0.07840
0.12320	0.22769
0.14870	0.22769
0.17421	-0.20594
0.17421	0.58480
0.17421	-0.15492
0.04670	0.02363
0.27621	0.55929
0.14870	0.15117
-0.05531	-0.00188
0.14870	0.04914
0.07220	0.35523
0.27621	0.38074
0.25071	0.40625
-0.00431	0.43176
-0.38683	0.02363
0.19971	-0.05289
0.32721	0.07465
0.37822	-0.05289
0.42922	-0.12942
0.37822	-0.15492
0.35272	0.48277
0.12320	0.30422
0.02119	0.10015
-0.00431	-0.05289
0.12320	0.10015
-0.02981	-0.00188
-0.02981	0.12566
0.09770	0.22769
0.17421	0.22769
0.17421	-0.12942
0.04670	0.53379
0.02119	0.76336
0.12320	0.63582
0.27621	0.15117
0.22521	-0.30797
0.22521	-0.23145
0.25071	-0.35899
0.32721	0.40625
0.12320	0.15117
0.09770	-0.07840
0.12320	-0.38449
0.07220	0.04914
0.14870	0.78886
0.02119	0.86539
0.02119	0.25320
0.25071	-0.02739
0.17421	0.10015
0.22521	0.22769
0.35272	0.07465
0.30171	-0.07840
-0.00431	-0.18043
0.02119	-0.10391
0.14870	0.43176
0.14870	0.45726
0.12320	0.12566
0.14870	0.07465
0.12320	-0.05289
0.12320	-0.00188
0.09770	0.04914
0.07220	-0.23145
0.19971	0.32972
0.27621	0.43176
0.14870	0.73785
0.09770	0.71234
0.09770	0.04914
0.14870	-0.18043
0.32721	-0.12942
0.25071	-0.18043
0.12320	0.15117
0.09770	0.22769
0.04670	0.22769
0.04670	-0.38449
0.09770	-0.07840
0.17421	0.35523
0.32721	0.35523
0.12320	0.35523
0.12320	0.45726
0.07220	0.20219
0.19971	0.25320
0.12320	-0.02739
-0.15732	0.10015
-0.13181	0.25320
0.32721	0.15117
0.42922	-0.00188
0.48022	0.07465
0.25071	-0.05289
0.02119	0.63582
-0.02981	-0.05289
0.12320	0.02363
0.02119	0.04914
0.17421	-0.10391
0.30171	0.40625
0.19971	0.35523
0.25071	0.20219
0.19971	0.25320
0.09770	0.10015
0.07220	0.12566
0.07220	-0.33348
0.12320	0.68683
0.14870	0.04914
0.19971	-0.10391
0.12320	-0.10391
0.22521	0.12566
0.27621	0.25320
0.12320	0.30422
0.07220	0.32972
0.17421	0.35523
0.07220	0.35523
0.27621	0.02363
0.17421	-0.15492
0.12320	-0.10391
-0.00431	-0.15492
0.07220	0.53379
0.19971	0.48277
0.04670	0.15117
-0.02981	0.07465
0.25071	0.12566
0.25071	0.12566
0.35272	0.02363
0.32721	0.22769
0.22521	0.32972
0.04670	-0.07840
0.02119	-0.43551
0.14870	-0.53754
0.17421	-0.53754
-0.00431	0.66132
0.25071	2.26831
0.27621	1.78367
0.27621	0.45726
0.07220	-0.48652
0.09770	-0.86914
0.09770	-0.86914
0.12320	-0.63957
0.02119	-0.20594
0.02119	0.27871
0.19971	0.22769
0.12320	0.35523
0.12320	0.32972
0.19971	0.43176
0.27621	0.43176
0.30171	0.38074
0.22521	0.32972
0.17421	0.15117
0.12320	0.25320
0.12320	0.22769
0.09770	0.04914
0.27621	-0.00188
0.12320	-0.12942
0.32721	-0.02739
-0.02981	-0.00188
-0.33583	0.02363
0.22521	0.20219
0.27621	0.83988
0.07220	-0.15492
0.37822	-0.33348
0.35272	0.07465
0.25071	0.63582
0.22521	0.22769
0.37822	0.55929
0.27621	0.10015
0.12320	0.10015
-0.05531	0.04914
-0.15732	-0.10391
-0.05531	-0.20594
0.09770	0.02363
0.12320	0.43176
0.12320	0.15117
0.19971	-0.00188
0.22521	0.07465
0.14870	0.15117
0.22521	0.32972
0.22521	0.48277
0.22521	0.25320
0.27621	0.04914
0.12320	0.07465
0.19971	-0.00188
0.22521	0.15117
0.14870	0.32972
0.25071	0.17668
0.25071	-0.00188
0.04670	0.12566
-0.18282	0.04914
-0.28482	0.02363
0.07220	0.22769
0.32721	-0.00188
0.30171	0.02363
0.25071	0.35523
0.35272	0.15117
0.48022	0.66132
0.40372	-0.20594
0.12320	-0.53754
0.04670	0.25320
0.02119	0.35523
-0.10631	0.43176
-0.02981	0.45726
0.04670	0.25320
0.09770	0.17668
0.12320	0.15117
0.09770	0.10015
0.19971	-0.07840
0.22521	0.04914
0.17421	0.12566
0.12320	-0.10391
0.17421	-0.00188
0.25071	0.07465
0.17421	0.12566
0.17421	0.58480
0.17421	0.40625
0.14870	0.27871
0.25071	-0.07840
0.22521	-0.02739
0.22521	0.12566
0.27621	0.32972
-0.02981	-0.00188
0.02119	-0.25695
0.02119	-0.12942
-0.13181	0.30422
-0.10631	1.42656
0.35272	0.83988
0.45472	-0.12942
0.37822	-0.12942
0.40372	-0.51203
0.22521	-0.33348
0.27621	0.12566
0.19971	0.35523
0.12320	0.15117
0.04670	0.38074
-0.02981	0.32972
-0.02981	0.15117
-0.08081	-0.25695
0.04670	-0.07840
0.22521	0.27871
0.14870	0.25320
0.12320	0.20219
0.19971	0.12566
0.22521	0.25320
0.27621	0.43176
0.22521	0.32972
0.14870	-0.02739
0.12320	0.30422
0.17421	-0.02739
0.22521	-0.10391
0.14870	-0.10391
0.09770	-0.05289
0.12320	0.17668
0.14870	0.53379
0.25071	0.20219
0.27621	-0.41000
0.17421	0.04914
0.22521	0.55929
0.02119	0.55929
0.12320	0.17668
0.12320	-0.18043
0.17421	0.02363
-0.25932	0.76336
-0.28482	0.25320
0.17421	-0.15492
0.42922	0.02363
0.68424	0.38074
0.40372	-0.05289
0.37822	-0.12942
0.35272	0.35523
0.30171	0.32972
-0.00431	0.32972
-0.02981	0.27871
-0.00431	-0.05289
-0.05531	-0.28246
-0.02981	-0.12942
0.04670	0.20219
0.04670	0.32972
0.12320	0.17668
0.19971	0.04914
0.30171	0.04914
0.22521	0.22769
0.14870	0.35523
0.17421	0.40625
0.25071	1.06945
0.17421	0.55929
0.19971	-0.25695
0.19971	-0.28246
0.25071	-1.22625
-0.00431	-0.30797
0.22521	0.73785
0.12320	0.17668
0.12320	0.07465
0.22521	0.38074
-0.08081	0.35523
-0.46334	0.27871
0.22521	0.12566
0.42922	0.04914
0.42922	0.43176
0.37822	0.38074
0.32721	0.25320
0.19971	0.12566
0.14870	0.02363
0.17421	-0.12942
0.09770	0.15117
0.02119	0.12566
0.02119	0.20219
0.14870	0.04914
0.12320	0.30422
0.12320	0.15117
0.14870	0.20219
0.17421	0.12566
0.12320	0.15117
0.07220	0.17668
0.19971	0.12566
0.17421	0.68683
0.25071	-0.07840
0.32721	0.25320
0.22521	0.17668
0.04670	0.07465
-0.02981	-0.15492
-0.36133	0.10015
0.12320	0.40625
0.30171	0.25320
0.35272	0.07465
0.42922	0.15117
0.32721	0.32972
0.27621	0.27871
0.19971	0.15117
0.09770	0.27871
-0.00431	0.32972
0.02119	0.17668
-0.02981	0.04914
-0.00431	-0.07840
-0.00431	0.22769
0.02119	0.15117
0.12320	0.02363
0.12320	0.02363
0.14870	0.10015
0.19971	0.25320
0.32721	0.32972
0.25071	0.30422
0.25071	0.27871
0.32721	0.43176
0.25071	0.50828
0.17421	-0.00188
0.02119	-0.48652
-0.05531	-0.23145
0.12320	-0.02739
0.17421	-0.18043
-0.08081	0.12566
0.14870	0.32972
0.37822	-0.10391
0.22521	0.76336
0.17421	1.42656
0.37822	0.53379
0.35272	-0.15492
0.25071	-0.02739
0.09770	-0.66508
0.09770	0.02363
0.12320	0.32972
-0.18282	0.27871
-0.08081	0.04914
0.07220	0.02363
0.07220	0.15117
0.12320	0.30422
0.25071	0.10015
0.32721	0.22769
0.22521	0.25320
0.04670	0.04914
0.14870	0.07465
0.14870	-0.18043
0.27621	0.30422
0.22521	0.73785
0.17421	0.25320
0.14870	0.12566
0.09770	-0.02739
-0.08081	-0.10391
0.02119	-0.12942
0.19971	0.10015
0.02119	0.10015
0.32721	-0.05289
0.19971	0.38074
0.19971	0.32972
0.30171	0.12566
0.27621	0.40625
0.17421	0.20219
0.14870	0.27871
0.07220	0.10015
-0.00431	-0.33348
0.09770	-0.02739
-0.02981	0.71234
0.04670	0.53379
0.12320	0.04914
0.22521	-0.15492
0.27621	-0.30797
0.22521	0.25320
0.17421	0.40625
0.12320	0.25320
0.07220	0.04914
0.04670	-0.15492
0.17421	-0.07840
0.14870	0.15117
0.22521	0.43176
0.17421	0.20219
0.12320	0.10015
0.22521	0.07465
0.02119	0.38074
-0.23382	0.30422
-0.13181	0.38074
0.30171	0.17668
0.27621	-0.15492
0.42922	0.10015
0.32721	-0.15492
0.32721	-0.12942
0.32721	0.55929
0.40372	0.63582
0.27621	0.25320
0.04670	0.15117
-0.02981	-0.10391
-0.02981	-0.05289
-0.10631	-0.05289
-0.10631	-0.07840
-0.13181	0.12566
0.02119	0.22769
0.07220	0.07465
0.14870	-0.00188
0.14870	0.07465
0.14870	0.35523
0.19971	0.45726
0.27621	0.22769
0.17421	0.07465
0.22521	-0.00188
0.12320	-0.10391
0.14870	-0.07840
0.14870	0.45726
-0.05531	0.20219
-0.10631	-0.23145
0.32721	0.20219
0.25071	0.27871
0.30171	-0.02739
0.25071	0.10015
0.12320	-0.05289
0.09770	0.12566
0.02119	0.63582
0.09770	0.25320
0.04670	0.43176
0.04670	0.53379
-0.05531	-0.23145
0.07220	-0.63957
0.22521	-0.15492
0.22521	-0.00188
0.22521	0.10015
0.27621	0.50828
0.09770	0.30422
0.09770	0.04914
0.22521	-0.05289
0.12320	0.58480
0.09770	0.99292
0.12320	0.12566
0.09770	-0.12942
0.19971	-0.07840
0.14870	0.04914
0.12320	0.30422
0.12320	0.25320
0.07220	0.04914
0.19971	-0.07840
0.14870	0.10015
0.12320	0.25320
0.07220	0.40625
0.17421	0.12566
0.07220	-0.07840
0.02119	-0.51203
0.09770	-0.12942
0.19971	0.20219
0.27621	1.06945
0.27621	0.81437
0.32721	0.45726
0.09770	-0.05289
0.04670	0.17668
0.19971	0.04914
0.22521	-0.18043
0.02119	-0.43551
0.14870	0.22769
0.17421	0.30422
0.02119	0.30422
0.14870	0.07465
0.17421	-0.10391
0.17421	0.10015
0.19971	0.20219
0.17421	0.25320
0.12320	0.20219
0.04670	-0.12942
0.14870	0.17668
0.17421	0.68683
0.19971	0.20219
0.12320	-0.10391
0.07220	-0.10391
0.17421	0.32972
0.25071	0.40625
0.12320	0.20219
0.22521	0.38074
0.09770	0.15117
0.19971	-0.20594
0.02119	-0.28246
-0.02981	-0.43551
0.25071	0.17668
0.25071	0.04914
0.14870	0.30422
0.17421	0.35523
0.25071	0.38074
0.32721	0.22769
0.30171	0.40625
0.04670	0.10015
-0.28482	0.15117
0.09770	0.25320
0.25071	0.43176
0.22521	0.22769
0.14870	0.10015
0.14870	0.12566
0.07220	0.15117
0.04670	0.02363
0.09770	-0.07840
0.19971	0.04914
0.17421	0.17668
0.14870	-0.02739
0.09770	0.02363
0.07220	-0.15492
0.12320	0.12566
0.30171	0.04914
0.17421	0.45726
0.25071	1.04394
0.22521	1.22250
0.09770	0.68683
0.27621	-0.41000
0.32721	-0.79262
-0.13181	-0.43551
-0.51434	-0.02739
-0.05531	0.02363
0.37822	-0.15492
0.63323	0.25320
0.32721	0.15117
0.17421	0.35523
0.35272	0.40625
0.19971	0.35523
0.22521	0.45726
0.19971	0.32972
0.09770	0.25320
-0.02981	0.17668
0.04670	0.04914
0.02119	-0.48652
-0.00431	0.02363
0.12320	0.20219
0.17421	0.10015
0.27621	0.25320
0.22521	0.25320
0.19971	0.20219
0.17421	0.10015
0.17421	0.32972
0.12320	0.20219
0.17421	-0.23145
0.22521	0.32972
0.19971	0.94191
0.19971	-0.18043
0.12320	-0.10391
0.12320	0.12566
0.27621	-0.05289
0.37822	-0.74160
-0.15732	0.17668
-0.33583	0.55929
0.07220	0.17668
-0.13181	0.91640
-0.00431	0.32972
0.58223	-0.07840
0.63323	-0.00188
0.60773	0.25320
0.22521	-0.25695
0.02119	0.20219
0.12320	0.40625
0.25071	0.25320
0.19971	-0.02739
0.02119	0.15117
-0.10631	0.20219
-0.08081	0.10015
0.02119	-0.05289
0.12320	0.02363
0.14870	0.32972
0.22521	0.27871
0.17421	0.04914
0.17421	-0.02739
0.14870	-0.35899
0.12320	-0.18043
0.19971	1.24800
0.37822	0.99292
0.40372	-0.20594
0.35272	-0.25695
-0.23382	-0.25695
-0.46334	0.17668
-0.18282	0.32972
0.30171	0.07465
0.60773	0.55929
0.42922	0.10015
0.32721	0.22769
0.37822	0.12566
0.25071	0.25320
0.14870	0.15117
0.02119	-0.05289
0.04670	0.15117
-0.02981	0.22769
-0.02981	0.15117
0.04670	0.10015
0.07220	0.22769
0.09770	0.25320
0.17421	0.12566
0.19971	-0.05289
0.14870	-0.12942
0.09770	-0.02739
0.12320	0.17668
0.22521	0.58480
0.32721	0.45726
0.22521	0.17668
0.17421	-0.25695
0.07220	-0.02739
0.17421	0.32972
0.25071	0.83988
0.09770	-0.58856
0.09770	-0.25695
0.12320	0.30422
-0.00431	0.07465
0.40372	0.22769
0.04670	0.20219
-0.08081	0.02363
-0.02981	0.43176
0.12320	0.43176
0.04670	0.02363
-0.00431	0.15117
0.35272	0.02363
0.55673	0.17668
0.50573	0.02363
0.19971	0.17668
0.22521	-0.10391
0.14870	0.45726
0.09770	0.38074
-0.02981	0.07465
-0.08081	0.32972
-0.00431	0.22769
0.02119	-0.05289
0.04670	-0.12942
0.12320	-0.02739
0.12320	-0.07840
0.14870	0.12566
0.17421	0.35523
0.14870	0.27871
0.17421	0.48277
0.19971	0.10015
0.14870	-0.20594
0.27621	-0.51203
0.22521	0.12566
0.17421	0.55929
0.12320	0.04914
0.22521	0.40625
0.22521	0.76336
0.27621	0.32972
0.17421	-0.05289
0.09770	-0.38449
-0.00431	-0.20594
0.12320	0.48277
0.12320	0.48277
0.19971	0.22769
0.27621	0.32972
0.09770	-0.00188
0.27621	-0.05289
0.30171	0.20219
0.04670	-0.02739
-0.00431	0.10015
-0.13181	0.25320
-0.28482	0.12566
0.32721	-0.07840
0.40372	-0.12942
0.30171	0.55929
0.35272	0.27871
0.40372	0.25320
0.22521	0.15117
-0.00431	0.10015
0.14870	0.25320
0.12320	0.25320
-0.00431	0.10015
-0.02981	0.15117
0.07220	0.10015
0.07220	0.04914
0.12320	0.07465
0.07220	0.07465
0.14870	0.20219
0.17421	0.15117
0.25071	0.17668
0.17421	0.30422
0.30171	0.27871
0.25071	0.27871
0.12320	0.02363
0.09770	-0.00188
0.17421	0.40625
-0.00431	0.20219
-0.08081	0.15117
-0.02981	-0.12942
0.19971	0.35523
0.48022	0.48277
0.22521	0.04914
-0.02981	0.04914
0.19971	0.15117
0.27621	-0.23145
0.32721	0.20219
0.12320	0.32972
0.04670	0.35523
0.14870	0.22769
0.07220	0.20219
0.02119	0.17668
-0.02981	0.12566
0.04670	-0.05289
0.22521	-0.00188
0.17421	0.04914
0.12320	-0.00188
0.17421	0.17668
0.12320	0.32972
0.17421	0.43176
0.14870	0.30422
0.07220	-0.05289
0.12320	-0.02739
0.35272	-0.15492
0.09770	0.73785
0.07220	-0.46102
0.07220	-0.76711
0.27621	0.53379
0.12320	0.55929
0.40372	0.63582
0.48022	0.50828
0.19971	0.20219
-0.00431	0.02363
0.07220	0.20219
0.12320	0.30422
0.14870	0.15117
-0.02981	-0.02739
-0.05531	-0.25695
0.07220	0.25320
0.22521	0.43176
0.27621	-0.35899
0.22521	-0.05289
0.04670	0.12566
0.12320	0.15117
0.12320	0.12566
0.07220	0.12566
0.14870	0.22769
0.09770	0.50828
0.22521	0.38074
0.19971	0.07465
0.17421	0.45726
0.09770	0.38074
0.07220	-0.23145
0.09770	-0.20594
0.04670	-0.23145
0.14870	0.07465
0.04670	0.40625
0.12320	0.15117
0.19971	0.07465
0.25071	0.48277
0.27621	0.30422
0.09770	0.35523
-0.08081	0.43176
0.12320	0.15117
0.25071	-0.00188
0.25071	-0.00188
0.17421	-0.25695
0.19971	0.07465
0.07220	0.20219
0.09770	0.48277
0.19971	0.10015
0.04670	0.22769
-0.00431	0.35523
0.12320	0.15117
0.17421	-0.12942
0.14870	-0.12942
0.02119	-0.20594
0.17421	0.15117
0.12320	0.43176
0.17421	0.27871
0.22521	0.10015
0.30171	0.04914
0.19971	0.43176
0.04670	0.38074
-0.18282	0.17668
-0.23382	0.35523
0.30171	-0.35899
0.42922	0.17668
0.27621	0.71234
0.27621	0.40625
0.09770	-0.23145
0.17421	-0.46102
0.04670	-0.28246
-0.00431	-0.12942
0.04670	0.20219
0.22521	0.30422
0.25071	0.78886
0.12320	0.45726
0.04670	0.20219
0.27621	0.02363
0.25071	0.20219
-0.00431	0.02363
0.02119	0.27871
0.09770	0.04914
0.19971	-0.30797
0.30171	0.07465
0.17421	0.27871
0.17421	0.25320
0.09770	0.10015
0.17421	0.20219
0.30171	0.25320
0.27621	-0.00188
0.09770	0.27871
-0.13181	0.12566
0.07220	0.27871
0.12320	-0.25695
0.27621	0.25320
0.42922	1.12046
0.09770	-0.05289
