0.07220	0.20219
0.12320	0.15117
0.14870	0.10015
0.14870	0.10015
0.22521	0.12566
0.14870	0.20219
0.09770	0.15117
0.07220	0.04914
0.14870	0.10015
0.12320	0.15117
0.19971	0.22769
0.14870	0.15117
0.09770	0.17668
0.14870	0.10015
0.14870	0.15117
0.22521	0.17668
0.14870	0.20219
0.09770	0.15117
0.09770	0.15117
0.14870	0.07465
0.17421	0.15117
0.22521	0.17668
0.12320	0.17668
0.04670	0.07465
0.07220	0.17668
0.14870	0.20219
0.19971	0.15117
0.12320	0.17668
0.07220	0.22769
0.14870	0.12566
0.22521	0.10015
0.12320	0.15117
0.07220	0.20219
0.14870	0.04914
0.25071	0.15117
0.14870	0.25320
0.14870	0.20219
0.12320	0.10015
0.12320	0.15117
0.07220	0.12566
0.14870	0.25320
0.19971	0.17668
0.17421	0.10015
0.09770	0.15117
0.14870	0.22769
0.22521	0.15117
0.14870	0.12566
0.17421	0.17668
0.22521	0.15117
0.14870	0.10015
0.07220	0.15117
0.14870	0.22769
0.22521	0.15117
0.12320	0.12566
0.12320	0.17668
0.14870	0.22769
0.17421	0.17668
0.12320	0.04914
0.07220	0.12566
0.09770	0.20219
0.17421	0.15117
0.19971	0.17668
0.14870	0.07465
0.07220	0.20219
0.14870	0.17668
0.19971	0.15117
0.07220	0.15117
0.04670	0.07465
0.14870	0.15117
0.22521	0.15117
0.22521	0.17668
0.14870	0.15117
0.14870	0.10015
0.09770	0.07465
0.14870	0.15117
0.14870	0.17668
0.19971	0.22769
0.14870	0.15117
0.12320	0.15117
0.07220	0.04914
0.17421	0.12566
0.12320	0.25320
0.25071	0.15117
0.19971	0.07465
0.17421	0.15117
0.09770	0.15117
0.12320	0.22769
0.22521	0.15117
0.14870	0.04914
0.07220	0.12566
0.14870	0.12566
0.19971	0.25320
0.12320	0.22769
0.09770	0.15117
0.07220	0.15117
0.09770	0.12566
0.14870	0.10015
0.14870	0.12566
0.17421	0.12566
0.12320	0.25320
0.17421	0.15117
0.12320	0.07465
0.12320	0.10015
0.12320	0.15117
0.12320	0.22769
0.22521	0.15117
0.12320	0.10015
0.09770	0.12566
0.09770	0.15117
0.17421	0.12566
0.19971	0.15117
0.17421	0.10015
0.12320	0.17668
0.14870	0.22769
0.22521	0.12566
0.22521	0.07465
0.12320	0.15117
0.04670	0.20219
0.17421	0.15117
0.25071	0.15117
0.14870	0.07465
0.07220	0.17668
0.12320	0.22769
0.19971	0.15117
0.17421	0.10015
0.09770	0.17668
0.14870	0.17668
0.14870	0.15117
0.14870	0.07465
0.14870	0.17668
0.07220	0.20219
0.19971	0.15117
0.12320	0.10015
0.09770	0.17668
0.14870	0.22769
0.22521	0.12566
0.12320	0.10015
0.07220	0.15117
0.12320	0.22769
0.22521	0.15117
0.12320	0.15117
0.17421	0.10015
0.14870	0.12566
0.19971	0.22769
0.17421	0.22769
0.14870	0.07465
0.04670	0.07465
0.17421	0.17668
0.22521	0.15117
0.14870	0.10015
0.07220	0.15117
0.14870	0.20219
0.22521	0.12566
0.14870	0.07465
0.09770	0.17668
0.12320	0.22769
0.22521	0.15117
0.12320	0.04914
0.04670	0.15117
0.14870	0.12566
0.14870	0.10015
0.14870	0.15117
0.09770	0.22769
0.12320	0.17668
0.22521	0.07465
0.14870	0.17668
0.07220	0.15117
0.14870	0.12566
0.22521	0.10015
0.14870	0.15117
0.09770	0.17668
0.25071	0.15117
0.12320	0.10015
0.07220	0.15117
0.12320	0.22769
0.17421	0.15117
0.12320	0.10015
0.09770	0.12566
0.14870	0.22769
0.22521	0.15117
0.12320	0.12566
0.04670	0.17668
0.17421	0.22769
0.22521	0.15117
0.14870	0.10015
0.07220	0.15117
0.09770	0.15117
0.19971	0.20219
0.14870	0.20219
0.07220	0.25320
0.14870	0.04914
0.14870	0.10015
0.22521	0.17668
0.22521	0.17668
0.14870	0.20219
0.17421	0.15117
0.07220	0.15117
0.04670	0.15117
0.07220	0.10015
0.19971	0.15117
0.22521	0.12566
0.22521	0.22769
0.22521	0.20219
0.14870	0.07465
0.12320	0.10015
0.12320	0.22769
0.22521	0.15117
0.19971	0.12566
0.12320	0.12566
0.09770	0.15117
0.14870	0.15117
0.19971	0.25320
0.14870	0.12566
0.09770	0.10015
0.09770	0.04914
0.14870	0.12566
0.14870	0.25320
0.19971	0.12566
0.14870	0.10015
0.12320	0.12566
0.14870	0.15117
0.14870	0.22769
0.22521	0.15117
0.12320	0.07465
0.09770	0.15117
0.14870	0.20219
0.19971	0.15117
0.17421	0.10015
0.07220	0.04914
0.07220	0.15117
0.12320	0.12566
0.22521	0.22769
0.12320	0.15117
0.14870	0.10015
0.04670	0.25320
0.14870	0.15117
0.19971	0.15117
0.14870	0.10015
0.09770	0.15117
0.17421	0.15117
0.22521	0.20219
0.12320	0.20219
0.07220	0.15117
0.14870	0.12566
0.22521	0.15117
0.22521	0.20219
0.12320	0.20219
0.04670	0.15117
0.09770	0.07465
0.14870	0.17668
0.17421	0.22769
0.12320	0.22769
0.17421	0.15117
0.09770	0.07465
0.09770	0.10015
0.17421	0.15117
0.17421	0.25320
0.19971	0.15117
0.14870	0.15117
0.09770	0.04914
0.14870	0.12566
0.14870	0.25320
0.19971	0.17668
0.12320	0.10015
0.09770	0.07465
0.07220	0.15117
0.12320	0.22769
0.22521	0.25320
0.14870	0.15117
0.07220	0.07465
0.07220	0.07465
0.12320	0.15117
0.17421	0.25320
0.22521	0.20219
0.19971	0.22769
0.04670	0.15117
0.09770	0.15117
0.09770	0.07465
0.14870	0.15117
0.19971	0.07465
0.25071	0.07465
0.12320	0.17668
0.14870	0.20219
0.07220	0.25320
0.07220	0.15117
0.17421	0.15117
0.14870	0.07465
0.14870	0.10015
0.09770	0.15117
0.22521	0.15117
0.14870	0.10015
0.07220	0.22769
0.07220	0.20219
0.07220	0.07465
0.17421	0.07465
0.19971	0.07465
0.22521	0.12566
0.17421	0.22769
0.12320	0.15117
0.14870	0.07465
0.07220	0.15117
0.12320	0.17668
0.19971	0.20219
0.19971	0.22769
0.14870	0.12566
0.07220	0.15117
0.14870	0.07465
0.12320	0.15117
0.19971	0.22769
0.17421	0.15117
0.14870	0.04914
0.09770	0.15117
0.12320	0.25320
0.19971	0.12566
0.14870	0.10015
0.07220	0.15117
0.12320	0.20219
0.12320	0.12566
0.14870	0.07465
0.07220	0.15117
0.14870	0.22769
0.22521	0.17668
0.14870	0.10015
0.07220	0.15117
0.14870	0.20219
0.22521	0.15117
0.14870	0.07465
0.07220	0.15117
0.14870	0.15117
0.14870	0.20219
0.22521	0.15117
0.12320	0.07465
0.07220	0.07465
0.12320	0.20219
0.19971	0.20219
0.14870	0.15117
0.07220	0.10015
0.17421	0.15117
0.17421	0.22769
0.22521	0.12566
0.12320	0.04914
0.09770	0.17668
0.09770	0.25320
0.14870	0.15117
0.19971	0.10015
0.12320	0.22769
0.14870	0.17668
0.19971	0.12566
0.09770	0.10015
0.14870	0.07465
0.14870	0.07465
0.19971	0.15117
0.19971	0.25320
0.17421	0.22769
0.17421	0.17668
0.17421	0.12566
0.07220	0.10015
0.14870	0.10015
0.14870	0.20219
0.19971	0.12566
0.12320	0.12566
0.09770	0.12566
0.17421	0.10015
0.14870	0.15117
0.22521	0.20219
0.22521	0.17668
0.14870	0.15117
0.07220	0.15117
0.07220	0.07465
0.14870	0.12566
0.22521	0.15117
0.22521	0.22769
0.12320	0.25320
0.12320	0.17668
0.09770	0.04914
0.14870	0.10015
0.12320	0.15117
0.19971	0.20219
0.14870	0.12566
0.07220	0.07465
0.07220	0.10015
0.12320	0.15117
0.22521	0.17668
0.22521	0.22769
0.12320	0.12566
0.07220	0.07465
0.14870	0.15117
0.22521	0.12566
0.22521	0.20219
0.22521	0.15117
0.09770	0.04914
0.14870	0.15117
0.22521	0.25320
0.25071	0.15117
0.12320	0.10015
0.09770	0.15117
0.14870	0.15117
0.22521	0.20219
0.12320	0.20219
0.12320	0.15117
0.09770	0.07465
0.04670	0.17668
0.12320	0.17668
0.19971	0.17668
0.17421	0.04914
0.12320	0.12566
0.14870	0.15117
0.22521	0.12566
0.17421	0.22769
0.14870	0.22769
0.19971	0.15117
0.09770	0.12566
0.09770	0.15117
0.12320	0.17668
0.14870	0.10015
0.22521	0.15117
0.22521	0.22769
0.12320	0.20219
0.09770	0.15117
0.07220	0.07465
0.12320	0.15117
0.22521	0.22769
0.22521	0.20219
0.17421	0.15117
0.17421	0.12566
0.07220	0.10015
0.12320	0.15117
0.12320	0.22769
0.19971	0.17668
0.17421	0.17668
0.07220	0.07465
0.12320	0.10015
0.17421	0.10015
0.17421	0.15117
0.19971	0.15117
0.09770	0.20219
0.09770	0.22769
0.07220	0.15117
0.14870	0.04914
0.17421	0.17668
0.22521	0.12566
0.14870	0.25320
0.14870	0.25320
0.14870	0.17668
0.04670	0.12566
0.17421	0.12566
0.12320	0.15117
0.22521	0.12566
0.22521	0.20219
0.14870	0.22769
0.14870	0.15117
0.09770	0.15117
0.14870	0.10015
0.14870	0.10015
0.19971	0.10015
0.14870	0.15117
0.07220	0.22769
0.07220	0.22769
0.12320	0.12566
0.14870	0.15117
0.19971	0.10015
0.22521	0.10015
0.12320	0.10015
0.14870	0.17668
0.19971	0.15117
0.12320	0.22769
0.07220	0.20219
0.07220	0.12566
0.12320	0.12566
0.14870	0.10015
0.17421	0.10015
0.17421	0.17668
0.22521	0.20219
0.22521	0.22769
0.17421	0.17668
0.07220	0.15117
0.09770	0.07465
0.14870	0.15117
0.14870	0.10015
0.12320	0.12566
0.07220	0.20219
0.09770	0.17668
0.17421	0.10015
0.12320	0.10015
0.19971	0.17668
0.19971	0.15117
0.09770	0.25320
0.07220	0.15117
0.09770	0.15117
0.12320	0.04914
0.14870	0.15117
0.19971	0.25320
0.14870	0.15117
0.07220	0.10015
0.07220	0.17668
0.22521	0.00000
0.22521	0.00000
0.14870	0.00000
0.09770	0.00000
0.14870	0.00000
0.17421	0.20219
0.12320	0.12566
0.14870	0.12566
0.07220	0.07465
0.14870	0.12566
0.25071	0.22769
0.22521	0.17668
0.14870	0.15117
0.12320	0.07465
0.09770	0.15117
0.17421	0.17668
0.17421	0.12566
0.19971	0.04914
0.09770	0.15117
0.14870	0.12566
0.22521	0.22769
0.14870	0.07465
0.07220	0.15117
0.14870	0.22769
0.12320	0.10015
0.07220	0.12566
0.14870	0.22769
0.25071	0.20219
0.19971	0.12566
0.17421	0.07465
0.14870	0.12566
0.19971	0.25320
0.14870	0.17668
0.09770	0.10015
0.14870	0.17668
0.22521	0.22769
0.14870	0.12566
0.07220	0.10015
0.14870	0.12566
0.22521	0.17668
0.17421	0.12566
0.09770	0.07465
0.14870	0.15117
0.19971	0.25320
0.17421	0.15117
0.14870	0.04914
0.19971	0.17668
0.14870	0.15117
0.09770	0.10015
0.17421	0.15117
0.19971	0.20219
0.14870	0.15117
0.07220	0.07465
0.14870	0.25320
0.19971	0.20219
0.22521	0.17668
0.14870	0.10015
0.07220	0.12566
0.14870	0.20219
0.22521	0.15117
0.17421	0.12566
0.14870	0.10015
0.14870	0.20219
0.22521	0.20219
0.14870	0.15117
-0.02981	0.15117
0.25071	0.07465
0.30171	0.12566
0.14870	0.20219
0.02119	0.10015
0.12320	0.15117
0.19971	0.20219
0.17421	0.15117
0.09770	0.15117
0.09770	0.04914
0.12320	0.10015
0.12320	0.20219
0.19971	0.10015
0.22521	0.04914
0.07220	0.10015
0.19971	0.12566
0.25071	0.22769
0.14870	0.17668
0.09770	0.07465
0.12320	0.15117
0.17421	0.22769
0.17421	0.15117
0.14870	0.10015
0.04670	0.07465
0.12320	0.07465
0.14870	0.15117
0.17421	0.22769
0.14870	0.25320
0.17421	0.15117
0.07220	0.12566
0.09770	0.07465
0.07220	0.17668
0.14870	0.17668
0.22521	0.20219
0.22521	0.15117
0.14870	0.12566
0.09770	0.04914
0.17421	0.17668
0.19971	0.20219
0.14870	0.17668
0.12320	0.17668
0.09770	0.04914
0.17421	0.07465
0.14870	0.12566
0.19971	0.22769
0.25071	0.22769
0.12320	0.22769
0.09770	0.15117
0.09770	0.12566
0.14870	0.22769
0.19971	0.25320
0.22521	0.10015
0.04670	0.15117
0.09770	0.12566
0.19971	0.07465
0.25071	0.15117
0.09770	0.15117
0.07220	0.22769
0.19971	0.20219
0.22521	0.15117
0.14870	0.15117
0.07220	0.07465
0.07220	0.07465
0.09770	0.04914
0.14870	0.12566
0.17421	0.22769
0.17421	0.17668
0.04670	0.07465
0.07220	0.17668
0.14870	0.20219
0.22521	0.15117
0.12320	0.07465
0.12320	0.10015
0.12320	0.22769
0.14870	0.15117
0.14870	0.12566
0.07220	0.15117
0.17421	0.22769
0.19971	0.15117
0.12320	0.15117
0.12320	0.10015
0.04670	0.10015
0.09770	0.15117
0.12320	0.20219
0.22521	0.25320
0.17421	0.12566
0.09770	0.15117
0.12320	0.07465
0.14870	0.20219
0.22521	0.17668
0.12320	0.15117
0.14870	0.07465
0.07220	0.07465
0.07220	0.15117
0.14870	0.22769
0.19971	0.20219
0.22521	0.20219
0.17421	0.15117
0.07220	0.10015
0.12320	0.12566
0.07220	0.22769
0.32721	0.15117
0.22521	0.10015
0.17421	0.10015
0.02119	0.15117
0.12320	0.15117
-0.10631	0.17668
0.27621	0.22769
0.63323	0.15117
0.27621	0.10015
-0.08081	0.15117
-0.05531	0.22769
0.04670	0.20219
0.19971	0.15117
0.07220	0.15117
0.40372	0.12566
0.27621	0.15117
0.25071	0.20219
0.12320	0.15117
-0.33583	0.04914
-0.05531	0.15117
0.55673	0.22769
0.48022	0.15117
0.02119	0.04914
-0.25932	0.04914
0.17421	0.10015
0.17421	0.25320
0.42922	0.15117
0.68424	0.25320
-0.53984	0.22769
-1.22839	0.17668
1.06676	-0.00188
0.76074	-0.12942
0.40372	0.27871
0.19971	-0.12942
0.14870	0.12566
0.14870	0.20219
-0.48884	-1.32828
-0.43783	0.91640
-0.33583	0.66132
1.24527	1.35003
0.93925	1.52859
-0.33583	-0.20594
0.83725	-0.02739
0.50573	-0.35899
-1.76392	0.35523
1.01576	-0.66508
-0.18282	-3.59847
-0.18282	-4.56776
0.40372	2.90601
0.17421	7.08928
0.37822	5.25272
0.02119	-1.14973
0.37822	-2.01699
-0.43783	-3.39441
2.06133	-1.88945
-0.82036	0.76336
-0.66735	-0.35899
0.65874	-0.35899
0.76074	-2.06800
-1.22839	-0.79262
2.13783	0.89089
-0.97337	3.13558
-0.99887	-1.17523
-1.27939	2.67644
5.01952	8.33916
2.87738	-0.51203
-0.43783	-3.31788
-1.43240	5.02315
-3.85505	-2.45062
0.70974	-0.51203
0.73524	-2.11902
-3.77855	-4.10862
0.32721	-1.94047
1.14327	1.68163
1.72980	1.32453
1.50029	-0.23145
0.40372	-1.22625
-0.36133	-3.16484
1.90832	0.55929
3.00489	6.32404
-0.94787	1.32453
0.53123	2.70194
3.13239	-2.29757
-3.44703	-7.62869
-3.19201	7.16580
-2.09544	4.35995
1.90832	-2.55265
-0.05531	-3.57296
4.20346	0.71234
1.60230	5.73737
0.48022	0.30422
-0.43783	-2.47613
-1.25389	-3.06281
-0.05531	-1.43031
-3.34502	0.04914
0.42922	0.50828
1.42379	-0.28246
-0.38683	0.81437
4.02495	1.22250
-1.15188	0.76336
0.27621	0.78886
2.52035	0.35523
1.29628	0.04914
1.85731	0.15117
0.37822	0.20219
0.25071	0.61031
-2.14644	0.02363
-1.94243	-0.20594
0.70974	-0.00188
4.56049	-0.23145
0.50573	0.20219
-4.13557	0.40625
-0.46334	0.27871
-0.02981	-0.18043
-0.08081	-0.05289
-0.97337	-1.04770
-0.56534	-1.09871
-0.61635	0.53379
4.71350	0.81437
-0.84586	1.06945
-1.22839	0.15117
1.70430	0.40625
1.42379	2.21730
0.83725	1.70714
-0.53984	0.32972
-0.76936	-2.19554
0.60773	-0.41000
-0.31033	1.19699
1.14327	-1.68539
1.24527	-1.50683
-1.66191	1.63062
-1.63641	0.35523
-1.99343	-0.23145
1.98482	0.63582
1.24527	-0.07840
0.02119	-0.74160
-0.08081	-0.35899
-0.00431	0.02363
-0.28482	0.83988
-0.48884	0.27871
-0.08081	-0.10391
0.48022	0.35523
-0.69285	1.06945
2.08683	0.83988
2.87738	0.35523
-0.13181	0.15117
-2.29945	0.22769
-0.61635	0.07465
0.45472	-0.35899
-3.29402	0.32972
0.65874	-0.20594
0.19971	-0.46102
0.73524	-1.53234
0.81175	2.29382
0.81175	2.47238
1.04126	1.88570
0.35272	-1.60887
-0.02981	-7.96029
-0.69285	-3.08831
-2.14644	6.65564
0.63323	3.11007
0.48022	-0.12942
0.88825	-0.56305
1.04126	-0.10391
0.27621	-0.05289
-0.02981	-0.76711
-0.82036	0.35523
-0.41233	0.25320
-0.20832	-0.25695
0.25071	0.94191
0.58223	1.86019
-0.18282	0.45726
-0.05531	0.12566
0.02119	-0.28246
0.19971	-0.69059
0.73524	-0.25695
-0.28482	-0.33348
0.73524	0.40625
1.14327	-0.02739
1.09226	-0.18043
-0.64185	0.38074
0.12320	0.17668
-0.02981	1.27351
-0.43783	-0.63957
-0.00431	2.16628
0.63323	0.10015
-0.59084	-0.69059
0.60773	-1.86394
-0.82036	-1.43031
-0.08081	-0.25695
0.35272	-1.22625
-0.13181	4.15589
0.50573	3.33964
0.81175	-0.51203
0.45472	-0.71609
0.60773	0.73785
0.58223	0.43176
0.32721	-1.32828
-1.17738	-0.79262
0.55673	-1.14973
0.88825	0.45726
-0.15732	0.32972
0.25071	0.17668
-0.66735	1.19699
-1.45790	1.27351
1.09226	0.48277
0.32721	0.17668
0.07220	-1.48133
1.04126	-0.28246
-1.73842	-0.86914
-1.96793	0.17668
1.21977	0.66132
2.06133	0.81437
1.70430	0.96742
0.48022	1.86019
-0.66735	-0.05289
-0.84586	0.04914
-0.84586	0.71234
0.07220	-1.68539
-0.38683	-1.32828
0.19971	0.71234
0.55673	-0.41000
0.45472	0.38074
0.07220	-0.07840
0.25071	0.02363
0.07220	0.10015
0.22521	1.29902
0.27621	1.06945
0.09770	-1.07320
-0.05531	-1.04770
0.93925	0.71234
0.40372	4.43647
1.14327	0.66132
-0.25932	-0.69059
-0.15732	-2.57816
-1.10088	-0.25695
0.48022	1.04394
0.45472	1.37554
-1.22839	0.71234
0.07220	-0.86914
0.70974	-0.63957
1.55129	-0.74160
-0.43783	-0.43551
-1.22839	-0.51203
0.02119	1.01843
-0.25932	-0.07840
1.60230	0.20219
0.45472	-0.05289
-0.05531	0.66132
0.02119	1.65613
-0.10631	0.58480
0.02119	0.35523
0.07220	-0.02739
0.40372	-0.02739
0.07220	-0.30797
0.27621	-0.23145
0.17421	-0.05289
0.32721	1.09496
-0.08081	0.35523
0.12320	-0.63957
0.32721	-0.69059
-0.48884	-0.07840
0.42922	0.66132
0.07220	0.55929
-0.02981	0.12566
0.63323	0.35523
-0.82036	-0.07840
-0.89686	0.30422
2.03582	0.04914
2.16333	0.94191
-0.31033	-0.12942
-1.07538	-1.25176
-0.43783	-1.43031
-0.00431	1.57960
0.07220	1.12046
1.44929	-0.97117
-1.58541	0.68683
0.22521	0.66132
2.08683	1.17148
1.01576	1.06945
-0.23382	0.22769
-0.28482	-0.66508
-0.51434	-0.86914
-0.51434	-0.51203
0.09770	0.89089
0.42922	-0.30797
0.19971	-0.35899
0.25071	-0.81812
0.19971	0.25320
0.32721	1.35003
0.32721	0.61031
0.22521	0.10015
0.07220	-0.15492
-0.02981	-0.86914
0.40372	-0.81812
-0.28482	1.37554
0.04670	1.24800
-0.69285	1.86019
1.24527	0.10015
0.48022	-0.30797
1.19427	-0.48652
0.68424	0.12566
-0.33583	-0.12942
-1.20288	-0.35899
-0.48884	-0.51203
-0.48884	0.71234
-0.00431	1.37554
1.04126	0.20219
-0.18282	-1.32828
-0.08081	-0.18043
1.06676	0.43176
0.78624	0.58480
0.45472	-0.53754
0.17421	-0.02739
0.07220	1.17148
0.12320	0.81437
0.14870	0.25320
0.19971	0.12566
-0.05531	0.17668
-0.02981	-0.23145
-0.20832	-0.18043
-0.02981	0.20219
0.14870	0.15117
0.25071	0.71234
0.22521	-0.18043
0.09770	0.35523
0.14870	0.25320
0.22521	-0.35899
0.09770	-0.07840
0.12320	-0.18043
0.17421	0.15117
0.17421	0.55929
0.27621	0.30422
0.09770	-0.18043
0.32721	-0.46102
0.17421	0.27871
0.04670	0.27871
0.19971	0.22769
0.12320	0.20219
0.04670	0.15117
0.17421	0.30422
0.02119	0.27871
0.12320	0.25320
0.14870	0.15117
0.19971	0.15117
-0.23382	0.25320
0.58223	0.30422
0.48022	0.12566
-0.15732	0.04914
-0.94787	0.25320
0.73524	-0.12942
0.53123	0.17668
-0.08081	-0.76711
0.02119	-0.28246
0.19971	-0.25695
-0.56534	1.78367
0.07220	1.88570
0.60773	-0.05289
-0.36133	-1.94047
0.17421	0.12566
0.37822	0.40625
0.30171	-0.07840
0.30171	0.20219
0.14870	0.99292
-0.33583	-0.23145
-0.10631	0.02363
0.45472	-0.00188
0.27621	0.22769
0.22521	0.12566
0.37822	0.10015
0.17421	-0.02739
0.07220	-0.15492
0.32721	0.30422
0.12320	0.07465
-0.05531	0.22769
0.14870	0.55929
0.07220	0.53379
-0.05531	0.15117
-0.05531	-0.15492
0.12320	-0.63957
0.22521	0.30422
0.17421	0.35523
0.19971	0.17668
0.30171	0.43176
0.04670	0.07465
0.07220	0.89089
0.58223	1.01843
0.53123	-0.05289
0.09770	-0.76711
-0.15732	-0.79262
-0.18282	-0.71609
-0.08081	0.43176
0.45472	1.35003
0.22521	0.81437
-0.02981	-0.25695
0.12320	0.07465
0.37822	0.81437
0.17421	0.50828
0.12320	0.02363
0.60773	-1.50683
-0.46334	0.20219
-0.59084	0.76336
1.27078	0.20219
0.73524	-0.25695
0.19971	-0.86914
-0.41233	0.35523
-0.18282	0.12566
0.02119	0.73785
0.14870	0.20219
0.19971	-0.07840
-0.02981	-0.05289
-0.10631	0.45726
0.27621	1.09496
0.22521	0.96742
0.27621	-0.05289
0.32721	-0.18043
0.30171	0.43176
0.04670	-0.43551
0.12320	-0.30797
0.12320	0.32972
0.04670	-0.23145
0.19971	-0.66508
0.04670	0.27871
0.17421	0.35523
0.22521	0.58480
-0.10631	0.66132
-0.31033	0.10015
0.70974	-0.02739
0.63323	0.17668
-0.02981	0.27871
-0.08081	0.02363
0.12320	0.02363
0.02119	0.20219
-0.08081	0.25320
0.17421	0.02363
0.30171	-0.12942
0.22521	0.68683
0.12320	0.27871
0.14870	0.15117
0.27621	0.40625
0.04670	0.27871
0.12320	-0.15492
0.07220	0.04914
0.12320	0.10015
0.25071	0.40625
0.07220	0.73785
-0.02981	0.38074
0.30171	0.50828
0.30171	-0.51203
0.32721	0.20219
-0.31033	-0.28246
0.19971	-0.86914
0.25071	0.43176
0.12320	0.58480
0.14870	0.50828
0.14870	-0.76711
0.09770	-0.61406
0.22521	0.48277
0.30171	0.94191
-0.02981	1.86019
-0.00431	0.45726
0.14870	0.12566
0.27621	-0.05289
0.07220	-0.56305
0.17421	-0.66508
0.25071	-0.81812
0.14870	0.45726
0.30171	0.99292
0.09770	0.61031
0.07220	0.10015
-0.00431	0.30422
0.22521	0.12566
0.17421	-0.25695
0.07220	-0.05289
0.19971	0.27871
0.22521	0.66132
0.30171	0.45726
0.25071	-0.51203
0.07220	-0.97117
0.12320	-0.41000
0.02119	0.55929
-0.00431	0.53379
0.37822	0.73785
0.30171	0.22769
0.19971	-0.00188
0.22521	0.45726
0.07220	0.45726
0.02119	0.12566
0.12320	0.04914
0.12320	0.10015
0.19971	-0.38449
0.19971	0.20219
0.14870	0.12566
-0.00431	-0.28246
0.17421	0.53379
0.14870	0.20219
0.12320	0.20219
0.09770	0.32972
0.30171	0.35523
0.19971	0.04914
0.07220	0.04914
0.04670	-0.00188
0.04670	-0.10391
0.17421	0.22769
0.25071	0.07465
0.30171	-0.07840
0.22521	0.73785
0.14870	1.06945
-0.13181	-0.23145
0.07220	-0.02739
0.17421	-0.20594
0.04670	-0.12942
-0.05531	0.15117
0.25071	-0.15492
-0.10631	-0.30797
0.17421	0.71234
0.14870	1.17148
0.25071	0.63582
0.27621	0.25320
0.37822	0.04914
0.48022	0.30422
0.32721	-0.63957
0.17421	-0.25695
0.09770	0.04914
-0.08081	-0.10391
-0.02981	0.10015
0.02119	0.22769
-0.08081	0.38074
0.12320	0.10015
-0.08081	0.17668
0.22521	0.68683
0.30171	-0.10391
0.07220	0.12566
0.17421	0.89089
0.22521	-0.23145
0.19971	-0.00188
0.22521	-0.07840
0.14870	-0.53754
0.19971	-0.05289
0.30171	0.99292
0.09770	0.76336
0.12320	0.15117
-0.00431	-0.07840
0.19971	-0.12942
0.09770	0.27871
0.12320	-0.15492
0.32721	0.53379
0.19971	0.12566
0.09770	0.20219
0.14870	-0.15492
0.12320	0.35523
0.09770	-0.02739
0.19971	-0.35899
0.17421	-0.51203
0.02119	0.48277
0.04670	-0.05289
0.17421	0.61031
0.14870	1.32453
0.09770	0.10015
0.14870	-0.51203
0.02119	-0.63957
0.12320	0.17668
0.07220	0.35523
0.09770	0.22769
0.35272	0.53379
0.25071	0.45726
0.22521	0.27871
0.32721	0.20219
0.25071	0.10015
0.14870	0.02363
0.04670	0.20219
0.07220	0.22769
0.07220	-0.15492
0.02119	-0.23145
-0.00431	-0.00188
0.12320	0.12566
0.02119	-0.48652
0.19971	0.30422
0.22521	0.32972
0.14870	0.94191
0.12320	-0.12942
0.19971	0.15117
0.25071	0.66132
0.30171	0.66132
0.22521	-0.23145
0.04670	-0.71609
0.09770	0.04914
0.14870	0.63582
0.22521	0.10015
0.14870	-0.10391
0.07220	0.20219
0.12320	0.07465
0.12320	0.10015
0.19971	0.43176
0.22521	0.50828
0.19971	-0.07840
0.17421	0.15117
0.27621	0.27871
0.04670	0.15117
-0.10631	-0.35899
0.09770	0.04914
0.12320	0.22769
0.22521	-0.02739
0.12320	0.63582
0.12320	0.25320
0.07220	0.50828
0.02119	0.15117
0.32721	-0.02739
0.48022	-0.35899
0.27621	-0.10391
0.14870	0.04914
0.09770	0.20219
0.12320	0.04914
0.09770	0.45726
0.17421	0.86539
0.07220	1.12046
0.07220	0.22769
-0.00431	-0.28246
0.07220	-0.10391
0.12320	-0.33348
0.22521	-0.46102
0.12320	0.10015
0.12320	-0.00188
0.17421	0.96742
0.25071	0.43176
0.27621	0.10015
0.14870	0.10015
0.09770	-0.07840
0.09770	-0.02739
0.07220	0.10015
0.14870	0.15117
0.07220	0.20219
0.14870	0.15117
0.17421	0.15117
0.17421	0.15117
0.12320	0.17668
0.22521	0.45726
0.14870	0.45726
0.19971	0.17668
0.17421	-0.07840
0.07220	-0.07840
0.09770	-0.15492
0.07220	0.30422
0.25071	0.40625
0.12320	0.17668
-0.05531	-0.05289
-0.20832	-0.05289
0.19971	-0.10391
0.30171	0.17668
0.22521	0.25320
0.17421	0.22769
0.22521	-0.05289
0.19971	-0.35899
0.17421	0.73785
0.35272	0.55929
0.14870	-0.10391
0.25071	-0.41000
0.09770	0.94191
-0.10631	0.76336
-0.05531	0.30422
0.25071	-0.07840
0.40372	-0.69059
0.25071	0.55929
0.22521	0.20219
0.22521	-0.02739
-0.00431	-0.30797
-0.08081	0.15117
0.09770	0.30422
0.22521	-0.15492
0.19971	-0.51203
0.07220	0.10015
0.09770	0.61031
0.27621	0.68683
0.09770	0.43176
0.22521	0.50828
0.17421	0.07465
0.19971	-0.02739
0.02119	0.83988
0.09770	0.15117
0.19971	0.15117
0.09770	-0.48652
0.02119	-0.33348
0.12320	-0.00188
0.37822	0.02363
0.27621	0.73785
0.09770	0.68683
0.07220	0.12566
0.27621	-0.02739
0.17421	-0.41000
0.07220	0.45726
0.12320	1.04394
0.14870	-0.20594
0.14870	-0.63957
0.19971	-0.18043
0.17421	-0.02739
0.09770	0.61031
0.07220	0.32972
0.09770	0.04914
0.25071	0.15117
0.17421	0.12566
0.09770	-0.30797
0.27621	0.07465
0.30171	0.53379
0.04670	0.66132
-0.15732	0.12566
-0.02981	-0.18043
0.14870	0.35523
0.37822	0.40625
0.22521	-0.23145
0.04670	-0.18043
0.14870	-0.15492
0.25071	1.01843
0.22521	0.76336
0.14870	-0.46102
0.07220	-0.61406
0.02119	0.04914
0.12320	0.48277
0.04670	0.02363
-0.02981	-0.35899
0.07220	0.20219
0.19971	0.48277
0.19971	0.43176
0.30171	0.55929
0.14870	-0.10391
0.07220	-0.35899
0.12320	-0.05289
0.14870	0.35523
0.17421	1.06945
0.19971	0.55929
0.22521	0.10015
0.02119	-0.97117
-0.00431	-0.20594
-0.02981	-0.00188
0.27621	0.35523
0.45472	0.43176
0.22521	0.20219
0.12320	0.10015
0.22521	0.25320
0.12320	0.45726
0.07220	0.55929
0.12320	-0.07840
0.09770	-0.38449
0.22521	0.04914
0.12320	0.58480
0.04670	-0.25695
0.02119	-0.23145
0.07220	0.63582
-0.13181	0.91640
0.27621	0.27871
0.50573	-0.10391
0.32721	-0.05289
0.17421	0.17668
0.17421	0.12566
0.19971	-0.23145
0.14870	0.32972
-0.02981	0.50828
-0.10631	0.07465
0.17421	-0.35899
0.19971	-0.25695
0.22521	0.35523
0.25071	0.02363
0.22521	0.35523
0.12320	0.35523
0.12320	0.61031
0.07220	0.94191
0.02119	0.40625
0.19971	-0.18043
0.12320	-0.07840
0.22521	0.10015
0.12320	0.22769
-0.00431	-0.20594
-0.15732	-0.48652
0.14870	0.32972
0.37822	-0.10391
0.35272	0.12566
0.14870	0.35523
0.27621	0.55929
0.22521	0.30422
0.07220	-0.23145
0.19971	-0.35899
0.17421	0.55929
0.09770	-0.30797
0.09770	0.27871
0.07220	1.19699
-0.05531	0.32972
0.09770	0.15117
0.14870	0.04914
0.14870	-0.35899
0.14870	-0.10391
0.12320	-0.00188
0.19971	0.15117
0.14870	-0.10391
0.22521	0.07465
0.07220	0.32972
0.04670	0.81437
0.07220	0.40625
0.22521	0.12566
0.22521	-0.00188
0.17421	0.35523
0.14870	0.15117
0.09770	-0.46102
0.02119	-0.38449
0.12320	0.15117
0.14870	0.43176
0.19971	0.20219
0.09770	0.30422
0.12320	0.38074
0.19971	0.30422
0.25071	0.68683
0.30171	-0.33348
0.22521	-1.04770
0.17421	-0.12942
0.19971	0.81437
0.09770	1.12046
-0.00431	0.27871
-0.08081	-0.18043
0.04670	-0.38449
0.09770	0.15117
0.30171	0.15117
0.27621	0.15117
0.22521	0.15117
0.37822	0.02363
0.32721	0.12566
0.07220	0.76336
0.14870	0.43176
0.02119	0.02363
-0.00431	0.04914
0.12320	-0.02739
0.09770	-0.20594
0.07220	0.30422
0.12320	0.50828
0.22521	-0.18043
0.22521	-0.05289
0.27621	0.32972
0.22521	0.68683
0.07220	0.20219
0.04670	0.53379
0.04670	-1.04770
0.14870	-0.76711
0.17421	0.07465
0.19971	0.99292
0.14870	0.61031
0.19971	0.43176
0.12320	0.07465
0.12320	0.04914
0.04670	0.15117
-0.31033	-0.15492
0.19971	0.12566
0.45472	0.27871
0.45472	0.15117
0.48022	0.30422
0.27621	0.07465
0.04670	0.04914
-0.08081	0.10015
-0.00431	-0.05289
0.07220	0.27871
0.09770	0.76336
0.14870	0.25320
0.12320	-0.05289
0.12320	0.10015
0.09770	-0.25695
0.04670	-0.28246
0.04670	0.22769
0.09770	0.66132
0.12320	0.12566
0.12320	-0.23145
0.19971	0.45726
0.37822	0.20219
0.32721	0.35523
0.25071	0.53379
0.12320	0.66132
0.22521	0.12566
0.30171	-0.53754
0.30171	-0.33348
0.12320	0.20219
0.12320	-0.10391
0.12320	-0.00188
0.09770	1.09496
0.09770	0.45726
-0.02981	-0.18043
0.07220	-0.18043
0.17421	0.27871
0.19971	0.10015
0.12320	-0.05289
0.17421	0.04914
0.07220	0.04914
0.04670	0.35523
0.14870	0.40625
0.22521	0.25320
0.17421	0.04914
0.25071	0.35523
0.35272	-0.05289
0.30171	-0.46102
0.30171	-0.02739
0.22521	0.15117
0.14870	0.38074
0.14870	1.14597
0.07220	0.63582
0.02119	-0.20594
-0.00431	-0.20594
-0.00431	-0.10391
0.09770	0.30422
0.07220	0.07465
0.12320	-0.18043
0.30171	0.15117
0.32721	0.86539
0.25071	-0.05289
0.27621	0.35523
0.17421	0.25320
0.12320	0.53379
0.04670	0.12566
-0.02981	-0.25695
0.02119	-0.18043
0.17421	-0.23145
0.25071	0.43176
0.40372	0.15117
0.22521	0.25320
0.07220	0.32972
0.02119	0.20219
0.07220	0.50828
-0.05531	0.50828
0.09770	0.35523
0.32721	-0.00188
0.22521	-0.25695
0.25071	-0.07840
0.25071	0.22769
0.09770	-0.15492
-0.05531	-0.66508
-0.02981	0.32972
0.17421	0.76336
0.19971	0.53379
0.19971	0.15117
0.09770	0.04914
-0.00431	0.02363
0.12320	-0.05289
0.22521	-0.07840
0.19971	0.45726
0.27621	1.04394
0.22521	-0.12942
0.12320	-0.00188
0.09770	-0.05289
0.12320	0.58480
0.14870	0.27871
0.09770	-0.33348
0.27621	-0.33348
0.09770	0.53379
-0.02981	0.68683
0.04670	-0.46102
0.32721	-0.33348
0.37822	0.63582
0.14870	0.48277
0.14870	0.78886
0.14870	0.07465
0.12320	-0.30797
0.12320	-0.18043
-0.05531	-0.02739
0.02119	0.53379
0.19971	0.12566
0.22521	0.20219
0.17421	0.35523
0.04670	0.27871
0.17421	0.10015
0.07220	-0.30797
0.19971	-0.10391
0.12320	0.66132
0.19971	0.22769
0.25071	0.45726
0.02119	-0.02739
0.09770	-0.61406
0.22521	-0.15492
0.19971	0.20219
0.27621	0.63582
-0.05531	0.68683
0.12320	0.22769
0.14870	0.35523
0.02119	0.25320
-0.00431	0.04914
0.12320	-0.35899
0.30171	-0.18043
0.25071	0.20219
0.04670	0.45726
-0.02981	0.35523
0.17421	0.35523
0.22521	0.32972
0.37822	-0.51203
0.30171	-0.30797
0.14870	0.50828
0.25071	0.17668
-0.02981	0.35523
0.17421	0.25320
0.09770	-0.07840
0.09770	0.63582
0.12320	-0.00188
0.14870	-0.33348
0.07220	0.07465
0.04670	0.99292
0.14870	-0.23145
0.09770	-0.74160
0.09770	0.22769
0.25071	0.27871
0.25071	0.15117
0.30171	0.15117
0.27621	0.32972
0.32721	0.76336
0.22521	0.50828
0.09770	-0.00188
-0.02981	0.04914
0.02119	0.04914
0.04670	-0.23145
0.22521	-0.05289
0.17421	0.32972
0.14870	0.15117
0.12320	0.20219
0.19971	0.32972
0.04670	0.45726
0.02119	-0.05289
0.12320	0.68683
0.27621	-0.30797
0.25071	-0.00188
0.19971	-0.07840
0.14870	-0.15492
0.14870	-0.12942
0.12320	1.01843
0.04670	0.66132
0.12320	0.07465
0.25071	0.12566
0.25071	0.10015
0.09770	-0.02739
0.09770	0.02363
0.12320	-0.23145
0.12320	0.12566
0.14870	-0.20594
0.14870	0.30422
0.09770	-0.10391
0.17421	0.71234
0.17421	0.68683
0.32721	0.22769
0.12320	0.04914
0.07220	-0.05289
0.04670	-0.28246
0.19971	0.58480
0.12320	0.48277
0.17421	0.15117
0.09770	-0.05289
0.19971	-0.00188
0.22521	-0.00188
0.14870	-0.10391
0.07220	0.10015
0.07220	0.04914
-0.00431	-0.12942
0.07220	-0.05289
0.25071	0.83988
0.14870	0.81437
0.32721	0.35523
0.32721	0.25320
0.22521	0.04914
0.14870	-0.07840
0.22521	-0.05289
0.02119	-0.25695
0.02119	-0.02739
0.14870	0.20219
0.19971	0.40625
0.12320	0.40625
0.12320	-0.15492
0.17421	-0.05289
0.12320	0.45726
-0.02981	0.32972
0.02119	-0.15492
0.19971	0.10015
0.45472	-0.18043
0.35272	0.20219
0.17421	0.45726
0.07220	0.35523
0.04670	0.30422
0.14870	-0.00188
0.19971	0.25320
0.22521	0.07465
0.07220	0.10015
0.04670	0.27871
0.09770	0.30422
0.09770	0.20219
0.14870	-0.35899
0.19971	-0.33348
0.25071	1.04394
0.19971	0.02363
0.12320	-0.38449
0.09770	0.20219
0.14870	0.10015
0.17421	0.40625
0.14870	0.25320
0.17421	0.40625
-0.00431	0.53379
-0.00431	-0.12942
0.14870	-0.10391
0.14870	-0.12942
0.35272	0.07465
0.22521	0.10015
0.27621	0.35523
0.14870	0.43176
0.19971	0.12566
0.09770	0.32972
0.14870	0.53379
0.17421	0.15117
0.02119	-0.00188
-0.00431	-0.10391
0.19971	-0.00188
0.27621	0.02363
0.22521	0.30422
0.17421	0.30422
0.35272	0.17668
0.17421	0.38074
0.07220	-0.18043
0.17421	0.45726
0.09770	-0.12942
0.12320	-0.48652
0.19971	0.43176
-0.05531	-0.02739
0.22521	0.45726
0.27621	0.43176
0.32721	0.15117
0.32721	-0.18043
0.12320	0.55929
-0.05531	0.55929
-0.02981	0.27871
0.02119	0.10015
0.19971	-0.10391
0.22521	0.48277
0.32721	0.10015
0.27621	-0.18043
0.22521	-0.05289
0.04670	-0.12942
0.12320	0.25320
0.14870	0.20219
0.09770	0.07465
0.07220	0.30422
0.12320	0.32972
0.17421	0.25320
0.14870	-0.02739
0.14870	0.17668
0.30171	0.38074
0.17421	-0.51203
0.09770	-0.07840
0.12320	0.38074
0.09770	0.83988
0.02119	0.32972
-0.08081	-0.02739
0.02119	-0.18043
0.40372	0.81437
0.40372	0.40625
0.27621	-0.35899
0.14870	-0.00188
0.04670	0.10015
0.07220	0.12566
0.09770	0.10015
0.19971	0.12566
0.14870	0.10015
0.12320	-0.00188
0.27621	0.40625
0.25071	0.02363
0.19971	-0.12942
0.07220	0.02363
0.17421	0.89089
0.17421	1.17148
0.07220	0.35523
0.14870	-0.69059
0.14870	-0.61406
0.02119	-0.00188
0.09770	0.12566
0.14870	0.35523
0.19971	0.55929
0.19971	0.30422
0.14870	-0.33348
0.30171	0.04914
0.19971	0.61031
0.19971	0.58480
0.02119	-0.33348
0.09770	-0.41000
0.17421	0.55929
0.14870	0.48277
0.19971	0.66132
0.12320	-0.15492
0.14870	0.10015
-0.08081	0.55929
-0.13181	0.43176
-0.00431	-0.41000
0.25071	-0.18043
0.19971	0.15117
0.12320	-0.12942
0.48022	0.38074
0.55673	0.40625
0.30171	0.04914
0.09770	0.25320
-0.02981	0.32972
-0.02981	-0.20594
0.07220	-0.15492
0.12320	0.40625
0.12320	0.27871
0.07220	0.35523
0.19971	0.22769
0.27621	0.07465
0.27621	0.15117
0.12320	0.73785
0.02119	0.91640
0.14870	0.22769
0.19971	-0.56305
0.12320	-0.92016
0.27621	-0.58856
0.17421	0.35523
0.22521	0.58480
0.04670	0.32972
0.12320	0.76336
0.14870	0.20219
0.19971	0.10015
0.12320	0.07465
0.04670	-0.15492
0.09770	-0.25695
0.14870	-0.00188
0.22521	0.48277
0.12320	0.61031
0.30171	0.27871
0.14870	-0.05289
0.17421	-0.18043
0.17421	0.45726
0.19971	0.48277
-0.08081	-0.00188
-0.08081	-0.30797
0.22521	-0.51203
0.32721	-0.18043
0.27621	0.40625
0.19971	0.50828
-0.02981	0.55929
0.07220	0.25320
0.17421	0.20219
0.25071	-0.00188
0.14870	0.30422
-0.08081	0.15117
0.09770	0.40625
0.25071	0.20219
0.22521	0.12566
0.22521	0.58480
0.07220	-0.20594
0.07220	-0.35899
0.14870	-0.48652
0.22521	0.76336
0.17421	0.22769
0.17421	0.12566
0.17421	-0.00188
0.12320	0.35523
0.09770	0.04914
0.14870	-0.02739
0.22521	0.43176
0.19971	0.32972
0.14870	0.20219
0.04670	0.38074
0.22521	0.27871
0.07220	0.22769
0.07220	0.17668
0.12320	-0.48652
0.19971	-0.15492
0.14870	0.10015
0.12320	0.48277
0.25071	-0.15492
0.22521	0.25320
0.04670	-0.02739
0.12320	0.35523
0.19971	0.66132
0.35272	0.25320
0.14870	0.27871
0.04670	0.15117
0.02119	0.02363
0.02119	0.10015
0.22521	0.32972
0.22521	0.25320
0.22521	-0.18043
0.09770	0.15117
-0.00431	-0.53754
0.02119	0.32972
0.14870	0.94191
0.14870	0.32972
0.12320	-0.02739
0.25071	-0.00188
0.19971	0.30422
0.17421	0.15117
0.22521	-0.07840
0.25071	0.25320
0.12320	0.22769
-0.15732	0.04914
-0.18282	0.25320
0.12320	0.12566
0.32721	0.02363
0.32721	-0.00188
0.27621	0.15117
0.19971	0.43176
0.19971	0.32972
0.04670	0.17668
0.22521	0.02363
0.14870	0.27871
0.09770	0.15117
-0.18282	-0.18043
0.02119	0.12566
0.14870	0.32972
0.12320	0.17668
0.02119	0.17668
0.17421	-0.02739
0.09770	-0.10391
0.12320	0.10015
0.25071	0.04914
0.30171	0.27871
0.27621	1.27351
0.22521	0.25320
0.09770	-0.28246
0.14870	0.02363
0.02119	0.02363
0.30171	-0.51203
-0.00431	-0.25695
-0.02981	0.91640
0.09770	0.86539
0.12320	0.50828
-0.02981	-0.28246
0.22521	-0.74160
0.35272	-0.25695
0.25071	0.43176
0.19971	0.43176
0.12320	0.83988
0.22521	0.61031
0.07220	-0.02739
0.14870	0.02363
0.25071	-0.02739
0.07220	-0.10391
0.12320	0.04914
0.22521	0.15117
0.12320	0.02363
0.07220	0.02363
0.17421	-0.25695
0.30171	0.22769
0.12320	0.30422
0.12320	0.55929
0.14870	0.61031
0.14870	-0.00188
0.25071	0.15117
0.19971	-0.66508
0.14870	0.76336
0.22521	0.91640
0.12320	-0.18043
0.19971	-0.46102
0.14870	-0.23145
0.04670	-0.05289
0.07220	0.20219
0.19971	0.32972
0.04670	0.17668
0.09770	0.30422
0.22521	0.40625
0.32721	0.35523
0.14870	0.15117
0.07220	0.07465
-0.02981	-0.12942
0.17421	0.04914
0.25071	0.50828
0.04670	0.30422
0.22521	0.10015
0.27621	0.10015
0.12320	0.07465
0.17421	-0.76711
0.22521	0.61031
-0.08081	0.78886
-0.05531	0.10015
0.12320	-0.84363
0.19971	-0.12942
0.27621	0.76336
0.19971	0.43176
0.12320	0.32972
0.14870	0.17668
0.12320	0.07465
0.04670	0.58480
0.09770	0.15117
0.12320	-0.05289
0.12320	0.12566
0.12320	0.07465
0.07220	-0.05289
0.14870	-0.23145
0.14870	0.02363
0.27621	0.35523
0.12320	0.71234
0.17421	0.15117
0.12320	-0.12942
0.07220	-0.02739
0.17421	-0.02739
0.09770	0.43176
0.02119	0.45726
0.04670	-0.41000
0.27621	-0.56305
0.35272	0.55929
0.22521	0.86539
0.19971	1.45206
0.25071	-0.48652
-0.00431	-0.35899
-0.00431	-0.10391
0.09770	0.30422
0.17421	0.30422
0.09770	0.10015
0.09770	0.15117
0.12320	0.35523
0.12320	-0.05289
0.07220	-0.02739
0.09770	0.10015
0.12320	0.04914
0.19971	-0.00188
0.30171	-0.02739
0.09770	-0.07840
0.12320	0.78886
0.25071	0.40625
0.14870	0.07465
0.14870	-0.07840
0.04670	0.17668
0.14870	0.27871
0.22521	0.55929
0.14870	0.10015
0.14870	-0.05289
0.14870	0.04914
0.04670	-0.18043
-0.02981	0.10015
0.17421	0.58480
0.09770	0.58480
0.04670	-0.12942
0.09770	-0.61406
0.25071	0.17668
0.30171	0.40625
0.37822	0.20219
0.22521	-0.25695
0.02119	0.86539
0.07220	0.48277
0.07220	-0.02739
0.14870	-0.00188
0.19971	0.30422
0.12320	0.30422
0.09770	-0.10391
0.04670	-0.05289
0.14870	-0.05289
0.12320	-0.23145
0.09770	-0.05289
0.19971	0.76336
0.17421	0.20219
0.25071	0.40625
0.19971	0.50828
0.17421	0.22769
0.09770	-0.18043
0.12320	-0.35899
0.12320	0.12566
0.22521	0.40625
0.27621	0.20219
0.17421	0.10015
-0.02981	0.30422
-0.13181	0.35523
0.04670	0.17668
0.19971	-0.33348
0.30171	-0.66508
0.32721	0.63582
-0.00431	0.58480
0.02119	0.25320
0.45472	0.20219
0.50573	0.61031
0.32721	0.45726
0.22521	-0.18043
0.09770	-0.00188
0.09770	0.25320
0.09770	-0.10391
0.07220	0.48277
-0.00431	0.12566
-0.05531	-0.02739
0.12320	0.07465
0.09770	0.10015
0.12320	0.15117
0.12320	0.07465
0.12320	-0.07840
0.14870	-0.02739
0.12320	0.71234
0.27621	0.35523
0.32721	0.25320
0.19971	0.15117
0.14870	0.07465
0.14870	0.25320
0.19971	0.12566
0.22521	-0.00188
-0.10631	-0.61406
0.12320	-0.18043
0.02119	0.81437
0.04670	0.66132
0.14870	0.10015
0.25071	0.07465
0.22521	0.04914
0.09770	0.32972
0.17421	-0.02739
0.19971	0.15117
0.12320	0.20219
0.12320	0.30422
0.25071	0.15117
0.12320	0.94191
0.02119	0.48277
0.12320	-0.38449
0.12320	-0.61406
0.17421	0.07465
0.25071	0.30422
0.14870	-0.15492
0.04670	-0.38449
0.09770	0.17668
0.07220	0.17668
0.32721	0.76336
0.30171	1.19699
0.37822	0.02363
0.19971	0.07465
-0.08081	0.10015
-0.23382	0.12566
-0.28482	0.07465
-0.05531	-0.89465
0.32721	-0.48652
0.58223	0.53379
0.32721	0.68683
0.22521	0.73785
0.30171	0.58480
0.22521	0.32972
0.02119	-0.12942
0.02119	-0.28246
-0.02981	-0.12942
-0.02981	0.15117
0.02119	0.25320
0.12320	0.48277
0.07220	0.07465
0.17421	0.12566
0.22521	0.17668
0.17421	0.07465
0.14870	0.45726
0.22521	0.45726
0.12320	-0.15492
0.17421	0.12566
0.09770	-0.10391
0.09770	-0.63957
0.17421	-0.33348
0.22521	0.86539
0.19971	0.76336
0.17421	0.25320
0.09770	0.17668
0.12320	0.02363
0.19971	0.04914
0.22521	0.04914
0.22521	0.43176
0.19971	0.35523
0.12320	0.27871
-0.00431	0.38074
0.19971	-0.05289
0.22521	-0.23145
0.22521	0.35523
0.09770	-0.15492
0.07220	-0.12942
0.30171	0.25320
0.19971	-0.05289
0.04670	-0.33348
-0.00431	0.66132
0.12320	0.27871
0.14870	0.35523
0.32721	0.45726
0.19971	0.20219
0.14870	0.04914
-0.00431	0.02363
0.12320	0.15117
0.25071	0.15117
0.17421	0.04914
0.12320	0.45726
0.12320	0.20219
0.25071	-0.12942
0.09770	-0.28246
0.09770	-0.38449
0.19971	0.55929
0.19971	0.35523
0.07220	-0.00188
0.19971	-0.10391
0.02119	-0.23145
0.12320	0.48277
0.37822	0.76336
0.17421	1.17148
0.27621	0.61031
0.12320	-0.66508
-0.15732	-0.20594
-0.10631	-0.23145
0.25071	-0.41000
0.17421	0.20219
0.14870	0.40625
0.22521	0.55929
0.19971	0.22769
0.30171	-0.00188
0.19971	-0.02739
0.12320	-0.00188
-0.02981	0.07465
0.07220	0.22769
0.09770	0.25320
0.07220	0.30422
0.25071	0.32972
0.19971	0.43176
0.09770	0.12566
0.09770	0.07465
0.12320	0.25320
0.19971	0.20219
0.12320	-0.07840
0.12320	-0.53754
0.22521	-0.07840
0.19971	0.86539
0.09770	0.38074
0.12320	-0.18043
0.32721	-0.10391
0.19971	0.22769
0.09770	0.40625
-0.00431	0.17668
0.12320	0.27871
0.04670	0.10015
0.07220	0.15117
0.22521	0.10015
0.19971	0.20219
0.25071	0.30422
0.22521	-0.05289
0.22521	0.22769
0.09770	0.25320
-0.02981	-0.05289
0.14870	-0.92016
0.17421	0.45726
0.12320	0.76336
0.32721	0.43176
0.17421	0.27871
0.04670	0.17668
0.12320	0.15117
0.07220	-0.02739
0.22521	0.17668
0.32721	0.10015
0.17421	-0.05289
0.09770	0.04914
0.19971	0.63582
0.19971	-0.00188
0.07220	-0.15492
0.12320	0.07465
0.19971	0.07465
0.09770	0.07465
0.12320	0.43176
0.19971	0.45726
0.09770	-0.02739
0.12320	0.50828
0.17421	0.15117
0.04670	-0.23145
0.17421	-0.18043
0.35272	0.15117
0.09770	0.73785
0.07220	0.81437
0.09770	0.35523
-0.00431	-0.76711
-0.10631	-0.43551
0.22521	0.45726
0.48022	0.73785
0.40372	0.45726
0.17421	0.12566
0.14870	0.10015
0.19971	0.12566
0.17421	-0.12942
0.12320	-0.12942
0.12320	0.35523
0.07220	0.07465
-0.05531	-0.23145
0.09770	0.02363
0.14870	0.76336
0.07220	0.66132
0.14870	0.58480
0.22521	0.04914
0.30171	-0.07840
0.07220	-0.20594
0.04670	-0.35899
0.17421	0.32972
0.27621	0.38074
0.17421	-0.07840
0.09770	-0.33348
0.22521	-0.00188
0.22521	0.35523
0.09770	1.32453
0.09770	0.10015
0.14870	-0.00188
0.14870	0.10015
-0.00431	-0.15492
0.19971	0.25320
0.19971	0.38074
0.25071	-0.05289
0.09770	-0.15492
0.07220	-0.18043
0.17421	-0.05289
0.22521	0.27871
0.14870	-0.00188
0.07220	0.15117
0.02119	0.07465
0.04670	0.40625
0.02119	0.55929
0.19971	0.78886
0.17421	-0.20594
0.32721	0.02363
0.14870	0.02363
0.07220	-0.33348
0.25071	-0.02739
0.27621	0.20219
0.19971	0.35523
0.12320	0.30422
0.09770	0.32972
0.22521	0.38074
-0.00431	0.04914
0.02119	-0.41000
0.17421	-0.05289
0.14870	0.20219
0.09770	0.20219
0.12320	0.20219
0.22521	0.38074
0.27621	0.30422
0.19971	0.53379
0.07220	-0.00188
-0.10631	-0.20594
0.12320	-0.28246
0.35272	0.53379
0.19971	0.15117
0.27621	0.96742
0.27621	0.43176
0.27621	-0.15492
-0.00431	-0.02739
0.02119	0.02363
-0.02981	0.38074
0.09770	-0.10391
0.22521	-0.94566
0.22521	-0.02739
0.30171	1.29902
0.27621	0.71234
0.12320	0.04914
0.17421	0.20219
0.19971	0.02363
-0.02981	0.10015
0.09770	-0.23145
0.09770	-0.35899
0.07220	0.15117
0.02119	0.40625
0.25071	0.43176
0.30171	0.30422
0.14870	0.22769
0.19971	0.20219
0.09770	0.17668
0.09770	0.17668
0.22521	0.12566
0.22521	-0.12942
0.19971	0.45726
0.12320	-0.38449
0.09770	0.35523
0.12320	0.45726
0.14870	0.53379
0.25071	0.30422
0.19971	-0.10391
0.09770	0.15117
-0.00431	-0.38449
0.12320	-0.35899
0.25071	0.17668
0.25071	0.25320
0.25071	0.55929
0.14870	0.50828
0.04670	0.45726
0.17421	0.38074
0.14870	-0.15492
0.17421	-0.25695
0.09770	0.22769
-0.08081	0.61031
-0.02981	-0.00188
0.27621	-0.10391
0.22521	-0.02739
0.14870	0.43176
0.25071	-0.07840
0.35272	0.15117
0.17421	0.25320
0.14870	-0.25695
0.22521	-0.23145
0.14870	0.15117
0.09770	0.55929
0.04670	0.35523
0.17421	0.17668
0.12320	0.07465
0.02119	0.10015
0.09770	0.15117
0.14870	-0.05289
0.27621	0.63582
0.14870	0.55929
0.04670	0.48277
0.07220	0.73785
0.14870	-0.35899
0.27621	-1.20074
0.35272	-0.58856
0.25071	0.53379
0.09770	0.45726
0.02119	0.27871
0.22521	0.15117
0.19971	0.94191
0.19971	0.53379
0.12320	0.35523
0.22521	0.45726
0.19971	0.04914
0.04670	-0.12942
0.09770	-0.46102
0.14870	-0.20594
0.17421	0.17668
0.14870	0.35523
0.09770	0.12566
0.17421	0.12566
0.09770	0.25320
0.17421	0.02363
0.12320	-0.10391
0.09770	0.04914
0.02119	0.50828
0.17421	0.66132
0.30171	0.02363
0.25071	0.78886
0.30171	0.32972
0.19971	0.07465
0.12320	0.17668
0.09770	-0.69059
-0.05531	0.10015
-0.05531	-0.05289
0.25071	0.30422
0.17421	-0.12942
0.30171	0.22769
0.22521	0.63582
0.14870	0.35523
0.19971	-0.20594
0.04670	-0.28246
0.07220	1.55410
0.17421	0.22769
-0.08081	-0.25695
-0.10631	-0.25695
0.12320	-0.10391
0.22521	0.45726
0.30171	-0.00188
0.40372	0.15117
0.35272	0.68683
0.30171	0.45726
0.17421	0.04914
0.04670	-0.20594
