0.09770	0.25320
0.14870	0.15117
0.19971	0.17668
0.22521	0.12566
0.25071	0.12566
0.19971	0.04914
0.07220	0.04914
0.04670	0.22769
0.07220	0.32972
0.12320	-0.12942
0.14870	-0.23145
0.14870	0.12566
0.17421	0.20219
0.14870	0.30422
0.19971	0.30422
0.22521	0.22769
0.19971	0.27871
0.19971	0.17668
0.17421	0.20219
0.19971	0.15117
0.14870	0.17668
0.14870	0.20219
0.17421	0.22769
0.12320	0.25320
0.17421	0.12566
0.25071	0.17668
0.22521	0.35523
0.22521	-0.15492
0.19971	-0.20594
0.17421	0.17668
0.14870	0.27871
0.09770	0.25320
0.12320	0.20219
0.12320	0.32972
0.22521	0.17668
0.19971	-0.00188
0.12320	-0.05289
0.22521	0.12566
0.12320	0.15117
0.12320	0.15117
0.04670	0.20219
0.17421	0.25320
0.07220	0.12566
0.17421	0.15117
0.22521	0.07465
0.22521	0.07465
0.19971	0.20219
0.14870	0.20219
0.07220	0.25320
0.17421	0.27871
0.14870	0.10015
0.22521	-0.05289
0.14870	0.10015
0.09770	0.17668
0.07220	0.20219
0.14870	0.38074
0.17421	-0.00188
0.19971	-0.07840
0.12320	0.07465
0.07220	0.15117
0.09770	0.15117
0.19971	0.10015
0.22521	0.20219
0.17421	0.20219
0.09770	0.22769
0.09770	0.15117
0.12320	0.12566
0.14870	0.07465
0.07220	0.17668
0.09770	0.15117
0.12320	0.25320
0.14870	0.17668
0.19971	0.15117
0.22521	0.15117
0.14870	0.10015
0.12320	0.20219
0.04670	0.20219
0.12320	0.15117
0.14870	0.12566
0.12320	-0.05289
0.19971	-0.05289
0.09770	-0.10391
0.09770	0.27871
0.14870	0.40625
0.17421	0.27871
0.14870	0.15117
0.17421	0.22769
0.12320	0.07465
0.12320	0.07465
0.19971	0.15117
0.09770	0.20219
0.17421	0.12566
0.22521	0.12566
0.17421	0.07465
0.14870	0.25320
0.17421	0.32972
0.07220	0.07465
0.12320	-0.00188
0.19971	-0.00188
0.12320	0.15117
0.17421	0.22769
0.09770	0.20219
0.14870	0.12566
0.22521	0.17668
0.12320	0.17668
0.17421	0.20219
0.09770	0.22769
0.14870	0.20219
0.22521	0.10015
0.19971	0.20219
0.17421	0.22769
0.09770	0.12566
0.17421	-0.00188
0.22521	0.20219
0.12320	0.25320
0.12320	0.15117
0.12320	0.07465
0.17421	0.02363
0.14870	0.15117
0.07220	0.15117
0.09770	0.15117
0.19971	0.15117
0.27621	0.20219
0.17421	0.15117
0.17421	0.07465
0.07220	0.04914
0.14870	0.15117
0.12320	0.15117
0.19971	0.32972
0.17421	0.12566
0.14870	0.22769
0.12320	0.04914
0.17421	-0.00188
0.19971	0.15117
0.17421	0.15117
0.09770	0.30422
0.12320	0.17668
0.09770	0.15117
0.17421	0.17668
0.19971	0.22769
0.22521	0.12566
0.17421	0.07465
0.17421	0.07465
0.09770	0.15117
0.07220	0.35523
0.09770	0.15117
0.12320	-0.05289
0.07220	0.02363
0.07220	0.04914
0.07220	0.10015
0.09770	0.27871
0.07220	0.22769
0.14870	0.17668
0.14870	0.12566
0.19971	0.20219
0.22521	0.15117
0.14870	0.20219
0.22521	0.20219
0.19971	0.25320
0.22521	0.20219
0.22521	0.10015
0.25071	0.10015
0.25071	0.12566
0.17421	0.20219
0.19971	0.15117
0.12320	0.22769
0.14870	0.17668
0.09770	0.07465
0.12320	-0.15492
0.17421	0.15117
0.12320	0.12566
0.14870	0.12566
0.09770	0.04914
0.12320	0.17668
0.09770	0.17668
0.07220	0.15117
0.12320	0.22769
0.09770	0.32972
0.22521	0.32972
0.22521	0.15117
0.19971	0.04914
0.14870	-0.05289
0.14870	0.04914
0.22521	0.40625
0.12320	0.10015
0.09770	0.10015
0.07220	0.02363
0.07220	0.07465
0.09770	0.25320
0.17421	0.25320
0.12320	0.15117
0.12320	0.15117
0.14870	0.12566
0.27621	0.20219
0.22521	0.15117
0.17421	-0.02739
0.07220	0.07465
0.04670	0.15117
0.07220	0.17668
0.14870	0.15117
0.17421	0.25320
0.19971	0.10015
0.22521	0.10015
0.22521	0.12566
0.22521	0.10015
0.19971	0.10015
0.12320	0.10015
0.12320	0.17668
0.12320	0.15117
0.07220	0.22769
0.07220	0.25320
0.14870	0.15117
0.19971	0.15117
0.22521	0.15117
0.22521	0.02363
0.25071	0.04914
0.12320	-0.07840
0.09770	0.22769
0.12320	0.27871
0.09770	0.30422
0.12320	0.17668
0.17421	0.20219
0.19971	0.04914
0.25071	0.07465
0.14870	0.20219
0.19971	0.27871
0.04670	0.15117
-0.00431	0.04914
0.14870	0.04914
0.25071	0.10015
0.17421	0.25320
0.14870	0.27871
0.14870	0.17668
0.09770	0.04914
0.09770	-0.02739
0.09770	0.04914
0.04670	0.17668
0.09770	0.22769
0.19971	0.25320
0.14870	0.32972
0.12320	0.07465
0.17421	0.07465
0.22521	0.22769
0.22521	0.20219
0.25071	0.32972
0.22521	0.25320
0.22521	0.15117
0.17421	0.04914
0.19971	0.12566
0.12320	0.15117
0.12320	-0.00188
0.14870	0.02363
0.14870	0.10015
0.12320	0.10015
0.09770	0.15117
0.12320	0.12566
0.07220	0.15117
0.12320	0.22769
0.14870	0.17668
0.14870	0.12566
0.14870	0.27871
0.12320	0.30422
0.17421	0.43176
0.25071	0.40625
0.25071	0.04914
0.22521	0.10015
0.12320	0.07465
0.14870	0.12566
0.17421	0.15117
0.17421	0.04914
0.25071	0.02363
0.17421	0.12566
0.12320	0.04914
0.14870	0.30422
0.14870	0.10015
0.12320	0.15117
0.07220	0.10015
0.04670	-0.07840
0.12320	0.15117
0.07220	0.25320
0.12320	0.15117
0.09770	0.17668
0.07220	0.12566
0.09770	0.10015
0.09770	0.07465
0.12320	0.12566
0.07220	0.12566
0.04670	0.12566
-0.00431	0.10015
0.04670	0.07465
0.09770	0.17668
0.14870	0.07465
0.12320	0.10015
0.07220	0.12566
0.09770	0.15117
0.14870	0.15117
0.04670	0.25320
0.14870	0.32972
0.19971	0.10015
0.17421	-0.10391
0.19971	0.30422
0.17421	0.43176
0.22521	0.53379
0.12320	0.10015
0.07220	-0.23145
0.14870	-0.10391
0.12320	-0.02739
0.12320	-0.18043
0.12320	0.27871
0.12320	0.32972
0.19971	0.32972
0.14870	0.25320
0.19971	0.10015
0.12320	0.12566
0.17421	0.12566
0.22521	0.10015
0.14870	0.12566
0.09770	0.15117
0.14870	0.17668
0.02119	0.20219
0.09770	0.22769
0.19971	0.15117
0.17421	0.07465
0.17421	0.25320
0.19971	0.15117
0.17421	0.20219
0.19971	0.22769
0.17421	0.20219
0.12320	0.10015
0.17421	0.02363
0.17421	0.04914
0.07220	0.15117
0.09770	0.27871
0.09770	0.55929
0.17421	0.32972
0.14870	-0.05289
0.09770	-0.25695
0.22521	-0.02739
0.17421	0.17668
0.14870	0.32972
0.12320	0.25320
0.17421	0.17668
0.14870	0.27871
0.19971	0.25320
0.19971	0.17668
0.22521	0.20219
0.22521	0.15117
0.17421	0.15117
0.12320	-0.25695
0.12320	0.27871
0.17421	0.35523
0.17421	0.32972
0.12320	0.30422
0.12320	0.10015
0.14870	0.15117
0.12320	0.07465
0.12320	0.10015
0.09770	0.04914
0.22521	0.10015
0.22521	0.10015
0.17421	0.15117
0.22521	0.04914
0.14870	0.07465
0.12320	0.15117
0.07220	0.53379
0.12320	0.40625
0.22521	-0.02739
0.12320	-0.12942
0.09770	0.10015
0.09770	0.25320
0.04670	0.35523
0.14870	-0.41000
0.25071	0.02363
0.22521	0.04914
0.14870	0.20219
0.22521	0.50828
0.07220	0.38074
-0.02981	0.27871
0.19971	0.20219
0.14870	0.15117
0.25071	0.12566
0.17421	0.12566
0.07220	0.04914
0.09770	0.02363
0.14870	0.07465
0.19971	0.20219
0.14870	-0.35899
0.12320	0.07465
0.02119	0.43176
0.12320	0.20219
0.12320	0.15117
0.22521	0.17668
0.27621	0.10015
0.17421	0.22769
0.09770	0.17668
0.14870	0.15117
0.14870	0.10015
0.17421	0.25320
0.17421	0.27871
0.12320	0.17668
0.04670	0.30422
0.14870	-0.43551
0.22521	0.15117
0.17421	0.07465
0.09770	0.25320
0.17421	0.35523
0.14870	0.30422
0.12320	0.17668
0.12320	0.12566
0.12320	-0.05289
0.14870	0.22769
0.22521	0.27871
0.14870	0.02363
0.17421	0.04914
0.14870	0.15117
0.09770	0.35523
0.12320	0.55929
0.12320	0.17668
0.17421	-0.28246
0.12320	-0.12942
0.14870	0.15117
0.12320	0.15117
0.17421	0.17668
0.22521	0.04914
0.22521	0.07465
0.19971	0.02363
0.12320	0.50828
0.04670	0.43176
0.07220	0.20219
0.14870	-0.00188
0.22521	-0.05289
0.22521	0.35523
0.17421	0.15117
0.12320	0.22769
0.19971	0.25320
0.22521	0.30422
0.14870	-0.12942
0.12320	0.20219
0.04670	0.35523
0.07220	0.20219
0.14870	0.15117
0.14870	0.04914
0.12320	-0.00188
0.25071	-0.18043
0.14870	0.12566
0.14870	0.17668
0.12320	0.43176
0.09770	0.50828
0.04670	0.40625
0.12320	0.02363
0.19971	0.12566
0.17421	0.07465
0.12320	-0.43551
0.14870	0.02363
0.14870	0.38074
0.17421	0.25320
0.09770	0.27871
0.17421	0.32972
0.19971	0.38074
0.19971	-0.02739
0.17421	0.12566
0.17421	0.10015
0.17421	0.07465
0.19971	0.02363
0.09770	0.15117
0.12320	-0.02739
0.12320	0.04914
0.07220	-0.02739
0.19971	-0.15492
0.14870	0.25320
0.19971	0.30422
0.12320	0.30422
0.12320	-0.23145
0.14870	-0.07840
0.12320	-0.12942
0.19971	0.17668
0.12320	0.17668
0.07220	0.32972
0.14870	0.25320
0.17421	0.43176
0.22521	0.15117
0.22521	0.12566
0.22521	0.04914
0.19971	0.04914
0.14870	0.10015
0.12320	0.04914
0.12320	0.20219
0.04670	0.35523
0.12320	-0.41000
0.07220	0.15117
0.09770	0.22769
0.09770	0.22769
0.19971	0.48277
0.14870	0.32972
0.17421	0.17668
0.22521	0.15117
0.19971	-0.00188
0.12320	0.00000
0.14870	0.00000
0.17421	0.00000
0.07220	0.10015
0.14870	0.48277
0.19971	0.38074
0.22521	0.66132
0.12320	-0.25695
0.12320	-0.97117
0.07220	0.15117
0.14870	0.40625
0.12320	0.17668
0.19971	0.30422
0.14870	0.25320
0.12320	0.40625
0.12320	0.17668
0.04670	0.38074
0.07220	0.55929
0.14870	-0.43551
0.09770	0.17668
0.14870	-0.76711
0.19971	-0.71609
0.12320	0.53379
0.14870	1.04394
0.14870	0.17668
0.12320	0.61031
-0.02981	0.58480
0.09770	0.32972
0.58223	0.07465
0.40372	0.04914
0.19971	0.07465
0.02119	-0.18043
-0.15732	0.07465
-0.02981	0.32972
0.17421	0.48277
0.14870	-0.33348
0.27621	0.15117
0.22521	-0.35899
0.19971	0.10015
0.12320	-0.74160
0.09770	-0.25695
-0.05531	0.83988
0.58223	1.01843
0.25071	0.53379
-0.00431	0.53379
0.19971	0.35523
0.37822	0.68683
-0.64185	-0.20594
0.30171	-0.30797
0.19971	0.07465
0.45472	0.27871
0.12320	0.15117
-0.08081	-0.10391
0.04670	-0.10391
0.48022	-0.46102
0.86275	0.43176
0.07220	0.32972
-0.84586	0.27871
0.12320	0.55929
0.19971	0.27871
0.22521	-1.58336
0.19971	1.06945
0.17421	-0.12942
0.17421	-0.00188
0.27621	-0.63957
0.22521	1.06945
0.12320	1.22250
0.02119	0.63582
0.04670	0.83988
0.17421	-0.48652
-0.00431	-1.32828
0.37822	-0.92016
0.40372	-0.05289
0.17421	0.76336
-0.20832	0.25320
0.48022	0.02363
0.22521	0.63582
-1.10088	0.63582
-0.08081	0.58480
1.09226	-0.51203
0.17421	1.24800
-0.20832	-0.00188
0.48022	-0.20594
0.27621	-0.23145
0.35272	-0.10391
0.19971	-1.88945
0.07220	-0.00188
-0.08081	0.55929
0.02119	0.94191
0.22521	0.61031
0.37822	0.32972
0.30171	0.83988
-0.18282	0.12566
0.25071	-0.02739
0.60773	-0.66508
0.17421	0.07465
-0.23382	0.63582
-0.10631	1.52859
-0.02981	1.01843
0.04670	-0.25695
0.14870	-2.96078
0.09770	-2.45062
0.32721	1.40105
0.40372	1.88570
0.37822	1.60511
0.27621	1.35003
0.25071	0.91640
0.14870	-0.53754
0.04670	-0.25695
0.30171	0.61031
0.07220	-0.43551
0.32721	0.99292
-0.23382	-1.58336
-0.46334	-1.40480
0.30171	-1.88945
0.22521	0.76336
0.25071	1.09496
0.12320	1.35003
0.09770	0.86539
0.53123	0.71234
0.30171	0.22769
0.04670	-0.23145
-0.13181	0.53379
0.27621	0.78886
0.17421	0.02363
0.07220	-0.74160
0.27621	0.27871
0.32721	-3.39441
-0.10631	0.83988
-0.10631	1.12046
-0.13181	2.37034
0.88825	-3.13933
-0.28482	0.27871
0.55673	0.81437
-0.02981	0.25320
0.35272	1.35003
0.22521	1.80917
0.19971	-0.07840
0.02119	0.78886
-0.20832	-3.47093
0.65874	-0.00188
0.32721	0.68683
0.25071	0.71234
-0.79486	0.63582
-0.18282	0.45726
0.27621	1.01843
0.37822	-1.07320
0.55673	0.61031
0.48022	-0.35899
0.50573	-0.61406
-0.15732	-0.28246
-0.13181	0.17668
-0.10631	0.89089
-0.02981	0.83988
0.07220	-0.33348
0.19971	0.73785
0.09770	1.70714
0.30171	-0.10391
0.17421	0.38074
0.35272	-2.65468
0.48022	0.07465
0.07220	1.55410
0.17421	0.94191
0.07220	-0.12942
-0.61635	0.12566
0.32721	0.83988
0.22521	1.37554
0.32721	-1.22625
0.27621	-1.30277
0.32721	0.40625
0.19971	0.10015
-0.05531	-0.05289
0.07220	1.09496
0.17421	0.53379
0.22521	0.91640
0.27621	0.81437
0.07220	-0.00188
0.04670	-0.05289
-0.05531	-1.60887
0.42922	1.68163
0.22521	-2.52714
0.12320	0.63582
-0.08081	0.91640
0.12320	1.01843
-0.02981	1.19699
-0.05531	-1.73640
-0.18282	0.68683
0.60773	0.66132
0.83725	0.15117
0.48022	0.40625
0.17421	1.14597
-0.13181	-0.51203
-0.10631	-3.16484
0.02119	0.15117
0.27621	0.68683
0.07220	1.24800
-0.08081	0.35523
0.09770	0.83988
0.17421	-0.12942
0.14870	-0.35899
0.17421	0.48277
0.35272	1.37554
-0.08081	-0.18043
0.17421	0.20219
0.14870	0.15117
0.22521	0.25320
0.22521	-0.18043
0.17421	-0.79262
0.12320	-0.15492
0.04670	0.81437
-0.20832	0.76336
0.50573	-1.25176
0.42922	0.81437
0.07220	1.24800
-0.00431	1.35003
0.02119	0.58480
0.07220	0.99292
0.14870	-2.90976
0.32721	0.38074
0.04670	1.29902
-0.08081	-0.07840
0.22521	0.10015
0.35272	-0.20594
0.30171	0.27871
0.12320	0.48277
0.27621	0.38074
0.17421	0.04914
-0.59084	0.32972
-0.08081	0.50828
0.48022	0.38074
0.37822	-1.55785
0.25071	0.35523
0.25071	-0.94566
0.22521	0.89089
0.09770	0.25320
0.22521	0.25320
0.17421	-0.12942
0.09770	0.30422
-0.05531	0.30422
0.12320	1.32453
0.02119	0.35523
0.09770	0.86539
-0.08081	-0.58856
0.55673	-0.81812
0.32721	-0.20594
0.02119	-0.46102
0.63323	0.15117
0.02119	0.94191
0.22521	1.78367
0.27621	0.91640
-0.66735	-1.48133
0.19971	0.48277
0.48022	-0.92016
0.25071	1.01843
0.25071	0.30422
0.19971	-0.66508
0.35272	0.61031
0.42922	1.32453
0.27621	0.22769
0.12320	0.38074
0.04670	0.25320
0.12320	0.50828
0.07220	0.35523
0.12320	-0.25695
0.22521	-1.91496
0.22521	-0.53754
0.17421	2.70194
0.30171	-0.76711
-0.08081	0.63582
0.22521	-2.47613
0.09770	0.20219
0.02119	0.40625
0.14870	2.24281
0.17421	-2.32308
-0.23382	1.68163
0.27621	1.93671
0.14870	0.48277
0.17421	-1.07320
-0.15732	0.66132
0.37822	0.73785
0.07220	-1.73640
0.14870	-0.61406
-0.08081	-0.41000
0.09770	0.30422
-0.18282	-1.02219
1.65330	0.27871
-0.08081	-0.58856
-1.20288	1.04394
-0.31033	0.91640
0.19971	0.53379
0.40372	0.17668
0.76074	1.45206
0.27621	-1.27726
-0.10631	1.04394
0.22521	-0.53754
0.37822	0.22769
-1.04987	0.50828
0.70974	0.89089
2.01032	0.10015
-0.00431	-0.74160
0.14870	-3.57296
-0.43783	0.50828
-0.48884	1.57960
0.02119	-1.09871
0.09770	-0.99668
0.30171	1.78367
0.25071	2.70194
0.27621	0.81437
0.04670	0.68683
0.32721	-2.32308
0.68424	-0.25695
0.22521	1.01843
-0.00431	0.25320
0.12320	0.15117
0.09770	0.38074
0.02119	0.17668
0.07220	0.22769
0.14870	-0.35899
0.19971	-0.46102
0.02119	1.09496
0.25071	-4.69530
0.17421	0.07465
0.12320	1.14597
0.09770	2.21730
0.12320	1.78367
0.09770	0.76336
-0.18282	0.32972
1.04126	-1.45582
0.70974	-0.43551
-0.23382	0.66132
-1.07538	0.30422
0.96476	0.15117
0.37822	-0.25695
0.14870	0.25320
0.02119	0.17668
0.12320	-0.02739
0.07220	-0.05289
-0.79486	0.38074
2.03582	0.22769
-0.23382	0.48277
-0.92237	-0.81812
0.32721	-0.94566
0.07220	-0.58856
0.30171	1.70714
0.04670	1.88570
0.14870	-1.25176
0.14870	0.10015
0.04670	1.52859
0.09770	1.04394
0.32721	0.68683
0.17421	0.58480
0.12320	0.55929
0.12320	-0.00188
0.12320	0.22769
0.17421	-2.29757
0.14870	-0.30797
0.27621	-0.61406
0.07220	1.09496
0.37822	-0.74160
0.02119	0.86539
-0.25932	0.66132
-0.13181	0.27871
0.65874	-0.30797
0.07220	1.12046
0.48022	1.17148
0.32721	-1.88945
-0.00431	0.71234
-0.23382	0.15117
0.37822	0.12566
0.42922	0.27871
-0.31033	-0.35899
-0.23382	-0.35899
0.68424	0.91640
0.45472	1.12046
-0.48884	0.45726
0.17421	-1.04770
0.50573	-1.17523
0.40372	-0.12942
0.14870	0.99292
0.07220	-0.30797
0.12320	-0.79262
0.04670	1.57960
0.27621	0.86539
-0.00431	-0.30797
0.07220	-1.17523
0.04670	0.99292
-0.00431	0.20219
0.30171	0.53379
0.32721	0.12566
0.27621	0.20219
-0.05531	-0.23145
0.02119	-0.15492
0.14870	0.15117
0.19971	-0.20594
0.30171	0.22769
0.04670	0.50828
0.30171	0.38074
0.48022	0.20219
0.45472	0.55929
0.02119	0.25320
0.35272	0.02363
0.02119	-0.71609
0.09770	-0.12942
0.02119	0.55929
-0.08081	0.40625
0.14870	1.32453
0.32721	1.73265
0.17421	-1.43031
0.19971	-1.50683
0.07220	0.22769
-0.53984	0.10015
1.16877	1.37554
0.40372	0.35523
-0.10631	0.02363
-0.00431	0.76336
0.19971	0.68683
-0.08081	-0.69059
0.27621	-0.05289
0.14870	-1.63437
0.12320	0.27871
0.27621	0.76336
0.27621	-0.05289
-0.31033	0.94191
-0.10631	2.14077
0.45472	-0.84363
0.12320	0.32972
0.35272	-1.27726
0.32721	-0.53754
-0.00431	-0.02739
-0.08081	1.01843
-0.02981	0.45726
0.07220	0.91640
0.12320	0.63582
-0.18282	-0.20594
0.73524	-1.48133
0.09770	0.96742
-0.05531	0.50828
0.17421	0.35523
0.19971	-0.35899
0.04670	0.12566
-0.02981	0.81437
0.07220	0.55929
0.07220	0.68683
0.30171	-0.15492
0.32721	0.10015
-0.02981	0.35523
0.42922	-0.15492
0.12320	0.66132
0.14870	-0.15492
0.22521	0.07465
-0.00431	-0.10391
0.17421	0.66132
0.17421	0.45726
0.17421	-0.81812
0.42922	0.10015
0.27621	-0.38449
0.25071	-0.07840
0.02119	0.76336
-0.05531	1.17148
-0.02981	1.01843
0.07220	-0.86914
0.07220	-0.18043
0.02119	0.53379
-0.31033	-0.46102
0.73524	0.48277
0.42922	-0.48652
-0.13181	0.17668
0.07220	-0.18043
0.07220	0.30422
0.19971	0.76336
0.04670	-0.18043
0.32721	-0.63957
0.19971	0.12566
0.02119	1.06945
0.17421	-0.76711
0.25071	1.04394
0.09770	0.78886
0.19971	0.96742
0.12320	-0.12942
0.14870	-1.71090
0.07220	-0.81812
0.17421	1.17148
0.09770	0.66132
0.27621	0.86539
0.32721	-0.30797
0.17421	0.35523
0.12320	0.15117
0.14870	-1.20074
0.02119	0.45726
0.04670	0.86539
0.14870	0.73785
0.09770	0.07465
0.07220	0.04914
0.17421	0.38074
0.14870	-0.33348
0.07220	0.17668
0.37822	0.71234
0.53123	0.35523
-0.33583	-2.11902
0.40372	0.22769
0.30171	2.19179
-0.66735	-0.38449
0.19971	-0.74160
0.65874	1.01843
0.09770	0.38074
0.30171	-0.07840
0.07220	0.68683
0.07220	0.50828
0.14870	-0.66508
0.19971	-0.43551
0.17421	-0.02739
0.12320	0.17668
0.14870	0.43176
0.12320	0.86539
0.12320	0.04914
0.12320	0.10015
0.22521	0.43176
0.12320	0.30422
0.14870	-1.27726
0.12320	0.38074
0.19971	0.12566
0.14870	0.45726
-0.05531	0.86539
0.17421	0.61031
0.17421	0.73785
0.12320	-1.78742
0.17421	-0.10391
0.19971	0.58480
0.12320	0.35523
0.14870	0.78886
-0.08081	0.25320
0.30171	-1.94047
0.14870	-0.35899
0.02119	0.15117
0.48022	0.73785
-0.20832	0.53379
0.42922	0.83988
0.19971	0.50828
0.07220	0.66132
-0.05531	-0.76711
0.02119	0.35523
0.09770	0.20219
0.32721	-0.92016
0.07220	2.08976
0.07220	-2.27207
0.17421	1.45206
0.32721	-0.61406
0.25071	0.73785
0.04670	0.30422
-0.05531	0.53379
0.55673	0.04914
0.42922	-0.35899
-0.05531	0.61031
-0.02981	-0.71609
0.07220	-0.30797
0.04670	-0.15492
0.02119	-0.41000
-0.08081	1.52859
0.19971	0.43176
0.25071	-0.94566
0.22521	-1.07320
0.22521	1.35003
0.17421	0.76336
0.09770	0.02363
0.07220	0.35523
-0.02981	1.29902
0.40372	0.45726
0.17421	0.45726
0.09770	0.91640
0.14870	-1.07320
0.12320	-0.02739
0.02119	0.55929
0.60773	0.04914
0.22521	-0.92016
0.07220	-0.63957
0.02119	0.22769
0.04670	-0.61406
0.09770	0.94191
0.30171	1.06945
0.12320	-0.71609
0.12320	1.24800
0.12320	0.25320
0.14870	0.86539
0.12320	0.58480
0.12320	0.66132
0.12320	0.35523
0.22521	-2.32308
0.17421	0.68683
0.12320	0.04914
-0.00431	0.22769
-0.00431	0.45726
0.09770	0.30422
0.22521	0.83988
0.22521	-0.35899
0.17421	-0.12942
0.12320	0.22769
-0.18282	1.01843
0.88825	0.32972
0.42922	-0.94566
-0.13181	-1.25176
-0.08081	-0.81812
-0.02981	1.55410
0.14870	0.12566
0.07220	0.50828
0.07220	0.73785
0.22521	0.10015
0.12320	-0.99668
0.17421	0.55929
0.19971	0.61031
0.27621	1.14597
0.12320	-1.48133
0.14870	-0.07840
0.25071	0.86539
0.12320	-0.07840
0.12320	0.68683
0.04670	1.70714
0.12320	-1.78742
0.09770	-0.41000
0.14870	0.81437
0.22521	-1.99148
0.09770	0.83988
0.14870	0.66132
0.17421	1.29902
0.09770	0.99292
0.27621	0.76336
0.25071	-1.76191
0.07220	-0.30797
-0.00431	0.68683
0.81175	0.17668
-0.10631	-0.10391
-0.28482	-0.81812
0.19971	1.17148
0.22521	-1.07320
-0.00431	-0.92016
-0.00431	1.06945
0.22521	1.96222
0.09770	-0.63957
0.04670	-2.04250
0.09770	0.76336
0.22521	0.40625
-0.15732	1.37554
0.32721	0.66132
0.37822	0.12566
-0.00431	0.22769
-0.02981	0.45726
0.35272	-0.76711
-0.10631	0.25320
-0.10631	-0.48652
0.07220	0.94191
0.14870	-0.05289
0.17421	0.55929
0.17421	0.40625
0.14870	-0.56305
0.17421	-2.29757
0.09770	0.66132
0.19971	2.21730
0.17421	-0.12942
0.19971	-0.86914
0.14870	1.83468
0.17421	0.76336
0.12320	0.04914
0.07220	-0.66508
0.02119	0.27871
0.27621	-0.46102
0.12320	1.06945
0.07220	0.07465
0.22521	-0.51203
0.30171	-1.45582
0.09770	1.04394
0.02119	-0.86914
0.17421	1.17148
0.07220	0.91640
0.04670	1.01843
0.02119	-0.76711
0.09770	-1.55785
0.27621	0.22769
0.27621	1.55410
0.12320	1.57960
-0.02981	0.40625
0.09770	-0.97117
0.27621	0.86539
0.19971	-0.35899
-0.05531	0.66132
0.12320	-0.05289
0.17421	0.35523
0.17421	1.75816
0.22521	-0.86914
0.14870	-2.47613
0.12320	0.66132
-0.28482	0.32972
0.63323	0.22769
0.25071	1.01843
-0.05531	0.53379
0.07220	0.27871
0.14870	0.40625
0.12320	0.94191
0.09770	-0.33348
0.22521	0.12566
0.30171	0.50828
0.07220	0.17668
0.17421	1.14597
-0.46334	-0.18043
0.83725	-0.05289
0.37822	-1.43031
-0.13181	1.29902
0.02119	-1.07320
0.19971	1.88570
-0.00431	-0.97117
0.07220	0.43176
-0.05531	-1.14973
0.09770	-1.37929
0.12320	2.24281
0.12320	0.94191
0.09770	0.43176
0.22521	0.25320
0.19971	0.35523
0.22521	0.15117
0.25071	0.89089
0.14870	0.30422
0.07220	1.88570
0.12320	-1.43031
0.02119	-1.58336
-0.02981	0.30422
0.17421	1.45206
0.35272	0.10015
0.12320	0.35523
0.25071	-0.66508
0.02119	-3.03730
0.12320	0.32972
0.12320	0.53379
-0.08081	3.46718
0.55673	-0.66508
0.30171	0.78886
-0.00431	0.89089
-0.00431	-1.20074
0.25071	-0.15492
0.17421	1.80917
0.12320	0.35523
0.17421	0.04914
0.09770	-0.10391
0.19971	-0.18043
-0.00431	-1.88945
0.09770	0.12566
-0.02981	-0.23145
0.14870	0.48277
0.25071	0.71234
0.09770	0.38074
0.40372	-0.23145
0.12320	0.86539
0.22521	0.68683
-0.13181	-0.33348
0.42922	0.32972
0.22521	0.25320
-0.08081	0.78886
0.09770	-0.38449
0.14870	0.38074
0.17421	-0.07840
0.12320	-0.25695
0.12320	0.22769
0.12320	0.15117
0.12320	0.15117
0.12320	0.25320
-0.00431	0.30422
0.25071	0.27871
-0.08081	1.17148
0.60773	-0.53754
0.19971	-0.05289
-0.08081	-1.17523
0.02119	-0.28246
0.27621	0.86539
0.09770	0.07465
0.12320	0.55929
-0.02981	0.71234
0.14870	0.61031
0.09770	-0.33348
0.07220	1.14597
0.12320	-0.58856
0.12320	-0.58856
-0.00431	-0.30797
0.07220	-0.76711
0.17421	1.17148
0.07220	-0.56305
0.07220	1.37554
0.27621	0.66132
0.14870	0.86539
0.12320	0.10015
0.12320	-0.28246
0.22521	0.17668
0.22521	-0.79262
0.22521	0.99292
0.07220	0.45726
0.17421	-0.92016
0.14870	0.15117
0.07220	-0.97117
0.09770	0.27871
0.17421	-0.00188
0.04670	1.09496
0.07220	0.25320
0.17421	0.15117
0.25071	-0.56305
0.12320	1.19699
-0.10631	0.15117
0.27621	-0.41000
0.09770	-0.20594
0.25071	0.68683
0.25071	0.61031
0.32721	0.78886
0.12320	0.32972
-0.02981	-1.07320
-0.00431	0.17668
-0.08081	0.96742
0.35272	-1.09871
0.35272	1.17148
0.17421	-1.58336
0.02119	-0.18043
0.02119	2.01323
0.12320	-0.48652
0.09770	0.63582
0.12320	0.35523
0.19971	-0.79262
0.09770	1.73265
0.14870	0.07465
0.17421	-1.73640
0.12320	-0.05289
0.32721	1.27351
0.14870	-0.23145
0.04670	0.81437
0.19971	0.66132
0.07220	0.86539
0.19971	0.63582
0.17421	-0.58856
0.09770	-1.43031
0.02119	1.04394
0.09770	0.48277
0.04670	-0.81812
0.19971	0.25320
0.17421	0.48277
0.27621	0.30422
0.12320	0.63582
0.12320	-0.12942
0.04670	-1.83844
0.12320	0.07465
0.07220	0.94191
0.17421	1.63062
0.27621	1.24800
0.22521	0.07465
0.17421	-1.17523
0.17421	-0.84363
0.12320	0.73785
0.22521	0.78886
-0.13181	0.86539
-0.05531	0.50828
0.53123	1.17148
0.22521	1.09496
-0.15732	-0.30797
0.32721	-1.40480
0.25071	-0.63957
0.25071	-0.41000
0.12320	0.20219
0.14870	0.04914
0.07220	0.15117
-0.00431	0.45726
0.14870	0.81437
0.09770	0.43176
0.12320	-0.00188
0.04670	0.53379
0.14870	0.55929
0.12320	-0.79262
0.22521	0.63582
0.17421	-1.71090
0.07220	1.24800
-0.02981	-0.10391
-0.00431	-0.10391
0.19971	0.89089
0.09770	0.27871
0.09770	0.94191
0.22521	0.10015
0.17421	-0.92016
0.14870	0.81437
0.12320	-0.66508
0.12320	1.55410
0.19971	0.20219
0.17421	0.12566
0.12320	-1.53234
0.07220	0.10015
0.09770	-0.94566
0.12320	1.45206
0.02119	0.50828
0.17421	1.27351
0.07220	0.30422
0.09770	-0.07840
0.02119	-0.18043
0.22521	0.38074
0.04670	0.04914
0.07220	-1.58336
0.22521	-0.86914
0.19971	0.10015
0.19971	0.94191
0.02119	1.17148
0.14870	0.04914
0.14870	0.50828
0.04670	-0.84363
0.04670	0.17668
0.12320	0.71234
0.19971	0.68683
-0.23382	0.66132
0.83725	-1.14973
0.37822	-0.38449
0.12320	0.25320
-0.00431	0.55929
-0.05531	0.30422
0.02119	0.12566
0.02119	1.37554
0.19971	0.61031
0.12320	0.15117
0.04670	-1.07320
0.32721	0.17668
0.27621	0.43176
0.30171	0.58480
0.14870	-1.07320
0.12320	-1.17523
0.17421	0.25320
0.22521	1.73265
0.17421	1.19699
0.12320	-1.48133
0.12320	-1.81293
0.19971	0.17668
0.07220	1.06945
-0.00431	-0.20594
0.04670	0.10015
0.12320	0.35523
0.17421	0.76336
0.12320	-0.30797
0.32721	-0.07840
0.12320	0.48277
0.14870	-0.86914
0.07220	1.57960
0.19971	0.02363
0.22521	-0.66508
0.19971	0.40625
0.04670	1.04394
0.19971	0.50828
0.32721	0.53379
0.17421	0.15117
0.14870	-0.05289
0.19971	-0.02739
0.07220	0.10015
0.14870	-0.33348
0.22521	0.22769
0.25071	-0.81812
-0.02981	1.17148
0.02119	-0.56305
0.02119	-0.79262
0.09770	0.96742
0.14870	-1.81293
0.12320	2.21730
0.19971	-0.74160
0.12320	1.04394
0.12320	1.22250
0.30171	0.99292
0.19971	0.50828
0.17421	-0.76711
0.17421	0.91640
0.25071	-0.00188
0.32721	-0.94566
0.19971	-0.76711
0.09770	0.55929
0.09770	0.73785
-0.02981	0.55929
0.35272	-0.61406
0.09770	-0.58856
-0.02981	0.50828
-0.31033	1.06945
0.60773	0.17668
0.12320	-1.17523
-0.00431	0.50828
0.09770	0.99292
0.17421	0.53379
0.22521	0.99292
0.09770	0.86539
0.09770	-0.99668
0.04670	0.43176
0.14870	0.53379
0.14870	-1.04770
0.25071	0.02363
0.19971	0.10015
0.12320	0.45726
0.14870	0.07465
0.19971	0.76336
0.12320	0.38074
0.17421	-0.99668
0.27621	-1.09871
-0.08081	0.35523
0.17421	1.29902
0.12320	0.45726
0.02119	-0.28246
0.30171	0.27871
0.07220	1.60511
0.02119	-1.60887
0.12320	0.40625
0.17421	0.73785
0.09770	-0.79262
0.14870	0.25320
0.12320	0.50828
0.17421	1.19699
0.25071	0.40625
0.19971	-1.63437
0.19971	-0.35899
0.12320	0.45726
0.04670	-0.05289
0.07220	0.40625
0.19971	0.83988
0.14870	-0.35899
0.22521	-0.38449
0.14870	-0.05289
0.07220	-0.79262
0.32721	-0.84363
0.30171	1.12046
0.09770	2.26831
0.07220	-0.07840
0.04670	-0.94566
-0.05531	0.89089
0.17421	0.91640
0.19971	0.81437
0.09770	0.71234
0.17421	-1.02219
0.22521	-0.15492
0.04670	0.55929
0.07220	-0.12942
0.12320	-1.48133
0.22521	0.50828
0.14870	0.38074
0.09770	0.86539
0.25071	-0.51203
0.30171	0.76336
0.30171	0.45726
0.17421	0.45726
0.27621	0.17668
0.02119	0.58480
-0.08081	1.35003
0.25071	1.40105
0.07220	-4.46573
0.17421	-0.89465
0.12320	0.94191
0.17421	1.17148
0.32721	1.50308
-0.25932	1.57960
0.45472	-1.55785
0.19971	-0.28246
-0.05531	0.66132
0.22521	-0.15492
0.12320	0.71234
0.12320	0.25320
-0.18282	-0.12942
0.22521	0.71234
0.09770	-0.20594
0.27621	0.15117
0.30171	1.37554
0.14870	-0.53754
0.14870	0.43176
0.14870	0.40625
0.14870	0.25320
0.09770	-0.61406
0.17421	-0.69059
0.14870	0.45726
0.19971	0.25320
0.12320	-0.05289
0.17421	0.73785
0.02119	1.06945
0.09770	-0.35899
0.12320	0.71234
0.14870	0.40625
0.19971	0.27871
0.19971	-1.73640
0.22521	0.86539
0.25071	0.68683
0.14870	-1.32828
0.19971	0.07465
0.25071	0.58480
0.12320	-0.30797
0.37822	1.37554
0.35272	-1.73640
0.17421	0.86539
0.02119	0.43176
-0.00431	0.86539
0.12320	0.55929
0.17421	0.61031
0.09770	-0.12942
0.22521	0.22769
0.27621	-0.07840
0.02119	0.15117
0.37822	0.04914
0.12320	-0.28246
0.14870	-0.07840
0.12320	0.15117
0.17421	-0.23145
0.12320	-0.97117
0.02119	-0.33348
0.14870	1.27351
0.02119	0.68683
0.12320	1.19699
0.04670	1.73265
0.12320	-1.22625
0.14870	-0.81812
0.09770	-0.53754
0.09770	0.73785
0.12320	0.15117
0.17421	0.50828
0.17421	0.38074
0.17421	0.55929
0.09770	1.29902
0.07220	-0.38449
0.14870	-1.81293
0.02119	-2.09351
-0.02981	0.17668
0.27621	-0.28246
0.09770	-0.12942
-0.00431	2.08976
0.02119	0.32972
0.09770	0.71234
0.02119	-0.10391
0.12320	0.10015
0.17421	0.32972
0.17421	0.89089
0.17421	0.32972
0.17421	0.22769
0.27621	-0.56305
0.42922	0.17668
0.14870	0.10015
0.02119	0.48277
0.14870	-0.43551
-0.25932	-0.07840
0.37822	0.48277
0.12320	-0.20594
-0.00431	-0.23145
0.14870	0.10015
0.12320	1.17148
0.14870	-0.76711
0.37822	-0.76711
0.14870	-1.20074
-0.02981	1.32453
0.12320	1.35003
0.17421	2.11527
0.14870	-0.92016
0.12320	0.89089
0.22521	-0.46102
0.19971	-0.23145
0.14870	1.86019
0.14870	-0.99668
0.17421	-1.09871
0.04670	0.27871
0.22521	0.25320
0.04670	0.22769
0.04670	-0.43551
0.22521	0.35523
0.19971	0.30422
0.22521	0.12566
0.09770	0.61031
0.14870	-0.18043
0.09770	-0.18043
0.07220	0.78886
0.17421	0.66132
0.30171	0.53379
0.04670	-0.38449
0.09770	0.61031
0.19971	-0.79262
0.19971	0.32972
0.17421	0.50828
0.14870	-0.10391
0.12320	0.22769
0.07220	-0.46102
0.09770	-0.12942
0.14870	0.38074
0.12320	0.45726
0.17421	0.20219
0.50573	0.68683
0.35272	0.12566
-0.13181	0.66132
0.12320	0.55929
0.07220	0.04914
0.04670	-0.92016
-0.00431	-0.07840
0.25071	-0.97117
0.27621	-0.02739
0.14870	1.47757
-0.02981	0.61031
0.22521	1.45206
0.14870	-1.25176
0.22521	-0.48652
0.30171	0.15117
0.17421	1.17148
0.02119	0.86539
0.04670	0.71234
0.25071	-0.97117
0.14870	-1.35379
0.12320	0.48277
0.02119	0.32972
0.35272	0.48277
0.14870	-0.00188
0.12320	0.86539
-0.00431	0.96742
0.09770	-2.83324
0.27621	0.27871
0.17421	-0.56305
0.07220	1.47757
0.19971	1.65613
0.14870	-0.76711
0.22521	0.15117
0.19971	-0.46102
0.09770	0.58480
0.14870	1.22250
-0.13181	-0.46102
0.55673	0.55929
0.19971	0.50828
0.12320	0.17668
-0.00431	-0.56305
0.12320	-0.38449
0.07220	0.07465
0.12320	-1.14973
0.14870	1.86019
0.22521	1.40105
0.22521	-0.46102
0.19971	0.02363
0.25071	0.81437
0.17421	0.58480
0.25071	-1.32828
0.22521	-0.48652
0.22521	1.04394
0.19971	0.83988
0.12320	0.81437
0.12320	0.50828
0.07220	-1.04770
0.07220	-0.00188
0.09770	0.10015
0.07220	-0.74160
0.37822	0.55929
0.22521	0.40625
0.19971	0.73785
0.04670	0.40625
0.04670	-0.23145
0.07220	-0.69059
0.17421	-0.38449
0.25071	0.76336
0.12320	0.55929
0.17421	-0.66508
0.09770	0.32972
0.02119	1.52859
0.14870	0.35523
0.14870	0.25320
0.17421	-0.28246
0.14870	-0.12942
0.14870	0.55929
0.19971	-0.30797
0.19971	0.96742
0.22521	0.07465
0.30171	-0.46102
0.19971	0.73785
0.14870	-0.56305
0.14870	0.71234
0.22521	-0.10391
0.17421	-0.02739
0.12320	-0.48652
-0.10631	-0.66508
0.48022	0.89089
0.32721	0.20219
0.30171	0.55929
0.04670	2.57441
-0.08081	-0.61406
-0.02981	-3.19035
-0.00431	-0.10391
0.07220	0.61031
0.12320	0.38074
0.12320	2.06425
0.17421	-1.50683
0.22521	-0.94566
0.19971	-0.23145
0.22521	0.91640
0.17421	0.61031
0.32721	0.63582
0.22521	-0.10391
0.19971	0.32972
0.12320	0.04914
0.09770	0.58480
0.02119	0.02363
0.12320	-1.32828
0.17421	0.63582
0.22521	0.40625
0.12320	0.48277
-0.00431	0.15117
0.17421	1.17148
0.27621	-2.98628
0.19971	0.30422
0.22521	1.24800
0.22521	1.04394
0.14870	1.17148
0.09770	1.09496
0.02119	-2.14453
0.09770	-0.81812
0.12320	0.25320
0.12320	0.55929
0.09770	0.22769
0.17421	0.40625
0.12320	-0.35899
0.22521	-0.20594
0.22521	0.27871
0.09770	0.76336
0.19971	0.89089
0.09770	0.17668
0.22521	0.12566
0.17421	-0.38449
0.02119	-0.28246
0.12320	0.53379
0.09770	0.53379
0.12320	-0.51203
0.19971	-0.48652
0.22521	0.83988
0.25071	-1.88945
0.22521	0.86539
0.02119	0.45726
-0.02981	0.43176
-0.08081	0.45726
0.32721	0.55929
0.19971	-0.00188
0.07220	0.12566
0.22521	-0.28246
0.37822	0.02363
0.12320	0.48277
0.14870	-0.10391
0.12320	1.47757
0.14870	-1.30277
0.09770	1.17148
0.14870	-0.86914
0.27621	0.43176
0.12320	-0.02739
0.22521	0.12566
0.22521	1.12046
0.14870	0.96742
0.14870	0.68683
0.12320	0.76336
0.09770	0.22769
0.07220	-0.51203
-0.00431	-0.30797
0.09770	-0.61406
0.07220	-0.99668
0.14870	-0.10391
0.17421	0.45726
0.35272	0.48277
0.30171	1.78367
0.19971	0.76336
0.02119	-0.71609
0.25071	-1.12422
0.12320	-1.12422
-0.02981	1.47757
0.40372	-0.05289
0.17421	0.50828
0.09770	0.66132
0.07220	0.38074
-0.10631	0.91640
0.32721	0.50828
0.30171	-0.05289
-0.02981	0.38074
0.04670	-0.41000
0.09770	-1.37929
0.19971	0.25320
0.22521	0.40625
0.19971	0.86539
0.25071	0.50828
0.12320	-0.71609
0.22521	0.61031
-0.00431	0.30422
0.09770	0.58480
0.27621	-1.37929
0.25071	-1.07320
0.12320	0.53379
0.09770	1.35003
0.14870	0.86539
0.17421	0.30422
0.19971	1.29902
0.09770	-1.17523
0.19971	0.48277
0.17421	-0.07840
0.12320	0.27871
0.17421	-0.76711
0.12320	0.32972
0.22521	0.40625
0.14870	-0.86914
0.22521	0.99292
0.17421	-0.51203
0.04670	0.43176
0.04670	0.50828
0.07220	0.17668
0.19971	0.45726
-0.05531	-1.17523
0.37822	0.91640
0.12320	0.10015
0.17421	0.45726
0.14870	-0.48652
0.14870	0.73785
0.04670	0.35523
0.12320	-0.48652
0.12320	-0.58856
0.22521	1.37554
0.14870	0.55929
0.17421	0.10015
-0.10631	0.58480
0.45472	0.02363
0.27621	-1.37929
0.17421	-0.35899
0.12320	0.76336
0.14870	1.17148
0.09770	1.24800
0.04670	0.25320
0.14870	-0.74160
0.07220	0.55929
0.32721	0.91640
0.19971	0.63582
0.14870	-0.99668
0.14870	-0.07840
0.09770	0.30422
0.09770	0.45726
0.12320	0.15117
0.12320	1.09496
0.40372	-1.43031
0.30171	-1.53234
-0.05531	0.81437
-0.00431	0.61031
0.17421	1.42656
0.22521	1.50308
0.19971	0.50828
0.22521	-0.25695
0.07220	-0.79262
0.09770	-0.02739
-0.00431	0.55929
0.12320	0.76336
0.22521	-0.30797
0.17421	-1.14973
0.22521	-0.28246
0.22521	0.61031
0.02119	0.94191
-0.00431	0.71234
0.07220	-0.05289
0.07220	-0.84363
0.12320	0.07465
0.22521	0.20219
0.45472	0.96742
0.22521	0.35523
0.02119	0.10015
0.27621	1.17148
0.35272	0.25320
0.02119	0.35523
-0.10631	0.04914
-0.08081	0.76336
0.19971	0.38074
0.19971	-0.92016
0.19971	0.45726
0.32721	-0.46102
0.09770	0.07465
0.25071	-0.02739
0.12320	-0.81812
0.12320	0.66132
0.14870	-0.56305
0.12320	0.76336
0.17421	1.37554
0.17421	0.48277
0.12320	0.07465
0.07220	-1.53234
0.19971	-0.10391
0.19971	1.17148
0.09770	0.81437
0.32721	0.73785
0.25071	0.12566
0.12320	-0.76711
0.17421	1.22250
0.12320	-0.15492
0.04670	-0.20594
0.19971	0.96742
0.07220	-0.25695
0.22521	-2.06800
0.27621	0.73785
-0.00431	0.27871
0.12320	-0.02739
0.22521	-0.18043
0.02119	1.75816
0.27621	1.24800
0.25071	0.04914
0.14870	-0.35899
0.22521	0.04914
0.17421	0.71234
0.09770	1.27351
0.14870	-0.07840
0.02119	-0.46102
0.12320	0.04914
0.14870	0.40625
0.12320	-0.28246
0.19971	0.10015
0.25071	-0.25695
0.19971	0.61031
0.22521	-0.56305
0.04670	-0.05289
0.14870	0.04914
-0.08081	-0.41000
0.14870	0.02363
0.09770	0.10015
0.12320	0.89089
-0.05531	0.96742
0.81175	1.27351
0.48022	-1.04770
-0.05531	-1.17523
-0.15732	0.15117
0.07220	0.91640
0.07220	0.99292
0.04670	0.99292
0.07220	-0.79262
0.17421	0.43176
0.19971	0.32972
0.35272	-0.05289
0.19971	0.17668
0.12320	0.94191
0.02119	-0.61406
0.17421	-1.73640
0.07220	-0.25695
0.14870	0.61031
0.09770	0.53379
0.19971	-0.07840
0.17421	0.76336
0.12320	0.40625
0.25071	0.76336
0.19971	0.78886
0.02119	-0.66508
0.07220	0.04914
0.12320	-0.58856
0.22521	0.30422
0.17421	1.19699
0.19971	-0.05289
0.12320	0.94191
0.12320	0.32972
0.09770	0.32972
0.12320	-1.45582
0.09770	0.22769
0.04670	0.86539
0.30171	-0.12942
0.25071	-0.12942
0.19971	-0.25695
0.07220	0.53379
0.09770	0.94191
0.17421	0.58480
0.12320	-1.37929
0.17421	0.15117
-0.00431	1.17148
0.22521	0.22769
0.09770	-1.48133
0.27621	0.40625
0.17421	1.37554
0.02119	1.45206
-0.00431	0.38074
0.30171	-0.56305
0.27621	0.30422
0.17421	-0.30797
-0.08081	0.38074
0.12320	0.12566
0.12320	0.02363
0.09770	-0.56305
0.27621	-0.66508
0.12320	0.66132
0.17421	0.32972
0.19971	-0.02739
0.14870	0.91640
0.22521	-0.20594
0.14870	0.99292
0.07220	-2.34859
0.12320	-0.15492
0.02119	0.73785
0.09770	1.60511
0.07220	0.55929
0.19971	0.15117
0.25071	0.66132
0.12320	0.43176
0.19971	-0.25695
0.07220	0.12566
0.14870	-0.58856
0.12320	-0.02739
0.22521	0.20219
0.19971	0.10015
0.14870	0.10015
0.02119	0.25320
0.07220	-0.79262
0.27621	0.63582
0.19971	-0.86914
0.02119	0.61031
-0.15732	0.10015
0.50573	0.96742
0.32721	-0.28246
0.07220	1.52859
-0.00431	-1.58336
0.04670	-0.15492
0.17421	1.22250
0.32721	0.17668
0.19971	0.53379
0.09770	0.12566
0.04670	0.48277
0.09770	-0.20594
0.22521	0.50828
0.17421	-0.66508
0.19971	0.07465
0.12320	0.76336
0.09770	-0.53754
0.07220	0.32972
0.17421	0.12566
0.17421	-0.15492
0.04670	0.48277
0.12320	-0.15492
0.12320	0.83988
0.12320	-1.07320
0.19971	-0.02739
0.04670	1.22250
0.32721	-0.20594
0.04670	0.27871
0.17421	1.17148
0.04670	0.89089
0.12320	0.30422
0.19971	0.35523
0.17421	1.42656
0.19971	-2.22105
0.30171	-0.97117
0.04670	0.83988
0.12320	-0.58856
0.19971	0.45726
0.22521	0.02363
0.14870	0.12566
0.02119	0.20219
0.14870	0.15117
0.12320	0.20219
0.19971	0.25320
0.14870	0.71234
0.22521	0.20219
0.09770	-0.35899
0.09770	-1.35379
0.14870	0.86539
0.09770	0.40625
0.07220	0.35523
0.19971	1.52859
0.27621	-0.12942
0.09770	0.91640
-0.66735	-2.27207
0.60773	-0.28246
0.30171	1.27351
0.32721	1.19699
0.14870	-0.30797
0.19971	-0.89465
0.02119	0.43176
0.04670	1.37554
0.07220	0.61031
0.07220	0.45726
0.30171	-0.33348
0.12320	0.30422
0.07220	0.66132
0.07220	-0.23145
0.14870	-0.56305
0.14870	-0.25695
0.07220	-0.10391
0.25071	-0.05289
0.22521	0.22769
0.19971	0.25320
0.27621	0.07465
0.17421	0.30422
0.25071	0.94191
0.25071	-1.07320
0.25071	0.55929
0.22521	1.50308
0.14870	0.32972
0.02119	0.55929
0.30171	-0.05289
0.12320	-0.74160
-0.18282	0.53379
-0.10631	-0.46102
0.32721	-0.81812
0.27621	0.76336
0.22521	1.22250
0.25071	1.06945
0.07220	0.86539
0.25071	-0.76711
0.12320	0.15117
0.07220	0.22769
0.09770	-0.05289
0.22521	-0.43551
0.25071	0.15117
0.19971	-0.92016
0.12320	0.10015
0.07220	0.22769
0.07220	0.43176
0.12320	0.58480
0.14870	0.12566
0.22521	-0.28246
0.22521	-0.56305
0.17421	-0.63957
0.09770	1.35003
0.19971	0.58480
0.22521	0.66132
0.04670	-0.69059
-0.02981	0.89089
0.19971	-0.92016
0.27621	0.32972
0.19971	-0.12942
-0.02981	1.06945
0.65874	0.25320
0.22521	0.02363
0.12320	0.12566
0.07220	0.40625
0.12320	-0.76711
0.07220	0.10015
0.22521	0.32972
0.12320	0.04914
0.04670	-0.28246
0.19971	0.15117
0.09770	1.12046
0.30171	-1.45582
0.19971	-0.76711
0.14870	1.27351
0.07220	0.83988
0.04670	-0.15492
0.09770	1.27351
0.09770	-0.48652
0.22521	0.35523
0.22521	0.89089
0.22521	-0.61406
0.12320	0.66132
0.12320	-0.38449
0.14870	0.15117
0.09770	-0.23145
0.25071	-0.07840
0.19971	0.22769
0.02119	0.20219
0.09770	0.22769
0.07220	-0.69059
0.19971	1.09496
0.22521	-0.51203
0.32721	0.17668
0.12320	0.96742
-0.02981	-0.76711
0.07220	0.58480
0.22521	-0.23145
0.12320	0.58480
0.04670	0.27871
0.22521	-0.12942
0.17421	0.32972
0.22521	0.12566
0.30171	0.25320
0.12320	0.27871
0.09770	0.35523
0.17421	0.66132
0.12320	-1.27726
0.12320	-0.07840
0.09770	0.27871
0.09770	0.22769
0.17421	-0.61406
0.09770	-0.20594
0.12320	0.83988
0.30171	1.14597
0.09770	-0.18043
0.07220	1.12046
0.04670	0.22769
0.02119	0.20219
0.12320	-0.20594
0.14870	0.02363
0.14870	-1.63437
0.32721	-0.10391
0.25071	1.45206
0.22521	1.45206
0.04670	-0.99668
0.32721	-0.25695
-0.08081	-0.00188
-0.41233	0.58480
0.55673	0.55929
0.09770	0.45726
0.09770	0.17668
0.25071	0.40625
0.22521	-0.38449
0.12320	-0.02739
0.07220	0.53379
0.07220	0.04914
0.25071	-0.28246
0.17421	0.73785
0.17421	0.04914
0.12320	-2.14453
0.14870	0.86539
0.17421	0.94191
0.14870	-0.23145
0.19971	0.58480
0.17421	0.78886
0.22521	-0.20594
0.17421	0.45726
0.12320	0.22769
0.07220	-0.66508
0.04670	-1.30277
0.14870	0.12566
0.22521	0.66132
0.27621	1.12046
0.27621	-0.28246
0.04670	0.53379
-0.02981	-0.02739
0.14870	0.43176
0.14870	0.43176
0.19971	-0.63957
0.22521	0.61031
0.14870	-0.30797
0.17421	0.86539
0.27621	-0.20594
0.12320	0.50828
0.02119	0.20219
0.12320	-0.05289
0.04670	1.17148
0.17421	-0.97117
0.14870	0.30422
0.12320	0.40625
0.12320	-0.02739
0.45472	0.17668
0.19971	0.43176
-0.10631	0.38074
0.12320	0.04914
-0.28482	-1.07320
0.73524	0.17668
0.35272	-0.28246
0.02119	0.45726
-0.00431	0.25320
0.07220	0.43176
0.25071	-0.56305
0.30171	-0.02739
0.14870	-0.15492
0.14870	0.53379
0.12320	1.32453
0.12320	1.06945
0.09770	0.43176
0.09770	0.17668
0.14870	0.35523
0.09770	-0.05289
0.17421	-0.30797
0.12320	-0.43551
0.14870	-0.07840
0.19971	0.15117
0.19971	-0.05289
0.09770	0.61031
0.25071	0.15117
0.30171	-0.20594
-0.00431	0.04914
-0.13181	1.47757
-0.15732	-3.06281
0.12320	-2.78222
0.22521	1.57960
0.35272	1.65613
0.27621	1.12046
0.22521	0.83988
0.09770	1.12046
0.07220	1.19699
0.14870	0.02363
0.25071	0.38074
0.17421	0.22769
0.14870	-0.20594
0.19971	-0.33348
0.12320	-0.23145
0.17421	-0.58856
0.17421	-0.00188
0.17421	-0.84363
0.17421	0.15117
0.17421	0.04914
0.17421	0.43176
0.17421	0.43176
0.17421	0.32972
0.12320	0.68683
0.14870	0.30422
0.12320	0.27871
0.14870	0.25320
0.12320	0.25320
0.22521	0.15117
0.14870	0.17668
0.17421	0.17668
0.12320	0.10015
0.07220	-0.00188
0.25071	-0.00188
0.04670	-0.53754
-0.10631	0.48277
-0.13181	0.45726
0.07220	2.03874
0.60773	0.02363
0.70974	-3.98109
0.32721	-1.22625
0.12320	1.86019
0.02119	2.44687
0.19971	0.78886
0.14870	0.17668
0.14870	-0.71609
0.12320	0.35523
0.12320	0.73785
0.14870	-0.18043
0.12320	0.61031
0.07220	0.17668
0.09770	-0.89465
0.09770	0.20219
0.09770	-0.10391
0.07220	-0.00188
0.09770	-0.25695
0.12320	0.25320
0.12320	0.38074
0.12320	-0.12942
0.17421	0.04914
0.17421	0.32972
0.14870	-0.25695
0.14870	0.40625
0.14870	-0.02739
0.17421	0.73785
0.14870	1.12046
0.22521	0.45726
0.22521	0.58480
0.22521	-0.33348
0.22521	0.73785
0.17421	-0.86914
0.22521	-0.25695
0.27621	0.27871
0.27621	1.12046
0.17421	-2.68019
0.14870	-0.30797
0.07220	0.83988
-0.00431	1.27351
0.27621	0.48277
0.32721	0.22769
0.19971	0.17668
0.02119	-0.18043
0.14870	0.27871
-0.23382	-0.35899
0.07220	-0.63957
0.19971	0.91640
0.42922	1.75816
-0.08081	-1.32828
-0.08081	-0.51203
0.55673	-1.04770
0.27621	0.73785
0.12320	1.17148
0.04670	0.81437
0.04670	-0.53754
0.07220	0.40625
0.04670	-0.25695
0.17421	-0.28246
0.17421	0.76336
0.14870	0.10015
0.12320	-0.53754
0.12320	-0.18043
0.12320	0.73785
0.12320	0.07465
0.14870	1.40105
0.17421	-0.74160
0.12320	0.22769
0.09770	1.09496
0.14870	0.55929
0.12320	-1.96597
0.14870	-0.48652
0.07220	0.71234
0.14870	0.43176
0.19971	-0.48652
0.07220	0.43176
0.25071	1.01843
0.14870	0.35523
0.09770	0.45726
0.04670	-0.97117
0.14870	1.12046
0.02119	-0.51203
0.17421	0.10015
0.48022	-0.00188
0.19971	0.66132
0.09770	0.35523
0.12320	0.07465
0.07220	0.10015
0.04670	0.20219
0.19971	0.83988
0.14870	-1.37929
-0.00431	-0.63957
0.12320	-0.10391
0.12320	0.78886
0.14870	0.99292
0.17421	0.32972
-0.02981	0.20219
0.12320	-1.32828
0.19971	0.91640
0.12320	0.27871
0.12320	0.17668
0.17421	0.45726
0.25071	-1.86394
0.22521	-1.25176
0.22521	0.86539
0.17421	1.17148
0.07220	0.61031
-0.05531	0.83988
0.17421	0.94191
0.30171	-1.12422
0.22521	0.66132
0.22521	-0.41000
0.25071	0.02363
0.12320	0.50828
0.07220	0.53379
0.22521	-0.28246
-0.28482	-0.18043
0.78624	-0.25695
0.22521	-0.69059
-0.05531	0.94191
-0.10631	0.76336
