0.55673	0.25320
0.58223	0.35523
0.40372	0.20219
-0.10631	-0.02739
-0.46334	-0.00188
-0.13181	0.20219
0.04670	0.20219
0.12320	0.25320
0.35272	0.12566
0.48022	0.10015
-0.02981	0.17668
0.07220	0.07465
0.02119	0.17668
0.22521	0.20219
0.42922	0.04914
0.02119	0.07465
0.27621	-0.00188
0.63323	0.30422
0.68424	0.17668
-0.36133	0.30422
-0.53984	0.15117
0.12320	0.04914
0.12320	0.10015
0.19971	0.22769
0.04670	0.20219
0.12320	-0.05289
0.48022	0.12566
0.42922	0.20219
0.17421	0.25320
0.09770	0.04914
0.32721	0.22769
0.02119	0.22769
0.09770	0.04914
0.25071	0.07465
-0.00431	0.02363
0.22521	0.04914
0.32721	0.32972
-0.53984	0.22769
0.02119	-0.00188
0.53123	0.07465
0.27621	0.25320
0.07220	0.25320
-0.18282	0.15117
0.25071	0.10015
0.42922	-0.02739
0.30171	0.20219
0.07220	0.30422
-0.05531	0.12566
0.22521	0.15117
0.02119	0.15117
0.09770	0.15117
0.40372	0.04914
-0.08081	0.25320
0.17421	0.04914
0.04670	-0.02739
0.12320	0.10015
0.22521	0.25320
0.42922	0.04914
0.63323	0.12566
0.22521	0.22769
-0.48884	0.40625
-0.43783	0.25320
-0.08081	0.15117
0.42922	0.25320
0.42922	-0.05289
0.12320	-0.05289
0.02119	-0.02739
0.53123	0.22769
0.42922	0.17668
0.02119	0.15117
-0.28482	0.17668
-0.00431	0.15117
0.09770	0.15117
0.27621	0.04914
0.14870	0.22769
0.37822	0.15117
0.37822	0.02363
0.22521	0.10015
0.02119	0.25320
-0.05531	0.15117
-0.15732	0.12566
0.25071	0.10015
0.40372	0.04914
0.17421	0.07465
0.04670	0.15117
0.35272	0.15117
0.19971	0.12566
-0.02981	0.22769
-0.28482	0.32972
0.22521	0.35523
0.22521	0.10015
-0.28482	0.02363
-0.05531	-0.07840
0.53123	0.15117
0.86275	0.20219
0.09770	0.07465
-0.20832	0.12566
0.09770	-0.05289
0.27621	0.32972
0.22521	0.15117
0.22521	0.17668
-0.20832	0.27871
0.35272	0.15117
0.42922	-0.05289
-0.02981	0.15117
-0.10631	0.22769
0.22521	0.12566
0.12320	0.04914
0.22521	0.20219
0.12320	0.12566
0.02119	0.22769
0.27621	0.15117
0.02119	0.15117
0.09770	0.04914
0.17421	0.10015
0.12320	0.07465
0.19971	0.25320
-0.15732	0.04914
0.35272	0.07465
0.12320	0.25320
0.17421	0.22769
0.14870	0.27871
-0.02981	0.07465
0.07220	-0.02739
0.14870	0.10015
0.14870	0.20219
0.12320	0.15117
0.53123	0.20219
0.27621	0.07465
0.12320	0.10015
0.27621	0.10015
-0.38683	0.20219
-0.05531	0.20219
0.17421	0.04914
-0.20832	0.20219
-0.08081	-0.02739
0.35272	-0.00188
0.58223	0.30422
0.81175	0.35523
-0.10631	0.22769
0.32721	0.15117
-0.08081	0.12566
-0.38683	0.04914
-0.08081	-0.05289
0.27621	0.12566
0.35272	0.07465
0.17421	0.22769
0.50573	0.25320
0.32721	0.10015
-0.38683	0.20219
0.12320	0.15117
-0.25932	0.12566
0.09770	0.07465
0.12320	0.10015
0.17421	0.12566
0.68424	0.10015
0.30171	0.22769
0.09770	0.15117
0.30171	-0.00188
0.68424	0.20219
-0.08081	0.30422
-0.36133	0.25320
-0.20832	0.20219
0.19971	-0.05289
0.19971	0.10015
-0.18282	0.10015
0.12320	0.17668
0.63323	0.30422
0.17421	0.15117
0.30171	0.17668
0.42922	0.15117
-0.18282	0.12566
-0.18282	0.12566
0.22521	0.15117
-0.02981	0.12566
0.58223	0.17668
0.19971	0.20219
0.09770	0.04914
0.12320	0.04914
0.19971	0.17668
-0.00431	0.30422
0.17421	0.25320
0.12320	0.10015
0.50573	0.02363
-0.00431	0.04914
0.09770	0.25320
0.22521	0.10015
-0.02981	0.02363
0.30171	0.07465
0.37822	0.30422
0.04670	0.22769
-0.31033	0.04914
0.07220	0.22769
0.37822	0.17668
0.02119	0.12566
0.22521	0.10015
-0.48884	0.27871
0.60773	0.15117
0.93925	0.02363
0.60773	0.12566
0.02119	0.15117
-0.10631	0.32972
-0.05531	0.22769
-0.15732	-0.00188
0.14870	0.07465
0.07220	0.17668
0.22521	0.15117
0.17421	0.02363
0.22521	-0.02739
1.06676	0.15117
-0.00431	0.30422
-0.56534	0.22769
0.07220	0.20219
0.25071	0.17668
0.35272	0.20219
0.02119	-0.00188
-0.53984	0.12566
-0.64185	0.17668
0.58223	0.07465
1.06676	0.22769
0.25071	0.27871
0.22521	0.25320
0.25071	0.12566
0.25071	-0.05289
0.09770	0.07465
0.02119	0.17668
-0.08081	0.20219
0.22521	0.20219
0.32721	0.22769
0.22521	0.25320
0.14870	0.04914
0.02119	0.15117
-0.25932	0.02363
0.02119	-0.07840
0.04670	0.20219
0.19971	0.27871
0.35272	0.20219
0.27621	0.17668
0.19971	0.20219
0.45472	0.07465
0.02119	0.02363
-0.31033	0.07465
0.14870	0.22769
0.65874	0.12566
0.07220	0.22769
-0.02981	0.17668
0.25071	0.20219
0.07220	0.15117
-0.33583	0.15117
-0.33583	0.04914
0.73524	0.15117
0.45472	0.25320
0.22521	0.17668
-0.10631	-0.10391
0.35272	0.25320
0.40372	0.10015
0.25071	0.22769
0.04670	0.22769
0.27621	0.10015
-0.25932	0.15117
-0.10631	0.15117
0.55673	0.02363
0.02119	0.17668
0.35272	0.07465
-0.13181	0.10015
0.07220	0.27871
0.19971	0.15117
0.19971	0.15117
0.37822	0.20219
-0.10631	0.35523
0.02119	0.38074
0.17421	0.15117
-0.13181	-0.00188
0.25071	-0.00188
0.37822	0.15117
0.35272	0.15117
0.48022	0.15117
0.14870	0.07465
0.22521	0.12566
-0.25932	0.15117
0.02119	0.10015
0.02119	0.22769
0.12320	0.27871
0.25071	0.07465
0.09770	0.12566
0.07220	0.27871
0.12320	0.17668
0.12320	0.10015
0.42922	0.22769
0.45472	0.22769
0.19971	0.17668
-0.00431	0.17668
-0.36133	0.04914
0.14870	-0.00188
0.12320	0.20219
-0.25932	-0.15492
0.32721	0.17668
0.55673	0.40625
0.37822	0.22769
0.04670	0.15117
0.02119	0.20219
0.70974	0.07465
-0.00431	0.15117
-0.99887	0.20219
-0.33583	-0.05289
0.32721	0.20219
0.63323	0.20219
0.91375	-0.00188
0.14870	0.04914
0.02119	0.20219
-0.18282	0.20219
0.02119	0.22769
0.02119	0.25320
0.04670	0.10015
0.32721	0.07465
0.22521	0.12566
0.22521	0.20219
0.12320	0.07465
0.19971	0.12566
0.42922	0.15117
0.35272	0.20219
0.07220	0.10015
-0.10631	0.15117
0.02119	0.27871
0.04670	0.20219
0.30171	0.10015
0.25071	-0.00188
0.14870	0.22769
-0.00431	0.25320
0.32721	0.02363
0.07220	0.27871
-0.20832	0.12566
-0.10631	-0.10391
0.32721	0.04914
0.73524	0.10015
0.50573	0.02363
0.17421	0.15117
0.19971	0.22769
0.37822	0.32972
-0.41233	0.15117
-0.33583	0.27871
-0.02981	0.15117
0.27621	-0.05289
0.50573	-0.00188
0.04670	0.04914
0.09770	0.15117
0.40372	0.35523
-0.10631	0.10015
0.45472	0.12566
0.04670	0.22769
0.12320	0.15117
0.22521	0.07465
0.25071	0.07465
0.02119	0.07465
0.12320	0.17668
0.25071	0.04914
-0.15732	0.17668
0.12320	0.04914
0.48022	0.12566
-0.00431	0.30422
0.30171	0.25320
0.14870	0.02363
-0.02981	0.10015
0.27621	0.22769
0.22521	0.10015
0.14870	0.20219
0.22521	0.22769
0.19971	0.12566
0.07220	0.17668
0.19971	0.10015
-0.36133	0.12566
-0.13181	0.22769
-0.02981	0.17668
0.40372	0.07465
0.55673	0.20219
0.22521	-0.07840
0.27621	0.15117
-0.38683	0.20219
0.14870	0.22769
0.32721	0.10015
-0.13181	0.20219
0.07220	0.32972
0.14870	0.12566
0.48022	0.10015
0.53123	0.15117
0.04670	0.07465
0.22521	0.17668
0.12320	0.10015
0.09770	0.20219
0.12320	0.12566
-0.08081	0.10015
0.19971	0.15117
0.14870	0.25320
-0.02981	-0.00188
-0.18282	0.17668
0.19971	-0.00188
0.25071	0.25320
0.17421	0.30422
0.37822	0.10015
0.60773	0.15117
0.22521	0.04914
-0.20832	0.20219
0.25071	0.22769
-0.05531	0.12566
-0.13181	0.15117
0.27621	0.22769
0.48022	0.02363
0.02119	0.04914
-0.02981	0.12566
0.04670	0.22769
0.14870	0.20219
-0.02981	0.04914
0.12320	-0.00188
0.30171	0.22769
0.27621	0.12566
0.17421	-0.05289
0.04670	0.15117
0.32721	0.32972
-0.02981	0.20219
0.35272	0.15117
0.04670	0.04914
-0.08081	0.20219
0.22521	0.25320
0.27621	-0.00188
-0.41233	0.07465
-0.18282	0.17668
1.11776	0.17668
0.22521	0.25320
0.09770	0.15117
-0.00431	0.15117
0.22521	0.10015
0.09770	0.25320
-0.10631	0.10015
-0.08081	-0.00188
0.12320	0.15117
0.30171	0.02363
0.50573	0.12566
0.68424	0.12566
0.27621	0.25320
0.04670	0.25320
-0.33583	0.15117
-0.48884	-0.02739
-0.41233	-0.00188
0.40372	0.17668
0.63323	0.15117
0.42922	0.25320
0.32721	0.22769
0.09770	0.17668
0.14870	-0.10391
-0.05531	0.22769
0.04670	0.17668
0.02119	0.07465
0.07220	0.12566
0.14870	0.17668
0.30171	0.07465
0.40372	-0.00188
-0.00431	0.25320
0.04670	0.15117
0.19971	0.22769
-0.05531	0.20219
0.22521	0.20219
0.07220	0.12566
0.55673	-0.05289
0.32721	-0.05289
0.17421	0.17668
-0.05531	0.17668
-0.41233	0.12566
0.37822	0.10015
0.68424	0.22769
-0.18282	0.20219
-0.41233	0.20219
-0.59084	0.15117
-0.10631	-0.02739
0.37822	0.04914
0.42922	0.04914
0.70974	0.12566
0.37822	0.32972
0.40372	0.15117
0.27621	0.04914
0.22521	0.15117
-0.10631	0.07465
-0.33583	0.27871
-0.13181	0.25320
0.14870	0.15117
0.40372	0.02363
0.04670	0.04914
0.58223	0.07465
0.19971	0.10015
0.19971	0.22769
0.12320	0.22769
-0.43783	0.15117
-0.53984	0.25320
0.40372	0.00000
0.55673	0.00000
0.17421	0.00000
-0.20832	0.00000
0.40372	0.00000
0.40372	0.00000
0.58223	0.00000
0.30171	0.00000
-0.33583	0.10015
-0.59084	-0.33348
-0.08081	0.15117
0.60773	0.27871
-0.05531	0.45726
0.42922	0.30422
0.50573	0.07465
0.32721	0.15117
0.37822	0.17668
0.14870	0.10015
0.02119	-0.05289
-0.20832	0.17668
-0.18282	0.15117
0.32721	0.15117
0.07220	0.10015
0.12320	0.15117
0.22521	0.15117
0.30171	0.20219
0.22521	0.10015
0.14870	0.10015
0.07220	0.17668
0.02119	0.15117
0.04670	-0.00188
0.17421	0.02363
0.14870	0.20219
0.22521	0.15117
0.04670	-0.02739
0.60773	0.35523
0.35272	0.15117
-0.20832	0.25320
-0.13181	0.25320
0.25071	0.07465
0.76074	0.10015
0.02119	0.12566
-0.02981	0.15117
-0.28482	0.27871
-0.18282	0.10015
0.30171	-0.00188
0.32721	0.22769
0.55673	0.25320
-0.00431	0.12566
0.12320	0.10015
0.14870	0.20219
0.35272	0.07465
-0.08081	0.04914
0.32721	0.22769
0.04670	0.30422
0.32721	0.15117
0.04670	0.12566
0.04670	0.30422
0.12320	0.12566
0.12320	-0.18043
-0.00431	0.02363
-0.51434	0.02363
0.22521	0.22769
0.35272	0.22769
0.40372	0.10015
0.35272	0.27871
0.42922	0.35523
0.14870	0.20219
0.19971	0.07465
0.30171	-0.05289
-0.18282	0.10015
-0.25932	0.25320
0.58223	0.17668
0.27621	-0.00188
0.14870	0.25320
0.02119	0.22769
-0.13181	-0.00188
-0.08081	0.07465
0.12320	0.10015
0.07220	0.20219
0.32721	0.10015
0.53123	0.10015
0.07220	0.15117
0.07220	0.22769
0.55673	0.25320
0.02119	0.25320
0.63323	0.15117
-0.02981	0.02363
-0.28482	0.10015
-0.20832	0.07465
-0.02981	0.15117
0.19971	0.22769
0.17421	0.20219
0.30171	0.20219
0.30171	0.25320
0.25071	0.12566
0.25071	0.04914
0.22521	0.10015
-0.13181	0.15117
-0.18282	0.10015
0.02119	0.10015
0.68424	0.40625
0.12320	0.22769
0.27621	0.12566
0.17421	0.10015
-0.10631	0.17668
-0.02981	0.15117
0.32721	0.17668
0.07220	0.10015
-0.28482	-0.07840
0.02119	0.07465
0.40372	0.04914
0.40372	0.40625
0.12320	0.45726
0.27621	0.15117
0.32721	-0.02739
0.63323	0.12566
0.25071	0.25320
-0.97337	0.02363
0.40372	0.10015
0.53123	0.15117
0.30171	0.22769
0.12320	0.15117
-0.13181	0.10015
-0.13181	0.12566
0.14870	0.17668
0.22521	0.20219
0.19971	0.15117
0.30171	0.15117
0.37822	0.12566
0.02119	0.20219
-0.46334	0.17668
0.42922	0.30422
0.55673	0.15117
0.50573	0.10015
-0.20832	0.15117
-0.38683	-0.10391
-0.28482	-0.18043
0.42922	0.20219
0.19971	0.12566
-0.00431	0.12566
0.50573	0.17668
0.30171	0.15117
-0.08081	0.12566
0.55673	0.30422
0.12320	0.27871
-0.05531	0.04914
0.35272	0.17668
-0.31033	0.15117
-0.18282	0.15117
0.42922	0.15117
0.65874	-0.02739
-0.20832	0.02363
-0.51434	0.20219
0.30171	0.25320
0.76074	0.25320
0.27621	0.20219
0.07220	0.15117
-0.02981	0.12566
0.09770	0.02363
-0.08081	0.10015
0.32721	0.30422
0.37822	0.12566
-0.66735	0.07465
-0.00431	0.22769
0.63323	0.15117
0.37822	-0.07840
0.27621	0.27871
0.14870	0.10015
-0.00431	0.12566
0.19971	0.22769
0.30171	0.12566
0.25071	0.20219
-0.08081	0.02363
-0.00431	0.20219
0.30171	0.15117
0.25071	0.04914
0.30171	0.15117
-0.28482	0.10015
0.09770	0.17668
-0.00431	0.25320
-0.05531	0.12566
-0.08081	-0.05289
0.76074	0.30422
0.55673	0.27871
0.37822	0.12566
0.19971	0.07465
-0.08081	0.20219
-0.25932	0.25320
0.04670	0.20219
-0.02981	-0.00188
0.19971	0.10015
0.22521	-0.02739
0.17421	0.02363
0.35272	0.22769
0.58223	0.35523
-0.18282	0.15117
0.45472	-0.05289
-0.00431	0.07465
-0.56534	0.20219
-0.28482	0.17668
0.17421	0.15117
0.27621	0.10015
0.40372	0.15117
0.35272	0.20219
0.42922	0.27871
0.32721	0.17668
0.14870	0.12566
0.53123	0.02363
0.02119	0.12566
-0.71835	0.15117
-0.13181	0.10015
0.25071	0.17668
0.27621	0.15117
0.19971	0.07465
0.32721	0.20219
0.40372	0.20219
0.17421	0.22769
-0.10631	0.12566
0.22521	-0.07840
0.07220	0.30422
-0.08081	0.17668
-0.08081	0.10015
0.07220	0.10015
0.55673	0.20219
0.17421	0.15117
-0.13181	0.04914
-0.23382	0.10015
0.32721	0.15117
0.37822	0.12566
0.35272	0.17668
0.17421	0.17668
0.45472	0.22769
0.09770	0.04914
0.14870	0.20219
0.12320	0.15117
-0.05531	0.04914
-0.08081	0.15117
0.09770	0.20219
0.27621	0.20219
0.27621	0.04914
0.30171	0.10015
-0.08081	0.07465
-0.08081	0.15117
-0.43783	0.15117
0.09770	0.27871
0.27621	0.10015
0.02119	0.22769
0.73524	0.20219
0.70974	0.07465
-0.48884	-0.05289
0.09770	0.02363
0.09770	0.35523
0.25071	0.20219
0.09770	0.20219
0.12320	0.04914
0.19971	0.07465
0.25071	0.12566
0.22521	0.17668
0.45472	0.22769
0.14870	0.17668
-0.66735	0.12566
-0.10631	0.07465
0.32721	0.17668
0.58223	0.27871
0.70974	0.15117
0.19971	0.07465
-0.00431	0.02363
-0.20832	0.22769
-0.00431	0.15117
0.04670	0.04914
-0.31033	0.04914
0.02119	0.15117
0.58223	0.22769
0.37822	0.27871
0.12320	0.20219
0.63323	0.25320
0.42922	0.04914
-0.10631	-0.10391
-0.38683	-0.00188
-0.00431	-0.00188
0.09770	0.04914
-0.20832	0.20219
0.35272	0.40625
0.96476	0.25320
0.58223	0.02363
0.04670	0.20219
-0.41233	0.04914
-0.28482	0.10015
-0.05531	0.10015
0.09770	0.12566
0.30171	0.12566
0.27621	0.15117
0.25071	0.22769
0.40372	0.30422
0.27621	0.17668
0.07220	0.17668
0.17421	-0.02739
-0.05531	-0.07840
-0.18282	0.10015
-0.08081	0.25320
0.02119	0.22769
0.63323	0.15117
0.73524	0.15117
-0.05531	0.22769
-0.02981	0.25320
0.02119	0.10015
0.12320	0.10015
0.17421	0.27871
-0.00431	0.32972
0.04670	0.07465
0.50573	-0.05289
0.07220	0.15117
-0.10631	0.10015
0.32721	0.15117
0.14870	0.15117
0.12320	0.22769
-0.02981	0.25320
0.27621	0.35523
0.30171	0.10015
-0.10631	0.10015
0.22521	0.12566
0.37822	0.17668
-0.33583	0.22769
-0.31033	0.17668
0.12320	0.12566
0.48022	0.10015
0.45472	0.15117
0.37822	0.20219
0.02119	0.07465
-0.20832	-0.02739
0.37822	0.04914
0.48022	0.32972
0.02119	0.40625
-0.05531	0.20219
0.09770	-0.05289
0.14870	0.04914
0.12320	0.22769
0.12320	0.20219
0.04670	0.15117
-0.02981	0.07465
0.02119	0.10015
0.22521	0.12566
-0.13181	-0.00188
0.27621	0.07465
0.40372	0.07465
0.25071	0.35523
0.19971	0.40625
0.68424	0.20219
0.68424	0.12566
-0.41233	0.12566
-0.10631	0.02363
-0.00431	0.12566
-0.05531	0.12566
0.14870	0.12566
-0.18282	0.10015
0.14870	0.17668
0.12320	0.10015
0.37822	0.22769
0.32721	0.17668
0.17421	0.12566
0.17421	0.07465
-0.20832	0.30422
0.25071	0.25320
0.32721	-0.00188
0.27621	0.17668
0.25071	0.20219
0.19971	0.12566
0.07220	0.04914
-0.18282	0.04914
-0.05531	0.07465
-0.05531	-0.20594
-0.43783	0.10015
0.50573	0.35523
0.78624	0.45726
0.42922	0.32972
0.27621	0.15117
0.45472	0.20219
-0.18282	0.17668
-0.02981	0.10015
-0.20832	0.12566
0.17421	0.12566
0.37822	0.02363
-0.15732	0.04914
-0.00431	0.15117
0.12320	0.22769
0.09770	0.12566
0.30171	-0.00188
0.81175	0.22769
0.02119	0.30422
-0.23382	0.15117
0.22521	0.12566
0.17421	0.17668
0.09770	0.07465
0.04670	0.27871
0.78624	0.25320
0.30171	0.02363
0.12320	0.04914
0.07220	0.17668
-0.18282	0.15117
-0.23382	0.07465
0.07220	0.07465
0.22521	0.22769
0.07220	0.20219
0.22521	0.07465
0.30171	0.17668
0.50573	0.10015
0.42922	0.07465
-0.56534	-0.00188
0.02119	0.17668
-0.08081	0.38074
0.14870	0.30422
0.70974	0.32972
1.11776	0.15117
0.12320	0.12566
-0.15732	0.15117
-0.10631	0.12566
0.07220	0.04914
0.14870	-0.02739
-0.28482	0.04914
-0.36133	0.02363
0.07220	0.27871
0.37822	0.17668
0.42922	0.22769
0.14870	0.12566
0.19971	0.22769
0.27621	0.25320
0.07220	0.25320
0.22521	0.10015
0.04670	0.10015
-0.31033	-0.05289
0.27621	0.07465
0.25071	0.22769
0.12320	0.25320
0.09770	0.15117
0.32721	0.17668
0.81175	0.15117
0.17421	0.20219
-0.23382	0.12566
-0.28482	0.15117
0.07220	0.04914
-0.15732	0.17668
-0.15732	0.25320
0.42922	0.15117
0.50573	0.12566
-0.08081	0.12566
0.17421	0.07465
0.35272	0.10015
0.07220	0.07465
-0.05531	-0.07840
-0.23382	0.17668
0.14870	0.20219
0.09770	0.20219
0.09770	0.20219
0.30171	0.25320
0.14870	0.25320
0.19971	0.20219
0.12320	0.02363
0.17421	0.20219
-0.00431	0.12566
-0.00431	-0.00188
0.27621	0.20219
0.07220	0.12566
0.14870	0.10015
0.32721	0.22769
0.40372	0.20219
0.02119	0.15117
0.07220	0.10015
0.14870	0.25320
-0.00431	-0.07840
0.14870	0.02363
-0.38683	0.12566
0.17421	0.35523
0.30171	0.25320
0.12320	0.25320
0.27621	0.25320
0.42922	0.07465
0.09770	-0.02739
-0.28482	0.10015
0.27621	0.15117
0.35272	0.04914
0.17421	0.15117
-0.15732	0.12566
0.09770	0.25320
0.14870	0.22769
0.04670	0.12566
0.32721	0.25320
0.25071	0.20219
0.35272	0.07465
0.02119	0.07465
0.02119	0.15117
0.17421	0.02363
0.58223	0.30422
-0.28482	0.20219
-0.20832	0.07465
0.32721	0.15117
0.42922	0.15117
0.30171	0.15117
0.02119	0.15117
-0.08081	0.12566
0.17421	0.15117
0.32721	0.15117
0.42922	0.15117
0.12320	0.15117
-0.28482	0.07465
-0.23382	0.07465
0.42922	0.12566
0.17421	0.20219
0.17421	0.07465
0.17421	0.15117
-0.00431	0.25320
0.30171	0.22769
0.32721	0.12566
-0.00431	0.25320
-0.13181	0.12566
0.14870	0.20219
0.53123	0.15117
0.07220	0.04914
0.78624	0.22769
0.12320	0.22769
-0.41233	-0.18043
-0.05531	0.20219
0.17421	0.25320
0.22521	0.25320
0.22521	0.10015
0.04670	0.15117
0.30171	0.15117
0.12320	0.22769
0.14870	0.10015
0.27621	-0.02739
-0.05531	0.10015
0.07220	0.17668
0.04670	0.35523
-0.13181	0.10015
0.32721	0.12566
-0.05531	0.25320
0.19971	0.10015
0.40372	0.07465
0.14870	0.10015
0.07220	0.17668
0.12320	0.15117
0.42922	0.12566
0.12320	0.22769
-0.15732	0.10015
-0.00431	0.22769
-0.48884	0.25320
0.37822	0.20219
0.53123	-0.05289
0.27621	0.15117
0.22521	0.10015
0.07220	0.25320
0.02119	0.22769
0.45472	0.25320
0.37822	0.10015
-0.13181	-0.02739
0.14870	0.20219
0.17421	0.12566
0.14870	0.15117
0.14870	0.07465
-0.28482	0.27871
-0.79486	0.15117
0.42922	0.02363
0.60773	0.10015
0.32721	0.04914
0.32721	0.20219
0.27621	0.25320
0.22521	0.15117
0.14870	0.12566
0.09770	0.32972
0.40372	0.17668
0.17421	0.07465
-0.28482	-0.07840
-0.05531	0.12566
0.17421	0.20219
0.09770	0.10015
-0.00431	0.15117
0.37822	0.17668
0.32721	0.15117
0.53123	0.17668
0.12320	0.15117
-0.13181	-0.05289
-0.02981	0.10015
-0.25932	0.32972
0.19971	0.12566
0.45472	0.04914
0.45472	0.27871
0.42922	0.07465
0.17421	0.07465
-0.33583	0.30422
-0.05531	0.12566
0.04670	0.10015
0.32721	0.12566
0.48022	0.07465
0.02119	0.17668
0.32721	0.32972
-0.05531	0.02363
0.25071	0.15117
0.09770	0.25320
-0.33583	0.12566
-0.41233	0.25320
0.35272	0.25320
0.55673	-0.02739
0.25071	0.02363
0.09770	0.12566
0.45472	0.17668
0.70974	0.35523
-0.28482	0.10015
0.14870	0.25320
0.14870	0.17668
-0.00431	-0.00188
0.09770	0.04914
0.04670	0.15117
-0.48884	0.22769
0.04670	0.15117
0.48022	0.22769
0.53123	0.20219
0.25071	0.02363
0.22521	0.04914
0.27621	0.22769
0.02119	0.17668
0.07220	0.15117
0.07220	-0.02739
0.12320	0.20219
0.12320	0.22769
0.25071	0.15117
0.35272	0.20219
0.42922	0.17668
0.32721	0.12566
-0.23382	0.22769
-0.66735	-0.05289
-0.56534	-0.07840
0.35272	0.12566
0.50573	0.35523
0.65874	0.25320
0.32721	0.20219
0.27621	0.15117
-0.13181	0.17668
-0.31033	0.20219
0.12320	-0.02739
-0.13181	0.07465
0.12320	0.12566
-0.15732	0.04914
0.58223	0.17668
0.35272	0.32972
0.09770	0.17668
0.37822	0.07465
0.14870	0.17668
0.35272	0.15117
0.48022	0.15117
0.50573	0.07465
-0.31033	0.02363
-0.13181	0.10015
0.12320	0.25320
-0.08081	0.25320
-0.08081	0.20219
0.42922	0.10015
0.45472	0.17668
0.04670	0.22769
-0.02981	0.02363
0.02119	0.02363
-0.05531	-0.05289
0.27621	0.20219
0.37822	0.35523
0.30171	0.22769
-0.10631	0.17668
-0.15732	0.20219
0.65874	0.30422
0.37822	0.15117
0.14870	0.17668
0.09770	0.20219
-0.00431	0.07465
0.04670	0.04914
0.07220	0.17668
0.09770	0.17668
0.30171	0.10015
0.04670	-0.05289
0.04670	-0.07840
0.35272	0.22769
0.35272	0.25320
-0.15732	0.12566
0.09770	0.04914
0.35272	0.25320
0.17421	0.15117
0.30171	0.12566
0.04670	0.17668
-0.02981	0.20219
0.27621	0.17668
-0.20832	0.02363
0.22521	0.10015
0.25071	0.25320
0.02119	0.12566
0.12320	0.12566
0.22521	0.15117
0.12320	0.04914
0.25071	0.12566
0.32721	0.43176
0.14870	0.10015
0.09770	0.15117
0.12320	0.15117
0.17421	0.04914
-0.08081	0.10015
0.35272	0.20219
-0.61635	0.12566
-0.08081	0.07465
0.14870	0.10015
0.73524	0.43176
0.58223	0.35523
0.12320	0.17668
0.07220	0.04914
-0.02981	0.04914
-0.08081	0.04914
0.17421	0.20219
-0.25932	0.20219
0.30171	0.02363
0.53123	0.22769
0.40372	0.25320
0.37822	0.12566
-0.20832	0.10015
-0.13181	0.17668
-0.08081	0.22769
0.09770	0.10015
0.12320	0.04914
0.19971	0.15117
0.07220	0.25320
0.45472	0.15117
0.12320	0.10015
0.12320	0.10015
0.25071	0.30422
0.07220	0.04914
0.09770	-0.00188
0.22521	0.12566
0.04670	0.27871
0.07220	0.07465
0.30171	0.10015
0.68424	0.27871
-0.10631	0.32972
0.17421	0.35523
-0.02981	0.04914
0.04670	-0.05289
-0.00431	0.15117
-0.51434	0.07465
0.17421	-0.05289
0.40372	-0.02739
0.30171	0.15117
0.22521	0.35523
0.76074	0.20219
0.48022	0.15117
0.04670	0.17668
0.12320	0.22769
-0.08081	0.04914
-0.25932	0.07465
0.14870	0.15117
0.22521	0.20219
0.30171	0.22769
0.09770	0.27871
-0.41233	0.20219
0.25071	0.04914
0.70974	0.17668
0.35272	0.15117
-0.33583	0.07465
0.09770	0.15117
0.30171	-0.07840
0.27621	0.07465
0.09770	0.22769
0.14870	0.20219
-0.05531	0.35523
0.19971	0.30422
0.40372	0.15117
0.17421	0.07465
-0.05531	0.10015
-0.00431	0.07465
-0.18282	0.02363
-0.20832	0.32972
0.22521	0.12566
0.37822	0.07465
0.27621	0.15117
0.40372	0.32972
0.32721	0.10015
-0.20832	0.04914
-0.13181	0.17668
0.14870	0.10015
0.22521	0.15117
-0.20832	0.25320
0.58223	0.12566
0.83725	0.10015
0.22521	0.22769
0.22521	0.22769
0.22521	0.12566
-0.23382	0.02363
-0.48884	0.15117
-0.18282	0.15117
-0.08081	0.07465
0.07220	0.17668
0.81175	0.25320
0.17421	0.12566
-0.28482	0.25320
0.32721	0.17668
0.19971	0.10015
0.40372	0.07465
0.63323	0.04914
-0.00431	-0.05289
-0.13181	0.20219
0.12320	0.27871
0.27621	0.15117
0.22521	0.17668
0.04670	0.32972
0.25071	0.17668
0.12320	0.10015
-0.00431	0.07465
0.14870	0.17668
-0.08081	0.07465
0.04670	0.04914
0.12320	0.15117
0.30171	0.15117
0.25071	0.12566
-0.15732	0.15117
0.22521	0.25320
0.37822	0.12566
0.27621	0.22769
-0.08081	0.10015
0.04670	0.10015
0.48022	0.22769
0.17421	0.07465
0.04670	0.17668
0.07220	0.25320
0.09770	0.12566
-0.13181	0.04914
0.17421	0.04914
0.12320	0.10015
-0.08081	0.25320
-0.10631	0.10015
0.50573	0.17668
0.45472	0.30422
0.02119	-0.02739
0.32721	0.12566
0.35272	0.12566
0.14870	0.15117
0.09770	0.22769
0.19971	0.15117
0.37822	0.07465
-0.69285	0.02363
-0.25932	0.12566
0.04670	0.25320
0.35272	0.15117
0.48022	0.17668
0.58223	0.22769
0.30171	0.10015
-0.15732	0.10015
-0.10631	0.10015
-0.02981	0.07465
0.70974	0.25320
0.02119	0.22769
-0.15732	0.25320
0.22521	0.10015
0.22521	0.15117
0.25071	0.15117
0.02119	0.10015
-0.08081	0.07465
-0.00431	0.15117
0.09770	0.10015
0.19971	-0.05289
0.02119	0.20219
0.09770	0.22769
0.63323	0.30422
0.22521	0.22769
0.14870	0.15117
0.27621	0.22769
0.42922	0.04914
0.12320	-0.02739
-0.36133	0.07465
-0.15732	0.10015
0.04670	0.02363
-0.18282	0.15117
0.02119	0.30422
0.42922	0.27871
0.83725	0.27871
0.35272	0.22769
0.12320	0.07465
0.17421	0.02363
-0.33583	0.17668
0.12320	0.15117
0.32721	0.17668
-0.48884	0.12566
0.35272	0.10015
0.53123	0.15117
0.27621	0.22769
0.09770	0.12566
0.07220	0.04914
0.07220	0.15117
-0.20832	0.15117
0.12320	0.20219
0.09770	0.12566
0.09770	0.07465
0.27621	0.22769
0.14870	0.22769
0.35272	0.10015
0.45472	0.22769
0.37822	0.22769
-0.05531	0.02363
-0.13181	0.07465
0.12320	0.20219
0.19971	0.02363
0.02119	0.02363
-0.02981	0.35523
0.37822	0.25320
0.12320	0.25320
0.25071	0.30422
0.12320	0.02363
-0.31033	-0.10391
0.25071	0.02363
0.68424	0.22769
-0.15732	0.10015
-0.05531	0.17668
0.14870	0.22769
0.22521	0.20219
0.35272	0.27871
0.50573	0.15117
-0.00431	0.10015
-0.18282	0.10015
-0.02981	0.02363
0.17421	-0.05289
-0.18282	0.22769
-0.33583	0.27871
0.27621	0.15117
0.55673	0.30422
0.78624	0.25320
0.19971	-0.07840
0.32721	0.17668
0.37822	0.38074
-0.08081	0.07465
-0.23382	0.12566
-0.00431	0.12566
0.12320	0.17668
-0.28482	0.02363
0.19971	0.25320
0.35272	0.22769
0.25071	0.17668
0.19971	0.22769
0.07220	0.07465
-0.10631	0.04914
0.19971	0.10015
0.50573	0.27871
-0.18282	0.15117
0.07220	0.20219
0.22521	0.22769
0.14870	0.12566
0.19971	0.17668
0.19971	0.15117
0.30171	0.20219
-0.10631	0.15117
0.07220	0.02363
0.40372	0.15117
0.58223	0.15117
-0.15732	0.27871
0.17421	0.30422
0.12320	-0.05289
0.02119	0.12566
0.27621	0.04914
-0.20832	0.02363
0.17421	0.35523
-0.18282	0.22769
0.14870	0.07465
0.50573	0.12566
0.14870	0.12566
0.07220	0.15117
0.32721	0.20219
0.02119	0.12566
0.09770	0.15117
0.04670	0.15117
0.19971	0.20219
-0.00431	0.10015
0.22521	0.02363
0.17421	0.10015
0.09770	0.12566
0.30171	0.25320
0.22521	0.10015
0.27621	0.22769
0.30171	0.22769
-0.15732	0.15117
-0.23382	0.12566
0.09770	0.10015
0.48022	0.04914
0.17421	0.12566
0.02119	0.12566
-0.15732	0.12566
0.14870	0.10015
0.81175	0.25320
0.32721	0.20219
-0.56534	-0.02739
0.25071	0.02363
0.17421	0.22769
-0.00431	0.07465
0.09770	0.17668
0.04670	0.15117
0.50573	0.10015
0.37822	0.22769
0.40372	0.20219
-0.13181	0.07465
0.07220	-0.10391
-0.02981	0.15117
-0.10631	0.04914
0.12320	0.15117
0.40372	0.12566
0.19971	0.22769
0.07220	0.12566
0.25071	0.10015
0.17421	0.02363
-0.08081	0.27871
0.02119	0.35523
0.12320	0.07465
0.17421	0.10015
0.32721	0.02363
0.30171	0.17668
-0.18282	0.10015
0.19971	0.07465
0.25071	0.22769
0.65874	0.30422
0.37822	0.10015
-0.36133	0.04914
-0.18282	0.04914
-0.20832	0.15117
0.04670	0.20219
0.58223	0.22769
0.22521	0.22769
0.22521	0.15117
0.25071	0.10015
-0.05531	0.15117
-0.10631	0.10015
0.14870	0.02363
0.32721	0.12566
0.07220	0.15117
0.14870	0.12566
0.37822	0.17668
0.22521	0.17668
0.09770	0.12566
-0.02981	0.04914
0.25071	0.22769
0.12320	0.30422
-0.00431	-0.02739
-0.20832	-0.05289
-0.00431	0.07465
0.02119	0.17668
-0.00431	0.17668
0.73524	0.35523
0.22521	0.20219
0.07220	0.17668
0.17421	0.17668
0.58223	0.12566
0.07220	0.20219
-0.02981	0.25320
-0.00431	0.17668
0.25071	0.10015
0.14870	-0.00188
0.25071	0.17668
0.35272	0.12566
0.17421	0.17668
-0.05531	0.10015
-0.69285	0.02363
0.42922	0.20219
-0.13181	0.22769
-0.15732	0.20219
0.17421	-0.05289
0.35272	0.04914
0.45472	0.15117
0.68424	0.35523
0.19971	0.25320
-0.05531	0.12566
0.17421	0.22769
0.40372	0.12566
0.27621	0.15117
-0.15732	0.15117
-0.25932	0.10015
-0.20832	-0.12942
0.09770	0.17668
0.58223	0.25320
0.04670	0.15117
0.22521	0.25320
0.14870	0.20219
0.22521	0.12566
0.07220	0.25320
0.12320	-0.02739
0.22521	0.04914
0.04670	0.22769
-0.28482	0.25320
0.42922	0.15117
0.50573	0.04914
0.35272	0.04914
0.22521	0.17668
-0.02981	0.15117
-0.18282	-0.00188
-0.05531	0.10015
-0.31033	0.27871
0.19971	0.17668
0.55673	0.10015
0.55673	0.07465
0.12320	0.30422
0.14870	0.20219
0.04670	0.10015
-0.05531	0.10015
0.32721	0.04914
0.17421	0.22769
-0.05531	0.22769
0.12320	0.20219
-0.13181	0.15117
0.07220	-0.07840
0.32721	0.15117
0.58223	0.20219
0.32721	0.20219
-0.33583	-0.00188
0.12320	0.10015
0.88825	0.22769
0.07220	0.25320
-0.43783	0.20219
0.14870	0.10015
0.35272	0.22769
0.22521	0.22769
0.12320	0.04914
0.04670	0.10015
-0.00431	0.12566
0.04670	0.15117
-0.18282	0.15117
0.14870	0.10015
0.40372	0.04914
0.48022	0.12566
0.04670	0.15117
-0.02981	0.25320
0.14870	0.10015
0.27621	0.30422
0.22521	0.07465
-0.10631	-0.02739
-0.41233	0.22769
0.22521	0.32972
0.53123	0.17668
0.45472	0.10015
0.12320	0.12566
0.22521	0.20219
-0.23382	-0.00188
-0.02981	-0.07840
0.30171	0.20219
0.76074	0.35523
0.12320	0.12566
0.07220	-0.05289
-0.25932	-0.02739
0.30171	0.30422
0.14870	0.25320
-0.10631	0.32972
-0.15732	0.15117
0.12320	0.12566
0.04670	0.07465
0.35272	0.10015
-0.08081	-0.00188
0.32721	0.12566
0.40372	0.17668
0.42922	0.15117
0.42922	0.25320
0.22521	0.20219
-0.10631	0.02363
0.02119	0.07465
0.02119	0.12566
-0.02981	0.07465
-0.33583	0.04914
0.02119	0.10015
0.30171	0.17668
0.48022	0.25320
0.14870	-0.02739
-0.23382	0.27871
0.40372	0.45726
0.22521	0.15117
0.02119	0.04914
0.07220	0.12566
0.27621	0.20219
0.63323	0.04914
-0.05531	0.02363
-0.48884	0.12566
-0.10631	0.17668
0.81175	0.27871
-0.13181	0.10015
0.25071	0.10015
0.53123	0.27871
0.14870	0.17668
0.19971	0.02363
-0.59084	0.10015
-0.02981	0.12566
0.35272	0.22769
0.32721	0.15117
0.27621	0.22769
0.30171	0.17668
0.09770	-0.00188
-0.00431	0.02363
-0.15732	0.15117
0.17421	0.22769
0.37822	0.25320
0.07220	0.25320
0.14870	0.15117
-0.15732	0.04914
0.07220	0.17668
0.50573	0.17668
0.19971	0.12566
0.09770	0.04914
0.12320	0.12566
0.09770	0.17668
0.25071	0.04914
0.07220	-0.02739
0.02119	0.25320
0.17421	0.17668
0.25071	0.22769
0.25071	0.27871
-0.00431	0.25320
0.32721	-0.00188
0.04670	0.07465
0.32721	0.17668
0.45472	0.15117
-0.10631	0.04914
-0.13181	0.15117
0.22521	0.10015
0.30171	0.17668
0.19971	0.15117
0.02119	0.15117
-0.02981	-0.00188
0.37822	-0.00188
0.27621	0.17668
-0.31033	0.25320
0.12320	0.27871
0.60773	-0.00188
-0.00431	0.04914
0.07220	0.22769
-0.23382	0.15117
0.27621	0.12566
0.45472	0.07465
0.09770	0.12566
-0.23382	0.22769
0.42922	0.22769
0.88825	0.32972
0.02119	0.35523
0.04670	0.10015
0.12320	0.02363
0.02119	0.22769
-0.00431	-0.05289
0.12320	0.07465
-0.20832	-0.02739
-0.08081	0.12566
0.35272	0.30422
0.25071	0.20219
0.17421	0.20219
0.17421	0.15117
0.45472	0.15117
0.35272	0.30422
0.22521	0.25320
-0.23382	0.17668
0.17421	0.04914
-0.13181	0.12566
0.04670	-0.00188
0.02119	0.07465
0.30171	0.20219
0.32721	0.25320
0.48022	0.17668
0.14870	0.15117
0.14870	0.04914
0.25071	0.07465
0.70974	0.10015
-0.48884	0.02363
-0.74385	0.25320
0.17421	0.15117
0.30171	0.25320
0.09770	0.20219
0.07220	0.20219
0.09770	0.25320
0.35272	0.02363
0.58223	0.15117
0.32721	0.20219
0.07220	0.27871
0.07220	0.07465
0.19971	-0.10391
0.07220	0.04914
-0.20832	0.17668
0.14870	0.22769
0.53123	0.20219
0.22521	0.12566
0.07220	0.10015
-0.08081	0.07465
-0.00431	0.10015
0.22521	0.17668
0.27621	0.02363
-0.33583	0.10015
-0.43783	0.17668
0.22521	0.30422
0.70974	0.27871
0.73524	0.27871
0.63323	0.10015
-0.10631	-0.07840
0.02119	-0.05289
0.02119	0.07465
-0.59084	0.15117
-0.02981	0.27871
0.37822	0.32972
0.17421	0.10015
0.22521	-0.00188
0.19971	0.17668
-0.00431	0.10015
0.30171	0.04914
0.07220	0.07465
-0.05531	-0.02739
0.14870	0.22769
0.04670	0.30422
-0.02981	0.10015
0.07220	0.22769
0.63323	0.12566
0.45472	0.07465
-0.38683	0.22769
-0.00431	0.10015
0.22521	-0.00188
0.32721	-0.18043
0.22521	0.15117
0.45472	0.45726
-0.20832	0.30422
0.50573	0.27871
0.35272	0.17668
0.14870	0.15117
-0.15732	-0.00188
0.04670	-0.05289
0.02119	-0.00188
-0.08081	0.07465
-0.15732	0.25320
0.40372	0.20219
0.17421	0.07465
0.14870	0.27871
0.27621	0.20219
0.45472	0.07465
0.53123	0.25320
-0.13181	0.15117
-0.36133	0.15117
0.07220	0.17668
0.07220	0.17668
0.27621	0.30422
0.25071	-0.02739
0.19971	0.04914
-0.20832	0.30422
0.25071	-0.02739
0.70974	0.25320
0.14870	0.04914
-0.05531	0.32972
0.04670	0.04914
0.04670	0.15117
-0.08081	0.15117
0.35272	0.15117
0.27621	0.04914
0.19971	0.25320
-0.28482	0.22769
0.27621	0.07465
0.02119	0.07465
0.25071	0.22769
0.35272	0.12566
0.12320	0.02363
-0.13181	0.07465
0.32721	0.20219
0.35272	0.27871
0.30171	0.20219
0.48022	0.10015
0.22521	0.22769
-0.28482	0.12566
-0.13181	0.07465
-0.08081	0.15117
-0.02981	0.15117
0.02119	0.20219
0.35272	0.10015
0.48022	0.15117
0.02119	0.25320
0.12320	0.17668
0.14870	0.17668
0.07220	0.12566
0.14870	0.02363
0.09770	-0.00188
0.30171	0.20219
-0.00431	0.12566
0.02119	0.15117
0.65874	0.32972
0.50573	0.17668
-0.00431	0.07465
-0.23382	0.17668
-0.00431	0.07465
0.12320	0.15117
0.02119	0.10015
0.27621	0.02363
-0.13181	0.20219
-0.43783	0.25320
0.22521	0.25320
0.42922	-0.05289
0.60773	0.32972
0.14870	0.32972
0.37822	0.17668
0.53123	0.22769
-0.02981	-0.10391
0.14870	-0.05289
-0.10631	0.15117
0.32721	0.32972
0.30171	0.22769
-0.18282	0.12566
-0.08081	0.02363
0.07220	0.12566
-0.05531	0.02363
-0.10631	0.04914
0.07220	0.22769
0.17421	0.15117
0.32721	0.10015
0.14870	0.20219
0.12320	0.20219
0.17421	0.25320
0.48022	0.07465
0.86275	0.15117
-0.10631	0.07465
-0.02981	0.04914
-0.05531	-0.07840
-0.23382	-0.05289
-0.43783	0.22769
0.45472	0.35523
0.55673	0.20219
0.40372	0.07465
0.32721	0.27871
-0.05531	0.27871
0.04670	0.04914
-0.10631	0.02363
0.30171	0.10015
0.30171	0.22769
0.14870	0.12566
0.22521	0.15117
0.17421	0.15117
-0.20832	0.17668
0.14870	0.10015
0.22521	0.07465
-0.15732	0.10015
0.19971	0.20219
-0.02981	0.17668
0.12320	-0.05289
0.32721	0.20219
0.53123	0.25320
0.48022	0.15117
0.02119	0.25320
0.27621	0.22769
0.04670	-0.18043
-0.13181	-0.02739
0.02119	0.12566
0.27621	0.27871
0.02119	0.27871
-0.00431	0.17668
-0.23382	0.20219
-0.08081	0.15117
0.53123	0.12566
0.42922	0.15117
0.32721	0.20219
0.09770	0.07465
-0.59084	-0.00188
0.27621	0.02363
0.27621	0.12566
0.22521	0.32972
0.30171	0.25320
0.40372	0.15117
0.35272	0.15117
0.22521	0.22769
-0.05531	0.15117
-0.05531	-0.00188
0.04670	0.02363
0.07220	0.25320
-0.00431	0.27871
0.27621	0.12566
0.22521	0.20219
-0.25932	0.12566
0.50573	0.25320
0.37822	0.20219
0.22521	0.12566
-0.08081	0.22769
-0.18282	0.02363
0.09770	0.02363
0.19971	0.04914
-0.20832	0.27871
0.35272	0.20219
0.40372	0.04914
0.40372	0.12566
0.04670	0.17668
0.32721	0.15117
-0.41233	-0.00188
-0.02981	0.07465
0.22521	0.15117
0.50573	0.02363
0.14870	0.04914
-0.15732	0.22769
0.22521	0.35523
0.42922	0.35523
-0.00431	0.17668
0.22521	0.12566
-0.05531	0.02363
-0.02981	-0.02739
0.25071	0.07465
0.37822	0.04914
-0.15732	0.10015
0.09770	0.20219
0.09770	0.22769
0.17421	0.15117
0.40372	0.07465
0.17421	0.15117
0.02119	0.15117
-0.00431	0.02363
0.17421	0.12566
0.48022	0.15117
0.09770	0.25320
-0.18282	0.12566
0.12320	0.25320
0.53123	0.38074
0.02119	0.07465
0.02119	0.04914
-0.20832	-0.00188
0.17421	0.17668
-0.13181	0.10015
0.12320	-0.00188
0.58223	0.15117
0.40372	0.20219
-0.08081	0.10015
-0.02981	-0.02739
0.14870	0.30422
0.32721	0.15117
0.27621	0.10015
0.02119	0.04914
0.07220	0.12566
0.19971	0.25320
0.22521	0.25320
0.40372	0.17668
0.27621	0.04914
-0.08081	0.10015
0.04670	0.22769
0.09770	0.17668
0.17421	-0.05289
-0.00431	0.02363
0.14870	0.25320
0.19971	0.12566
-0.38683	0.10015
0.09770	0.04914
1.01576	0.15117
0.50573	0.43176
0.04670	0.10015
-0.41233	0.15117
0.09770	0.12566
-0.00431	0.04914
0.30171	0.17668
0.22521	0.10015
-0.10631	0.04914
0.12320	0.12566
0.50573	0.15117
0.81175	0.22769
-0.15732	0.25320
-0.02981	0.15117
-0.28482	0.10015
-0.02981	-0.02739
0.02119	0.12566
-0.10631	0.10015
0.40372	0.25320
0.50573	0.22769
0.37822	0.17668
-0.05531	0.20219
0.12320	0.12566
0.27621	0.04914
0.35272	0.04914
0.17421	0.04914
-0.05531	0.20219
0.04670	0.27871
0.12320	0.22769
0.45472	0.12566
0.07220	0.20219
0.07220	0.25320
0.17421	0.02363
-0.08081	-0.05289
-0.05531	0.02363
-0.08081	0.12566
0.17421	0.15117
0.32721	-0.02739
0.12320	0.35523
0.17421	0.17668
0.30171	0.25320
0.55673	0.12566
-0.25932	0.04914
0.22521	0.20219
0.14870	0.10015
0.17421	0.20219
0.50573	0.15117
0.25071	0.07465
0.04670	0.15117
0.14870	0.10015
-0.23382	0.17668
-0.48884	0.20219
0.45472	0.10015
0.40372	0.15117
0.09770	0.15117
0.02119	0.12566
0.12320	0.12566
-0.10631	0.07465
0.07220	0.12566
0.25071	0.22769
0.27621	0.38074
0.27621	0.20219
0.37822	0.10015
0.27621	-0.05289
0.35272	0.04914
-0.05531	0.20219
-0.20832	0.12566
0.09770	0.22769
0.02119	0.17668
0.12320	0.22769
0.25071	0.25320
0.17421	0.15117
0.22521	0.15117
-0.10631	0.07465
0.12320	0.04914
0.22521	0.02363
0.32721	0.17668
0.02119	0.10015
0.19971	0.10015
0.17421	0.15117
0.40372	0.20219
0.17421	0.10015
-0.08081	-0.07840
0.40372	0.22769
0.48022	0.07465
0.02119	0.17668
-0.10631	0.25320
-0.13181	0.10015
-0.15732	0.07465
0.27621	0.15117
0.37822	0.20219
0.40372	0.15117
-0.31033	0.12566
0.58223	0.15117
-0.41233	-0.12942
0.12320	0.07465
-0.00431	0.15117
0.27621	-0.05289
0.55673	0.15117
0.63323	0.30422
0.45472	0.15117
0.04670	0.10015
0.19971	0.35523
-0.10631	0.12566
-0.02981	0.12566
-0.15732	0.15117
-0.08081	0.02363
-0.05531	0.12566
0.09770	0.17668
0.25071	0.12566
0.12320	0.25320
0.17421	0.20219
0.42922	0.10015
0.17421	0.02363
-0.00431	-0.00188
-0.18282	0.04914
0.12320	0.22769
0.40372	0.25320
0.65874	0.22769
0.35272	0.25320
-0.00431	0.02363
0.14870	0.04914
0.19971	0.10015
0.32721	0.22769
0.04670	0.04914
-0.38683	0.12566
-0.41233	0.15117
-0.05531	0.10015
0.12320	0.48277
0.37822	0.35523
0.58223	0.10015
0.19971	0.07465
-0.02981	0.12566
0.37822	0.10015
0.07220	-0.00188
0.17421	0.02363
0.22521	0.15117
0.60773	0.20219
-0.02981	0.20219
0.04670	0.25320
0.07220	0.12566
-0.15732	0.04914
-0.05531	0.12566
-0.00431	0.04914
-0.02981	0.15117
0.19971	0.22769
0.19971	0.15117
0.45472	0.22769
0.07220	0.17668
0.27621	0.07465
0.37822	0.07465
0.14870	0.25320
0.04670	0.20219
0.27621	0.17668
0.42922	0.17668
0.12320	0.10015
-0.23382	0.07465
-0.05531	0.07465
-0.36133	-0.00188
-0.08081	0.04914
0.27621	0.17668
0.63323	0.30422
0.60773	0.38074
-0.10631	0.20219
-0.15732	0.04914
0.30171	0.15117
0.27621	-0.00188
0.09770	0.02363
0.12320	0.30422
0.30171	0.12566
0.04670	-0.07840
0.19971	0.12566
0.19971	0.38074
-0.33583	0.15117
0.32721	0.15117
0.25071	0.15117
0.04670	0.02363
0.32721	0.07465
0.32721	0.15117
0.02119	0.07465
-0.05531	-0.00188
0.17421	0.32972
0.02119	0.32972
0.30171	0.04914
0.25071	0.10015
0.14870	0.20219
-0.33583	-0.02739
0.02119	0.07465
0.22521	0.20219
0.42922	0.20219
0.17421	0.22769
0.27621	0.20219
0.30171	0.20219
0.02119	-0.02739
-0.05531	-0.00188
0.02119	0.12566
0.12320	0.22769
0.07220	0.10015
0.55673	0.15117
0.37822	0.30422
0.12320	0.20219
-0.10631	0.10015
-0.05531	0.12566
0.12320	0.10015
0.58223	0.17668
0.09770	0.02363
0.09770	0.12566
0.14870	0.17668
0.12320	0.17668
0.14870	0.12566
0.27621	0.22769
0.32721	0.20219
0.09770	0.04914
-0.43783	0.12566
-0.08081	0.04914
0.12320	0.12566
0.50573	0.25320
0.02119	0.12566
0.07220	0.04914
0.32721	0.27871
0.22521	0.25320
-0.31033	-0.00188
0.19971	0.15117
0.50573	0.20219
0.35272	0.17668
-0.00431	0.12566
-0.28482	0.07465
0.02119	0.07465
0.63323	0.10015
0.42922	0.17668
0.02119	0.22769
0.19971	0.30422
-0.00431	0.32972
-0.10631	0.15117
0.09770	0.10015
-0.38683	0.04914
0.30171	0.15117
0.32721	-0.02739
0.27621	0.15117
0.02119	0.22769
0.45472	0.27871
0.19971	0.25320
0.27621	0.07465
-0.00431	0.02363
-0.31033	0.04914
0.07220	0.15117
0.50573	0.20219
0.48022	0.20219
-0.41233	0.10015
0.14870	0.15117
0.04670	0.10015
0.35272	0.27871
0.68424	0.22769
0.25071	0.22769
0.02119	-0.00188
-0.05531	0.02363
-0.23382	0.27871
0.17421	0.07465
0.07220	0.07465
-0.02981	-0.07840
0.07220	0.17668
0.32721	0.27871
0.48022	0.27871
0.35272	0.10015
0.02119	0.07465
-0.13181	-0.00188
-0.38683	0.22769
-0.00431	0.15117
0.14870	0.20219
0.37822	0.04914
0.14870	0.12566
0.42922	0.30422
0.35272	0.20219
0.32721	0.04914
0.35272	-0.02739
0.02119	0.10015
-0.15732	0.15117
0.12320	0.04914
0.04670	0.15117
0.09770	0.15117
0.12320	0.12566
0.30171	0.20219
0.25071	0.17668
0.19971	0.15117
-0.10631	0.10015
-0.13181	0.10015
0.30171	0.10015
0.32721	0.17668
0.02119	0.27871
-0.05531	0.04914
0.02119	0.07465
0.22521	-0.00188
0.22521	0.17668
0.25071	0.17668
-0.05531	0.20219
0.70974	0.15117
0.04670	0.07465
-0.02981	0.10015
0.04670	0.17668
0.32721	0.25320
0.17421	0.17668
-0.38683	0.15117
0.04670	0.07465
0.25071	0.07465
0.12320	0.07465
0.50573	0.12566
0.37822	0.17668
0.09770	0.17668
-0.02981	0.20219
0.02119	0.27871
0.12320	0.07465
0.07220	0.20219
0.22521	0.25320
0.32721	0.20219
0.09770	0.04914
-0.28482	0.10015
-0.31033	0.12566
0.32721	0.04914
0.40372	0.25320
0.48022	0.17668
0.07220	0.12566
-0.00431	0.10015
0.22521	0.20219
0.30171	0.15117
0.14870	0.20219
-0.10631	0.04914
0.27621	0.12566
-0.02981	0.22769
0.04670	0.25320
0.73524	0.25320
0.40372	0.10015
-0.15732	0.04914
0.04670	0.12566
-0.00431	0.15117
-0.08081	0.15117
-0.23382	-0.07840
-0.02981	-0.10391
0.53123	0.22769
0.63323	0.25320
-0.15732	0.02363
-0.10631	0.12566
0.27621	0.22769
0.22521	0.30422
0.30171	0.20219
0.12320	0.15117
0.30171	0.15117
0.30171	0.17668
0.25071	0.15117
0.02119	0.02363
-0.28482	0.07465
0.37822	0.27871
0.14870	0.15117
0.09770	0.12566
-0.10631	0.07465
-0.00431	0.12566
0.37822	0.17668
0.04670	0.12566
-0.18282	0.02363
0.58223	0.27871
0.53123	0.25320
0.17421	0.12566
0.22521	0.12566
0.48022	0.12566
-0.20832	0.12566
-0.18282	0.15117
-0.02981	0.22769
-0.02981	0.15117
0.09770	-0.00188
0.04670	-0.00188
0.14870	0.20219
0.27621	0.25320
0.48022	0.20219
0.50573	0.22769
0.25071	0.12566
0.04670	0.07465
-0.31033	0.07465
0.02119	0.20219
0.19971	0.07465
0.42922	0.12566
0.02119	0.27871
0.35272	0.22769
0.22521	0.04914
-0.33583	0.02363
0.14870	0.22769
0.14870	0.30422
0.22521	0.04914
-0.00431	-0.02739
0.12320	0.07465
0.12320	0.25320
-0.46334	0.10015
0.17421	0.12566
0.76074	0.17668
0.53123	0.07465
-0.10631	0.02363
0.55673	0.20219
0.09770	0.17668
-0.10631	0.17668
-0.08081	0.04914
0.04670	0.04914
0.12320	0.12566
0.14870	0.30422
0.17421	0.22769
0.27621	0.04914
0.17421	0.10015
-0.00431	0.07465
0.25071	0.20219
0.12320	0.12566
0.14870	0.27871
0.17421	0.25320
0.17421	0.07465
0.09770	0.15117
0.27621	0.22769
0.40372	0.25320
0.32721	0.10015
-0.13181	-0.07840
0.17421	0.12566
0.09770	0.10015
-0.08081	0.12566
-0.36133	0.22769
0.02119	0.20219
0.19971	0.25320
0.40372	0.32972
0.53123	0.04914
0.27621	0.07465
0.17421	0.07465
-0.15732	0.12566
0.12320	0.15117
0.17421	0.07465
0.07220	0.15117
0.19971	0.10015
0.30171	0.27871
-0.00431	0.25320
0.35272	0.12566
0.35272	0.04914
0.25071	0.17668
-0.28482	0.17668
0.14870	0.15117
0.22521	0.12566
-0.18282	0.02363
-0.20832	0.12566
0.42922	0.15117
0.12320	0.02363
0.32721	0.04914
0.35272	0.20219
0.35272	0.27871
0.12320	0.15117
-0.02981	0.12566
0.12320	0.10015
0.14870	0.17668
-0.15732	0.22769
0.42922	0.10015
0.32721	0.17668
-0.36133	0.20219
0.07220	0.15117
0.14870	-0.00188
0.40372	0.07465
0.37822	0.12566
0.02119	0.07465
0.02119	0.35523
0.12320	0.12566
-0.05531	0.12566
0.30171	0.20219
0.42922	0.22769
0.19971	0.10015
-0.10631	0.07465
0.25071	0.25320
-0.10631	-0.00188
0.12320	-0.20594
0.09770	0.22769
0.37822	0.35523
0.17421	0.20219
0.19971	0.15117
0.32721	0.15117
-0.10631	0.15117
-0.00431	0.10015
0.07220	0.15117
0.12320	-0.02739
0.27621	0.15117
0.25071	0.10015
0.27621	0.15117
-0.00431	0.22769
0.09770	0.15117
-0.05531	0.15117
0.09770	0.10015
-0.13181	0.12566
0.40372	0.20219
0.14870	0.30422
0.12320	0.17668
0.27621	0.15117
0.25071	0.15117
-0.05531	0.10015
0.12320	0.10015
0.45472	0.12566
0.63323	0.20219
-0.05531	0.25320
-0.08081	0.10015
-0.25932	0.04914
-0.15732	-0.00188
-0.28482	0.22769
0.25071	0.15117
0.12320	0.20219
0.30171	0.25320
0.63323	0.30422
0.40372	0.10015
0.02119	-0.02739
0.04670	0.25320
0.35272	0.12566
0.07220	0.04914
-0.00431	0.04914
0.02119	0.32972
-0.18282	0.12566
0.17421	0.15117
0.37822	0.25320
0.30171	0.04914
0.09770	-0.05289
0.09770	0.12566
-0.05531	0.04914
0.32721	0.04914
-0.31033	0.30422
-0.08081	0.32972
0.63323	0.12566
0.78624	0.15117
0.19971	0.12566
-0.02981	0.02363
-0.28482	0.10015
-0.08081	0.25320
0.09770	0.15117
0.37822	0.07465
0.14870	0.04914
0.02119	0.12566
0.30171	0.15117
0.40372	0.15117
0.07220	0.12566
-0.15732	0.10015
-0.08081	0.10015
-0.05531	0.20219
0.22521	0.20219
0.37822	0.20219
0.55673	0.30422
0.45472	0.22769
0.12320	-0.07840
0.07220	-0.00188
-0.23382	0.07465
-0.15732	0.20219
0.07220	-0.00188
0.19971	0.20219
0.25071	0.22769
0.22521	0.15117
-0.28482	0.04914
0.17421	0.10015
0.37822	0.20219
0.37822	0.20219
0.12320	0.22769
0.17421	0.15117
0.30171	-0.15492
-0.05531	0.12566
-0.08081	0.22769
0.58223	0.10015
0.09770	0.27871
-0.08081	0.10015
-0.15732	0.07465
-0.00431	0.35523
0.37822	0.12566
0.40372	-0.05289
-0.08081	0.20219
-0.05531	0.07465
-0.15732	-0.00188
0.37822	0.25320
0.09770	0.20219
0.14870	0.10015
0.35272	0.30422
0.30171	0.15117
-0.05531	0.15117
0.25071	0.04914
-0.00431	-0.00188
0.07220	0.22769
0.04670	0.15117
0.17421	0.04914
0.35272	0.15117
0.07220	0.15117
0.09770	0.35523
-0.00431	0.32972
-0.02981	0.07465
0.27621	0.07465
0.25071	0.15117
0.12320	-0.05289
-0.10631	0.02363
-0.13181	0.25320
0.22521	0.17668
0.12320	0.25320
0.32721	0.30422
0.02119	0.15117
0.17421	-0.00188
0.32721	0.15117
0.45472	0.12566
0.19971	0.15117
-0.13181	0.17668
-0.15732	-0.00188
0.22521	0.15117
-0.02981	0.25320
0.55673	0.12566
-0.00431	0.07465
-0.10631	0.02363
-0.02981	0.10015
0.14870	0.20219
-0.20832	0.27871
0.42922	0.30422
0.37822	0.07465
0.37822	0.15117
0.12320	0.10015
0.22521	0.10015
0.02119	0.15117
0.09770	0.25320
0.02119	0.04914
0.02119	0.12566
0.07220	0.20219
0.22521	0.12566
0.17421	0.04914
-0.08081	0.27871
0.35272	0.25320
0.37822	0.20219
0.09770	0.10015
0.07220	-0.05289
0.12320	-0.05289
0.19971	-0.02739
-0.02981	0.22769
-0.53984	0.22769
-0.05531	0.25320
0.30171	0.15117
0.42922	0.20219
0.30171	0.04914
0.22521	0.10015
0.65874	0.20219
0.22521	-0.10391
-0.15732	0.27871
0.30171	0.30422
-0.00431	0.07465
0.04670	0.12566
0.35272	0.30422
-0.02981	0.15117
-0.43783	0.10015
0.19971	0.04914
0.53123	0.12566
-0.00431	0.15117
-0.10631	0.20219
0.02119	-0.02739
0.14870	0.02363
0.22521	0.20219
0.40372	0.17668
0.22521	0.17668
0.32721	0.20219
0.45472	0.25320
0.35272	0.20219
-0.23382	0.02363
0.07220	0.07465
-0.02981	-0.05289
0.07220	0.20219
0.17421	0.07465
0.09770	0.12566
-0.10631	0.20219
0.19971	0.27871
0.60773	0.35523
0.22521	0.22769
0.35272	-0.02739
0.17421	-0.02739
-0.08081	0.10015
0.04670	0.10015
-0.15732	-0.00188
0.12320	0.17668
0.22521	0.12566
0.37822	0.30422
0.12320	0.22769
0.19971	0.20219
0.22521	0.22769
0.12320	0.25320
0.27621	0.12566
0.02119	0.04914
-0.08081	-0.07840
-0.25932	-0.00188
0.17421	0.15117
0.60773	0.22769
0.45472	0.25320
-0.23382	0.15117
0.07220	0.10015
0.25071	0.17668
0.19971	0.20219
-0.10631	0.17668
0.07220	0.22769
0.19971	0.02363
0.19971	-0.05289
0.12320	0.10015
0.04670	0.32972
0.22521	-0.00188
0.37822	0.22769
0.50573	0.25320
-0.08081	0.10015
-0.15732	0.07465
0.07220	0.17668
0.17421	0.10015
0.04670	0.17668
0.22521	0.30422
0.22521	0.25320
-0.10631	0.15117
0.04670	0.12566
-0.02981	0.17668
-0.25932	0.15117
0.48022	0.12566
1.21977	0.12566
0.55673	0.07465
-0.25932	0.17668
-0.31033	0.20219
-0.18282	0.04914
-0.00431	0.04914
-0.02981	0.02363
0.02119	0.07465
-0.15732	0.17668
0.14870	0.17668
0.19971	0.07465
-0.08081	0.15117
0.73524	0.35523
0.37822	0.32972
0.42922	0.27871
0.63323	0.07465
-0.08081	0.07465
-0.25932	0.07465
0.50573	0.15117
-0.18282	0.15117
-0.10631	0.02363
-0.00431	0.02363
0.04670	0.17668
0.09770	0.22769
0.19971	0.15117
0.27621	0.12566
0.25071	0.17668
0.04670	0.07465
0.07220	0.04914
0.37822	0.15117
0.12320	0.15117
0.02119	0.27871
0.14870	0.02363
0.48022	0.22769
0.60773	0.10015
0.27621	0.15117
-0.25932	-0.02739
-0.25932	0.10015
-0.13181	0.12566
-0.05531	0.07465
0.12320	0.15117
0.25071	0.25320
0.12320	0.30422
0.58223	0.20219
0.58223	0.20219
0.27621	-0.02739
-0.15732	-0.02739
-0.25932	0.12566
0.14870	0.20219
0.25071	0.22769
0.37822	0.04914
0.32721	0.17668
-0.94787	0.15117
0.40372	0.07465
0.53123	0.17668
0.25071	0.20219
0.04670	0.22769
0.07220	0.10015
0.02119	0.02363
0.02119	0.02363
0.35272	0.15117
0.14870	0.12566
-0.05531	0.15117
-0.13181	0.12566
0.25071	0.35523
0.58223	0.17668
0.42922	0.10015
-0.13181	0.25320
-0.28482	0.07465
0.14870	0.02363
0.37822	-0.05289
0.04670	0.07465
0.30171	0.17668
0.04670	0.27871
0.14870	0.27871
0.14870	0.10015
0.19971	0.17668
-0.20832	0.07465
0.12320	0.04914
0.35272	0.17668
0.27621	0.15117
0.17421	0.30422
0.17421	0.22769
0.27621	0.07465
0.22521	0.15117
0.02119	0.20219
0.02119	-0.00188
-0.18282	0.12566
-0.13181	0.20219
0.09770	0.17668
0.32721	0.10015
0.19971	0.17668
0.35272	0.12566
0.35272	0.12566
0.09770	0.20219
-0.36133	0.22769
0.35272	0.25320
0.07220	0.17668
-0.20832	0.07465
0.35272	0.04914
0.48022	0.15117
0.09770	0.17668
0.09770	0.04914
0.55673	0.22769
-0.05531	0.30422
0.07220	0.12566
0.25071	0.07465
-0.10631	0.02363
-0.20832	0.12566
0.07220	0.17668
-0.02981	0.07465
-0.05531	0.12566
0.60773	0.15117
0.91375	0.20219
0.25071	0.20219
0.17421	0.12566
-0.25932	0.27871
0.07220	0.17668
0.22521	-0.02739
0.02119	0.04914
-0.13181	-0.05289
0.19971	0.15117
0.22521	0.25320
0.42922	0.27871
0.12320	0.10015
0.27621	0.15117
0.07220	0.17668
0.04670	0.12566
-0.10631	0.02363
0.02119	0.10015
0.27621	0.15117
0.30171	0.30422
0.12320	0.22769
0.17421	0.02363
0.27621	0.07465
0.09770	0.22769
-0.13181	0.17668
-0.18282	0.15117
-0.00431	0.04914
0.35272	0.10015
0.30171	0.15117
0.30171	0.17668
0.12320	0.12566
0.35272	0.17668
0.22521	0.22769
-0.00431	0.15117
0.19971	0.10015
0.25071	0.10015
-0.00431	0.10015
-0.31033	0.02363
-0.28482	0.15117
0.73524	0.15117
0.25071	0.17668
0.40372	0.27871
0.35272	0.15117
0.14870	0.02363
0.02119	0.17668
-0.00431	0.07465
-0.18282	-0.00188
-0.18282	0.07465
0.04670	0.12566
0.35272	0.27871
0.22521	0.32972
0.53123	0.15117
0.12320	0.17668
0.09770	0.07465
0.22521	-0.02739
0.25071	0.10015
-0.10631	0.07465
0.09770	0.17668
0.22521	0.15117
0.30171	0.22769
0.12320	-0.02739
0.02119	0.07465
-0.08081	0.25320
0.12320	0.07465
0.07220	0.17668
-0.00431	0.12566
0.55673	-0.00188
0.27621	0.22769
0.22521	0.25320
-0.28482	0.20219
0.35272	0.27871
0.17421	0.12566
-0.08081	0.12566
0.53123	0.04914
0.19971	0.12566
-0.33583	0.15117
0.07220	0.07465
0.35272	0.12566
0.32721	0.22769
-0.10631	0.15117
-0.00431	0.15117
0.27621	0.20219
0.32721	0.22769
0.12320	0.07465
0.22521	0.25320
0.02119	0.15117
0.14870	-0.00188
0.04670	0.17668
-0.05531	0.04914
0.30171	0.04914
0.55673	0.35523
0.30171	0.30422
0.22521	0.04914
-0.08081	0.02363
0.25071	0.07465
0.07220	0.15117
-0.08081	0.22769
-0.10631	0.22769
0.22521	0.07465
0.12320	0.20219
0.02119	0.15117
0.45472	0.20219
0.22521	0.15117
0.12320	0.02363
0.30171	0.22769
-0.08081	0.12566
-0.10631	0.12566
-0.25932	0.22769
0.99026	0.22769
0.27621	0.17668
0.04670	0.04914
0.22521	0.17668
0.19971	0.12566
0.14870	0.20219
0.07220	0.12566
0.02119	0.12566
-0.23382	0.15117
-0.38683	0.12566
0.30171	-0.00188
0.63323	0.10015
0.22521	0.17668
0.09770	0.25320
0.04670	0.32972
0.27621	0.17668
0.25071	0.10015
0.09770	0.15117
0.14870	0.07465
0.22521	0.07465
0.17421	0.15117
0.02119	0.20219
-0.05531	0.20219
0.14870	0.25320
0.22521	0.12566
0.50573	0.22769
0.60773	0.04914
0.14870	0.07465
-0.84586	0.10015
-0.28482	0.15117
0.27621	0.17668
0.32721	0.02363
0.14870	0.04914
0.27621	0.22769
0.02119	0.22769
0.02119	0.07465
0.22521	0.02363
0.68424	0.10015
0.27621	0.30422
-0.10631	0.15117
0.42922	0.22769
-0.13181	0.27871
0.32721	0.15117
0.14870	0.12566
0.25071	0.10015
0.09770	0.20219
