0.63323	0.30422
0.32721	0.35523
-0.10631	0.25320
-0.28482	0.32972
-0.20832	0.38074
-0.28482	-0.02739
-0.00431	-0.15492
0.35272	-0.02739
0.63323	0.15117
0.58223	0.02363
0.60773	0.32972
0.27621	0.40625
-0.10631	0.25320
-0.23382	0.07465
-0.28482	0.25320
-0.36133	0.15117
-0.02981	-0.15492
0.40372	-0.20594
0.53123	0.02363
0.53123	0.25320
0.63323	0.40625
0.17421	0.45726
-0.13181	0.25320
-0.18282	0.27871
-0.15732	0.32972
-0.31033	-0.12942
-0.05531	-0.15492
0.45472	-0.07840
0.55673	-0.05289
0.48022	0.12566
0.60773	0.22769
0.17421	0.35523
-0.13181	0.32972
-0.15732	0.27871
-0.18282	0.35523
-0.28482	0.07465
-0.02981	-0.18043
0.42922	-0.05289
0.60773	0.07465
0.50573	-0.00188
0.53123	0.25320
0.19971	0.30422
-0.13181	0.22769
-0.28482	0.25320
-0.10631	0.32972
-0.41233	0.04914
0.04670	-0.07840
0.45472	-0.23145
0.55673	0.12566
0.60773	-0.07840
0.58223	0.27871
0.27621	0.38074
-0.08081	0.30422
-0.31033	0.27871
-0.18282	0.22769
-0.41233	0.04914
-0.05531	-0.12942
0.37822	-0.07840
0.48022	0.17668
0.53123	0.10015
0.60773	0.27871
0.25071	0.32972
-0.08081	0.30422
-0.28482	0.32972
-0.10631	0.27871
-0.38683	0.04914
-0.02981	-0.10391
0.37822	-0.20594
0.58223	0.07465
0.53123	-0.07840
0.58223	0.25320
0.35272	0.48277
-0.15732	0.32972
-0.18282	0.17668
-0.20832	0.35523
-0.38683	-0.15492
-0.00431	-0.15492
0.37822	0.02363
0.53123	0.10015
0.53123	0.12566
0.70974	0.27871
0.19971	0.32972
-0.00431	0.15117
-0.20832	0.25320
-0.20832	0.25320
-0.36133	-0.00188
-0.00431	-0.07840
0.42922	-0.07840
0.50573	0.12566
0.48022	0.04914
0.60773	0.27871
0.17421	0.35523
-0.08081	0.27871
-0.20832	0.20219
-0.23382	0.32972
-0.33583	-0.00188
-0.05531	-0.10391
0.42922	0.04914
0.58223	0.02363
0.50573	0.02363
0.68424	0.25320
0.22521	0.32972
-0.13181	0.35523
-0.20832	0.17668
-0.20832	0.32972
-0.25932	-0.05289
-0.10631	-0.15492
0.42922	-0.00188
0.58223	-0.05289
0.42922	0.10015
0.63323	0.30422
0.25071	0.30422
-0.20832	0.32972
-0.23382	0.30422
-0.13181	0.20219
-0.46334	0.15117
-0.02981	-0.00188
0.50573	-0.23145
0.63323	-0.07840
0.53123	-0.05289
0.63323	0.27871
0.19971	0.55929
-0.05531	0.35523
-0.18282	0.32972
-0.20832	0.30422
-0.31033	-0.05289
-0.10631	-0.18043
0.37822	-0.12942
0.58223	-0.02739
0.42922	-0.00188
0.58223	0.35523
0.27621	0.38074
-0.18282	0.38074
-0.20832	0.43176
-0.18282	0.30422
-0.43783	-0.05289
0.02119	-0.18043
0.48022	-0.00188
0.58223	0.04914
0.42922	-0.00188
0.68424	0.30422
0.19971	0.35523
-0.05531	0.38074
-0.20832	0.22769
-0.28482	0.35523
-0.36133	0.15117
-0.00431	-0.10391
0.40372	-0.05289
0.68424	0.15117
0.48022	0.02363
0.53123	0.20219
0.19971	0.45726
-0.08081	0.20219
-0.23382	0.15117
-0.23382	0.35523
-0.36133	0.02363
-0.08081	-0.10391
0.45472	0.04914
0.55673	-0.02739
0.48022	0.07465
0.60773	0.40625
0.25071	0.30422
-0.13181	0.32972
-0.13181	0.22769
-0.23382	0.32972
-0.33583	0.04914
0.12320	-0.20594
0.35272	-0.05289
0.63323	0.04914
0.55673	-0.02739
0.58223	0.25320
0.27621	0.43176
-0.13181	0.15117
-0.28482	0.15117
-0.20832	0.38074
-0.33583	0.15117
-0.10631	-0.07840
0.37822	0.04914
0.65874	-0.00188
0.53123	-0.20594
0.60773	0.22769
0.35272	0.40625
-0.15732	0.25320
-0.18282	0.35523
-0.13181	0.22769
-0.41233	-0.02739
-0.05531	-0.10391
0.40372	-0.15492
0.53123	0.12566
0.53123	0.17668
0.65874	0.30422
0.22521	0.35523
-0.18282	0.15117
-0.25932	0.20219
-0.13181	0.35523
-0.41233	0.02363
-0.10631	-0.15492
0.37822	-0.02739
0.68424	-0.00188
0.53123	0.10015
0.63323	0.43176
0.30171	0.40625
-0.13181	0.25320
-0.20832	0.20219
-0.13181	0.17668
-0.33583	0.02363
0.04670	-0.12942
0.40372	-0.07840
0.60773	0.04914
0.50573	0.04914
0.60773	0.35523
0.35272	0.30422
-0.18282	0.30422
-0.18282	0.17668
-0.20832	0.30422
-0.36133	0.02363
0.07220	-0.15492
0.32721	-0.02739
0.60773	0.07465
0.50573	0.02363
0.58223	0.30422
0.27621	0.30422
-0.10631	0.17668
-0.28482	0.30422
-0.10631	0.35523
-0.38683	0.04914
-0.00431	0.02363
0.35272	-0.15492
0.50573	-0.00188
0.50573	-0.05289
0.68424	0.20219
0.19971	0.45726
-0.05531	0.20219
-0.28482	0.22769
-0.20832	0.35523
-0.43783	-0.05289
-0.00431	-0.00188
0.37822	-0.12942
0.50573	0.15117
0.55673	-0.02739
0.60773	0.10015
0.25071	0.32972
-0.10631	0.22769
-0.25932	0.45726
-0.10631	0.38074
-0.46334	0.07465
-0.00431	0.02363
0.37822	-0.07840
0.60773	0.10015
0.55673	-0.05289
0.55673	0.20219
0.32721	0.32972
-0.18282	0.17668
-0.20832	0.30422
-0.05531	0.32972
-0.36133	-0.10391
-0.13181	-0.10391
0.40372	-0.07840
0.63323	-0.05289
0.50573	-0.07840
0.53123	0.32972
0.27621	0.50828
0.02119	0.30422
-0.20832	0.20219
-0.28482	0.35523
-0.36133	0.15117
0.07220	-0.10391
0.37822	-0.20594
0.58223	0.04914
0.58223	0.12566
0.60773	0.20219
0.19971	0.38074
-0.10631	0.40625
-0.13181	0.22769
-0.20832	0.25320
-0.36133	0.02363
-0.05531	-0.10391
0.37822	-0.18043
0.48022	-0.10391
0.55673	0.02363
0.63323	0.40625
0.32721	0.45726
-0.08081	0.27871
-0.18282	0.15117
-0.10631	0.27871
-0.36133	-0.00188
-0.10631	-0.02739
0.30171	-0.05289
0.58223	0.15117
0.53123	0.04914
0.63323	0.27871
0.22521	0.40625
-0.10631	0.32972
-0.18282	0.10015
-0.23382	0.15117
-0.36133	-0.05289
-0.02981	-0.05289
0.35272	-0.00188
0.50573	0.04914
0.48022	0.15117
0.73524	0.43176
0.25071	0.48277
-0.20832	0.30422
-0.20832	0.25320
-0.20832	0.15117
-0.46334	-0.00188
-0.05531	-0.18043
0.40372	-0.23145
0.50573	0.12566
0.50573	0.02363
0.63323	0.30422
0.19971	0.45726
0.02119	0.20219
-0.20832	0.20219
-0.23382	0.32972
-0.31033	-0.00188
-0.00431	-0.05289
0.37822	-0.00188
0.60773	-0.02739
0.48022	0.04914
0.63323	0.27871
0.22521	0.30422
-0.23382	0.40625
-0.13181	0.30422
-0.20832	0.20219
-0.41233	0.07465
-0.02981	-0.20594
0.35272	-0.10391
0.55673	0.02363
0.60773	-0.05289
0.58223	0.30422
0.25071	0.40625
-0.02981	0.22769
-0.15732	0.25320
-0.18282	0.40625
-0.33583	-0.00188
-0.13181	-0.02739
0.32721	0.02363
0.55673	-0.00188
0.37822	-0.05289
0.63323	0.27871
0.35272	0.35523
-0.20832	0.25320
-0.18282	0.32972
-0.15732	0.32972
-0.43783	-0.05289
-0.00431	-0.05289
0.40372	-0.02739
0.53123	0.10015
0.50573	-0.00188
0.65874	0.12566
0.22521	0.10015
-0.15732	0.20219
-0.20832	0.38074
-0.20832	0.35523
-0.38683	0.10015
0.02119	0.04914
0.35272	-0.23145
0.53123	-0.05289
0.48022	0.17668
0.60773	0.25320
0.27621	0.22769
-0.20832	0.10015
-0.13181	0.27871
-0.05531	0.27871
-0.46334	0.07465
-0.08081	-0.10391
0.53123	0.04914
0.76074	0.25320
0.53123	0.12566
0.55673	0.12566
0.02119	0.25320
-0.25932	0.25320
-0.18282	0.30422
-0.10631	0.27871
-0.28482	-0.15492
-0.05531	-0.23145
0.42922	0.02363
0.81175	0.12566
0.50573	0.02363
0.12320	0.02363
0.27621	0.55929
0.02119	0.22769
-0.15732	0.10015
-0.28482	0.45726
-0.36133	0.48277
0.14870	0.15117
0.53123	0.02363
0.68424	0.07465
0.19971	-0.15492
0.73524	0.12566
0.32721	0.02363
-0.33583	0.20219
0.42922	0.25320
-0.00431	0.10015
-1.66191	-0.10391
-0.28482	0.12566
0.73524	0.15117
0.86275	0.15117
0.50573	0.17668
0.99026	0.40625
1.32178	0.17668
-0.02981	0.17668
-1.50890	0.02363
-0.69285	0.30422
0.19971	0.12566
-0.28482	0.02363
0.42922	-0.15492
0.78624	0.04914
0.58223	-0.05289
1.11776	0.40625
0.73524	0.40625
-1.66191	0.25320
-0.10631	0.30422
0.12320	-0.02739
-0.13181	-0.07840
-0.10631	-0.07840
0.30171	0.10015
0.42922	0.25320
0.53123	0.17668
0.48022	0.20219
-0.10631	0.43176
-0.18282	0.55929
-0.28482	-0.05289
-0.23382	0.12566
-0.20832	0.40625
0.07220	-0.28246
0.40372	-0.20594
0.58223	-0.05289
0.55673	-0.33348
0.70974	0.50828
0.42922	0.25320
0.02119	0.45726
-0.23382	0.43176
-0.31033	0.61031
-0.38683	0.30422
-0.10631	-0.23145
0.32721	-0.20594
0.60773	-0.05289
0.58223	0.17668
0.58223	0.25320
0.19971	0.17668
-0.18282	0.15117
-0.18282	0.20219
-0.13181	0.07465
0.02119	0.12566
0.27621	0.02363
-0.74385	0.20219
0.63323	0.17668
0.55673	0.10015
0.68424	0.15117
0.76074	0.53379
0.58223	0.35523
0.48022	0.10015
-2.04444	0.10015
-1.02437	0.04914
-0.46334	-0.18043
0.45472	-0.25695
0.32721	0.15117
0.91375	0.10015
1.19427	0.35523
0.99026	0.45726
0.37822	0.32972
0.02119	0.20219
0.02119	0.20219
-1.43240	-0.05289
-0.23382	-0.07840
0.09770	-0.00188
0.42922	0.07465
0.37822	0.15117
0.50573	0.43176
0.32721	0.25320
-0.10631	-0.30797
-0.28482	-0.23145
-0.15732	0.35523
-0.43783	0.61031
0.04670	-0.25695
0.53123	0.25320
0.63323	0.50828
0.58223	-0.15492
0.68424	0.48277
0.27621	0.78886
-0.05531	0.61031
-0.13181	-0.00188
-0.18282	-0.05289
-0.20832	-0.25695
-0.10631	-0.28246
0.12320	-0.23145
0.60773	0.15117
0.55673	-0.00188
1.50029	0.30422
1.04126	0.12566
-2.37596	0.32972
-0.76936	0.35523
-0.15732	0.30422
-0.64185	0.04914
0.32721	-0.18043
0.73524	-0.38449
0.73524	0.17668
0.70974	0.00000
0.63323	0.53379
0.99026	0.50828
1.42379	0.48277
-2.12094	-0.05289
-1.61091	0.17668
-0.64185	0.15117
0.09770	-0.07840
0.83725	0.17668
0.99026	-0.02739
0.88825	0.76336
0.99026	0.35523
0.53123	-0.15492
-0.18282	-0.46102
-0.18282	0.48277
-0.36133	-0.10391
-0.64185	0.02363
-0.15732	0.10015
0.22521	0.35523
0.37822	0.02363
0.50573	0.40625
0.42922	0.45726
0.37822	0.73785
-0.10631	0.17668
-0.53984	-0.30797
-0.10631	-0.18043
-0.71835	0.58480
0.30171	0.48277
0.63323	-0.02739
1.19427	-0.33348
0.30171	-0.33348
-0.08081	-0.53754
0.53123	0.45726
0.42922	0.50828
-0.28482	0.58480
1.24527	0.48277
-2.37596	0.27871
-0.20832	0.12566
0.27621	-0.07840
0.93925	0.30422
1.44929	-0.05289
1.62780	-0.35899
0.50573	0.02363
0.30171	0.22769
-0.31033	0.25320
-0.33583	0.50828
-0.53984	0.68683
-0.20832	-0.07840
0.19971	-0.28246
0.40372	-0.18043
0.27621	0.55929
0.53123	0.50828
0.17421	0.32972
-0.20832	0.12566
-0.20832	0.55929
-0.20832	-0.61406
-0.33583	-0.25695
0.07220	0.04914
0.48022	0.32972
0.70974	0.66132
0.50573	0.17668
0.60773	-0.25695
0.22521	-0.18043
-0.10631	0.40625
-0.18282	0.73785
-0.05531	0.45726
-0.20832	0.55929
0.17421	0.20219
0.19971	-0.02739
0.48022	-0.63957
0.45472	-0.71609
0.70974	-0.07840
0.42922	0.17668
-0.25932	0.15117
-0.13181	0.76336
0.37822	0.55929
-1.68742	0.58480
-1.30489	0.25320
0.40372	-0.02739
1.75531	0.15117
0.55673	0.20219
0.32721	-0.18043
0.78624	0.02363
0.63323	0.30422
-0.38683	0.15117
0.42922	-0.10391
-0.31033	0.40625
-0.10631	0.27871
0.42922	-0.05289
0.45472	0.02363
0.40372	0.22769
0.48022	-0.12942
0.07220	0.20219
-0.28482	0.12566
-0.31033	0.17668
-0.33583	0.15117
-0.33583	0.40625
-0.00431	-0.12942
0.27621	-0.38449
0.58223	0.76336
0.55673	0.22769
0.76074	-0.05289
0.35272	-0.00188
-0.00431	0.12566
-0.00431	0.27871
-0.10631	0.30422
-0.31033	0.81437
-0.18282	0.02363
0.48022	-0.00188
0.65874	-0.15492
0.40372	-0.20594
0.81175	0.25320
0.78624	0.40625
-0.76936	0.35523
-1.12638	0.10015
0.35272	0.12566
0.58223	0.12566
-1.84042	0.27871
1.24527	0.10015
-0.33583	-0.05289
-1.10088	-0.15492
-0.20832	-0.02739
0.68424	0.40625
0.45472	0.45726
0.17421	0.40625
0.04670	0.35523
-0.28482	0.38074
-0.05531	-0.81812
0.30171	-0.69059
0.48022	0.32972
0.78624	0.50828
-0.05531	0.45726
0.02119	0.50828
-0.25932	0.30422
-0.23382	0.22769
-0.18282	0.25320
-0.41233	-0.02739
0.30171	-0.23145
1.44929	0.02363
-0.43783	-0.12942
0.53123	0.12566
0.83725	0.04914
0.73524	-0.25695
0.53123	0.27871
-0.13181	0.76336
-1.07538	0.55929
-0.15732	0.32972
0.09770	-0.18043
0.50573	0.02363
0.65874	0.17668
0.99026	0.22769
1.50029	0.15117
-1.12638	0.12566
-0.13181	0.25320
-1.91693	0.12566
0.60773	0.02363
-0.53984	0.27871
-1.53441	0.12566
0.12320	-0.12942
1.09226	-0.05289
1.01576	-0.02739
1.52579	0.10015
0.86275	-0.05289
0.91375	0.45726
-1.58541	0.96742
-0.61635	0.55929
-0.48884	0.15117
-0.28482	-0.25695
0.17421	-0.07840
0.53123	-0.25695
0.45472	-0.15492
-0.13181	0.35523
0.30171	0.61031
0.04670	0.25320
-0.02981	-0.10391
-0.02981	-0.10391
-0.23382	0.30422
-0.05531	0.30422
0.40372	0.55929
0.68424	-0.15492
0.55673	-0.18043
0.63323	0.15117
0.53123	0.45726
-0.13181	0.10015
-0.43783	0.07465
-0.15732	0.12566
-0.59084	1.06945
-0.28482	-0.43551
0.81175	-0.81812
0.55673	-0.38449
1.01576	0.25320
1.27078	0.48277
-0.53984	0.50828
-0.46334	0.76336
0.30171	0.55929
0.40372	0.22769
-0.38683	0.32972
-0.71835	-0.30797
0.19971	-0.25695
0.58223	-0.15492
0.68424	0.10015
1.37278	-0.05289
0.73524	0.12566
-1.30489	0.30422
-0.00431	-0.07840
-0.02981	0.68683
-0.08081	0.83988
0.04670	0.10015
0.40372	-0.33348
0.63323	0.35523
0.35272	0.22769
0.58223	-0.33348
0.32721	-0.02739
-0.13181	0.45726
-0.36133	0.20219
-0.43783	1.04394
-0.38683	0.30422
-0.00431	-1.04770
0.42922	-0.46102
0.86275	0.25320
1.37278	0.38074
0.35272	0.25320
0.27621	0.35523
0.02119	0.35523
-0.08081	0.04914
-0.02981	0.45726
-0.43783	0.45726
0.12320	0.35523
0.63323	-0.28246
0.70974	-0.61406
1.24527	-0.07840
1.06676	0.27871
-1.53441	0.25320
-0.33583	0.48277
0.58223	0.63582
-1.30489	0.25320
-0.10631	-0.10391
0.48022	0.04914
0.58223	0.10015
0.22521	0.15117
1.01576	-0.33348
0.53123	-0.10391
0.35272	0.38074
-0.13181	0.48277
-0.20832	0.25320
-0.28482	0.22769
-0.59084	0.32972
-0.18282	0.32972
0.30171	-0.15492
0.48022	-0.18043
0.55673	-0.12942
0.68424	-0.00188
0.42922	0.48277
-0.05531	0.73785
-0.53984	0.40625
-0.36133	0.32972
-0.25932	-0.30797
-0.00431	-0.86914
0.48022	0.53379
0.65874	0.15117
0.55673	0.07465
0.73524	0.22769
0.27621	0.76336
-0.13181	0.53379
-0.38683	0.43176
-0.13181	0.02363
-0.15732	0.10015
0.30171	-0.30797
0.14870	-0.15492
0.63323	-0.07840
-0.18282	0.15117
0.50573	0.12566
0.14870	0.15117
0.91375	0.45726
-0.10631	0.32972
-1.04987	0.25320
0.04670	0.25320
0.17421	-0.05289
1.29628	-0.12942
-0.15732	-0.12942
1.24527	0.02363
-0.82036	0.20219
0.27621	0.45726
0.12320	0.30422
0.07220	0.22769
-0.05531	0.25320
-0.23382	0.02363
0.02119	0.22769
0.45472	0.27871
0.58223	0.35523
0.40372	-0.15492
0.55673	-0.23145
0.14870	0.50828
-0.18282	0.86539
-0.13181	-0.38449
-0.28482	-0.99668
-0.41233	0.25320
-0.08081	0.43176
0.37822	0.40625
0.53123	0.40625
0.40372	0.22769
0.60773	0.02363
0.45472	0.38074
-0.10631	0.22769
-0.00431	0.15117
0.12320	0.78886
-0.28482	-0.15492
-0.08081	-0.84363
0.60773	-0.48652
0.45472	-0.05289
0.76074	0.32972
0.30171	0.20219
0.93925	0.53379
-1.07538	0.63582
0.14870	0.38074
-1.02437	0.07465
-0.25932	0.15117
0.22521	0.15117
0.48022	-0.07840
1.11776	-0.07840
0.60773	0.07465
0.55673	-0.02739
0.55673	0.61031
-0.48884	0.17668
-0.15732	-0.23145
-0.08081	-0.12942
-0.48884	0.76336
-0.08081	0.10015
0.25071	-0.23145
0.70974	-0.02739
0.48022	0.40625
0.63323	0.66132
0.25071	-0.20594
-0.23382	-0.28246
-0.10631	0.32972
-0.15732	0.45726
-0.33583	0.71234
0.02119	-0.02739
0.30171	0.43176
0.60773	-0.05289
0.50573	-0.30797
0.55673	-0.30797
0.37822	-0.02739
-0.23382	0.04914
-0.20832	0.22769
-0.18282	0.38074
-0.28482	0.40625
0.09770	0.25320
0.65874	0.04914
0.93925	-0.05289
0.99026	0.04914
-0.82036	-0.15492
0.60773	0.32972
0.27621	0.27871
0.12320	0.22769
-0.43783	0.27871
0.09770	0.25320
0.22521	0.15117
0.83725	-0.02739
0.99026	-0.46102
0.45472	-0.02739
0.27621	0.58480
-0.20832	0.55929
0.02119	-0.25695
-0.13181	-0.07840
-0.15732	0.83988
-0.23382	1.22250
-0.18282	-0.00188
0.25071	-0.86914
0.58223	-0.41000
0.42922	0.76336
0.60773	-0.38449
0.32721	0.25320
-0.08081	-0.15492
-0.23382	-0.71609
-0.18282	0.25320
-0.25932	0.91640
-0.02981	0.50828
0.40372	0.04914
0.55673	0.22769
0.55673	0.10015
0.73524	0.10015
0.30171	0.20219
-0.18282	0.12566
-0.20832	-0.05289
-0.13181	0.30422
-0.33583	0.17668
-0.13181	-0.18043
0.27621	-0.00188
0.68424	-0.05289
0.35272	-0.18043
0.70974	-0.07840
0.50573	0.43176
0.22521	0.66132
-0.23382	0.35523
-2.42696	0.32972
-0.08081	0.43176
0.48022	0.10015
0.96476	-0.35899
-0.02981	-0.15492
0.68424	0.04914
1.44929	0.20219
0.09770	0.45726
-0.08081	0.48277
0.19971	0.10015
-0.46334	-0.00188
-0.41233	-0.12942
-0.05531	0.55929
0.32721	0.15117
0.99026	-0.69059
0.40372	0.38074
0.32721	0.25320
0.12320	0.53379
-0.10631	0.48277
-0.13181	0.27871
-0.15732	-0.05289
-0.20832	-0.05289
0.09770	0.10015
0.35272	0.02363
0.53123	0.04914
0.40372	0.40625
0.65874	-0.56305
0.40372	-0.28246
0.07220	0.35523
-0.51434	0.32972
-0.33583	0.63582
-0.18282	0.63582
0.09770	-0.05289
0.37822	0.02363
0.68424	-0.00188
0.42922	0.20219
0.83725	-0.30797
0.42922	0.10015
-1.86593	0.45726
-0.38683	0.45726
-0.38683	0.25320
0.14870	0.32972
0.63323	0.12566
0.60773	-0.30797
1.04126	-0.20594
-0.92237	0.32972
0.99026	0.22769
0.58223	-0.12942
-0.08081	-0.00188
-0.23382	0.04914
-0.05531	0.55929
-0.41233	0.22769
-0.46334	-0.15492
0.55673	-0.05289
0.48022	-0.02739
0.81175	0.12566
-0.43783	0.17668
0.07220	1.17148
-0.00431	0.58480
-0.10631	-0.25695
-0.02981	-0.00188
-0.20832	0.55929
0.04670	0.43176
0.48022	-0.46102
0.68424	-0.15492
0.58223	-0.07840
0.55673	-0.05289
0.25071	0.32972
-0.08081	0.10015
-0.33583	-0.10391
-0.28482	0.15117
-0.33583	0.53379
0.02119	0.07465
0.37822	-0.05289
0.42922	0.25320
0.81175	-0.10391
0.35272	0.04914
0.14870	0.48277
-0.10631	0.43176
-0.08081	0.22769
0.37822	0.27871
-0.51434	0.55929
-0.20832	0.07465
-0.05531	-0.48652
0.63323	-0.76711
0.93925	0.22769
0.63323	-0.10391
0.30171	0.50828
0.27621	0.71234
-0.76936	0.43176
0.17421	0.15117
-0.15732	0.20219
0.09770	0.22769
0.45472	0.30422
0.53123	0.25320
0.48022	-0.69059
0.55673	-0.84363
0.27621	0.17668
-0.18282	0.78886
-0.36133	0.81437
-0.20832	0.45726
-0.38683	0.12566
-0.18282	-0.23145
0.37822	-0.43551
0.63323	-0.12942
0.48022	-0.12942
0.63323	0.12566
0.40372	0.91640
-0.00431	0.63582
-0.15732	0.27871
-0.13181	0.07465
-0.38683	0.22769
-0.08081	-0.23145
0.19971	-0.25695
0.68424	0.04914
0.32721	0.12566
0.53123	-0.35899
0.65874	0.17668
-0.02981	0.58480
0.14870	0.50828
-0.23382	0.30422
-1.43240	0.43176
-1.15188	-0.05289
0.83725	-0.00188
0.17421	0.22769
0.93925	-0.15492
0.93925	-0.28246
0.48022	0.10015
0.25071	0.66132
-0.08081	0.38074
-0.20832	0.22769
-0.53984	0.83988
-0.20832	0.27871
0.35272	-0.46102
0.50573	-0.53754
0.12320	-1.02219
0.63323	0.12566
0.48022	1.01843
-0.10631	0.53379
-0.05531	0.96742
-0.23382	0.55929
-0.33583	0.25320
-0.02981	-0.00188
0.35272	0.22769
0.58223	-0.38449
0.58223	-0.43551
0.68424	-0.61406
0.32721	0.22769
-0.10631	0.10015
-0.02981	-0.00188
0.07220	0.50828
-1.84042	0.68683
-0.05531	0.43176
0.19971	0.02363
0.93925	0.48277
0.55673	0.35523
0.73524	-0.35899
0.48022	0.07465
0.02119	0.30422
-0.31033	0.17668
-0.36133	0.17668
-0.05531	0.25320
0.27621	-0.02739
-0.46334	0.02363
0.19971	0.04914
1.21977	0.22769
0.04670	-0.12942
0.68424	0.12566
0.27621	0.48277
0.14870	0.35523
-0.71835	0.10015
-0.43783	0.27871
-0.13181	-0.12942
0.45472	-0.20594
0.53123	-0.30797
0.42922	0.22769
0.63323	0.63582
0.37822	0.78886
-0.13181	1.19699
-0.28482	-0.18043
-0.23382	-0.35899
-0.38683	-0.41000
-0.00431	-0.23145
0.35272	0.73785
0.60773	-0.00188
0.58223	-0.33348
0.73524	0.12566
0.37822	0.25320
-0.20832	0.07465
-0.18282	0.17668
-0.10631	0.66132
-0.38683	0.50828
-0.08081	0.20219
0.27621	-0.10391
0.60773	-0.20594
0.48022	0.10015
0.65874	-0.10391
0.25071	0.53379
-0.00431	0.15117
-0.13181	-0.07840
-0.61635	-0.02739
-0.59084	0.40625
0.93925	0.15117
0.42922	0.20219
-0.76936	0.20219
0.42922	0.38074
1.14327	0.22769
1.42379	0.04914
-0.41233	-0.15492
0.12320	0.10015
0.12320	0.43176
-0.46334	0.35523
-0.05531	0.10015
0.32721	-0.02739
0.60773	0.38074
0.40372	0.55929
0.53123	-0.56305
0.32721	-0.35899
-0.18282	0.07465
-0.33583	-0.25695
-0.41233	1.04394
-0.33583	0.66132
0.12320	0.20219
0.53123	-0.43551
0.22521	-0.58856
0.50573	-0.12942
0.73524	0.22769
0.45472	0.71234
-0.02981	0.30422
-0.25932	-0.07840
-0.20832	-0.20594
-0.31033	0.40625
-0.28482	0.32972
0.19971	-0.00188
0.55673	0.02363
0.76074	0.15117
0.58223	0.17668
0.53123	0.35523
0.09770	0.55929
-0.23382	0.20219
-0.41233	0.22769
-0.59084	-0.00188
0.12320	0.04914
0.12320	-0.12942
0.42922	-0.58856
0.30171	0.04914
0.93925	0.04914
0.45472	0.15117
0.09770	0.17668
-0.08081	0.45726
-1.20288	0.66132
-0.33583	0.71234
0.37822	0.61031
0.73524	0.12566
1.11776	-1.25176
0.42922	-0.69059
0.48022	-0.02739
0.14870	1.14597
0.09770	0.94191
-0.13181	0.38074
0.04670	-0.38449
-0.48884	0.32972
-0.00431	0.17668
0.35272	0.12566
0.55673	0.07465
0.63323	0.04914
0.76074	-0.18043
-0.41233	0.20219
-0.15732	0.35523
-0.31033	-0.07840
-0.05531	-0.18043
-0.64185	0.35523
-0.15732	-0.05289
0.35272	0.12566
0.60773	0.20219
0.76074	-0.15492
0.76074	-0.15492
0.35272	0.40625
0.07220	0.81437
-0.31033	0.58480
-0.61635	0.22769
-0.18282	0.30422
0.09770	0.12566
0.81175	-0.07840
0.60773	-0.15492
-0.41233	-0.15492
0.19971	0.22769
0.32721	0.25320
-0.31033	0.35523
0.25071	0.20219
0.45472	0.02363
-1.20288	0.20219
0.17421	-0.25695
0.42922	0.15117
1.06676	0.76336
0.55673	0.04914
0.63323	-1.32828
0.17421	-0.35899
-0.20832	0.66132
-0.25932	0.83988
-0.36133	0.61031
-0.48884	0.10015
-0.15732	0.81437
0.22521	0.63582
0.68424	-0.33348
0.45472	-0.76711
0.68424	-0.74160
0.27621	0.55929
-0.10631	0.12566
-0.05531	0.45726
0.22521	0.32972
-0.15732	0.22769
-0.66735	-0.05289
0.55673	-0.00188
0.63323	-0.00188
0.55673	0.17668
0.65874	0.15117
0.30171	0.30422
0.22521	0.38074
0.04670	0.25320
-0.23382	0.04914
-0.38683	0.32972
-0.48884	-0.02739
0.19971	-0.12942
-0.13181	0.27871
1.01576	0.07465
0.53123	-0.35899
0.50573	0.07465
0.32721	0.53379
-0.25932	0.30422
-0.71835	0.25320
-0.41233	0.96742
-0.00431	-0.05289
0.40372	-0.51203
0.81175	-0.25695
0.55673	-0.38449
0.68424	0.27871
0.32721	1.01843
-0.13181	0.20219
-0.13181	0.07465
-0.18282	0.48277
-0.38683	0.50828
-0.05531	-0.00188
0.35272	-0.20594
0.53123	0.10015
0.78624	0.02363
0.02119	-0.41000
0.22521	-0.23145
-0.05531	0.76336
-0.13181	0.38074
-0.10631	0.35523
-0.46334	0.30422
0.07220	-0.10391
0.50573	-0.07840
0.12320	0.22769
0.60773	-0.15492
0.93925	-0.30797
0.32721	0.32972
-0.20832	0.45726
-0.10631	0.27871
-0.69285	0.32972
0.30171	0.43176
-0.87136	0.25320
0.76074	0.04914
0.83725	-0.05289
-0.13181	0.07465
0.63323	-0.05289
0.78624	0.20219
0.12320	0.25320
-0.08081	0.53379
-0.15732	0.27871
-0.25932	0.15117
0.12320	0.10015
0.68424	0.45726
0.25071	-0.05289
0.35272	-0.84363
0.58223	-0.84363
0.32721	-0.10391
0.02119	0.32972
-0.10631	1.35003
-0.15732	0.76336
-0.43783	0.78886
-0.08081	0.71234
0.40372	0.04914
0.55673	-0.46102
0.53123	-0.43551
0.76074	-0.15492
0.35272	0.20219
-0.08081	0.30422
-0.23382	-0.20594
-0.13181	0.38074
-0.25932	0.50828
-0.23382	0.25320
0.68424	0.04914
0.32721	-0.51203
0.63323	-0.18043
0.63323	-0.00188
0.40372	0.25320
0.30171	0.58480
-1.27939	0.40625
0.12320	0.25320
-0.33583	0.43176
-0.05531	0.32972
0.48022	-0.18043
0.83725	-0.00188
1.24527	0.22769
1.09226	-0.02739
-1.68742	-0.33348
-0.56534	0.43176
0.37822	0.81437
-0.43783	0.35523
-0.00431	-0.23145
0.12320	-0.28246
0.65874	0.35523
0.73524	0.35523
0.48022	-0.56305
0.73524	0.10015
0.30171	0.50828
0.02119	0.50828
-0.36133	0.43176
-0.38683	0.35523
-0.59084	0.10015
-0.23382	-0.30797
0.25071	-0.18043
0.53123	0.07465
0.50573	0.43176
0.60773	-0.00188
0.45472	0.12566
-0.08081	-0.25695
-0.10631	0.50828
-0.20832	0.45726
-0.64185	0.02363
-0.00431	0.25320
0.42922	-0.18043
0.65874	0.02363
0.63323	0.07465
0.83725	-0.38449
0.27621	-0.00188
-0.10631	0.68683
-0.33583	0.32972
-0.20832	-0.05289
-0.18282	0.25320
-0.13181	0.35523
0.22521	0.12566
0.81175	0.12566
0.07220	-0.07840
0.83725	-0.20594
0.12320	0.25320
0.04670	0.63582
-0.66735	0.20219
0.12320	0.15117
-0.13181	0.40625
-0.38683	0.07465
0.22521	0.04914
0.32721	0.40625
0.45472	0.02363
0.88825	-0.66508
0.48022	-0.20594
-0.05531	0.02363
0.02119	0.20219
0.02119	0.71234
-0.56534	0.63582
-0.20832	0.04914
0.35272	-0.05289
0.68424	-0.10391
0.48022	0.50828
0.63323	-0.00188
0.27621	-0.07840
-0.10631	0.45726
-0.25932	0.32972
-0.20832	0.04914
-0.38683	0.04914
-0.13181	-0.20594
0.45472	-0.28246
0.50573	0.20219
0.50573	0.32972
0.68424	0.22769
0.63323	0.35523
0.70974	0.38074
-1.53441	0.32972
-0.28482	0.04914
-0.31033	0.20219
0.32721	0.12566
0.40372	-0.12942
0.42922	-0.15492
0.55673	0.04914
1.06676	0.35523
-0.13181	0.32972
0.22521	-0.10391
-0.79486	-0.10391
-0.36133	0.76336
-0.28482	0.22769
-0.08081	-0.97117
0.40372	0.10015
1.09226	0.43176
0.73524	0.76336
0.22521	0.15117
0.22521	0.22769
-0.00431	0.20219
-0.25932	0.35523
-0.02981	0.48277
-0.41233	-0.33348
0.07220	-0.18043
0.42922	0.45726
0.25071	0.20219
0.42922	-0.69059
0.68424	-0.12942
0.35272	0.53379
-0.02981	0.78886
-0.13181	0.32972
-0.02981	0.32972
-0.71835	0.40625
0.02119	-0.00188
0.32721	-0.35899
0.58223	-0.20594
0.53123	0.07465
0.68424	0.15117
0.37822	0.45726
-0.08081	-0.05289
-0.15732	-0.05289
-0.18282	0.32972
-0.41233	0.20219
-0.13181	-0.10391
0.60773	0.04914
0.53123	0.27871
0.19971	0.12566
0.32721	0.43176
-0.15732	0.07465
0.42922	0.02363
-0.18282	-0.05289
-0.18282	0.40625
-0.43783	0.55929
-0.15732	0.27871
0.53123	0.20219
0.65874	-0.61406
1.19427	-0.20594
0.63323	0.15117
-0.48884	0.68683
-0.00431	0.02363
0.25071	-0.71609
-0.08081	-0.07840
-0.25932	0.40625
0.07220	0.76336
0.42922	1.14597
0.45472	0.12566
0.60773	-0.30797
0.53123	-0.23145
0.27621	-0.10391
-0.18282	0.35523
-0.33583	0.22769
-0.18282	0.07465
-0.31033	0.32972
-0.18282	-0.23145
0.30171	-0.15492
0.70974	0.02363
0.50573	0.07465
0.45472	0.10015
0.37822	0.40625
-0.08081	0.30422
-0.20832	0.15117
-0.13181	0.25320
-0.18282	0.61031
-0.02981	0.45726
0.65874	0.22769
0.83725	-0.25695
-0.25932	-0.69059
0.65874	-0.15492
0.70974	0.35523
-0.13181	0.45726
-0.33583	0.38074
-0.48884	0.15117
-0.33583	0.43176
0.02119	0.02363
0.50573	-0.15492
0.88825	-0.15492
0.55673	-0.00188
0.25071	0.07465
0.27621	0.30422
-0.02981	0.22769
-0.31033	0.35523
-0.08081	0.35523
-0.79486	0.22769
-0.15732	-0.00188
0.68424	-0.38449
0.32721	-0.25695
0.70974	0.55929
0.68424	-0.07840
0.25071	0.15117
-0.48884	0.73785
-0.02981	0.76336
-0.13181	0.30422
-0.28482	0.32972
0.07220	-0.48652
0.42922	-0.10391
0.65874	-0.28246
0.55673	0.04914
0.68424	-0.25695
0.30171	0.10015
-0.13181	0.55929
-0.18282	0.58480
-0.23382	1.19699
-0.38683	0.22769
-0.18282	-0.35899
0.30171	-0.46102
0.50573	0.04914
0.58223	0.27871
0.73524	0.10015
0.55673	0.35523
0.27621	0.63582
-0.92237	0.20219
0.07220	0.04914
-0.41233	0.10015
0.25071	-0.05289
0.14870	-0.05289
0.81175	0.40625
0.40372	0.10015
0.60773	-0.30797
0.68424	0.04914
-0.02981	0.53379
-0.13181	0.48277
0.04670	0.30422
-0.28482	0.38074
0.19971	0.25320
-0.48884	-0.07840
0.45472	-0.25695
0.58223	-0.51203
0.53123	-0.30797
0.48022	0.45726
-0.05531	0.55929
0.07220	0.50828
-0.23382	0.22769
-0.79486	0.04914
-0.41233	0.02363
0.50573	0.10015
0.68424	0.25320
0.58223	0.12566
0.70974	0.20219
0.35272	-0.00188
-0.08081	0.27871
-0.23382	-0.18043
-0.33583	-0.25695
-0.36133	0.96742
-0.13181	-0.00188
0.53123	-0.18043
0.53123	-0.07840
0.78624	0.15117
-0.00431	0.38074
0.37822	0.38074
-0.08081	0.27871
-0.13181	0.32972
-0.05531	0.40625
-0.41233	0.35523
-0.15732	0.04914
0.37822	-0.28246
0.63323	-0.12942
0.73524	0.27871
0.86275	0.02363
-0.51434	0.35523
0.37822	0.15117
0.68424	-0.10391
-1.96793	0.12566
-0.89686	0.40625
0.25071	0.12566
0.48022	-0.02739
0.86275	0.22769
0.65874	0.22769
0.68424	-0.12942
0.12320	0.22769
-0.18282	0.25320
-0.05531	0.25320
0.07220	0.32972
-0.59084	0.12566
-0.31033	0.32972
0.22521	0.30422
0.53123	-0.12942
0.50573	0.15117
0.58223	0.27871
0.32721	-0.66508
-0.08081	-0.20594
-0.20832	0.45726
-0.05531	0.30422
-0.28482	0.73785
-0.13181	0.17668
0.48022	0.22769
0.42922	0.04914
0.48022	0.12566
0.81175	-0.02739
0.22521	0.63582
-0.05531	-0.05289
-0.13181	-0.28246
-0.25932	-0.15492
-0.18282	0.50828
-0.08081	0.20219
-0.38683	0.04914
0.60773	0.04914
0.68424	0.27871
0.81175	-0.02739
0.35272	0.32972
0.02119	0.25320
-0.48884	-0.02739
-0.10631	0.12566
-0.38683	0.35523
0.58223	0.17668
-0.00431	0.04914
0.09770	-0.46102
0.45472	0.10015
0.70974	0.15117
0.53123	0.35523
-0.02981	0.32972
-0.05531	0.15117
0.09770	0.43176
-0.74385	0.30422
-0.56534	-0.07840
-0.18282	-0.43551
0.73524	-0.00188
0.65874	0.76336
0.73524	0.27871
0.48022	0.53379
-0.13181	-0.30797
-0.23382	-0.10391
-0.10631	0.30422
-0.41233	0.25320
-0.13181	0.38074
0.32721	-0.35899
0.50573	-0.25695
0.48022	0.30422
0.81175	0.17668
0.27621	0.10015
-0.05531	0.63582
-0.13181	0.61031
-0.33583	0.32972
-0.33583	0.43176
-0.15732	-0.20594
0.37822	-0.23145
0.53123	0.10015
0.48022	-0.30797
0.78624	-0.53754
0.50573	0.02363
-0.05531	0.38074
-0.53984	0.66132
0.22521	0.89089
-0.51434	0.63582
-0.13181	0.04914
0.86275	-0.15492
0.65874	-0.12942
0.81175	-0.02739
0.30171	-0.12942
-0.02981	0.27871
0.40372	0.32972
-1.15188	0.50828
0.22521	0.30422
-0.41233	0.55929
-0.15732	-0.48652
0.45472	-0.81812
0.81175	-0.20594
0.70974	0.73785
0.70974	0.12566
0.53123	0.38074
0.14870	0.55929
-0.25932	0.04914
-0.20832	0.66132
-0.48884	0.99292
-0.15732	-0.05289
0.19971	-0.56305
0.53123	-0.84363
0.42922	-0.15492
0.60773	-0.10391
0.37822	0.04914
-0.13181	0.22769
-0.20832	0.73785
-0.08081	0.78886
-0.25932	0.73785
-0.05531	0.12566
0.32721	-0.18043
0.76074	-0.25695
0.76074	-0.28246
0.63323	-0.02739
0.32721	0.04914
-0.05531	0.27871
-0.31033	0.38074
-0.08081	0.35523
-0.15732	0.55929
-0.53984	0.38074
0.30171	-0.07840
1.34728	-0.18043
0.30171	-0.07840
0.65874	-0.18043
-0.15732	0.22769
0.55673	0.55929
0.37822	0.50828
-0.18282	0.27871
-0.59084	0.27871
0.02119	-0.00188
0.55673	-0.25695
0.76074	-0.30797
0.50573	-0.05289
0.53123	-0.00188
0.12320	0.78886
-0.15732	0.30422
-0.20832	-0.02739
-0.31033	0.38074
-0.38683	0.94191
-0.20832	-0.69059
0.22521	-0.58856
0.58223	0.17668
0.53123	0.73785
0.76074	0.40625
0.30171	0.25320
-0.00431	-0.00188
-0.23382	0.27871
-0.20832	0.35523
-0.48884	0.55929
-0.02981	0.04914
0.45472	-0.12942
0.63323	-0.30797
0.55673	-0.05289
0.65874	0.10015
0.50573	0.10015
-0.13181	0.07465
-0.28482	0.25320
-0.25932	0.45726
-0.51434	0.35523
-0.08081	0.10015
0.27621	0.02363
0.68424	-0.00188
0.63323	0.22769
0.53123	-0.12942
0.40372	0.20219
-0.08081	0.35523
-0.20832	0.30422
-0.48884	0.30422
-0.15732	0.38074
0.04670	0.07465
0.42922	-0.10391
0.81175	-0.00188
0.58223	0.22769
0.63323	0.12566
0.19971	0.02363
-0.15732	0.04914
0.09770	0.76336
0.19971	-0.23145
-1.91693	-0.05289
-0.18282	0.04914
0.53123	0.04914
0.63323	0.53379
0.55673	0.50828
0.83725	0.25320
0.50573	0.40625
-0.05531	0.12566
-0.08081	0.20219
-0.15732	0.04914
-0.33583	-0.02739
-0.15732	-0.38449
0.04670	-0.38449
0.55673	-0.18043
0.60773	0.38074
0.53123	0.07465
0.50573	0.61031
-0.20832	0.55929
-0.18282	0.43176
0.12320	0.22769
-0.48884	0.10015
-0.20832	-0.12942
0.58223	-0.15492
-0.08081	-0.07840
0.88825	0.17668
0.96476	0.25320
0.83725	0.35523
-1.22839	0.35523
-0.23382	0.43176
-0.28482	0.15117
-0.02981	0.07465
0.19971	-0.10391
-0.02981	-0.15492
0.70974	0.15117
0.12320	0.07465
0.70974	-0.12942
0.42922	0.15117
0.09770	0.55929
-0.25932	0.71234
-0.48884	0.10015
-0.46334	-0.12942
0.40372	0.07465
0.27621	0.76336
-0.18282	-0.38449
0.40372	-0.86914
0.76074	0.02363
0.58223	0.50828
0.22521	0.81437
-0.87136	0.68683
-0.18282	0.38074
-0.18282	0.43176
0.07220	0.04914
0.42922	-0.30797
0.63323	-0.38449
0.48022	0.10015
0.58223	-0.07840
0.19971	0.02363
-0.10631	0.25320
-0.20832	0.43176
-0.20832	0.27871
-0.38683	0.17668
-0.08081	0.17668
0.27621	0.20219
0.58223	0.15117
0.53123	0.12566
0.68424	0.35523
0.42922	-0.07840
-0.10631	-0.07840
-0.20832	0.12566
-0.20832	0.48277
0.14870	0.35523
-0.79486	0.07465
0.02119	-0.02739
0.58223	0.04914
0.50573	0.22769
1.09226	0.04914
1.11776	0.30422
-0.48884	0.32972
-1.27939	0.35523
-0.15732	-0.05289
0.02119	0.32972
0.35272	-0.12942
0.45472	-0.25695
0.81175	-0.02739
0.42922	0.07465
0.53123	-0.38449
0.42922	0.30422
-0.18282	0.61031
-0.25932	0.83988
-0.18282	0.55929
-1.04987	0.78886
-0.15732	-0.25695
0.35272	-0.53754
0.60773	-0.15492
0.53123	0.25320
0.73524	-0.05289
0.45472	0.50828
-0.02981	0.32972
-0.28482	-0.05289
-0.13181	-0.12942
-0.23382	0.32972
-0.36133	0.10015
0.27621	-0.00188
0.53123	0.02363
0.58223	0.12566
0.50573	-0.02739
0.50573	0.25320
-0.05531	0.48277
-0.28482	0.30422
-0.13181	0.22769
-0.25932	0.45726
-0.59084	-0.07840
0.48022	-0.23145
0.45472	-0.05289
0.50573	-0.02739
0.68424	-0.05289
0.63323	0.35523
0.02119	0.35523
-0.25932	0.30422
-0.64185	0.22769
-0.18282	0.04914
-0.28482	0.04914
0.73524	0.07465
0.35272	0.25320
0.27621	0.12566
0.78624	-0.25695
0.50573	0.02363
-0.02981	0.71234
-0.20832	0.30422
-0.15732	0.58480
-0.38683	0.15117
-0.20832	-0.35899
0.37822	-0.07840
0.50573	-0.20594
0.42922	0.25320
0.65874	0.20219
0.37822	0.61031
-0.10631	0.45726
-0.20832	-0.02739
-0.23382	0.02363
-0.41233	0.50828
-0.10631	-0.02739
0.27621	-0.48652
0.58223	-0.58856
0.55673	0.50828
0.76074	-0.00188
0.37822	0.38074
-0.13181	0.25320
-0.15732	0.17668
-0.25932	-0.33348
-0.38683	0.76336
-0.02981	0.63582
0.45472	0.12566
0.63323	-0.18043
0.53123	-0.35899
0.93925	-0.12942
0.07220	0.22769
-0.18282	0.50828
0.07220	0.04914
-0.13181	-0.05289
0.22521	0.55929
-0.05531	0.35523
0.53123	-0.07840
0.55673	-0.20594
0.53123	0.27871
0.76074	0.12566
0.19971	0.02363
-0.25932	0.50828
-0.33583	-0.10391
-0.13181	0.50828
-0.00431	0.78886
-0.94787	-0.25695
0.35272	-1.04770
0.70974	-0.38449
0.76074	0.68683
0.70974	0.40625
0.55673	0.27871
-0.08081	0.22769
-0.18282	0.58480
-0.20832	0.35523
-0.36133	0.22769
-0.15732	0.07465
0.19971	-0.38449
0.53123	-0.41000
0.42922	0.10015
0.60773	0.17668
0.45472	0.35523
-0.13181	-0.02739
-0.18282	-0.10391
-0.15732	0.58480
-0.41233	0.61031
-0.08081	0.02363
0.30171	-0.07840
0.60773	-0.28246
0.50573	0.04914
0.50573	0.43176
0.50573	0.30422
-0.20832	0.22769
-0.08081	0.20219
-0.00431	0.20219
-0.51434	0.20219
-0.08081	-0.00188
0.65874	-0.10391
0.81175	0.10015
-0.23382	0.35523
0.70974	-0.00188
0.27621	0.17668
-0.08081	0.12566
-0.08081	0.27871
0.42922	0.27871
-0.43783	0.10015
-0.41233	0.07465
0.32721	0.15117
0.68424	0.15117
0.91375	0.04914
0.60773	0.02363
-0.05531	0.73785
-0.38683	0.10015
-0.05531	-0.66508
0.02119	-0.46102
-0.25932	1.14597
-0.28482	0.81437
0.48022	-0.05289
0.58223	-0.23145
0.65874	0.12566
0.55673	-0.15492
0.22521	0.40625
-0.02981	0.81437
-0.20832	0.45726
-0.23382	-0.30797
-0.38683	-0.20594
-0.20832	0.10015
0.27621	0.02363
0.73524	-0.05289
0.48022	-0.12942
0.73524	0.25320
0.12320	1.12046
0.02119	0.12566
-0.31033	-0.76711
-0.10631	-0.15492
-0.28482	0.66132
-0.02981	0.86539
0.30171	0.68683
0.60773	0.25320
0.50573	-0.05289
0.45472	-0.46102
0.25071	-0.38449
-0.08081	0.50828
-0.20832	0.61031
-0.33583	0.27871
-0.10631	0.17668
-0.43783	-0.02739
0.58223	-0.25695
0.12320	-0.10391
0.42922	0.50828
0.73524	-0.28246
0.70974	-0.07840
0.63323	0.15117
-1.02437	0.35523
-0.28482	0.48277
-0.33583	0.61031
0.02119	0.20219
0.19971	0.02363
0.60773	-0.02739
0.55673	0.25320
0.63323	0.17668
0.35272	0.15117
-0.00431	0.15117
-0.28482	-0.23145
-0.15732	0.22769
-0.48884	0.55929
-0.10631	0.25320
0.32721	-0.20594
0.48022	-0.05289
0.45472	0.43176
0.73524	-0.89465
0.35272	-0.15492
-0.08081	0.63582
-0.15732	0.66132
-0.10631	0.50828
-0.41233	0.35523
-0.10631	0.30422
0.32721	0.04914
0.58223	-0.18043
0.55673	-0.38449
0.63323	-0.30797
0.37822	0.17668
0.04670	0.48277
-0.13181	0.45726
-0.38683	0.78886
-0.31033	0.25320
-0.05531	-0.05289
0.30171	-0.41000
0.63323	-0.10391
0.48022	0.25320
1.01576	0.12566
-0.23382	0.22769
-0.13181	0.30422
0.53123	0.48277
-0.51434	0.30422
-0.43783	0.40625
-1.84042	0.07465
0.50573	-0.10391
0.86275	-0.02739
1.04126	0.17668
1.24527	-0.02739
-0.59084	0.02363
0.19971	0.35523
-0.10631	0.20219
-0.08081	0.30422
-0.36133	-0.05289
-0.08081	0.07465
0.32721	0.32972
0.37822	0.07465
0.40372	0.22769
0.50573	-0.23145
0.25071	-0.00188
-0.13181	0.48277
-0.08081	0.27871
-0.25932	0.58480
-0.38683	0.38074
-0.02981	-0.25695
0.35272	-0.25695
0.58223	-0.20594
0.58223	-0.15492
0.70974	0.15117
0.40372	0.48277
0.02119	0.38074
-0.08081	0.35523
-0.20832	0.15117
-0.43783	0.45726
-0.08081	-0.05289
0.27621	-0.10391
0.60773	-0.05289
0.48022	0.40625
0.65874	-0.05289
0.35272	0.15117
-0.13181	0.35523
-0.13181	0.32972
-0.13181	0.04914
-0.31033	0.30422
-0.15732	0.15117
0.22521	-0.05289
0.65874	0.12566
0.63323	0.12566
0.19971	0.15117
0.45472	0.27871
-0.23382	0.25320
0.27621	0.04914
-0.20832	0.02363
-1.48340	0.40625
0.19971	0.25320
0.45472	0.02363
0.30171	-0.02739
0.53123	-0.07840
0.68424	-0.25695
0.60773	0.45726
0.09770	0.66132
-0.25932	-0.30797
-0.18282	-0.05289
-0.41233	0.73785
-0.36133	0.12566
0.37822	0.12566
0.60773	0.27871
0.58223	-0.10391
0.65874	-0.46102
0.30171	0.66132
-0.08081	0.63582
-0.15732	-0.25695
-0.18282	0.07465
-0.33583	0.45726
-0.02981	0.63582
0.37822	0.17668
0.50573	-0.28246
0.63323	-0.20594
0.73524	-0.18043
0.25071	0.12566
-0.31033	0.78886
-0.20832	0.07465
-0.20832	-0.07840
-0.28482	0.35523
0.09770	0.15117
0.68424	-0.18043
0.17421	0.22769
0.86275	0.27871
-0.13181	-0.12942
0.65874	0.20219
-0.00431	0.30422
-0.02981	0.38074
0.02119	0.22769
-0.66735	0.25320
-0.08081	0.07465
0.58223	0.07465
0.53123	-0.15492
0.40372	0.10015
0.48022	-0.05289
0.09770	0.27871
-0.10631	0.22769
-0.15732	-0.30797
-0.25932	0.22769
-0.28482	1.12046
-0.33583	-0.76711
0.25071	-0.15492
0.70974	0.50828
0.73524	1.01843
0.25071	0.43176
0.45472	-0.38449
0.17421	-0.05289
-0.00431	0.32972
-0.51434	-0.10391
-0.59084	0.02363
0.02119	0.15117
0.37822	0.17668
0.63323	0.25320
0.63323	0.04914
0.63323	-0.15492
0.35272	0.30422
-0.05531	0.35523
-0.13181	0.12566
-0.23382	0.17668
-0.71835	0.48277
-0.08081	0.20219
0.35272	-0.07840
0.50573	-0.25695
0.09770	0.12566
0.53123	0.12566
0.50573	0.15117
0.07220	0.43176
0.04670	0.30422
-0.00431	0.02363
-0.25932	0.40625
-1.35589	0.50828
0.58223	-0.25695
0.42922	-0.66508
0.32721	-0.25695
0.83725	0.27871
0.53123	0.35523
0.12320	0.58480
-0.28482	0.58480
-0.18282	0.30422
-0.31033	0.66132
-0.08081	0.35523
0.32721	-0.46102
0.65874	-0.28246
0.55673	-0.23145
0.76074	-0.38449
0.12320	0.22769
-0.05531	0.83988
-0.18282	0.78886
-0.31033	-0.28246
-0.31033	0.53379
-0.08081	1.04394
0.32721	0.07465
0.53123	-0.81812
0.55673	-0.18043
0.73524	-0.30797
0.27621	-0.48652
-0.08081	0.20219
-0.13181	0.78886
-0.28482	0.15117
-0.46334	0.40625
0.04670	0.15117
0.32721	-0.05289
0.48022	0.35523
0.50573	0.30422
0.63323	0.02363
0.42922	0.30422
0.63323	0.45726
0.12320	0.30422
-1.71292	0.20219
-0.02981	0.35523
-0.76936	-0.05289
0.32721	-0.15492
0.93925	-0.18043
0.70974	-0.02739
0.65874	-0.12942
0.70974	0.20219
0.22521	0.45726
-0.08081	0.45726
0.14870	0.27871
-1.94243	0.38074
-0.10631	0.02363
0.50573	-0.07840
0.32721	-0.41000
0.42922	0.12566
0.93925	-0.18043
0.48022	-0.00188
0.07220	0.91640
-0.25932	0.96742
-0.10631	-0.38449
-0.15732	-0.10391
-0.02981	0.12566
0.30171	0.20219
0.12320	-0.05289
0.63323	-0.12942
0.68424	0.43176
0.50573	0.63582
-0.02981	0.15117
-0.23382	-0.25695
-0.13181	-0.05289
-0.51434	0.30422
-0.02981	0.32972
0.30171	0.07465
0.58223	0.02363
0.42922	0.22769
0.65874	-0.58856
0.37822	0.07465
-0.10631	0.45726
-0.13181	0.66132
-0.36133	0.20219
-0.51434	0.45726
-0.08081	0.10015
0.40372	0.20219
0.70974	-0.18043
0.63323	0.04914
0.70974	-0.48652
0.22521	-0.07840
-0.20832	0.22769
-0.28482	0.53379
-0.02981	0.35523
-0.10631	0.50828
-1.10088	0.20219
0.32721	-0.00188
1.11776	0.27871
0.86275	0.02363
0.09770	-0.33348
0.42922	-0.18043
-0.41233	0.68683
-0.08081	0.48277
-0.02981	-0.18043
-0.28482	0.53379
-0.15732	0.15117
0.42922	-0.41000
0.63323	-0.18043
0.55673	0.07465
0.68424	0.04914
0.37822	0.68683
-0.08081	0.55929
-0.25932	0.07465
-0.28482	0.12566
-0.46334	0.66132
-0.23382	0.32972
0.22521	-0.35899
0.60773	-0.38449
0.50573	-0.20594
0.70974	0.15117
0.35272	0.17668
-0.08081	0.27871
-0.08081	0.32972
-0.20832	0.58480
-0.28482	0.73785
-0.18282	0.04914
0.27621	-0.53754
0.55673	-0.30797
0.37822	-0.02739
0.81175	0.22769
0.68424	0.45726
-0.28482	0.40625
-0.41233	0.27871
-0.38683	0.02363
-0.43783	0.20219
0.19971	0.20219
0.27621	-0.15492
0.86275	0.04914
0.78624	0.17668
0.70974	-0.05289
-0.25932	0.30422
-1.63641	0.61031
0.09770	0.20219
0.19971	-0.30797
-0.02981	-0.05289
0.30171	0.48277
0.42922	0.22769
0.65874	0.48277
0.63323	-0.00188
0.70974	-0.69059
-0.53984	-0.20594
-0.13181	0.15117
-0.25932	0.86539
-0.18282	1.14597
-0.43783	0.43176
-0.13181	-0.12942
0.40372	-0.38449
0.42922	-0.43551
0.50573	0.10015
0.58223	-0.20594
0.37822	0.10015
-0.00431	0.68683
-0.20832	0.25320
-0.18282	-0.00188
-0.31033	0.40625
-0.13181	-0.07840
0.19971	-0.15492
0.70974	-0.05289
0.53123	0.22769
0.68424	-0.00188
0.63323	0.48277
-0.08081	0.73785
-0.25932	0.12566
-0.13181	0.17668
-0.33583	0.17668
-0.23382	0.32972
0.30171	0.10015
0.55673	-0.92016
0.63323	-0.48652
0.73524	0.27871
0.63323	0.71234
-0.15732	0.55929
-0.69285	0.40625
-0.28482	0.27871
-0.61635	0.38074
0.04670	0.38074
0.60773	0.04914
0.68424	-0.38449
0.68424	-0.53754
1.09226	0.04914
0.07220	0.25320
-0.02981	0.50828
-0.08081	0.53379
-0.20832	0.40625
-0.43783	0.30422
-0.05531	0.20219
0.27621	0.07465
0.53123	-0.07840
0.50573	0.22769
0.53123	-0.53754
0.22521	0.25320
0.09770	0.66132
-0.20832	0.35523
-0.33583	-0.05289
-0.51434	-0.41000
-0.08081	-0.07840
0.32721	0.38074
0.73524	0.32972
0.50573	-0.12942
0.68424	0.02363
0.45472	0.99292
0.02119	0.17668
-0.02981	-0.30797
-0.38683	0.12566
-0.64185	0.32972
-0.23382	-0.02739
0.19971	-0.05289
0.78624	0.30422
0.58223	0.38074
0.53123	-0.00188
0.53123	0.20219
-0.05531	0.22769
0.07220	0.30422
-0.41233	-0.00188
-0.43783	0.07465
-0.48884	0.07465
0.32721	-0.02739
0.86275	-0.12942
0.19971	0.22769
0.68424	-0.05289
1.14327	0.45726
-0.20832	0.20219
-0.84586	-0.05289
-0.25932	0.20219
-0.08081	0.45726
-0.00431	0.25320
0.50573	-0.05289
0.76074	0.02363
0.65874	0.04914
0.48022	-0.12942
0.27621	0.12566
0.02119	0.61031
-0.13181	0.40625
-0.28482	0.12566
-0.41233	-0.07840
-0.33583	-0.12942
0.32721	0.04914
0.58223	0.48277
0.42922	-0.12942
0.63323	-0.05289
0.42922	-0.46102
-0.08081	0.53379
-0.20832	0.71234
-0.08081	0.32972
-0.38683	0.38074
-0.00431	0.48277
0.32721	-0.51203
0.53123	-0.38449
0.48022	0.04914
0.73524	0.32972
0.40372	0.48277
-0.05531	0.35523
-0.13181	0.27871
-0.31033	0.07465
-0.28482	0.15117
-0.10631	-0.15492
0.37822	-0.07840
0.53123	0.12566
0.22521	0.35523
0.32721	-0.05289
0.45472	0.12566
0.32721	0.45726
-0.13181	0.38074
0.22521	0.17668
-0.61635	0.63582
-1.58541	-0.12942
0.37822	-0.25695
0.73524	-0.35899
0.68424	-0.15492
1.09226	-0.00188
0.58223	0.48277
-0.20832	0.50828
-0.76936	0.15117
0.04670	0.61031
-0.15732	0.81437
0.02119	-0.35899
0.32721	-0.69059
0.65874	-0.05289
0.45472	0.35523
0.45472	0.04914
0.55673	0.89089
-0.15732	0.55929
-0.28482	-0.53754
-0.36133	-0.35899
-0.31033	0.73785
-0.20832	0.04914
0.14870	-0.35899
0.65874	0.02363
0.50573	0.40625
0.65874	0.25320
0.48022	0.15117
0.02119	0.32972
-0.18282	0.30422
-0.28482	0.35523
-0.28482	0.32972
-0.08081	-0.05289
0.17421	-0.28246
0.65874	0.04914
0.63323	0.10015
0.07220	-0.05289
0.48022	0.38074
-0.10631	0.38074
-0.20832	-0.15492
0.02119	0.02363
-0.28482	0.50828
-0.51434	0.10015
0.55673	0.12566
0.07220	0.07465
0.32721	0.07465
0.60773	0.04914
0.53123	0.20219
0.27621	0.50828
-0.15732	0.02363
-0.13181	-0.02739
-0.28482	0.66132
0.04670	0.25320
0.27621	-0.00188
0.12320	-0.63957
0.81175	-0.15492
0.12320	0.45726
0.35272	0.38074
0.02119	0.07465
-0.00431	0.07465
-0.05531	0.50828
-0.13181	1.06945
-0.05531	-0.05289
0.30171	-0.61406
0.58223	-0.10391
0.48022	0.32972
0.55673	0.17668
0.32721	0.22769
0.02119	0.35523
-0.28482	0.35523
-0.20832	0.27871
-0.31033	0.76336
-0.20832	-0.51203
0.22521	-0.53754
0.60773	-0.28246
0.60773	0.20219
0.55673	0.22769
0.35272	0.38074
0.07220	0.76336
-0.20832	0.32972
-0.13181	0.20219
-0.48884	0.38074
-0.23382	-0.05289
0.45472	-0.18043
0.83725	-0.07840
0.04670	-0.05289
0.70974	-0.18043
0.76074	0.12566
0.58223	0.48277
-0.48884	0.30422
-0.76936	0.27871
-0.02981	0.45726
-0.18282	0.15117
0.35272	0.12566
0.63323	-0.30797
0.73524	0.12566
0.55673	-0.15492
0.45472	0.20219
0.09770	0.40625
-0.18282	0.53379
-0.31033	0.32972
-0.38683	0.45726
-0.20832	0.32972
0.32721	-0.23145
0.48022	-0.86914
0.53123	-0.07840
0.58223	-0.00188
0.35272	0.22769
-0.00431	0.66132
-0.18282	0.66132
-0.13181	0.38074
-0.36133	0.68683
-0.18282	-0.00188
0.30171	-0.74160
0.50573	-0.07840
0.58223	0.38074
0.76074	0.27871
0.55673	0.07465
0.35272	0.02363
-0.92237	0.10015
-0.20832	0.07465
-0.23382	0.55929
-0.18282	0.27871
0.32721	-0.10391
0.73524	-0.02739
0.73524	0.17668
0.70974	-0.20594
-0.31033	0.27871
-0.18282	0.40625
0.02119	-0.00188
-0.18282	0.07465
-0.23382	0.53379
-0.28482	0.27871
0.53123	-0.05289
0.83725	-0.02739
0.37822	0.20219
0.91375	0.10015
0.14870	0.30422
-0.38683	0.32972
-0.00431	0.32972
-0.13181	0.30422
-0.53984	-0.05289
0.12320	-0.10391
0.19971	0.15117
0.14870	0.02363
0.58223	0.12566
0.73524	-0.07840
0.42922	0.02363
-0.02981	0.27871
-0.25932	-0.07840
-0.08081	0.40625
-0.38683	0.86539
-0.23382	-0.18043
0.37822	-0.25695
0.63323	0.07465
0.42922	0.07465
0.76074	-0.23145
0.40372	0.27871
-0.08081	0.53379
-0.18282	0.30422
-0.13181	0.17668
-0.41233	0.50828
-0.10631	0.22769
0.22521	0.30422
0.53123	-0.30797
0.48022	-0.41000
0.60773	-0.53754
0.37822	0.10015
-0.02981	0.55929
-0.25932	0.53379
-0.15732	0.58480
-0.33583	0.40625
-0.20832	0.04914
0.48022	-0.23145
0.78624	-0.43551
-0.23382	-0.23145
0.42922	0.12566
0.55673	0.48277
0.12320	0.58480
-0.02981	0.45726
-0.69285	0.25320
-0.46334	0.32972
0.27621	0.12566
0.58223	-0.10391
0.55673	-0.18043
0.68424	0.04914
0.65874	-0.07840
0.25071	0.10015
-0.13181	0.38074
-0.23382	0.15117
-0.41233	0.12566
-0.43783	0.12566
-0.46334	0.99292
0.27621	0.17668
0.70974	-0.63957
0.45472	-0.25695
0.70974	-0.10391
0.42922	-0.07840
-0.10631	0.30422
-0.08081	0.76336
-0.18282	1.09496
-0.36133	0.50828
-0.02981	0.07465
0.30171	-0.05289
0.45472	-0.28246
0.50573	0.02363
0.76074	-0.20594
0.37822	0.20219
-0.10631	0.43176
-0.18282	-0.05289
-0.15732	-0.05289
-0.31033	0.40625
-0.20832	0.48277
0.25071	0.02363
0.53123	-0.15492
0.55673	-0.05289
0.63323	-0.00188
0.32721	0.02363
-0.02981	0.40625
-0.20832	0.53379
-0.15732	0.40625
-0.25932	0.53379
-0.18282	0.22769
0.42922	-0.07840
0.37822	-0.05289
1.04126	-0.15492
-0.61635	-0.10391
0.40372	0.07465
-0.20832	0.30422
0.02119	0.30422
-0.28482	0.10015
-0.05531	0.25320
-0.25932	0.04914
-0.15732	-0.05289
0.88825	0.02363
0.63323	0.22769
0.53123	-0.15492
0.70974	0.35523
-0.18282	0.43176
-0.28482	0.58480
-0.36133	-0.25695
-0.46334	0.12566
-0.33583	-0.10391
0.32721	-0.12942
0.45472	0.02363
0.58223	0.91640
0.65874	0.53379
0.25071	-0.12942
0.02119	0.17668
-0.20832	0.27871
-0.20832	0.30422
-0.28482	0.63582
-0.10631	-0.38449
0.25071	-0.15492
0.68424	-0.05289
0.58223	0.04914
0.60773	0.10015
0.48022	-0.00188
-0.00431	0.15117
-0.31033	0.15117
-0.28482	0.25320
-0.28482	0.58480
-0.08081	0.15117
0.30171	-0.15492
0.55673	0.32972
0.55673	0.66132
0.19971	-0.86914
0.42922	-0.81812
-0.05531	0.55929
-0.20832	0.53379
0.02119	0.45726
-0.28482	0.58480
-0.66735	0.45726
0.48022	0.10015
0.30171	-0.18043
0.58223	0.10015
0.25071	-0.20594
0.68424	0.10015
0.14870	0.30422
-0.08081	0.22769
0.04670	0.30422
-0.41233	0.30422
-0.13181	-0.00188
0.37822	-0.18043
0.40372	-0.07840
0.45472	0.55929
0.68424	-0.00188
0.32721	-0.33348
-0.15732	-0.20594
-0.13181	0.76336
-0.18282	0.78886
-0.48884	0.38074
-0.10631	0.25320
0.27621	-0.18043
0.53123	-0.15492
0.50573	-0.02739
0.68424	0.35523
0.30171	0.15117
-0.08081	0.12566
-0.08081	-0.25695
-0.08081	0.12566
-0.33583	0.71234
-0.08081	0.45726
0.32721	-0.00188
0.55673	-0.10391
0.50573	-0.02739
0.55673	-0.07840
0.45472	-0.18043
-0.00431	0.53379
-0.18282	0.76336
-0.18282	0.48277
-0.48884	0.20219
-0.08081	-0.05289
0.32721	-0.25695
0.70974	-0.18043
0.25071	-0.25695
0.48022	-0.25695
0.60773	0.32972
-0.10631	0.30422
-0.05531	0.53379
0.35272	0.40625
-0.08081	0.38074
-1.04987	0.20219
-0.08081	-0.05289
0.55673	-0.02739
0.70974	0.15117
1.04126	-0.28246
0.55673	0.12566
0.25071	0.20219
-0.20832	0.27871
-0.84586	0.55929
-0.46334	0.30422
-0.05531	0.02363
0.19971	0.02363
0.68424	-0.58856
0.55673	-0.20594
0.63323	-0.07840
0.42922	0.86539
-0.13181	0.61031
-0.18282	0.53379
-0.23382	0.04914
-0.31033	0.32972
-0.20832	0.35523
0.27621	-0.48652
0.58223	-0.18043
0.55673	0.48277
0.68424	-0.00188
0.32721	0.15117
0.02119	0.07465
-0.15732	0.07465
-0.08081	0.27871
-0.43783	0.73785
-0.18282	0.32972
0.19971	-0.30797
0.53123	-0.53754
0.45472	0.04914
0.55673	-0.12942
0.48022	0.32972
-0.00431	0.32972
0.17421	0.22769
-0.33583	0.32972
-0.51434	0.38074
-0.28482	0.22769
0.25071	0.02363
0.50573	-0.05289
0.50573	0.04914
1.04126	-0.12942
0.60773	0.17668
-0.51434	0.38074
-0.76936	0.32972
-0.38683	0.35523
-0.23382	0.48277
0.19971	0.07465
0.48022	-0.30797
0.78624	-0.18043
0.58223	-0.07840
0.81175	0.17668
0.32721	0.35523
-0.02981	0.22769
-0.28482	0.15117
-0.31033	0.55929
-0.48884	1.04394
-0.23382	-0.58856
0.19971	-0.61406
0.63323	-0.05289
0.53123	0.15117
0.60773	0.17668
0.40372	0.25320
-0.02981	0.35523
-0.10631	0.40625
-0.28482	0.45726
-0.33583	0.61031
-0.15732	-0.10391
0.25071	-0.92016
0.65874	-0.12942
0.53123	0.38074
0.53123	-0.05289
0.45472	-0.00188
0.04670	0.40625
-0.20832	0.32972
-0.23382	0.20219
-0.46334	0.45726
-0.18282	0.15117
0.22521	-0.23145
0.58223	-0.25695
0.42922	-0.05289
0.53123	-0.07840
0.42922	0.32972
0.12320	0.55929
-0.15732	0.45726
-0.13181	0.17668
-0.18282	0.27871
-0.61635	0.12566
0.17421	-0.00188
0.86275	-0.02739
0.93925	0.02363
0.50573	0.12566
-0.94787	0.35523
0.12320	-0.02739
-0.00431	0.32972
0.12320	0.68683
-0.15732	0.43176
-0.13181	-0.48652
-0.08081	-0.76711
0.63323	-0.51203
0.60773	0.12566
0.53123	0.17668
0.50573	0.73785
-0.02981	0.71234
-0.25932	0.40625
-0.15732	0.10015
-0.46334	0.38074
-0.31033	0.10015
0.19971	-0.12942
0.63323	-0.25695
0.42922	0.07465
0.76074	-0.10391
0.50573	0.30422
-0.08081	0.35523
-0.38683	0.45726
-0.02981	0.27871
-0.43783	0.15117
-0.00431	-0.23145
0.37822	0.22769
0.60773	0.12566
0.60773	-0.10391
0.60773	-0.35899
0.42922	0.07465
-0.05531	0.89089
-0.31033	0.66132
-0.31033	-0.10391
-0.36133	-0.25695
-0.15732	0.10015
0.30171	0.12566
0.27621	0.17668
0.73524	0.35523
0.73524	0.07465
-0.05531	0.20219
0.02119	0.25320
-0.18282	0.25320
-0.18282	0.66132
-0.08081	0.25320
0.12320	-0.71609
-0.08081	-0.15492
0.02119	0.04914
0.32721	0.15117
0.81175	-0.00188
0.50573	0.30422
0.02119	0.30422
-0.13181	-0.10391
-0.08081	0.10015
-0.28482	0.71234
-0.13181	0.45726
0.30171	-0.18043
0.58223	0.04914
0.53123	0.02363
0.55673	-0.02739
0.40372	0.76336
-0.05531	0.66132
-0.31033	-0.15492
-0.20832	-0.61406
-0.43783	0.04914
-0.23382	0.20219
0.32721	-0.02739
0.60773	0.04914
0.53123	0.48277
0.65874	0.15117
0.42922	0.17668
-0.05531	0.68683
-0.10631	0.27871
-0.23382	-0.23145
-0.33583	0.04914
-0.10631	0.20219
0.19971	-0.33348
0.68424	0.32972
0.48022	-0.05289
0.70974	-0.15492
0.40372	0.45726
-0.18282	0.35523
-0.28482	0.50828
-0.33583	-0.02739
-0.10631	0.61031
-0.05531	0.30422
0.17421	-0.15492
-0.00431	-0.30797
0.81175	-0.15492
0.93925	-0.00188
-0.10631	0.22769
-0.33583	0.35523
0.53123	0.32972
-0.13181	0.48277
-0.43783	0.63582
-0.13181	-0.28246
0.37822	-0.25695
0.63323	-0.02739
0.48022	0.22769
0.63323	0.04914
0.42922	0.20219
-0.18282	0.48277
-0.25932	0.35523
-0.25932	0.15117
-0.36133	0.50828
-0.18282	0.27871
0.30171	0.07465
0.45472	-0.56305
0.53123	0.02363
0.68424	0.40625
0.37822	-0.05289
-0.10631	-0.10391
-0.13181	0.45726
-0.10631	0.66132
-0.38683	0.78886
-0.08081	0.20219
0.27621	-0.48652
0.48022	-0.25695
0.48022	0.30422
0.68424	0.15117
0.50573	0.15117
-0.08081	0.20219
-0.18282	0.12566
-0.18282	0.20219
-0.38683	0.40625
-0.20832	0.10015
0.32721	-0.07840
0.55673	0.02363
0.42922	0.02363
0.55673	-0.12942
0.53123	0.71234
-0.02981	0.38074
-0.25932	-0.25695
-0.02981	-0.05289
-0.61635	0.68683
-0.23382	0.35523
0.32721	0.04914
0.63323	0.27871
0.53123	0.20219
0.81175	-0.66508
-0.13181	0.02363
-0.51434	0.55929
0.14870	0.32972
-0.33583	-0.10391
-0.02981	0.45726
0.04670	0.25320
0.25071	-0.02739
0.73524	0.07465
0.63323	0.22769
