0.32721	0.45726
0.55673	0.35523
0.50573	0.22769
0.58223	0.55929
0.27621	0.02363
0.04670	-0.35899
-0.20832	-0.23145
-0.15732	-0.05289
-0.41233	0.12566
-0.15732	0.27871
0.35272	0.50828
0.50573	0.35523
0.53123	0.25320
0.70974	0.43176
0.35272	-0.00188
-0.02981	-0.10391
-0.33583	-0.00188
-0.18282	0.22769
-0.33583	-0.23145
-0.23382	0.15117
0.27621	0.27871
0.60773	0.27871
0.55673	0.27871
0.68424	0.43176
0.42922	0.10015
-0.08081	-0.00188
-0.31033	-0.05289
-0.10631	0.07465
-0.38683	0.10015
-0.10631	0.20219
0.25071	0.27871
0.53123	0.20219
0.50573	0.04914
0.63323	0.40625
0.25071	0.25320
-0.00431	-0.10391
-0.20832	-0.05289
-0.25932	0.04914
-0.33583	-0.15492
-0.13181	0.27871
0.37822	0.45726
0.63323	0.25320
0.53123	0.35523
0.63323	0.35523
0.37822	0.02363
-0.13181	-0.10391
-0.18282	-0.23145
-0.13181	-0.05289
-0.46334	-0.02739
-0.13181	0.25320
0.37822	0.43176
0.50573	0.30422
0.48022	0.20219
0.73524	0.38074
0.35272	-0.00188
-0.18282	-0.02739
-0.20832	0.02363
-0.18282	-0.05289
-0.41233	-0.10391
-0.20832	0.38074
0.32721	0.35523
0.63323	0.22769
0.50573	0.27871
0.65874	0.43176
0.42922	0.10015
-0.08081	-0.00188
-0.18282	-0.10391
-0.15732	0.10015
-0.41233	0.04914
-0.18282	0.45726
0.37822	0.17668
0.53123	0.10015
0.48022	0.07465
0.70974	0.38074
0.40372	0.20219
-0.02981	-0.12942
-0.20832	-0.07840
-0.23382	0.07465
-0.41233	-0.05289
-0.20832	0.35523
0.27621	0.38074
0.63323	0.32972
0.58223	0.25320
0.63323	0.30422
0.50573	0.07465
-0.08081	-0.12942
-0.25932	-0.12942
-0.20832	0.20219
-0.56534	-0.05289
-0.18282	0.07465
0.32721	0.35523
0.55673	0.32972
0.58223	0.12566
0.73524	0.45726
0.37822	0.07465
-0.02981	0.02363
-0.31033	0.07465
-0.18282	0.17668
-0.38683	-0.02739
-0.25932	0.17668
0.32721	0.17668
0.55673	0.25320
0.55673	0.12566
0.73524	0.30422
0.37822	0.35523
-0.05531	-0.02739
-0.13181	-0.18043
-0.20832	-0.10391
-0.43783	-0.28246
-0.08081	0.07465
0.25071	0.35523
0.70974	0.58480
0.50573	0.25320
0.70974	0.35523
0.32721	0.17668
-0.15732	-0.07840
-0.10631	-0.10391
-0.13181	0.04914
-0.38683	-0.05289
-0.13181	0.40625
0.17421	0.48277
0.63323	0.15117
0.55673	0.45726
0.65874	0.32972
0.42922	-0.10391
-0.13181	-0.35899
-0.18282	-0.20594
-0.15732	0.10015
-0.46334	0.04914
-0.13181	0.25320
0.42922	0.45726
0.50573	0.35523
0.58223	0.32972
0.65874	0.35523
0.35272	0.04914
-0.00431	-0.05289
-0.23382	-0.10391
-0.08081	0.02363
-0.38683	-0.00188
-0.13181	0.17668
0.37822	0.32972
0.53123	0.32972
0.45472	0.32972
0.55673	0.55929
0.32721	-0.00188
0.02119	-0.05289
-0.25932	-0.23145
-0.18282	-0.02739
-0.33583	-0.10391
-0.18282	0.25320
0.27621	0.43176
0.58223	0.48277
0.42922	0.30422
0.73524	0.32972
0.37822	-0.05289
-0.18282	-0.10391
-0.08081	-0.00188
-0.18282	0.20219
-0.41233	0.04914
-0.05531	0.10015
0.30171	0.25320
0.48022	0.30422
0.55673	0.17668
0.65874	0.43176
0.30171	0.27871
-0.05531	-0.07840
-0.23382	-0.15492
-0.25932	0.12566
-0.36133	-0.12942
-0.13181	0.12566
0.35272	0.45726
0.58223	0.40625
0.65874	0.25320
0.65874	0.40625
0.30171	0.02363
-0.08081	-0.12942
-0.13181	-0.02739
-0.28482	-0.05289
-0.48884	-0.00188
-0.18282	0.32972
0.30171	0.35523
0.65874	0.22769
0.73524	0.17668
0.76074	0.35523
0.40372	0.07465
-0.18282	-0.10391
-0.10631	-0.07840
-0.33583	0.20219
-0.41233	-0.12942
-0.15732	0.20219
0.22521	0.48277
0.68424	0.35523
0.42922	0.27871
0.68424	0.50828
0.45472	-0.00188
-0.08081	-0.23145
-0.31033	-0.18043
-0.18282	-0.00188
-0.28482	-0.15492
-0.13181	0.15117
0.27621	0.40625
0.58223	0.35523
0.55673	0.22769
0.58223	0.61031
0.45472	0.20219
-0.02981	0.04914
-0.20832	-0.35899
-0.20832	-0.23145
-0.28482	-0.28246
-0.08081	0.15117
0.22521	0.50828
0.55673	0.40625
0.53123	0.15117
0.60773	0.53379
0.45472	0.25320
-0.08081	-0.15492
-0.25932	-0.25695
-0.20832	-0.05289
-0.33583	-0.00188
-0.18282	0.35523
0.30171	0.50828
0.65874	0.25320
0.53123	0.10015
0.55673	0.45726
0.42922	0.10015
0.02119	-0.12942
-0.38683	-0.10391
-0.23382	0.07465
-0.31033	-0.30797
-0.20832	-0.02739
0.27621	0.45726
0.63323	0.50828
0.45472	0.35523
0.70974	0.53379
0.45472	0.17668
-0.08081	-0.15492
-0.13181	-0.10391
-0.20832	0.10015
-0.36133	-0.18043
-0.18282	0.20219
0.30171	0.40625
0.60773	0.35523
0.58223	0.30422
0.53123	0.35523
0.40372	-0.00188
-0.08081	-0.18043
-0.18282	-0.15492
-0.18282	0.22769
-0.41233	-0.05289
-0.10631	0.25320
0.32721	0.89089
0.55673	0.17668
0.65874	0.10015
0.68424	0.07465
0.50573	-0.15492
-0.02981	0.32972
-0.23382	0.02363
-0.23382	0.20219
-0.48884	-0.02739
-0.10631	0.02363
0.27621	0.35523
0.53123	0.17668
0.60773	-0.05289
0.73524	0.55929
0.48022	0.58480
-0.23382	-0.05289
-0.23382	-0.51203
-0.23382	-0.05289
-0.43783	-0.02739
-0.13181	0.22769
0.55673	0.22769
0.53123	0.20219
0.45472	0.48277
0.68424	0.50828
0.22521	0.12566
0.12320	0.02363
-0.15732	-0.25695
0.09770	-0.05289
0.12320	-0.25695
0.32721	0.48277
-3.09000	0.53379
0.55673	0.35523
0.65874	0.20219
0.78624	0.17668
1.09226	0.04914
0.40372	-0.18043
0.27621	-0.33348
-0.38683	0.22769
-0.56534	0.17668
-0.33583	0.53379
0.42922	0.40625
0.76074	0.12566
1.14327	0.17668
-0.56534	0.10015
-0.48884	-0.00188
-0.38683	0.17668
0.37822	0.10015
1.09226	0.32972
-2.57997	0.10015
-0.46334	0.20219
0.35272	0.07465
0.91375	-0.00188
1.14327	-0.10391
1.09226	0.50828
0.22521	0.07465
-0.15732	0.15117
-0.08081	0.63582
-0.05531	0.10015
-0.36133	-0.63957
-0.31033	-0.56305
0.19971	0.66132
0.45472	0.61031
0.50573	0.48277
0.76074	0.50828
0.19971	0.15117
-0.15732	-0.00188
-0.08081	-0.12942
-0.28482	-0.05289
-0.46334	-0.48652
-0.28482	0.55929
0.65874	0.38074
0.81175	0.15117
-0.25932	0.27871
0.50573	0.68683
0.78624	0.15117
0.42922	0.02363
-0.56534	-0.07840
0.53123	0.02363
-0.33583	-0.20594
-0.25932	0.04914
0.83725	0.25320
0.99026	-0.00188
0.81175	0.15117
0.14870	0.20219
0.42922	0.12566
-0.99887	0.30422
0.50573	0.50828
-0.61635	0.22769
-2.47797	-0.46102
-1.20288	0.02363
0.42922	0.55929
1.09226	0.40625
1.24527	-0.20594
1.34728	0.07465
0.91375	-0.00188
0.17421	0.22769
-0.15732	0.25320
-0.33583	0.66132
-0.48884	-0.10391
-0.38683	0.27871
0.02119	0.35523
0.50573	0.50828
0.35272	-0.10391
0.48022	-0.25695
0.14870	-0.15492
-0.13181	0.17668
-0.08081	0.32972
0.02119	0.07465
-0.33583	-0.25695
-0.38683	-0.30797
0.35272	0.38074
0.60773	0.63582
0.50573	0.50828
0.76074	0.53379
0.37822	0.27871
0.04670	-0.05289
-0.08081	-0.10391
-0.23382	-0.46102
-0.23382	-0.05289
-0.20832	0.30422
0.99026	0.40625
0.70974	0.25320
-1.58541	0.27871
0.81175	0.63582
0.63323	-0.05289
-0.31033	0.04914
0.14870	-0.23145
0.17421	0.12566
-0.08081	0.15117
-0.51434	-0.25695
-0.38683	0.32972
0.68424	0.55929
0.78624	0.45726
1.01576	0.35523
0.58223	0.55929
-0.02981	-0.20594
-0.05531	-0.25695
-0.18282	-0.15492
-0.53984	-0.25695
-0.41233	0.12566
0.09770	0.76336
0.50573	0.63582
0.55673	0.25320
0.76074	-0.05289
0.17421	-0.25695
0.04670	-0.46102
-0.05531	-0.00188
-0.33583	0.50828
-0.36133	0.22769
-0.23382	-0.18043
0.30171	0.22769
0.99026	0.63582
2.74987	0.66132
-1.27939	0.53379
0.07220	0.02363
0.37822	0.04914
0.35272	-0.05289
-0.02981	0.10015
0.02119	-0.35899
1.04126	-0.28246
0.68424	0.38074
-2.42696	0.27871
0.42922	0.17668
0.78624	0.53379
0.76074	0.25320
0.30171	0.17668
-0.08081	-0.12942
-0.18282	-0.46102
-0.31033	-0.46102
-0.13181	0.53379
0.14870	0.63582
0.35272	0.30422
0.32721	0.35523
0.60773	0.91640
0.32721	0.48277
-0.15732	-0.41000
-0.15732	-0.51203
-0.20832	0.02363
-0.31033	-0.05289
-0.08081	0.20219
0.35272	0.32972
0.73524	0.48277
0.60773	0.50828
0.58223	0.71234
0.22521	0.17668
0.07220	-0.41000
-0.00431	-0.79262
-0.13181	-0.00188
-0.13181	0.02363
0.25071	0.17668
-0.51434	0.73785
0.42922	0.48277
0.53123	0.30422
0.88825	0.58480
0.35272	0.32972
-0.82036	-0.25695
-0.20832	-0.35899
0.35272	-0.30797
0.42922	-0.28246
-1.17738	0.27871
-0.02981	0.48277
0.45472	0.43176
0.48022	0.53379
0.65874	1.01843
0.99026	0.22769
0.58223	-0.15492
-1.84042	-0.74160
-0.94787	0.02363
-0.33583	-0.20594
0.02119	0.32972
0.40372	0.66132
0.78624	0.27871
0.91375	-0.20594
0.88825	0.25320
0.68424	0.15117
0.12320	0.12566
-0.28482	-0.02739
-0.31033	-0.20594
-0.51434	-0.07840
-0.36133	0.45726
0.09770	0.63582
0.53123	0.10015
0.30171	0.17668
0.53123	0.45726
0.60773	0.12566
-0.00431	-0.10391
-0.20832	-0.02739
-0.23382	-0.23145
-0.36133	-0.56305
-0.31033	0.43176
0.32721	0.58480
0.58223	0.48277
0.60773	0.32972
0.70974	0.40625
0.50573	-0.12942
0.04670	-0.05289
-0.33583	0.12566
-0.28482	0.43176
-0.25932	-0.23145
-0.87136	-0.00188
0.42922	0.45726
1.50029	0.48277
0.19971	0.02363
0.73524	0.25320
-0.76936	-0.05289
0.09770	0.00000
-0.10631	0.00000
0.14870	0.00000
-0.15732	0.00000
-0.02981	0.00000
0.32721	-0.20594
0.42922	-0.07840
0.50573	0.43176
0.60773	0.10015
0.63323	0.15117
0.07220	0.66132
-1.25389	0.27871
-0.23382	-0.30797
-0.38683	0.04914
-0.20832	0.12566
0.25071	0.12566
0.68424	0.25320
0.63323	0.63582
1.14327	0.04914
0.68424	-0.10391
-1.53441	-0.28246
-0.28482	0.10015
-0.08081	0.50828
-0.20832	0.50828
-0.00431	0.07465
0.07220	-0.20594
0.32721	-0.05289
0.63323	0.12566
0.88825	-0.12942
0.32721	0.27871
-0.02981	0.35523
0.04670	0.27871
-0.36133	0.27871
-0.23382	0.12566
-0.05531	0.17668
0.22521	0.17668
0.37822	-0.02739
0.58223	0.15117
0.83725	0.25320
0.35272	0.25320
-0.00431	-0.02739
-0.23382	-0.02739
-0.31033	0.20219
-0.36133	0.43176
-0.18282	0.12566
0.32721	-0.12942
0.68424	-0.15492
0.42922	0.38074
0.63323	0.20219
0.50573	0.15117
0.35272	-0.05289
-0.41233	0.04914
-0.28482	0.04914
-0.46334	0.78886
-0.10631	0.45726
0.30171	0.15117
0.70974	0.15117
0.45472	-0.20594
0.42922	-0.56305
0.42922	-0.56305
0.19971	0.55929
-0.31033	0.83988
-0.28482	0.30422
-0.25932	0.30422
0.22521	0.27871
0.32721	-0.12942
0.19971	-0.00188
0.73524	0.15117
0.37822	-0.00188
0.27621	0.20219
-0.00431	0.04914
0.12320	0.17668
0.17421	0.25320
-0.15732	0.27871
-0.18282	0.04914
0.63323	-0.10391
0.63323	0.22769
0.53123	0.07465
0.50573	-0.38449
0.50573	0.02363
-0.10631	0.66132
-0.38683	0.55929
-0.31033	0.04914
-0.53984	0.32972
-0.15732	0.35523
0.17421	-0.05289
0.53123	-0.10391
0.58223	0.07465
0.63323	0.32972
0.53123	0.40625
-0.00431	0.30422
-0.28482	-0.02739
-0.10631	0.22769
-0.33583	0.15117
-0.08081	-0.10391
0.60773	-0.38449
0.50573	-0.33348
-0.23382	0.45726
0.83725	0.38074
0.42922	0.50828
0.25071	0.68683
-0.05531	0.12566
-0.18282	0.02363
-0.18282	0.45726
-0.13181	0.15117
0.37822	-0.15492
0.37822	-0.25695
0.63323	-0.05289
0.63323	-0.10391
0.22521	0.22769
-0.13181	0.38074
-0.10631	0.38074
0.09770	0.27871
-0.66735	0.27871
-0.00431	0.35523
0.50573	0.12566
0.76074	-0.07840
0.78624	-0.43551
0.73524	-0.43551
0.22521	0.04914
0.55673	0.86539
-0.92237	0.58480
-0.31033	0.35523
-0.36133	0.48277
-0.25932	0.12566
0.12320	-0.00188
0.83725	-0.15492
0.53123	-0.28246
0.58223	-0.07840
0.40372	0.43176
0.50573	0.38074
0.25071	0.17668
-1.91693	-0.18043
-0.31033	0.53379
-0.18282	0.27871
0.65874	-0.25695
0.76074	-0.10391
0.32721	0.12566
0.96476	-0.00188
0.40372	0.04914
0.30171	0.45726
0.07220	0.38074
0.14870	0.35523
-0.20832	0.32972
1.44929	0.20219
-1.71292	0.07465
-3.06450	-0.07840
-0.15732	0.02363
0.99026	-0.10391
1.24527	0.17668
0.73524	0.45726
0.17421	0.22769
0.78624	-0.15492
-0.33583	0.04914
-0.10631	0.07465
0.25071	0.07465
0.53123	0.22769
0.35272	0.35523
0.40372	0.07465
0.53123	0.38074
-0.25932	0.32972
-1.02437	0.35523
-0.43783	0.15117
-0.28482	0.20219
-0.05531	-0.15492
0.22521	-0.23145
0.65874	0.10015
0.93925	0.40625
1.04126	-0.05289
0.83725	0.17668
-0.69285	0.22769
-0.20832	0.48277
0.17421	-0.07840
0.02119	0.15117
-0.28482	-0.00188
0.32721	0.07465
0.53123	0.07465
0.40372	0.12566
0.60773	0.07465
0.76074	0.12566
0.02119	0.76336
-0.46334	0.32972
-0.31033	-0.33348
-0.61635	-0.10391
-0.36133	0.38074
0.42922	0.12566
-0.31033	0.10015
1.04126	0.20219
0.32721	-0.10391
0.68424	0.12566
0.02119	0.58480
0.09770	0.55929
0.07220	-0.12942
-0.20832	0.02363
-0.18282	0.12566
0.09770	-0.38449
0.53123	0.07465
0.55673	0.35523
0.53123	-0.25695
0.30171	0.25320
-0.08081	0.61031
-0.25932	0.35523
-0.20832	0.55929
-0.36133	0.40625
-0.31033	-0.43551
0.27621	-0.12942
0.83725	-0.00188
0.48022	-0.00188
0.68424	0.04914
-0.02981	0.32972
-0.05531	0.61031
-0.15732	0.22769
0.45472	0.15117
-1.25389	-0.15492
0.30171	-0.18043
0.14870	0.07465
0.83725	0.12566
0.04670	0.17668
0.83725	-0.05289
2.57136	0.15117
-3.14101	0.12566
-0.59084	0.40625
-0.08081	0.55929
-0.13181	0.38074
0.02119	-0.18043
0.50573	-0.53754
0.68424	0.20219
0.99026	0.30422
1.32178	0.32972
-0.56534	0.04914
-0.25932	0.22769
-0.28482	-0.35899
-0.38683	-0.07840
-0.33583	0.61031
-0.08081	1.01843
0.25071	0.02363
0.50573	-0.61406
0.50573	0.12566
0.65874	0.32972
0.40372	0.35523
-0.10631	0.25320
-0.28482	0.04914
-0.10631	0.20219
-0.43783	-0.07840
-0.28482	-0.58856
0.32721	0.04914
0.55673	0.20219
0.40372	0.45726
0.70974	0.15117
0.76074	0.22769
0.17421	0.15117
-0.08081	0.20219
-0.94787	0.30422
-0.89686	0.30422
0.07220	-0.00188
0.37822	-0.05289
0.88825	0.10015
1.06676	0.07465
1.29628	0.07465
-0.82036	0.04914
0.19971	0.35523
0.40372	0.45726
-0.25932	0.32972
-1.20288	0.15117
-0.05531	-0.00188
0.48022	-0.18043
0.83725	0.07465
0.91375	0.25320
0.70974	0.07465
0.73524	0.20219
0.02119	0.20219
-0.23382	0.07465
-0.33583	0.53379
-0.71835	0.58480
-0.25932	0.17668
0.22521	-0.20594
0.40372	-0.71609
0.48022	0.35523
0.70974	0.04914
0.40372	0.12566
0.07220	0.55929
-0.18282	0.53379
-0.23382	0.27871
-0.31033	-0.12942
-0.25932	-0.00188
0.25071	0.40625
0.63323	0.15117
0.50573	-0.02739
0.65874	-0.00188
0.60773	0.20219
-0.10631	0.07465
-0.02981	0.25320
-0.28482	0.20219
-0.46334	0.35523
-0.00431	0.20219
0.12320	-0.05289
0.27621	-0.15492
1.57679	-0.18043
-1.58541	-0.25695
2.54586	0.25320
-2.42696	0.66132
-0.20832	0.83988
0.07220	0.45726
-0.36133	0.53379
-0.13181	-0.48652
0.35272	-0.30797
2.46935	-0.23145
0.32721	-0.10391
0.81175	0.27871
0.42922	0.53379
-0.53984	0.40625
-0.10631	0.32972
-0.20832	0.17668
-0.31033	0.15117
-0.25932	0.61031
0.19971	-0.35899
0.42922	-0.66508
0.50573	-0.15492
0.53123	0.15117
0.30171	0.55929
-0.18282	0.15117
-0.05531	0.10015
-0.28482	0.15117
-0.46334	0.61031
-0.18282	0.17668
0.22521	-0.18043
0.53123	-0.30797
0.68424	0.15117
0.86275	0.22769
0.50573	0.48277
0.14870	0.38074
-0.25932	-0.05289
0.09770	-0.43551
-0.05531	0.48277
0.04670	0.53379
-1.63641	0.07465
-0.08081	0.02363
1.44929	0.20219
1.44929	-0.35899
-1.43240	0.02363
0.99026	0.48277
-0.23382	0.12566
-0.97337	0.15117
0.42922	0.30422
0.09770	0.27871
0.58223	0.12566
0.68424	0.27871
0.32721	0.15117
0.17421	-0.41000
0.53123	-0.02739
-0.20832	0.48277
-0.38683	0.68683
-0.33583	0.27871
-0.41233	0.35523
-0.43783	-0.00188
-0.02981	-0.30797
0.55673	-0.23145
0.50573	-0.05289
0.73524	-0.07840
0.55673	0.04914
0.07220	1.17148
-0.02981	0.38074
0.32721	0.35523
-0.99887	0.10015
-0.10631	0.02363
0.37822	0.10015
0.25071	0.07465
0.68424	0.04914
0.78624	-0.20594
0.27621	0.43176
-0.02981	0.10015
0.40372	-0.20594
0.55673	-0.23145
-2.35046	0.68683
-0.59084	0.04914
0.50573	-0.05289
0.99026	0.15117
0.88825	0.35523
0.99026	0.12566
0.70974	0.27871
0.35272	0.07465
0.73524	-0.12942
-1.71292	0.27871
-0.33583	0.48277
-0.18282	0.58480
0.53123	-0.02739
0.86275	-0.12942
0.58223	-0.41000
0.73524	-0.02739
0.45472	0.07465
-0.10631	0.35523
-0.23382	0.22769
-0.66735	0.48277
-0.51434	0.35523
-0.18282	0.15117
0.35272	0.04914
0.68424	0.07465
0.65874	0.12566
0.63323	-0.18043
0.48022	0.48277
0.07220	0.78886
-0.23382	-0.18043
-0.23382	-0.48652
-0.33583	0.35523
-0.23382	0.38074
0.32721	0.02363
0.42922	-0.15492
0.50573	-0.15492
0.12320	0.10015
0.53123	0.71234
0.04670	0.15117
0.02119	0.12566
-0.00431	-0.00188
0.04670	0.25320
-0.61635	0.45726
-0.18282	0.10015
1.19427	0.10015
0.83725	0.04914
-1.50890	0.12566
1.93382	0.32972
-0.23382	0.55929
0.40372	0.25320
-0.13181	0.17668
-0.15732	-0.05289
0.35272	-0.12942
0.55673	-0.23145
0.30171	0.15117
0.50573	0.22769
0.86275	-0.15492
0.73524	-0.02739
0.07220	0.27871
-1.10088	0.30422
-0.48884	0.48277
-0.43783	0.78886
-0.28482	0.22769
0.32721	-0.05289
0.60773	-0.23145
0.58223	0.15117
0.68424	-0.61406
0.42922	0.12566
0.04670	0.30422
-0.15732	0.25320
0.22521	0.71234
-0.94787	0.20219
-0.08081	0.07465
0.30171	-0.23145
0.58223	0.07465
0.60773	-0.02739
0.55673	-0.15492
0.68424	0.55929
0.04670	0.15117
-0.05531	0.27871
-0.18282	0.38074
-0.18282	0.55929
-0.56534	0.17668
-0.20832	0.07465
0.65874	-0.05289
0.27621	-0.53754
0.96476	-0.30797
0.37822	0.30422
0.48022	0.45726
0.50573	0.55929
-1.45790	0.45726
-0.10631	0.12566
0.30171	-0.05289
-1.61091	0.10015
0.63323	-0.18043
0.73524	0.07465
1.09226	-0.28246
0.68424	0.15117
0.07220	0.50828
0.07220	0.66132
-0.38683	0.45726
-0.38683	0.55929
-0.18282	-0.43551
0.09770	-0.58856
0.40372	-0.20594
0.65874	0.43176
0.68424	0.22769
0.27621	0.07465
0.09770	0.55929
-0.20832	0.32972
-0.18282	0.50828
-0.31033	0.63582
-0.20832	-0.07840
0.22521	-0.74160
0.55673	-0.66508
0.55673	0.04914
0.68424	0.02363
0.53123	0.76336
-0.02981	0.53379
-0.15732	0.30422
0.35272	-0.23145
-0.23382	0.50828
-1.81492	0.61031
0.22521	0.10015
0.86275	-0.05289
0.78624	0.04914
0.70974	-0.20594
0.86275	0.27871
0.02119	0.40625
-0.51434	0.30422
-0.08081	0.04914
-0.08081	0.25320
0.04670	0.12566
-1.33039	0.10015
0.73524	-0.71609
0.81175	0.04914
0.45472	0.15117
0.73524	0.48277
0.42922	0.68683
-0.15732	0.50828
-0.28482	0.27871
-0.28482	-0.15492
1.72980	-0.05289
-1.12638	-0.53754
0.14870	-0.12942
0.65874	0.86539
0.88825	0.10015
0.88825	0.32972
0.37822	0.38074
-0.05531	-0.10391
-0.10631	-0.00188
-0.25932	0.43176
-0.18282	0.12566
0.32721	0.30422
0.60773	0.20219
0.32721	-0.38449
0.58223	-0.66508
0.65874	0.32972
-0.23382	0.45726
-0.69285	0.35523
-0.13181	0.53379
-0.05531	0.50828
-0.20832	0.27871
0.12320	-0.18043
0.63323	-0.00188
0.78624	0.04914
0.45472	-0.07840
0.45472	0.17668
-0.18282	0.25320
0.02119	0.35523
0.60773	0.32972
-0.36133	0.45726
-0.10631	0.15117
-0.23382	0.22769
0.63323	-0.23145
0.63323	-0.10391
0.58223	-0.35899
0.45472	0.07465
0.07220	0.45726
-0.08081	0.53379
-0.15732	0.35523
-0.38683	0.38074
-0.28482	0.02363
0.22521	0.17668
0.53123	0.10015
0.37822	-0.10391
0.50573	-0.48652
0.48022	0.32972
0.12320	0.50828
-0.08081	0.40625
-0.18282	0.35523
-0.38683	0.38074
-0.18282	0.20219
0.25071	0.12566
0.45472	-0.58856
0.58223	0.07465
0.78624	-0.56305
0.58223	0.27871
0.07220	0.63582
0.22521	0.76336
-1.22839	0.04914
-0.20832	-0.02739
-0.08081	0.10015
0.17421	0.20219
0.58223	0.12566
0.53123	0.17668
0.96476	-0.20594
0.70974	0.27871
-0.08081	0.43176
-0.79486	0.22769
0.42922	0.10015
1.06676	0.22769
-3.29402	0.04914
0.42922	-0.28246
-0.64185	-0.05289
0.17421	0.07465
0.93925	0.17668
1.14327	0.38074
0.45472	0.53379
0.02119	0.35523
0.19971	0.10015
-0.31033	0.10015
-0.33583	0.15117
0.12320	-0.15492
0.42922	0.02363
0.30171	-0.07840
0.27621	-0.43551
0.32721	0.32972
-0.10631	0.32972
-0.13181	0.66132
-0.15732	0.22769
-0.51434	0.15117
-0.20832	0.30422
0.19971	-0.18043
0.60773	-0.33348
0.63323	0.02363
0.76074	0.25320
0.53123	0.68683
-0.02981	0.55929
-0.08081	0.22769
-0.31033	0.25320
-0.31033	0.38074
-0.28482	-0.02739
0.30171	-0.10391
0.63323	-0.30797
0.63323	-0.07840
0.73524	-0.38449
0.22521	-0.18043
-1.10088	0.50828
-0.05531	0.35523
0.02119	0.55929
-0.38683	0.50828
-0.48884	0.25320
0.93925	0.10015
0.93925	-0.25695
-0.46334	0.02363
0.45472	-0.56305
0.70974	0.22769
0.48022	0.48277
-0.28482	0.50828
0.04670	0.50828
-0.53984	0.55929
-0.36133	0.32972
0.07220	-0.12942
0.55673	0.07465
0.68424	0.04914
0.55673	-0.86914
0.58223	-0.15492
0.19971	0.30422
-0.31033	-0.02739
-0.28482	0.30422
-0.31033	1.14597
-0.33583	0.76336
0.27621	0.10015
0.58223	-0.28246
0.55673	-0.20594
0.53123	-0.10391
0.48022	0.27871
0.04670	0.45726
-0.13181	0.07465
-0.13181	-0.05289
-0.36133	0.12566
-0.38683	0.30422
0.19971	0.17668
0.76074	-0.02739
0.70974	0.12566
0.53123	0.10015
0.50573	0.25320
0.40372	0.15117
-0.38683	-0.23145
-1.04987	0.30422
0.17421	0.66132
0.86275	0.48277
-1.27939	-0.12942
-0.18282	-0.10391
2.08683	0.04914
-0.46334	-0.00188
0.48022	0.12566
0.25071	0.58480
0.50573	0.35523
-0.00431	0.02363
-0.15732	0.27871
-0.41233	0.07465
0.17421	-0.07840
0.55673	-0.07840
0.37822	-0.15492
0.53123	-0.23145
0.48022	0.45726
-0.18282	0.50828
-0.31033	0.63582
-0.25932	-0.07840
-0.33583	0.02363
-0.38683	0.12566
0.12320	0.15117
0.55673	0.12566
0.53123	-0.07840
0.73524	0.20219
0.63323	0.07465
-0.02981	0.17668
-0.08081	0.38074
-0.10631	0.55929
-0.28482	0.68683
-0.25932	-0.10391
0.30171	-0.48652
0.63323	-0.63957
0.42922	0.12566
0.42922	0.04914
0.50573	0.32972
0.04670	0.76336
-0.28482	0.32972
-0.28482	-0.28246
-0.15732	0.22769
-0.28482	0.58480
0.12320	0.10015
0.96476	-0.12942
1.42379	0.02363
-1.10088	-0.20594
0.55673	0.07465
0.45472	0.43176
0.09770	0.53379
-0.13181	0.32972
0.45472	0.45726
-2.27395	0.12566
0.40372	-0.12942
0.65874	-0.15492
0.42922	-0.43551
0.65874	-0.15492
0.60773	0.25320
0.07220	0.55929
-0.13181	0.58480
-0.28482	0.35523
-0.48884	0.45726
-0.36133	-0.02739
0.22521	-0.18043
0.25071	0.35523
0.53123	-0.35899
0.53123	-0.71609
0.53123	-0.10391
0.14870	0.78886
-0.02981	0.94191
-0.13181	0.32972
-0.25932	0.66132
-0.18282	-0.02739
0.22521	-0.35899
0.58223	0.12566
0.50573	-0.05289
0.48022	-0.35899
0.50573	0.35523
0.12320	0.61031
-0.00431	0.25320
-0.43783	-0.38449
-0.38683	0.27871
-0.20832	0.32972
0.12320	0.27871
0.50573	0.27871
0.58223	0.15117
0.68424	0.02363
0.37822	0.02363
-0.43783	0.58480
-0.08081	0.17668
-0.02981	-0.25695
-0.43783	0.10015
0.32721	0.20219
0.17421	-0.66508
-0.48884	-0.02739
0.42922	0.45726
1.14327	0.32972
0.70974	0.58480
-0.25932	0.53379
0.02119	0.40625
-0.08081	0.38074
-0.25932	0.20219
-0.23382	-0.07840
0.04670	-0.30797
0.53123	-0.12942
0.48022	-0.15492
0.53123	-0.46102
0.42922	-0.05289
-0.00431	0.78886
-0.25932	0.99292
-0.18282	0.43176
-0.28482	0.15117
-0.28482	-0.25695
0.17421	-0.23145
0.63323	0.15117
0.63323	0.04914
0.96476	0.04914
0.76074	0.17668
-1.04987	0.43176
0.04670	0.38074
-0.31033	0.27871
-0.10631	0.43176
-0.23382	0.07465
0.63323	0.10015
0.68424	-0.35899
0.35272	-0.23145
0.17421	-0.56305
0.58223	0.25320
0.27621	0.76336
-0.13181	0.38074
-0.13181	0.40625
-0.74385	0.55929
-0.18282	-0.00188
0.40372	-0.38449
0.30171	-0.07840
-0.23382	0.15117
1.09226	0.12566
0.76074	0.35523
0.14870	0.66132
0.12320	-0.05289
-0.00431	-0.15492
-1.40690	0.22769
0.02119	0.17668
0.12320	-0.00188
0.35272	0.20219
0.60773	0.22769
0.93925	-0.18043
0.91375	0.04914
-0.56534	0.38074
-0.33583	0.53379
-0.15732	0.17668
-0.23382	0.43176
-0.10631	0.12566
0.48022	0.04914
0.65874	-0.05289
0.09770	-0.10391
0.93925	-0.20594
1.83181	-0.18043
-2.32496	0.20219
-0.31033	0.27871
-0.18282	0.43176
-0.10631	0.66132
-0.05531	0.48277
0.70974	-0.18043
0.78624	-0.02739
0.25071	0.30422
0.60773	-0.07840
0.50573	0.02363
0.22521	0.27871
-0.15732	0.66132
-0.31033	0.10015
-0.53984	0.17668
-0.23382	0.25320
0.14870	0.02363
0.53123	-0.38449
0.45472	-0.33348
0.45472	0.02363
0.68424	0.32972
0.07220	0.02363
-0.56534	0.45726
0.04670	0.55929
0.17421	0.96742
-1.17738	0.27871
0.19971	0.43176
0.53123	-0.15492
0.88825	-0.58856
0.81175	-0.66508
0.86275	0.10015
-0.18282	0.48277
0.17421	0.45726
-0.79486	0.32972
-0.56534	0.25320
-0.28482	0.15117
0.27621	0.10015
0.65874	-0.00188
0.60773	-0.25695
0.68424	-0.51203
0.40372	0.25320
-0.02981	0.50828
0.19971	0.27871
-0.66735	0.35523
-0.38683	0.83988
-0.00431	0.35523
-0.48884	-0.28246
0.63323	-0.30797
0.70974	-0.10391
0.73524	0.22769
1.11776	0.35523
0.50573	0.48277
-1.73842	-0.25695
-0.15732	-0.12942
-0.20832	0.55929
-0.10631	0.53379
0.27621	-0.23145
0.53123	-0.41000
0.50573	-0.10391
0.60773	0.02363
0.45472	0.63582
0.02119	0.27871
-0.20832	0.25320
-0.20832	-0.02739
-0.20832	0.32972
-0.18282	0.15117
-0.25932	0.04914
0.68424	0.35523
0.63323	0.17668
0.58223	-0.25695
0.40372	0.10015
0.32721	0.30422
0.07220	0.58480
-0.94787	0.17668
-0.31033	-0.02739
0.19971	-0.25695
-0.05531	-0.10391
-0.13181	-0.07840
1.09226	0.27871
0.76074	0.07465
0.78624	0.32972
0.04670	0.35523
-0.08081	0.20219
-0.31033	0.10015
-0.15732	0.45726
-0.15732	0.17668
-1.25389	0.10015
0.50573	-0.05289
0.73524	0.07465
0.70974	-0.10391
0.81175	0.27871
0.58223	0.50828
-2.04444	0.32972
-0.31033	0.22769
-0.28482	0.15117
-0.38683	-0.46102
0.53123	0.15117
0.96476	0.20219
0.73524	0.22769
0.27621	-0.10391
0.63323	0.55929
0.04670	0.96742
-0.13181	-0.58856
-0.25932	-0.63957
-0.46334	0.04914
-0.46334	0.32972
0.12320	0.76336
0.55673	0.15117
0.58223	0.32972
0.65874	0.27871
0.55673	0.55929
0.07220	-0.18043
-0.10631	-0.07840
-0.20832	0.02363
-0.38683	0.55929
-0.28482	0.27871
0.12320	0.02363
0.58223	-0.07840
0.60773	-0.05289
0.68424	-0.48652
0.42922	-0.00188
0.02119	0.45726
-0.08081	0.43176
-0.28482	0.17668
-0.31033	0.50828
0.02119	0.32972
0.50573	-0.05289
-0.41233	-0.15492
0.40372	0.04914
1.04126	-0.05289
0.70974	0.25320
0.17421	0.32972
-0.15732	0.27871
0.12320	0.30422
-0.18282	0.45726
-0.18282	0.22769
0.09770	0.10015
0.42922	0.15117
0.48022	0.10015
0.60773	-0.25695
0.40372	-0.28246
0.02119	0.86539
-0.13181	0.12566
-0.38683	-0.48652
-0.48884	-0.05289
-0.23382	0.76336
0.40372	0.45726
0.48022	-0.43551
0.58223	0.83988
0.45472	-0.15492
0.53123	-0.20594
0.14870	0.35523
-0.02981	-0.05289
-0.13181	0.35523
-0.38683	0.76336
-0.28482	0.43176
0.25071	-0.07840
0.53123	-0.48652
0.48022	-0.38449
0.48022	0.10015
0.58223	0.10015
0.27621	0.50828
-0.18282	0.17668
0.27621	0.22769
-0.97337	0.50828
-1.73842	0.20219
0.07220	-0.02739
-0.02981	-0.23145
1.39828	-0.05289
0.27621	-0.12942
0.73524	0.20219
0.32721	0.45726
0.17421	0.43176
0.04670	0.27871
-0.41233	0.53379
-0.33583	0.25320
0.07220	-0.25695
0.58223	-0.10391
0.53123	0.27871
0.65874	-0.23145
0.42922	-0.02739
-0.08081	0.32972
-0.20832	0.32972
-0.18282	0.35523
-0.48884	0.66132
-0.33583	-0.20594
0.42922	-0.23145
0.55673	-0.07840
0.63323	0.30422
0.63323	-0.25695
0.58223	0.12566
0.12320	0.86539
-0.05531	0.15117
-0.33583	0.12566
0.30171	1.06945
0.30171	0.12566
-2.98800	-0.53754
0.04670	-0.66508
1.27078	0.50828
-0.25932	0.35523
1.09226	0.55929
0.63323	0.58480
0.63323	-0.23145
-0.41233	-0.18043
0.42922	0.10015
-1.68742	0.15117
0.53123	0.04914
0.55673	-0.25695
0.76074	0.35523
0.86275	0.12566
0.70974	0.25320
-0.23382	0.30422
0.27621	0.10015
-0.64185	-0.18043
-1.15188	0.17668
-4.56910	0.32972
0.70974	0.35523
1.95932	0.04914
-0.64185	0.17668
0.88825	-0.02739
1.14327	0.30422
0.25071	-0.07840
0.78624	0.35523
-0.20832	0.38074
-0.33583	0.45726
-0.36133	0.40625
0.04670	0.07465
0.35272	-0.05289
0.27621	-0.23145
0.42922	0.15117
0.30171	-0.23145
-0.10631	-0.02739
-0.31033	-0.12942
-0.23382	0.32972
-0.25932	0.61031
-0.20832	0.45726
0.32721	0.17668
0.60773	0.17668
0.63323	0.20219
0.68424	-0.18043
0.55673	0.43176
0.09770	0.27871
-0.13181	-0.07840
-0.25932	-0.02739
-0.25932	0.32972
-0.20832	0.27871
-0.02981	-0.07840
0.60773	-0.07840
1.09226	0.02363
1.24527	-0.00188
-2.27395	0.12566
0.88825	0.15117
-1.04987	0.50828
-0.69285	0.07465
0.04670	0.40625
0.48022	0.22769
1.16877	0.04914
-1.55991	-0.28246
-1.12638	0.27871
0.19971	0.10015
0.88825	-0.38449
0.73524	-0.15492
0.55673	0.71234
0.27621	0.66132
0.02119	0.71234
0.02119	0.53379
0.25071	0.15117
0.19971	-0.20594
0.12320	0.10015
0.32721	-0.28246
0.32721	-0.79262
-0.18282	-0.05289
-0.41233	0.61031
-0.33583	0.76336
-0.36133	0.22769
-0.25932	-0.05289
0.14870	-0.25695
0.60773	0.27871
0.73524	0.17668
0.55673	-0.15492
0.63323	0.25320
0.22521	0.50828
-0.05531	0.71234
-0.23382	-0.20594
-0.13181	0.07465
-0.25932	0.25320
0.14870	0.15117
0.53123	0.25320
0.07220	0.10015
0.88825	-0.33348
0.58223	-0.23145
-0.05531	0.25320
0.37822	0.12566
0.35272	0.45726
-0.59084	0.73785
-1.73842	0.25320
0.45472	-0.07840
0.91375	-0.20594
1.04126	0.07465
0.99026	0.17668
0.63323	0.07465
0.17421	0.17668
-0.08081	-0.05289
-0.18282	0.15117
-0.43783	0.12566
-0.46334	0.40625
-0.23382	0.07465
0.60773	0.32972
0.55673	-0.43551
0.65874	-0.10391
0.53123	0.15117
0.09770	0.89089
-0.20832	0.81437
-0.28482	-0.15492
-0.20832	-0.07840
-0.28482	0.22769
0.04670	-0.15492
0.48022	-0.33348
0.65874	0.38074
0.63323	0.02363
0.60773	0.30422
0.30171	0.61031
0.02119	0.32972
-0.38683	0.20219
-0.76936	0.04914
0.12320	-0.02739
0.35272	-0.15492
0.50573	0.02363
0.19971	-0.12942
0.76074	-0.30797
1.09226	-0.07840
0.86275	0.55929
-1.27939	0.71234
-3.54903	0.58480
-0.56534	0.22769
0.45472	0.04914
-0.28482	-0.07840
-0.00431	-0.18043
1.52579	0.07465
0.32721	-0.07840
0.93925	0.20219
0.40372	0.20219
-0.08081	0.35523
-0.05531	0.32972
-0.61635	0.04914
-0.61635	0.04914
-0.08081	0.07465
0.32721	0.07465
0.48022	0.20219
0.58223	-0.05289
0.40372	0.48277
0.83725	0.43176
-0.36133	0.78886
-0.18282	-0.15492
-0.25932	-0.61406
-0.18282	0.10015
0.32721	-0.00188
0.65874	0.15117
0.65874	0.22769
0.53123	-0.23145
0.53123	-0.00188
0.12320	0.86539
-0.02981	0.73785
-0.28482	0.50828
-0.53984	0.12566
-0.33583	-0.10391
0.32721	-0.53754
0.42922	-0.41000
0.65874	0.10015
0.76074	0.45726
0.25071	0.35523
-0.71835	0.43176
0.19971	0.12566
0.35272	0.10015
-0.23382	0.10015
-0.02981	0.17668
0.09770	0.27871
1.29628	-0.15492
0.63323	-0.12942
-1.40690	-0.05289
0.55673	0.38074
0.40372	0.53379
-0.20832	0.38074
-0.15732	0.20219
-0.05531	0.25320
-0.08081	0.27871
0.40372	-0.15492
0.32721	-0.20594
0.55673	0.04914
0.53123	-0.02739
0.27621	0.02363
0.12320	0.40625
-0.10631	1.29902
-0.23382	-0.63957
-0.41233	-0.33348
-0.36133	-0.23145
0.14870	-0.02739
0.63323	0.22769
0.58223	0.78886
0.55673	0.45726
0.65874	0.30422
0.19971	0.50828
-0.08081	0.53379
-0.18282	0.10015
-0.28482	-0.00188
-0.51434	0.10015
0.12320	-0.23145
0.58223	-0.28246
0.73524	-0.46102
0.65874	-0.58856
0.50573	0.12566
-0.33583	0.55929
0.27621	0.68683
-0.23382	0.20219
-0.10631	0.25320
1.70430	0.17668
-2.35046	0.12566
0.42922	0.22769
0.55673	0.15117
0.99026	-0.00188
1.44929	0.17668
0.14870	0.45726
1.29628	0.27871
-0.71835	0.12566
0.02119	0.22769
-0.48884	0.10015
0.22521	-0.00188
0.96476	0.04914
0.04670	0.22769
0.60773	-0.28246
1.06676	0.35523
0.07220	0.10015
-0.25932	-0.07840
-0.25932	0.27871
-0.38683	1.14597
-0.48884	0.86539
0.04670	0.40625
0.42922	-0.74160
0.60773	-0.58856
0.55673	-0.41000
0.09770	0.15117
0.19971	0.96742
-0.02981	0.58480
-0.15732	0.22769
-0.15732	0.30422
-0.28482	0.02363
0.19971	-0.25695
0.58223	-0.10391
0.53123	0.02363
0.50573	-0.10391
0.65874	0.25320
0.55673	0.45726
-0.66735	0.25320
-0.56534	0.40625
-0.20832	0.43176
0.02119	0.17668
0.50573	-0.15492
1.04126	-0.18043
-0.97337	-0.07840
0.96476	0.10015
0.73524	0.12566
0.12320	0.32972
-0.08081	0.45726
0.12320	0.30422
0.25071	0.32972
-1.73842	0.22769
0.22521	-0.15492
0.68424	-0.05289
0.86275	0.15117
0.70974	-0.05289
-0.02981	0.12566
0.17421	0.10015
-0.13181	-0.02739
-0.18282	0.10015
-0.13181	0.40625
-0.20832	0.48277
0.07220	-0.05289
0.55673	0.17668
0.63323	0.55929
0.45472	0.12566
0.53123	0.10015
0.25071	-0.00188
-0.18282	-0.25695
-0.28482	0.25320
-0.31033	0.53379
-0.20832	0.15117
0.14870	0.17668
0.50573	-0.05289
0.60773	0.22769
0.55673	0.12566
0.53123	-0.23145
0.30171	-0.02739
-0.64185	0.38074
-0.31033	0.38074
-0.20832	0.38074
-0.00431	0.30422
-0.61635	-0.05289
1.06676	-0.05289
0.96476	0.15117
-0.08081	0.04914
0.63323	0.02363
0.09770	0.27871
0.30171	0.15117
0.07220	0.22769
-0.15732	0.45726
-0.61635	0.22769
-0.18282	-0.33348
0.19971	-0.20594
0.65874	0.30422
0.70974	0.20219
0.73524	0.15117
0.27621	0.10015
0.04670	0.15117
-0.33583	0.20219
-0.33583	0.20219
-0.25932	0.38074
0.04670	0.12566
0.55673	-0.02739
0.55673	0.40625
0.58223	-0.28246
0.48022	-0.18043
0.14870	-0.10391
-0.08081	0.76336
-0.41233	0.50828
-0.23382	0.63582
-0.33583	0.32972
0.17421	-0.05289
0.53123	-0.35899
0.73524	-0.56305
0.88825	-0.48652
-0.25932	-0.05289
0.09770	0.38074
-0.08081	1.06945
-0.08081	0.45726
0.14870	0.68683
-0.13181	0.50828
-1.04987	-0.97117
0.30171	-0.76711
1.21977	0.20219
0.40372	0.27871
0.22521	0.53379
-0.31033	0.58480
0.27621	0.38074
0.02119	0.27871
-0.05531	0.63582
-0.38683	0.10015
-0.02981	-0.18043
0.30171	-0.66508
0.40372	-0.43551
0.58223	-0.00188
0.40372	0.38074
0.17421	0.66132
-0.13181	0.25320
-0.23382	0.15117
-0.48884	-0.10391
0.04670	0.81437
0.04670	0.35523
0.55673	-0.07840
0.65874	-0.07840
0.65874	0.02363
0.53123	0.32972
0.09770	0.12566
-0.13181	-0.20594
-0.13181	-0.35899
-0.31033	0.50828
-0.38683	0.53379
-0.00431	-0.05289
0.53123	-0.12942
0.65874	0.10015
0.86275	0.12566
0.83725	0.35523
-1.45790	0.50828
-0.13181	0.38074
-0.25932	0.25320
0.32721	0.25320
0.09770	0.04914
-1.22839	-0.25695
0.81175	-0.43551
0.93925	0.10015
0.17421	-0.05289
0.68424	-0.10391
0.55673	0.55929
0.65874	0.58480
-0.99887	0.25320
-0.10631	0.78886
-0.59084	0.15117
0.12320	-0.51203
0.42922	-0.56305
0.76074	0.04914
0.58223	0.27871
0.37822	0.35523
0.09770	0.38074
0.17421	0.25320
-0.18282	0.38074
-0.28482	0.81437
-0.46334	-0.05289
0.19971	-0.35899
0.42922	-0.00188
0.53123	0.02363
0.68424	0.04914
0.53123	0.20219
0.12320	0.53379
-0.05531	-0.05289
-0.18282	0.04914
-0.20832	0.38074
-0.28482	0.35523
0.04670	-0.12942
0.53123	-0.05289
0.55673	0.45726
0.55673	0.02363
0.50573	-0.18043
0.04670	-0.02739
0.02119	0.58480
-0.20832	0.43176
-0.33583	0.45726
-0.41233	0.38074
0.70974	0.20219
1.19427	-0.20594
-1.10088	-0.41000
0.65874	-0.35899
0.40372	0.20219
0.91375	0.43176
-0.05531	0.30422
-1.55991	0.30422
0.04670	0.45726
-0.13181	0.45726
0.22521	0.25320
0.96476	-0.38449
0.78624	-0.25695
0.04670	-0.07840
0.50573	0.10015
0.12320	0.58480
0.04670	0.27871
-0.20832	-0.05289
-0.59084	0.27871
-0.41233	0.94191
-0.10631	0.27871
0.55673	-0.20594
0.76074	0.30422
0.55673	-0.15492
0.60773	0.12566
0.25071	-0.30797
-0.15732	-0.33348
-0.20832	-0.41000
-0.18282	0.81437
-0.23382	0.99292
0.07220	0.45726
0.37822	0.17668
0.55673	0.15117
0.42922	-0.02739
0.63323	-0.10391
0.14870	0.04914
-0.25932	-0.00188
-0.28482	0.27871
-0.28482	0.45726
-0.41233	0.30422
0.14870	0.04914
0.73524	-0.15492
0.45472	-0.12942
0.81175	-0.05289
0.25071	0.10015
-0.02981	0.43176
0.04670	0.45726
-0.00431	0.48277
0.32721	0.38074
0.09770	0.35523
-1.12638	0.12566
0.40372	-0.35899
1.09226	-0.30797
0.73524	-0.25695
1.01576	0.04914
0.42922	0.55929
-0.08081	0.48277
-0.28482	0.35523
-0.28482	0.35523
-0.46334	0.45726
-0.02981	0.30422
0.42922	-0.28246
0.42922	-0.66508
0.42922	-0.48652
0.55673	-0.02739
0.09770	0.68683
-0.18282	0.58480
-0.08081	0.81437
-0.23382	1.17148
-0.31033	-0.20594
0.17421	-0.81812
0.53123	-0.07840
0.55673	0.15117
0.63323	0.10015
0.53123	0.12566
0.09770	0.38074
-0.13181	-0.05289
-0.15732	0.17668
-0.23382	0.32972
-0.51434	0.12566
0.17421	-0.00188
0.55673	-0.02739
0.37822	-0.05289
0.48022	-0.10391
0.88825	0.22769
0.40372	0.43176
-0.08081	0.40625
-0.36133	0.32972
-0.66735	0.30422
-0.08081	0.04914
0.48022	-0.12942
-0.31033	-0.15492
1.06676	0.15117
0.27621	-0.10391
1.34728	0.07465
-0.92237	0.63582
0.45472	0.15117
0.04670	0.15117
0.07220	0.35523
-0.20832	0.07465
0.07220	-0.02739
0.32721	0.02363
0.42922	-0.00188
0.48022	0.20219
0.40372	0.12566
-0.00431	0.15117
-0.28482	0.45726
-0.28482	0.53379
-0.28482	0.27871
-0.36133	-0.23145
0.07220	0.10015
0.50573	0.10015
0.63323	-0.15492
0.63323	-0.20594
0.45472	0.27871
0.12320	0.48277
-0.02981	0.45726
-0.18282	0.32972
-0.36133	0.04914
-0.31033	-0.00188
0.22521	0.40625
0.50573	-0.05289
0.65874	-0.35899
0.60773	-0.28246
0.48022	0.30422
0.09770	0.43176
-0.20832	0.32972
-0.02981	0.35523
-0.28482	0.53379
-0.15732	0.25320
-0.46334	-0.05289
0.73524	-0.10391
0.99026	-0.10391
0.48022	-0.10391
0.42922	-0.18043
0.27621	0.12566
-0.08081	0.43176
-0.08081	0.35523
-0.48884	0.30422
-0.20832	0.55929
0.17421	-0.33348
0.35272	-0.10391
0.60773	0.10015
0.68424	0.15117
0.76074	0.43176
0.32721	0.53379
-0.28482	0.32972
-0.31033	-0.10391
-0.25932	0.30422
-0.31033	0.17668
-0.02981	-0.05289
0.42922	-0.10391
0.58223	0.17668
0.50573	0.07465
0.53123	-0.18043
0.12320	0.66132
-0.10631	0.04914
-0.23382	-0.25695
-0.18282	-0.05289
-0.28482	0.22769
0.02119	0.15117
0.65874	0.20219
0.48022	0.35523
0.50573	0.45726
0.50573	0.02363
0.19971	0.25320
-0.13181	0.38074
0.19971	0.17668
-0.20832	0.10015
-0.84586	0.12566
0.09770	-0.15492
0.68424	-0.15492
0.86275	0.04914
0.73524	-0.05289
0.09770	0.32972
0.19971	0.27871
0.19971	0.25320
-0.18282	0.15117
-0.48884	0.25320
-0.00431	0.20219
0.17421	0.20219
-0.28482	-0.00188
0.93925	-0.28246
0.70974	-0.02739
0.53123	0.30422
-0.36133	0.15117
0.04670	0.66132
0.30171	-0.00188
-0.18282	0.30422
-0.20832	0.32972
0.07220	-0.00188
0.53123	-0.00188
0.53123	-0.15492
0.48022	-0.18043
0.48022	0.15117
0.07220	0.40625
-0.10631	0.53379
-0.33583	0.10015
-0.43783	0.10015
-0.38683	-0.00188
-0.00431	0.12566
0.48022	-0.02739
0.73524	-0.02739
0.55673	0.15117
0.55673	0.15117
0.22521	0.45726
-0.02981	1.04394
-0.33583	-0.00188
-0.38683	-0.46102
-0.41233	-0.15492
0.19971	0.22769
0.50573	0.15117
0.55673	0.30422
0.76074	0.30422
0.42922	-0.18043
0.81175	0.12566
0.09770	0.35523
-0.99887	0.50828
-0.48884	0.48277
-0.38683	0.10015
0.45472	-0.10391
0.68424	-0.58856
0.81175	-0.05289
0.83725	0.15117
0.60773	0.27871
0.19971	0.73785
-0.08081	0.50828
-0.28482	0.40625
-0.36133	0.38074
-0.53984	-0.38449
-0.02981	-0.92016
0.32721	-0.51203
0.45472	0.32972
0.65874	0.35523
0.50573	0.32972
0.30171	0.58480
-0.13181	0.30422
-0.69285	0.61031
-0.18282	0.27871
-0.20832	0.07465
0.22521	-0.18043
0.50573	-0.23145
1.01576	-0.00188
0.93925	-0.05289
-0.08081	-0.18043
0.22521	0.66132
-0.08081	0.02363
-0.28482	-0.15492
-0.43783	0.17668
-0.13181	0.55929
-0.13181	0.25320
0.60773	0.07465
0.50573	0.04914
0.40372	-0.05289
0.53123	0.25320
0.55673	0.30422
-0.00431	0.38074
-0.48884	0.22769
-0.53984	0.30422
-0.20832	0.38074
0.14870	-0.23145
0.53123	-0.28246
0.65874	-0.23145
0.83725	0.04914
0.68424	0.43176
0.22521	0.50828
-0.25932	0.17668
-0.28482	-0.07840
-0.23382	0.17668
-0.38683	0.61031
0.02119	0.27871
0.53123	-0.15492
0.60773	0.15117
0.50573	-0.58856
0.50573	-0.18043
0.17421	0.94191
-0.15732	0.45726
-0.13181	0.07465
-0.23382	0.27871
-0.46334	0.32972
0.22521	0.35523
0.50573	0.02363
0.55673	0.20219
0.81175	-0.66508
0.63323	-0.43551
-0.23382	0.22769
-0.18282	0.43176
-0.69285	0.45726
-0.18282	0.50828
0.04670	0.35523
0.42922	-0.00188
-0.02981	-0.15492
1.09226	0.12566
0.53123	0.04914
-0.08081	0.20219
0.55673	0.30422
0.07220	0.30422
-0.46334	0.38074
0.04670	0.55929
-0.15732	0.15117
0.17421	-0.05289
0.55673	-0.25695
0.32721	-0.18043
0.30171	-0.00188
0.17421	0.15117
0.14870	0.43176
-0.20832	0.25320
-0.25932	0.22769
-0.28482	0.63582
-0.08081	0.22769
0.02119	-0.18043
0.42922	-0.61406
0.58223	-0.12942
0.73524	-0.10391
0.58223	0.35523
0.12320	0.53379
-0.10631	0.17668
-0.13181	0.55929
-0.23382	0.78886
-0.41233	0.25320
0.04670	0.20219
0.50573	-0.61406
0.58223	-0.53754
0.53123	-0.00188
0.68424	0.30422
0.02119	0.15117
-0.13181	0.25320
-0.20832	0.10015
-0.15732	0.55929
-0.05531	0.53379
-0.00431	0.22769
-0.02981	-0.00188
0.78624	0.02363
0.42922	-0.02739
0.25071	-0.05289
0.55673	-0.02739
-0.02981	0.15117
-0.00431	0.35523
0.35272	0.45726
0.14870	0.25320
-1.89143	0.20219
0.42922	0.15117
1.04126	-0.07840
0.81175	-0.38449
0.68424	0.04914
0.37822	0.50828
-0.02981	0.45726
-0.10631	0.38074
-0.13181	0.30422
-0.36133	0.35523
-0.08081	-0.10391
0.32721	-0.02739
0.58223	0.15117
0.45472	0.43176
0.53123	-0.25695
0.07220	-0.41000
-0.13181	-0.25695
-0.25932	0.58480
-0.36133	0.45726
-0.23382	0.15117
0.09770	0.55929
0.53123	0.17668
0.65874	0.25320
0.42922	-0.84363
0.50573	-0.15492
0.17421	0.55929
-0.10631	0.63582
-0.18282	0.40625
-0.31033	0.43176
-0.13181	0.40625
0.07220	0.25320
0.42922	-0.12942
0.58223	0.02363
0.48022	-0.00188
0.58223	-0.30797
0.12320	0.04914
-0.08081	0.02363
-0.02981	0.12566
0.60773	0.48277
-1.10088	0.40625
-1.07538	0.20219
0.27621	-0.02739
0.93925	0.07465
0.53123	-0.15492
0.70974	0.07465
0.45472	0.55929
-0.08081	0.43176
-0.31033	-0.02739
-0.13181	0.12566
-0.38683	0.38074
0.07220	0.25320
0.42922	-0.15492
0.60773	-0.25695
0.76074	0.04914
0.09770	0.48277
0.02119	-0.20594
-0.10631	-0.20594
-0.18282	0.27871
-0.15732	1.06945
-0.25932	0.40625
0.02119	-0.53754
0.65874	-0.10391
0.70974	0.35523
0.45472	0.35523
0.48022	0.17668
0.22521	0.07465
-0.10631	0.35523
-0.23382	0.38074
-0.36133	0.15117
-0.36133	-0.15492
0.09770	-0.23145
0.40372	-0.12942
0.58223	0.04914
0.65874	0.12566
0.63323	0.07465
0.58223	0.45726
-0.28482	0.43176
-0.53984	0.30422
0.27621	0.38074
-1.12638	0.20219
0.17421	-0.05289
0.83725	0.02363
0.88825	-0.05289
-0.18282	-0.05289
0.50573	0.04914
0.55673	0.25320
0.32721	0.45726
-0.18282	0.25320
-0.94787	0.55929
-0.28482	0.32972
0.12320	0.10015
0.68424	-0.25695
0.35272	-0.25695
0.83725	-0.12942
0.35272	0.63582
0.09770	0.32972
0.02119	-0.43551
-0.48884	-0.25695
-0.33583	0.76336
-0.25932	0.94191
0.14870	0.86539
0.60773	-0.05289
0.58223	-0.71609
0.55673	-0.43551
0.63323	0.15117
0.12320	0.22769
-0.10631	0.30422
-0.23382	-0.02739
-0.15732	0.40625
-0.28482	0.43176
0.02119	0.04914
0.50573	0.04914
0.48022	0.02363
0.65874	-0.20594
0.48022	-0.20594
0.12320	0.35523
-0.20832	0.38074
-0.18282	0.25320
-0.18282	0.48277
-0.28482	0.25320
-0.13181	0.02363
0.45472	-0.15492
0.60773	-0.35899
0.48022	0.12566
0.63323	0.25320
0.70974	0.40625
0.30171	0.48277
-1.68742	0.50828
-0.43783	0.27871
-0.25932	0.15117
0.42922	-0.38449
0.76074	-0.38449
0.78624	0.02363
0.30171	-0.10391
0.70974	0.43176
0.25071	0.15117
-0.15732	0.35523
-0.08081	0.58480
-0.53984	0.78886
-0.43783	0.17668
-0.00431	-0.35899
0.42922	-0.30797
0.50573	-0.35899
0.63323	-0.00188
0.58223	0.30422
0.09770	0.76336
-0.13181	0.04914
-0.20832	0.04914
-0.36133	0.10015
-0.28482	0.35523
0.12320	0.07465
0.53123	-0.12942
0.55673	0.02363
0.63323	0.12566
0.63323	0.32972
0.12320	0.43176
-0.18282	0.27871
-0.33583	0.22769
-0.18282	0.45726
-0.31033	0.43176
-0.00431	-0.12942
0.55673	-0.69059
0.42922	-0.35899
0.53123	-0.00188
0.53123	0.30422
0.19971	0.40625
-0.05531	0.55929
-0.23382	0.40625
-0.28482	0.40625
-0.46334	0.30422
-0.05531	-0.23145
0.50573	-0.05289
0.53123	-0.15492
0.68424	0.15117
0.48022	0.25320
0.22521	0.20219
-0.18282	0.58480
-0.18282	0.35523
-0.18282	-0.05289
-0.46334	-0.05289
0.12320	-0.10391
0.48022	0.04914
0.53123	-0.38449
0.53123	0.17668
0.60773	0.63582
0.12320	0.35523
-0.08081	0.68683
-0.23382	-0.20594
-0.25932	-0.18043
-0.33583	0.32972
0.17421	0.17668
0.50573	-0.12942
0.48022	-0.00188
0.22521	0.12566
0.65874	0.10015
0.86275	0.10015
-1.15188	0.30422
0.50573	0.35523
0.37822	0.38074
-1.76392	0.12566
0.07220	-0.10391
0.25071	-0.05289
0.76074	-0.18043
0.70974	-0.07840
0.60773	0.12566
0.50573	0.40625
0.14870	0.45726
-0.08081	0.38074
-0.18282	0.20219
-0.43783	0.25320
-0.02981	-0.05289
0.35272	-0.02739
0.40372	-0.02739
0.27621	-0.00188
0.60773	0.07465
0.07220	0.38074
-0.15732	0.32972
-0.20832	0.30422
-0.13181	0.32972
-0.36133	0.38074
0.07220	-0.15492
0.55673	-0.18043
0.65874	-0.30797
0.48022	-0.43551
0.70974	0.30422
0.19971	0.58480
-0.02981	0.73785
-0.23382	0.22769
-0.28482	-0.15492
-0.31033	-0.15492
0.40372	0.27871
0.55673	0.38074
0.22521	0.25320
0.60773	-0.15492
-0.25932	-0.05289
0.37822	0.45726
-0.05531	0.22769
-0.23382	0.12566
0.12320	0.15117
-0.28482	0.63582
-0.36133	-0.00188
0.55673	-0.38449
0.63323	-0.28246
0.68424	0.07465
0.78624	0.12566
0.14870	0.55929
-0.33583	0.45726
0.04670	0.40625
-0.41233	0.45726
-0.41233	0.15117
0.53123	-0.15492
-0.97337	-0.25695
0.48022	-0.07840
1.55129	0.07465
0.73524	0.10015
0.09770	0.43176
-0.51434	0.50828
0.17421	0.25320
0.19971	0.15117
-0.82036	0.20219
0.02119	0.25320
0.68424	-0.18043
0.83725	-0.23145
0.60773	-0.48652
0.58223	0.12566
0.14870	0.50828
-0.18282	0.58480
-0.33583	0.48277
-0.31033	0.25320
-0.43783	0.15117
-0.05531	-0.10391
0.37822	-0.20594
0.45472	-0.35899
0.53123	-0.15492
0.63323	0.61031
0.27621	0.45726
-0.08081	0.32972
-0.18282	0.10015
-0.28482	0.25320
-0.28482	0.15117
0.12320	-0.00188
0.42922	-0.07840
0.63323	-0.10391
0.60773	-0.25695
0.70974	-0.33348
0.27621	0.38074
-0.53984	0.43176
-0.20832	0.38074
-0.20832	0.71234
-0.25932	0.40625
0.07220	-0.25695
0.58223	-0.12942
0.55673	0.07465
0.22521	0.20219
0.68424	0.20219
0.45472	0.45726
-1.15188	0.43176
0.09770	0.02363
-0.48884	-0.00188
-0.38683	0.02363
0.17421	0.10015
0.65874	-0.10391
0.58223	-0.02739
0.53123	-0.00188
0.76074	-0.07840
0.40372	0.27871
-0.64185	0.53379
-0.20832	0.32972
-0.13181	0.45726
-0.28482	0.45726
0.17421	-0.05289
0.37822	-0.28246
0.53123	0.12566
0.55673	0.02363
0.48022	-0.20594
0.09770	-0.02739
-0.05531	0.40625
-0.18282	0.81437
-0.33583	0.30422
-0.33583	-0.30797
0.07220	-0.23145
0.53123	0.22769
0.53123	0.22769
0.53123	0.45726
0.63323	-0.12942
0.19971	-0.35899
-0.15732	0.04914
-0.33583	0.40625
-0.28482	0.61031
-0.20832	0.66132
0.04670	0.07465
0.35272	-0.18043
0.48022	-0.23145
0.68424	0.04914
0.53123	0.07465
0.14870	-0.15492
-0.05531	-0.02739
-0.31033	0.25320
-0.23382	0.53379
-0.08081	0.40625
-0.38683	0.04914
0.53123	0.10015
0.88825	0.07465
0.81175	-0.00188
0.19971	0.15117
-1.33039	0.25320
-0.02981	0.30422
0.22521	0.17668
0.12320	0.30422
-0.18282	0.22769
0.27621	-0.07840
0.65874	-0.20594
-0.05531	-0.15492
0.63323	0.17668
0.65874	0.20219
0.12320	0.32972
-0.10631	0.32972
-0.25932	-0.15492
-0.31033	0.22769
-0.43783	0.20219
-0.02981	0.12566
0.48022	0.10015
0.55673	0.10015
0.42922	-0.00188
0.55673	0.35523
0.17421	0.45726
-0.13181	0.40625
-0.23382	0.25320
-0.20832	0.27871
-0.33583	0.12566
0.04670	-0.48652
0.58223	-0.41000
0.58223	-0.20594
0.55673	0.02363
0.53123	0.17668
0.17421	0.50828
-0.08081	0.45726
-0.18282	0.35523
-0.23382	0.20219
-0.31033	0.15117
-0.13181	-0.00188
0.42922	-0.15492
0.48022	0.02363
0.65874	-0.00188
0.70974	0.07465
0.12320	0.30422
-0.05531	0.61031
0.27621	0.17668
-0.38683	0.20219
-0.89686	0.45726
-0.31033	-0.12942
0.27621	-0.46102
0.81175	0.04914
0.48022	0.04914
1.04126	0.50828
0.22521	0.07465
-0.10631	0.17668
-0.18282	0.30422
-0.31033	0.50828
-0.36133	0.55929
-0.00431	0.12566
0.30171	-0.30797
0.58223	-0.43551
0.73524	-0.15492
-0.25932	0.10015
0.17421	0.48277
0.25071	0.61031
-0.18282	0.40625
-0.18282	0.53379
-0.23382	-0.15492
-0.00431	-0.71609
0.42922	-0.53754
0.65874	0.04914
0.53123	0.22769
0.50573	0.30422
0.27621	0.55929
-0.13181	0.61031
-0.25932	0.32972
-0.18282	0.25320
-0.31033	0.55929
-0.05531	-0.12942
0.40372	-0.20594
0.60773	-0.18043
0.58223	0.04914
0.53123	0.12566
0.07220	0.22769
0.02119	0.27871
-0.13181	0.25320
-0.25932	0.20219
-0.41233	0.25320
-0.00431	-0.07840
0.37822	-0.28246
0.76074	0.07465
0.91375	0.04914
0.88825	-0.05289
-0.46334	0.30422
-1.25389	0.30422
-0.41233	0.38074
-0.08081	0.40625
0.12320	0.53379
0.30171	0.17668
0.55673	-0.10391
0.70974	-0.48652
0.76074	-0.46102
0.63323	0.10015
0.14870	0.63582
-0.28482	0.55929
-0.33583	0.25320
-0.31033	0.20219
-0.43783	0.30422
0.02119	0.30422
0.40372	-0.20594
0.55673	-0.25695
0.42922	-0.28246
0.60773	-0.35899
0.22521	0.35523
-0.15732	0.32972
0.02119	0.66132
-0.13181	0.76336
-0.53984	0.66132
-0.02981	0.22769
0.50573	-0.56305
0.68424	-0.35899
0.60773	0.02363
0.70974	0.07465
0.45472	0.40625
-0.05531	0.22769
-1.10088	0.27871
-0.18282	0.45726
-0.36133	0.27871
0.07220	-0.23145
0.32721	-0.10391
0.40372	-0.10391
0.73524	0.04914
0.63323	0.15117
0.25071	0.27871
-0.02981	0.22769
-0.25932	0.40625
-0.28482	0.48277
-0.48884	0.22769
-0.20832	-0.28246
0.45472	-0.00188
0.86275	-0.10391
0.32721	0.02363
0.50573	0.20219
-0.05531	0.66132
-0.13181	0.43176
0.09770	0.30422
-0.13181	0.22769
-0.87136	0.17668
0.12320	0.25320
0.50573	-0.63957
0.55673	-0.66508
0.78624	-0.23145
0.70974	0.40625
0.22521	0.50828
-0.08081	0.68683
-0.28482	0.55929
-0.38683	0.53379
-0.38683	0.43176
0.04670	0.17668
0.35272	-0.41000
0.58223	-0.35899
0.53123	-0.07840
0.55673	0.04914
0.17421	0.43176
-0.08081	0.61031
-0.31033	-0.18043
-0.20832	-0.20594
-0.20832	0.30422
0.04670	0.25320
0.42922	-0.07840
0.68424	0.04914
0.55673	0.25320
0.68424	0.20219
0.32721	0.10015
-0.13181	0.35523
-0.10631	0.38074
0.14870	0.45726
-0.15732	0.20219
-1.81492	-0.12942
0.25071	-0.12942
0.88825	0.02363
1.01576	0.10015
0.78624	0.04914
0.58223	0.35523
0.25071	0.27871
-0.05531	0.04914
-0.53984	0.40625
-0.94787	0.35523
-0.10631	0.02363
0.53123	-0.00188
0.99026	0.12566
0.40372	-0.12942
0.53123	-0.00188
0.22521	0.35523
-0.13181	0.35523
-0.20832	-0.15492
-0.23382	-0.05289
-0.41233	0.10015
0.02119	0.25320
0.50573	0.15117
0.63323	0.27871
0.42922	0.17668
0.50573	0.04914
0.32721	0.25320
-0.15732	0.04914
-0.23382	0.12566
-0.28482	0.43176
-0.38683	0.30422
0.07220	-0.00188
0.42922	-0.05289
0.60773	0.07465
0.65874	0.04914
0.60773	-0.41000
0.27621	0.22769
-0.08081	0.40625
-0.20832	0.50828
-0.20832	0.48277
-0.46334	0.12566
-0.28482	-0.18043
0.58223	-0.05289
0.68424	0.15117
0.48022	-0.10391
0.70974	-0.15492
0.63323	0.48277
-0.87136	0.32972
-0.53984	0.20219
0.02119	0.12566
-0.15732	0.38074
0.12320	0.27871
0.48022	-0.05289
0.86275	0.10015
0.60773	-0.20594
0.58223	-0.15492
0.12320	0.35523
-0.43783	0.20219
-0.48884	0.04914
-0.28482	0.40625
-0.38683	0.48277
0.09770	-0.15492
0.48022	0.17668
0.88825	-0.05289
0.70974	-0.05289
0.60773	0.12566
0.09770	0.32972
-0.10631	0.83988
-0.25932	-0.23145
-0.33583	-0.46102
-0.36133	0.50828
-0.02981	0.40625
0.32721	-0.43551
0.60773	-0.05289
0.55673	0.10015
0.70974	0.43176
0.17421	0.61031
-0.15732	0.48277
-0.15732	0.30422
-0.15732	0.22769
-0.38683	0.22769
0.02119	-0.20594
0.58223	-0.23145
0.63323	-0.05289
0.07220	-0.25695
0.68424	-0.25695
0.50573	0.43176
-0.18282	0.58480
-0.13181	0.30422
-0.18282	0.15117
-0.33583	0.10015
-0.00431	0.12566
0.40372	-0.05289
0.70974	0.17668
0.73524	0.12566
0.58223	0.10015
0.40372	0.35523
-0.59084	0.35523
-0.38683	0.25320
-0.18282	0.35523
-0.23382	0.27871
0.25071	-0.00188
0.53123	-0.05289
0.53123	-0.05289
0.73524	-0.28246
0.48022	-0.02739
0.17421	0.20219
-0.02981	0.40625
-0.38683	0.55929
-0.08081	-0.20594
-0.33583	0.22769
-0.05531	0.94191
0.48022	0.10015
0.65874	-0.48652
0.50573	-0.28246
0.55673	0.43176
0.17421	0.73785
-0.23382	0.30422
-0.15732	0.12566
-0.20832	0.45726
-0.38683	0.15117
0.12320	-0.00188
0.30171	-0.23145
0.55673	-0.20594
0.68424	-0.07840
0.68424	0.04914
0.02119	0.15117
-0.28482	0.45726
-0.10631	0.15117
-0.23382	0.15117
-0.25932	0.25320
-0.05531	0.12566
0.58223	-0.00188
0.63323	0.15117
-0.10631	-0.02739
0.55673	-0.05289
0.40372	0.63582
-0.15732	0.40625
-0.28482	-0.23145
0.07220	0.04914
-0.15732	0.50828
0.48022	0.12566
-0.08081	-0.02739
-0.69285	0.17668
0.45472	-0.05289
0.09770	0.02363
0.68424	0.45726
0.22521	0.35523
0.27621	-0.10391
0.07220	0.50828
-0.20832	0.35523
0.19971	-0.05289
0.42922	-0.38449
0.42922	-0.12942
0.48022	0.27871
0.35272	-0.28246
0.09770	0.15117
-0.38683	0.71234
-0.41233	-0.00188
-0.25932	0.20219
-0.36133	0.68683
0.02119	-0.00188
0.50573	0.04914
0.53123	0.35523
0.58223	-0.25695
0.65874	-0.15492
0.27621	0.40625
-0.08081	0.83988
-0.23382	0.55929
-0.15732	0.15117
-0.25932	-0.02739
-0.02981	-0.41000
0.35272	-0.46102
0.55673	-0.18043
0.53123	0.02363
0.60773	0.12566
0.22521	0.43176
-0.13181	0.40625
-0.15732	0.15117
-0.28482	0.30422
-0.56534	0.30422
0.14870	0.10015
0.22521	0.10015
0.37822	-0.05289
0.73524	0.25320
0.65874	-0.15492
0.58223	0.22769
0.14870	0.35523
-0.82036	0.27871
-0.43783	0.35523
-0.51434	0.27871
0.58223	0.07465
1.06676	-0.15492
-0.43783	0.07465
0.17421	-0.05289
0.81175	-0.18043
0.42922	0.35523
0.12320	0.48277
-0.02981	0.12566
-0.13181	0.25320
-0.31033	0.43176
-0.08081	0.55929
0.37822	-0.35899
0.55673	-0.46102
0.50573	-0.74160
0.45472	-0.10391
0.12320	0.30422
-0.15732	0.89089
-0.28482	1.06945
-0.36133	0.40625
-0.33583	0.04914
