0.55673	0.22769
0.35272	-0.20594
0.63323	0.27871
0.09770	-0.02739
-0.02981	0.17668
-0.31033	0.45726
-0.33583	0.30422
-0.36133	0.10015
-0.10631	-0.05289
0.32721	0.22769
0.42922	-0.30797
0.50573	-0.02739
0.40372	0.02363
0.40372	0.63582
0.19971	0.66132
-0.25932	0.38074
-0.20832	0.07465
0.02119	-0.12942
0.19971	-0.35899
0.30171	0.17668
0.93925	-0.51203
-0.28482	0.45726
0.37822	0.55929
0.32721	0.76336
-0.10631	0.12566
-0.08081	0.43176
-0.28482	-0.35899
-0.13181	-0.69059
0.32721	-0.10391
-0.38683	0.53379
0.96476	0.30422
-0.97337	-0.02739
1.16877	0.12566
0.55673	0.30422
1.29628	0.43176
-1.12638	0.17668
-0.18282	-0.07840
-0.00431	-0.00188
0.50573	0.15117
0.88825	0.20219
0.37822	0.17668
0.81175	-0.02739
1.24527	0.25320
0.17421	0.43176
-0.20832	0.30422
-0.66735	-0.28246
-0.38683	0.15117
0.09770	0.10015
-0.66735	-0.02739
0.30171	0.40625
0.58223	0.04914
0.50573	0.07465
0.70974	0.07465
0.32721	0.25320
-0.13181	0.68683
-0.10631	0.73785
-0.13181	-0.10391
-0.23382	-0.30797
-0.00431	-0.41000
0.35272	-0.15492
0.35272	-0.00188
0.53123	0.48277
0.58223	0.99292
0.22521	0.15117
-0.10631	-0.25695
-0.20832	-0.99668
-0.20832	0.12566
-0.43783	0.10015
-0.31033	0.91640
0.53123	0.61031
1.27078	0.89089
0.27621	0.25320
0.45472	-0.12942
-1.96793	-1.09871
0.37822	0.15117
0.53123	0.22769
-1.20288	0.27871
0.04670	0.20219
0.07220	0.27871
0.60773	0.04914
0.81175	-0.28246
0.45472	-0.00188
0.53123	0.53379
0.27621	0.30422
-0.05531	-0.15492
-0.25932	0.04914
-1.12638	0.40625
-0.20832	0.30422
-0.13181	0.35523
0.37822	0.53379
0.68424	0.12566
0.50573	-0.23145
0.76074	-1.07320
0.09770	0.02363
-0.28482	0.07465
-0.20832	0.55929
-0.02981	0.81437
-0.15732	0.50828
-0.00431	0.04914
0.63323	0.12566
0.73524	0.40625
1.83181	0.20219
0.04670	-0.05289
-0.23382	-0.02739
0.37822	0.55929
-0.33583	0.45726
0.09770	-0.35899
0.17421	-1.09871
0.58223	-0.46102
-0.18282	0.48277
0.27621	0.45726
0.32721	0.58480
0.78624	0.66132
1.19427	0.53379
-0.61635	-0.00188
-1.84042	-0.00188
-0.28482	0.15117
0.12320	0.22769
0.14870	0.35523
0.83725	0.07465
-0.43783	0.15117
0.53123	-0.25695
1.27078	-0.15492
0.60773	0.48277
-0.36133	0.02363
0.17421	0.50828
0.22521	0.61031
-0.05531	-0.02739
-0.23382	-0.02739
0.55673	-0.05289
0.76074	0.27871
0.22521	0.20219
0.37822	-0.10391
0.04670	-0.28246
-0.18282	0.50828
-0.20832	0.45726
-0.25932	0.45726
-0.28482	-0.00188
-0.08081	-0.02739
0.37822	-0.00188
0.70974	-0.07840
0.53123	0.12566
0.45472	1.06945
0.32721	0.22769
0.02119	0.22769
-0.02981	-0.28246
0.04670	-0.69059
-0.20832	-0.18043
-0.13181	0.43176
0.27621	0.40625
0.42922	0.10015
0.96476	0.66132
1.14327	0.12566
0.99026	0.35523
-2.12094	0.30422
-1.38139	0.43176
0.37822	-0.00188
-2.68198	-0.30797
-0.61635	-0.33348
0.76074	0.02363
0.55673	0.12566
1.06676	0.45726
1.44929	0.43176
0.91375	0.10015
0.35272	-0.00188
0.32721	-0.25695
-0.28482	0.30422
-0.59084	0.27871
-0.71835	-0.00188
0.02119	0.02363
0.42922	0.55929
0.12320	0.50828
1.21977	-0.05289
0.17421	0.32972
-0.15732	0.96742
0.09770	0.25320
0.02119	-0.10391
-0.31033	-0.56305
-0.00431	-0.33348
0.45472	0.53379
0.55673	0.32972
0.58223	0.04914
0.53123	0.04914
0.30171	-0.41000
-0.15732	0.35523
-0.18282	0.38074
-0.20832	0.81437
-0.28482	0.10015
0.02119	-0.02739
0.37822	0.30422
0.65874	0.10015
0.48022	-0.38449
0.50573	-0.38449
0.63323	0.30422
-0.59084	0.66132
-0.28482	0.17668
-0.25932	-0.05289
-0.41233	0.43176
0.83725	0.38074
0.60773	0.12566
2.69887	0.02363
-2.68198	-0.00188
0.50573	-0.05289
1.06676	-0.28246
0.58223	0.27871
0.22521	0.38074
0.30171	0.32972
0.04670	0.38074
-0.02981	-0.07840
0.02119	-0.00188
0.22521	0.15117
0.22521	-0.12942
0.50573	0.17668
0.25071	0.30422
-0.10631	0.30422
-0.20832	0.32972
-0.28482	0.58480
-0.33583	0.50828
-0.05531	-0.63957
0.35272	-0.66508
0.32721	0.10015
0.83725	0.66132
0.25071	0.43176
0.27621	0.02363
0.19971	0.48277
-0.02981	-0.15492
-0.08081	-0.56305
-0.31033	-0.05289
0.17421	0.22769
-0.36133	0.61031
1.09226	0.68683
1.50029	0.40625
-1.10088	0.35523
-0.23382	0.15117
0.55673	-0.00188
-0.66735	0.10015
0.17421	0.17668
0.70974	0.22769
-0.00431	-0.07840
0.37822	-0.43551
1.04126	-0.28246
0.17421	0.48277
0.83725	0.40625
1.62780	0.25320
-1.81492	0.38074
-0.36133	0.32972
-0.74385	-0.35899
-0.38683	-0.30797
0.30171	0.63582
0.35272	0.73785
0.60773	0.58480
0.68424	-0.43551
0.73524	-0.18043
0.14870	0.35523
-0.13181	0.10015
-0.20832	-1.07320
-0.33583	0.55929
-0.43783	0.50828
-0.15732	1.06945
0.32721	0.48277
0.50573	0.15117
0.55673	-0.05289
0.58223	-0.35899
0.25071	0.02363
0.07220	-0.05289
-0.10631	0.04914
-0.15732	-0.10391
-1.96793	0.17668
0.30171	-0.12942
1.01576	0.38074
0.78624	0.27871
0.14870	0.25320
-0.00431	0.40625
0.53123	0.25320
0.35272	0.17668
-0.05531	0.25320
-0.05531	0.07465
3.10689	-0.43551
-3.26852	-0.07840
-0.33583	0.20219
-1.68742	0.48277
0.70974	0.55929
1.27078	0.45726
1.24527	0.22769
0.55673	0.10015
-0.48884	-0.15492
0.12320	-0.35899
-0.18282	-0.43551
0.04670	0.45726
0.17421	0.35523
0.32721	0.10015
0.37822	0.15117
0.40372	0.48277
0.02119	-0.35899
-0.13181	-0.61406
-0.36133	0.43176
0.32721	0.71234
0.35272	0.63582
-2.32496	0.45726
0.22521	0.25320
0.93925	0.12566
0.99026	0.15117
0.88825	-0.20594
0.73524	-0.66508
0.22521	-0.56305
-0.31033	0.35523
-1.12638	0.25320
-0.00431	0.73785
-0.08081	0.30422
0.63323	0.17668
1.37278	-0.10391
-1.71292	-0.05289
0.22521	0.30422
1.83181	0.27871
-1.81492	0.61031
-0.36133	0.04914
1.32178	0.30422
3.43841	-0.33348
-5.64017	-0.10391
-0.28482	0.35523
1.16877	0.61031
1.90832	-0.35899
2.01032	0.07465
1.21977	0.55929
0.76074	0.61031
0.81175	-0.10391
0.32721	-0.00188
-1.84042	-0.02739
1.57679	-0.07840
-1.99343	-0.07840
-2.86049	0.76336
0.19971	0.86539
1.50029	0.04914
0.78624	-1.30277
0.45472	0.02363
0.02119	0.38074
0.27621	0.50828
0.45472	0.68683
0.07220	0.45726
0.91375	0.17668
1.24527	-0.53754
1.37278	0.10015
-1.91693	0.35523
-0.00431	0.17668
-0.05531	0.20219
0.35272	0.17668
0.09770	-0.12942
-0.23382	-0.05289
0.32721	0.12566
-0.87136	0.30422
0.53123	0.32972
0.76074	0.32972
1.09226	0.22769
1.32178	-0.66508
-1.61091	-0.25695
-0.48884	0.43176
0.42922	0.68683
0.68424	0.81437
-2.55447	0.68683
-2.45246	-0.33348
0.53123	-0.71609
1.32178	-0.15492
1.44929	0.71234
0.83725	0.45726
0.45472	0.27871
0.32721	0.04914
-0.02981	0.10015
0.12320	0.10015
-0.69285	0.10015
0.35272	-0.05289
0.42922	-0.15492
0.53123	-0.00188
-0.10631	0.27871
-0.18282	0.32972
0.70974	0.45726
-0.08081	0.66132
-1.61091	-0.02739
-0.13181	-0.51203
0.58223	0.17668
0.53123	0.25320
0.70974	0.30422
0.53123	0.35523
0.88825	0.04914
0.35272	0.30422
-0.10631	0.25320
-0.10631	-0.43551
-0.20832	-0.05289
0.22521	0.15117
0.50573	-0.07840
-2.14644	0.30422
0.25071	0.73785
0.73524	0.35523
1.11776	-0.79262
0.45472	-0.46102
0.35272	0.38074
1.14327	0.63582
0.19971	0.55929
-1.17738	0.78886
-1.10088	0.25320
0.96476	0.02363
2.06133	-0.18043
0.40372	-0.12942
0.12320	-0.02739
1.21977	0.17668
-0.05531	0.15117
-0.48884	0.12566
0.42922	0.32972
-0.28482	-0.46102
0.45472	0.12566
0.42922	0.66132
0.37822	0.45726
0.30171	0.04914
0.78624	0.02363
0.14870	0.02363
-0.15732	0.15117
-0.41233	0.71234
-0.36133	-0.38449
-0.20832	-0.25695
-0.10631	0.15117
0.02119	0.27871
0.50573	0.89089
0.55673	0.78886
0.76074	0.12566
0.86275	-0.10391
0.25071	0.02363
-0.89686	0.15117
0.32721	-0.25695
-1.17738	-0.30797
0.55673	0.04914
0.58223	0.40625
0.83725	0.02363
1.11776	0.17668
-0.33583	0.22769
0.42922	0.35523
-0.33583	0.86539
-0.61635	0.32972
-1.25389	-1.07320
-0.61635	0.07465
0.07220	0.73785
0.88825	0.43176
1.19427	0.02363
0.37822	-0.35899
1.24527	0.25320
0.19971	0.76336
-0.25932	0.40625
-0.48884	-0.33348
-0.25932	-0.05289
0.42922	0.45726
-1.66191	-0.41000
0.09770	-0.00188
0.53123	0.20219
0.58223	0.43176
0.83725	0.50828
0.14870	0.15117
-0.00431	-0.28246
-0.05531	0.10015
-0.00431	0.45726
0.37822	0.30422
-0.69285	-0.00188
-0.15732	-0.25695
1.01576	0.15117
0.09770	0.53379
0.68424	0.61031
0.53123	0.07465
0.25071	-0.18043
-0.13181	0.22769
-0.20832	0.27871
-0.25932	0.32972
0.32721	0.10015
-0.84586	-0.33348
1.16877	-0.56305
1.98482	0.55929
-0.69285	0.66132
0.76074	0.04914
0.42922	-0.15492
0.25071	-0.20594
-1.33039	0.15117
-0.13181	-0.10391
0.93925	0.66132
0.27621	0.45726
0.70974	0.20219
0.07220	0.30422
1.27078	0.07465
0.35272	-0.05289
-0.94787	0.20219
-0.64185	0.02363
-0.13181	0.04914
-0.18282	0.12566
0.12320	0.04914
1.04126	0.25320
0.83725	-0.18043
-0.28482	-0.05289
-0.02981	-0.15492
0.68424	0.86539
0.14870	0.71234
-0.15732	-0.30797
-0.41233	-0.02739
-0.48884	0.10015
0.07220	0.00000
0.14870	0.00000
0.25071	0.55929
0.65874	0.43176
0.86275	-0.02739
-0.05531	-0.30797
0.14870	-0.66508
1.11776	0.22769
-1.10088	0.73785
-0.41233	0.63582
0.35272	0.25320
0.12320	-0.23145
1.90832	0.12566
-1.02437	0.22769
1.50029	0.32972
-0.56534	0.27871
0.35272	0.02363
0.76074	-0.35899
0.27621	-0.00188
-2.83499	0.22769
0.17421	0.30422
0.58223	0.30422
0.42922	0.15117
1.14327	0.12566
-0.00431	0.22769
0.17421	0.17668
-0.05531	0.07465
-0.23382	-0.12942
-0.02981	0.25320
-0.23382	0.12566
0.04670	0.30422
0.22521	0.17668
0.68424	0.15117
0.35272	0.10015
0.63323	0.63582
0.35272	0.02363
0.07220	-0.66508
-1.15188	-0.43551
-0.66735	0.48277
-0.13181	0.91640
0.25071	0.30422
0.25071	0.07465
0.63323	0.43176
0.70974	-0.18043
0.83725	-0.10391
1.04126	0.20219
-2.17195	0.50828
-0.28482	0.32972
-0.05531	0.02363
0.09770	-0.25695
-0.18282	0.20219
-0.38683	-0.07840
0.70974	-0.28246
0.91375	0.15117
0.93925	0.48277
0.12320	0.12566
-0.25932	0.15117
0.32721	0.25320
-0.20832	0.27871
0.53123	0.27871
-1.99343	0.20219
-0.05531	0.30422
0.48022	0.04914
0.48022	-0.12942
0.65874	0.20219
0.30171	0.17668
-0.08081	0.15117
0.27621	-0.20594
-0.18282	0.38074
-0.18282	0.12566
-0.38683	-0.15492
0.32721	0.43176
1.62780	0.17668
0.19971	-0.10391
0.70974	0.25320
0.63323	0.45726
-0.00431	0.25320
-0.02981	0.35523
-0.10631	-0.33348
-0.74385	-0.25695
-0.15732	-0.35899
0.22521	-0.25695
0.37822	0.99292
0.58223	1.42656
0.58223	0.12566
0.48022	-0.33348
0.40372	-0.35899
-1.22839	-0.07840
-0.28482	-0.05289
-0.02981	0.12566
0.42922	0.55929
-0.15732	0.94191
0.32721	0.04914
0.73524	-0.58856
1.72980	-0.51203
-0.23382	0.15117
0.12320	0.40625
0.14870	0.30422
0.17421	0.38074
-0.00431	0.10015
-1.20288	0.15117
-0.20832	0.43176
0.58223	0.02363
1.29628	-0.02739
1.21977	0.10015
0.04670	0.02363
0.02119	0.30422
-0.08081	0.15117
0.02119	0.32972
-0.48884	-0.00188
-0.36133	-0.35899
-0.08081	0.12566
0.70974	0.12566
0.42922	0.17668
0.55673	0.27871
0.27621	0.61031
0.07220	0.58480
-0.13181	-0.23145
-0.18282	-0.71609
-0.48884	-0.05289
-0.05531	0.12566
0.76074	0.45726
1.04126	0.45726
-0.13181	0.53379
0.76074	0.22769
0.42922	0.25320
0.09770	-0.07840
-1.02437	-0.25695
0.09770	-0.18043
-0.43783	0.10015
0.25071	0.22769
0.19971	-0.00188
0.45472	0.32972
0.81175	0.55929
0.73524	0.27871
1.19427	0.25320
-1.35589	0.15117
0.37822	-0.05289
0.22521	-0.25695
-0.59084	0.35523
-0.10631	0.15117
0.58223	0.12566
1.80631	0.12566
-1.02437	0.22769
1.04126	0.27871
0.78624	0.25320
-2.55447	0.04914
-0.18282	-0.33348
0.40372	-0.05289
-0.02981	0.45726
0.48022	0.25320
0.99026	0.17668
-0.02981	0.15117
0.53123	0.02363
0.42922	0.32972
0.27621	0.25320
0.04670	0.35523
-0.20832	-0.20594
-0.10631	0.35523
-0.31033	0.61031
-0.13181	-0.28246
0.32721	-0.05289
0.42922	-0.20594
0.40372	-0.15492
0.68424	0.35523
0.81175	0.55929
-0.18282	-0.12942
-0.48884	0.61031
-0.20832	0.66132
0.14870	-0.41000
0.35272	-0.84363
-0.28482	-0.30797
0.42922	0.53379
0.70974	0.66132
0.99026	0.35523
0.27621	0.45726
-0.00431	0.32972
2.01032	0.07465
-2.27395	0.02363
-0.41233	0.04914
0.60773	0.15117
-0.23382	0.20219
0.91375	-0.00188
0.88825	-0.30797
1.55129	-0.15492
-0.51434	0.27871
0.09770	-0.12942
-0.25932	0.25320
-0.00431	0.43176
-0.48884	0.27871
0.02119	0.58480
0.37822	0.38074
0.55673	-0.28246
0.42922	-0.81812
0.53123	-0.00188
0.37822	0.68683
-0.05531	0.78886
-0.69285	0.48277
-0.38683	-0.30797
-0.08081	0.30422
0.35272	0.35523
0.37822	0.27871
0.58223	-0.25695
0.53123	-0.46102
0.65874	-0.18043
0.81175	0.40625
0.17421	0.35523
-1.71292	0.35523
-0.08081	0.22769
0.12320	-0.15492
-0.38683	0.22769
0.42922	0.45726
0.32721	0.32972
1.16877	0.12566
1.50029	0.15117
-1.81492	-0.25695
-0.79486	-0.02739
0.04670	0.35523
0.09770	0.32972
0.88825	0.04914
0.50573	-0.46102
0.53123	-0.41000
0.42922	0.45726
0.68424	0.32972
0.53123	0.30422
0.02119	0.20219
-0.23382	0.61031
-0.33583	0.58480
-0.08081	0.53379
0.12320	-0.33348
-2.09544	-0.18043
0.07220	-0.18043
0.68424	-0.07840
0.78624	-0.35899
0.96476	0.73785
0.37822	0.55929
0.07220	0.40625
-0.31033	-0.15492
-0.18282	0.07465
-0.00431	0.22769
-0.00431	-0.43551
0.02119	-0.23145
0.32721	0.12566
0.81175	0.66132
0.65874	0.53379
-0.02981	0.15117
0.14870	-0.10391
-0.36133	-0.07840
-0.41233	0.20219
-0.08081	0.45726
0.22521	0.40625
0.42922	0.38074
0.83725	0.32972
0.73524	0.20219
0.02119	0.07465
0.48022	-0.25695
-0.97337	-0.00188
-0.71835	-0.28246
-0.08081	-0.05289
0.12320	0.50828
0.45472	0.35523
0.27621	0.30422
1.24527	0.35523
1.55129	-0.05289
-3.24301	-0.15492
-0.00431	0.27871
0.22521	0.45726
0.63323	-0.25695
1.14327	-0.46102
-2.01894	0.12566
0.02119	0.38074
0.48022	0.96742
0.88825	0.27871
0.81175	0.20219
0.81175	0.15117
0.32721	0.22769
-0.18282	-0.56305
-0.23382	-0.43551
-0.23382	0.53379
-0.56534	0.61031
-0.02981	0.15117
0.19971	0.25320
0.53123	-1.02219
0.42922	0.35523
0.19971	0.66132
0.19971	0.38074
-0.00431	0.04914
0.04670	0.20219
-0.02981	0.15117
-0.38683	-0.15492
0.07220	0.40625
0.35272	0.32972
0.88825	0.15117
1.19427	-0.25695
-0.08081	-0.30797
0.60773	0.02363
0.02119	0.17668
-0.51434	0.04914
-0.28482	0.10015
-0.00431	0.38074
0.58223	0.38074
-0.00431	0.40625
-0.38683	0.17668
0.27621	0.30422
0.27621	0.04914
0.81175	-0.10391
-0.33583	-0.12942
0.30171	0.32972
0.02119	0.25320
-0.10631	0.15117
-0.08081	0.15117
0.04670	0.07465
0.68424	0.04914
1.09226	0.02363
-0.46334	0.45726
0.09770	-0.12942
-0.18282	0.53379
0.22521	-0.05289
0.25071	-0.46102
-0.13181	-0.66508
0.22521	0.78886
0.50573	1.24800
0.50573	0.86539
0.37822	0.27871
0.37822	-0.46102
0.09770	-0.41000
-0.15732	-0.10391
-0.08081	0.22769
-0.15732	0.35523
-0.41233	0.12566
-0.08081	0.07465
0.32721	0.12566
0.53123	0.35523
0.42922	-0.20594
0.55673	-0.07840
0.45472	0.27871
0.25071	0.43176
-0.05531	0.38074
-0.99887	-0.15492
-1.96793	0.04914
0.22521	0.30422
0.99026	0.20219
1.16877	0.04914
0.60773	0.20219
0.45472	0.30422
0.60773	0.10015
-0.02981	-0.02739
-0.13181	-0.20594
-0.38683	0.27871
-0.33583	0.27871
-0.10631	0.10015
0.42922	0.25320
0.78624	0.55929
-0.38683	-0.20594
0.42922	0.07465
0.30171	0.20219
0.19971	0.04914
-0.38683	0.15117
-0.08081	0.43176
-0.23382	0.15117
-0.02981	0.20219
0.53123	0.02363
0.50573	0.04914
0.35272	-0.10391
0.58223	0.27871
0.27621	0.58480
-0.20832	-0.15492
-0.10631	0.12566
-0.05531	0.20219
-0.31033	0.15117
-0.08081	0.02363
0.37822	0.20219
0.55673	0.30422
0.40372	0.40625
0.55673	0.27871
0.50573	-0.18043
-0.08081	-0.48652
-0.13181	0.17668
-0.18282	0.30422
-0.02981	0.43176
-0.02981	0.32972
-0.18282	0.17668
0.60773	0.22769
0.99026	-0.10391
-0.59084	-0.00188
-0.33583	0.12566
-0.10631	0.02363
0.53123	0.20219
1.24527	0.22769
-0.74385	0.20219
0.19971	0.17668
0.63323	0.45726
0.58223	0.27871
0.65874	0.17668
0.60773	-0.10391
0.19971	-0.07840
0.02119	0.04914
-0.36133	0.20219
-0.51434	0.55929
-0.33583	0.04914
0.12320	-0.79262
0.27621	0.43176
0.40372	0.76336
0.50573	0.81437
0.63323	0.22769
0.17421	-0.25695
0.04670	-0.38449
-0.10631	0.30422
-0.23382	0.07465
-0.31033	-0.30797
0.09770	-0.28246
0.22521	0.10015
0.45472	0.35523
0.65874	0.27871
0.58223	0.04914
0.19971	0.22769
-0.18282	0.43176
-0.53984	0.35523
0.14870	0.30422
-0.25932	0.40625
0.76074	0.04914
1.21977	0.10015
-2.75848	-0.23145
0.91375	-0.25695
0.50573	0.30422
0.53123	0.25320
0.30171	0.20219
0.22521	0.30422
0.07220	-0.05289
-1.35589	0.04914
-0.23382	-0.18043
0.09770	0.38074
0.50573	0.73785
0.70974	0.02363
0.76074	-0.15492
0.30171	-0.23145
0.12320	0.43176
-0.05531	0.15117
-0.33583	0.45726
-0.51434	0.02363
-0.20832	-0.30797
0.30171	0.43176
0.40372	0.35523
0.55673	0.43176
0.68424	0.07465
0.25071	-0.02739
-0.00431	-0.51203
-0.23382	-0.20594
-0.18282	-0.15492
-0.36133	0.45726
0.04670	1.01843
0.35272	0.55929
0.48022	0.27871
0.42922	0.04914
0.63323	-0.07840
0.58223	0.07465
0.07220	0.22769
0.17421	-0.12942
-0.56534	-0.07840
0.91375	0.27871
-1.73842	0.27871
-0.79486	0.20219
0.63323	0.07465
1.19427	0.17668
0.96476	0.30422
0.88825	0.32972
0.19971	0.15117
-0.20832	-0.30797
-0.59084	0.12566
-0.18282	0.43176
0.12320	0.45726
0.19971	-0.00188
0.42922	-0.38449
0.53123	0.15117
0.65874	0.48277
0.14870	0.15117
-0.25932	0.58480
-0.41233	0.04914
-0.23382	-0.46102
-0.18282	0.25320
0.12320	0.45726
0.42922	0.17668
0.53123	-0.43551
0.53123	-0.33348
0.55673	0.02363
0.40372	0.73785
-0.08081	0.66132
-0.08081	0.30422
-0.08081	-0.10391
-0.28482	0.02363
-0.08081	0.12566
0.30171	0.27871
0.53123	0.17668
0.53123	-0.33348
0.73524	0.48277
0.48022	0.17668
-0.13181	0.12566
-0.28482	0.04914
-0.20832	-0.07840
-0.33583	-0.00188
0.35272	0.17668
-0.02981	0.25320
-0.69285	0.20219
0.76074	0.10015
1.09226	0.02363
0.63323	-0.02739
0.02119	0.25320
0.76074	0.66132
0.65874	0.25320
-2.24845	0.15117
-0.18282	0.40625
0.22521	-0.12942
0.55673	-0.23145
0.63323	0.27871
0.63323	0.22769
0.22521	0.66132
-0.00431	0.04914
-0.15732	0.02363
-0.28482	-0.10391
-0.31033	-0.15492
0.04670	-0.02739
0.25071	0.53379
0.48022	0.40625
0.35272	-0.25695
0.65874	0.25320
0.19971	0.83988
-0.10631	0.02363
-0.08081	-0.00188
-0.10631	0.17668
-0.28482	-0.02739
0.07220	0.17668
0.65874	0.32972
1.11776	0.04914
-0.36133	0.07465
0.09770	0.10015
0.50573	0.15117
0.22521	0.04914
-0.13181	-0.07840
0.09770	0.32972
-1.15188	0.30422
0.19971	0.20219
0.53123	-0.02739
-0.05531	0.07465
0.53123	0.30422
0.96476	0.30422
0.48022	0.10015
-0.28482	0.04914
-0.08081	0.27871
-0.08081	0.20219
-0.46334	0.32972
0.35272	-0.18043
0.27621	0.04914
0.48022	-0.23145
0.19971	0.07465
0.68424	0.07465
0.25071	-0.00188
-0.18282	0.83988
-0.28482	0.83988
-0.25932	0.71234
-0.33583	-0.41000
-0.20832	-0.23145
0.35272	-0.41000
0.60773	-0.15492
0.50573	0.20219
0.63323	0.45726
0.40372	0.25320
-0.05531	-0.56305
-0.10631	-0.33348
-0.15732	0.58480
-0.38683	0.81437
0.12320	0.45726
0.32721	0.15117
0.42922	-0.10391
0.73524	0.25320
0.73524	0.12566
-0.25932	-0.02739
-0.25932	-0.12942
0.04670	0.10015
0.07220	0.27871
0.70974	0.15117
-2.91149	0.15117
0.19971	-0.18043
1.14327	0.12566
1.01576	0.25320
1.09226	0.22769
0.78624	0.27871
-2.70748	0.32972
-0.15732	-0.00188
-0.61635	0.17668
-0.18282	0.22769
0.22521	-0.30797
0.58223	-0.20594
0.96476	1.06945
0.37822	-0.46102
0.58223	-0.66508
0.40372	0.15117
0.04670	0.61031
-0.25932	0.86539
-0.36133	0.55929
-0.59084	0.17668
-0.05531	-0.38449
0.22521	-0.28246
0.50573	0.86539
0.53123	0.25320
0.58223	-0.35899
0.48022	0.15117
0.02119	0.45726
-0.10631	0.12566
-0.20832	-0.30797
-0.31033	-0.23145
0.02119	0.15117
0.32721	0.25320
0.35272	0.48277
0.42922	0.07465
0.73524	0.25320
0.45472	0.15117
0.02119	-0.12942
-0.28482	0.30422
-0.28482	0.30422
-0.61635	0.35523
-0.00431	-0.10391
0.40372	-0.05289
1.44929	0.17668
-0.28482	0.32972
0.81175	0.20219
-0.08081	0.40625
0.07220	-0.05289
0.02119	-0.12942
0.12320	0.25320
-0.10631	0.12566
0.12320	0.20219
0.50573	0.38074
0.45472	0.04914
0.30171	0.07465
0.32721	-0.05289
0.02119	0.25320
-0.33583	0.15117
-0.08081	-0.05289
-0.28482	0.02363
-0.10631	0.17668
0.07220	0.04914
0.40372	0.45726
0.53123	0.83988
0.40372	-0.53754
0.63323	-0.10391
0.27621	0.27871
-0.08081	0.55929
0.02119	0.12566
-0.23382	0.12566
-0.02981	0.04914
-0.18282	0.04914
0.25071	0.35523
0.42922	-0.05289
0.60773	-0.05289
1.01576	0.25320
0.37822	0.35523
-1.50890	0.40625
0.09770	0.15117
0.22521	0.30422
-0.23382	0.07465
0.48022	-0.00188
-0.00431	-0.05289
0.19971	-0.23145
0.81175	0.15117
0.91375	0.30422
-0.02981	0.22769
-0.20832	0.17668
0.02119	0.12566
0.30171	0.25320
-0.76936	0.17668
-0.15732	0.25320
0.35272	0.17668
0.50573	0.15117
0.45472	-0.43551
0.83725	-0.28246
-0.38683	0.50828
-0.05531	0.45726
-0.13181	-0.18043
-0.05531	0.73785
-0.20832	0.50828
-0.08081	0.68683
0.32721	-0.02739
0.40372	-0.35899
0.42922	-0.48652
0.63323	-0.51203
0.12320	-0.20594
-0.18282	0.35523
-0.02981	0.55929
-0.20832	0.63582
-0.25932	0.35523
0.02119	0.17668
0.25071	-0.10391
0.68424	0.10015
0.55673	0.02363
0.35272	0.22769
0.40372	0.30422
0.32721	0.17668
-0.59084	0.02363
-1.12638	0.04914
0.35272	0.32972
0.27621	0.15117
0.48022	-0.07840
0.58223	-0.00188
0.40372	0.17668
0.76074	0.15117
-0.36133	0.10015
0.07220	0.12566
0.02119	0.35523
0.32721	0.32972
2.54586	-0.05289
-4.46709	-0.02739
-0.10631	0.30422
0.60773	0.10015
0.50573	-0.35899
1.21977	-0.02739
0.81175	0.50828
-0.31033	0.61031
-0.13181	0.48277
0.25071	0.07465
-0.10631	0.25320
-0.08081	-0.18043
0.25071	-0.18043
0.42922	-0.10391
0.42922	-0.18043
0.27621	-0.46102
0.22521	0.99292
0.14870	1.06945
-0.05531	0.50828
-1.25389	-0.25695
-0.15732	0.02363
0.27621	-0.05289
0.17421	0.02363
0.48022	-0.12942
0.78624	-0.02739
0.68424	0.40625
0.73524	-0.07840
0.14870	-0.02739
-0.94787	-0.05289
-0.05531	0.45726
0.02119	0.45726
0.17421	0.12566
0.30171	0.15117
0.91375	0.10015
0.60773	0.20219
-1.22839	0.40625
0.09770	-0.10391
0.32721	-0.05289
0.14870	0.10015
-0.23382	0.55929
-0.23382	0.25320
0.02119	0.15117
0.48022	-0.79262
0.58223	-0.12942
0.48022	0.20219
0.73524	0.45726
0.86275	0.55929
-1.02437	0.38074
-0.33583	-0.12942
-0.13181	0.04914
-0.25932	-0.35899
0.02119	0.71234
0.40372	0.66132
0.53123	-0.05289
0.58223	-0.41000
0.53123	-0.66508
0.19971	0.17668
-0.13181	0.07465
-0.08081	0.27871
-0.13181	0.83988
-0.36133	0.96742
0.30171	-0.20594
0.42922	-0.51203
-0.74385	-0.18043
0.58223	0.10015
0.86275	0.45726
0.30171	0.12566
0.30171	-0.00188
-0.61635	0.35523
-1.61091	0.27871
0.35272	0.35523
0.19971	0.53379
0.63323	-0.07840
0.70974	-0.30797
0.22521	-0.02739
0.07220	0.22769
0.25071	0.04914
0.45472	0.20219
1.34728	0.27871
-1.33039	0.35523
-0.13181	0.12566
-0.02981	0.15117
0.70974	-0.23145
0.73524	0.15117
0.81175	0.20219
0.83725	-0.07840
-0.02981	0.07465
-0.02981	0.27871
-0.10631	-0.02739
-0.18282	0.17668
-0.33583	0.68683
-0.18282	0.10015
0.27621	-0.07840
0.35272	0.07465
0.48022	0.38074
0.73524	0.45726
0.30171	-0.15492
-0.15732	-0.92016
-0.13181	0.25320
-0.08081	1.27351
-0.43783	0.38074
0.07220	-0.43551
0.50573	0.15117
0.48022	0.07465
0.53123	0.30422
0.55673	0.17668
0.70974	0.17668
0.32721	0.25320
-1.48340	-0.02739
-0.02981	0.25320
-0.02981	-0.07840
0.48022	-0.07840
0.40372	0.15117
0.17421	0.20219
0.55673	0.15117
-0.08081	0.27871
0.55673	0.25320
-0.05531	0.17668
-0.05531	0.10015
-0.51434	0.27871
-0.28482	0.15117
0.12320	0.22769
0.65874	-0.05289
0.50573	-0.25695
0.32721	-0.15492
0.58223	-0.18043
0.02119	0.48277
-0.05531	0.73785
-0.05531	0.30422
-0.08081	0.50828
-0.31033	0.68683
-0.20832	0.35523
0.37822	0.25320
0.55673	0.10015
0.48022	-0.46102
0.68424	-0.76711
0.19971	-0.56305
-0.02981	-0.18043
-0.20832	0.35523
-0.20832	0.78886
-0.25932	0.86539
0.09770	0.71234
0.81175	0.15117
-0.59084	-0.38449
0.40372	-0.18043
0.60773	-0.12942
0.48022	0.40625
0.27621	0.73785
0.53123	0.04914
-0.82036	-0.33348
-0.20832	-0.00188
0.07220	0.89089
0.04670	0.12566
0.30171	-0.23145
0.78624	-0.05289
0.42922	0.35523
0.27621	0.22769
0.32721	0.27871
0.07220	0.07465
-0.59084	0.15117
-0.20832	0.12566
-0.23382	0.02363
0.30171	0.07465
0.37822	0.10015
0.53123	-0.10391
0.63323	-0.02739
0.35272	0.61031
-0.02981	0.45726
-0.25932	0.10015
0.27621	0.15117
-0.82036	-0.28246
-0.15732	0.45726
0.48022	0.17668
0.50573	-0.02739
0.30171	0.12566
0.83725	0.55929
0.25071	-0.23145
-0.02981	-0.43551
-0.02981	-0.71609
-0.18282	0.48277
-0.33583	0.63582
-0.00431	0.58480
0.19971	0.20219
0.70974	0.17668
-0.08081	0.04914
0.68424	0.20219
0.42922	0.12566
0.02119	0.10015
-0.10631	-0.05289
0.32721	-0.05289
0.25071	0.04914
-0.89686	0.02363
0.12320	0.17668
0.60773	0.10015
0.55673	0.25320
0.73524	0.27871
0.78624	0.32972
-0.18282	0.22769
0.12320	0.12566
-0.18282	0.17668
-0.33583	0.07465
0.09770	0.25320
0.22521	-0.10391
0.25071	0.15117
0.42922	-0.05289
0.53123	-0.10391
0.17421	-0.05289
-0.02981	1.17148
-0.05531	0.78886
-0.15732	-0.25695
-0.36133	-0.43551
0.02119	-0.20594
0.37822	-0.12942
0.50573	0.25320
0.45472	0.38074
0.68424	0.40625
0.30171	0.32972
-0.08081	0.30422
-0.15732	-0.00188
-0.20832	0.02363
-0.38683	-0.05289
-0.02981	0.04914
0.37822	0.12566
0.40372	0.30422
0.42922	0.20219
0.63323	-0.25695
0.60773	0.15117
-0.02981	0.32972
-1.10088	0.30422
-0.13181	0.20219
-0.08081	0.15117
0.32721	0.07465
0.42922	-0.00188
1.01576	0.17668
-1.91693	0.15117
0.53123	0.02363
0.32721	0.32972
0.53123	0.40625
0.07220	0.07465
0.02119	0.10015
0.63323	0.04914
0.02119	-0.02739
0.19971	-0.12942
0.12320	0.07465
0.27621	0.02363
0.58223	0.22769
0.22521	0.50828
-0.08081	0.35523
-0.13181	0.38074
0.07220	0.40625
-0.23382	0.25320
-0.18282	-0.41000
0.22521	-0.28246
0.60773	-0.10391
0.45472	0.22769
0.50573	0.38074
0.35272	0.10015
-0.00431	-0.10391
-0.02981	0.76336
-0.18282	0.30422
-0.41233	0.10015
-0.05531	0.07465
0.53123	0.55929
0.55673	-0.12942
0.14870	-0.28246
0.76074	-0.12942
0.25071	-0.18043
-0.02981	0.20219
0.02119	0.35523
-0.18282	0.40625
-0.48884	0.35523
0.02119	0.17668
0.63323	0.10015
0.81175	-0.00188
-0.00431	0.25320
0.88825	0.25320
0.22521	0.02363
-0.00431	-0.10391
0.70974	-0.23145
-0.13181	0.10015
-0.18282	0.32972
-0.05531	0.30422
0.19971	0.40625
0.22521	-0.07840
0.60773	-0.05289
0.73524	0.15117
0.32721	0.53379
-0.05531	0.02363
-0.20832	-0.25695
-0.43783	-0.00188
-0.53984	0.30422
-0.10631	0.17668
0.27621	0.86539
0.48022	0.20219
0.50573	-0.05289
0.65874	-0.30797
0.27621	-0.07840
-0.02981	-0.20594
-0.15732	-0.25695
-0.10631	0.40625
-0.28482	0.78886
0.02119	0.25320
0.45472	-0.02739
0.48022	0.30422
0.48022	-0.38449
0.53123	0.02363
0.35272	0.40625
-0.10631	0.32972
-0.10631	0.38074
-0.28482	0.02363
-0.18282	-0.00188
-0.36133	0.10015
0.32721	0.04914
0.68424	0.22769
0.55673	-0.10391
0.78624	0.15117
0.73524	0.40625
-0.13181	0.55929
-0.51434	-0.74160
-0.13181	-0.46102
-0.15732	0.32972
-0.28482	0.48277
0.50573	0.38074
0.93925	0.32972
0.68424	0.32972
0.70974	0.10015
0.40372	0.02363
-0.18282	0.20219
-0.36133	0.04914
-0.38683	-0.28246
-0.48884	0.20219
-0.08081	0.20219
0.27621	0.27871
0.42922	0.35523
0.48022	0.04914
0.53123	-0.10391
0.73524	0.48277
-0.18282	-0.25695
-0.31033	0.15117
-0.15732	0.25320
-0.28482	0.22769
0.12320	0.35523
0.40372	0.12566
0.50573	-0.07840
0.55673	-0.51203
0.70974	-0.10391
0.30171	-0.02739
-0.05531	0.61031
-0.15732	0.50828
-0.23382	0.63582
-0.41233	-0.12942
-0.15732	-0.05289
0.32721	0.20219
0.68424	0.17668
0.30171	0.30422
0.65874	0.20219
0.14870	-0.05289
0.09770	0.40625
0.09770	0.02363
-0.64185	0.10015
0.25071	0.17668
0.58223	0.22769
-0.89686	-0.05289
0.91375	0.12566
0.81175	0.25320
0.32721	0.20219
0.53123	0.20219
-0.08081	0.07465
0.30171	0.15117
-0.13181	0.32972
-0.31033	0.22769
0.27621	0.15117
0.14870	0.02363
0.25071	0.04914
0.30171	0.04914
0.60773	0.27871
0.25071	0.27871
-0.13181	0.07465
-0.08081	0.12566
-0.15732	0.27871
-0.20832	0.45726
0.04670	0.25320
0.07220	0.20219
0.55673	-0.46102
0.58223	-0.46102
0.70974	0.17668
0.30171	0.25320
0.07220	0.76336
-0.18282	-0.23145
-0.23382	-0.20594
-0.33583	0.43176
-0.13181	0.58480
0.14870	0.27871
0.55673	0.17668
0.58223	0.12566
0.37822	-0.00188
0.58223	0.50828
-0.08081	0.38074
-0.69285	-0.18043
0.25071	-0.15492
0.02119	-0.07840
-0.79486	-0.02739
-0.18282	0.04914
1.39828	0.04914
0.40372	0.25320
0.63323	0.10015
1.14327	0.43176
-0.69285	0.22769
0.09770	0.04914
-0.53984	0.22769
-0.48884	0.17668
0.65874	0.25320
0.48022	0.20219
0.58223	0.10015
0.50573	0.12566
0.42922	0.22769
0.14870	0.17668
-0.10631	0.10015
-0.23382	-0.07840
-0.18282	-0.35899
-0.46334	0.17668
-0.08081	0.50828
0.37822	0.73785
0.53123	0.63582
0.63323	0.15117
0.58223	-0.63957
0.30171	-0.66508
-0.02981	-0.07840
-0.08081	0.61031
-0.18282	-0.00188
-0.38683	0.38074
0.12320	0.40625
0.30171	0.12566
0.42922	0.10015
0.45472	0.10015
0.40372	0.30422
0.22521	0.17668
0.02119	0.15117
-0.00431	0.25320
-0.10631	0.07465
-0.31033	-0.00188
-0.46334	0.25320
0.40372	0.30422
1.57679	0.20219
-0.05531	0.25320
-1.38139	0.02363
0.37822	-0.02739
0.50573	-0.05289
0.25071	0.02363
0.45472	0.40625
-0.05531	0.15117
0.17421	0.04914
0.12320	0.12566
0.50573	0.43176
0.42922	0.35523
0.45472	0.20219
0.19971	0.12566
-0.20832	0.04914
-0.33583	0.17668
-0.23382	0.40625
0.12320	0.61031
-0.71835	-0.58856
0.12320	-0.35899
0.48022	0.15117
0.58223	0.30422
0.81175	0.15117
0.40372	-0.18043
-0.00431	0.71234
0.02119	-0.05289
-0.05531	-0.10391
-0.28482	-0.41000
-0.15732	0.86539
0.40372	0.73785
0.55673	0.43176
0.48022	-0.05289
0.50573	-0.02739
0.25071	0.02363
-0.08081	0.15117
-0.10631	0.12566
-0.25932	-0.02739
-0.53984	0.22769
0.04670	-0.02739
0.73524	-0.38449
0.86275	0.22769
-1.07538	-0.00188
0.58223	0.12566
0.76074	0.35523
0.50573	0.30422
0.32721	0.15117
-1.61091	0.12566
0.12320	0.15117
-0.18282	0.17668
0.42922	0.04914
0.86275	0.27871
0.09770	0.15117
0.83725	0.20219
0.35272	0.10015
0.27621	0.17668
-0.61635	-0.10391
-0.08081	0.12566
-0.20832	0.30422
0.14870	0.27871
0.50573	0.25320
0.12320	-0.25695
0.48022	-0.00188
0.55673	0.48277
0.09770	0.58480
-0.08081	0.04914
-0.18282	-0.05289
-0.18282	0.04914
-0.28482	-0.20594
0.02119	0.25320
0.37822	0.53379
0.60773	0.45726
0.32721	-0.74160
0.55673	-0.61406
0.35272	0.43176
-0.18282	0.58480
-0.23382	0.20219
-0.10631	0.22769
-0.43783	-0.05289
-0.08081	-0.20594
0.42922	0.32972
0.58223	0.40625
0.45472	0.30422
0.50573	0.04914
0.32721	0.20219
-0.05531	-0.10391
-0.23382	-0.02739
-0.13181	-0.02739
0.17421	0.35523
-0.74385	0.17668
-0.13181	-0.07840
0.68424	0.20219
-0.20832	0.25320
0.81175	0.22769
0.93925	0.15117
-0.66735	0.20219
0.42922	-0.02739
-0.18282	0.07465
-0.13181	0.20219
0.12320	0.12566
0.35272	0.17668
0.58223	-0.05289
0.42922	-0.02739
0.55673	0.58480
0.09770	0.30422
-0.08081	0.35523
-0.15732	0.07465
-0.28482	0.10015
-0.31033	0.02363
-0.13181	-0.25695
0.30171	0.04914
0.50573	0.35523
0.45472	0.22769
0.65874	0.35523
0.27621	0.73785
0.02119	0.50828
-0.10631	-0.48652
-0.05531	-0.35899
-0.31033	-0.28246
-0.10631	0.22769
0.35272	0.38074
0.60773	0.48277
0.37822	0.25320
0.53123	-0.05289
0.17421	0.15117
-0.00431	0.22769
-0.13181	0.30422
-0.08081	-0.07840
0.02119	-0.07840
-0.05531	-0.02739
-0.31033	0.32972
0.32721	0.17668
0.53123	0.12566
1.01576	0.27871
0.50573	0.30422
-0.13181	0.27871
-0.18282	0.20219
0.12320	0.02363
0.27621	0.15117
-0.48884	0.12566
-1.25389	-0.02739
0.73524	-0.35899
0.83725	0.04914
0.07220	0.40625
0.45472	0.32972
0.19971	0.15117
-0.02981	0.17668
0.04670	-0.10391
-0.48884	0.53379
-0.13181	0.40625
0.35272	0.02363
0.48022	-0.23145
0.37822	-0.00188
0.42922	-0.18043
0.25071	0.17668
-0.05531	0.40625
-0.13181	0.35523
-0.20832	0.12566
-0.43783	0.63582
-0.08081	0.22769
0.37822	-0.28246
0.55673	-0.07840
0.37822	0.12566
0.68424	-0.23145
0.30171	0.48277
-0.00431	0.35523
-0.05531	0.50828
-0.20832	0.25320
-0.28482	0.02363
-0.08081	0.02363
0.42922	-0.05289
0.60773	0.04914
0.14870	0.15117
0.65874	0.07465
0.53123	0.02363
-0.00431	0.40625
-0.38683	0.15117
-0.38683	0.04914
0.42922	0.12566
0.55673	0.35523
-0.92237	0.25320
-0.08081	0.02363
0.81175	0.17668
0.93925	0.12566
0.63323	0.15117
0.12320	0.04914
-0.02981	0.04914
-0.20832	-0.05289
-0.28482	0.35523
-0.13181	0.22769
0.30171	0.40625
0.45472	0.27871
0.30171	-0.05289
0.53123	0.43176
0.12320	0.40625
-0.02981	-0.15492
-0.25932	-0.30797
-0.23382	0.20219
-0.31033	-0.00188
-0.02981	-0.07840
0.37822	-0.38449
0.58223	0.32972
0.55673	0.50828
0.58223	0.20219
0.40372	0.15117
-0.08081	-0.05289
-0.08081	0.43176
-0.20832	0.38074
-0.28482	0.25320
-0.15732	-0.25695
0.37822	0.27871
0.45472	0.20219
0.48022	0.12566
0.58223	0.04914
0.25071	0.17668
-0.13181	0.15117
-0.08081	0.27871
-0.02981	0.22769
-0.87136	0.12566
0.65874	-0.00188
-0.79486	-0.05289
0.93925	0.10015
0.91375	0.25320
0.17421	0.15117
0.50573	0.12566
0.09770	-0.02739
0.02119	0.25320
-0.13181	-0.07840
-0.28482	0.17668
0.02119	0.96742
0.22521	0.30422
0.32721	-0.41000
0.53123	-0.05289
0.37822	0.35523
0.73524	0.35523
-0.53984	0.17668
-0.33583	0.22769
-0.10631	0.04914
-0.38683	0.15117
0.40372	0.15117
0.30171	-0.07840
0.55673	0.02363
0.48022	0.15117
0.68424	0.35523
0.32721	0.04914
-0.08081	-0.10391
-0.25932	0.07465
-0.08081	0.66132
-0.20832	0.02363
-0.02981	-0.10391
0.53123	0.10015
0.70974	0.25320
0.40372	0.32972
0.07220	0.12566
-0.02981	0.40625
-0.38683	0.20219
-0.02981	-0.02739
0.40372	-0.20594
-0.33583	0.12566
-0.08081	0.15117
1.19427	0.20219
1.37278	0.04914
-1.12638	0.35523
0.73524	0.15117
0.14870	0.32972
-0.08081	0.12566
-0.02981	0.25320
-0.00431	0.25320
-0.10631	-0.10391
-0.00431	0.10015
0.22521	0.07465
0.55673	-0.28246
0.32721	0.22769
0.40372	0.48277
0.25071	0.86539
-0.08081	0.12566
-0.28482	-0.53754
-0.18282	-0.66508
-0.38683	0.07465
0.02119	0.45726
0.40372	0.83988
0.53123	-0.05289
0.55673	-0.15492
0.60773	0.27871
0.32721	0.32972
-0.08081	0.40625
-0.15732	0.15117
-0.15732	-0.02739
-0.33583	0.20219
-0.02981	0.32972
0.25071	0.07465
0.58223	0.04914
0.48022	0.15117
0.58223	0.15117
0.27621	0.04914
-0.18282	-0.00188
0.02119	0.12566
-0.18282	0.20219
-0.64185	0.32972
0.32721	0.17668
0.73524	0.17668
0.14870	0.22769
0.32721	0.17668
0.83725	0.17668
1.01576	0.17668
-1.20288	0.04914
-0.15732	0.22769
-0.33583	0.15117
-0.05531	0.12566
0.17421	-0.05289
0.48022	-0.10391
0.53123	0.10015
0.40372	0.40625
0.73524	0.32972
0.17421	-0.02739
-0.10631	0.15117
-0.13181	-0.35899
-0.28482	0.45726
-0.48884	0.40625
0.04670	1.24800
0.30171	0.22769
0.60773	-0.51203
0.40372	-0.25695
0.65874	0.04914
0.27621	-0.05289
-0.10631	0.02363
-0.13181	-0.07840
-0.08081	0.45726
-0.31033	0.48277
-0.02981	0.25320
0.42922	0.25320
0.60773	-0.15492
0.30171	0.20219
0.58223	0.12566
0.30171	-0.05289
-0.08081	-0.00188
-0.02981	0.32972
0.04670	0.35523
-0.56534	0.22769
-0.23382	-0.05289
0.45472	0.10015
0.37822	0.12566
0.35272	0.22769
1.14327	0.12566
0.22521	0.25320
-0.02981	0.12566
-0.05531	0.10015
-1.02437	0.20219
-0.41233	0.10015
0.55673	0.10015
1.16877	0.02363
-0.18282	0.07465
0.37822	0.30422
0.78624	0.25320
0.55673	0.45726
0.04670	-0.07840
0.04670	-0.18043
-0.13181	0.32972
-0.33583	0.22769
-0.02981	0.20219
0.30171	-0.56305
0.53123	0.02363
0.42922	0.55929
0.50573	0.35523
0.35272	0.76336
-0.13181	0.58480
-0.18282	0.20219
-0.08081	-0.38449
-0.33583	-0.46102
-0.13181	0.12566
0.37822	0.17668
0.42922	0.10015
0.58223	0.71234
0.60773	0.43176
0.22521	0.20219
0.02119	-0.00188
-0.20832	-0.07840
-0.05531	-0.00188
-0.28482	0.10015
-0.08081	0.20219
0.37822	0.15117
0.42922	0.04914
0.50573	0.04914
0.37822	0.17668
0.32721	0.15117
0.17421	0.30422
0.02119	0.17668
0.12320	0.20219
-0.97337	0.25320
-0.20832	0.07465
0.45472	0.10015
0.65874	0.22769
0.83725	0.22769
0.73524	0.12566
0.63323	-0.18043
0.27621	0.22769
-0.74385	0.32972
-0.25932	0.20219
-0.43783	-0.15492
0.12320	-0.02739
0.40372	-0.02739
0.45472	-0.05289
0.58223	0.76336
0.60773	0.50828
0.32721	0.38074
-0.02981	-0.05289
-0.15732	0.15117
-0.23382	-0.10391
-0.38683	-0.05289
-0.02981	0.22769
0.35272	-0.38449
0.50573	0.04914
0.58223	0.32972
0.55673	0.30422
0.35272	0.17668
-0.15732	0.27871
-0.10631	0.35523
-0.10631	0.27871
-0.41233	-0.02739
-0.08081	-0.23145
0.32721	0.17668
0.53123	0.32972
0.60773	0.35523
0.55673	0.12566
0.37822	0.17668
0.04670	0.17668
-0.33583	0.07465
-0.05531	0.07465
-0.46334	0.04914
-0.99887	0.10015
0.07220	0.07465
0.73524	0.15117
0.60773	0.30422
0.73524	0.12566
0.63323	-0.00188
-0.05531	0.04914
-0.00431	0.22769
0.22521	0.15117
-0.51434	0.15117
-0.15732	0.02363
0.22521	0.22769
0.48022	0.61031
0.45472	-0.12942
0.50573	0.04914
0.25071	0.45726
0.02119	0.17668
-0.15732	0.25320
-0.13181	0.04914
-0.23382	-0.05289
-0.02981	0.10015
0.30171	0.04914
0.70974	0.30422
0.35272	0.76336
0.25071	-0.86914
0.27621	-0.86914
-0.02981	-0.28246
-0.05531	0.94191
-0.08081	0.86539
-0.33583	0.55929
0.02119	0.25320
0.42922	0.04914
0.37822	-0.30797
0.91375	0.17668
1.24527	0.12566
-1.20288	0.10015
-0.08081	0.12566
-0.56534	-0.02739
0.07220	0.22769
-0.00431	0.12566
0.30171	-0.02739
0.50573	0.15117
0.93925	0.20219
0.19971	0.27871
0.32721	0.22769
0.25071	0.20219
-0.08081	0.32972
0.12320	-0.00188
-0.13181	0.20219
0.02119	0.15117
-0.25932	-0.02739
0.27621	0.17668
0.40372	0.12566
0.32721	0.32972
0.35272	-0.15492
-0.02981	-0.05289
-0.15732	0.15117
-0.15732	0.27871
-0.00431	0.35523
-0.33583	0.27871
0.09770	0.12566
0.45472	0.45726
0.63323	-0.18043
0.58223	-0.25695
0.58223	-0.07840
0.40372	0.55929
-0.08081	0.43176
-0.18282	0.30422
-0.15732	0.07465
-0.48884	0.12566
-0.10631	0.30422
0.27621	0.30422
0.48022	-0.00188
0.42922	0.12566
0.53123	-0.02739
0.37822	0.07465
-0.08081	0.38074
-0.25932	0.40625
-0.15732	-0.66508
-0.23382	-0.41000
-0.10631	0.35523
0.30171	0.38074
0.76074	0.48277
0.60773	0.35523
0.99026	0.20219
0.02119	0.30422
-0.76936	0.27871
-0.31033	0.12566
-0.08081	0.07465
0.35272	0.04914
0.12320	-0.00188
0.14870	-0.00188
0.55673	-0.07840
0.88825	0.25320
0.60773	0.12566
0.32721	0.22769
-0.02981	0.22769
-0.31033	0.04914
-0.33583	0.04914
-0.33583	0.12566
-0.10631	0.17668
0.17421	0.10015
0.42922	0.30422
0.45472	0.02363
0.65874	-0.02739
0.37822	0.32972
-0.08081	0.15117
-0.10631	0.32972
-0.08081	-0.35899
-0.25932	0.10015
-0.00431	0.35523
0.27621	0.43176
0.55673	0.22769
0.50573	0.22769
0.70974	-0.05289
0.30171	0.17668
-0.02981	0.20219
-0.25932	0.30422
-0.13181	0.07465
-0.36133	-0.05289
-0.18282	-0.25695
0.22521	0.04914
0.50573	0.15117
0.78624	0.15117
0.53123	0.12566
0.27621	0.32972
-0.43783	0.27871
-0.15732	0.17668
0.32721	0.04914
-0.25932	0.25320
-0.10631	0.12566
0.17421	0.20219
0.12320	0.22769
0.68424	0.15117
0.88825	0.17668
0.65874	0.10015
0.09770	0.04914
-0.25932	0.25320
-0.28482	0.20219
-0.02981	-0.18043
-0.20832	-0.30797
0.19971	0.27871
0.50573	0.40625
0.32721	0.40625
0.73524	0.15117
0.53123	0.07465
-0.08081	0.25320
-0.28482	0.38074
-0.23382	0.04914
-0.38683	-0.23145
-0.08081	0.04914
0.27621	0.58480
0.50573	-0.00188
0.53123	0.07465
0.73524	0.04914
0.35272	-0.20594
-0.08081	-0.18043
-0.15732	0.35523
-0.05531	0.58480
-0.36133	0.07465
-0.13181	0.32972
0.30171	-0.23145
0.63323	0.43176
0.42922	0.76336
0.76074	0.40625
0.86275	-0.15492
-0.00431	-0.25695
-1.43240	-0.12942
0.17421	0.04914
-0.15732	0.10015
-0.25932	0.40625
0.73524	-0.02739
0.68424	-0.18043
0.63323	-0.05289
0.55673	0.22769
0.42922	0.55929
0.35272	0.40625
-0.46334	0.10015
-0.31033	0.25320
-0.08081	0.27871
-0.84586	0.15117
0.45472	-0.02739
0.50573	0.12566
0.78624	0.32972
0.81175	0.12566
-0.82036	0.02363
0.22521	0.15117
0.12320	-0.07840
-0.10631	-0.02739
-0.28482	0.22769
0.04670	0.27871
0.32721	0.20219
0.53123	0.53379
0.37822	-0.41000
0.55673	-0.25695
0.30171	0.99292
-0.08081	-0.02739
-0.18282	-0.53754
-0.20832	0.20219
-0.41233	0.38074
-0.00431	0.38074
0.35272	0.04914
0.50573	0.30422
0.53123	0.53379
0.55673	0.04914
0.32721	0.10015
-0.08081	0.27871
-0.23382	0.02363
-0.10631	0.10015
-0.28482	-0.23145
0.09770	0.32972
-0.08081	0.32972
0.48022	0.12566
0.55673	0.15117
0.58223	0.04914
0.63323	0.17668
0.02119	0.25320
0.14870	0.15117
0.27621	0.12566
-2.37596	-0.00188
-0.92237	-0.02739
0.60773	0.15117
1.27078	0.30422
0.68424	0.17668
0.93925	0.20219
0.32721	0.35523
-0.15732	0.04914
-0.25932	-0.07840
-0.38683	0.04914
-0.33583	0.15117
0.04670	0.35523
0.35272	0.15117
0.37822	0.53379
0.48022	0.22769
0.55673	-0.30797
0.35272	-0.58856
-0.02981	-0.00188
-0.23382	0.35523
-0.13181	0.45726
-0.23382	1.27351
-0.15732	0.45726
0.32721	-0.48652
0.48022	-0.69059
0.42922	-0.20594
0.63323	0.17668
0.37822	0.40625
-0.08081	0.30422
-0.15732	0.30422
-0.08081	0.25320
-0.43783	0.20219
0.04670	0.10015
0.27621	0.12566
0.53123	-0.15492
0.50573	0.15117
0.83725	0.25320
0.53123	0.04914
-0.53984	-0.00188
-0.08081	0.15117
-0.20832	0.55929
-0.20832	0.25320
0.48022	0.07465
0.88825	-0.00188
0.12320	0.20219
-0.48884	-0.02739
0.81175	-0.20594
0.37822	0.35523
0.25071	0.38074
0.07220	0.10015
0.37822	-0.00188
-0.25932	0.02363
-0.28482	-0.07840
-0.05531	0.07465
0.30171	0.50828
0.93925	0.15117
0.42922	0.30422
0.19971	0.15117
-0.05531	0.15117
-0.13181	-0.35899
-0.13181	0.15117
-0.33583	0.45726
-0.18282	0.45726
0.32721	0.71234
0.53123	0.04914
0.37822	-0.58856
0.63323	-0.61406
0.32721	0.25320
-0.02981	0.53379
-0.10631	0.38074
-0.13181	0.35523
-0.31033	0.43176
-0.08081	-0.15492
0.40372	0.04914
0.45472	0.04914
0.30171	0.22769
0.63323	0.25320
0.32721	-0.86914
-0.05531	-0.00188
-0.10631	0.71234
-0.53984	0.76336
-0.53984	0.48277
-0.00431	0.12566
0.50573	-0.05289
0.73524	-0.10391
0.22521	0.04914
0.32721	-0.00188
0.70974	0.15117
0.76074	0.10015
-0.94787	0.30422
0.27621	0.22769
-1.55991	0.12566
0.27621	0.27871
0.55673	0.12566
0.81175	0.02363
1.16877	-0.05289
0.86275	0.17668
0.27621	0.35523
-0.08081	0.35523
0.04670	0.30422
-0.33583	-0.00188
-0.53984	0.04914
-0.23382	0.02363
0.22521	-0.00188
0.40372	0.27871
0.25071	0.50828
0.53123	0.17668
0.40372	-0.00188
0.04670	-0.46102
-0.08081	-0.12942
-0.08081	-0.05289
-0.31033	0.20219
0.07220	0.30422
0.48022	0.71234
0.50573	0.43176
0.55673	0.25320
0.19971	0.07465
0.42922	0.07465
-0.36133	0.17668
-0.61635	0.04914
-0.20832	0.25320
0.12320	0.04914
0.58223	-0.00188
-0.18282	0.02363
-0.02981	0.10015
0.70974	0.15117
0.86275	0.04914
0.37822	0.04914
0.35272	0.25320
-0.82036	0.12566
-0.08081	0.15117
-0.20832	0.25320
-0.36133	0.15117
0.30171	0.20219
0.53123	0.02363
0.68424	0.35523
0.55673	-0.00188
0.09770	-0.23145
0.07220	0.25320
-0.41233	0.35523
-0.20832	0.15117
-0.36133	0.12566
-0.00431	0.10015
0.37822	0.25320
0.40372	0.45726
0.40372	-0.10391
0.73524	-0.02739
0.27621	0.45726
-0.18282	0.22769
-0.02981	-0.69059
0.02119	-0.20594
-0.59084	0.76336
-0.05531	0.63582
0.40372	0.25320
0.86275	-0.05289
0.37822	-0.12942
0.42922	-0.02739
0.53123	0.40625
-0.25932	-0.02739
-0.08081	-0.10391
0.09770	0.04914
-0.66735	0.30422
0.02119	0.35523
0.14870	0.25320
0.83725	0.25320
1.09226	0.02363
0.27621	0.22769
-0.18282	0.12566
0.12320	0.15117
0.37822	0.32972
0.25071	0.20219
-0.53984	-0.00188
-0.00431	0.10015
1.93382	0.15117
-3.03900	-0.23145
-0.31033	0.15117
0.78624	0.25320
0.73524	0.17668
0.32721	0.15117
0.27621	-0.00188
0.17421	0.15117
-0.08081	0.20219
0.22521	0.30422
0.12320	0.38074
0.40372	0.22769
0.42922	-0.10391
0.55673	0.17668
0.22521	0.45726
-0.13181	0.02363
-0.28482	-0.25695
-0.18282	0.15117
-0.46334	0.58480
-0.20832	0.17668
0.30171	-0.46102
0.60773	-0.41000
0.45472	0.15117
0.55673	0.40625
0.42922	0.45726
0.04670	0.50828
-0.13181	0.50828
-0.05531	-0.05289
-0.18282	-0.07840
0.12320	0.04914
0.70974	0.32972
-0.48884	0.22769
-0.94787	0.15117
0.88825	0.07465
0.60773	0.25320
0.12320	-0.05289
0.09770	-0.05289
0.07220	-0.02739
-0.13181	0.25320
-0.15732	0.35523
0.22521	0.15117
0.65874	-0.07840
-0.23382	0.15117
0.73524	0.12566
0.37822	0.30422
-0.25932	0.27871
-0.10631	0.17668
-0.02981	0.12566
-0.23382	0.17668
-0.20832	0.15117
0.35272	0.07465
0.58223	-0.05289
0.40372	-0.28246
0.70974	0.30422
0.40372	0.30422
-0.36133	0.07465
-0.10631	-0.46102
-0.15732	0.35523
-0.38683	0.78886
0.04670	1.14597
0.32721	0.35523
0.53123	-0.07840
0.48022	-0.43551
0.55673	-0.15492
0.37822	-0.18043
-0.02981	0.22769
-0.25932	-0.15492
-0.13181	0.07465
-0.43783	0.35523
-0.02981	0.12566
0.32721	0.20219
0.40372	-0.05289
0.53123	0.86539
0.65874	0.20219
0.35272	-0.12942
-0.05531	0.17668
-0.20832	0.32972
-0.13181	-0.02739
-0.25932	0.17668
-0.08081	0.15117
0.73524	0.10015
1.11776	0.20219
-0.69285	0.22769
-0.48884	0.17668
0.63323	0.04914
0.37822	0.12566
0.30171	0.07465
0.09770	-0.05289
-0.23382	0.15117
-0.31033	0.07465
0.27621	0.04914
0.73524	0.20219
0.32721	0.27871
0.40372	0.17668
0.12320	0.25320
-0.05531	0.53379
-0.23382	-0.05289
-0.38683	-0.10391
-0.41233	0.12566
0.02119	0.35523
0.35272	0.12566
0.53123	0.66132
0.50573	-0.30797
0.55673	-0.56305
0.35272	-0.07840
0.02119	0.35523
-0.08081	0.89089
-0.08081	0.38074
-0.13181	0.20219
-0.13181	-0.20594
0.07220	0.10015
0.63323	0.27871
0.58223	0.10015
0.86275	-0.41000
0.37822	-0.25695
0.04670	0.27871
-0.31033	0.25320
-0.23382	0.35523
-0.38683	0.25320
0.04670	0.04914
0.30171	0.04914
0.53123	0.02363
0.58223	0.30422
0.60773	0.22769
-0.05531	0.04914
0.25071	-0.02739
-0.18282	0.17668
-0.38683	0.20219
0.12320	0.25320
0.07220	0.30422
-0.46334	0.15117
0.19971	0.12566
0.68424	-0.02739
0.91375	0.07465
0.55673	0.15117
0.32721	0.20219
0.27621	0.22769
-1.07538	0.25320
-0.23382	-0.05289
0.04670	-0.02739
0.30171	-0.30797
0.58223	-0.18043
0.53123	0.20219
0.60773	0.45726
0.27621	0.61031
0.02119	0.45726
-0.18282	0.27871
-0.10631	0.10015
-0.41233	-0.30797
-0.18282	0.02363
0.25071	0.17668
0.50573	0.38074
0.53123	0.20219
0.53123	-0.30797
0.37822	0.15117
0.02119	0.55929
-0.18282	0.30422
-0.13181	0.17668
-0.31033	0.17668
-0.05531	-0.02739
0.09770	0.15117
0.65874	0.04914
0.96476	0.04914
0.07220	0.22769
0.07220	0.30422
-0.05531	0.17668
0.14870	0.04914
0.02119	0.17668
-0.02981	0.25320
-0.48884	-0.02739
-0.10631	0.12566
0.37822	0.17668
0.55673	0.17668
0.81175	0.15117
0.63323	0.27871
0.09770	0.12566
0.04670	-0.05289
-0.02981	0.15117
-0.64185	0.15117
-0.23382	0.20219
0.27621	0.32972
0.48022	-0.28246
0.42922	-0.20594
0.73524	0.15117
0.35272	0.83988
-0.10631	0.63582
-0.25932	-0.30797
-0.08081	-0.61406
-0.43783	0.32972
-0.10631	0.20219
0.37822	0.61031
0.45472	0.30422
0.48022	-0.10391
0.58223	-0.10391
0.42922	0.32972
-0.08081	-0.02739
-0.15732	-0.10391
-0.02981	0.10015
-0.38683	0.35523
-0.15732	0.25320
0.37822	0.15117
0.73524	0.25320
0.40372	0.02363
0.55673	0.22769
0.73524	0.40625
0.22521	0.10015
-1.71292	0.02363
-0.02981	0.04914
0.22521	0.15117
-0.20832	0.12566
0.50573	0.04914
0.60773	0.12566
1.14327	0.15117
0.68424	0.10015
0.07220	0.27871
-0.71835	0.20219
0.09770	0.12566
-0.05531	0.17668
-0.18282	0.07465
-0.05531	0.04914
0.63323	0.22769
0.50573	0.20219
0.02119	0.22769
0.55673	0.12566
-0.05531	0.17668
0.58223	0.43176
0.04670	0.04914
-0.51434	0.04914
-0.38683	-0.05289
-0.00431	0.17668
0.50573	0.32972
0.60773	-0.20594
0.42922	-0.15492
0.68424	0.53379
0.40372	0.53379
-0.13181	0.17668
-0.20832	0.02363
-0.20832	0.50828
-0.41233	0.04914
-0.08081	-0.71609
0.35272	-0.30797
0.53123	0.32972
0.40372	0.10015
0.65874	0.25320
0.32721	0.71234
-0.08081	0.71234
-0.05531	0.32972
0.02119	0.20219
-0.53984	-0.02739
-0.20832	-0.15492
0.37822	-0.10391
0.73524	0.02363
0.04670	0.20219
0.78624	0.07465
0.42922	0.10015
0.14870	0.20219
-0.18282	0.04914
-1.10088	0.07465
-0.02981	0.30422
0.35272	0.10015
0.70974	0.10015
-0.25932	0.07465
0.42922	0.32972
0.55673	0.22769
0.02119	0.10015
0.14870	0.12566
-0.13181	0.12566
-0.02981	0.12566
-0.25932	0.17668
-0.02981	0.38074
0.27621	-0.05289
0.55673	0.25320
0.55673	-0.28246
0.58223	-0.41000
0.32721	0.30422
-0.13181	0.66132
-0.33583	0.45726
-0.15732	0.58480
-0.48884	0.17668
-0.10631	-0.10391
0.42922	-0.00188
0.55673	-0.00188
0.53123	0.10015
0.73524	-0.02739
0.35272	-0.41000
-0.08081	0.02363
-0.10631	0.25320
-0.05531	0.71234
-0.41233	0.55929
-0.05531	0.25320
0.27621	0.22769
0.53123	-0.02739
0.53123	-0.02739
0.45472	0.17668
0.40372	0.27871
0.07220	0.25320
-0.10631	-0.15492
-0.25932	-0.07840
-0.36133	0.17668
-0.05531	-0.02739
0.07220	-0.00188
0.99026	0.12566
0.19971	0.25320
0.35272	0.17668
0.58223	0.35523
-0.25932	0.20219
0.35272	0.22769
-0.38683	0.20219
-0.41233	0.15117
0.30171	0.15117
0.99026	0.07465
-0.53984	0.25320
0.32721	0.12566
0.96476	0.17668
0.30171	0.32972
0.17421	0.04914
-0.00431	-0.15492
-0.18282	0.04914
-0.41233	0.07465
-0.13181	-0.00188
0.30171	-0.10391
0.48022	0.45726
0.48022	-0.43551
0.55673	1.06945
0.35272	0.91640
0.07220	0.50828
-0.18282	-0.10391
-0.18282	-0.23145
-0.41233	0.02363
-0.05531	0.07465
0.25071	-0.25695
0.53123	-0.56305
0.58223	-0.25695
0.55673	0.25320
0.30171	0.55929
-0.08081	0.58480
-0.13181	0.50828
-0.05531	0.17668
-0.38683	0.07465
-0.02981	0.20219
0.37822	0.38074
0.35272	-0.00188
0.50573	0.04914
0.50573	-0.25695
0.60773	-0.05289
0.09770	0.38074
0.02119	0.32972
-0.64185	0.15117
-0.23382	0.12566
0.35272	0.25320
-0.53984	0.02363
-0.05531	0.10015
0.35272	0.12566
1.09226	0.12566
0.55673	0.15117
0.17421	0.20219
-0.15732	0.20219
-0.08081	0.22769
-0.20832	0.17668
-0.20832	-0.15492
0.35272	-0.20594
0.32721	-0.00188
0.42922	0.43176
0.76074	0.71234
-0.25932	0.15117
-0.10631	-0.25695
-0.20832	0.12566
-0.18282	0.55929
-0.28482	0.53379
-0.00431	0.32972
0.37822	-0.18043
0.65874	0.15117
0.42922	-0.12942
0.60773	-0.56305
0.40372	0.38074
-0.08081	0.40625
-0.08081	0.27871
-0.10631	0.04914
-0.38683	0.02363
-0.13181	0.20219
0.17421	0.17668
0.58223	0.07465
0.53123	0.35523
0.48022	0.20219
0.32721	0.04914
-0.02981	0.15117
-0.20832	0.07465
-0.02981	0.10015
-0.33583	0.15117
-0.41233	0.10015
0.32721	0.15117
0.50573	0.20219
0.42922	0.15117
0.70974	0.10015
0.32721	0.25320
-0.05531	0.22769
-0.08081	0.02363
0.04670	0.25320
0.07220	0.22769
-0.43783	0.04914
0.35272	0.10015
0.14870	-0.00188
0.45472	0.35523
0.76074	0.20219
0.30171	-0.05289
0.02119	0.07465
0.04670	0.27871
0.02119	0.17668
-0.05531	0.12566
-0.38683	0.35523
0.17421	0.12566
0.37822	-0.30797
0.65874	0.02363
0.83725	0.07465
0.32721	0.61031
0.17421	0.71234
-0.15732	0.07465
-0.20832	-0.18043
-0.31033	-0.10391
-0.25932	0.02363
0.35272	-0.00188
0.32721	0.12566
-0.00431	0.10015
0.63323	-0.07840
0.35272	0.25320
0.12320	0.20219
0.17421	0.25320
0.25071	0.30422
-1.55991	0.22769
0.27621	0.30422
0.53123	-0.05289
1.11776	0.12566
0.42922	0.22769
0.76074	-0.02739
0.19971	0.04914
-0.13181	0.22769
0.17421	0.12566
0.07220	0.04914
-0.15732	0.10015
-0.13181	0.04914
0.32721	0.17668
0.65874	0.10015
0.12320	0.17668
0.53123	-0.05289
0.35272	0.35523
0.02119	0.25320
-0.25932	-0.07840
-0.25932	-0.10391
-0.28482	0.35523
-0.15732	-0.10391
0.30171	0.15117
0.50573	0.45726
0.50573	0.53379
0.60773	-0.25695
0.37822	-0.41000
0.02119	0.20219
-0.10631	0.32972
-0.00431	0.45726
-0.33583	0.04914
-0.08081	0.10015
0.40372	0.12566
0.63323	0.27871
0.35272	0.22769
0.53123	-0.00188
0.32721	0.10015
-0.13181	0.07465
-0.18282	-0.00188
0.07220	0.25320
-0.20832	0.30422
-0.74385	0.32972
0.30171	-0.07840
0.63323	-0.12942
0.65874	0.02363
1.09226	0.32972
0.48022	0.35523
0.09770	0.30422
-1.40690	0.17668
-0.31033	0.15117
-0.10631	0.27871
0.32721	0.07465
0.40372	-0.02739
0.91375	0.25320
0.63323	-0.02739
0.27621	0.15117
0.02119	0.35523
-0.02981	0.22769
0.12320	-0.00188
-0.38683	-0.05289
-0.31033	0.17668
0.02119	0.20219
0.40372	-0.05289
0.88825	0.35523
0.30171	0.35523
0.40372	0.50828
0.12320	0.07465
-0.02981	-0.20594
-0.00431	-0.02739
-0.20832	-0.00188
-0.46334	-0.43551
-0.05531	0.15117
0.32721	0.50828
0.50573	0.66132
0.45472	0.17668
0.65874	0.07465
0.30171	0.32972
0.02119	0.15117
-0.10631	-0.05289
-0.18282	-0.00188
-0.25932	0.40625
-0.18282	0.15117
0.45472	0.07465
0.78624	0.12566
-0.02981	0.22769
0.40372	0.22769
0.60773	0.02363
0.17421	-0.05289
0.45472	0.20219
0.35272	0.25320
-0.79486	0.22769
-1.27939	0.12566
0.60773	0.22769
0.76074	0.12566
0.76074	0.10015
0.93925	0.30422
0.19971	0.25320
0.22521	0.15117
-0.05531	0.22769
-0.08081	0.02363
-0.31033	0.12566
-0.25932	0.04914
0.22521	0.10015
