0.60773	0.30422
0.32721	0.22769
-0.00431	0.15117
-0.18282	0.22769
-0.20832	0.35523
-0.13181	-0.00188
-0.20832	-0.07840
0.09770	0.12566
0.53123	0.89089
0.60773	0.61031
0.50573	-0.00188
0.58223	-0.53754
0.12320	-1.07320
-0.20832	-0.07840
-0.28482	0.83988
-0.28482	0.55929
-0.28482	0.45726
0.19971	0.32972
0.55673	-0.15492
0.42922	0.10015
0.50573	0.43176
0.55673	0.02363
-0.00431	0.55929
-0.23382	0.40625
-0.13181	0.48277
0.12320	-0.15492
-0.13181	-0.30797
0.25071	-0.33348
0.37822	-0.07840
-0.25932	0.35523
-0.02981	0.27871
0.86275	-0.02739
0.60773	-0.63957
0.40372	-0.07840
-0.48884	0.89089
0.50573	0.66132
-0.74385	0.71234
0.63323	0.53379
1.16877	-0.15492
2.85188	0.04914
-1.33039	0.20219
1.01576	-0.15492
-0.53984	0.32972
0.78624	0.53379
-0.00431	0.22769
-0.13181	-0.33348
0.30171	-0.48652
2.21434	0.04914
-1.17738	-0.51203
0.07220	0.17668
0.68424	0.76336
0.86275	1.06945
0.63323	0.68683
-0.53984	-0.15492
-0.31033	0.12566
-0.74385	0.15117
-1.50890	-0.53754
-0.25932	-0.07840
0.91375	0.30422
0.76074	-0.15492
0.09770	-0.00188
0.53123	0.89089
2.13783	0.50828
-0.99887	-0.25695
-0.33583	0.50828
-1.22839	0.04914
-0.33583	0.27871
0.91375	-0.86914
2.41835	0.07465
0.12320	-0.07840
-2.42696	0.45726
1.29628	0.50828
0.19971	0.55929
1.70430	0.40625
0.48022	0.32972
-1.35589	-0.23145
-1.45790	-0.43551
-0.51434	0.68683
1.09226	0.32972
2.85188	-0.35899
0.93925	0.12566
1.01576	0.45726
0.73524	0.43176
0.32721	-0.46102
0.04670	0.04914
-0.48884	0.38074
-0.66735	0.15117
-0.15732	-0.00188
-0.08081	-0.18043
0.27621	-0.07840
0.73524	0.35523
0.60773	0.91640
-0.53984	0.61031
-0.28482	-0.15492
-0.23382	-0.28246
-0.23382	-0.30797
-0.23382	-0.76711
0.30171	-0.18043
0.81175	0.73785
0.93925	0.55929
0.50573	0.38074
0.68424	0.81437
0.73524	-0.30797
-2.52897	0.27871
0.58223	0.17668
-0.08081	-0.38449
0.04670	-0.30797
0.50573	0.73785
0.27621	0.71234
0.40372	-0.15492
0.35272	0.17668
0.45472	-0.43551
-0.00431	0.61031
-0.48884	0.76336
0.25071	0.38074
0.32721	-0.38449
-1.61091	0.38074
-1.10088	0.15117
1.14327	0.45726
0.88825	-0.63957
0.55673	0.20219
0.32721	-0.48652
0.60773	0.53379
0.63323	0.66132
-1.91693	-0.25695
-0.20832	0.27871
0.53123	0.27871
0.55673	0.35523
2.31634	0.22769
1.95932	-0.05289
-4.16107	0.07465
-0.08081	-0.38449
0.14870	0.22769
0.19971	0.12566
0.73524	0.86539
0.48022	0.25320
1.52579	0.22769
0.63323	0.32972
0.55673	-0.02739
0.55673	0.15117
0.02119	-0.23145
0.04670	0.50828
-0.20832	0.07465
-0.15732	0.27871
-0.71835	0.07465
-0.64185	0.15117
-0.28482	-0.56305
-0.00431	-0.00188
0.63323	0.43176
0.70974	-0.66508
1.04126	-0.89465
0.99026	0.73785
-1.20288	1.73265
0.19971	0.66132
0.12320	0.07465
-0.02981	-0.02739
-0.00431	-0.20594
0.12320	0.35523
0.50573	0.12566
0.55673	0.45726
0.50573	-0.84363
0.55673	-0.18043
0.12320	-0.05289
-0.05531	0.78886
-1.02437	0.55929
0.83725	0.35523
0.30171	0.20219
0.50573	0.22769
0.22521	-0.35899
-0.53984	-0.00188
0.99026	0.22769
1.16877	-0.02739
-0.99887	-0.51203
-0.25932	0.55929
-0.13181	0.48277
-1.17738	0.07465
0.42922	-0.25695
0.96476	0.45726
1.83181	0.35523
1.34728	-0.51203
0.02119	-0.00188
0.68424	0.99292
0.32721	0.71234
-0.05531	0.63582
-0.15732	0.55929
-0.48884	-0.56305
-0.28482	-1.45582
-2.29945	-0.76711
-0.48884	0.83988
0.53123	0.61031
0.60773	1.17148
0.53123	0.50828
0.19971	0.40625
0.17421	-0.56305
-0.00431	-0.86914
-0.08081	0.27871
-0.05531	0.43176
0.19971	-0.02739
0.53123	0.81437
0.68424	-0.25695
0.58223	-1.35379
0.48022	-0.25695
0.12320	0.96742
-0.08081	0.78886
-0.33583	0.61031
-0.31033	0.35523
-0.46334	0.25320
-0.10631	0.10015
0.60773	-0.05289
0.58223	0.20219
0.27621	0.30422
0.70974	0.30422
1.29628	-0.12942
1.83181	-0.61406
-4.39059	0.50828
0.27621	0.58480
-1.33039	-0.07840
0.07220	-0.30797
3.56592	-0.10391
-1.30489	0.27871
1.29628	0.50828
2.87738	0.38074
-2.73298	0.25320
-0.46334	0.86539
-0.41233	0.53379
0.78624	-0.46102
0.60773	-2.29757
1.06676	0.04914
0.45472	0.86539
-1.27939	0.73785
0.53123	0.86539
0.55673	0.50828
-0.00431	0.25320
-0.20832	-0.07840
-0.53984	0.20219
-0.33583	0.04914
-0.08081	0.12566
0.14870	-0.58856
0.45472	-0.79262
0.42922	-0.00188
0.55673	0.96742
0.53123	1.14597
0.12320	1.04394
-0.00431	0.15117
-0.13181	-1.09871
-0.31033	-1.50683
-0.28482	0.30422
0.22521	1.55410
0.60773	0.68683
0.70974	-0.33348
0.42922	-0.10391
0.37822	0.25320
0.37822	0.61031
0.17421	0.35523
-0.20832	0.15117
-0.13181	0.04914
-0.38683	-0.15492
-0.28482	-0.25695
1.01576	0.45726
0.78624	0.15117
-0.76936	0.53379
0.25071	-0.02739
0.02119	-0.05289
0.45472	-0.30797
0.14870	0.53379
0.12320	0.58480
0.30171	0.07465
0.99026	-0.12942
-2.12094	-0.05289
0.12320	0.15117
0.50573	0.45726
0.83725	0.22769
0.83725	-0.15492
-2.14644	-0.61406
-0.59084	0.48277
-0.64185	0.43176
-0.10631	0.10015
0.42922	0.22769
0.32721	0.53379
0.65874	0.04914
0.99026	0.27871
0.83725	0.22769
0.22521	0.35523
0.07220	-0.46102
-0.36133	0.58480
-0.94787	0.22769
0.96476	0.12566
0.17421	-0.35899
0.68424	-0.15492
-2.35046	0.45726
0.91375	0.20219
1.42379	0.55929
-0.00431	-0.05289
-0.36133	-0.02739
-0.00431	-0.38449
-0.36133	0.40625
0.25071	0.04914
0.35272	0.58480
0.53123	0.66132
0.76074	0.12566
0.48022	-0.25695
0.48022	-0.58856
-0.00431	0.02363
-0.10631	0.63582
-0.28482	0.20219
-0.84586	0.30422
-0.05531	0.91640
0.14870	0.66132
0.53123	-0.00188
0.50573	-0.05289
0.48022	-0.35899
0.30171	0.38074
0.12320	-0.15492
0.83725	0.04914
-0.82036	0.30422
-0.94787	0.45726
-0.02981	-0.43551
1.88281	-0.23145
0.04670	0.48277
1.34728	0.35523
0.02119	0.12566
0.93925	0.25320
-0.79486	0.53379
0.42922	0.63582
0.73524	0.07465
-0.25932	-0.23145
-1.66191	-0.28246
0.37822	-0.15492
0.93925	0.43176
-0.23382	0.15117
0.60773	0.25320
0.73524	0.10015
0.04670	0.27871
-0.69285	0.30422
0.02119	0.15117
-0.08081	-0.18043
-0.08081	-0.28246
0.04670	0.32972
0.07220	0.78886
0.32721	-0.00188
0.78624	0.20219
0.60773	0.35523
0.30171	0.58480
-0.13181	-0.38449
-0.10631	-1.25176
-0.23382	0.35523
-0.25932	0.45726
0.14870	0.25320
0.27621	0.48277
0.58223	0.58480
0.58223	0.71234
0.50573	-0.38449
0.22521	-0.53754
-0.18282	-0.30797
-0.18282	0.66132
-0.38683	0.43176
-0.69285	-0.48652
0.53123	0.07465
1.24527	0.45726
-0.31033	0.35523
0.53123	-0.15492
1.70430	0.76336
1.60230	0.30422
-1.68742	0.12566
-0.33583	-0.05289
-1.40690	0.35523
0.07220	-0.23145
0.99026	-0.05289
0.27621	0.30422
2.39285	0.66132
1.01576	0.20219
-0.02981	-0.07840
-0.08081	-0.41000
0.04670	0.04914
0.32721	0.58480
-2.32496	0.25320
-0.79486	0.07465
0.02119	0.12566
0.40372	-0.15492
0.40372	-0.18043
0.37822	0.04914
0.53123	0.17668
0.35272	0.20219
-0.15732	0.48277
-0.08081	0.86539
-0.05531	0.71234
-0.08081	-1.04770
-0.02981	-0.46102
0.48022	0.53379
0.63323	0.94191
0.70974	-0.07840
0.40372	0.15117
0.12320	0.32972
-0.18282	-0.35899
-0.18282	0.45726
-0.13181	0.35523
-0.20832	0.20219
0.09770	-0.07840
0.70974	0.10015
0.86275	0.48277
-0.15732	-0.76711
0.37822	-0.53754
0.19971	0.27871
0.35272	0.58480
-0.48884	0.61031
-1.35589	0.45726
-0.41233	0.63582
0.53123	-0.35899
0.48022	0.12566
0.86275	-0.05289
1.88281	-0.12942
-0.10631	0.25320
0.68424	0.38074
-2.04444	-0.10391
-0.79486	0.58480
0.12320	0.61031
0.14870	0.32972
0.50573	-0.10391
0.42922	-0.66508
0.68424	-0.92016
1.65330	0.50828
0.14870	0.38074
-0.28482	0.45726
-0.56534	0.45726
-0.08081	0.38074
-0.00431	0.20219
-0.08081	-0.10391
-0.10631	-0.05289
0.37822	0.22769
0.50573	-0.23145
0.58223	-0.15492
0.48022	0.30422
0.12320	0.40625
-0.18282	0.66132
-0.23382	0.45726
-0.28482	-0.53754
-0.53984	-0.53754
-0.05531	-0.00188
0.58223	-0.10391
0.55673	0.43176
0.58223	0.78886
0.76074	0.55929
0.58223	-0.18043
0.30171	0.53379
-0.99887	0.50828
-0.48884	-0.25695
-0.15732	-0.07840
0.37822	-0.05289
0.53123	-0.23145
0.81175	0.35523
0.99026	0.48277
0.68424	-0.20594
0.60773	0.10015
-0.94787	0.07465
-0.20832	0.66132
0.27621	0.55929
-0.00431	-0.33348
0.14870	0.07465
0.53123	0.27871
1.29628	0.20219
1.42379	0.04914
-2.01894	0.55929
-0.31033	-0.00188
-0.00431	-0.46102
-0.02981	-0.56305
-0.28482	0.22769
-0.08081	0.63582
0.30171	0.38074
0.45472	0.53379
0.25071	-0.15492
0.65874	-0.46102
0.99026	0.66132
-0.41233	0.32972
-0.23382	0.15117
-0.13181	0.15117
-0.31033	0.17668
-0.02981	0.32972
0.30171	0.15117
0.73524	-0.30797
-0.89686	-0.56305
0.45472	0.15117
0.53123	0.73785
0.83725	0.25320
-0.02981	-0.25695
-0.66735	-0.23145
-0.13181	0.17668
-0.05531	0.22769
0.22521	0.32972
0.45472	0.58480
0.78624	0.20219
0.27621	0.35523
0.02119	0.78886
0.63323	0.43176
-0.00431	-0.12942
0.04670	-0.74160
-0.25932	-0.43551
-1.35589	-0.00188
0.63323	0.27871
0.48022	0.55929
0.93925	0.00000
0.81175	0.38074
0.63323	0.63582
0.12320	0.20219
-0.66735	-0.81812
-0.20832	-0.38449
-0.18282	0.17668
-0.13181	0.53379
2.85188	0.76336
-0.82036	0.35523
0.76074	-0.20594
-0.69285	-0.41000
0.50573	0.27871
0.65874	0.40625
0.14870	0.30422
1.14327	0.25320
-0.48884	0.02363
0.27621	0.12566
0.27621	0.07465
0.35272	-0.48652
0.40372	0.10015
0.86275	0.40625
0.76074	0.15117
-0.20832	0.76336
-0.38683	0.50828
-0.36133	-0.58856
-0.33583	-0.05289
-0.08081	0.86539
-0.10631	-0.12942
-0.02981	-0.20594
0.73524	0.48277
0.73524	-0.25695
0.60773	-0.48652
0.19971	0.81437
-0.13181	1.22250
-0.02981	0.45726
-0.18282	0.17668
-0.31033	-1.25176
-0.18282	-0.35899
0.48022	0.48277
0.76074	0.55929
0.48022	0.22769
0.19971	0.30422
0.12320	0.50828
0.02119	0.32972
-0.20832	-0.18043
0.17421	-0.28246
-0.76936	0.04914
0.55673	0.15117
0.48022	0.04914
0.07220	0.17668
0.76074	0.17668
0.53123	-0.00188
0.19971	0.61031
0.60773	0.27871
0.86275	-0.02739
-1.22839	-0.61406
-2.83499	0.02363
-0.18282	0.43176
-0.89686	0.20219
0.81175	0.71234
1.09226	0.43176
0.40372	0.22769
0.68424	-0.00188
0.22521	-0.63957
0.04670	-0.30797
0.60773	0.15117
-1.25389	0.45726
-0.33583	0.53379
0.48022	0.32972
0.55673	0.35523
0.37822	0.04914
0.40372	-0.02739
-0.00431	0.17668
-0.18282	-0.35899
-0.28482	-0.28246
-0.23382	-0.20594
-0.28482	0.38074
0.09770	0.12566
0.50573	0.61031
0.63323	-0.20594
0.68424	0.25320
0.42922	-0.46102
0.04670	0.50828
-0.10631	0.66132
-0.18282	0.78886
-0.00431	0.30422
-0.00431	0.17668
0.12320	-0.20594
0.30171	-0.10391
0.81175	-0.25695
0.60773	0.40625
0.50573	-0.28246
0.27621	0.04914
0.35272	0.40625
0.04670	0.20219
-1.35589	0.12566
0.14870	0.20219
-1.30489	0.32972
0.17421	0.02363
1.14327	0.22769
1.21977	-0.43551
0.70974	-0.10391
0.68424	0.48277
-0.13181	0.48277
-0.15732	0.48277
-0.25932	0.45726
-0.28482	0.53379
-0.20832	0.15117
0.40372	-0.18043
0.68424	-0.56305
1.29628	-0.38449
-0.20832	0.15117
0.12320	0.43176
0.14870	0.40625
-0.10631	0.20219
0.63323	0.38074
-0.23382	0.20219
0.09770	-0.00188
1.34728	0.22769
-1.40690	0.02363
0.53123	-0.00188
0.68424	-0.46102
-0.23382	-0.51203
-0.23382	0.25320
-0.02981	0.50828
0.07220	1.06945
-0.15732	0.78886
0.07220	-0.10391
0.48022	0.15117
0.48022	0.50828
0.50573	0.04914
0.32721	-0.41000
0.12320	-0.71609
-0.38683	0.17668
-0.08081	0.53379
-0.41233	-0.10391
0.40372	0.20219
0.63323	0.27871
-0.69285	0.35523
1.14327	0.30422
0.60773	0.35523
1.14327	0.35523
0.04670	0.10015
-0.10631	-0.07840
-0.13181	-0.71609
0.17421	0.32972
0.09770	0.45726
-0.38683	0.12566
0.19971	0.17668
0.83725	0.12566
0.88825	-0.12942
0.04670	-0.10391
0.22521	0.55929
0.12320	0.40625
-0.46334	0.10015
-0.38683	0.45726
-0.25932	0.27871
0.14870	0.17668
0.55673	0.07465
0.81175	-0.30797
0.78624	0.04914
-0.08081	-0.00188
-0.05531	0.25320
-0.08081	0.10015
-0.08081	0.25320
-0.38683	0.30422
-0.20832	0.10015
0.17421	0.43176
0.50573	-0.12942
0.60773	0.10015
0.53123	-0.07840
0.63323	-0.28246
0.02119	0.15117
0.02119	0.73785
-0.25932	0.17668
-0.20832	0.83988
-0.23382	0.38074
0.07220	-0.58856
0.55673	-0.15492
0.83725	0.02363
-0.05531	-0.00188
0.96476	-0.12942
0.91375	0.35523
-2.52897	-0.07840
-0.18282	0.53379
0.55673	0.78886
-0.74385	0.25320
0.65874	0.17668
0.73524	-0.07840
0.78624	-0.33348
0.58223	-0.02739
-0.28482	0.35523
-0.02981	0.32972
0.02119	0.04914
-0.18282	-0.12942
-0.74385	0.20219
-0.18282	0.38074
0.17421	-0.02739
0.42922	0.07465
1.09226	0.17668
1.11776	0.07465
-1.27939	0.02363
-0.76936	0.30422
-0.02981	0.35523
0.48022	0.40625
0.48022	0.22769
0.04670	-0.28246
0.40372	0.04914
0.86275	0.10015
0.70974	-0.15492
0.50573	0.30422
0.48022	0.40625
-0.15732	0.43176
-0.31033	0.61031
-0.33583	0.25320
-0.38683	-0.10391
-0.36133	-0.18043
-0.13181	-0.43551
0.30171	-0.07840
0.53123	0.02363
0.45472	-0.12942
0.73524	0.25320
0.14870	0.76336
0.04670	0.68683
0.37822	0.81437
-1.45790	0.40625
-0.10631	0.43176
0.14870	-0.76711
1.01576	-0.38449
1.14327	-0.35899
-1.17738	0.30422
0.70974	0.15117
1.16877	0.15117
-0.46334	0.68683
-1.40690	0.22769
0.25071	0.38074
0.09770	0.15117
0.50573	-0.15492
0.14870	-1.02219
-0.10631	-0.23145
0.53123	0.66132
0.81175	0.71234
0.58223	0.68683
0.45472	0.63582
1.70430	0.17668
-4.62010	-0.23145
-1.20288	0.02363
-0.38683	0.12566
0.91375	0.02363
1.19427	-0.05289
1.01576	-0.28246
0.91375	0.10015
0.48022	0.22769
0.09770	0.61031
-0.23382	0.10015
-0.15732	0.55929
-0.43783	-0.41000
-0.20832	0.15117
0.35272	0.35523
0.45472	-0.02739
0.50573	-0.25695
0.58223	0.45726
-0.00431	0.91640
-0.00431	0.94191
-0.74385	-0.05289
0.02119	-0.10391
-0.08081	-0.35899
0.30171	-0.51203
0.48022	-0.28246
0.32721	0.25320
0.50573	-0.18043
1.19427	0.22769
1.01576	0.78886
-1.58541	0.58480
-0.46334	-0.00188
0.12320	-0.05289
0.09770	0.22769
0.09770	0.32972
0.25071	-0.00188
0.68424	-0.02739
0.63323	0.38074
-0.28482	0.27871
0.07220	0.35523
-0.00431	0.40625
-0.25932	-0.05289
-0.10631	-0.20594
-0.31033	-0.05289
-0.02981	-0.58856
0.32721	-0.25695
0.53123	0.17668
0.73524	0.71234
0.93925	1.09496
-0.18282	0.50828
-0.59084	-0.28246
-0.28482	-0.00188
0.19971	0.45726
0.27621	0.53379
-2.55447	-0.33348
0.55673	-0.10391
0.76074	0.04914
0.86275	-0.25695
0.96476	-0.07840
0.88825	0.38074
0.14870	0.32972
-1.73842	0.27871
-2.01894	0.20219
-0.05531	0.32972
1.27078	0.35523
0.32721	0.12566
0.91375	0.15117
0.68424	-0.41000
0.68424	0.25320
0.25071	0.10015
-0.33583	-0.07840
-0.20832	0.15117
-0.28482	0.45726
-0.41233	0.63582
0.04670	0.73785
0.40372	0.32972
0.42922	-1.02219
0.32721	-0.69059
0.63323	0.53379
0.12320	0.22769
-0.13181	0.12566
-0.08081	0.66132
-0.10631	0.68683
-0.46334	0.25320
0.19971	0.32972
0.50573	-0.02739
0.63323	-0.56305
0.42922	-0.15492
0.53123	0.02363
-0.08081	0.55929
-0.10631	0.63582
0.09770	0.40625
-0.10631	0.02363
-0.18282	-0.30797
-0.28482	-0.23145
0.42922	-0.02739
0.83725	-0.10391
0.53123	0.32972
-0.89686	0.76336
-0.08081	0.76336
-0.08081	0.43176
0.70974	-0.25695
0.04670	-0.30797
-0.08081	-0.61406
-0.41233	0.10015
1.27078	0.40625
-1.45790	0.50828
1.24527	0.17668
0.37822	0.30422
0.22521	0.32972
0.17421	-0.00188
0.02119	0.04914
0.22521	0.25320
-0.05531	0.35523
0.07220	-0.15492
0.40372	0.12566
0.48022	0.02363
0.58223	0.04914
0.45472	0.38074
-0.53984	0.04914
-0.25932	0.04914
-0.20832	-0.33348
-0.20832	-0.12942
-0.28482	-0.02739
0.17421	0.58480
0.63323	0.45726
0.48022	0.38074
0.53123	0.25320
0.70974	0.68683
0.32721	0.35523
-0.20832	0.32972
-0.28482	0.15117
-0.23382	-0.51203
-0.28482	-1.40480
0.02119	-0.23145
0.37822	0.66132
0.78624	0.68683
0.32721	0.27871
0.37822	0.35523
0.45472	0.35523
0.25071	0.02363
-0.59084	-0.00188
-0.18282	0.38074
-0.18282	0.10015
1.19427	-0.35899
0.27621	-0.10391
0.78624	-0.23145
-2.83499	0.38074
0.50573	0.66132
0.60773	0.30422
0.60773	0.10015
0.42922	-0.15492
0.37822	-0.41000
0.07220	0.66132
0.09770	0.94191
0.30171	0.38074
1.75531	-0.05289
-0.10631	-0.28246
0.37822	-0.25695
-0.02981	0.45726
-0.48884	0.35523
-0.18282	0.27871
-0.28482	0.15117
-0.25932	0.17668
0.02119	-0.33348
0.48022	-0.33348
0.50573	-0.58856
0.42922	0.07465
0.70974	0.83988
0.27621	0.91640
0.14870	0.76336
-0.08081	0.43176
-0.48884	0.07465
-0.53984	-0.10391
0.22521	-0.58856
0.68424	-0.28246
0.53123	-0.30797
0.09770	0.30422
0.63323	0.73785
0.07220	0.81437
0.07220	0.55929
-0.20832	-0.81812
-0.08081	-0.38449
-0.05531	0.48277
0.22521	0.61031
0.12320	-0.02739
0.35272	-0.38449
0.50573	0.68683
0.53123	1.37554
0.37822	0.30422
0.04670	-0.99668
0.17421	-0.61406
-1.15188	0.17668
-0.92237	0.73785
0.40372	0.38074
1.06676	0.07465
-0.28482	0.22769
0.53123	0.17668
-0.25932	0.38074
0.73524	0.32972
0.04670	0.12566
-0.31033	-0.89465
0.09770	-0.05289
-0.23382	0.15117
0.42922	0.43176
0.12320	0.10015
0.22521	0.20219
0.65874	0.35523
0.65874	0.10015
0.55673	0.25320
-2.27395	0.45726
-0.79486	0.20219
0.04670	0.35523
-0.08081	0.12566
0.42922	0.04914
0.91375	-0.23145
0.88825	-0.02739
0.73524	-0.38449
-0.00431	-0.20594
0.25071	0.53379
-0.08081	0.43176
-0.02981	0.66132
-0.33583	-0.18043
-0.69285	0.35523
-0.15732	0.07465
0.48022	0.04914
0.76074	-0.05289
0.70974	0.45726
0.70974	-0.10391
0.22521	0.40625
-0.31033	0.04914
-0.25932	-0.05289
-0.15732	-0.12942
-0.25932	0.25320
0.04670	0.30422
0.42922	0.10015
0.53123	-0.30797
0.48022	0.20219
0.68424	0.25320
0.07220	0.22769
-0.13181	0.17668
-0.00431	0.17668
-0.05531	0.45726
-0.56534	0.40625
-0.43783	0.25320
0.81175	-0.35899
-1.02437	-0.48652
1.06676	0.10015
0.25071	0.38074
0.32721	0.45726
0.09770	0.58480
0.27621	0.22769
-0.08081	-0.02739
0.91375	-0.48652
3.61693	0.15117
-4.21208	0.12566
-0.46334	0.27871
0.50573	0.22769
1.11776	0.10015
1.21977	0.07465
-0.43783	0.20219
0.02119	0.10015
0.12320	0.45726
0.07220	0.04914
-0.00431	-0.15492
0.27621	0.10015
0.50573	0.63582
0.32721	0.40625
0.45472	0.68683
-0.08081	-0.84363
-0.38683	-0.76711
-0.33583	0.20219
-0.13181	0.55929
-0.31033	0.78886
0.09770	0.68683
0.50573	0.15117
0.53123	-0.30797
0.53123	-0.20594
0.68424	-0.02739
0.25071	0.04914
-0.05531	0.25320
0.02119	0.25320
-0.36133	-0.18043
-0.41233	-0.12942
0.25071	0.10015
0.48022	-0.10391
0.68424	0.58480
0.60773	0.43176
0.37822	0.04914
0.30171	0.30422
0.07220	0.40625
-0.46334	0.48277
0.58223	0.43176
0.32721	-0.23145
-2.01894	-0.46102
0.40372	-0.00188
-1.53441	0.38074
0.99026	0.27871
1.16877	0.10015
0.48022	-0.12942
0.30171	0.45726
0.07220	0.30422
0.37822	0.40625
-0.36133	0.17668
0.07220	-0.23145
0.53123	-0.07840
-0.69285	0.07465
0.27621	0.12566
0.63323	0.10015
0.22521	0.17668
-0.08081	0.20219
-0.18282	0.27871
-0.13181	0.20219
-0.31033	0.27871
-0.08081	-0.28246
0.35272	-0.12942
0.55673	0.40625
0.68424	0.35523
0.81175	-0.66508
0.30171	-0.07840
-0.33583	0.76336
-0.38683	0.71234
-0.02981	0.43176
-0.43783	0.35523
0.02119	0.07465
0.50573	-0.15492
0.58223	0.10015
0.63323	0.10015
0.53123	0.07465
0.09770	0.32972
0.07220	0.35523
-0.02981	0.35523
-0.59084	0.02363
0.12320	-0.56305
0.09770	-1.12422
-1.73842	0.15117
0.91375	0.45726
0.83725	0.61031
0.53123	0.45726
0.65874	0.55929
0.70974	0.53379
-0.48884	0.32972
0.14870	-0.07840
-0.46334	-0.15492
0.76074	0.30422
0.12320	0.32972
0.63323	-0.00188
0.68424	-0.15492
0.58223	-0.25695
0.12320	0.25320
-0.10631	0.25320
-0.18282	0.32972
-0.13181	0.48277
-0.43783	0.17668
-0.00431	-0.05289
0.45472	-0.02739
0.60773	-0.15492
0.09770	0.10015
0.60773	0.22769
0.40372	0.10015
-0.02981	0.02363
-0.28482	0.15117
-0.18282	-0.05289
0.07220	0.32972
0.12320	0.50828
0.42922	0.20219
0.14870	0.53379
0.55673	0.02363
0.73524	-0.66508
0.30171	-0.10391
-0.05531	0.50828
-0.15732	0.71234
0.07220	0.43176
0.02119	0.38074
-0.89686	-0.23145
-0.00431	-0.35899
0.58223	-0.66508
0.45472	-0.15492
0.60773	0.66132
0.32721	0.48277
-0.00431	0.32972
-0.08081	0.15117
-0.00431	0.10015
-0.25932	-0.10391
0.04670	0.32972
0.37822	-0.69059
0.25071	0.27871
0.40372	0.81437
0.63323	0.61031
0.40372	0.38074
-0.15732	0.22769
0.48022	0.07465
0.27621	-0.00188
-1.89143	-0.25695
-0.02981	-0.02739
-0.69285	-0.15492
0.93925	-0.15492
0.96476	-0.15492
1.01576	0.07465
0.42922	0.20219
-0.10631	0.35523
0.30171	0.40625
-0.28482	0.45726
-1.35589	0.25320
0.14870	0.02363
0.42922	0.27871
0.53123	-0.02739
0.32721	-0.00188
0.42922	0.10015
0.04670	0.12566
0.22521	-0.10391
-0.15732	0.27871
-0.48884	0.40625
-0.02981	0.32972
0.14870	0.35523
0.50573	0.20219
0.68424	-0.41000
0.35272	-0.33348
0.58223	0.25320
0.30171	0.32972
-0.13181	-0.05289
-0.36133	-0.25695
-0.08081	0.76336
-0.20832	1.04394
-0.00431	0.10015
0.50573	0.35523
0.53123	-0.18043
0.32721	-0.43551
0.63323	-0.15492
0.17421	0.40625
-0.20832	0.40625
-0.05531	0.76336
0.50573	-0.53754
-1.35589	-0.89465
-0.94787	-0.92016
0.40372	0.76336
1.75531	0.55929
0.88825	0.73785
0.09770	0.53379
0.37822	0.61031
-0.23382	0.45726
-0.08081	0.15117
0.40372	0.04914
-0.97337	0.04914
0.19971	-0.20594
0.53123	-0.25695
0.83725	-0.15492
0.53123	-0.07840
0.37822	0.17668
0.04670	0.30422
-0.23382	0.30422
-0.38683	0.20219
-0.33583	0.17668
-0.23382	0.40625
0.19971	0.02363
0.32721	0.22769
0.58223	0.45726
0.45472	-0.15492
0.58223	-1.12422
0.25071	-0.02739
-0.05531	0.66132
-0.00431	0.94191
-0.05531	1.17148
-0.28482	0.43176
-0.00431	-0.12942
0.35272	-0.23145
0.45472	-0.00188
0.53123	-0.10391
0.65874	-0.33348
0.22521	-0.05289
-0.43783	0.78886
-0.15732	0.45726
-0.23382	-0.28246
-0.33583	-0.61406
0.02119	-0.35899
1.14327	0.32972
0.81175	0.25320
-2.14644	0.58480
0.63323	0.50828
0.83725	0.43176
0.55673	0.45726
0.12320	0.10015
-0.61635	0.02363
0.07220	0.15117
0.19971	0.04914
0.53123	-0.02739
0.63323	-0.10391
0.99026	-0.15492
1.19427	0.10015
-0.89686	0.35523
-0.18282	0.40625
-0.18282	0.27871
-0.08081	0.20219
-0.13181	0.25320
0.07220	0.20219
0.48022	0.15117
0.73524	-0.15492
0.42922	-0.43551
0.37822	-0.15492
0.17421	0.53379
-0.05531	0.10015
-0.23382	0.10015
-0.13181	0.50828
-0.23382	0.55929
-0.00431	0.35523
0.48022	0.07465
0.68424	0.35523
0.50573	0.20219
0.50573	-0.10391
0.17421	-0.43551
-0.08081	0.35523
-0.23382	0.10015
-0.15732	-0.25695
-0.33583	0.10015
0.02119	0.04914
0.42922	0.15117
0.48022	0.02363
0.35272	0.17668
0.58223	0.38074
0.32721	0.45726
0.09770	0.15117
-0.25932	0.02363
-0.23382	0.12566
0.04670	0.32972
-0.13181	0.12566
-0.25932	0.02363
0.63323	0.17668
0.93925	0.12566
0.48022	0.17668
0.32721	0.20219
-0.20832	0.12566
0.02119	0.32972
0.27621	0.50828
-0.23382	0.07465
-0.61635	-1.02219
0.45472	-0.66508
0.50573	0.38074
0.50573	0.63582
0.63323	0.45726
0.37822	0.76336
-0.00431	0.55929
-0.18282	-0.00188
-0.20832	-0.25695
-0.38683	-0.05289
0.09770	0.17668
0.42922	0.20219
0.60773	0.25320
0.37822	-0.05289
0.53123	-0.20594
0.19971	0.10015
-0.15732	0.17668
0.02119	0.30422
-0.20832	0.17668
-0.51434	0.22769
0.12320	0.20219
0.45472	0.04914
0.70974	0.04914
0.63323	0.32972
0.48022	0.17668
0.17421	0.20219
-0.08081	0.04914
-0.20832	-0.25695
-0.20832	0.12566
-0.28482	0.38074
0.02119	0.30422
0.32721	0.15117
0.65874	0.10015
0.60773	0.12566
0.60773	0.20219
0.19971	0.22769
-0.23382	0.17668
0.02119	0.22769
-0.46334	0.15117
-0.66735	0.17668
0.27621	0.10015
0.37822	0.02363
0.42922	0.15117
0.58223	0.20219
0.55673	-0.00188
0.32721	0.22769
-0.00431	-0.07840
0.04670	0.04914
-0.13181	0.40625
-0.89686	0.32972
0.02119	0.15117
0.60773	0.35523
0.73524	0.04914
0.53123	-0.05289
0.68424	-0.02739
0.30171	0.32972
-0.08081	0.20219
-0.25932	0.35523
-0.10631	0.20219
-0.38683	0.04914
-0.10631	-0.35899
0.35272	0.04914
0.58223	0.25320
0.55673	0.30422
0.53123	0.20219
0.19971	0.17668
-0.10631	0.20219
-0.08081	0.22769
-0.20832	0.30422
-0.41233	0.10015
0.07220	-0.00188
0.42922	-0.25695
0.48022	0.02363
0.42922	0.10015
0.58223	0.22769
0.32721	0.38074
-0.15732	0.12566
-0.13181	0.35523
-0.10631	0.27871
-0.43783	0.27871
-0.08081	0.12566
0.27621	0.02363
0.60773	0.07465
0.53123	0.02363
0.60773	-0.05289
0.27621	0.20219
-0.18282	0.27871
-0.20832	0.22769
-0.10631	0.17668
-0.18282	0.17668
-0.00431	0.07465
0.32721	-0.07840
0.58223	0.15117
0.60773	0.25320
0.32721	0.12566
0.04670	0.15117
-0.08081	0.25320
0.22521	0.30422
0.30171	0.17668
-1.30489	0.10015
0.07220	-0.05289
0.53123	0.04914
0.76074	0.04914
0.53123	0.30422
0.60773	-0.02739
0.53123	0.17668
-0.13181	0.04914
-0.28482	0.07465
-0.15732	0.35523
-0.36133	0.38074
-0.08081	0.10015
0.42922	0.12566
0.48022	0.25320
0.37822	0.12566
0.55673	0.35523
0.22521	-0.05289
-0.18282	0.07465
-0.08081	0.25320
-0.15732	0.22769
-0.33583	0.22769
0.12320	-0.23145
0.32721	-0.10391
0.63323	-0.05289
0.42922	0.22769
0.60773	0.25320
0.25071	0.45726
-0.20832	0.27871
-0.18282	0.15117
-0.20832	0.32972
-0.41233	0.15117
0.02119	0.15117
0.50573	0.04914
0.42922	-0.35899
0.48022	-0.15492
0.58223	0.04914
0.14870	0.35523
-0.00431	0.53379
-0.31033	0.25320
-0.15732	0.20219
-0.28482	0.30422
0.02119	0.12566
0.53123	-0.00188
0.50573	-0.05289
0.53123	0.15117
0.48022	0.10015
0.27621	0.22769
-0.08081	0.25320
-0.25932	0.12566
-0.20832	0.15117
-0.31033	0.12566
0.12320	0.04914
0.37822	-0.05289
0.70974	0.12566
0.55673	0.15117
0.04670	0.07465
0.35272	0.32972
0.09770	0.25320
0.07220	0.20219
-1.17738	0.32972
-0.15732	0.17668
0.25071	-0.15492
0.37822	-0.23145
0.58223	-0.02739
0.50573	0.04914
0.53123	-0.07840
0.27621	0.55929
-0.18282	0.40625
-0.15732	0.27871
-0.15732	0.17668
-0.38683	0.25320
0.07220	0.15117
0.32721	-0.02739
0.58223	-0.00188
0.42922	-0.05289
0.50573	-0.05289
0.30171	0.45726
-0.08081	0.32972
-0.18282	-0.23145
-0.13181	-0.02739
-0.38683	0.30422
0.02119	0.32972
0.45472	0.04914
0.48022	0.04914
0.48022	0.20219
0.58223	0.07465
0.19971	0.15117
-0.05531	0.32972
-0.25932	0.07465
-0.18282	0.20219
-0.31033	0.17668
-0.02981	-0.00188
0.37822	0.04914
0.53123	-0.02739
0.48022	0.15117
0.63323	0.17668
0.27621	0.15117
-0.13181	0.25320
-0.18282	0.30422
-0.25932	0.15117
-0.36133	0.20219
0.09770	0.10015
0.40372	-0.10391
0.58223	-0.02739
0.42922	0.17668
0.60773	0.04914
0.32721	0.22769
-0.15732	0.27871
-0.20832	0.12566
-0.13181	0.25320
-0.38683	0.22769
-0.00431	-0.07840
0.58223	0.07465
0.53123	-0.02739
0.32721	0.04914
0.53123	0.25320
0.17421	0.30422
-0.02981	0.27871
-0.02981	0.20219
-0.10631	-0.00188
-0.33583	0.10015
-0.02981	0.22769
0.48022	0.17668
0.60773	-0.02739
0.37822	0.07465
0.53123	0.15117
0.19971	0.30422
-0.28482	0.22769
-0.28482	0.04914
-0.18282	0.12566
-0.33583	0.30422
0.07220	0.15117
0.45472	-0.02739
0.58223	0.07465
0.53123	0.04914
0.50573	0.15117
0.50573	0.32972
0.14870	0.22769
-1.33039	0.32972
-0.13181	0.27871
-0.13181	0.04914
0.17421	-0.05289
0.53123	-0.10391
0.78624	0.22769
0.53123	0.22769
0.55673	0.07465
0.22521	0.22769
-0.08081	0.38074
-0.28482	0.20219
-0.28482	0.30422
-0.28482	0.27871
-0.08081	-0.07840
0.42922	-0.15492
0.55673	-0.00188
0.48022	-0.00188
0.45472	0.02363
0.27621	0.32972
-0.05531	0.43176
-0.25932	0.07465
-0.15732	0.10015
-0.31033	0.25320
-0.10631	0.12566
0.58223	0.04914
0.60773	0.15117
0.32721	0.07465
0.37822	0.27871
0.30171	0.32972
-0.02981	0.04914
-0.15732	-0.02739
-0.20832	0.12566
-0.28482	0.43176
-0.00431	0.10015
0.42922	0.02363
0.60773	0.04914
0.37822	0.07465
0.48022	0.10015
0.22521	0.27871
-0.23382	0.20219
-0.23382	0.15117
-0.02981	0.45726
-0.28482	0.15117
-0.02981	-0.18043
0.35272	-0.18043
0.53123	0.02363
0.42922	0.07465
0.58223	0.15117
0.32721	0.48277
-0.08081	0.38074
-0.25932	0.10015
-0.13181	0.20219
-0.41233	0.20219
-0.02981	-0.07840
0.42922	-0.00188
0.58223	0.17668
0.53123	0.07465
0.63323	0.12566
0.42922	0.30422
-0.08081	0.30422
-0.25932	0.12566
-0.25932	0.20219
-0.43783	0.30422
-0.02981	0.02363
0.45472	-0.02739
0.55673	-0.05289
0.37822	-0.00188
0.40372	-0.05289
0.27621	0.35523
-0.13181	0.38074
-0.28482	0.30422
-0.10631	0.12566
-0.20832	0.25320
-0.05531	0.12566
0.48022	0.07465
0.63323	0.10015
0.45472	0.10015
0.45472	0.07465
0.17421	0.25320
-0.13181	0.15117
-0.15732	0.15117
-0.13181	0.22769
-0.46334	0.20219
0.07220	-0.07840
0.45472	0.04914
0.60773	0.04914
0.14870	0.22769
0.48022	0.07465
0.42922	0.22769
-0.00431	0.35523
0.02119	0.12566
-0.15732	0.15117
-0.38683	0.20219
0.02119	0.04914
0.40372	0.17668
0.48022	-0.00188
0.42922	0.12566
0.58223	-0.00188
0.32721	0.22769
-0.15732	0.40625
-0.25932	0.17668
-0.28482	0.15117
-0.28482	0.22769
-0.00431	-0.05289
0.37822	-0.15492
0.63323	0.04914
0.50573	0.12566
0.58223	0.02363
0.25071	0.22769
-0.15732	0.25320
-0.15732	0.25320
-0.23382	0.27871
-0.28482	0.22769
-0.00431	0.25320
0.35272	-0.00188
0.58223	-0.10391
0.45472	-0.00188
0.50573	0.15117
0.19971	0.43176
-0.10631	0.40625
-0.18282	0.22769
-0.10631	0.20219
-0.33583	0.32972
0.07220	-0.07840
0.40372	0.02363
0.48022	-0.05289
0.42922	0.04914
0.55673	0.10015
0.17421	0.22769
-0.15732	0.45726
-0.18282	0.17668
-0.25932	-0.05289
-0.25932	0.12566
-0.05531	0.20219
0.37822	0.07465
0.58223	0.12566
0.45472	0.07465
0.58223	0.12566
0.27621	0.35523
-0.23382	0.15117
-0.13181	0.10015
-0.18282	0.12566
-0.41233	0.12566
-0.08081	0.10015
0.42922	0.17668
0.60773	0.10015
0.53123	0.15117
0.70974	0.17668
0.14870	0.20219
-0.13181	0.17668
-0.18282	0.17668
-0.23382	-0.05289
-0.23382	0.20219
-0.00431	0.12566
0.30171	0.02363
0.63323	-0.02739
0.45472	0.22769
0.30171	0.12566
0.22521	0.30422
-0.00431	0.40625
-0.15732	0.25320
-0.08081	0.22769
-0.25932	0.20219
-0.02981	-0.10391
0.42922	-0.07840
0.48022	0.10015
0.37822	0.15117
0.58223	0.07465
0.19971	0.35523
-0.13181	0.27871
-0.15732	0.12566
-0.08081	0.20219
-0.25932	0.38074
0.04670	0.02363
0.27621	-0.07840
0.42922	0.12566
0.50573	0.22769
0.68424	-0.05289
0.19971	0.04914
-0.13181	0.25320
-0.20832	0.27871
-0.15732	0.17668
-0.38683	0.15117
-0.08081	0.27871
0.37822	0.15117
0.65874	0.12566
0.48022	-0.02739
0.48022	-0.00188
0.27621	0.20219
-0.02981	0.25320
-0.23382	0.15117
-0.20832	0.17668
-0.31033	0.22769
0.09770	0.25320
0.37822	-0.05289
0.53123	-0.07840
0.42922	0.04914
0.53123	0.12566
0.35272	0.27871
-0.13181	0.25320
-0.20832	0.17668
-0.08081	0.25320
-0.31033	0.32972
-0.08081	-0.07840
0.40372	-0.05289
0.53123	0.12566
0.40372	0.15117
0.50573	0.10015
0.27621	0.30422
-0.00431	0.32972
-0.13181	0.04914
-0.13181	0.15117
-0.31033	0.20219
-0.02981	0.10015
0.35272	0.04914
0.53123	0.04914
0.58223	0.15117
0.58223	0.17668
0.19971	0.20219
-0.08081	0.17668
-0.15732	0.40625
-0.28482	-0.02739
-0.33583	-0.07840
0.02119	0.04914
0.27621	0.15117
0.48022	0.10015
0.53123	0.04914
0.60773	0.15117
0.30171	0.20219
-0.18282	0.22769
-0.31033	0.30422
-0.28482	0.17668
-0.36133	0.25320
-0.00431	0.02363
0.50573	0.07465
0.68424	0.10015
0.48022	0.10015
0.63323	0.02363
0.37822	0.17668
-0.13181	0.30422
-0.25932	0.15117
-0.25932	0.15117
-0.33583	0.17668
-0.02981	0.07465
0.32721	-0.00188
0.45472	-0.05289
0.45472	0.02363
0.68424	0.17668
0.30171	0.35523
-0.10631	0.30422
-0.25932	0.30422
-0.15732	0.25320
-0.28482	0.25320
0.02119	0.07465
0.22521	-0.07840
0.50573	-0.05289
0.65874	0.07465
0.63323	0.20219
0.27621	0.22769
-0.18282	0.22769
-0.20832	0.20219
-0.13181	0.30422
-0.25932	0.27871
-0.05531	0.17668
0.32721	-0.10391
0.50573	-0.18043
0.50573	0.04914
0.55673	0.20219
0.14870	0.25320
-0.18282	0.38074
-0.15732	0.27871
-0.18282	0.27871
-0.33583	0.25320
0.02119	-0.00188
0.50573	-0.07840
0.65874	-0.07840
0.48022	0.20219
0.50573	0.15117
0.19971	0.27871
-0.08081	0.43176
-0.28482	0.17668
-0.15732	0.15117
-0.28482	0.30422
-0.00431	0.17668
0.27621	-0.05289
0.55673	-0.10391
0.55673	0.10015
0.65874	0.02363
0.19971	0.22769
-0.15732	0.27871
-0.18282	0.32972
-0.20832	0.04914
-0.38683	0.04914
-0.05531	0.07465
0.48022	0.17668
0.50573	0.15117
0.45472	0.22769
0.65874	0.20219
0.32721	0.25320
-0.08081	0.20219
-0.20832	0.17668
-0.25932	0.30422
-0.25932	0.32972
-0.05531	0.02363
0.37822	-0.18043
0.60773	-0.28246
0.37822	-0.05289
0.55673	0.22769
0.27621	0.50828
-0.13181	0.48277
-0.28482	0.20219
-0.15732	0.17668
-0.33583	0.22769
0.02119	-0.15492
0.37822	-0.48652
0.53123	-0.12942
0.48022	0.50828
0.63323	0.20219
0.32721	-0.23145
-0.13181	0.17668
-0.20832	0.81437
-0.10631	0.94191
-0.33583	0.61031
-0.18282	-0.46102
0.35272	-0.63957
0.63323	-0.33348
0.50573	0.02363
0.68424	0.17668
0.19971	0.35523
-0.20832	0.43176
-0.13181	0.35523
-0.10631	0.15117
-0.31033	0.22769
-0.02981	0.10015
0.22521	-0.05289
0.58223	-0.00188
0.42922	-0.02739
0.63323	-0.00188
0.25071	0.25320
-0.15732	0.27871
-0.20832	0.20219
-0.05531	0.32972
-0.38683	0.27871
-0.00431	0.02363
0.42922	0.04914
0.53123	-0.00188
0.50573	0.20219
0.63323	-0.00188
0.30171	0.10015
-0.28482	-0.00188
-0.25932	0.40625
-0.23382	0.58480
-0.20832	-0.00188
-0.05531	0.12566
0.50573	0.25320
0.93925	0.12566
0.76074	0.04914
-0.64185	-0.18043
0.19971	0.25320
-0.31033	0.17668
0.32721	0.20219
-0.15732	0.25320
0.58223	0.35523
0.37822	0.10015
-0.38683	-0.25695
0.14870	-0.33348
0.19971	0.15117
0.70974	0.27871
0.83725	0.30422
0.02119	0.40625
-0.00431	0.40625
-0.00431	0.27871
-0.43783	0.15117
0.04670	-0.10391
0.32721	-0.10391
0.60773	0.10015
0.30171	-0.00188
0.32721	-0.05289
0.12320	0.22769
-0.20832	0.32972
0.04670	0.25320
-0.18282	0.15117
-0.43783	0.25320
0.02119	0.10015
0.50573	0.04914
0.63323	0.04914
0.48022	0.22769
0.50573	0.15117
0.19971	0.35523
-0.10631	0.30422
-0.05531	0.12566
-0.23382	-0.18043
-0.41233	-0.02739
-0.08081	0.04914
0.35272	0.53379
0.58223	-0.12942
0.88825	-0.02739
0.70974	0.07465
-0.43783	0.40625
-0.08081	0.73785
-0.20832	0.40625
-0.08081	0.02363
-0.18282	-0.61406
-0.00431	-0.48652
0.27621	-0.00188
0.50573	0.53379
0.63323	0.55929
0.78624	0.43176
0.30171	0.38074
-0.02981	0.32972
-0.33583	-0.43551
0.04670	-0.48652
-0.00431	0.15117
-0.02981	0.22769
-0.71835	0.32972
0.12320	0.17668
0.73524	-0.05289
0.86275	-0.00188
0.99026	0.25320
0.55673	0.50828
0.02119	0.32972
-0.00431	0.27871
-0.48884	0.12566
-0.23382	0.12566
0.14870	-0.05289
0.27621	-0.05289
0.55673	0.15117
0.58223	-0.12942
0.22521	0.22769
-0.05531	0.30422
-0.28482	0.20219
-0.15732	0.02363
-0.43783	0.12566
-0.25932	0.02363
0.30171	0.07465
0.76074	0.20219
0.58223	0.22769
0.55673	0.04914
0.42922	0.27871
0.09770	0.66132
-0.41233	0.45726
-0.15732	-0.25695
-0.18282	-0.02739
-0.18282	-0.43551
0.53123	-0.00188
0.76074	0.07465
0.63323	0.22769
0.65874	0.35523
0.25071	0.50828
-0.20832	0.45726
-0.20832	0.40625
-0.08081	0.30422
-0.33583	0.10015
-0.02981	-0.28246
0.22521	-0.66508
0.53123	-0.15492
0.53123	0.22769
0.55673	0.25320
0.07220	-0.28246
-0.18282	0.32972
-0.18282	0.68683
-0.08081	0.53379
-0.10631	0.43176
-0.36133	0.07465
0.32721	-0.10391
0.86275	0.10015
0.55673	0.22769
0.17421	-0.05289
0.19971	0.15117
0.30171	0.25320
-0.13181	0.07465
-0.59084	0.20219
-0.05531	0.04914
0.27621	-0.12942
-0.25932	-0.00188
0.22521	0.07465
0.60773	0.15117
0.93925	0.15117
0.40372	0.04914
0.19971	0.35523
-0.51434	0.27871
-0.38683	0.20219
-0.20832	0.22769
0.22521	0.35523
0.53123	0.10015
0.60773	0.07465
0.55673	0.25320
0.70974	0.15117
0.22521	-0.28246
-0.23382	-0.02739
-0.13181	0.20219
-0.15732	0.22769
-0.53984	0.17668
-0.38683	-0.12942
0.37822	-0.00188
0.60773	-0.07840
0.48022	0.20219
0.60773	0.43176
0.37822	0.50828
-0.13181	0.35523
-0.23382	0.20219
-0.10631	0.15117
-0.13181	0.27871
-0.08081	0.04914
0.25071	-0.20594
0.53123	-0.20594
0.45472	0.25320
0.58223	-0.00188
0.30171	0.04914
-0.08081	0.04914
-0.33583	0.20219
-0.05531	0.40625
-0.23382	0.35523
-0.00431	0.07465
0.45472	-0.05289
0.17421	-0.05289
0.25071	0.12566
0.68424	0.15117
0.32721	0.50828
0.42922	0.48277
-0.43783	0.15117
-0.74385	0.12566
-0.15732	0.35523
0.12320	-0.02739
0.53123	-0.10391
0.65874	-0.25695
0.58223	-0.15492
0.60773	-0.28246
0.30171	0.68683
-0.00431	0.40625
-0.38683	0.10015
-0.08081	0.07465
-0.41233	0.30422
0.02119	0.38074
0.12320	0.32972
0.58223	0.15117
0.65874	0.17668
0.73524	0.15117
0.27621	0.20219
-0.13181	0.10015
-0.18282	0.02363
-0.18282	0.17668
0.12320	0.35523
0.14870	0.02363
-1.10088	-0.02739
0.60773	-0.00188
0.45472	0.22769
0.76074	0.15117
0.27621	0.17668
-0.13181	0.20219
-0.05531	0.10015
-0.25932	0.02363
0.02119	0.35523
-0.23382	0.38074
0.48022	0.07465
0.63323	-0.15492
0.70974	0.17668
0.58223	0.15117
0.19971	0.32972
-0.13181	-0.02739
-0.25932	0.20219
-0.28482	0.15117
-0.41233	0.61031
0.12320	0.63582
0.35272	0.10015
0.45472	-0.12942
0.42922	-0.15492
0.55673	-0.02739
0.27621	0.20219
-0.15732	0.15117
-0.18282	0.04914
-0.08081	0.22769
-0.25932	0.32972
0.19971	0.07465
0.40372	0.20219
0.09770	0.07465
0.53123	0.15117
0.73524	0.12566
0.40372	0.02363
0.19971	0.32972
-0.18282	0.27871
-0.79486	0.02363
-0.08081	0.40625
-0.08081	0.15117
0.35272	-0.05289
0.73524	0.10015
0.65874	0.15117
-0.10631	-0.00188
0.04670	0.27871
0.07220	0.35523
-0.00431	-0.00188
0.22521	0.12566
-0.69285	0.10015
0.02119	0.07465
0.68424	0.04914
0.55673	0.04914
0.42922	0.22769
0.58223	0.35523
0.22521	0.45726
-0.20832	0.25320
-0.18282	0.15117
-0.28482	-0.12942
-0.46334	0.12566
0.02119	-0.28246
0.40372	-0.20594
0.50573	0.35523
0.53123	0.43176
0.76074	0.22769
0.30171	0.40625
-0.05531	0.22769
-0.15732	-0.12942
-0.20832	0.02363
-0.41233	0.25320
0.14870	0.07465
0.40372	0.15117
0.45472	0.04914
0.40372	0.10015
0.53123	0.12566
0.35272	0.38074
-0.10631	0.10015
-0.33583	0.04914
-0.25932	0.17668
-0.36133	0.20219
0.09770	-0.02739
0.25071	-0.10391
0.63323	0.07465
0.68424	0.20219
0.68424	0.10015
0.37822	0.40625
-0.08081	0.27871
-0.02981	0.12566
-0.13181	0.04914
-0.53984	0.15117
0.17421	0.10015
0.22521	0.15117
0.35272	0.10015
0.22521	0.12566
0.78624	0.22769
0.63323	0.38074
-0.36133	0.22769
-0.18282	-0.00188
-0.08081	0.04914
-0.31033	-0.07840
-0.02981	0.17668
0.42922	0.15117
0.60773	0.32972
0.35272	-0.33348
0.48022	-0.00188
0.30171	0.25320
-0.15732	0.45726
-0.15732	0.50828
-0.18282	0.07465
-0.38683	0.12566
-0.02981	-0.02739
0.32721	-0.23145
0.60773	0.02363
0.60773	0.30422
0.60773	0.32972
0.40372	0.40625
-0.08081	0.38074
-0.20832	0.30422
-0.08081	-0.00188
-0.38683	-0.10391
0.04670	-0.05289
0.14870	-0.02739
0.65874	0.10015
0.73524	0.32972
0.48022	0.17668
-0.31033	0.17668
0.37822	0.27871
-0.13181	0.22769
-0.36133	0.20219
-0.08081	0.20219
0.25071	-0.12942
1.16877	0.10015
-0.71835	0.12566
0.48022	0.30422
0.73524	0.27871
0.37822	0.17668
0.07220	0.04914
-0.15732	0.07465
-0.23382	0.30422
-0.25932	0.27871
-0.15732	-0.05289
0.22521	-0.10391
0.45472	0.04914
0.42922	0.53379
0.58223	-0.07840
0.30171	0.32972
-0.13181	0.40625
-0.15732	0.53379
-0.10631	0.20219
-0.28482	-0.02739
0.07220	-0.12942
0.27621	-0.18043
0.55673	-0.12942
0.53123	0.02363
0.63323	0.02363
0.37822	0.45726
0.14870	0.35523
-0.31033	0.32972
-0.48884	0.40625
-0.28482	0.27871
-0.13181	-0.10391
0.37822	-0.00188
0.53123	0.12566
0.40372	0.25320
0.73524	0.10015
0.32721	0.04914
-0.10631	0.20219
-0.25932	0.04914
0.12320	0.07465
-0.08081	0.35523
-0.89686	0.22769
0.09770	-0.07840
0.99026	0.04914
1.34728	0.15117
0.42922	0.15117
-0.33583	0.43176
0.37822	0.30422
0.19971	0.02363
-0.18282	-0.07840
-0.18282	0.30422
0.12320	0.30422
0.30171	0.04914
0.63323	0.12566
0.37822	-0.00188
0.48022	-0.15492
0.27621	0.25320
-0.13181	0.22769
-0.46334	-0.05289
-0.25932	0.35523
-0.31033	0.32972
-0.05531	-0.10391
0.27621	0.12566
0.48022	0.07465
0.48022	-0.12942
0.70974	0.04914
0.37822	0.35523
-0.00431	0.50828
-0.05531	0.45726
-0.13181	0.45726
-0.36133	-0.23145
-0.08081	-0.20594
0.25071	0.04914
0.53123	-0.02739
0.42922	0.12566
0.70974	-0.02739
0.27621	0.15117
-0.13181	0.40625
-0.10631	0.22769
0.12320	0.22769
-0.10631	0.43176
-0.48884	0.25320
0.17421	-0.12942
0.55673	-0.46102
0.42922	-0.28246
0.60773	0.32972
-0.10631	0.53379
0.27621	0.58480
0.30171	0.25320
-0.64185	0.07465
-0.43783	0.50828
0.40372	0.02363
0.42922	-0.15492
0.48022	-0.23145
0.55673	-0.05289
0.70974	0.22769
0.40372	0.38074
-0.13181	0.35523
-0.13181	0.43176
-0.10631	0.50828
-0.38683	-0.00188
-0.15732	-0.63957
0.32721	-0.46102
0.50573	0.20219
0.50573	0.71234
0.55673	0.53379
0.22521	0.25320
-0.18282	-0.02739
-0.23382	0.07465
0.17421	0.15117
-0.31033	-0.05289
-0.05531	-0.02739
0.32721	-0.07840
0.60773	0.22769
0.53123	0.35523
0.55673	0.35523
0.35272	0.38074
-0.00431	0.20219
-0.25932	-0.00188
-0.41233	-0.10391
-0.31033	0.15117
0.07220	0.10015
0.70974	0.25320
0.91375	0.07465
-1.10088	0.10015
0.86275	0.02363
0.93925	0.25320
-0.71835	0.27871
-0.25932	-0.05289
0.07220	0.07465
-0.28482	0.35523
0.30171	0.10015
0.65874	-0.00188
0.70974	0.22769
0.35272	0.38074
0.68424	-0.02739
0.55673	0.22769
-0.48884	0.17668
-0.56534	-0.00188
-0.36133	0.17668
-0.43783	0.38074
-0.13181	0.07465
0.40372	-0.05289
0.63323	0.12566
0.60773	-0.05289
0.55673	-0.15492
0.37822	0.27871
-0.08081	0.43176
-0.23382	0.50828
-0.18282	0.12566
-0.33583	0.02363
-0.15732	-0.02739
0.40372	0.12566
0.63323	-0.12942
0.42922	-0.35899
0.53123	0.17668
0.37822	0.48277
-0.05531	0.40625
-0.20832	0.35523
-0.13181	0.25320
-0.28482	0.40625
-0.18282	0.02363
0.37822	-0.10391
0.63323	-0.02739
0.48022	0.02363
0.45472	-0.05289
0.27621	0.22769
-0.08081	0.22769
-0.18282	0.15117
-0.15732	0.12566
-0.10631	0.45726
0.14870	0.07465
-0.97337	0.02363
0.81175	0.15117
0.78624	0.32972
0.93925	0.07465
0.02119	0.02363
0.02119	0.04914
0.09770	0.07465
-0.23382	0.12566
-0.48884	0.30422
0.02119	0.45726
0.50573	0.25320
0.60773	0.07465
0.37822	0.02363
0.58223	0.04914
0.35272	0.20219
-0.18282	0.04914
-0.18282	0.22769
-0.15732	-0.20594
-0.43783	0.25320
-0.13181	-0.18043
0.35272	0.22769
0.53123	0.02363
0.48022	-0.10391
0.60773	0.32972
0.25071	0.43176
-0.20832	0.10015
-0.18282	0.35523
-0.10631	0.35523
-0.31033	0.02363
-0.00431	-0.02739
0.40372	0.25320
0.55673	-0.00188
0.48022	0.15117
0.55673	0.04914
0.30171	0.32972
-0.13181	0.35523
-0.20832	0.17668
-0.15732	0.15117
-0.25932	0.22769
0.12320	0.27871
0.40372	-0.18043
0.02119	-0.18043
0.63323	0.02363
0.63323	0.07465
-0.48884	0.30422
0.17421	0.22769
0.02119	0.02363
0.12320	0.17668
-0.69285	0.55929
-0.15732	0.38074
0.40372	0.12566
0.68424	-0.10391
0.50573	-0.10391
0.65874	-0.00188
0.37822	0.53379
0.02119	0.55929
-0.87136	0.25320
-0.38683	0.10015
-0.23382	0.02363
0.12320	0.04914
0.32721	-0.10391
0.60773	-0.05289
0.55673	0.10015
0.60773	-0.05289
0.30171	0.35523
-0.02981	0.53379
-0.10631	0.55929
-0.28482	-0.00188
-0.38683	-0.00188
-0.05531	-0.05289
0.32721	-0.35899
0.45472	0.04914
0.50573	0.32972
0.55673	0.55929
0.32721	0.20219
-0.13181	0.22769
-0.10631	0.35523
-0.10631	0.40625
-0.36133	0.22769
-0.08081	-0.07840
0.35272	0.07465
0.45472	-0.02739
0.53123	-0.00188
0.78624	0.04914
0.19971	0.48277
-0.15732	0.30422
-0.13181	-0.02739
-0.51434	-0.35899
-0.31033	0.15117
0.12320	0.32972
0.27621	0.15117
0.65874	0.10015
0.76074	0.30422
0.76074	0.22769
-0.00431	0.20219
-0.28482	0.07465
-0.18282	0.15117
-0.25932	0.25320
-0.31033	0.30422
-0.08081	-0.18043
0.37822	-0.10391
0.58223	-0.18043
0.50573	0.20219
0.55673	0.25320
0.35272	0.43176
-0.08081	0.43176
-0.13181	0.48277
-0.23382	0.25320
-0.43783	0.07465
-0.20832	-0.51203
0.30171	-0.33348
0.60773	0.12566
0.45472	0.17668
0.60773	0.32972
0.40372	0.66132
-0.00431	0.73785
-0.15732	0.04914
-0.23382	-0.38449
-0.46334	0.17668
-0.18282	0.20219
0.32721	-0.05289
0.55673	0.15117
0.40372	0.27871
0.58223	-0.05289
0.37822	0.25320
-0.13181	0.15117
-0.10631	0.02363
-0.15732	0.12566
-0.15732	0.27871
0.02119	0.04914
0.42922	-0.00188
-0.71835	0.20219
0.60773	0.22769
0.96476	-0.10391
0.70974	0.10015
-0.08081	0.45726
-0.08081	0.32972
-1.40690	0.20219
-0.00431	0.20219
-0.13181	0.07465
0.30171	0.02363
0.78624	0.12566
0.81175	-0.00188
0.70974	-0.02739
0.04670	0.12566
-0.08081	0.25320
-0.20832	0.38074
-0.20832	0.02363
-0.41233	0.12566
-0.13181	0.20219
0.37822	0.02363
0.50573	0.04914
0.53123	0.20219
0.58223	0.20219
0.27621	0.27871
-0.08081	-0.23145
-0.28482	0.12566
-0.15732	0.66132
-0.23382	0.40625
-0.13181	0.17668
0.40372	-0.05289
0.70974	0.02363
0.45472	-0.02739
0.60773	0.15117
0.32721	0.10015
-0.15732	0.12566
-0.05531	0.15117
-0.20832	0.07465
-0.33583	0.07465
-0.10631	0.22769
0.27621	0.12566
0.55673	0.10015
0.48022	0.15117
0.63323	0.12566
0.35272	0.45726
-0.10631	0.55929
-0.05531	0.20219
0.12320	0.04914
-0.53984	0.04914
-0.74385	0.10015
0.58223	-0.02739
0.73524	-0.18043
0.12320	0.10015
0.60773	0.12566
0.02119	0.17668
0.40372	0.25320
0.12320	0.27871
-0.00431	0.20219
-0.36133	0.45726
-0.51434	0.07465
0.17421	-0.10391
0.70974	-0.35899
0.50573	-0.33348
0.68424	0.10015
0.53123	0.58480
-0.20832	0.40625
-0.18282	0.45726
-0.15732	0.50828
-0.41233	0.61031
-0.05531	-0.25695
0.32721	-0.05289
0.45472	-0.02739
0.48022	0.02363
0.68424	-0.12942
0.22521	-0.02739
-0.18282	0.10015
-0.18282	0.25320
-0.28482	0.12566
-0.28482	0.45726
-0.08081	0.20219
0.37822	-0.05289
0.68424	-0.00188
0.50573	0.27871
0.60773	0.15117
0.30171	-0.00188
-0.10631	0.48277
-0.25932	0.43176
-0.02981	0.25320
-0.15732	0.30422
0.04670	-0.00188
0.25071	-0.18043
0.40372	-0.05289
0.02119	0.10015
0.78624	0.07465
0.45472	0.15117
0.30171	0.17668
-0.08081	0.20219
-0.10631	0.35523
-0.36133	0.32972
-0.05531	-0.00188
0.17421	0.10015
0.50573	-0.15492
1.01576	0.12566
0.83725	0.07465
-0.66735	0.27871
-0.15732	0.02363
-0.00431	0.15117
-0.18282	0.35523
-0.18282	0.35523
0.12320	0.27871
0.50573	0.02363
0.83725	-0.05289
0.58223	0.12566
0.45472	-0.05289
0.07220	0.12566
-0.25932	0.10015
-0.15732	0.35523
-0.00431	0.15117
-0.33583	0.02363
-0.10631	-0.07840
0.27621	0.15117
0.58223	0.12566
0.50573	0.30422
0.53123	0.12566
0.37822	0.25320
0.02119	0.43176
-0.48884	0.27871
-0.20832	-0.02739
-0.36133	0.15117
0.07220	0.02363
0.40372	0.12566
0.53123	0.02363
0.53123	0.15117
0.68424	0.04914
0.45472	0.27871
-0.08081	0.38074
-0.08081	0.22769
-1.12638	0.20219
-0.36133	0.20219
0.19971	-0.00188
0.48022	-0.10391
0.65874	0.07465
0.81175	0.32972
0.88825	0.15117
-0.02981	0.20219
-0.02981	0.22769
-0.08081	0.43176
-0.13181	-0.05289
-0.38683	0.32972
-0.18282	0.17668
0.27621	-0.00188
0.58223	-0.23145
0.40372	-0.07840
0.53123	0.35523
0.12320	0.17668
-0.13181	0.22769
-0.13181	0.25320
-0.13181	0.02363
-0.28482	0.20219
-0.08081	0.07465
0.40372	0.25320
0.65874	0.22769
0.55673	0.10015
0.42922	0.02363
0.12320	0.30422
0.04670	0.38074
-0.10631	0.40625
-0.13181	0.15117
-0.33583	0.15117
-0.08081	-0.66508
0.32721	0.04914
0.53123	0.15117
0.58223	0.30422
0.73524	0.22769
0.22521	0.27871
-0.18282	0.30422
-0.05531	0.17668
-0.33583	0.07465
-0.43783	0.22769
-0.00431	-0.00188
0.55673	0.04914
0.58223	0.07465
-0.28482	0.15117
0.76074	0.10015
0.70974	0.32972
-0.23382	0.30422
-0.08081	0.20219
-0.05531	0.15117
-0.61635	0.15117
-0.13181	-0.10391
0.25071	0.07465
0.68424	0.12566
0.50573	0.25320
0.68424	0.17668
0.42922	0.50828
-0.41233	0.35523
-0.28482	0.20219
-0.18282	-0.46102
-0.28482	-0.25695
-0.08081	0.38074
0.42922	0.45726
0.58223	0.40625
0.37822	-0.41000
0.60773	-0.35899
0.40372	0.63582
-0.05531	0.61031
-0.31033	0.22769
-0.13181	0.40625
-0.23382	0.17668
0.07220	0.02363
0.30171	-0.25695
0.50573	-0.15492
0.42922	-0.07840
0.58223	0.12566
0.30171	0.15117
-0.13181	0.22769
-0.38683	0.35523
-0.18282	0.27871
-0.13181	0.43176
0.09770	0.04914
0.32721	-0.15492
0.42922	0.04914
0.63323	0.10015
0.65874	0.15117
0.32721	0.27871
-0.08081	0.27871
-0.25932	0.17668
-0.08081	0.27871
-0.18282	0.30422
-0.38683	-0.05289
0.55673	-0.23145
0.99026	-0.05289
0.14870	0.10015
0.65874	0.35523
0.04670	0.35523
-0.00431	-0.07840
-0.13181	-0.07840
-0.10631	0.35523
-0.13181	0.55929
0.02119	0.22769
0.35272	0.20219
0.63323	-0.15492
0.55673	-0.02739
0.55673	0.17668
0.25071	0.22769
-0.13181	0.32972
-0.25932	0.22769
-0.28482	0.02363
-0.41233	-0.05289
-0.10631	0.04914
0.25071	-0.07840
0.53123	0.25320
0.55673	0.40625
0.50573	0.27871
0.42922	0.40625
-0.10631	0.22769
-0.10631	0.10015
-0.18282	0.02363
-0.36133	0.15117
-0.00431	-0.00188
0.27621	-0.05289
0.65874	-0.05289
0.42922	0.22769
0.50573	0.17668
0.60773	0.50828
0.09770	0.32972
-0.53984	0.04914
-0.43783	0.15117
-0.31033	0.32972
0.09770	0.25320
0.42922	0.15117
0.35272	0.02363
0.37822	-0.07840
0.63323	0.04914
0.73524	0.02363
0.30171	0.27871
-1.50890	0.07465
-0.25932	0.27871
-0.25932	0.53379
-0.00431	0.35523
0.42922	0.25320
0.60773	-0.07840
0.68424	-0.25695
0.63323	-0.58856
0.19971	-0.05289
-0.08081	0.76336
-0.13181	0.73785
-0.23382	0.12566
-0.20832	0.32972
-0.20832	-0.05289
0.09770	0.12566
0.53123	0.22769
0.53123	0.30422
0.63323	-0.05289
0.30171	0.04914
-0.05531	-0.05289
-0.08081	-0.02739
-0.23382	0.02363
-0.28482	0.30422
0.17421	0.35523
0.32721	0.25320
0.55673	0.04914
0.55673	0.25320
0.50573	-0.10391
0.42922	0.12566
-0.08081	0.32972
-0.28482	0.27871
-0.08081	0.32972
-0.48884	0.38074
-0.51434	0.15117
0.35272	0.04914
0.63323	-0.12942
0.50573	-0.46102
0.68424	-0.25695
0.12320	0.43176
-0.13181	0.66132
0.17421	0.25320
0.07220	0.17668
-1.17738	0.25320
-0.05531	0.02363
0.53123	0.15117
0.78624	0.43176
-0.00431	-0.07840
0.63323	-0.25695
0.32721	-0.05289
-0.05531	0.20219
-0.15732	0.17668
-0.15732	0.12566
-0.20832	0.68683
-0.08081	0.35523
0.19971	0.22769
0.53123	0.10015
0.55673	0.22769
0.53123	-0.43551
0.40372	0.02363
-0.13181	0.12566
-0.28482	0.22769
-0.20832	0.27871
-0.20832	0.25320
-0.00431	0.02363
0.32721	0.10015
0.63323	0.15117
0.37822	0.22769
0.63323	0.17668
0.30171	0.20219
-0.20832	0.17668
-0.28482	0.12566
-0.15732	0.43176
-0.28482	0.35523
0.09770	0.04914
0.17421	-0.12942
0.42922	-0.05289
0.50573	0.22769
0.78624	0.20219
0.50573	0.27871
-0.25932	0.35523
-0.13181	-0.02739
-0.28482	-0.10391
-0.28482	0.15117
0.02119	0.02363
0.30171	0.07465
0.58223	-0.02739
0.32721	0.25320
0.53123	0.35523
0.22521	0.73785
-0.08081	0.43176
-0.00431	0.12566
-0.25932	-0.43551
-0.18282	-0.05289
-0.02981	0.22769
0.27621	0.30422
0.60773	0.25320
0.53123	-0.18043
0.53123	0.02363
0.35272	0.48277
-0.18282	0.25320
-0.18282	0.15117
-0.28482	0.04914
-0.28482	0.07465
0.17421	-0.02739
0.60773	0.02363
-0.28482	-0.00188
0.68424	0.17668
0.86275	0.07465
0.07220	0.17668
-0.36133	0.20219
-0.18282	0.25320
0.02119	-0.00188
-0.20832	0.35523
0.17421	0.30422
0.27621	0.12566
0.35272	0.04914
0.93925	0.15117
0.37822	0.07465
0.30171	0.20219
-0.28482	0.38074
-0.23382	0.15117
-0.23382	0.17668
-0.48884	0.35523
-0.20832	-0.07840
0.32721	-0.05289
0.53123	0.30422
0.53123	0.15117
0.73524	-0.25695
0.35272	0.25320
-0.10631	0.07465
-0.20832	0.04914
-0.33583	0.32972
-0.25932	0.35523
0.12320	0.61031
0.40372	-0.00188
0.50573	-0.43551
0.50573	-0.02739
0.63323	0.12566
0.22521	0.22769
-0.05531	0.43176
-0.23382	-0.07840
-0.28482	0.22769
-0.38683	0.66132
-0.00431	0.15117
0.32721	-0.00188
0.53123	-0.23145
0.55673	-0.10391
0.68424	-0.10391
-0.20832	0.12566
0.07220	0.38074
-0.66735	0.04914
-0.13181	0.25320
-0.13181	0.32972
0.12320	0.22769
0.42922	0.20219
0.53123	0.02363
0.55673	0.27871
0.60773	0.04914
0.14870	0.10015
-0.41233	0.32972
0.14870	0.17668
-0.00431	0.10015
-0.31033	0.25320
0.02119	0.07465
0.32721	-0.18043
0.58223	0.10015
0.48022	0.25320
0.48022	-0.12942
0.22521	0.10015
-0.08081	0.35523
-0.33583	0.35523
-0.23382	0.12566
-0.28482	0.12566
-0.20832	-0.23145
0.32721	0.32972
0.65874	0.43176
0.48022	0.04914
0.65874	-0.20594
0.55673	0.40625
-0.00431	0.22769
-0.28482	0.10015
-0.31033	-0.05289
-0.38683	0.25320
-0.05531	0.25320
0.37822	0.22769
0.45472	0.10015
0.55673	0.12566
0.63323	-0.02739
0.22521	0.04914
-0.05531	0.30422
-0.18282	0.15117
-0.18282	-0.02739
-0.36133	0.30422
-0.20832	-0.05289
0.27621	-0.00188
0.68424	0.32972
0.40372	0.12566
0.58223	-0.05289
0.53123	0.12566
0.12320	0.15117
-0.18282	0.35523
-0.33583	0.32972
-0.59084	0.38074
0.02119	0.25320
0.63323	0.07465
0.76074	-0.05289
0.68424	0.15117
0.25071	0.15117
0.37822	0.15117
0.19971	0.10015
-0.08081	0.27871
-0.15732	0.07465
-0.48884	0.35523
-0.08081	0.20219
0.32721	0.02363
0.53123	0.15117
0.53123	0.02363
0.42922	-0.51203
0.35272	0.25320
-0.08081	0.58480
-0.15732	0.30422
-0.08081	0.15117
-0.41233	0.02363
-0.02981	0.15117
0.32721	0.38074
0.48022	0.35523
0.45472	-0.20594
0.65874	-0.18043
0.35272	0.38074
-0.02981	0.32972
-0.25932	0.22769
-0.23382	0.12566
-0.25932	0.02363
-0.08081	0.02363
0.09770	-0.07840
0.37822	0.04914
