0.32721	0.35523
0.32721	0.81437
0.40372	-0.02739
0.83725	0.04914
1.04126	-0.15492
0.91375	0.04914
0.25071	0.10015
0.22521	0.30422
-0.08081	0.48277
-0.25932	-0.25695
-0.36133	0.35523
-0.61635	0.43176
-0.25932	0.45726
0.25071	-0.05289
0.30171	-0.23145
0.19971	-0.48652
0.58223	-0.53754
0.32721	-0.00188
0.04670	0.78886
-0.05531	0.38074
-0.05531	0.04914
-0.20832	0.89089
0.02119	0.10015
0.40372	-0.48652
0.68424	-0.10391
0.55673	0.32972
0.63323	0.38074
0.37822	0.55929
-0.23382	0.53379
-0.20832	0.15117
-0.18282	0.15117
-0.46334	0.20219
-0.08081	0.04914
0.22521	0.04914
0.68424	-0.25695
1.06676	-0.10391
0.70974	-0.35899
-0.76936	0.20219
-1.27939	0.35523
-0.00431	0.38074
0.02119	0.48277
-0.18282	0.43176
-0.00431	-0.10391
0.35272	-0.20594
0.81175	-0.33348
0.73524	0.53379
0.50573	0.25320
0.63323	0.15117
-0.15732	0.07465
-0.31033	0.48277
-0.36133	0.22769
-0.38683	0.04914
0.04670	0.35523
-0.05531	0.40625
0.60773	-0.00188
0.55673	-0.63957
0.60773	0.25320
0.37822	0.17668
-0.05531	-0.23145
-0.15732	0.10015
-0.20832	0.55929
-0.33583	0.83988
-0.23382	-0.10391
0.37822	0.12566
0.58223	-0.10391
0.50573	-0.02739
0.60773	-0.00188
0.40372	0.30422
-0.08081	0.17668
-0.20832	0.22769
-0.13181	0.07465
-0.31033	0.66132
-0.05531	0.15117
0.25071	-0.20594
0.73524	-0.35899
0.48022	0.04914
0.35272	0.04914
0.48022	0.07465
-0.10631	0.38074
-0.13181	0.55929
-0.13181	0.66132
-0.76936	0.30422
0.60773	-0.33348
-0.02981	-0.23145
0.91375	0.20219
1.11776	0.04914
-1.02437	-0.02739
-0.33583	0.27871
0.27621	0.30422
0.30171	0.15117
0.14870	0.30422
-0.15732	0.50828
-0.15732	0.10015
0.45472	-0.33348
0.53123	-0.58856
0.55673	-0.02739
0.65874	0.38074
0.32721	0.38074
-0.13181	0.15117
-0.38683	0.99292
-0.25932	0.50828
-0.56534	-0.33348
-0.10631	-0.51203
0.17421	-0.69059
0.65874	0.86539
0.58223	0.78886
0.63323	0.40625
0.50573	0.25320
-0.13181	-0.07840
-0.08081	-0.15492
-0.31033	0.22769
-0.28482	0.12566
-0.10631	0.07465
0.17421	-0.25695
0.70974	0.10015
0.76074	0.32972
0.48022	-0.07840
0.35272	-0.25695
-0.05531	0.30422
0.02119	0.43176
0.04670	0.55929
-1.48340	0.53379
-0.61635	0.12566
0.32721	0.07465
0.27621	0.07465
1.11776	0.04914
1.09226	0.17668
0.32721	-0.18043
-0.00431	-0.30797
-0.64185	0.50828
-0.18282	0.45726
0.04670	0.55929
0.58223	-0.43551
-1.15188	-0.38449
0.68424	0.30422
1.01576	0.91640
0.25071	0.27871
0.58223	-0.43551
0.12320	0.07465
-0.02981	0.32972
-0.15732	-0.00188
-0.33583	0.20219
-0.08081	1.04394
0.27621	0.35523
0.53123	-0.71609
0.42922	-0.25695
0.53123	-0.05289
0.37822	0.66132
-0.10631	1.12046
-0.13181	0.02363
-0.18282	-0.53754
-0.43783	0.22769
-0.20832	0.30422
0.25071	0.25320
0.60773	-0.12942
0.53123	0.12566
0.32721	-0.02739
0.42922	0.10015
0.09770	0.25320
-0.10631	0.12566
-0.08081	0.32972
-0.31033	0.40625
-0.41233	0.32972
0.63323	-0.35899
0.22521	-0.69059
-0.25932	-0.02739
1.04126	0.07465
0.63323	0.55929
0.07220	0.76336
-0.02981	0.38074
-0.23382	-0.02739
-0.02981	0.45726
0.17421	0.15117
-0.53984	-0.15492
0.22521	-0.58856
0.81175	0.04914
0.55673	0.43176
0.48022	0.32972
0.14870	-0.20594
0.02119	0.22769
-0.02981	0.73785
-0.33583	0.99292
-0.46334	-0.86914
0.30171	-0.15492
0.40372	-0.07840
0.63323	0.53379
0.73524	0.02363
0.30171	-0.20594
-0.00431	-0.05289
-0.10631	0.66132
-0.18282	0.76336
0.12320	0.71234
-0.66735	0.12566
0.25071	0.04914
0.45472	-0.25695
0.42922	-0.15492
1.21977	0.12566
0.76074	0.25320
-1.20288	0.17668
-0.00431	-0.07840
0.25071	0.02363
0.35272	0.22769
0.76074	0.04914
1.19427	-0.23145
-1.07538	-0.10391
0.96476	0.17668
0.91375	-0.05289
0.96476	0.48277
0.37822	0.58480
-0.46334	0.30422
0.35272	0.12566
-0.02981	0.40625
0.12320	0.32972
0.27621	-0.02739
0.42922	-0.41000
0.32721	-0.15492
0.63323	0.12566
0.40372	0.76336
-0.18282	-0.18043
-0.61635	-0.10391
-0.51434	0.48277
-0.48884	0.50828
-0.23382	-0.18043
0.35272	-0.43551
0.76074	0.78886
0.81175	0.32972
0.60773	0.48277
0.48022	0.35523
-0.05531	-0.18043
-0.20832	-0.15492
-0.10631	0.10015
-0.53984	0.07465
-0.28482	-0.07840
0.27621	0.02363
0.58223	0.27871
0.86275	0.22769
-0.00431	0.02363
0.40372	0.17668
0.12320	0.17668
0.35272	0.32972
-0.05531	0.15117
-1.12638	0.22769
-0.00431	0.15117
0.45472	-0.05289
0.27621	-0.07840
1.39828	0.22769
-0.28482	0.25320
0.30171	0.30422
-0.76936	0.48277
-0.08081	-0.18043
0.09770	-0.00188
-0.13181	-0.12942
-0.02981	-0.15492
0.27621	0.17668
0.48022	0.25320
0.63323	0.55929
0.53123	0.76336
0.32721	0.20219
-0.08081	0.12566
-0.28482	0.27871
-0.31033	-0.38449
-0.36133	0.12566
-0.31033	-0.18043
0.14870	0.02363
0.70974	0.73785
0.53123	0.07465
0.60773	-0.74160
0.45472	-1.88945
0.02119	0.27871
-0.28482	0.78886
-0.10631	0.99292
-0.31033	1.37554
-0.13181	0.30422
0.42922	0.15117
0.53123	0.30422
0.42922	0.12566
0.68424	-0.05289
0.60773	0.04914
0.09770	0.10015
-0.31033	-0.02739
0.35272	-0.00188
0.86275	0.15117
-2.63097	-0.05289
0.37822	-0.10391
0.81175	0.02363
0.93925	0.04914
0.63323	0.10015
1.06676	-0.02739
0.78624	0.04914
-0.84586	0.55929
-0.71835	0.48277
-0.18282	0.58480
0.19971	0.25320
0.55673	-0.23145
0.65874	-0.58856
0.58223	0.35523
0.55673	0.78886
0.32721	0.81437
-0.18282	-0.05289
-0.33583	0.38074
-0.31033	-0.41000
-0.48884	-0.10391
-0.36133	-0.89465
0.22521	0.10015
0.55673	0.68683
0.58223	0.73785
0.63323	-0.35899
0.37822	-0.30797
-0.00431	0.15117
-0.05531	0.71234
-0.08081	0.55929
-0.28482	0.12566
-0.31033	-0.02739
0.30171	-0.05289
0.60773	0.32972
0.70974	0.20219
0.65874	0.04914
0.53123	0.32972
0.25071	0.32972
-1.76392	0.15117
-0.51434	-0.05289
0.17421	-0.23145
0.76074	0.04914
-1.50890	0.02363
0.07220	0.12566
1.19427	0.15117
0.73524	0.04914
0.78624	0.35523
0.17421	0.32972
-0.05531	0.40625
0.40372	0.10015
-0.15732	0.02363
-0.28482	0.17668
0.07220	0.10015
0.50573	0.02363
0.35272	0.32972
0.48022	-0.15492
0.25071	0.22769
-0.13181	0.38074
-0.15732	0.25320
-0.20832	0.78886
-0.28482	0.63582
-0.18282	-0.38449
0.12320	-0.53754
0.40372	-0.53754
0.60773	0.89089
0.63323	0.07465
0.42922	-0.10391
0.04670	-0.35899
-0.13181	0.43176
-0.13181	0.04914
-0.28482	0.63582
-0.08081	0.35523
0.22521	0.15117
0.60773	0.12566
0.58223	0.17668
0.40372	-0.28246
0.30171	-0.00188
-0.10631	0.27871
-0.41233	0.27871
0.40372	0.22769
0.60773	0.38074
-3.47253	0.04914
0.07220	-0.07840
1.11776	0.12566
1.50029	0.04914
1.83181	-0.15492
-2.73298	0.02363
-0.02981	0.53379
0.27621	0.40625
-0.28482	0.15117
-0.59084	0.50828
-0.23382	0.10015
0.42922	-0.25695
0.63323	-0.30797
0.76074	0.30422
0.83725	0.50828
0.60773	0.61031
-0.00431	0.10015
-0.51434	-0.41000
-0.41233	0.25320
-0.51434	0.30422
-0.20832	-0.07840
0.12320	-0.35899
0.58223	0.48277
0.55673	0.38074
0.68424	-0.05289
0.40372	-0.15492
-0.15732	0.20219
-0.28482	0.38074
-0.00431	0.30422
-0.25932	0.30422
-0.18282	0.22769
0.32721	0.07465
0.58223	-0.05289
0.63323	0.20219
0.63323	0.17668
0.40372	0.27871
0.02119	0.30422
-0.13181	-0.00188
0.12320	-0.25695
-0.25932	0.10015
-1.55991	0.04914
0.60773	-0.05289
0.53123	-0.02739
0.37822	0.25320
0.55673	0.17668
0.42922	0.32972
0.30171	0.48277
-0.05531	0.48277
0.04670	0.20219
-0.10631	0.38074
0.60773	-0.35899
0.42922	-0.28246
-0.46334	0.17668
-0.53984	0.32972
0.53123	0.25320
0.93925	0.48277
0.53123	0.20219
0.17421	-0.00188
0.09770	0.35523
-0.18282	0.30422
-0.13181	-0.28246
0.22521	-1.02219
0.37822	0.02363
0.32721	0.78886
0.42922	-0.58856
0.37822	0.35523
-0.10631	1.24800
-0.23382	0.66132
-0.18282	0.58480
-0.41233	0.48277
-0.28482	-0.30797
0.30171	-0.25695
0.70974	-0.07840
0.50573	0.07465
0.76074	-0.02739
0.53123	0.10015
-0.05531	0.07465
-0.08081	0.04914
-0.46334	-0.07840
-0.10631	0.07465
-0.28482	0.25320
0.99026	0.22769
-0.33583	0.25320
0.25071	0.35523
0.81175	0.17668
1.16877	0.07465
0.60773	0.20219
-1.20288	0.40625
-0.18282	0.27871
0.17421	0.45726
0.27621	-0.25695
0.76074	-0.23145
0.30171	-0.02739
0.55673	0.15117
0.81175	0.22769
0.55673	0.45726
0.12320	-0.15492
-0.18282	0.27871
-0.25932	0.25320
-0.46334	0.48277
-0.18282	0.22769
0.12320	0.02363
0.32721	-0.56305
0.45472	-0.35899
0.53123	0.32972
0.40372	0.12566
0.07220	0.78886
-0.20832	1.06945
-0.08081	0.25320
-0.28482	-0.38449
-0.25932	-0.89465
0.32721	0.04914
0.76074	0.15117
0.07220	0.53379
0.86275	0.20219
0.40372	0.45726
-0.36133	0.48277
0.07220	0.22769
0.09770	-0.02739
0.99026	0.25320
-1.66191	0.02363
-0.41233	-0.12942
-0.28482	-0.23145
0.81175	-0.20594
1.42379	0.27871
2.26534	0.50828
1.52579	0.38074
-2.93700	0.07465
-0.46334	-0.05289
0.07220	0.43176
0.50573	0.22769
0.83725	-0.12942
0.30171	-0.10391
0.78624	0.40625
0.70974	0.15117
0.40372	0.15117
0.02119	0.02363
-0.23382	-0.10391
-0.51434	0.63582
-0.43783	0.66132
-0.28482	0.25320
0.09770	-0.18043
0.45472	-0.15492
0.53123	0.22769
0.40372	-0.63957
0.50573	0.35523
0.04670	0.53379
-0.08081	0.66132
-0.13181	-0.28246
-0.38683	0.43176
-0.08081	0.30422
0.32721	0.63582
0.53123	-0.15492
0.60773	-0.53754
0.68424	-0.33348
0.35272	0.22769
-0.02981	0.30422
-0.08081	0.25320
-0.43783	0.20219
0.22521	0.48277
-0.71835	0.22769
0.60773	-0.00188
2.36734	-0.05289
-1.99343	0.20219
-0.56534	-0.07840
0.81175	-0.02739
0.78624	-0.28246
-0.53984	0.27871
0.27621	0.15117
-0.02981	0.38074
0.96476	0.66132
-0.92237	0.30422
0.32721	0.02363
0.63323	-0.23145
0.70974	-0.38449
0.53123	0.04914
0.14870	0.73785
-0.18282	0.38074
-0.59084	0.12566
-0.43783	0.35523
-0.13181	0.22769
0.27621	0.38074
0.42922	-0.41000
0.40372	-0.76711
0.60773	0.04914
0.48022	0.68683
0.02119	0.35523
-0.25932	0.12566
-0.15732	0.17668
-0.10631	0.20219
-0.25932	0.22769
-0.18282	0.45726
0.68424	-0.02739
0.70974	0.66132
0.65874	-0.30797
0.50573	-0.41000
0.25071	-0.05289
0.12320	0.22769
-0.69285	0.55929
0.83725	0.68683
0.42922	0.10015
-4.33958	-0.23145
1.72980	0.10015
-1.17738	0.07465
0.86275	-0.18043
1.90832	0.25320
1.78081	0.40625
-3.70204	0.07465
-0.69285	0.02363
-0.13181	0.35523
-0.02981	-0.07840
0.55673	0.15117
0.86275	-0.05289
0.68424	-0.02739
0.68424	-0.05289
0.30171	0.02363
0.12320	0.61031
-0.28482	0.94191
-0.82036	0.89089
-0.46334	0.07465
-0.36133	-0.02739
0.12320	-0.35899
0.58223	-0.48652
0.60773	0.61031
0.65874	-0.18043
0.42922	-0.30797
0.09770	0.35523
-0.13181	-0.05289
-0.20832	0.02363
-0.31033	0.40625
-0.05531	0.38074
0.25071	-0.00188
0.53123	-0.12942
0.48022	0.02363
0.63323	0.30422
0.09770	0.40625
0.73524	0.48277
-0.94787	0.43176
0.63323	0.04914
-1.04987	0.10015
-1.61091	0.04914
0.83725	0.02363
1.95932	-0.02739
-1.91693	0.20219
-0.02981	-0.07840
0.73524	0.12566
0.35272	0.22769
0.25071	0.07465
-0.18282	0.12566
-0.31033	0.68683
0.17421	0.20219
0.17421	-0.35899
0.55673	-0.61406
0.50573	0.48277
0.45472	0.04914
0.19971	0.32972
-0.28482	0.71234
-0.25932	0.17668
-0.18282	0.30422
-0.38683	-0.41000
-0.18282	0.53379
0.22521	0.58480
0.45472	-0.00188
0.50573	-0.35899
0.68424	-0.43551
0.48022	0.20219
0.07220	0.38074
-0.13181	0.55929
0.07220	0.32972
-0.66735	0.45726
-0.36133	0.10015
0.25071	-0.07840
0.81175	-0.30797
0.53123	0.07465
0.70974	-0.25695
-0.15732	-0.25695
0.58223	0.20219
0.83725	0.43176
-1.22839	0.45726
-1.43240	0.45726
-1.15188	0.15117
0.86275	0.25320
2.74987	-0.02739
3.18340	0.10015
-0.99887	0.25320
1.01576	0.10015
-1.58541	0.53379
0.02119	0.53379
0.19971	0.07465
0.19971	-0.48652
0.12320	0.04914
-0.02981	-0.28246
0.09770	0.27871
0.30171	0.35523
0.65874	0.55929
0.09770	0.12566
-0.02981	-0.23145
-0.15732	0.17668
-0.13181	-0.02739
-0.31033	0.32972
-0.38683	0.35523
0.14870	0.76336
0.58223	0.17668
0.50573	-0.89465
0.55673	0.15117
0.53123	0.68683
0.04670	-0.10391
-0.10631	0.22769
-0.08081	0.66132
-0.38683	0.43176
-0.15732	-0.30797
0.50573	-0.35899
-0.10631	-0.00188
0.40372	0.02363
0.73524	0.10015
1.37278	0.38074
-0.48884	0.55929
-1.50890	0.32972
0.81175	0.25320
-1.99343	0.22769
-0.05531	-0.18043
0.53123	-0.12942
0.78624	-0.10391
0.88825	0.15117
0.99026	0.22769
1.06676	0.12566
-0.08081	0.30422
-0.00431	0.27871
-1.07538	0.07465
-0.31033	0.22769
-0.28482	0.17668
-0.59084	0.38074
1.27078	0.38074
-0.28482	-0.43551
0.99026	-0.97117
0.60773	-0.38449
0.14870	0.99292
-0.02981	0.81437
-0.05531	0.02363
-0.18282	0.99292
-0.10631	0.73785
0.22521	-0.00188
0.50573	-0.46102
0.45472	0.10015
0.42922	-0.15492
0.30171	0.15117
-0.02981	-0.10391
-0.25932	0.66132
-0.28482	0.50828
-0.15732	-0.28246
-0.02981	-0.05289
0.25071	-0.00188
0.68424	0.35523
-0.05531	0.55929
0.42922	0.20219
0.86275	0.20219
0.04670	-0.05289
-0.08081	0.20219
0.12320	0.04914
0.17421	0.17668
-1.53441	0.32972
-0.46334	-0.10391
0.91375	0.30422
0.40372	0.07465
0.27621	-0.25695
-0.53984	0.30422
0.07220	0.40625
0.12320	0.61031
0.50573	0.07465
0.02119	0.04914
0.25071	-0.07840
0.07220	0.20219
0.22521	0.12566
0.93925	0.22769
-0.84586	-0.51203
0.53123	0.02363
0.14870	0.68683
-0.13181	0.35523
-0.13181	-0.00188
-0.15732	0.48277
-0.28482	0.27871
0.30171	-0.00188
0.48022	-0.15492
0.58223	0.22769
0.55673	0.07465
0.37822	0.22769
0.07220	0.30422
-0.41233	-0.10391
-0.02981	-0.25695
-0.28482	0.30422
-0.23382	0.48277
0.02119	-0.05289
0.50573	-0.05289
0.81175	0.22769
0.63323	0.53379
0.50573	0.20219
0.07220	-0.18043
-0.31033	0.27871
-0.05531	0.30422
-0.41233	0.25320
-0.10631	0.15117
0.02119	-0.07840
0.63323	0.15117
0.65874	0.17668
1.32178	-0.05289
-0.82036	-0.02739
-0.46334	0.27871
-0.20832	0.50828
0.30171	0.20219
-0.97337	-0.18043
0.02119	0.25320
0.32721	0.12566
0.68424	-0.48652
0.48022	-0.25695
0.68424	0.12566
0.45472	0.53379
0.19971	0.81437
-0.15732	0.22769
-0.28482	0.02363
-0.15732	0.40625
-0.13181	0.25320
0.30171	-0.15492
-0.36133	-0.61406
0.70974	-0.20594
0.22521	-0.05289
0.53123	0.43176
0.40372	0.53379
-0.28482	0.15117
-0.46334	0.12566
-0.18282	0.35523
0.42922	0.35523
-0.05531	0.30422
0.22521	0.02363
0.53123	-0.38449
0.88825	-0.76711
0.78624	-0.00188
-0.15732	0.63582
-0.59084	0.27871
-0.20832	0.53379
-0.25932	0.66132
1.09226	0.07465
-0.25932	0.17668
-1.73842	0.35523
0.45472	-0.38449
0.78624	-0.43551
0.65874	-0.35899
0.48022	0.66132
0.27621	0.27871
-0.64185	0.50828
-0.20832	0.48277
0.02119	-0.05289
0.32721	-0.15492
0.48022	-0.05289
0.50573	0.38074
0.55673	-0.12942
0.27621	-0.10391
-0.00431	0.38074
-0.25932	0.50828
-0.36133	0.20219
-0.23382	-0.25695
-0.18282	0.30422
0.04670	0.10015
0.45472	0.35523
0.63323	0.35523
0.53123	-0.00188
0.53123	0.02363
0.12320	0.15117
-0.18282	0.10015
0.22521	0.17668
0.02119	0.10015
-0.53984	0.12566
0.19971	0.10015
0.63323	0.07465
0.65874	0.17668
-0.38683	-0.20594
0.37822	0.15117
-0.66735	0.55929
0.53123	0.27871
0.02119	0.25320
-0.15732	0.32972
0.50573	0.55929
0.76074	0.10015
0.12320	-0.79262
-0.33583	-0.28246
0.53123	-0.15492
1.16877	0.45726
-0.71835	0.48277
0.07220	0.17668
-0.23382	0.25320
-0.13181	0.73785
-0.20832	-0.18043
0.30171	-0.05289
0.55673	0.38074
0.42922	0.27871
0.63323	0.10015
0.40372	0.10015
0.02119	-0.00188
-0.15732	-0.18043
-0.38683	0.27871
-0.20832	0.22769
-0.28482	-0.00188
0.04670	-0.20594
0.53123	0.25320
0.55673	0.17668
0.63323	0.22769
0.55673	0.35523
-0.05531	-0.02739
-0.20832	0.40625
-0.08081	0.12566
-0.28482	0.43176
-0.20832	0.43176
0.02119	0.12566
1.24527	-0.15492
0.32721	-0.07840
0.04670	0.04914
0.70974	0.12566
0.04670	0.25320
-0.02981	0.15117
0.50573	0.15117
-0.64185	0.15117
-0.46334	0.10015
0.30171	0.17668
0.48022	-0.23145
0.76074	0.12566
0.68424	0.35523
0.53123	0.40625
0.12320	0.25320
-0.02981	0.02363
-0.23382	0.12566
-0.08081	-0.00188
-0.87136	0.02363
0.09770	0.83988
0.60773	0.20219
0.70974	-0.35899
0.58223	0.07465
0.09770	0.32972
0.07220	0.10015
-0.13181	0.55929
-0.02981	0.40625
-0.23382	0.45726
-0.28482	-0.28246
0.07220	-0.10391
0.65874	0.12566
0.63323	0.15117
0.17421	0.04914
0.65874	0.38074
-0.18282	-0.15492
-0.08081	-0.30797
0.14870	0.38074
-0.13181	0.66132
-0.66735	0.55929
0.88825	0.04914
0.25071	0.04914
0.50573	0.22769
0.76074	0.04914
1.29628	0.20219
0.76074	0.53379
-0.66735	-0.07840
-0.38683	0.04914
-1.38139	-0.23145
0.07220	0.02363
0.42922	0.25320
0.60773	0.25320
0.65874	0.43176
0.68424	0.04914
0.53123	0.15117
-0.05531	-0.05289
-0.25932	0.04914
-0.13181	0.50828
-0.41233	0.58480
-0.31033	0.66132
0.17421	-0.71609
0.45472	-0.48652
0.32721	0.32972
0.48022	0.53379
0.53123	0.04914
0.02119	-0.00188
-0.05531	0.15117
-0.13181	0.40625
-0.31033	0.40625
-0.15732	0.12566
0.17421	-0.10391
0.48022	-0.18043
0.53123	-0.15492
0.55673	0.02363
0.32721	0.35523
0.12320	0.61031
0.07220	0.45726
-0.23382	-0.00188
-0.36133	-0.20594
-0.15732	0.22769
-0.25932	0.25320
0.60773	0.17668
0.55673	0.30422
1.52579	0.17668
1.90832	-0.33348
-5.41065	-0.07840
-0.31033	0.40625
-0.08081	0.27871
0.04670	0.20219
0.70974	-0.05289
0.60773	0.04914
0.81175	-0.15492
0.27621	0.25320
0.99026	0.35523
0.25071	0.53379
-0.00431	0.02363
-0.08081	0.50828
-0.18282	-0.30797
-0.33583	-0.41000
-0.23382	0.10015
-0.00431	0.02363
0.42922	0.45726
0.50573	0.32972
0.55673	1.06945
0.48022	0.53379
-0.00431	-0.43551
-0.23382	-0.30797
-0.10631	0.25320
-0.36133	0.02363
-0.23382	0.25320
0.19971	0.10015
0.63323	0.12566
0.65874	0.04914
0.58223	-0.18043
0.50573	0.32972
0.09770	0.30422
-0.10631	-0.00188
-0.28482	-0.33348
-0.20832	0.50828
-0.79486	0.30422
0.12320	-0.05289
0.45472	0.02363
0.55673	0.35523
0.65874	0.10015
0.53123	0.25320
0.22521	0.32972
0.58223	0.35523
-0.71835	0.10015
-1.02437	0.20219
-0.13181	-0.15492
0.40372	-0.28246
0.12320	0.15117
0.78624	0.07465
0.96476	0.12566
0.91375	0.25320
-0.31033	0.32972
0.40372	0.43176
-1.33039	0.38074
-0.18282	0.55929
-0.00431	0.63582
0.32721	-1.12422
0.58223	-0.61406
0.63323	-0.10391
0.48022	0.04914
0.50573	0.68683
-0.00431	0.58480
-0.23382	0.27871
-0.23382	0.81437
-0.41233	0.20219
-0.31033	-0.43551
0.22521	-0.25695
0.55673	0.04914
0.45472	0.35523
0.60773	0.07465
0.50573	0.27871
0.04670	0.40625
0.07220	0.27871
-0.02981	0.15117
-0.66735	0.10015
-0.20832	0.12566
0.40372	-0.05289
0.55673	-0.12942
0.83725	0.04914
-0.28482	0.04914
0.32721	0.22769
0.12320	0.35523
-0.08081	0.17668
-0.15732	-0.20594
0.35272	0.17668
0.30171	0.43176
-0.82036	0.63582
0.14870	0.02363
0.83725	-0.28246
0.63323	-0.00188
0.63323	-0.10391
0.04670	0.40625
-0.08081	0.55929
-0.33583	-0.53754
-0.33583	0.73785
-0.15732	0.81437
0.14870	1.14597
0.35272	-0.23145
0.50573	-0.84363
0.63323	-0.53754
0.40372	0.25320
0.17421	0.12566
-0.20832	0.02363
-0.31033	0.35523
-0.10631	0.25320
0.27621	0.38074
-0.46334	0.07465
0.35272	0.04914
0.55673	0.10015
0.65874	0.17668
0.58223	0.20219
0.35272	0.25320
-0.59084	0.10015
0.35272	0.20219
-1.45790	0.22769
0.02119	0.12566
0.40372	0.02363
0.50573	-0.10391
0.88825	0.35523
0.19971	0.02363
0.48022	-0.07840
0.12320	0.27871
-0.08081	-0.10391
0.09770	0.17668
-0.59084	0.53379
-0.43783	0.20219
0.19971	0.25320
0.65874	0.10015
0.55673	0.07465
0.45472	-0.00188
0.40372	-0.02739
-0.00431	0.20219
0.04670	0.32972
0.12320	0.20219
-1.20288	0.32972
-0.20832	-0.12942
-0.00431	-0.00188
0.58223	-0.00188
0.73524	0.17668
0.45472	0.48277
0.58223	-0.35899
0.12320	0.30422
-0.02981	0.38074
0.12320	-0.10391
-0.28482	0.61031
-0.38683	0.50828
0.09770	0.27871
0.35272	0.07465
0.30171	-0.35899
0.68424	-0.61406
0.60773	0.04914
0.19971	0.66132
-0.00431	0.17668
-0.33583	0.27871
-0.31033	0.30422
-0.02981	0.43176
0.37822	-0.05289
-0.36133	-0.00188
0.17421	-0.25695
0.73524	0.12566
1.67880	0.12566
-0.82036	0.30422
-0.18282	0.22769
-0.08081	0.07465
-0.05531	0.30422
-0.13181	0.38074
0.32721	0.30422
0.55673	-0.07840
0.78624	0.04914
0.45472	0.10015
0.40372	-0.25695
0.09770	0.68683
-0.08081	0.94191
-0.33583	-0.15492
-0.41233	-0.48652
-0.25932	-0.46102
0.14870	-0.18043
0.50573	0.48277
0.63323	0.63582
0.50573	0.20219
0.53123	0.43176
-0.05531	0.04914
-0.18282	0.20219
-0.18282	0.48277
-0.10631	0.35523
-0.33583	-0.41000
0.25071	-0.38449
-0.10631	-0.18043
-0.08081	0.17668
0.70974	-0.00188
1.42379	0.22769
-0.00431	0.40625
0.09770	0.55929
0.14870	0.45726
-0.20832	0.50828
-0.28482	0.02363
-0.10631	0.35523
-0.00431	-0.41000
0.55673	0.04914
0.68424	0.22769
0.35272	0.02363
-0.02981	0.17668
-0.13181	-0.20594
0.09770	0.35523
-0.48884	0.38074
-0.31033	0.32972
0.17421	-0.28246
0.81175	0.22769
0.45472	-0.07840
0.48022	0.22769
0.50573	0.71234
-0.00431	0.61031
-0.08081	-0.10391
-0.13181	-0.74160
-0.31033	-0.00188
-0.08081	-0.02739
-0.46334	0.35523
0.48022	0.22769
0.48022	0.04914
0.60773	0.25320
0.40372	0.17668
0.09770	0.15117
-0.13181	0.02363
-0.10631	0.45726
-0.23382	0.86539
-0.20832	0.10015
0.22521	-0.30797
0.70974	-0.07840
1.16877	-0.33348
-0.66735	-0.10391
-0.00431	0.63582
-0.31033	0.53379
0.17421	-0.05289
0.14870	0.15117
0.12320	0.53379
-0.28482	0.10015
0.12320	-0.05289
1.16877	0.12566
0.30171	0.07465
-0.64185	-0.07840
0.30171	0.07465
0.37822	0.17668
-0.02981	0.30422
-0.18282	0.27871
-0.25932	0.40625
0.17421	0.10015
0.04670	-0.41000
0.50573	-0.30797
0.53123	-0.05289
0.55673	0.40625
0.48022	0.73785
0.14870	0.61031
0.09770	0.50828
-0.23382	-0.43551
-1.02437	-0.10391
-0.25932	0.83988
0.32721	0.25320
0.55673	-0.38449
0.55673	-0.12942
0.70974	-0.05289
0.53123	0.17668
0.02119	0.38074
-0.10631	0.22769
-0.18282	0.12566
-0.28482	0.22769
-0.33583	0.45726
0.17421	-0.58856
0.48022	-0.48652
0.55673	0.55929
0.60773	0.02363
0.42922	0.25320
0.09770	0.83988
-0.02981	0.63582
0.12320	0.53379
-1.48340	0.15117
0.17421	-0.18043
-0.18282	0.07465
0.40372	-0.12942
0.81175	-0.05289
1.29628	0.02363
-0.02981	0.04914
-0.13181	0.22769
0.04670	0.10015
0.07220	0.25320
-0.02981	0.32972
-0.13181	0.20219
0.09770	0.20219
0.35272	0.25320
0.42922	-0.30797
0.53123	-0.84363
0.35272	-0.00188
-0.00431	0.76336
-0.15732	0.76336
-0.08081	0.83988
-0.36133	0.71234
-0.33583	0.12566
0.19971	-0.18043
0.40372	-0.38449
0.58223	-0.20594
0.53123	0.12566
0.60773	0.17668
0.07220	0.38074
-0.10631	-0.25695
-0.13181	-0.05289
-0.25932	0.32972
-0.43783	0.12566
0.14870	0.04914
0.53123	0.32972
0.58223	-0.23145
0.45472	0.10015
0.65874	0.32972
0.12320	0.35523
-0.36133	0.53379
-0.18282	0.27871
-0.05531	0.55929
0.19971	0.32972
-0.13181	-0.25695
-0.59084	-0.30797
0.48022	0.07465
0.63323	0.02363
0.76074	0.20219
0.42922	0.32972
-0.69285	0.25320
-0.28482	0.10015
-0.15732	0.10015
-0.48884	0.20219
0.09770	0.02363
0.58223	-0.12942
0.63323	0.10015
0.68424	-0.00188
1.01576	0.30422
0.30171	0.38074
-1.10088	0.10015
-0.18282	-0.30797
-0.08081	0.12566
-0.08081	0.35523
0.25071	0.66132
0.53123	0.55929
0.53123	0.07465
0.55673	0.12566
0.45472	-0.25695
0.14870	0.35523
-0.05531	0.17668
-0.43783	-0.28246
-0.48884	0.35523
-0.25932	0.50828
0.09770	0.30422
0.60773	-0.89465
0.73524	-0.86914
0.58223	0.55929
0.58223	0.76336
0.09770	0.55929
-0.08081	0.53379
-0.25932	0.10015
-0.33583	0.38074
-0.05531	0.35523
0.35272	-0.48652
0.22521	-0.00188
0.50573	-0.15492
0.81175	-0.51203
-0.02981	0.35523
0.37822	0.55929
0.37822	0.58480
-0.10631	0.07465
-0.31033	0.15117
-0.23382	0.17668
0.09770	0.12566
0.60773	-0.02739
0.48022	0.07465
0.50573	-0.02739
0.27621	-0.05289
-0.02981	-0.05289
-0.31033	-0.10391
-0.18282	0.61031
-0.20832	0.71234
-0.18282	0.83988
0.17421	0.40625
0.53123	-0.38449
0.55673	-0.41000
0.55673	-0.33348
0.48022	0.02363
0.12320	0.30422
-0.25932	0.04914
-0.25932	0.15117
-0.08081	0.83988
-0.28482	0.55929
0.19971	0.07465
0.50573	-0.30797
0.55673	-0.10391
0.53123	0.32972
0.50573	0.27871
0.12320	0.17668
-0.05531	0.10015
-0.28482	0.02363
-0.25932	-0.41000
-0.20832	0.17668
0.12320	0.55929
0.83725	0.38074
1.14327	0.15117
-1.45790	-0.12942
0.45472	0.07465
0.12320	0.30422
0.09770	0.17668
0.14870	-0.25695
0.25071	-0.10391
0.37822	0.45726
-0.71835	0.30422
0.76074	0.17668
-0.15732	-0.07840
0.27621	-0.10391
0.60773	0.35523
0.32721	0.86539
0.07220	0.12566
-0.20832	-0.15492
-0.28482	0.35523
-0.28482	0.10015
-0.02981	-0.02739
0.27621	-0.02739
0.35272	-0.33348
0.48022	0.07465
0.55673	0.83988
0.07220	1.01843
-0.25932	-0.25695
-0.18282	-0.41000
-0.08081	0.78886
-0.20832	0.20219
0.12320	-0.38449
0.50573	-0.07840
0.60773	0.25320
0.70974	0.32972
0.40372	0.04914
0.02119	0.10015
-0.25932	0.07465
-0.20832	0.66132
-0.08081	0.50828
-0.18282	-0.05289
-0.36133	-0.30797
0.58223	0.45726
0.48022	0.30422
0.42922	-0.00188
1.21977	-0.12942
0.68424	0.12566
-0.00431	0.04914
-1.25389	0.30422
-0.25932	0.45726
0.40372	0.27871
1.39828	-0.12942
-0.02981	0.02363
0.12320	0.04914
0.73524	0.04914
0.65874	0.15117
0.30171	0.15117
0.12320	0.32972
-0.28482	0.40625
-0.38683	0.63582
-0.23382	-0.18043
0.22521	-0.28246
0.40372	0.15117
0.48022	0.53379
0.42922	-0.10391
0.45472	-0.30797
0.14870	0.22769
-0.08081	0.89089
-0.25932	0.55929
-0.20832	-0.12942
-0.36133	0.12566
0.12320	0.04914
0.48022	-0.38449
0.55673	0.32972
0.50573	0.40625
0.65874	0.27871
0.22521	0.12566
-0.28482	-0.10391
-0.20832	-0.25695
-0.25932	0.38074
-0.15732	0.12566
-0.00431	0.10015
0.76074	0.07465
0.25071	0.20219
0.60773	-0.05289
0.65874	0.25320
0.42922	0.43176
-0.10631	0.15117
-0.43783	-0.05289
-0.43783	0.25320
0.37822	0.20219
-1.45790	-0.18043
0.81175	0.02363
0.73524	-0.02739
0.70974	-0.05289
0.93925	0.25320
0.27621	0.53379
-0.10631	0.22769
-0.13181	0.30422
-0.64185	0.45726
-0.33583	0.17668
-0.00431	-0.25695
0.42922	-0.20594
0.50573	0.25320
0.48022	0.07465
0.42922	-0.33348
0.27621	-0.07840
-0.02981	0.68683
-0.15732	-0.10391
-0.18282	0.45726
-0.23382	0.30422
-0.00431	-0.63957
0.42922	0.71234
0.55673	0.99292
0.37822	0.43176
0.48022	-0.15492
0.12320	-0.18043
-0.23382	-0.15492
-0.23382	-0.07840
-0.23382	0.12566
-0.25932	0.10015
0.19971	-0.07840
0.37822	0.02363
0.70974	-0.18043
0.55673	0.22769
1.01576	0.27871
1.90832	0.45726
-0.64185	0.43176
-2.52897	0.22769
0.25071	0.71234
0.78624	0.10015
-0.18282	0.04914
1.21977	0.04914
1.24527	-0.07840
1.06676	-0.10391
0.78624	-0.20594
0.35272	0.43176
-0.51434	1.01843
-0.28482	0.02363
-0.38683	-0.46102
-0.41233	0.78886
-0.00431	-0.07840
0.22521	-0.43551
0.35272	-0.23145
0.42922	-0.25695
0.30171	0.10015
-0.00431	0.86539
-0.10631	0.89089
-0.20832	0.30422
-0.08081	0.10015
-0.23382	-0.05289
0.17421	0.27871
0.48022	-0.53754
0.68424	-0.07840
0.53123	-0.18043
0.55673	0.12566
0.17421	0.38074
-0.10631	0.12566
-0.25932	-0.25695
-0.53984	0.50828
-0.33583	0.48277
0.35272	0.53379
0.58223	-0.05289
0.70974	-0.05289
0.37822	0.12566
0.65874	-0.00188
0.22521	0.04914
-1.22839	0.25320
0.12320	0.07465
0.27621	0.07465
-0.99887	0.15117
0.22521	0.20219
0.27621	0.15117
0.04670	0.48277
0.81175	-0.15492
0.22521	-0.28246
0.63323	0.25320
0.07220	0.12566
0.27621	0.38074
1.04126	0.45726
-1.81492	0.38074
0.37822	-0.05289
0.60773	-0.15492
0.70974	0.27871
0.63323	-0.25695
0.37822	-0.66508
0.02119	0.35523
-0.15732	0.30422
-0.25932	0.55929
-0.20832	0.50828
-0.25932	0.35523
0.09770	-0.20594
0.45472	-0.15492
0.42922	0.35523
0.42922	-0.20594
0.68424	-0.41000
0.14870	-0.15492
-0.33583	0.43176
-0.08081	1.01843
-0.10631	0.27871
-0.23382	-0.02739
0.22521	0.04914
0.60773	0.12566
0.55673	0.25320
0.48022	0.25320
0.48022	0.17668
0.19971	0.02363
-0.18282	0.20219
-0.25932	0.04914
-0.25932	0.15117
-0.31033	0.25320
0.22521	0.07465
0.73524	0.02363
1.39828	-0.18043
-0.20832	0.02363
-0.99887	-0.07840
0.32721	0.43176
0.65874	0.48277
-0.56534	0.61031
0.07220	0.22769
-0.00431	-0.35899
0.40372	-0.41000
0.55673	-0.02739
0.53123	0.17668
0.35272	0.27871
0.42922	0.04914
-0.08081	0.48277
-0.31033	0.25320
-0.28482	0.38074
-0.33583	-0.18043
-0.28482	0.48277
0.14870	0.83988
0.42922	-0.61406
0.58223	-0.99668
0.55673	0.04914
0.65874	0.83988
0.12320	0.43176
-0.08081	0.61031
-0.05531	0.58480
-0.23382	-0.15492
-0.48884	-0.61406
0.19971	-0.15492
0.48022	0.15117
0.50573	0.15117
0.48022	0.22769
0.65874	0.35523
0.14870	0.35523
-0.56534	0.10015
-0.33583	0.17668
-0.13181	0.30422
-0.28482	0.20219
0.30171	-0.00188
0.68424	0.02363
0.63323	0.12566
0.70974	0.07465
-0.38683	0.10015
0.48022	0.40625
-0.18282	0.27871
-0.28482	0.15117
-0.76936	0.15117
-0.08081	0.15117
0.27621	-0.18043
0.65874	0.02363
0.78624	-0.23145
0.73524	0.12566
0.60773	-0.33348
-0.15732	0.86539
-0.00431	0.61031
-0.23382	0.30422
-0.38683	-0.00188
-0.41233	-0.12942
0.02119	0.43176
0.48022	0.07465
0.63323	-0.05289
0.40372	0.15117
0.50573	0.12566
0.14870	0.20219
-0.20832	0.25320
-0.18282	0.32972
-0.25932	0.55929
-0.38683	-0.05289
0.17421	0.27871
0.50573	-0.76711
0.65874	-0.58856
0.60773	0.38074
0.58223	0.50828
0.53123	0.86539
-1.38139	0.45726
-0.38683	-0.12942
-0.05531	-0.00188
-0.02981	0.04914
0.14870	-0.28246
0.68424	0.07465
0.73524	0.10015
0.88825	0.20219
-0.13181	0.32972
0.09770	0.38074
-0.13181	0.38074
-0.18282	0.22769
-0.74385	0.32972
-0.41233	0.30422
0.48022	-0.18043
0.83725	-0.07840
0.91375	-0.07840
0.25071	0.40625
0.09770	0.20219
0.50573	-0.10391
-0.10631	-0.76711
-0.02981	-0.38449
-0.10631	0.86539
-0.05531	0.17668
-0.13181	0.20219
0.53123	0.30422
0.45472	0.73785
0.53123	0.55929
0.48022	0.27871
0.07220	-0.18043
-0.13181	0.10015
-0.28482	-0.41000
-0.28482	-0.20594
-0.13181	-0.15492
-0.08081	-0.25695
0.60773	0.38074
0.65874	0.61031
0.42922	0.25320
0.55673	0.30422
0.30171	0.40625
-0.28482	0.22769
-0.13181	0.20219
-0.38683	-0.02739
-0.31033	0.04914
0.32721	-0.02739
0.45472	-0.07840
0.48022	0.17668
0.88825	0.02363
0.93925	0.15117
-0.38683	0.58480
0.02119	0.35523
-0.79486	0.20219
-0.08081	-0.10391
-0.15732	-0.46102
0.53123	-0.28246
-0.61635	-0.07840
0.86275	0.68683
0.78624	0.76336
0.27621	0.43176
0.48022	0.35523
0.63323	0.48277
-1.66191	-0.02739
-0.25932	0.17668
-0.31033	-0.07840
0.32721	0.22769
0.60773	0.30422
0.65874	-0.74160
0.65874	-0.46102
0.53123	0.22769
0.04670	0.22769
-0.38683	-0.07840
-0.23382	0.40625
-0.10631	0.76336
-0.36133	0.50828
0.04670	0.07465
0.48022	0.32972
0.53123	-0.58856
0.60773	-0.30797
0.50573	-0.07840
0.04670	0.30422
-0.02981	0.66132
-0.28482	0.35523
-0.05531	0.27871
-0.08081	0.48277
-0.20832	-0.30797
-0.00431	-0.20594
0.63323	0.12566
0.83725	0.27871
0.81175	0.20219
0.48022	0.30422
-0.33583	0.22769
-0.25932	0.20219
-0.08081	0.12566
0.35272	0.02363
-0.79486	-0.00188
-0.15732	0.12566
0.50573	0.04914
0.63323	0.17668
0.86275	-0.00188
0.37822	0.43176
-0.13181	-0.51203
-0.13181	-0.12942
-0.10631	0.78886
-0.31033	0.58480
0.17421	0.78886
0.42922	0.27871
0.40372	0.04914
0.40372	-0.33348
0.53123	-0.58856
0.09770	0.25320
-0.18282	0.96742
-0.18282	0.43176
-0.31033	-0.81812
-0.28482	-0.43551
0.19971	0.25320
0.40372	0.15117
0.55673	-0.00188
0.53123	0.43176
0.50573	0.27871
0.17421	0.04914
-0.10631	0.40625
-0.23382	0.43176
-0.20832	0.38074
-0.18282	0.25320
0.14870	0.04914
0.50573	-0.25695
0.93925	0.04914
0.60773	0.17668
0.99026	0.02363
-1.61091	0.20219
0.19971	0.22769
0.14870	0.20219
0.14870	0.20219
-0.13181	0.02363
0.35272	0.10015
0.88825	0.12566
-0.13181	0.10015
0.09770	-0.30797
0.32721	0.10015
0.12320	0.17668
-0.13181	1.04394
0.09770	0.10015
-0.23382	0.22769
-0.28482	0.04914
-0.00431	-0.12942
0.88825	0.32972
-0.18282	0.20219
0.40372	-0.56305
0.48022	-0.74160
0.35272	0.89089
0.07220	0.61031
-0.08081	1.19699
-0.18282	0.20219
-0.15732	-0.25695
-0.00431	-0.79262
0.40372	0.04914
0.55673	0.30422
0.42922	0.12566
0.35272	0.25320
0.19971	0.38074
-0.13181	0.02363
-0.28482	0.20219
-0.18282	0.53379
-0.31033	0.17668
0.02119	-0.28246
0.40372	-0.05289
0.63323	0.10015
0.55673	0.10015
0.48022	0.10015
0.27621	0.25320
-0.23382	0.25320
-0.46334	0.07465
-0.51434	0.45726
0.40372	0.43176
1.11776	0.20219
0.35272	0.04914
-0.84586	-0.10391
0.83725	0.02363
0.88825	0.27871
0.53123	0.07465
0.17421	0.35523
-0.02981	0.12566
-0.41233	0.15117
-0.00431	-0.00188
0.48022	-0.46102
-0.43783	-0.35899
0.60773	0.17668
0.60773	0.66132
0.58223	0.55929
0.25071	0.48277
-0.10631	0.32972
-0.20832	-0.46102
-0.18282	0.86539
-0.28482	0.25320
0.07220	0.27871
0.42922	-0.25695
0.42922	-0.43551
0.50573	-0.38449
0.53123	0.20219
0.12320	0.15117
-0.13181	0.15117
-0.08081	0.32972
-0.20832	0.25320
-0.38683	0.32972
0.07220	0.12566
0.48022	0.27871
0.58223	0.07465
0.40372	-0.15492
0.60773	0.15117
0.25071	0.55929
-0.15732	0.38074
-0.10631	0.04914
-0.20832	-0.00188
-0.23382	0.07465
-0.10631	-0.02739
0.40372	-0.12942
0.27621	-0.05289
0.25071	0.17668
0.96476	0.27871
0.25071	0.32972
-0.71835	0.22769
-0.00431	0.38074
0.09770	0.20219
-0.53984	0.32972
0.25071	-0.07840
0.63323	-0.28246
0.42922	0.17668
0.48022	-0.46102
0.48022	0.12566
0.14870	0.48277
-0.15732	0.83988
-0.25932	0.38074
-0.28482	0.50828
-0.28482	0.66132
-0.00431	-0.69059
0.45472	-0.38449
0.55673	0.10015
0.45472	0.30422
0.45472	0.15117
0.17421	0.45726
-0.08081	0.12566
-0.20832	-0.53754
-0.28482	-0.74160
-0.25932	0.22769
0.12320	0.55929
0.40372	0.83988
0.63323	0.61031
0.58223	-0.00188
0.50573	0.02363
0.07220	0.10015
-0.28482	0.04914
-0.23382	-0.07840
-0.10631	0.22769
-0.25932	0.30422
0.22521	0.12566
0.22521	0.04914
0.83725	0.15117
0.76074	0.27871
-0.13181	0.04914
0.35272	-0.12942
0.12320	0.20219
-0.43783	0.20219
-0.20832	0.27871
0.27621	-0.07840
0.17421	0.17668
-0.23382	0.32972
0.73524	0.17668
0.50573	0.04914
1.01576	0.17668
-0.23382	-0.15492
-0.05531	0.30422
0.02119	0.48277
-0.05531	0.45726
-0.13181	0.25320
-0.05531	0.30422
0.22521	-0.58856
0.60773	0.07465
0.53123	0.12566
0.58223	0.02363
0.19971	0.20219
-0.15732	0.83988
-0.20832	0.12566
-0.28482	-0.07840
-0.31033	-0.20594
0.09770	-0.66508
0.45472	0.32972
0.53123	0.63582
0.53123	0.32972
0.63323	0.12566
0.07220	0.02363
-0.15732	0.38074
-0.10631	0.45726
-0.13181	0.50828
-0.36133	-0.00188
0.07220	-0.25695
0.35272	-0.10391
0.50573	0.15117
0.55673	-0.00188
0.68424	0.22769
0.32721	0.27871
0.73524	0.17668
-1.40690	0.15117
-0.46334	-0.02739
-0.46334	0.30422
0.70974	0.25320
1.16877	0.07465
-0.69285	-0.10391
0.22521	0.20219
0.86275	0.04914
0.88825	0.40625
-0.48884	0.40625
-0.05531	0.20219
0.09770	0.10015
-0.71835	0.35523
0.07220	0.50828
0.48022	-0.07840
0.40372	-0.10391
0.27621	-0.66508
0.40372	-0.30797
0.17421	0.04914
0.09770	1.27351
-0.13181	0.78886
-0.59084	0.63582
-0.33583	0.02363
0.09770	-0.20594
0.60773	0.38074
0.55673	-0.28246
0.55673	-0.48652
0.63323	-0.30797
0.19971	0.17668
-0.08081	0.35523
-0.13181	0.53379
-0.08081	0.66132
-0.15732	-0.02739
-0.00431	0.35523
0.27621	0.27871
0.48022	-0.00188
0.58223	-0.10391
0.60773	-0.20594
0.27621	0.07465
-0.13181	0.27871
-0.13181	0.15117
-0.28482	0.15117
-0.18282	-0.10391
-0.10631	0.12566
0.73524	-0.02739
0.86275	0.15117
0.27621	0.30422
0.37822	0.20219
0.12320	0.38074
-0.08081	0.58480
0.02119	-0.15492
-1.10088	-0.28246
-0.08081	0.10015
0.22521	0.40625
0.63323	0.40625
0.27621	0.55929
0.55673	-0.02739
0.68424	-0.56305
0.19971	-0.38449
-0.02981	0.20219
-0.08081	0.45726
-0.28482	0.50828
-0.31033	0.25320
-0.05531	-0.05289
0.32721	0.22769
0.53123	0.15117
0.53123	0.22769
0.50573	-0.41000
0.14870	0.20219
-0.28482	0.66132
-0.25932	0.15117
-0.13181	-0.05289
-0.28482	0.45726
0.07220	0.02363
0.58223	0.07465
0.78624	0.07465
0.42922	-0.05289
0.19971	0.17668
0.07220	0.48277
-0.02981	0.02363
-0.18282	-0.25695
0.12320	0.25320
0.27621	0.40625
0.42922	0.17668
-1.94243	0.04914
0.81175	0.02363
0.68424	0.12566
1.19427	0.12566
0.55673	0.35523
-1.10088	0.25320
0.07220	-0.10391
0.14870	0.10015
-0.28482	0.35523
0.04670	0.22769
0.60773	-0.18043
0.19971	-0.35899
0.14870	0.22769
0.78624	0.53379
0.12320	0.71234
0.02119	-0.28246
-0.25932	-0.25695
-0.18282	0.50828
-0.48884	0.32972
-0.28482	-0.10391
0.53123	0.30422
0.60773	0.30422
0.55673	0.35523
0.65874	0.22769
0.27621	-0.07840
-0.08081	-0.15492
-0.18282	0.53379
-0.20832	-0.00188
-0.15732	0.10015
-0.13181	-0.07840
0.53123	-0.10391
0.65874	0.10015
0.40372	0.12566
0.58223	0.17668
0.12320	0.38074
-0.25932	0.32972
-0.13181	0.12566
-0.20832	0.43176
-0.31033	0.38074
0.22521	0.15117
0.60773	0.12566
0.65874	-0.10391
-0.08081	-0.10391
1.01576	0.25320
0.22521	0.22769
-0.82036	0.04914
-0.43783	0.30422
0.12320	0.30422
0.50573	0.20219
-2.37596	-0.25695
0.70974	-0.10391
0.91375	-0.28246
0.70974	-0.15492
0.73524	0.55929
0.53123	1.04394
-0.08081	0.66132
-0.18282	-0.20594
-0.28482	-0.18043
-0.28482	0.45726
0.07220	0.20219
0.25071	-1.45582
0.48022	-0.20594
0.48022	0.73785
0.53123	0.76336
0.12320	0.55929
-0.10631	0.50828
-0.23382	0.48277
-0.31033	0.32972
-0.23382	0.02363
0.12320	-0.35899
0.42922	-0.28246
0.53123	-0.71609
0.50573	-0.05289
0.73524	0.48277
0.35272	0.66132
-0.10631	0.38074
-0.10631	0.10015
-0.51434	-0.02739
-0.33583	-0.02739
0.17421	0.15117
0.58223	-0.07840
0.22521	0.07465
-0.23382	0.30422
0.65874	0.15117
0.45472	0.38074
0.78624	0.53379
-0.76936	0.32972
-0.41233	-0.12942
0.02119	-0.12942
0.48022	-0.07840
0.83725	0.04914
0.50573	0.22769
0.50573	0.61031
0.55673	0.30422
-0.05531	0.07465
-0.23382	-0.18043
-0.20832	0.02363
-0.18282	-0.05289
-0.31033	0.50828
-0.18282	0.30422
0.32721	0.10015
0.58223	-0.89465
0.53123	0.38074
0.63323	0.58480
0.22521	0.71234
-0.02981	0.53379
-0.18282	0.63582
-0.23382	0.02363
-0.28482	-0.20594
0.07220	-0.18043
0.40372	-0.66508
0.53123	-0.12942
0.48022	0.20219
0.73524	0.30422
0.22521	0.35523
-0.08081	0.38074
-0.18282	0.32972
0.17421	0.38074
-1.91693	-0.02739
0.12320	-0.05289
0.55673	0.17668
0.37822	-0.12942
0.65874	0.10015
0.73524	0.22769
0.55673	0.25320
-0.53984	0.58480
-0.59084	0.17668
0.04670	-0.10391
0.12320	0.20219
0.02119	0.12566
0.42922	0.04914
0.53123	0.07465
0.45472	-0.07840
0.60773	0.10015
0.70974	0.96742
-0.89686	-0.07840
-0.20832	-0.71609
-0.15732	-0.58856
-0.28482	0.32972
-0.02981	0.50828
0.53123	0.94191
0.65874	-0.51203
0.42922	0.02363
0.60773	0.91640
0.22521	0.68683
-0.13181	0.32972
-0.13181	0.17668
-0.28482	-0.35899
-0.25932	-0.10391
-0.00431	0.12566
0.35272	-0.15492
0.55673	-0.43551
0.53123	-0.33348
0.68424	0.43176
0.17421	0.30422
-0.02981	0.48277
-0.18282	0.43176
-0.18282	0.66132
-0.56534	-0.07840
-0.00431	-0.00188
0.48022	-0.12942
0.40372	0.15117
0.60773	0.30422
0.73524	0.10015
0.40372	0.25320
-1.27939	0.22769
-0.89686	0.04914
0.22521	0.17668
0.07220	0.20219
0.42922	0.17668
0.58223	-0.25695
0.86275	-0.35899
0.60773	0.04914
0.30171	0.15117
0.50573	0.45726
-0.66735	0.61031
-0.31033	0.50828
-0.38683	0.25320
-0.46334	0.43176
0.12320	0.40625
0.35272	-1.09871
0.50573	-0.81812
0.50573	0.40625
0.63323	0.02363
0.37822	0.38074
-0.18282	0.50828
-0.13181	1.12046
-0.08081	0.15117
-0.43783	0.43176
-0.00431	0.04914
0.40372	-0.23145
0.50573	-0.25695
0.53123	0.04914
0.55673	-0.12942
-0.00431	-0.07840
-0.05531	0.27871
-0.08081	0.45726
-0.20832	0.02363
-0.33583	-0.02739
0.09770	0.22769
0.32721	0.22769
0.68424	0.25320
0.35272	0.20219
0.58223	0.10015
0.25071	0.35523
-0.13181	0.02363
-0.15732	-0.30797
-0.18282	-0.12942
-0.15732	0.25320
-0.28482	0.30422
-0.31033	0.32972
0.68424	0.10015
0.53123	0.17668
1.19427	0.17668
0.27621	0.04914
-0.02981	0.32972
-0.20832	0.15117
-0.08081	0.04914
-0.33583	0.35523
-0.10631	-0.02739
0.32721	0.15117
0.50573	-0.07840
0.48022	-0.38449
0.63323	-0.33348
0.12320	0.94191
-0.02981	1.04394
-0.18282	-0.35899
-0.23382	-0.56305
-0.51434	0.32972
-0.05531	0.48277
0.55673	0.43176
0.68424	0.04914
0.50573	0.48277
0.73524	0.25320
0.19971	-0.20594
-0.05531	0.20219
-0.23382	0.30422
-0.23382	-0.23145
-0.25932	0.22769
-0.05531	-0.18043
0.42922	-0.02739
0.55673	0.02363
1.06676	0.20219
0.02119	0.20219
0.25071	0.22769
0.27621	0.45726
-0.08081	0.17668
-1.38139	-0.10391
-0.51434	0.40625
0.58223	0.15117
0.70974	0.10015
-0.02981	-0.00188
-0.87136	0.02363
0.73524	-0.00188
0.53123	0.38074
0.30171	0.25320
0.04670	-0.07840
-0.02981	0.32972
-0.31033	0.35523
0.04670	0.17668
0.32721	0.04914
0.48022	0.30422
0.19971	-0.38449
0.42922	-0.28246
0.19971	0.66132
-0.13181	-0.86914
-0.25932	0.25320
-0.18282	0.40625
-0.31033	0.86539
0.17421	0.35523
0.60773	0.38074
0.45472	-0.20594
0.42922	-0.25695
0.65874	0.02363
0.30171	0.48277
-0.00431	0.53379
-0.25932	0.20219
-0.20832	0.02363
-0.43783	0.15117
0.02119	-0.07840
0.48022	-0.05289
0.50573	-0.10391
0.60773	0.02363
0.63323	0.12566
0.22521	0.17668
-0.23382	0.30422
-0.36133	0.17668
-0.13181	0.38074
-0.41233	0.35523
-0.08081	0.04914
1.67880	0.02363
1.32178	0.10015
-3.67654	0.17668
1.09226	0.07465
0.76074	0.25320
0.50573	0.30422
0.02119	0.17668
0.22521	0.25320
-0.25932	0.20219
-0.02981	0.02363
0.40372	0.02363
0.42922	-0.15492
0.76074	0.07465
0.30171	0.20219
0.07220	0.15117
-0.20832	0.66132
-0.33583	0.22769
-0.23382	-0.20594
-0.31033	0.38074
-0.08081	-0.35899
0.48022	-0.10391
0.53123	-0.41000
0.63323	0.17668
0.68424	0.12566
0.19971	0.71234
-0.10631	1.14597
-0.15732	0.43176
-0.20832	0.25320
-0.31033	0.04914
0.02119	-0.33348
0.37822	-0.76711
0.65874	-0.12942
0.37822	0.20219
0.50573	0.35523
0.30171	0.40625
-0.00431	0.40625
-0.18282	0.22769
-0.20832	0.17668
-0.25932	0.25320
-0.08081	-0.20594
0.27621	0.12566
0.55673	0.02363
0.58223	0.17668
0.65874	0.07465
0.27621	0.35523
-0.10631	0.40625
-0.76936	0.35523
0.81175	0.15117
-1.43240	-0.18043
-0.43783	-0.00188
0.73524	0.10015
0.88825	0.25320
0.88825	0.27871
0.78624	0.02363
0.30171	0.02363
-0.13181	0.17668
-0.15732	0.20219
-0.20832	0.22769
-0.28482	-0.10391
-0.13181	0.35523
0.30171	0.10015
0.37822	-0.02739
0.42922	-0.48652
0.53123	-0.25695
0.19971	0.32972
-0.10631	0.78886
-0.25932	0.53379
-0.13181	0.96742
-0.25932	0.48277
0.12320	-0.35899
0.37822	-0.28246
0.68424	-0.02739
0.37822	0.02363
0.58223	-0.12942
0.17421	-0.00188
-0.18282	0.02363
-0.20832	0.35523
-0.08081	0.40625
-0.10631	0.20219
-0.05531	-0.41000
0.32721	0.32972
0.45472	0.45726
0.45472	0.22769
0.68424	0.04914
0.53123	-0.05289
0.42922	-0.00188
-1.91693	0.15117
0.37822	0.15117
0.30171	0.35523
-0.13181	0.12566
-0.64185	0.07465
0.86275	0.12566
1.32178	0.10015
0.99026	-0.10391
-0.08081	0.22769
0.19971	0.25320
-0.02981	0.45726
-0.13181	0.48277
-0.48884	-0.18043
-0.10631	0.15117
0.19971	0.10015
0.53123	0.32972
0.42922	0.17668
0.60773	0.04914
0.22521	0.22769
-0.28482	-0.20594
-0.18282	0.04914
-0.18282	-0.35899
-0.38683	0.10015
-0.00431	0.66132
0.30171	0.12566
0.60773	0.22769
0.42922	-0.56305
0.65874	0.27871
0.37822	0.61031
-0.15732	0.71234
-0.08081	0.30422
-0.28482	-0.05289
-0.33583	0.15117
-0.00431	0.15117
0.35272	0.02363
0.63323	0.20219
0.53123	-0.38449
0.50573	-0.51203
0.19971	0.25320
-0.02981	0.30422
-0.36133	0.07465
-0.43783	0.32972
-0.28482	0.55929
0.25071	0.22769
0.65874	0.25320
0.99026	0.07465
-0.48884	0.10015
0.73524	0.10015
0.07220	0.15117
0.25071	0.20219
-1.10088	0.22769
-0.02981	0.02363
-0.08081	0.17668
0.27621	-0.00188
0.40372	-0.25695
0.60773	0.30422
0.50573	0.38074
0.65874	-0.05289
0.09770	-0.00188
-0.41233	0.17668
-0.10631	0.27871
-0.20832	0.20219
-0.36133	0.32972
-0.00431	0.20219
0.37822	-0.05289
0.58223	-0.56305
0.63323	-0.28246
0.53123	0.17668
0.32721	0.25320
-0.10631	0.71234
-0.13181	0.55929
-0.10631	0.22769
-0.46334	-0.00188
-0.08081	0.17668
0.42922	0.10015
0.53123	-0.02739
0.40372	0.04914
0.53123	-0.20594
0.35272	0.35523
-0.10631	0.17668
-0.23382	-0.00188
-0.15732	-0.33348
-0.31033	0.32972
-0.05531	0.20219
0.37822	0.22769
0.76074	0.25320
0.58223	0.27871
0.30171	0.12566
0.70974	0.15117
-0.23382	0.30422
-0.38683	0.25320
-0.05531	0.17668
-0.28482	0.04914
0.17421	-0.05289
0.88825	-0.00188
-0.02981	0.12566
0.68424	0.17668
0.50573	-0.18043
0.83725	0.22769
-0.61635	0.50828
-0.59084	0.22769
-0.02981	-0.20594
-0.08081	0.10015
0.14870	-0.07840
0.35272	0.73785
0.60773	0.32972
0.81175	0.10015
0.70974	-0.99668
0.02119	0.10015
-0.33583	0.40625
-0.28482	0.55929
-0.15732	0.71234
-0.36133	0.55929
-0.13181	-0.07840
0.27621	-0.28246
0.53123	-0.18043
0.63323	0.22769
0.63323	-0.02739
0.40372	0.32972
-0.10631	0.27871
-0.18282	0.15117
-0.13181	0.10015
-0.28482	0.20219
-0.18282	-0.05289
0.37822	-0.12942
0.76074	0.02363
0.40372	0.17668
0.40372	0.20219
0.30171	0.81437
-0.02981	-0.33348
-0.20832	-0.51203
-0.25932	0.10015
-0.33583	0.76336
0.04670	0.43176
0.09770	0.32972
0.70974	0.35523
0.60773	0.22769
0.65874	-0.12942
0.32721	0.25320
-0.15732	0.30422
-0.23382	0.10015
-0.08081	0.12566
-0.48884	-0.10391
-0.15732	-0.35899
0.40372	0.12566
0.53123	0.48277
0.58223	0.30422
0.60773	-0.58856
0.32721	0.02363
0.04670	0.35523
-0.28482	0.53379
-0.36133	0.04914
-0.46334	0.20219
-0.02981	0.43176
0.35272	-0.41000
0.65874	0.55929
0.55673	0.45726
0.58223	-0.30797
0.35272	-0.15492
-0.05531	0.45726
-0.20832	0.40625
-0.13181	0.58480
-0.41233	0.43176
-0.08081	-0.15492
0.35272	-0.12942
0.63323	-0.18043
0.81175	-0.30797
-0.53984	-0.00188
0.19971	0.53379
0.19971	-0.05289
0.02119	0.10015
-0.25932	0.15117
-0.38683	0.53379
0.12320	0.43176
0.50573	0.10015
0.58223	-0.02739
0.09770	0.10015
0.73524	0.10015
0.37822	0.10015
-1.35589	0.25320
-0.00431	0.76336
0.07220	-0.10391
-0.20832	-0.10391
0.25071	0.20219
0.27621	-0.05289
0.60773	-0.00188
0.32721	0.22769
0.53123	0.25320
0.27621	0.43176
-0.08081	0.04914
-0.25932	0.32972
-0.13181	0.35523
-0.41233	0.35523
0.04670	-0.53754
0.35272	-0.35899
0.45472	0.48277
0.53123	0.15117
0.55673	-0.10391
0.19971	0.27871
-0.15732	0.30422
-0.10631	0.40625
-0.10631	0.61031
-0.41233	0.27871
-0.05531	-0.66508
0.42922	-0.35899
0.65874	0.10015
0.40372	0.22769
0.58223	0.22769
0.25071	0.53379
-0.02981	0.27871
-0.18282	0.20219
-0.10631	0.32972
-0.41233	0.35523
-0.13181	0.12566
0.40372	-0.02739
0.68424	0.43176
0.73524	-0.33348
0.63323	-0.66508
-0.15732	-0.25695
-0.08081	0.38074
-0.08081	0.53379
-0.08081	0.45726
0.19971	0.45726
0.17421	0.12566
0.70974	-0.00188
0.02119	-0.05289
0.02119	0.30422
0.68424	0.07465
0.48022	0.27871
0.09770	0.07465
-0.20832	0.20219
-0.05531	0.15117
-0.28482	0.25320
-0.02981	0.20219
0.50573	-0.00188
0.50573	0.10015
0.42922	0.10015
0.58223	0.12566
0.17421	0.30422
-0.23382	0.55929
-0.28482	0.10015
-0.25932	-0.35899
-0.28482	0.35523
-0.00431	0.89089
0.27621	0.04914
0.58223	-1.20074
0.60773	-0.38449
0.65874	0.07465
0.19971	0.58480
-0.13181	0.66132
-0.08081	0.61031
-0.08081	0.38074
-0.36133	0.86539
-0.05531	-0.12942
0.40372	-0.12942
0.58223	-0.38449
0.50573	-0.25695
0.68424	-0.25695
0.35272	0.30422
-0.20832	0.40625
-0.20832	0.45726
-0.08081	0.20219
-0.51434	0.17668
-0.28482	0.12566
0.63323	0.12566
0.45472	-0.00188
0.93925	0.12566
1.01576	0.10015
0.58223	0.20219
-1.12638	0.25320
-0.38683	0.17668
0.19971	0.17668
-0.48884	0.20219
-0.20832	0.02363
0.50573	0.12566
0.68424	-0.02739
0.65874	0.12566
0.70974	0.20219
0.30171	0.22769
-0.08081	0.32972
-0.13181	0.10015
-0.28482	0.20219
-0.51434	0.32972
-0.08081	0.22769
0.32721	-0.30797
0.53123	0.15117
0.45472	0.63582
0.58223	-0.18043
0.27621	-0.07840
-0.05531	0.20219
-0.20832	0.25320
-0.18282	0.15117
-0.38683	0.50828
-0.00431	0.27871
0.40372	0.35523
0.60773	0.40625
0.42922	-0.25695
0.65874	-0.48652
0.40372	0.20219
-0.15732	0.40625
-0.28482	-0.43551
-0.13181	0.07465
-0.38683	0.66132
-0.10631	0.35523
0.37822	0.17668
0.63323	0.02363
0.53123	0.10015
0.60773	-0.02739
0.37822	0.25320
-0.10631	0.32972
-0.33583	0.15117
-0.13181	0.32972
-0.25932	0.15117
-0.08081	-0.15492
0.30171	0.10015
0.45472	0.17668
0.50573	0.15117
0.60773	-0.00188
0.30171	0.27871
-0.13181	0.38074
0.19971	0.22769
0.12320	0.15117
-0.84586	0.22769
0.17421	0.38074
0.50573	0.07465
0.63323	-0.51203
0.42922	-0.38449
0.68424	0.35523
0.19971	0.32972
-0.10631	0.43176
-0.08081	-0.00188
-0.28482	-0.12942
-0.61635	0.22769
-0.02981	0.53379
0.37822	0.38074
0.55673	0.27871
0.48022	-0.69059
0.68424	-0.35899
0.35272	0.12566
-0.08081	1.09496
-0.28482	-0.25695
-0.20832	-0.51203
-0.20832	0.27871
-0.05531	0.71234
0.30171	0.15117
0.55673	0.20219
0.55673	0.27871
0.53123	0.07465
0.30171	0.40625
-0.10631	0.32972
-0.18282	-0.35899
-0.10631	-0.33348
-0.28482	-0.00188
-0.02981	0.04914
0.35272	0.17668
0.60773	0.27871
0.37822	0.30422
0.68424	0.12566
0.30171	0.32972
-0.10631	0.25320
-0.28482	0.25320
-0.18282	0.15117
-0.20832	0.20219
0.22521	-0.05289
0.32721	-0.18043
-0.10631	-0.02739
0.32721	0.50828
0.78624	0.07465
0.58223	-0.20594
0.09770	0.20219
-0.10631	0.35523
-0.18282	0.30422
-0.38683	0.32972
0.02119	0.76336
0.53123	-0.33348
0.22521	-0.46102
0.04670	-0.15492
0.70974	0.12566
0.40372	0.66132
-0.08081	0.58480
-0.18282	0.35523
-0.10631	0.12566
-0.25932	0.55929
-0.00431	-0.02739
0.32721	-0.63957
0.53123	-0.51203
0.60773	0.12566
0.55673	0.20219
0.32721	0.43176
-0.00431	0.66132
-0.23382	0.27871
-0.15732	-0.15492
-0.36133	-0.15492
-0.10631	0.15117
0.32721	0.15117
0.63323	0.35523
0.50573	0.43176
0.68424	-0.02739
0.12320	-0.07840
-0.18282	0.20219
-0.15732	0.35523
-0.13181	0.07465
-0.31033	0.17668
0.07220	0.25320
-0.13181	0.04914
0.48022	-0.02739
0.96476	0.25320
0.22521	0.20219
0.40372	0.15117
-0.13181	0.20219
-0.15732	0.17668
-0.08081	0.20219
-0.36133	0.15117
-0.02981	-0.10391
0.45472	-0.02739
0.58223	0.04914
0.27621	0.30422
0.27621	0.12566
0.45472	0.53379
-0.33583	0.12566
-0.00431	0.30422
-0.05531	-0.18043
-0.13181	-0.25695
-0.02981	0.25320
0.35272	0.38074
0.60773	0.38074
0.53123	0.02363
0.55673	-0.25695
0.30171	0.35523
-0.10631	0.48277
-0.28482	0.45726
-0.18282	0.10015
-0.38683	-0.05289
-0.08081	-0.20594
0.37822	-0.30797
0.53123	0.10015
0.55673	0.32972
0.60773	0.07465
0.35272	0.45726
-0.08081	0.32972
-0.25932	0.22769
-0.18282	0.07465
-0.36133	0.07465
-0.05531	0.27871
0.30171	0.12566
0.63323	-0.15492
0.53123	-0.02739
0.58223	-0.25695
0.35272	0.27871
-0.28482	0.43176
-0.13181	0.38074
-0.31033	0.17668
-0.13181	0.43176
-0.08081	0.15117
0.37822	-0.07840
0.50573	0.12566
0.53123	0.07465
0.68424	-0.02739
0.25071	0.04914
-0.13181	0.25320
-0.38683	0.25320
-0.23382	0.27871
-0.31033	0.20219
0.02119	0.45726
0.37822	-0.23145
0.63323	-0.94566
0.60773	0.12566
0.63323	0.38074
0.32721	0.71234
0.02119	0.91640
-0.28482	0.35523
-0.31033	0.45726
-0.38683	-0.10391
-0.05531	-0.07840
0.32721	-0.23145
0.45472	-0.18043
0.60773	0.30422
0.68424	0.20219
0.25071	0.02363
-0.18282	0.10015
-0.25932	0.27871
-0.23382	0.43176
-0.36133	0.40625
-0.02981	0.12566
0.25071	-0.15492
0.60773	-0.05289
0.48022	0.30422
0.55673	-0.28246
0.35272	-0.15492
-0.02981	0.40625
-0.20832	0.43176
-0.23382	0.15117
-0.31033	0.48277
0.04670	-0.02739
0.40372	-0.51203
0.40372	-0.15492
0.42922	0.27871
0.55673	0.22769
0.50573	0.50828
0.14870	0.38074
-0.15732	0.25320
-0.08081	0.12566
-0.38683	0.20219
-0.36133	0.02363
0.53123	0.15117
0.07220	-0.18043
0.65874	-0.15492
0.86275	0.10015
0.27621	0.27871
-0.05531	0.07465
-0.13181	0.12566
0.02119	0.22769
-0.23382	0.04914
-0.10631	0.30422
0.35272	0.15117
0.58223	0.15117
0.42922	-0.18043
0.50573	0.04914
0.32721	0.55929
-0.02981	0.50828
-0.28482	0.27871
-0.20832	0.22769
-0.31033	0.27871
-0.00431	0.22769
0.35272	-0.25695
0.53123	-0.74160
0.45472	-0.23145
0.63323	0.20219
0.37822	0.48277
-0.10631	0.45726
-0.08081	0.35523
-0.18282	0.32972
-0.46334	0.45726
-0.02981	0.12566
0.32721	0.07465
0.58223	-0.12942
0.45472	0.15117
0.65874	-0.18043
0.32721	-0.05289
-0.13181	0.35523
-0.20832	0.38074
-0.15732	0.45726
-0.36133	0.35523
-0.02981	0.12566
0.37822	-0.00188
0.42922	-0.10391
0.50573	-0.00188
0.53123	0.02363
0.35272	0.40625
-0.00431	0.50828
-0.05531	0.15117
-0.66735	-0.05289
-0.15732	0.32972
-0.10631	0.15117
0.42922	-0.33348
0.63323	0.71234
0.60773	0.48277
0.70974	-0.63957
0.40372	-0.69059
-0.02981	0.38074
-0.15732	0.58480
-0.25932	0.45726
-0.41233	0.55929
-0.08081	0.38074
0.32721	-0.25695
0.53123	0.02363
0.42922	0.15117
0.63323	0.07465
0.40372	0.35523
-0.08081	0.30422
-0.28482	-0.05289
-0.18282	0.02363
-0.23382	0.27871
-0.08081	0.22769
0.35272	-0.10391
0.78624	-0.02739
0.50573	0.20219
0.17421	-0.07840
0.45472	0.12566
0.04670	0.38074
-0.23382	0.22769
-0.13181	0.32972
-0.36133	0.17668
-0.15732	0.02363
0.22521	0.04914
0.63323	0.10015
0.63323	0.25320
0.58223	0.22769
0.37822	0.07465
-0.20832	0.25320
-0.08081	0.25320
-0.25932	-0.18043
-0.38683	0.10015
-0.13181	0.15117
0.32721	0.45726
0.60773	0.38074
0.58223	-0.23145
0.68424	-0.00188
0.40372	0.45726
0.02119	0.50828
