0.12320	0.30422
0.45472	0.07465
0.53123	-0.05289
0.50573	0.32972
0.55673	0.20219
0.25071	0.15117
-0.05531	-0.23145
-0.10631	0.35523
-0.31033	0.40625
-0.38683	0.45726
-0.08081	0.15117
0.32721	-0.46102
0.42922	-0.43551
0.53123	0.25320
0.73524	0.25320
0.58223	0.22769
-0.20832	0.30422
-0.51434	0.45726
-0.00431	0.55929
0.04670	-0.05289
0.30171	-0.30797
0.70974	-0.12942
-0.59084	0.10015
1.75531	0.43176
-0.74385	0.15117
1.09226	0.25320
-1.38139	0.22769
-0.13181	0.10015
0.60773	0.12566
-0.05531	0.12566
0.25071	0.25320
0.48022	0.17668
0.81175	-0.07840
0.76074	0.17668
0.76074	0.22769
0.37822	0.22769
-0.00431	-0.28246
-0.33583	-0.25695
-0.46334	0.32972
-0.89686	0.66132
-0.56534	0.17668
0.02119	0.07465
0.40372	0.20219
0.48022	-0.00188
0.53123	0.04914
0.32721	0.25320
0.07220	0.48277
0.07220	0.20219
-0.13181	-0.10391
-0.36133	-0.33348
0.09770	0.43176
0.58223	0.25320
0.63323	0.43176
0.53123	0.32972
0.55673	-0.12942
0.27621	-0.66508
-0.10631	0.12566
-0.36133	0.66132
-0.28482	0.07465
-0.28482	-0.25695
0.12320	0.25320
0.48022	0.94191
0.32721	0.25320
0.45472	0.27871
0.37822	0.12566
0.70974	-0.02739
-0.51434	-0.35899
-0.36133	-0.25695
0.19971	0.35523
-1.27939	-0.20594
0.48022	0.12566
-0.08081	0.17668
0.65874	0.45726
1.21977	0.10015
1.21977	0.35523
0.91375	0.30422
-2.06994	0.10015
-0.71835	-0.18043
0.02119	0.17668
0.04670	0.38074
1.01576	-0.10391
-1.84042	-0.15492
0.35272	0.15117
-0.20832	0.61031
0.60773	0.53379
0.81175	0.25320
0.02119	-0.25695
0.17421	-0.30797
0.14870	-0.12942
-0.10631	0.12566
0.17421	0.45726
0.30171	0.10015
0.58223	0.40625
0.32721	0.38074
0.27621	0.10015
0.09770	-0.25695
-0.25932	-0.10391
-0.31033	0.04914
-0.23382	0.58480
-0.33583	0.73785
0.30171	0.10015
0.37822	-0.02739
-0.23382	-0.15492
0.65874	-0.12942
0.96476	0.20219
0.07220	0.32972
0.22521	0.40625
-0.59084	0.10015
-0.20832	-0.05289
0.27621	-0.07840
0.55673	0.50828
1.11776	0.15117
0.37822	-0.28246
-0.56534	-0.15492
0.32721	-0.41000
0.76074	0.45726
0.68424	0.68683
-1.45790	0.35523
0.17421	0.27871
-0.08081	0.15117
0.27621	0.15117
0.70974	0.12566
0.63323	-0.30797
0.53123	0.15117
0.53123	0.48277
0.35272	0.30422
-0.23382	-0.23145
0.07220	-0.41000
0.40372	0.32972
-2.32496	0.55929
-0.31033	0.15117
0.27621	-0.10391
0.73524	0.02363
0.78624	0.15117
0.73524	0.20219
0.27621	0.25320
1.01576	-0.02739
0.17421	0.27871
-1.89143	0.50828
-0.56534	0.30422
-0.20832	-0.23145
0.50573	0.12566
1.42379	-0.35899
0.14870	-0.20594
0.70974	0.48277
0.42922	0.50828
0.17421	0.38074
0.09770	0.40625
0.35272	0.25320
-0.28482	-0.00188
-2.24845	0.30422
0.32721	-0.12942
1.78081	0.04914
1.19427	-0.41000
-0.51434	0.12566
-0.02981	0.63582
0.50573	1.06945
0.12320	-0.07840
0.17421	-0.99668
0.04670	-0.15492
0.12320	0.25320
0.50573	0.15117
0.42922	0.68683
0.42922	1.19699
0.55673	0.94191
0.12320	-0.12942
-0.23382	-1.27726
-0.36133	0.15117
-0.13181	0.35523
-0.36133	-0.05289
-0.20832	-0.18043
0.30171	-0.76711
0.40372	0.76336
0.50573	-0.02739
0.78624	0.30422
0.48022	0.83988
-0.31033	0.50828
0.07220	0.25320
0.14870	-0.18043
-0.18282	0.10015
-0.84586	0.50828
0.45472	0.20219
0.73524	0.22769
2.41835	-0.07840
-0.99887	-0.28246
1.11776	-0.41000
-1.45790	-0.23145
1.47479	0.38074
-2.57997	0.43176
-0.08081	0.25320
0.42922	0.66132
0.99026	0.07465
1.11776	0.20219
1.21977	-0.05289
0.68424	0.15117
-0.08081	-0.10391
-0.15732	0.07465
-0.18282	0.66132
-0.33583	-0.15492
-0.48884	0.02363
-0.33583	0.04914
0.12320	-0.05289
0.40372	0.30422
0.35272	0.83988
0.68424	0.78886
0.32721	-0.28246
-0.25932	-0.61406
-0.08081	0.50828
-0.10631	-0.02739
-0.18282	0.22769
-0.00431	-0.38449
0.35272	0.27871
0.53123	0.07465
0.78624	0.89089
0.63323	0.12566
0.37822	-0.00188
0.02119	-0.02739
-0.61635	0.27871
-0.41233	-0.35899
0.04670	0.22769
-0.08081	0.10015
0.12320	0.17668
1.37278	0.07465
0.09770	0.17668
-0.18282	-0.00188
2.31634	0.45726
-2.09544	0.53379
-0.56534	-0.02739
0.65874	0.15117
0.83725	-0.02739
0.37822	0.12566
1.72980	0.15117
0.68424	0.35523
0.73524	-0.02739
0.68424	-0.30797
0.17421	0.15117
-0.38683	0.55929
-0.41233	0.35523
-0.33583	0.32972
-0.74385	-0.05289
-0.51434	0.04914
0.27621	0.25320
0.73524	0.43176
0.65874	0.17668
0.42922	-0.25695
0.32721	0.10015
0.42922	-0.61406
0.02119	0.48277
-0.23382	1.35003
-0.71835	0.63582
0.04670	0.02363
0.53123	-0.51203
0.73524	-0.18043
0.07220	0.17668
0.81175	0.43176
0.37822	-0.00188
0.32721	0.30422
0.22521	0.61031
-0.84586	0.15117
-0.20832	-0.15492
0.37822	-0.15492
1.60230	0.17668
-0.15732	-0.15492
-1.61091	0.22769
0.78624	0.53379
1.01576	0.48277
0.76074	0.02363
1.47479	0.02363
-1.55991	-0.46102
0.25071	0.38074
-0.18282	-0.10391
0.37822	-0.10391
0.45472	0.55929
0.32721	0.61031
0.32721	0.58480
0.32721	0.45726
-0.18282	0.12566
-0.38683	-0.15492
-0.18282	0.12566
-0.48884	0.38074
-0.08081	0.22769
0.32721	0.10015
0.37822	-0.76711
0.60773	-0.07840
1.14327	-0.23145
-0.10631	0.68683
-0.43783	0.89089
0.22521	0.10015
-0.02981	-0.10391
-0.53984	0.45726
0.04670	0.17668
0.65874	0.10015
1.37278	0.10015
-0.79486	0.10015
0.42922	-0.00188
-0.31033	0.07465
0.37822	0.35523
0.48022	0.04914
0.42922	-0.25695
-0.64185	0.40625
-0.69285	0.22769
0.09770	0.22769
0.70974	-0.15492
0.55673	0.25320
1.14327	0.25320
0.60773	0.22769
0.19971	0.20219
-0.05531	-0.00188
0.55673	-0.05289
-1.04987	0.17668
-0.18282	0.12566
0.12320	0.38074
0.42922	0.25320
0.27621	0.50828
0.78624	-0.00188
0.07220	-0.38449
-0.18282	-0.79262
-0.38683	-0.28246
-0.05531	0.71234
-0.18282	0.55929
0.07220	0.83988
0.40372	0.35523
0.70974	0.48277
0.60773	0.04914
0.73524	-0.25695
0.40372	0.45726
-0.28482	-0.00188
-0.05531	0.07465
-0.64185	-0.58856
-0.43783	-0.30797
0.35272	-0.12942
0.73524	0.43176
-1.04987	0.83988
0.58223	0.76336
0.73524	0.22769
1.01576	0.04914
-0.31033	-0.10391
0.22521	-0.05289
-1.20288	-0.07840
-0.38683	0.30422
0.22521	-0.12942
-1.10088	-0.05289
-1.20288	0.20219
0.25071	0.32972
1.06676	0.20219
0.42922	-0.00188
0.09770	0.10015
0.35272	0.17668
0.12320	-0.38449
-0.41233	0.20219
-0.43783	0.55929
0.02119	0.61031
0.37822	0.43176
0.55673	-0.05289
0.58223	-0.28246
0.27621	0.40625
0.07220	0.35523
-0.25932	0.50828
-0.48884	-0.84363
-0.48884	-0.53754
-0.00431	-0.28246
0.37822	0.30422
0.65874	0.63582
0.53123	0.76336
0.60773	1.22250
0.58223	-0.02739
0.12320	-0.12942
-0.38683	-0.58856
-0.18282	-0.15492
-0.41233	-0.12942
-0.08081	0.22769
0.78624	-0.15492
0.60773	0.58480
0.02119	0.63582
0.70974	0.45726
0.86275	0.27871
0.19971	-0.12942
-0.84586	-0.38449
0.50573	0.04914
-2.14644	0.20219
-0.05531	0.17668
0.50573	0.22769
0.91375	0.17668
0.76074	-0.05289
1.32178	0.27871
0.45472	0.38074
-0.25932	0.02363
-0.31033	-0.07840
-0.18282	0.45726
-0.31033	0.55929
-0.18282	0.22769
0.14870	0.07465
0.42922	-0.30797
0.40372	-0.28246
0.48022	-0.00188
0.37822	0.22769
0.27621	0.71234
-0.08081	0.40625
-0.43783	-0.12942
-0.36133	0.12566
-0.08081	0.17668
0.32721	0.27871
0.73524	0.10015
0.83725	0.27871
0.32721	0.12566
0.55673	-0.05289
-0.10631	0.27871
-0.38683	0.02363
0.19971	0.25320
-0.02981	-0.02739
0.73524	0.17668
-0.74385	0.55929
0.32721	-0.00188
0.70974	-0.28246
0.81175	-0.07840
0.27621	0.32972
0.40372	0.38074
-0.02981	0.15117
-0.02981	0.25320
-0.13181	-0.02739
-0.59084	-0.05289
0.32721	0.25320
0.53123	0.22769
0.53123	0.20219
0.81175	0.15117
0.40372	0.53379
-0.10631	-0.12942
-0.48884	0.04914
-0.33583	-0.10391
-0.69285	-0.23145
-0.25932	-0.35899
0.32721	0.12566
0.70974	1.09496
0.35272	0.45726
0.76074	-0.41000
0.53123	0.43176
0.14870	0.55929
-0.18282	-0.28246
-0.08081	-0.43551
-0.28482	-0.05289
-0.18282	0.43176
-0.10631	0.25320
0.50573	0.15117
0.58223	0.43176
0.63323	0.25320
0.45472	0.12566
0.55673	0.15117
0.42922	0.25320
-0.05531	-0.00188
-2.17195	0.10015
-1.17738	-0.15492
0.17421	-0.10391
0.99026	0.20219
1.29628	0.22769
1.50029	0.10015
0.83725	-0.02739
0.07220	0.55929
-0.99887	0.43176
-0.08081	0.04914
-0.64185	-0.46102
-0.10631	0.02363
0.65874	0.32972
0.78624	0.17668
1.01576	-0.05289
0.32721	0.15117
0.30171	0.35523
-0.23382	0.04914
-0.10631	-0.00188
-0.18282	0.53379
-0.41233	0.12566
-0.05531	0.27871
0.27621	-0.00188
0.50573	-0.35899
0.37822	0.04914
0.65874	0.15117
0.60773	0.04914
-0.38683	-0.12942
-0.25932	-0.46102
-0.20832	-0.33348
-0.36133	0.83988
0.09770	0.53379
1.19427	0.55929
0.73524	0.20219
-1.12638	0.38074
0.83725	0.15117
0.68424	-0.30797
0.12320	-0.18043
-1.33039	0.15117
0.14870	0.30422
0.14870	0.38074
0.02119	0.25320
0.25071	0.10015
0.60773	-0.07840
0.78624	0.32972
1.09226	0.22769
-0.13181	-0.25695
0.12320	-0.18043
-0.41233	0.15117
-0.41233	0.38074
-0.08081	-0.18043
-0.05531	0.45726
0.32721	0.61031
0.96476	0.15117
-0.33583	-0.20594
0.55673	-0.15492
-0.48884	0.20219
0.02119	0.10015
0.04670	0.40625
0.02119	0.25320
-0.25932	0.02363
-0.02981	-0.25695
0.40372	-0.05289
0.53123	0.07465
0.63323	0.73785
0.63323	0.35523
0.25071	-0.12942
-0.13181	-0.25695
-0.20832	0.15117
-0.28482	0.58480
-0.51434	0.17668
-0.41233	0.15117
0.73524	0.32972
0.81175	0.10015
-0.84586	0.38074
0.78624	-0.02739
0.55673	-0.71609
0.02119	-0.20594
-0.18282	0.43176
0.02119	0.35523
-0.15732	0.35523
0.07220	0.27871
0.65874	0.35523
0.53123	0.25320
0.42922	0.15117
0.22521	0.20219
0.53123	0.15117
-0.20832	0.10015
-0.43783	-0.07840
-0.13181	0.20219
-0.41233	0.25320
-0.20832	-0.00188
0.22521	0.07465
0.53123	-0.28246
0.45472	0.07465
0.53123	0.35523
0.37822	0.81437
0.04670	-0.05289
0.07220	-0.28246
0.42922	-0.05289
-0.10631	0.32972
-2.09544	0.48277
-0.41233	0.02363
1.01576	0.71234
0.96476	1.04394
1.06676	-0.35899
0.81175	-0.30797
0.22521	0.07465
-0.13181	0.10015
-0.10631	0.38074
-0.48884	-0.12942
-0.36133	-0.18043
0.22521	0.53379
0.50573	0.07465
0.32721	0.07465
0.40372	-0.05289
0.04670	-0.00188
0.32721	0.15117
-0.08081	0.15117
-0.13181	0.30422
-0.46334	0.66132
-0.48884	0.15117
0.19971	0.02363
0.73524	0.15117
0.70974	-0.10391
1.09226	-0.00188
0.48022	0.25320
0.19971	0.12566
0.48022	0.22769
-0.13181	0.17668
1.47479	0.12566
-1.61091	0.10015
-1.10088	0.12566
0.65874	-0.25695
0.88825	0.20219
0.60773	0.66132
1.11776	0.78886
0.53123	-0.48652
0.14870	-0.53754
0.02119	0.27871
-0.51434	0.43176
-0.71835	-0.15492
0.07220	0.89089
0.55673	0.63582
0.53123	0.25320
0.55673	-0.15492
0.17421	-0.10391
-0.13181	-0.15492
-0.23382	-0.02739
-0.23382	0.30422
-0.41233	0.22769
0.30171	0.30422
0.93925	0.12566
-0.51434	-0.05289
0.19971	0.12566
0.63323	0.04914
0.81175	0.07465
0.19971	0.32972
-0.02981	0.50828
-0.15732	0.12566
-0.38683	0.10015
-0.05531	0.20219
0.45472	-0.02739
0.42922	0.32972
0.07220	0.35523
0.88825	-0.05289
0.42922	0.02363
-0.92237	-0.05289
0.22521	0.30422
0.22521	0.58480
-0.00431	0.15117
-1.66191	0.10015
0.32721	0.35523
0.91375	-0.23145
0.42922	-0.56305
0.63323	0.50828
0.68424	0.48277
0.12320	0.25320
-0.05531	-0.15492
-0.23382	0.17668
-0.28482	0.71234
-0.13181	0.43176
0.22521	0.10015
0.55673	-0.18043
0.42922	-0.20594
0.02119	0.04914
0.35272	0.10015
-0.00431	-0.23145
-0.13181	-0.12942
-0.20832	0.61031
-0.25932	0.58480
-0.89686	0.71234
0.73524	1.04394
0.58223	-0.74160
0.70974	-0.92016
1.11776	-0.25695
0.93925	0.25320
-0.33583	0.40625
-0.79486	0.27871
-0.15732	0.55929
-0.05531	0.50828
-0.38683	0.15117
0.40372	-0.23145
0.65874	-0.18043
0.63323	-0.05289
-0.25932	0.40625
0.50573	0.40625
0.22521	0.32972
-0.25932	0.48277
-0.28482	0.20219
-0.84586	-0.30797
0.09770	-0.79262
0.50573	0.10015
0.65874	0.43176
0.60773	0.43176
0.60773	0.35523
0.37822	0.15117
-0.23382	0.07465
-0.20832	0.25320
-0.25932	0.35523
-0.18282	-0.41000
-0.00431	0.12566
-0.43783	-0.05289
0.55673	0.22769
0.63323	-0.05289
0.73524	0.10015
0.58223	0.38074
-0.08081	0.40625
-0.23382	-0.07840
-0.02981	-0.05289
-0.48884	0.35523
-0.38683	-0.02739
0.37822	0.15117
0.99026	-0.28246
0.78624	0.45726
0.22521	0.40625
-0.23382	0.22769
0.53123	0.66132
0.22521	0.27871
-1.38139	-0.28246
-0.10631	-0.38449
0.37822	-0.05289
0.40372	0.20219
0.40372	0.27871
0.68424	0.07465
0.68424	-0.00188
0.63323	0.48277
0.32721	0.55929
-0.46334	-0.02739
0.02119	0.27871
-0.61635	-0.25695
-0.18282	-0.48652
0.37822	0.30422
0.27621	0.50828
0.76074	0.22769
0.60773	0.30422
0.37822	0.38074
0.02119	-0.12942
-0.00431	-0.02739
-0.13181	0.20219
-0.28482	0.32972
-0.18282	0.15117
0.22521	0.17668
0.27621	0.38074
0.50573	0.40625
0.73524	0.02363
0.37822	-0.46102
0.19971	0.10015
0.19971	0.17668
0.83725	-0.12942
-3.31952	0.12566
-0.28482	0.30422
0.60773	0.73785
0.91375	0.10015
0.58223	-0.15492
0.93925	0.10015
0.60773	0.17668
0.12320	0.32972
-0.10631	0.02363
-0.02981	0.78886
-0.59084	0.20219
-0.82036	-0.41000
0.27621	-0.15492
0.48022	0.15117
0.58223	0.40625
0.70974	-0.35899
0.40372	-0.10391
0.12320	0.22769
-0.43783	-0.10391
-0.08081	1.12046
-0.38683	0.66132
-0.18282	-0.33348
0.35272	-0.00188
0.76074	0.43176
0.50573	-0.05289
0.53123	-0.02739
0.53123	0.35523
0.02119	0.94191
-0.18282	-0.28246
-0.20832	-0.66508
-0.51434	-0.25695
-0.13181	0.07465
0.32721	0.61031
0.22521	0.07465
0.58223	0.04914
0.78624	0.02363
0.83725	0.55929
0.30171	0.50828
-1.45790	0.55929
-0.33583	-0.05289
-0.10631	0.02363
-0.23382	0.04914
0.53123	0.12566
0.86275	0.15117
0.70974	0.10015
0.99026	0.04914
0.02119	0.15117
-0.18282	0.20219
-0.02981	0.17668
-0.79486	0.22769
-0.51434	-0.05289
-0.08081	-0.07840
0.45472	0.17668
0.83725	0.02363
-0.28482	0.53379
0.58223	0.43176
0.32721	0.25320
0.02119	0.02363
-0.05531	-0.02739
-0.23382	-0.00188
-0.36133	0.15117
-0.20832	-1.12422
0.27621	0.07465
0.60773	0.86539
0.60773	0.96742
0.65874	0.04914
0.40372	0.22769
0.12320	0.27871
-0.15732	0.07465
-0.31033	-0.15492
-0.36133	0.40625
-0.20832	-0.25695
0.19971	-0.46102
0.48022	-0.07840
0.63323	0.48277
0.68424	0.40625
0.32721	0.38074
-0.02981	0.17668
-0.02981	0.30422
0.09770	0.15117
-0.38683	0.07465
-1.30489	0.10015
1.21977	-0.12942
1.14327	0.04914
-1.15188	0.15117
2.26534	0.25320
0.02119	0.15117
-0.18282	0.17668
-0.36133	0.20219
-0.02981	0.02363
0.07220	0.30422
0.07220	0.25320
0.25071	0.17668
0.48022	0.32972
0.53123	-0.46102
0.60773	-0.10391
0.40372	-0.00188
-0.05531	0.35523
-0.43783	-0.25695
-0.33583	0.63582
-0.51434	0.55929
-0.28482	0.48277
0.30171	0.30422
0.63323	0.25320
0.42922	0.12566
0.70974	-0.05289
0.53123	-0.23145
0.02119	-0.48652
-0.28482	0.61031
-0.18282	0.63582
-0.25932	0.55929
-0.20832	-0.53754
0.40372	-0.33348
0.68424	-0.05289
0.76074	0.38074
0.63323	0.12566
0.09770	0.38074
0.02119	-0.10391
-0.31033	-0.20594
0.09770	0.66132
-0.25932	0.35523
0.32721	0.10015
0.48022	0.12566
-1.68742	0.35523
1.06676	0.32972
0.42922	0.20219
0.96476	0.25320
-0.43783	0.07465
0.14870	0.07465
0.17421	-0.05289
-0.41233	-0.05289
-0.05531	0.07465
-0.18282	0.27871
0.50573	-0.10391
0.63323	-0.41000
0.58223	-0.00188
0.45472	0.35523
-0.13181	0.40625
-0.13181	0.40625
-0.13181	0.25320
-0.61635	0.15117
-0.23382	0.15117
0.32721	0.61031
0.53123	-0.43551
0.50573	0.55929
0.68424	0.71234
0.50573	0.32972
0.02119	-0.30797
-0.20832	-0.79262
-0.23382	0.07465
-0.71835	0.25320
-0.28482	-0.05289
0.50573	0.50828
0.65874	0.61031
0.32721	-0.02739
1.34728	-0.12942
1.01576	0.10015
-2.29945	0.32972
-0.94787	0.35523
0.32721	-0.10391
0.02119	-0.10391
0.14870	0.30422
0.73524	0.25320
0.88825	0.27871
0.53123	0.17668
0.63323	0.25320
0.45472	0.25320
-0.08081	-0.07840
-0.41233	0.07465
-0.28482	0.25320
-0.53984	0.48277
-0.20832	-0.15492
0.37822	-0.33348
0.22521	-0.30797
0.58223	0.45726
0.22521	0.53379
0.45472	0.35523
0.19971	0.27871
-0.08081	0.20219
-0.08081	0.35523
-0.31033	-0.00188
-0.00431	0.30422
0.35272	0.02363
0.40372	-0.53754
0.48022	0.30422
0.63323	0.83988
0.40372	-0.58856
0.07220	0.12566
-0.18282	0.50828
-0.28482	-0.10391
-0.41233	-0.43551
-0.20832	0.04914
0.50573	0.48277
0.45472	0.35523
-0.18282	0.66132
1.01576	-0.00188
1.27078	0.17668
-1.38139	0.12566
-0.02981	0.15117
0.50573	-0.00188
-0.08081	0.20219
-0.71835	0.10015
-0.00431	0.15117
0.78624	0.17668
1.01576	0.15117
0.81175	0.25320
0.58223	0.04914
0.07220	0.22769
-0.31033	0.25320
-0.43783	0.02363
-0.48884	-0.12942
-0.38683	-0.05289
0.25071	0.15117
0.48022	0.38074
0.42922	-0.07840
0.68424	0.45726
0.45472	0.58480
-0.05531	0.22769
-0.13181	0.02363
-0.46334	-0.05289
-0.28482	0.12566
-0.08081	0.53379
0.25071	0.10015
0.53123	0.02363
0.91375	0.10015
0.60773	-0.05289
0.58223	-0.25695
-0.02981	-0.02739
-0.08081	0.81437
-0.15732	0.12566
-0.48884	0.25320
-0.13181	0.07465
0.17421	0.10015
0.14870	0.25320
0.35272	-0.20594
0.88825	0.12566
0.53123	0.43176
0.02119	0.43176
0.32721	0.15117
0.07220	0.15117
-1.89143	0.20219
-0.08081	-0.18043
0.68424	-0.23145
0.68424	0.25320
0.63323	0.38074
0.93925	0.25320
0.76074	0.20219
0.19971	0.27871
-0.05531	0.10015
-0.38683	-0.56305
-0.56534	0.04914
-0.28482	0.27871
0.30171	0.38074
0.48022	0.27871
0.48022	0.04914
0.68424	-0.00188
0.53123	0.55929
0.09770	0.35523
-0.02981	0.02363
-0.13181	-0.10391
-0.33583	-0.20594
-0.18282	0.07465
0.19971	-0.15492
0.45472	0.35523
0.58223	0.22769
0.70974	0.61031
0.50573	0.04914
0.04670	1.35003
-0.13181	0.30422
-0.15732	-0.66508
-0.38683	-0.71609
-0.08081	0.20219
0.30171	0.27871
0.14870	-0.00188
0.50573	0.02363
0.32721	0.35523
0.53123	0.04914
0.50573	0.10015
-0.13181	0.32972
0.32721	0.17668
-1.04987	0.07465
-0.97337	0.17668
0.78624	0.04914
0.58223	0.02363
0.73524	0.30422
0.58223	0.15117
0.78624	0.10015
-0.00431	0.15117
-0.13181	0.32972
-0.13181	0.25320
-0.56534	0.10015
-0.38683	-0.10391
0.19971	0.04914
0.37822	0.22769
0.45472	0.35523
0.63323	0.02363
0.37822	-0.18043
0.02119	-0.33348
-0.13181	0.30422
-0.23382	0.27871
-0.28482	0.99292
-0.23382	0.12566
0.37822	0.15117
0.53123	0.73785
0.60773	0.40625
0.68424	0.22769
0.35272	-0.33348
0.09770	-0.38449
-0.23382	-0.07840
-0.20832	-0.33348
-0.28482	0.02363
-0.23382	-0.12942
0.22521	0.71234
0.55673	0.76336
0.68424	0.32972
0.50573	-0.02739
-0.28482	-0.05289
-0.08081	-0.02739
-0.05531	0.12566
0.22521	0.15117
0.19971	0.07465
-0.00431	0.12566
-0.46334	0.27871
0.32721	0.20219
0.22521	0.07465
1.37278	0.38074
0.14870	0.32972
0.35272	0.30422
-0.02981	-0.10391
-0.10631	0.10015
0.12320	-0.20594
-0.33583	-0.15492
0.07220	-0.12942
0.58223	0.50828
0.42922	0.22769
0.48022	0.68683
0.32721	0.48277
-0.02981	-0.12942
-0.31033	-0.53754
-0.31033	-0.18043
-0.41233	0.10015
-0.20832	0.50828
0.07220	0.63582
0.55673	0.71234
0.68424	0.27871
0.60773	0.25320
0.50573	0.04914
0.14870	-0.15492
-0.15732	-0.02739
-0.20832	-0.18043
-0.28482	-0.23145
0.07220	0.35523
0.25071	0.22769
0.37822	-0.18043
0.07220	-0.38449
0.48022	0.17668
0.63323	0.71234
0.30171	0.43176
0.12320	0.07465
0.25071	0.40625
-0.61635	0.61031
-0.97337	0.07465
0.27621	0.02363
1.04126	-0.00188
0.17421	0.15117
0.35272	-0.07840
0.70974	0.32972
0.25071	0.30422
-0.05531	-0.05289
0.02119	-0.10391
-0.28482	-0.05289
-0.18282	0.22769
0.22521	0.27871
0.37822	0.48277
0.42922	-0.74160
0.53123	0.15117
0.35272	0.96742
-0.08081	0.43176
-0.15732	-0.15492
-0.23382	0.07465
-0.48884	-0.02739
-0.18282	0.35523
0.17421	0.12566
0.42922	-0.00188
0.68424	0.32972
0.70974	0.50828
0.45472	0.04914
0.04670	-0.10391
-0.15732	-0.05289
-0.18282	-0.61406
-0.28482	0.17668
-0.00431	0.35523
0.48022	0.22769
0.25071	0.10015
0.09770	0.61031
0.81175	0.76336
0.35272	-0.05289
0.12320	-0.51203
0.14870	-0.02739
-0.38683	0.48277
-0.56534	0.15117
0.07220	0.15117
0.73524	0.30422
-0.74385	0.20219
0.70974	0.20219
0.88825	0.02363
0.53123	0.04914
0.63323	-0.00188
0.53123	0.12566
-0.92237	0.45726
-0.36133	0.04914
-0.15732	-0.07840
0.19971	-0.10391
0.53123	-0.12942
0.55673	-0.05289
0.60773	-0.20594
0.48022	1.06945
0.02119	0.71234
-0.23382	0.66132
-0.18282	-0.15492
-0.33583	0.15117
-0.28482	0.53379
0.35272	0.12566
0.48022	0.10015
0.55673	-0.48652
0.53123	-0.12942
0.45472	-0.25695
0.02119	-0.07840
-0.20832	-0.25695
0.07220	0.38074
-0.59084	0.86539
-0.23382	0.61031
0.27621	0.43176
0.68424	0.12566
0.55673	0.25320
0.25071	-0.07840
0.22521	0.22769
0.17421	0.22769
-0.10631	-0.10391
-0.00431	-0.18043
0.02119	-0.07840
-0.46334	0.17668
-0.36133	0.15117
0.60773	0.25320
0.27621	0.35523
0.37822	0.50828
0.55673	0.20219
1.65330	-0.35899
-0.71835	-0.51203
-0.28482	0.45726
-0.69285	0.50828
-0.20832	-0.02739
0.12320	-0.10391
0.76074	0.43176
0.63323	0.53379
0.68424	-0.20594
0.55673	0.10015
-0.02981	0.76336
-0.28482	0.25320
-0.31033	-0.25695
-0.38683	-0.38449
-0.36133	-0.10391
0.07220	0.50828
0.50573	0.25320
0.60773	0.53379
0.60773	0.25320
0.50573	0.43176
0.14870	-0.71609
-0.59084	-0.97117
-0.15732	-0.05289
-0.18282	0.66132
-0.08081	0.53379
0.37822	0.45726
0.60773	0.48277
0.53123	0.73785
0.76074	-0.10391
0.55673	-0.10391
-0.28482	-0.25695
-0.38683	-0.12942
-0.31033	-0.00188
-0.48884	0.45726
-0.13181	0.27871
0.70974	0.22769
0.60773	0.04914
0.27621	0.15117
0.60773	0.04914
-0.18282	0.30422
0.78624	0.32972
-0.53984	0.17668
0.07220	0.12566
-0.05531	0.35523
-0.10631	-0.10391
0.19971	-0.63957
0.35272	-0.53754
0.32721	0.53379
0.45472	0.40625
0.50573	0.38074
0.04670	0.63582
-0.13181	-0.05289
-0.38683	0.17668
-0.23382	0.45726
-0.25932	0.32972
0.19971	-0.30797
0.58223	-0.10391
0.53123	0.38074
0.58223	0.02363
0.50573	0.15117
0.07220	0.02363
-0.61635	-0.05289
-0.02981	0.12566
-0.23382	0.76336
-0.08081	0.17668
0.27621	0.07465
0.40372	-0.23145
0.68424	0.02363
1.04126	0.32972
0.50573	0.27871
-0.82036	-0.28246
0.19971	-0.48652
-0.18282	0.35523
-0.10631	0.43176
-0.13181	0.30422
0.22521	-0.00188
0.12320	0.04914
0.55673	0.45726
0.53123	-0.00188
0.60773	0.15117
0.02119	0.25320
-0.20832	0.12566
-0.10631	0.25320
-0.64185	0.27871
-0.25932	-0.00188
0.63323	-0.02739
0.17421	0.10015
0.45472	-0.28246
0.53123	-0.07840
0.48022	0.20219
0.27621	0.32972
-0.18282	0.35523
-0.28482	-0.10391
-0.59084	0.17668
-0.10631	0.53379
0.30171	0.10015
0.60773	0.40625
0.48022	0.40625
0.73524	0.12566
0.42922	-0.63957
0.09770	-0.05289
-0.10631	-0.00188
-0.31033	0.45726
-0.33583	-0.07840
-0.20832	0.25320
-0.02981	0.17668
0.73524	0.43176
0.53123	0.38074
0.53123	0.25320
0.30171	0.35523
0.22521	-0.07840
0.40372	0.10015
-1.30489	0.10015
0.17421	0.30422
-1.12638	-0.05289
0.60773	0.17668
0.25071	-0.48652
0.48022	-0.20594
1.24527	0.22769
0.40372	0.55929
0.22521	0.50828
0.60773	0.10015
-0.71835	0.15117
-0.15732	-0.00188
-0.43783	-0.02739
0.40372	0.55929
0.30171	0.32972
0.42922	-0.58856
0.60773	-0.15492
0.45472	0.63582
0.04670	0.50828
-0.02981	0.07465
-0.25932	0.12566
-0.33583	0.45726
-0.23382	0.27871
0.09770	-0.05289
0.53123	0.35523
0.50573	0.04914
0.58223	-0.53754
0.48022	-0.12942
0.09770	0.35523
-0.05531	0.32972
-0.28482	0.30422
-0.46334	0.27871
-0.18282	-0.25695
0.19971	-0.69059
0.55673	0.30422
0.45472	0.86539
0.58223	0.45726
0.60773	0.50828
0.12320	0.40625
0.14870	0.04914
-0.10631	0.04914
-0.79486	0.10015
0.04670	-0.10391
0.09770	-0.25695
-0.23382	0.04914
0.55673	0.17668
0.68424	0.20219
0.55673	0.15117
0.22521	0.32972
0.04670	0.22769
0.04670	0.17668
-0.08081	0.17668
-0.38683	0.10015
0.27621	-0.30797
0.25071	-0.18043
0.50573	0.86539
0.76074	0.58480
0.35272	-0.33348
0.02119	-0.18043
-0.00431	0.15117
-0.20832	0.12566
-0.20832	0.20219
-0.20832	0.61031
0.17421	-0.12942
0.55673	-0.00188
0.42922	0.17668
0.60773	0.55929
0.53123	0.91640
-0.02981	0.40625
-0.15732	-0.43551
-0.15732	-0.38449
-0.38683	0.22769
-0.25932	0.25320
0.22521	-0.30797
0.53123	-0.56305
0.53123	-0.00188
0.76074	0.25320
0.27621	0.38074
-0.05531	0.32972
-0.18282	0.30422
-0.25932	0.22769
0.07220	0.12566
-0.38683	0.02363
-0.10631	0.25320
0.58223	0.12566
0.45472	0.20219
0.73524	0.12566
1.16877	0.40625
-0.64185	0.22769
-0.10631	-0.33348
-0.13181	0.48277
-0.20832	-0.05289
-0.13181	-0.20594
0.96476	0.32972
-0.38683	0.38074
0.35272	-0.05289
0.60773	-0.23145
0.35272	0.07465
0.09770	0.55929
-0.05531	0.43176
-0.23382	0.32972
-0.48884	0.12566
-0.23382	0.25320
0.14870	-0.30797
0.37822	-0.81812
0.60773	0.66132
0.60773	0.66132
0.50573	0.61031
0.09770	-0.61406
-0.23382	-0.76711
-0.13181	-0.05289
-0.25932	0.81437
-0.31033	0.50828
0.22521	0.32972
0.60773	-0.07840
0.42922	-0.15492
0.76074	0.12566
0.60773	0.17668
-0.48884	0.17668
-0.02981	0.07465
-0.20832	0.25320
-0.00431	0.38074
-0.41233	0.17668
0.58223	0.12566
0.73524	0.04914
-1.15188	-0.05289
1.37278	-0.02739
0.32721	0.15117
0.37822	0.38074
0.09770	0.25320
-0.18282	0.30422
-0.20832	0.50828
0.50573	-0.12942
-0.15732	-0.33348
0.22521	0.04914
0.14870	0.17668
0.32721	0.43176
0.53123	0.27871
0.02119	0.40625
-0.05531	0.12566
0.12320	-0.15492
-0.76936	0.32972
-0.13181	0.27871
0.14870	-0.10391
0.60773	-0.48652
0.58223	-0.05289
0.55673	1.06945
0.48022	0.12566
0.25071	0.35523
-0.13181	0.35523
-0.31033	-0.12942
-0.13181	-0.23145
-0.38683	0.66132
-0.00431	-0.15492
0.37822	-0.41000
0.83725	-0.02739
0.68424	0.40625
-0.20832	0.45726
0.19971	0.43176
0.04670	0.30422
-0.18282	0.02363
-0.41233	0.22769
-0.08081	0.10015
0.27621	0.15117
0.30171	-0.12942
0.55673	0.02363
0.19971	0.27871
0.53123	0.15117
0.22521	0.35523
0.09770	0.35523
0.09770	-0.02739
-0.13181	-0.05289
-0.38683	0.02363
-0.10631	0.30422
0.35272	-0.00188
0.63323	0.20219
0.53123	0.07465
0.50573	0.22769
0.17421	0.32972
0.30171	0.17668
-0.36133	0.20219
-0.59084	0.10015
-0.36133	-0.66508
0.32721	-0.07840
0.42922	0.40625
0.63323	0.35523
0.55673	0.40625
0.68424	0.50828
0.37822	0.63582
0.02119	-0.46102
-1.43240	-0.25695
-0.23382	0.07465
-0.10631	-0.10391
0.19971	1.06945
0.50573	-0.10391
1.04126	-0.35899
1.04126	0.20219
-1.20288	0.20219
-0.43783	-0.02739
0.25071	0.04914
0.07220	0.32972
0.35272	-0.12942
-0.15732	0.10015
0.55673	0.25320
1.16877	0.20219
-0.13181	0.32972
-2.47797	0.22769
-0.23382	0.20219
0.35272	0.32972
0.63323	0.30422
0.40372	0.02363
-0.71835	-0.12942
0.09770	0.15117
0.50573	-0.07840
0.53123	-0.02739
0.42922	0.61031
0.50573	0.04914
0.25071	-0.61406
-0.10631	-0.10391
-0.38683	-0.25695
-0.31033	0.27871
-0.46334	0.53379
-0.36133	0.73785
0.04670	0.86539
0.50573	0.04914
0.58223	0.30422
0.60773	0.53379
0.53123	0.15117
0.32721	-0.35899
-0.05531	0.07465
-0.56534	0.27871
-0.31033	-0.43551
-0.23382	-0.46102
0.30171	-0.10391
0.58223	0.38074
0.63323	0.71234
1.04126	-0.20594
-0.87136	-0.10391
0.19971	0.38074
-0.10631	0.27871
0.60773	0.22769
-0.61635	0.58480
-0.13181	0.40625
0.27621	0.45726
0.48022	0.07465
0.81175	-0.00188
-1.25389	0.10015
0.48022	0.04914
0.32721	-0.10391
-0.02981	0.15117
0.35272	-0.12942
-0.02981	0.20219
-0.36133	0.02363
0.07220	-0.00188
0.45472	-0.10391
0.55673	0.55929
0.65874	0.73785
0.32721	0.38074
-0.08081	0.12566
-0.20832	-0.33348
-0.18282	0.02363
-0.28482	0.25320
-0.23382	0.35523
0.19971	-0.10391
0.55673	0.17668
0.55673	-0.12942
0.53123	0.12566
0.73524	0.61031
0.12320	0.22769
-0.18282	0.20219
-0.05531	0.50828
-0.36133	0.04914
-0.08081	-0.25695
0.42922	0.07465
-0.61635	0.22769
0.68424	0.15117
0.96476	0.25320
0.42922	0.07465
-0.02981	0.10015
-0.31033	0.63582
0.07220	-0.10391
0.09770	-0.07840
-0.87136	0.53379
-0.18282	0.22769
0.73524	0.04914
0.78624	-0.00188
0.45472	0.10015
1.55129	0.20219
-2.65648	0.22769
-0.48884	0.35523
-0.66735	0.25320
-0.08081	0.10015
-0.02981	0.02363
1.21977	-0.07840
1.06676	-0.18043
-0.59084	0.25320
0.96476	0.17668
0.53123	0.55929
0.17421	0.30422
-0.13181	0.48277
-0.15732	-0.12942
-0.18282	-0.41000
-0.38683	0.22769
0.02119	0.22769
0.32721	0.32972
0.27621	-0.76711
0.42922	-0.51203
0.40372	0.20219
0.14870	1.40105
-0.02981	0.91640
-0.23382	-0.10391
-0.23382	-0.20594
-0.20832	-0.35899
0.09770	0.32972
0.50573	0.76336
0.55673	0.10015
0.60773	-0.43551
0.50573	0.02363
0.12320	0.35523
-0.28482	0.17668
-0.00431	0.35523
-0.15732	0.40625
-0.20832	-0.05289
0.42922	-0.00188
-1.27939	0.15117
0.19971	0.12566
1.04126	0.04914
1.42379	0.20219
-0.71835	-0.02739
0.14870	-0.05289
-0.23382	0.22769
-0.05531	0.38074
0.37822	0.35523
0.14870	0.38074
0.22521	-0.02739
0.35272	-0.00188
0.48022	-0.38449
0.19971	-0.10391
0.07220	0.58480
-0.31033	0.07465
-0.25932	-0.25695
-0.25932	0.10015
-0.31033	0.17668
0.12320	0.55929
0.55673	0.32972
0.53123	0.22769
0.60773	-0.02739
0.68424	0.10015
0.22521	0.22769
-0.13181	0.32972
-0.13181	0.89089
-0.31033	-0.23145
-0.25932	-0.89465
0.17421	-0.30797
0.53123	0.25320
0.60773	0.40625
0.68424	0.53379
0.53123	0.35523
0.02119	0.04914
0.02119	-0.35899
-0.23382	-0.00188
0.35272	0.53379
0.27621	0.40625
-1.61091	0.35523
-0.05531	0.04914
0.50573	0.04914
0.93925	0.22769
0.02119	0.04914
-0.20832	0.04914
0.37822	0.12566
-0.00431	0.15117
-0.05531	0.12566
0.19971	0.30422
0.02119	0.30422
0.55673	-0.20594
0.42922	-0.23145
0.37822	0.22769
0.58223	0.35523
-0.02981	0.61031
-0.31033	0.07465
-0.28482	-0.20594
-0.46334	0.38074
-0.48884	0.20219
0.09770	-0.10391
0.55673	-0.23145
0.48022	1.01843
0.63323	1.29902
0.50573	0.96742
0.04670	-0.28246
-0.05531	-0.53754
-0.10631	-0.79262
-0.31033	-0.02739
-0.25932	-0.10391
0.25071	0.02363
0.50573	-0.07840
0.45472	-0.00188
0.70974	0.50828
0.37822	0.66132
-0.05531	0.35523
-0.10631	0.32972
-0.38683	0.63582
-0.02981	-0.23145
0.48022	-0.25695
-0.41233	0.22769
0.19971	0.30422
-0.02981	0.32972
1.11776	0.30422
0.93925	0.30422
0.45472	-0.15492
0.19971	-0.20594
0.07220	0.07465
0.22521	0.30422
-0.84586	0.25320
-0.48884	0.15117
0.55673	0.25320
0.45472	0.38074
0.60773	-0.02739
0.60773	-0.02739
-0.15732	0.22769
-0.25932	-0.66508
-0.13181	-0.76711
-0.28482	0.53379
-0.28482	0.91640
0.19971	0.89089
0.55673	0.20219
0.53123	0.10015
0.30171	-0.10391
0.63323	0.35523
0.32721	0.32972
-0.10631	-0.35899
-0.28482	0.63582
-0.38683	0.07465
-0.18282	0.38074
0.25071	-0.18043
0.45472	-0.12942
0.65874	-0.23145
0.81175	-0.56305
0.42922	-0.23145
-0.31033	0.38074
-0.82036	0.50828
0.02119	0.22769
0.58223	0.10015
-1.15188	0.22769
0.45472	0.40625
-0.10631	0.38074
0.58223	0.35523
1.04126	0.15117
0.99026	0.43176
0.19971	0.17668
-0.20832	-0.28246
-0.31033	-0.25695
-0.48884	0.02363
-0.28482	0.17668
0.25071	0.35523
0.02119	0.58480
0.22521	-0.41000
0.42922	-0.41000
0.42922	0.07465
0.14870	0.53379
-0.02981	0.40625
-0.05531	0.04914
-0.13181	0.02363
-0.20832	0.58480
0.32721	0.61031
0.50573	-0.05289
0.42922	-0.15492
0.48022	0.10015
0.53123	-0.10391
0.12320	0.30422
-0.02981	0.04914
-0.13181	-0.05289
-0.36133	0.15117
-0.48884	0.22769
0.09770	-0.10391
0.55673	0.35523
0.55673	-0.58856
0.70974	0.30422
1.37278	0.32972
-0.38683	0.68683
-0.69285	0.22769
-0.15732	-0.00188
-0.64185	0.15117
0.25071	0.10015
0.50573	0.04914
-0.79486	-0.02739
1.32178	0.07465
0.37822	0.17668
0.53123	0.43176
0.53123	0.22769
0.78624	0.04914
-1.20288	-0.05289
-0.31033	0.35523
-0.15732	0.35523
0.14870	-0.25695
0.58223	-0.10391
0.76074	-0.15492
0.14870	0.96742
0.50573	0.07465
0.19971	-0.12942
-0.18282	-0.56305
-0.05531	0.78886
-0.20832	0.73785
-0.76936	0.45726
0.22521	0.12566
0.45472	-0.18043
0.50573	0.10015
0.58223	0.25320
0.55673	-0.07840
0.02119	0.02363
-0.02981	0.10015
-0.13181	-0.12942
-0.33583	-0.18043
-0.20832	0.30422
0.25071	0.40625
0.60773	0.17668
0.32721	0.12566
0.45472	0.35523
0.65874	0.22769
-0.56534	0.35523
-0.13181	0.20219
0.02119	0.07465
0.27621	0.22769
0.42922	0.15117
0.37822	-0.28246
-0.38683	-0.35899
0.09770	0.35523
0.53123	0.20219
0.63323	0.32972
0.81175	0.35523
-0.02981	0.10015
-0.43783	0.15117
-0.43783	0.17668
-0.43783	0.38074
-0.00431	-0.10391
0.53123	-0.20594
0.60773	0.15117
0.60773	0.38074
0.42922	0.38074
-0.43783	0.63582
-0.08081	0.27871
-0.00431	0.20219
-0.18282	-0.69059
-0.28482	-0.63957
0.09770	0.30422
0.53123	0.22769
0.53123	0.40625
0.58223	0.78886
0.55673	0.76336
0.02119	0.32972
-0.15732	-0.15492
-0.18282	-0.05289
-0.28482	0.15117
-0.23382	-0.10391
-0.33583	-0.30797
0.32721	-0.25695
0.42922	0.04914
0.91375	0.30422
0.63323	0.25320
-0.13181	0.20219
-0.13181	0.25320
-0.38683	0.04914
0.09770	0.04914
0.32721	0.45726
-0.43783	0.20219
-1.02437	0.25320
0.50573	0.15117
1.14327	0.02363
0.99026	0.12566
-0.79486	0.61031
-0.23382	-0.07840
-0.05531	-0.33348
-0.13181	-0.48652
-0.41233	0.35523
-0.20832	0.50828
0.50573	0.66132
0.73524	0.50828
0.55673	0.12566
0.50573	-0.46102
0.19971	-0.15492
-0.15732	0.58480
-0.20832	0.02363
-0.43783	-0.56305
-0.46334	0.43176
-0.05531	0.68683
0.45472	0.91640
0.63323	0.35523
0.63323	0.25320
0.48022	0.07465
0.09770	-0.12942
-0.10631	-0.15492
-0.23382	-0.15492
-0.05531	0.12566
-0.25932	-0.02739
-0.51434	0.27871
0.60773	0.15117
1.14327	0.35523
0.81175	0.53379
-0.36133	0.15117
-0.15732	-0.28246
0.02119	-0.20594
0.02119	0.32972
0.45472	0.15117
-0.33583	0.40625
-0.66735	0.30422
0.63323	0.17668
0.25071	0.22769
0.60773	0.15117
0.73524	0.17668
0.37822	0.07465
-0.23382	0.07465
-0.05531	-0.00188
-0.13181	0.15117
-0.31033	0.07465
-0.08081	0.30422
0.68424	0.22769
0.30171	-0.33348
0.42922	-0.12942
0.32721	0.76336
0.02119	0.61031
-0.20832	-0.28246
-0.10631	-0.46102
-0.25932	-0.05289
-0.20832	0.12566
0.27621	0.53379
0.48022	1.37554
0.63323	0.96742
0.68424	-0.61406
0.53123	-0.76711
0.14870	0.53379
-0.15732	1.04394
-0.18282	0.63582
-0.28482	-0.33348
-0.33583	-0.20594
-0.00431	-0.15492
0.37822	0.12566
0.45472	0.04914
0.53123	0.02363
0.50573	0.04914
0.68424	0.38074
-0.18282	0.10015
-1.07538	-0.00188
-0.20832	0.25320
-0.00431	0.25320
0.45472	0.35523
-0.15732	0.20219
0.58223	0.35523
1.06676	0.02363
0.40372	-0.02739
-0.33583	0.04914
0.32721	0.12566
0.17421	0.22769
0.09770	0.25320
-0.20832	0.12566
0.12320	0.43176
0.32721	0.07465
0.30171	-0.33348
0.42922	-0.00188
0.40372	0.53379
0.12320	0.40625
-0.15732	-0.25695
-0.31033	-0.71609
-0.25932	0.58480
-0.20832	0.45726
0.04670	0.22769
0.40372	0.25320
0.60773	0.76336
0.58223	0.76336
0.53123	-0.35899
0.32721	-0.20594
-0.08081	-0.05289
-0.18282	0.17668
-0.13181	0.30422
-0.33583	0.04914
0.07220	0.27871
0.48022	-0.00188
0.48022	-0.23145
0.48022	0.63582
0.63323	0.48277
0.25071	-0.30797
-0.36133	-0.35899
-0.33583	-0.12942
-0.02981	0.35523
-0.23382	0.35523
-0.13181	0.40625
0.86275	0.25320
0.86275	0.20219
-0.13181	0.07465
-0.84586	0.07465
0.48022	0.15117
0.27621	0.17668
-0.00431	0.15117
0.12320	0.15117
0.12320	-0.10391
0.27621	0.48277
0.48022	0.22769
0.58223	0.02363
0.45472	-0.28246
0.14870	0.25320
0.02119	0.27871
-0.28482	0.04914
-0.23382	0.10015
-0.28482	0.48277
-0.41233	0.35523
0.09770	0.07465
0.42922	-0.56305
0.50573	-0.51203
0.40372	-0.12942
0.50573	0.63582
0.37822	0.63582
-0.05531	0.73785
-0.08081	0.30422
-0.28482	0.61031
-0.38683	0.12566
0.19971	0.07465
0.42922	-0.23145
0.55673	-0.25695
0.53123	0.07465
0.37822	0.04914
0.22521	0.20219
-0.13181	-0.10391
-0.25932	-0.33348
-0.10631	0.15117
-0.23382	0.25320
-0.02981	0.25320
0.37822	0.30422
0.63323	0.38074
0.60773	0.27871
0.73524	0.25320
0.19971	0.22769
-0.00431	-0.07840
-0.33583	0.04914
-0.76936	0.32972
-0.25932	0.27871
0.07220	-0.25695
0.53123	-0.35899
0.70974	0.76336
0.68424	0.30422
0.60773	-0.05289
0.22521	0.17668
-0.00431	0.20219
-0.25932	0.02363
-0.23382	0.15117
-0.36133	-0.43551
-0.00431	-0.07840
0.40372	0.53379
0.48022	0.86539
0.48022	0.12566
0.58223	0.17668
0.14870	-0.15492
-0.15732	0.20219
0.58223	0.20219
-0.76936	0.12566
-2.47797	0.10015
0.22521	-0.10391
0.70974	0.15117
0.86275	0.30422
0.76074	0.15117
0.96476	0.22769
0.14870	0.20219
-0.08081	0.22769
0.17421	0.02363
-0.33583	0.17668
-1.43240	0.22769
-0.15732	0.07465
0.09770	0.02363
0.58223	0.15117
1.09226	0.20219
0.60773	0.20219
0.30171	0.12566
-0.08081	0.12566
0.19971	0.17668
-0.31033	0.27871
-0.33583	0.12566
-0.02981	-0.05289
0.50573	0.17668
0.48022	0.50828
0.37822	0.15117
0.58223	-0.07840
0.04670	-0.02739
-0.23382	-0.35899
-0.20832	0.10015
-0.23382	0.48277
-0.20832	1.04394
0.19971	0.15117
0.53123	-0.51203
0.60773	-0.71609
0.50573	0.45726
0.55673	0.96742
0.17421	1.14597
-0.05531	-0.23145
-0.23382	-0.58856
-0.28482	-0.20594
-0.25932	-0.15492
0.07220	0.10015
0.48022	0.30422
0.40372	0.38074
0.48022	0.15117
0.58223	0.07465
0.27621	0.25320
-0.08081	0.20219
-0.25932	0.04914
-0.20832	0.17668
0.17421	0.07465
-0.23382	0.22769
0.09770	0.25320
1.24527	0.15117
-1.71292	0.12566
0.65874	0.32972
0.30171	0.22769
0.32721	0.22769
0.22521	0.15117
0.17421	0.12566
-0.05531	-0.02739
0.07220	0.12566
0.19971	-0.33348
0.48022	-0.05289
0.25071	0.45726
0.40372	0.40625
0.04670	0.07465
-0.31033	0.30422
-0.20832	0.78886
-0.18282	0.40625
-0.20832	0.30422
0.02119	-0.18043
0.35272	-0.43551
0.58223	-0.66508
0.63323	0.22769
0.63323	0.50828
0.17421	0.15117
-0.08081	0.63582
-0.08081	0.45726
-0.13181	0.04914
-0.33583	-0.00188
0.04670	-0.05289
0.37822	0.07465
0.55673	-0.00188
0.55673	0.02363
0.50573	0.22769
0.12320	0.17668
-0.31033	-0.12942
0.19971	0.10015
-0.31033	0.27871
-0.89686	0.12566
-0.43783	0.27871
0.96476	0.25320
1.04126	0.27871
-0.15732	0.04914
0.76074	-0.00188
-0.89686	0.02363
0.35272	0.20219
0.35272	0.15117
0.12320	0.30422
-0.18282	0.10015
0.19971	0.20219
0.35272	0.15117
0.45472	0.10015
0.35272	-0.35899
0.32721	0.10015
0.17421	0.66132
-0.20832	0.43176
-0.18282	-0.51203
-0.28482	-0.28246
-0.38683	0.43176
-0.02981	1.06945
0.48022	0.20219
0.58223	-0.71609
0.45472	-0.05289
0.68424	0.55929
0.19971	0.27871
-0.08081	-0.00188
-0.10631	0.17668
-0.28482	-0.05289
-0.25932	0.22769
0.04670	0.61031
0.48022	0.48277
0.65874	0.10015
0.30171	-0.10391
0.48022	0.04914
0.32721	0.02363
-0.10631	-0.15492
0.02119	0.04914
-0.43783	0.17668
-0.48884	0.04914
0.73524	0.25320
-0.10631	0.20219
0.93925	0.25320
0.81175	0.20219
-1.61091	0.20219
0.50573	0.30422
0.27621	0.17668
0.70974	0.12566
-0.00431	0.17668
-0.23382	-0.05289
0.35272	0.20219
0.53123	0.20219
-0.59084	0.07465
0.63323	0.04914
0.48022	0.20219
0.22521	0.27871
-0.10631	0.04914
-0.18282	-0.07840
-0.18282	0.25320
-0.41233	0.58480
-0.00431	-0.41000
0.27621	-0.76711
0.63323	0.45726
0.55673	-0.00188
0.58223	0.63582
0.25071	1.01843
-0.08081	0.68683
-0.13181	-0.76711
-0.33583	-0.07840
-0.23382	0.32972
0.02119	-0.18043
0.42922	-0.38449
0.45472	0.04914
0.55673	0.25320
0.63323	0.15117
0.25071	0.15117
-0.13181	0.30422
-0.10631	0.07465
-0.51434	0.12566
-0.28482	0.22769
0.19971	0.15117
0.32721	0.20219
0.68424	0.12566
0.63323	0.10015
0.40372	-0.00188
0.04670	0.25320
-0.28482	0.10015
-0.48884	0.22769
0.02119	0.12566
-0.15732	0.17668
0.17421	0.15117
0.50573	-0.00188
0.58223	-0.02739
0.32721	-0.07840
0.76074	0.43176
0.22521	0.50828
-0.18282	0.35523
-0.20832	-0.33348
-0.53984	-0.05289
-0.43783	-0.07840
0.04670	0.50828
0.50573	0.48277
0.53123	0.22769
0.53123	-0.07840
0.68424	-0.15492
0.19971	0.20219
-0.05531	0.45726
-0.15732	0.55929
-0.28482	0.12566
-0.31033	-0.30797
0.02119	0.40625
0.32721	-0.07840
0.53123	0.38074
0.53123	0.20219
0.45472	-0.10391
0.17421	-0.10391
-0.13181	0.10015
-0.18282	0.04914
0.30171	0.02363
-0.02981	0.15117
-1.53441	0.10015
0.53123	0.30422
0.73524	0.30422
0.73524	0.15117
0.32721	0.25320
0.48022	0.32972
0.48022	0.20219
-0.64185	-0.00188
-0.66735	0.17668
-0.18282	0.20219
-0.02981	-0.00188
-0.08081	-0.02739
0.70974	-0.05289
1.21977	0.20219
0.63323	0.30422
0.19971	0.35523
-0.15732	0.38074
-0.10631	0.07465
-0.51434	-0.76711
-0.61635	-0.35899
-0.18282	0.38074
0.37822	0.61031
0.55673	0.66132
0.53123	-0.12942
0.73524	0.30422
0.30171	0.25320
-0.00431	-0.25695
-0.18282	-0.18043
-0.25932	0.27871
-0.31033	0.32972
-0.00431	-0.00188
0.37822	-0.10391
0.55673	0.25320
0.48022	0.22769
0.55673	0.04914
0.42922	0.43176
-0.13181	0.12566
-0.18282	-0.05289
-0.23382	0.17668
-0.31033	0.15117
-0.08081	0.12566
0.42922	0.10015
0.55673	0.10015
0.83725	0.12566
0.53123	0.04914
-0.48884	0.22769
0.25071	0.27871
-0.25932	0.20219
-1.61091	0.12566
-0.46334	0.02363
0.40372	0.22769
0.83725	0.25320
0.78624	0.38074
0.86275	0.20219
0.93925	-0.33348
0.19971	-0.35899
-0.13181	0.12566
-0.20832	0.43176
-0.28482	0.58480
-0.51434	0.50828
-0.02981	-0.28246
0.19971	-0.02739
0.37822	-0.20594
0.45472	-0.89465
0.53123	0.99292
0.27621	1.42656
-0.18282	0.68683
-0.18282	-0.07840
-0.13181	-0.38449
-0.33583	-0.56305
0.02119	-0.25695
0.45472	0.02363
0.50573	-0.12942
0.65874	0.22769
0.63323	0.43176
0.19971	0.38074
-0.18282	0.25320
-0.05531	0.43176
0.09770	0.55929
-0.25932	0.25320
-0.20832	-0.20594
0.27621	0.04914
0.73524	0.02363
0.42922	0.02363
0.65874	0.10015
-0.18282	0.17668
0.27621	0.15117
-0.36133	-0.05289
-0.05531	0.12566
-0.79486	0.15117
-0.13181	0.04914
1.01576	-0.00188
1.55129	0.27871
-0.23382	0.10015
0.58223	0.22769
0.25071	0.35523
0.12320	0.22769
-0.05531	0.17668
-0.05531	-0.05289
-0.15732	-0.23145
0.02119	0.61031
0.27621	0.02363
0.42922	-0.66508
0.37822	0.20219
0.53123	0.86539
0.19971	0.73785
-0.15732	-0.25695
-0.18282	0.15117
-0.23382	0.43176
-0.28482	0.15117
-0.02981	-0.12942
0.42922	-0.18043
0.58223	0.12566
0.42922	0.04914
0.53123	-0.35899
0.30171	0.12566
-0.10631	0.48277
-0.31033	0.40625
-0.00431	0.30422
-0.28482	-0.28246
-0.15732	0.04914
0.48022	0.32972
0.78624	0.40625
0.37822	0.32972
0.58223	0.35523
0.48022	0.20219
0.14870	0.15117
-0.61635	0.15117
-0.64185	0.02363
-0.41233	0.12566
-1.89143	-0.07840
0.60773	-0.02739
1.14327	0.25320
0.99026	0.30422
0.83725	0.15117
0.50573	0.25320
0.48022	0.04914
-0.53984	-0.07840
-0.53984	0.30422
-0.64185	0.43176
-0.10631	0.38074
0.37822	-0.23145
0.50573	-0.35899
0.42922	-0.66508
0.60773	0.68683
0.25071	0.58480
-0.20832	0.22769
-0.20832	0.20219
-0.15732	0.91640
-0.33583	-0.30797
0.04670	-0.02739
0.42922	0.07465
0.42922	-0.12942
0.50573	-0.02739
0.60773	-0.00188
0.19971	0.17668
-0.08081	0.38074
-0.08081	0.32972
-0.18282	0.07465
-0.28482	0.25320
-0.13181	0.17668
0.42922	-0.02739
1.14327	-0.28246
0.81175	-0.23145
-0.48884	0.35523
-0.05531	0.53379
0.14870	0.17668
0.35272	0.17668
0.17421	0.15117
-3.19201	0.20219
-0.25932	0.04914
1.04126	-0.02739
0.88825	0.32972
0.81175	0.25320
0.78624	0.10015
0.55673	0.17668
0.02119	0.02363
-0.02981	0.17668
-0.28482	0.15117
-0.69285	0.10015
0.02119	0.02363
0.12320	-0.02739
0.30171	0.10015
0.09770	0.50828
0.83725	0.04914
-1.07538	0.04914
0.19971	-0.07840
0.12320	0.55929
-0.08081	-0.02739
-0.10631	0.30422
0.17421	0.63582
0.53123	0.53379
0.58223	0.10015
0.60773	-0.51203
0.53123	-0.69059
0.32721	0.30422
-0.18282	0.25320
-0.23382	0.17668
-0.28482	0.30422
-0.43783	0.15117
-0.00431	0.20219
0.48022	0.12566
0.32721	0.04914
0.37822	0.10015
0.86275	0.15117
0.58223	0.27871
-0.92237	0.68683
-0.18282	-0.05289
0.07220	-0.10391
-0.33583	-0.02739
0.19971	0.07465
0.83725	0.22769
1.32178	0.30422
-0.31033	0.35523
-0.51434	0.22769
0.14870	0.35523
0.25071	0.17668
0.48022	-0.00188
2.49485	-0.05289
-3.26852	-0.18043
-0.74385	0.15117
0.50573	0.04914
0.48022	0.27871
0.70974	0.15117
0.96476	0.22769
0.48022	-0.05289
0.19971	0.25320
-0.13181	-0.02739
-0.15732	0.17668
-0.38683	0.61031
-0.23382	-0.69059
0.14870	0.58480
0.37822	0.35523
0.42922	0.17668
0.53123	-0.07840
0.27621	0.15117
-0.15732	0.43176
-0.25932	0.27871
-0.15732	-0.02739
-0.28482	0.35523
-0.02981	0.02363
0.42922	-0.02739
0.58223	-0.38449
0.42922	-0.05289
0.70974	0.40625
0.37822	0.53379
-0.08081	0.45726
-0.18282	0.30422
-0.08081	0.22769
-0.28482	-0.05289
-0.08081	0.07465
0.45472	0.10015
0.93925	0.07465
-0.82036	0.04914
0.55673	0.27871
1.14327	0.20219
-0.18282	0.20219
-0.20832	0.27871
-0.56534	0.04914
-0.00431	-0.23145
0.83725	-0.10391
0.12320	0.17668
0.60773	0.22769
0.76074	-0.00188
0.50573	0.20219
0.12320	0.45726
-0.10631	-0.00188
-0.28482	0.38074
-0.10631	0.50828
-0.28482	0.40625
-0.53984	-0.15492
0.30171	0.22769
0.53123	-0.28246
0.45472	-0.00188
0.78624	0.10015
0.40372	0.25320
-0.13181	0.20219
-0.28482	-0.46102
-0.02981	0.81437
-0.20832	0.55929
-0.10631	0.48277
0.37822	0.25320
0.55673	-0.48652
0.37822	-0.30797
0.70974	-0.20594
0.14870	0.12566
-0.15732	0.17668
-0.15732	0.27871
-0.18282	0.25320
-0.25932	0.35523
0.07220	0.20219
0.07220	0.22769
0.53123	0.04914
0.04670	0.02363
0.81175	-0.05289
0.09770	-0.05289
0.19971	0.53379
0.02119	0.17668
0.48022	0.12566
-0.31033	-0.02739
-1.61091	0.45726
0.48022	0.38074
0.83725	0.02363
0.86275	-0.23145
1.11776	-0.25695
0.04670	0.32972
0.12320	0.50828
-0.15732	0.10015
-0.23382	0.22769
-0.41233	0.22769
-0.02981	0.30422
0.22521	0.15117
0.48022	-0.07840
0.30171	-0.18043
0.60773	0.15117
0.35272	0.48277
-0.20832	0.25320
-0.23382	0.12566
-0.10631	0.15117
-0.41233	0.15117
-0.08081	-0.05289
0.37822	0.35523
0.48022	-0.25695
0.63323	-0.00188
0.60773	0.30422
0.37822	0.12566
0.12320	0.35523
-0.18282	0.20219
-0.15732	0.25320
-0.23382	0.20219
-0.20832	-0.05289
0.17421	0.25320
0.53123	0.15117
0.35272	0.04914
0.93925	0.10015
0.30171	0.02363
-0.66735	-0.10391
-0.15732	0.25320
-0.08081	0.25320
-0.76936	0.25320
0.07220	0.30422
0.68424	0.04914
0.99026	0.20219
0.27621	0.38074
0.78624	0.20219
0.45472	-0.07840
-0.08081	-0.33348
-0.31033	0.04914
-0.18282	0.22769
-0.38683	0.04914
-0.10631	0.66132
0.37822	-0.07840
0.27621	0.58480
0.37822	0.55929
0.53123	0.43176
0.27621	0.48277
-0.02981	-0.63957
-0.13181	-1.07320
-0.08081	-0.25695
-0.25932	0.02363
0.07220	0.40625
0.48022	0.63582
0.45472	0.48277
0.50573	0.48277
0.70974	0.22769
0.22521	0.38074
0.07220	0.30422
-0.38683	-0.33348
-0.46334	-0.12942
-0.25932	0.10015
0.53123	0.20219
0.63323	0.07465
-1.30489	0.10015
0.25071	0.17668
1.29628	0.20219
0.58223	0.25320
0.12320	0.20219
0.27621	0.15117
-0.92237	-0.00188
-0.87136	-0.10391
0.09770	0.10015
0.53123	0.27871
1.34728	0.22769
0.22521	0.15117
0.73524	0.15117
0.55673	0.20219
-0.00431	0.25320
-0.28482	-0.86914
0.02119	0.07465
-0.59084	1.12046
-0.28482	0.58480
0.19971	0.02363
0.48022	-0.33348
0.55673	-0.46102
0.53123	0.66132
0.22521	0.20219
-0.05531	0.07465
-0.10631	-0.15492
-0.13181	0.15117
-0.23382	0.22769
0.02119	0.15117
0.25071	0.12566
0.83725	0.17668
-0.02981	0.12566
0.45472	0.10015
0.42922	0.27871
0.09770	0.27871
0.40372	0.07465
-0.10631	0.20219
-1.71292	0.15117
-0.74385	0.22769
0.45472	0.15117
0.53123	0.63582
0.93925	0.04914
0.50573	-0.38449
0.53123	0.15117
0.25071	0.40625
-0.05531	0.17668
-0.20832	0.04914
-0.15732	0.15117
-0.18282	0.17668
0.93925	0.04914
-0.28482	0.15117
-0.18282	0.02363
0.83725	0.17668
0.35272	0.30422
0.09770	-0.07840
-0.89686	-0.02739
-0.05531	0.83988
-0.18282	0.45726
-0.05531	-0.35899
0.42922	-0.76711
0.53123	0.50828
0.53123	0.71234
0.73524	0.32972
0.32721	-0.28246
-0.15732	-0.35899
-0.28482	1.22250
-0.08081	0.45726
-0.36133	0.04914
-0.10631	-0.07840
0.37822	-0.05289
0.65874	-0.02739
0.42922	0.38074
0.53123	0.27871
0.22521	-0.15492
-0.08081	-0.15492
-0.13181	0.30422
-0.10631	0.15117
-0.23382	0.22769
-0.10631	0.45726
0.53123	-0.02739
0.78624	-0.00188
0.86275	0.12566
-0.20832	0.04914
-0.61635	0.20219
0.30171	0.20219
0.60773	0.25320
0.76074	0.20219
-0.92237	0.17668
0.12320	0.20219
0.40372	-0.05289
0.65874	0.25320
0.42922	0.25320
0.53123	0.22769
0.14870	-0.05289
0.22521	0.02363
-0.59084	0.10015
-0.10631	-0.18043
-0.36133	-0.05289
-0.18282	0.81437
0.02119	0.15117
0.40372	-0.46102
0.53123	-0.28246
0.60773	0.45726
0.35272	0.45726
0.02119	0.48277
-0.02981	0.48277
-0.18282	-0.23145
-0.25932	-0.02739
-0.00431	0.53379
0.37822	0.38074
0.45472	-0.18043
0.42922	-0.07840
0.68424	-0.15492
0.35272	-0.02739
-0.08081	0.04914
-0.15732	0.43176
-0.15732	0.30422
-0.23382	-0.02739
-0.53984	0.17668
0.19971	0.15117
0.55673	0.22769
0.37822	0.22769
0.73524	0.48277
0.02119	-0.10391
0.32721	-0.05289
0.02119	-0.07840
0.42922	0.30422
-0.89686	0.38074
-1.25389	0.25320
0.70974	0.50828
0.91375	-0.35899
0.83725	-0.23145
0.88825	0.38074
0.73524	0.43176
-0.10631	-0.02739
-0.20832	-0.20594
-0.10631	0.43176
-0.25932	0.12566
-0.18282	0.07465
0.27621	0.17668
0.55673	0.35523
0.37822	0.17668
0.42922	0.04914
0.22521	0.30422
-0.08081	0.20219
-0.18282	-0.10391
-0.28482	-0.20594
-0.33583	-0.28246
0.02119	0.83988
0.32721	0.73785
0.60773	0.27871
0.48022	-0.33348
0.63323	-0.25695
0.45472	0.12566
0.02119	0.10015
-0.28482	0.55929
-0.18282	0.04914
-0.20832	0.12566
-0.13181	-0.12942
0.55673	0.10015
0.60773	0.30422
0.35272	0.30422
-0.02981	0.12566
0.12320	0.45726
0.25071	0.04914
0.14870	-0.10391
-0.28482	0.10015
-0.08081	0.12566
-0.51434	0.30422
-0.00431	0.22769
0.53123	0.12566
0.68424	0.20219
0.93925	0.10015
1.06676	0.35523
-1.02437	0.25320
-0.25932	-0.41000
-0.18282	-0.20594
-0.28482	0.35523
0.12320	-0.00188
0.37822	0.04914
0.45472	-0.05289
0.63323	0.71234
0.76074	0.43176
0.22521	0.45726
-0.10631	-0.20594
-0.18282	0.27871
-0.20832	0.17668
-0.46334	-0.15492
-0.08081	-0.00188
0.32721	-0.10391
0.48022	0.25320
0.50573	0.68683
0.68424	0.35523
0.30171	-0.30797
-0.08081	0.04914
-0.18282	0.12566
-0.31033	0.04914
-0.31033	0.35523
-0.08081	0.12566
0.27621	0.07465
0.50573	-0.10391
0.42922	0.32972
1.01576	0.35523
0.22521	0.20219
-0.92237	0.17668
-0.15732	0.15117
-0.33583	0.22769
-0.08081	0.22769
0.30171	0.04914
0.58223	0.04914
0.86275	0.25320
0.07220	-0.02739
0.35272	-0.02739
0.27621	0.27871
0.09770	-0.12942
0.07220	0.12566
0.42922	0.38074
-1.81492	0.43176
-0.23382	-0.05289
0.53123	0.04914
0.70974	0.50828
0.55673	0.32972
0.88825	0.78886
0.35272	-0.07840
-0.10631	-0.43551
-0.18282	-0.38449
-0.10631	0.30422
-0.25932	0.10015
-0.33583	-0.23145
0.25071	0.15117
0.53123	0.63582
0.35272	0.45726
0.63323	0.12566
0.40372	0.20219
0.02119	0.15117
-0.23382	-0.15492
-0.25932	0.10015
-0.23382	0.20219
0.02119	0.17668
0.19971	0.32972
0.50573	-0.12942
0.55673	0.17668
0.60773	0.27871
0.27621	-0.02739
-0.05531	0.04914
0.09770	0.30422
-0.46334	0.30422
-0.28482	0.20219
-0.00431	0.25320
0.14870	0.25320
0.12320	0.07465
0.63323	0.10015
1.01576	-0.05289
0.53123	0.17668
-0.28482	0.17668
-0.02981	0.22769
-0.05531	0.04914
-0.33583	0.15117
-0.18282	-0.07840
0.19971	-0.10391
0.48022	-0.43551
0.55673	1.32453
0.55673	0.61031
0.12320	-0.48652
-0.10631	0.04914
-0.10631	0.68683
-0.00431	1.37554
-0.53984	-0.38449
-0.25932	-0.99668
0.37822	-0.43551
0.65874	-0.00188
0.53123	0.43176
0.73524	0.40625
0.42922	0.45726
-0.02981	0.30422
-0.20832	0.27871
-0.08081	0.10015
-0.18282	0.10015
0.27621	0.07465
0.19971	0.15117
-0.13181	-0.02739
0.42922	0.12566
0.07220	0.15117
0.65874	0.07465
0.25071	0.17668
0.42922	0.12566
-0.28482	0.07465
-0.94787	0.32972
-0.10631	0.04914
0.73524	0.10015
0.81175	0.25320
0.27621	0.20219
0.40372	0.17668
0.32721	0.15117
-0.25932	-0.10391
-0.48884	0.20219
-0.18282	0.22769
-0.41233	0.35523
-0.05531	-0.15492
0.37822	0.17668
0.50573	0.35523
0.58223	0.63582
0.58223	-0.56305
0.37822	-0.18043
-0.05531	0.45726
-0.20832	0.20219
-0.20832	-0.56305
-0.28482	0.58480
-0.13181	0.38074
0.35272	0.35523
0.50573	0.53379
0.45472	0.02363
0.70974	-0.20594
0.40372	0.10015
-0.13181	0.17668
-0.13181	0.25320
-0.10631	0.17668
-0.41233	0.25320
-0.20832	-0.46102
0.12320	0.43176
0.53123	0.38074
0.93925	0.22769
0.76074	-0.07840
-0.18282	0.15117
-0.00431	0.07465
0.12320	0.10015
-1.17738	0.20219
-0.13181	0.17668
0.19971	0.15117
-0.08081	0.15117
0.78624	0.20219
0.55673	0.27871
0.88825	0.30422
0.48022	0.15117
-0.05531	-0.12942
-0.13181	0.04914
-0.31033	0.20219
-0.51434	-0.02739
-0.13181	0.22769
0.30171	0.25320
0.07220	-0.00188
0.32721	0.25320
0.65874	0.73785
0.42922	-0.15492
0.14870	-0.23145
-0.20832	0.15117
-0.38683	0.71234
-0.20832	-0.25695
-0.00431	-0.30797
0.40372	-0.28246
0.50573	0.30422
0.48022	0.76336
0.68424	0.50828
0.19971	0.15117
-0.02981	-0.00188
-0.08081	0.07465
-0.20832	-0.00188
-0.43783	0.30422
-0.13181	0.04914
0.32721	0.02363
1.06676	-0.00188
0.45472	-0.02739
-0.89686	-0.02739
0.32721	0.40625
0.25071	0.17668
0.12320	0.20219
-0.31033	0.22769
-0.43783	0.22769
-0.71835	0.22769
0.50573	0.25320
0.68424	0.04914
0.65874	0.20219
0.73524	-0.18043
0.45472	0.12566
0.22521	0.02363
-0.28482	0.27871
-0.59084	0.32972
-0.31033	-0.00188
-0.13181	0.25320
0.17421	0.83988
0.50573	-0.02739
0.40372	-0.48652
0.73524	-0.05289
0.48022	0.22769
-0.02981	0.40625
-0.13181	0.20219
-0.08081	0.81437
