-0.15732	0.22769
-0.20832	0.22769
-0.18282	0.10015
-0.41233	0.15117
-0.05531	0.15117
0.32721	-0.00188
0.58223	0.02363
0.53123	0.25320
0.48022	-0.00188
0.35272	0.22769
-0.02981	0.27871
-0.23382	0.25320
-0.02981	0.12566
-0.31033	0.25320
-0.51434	0.04914
0.32721	0.02363
0.53123	0.12566
0.53123	0.25320
0.65874	0.02363
0.48022	0.10015
-0.05531	0.17668
-0.13181	0.22769
-0.10631	0.40625
-0.41233	0.32972
-0.18282	0.04914
0.35272	0.22769
0.50573	0.17668
0.50573	0.20219
0.63323	0.07465
0.32721	0.12566
-0.08081	0.20219
-0.18282	0.07465
-0.15732	-0.02739
-0.33583	0.25320
-0.10631	0.20219
0.30171	-0.02739
0.53123	0.04914
0.53123	0.20219
0.58223	-0.02739
0.37822	0.20219
-0.00431	0.35523
-0.23382	0.20219
-0.10631	0.25320
-0.28482	0.30422
-0.18282	0.02363
0.35272	-0.02739
0.48022	0.07465
0.45472	0.20219
0.58223	0.02363
0.32721	0.25320
-0.08081	0.10015
-0.20832	0.04914
-0.18282	0.10015
-0.31033	0.27871
-0.13181	0.22769
0.30171	-0.02739
0.58223	0.07465
0.58223	0.20219
0.58223	-0.02739
0.35272	0.20219
-0.02981	0.35523
-0.20832	0.12566
-0.20832	0.15117
-0.33583	0.27871
-0.10631	0.07465
0.27621	-0.12942
0.58223	0.02363
0.50573	0.20219
0.58223	0.04914
0.27621	0.15117
0.02119	0.27871
-0.18282	0.15117
-0.20832	0.10015
-0.25932	0.22769
-0.00431	0.27871
0.25071	0.02363
0.53123	-0.15492
0.48022	0.04914
0.53123	0.04914
0.32721	0.20219
-0.02981	0.35523
-0.25932	0.30422
-0.25932	0.27871
-0.41233	0.45726
-0.10631	-0.05289
0.40372	-0.25695
0.55673	0.04914
0.45472	0.15117
0.55673	-0.02739
0.42922	0.30422
0.02119	0.48277
-0.20832	0.17668
-0.13181	0.20219
-0.31033	0.32972
-0.05531	-0.10391
0.25071	-0.00188
0.32721	0.20219
0.42922	0.17668
0.53123	-0.07840
0.37822	0.07465
0.07220	0.25320
-0.15732	0.25320
-0.25932	0.12566
-0.28482	0.35523
-0.02981	0.25320
0.32721	0.04914
0.53123	-0.02739
0.48022	0.15117
0.63323	-0.02739
0.35272	0.22769
-0.13181	0.27871
-0.23382	0.30422
-0.20832	0.17668
-0.33583	0.35523
-0.08081	0.10015
0.25071	-0.05289
0.55673	-0.00188
0.50573	0.12566
0.58223	-0.02739
0.32721	0.22769
-0.02981	0.25320
-0.13181	0.25320
-0.23382	0.20219
-0.28482	0.20219
-0.00431	0.04914
0.32721	0.04914
0.48022	0.17668
0.50573	0.10015
0.65874	-0.00188
0.37822	0.22769
-0.08081	0.20219
-0.15732	0.17668
-0.18282	0.20219
-0.28482	0.22769
-0.02981	0.17668
0.30171	0.10015
0.55673	-0.05289
0.55673	0.04914
0.63323	-0.02739
0.32721	0.30422
-0.15732	0.25320
-0.20832	0.27871
-0.15732	0.20219
-0.36133	0.25320
-0.13181	0.17668
0.35272	0.02363
0.48022	-0.05289
0.48022	0.04914
0.65874	-0.12942
0.35272	0.12566
-0.08081	0.38074
-0.08081	0.35523
-0.20832	0.30422
-0.31033	0.30422
-0.10631	0.04914
0.17421	0.07465
0.60773	0.12566
0.53123	0.20219
0.60773	-0.02739
0.42922	0.15117
-0.10631	0.22769
-0.18282	0.04914
-0.08081	0.17668
-0.38683	0.25320
-0.23382	0.15117
0.37822	0.04914
0.55673	-0.10391
0.40372	0.02363
0.60773	0.10015
0.40372	0.43176
-0.05531	0.48277
-0.18282	0.35523
-0.15732	0.22769
-0.38683	0.10015
-0.00431	-0.00188
0.27621	0.04914
0.48022	-0.05289
0.53123	0.17668
0.60773	0.07465
0.32721	0.17668
0.02119	0.25320
-0.28482	0.15117
-0.20832	0.15117
-0.36133	0.20219
-0.10631	0.07465
0.48022	0.04914
0.55673	-0.05289
0.42922	0.12566
0.65874	0.02363
0.37822	0.10015
-0.00431	0.38074
-0.25932	0.30422
-0.43783	0.20219
-0.33583	0.32972
-0.10631	-0.02739
0.42922	0.04914
0.58223	-0.12942
0.53123	0.04914
0.60773	0.04914
0.37822	0.17668
0.02119	0.40625
-0.38683	0.38074
-0.15732	0.07465
-0.25932	0.10015
-0.18282	-0.28246
0.37822	0.30422
0.55673	0.76336
0.42922	0.04914
0.73524	-0.61406
0.40372	-0.10391
-0.05531	0.45726
-0.15732	0.50828
-0.33583	0.17668
-0.41233	0.32972
-0.08081	0.15117
0.30171	0.12566
0.73524	-0.05289
0.45472	-0.12942
0.42922	-0.25695
0.22521	0.25320
-0.08081	0.17668
0.17421	0.32972
-0.18282	0.10015
-0.84586	0.40625
-0.18282	0.35523
0.53123	0.15117
0.78624	-0.07840
1.52579	0.17668
0.86275	0.07465
-2.50347	-0.07840
-0.28482	0.20219
0.12320	0.32972
0.63323	0.32972
-0.02981	0.45726
-0.05531	0.10015
0.99026	-0.05289
1.06676	-0.25695
0.27621	-0.20594
0.17421	-0.35899
0.32721	0.35523
0.09770	0.30422
-0.31033	0.45726
-0.84586	0.38074
-0.69285	0.35523
-0.28482	0.17668
0.27621	0.04914
0.76074	0.02363
0.68424	-0.05289
0.91375	-0.20594
0.55673	0.43176
-0.99887	0.55929
-0.00431	-0.00188
0.12320	0.10015
-0.18282	0.40625
0.04670	0.07465
0.60773	-0.00188
0.70974	0.04914
0.65874	0.27871
0.63323	-0.05289
0.27621	0.10015
0.12320	0.58480
-0.46334	0.15117
0.81175	0.27871
-0.43783	0.10015
-3.77855	0.02363
-1.02437	-0.58856
0.37822	-0.61406
0.73524	-0.20594
0.99026	0.15117
1.37278	0.86539
2.44385	1.04394
-0.56534	0.66132
0.37822	0.20219
-0.02981	-0.18043
0.30171	0.02363
0.68424	0.07465
0.83725	-0.30797
0.35272	0.07465
0.48022	0.20219
0.14870	0.17668
-0.05531	0.12566
-0.61635	0.17668
-1.02437	-0.02739
0.04670	0.10015
0.14870	-0.00188
-1.10088	-0.18043
0.42922	0.25320
0.32721	0.02363
1.14327	0.10015
0.58223	0.40625
0.09770	0.25320
0.07220	0.45726
-0.00431	0.61031
-0.25932	0.27871
-0.18282	-0.35899
0.19971	-0.61406
0.48022	0.02363
0.55673	0.55929
0.53123	-0.15492
0.60773	-0.00188
-0.71835	0.83988
-0.31033	0.55929
-0.02981	0.35523
-0.13181	0.61031
0.04670	1.12046
0.40372	-0.56305
0.53123	-0.58856
0.65874	-0.18043
0.78624	-1.20074
0.91375	-0.86914
1.24527	0.10015
-3.11551	0.71234
-0.66735	0.63582
-0.15732	0.83988
0.25071	1.29902
0.83725	0.71234
1.01576	0.63582
1.85731	-0.15492
2.03582	-0.20594
-2.50347	-0.46102
-0.76936	-0.25695
0.27621	0.25320
0.07220	0.15117
0.30171	0.20219
0.48022	0.20219
1.78081	0.22769
-1.04987	-0.25695
0.25071	-0.05289
0.78624	0.02363
1.11776	0.48277
-0.87136	0.38074
-1.33039	0.66132
0.25071	0.48277
-0.69285	0.25320
-0.00431	-0.58856
0.45472	-0.28246
0.96476	-0.46102
0.58223	0.66132
0.68424	0.17668
0.68424	0.48277
0.07220	0.32972
-0.33583	-0.05289
-0.46334	-0.28246
-0.33583	0.89089
-0.15732	0.45726
0.37822	0.10015
0.37822	-0.38449
0.27621	0.07465
0.63323	0.38074
0.37822	-0.25695
1.19427	0.22769
1.75531	-0.61406
-4.41609	-0.51203
-1.22839	0.63582
0.02119	1.01843
0.88825	0.78886
1.06676	-0.12942
1.04126	-0.46102
1.37278	-0.20594
0.78624	0.58480
0.55673	0.32972
0.45472	0.22769
-1.04987	-0.25695
-0.31033	0.50828
-0.36133	-0.48652
0.35272	0.86539
0.50573	0.07465
-0.20832	-0.35899
1.29628	-0.20594
0.32721	0.50828
0.42922	0.66132
-0.18282	0.12566
0.25071	-0.41000
0.32721	0.22769
-0.48884	0.55929
-1.10088	0.35523
0.63323	0.20219
0.73524	-0.18043
0.86275	0.12566
0.35272	0.12566
-0.10631	0.25320
-0.02981	0.12566
-0.48884	0.17668
-0.43783	0.43176
0.07220	-0.38449
-0.00431	-0.58856
0.19971	-0.69059
0.42922	0.17668
0.53123	0.30422
0.55673	0.89089
0.27621	1.37554
-0.00431	0.73785
-0.00431	-0.63957
0.12320	-0.20594
-0.89686	-0.61406
-0.71835	-0.20594
0.63323	0.83988
0.32721	1.01843
0.93925	-0.00188
1.11776	-0.00188
0.07220	-0.41000
0.60773	0.15117
2.41835	0.55929
-3.29402	0.20219
-0.92237	-0.48652
0.07220	0.17668
0.63323	0.17668
0.81175	0.10015
1.09226	0.15117
1.34728	0.35523
0.81175	0.43176
-1.30489	0.35523
-0.36133	0.10015
0.12320	0.20219
-0.10631	-0.61406
0.55673	-0.05289
-0.08081	-0.38449
0.68424	0.35523
0.93925	0.15117
0.48022	0.86539
0.32721	0.83988
-0.18282	0.38074
-0.15732	0.07465
-0.51434	0.15117
-0.36133	-0.23145
0.04670	-0.28246
0.42922	0.07465
0.35272	0.04914
0.70974	0.10015
0.65874	0.76336
0.07220	0.99292
-0.00431	-0.66508
-0.36133	-1.14973
-0.23382	0.25320
-0.08081	0.50828
0.45472	0.50828
0.70974	0.20219
0.27621	0.50828
0.70974	0.10015
0.93925	0.38074
-0.41233	0.58480
-1.35589	-0.07840
-0.18282	-0.20594
-0.10631	0.15117
-0.08081	0.27871
0.50573	-0.12942
0.70974	0.17668
0.68424	0.35523
0.68424	0.04914
0.50573	-0.00188
-0.00431	0.38074
-0.36133	0.04914
-0.15732	0.35523
-0.38683	0.50828
-0.23382	-0.35899
0.63323	-0.23145
0.93925	-0.00188
-0.53984	0.27871
-0.56534	-0.07840
0.58223	0.40625
-0.46334	0.61031
0.37822	0.40625
0.70974	0.35523
0.68424	0.50828
-0.89686	0.20219
0.07220	-0.10391
0.81175	-0.28246
0.81175	-0.10391
0.68424	0.07465
1.01576	0.45726
-0.31033	0.55929
-0.74385	-0.25695
-0.79486	0.10015
-0.56534	-0.18043
-0.33583	0.02363
0.22521	0.45726
0.53123	0.32972
0.35272	0.17668
0.63323	0.25320
0.70974	-0.02739
-0.15732	0.12566
-0.13181	0.45726
-0.15732	0.04914
-0.43783	-0.41000
0.04670	-0.43551
0.63323	0.04914
0.32721	0.45726
0.78624	0.48277
0.27621	0.25320
-0.20832	0.35523
0.19971	0.22769
0.25071	0.10015
0.19971	-0.33348
-0.28482	0.02363
-0.00431	-0.10391
0.09770	0.48277
0.65874	0.55929
0.76074	0.25320
0.99026	-0.43551
-0.02981	0.20219
-0.36133	0.58480
0.14870	0.20219
-0.05531	0.07465
-0.08081	0.17668
-0.20832	-0.20594
0.91375	0.04914
2.92838	0.17668
-1.25389	0.27871
0.55673	0.27871
0.53123	0.27871
0.35272	-0.35899
-1.02437	-0.43551
0.14870	0.12566
0.19971	0.17668
-0.00431	0.55929
0.27621	0.50828
0.58223	0.66132
1.37278	-0.07840
0.30171	0.07465
-1.04987	0.10015
-2.29945	-0.15492
-0.31033	-0.23145
0.07220	0.35523
0.09770	0.61031
-0.08081	0.50828
0.37822	0.86539
1.14327	-0.46102
0.91375	-0.79262
-0.82036	0.02363
0.48022	0.58480
0.17421	0.76336
-0.08081	-0.69059
-0.20832	-0.43551
-0.13181	0.63582
0.14870	0.32972
0.35272	-0.20594
-0.02981	0.07465
0.76074	0.35523
0.19971	0.61031
0.48022	0.15117
0.07220	-0.00188
-0.10631	0.15117
0.37822	0.27871
-1.12638	0.45726
0.09770	0.25320
0.55673	0.15117
-0.28482	0.15117
0.78624	-0.07840
0.50573	-0.33348
0.25071	-0.63957
0.30171	0.22769
1.72980	0.86539
-1.43240	0.43176
-1.02437	0.66132
-0.00431	0.25320
0.25071	-0.41000
1.11776	-0.33348
0.65874	-0.07840
1.01576	0.04914
0.81175	0.61031
0.04670	-0.10391
-0.15732	-0.05289
-0.08081	-0.05289
0.42922	0.50828
-0.33583	0.43176
-0.89686	0.58480
0.58223	0.55929
0.30171	-0.63957
0.58223	-0.69059
0.48022	-0.25695
-0.20832	0.48277
-0.23382	-0.28246
-0.10631	0.83988
-0.23382	0.38074
0.02119	0.43176
0.35272	0.43176
0.53123	0.35523
0.60773	-0.25695
0.63323	-0.61406
0.02119	0.55929
0.22521	0.55929
0.12320	-0.53754
0.30171	-0.18043
-1.17738	0.25320
-0.28482	0.12566
0.35272	0.25320
0.53123	0.40625
0.76074	0.55929
0.96476	0.40625
0.55673	0.35523
1.34728	0.30422
0.93925	-0.05289
-3.95706	-0.58856
-0.82036	0.22769
-0.00431	0.20219
1.11776	0.02363
1.19427	0.10015
1.70430	0.15117
-0.64185	0.15117
-1.50890	0.27871
-0.87136	0.48277
0.12320	0.27871
0.19971	-0.28246
-0.61635	-0.02739
0.12320	-0.71609
0.78624	0.53379
0.91375	0.43176
0.65874	0.45726
0.60773	0.32972
0.42922	0.50828
-0.15732	0.15117
-0.31033	-0.05289
-0.38683	-0.00188
-0.66735	0.22769
-0.23382	0.45726
0.19971	-0.07840
0.45472	-0.76711
0.53123	-0.74160
0.45472	0.27871
0.37822	1.14597
-0.05531	1.04394
-0.08081	0.10015
-0.10631	-0.69059
-0.10631	-0.18043
-0.18282	0.17668
0.12320	0.15117
1.19427	0.20219
0.30171	0.10015
0.70974	0.02363
0.02119	0.45726
0.55673	0.55929
0.12320	0.30422
-0.10631	0.17668
-0.31033	0.02363
-0.05531	-0.05289
0.14870	-0.51203
0.45472	-0.66508
0.60773	0.35523
0.68424	-0.05289
-0.02981	0.55929
-0.18282	0.48277
0.12320	0.45726
0.60773	0.27871
-1.81492	-0.46102
0.17421	0.35523
0.25071	0.50828
1.01576	0.43176
0.63323	0.30422
1.06676	0.04914
0.53123	0.22769
0.04670	-0.15492
-0.08081	0.10015
-0.43783	0.10015
-0.28482	0.25320
-0.33583	0.10015
0.09770	-0.30797
0.32721	0.04914
0.40372	0.10015
0.78624	0.15117
0.53123	0.43176
-0.33583	0.25320
-0.48884	0.12566
-0.02981	-0.05289
0.45472	0.86539
0.70974	0.27871
-2.06994	0.45726
0.99026	0.10015
1.52579	-0.76711
0.22521	-1.14973
0.32721	0.10015
0.40372	0.76336
0.09770	0.89089
-0.00431	0.63582
-0.23382	0.61031
0.12320	0.63582
0.42922	1.01843
0.07220	-0.41000
0.37822	-0.92016
0.50573	-0.79262
0.53123	-0.02739
-0.00431	0.38074
-0.38683	0.71234
0.22521	0.32972
-0.08081	-0.02739
-1.91693	0.04914
0.40372	-0.05289
1.09226	-0.00188
0.37822	0.50828
0.96476	0.38074
0.45472	-0.00188
0.22521	0.07465
-0.02981	0.40625
-0.02981	0.15117
0.04670	0.30422
-0.28482	0.25320
-0.59084	0.07465
1.24527	0.12566
0.12320	0.20219
-0.59084	-0.15492
-0.59084	-0.02739
0.25071	-0.05289
0.22521	0.27871
0.14870	0.50828
0.12320	0.10015
0.12320	0.15117
0.37822	0.30422
0.48022	0.10015
0.50573	0.04914
0.42922	-0.89465
0.40372	0.63582
-0.08081	0.48277
0.04670	0.25320
-0.20832	0.89089
-0.36133	-0.07840
-0.48884	-0.41000
0.12320	-0.43551
0.55673	-0.02739
0.63323	0.55929
0.73524	0.35523
0.63323	0.86539
0.09770	0.45726
0.07220	-0.12942
-0.48884	-0.18043
0.09770	0.25320
-0.99887	0.02363
-0.79486	-0.15492
0.60773	-0.28246
0.96476	-0.12942
1.19427	0.78886
0.70974	0.35523
0.91375	0.10015
1.72980	-0.05289
-2.27395	0.55929
-0.13181	0.07465
-0.13181	-0.46102
0.37822	0.48277
0.27621	0.27871
0.63323	-0.00188
1.21977	0.04914
0.32721	0.25320
0.50573	0.25320
-0.15732	0.35523
-0.13181	0.32972
-1.76392	0.40625
-0.43783	0.25320
0.27621	-0.48652
0.73524	-0.38449
0.70974	-0.05289
0.32721	0.04914
0.27621	0.53379
0.37822	0.99292
-0.13181	0.10015
-0.43783	-0.43551
-0.23382	0.20219
-0.18282	0.35523
0.17421	-0.48652
0.48022	0.25320
0.60773	0.58480
0.68424	0.07465
0.40372	-0.05289
-0.18282	0.55929
0.07220	0.30422
-0.13181	-0.25695
-0.25932	0.20219
-0.08081	-0.02739
0.14870	-0.43551
0.58223	0.02363
0.37822	0.38074
0.45472	0.22769
0.55673	-0.10391
0.48022	0.35523
0.73524	0.96742
-1.71292	1.12046
-0.69285	0.38074
0.30171	-0.74160
-0.20832	-0.51203
0.14870	0.17668
1.37278	0.02363
2.06133	0.17668
-1.50890	0.43176
1.09226	0.12566
-0.69285	-0.12942
-0.43783	0.30422
0.02119	0.53379
0.14870	-0.05289
0.32721	-0.20594
0.73524	-0.46102
0.88825	0.61031
-0.10631	0.12566
0.14870	0.10015
0.37822	0.12566
0.14870	0.68683
1.24527	0.61031
-0.94787	0.32972
-1.68742	0.07465
-0.31033	-0.43551
0.70974	-0.15492
1.37278	-0.18043
0.40372	0.43176
0.76074	0.50828
0.09770	0.12566
0.14870	0.22769
-0.41233	0.27871
-0.13181	0.32972
-0.15732	-0.25695
0.25071	-0.02739
0.48022	0.07465
0.35272	-0.30797
0.32721	-0.05289
0.09770	0.02363
0.07220	0.40625
0.02119	0.58480
-0.33583	0.63582
-0.38683	0.27871
-0.20832	0.15117
0.60773	-0.12942
0.83725	0.02363
1.24527	0.68683
-1.07538	0.04914
0.25071	-0.94566
0.40372	-0.05289
0.17421	0.35523
0.19971	0.63582
-1.35589	0.91640
-0.10631	0.22769
0.78624	-0.05289
1.44929	-0.28246
-0.43783	-0.15492
0.55673	-0.25695
0.37822	0.32972
0.65874	0.58480
1.14327	0.22769
-0.64185	0.25320
-0.08081	0.38074
-0.41233	-0.30797
1.21977	0.02363
0.45472	0.17668
0.19971	0.17668
0.93925	-0.10391
0.40372	0.25320
0.30171	0.68683
-0.23382	0.45726
0.53123	0.20219
-0.94787	-0.58856
-0.33583	-0.51203
0.32721	0.38074
0.37822	0.02363
0.65874	0.43176
0.78624	0.12566
0.88825	0.63582
-0.61635	0.61031
-0.10631	0.15117
-0.05531	0.45726
-0.13181	0.27871
-0.15732	-0.66508
0.19971	-0.43551
0.30171	-0.58856
0.53123	0.10015
0.55673	0.15117
0.60773	0.53379
0.76074	0.83988
-1.04987	-0.15492
-0.41233	0.96742
-0.18282	0.04914
0.37822	0.53379
1.11776	0.27871
-0.23382	-0.12942
-0.15732	-0.46102
1.21977	-0.33348
0.45472	0.25320
0.07220	0.40625
-2.47797	-0.00188
0.22521	-0.38449
-0.66735	0.32972
0.35272	0.17668
-0.18282	-0.15492
1.27078	0.02363
0.76074	0.71234
0.88825	0.61031
1.24527	0.20219
0.09770	0.25320
-0.05531	-0.28246
-0.23382	0.50828
-0.31033	0.86539
-0.05531	-0.30797
-0.79486	-0.86914
0.37822	-0.07840
0.25071	0.35523
0.48022	0.32972
0.48022	0.91640
0.02119	0.76336
-0.13181	0.22769
-0.31033	-0.99668
-0.28482	-0.41000
-0.15732	-0.30797
0.35272	0.50828
0.63323	1.17148
0.63323	0.78886
0.63323	-0.84363
0.60773	-0.05289
0.02119	0.17668
-0.20832	0.15117
0.09770	1.06945
-0.71835	-0.12942
-0.36133	-0.51203
0.30171	-0.58856
0.78624	0.15117
-0.18282	0.40625
0.76074	0.15117
0.42922	-0.07840
-0.53984	0.66132
0.30171	0.25320
0.48022	0.35523
-1.50890	0.50828
-1.22839	0.12566
-0.13181	-0.35899
1.27078	-0.15492
1.70430	0.04914
2.39285	0.45726
-2.55447	0.45726
-0.05531	0.45726
0.22521	0.10015
-0.41233	-0.07840
0.65874	-0.97117
0.27621	0.43176
0.60773	0.32972
1.29628	0.45726
0.50573	0.22769
0.45472	0.17668
0.14870	0.12566
0.02119	-0.15492
-0.36133	-0.20594
-0.46334	0.45726
-0.53984	0.40625
-0.20832	-0.15492
0.19971	-0.25695
0.63323	0.12566
0.50573	0.22769
0.83725	0.55929
0.40372	0.53379
0.12320	0.63582
-0.13181	-0.05289
-0.28482	-0.18043
-0.20832	0.53379
-0.02981	0.27871
0.35272	0.02363
-0.23382	-0.58856
0.88825	-0.35899
1.09226	0.17668
-0.97337	0.63582
0.22521	0.15117
0.09770	0.10015
-0.00431	0.04914
-0.23382	0.32972
-0.18282	0.53379
0.14870	0.32972
0.35272	0.43176
0.68424	0.32972
0.30171	-0.05289
0.86275	-0.10391
0.65874	-0.02739
-0.84586	-0.20594
-0.64185	0.27871
-0.31033	0.32972
-0.46334	0.02363
0.35272	-0.41000
0.35272	-0.15492
1.24527	0.83988
2.08683	0.71234
-0.92237	0.15117
0.02119	-0.15492
-0.20832	0.25320
-0.02981	0.27871
0.07220	0.30422
-0.08081	0.07465
0.53123	0.25320
0.48022	0.20219
0.45472	0.38074
0.60773	-0.35899
0.42922	-1.04770
0.02119	-0.38449
-0.51434	0.20219
0.73524	0.61031
-0.05531	1.14597
-1.53441	0.48277
-0.13181	0.25320
0.91375	0.10015
1.27078	0.22769
-0.25932	-0.38449
0.96476	-0.10391
0.88825	0.10015
-1.33039	0.32972
0.19971	0.25320
-0.89686	0.22769
-0.36133	0.02363
0.53123	-0.15492
-0.13181	-0.28246
0.55673	0.40625
0.60773	0.04914
0.73524	-0.28246
0.04670	0.71234
-0.94787	0.66132
-0.28482	0.35523
-0.23382	0.30422
-0.13181	0.38074
0.35272	-0.66508
0.73524	0.07465
0.53123	0.96742
0.60773	0.94191
0.40372	0.17668
-0.02981	-1.30277
-0.28482	-0.92016
-0.20832	0.35523
-0.31033	-0.05289
-0.33583	-0.00188
0.25071	0.53379
0.58223	0.58480
0.63323	0.78886
0.53123	0.50828
0.42922	0.61031
0.25071	0.50828
-0.28482	0.02363
-0.23382	-0.71609
-0.38683	-0.35899
-0.08081	-0.05289
0.32721	0.32972
1.16877	0.25320
0.70974	0.12566
-1.20288	-0.25695
1.32178	0.45726
-2.45246	0.61031
0.32721	0.15117
-0.02981	0.10015
-0.18282	0.25320
-0.92237	0.07465
0.17421	0.15117
1.24527	0.10015
1.44929	0.04914
1.09226	-0.38449
0.02119	0.35523
-0.33583	0.35523
-0.23382	0.35523
-0.33583	-0.20594
-0.48884	0.45726
-0.36133	0.12566
0.96476	0.30422
-0.41233	-0.46102
0.50573	-0.02739
0.68424	0.32972
0.40372	1.01843
0.14870	0.50828
-0.05531	0.45726
-0.10631	0.30422
-0.15732	-0.79262
-0.18282	-0.63957
0.27621	0.43176
0.58223	0.58480
0.50573	-0.10391
0.58223	-0.05289
0.37822	0.43176
0.04670	-0.02739
-0.10631	0.02363
-0.28482	0.25320
-0.18282	0.40625
0.02119	0.40625
0.25071	0.04914
-0.28482	-0.15492
0.63323	0.63582
0.81175	0.38074
0.68424	0.15117
0.09770	-0.46102
-0.05531	-0.25695
-0.08081	0.20219
-0.13181	0.68683
-0.13181	0.10015
0.53123	-0.20594
-0.53984	-0.15492
0.12320	0.04914
1.14327	0.10015
1.09226	0.45726
0.22521	0.50828
-1.17738	0.30422
0.02119	0.17668
0.17421	0.61031
0.12320	0.48277
0.99026	-0.23145
1.44929	-0.94566
-0.71835	0.04914
0.35272	0.55929
0.53123	0.10015
0.17421	0.38074
-0.05531	0.50828
0.02119	0.35523
-0.28482	0.12566
-0.61635	-0.38449
0.40372	-0.20594
0.53123	0.25320
0.78624	0.61031
0.40372	0.07465
-0.48884	0.43176
-0.15732	0.63582
-0.10631	-0.20594
-0.05531	-0.23145
-0.08081	-0.38449
-0.13181	-0.12942
0.35272	-0.00188
0.81175	0.71234
0.70974	0.25320
-0.59084	0.40625
0.68424	0.40625
0.12320	0.53379
-0.15732	0.40625
-0.08081	0.20219
0.32721	0.32972
-0.64185	-0.23145
-0.28482	-0.00188
0.35272	-0.20594
0.58223	-0.41000
0.96476	-0.28246
0.73524	0.35523
0.02119	0.45726
-1.17738	0.45726
-0.64185	0.35523
0.35272	0.15117
1.19427	0.02363
-2.37596	-0.07840
0.42922	-0.10391
0.60773	0.15117
0.55673	0.35523
0.30171	-0.20594
1.16877	0.04914
0.60773	0.27871
-1.68742	0.78886
-0.02981	0.86539
-0.10631	-0.07840
0.14870	-0.35899
0.50573	-0.46102
0.53123	-0.07840
0.60773	0.17668
0.42922	1.19699
0.02119	1.14597
-0.25932	-0.38449
-0.38683	-0.92016
-0.25932	0.25320
0.04670	0.66132
-0.56534	0.40625
0.55673	-0.12942
0.53123	-0.25695
0.68424	-0.07840
0.53123	-0.05289
0.14870	1.04394
-0.13181	-0.05289
-0.13181	-0.33348
-0.28482	-0.20594
-0.31033	0.30422
0.27621	0.25320
0.53123	0.15117
0.50573	0.35523
0.60773	0.30422
0.96476	0.35523
-0.02981	0.17668
-0.79486	0.40625
0.04670	-0.28246
-0.08081	0.15117
-0.89686	0.17668
0.55673	-0.15492
1.60230	-0.20594
-1.45790	-0.20594
-0.18282	0.38074
0.91375	0.25320
0.91375	0.30422
0.53123	0.63582
0.78624	0.58480
0.02119	0.45726
-0.10631	0.15117
-0.15732	-0.51203
0.25071	0.10015
1.14327	-0.07840
0.83725	-0.02739
-1.71292	-0.02739
-0.76936	0.48277
-0.25932	-0.23145
0.04670	0.02363
0.12320	0.99292
0.07220	0.71234
0.40372	0.27871
0.76074	-0.05289
0.70974	-0.07840
0.50573	-0.05289
0.37822	0.04914
0.09770	-0.20594
-0.31033	-0.61406
-0.36133	0.12566
-0.28482	0.76336
-0.18282	0.63582
-0.08081	0.12566
0.99026	0.07465
0.81175	0.32972
0.42922	0.02363
-0.05531	0.10015
-0.13181	0.27871
0.42922	0.40625
0.25071	0.45726
-1.10088	0.15117
0.27621	-0.46102
-0.08081	-0.63957
0.50573	0.02363
1.11776	0.58480
0.88825	0.38074
0.17421	0.48277
0.27621	-0.28246
0.07220	-0.20594
-0.10631	0.17668
-0.20832	0.99292
-0.18282	0.71234
0.35272	0.12566
0.32721	0.07465
0.07220	-0.38449
0.86275	-0.05289
0.37822	0.48277
0.04670	-0.25695
-0.28482	-0.79262
-0.18282	0.22769
-0.10631	0.96742
-0.08081	0.83988
-0.38683	-0.07840
0.68424	0.22769
0.73524	0.10015
0.50573	-0.05289
0.40372	0.10015
0.27621	0.25320
0.02119	0.32972
-0.18282	0.02363
-0.13181	0.22769
0.02119	0.07465
0.65874	0.04914
1.50029	-0.35899
-0.69285	0.15117
0.45472	0.04914
0.35272	0.35523
-0.00431	0.43176
-0.00431	0.45726
0.17421	0.10015
-0.15732	0.43176
-0.15732	0.48277
0.19971	-0.00188
0.60773	-1.50683
1.34728	-0.10391
0.48022	0.71234
-0.92237	0.45726
-0.82036	0.61031
-0.08081	0.45726
0.02119	0.45726
0.09770	0.48277
-0.08081	0.07465
0.22521	-0.02739
0.65874	-0.35899
0.48022	-1.35379
0.60773	-0.35899
0.35272	0.66132
0.12320	1.14597
-0.18282	0.35523
-0.23382	0.25320
-0.25932	0.35523
-0.48884	-0.41000
-0.02981	-0.46102
0.58223	0.45726
0.53123	0.63582
0.42922	0.61031
0.60773	0.55929
0.04670	0.20219
-0.05531	-0.05289
0.02119	0.04914
-0.23382	0.02363
-0.46334	-0.48652
0.35272	-0.76711
0.55673	-0.15492
0.19971	0.50828
0.86275	0.40625
1.60230	0.50828
-2.55447	0.53379
0.22521	0.27871
0.12320	0.22769
-0.38683	0.25320
-0.02981	-0.20594
0.68424	-0.10391
0.48022	0.07465
0.50573	-0.15492
-0.20832	-0.00188
0.63323	0.35523
0.53123	0.61031
0.14870	0.40625
-0.71835	0.07465
-0.20832	-0.43551
-0.23382	-0.10391
0.22521	0.48277
0.88825	0.55929
1.19427	0.25320
-0.48884	-0.10391
0.48022	0.55929
0.09770	0.35523
0.07220	0.04914
-0.28482	-0.05289
-0.18282	-0.20594
-0.13181	-0.20594
0.19971	-0.18043
0.53123	0.32972
0.55673	0.43176
0.55673	0.45726
0.42922	0.50828
-0.08081	-0.00188
-0.02981	-0.05289
-0.31033	0.32972
-0.36133	0.25320
-0.05531	-0.00188
0.12320	0.07465
0.48022	0.04914
0.86275	-0.00188
0.40372	-0.02739
0.73524	0.32972
0.30171	0.66132
-0.05531	0.20219
0.07220	-0.25695
0.19971	0.12566
1.98482	0.20219
-2.42696	-0.05289
0.63323	0.25320
0.88825	0.40625
0.93925	0.35523
0.73524	0.43176
0.32721	0.17668
0.12320	0.25320
-0.00431	-0.71609
0.04670	-0.28246
-0.25932	-0.23145
-0.53984	0.50828
0.22521	0.50828
0.42922	0.15117
0.70974	0.04914
0.78624	0.32972
-0.89686	0.35523
-0.25932	0.68683
-0.05531	-0.02739
-0.08081	-0.46102
-0.05531	-0.07840
0.17421	0.20219
0.48022	0.15117
0.53123	0.15117
0.50573	0.04914
0.48022	0.15117
0.22521	0.45726
-0.33583	0.25320
-0.25932	-0.00188
-0.20832	-0.02739
-0.31033	0.27871
0.09770	0.25320
0.65874	0.17668
0.68424	0.07465
0.50573	-0.28246
0.55673	0.38074
-0.28482	0.68683
-0.74385	0.02363
-0.23382	-0.92016
-0.28482	-0.25695
0.07220	0.38074
0.30171	0.96742
0.50573	0.30422
0.55673	0.22769
0.76074	0.17668
0.42922	-0.25695
-0.15732	0.35523
-0.15732	0.61031
0.09770	0.27871
-0.25932	-0.35899
-0.89686	-0.28246
0.12320	-0.05289
0.14870	0.12566
0.45472	0.25320
0.99026	0.12566
0.27621	-0.15492
0.35272	0.32972
0.73524	0.48277
-3.01350	0.38074
0.27621	-0.18043
0.07220	0.15117
0.35272	0.25320
0.73524	0.27871
0.78624	0.40625
0.68424	0.12566
0.60773	0.15117
0.22521	0.22769
0.12320	-0.02739
-0.99887	-0.02739
-0.56534	0.17668
0.12320	0.15117
0.50573	0.12566
0.81175	0.02363
0.96476	0.12566
0.70974	0.10015
0.50573	-0.33348
0.27621	0.02363
-0.13181	0.61031
-0.25932	0.35523
-0.33583	0.66132
-0.41233	0.53379
-0.08081	-1.04770
0.45472	-1.14973
0.35272	0.35523
0.40372	-0.07840
0.55673	0.71234
-0.05531	0.30422
-0.02981	1.12046
-0.08081	0.76336
-0.28482	0.63582
-0.20832	0.20219
0.19971	-0.23145
0.48022	-0.25695
0.60773	-0.10391
0.55673	-0.38449
0.45472	-0.28246
-0.10631	0.40625
0.07220	0.15117
0.35272	-0.00188
-0.48884	0.12566
-0.43783	0.04914
-1.53441	-0.07840
0.81175	0.04914
1.39828	0.55929
-0.13181	0.53379
0.86275	0.25320
0.50573	0.50828
-0.18282	0.02363
-0.02981	-0.05289
2.36734	0.02363
-2.75848	0.04914
-0.64185	0.02363
0.45472	0.30422
0.60773	0.45726
0.63323	0.10015
0.58223	0.04914
0.14870	0.48277
-0.13181	0.12566
-0.05531	0.07465
-0.51434	-0.15492
-0.38683	-0.00188
0.19971	0.32972
0.55673	-0.02739
0.58223	-0.15492
0.53123	0.32972
0.58223	0.53379
0.07220	0.22769
-0.08081	0.22769
-0.23382	0.43176
-0.31033	-0.18043
-0.18282	-0.28246
0.07220	-0.33348
0.48022	0.25320
0.58223	0.38074
0.42922	0.22769
0.48022	0.25320
0.12320	0.45726
-0.13181	0.40625
-0.08081	0.35523
-0.31033	0.17668
-0.28482	-0.07840
0.14870	-0.20594
0.40372	-0.20594
0.50573	0.02363
0.78624	0.17668
0.99026	0.40625
-0.10631	0.43176
-0.71835	0.27871
0.58223	-0.05289
-0.00431	-0.25695
-0.76936	0.10015
0.48022	0.07465
-1.48340	0.15117
0.78624	0.30422
1.14327	0.12566
1.11776	0.35523
0.73524	0.50828
0.12320	0.30422
0.12320	0.20219
-0.15732	0.15117
-0.38683	-0.41000
-0.23382	-0.20594
0.30171	-0.00188
0.32721	0.27871
0.17421	0.17668
0.22521	0.10015
0.02119	0.25320
-0.13181	0.53379
-0.08081	0.68683
-0.05531	0.27871
-0.13181	-0.53754
0.27621	-0.02739
0.48022	0.40625
0.65874	0.50828
0.63323	-0.61406
0.48022	-0.48652
0.17421	0.43176
-0.10631	0.25320
-0.25932	0.63582
-0.25932	0.99292
-0.20832	0.32972
0.07220	-0.23145
0.53123	-0.15492
0.68424	-0.10391
0.35272	-0.23145
0.55673	0.10015
0.07220	0.25320
-0.25932	-0.05289
-0.08081	-0.05289
0.12320	0.58480
0.19971	0.25320
-2.01894	-0.05289
0.17421	-0.02739
1.01576	-0.18043
1.09226	-0.18043
0.88825	0.04914
0.50573	0.55929
0.07220	0.71234
-0.28482	0.40625
-0.25932	0.53379
-0.28482	-0.10391
0.25071	-0.43551
0.12320	-0.10391
0.42922	0.35523
0.63323	0.17668
0.45472	0.40625
-0.10631	0.32972
-0.23382	0.04914
-0.31033	0.15117
-0.08081	0.20219
0.02119	-0.12942
0.04670	0.04914
0.53123	0.15117
0.58223	0.71234
0.45472	0.02363
0.45472	-0.46102
0.17421	0.20219
-0.23382	-0.25695
-0.20832	-0.05289
-0.20832	0.35523
-0.15732	0.99292
0.19971	0.86539
0.42922	-0.30797
0.53123	-0.66508
0.53123	0.04914
0.45472	0.30422
-0.00431	0.68683
-0.18282	0.45726
-0.10631	0.78886
-0.10631	-0.12942
-0.25932	-0.63957
0.09770	-0.25695
0.35272	0.15117
0.55673	0.20219
1.21977	0.30422
0.53123	0.38074
-1.35589	0.30422
0.19971	0.27871
-0.18282	0.12566
-0.76936	0.07465
0.42922	0.02363
0.70974	-0.25695
0.81175	-0.05289
0.63323	0.07465
0.58223	-0.20594
-0.23382	0.17668
0.83725	0.53379
-0.20832	0.45726
-0.02981	0.30422
-0.69285	0.45726
-0.13181	0.40625
0.09770	-0.02739
0.40372	-0.33348
0.42922	-0.43551
0.27621	-0.30797
0.53123	0.50828
0.17421	0.25320
-0.02981	0.78886
-0.23382	0.32972
-0.20832	0.48277
-0.08081	-0.02739
0.17421	0.04914
0.53123	-0.56305
0.53123	0.12566
0.50573	-0.66508
0.53123	0.04914
0.09770	0.38074
-0.10631	0.53379
-0.13181	0.43176
-0.18282	0.58480
-0.28482	-0.30797
0.19971	-0.02739
0.53123	0.32972
0.48022	0.20219
0.35272	-0.35899
0.25071	-0.07840
0.04670	0.48277
0.30171	0.45726
0.40372	0.30422
-1.40690	0.40625
-0.18282	0.20219
-0.02981	-0.07840
0.55673	-0.12942
0.25071	0.15117
1.11776	-0.02739
0.73524	-0.00188
0.07220	0.22769
0.12320	0.04914
-0.28482	0.27871
-0.08081	0.48277
-0.41233	0.30422
0.32721	-0.07840
0.65874	-0.07840
0.53123	0.30422
0.17421	-0.02739
0.50573	0.20219
0.12320	0.22769
-0.15732	0.27871
-0.25932	0.10015
-0.38683	0.10015
-0.20832	0.20219
0.12320	0.10015
0.53123	0.66132
0.60773	0.35523
0.45472	-0.20594
0.63323	-0.15492
0.09770	-0.33348
-0.23382	0.22769
-0.02981	0.53379
-0.15732	0.89089
-0.15732	0.30422
0.17421	-0.10391
0.40372	-0.69059
0.48022	-0.35899
0.48022	-0.05289
0.48022	0.02363
0.48022	0.66132
-1.02437	0.32972
-0.25932	0.32972
-0.00431	0.50828
-0.05531	0.43176
-0.33583	0.40625
0.63323	0.25320
0.45472	-0.51203
0.63323	-0.15492
0.53123	-0.15492
0.22521	0.53379
0.02119	0.35523
-0.10631	0.17668
0.09770	0.25320
-0.69285	-0.02739
0.07220	0.04914
0.30171	-0.02739
0.19971	-0.05289
0.22521	0.04914
0.65874	0.04914
0.45472	0.43176
0.42922	0.15117
-0.13181	-0.00188
-1.96793	0.45726
-0.05531	0.27871
0.25071	0.25320
0.68424	0.15117
0.73524	0.22769
0.63323	-0.00188
0.68424	-0.05289
-0.08081	0.43176
-0.08081	0.17668
-0.13181	0.04914
-0.41233	0.15117
-0.28482	0.15117
0.02119	-0.00188
0.40372	-0.18043
0.60773	-0.15492
0.50573	0.35523
0.48022	0.55929
-0.08081	0.35523
-0.18282	0.25320
0.02119	0.25320
-0.23382	-0.25695
-0.15732	-0.00188
0.14870	-0.15492
0.58223	0.25320
0.55673	-0.02739
0.48022	-0.05289
0.83725	0.63582
0.35272	0.96742
-0.13181	0.25320
-0.64185	0.40625
-0.15732	-0.58856
-0.13181	-0.38449
0.50573	0.04914
0.60773	0.25320
0.70974	0.20219
1.04126	0.30422
-0.10631	0.32972
0.02119	0.20219
-0.64185	0.20219
-0.13181	0.25320
-0.10631	0.25320
-0.10631	0.10015
0.19971	-0.46102
0.53123	-0.35899
0.55673	0.12566
0.73524	0.32972
0.53123	0.50828
-0.10631	0.45726
-0.13181	0.58480
-0.13181	-0.02739
-0.31033	-0.02739
-0.56534	-0.12942
0.50573	0.48277
0.27621	0.02363
0.63323	0.02363
0.78624	-0.07840
1.06676	0.22769
0.30171	0.17668
-0.99887	0.58480
-0.00431	0.71234
-0.15732	0.25320
-0.10631	-0.23145
0.22521	-0.43551
0.70974	-0.07840
0.55673	0.20219
0.55673	0.10015
0.50573	0.25320
0.07220	0.04914
-0.10631	0.15117
-0.28482	0.35523
-0.18282	0.61031
-0.31033	0.58480
0.09770	-0.02739
0.48022	-0.07840
0.37822	-0.53754
0.63323	-0.25695
0.70974	0.38074
-0.79486	0.83988
0.02119	0.66132
-0.13181	0.25320
-0.20832	-0.35899
-0.10631	-0.02739
0.32721	-0.23145
0.68424	0.15117
0.25071	0.22769
0.45472	0.15117
0.68424	0.15117
0.07220	0.17668
-0.84586	0.22769
0.27621	0.25320
0.02119	0.38074
-0.53984	0.15117
0.27621	-0.00188
0.63323	0.02363
0.73524	0.10015
0.76074	0.10015
0.42922	0.04914
-0.79486	0.50828
-0.20832	0.38074
0.14870	-0.00188
-0.36133	-0.33348
-0.23382	-0.33348
0.32721	0.04914
0.53123	0.61031
0.65874	0.78886
0.76074	0.40625
0.45472	0.02363
-0.20832	0.17668
-0.43783	0.20219
-0.36133	-0.28246
-0.13181	0.10015
-0.20832	-0.25695
0.09770	0.15117
0.60773	0.61031
0.58223	-0.25695
0.50573	0.17668
0.53123	0.43176
0.22521	0.15117
-0.23382	-0.33348
-0.15732	0.35523
-0.02981	0.63582
-0.61635	0.55929
0.04670	-0.00188
0.60773	-0.00188
0.63323	0.45726
0.70974	0.15117
0.76074	-0.00188
0.09770	-0.00188
-0.10631	0.02363
-0.25932	-0.30797
-0.33583	0.17668
-0.25932	0.40625
0.42922	0.15117
0.70974	-0.05289
0.86275	-0.18043
0.17421	0.02363
-0.51434	0.35523
0.76074	0.45726
0.53123	0.10015
-1.17738	-0.10391
-0.13181	0.40625
0.27621	0.55929
0.30171	0.25320
0.73524	0.25320
0.37822	-0.15492
0.65874	-0.07840
0.50573	-0.15492
0.17421	0.53379
-0.15732	0.78886
-0.38683	0.07465
-0.36133	-0.02739
-0.33583	0.17668
0.07220	0.12566
0.42922	0.63582
0.63323	-0.10391
0.60773	-0.76711
0.53123	-0.46102
0.12320	0.12566
-0.10631	-0.18043
-0.25932	0.25320
-0.33583	0.48277
-0.25932	0.48277
0.22521	0.55929
0.42922	0.38074
0.55673	0.07465
0.60773	0.10015
0.73524	0.17668
0.09770	-0.07840
-0.31033	0.07465
-0.13181	0.12566
-0.05531	0.25320
-0.18282	0.07465
-0.28482	0.17668
0.30171	-0.15492
0.88825	0.15117
0.42922	0.12566
0.76074	0.04914
0.25071	0.27871
-0.48884	0.27871
-0.18282	0.07465
-0.05531	0.12566
-0.05531	0.22769
0.45472	-0.10391
0.60773	0.02363
-0.00431	0.40625
0.32721	0.35523
0.81175	0.02363
0.53123	-0.30797
-0.08081	0.02363
-0.38683	0.25320
-0.15732	0.38074
-0.38683	0.48277
-0.05531	0.45726
0.63323	0.30422
0.73524	0.68683
0.50573	-0.15492
0.55673	0.12566
0.19971	0.22769
-0.10631	1.12046
-0.28482	-0.66508
-0.18282	-1.50683
-0.25932	-0.33348
0.09770	0.78886
0.45472	0.68683
0.50573	0.04914
0.48022	-0.00188
0.53123	0.45726
0.12320	0.61031
-0.23382	0.53379
-0.15732	0.27871
-0.15732	0.27871
-0.23382	-0.02739
0.14870	0.12566
0.48022	-0.23145
0.60773	-0.20594
0.83725	0.10015
0.19971	0.25320
-0.31033	0.02363
0.25071	0.40625
0.25071	0.22769
-0.02981	0.35523
0.04670	0.02363
-1.10088	-0.07840
0.58223	-0.05289
0.73524	-0.02739
0.78624	0.25320
0.76074	0.22769
-0.33583	0.38074
-0.05531	0.45726
-0.23382	0.35523
-0.18282	-0.05289
-0.20832	0.07465
-0.02981	-0.18043
0.27621	0.15117
0.50573	0.12566
0.55673	0.15117
0.48022	0.07465
0.32721	0.15117
-0.18282	-0.02739
-0.18282	0.48277
-0.18282	0.63582
-0.28482	0.32972
0.14870	-0.56305
0.42922	-0.43551
0.58223	-0.10391
0.50573	-0.23145
0.42922	0.61031
0.22521	0.73785
-0.23382	0.32972
-0.10631	0.15117
-0.15732	0.17668
-0.25932	0.02363
0.25071	0.58480
0.93925	-0.38449
-0.31033	-0.15492
0.30171	-0.15492
0.40372	0.07465
0.50573	0.35523
0.35272	0.50828
-1.04987	0.04914
0.07220	0.25320
-0.10631	0.25320
0.22521	0.22769
0.88825	-0.12942
0.86275	-0.18043
-0.13181	-0.18043
0.60773	0.02363
-0.41233	0.32972
-0.05531	0.48277
-0.18282	0.45726
0.02119	0.50828
-0.05531	0.20219
0.32721	-0.12942
0.30171	-0.12942
-0.13181	0.25320
0.83725	0.02363
0.37822	-0.07840
0.22521	0.10015
-0.13181	0.12566
-0.25932	-0.10391
-0.15732	0.53379
-0.20832	0.32972
0.14870	0.66132
0.48022	0.04914
0.50573	-0.33348
0.55673	-0.12942
0.58223	0.30422
0.12320	0.43176
-0.10631	-0.10391
-0.36133	-0.48652
-0.20832	-0.00188
-0.20832	0.58480
0.09770	0.45726
0.45472	0.40625
0.40372	0.17668
0.60773	0.38074
0.50573	0.10015
0.19971	0.20219
-0.18282	-0.15492
-0.10631	0.27871
-0.33583	0.12566
-0.10631	-0.10391
0.45472	-0.12942
0.58223	-0.00188
-0.10631	0.12566
-0.43783	0.20219
0.63323	0.32972
-0.10631	0.35523
0.45472	0.40625
-0.51434	0.12566
0.19971	0.20219
-0.23382	0.07465
0.22521	0.35523
0.53123	-0.20594
0.53123	-0.23145
0.12320	0.04914
0.40372	0.02363
-0.18282	0.63582
-0.05531	0.86539
-0.18282	0.43176
-0.23382	-0.25695
-0.28482	-0.18043
0.14870	-0.15492
0.60773	0.35523
0.63323	0.27871
0.45472	0.25320
0.53123	-0.25695
0.17421	0.73785
-0.15732	0.48277
-0.28482	0.10015
-0.25932	0.25320
-0.41233	0.25320
0.17421	-0.02739
0.40372	-0.15492
0.68424	-0.56305
0.50573	0.25320
0.58223	0.53379
0.04670	0.50828
-0.08081	-0.07840
-0.10631	-0.48652
-0.74385	0.30422
-0.28482	0.43176
0.45472	0.30422
0.96476	-0.00188
0.12320	0.10015
-0.87136	0.12566
0.53123	0.27871
0.37822	0.25320
0.02119	0.10015
-0.05531	-0.00188
0.04670	0.15117
-0.08081	0.15117
0.58223	0.10015
0.83725	-0.02739
-0.59084	0.20219
0.63323	0.20219
0.73524	0.43176
0.02119	0.04914
-0.23382	-0.28246
-0.28482	-0.18043
-0.05531	0.40625
-0.20832	0.48277
0.17421	0.02363
0.48022	0.32972
0.45472	0.30422
0.48022	0.32972
0.35272	0.25320
0.19971	-0.02739
-0.28482	-0.69059
-0.20832	-0.28246
-0.18282	0.48277
-0.20832	0.63582
0.12320	0.27871
0.45472	-0.15492
0.60773	0.40625
0.48022	0.15117
0.37822	0.12566
0.12320	0.27871
-0.05531	0.32972
-0.28482	-0.05289
-0.08081	0.12566
-0.33583	0.10015
0.09770	-0.02739
0.40372	-0.02739
0.63323	0.20219
0.50573	0.02363
0.19971	-0.15492
0.22521	0.30422
0.12320	0.43176
0.35272	0.40625
-0.92237	0.22769
-0.48884	0.32972
-0.08081	-0.02739
0.86275	0.15117
0.48022	0.15117
0.60773	0.10015
1.32178	-0.12942
0.63323	-0.20594
-1.71292	0.38074
-0.64185	0.30422
0.25071	0.15117
0.02119	0.04914
0.30171	0.27871
0.50573	-0.02739
0.70974	0.35523
0.53123	-0.02739
0.40372	0.45726
0.22521	0.61031
-0.08081	0.12566
-0.15732	0.30422
-0.59084	-0.28246
-0.33583	-0.86914
0.02119	-0.41000
0.55673	0.35523
0.60773	0.38074
0.53123	0.50828
0.48022	0.45726
0.17421	0.86539
-0.02981	0.53379
-0.28482	0.02363
-0.15732	0.04914
-0.25932	0.35523
-0.02981	-0.35899
0.60773	-0.20594
0.60773	-0.00188
0.22521	0.10015
0.65874	0.30422
0.19971	0.53379
-0.25932	0.17668
0.07220	-0.02739
0.04670	0.40625
-0.92237	0.20219
-0.05531	0.02363
0.53123	0.10015
1.04126	0.15117
0.40372	0.04914
1.06676	0.12566
-1.02437	0.04914
-0.36133	-0.07840
0.35272	0.30422
0.12320	0.27871
0.17421	0.04914
0.27621	0.12566
0.45472	0.07465
0.91375	0.22769
0.30171	-0.15492
0.02119	0.02363
-0.05531	0.22769
-0.10631	0.32972
-0.28482	0.04914
-0.23382	0.25320
-0.28482	0.17668
0.07220	0.58480
0.45472	0.12566
0.73524	-0.53754
0.60773	-0.10391
0.50573	0.30422
0.04670	0.15117
-0.15732	0.50828
-0.20832	0.22769
-0.28482	-0.05289
-0.25932	0.07465
0.12320	0.15117
0.40372	0.12566
0.53123	0.17668
0.50573	0.17668
0.63323	-0.15492
0.12320	0.66132
-0.18282	-0.07840
-0.13181	-0.43551
-0.25932	-0.20594
-0.33583	0.43176
0.12320	0.63582
0.45472	0.53379
0.65874	0.17668
0.88825	-0.12942
-0.59084	0.17668
0.40372	0.35523
0.50573	-0.10391
-1.96793	-0.18043
-0.05531	-0.12942
-0.02981	0.30422
0.53123	-0.00188
0.83725	0.12566
-0.02981	0.32972
0.83725	0.22769
0.58223	0.17668
0.37822	0.30422
-0.79486	0.38074
0.25071	0.10015
-0.25932	0.17668
-0.31033	0.20219
0.02119	-0.15492
0.32721	-0.46102
0.65874	0.20219
0.68424	0.63582
0.22521	-0.00188
0.19971	0.15117
-0.10631	0.25320
-0.23382	0.07465
-0.10631	0.27871
-0.28482	0.12566
0.02119	0.02363
0.32721	0.15117
0.60773	-0.07840
0.40372	-0.23145
0.63323	0.10015
0.22521	0.43176
-0.15732	0.66132
-0.10631	0.27871
-0.23382	-0.28246
-0.28482	0.15117
0.04670	-0.10391
0.37822	0.50828
0.65874	0.30422
0.42922	-0.00188
0.53123	0.17668
-0.02981	-0.15492
0.04670	0.12566
-0.23382	0.30422
-0.18282	0.38074
-0.18282	0.15117
0.09770	-0.00188
0.53123	-0.00188
0.53123	0.02363
0.63323	0.17668
0.65874	0.02363
0.55673	0.27871
-2.12094	0.15117
-0.05531	0.15117
-0.48884	0.30422
0.07220	0.22769
0.50573	0.04914
0.63323	-0.23145
0.81175	0.04914
0.68424	0.17668
0.60773	0.32972
0.17421	0.40625
-0.61635	0.38074
-0.18282	0.68683
-0.23382	0.04914
-0.18282	-0.30797
0.02119	-0.41000
0.50573	0.07465
0.45472	0.53379
0.50573	0.53379
0.60773	-0.56305
0.02119	-0.10391
-0.23382	0.35523
-0.18282	0.58480
-0.10631	0.53379
-0.23382	0.12566
0.07220	-0.25695
0.40372	-0.58856
0.53123	-0.28246
0.40372	0.04914
0.60773	0.58480
0.48022	0.25320
-0.28482	0.12566
-0.15732	0.96742
-0.25932	0.50828
-0.28482	0.12566
-0.00431	-0.43551
0.37822	-0.23145
0.60773	0.15117
0.53123	0.04914
0.53123	0.17668
0.17421	0.22769
-0.28482	0.15117
-0.08081	0.20219
-0.10631	0.22769
-0.46334	0.17668
0.37822	0.07465
0.45472	0.02363
-0.08081	0.17668
0.27621	0.07465
0.68424	0.12566
0.45472	0.22769
0.35272	0.35523
-1.07538	0.25320
0.04670	0.22769
-0.23382	0.15117
0.12320	0.10015
0.65874	0.10015
0.37822	-0.25695
0.32721	0.10015
0.42922	0.17668
0.32721	0.35523
-0.20832	0.12566
-0.10631	0.32972
-0.18282	0.15117
-0.10631	0.32972
0.04670	0.12566
0.32721	-0.41000
0.63323	-0.07840
0.45472	0.02363
0.53123	0.15117
0.25071	0.35523
-0.13181	0.15117
-0.18282	-0.00188
-0.18282	0.55929
-0.38683	0.61031
0.19971	0.27871
0.32721	0.10015
0.70974	0.43176
0.45472	-0.51203
0.60773	-0.43551
0.17421	-0.00188
-0.18282	-0.12942
-0.20832	0.35523
-0.08081	0.35523
-0.28482	0.38074
0.12320	-0.18043
0.32721	0.25320
0.55673	0.12566
0.60773	0.50828
0.88825	0.02363
-0.00431	-0.00188
-0.00431	0.63582
0.25071	0.55929
-1.12638	0.15117
-0.10631	0.07465
0.53123	-0.10391
0.37822	-0.20594
0.40372	-0.30797
0.27621	-0.23145
0.73524	-0.33348
0.30171	0.32972
-0.23382	0.43176
0.04670	0.53379
-0.15732	0.66132
-0.43783	0.02363
-0.13181	-0.43551
0.42922	0.04914
0.48022	0.20219
0.58223	0.55929
0.53123	0.10015
0.04670	0.15117
-0.38683	-0.23145
-0.10631	0.35523
-0.08081	0.53379
-0.18282	0.53379
0.07220	-0.00188
0.40372	-0.02739
0.68424	-0.12942
0.50573	0.22769
0.68424	-0.02739
0.12320	-0.23145
-0.10631	0.10015
-0.28482	0.25320
-0.28482	0.99292
-0.33583	0.71234
0.02119	-0.56305
0.30171	-1.04770
0.60773	-0.02739
0.53123	0.45726
0.53123	0.50828
0.14870	0.58480
-0.13181	0.40625
-0.13181	0.12566
0.02119	0.25320
0.04670	0.12566
-0.20832	0.02363
-0.51434	-0.05289
0.58223	-0.02739
0.73524	-0.15492
0.65874	-0.02739
0.37822	0.43176
0.27621	0.38074
0.19971	0.15117
-0.20832	0.20219
-1.94243	0.17668
0.02119	-0.07840
0.99026	0.15117
1.01576	0.17668
0.02119	0.10015
0.63323	0.15117
0.12320	0.04914
-0.10631	0.38074
-0.00431	0.40625
-0.10631	0.10015
-0.25932	-0.07840
-0.08081	-0.07840
0.45472	-0.00188
0.45472	0.35523
0.37822	0.32972
0.63323	0.30422
0.14870	0.71234
-0.25932	-0.46102
-0.31033	0.30422
-0.25932	-0.15492
-0.23382	0.35523
0.07220	0.17668
0.45472	-0.48652
0.68424	0.02363
0.40372	0.04914
0.60773	0.04914
0.22521	0.38074
-0.15732	0.30422
-0.08081	0.45726
-0.28482	0.43176
-0.28482	0.35523
0.09770	-0.05289
0.55673	-0.15492
0.53123	0.04914
-0.18282	0.10015
0.93925	-0.00188
0.50573	0.27871
0.19971	0.25320
-1.02437	0.22769
-0.71835	0.20219
-0.66735	0.10015
1.27078	0.07465
-1.53441	-0.00188
0.76074	-0.00188
1.32178	0.12566
0.73524	0.04914
0.22521	0.17668
0.17421	0.35523
-0.28482	0.50828
-0.18282	-0.07840
-0.28482	0.12566
-0.10631	0.07465
0.27621	-0.30797
0.53123	0.35523
0.53123	0.04914
0.37822	0.30422
0.17421	-0.07840
-0.13181	0.38074
-0.25932	0.58480
-0.02981	0.30422
-0.23382	0.48277
0.09770	0.20219
0.53123	0.35523
0.58223	-0.28246
0.45472	-0.41000
0.68424	-0.05289
0.17421	0.15117
-0.10631	0.32972
-0.25932	-0.07840
-0.20832	-0.00188
-0.28482	0.48277
-0.08081	0.04914
0.42922	0.17668
0.53123	0.81437
0.42922	-0.41000
0.60773	-0.33348
0.09770	0.35523
0.02119	0.81437
-0.15732	0.25320
-0.31033	-0.05289
-0.51434	0.30422
-0.00431	0.27871
0.45472	-0.07840
0.60773	0.02363
0.55673	0.02363
0.91375	-0.05289
0.48022	0.25320
-0.38683	-0.10391
-0.41233	0.25320
0.17421	0.38074
-0.13181	0.45726
-0.23382	-0.41000
0.32721	-0.63957
0.55673	-0.15492
0.53123	0.61031
0.83725	0.43176
0.30171	0.32972
-0.08081	0.32972
-0.18282	0.32972
-0.18282	-0.00188
-0.18282	0.66132
-0.36133	0.22769
0.32721	0.17668
0.53123	-0.23145
0.45472	-0.15492
0.63323	-0.15492
0.25071	0.07465
-0.08081	0.48277
-0.13181	0.15117
-0.10631	0.27871
-0.33583	0.22769
-0.00431	-0.20594
0.48022	0.25320
0.58223	-0.05289
0.42922	0.20219
0.60773	-0.41000
0.14870	0.55929
-0.05531	0.83988
-0.31033	-0.00188
0.12320	0.10015
0.02119	0.17668
-1.40690	0.15117
0.55673	0.17668
0.83725	0.02363
0.78624	-0.15492
-0.13181	-0.07840
-0.13181	0.12566
0.02119	0.20219
-0.05531	0.35523
-0.10631	0.30422
0.04670	0.17668
0.63323	0.10015
-0.41233	-0.00188
-0.46334	0.02363
0.60773	0.22769
0.86275	0.22769
0.37822	0.12566
0.17421	0.22769
-0.18282	-0.05289
-0.20832	-0.02739
-0.48884	0.20219
0.12320	0.27871
0.40372	0.20219
0.48022	0.07465
0.37822	0.12566
0.53123	0.86539
0.19971	0.25320
-0.08081	-0.25695
-0.13181	-0.71609
-0.23382	-0.07840
-0.28482	0.63582
0.04670	0.66132
0.32721	0.22769
0.55673	-0.41000
0.50573	0.10015
0.53123	0.35523
0.27621	0.25320
-0.08081	0.38074
-0.25932	0.04914
-0.15732	-0.18043
-0.28482	-0.02739
0.14870	0.02363
0.40372	0.02363
0.32721	0.35523
0.27621	0.35523
0.78624	0.17668
0.53123	-0.05289
-0.46334	0.17668
-0.59084	0.35523
-0.15732	0.35523
-0.20832	0.32972
0.30171	0.30422
0.60773	-0.38449
0.83725	-0.20594
0.30171	0.12566
0.35272	0.20219
0.40372	0.30422
0.45472	0.40625
0.25071	0.27871
-2.52897	0.02363
-0.31033	0.12566
0.30171	-0.05289
0.76074	-0.10391
0.88825	0.15117
0.58223	0.25320
0.30171	0.25320
0.37822	0.02363
-0.08081	0.35523
-0.18282	-0.05289
-0.23382	-0.56305
-0.25932	0.83988
0.04670	0.61031
0.37822	0.07465
0.48022	-0.12942
0.48022	-0.00188
0.63323	0.20219
0.14870	0.48277
-0.18282	-0.30797
-0.20832	-0.20594
-0.13181	-0.02739
-0.20832	0.58480
0.12320	-0.00188
0.50573	-0.05289
0.60773	0.30422
0.45472	0.45726
0.63323	0.53379
0.09770	0.17668
-0.15732	0.04914
-0.23382	-0.10391
-0.20832	0.15117
-0.28482	0.32972
-0.05531	-0.07840
0.42922	0.07465
0.48022	0.07465
0.27621	0.07465
0.93925	0.20219
0.78624	0.25320
-0.05531	0.17668
-2.04444	0.15117
-0.25932	0.12566
-0.08081	0.15117
0.50573	0.10015
0.83725	-0.00188
0.86275	-0.00188
0.68424	0.12566
0.37822	0.15117
0.37822	0.27871
-0.28482	0.27871
-0.25932	0.32972
-0.33583	-0.12942
-0.41233	0.02363
0.07220	0.30422
0.12320	0.04914
0.48022	-0.18043
0.58223	0.17668
0.65874	0.35523
0.35272	0.71234
-0.18282	0.07465
-0.08081	0.38074
-0.10631	0.10015
-0.28482	-0.02739
0.07220	-0.15492
0.30171	-0.07840
0.63323	-0.18043
0.45472	0.15117
0.48022	0.25320
0.30171	0.73785
-0.18282	0.43176
-0.20832	-0.43551
-0.20832	-0.46102
-0.28482	0.38074
0.07220	0.35523
0.35272	0.22769
0.60773	0.22769
0.50573	0.35523
0.45472	0.10015
0.32721	0.25320
-0.28482	0.17668
-0.13181	0.10015
0.32721	0.15117
-0.48884	0.17668
-0.13181	-0.07840
-0.46334	-0.07840
1.09226	0.04914
0.73524	0.10015
-0.10631	0.15117
0.50573	0.40625
0.25071	0.27871
0.04670	0.20219
0.07220	0.10015
-0.18282	0.17668
0.02119	-0.02739
0.35272	-0.00188
0.48022	0.12566
0.53123	0.22769
0.30171	-0.12942
-0.00431	0.35523
-0.46334	0.20219
-0.28482	0.35523
-0.10631	0.35523
-0.28482	-0.10391
0.04670	-0.05289
0.42922	0.02363
0.68424	0.20219
0.58223	0.76336
0.50573	0.30422
0.30171	-0.28246
-0.10631	-0.25695
-0.18282	0.04914
-0.18282	0.04914
-0.31033	0.22769
0.17421	0.43176
0.32721	0.30422
0.53123	-0.10391
0.40372	0.15117
0.50573	0.02363
0.17421	0.30422
0.04670	0.12566
-0.18282	0.32972
-0.20832	0.25320
-0.59084	0.32972
0.07220	-0.02739
0.40372	-0.07840
0.58223	-0.07840
0.55673	0.15117
0.27621	0.10015
0.32721	0.40625
0.42922	0.32972
-0.51434	0.10015
-0.10631	0.30422
-0.05531	-0.07840
-0.23382	0.17668
0.37822	0.02363
0.04670	-0.25695
0.55673	0.15117
0.93925	0.22769
0.50573	0.40625
-0.05531	0.32972
-0.33583	0.53379
0.07220	0.35523
-0.05531	-0.38449
-1.30489	-0.63957
0.35272	0.27871
0.65874	0.45726
0.58223	0.22769
0.70974	0.04914
0.37822	0.40625
-0.08081	0.55929
-0.18282	0.12566
-0.28482	-0.28246
-0.33583	-0.15492
0.02119	-0.23145
0.32721	0.40625
0.63323	0.30422
0.40372	0.12566
0.58223	0.04914
0.09770	0.22769
-0.05531	-0.02739
-0.15732	-0.05289
-0.02981	0.32972
-0.28482	0.15117
0.09770	-0.15492
0.17421	0.15117
0.53123	0.07465
0.63323	0.53379
1.09226	0.32972
0.63323	0.38074
-1.20288	0.27871
0.53123	0.12566
-0.20832	0.15117
-0.69285	-0.05289
0.19971	0.10015
0.83725	-0.23145
0.50573	-0.10391
0.50573	-0.02739
0.76074	0.20219
0.07220	0.22769
0.07220	0.40625
-0.28482	0.30422
-0.43783	0.22769
-0.48884	0.22769
-0.20832	-0.07840
0.48022	0.25320
0.63323	0.15117
0.53123	-0.23145
0.55673	-0.15492
0.42922	0.02363
-0.15732	0.71234
-0.28482	0.81437
-0.02981	0.63582
-0.31033	0.10015
0.09770	-0.18043
0.37822	-0.15492
0.68424	-0.15492
0.32721	0.15117
0.65874	0.04914
0.19971	-0.35899
-0.13181	-0.05289
-0.38683	0.07465
-0.08081	0.89089
-0.25932	0.61031
-0.02981	0.15117
0.32721	0.25320
0.53123	-0.18043
0.53123	-0.38449
0.68424	-0.07840
0.07220	0.35523
-0.08081	0.43176
-0.25932	0.17668
-0.05531	0.22769
-0.38683	-0.07840
0.07220	-0.10391
0.50573	0.04914
0.50573	0.22769
0.55673	0.35523
0.50573	0.25320
0.48022	0.40625
-0.33583	0.35523
-0.00431	0.04914
-0.48884	0.07465
-0.41233	0.15117
0.50573	-0.00188
-0.08081	-0.10391
0.63323	0.07465
0.68424	0.07465
0.76074	0.04914
0.70974	0.27871
0.27621	0.12566
-1.73842	0.71234
-0.28482	-0.10391
-0.08081	-0.10391
0.35272	-0.18043
0.63323	-0.05289
0.78624	-0.05289
0.70974	0.61031
0.68424	0.61031
0.17421	0.43176
-0.13181	0.07465
-0.33583	-0.00188
-0.10631	0.32972
-0.46334	0.27871
-0.00431	0.22769
0.27621	-0.10391
0.48022	-0.20594
0.45472	-0.07840
0.48022	-0.00188
0.42922	0.22769
-0.18282	0.10015
-0.18282	0.30422
-0.13181	0.66132
-0.38683	0.15117
0.07220	-0.30797
0.37822	-0.15492
0.58223	-0.05289
0.58223	0.17668
0.70974	0.53379
0.58223	0.43176
-0.51434	-0.00188
-0.18282	0.04914
-0.18282	0.43176
-0.13181	0.55929
0.09770	0.07465
0.42922	0.04914
0.53123	-0.10391
0.37822	0.04914
0.60773	0.10015
0.50573	0.17668
0.09770	0.20219
-0.59084	0.15117
-0.46334	0.10015
-0.05531	-0.02739
0.02119	-0.15492
0.42922	-0.15492
0.60773	0.07465
0.45472	0.40625
0.68424	0.58480
0.22521	0.35523
-0.10631	0.04914
-0.18282	0.10015
-0.25932	0.15117
-0.31033	0.22769
-0.13181	0.61031
0.42922	-0.35899
0.55673	0.07465
0.50573	-0.15492
0.68424	0.35523
0.25071	0.12566
-0.00431	-0.05289
-0.23382	0.94191
-0.18282	0.38074
-0.20832	-0.30797
-0.08081	-0.25695
0.40372	0.10015
0.45472	-0.05289
0.37822	0.22769
0.68424	0.27871
0.35272	0.17668
-0.13181	0.35523
-0.23382	0.15117
-0.15732	0.10015
-0.33583	0.15117
-0.02981	0.07465
0.37822	0.02363
0.73524	-0.00188
0.78624	0.02363
0.09770	0.15117
0.35272	0.32972
-0.51434	0.30422
0.07220	0.40625
0.37822	0.27871
-1.63641	0.15117
-0.00431	-0.18043
0.40372	-0.05289
0.78624	0.15117
0.68424	0.17668
0.78624	0.12566
0.42922	0.25320
-0.08081	0.30422
-0.18282	0.10015
-0.13181	0.15117
-0.48884	0.12566
-0.10631	-0.05289
0.35272	0.07465
0.32721	-0.00188
0.30171	0.15117
0.53123	0.27871
0.19971	0.15117
-0.00431	0.04914
0.02119	0.04914
-0.18282	0.43176
-0.31033	0.07465
-0.08081	0.30422
0.35272	-0.12942
0.70974	0.10015
0.53123	0.35523
0.53123	0.32972
0.27621	0.58480
-0.23382	-0.07840
0.04670	-0.02739
-0.10631	0.25320
-0.59084	0.35523
-0.15732	-0.15492
0.37822	-0.33348
0.60773	-0.25695
0.53123	0.22769
0.55673	0.12566
0.32721	0.27871
-0.10631	0.35523
-0.28482	0.32972
-0.13181	0.22769
-0.20832	0.20219
-0.15732	-0.00188
0.27621	-0.02739
0.73524	0.15117
0.55673	0.25320
0.48022	-0.00188
0.35272	0.32972
0.83725	0.20219
-1.86593	0.12566
-0.38683	0.12566
0.04670	0.27871
0.19971	0.15117
0.55673	-0.41000
0.65874	0.20219
0.91375	0.35523
1.24527	0.15117
-0.33583	0.15117
-0.02981	0.15117
0.02119	0.53379
0.09770	0.07465
-0.28482	-0.35899
-0.02981	-0.25695
0.42922	0.02363
0.42922	0.38074
0.40372	0.02363
0.55673	0.25320
0.14870	0.73785
-0.31033	0.17668
-0.25932	-0.05289
-0.10631	0.17668
-0.28482	-0.51203
-0.00431	0.27871
0.42922	0.66132
0.35272	0.63582
0.55673	-0.61406
0.65874	-0.28246
0.22521	-0.12942
-0.00431	0.43176
-0.10631	0.04914
-0.23382	0.22769
-0.23382	0.55929
-0.15732	-0.07840
0.50573	0.53379
0.78624	0.45726
0.40372	0.73785
0.55673	-0.38449
0.07220	-0.46102
-0.10631	-0.07840
-0.28482	0.25320
-0.13181	0.15117
-0.33583	0.20219
0.32721	0.15117
0.58223	0.22769
-0.38683	0.04914
0.60773	0.38074
0.53123	0.10015
0.07220	-0.07840
-0.28482	0.20219
0.19971	0.45726
0.07220	0.30422
-0.61635	0.32972
0.22521	0.04914
0.35272	-0.00188
0.76074	-0.02739
0.32721	-0.05289
0.53123	0.10015
0.07220	0.17668
-0.02981	0.38074
-0.25932	0.12566
-0.08081	0.66132
-0.36133	0.12566
-0.08081	-0.46102
0.37822	-0.18043
0.42922	-0.20594
0.42922	0.22769
0.55673	0.55929
0.22521	0.35523
-0.10631	0.55929
-0.10631	0.20219
-0.20832	0.15117
-0.23382	0.35523
0.07220	0.04914
0.37822	0.12566
0.55673	-0.46102
0.48022	0.15117
0.53123	-0.41000
0.27621	0.10015
-0.10631	0.50828
-0.20832	0.45726
-0.10631	0.30422
-0.31033	0.35523
-0.02981	0.10015
0.22521	-0.05289
0.55673	-0.07840
0.50573	-0.00188
0.58223	0.10015
0.86275	0.20219
0.83725	0.45726
-1.81492	0.17668
-1.53441	0.10015
-0.08081	0.22769
0.53123	-0.00188
1.04126	-0.02739
-0.33583	0.20219
1.16877	0.30422
0.99026	0.17668
0.68424	0.22769
-0.18282	0.12566
-0.23382	0.04914
-0.31033	0.04914
-0.59084	0.25320
0.07220	0.25320
0.25071	0.04914
-0.10631	0.12566
0.14870	0.27871
0.53123	0.15117
0.48022	0.78886
-0.13181	-0.35899
-0.05531	-0.63957
-0.05531	-0.15492
-0.20832	1.35003
-0.10631	0.35523
0.37822	-0.33348
0.65874	-0.51203
0.45472	-0.18043
0.68424	0.35523
0.22521	0.32972
-0.05531	1.17148
-0.18282	0.58480
-0.18282	0.10015
-0.31033	0.10015
-0.08081	-0.28246
0.35272	-0.20594
0.42922	0.12566
0.53123	0.17668
0.60773	-0.05289
