0.17421	0.22769
0.12320	0.25320
0.04670	0.10015
-0.10631	-0.05289
-0.08081	-0.07840
0.07220	0.07465
0.27621	0.17668
0.37822	0.32972
0.32721	0.35523
0.22521	0.22769
-0.00431	0.07465
0.02119	0.17668
0.07220	0.10015
-0.00431	0.04914
0.02119	0.17668
0.19971	-0.05289
0.22521	-0.30797
0.32721	0.10015
0.40372	0.48277
0.32721	0.32972
0.04670	0.15117
-0.00431	0.25320
0.04670	0.20219
-0.05531	0.15117
0.04670	0.15117
0.17421	0.12566
0.22521	0.07465
0.27621	0.12566
0.42922	0.25320
0.19971	0.12566
-0.00431	-0.02739
0.04670	0.04914
0.12320	0.12566
-0.08081	0.02363
-0.05531	0.10015
0.14870	0.15117
0.32721	0.22769
0.32721	0.35523
0.32721	0.22769
0.22521	0.04914
0.12320	0.07465
0.12320	0.12566
0.02119	0.02363
-0.15732	0.10015
-0.00431	0.20219
0.27621	0.20219
0.27621	0.07465
0.12320	0.17668
0.30171	0.22769
0.32721	0.20219
0.19971	0.17668
0.14870	0.07465
-0.00431	0.02363
-0.10631	0.10015
0.02119	0.17668
0.22521	0.27871
0.42922	0.12566
0.22521	0.12566
0.35272	0.10015
0.19971	0.10015
-0.02981	0.12566
0.07220	0.15117
0.17421	0.17668
-0.28482	0.04914
-0.02981	-0.00188
0.09770	0.07465
0.17421	0.17668
0.22521	0.20219
0.53123	0.30422
0.50573	0.25320
0.25071	0.12566
0.12320	-0.02739
0.04670	0.04914
-0.08081	0.07465
-0.08081	0.15117
-0.00431	0.22769
0.17421	0.22769
0.30171	0.35523
0.27621	0.17668
0.12320	0.12566
0.07220	0.15117
0.04670	0.02363
-0.00431	-0.02739
-0.02981	0.12566
0.07220	0.15117
0.22521	0.07465
0.27621	0.20219
0.42922	0.25320
0.42922	0.25320
0.30171	0.17668
0.07220	0.12566
0.02119	0.10015
0.04670	0.02363
-0.15732	-0.07840
-0.00431	0.15117
0.25071	0.25320
0.32721	0.17668
0.19971	0.15117
0.32721	0.22769
0.30171	0.22769
0.09770	0.04914
-0.00431	0.12566
0.12320	0.15117
-0.05531	0.17668
-0.08081	0.02363
0.07220	0.07465
0.32721	0.15117
0.25071	0.17668
0.27621	0.20219
0.12320	0.10015
0.04670	0.15117
0.04670	0.12566
0.12320	0.15117
-0.08081	0.02363
-0.05531	0.04914
0.12320	0.12566
0.42922	0.20219
0.35272	0.30422
0.35272	0.27871
0.09770	0.07465
0.04670	0.12566
0.04670	0.10015
-0.02981	0.04914
-0.08081	-0.05289
0.09770	0.10015
0.17421	0.17668
0.22521	0.15117
0.30171	0.22769
0.40372	0.25320
0.25071	0.10015
0.07220	-0.00188
-0.00431	0.10015
0.02119	0.25320
-0.05531	0.15117
-0.00431	0.15117
0.04670	0.12566
0.25071	0.10015
0.27621	0.22769
0.37822	0.22769
0.30171	0.10015
0.07220	0.15117
-0.05531	0.15117
-0.00431	0.10015
0.07220	-0.02739
0.12320	-0.23145
0.27621	0.04914
0.40372	0.35523
0.17421	0.35523
0.12320	0.38074
0.02119	0.25320
-0.08081	0.07465
0.07220	0.02363
0.09770	0.07465
0.12320	0.25320
0.09770	0.20219
0.14870	0.15117
0.25071	-0.00188
0.42922	0.15117
0.50573	0.12566
0.37822	0.07465
0.19971	0.10015
0.07220	0.04914
-0.05531	0.17668
-0.15732	0.07465
-0.08081	0.17668
0.09770	0.30422
0.19971	0.15117
0.19971	0.27871
0.42922	0.35523
0.14870	0.25320
0.07220	0.15117
-0.05531	-0.02739
-0.00431	0.04914
-0.10631	-0.00188
-0.05531	-0.10391
0.25071	0.07465
0.42922	0.20219
0.40372	0.38074
0.42922	0.32972
0.30171	0.32972
0.14870	-0.00188
0.02119	-0.33348
-0.10631	-0.33348
-0.00431	0.22769
0.02119	0.30422
0.12320	0.45726
0.37822	0.50828
0.27621	0.48277
0.30171	0.15117
0.25071	0.12566
0.07220	-0.00188
0.02119	-0.07840
0.02119	0.15117
-0.20832	-0.02739
-0.00431	0.12566
0.22521	0.25320
0.25071	0.07465
0.30171	0.20219
0.40372	0.25320
0.19971	0.10015
0.12320	0.10015
0.12320	0.20219
0.09770	0.17668
-0.08081	0.10015
0.04670	0.20219
0.19971	0.12566
0.19971	0.10015
0.02119	0.22769
-0.00431	0.25320
-0.08081	0.02363
0.19971	0.10015
0.42922	0.10015
0.40372	0.04914
0.17421	0.02363
0.27621	0.22769
0.30171	0.25320
0.22521	0.15117
0.32721	0.35523
0.19971	0.38074
-0.00431	0.25320
-0.20832	-0.02739
-0.28482	-0.05289
0.07220	-0.05289
-0.02981	-0.07840
0.04670	0.27871
0.27621	0.25320
0.32721	0.25320
0.22521	0.10015
0.32721	0.20219
0.27621	0.30422
0.14870	0.27871
0.02119	0.22769
0.04670	0.15117
-0.18282	-0.05289
-0.02981	-0.00188
0.19971	-0.23145
0.25071	-0.07840
0.25071	0.02363
0.35272	0.20219
0.37822	0.45726
0.22521	0.32972
0.04670	0.22769
-0.02981	0.04914
-0.00431	0.12566
0.07220	0.17668
0.25071	0.30422
0.27621	0.25320
0.19971	0.10015
0.37822	0.20219
0.27621	0.17668
0.02119	0.07465
-0.02981	-0.12942
0.07220	0.07465
-0.00431	0.04914
0.02119	0.07465
0.12320	0.15117
0.14870	0.15117
0.25071	0.25320
0.30171	0.22769
0.19971	0.10015
0.19971	0.12566
0.32721	0.20219
0.30171	0.07465
-0.05531	0.02363
-0.08081	0.04914
0.14870	0.20219
0.12320	0.27871
0.32721	0.20219
0.25071	0.25320
-0.05531	0.04914
-0.05531	-0.15492
0.14870	0.25320
0.19971	0.04914
-0.10631	0.04914
0.09770	0.15117
0.30171	0.02363
0.37822	0.40625
0.22521	0.02363
0.30171	-0.20594
0.22521	0.43176
0.07220	0.15117
0.09770	0.20219
-0.00431	0.15117
-0.13181	0.12566
-0.02981	0.20219
0.14870	0.35523
0.35272	0.27871
0.27621	0.25320
0.32721	0.15117
0.19971	0.07465
0.09770	-0.00188
0.12320	-0.00188
-0.05531	-0.10391
-0.10631	-0.10391
0.07220	-0.05289
0.37822	0.22769
0.42922	0.30422
0.19971	0.35523
0.07220	0.38074
0.12320	0.38074
0.02119	0.15117
0.02119	0.02363
0.25071	0.10015
0.09770	0.04914
0.25071	0.20219
0.30171	0.22769
0.19971	0.07465
0.19971	-0.02739
0.30171	0.27871
0.02119	0.25320
-0.13181	0.25320
-0.02981	0.22769
0.04670	0.25320
-0.05531	-0.28246
0.09770	-0.66508
0.25071	-0.94566
0.35272	0.40625
0.42922	1.27351
0.53123	0.30422
0.19971	0.25320
-0.51434	0.10015
-0.00431	0.40625
0.32721	0.66132
0.07220	-0.46102
-0.00431	-0.56305
0.09770	0.10015
0.40372	0.76336
0.27621	1.04394
0.17421	0.35523
0.30171	-0.28246
-0.08081	-0.66508
-0.00431	-0.05289
0.07220	0.17668
0.14870	0.50828
0.42922	0.61031
0.35272	-0.05289
0.30171	0.10015
0.17421	0.02363
-0.46334	0.73785
-0.23382	0.40625
-0.41233	0.15117
-0.20832	-1.04770
0.30171	-0.61406
0.42922	0.17668
0.76074	0.48277
0.93925	0.30422
0.27621	-0.05289
0.27621	0.66132
-0.82036	0.94191
-0.38683	0.76336
0.19971	0.43176
0.68424	-0.33348
0.53123	-1.12422
0.30171	-0.28246
0.14870	0.48277
0.40372	0.40625
0.42922	0.27871
0.19971	0.17668
-0.05531	0.63582
-0.08081	0.53379
-0.08081	1.12046
-0.08081	-0.25695
-0.59084	-0.84363
-0.74385	-0.41000
0.02119	-0.86914
0.17421	0.53379
-0.00431	-1.73640
0.40372	-0.10391
0.40372	2.95702
0.76074	3.03355
0.40372	0.35523
-0.25932	-1.73640
0.30171	-1.86394
0.93925	0.10015
1.44929	1.63062
0.53123	0.10015
-0.53984	-0.15492
-0.87136	0.32972
-0.59084	-0.84363
-0.18282	-0.92016
0.70974	0.61031
0.32721	1.86019
-0.64185	0.94191
-0.43783	-0.97117
-0.23382	-0.23145
1.57679	-0.69059
1.85731	0.63582
0.14870	1.47757
0.48022	0.35523
-1.25389	0.55929
-0.94787	0.55929
-0.05531	-2.11902
-1.15188	-2.62918
1.19427	-0.43551
1.67880	3.44167
1.27078	1.14597
0.40372	-0.05289
-0.15732	0.63582
-0.38683	-0.51203
-1.17738	-0.35899
0.19971	1.98773
1.50029	1.19699
0.12320	-1.76191
-0.97337	-1.07320
0.14870	-0.18043
-1.33039	0.58480
-3.29402	0.61031
-0.41233	1.50308
2.41835	-1.02219
2.41835	-3.67499
1.21977	1.04394
1.75531	3.26312
1.75531	4.69155
-2.01894	-1.63437
-1.96793	-3.93007
-1.25389	-2.22105
1.27078	1.29902
0.91375	4.25792
0.65874	0.10015
-0.66735	-1.43031
0.63323	-2.27207
0.32721	0.35523
-1.63641	-1.04770
-0.69285	1.83468
-0.05531	3.41616
0.96476	-0.53754
-0.02981	-1.35379
1.27078	-0.94566
1.04126	1.50308
1.14327	0.25320
0.09770	1.17148
-0.23382	-0.12942
3.54042	-3.08831
-1.76392	-1.88945
-3.09000	2.57441
-1.84042	3.11007
-1.40690	-1.78742
1.21977	-1.76191
0.60773	-0.71609
2.41835	3.90081
-0.02981	0.78886
-0.08081	0.55929
1.14327	-3.21585
1.62780	2.21730
1.34728	-1.04770
1.62780	-0.38449
1.11776	0.73785
-2.19745	2.49788
-4.33958	-1.17523
-0.82036	-2.04250
-4.11007	1.70714
1.62780	1.29902
1.83181	-0.66508
-0.23382	2.44687
1.62780	0.66132
-0.48884	-3.21585
0.17421	-1.30277
2.57136	3.72225
2.08683	0.61031
2.85188	2.14077
2.64786	-0.58856
-5.51266	-0.30797
-0.89686	0.58480
0.73524	-4.00659
0.35272	-4.18515
-0.99887	-2.19554
-3.54903	0.50828
0.63323	1.96222
1.80631	5.38026
3.36191	2.47238
1.70430	1.75816
-1.84042	-1.22625
-0.61635	0.89089
-2.35046	-2.29757
-0.28482	-1.88945
1.57679	-0.48652
1.04126	0.58480
1.70430	0.12566
-0.02981	-0.53754
0.40372	0.99292
-0.64185	3.97733
0.78624	0.17668
0.70974	-0.28246
-0.76936	-2.96078
-4.46709	-3.11382
2.97938	-0.05289
-1.96793	0.30422
-3.95706	1.42656
1.70430	1.17148
3.36191	2.59991
1.90832	1.04394
2.39285	-1.35379
1.55129	-4.38921
-1.17738	-0.30797
1.65330	4.84460
-3.37052	1.40105
1.09226	-0.10391
0.99026	-1.68539
-0.61635	2.26831
-0.56534	0.53379
-0.46334	0.48277
-0.87136	-0.66508
-1.07538	-2.70570
-0.61635	-0.81812
0.50573	-1.81293
2.21434	-0.97117
-0.41233	1.83468
-0.87136	3.84979
-0.23382	-1.40480
3.31091	0.68683
0.86275	0.07465
-1.40690	2.62542
-2.06994	0.45726
-0.48884	0.68683
2.49485	0.66132
-0.43783	1.47757
1.16877	0.15117
2.21434	0.15117
1.32178	-3.11382
-1.22839	-2.17003
-0.74385	-1.27726
0.48022	0.73785
-3.09000	2.75296
-1.04987	0.32972
-1.35589	-0.94566
-0.38683	-0.86914
1.04126	1.17148
1.72980	3.11007
3.15790	0.76336
0.91375	-0.74160
-2.42696	-0.38449
-1.71292	0.94191
0.73524	0.61031
3.56592	-4.15964
0.60773	-4.33819
-0.25932	1.57960
-1.27939	0.15117
-1.53441	2.26831
0.22521	2.44687
1.42379	0.43176
1.21977	1.50308
-0.82036	0.94191
-1.20288	3.87530
-0.00431	-3.21585
1.95932	-5.46054
1.16877	-1.43031
0.83725	0.96742
-0.23382	0.89089
-2.01894	2.67644
-1.07538	2.31933
-6.48172	0.81437
3.79544	-1.04770
2.18883	0.58480
0.50573	1.88570
2.77537	0.91640
1.19427	-0.12942
-1.71292	-2.19554
3.25990	-5.07792
-2.04444	-3.36890
-0.53984	1.27351
-1.50890	4.25792
0.19971	0.76336
1.24527	1.47757
2.11233	1.09496
-1.20288	0.12566
1.01576	-0.02739
1.11776	-0.00188
-1.15188	-0.99668
-2.32496	2.29382
-0.25932	-0.48652
1.04126	-3.16484
-2.68198	-1.63437
-1.68742	1.47757
1.75531	1.65613
1.80631	3.41616
2.52035	-1.07320
0.40372	1.27351
-2.88599	-0.35899
-0.92237	-4.15964
1.72980	-0.00188
2.44385	2.95702
1.27078	1.57960
0.58223	0.66132
0.25071	-1.68539
0.35272	-1.68539
-1.45790	0.35523
-1.22839	-0.07840
-0.64185	0.27871
0.40372	2.21730
-0.43783	2.59991
-3.70204	1.75816
1.04126	-3.13933
3.10689	-3.93007
2.92838	-0.61406
2.95388	2.11527
-0.18282	3.28862
-9.46541	1.17148
0.27621	-2.09351
2.69887	-0.99668
2.95388	1.42656
0.63323	1.88570
1.29628	0.61031
2.34184	-2.80773
0.42922	-1.88945
-1.07538	0.15117
-1.22839	2.08976
-0.71835	1.37554
-3.14101	-0.10391
-2.63097	1.88570
0.12320	0.43176
2.34184	1.01843
3.92294	-1.30277
1.29628	-2.42511
-1.20288	-1.88945
-0.79486	1.42656
0.99026	1.60511
1.04126	2.77847
-2.86049	-1.07320
0.37822	-1.25176
1.11776	0.58480
0.42922	1.55410
2.03582	0.07465
-0.94787	0.94191
-1.55991	-0.66508
-2.12094	0.48277
0.81175	-0.41000
1.57679	-0.25695
-0.00431	-0.23145
2.67337	0.81437
2.46935	-0.86914
0.60773	-1.09871
-12.55111	0.12566
1.39828	2.98253
2.16333	2.93151
1.67880	1.40105
1.11776	-3.70050
3.00489	-3.90456
0.04670	0.89089
2.82638	0.48277
0.19971	1.78367
-0.18282	1.52859
-0.94787	2.37034
-0.18282	-0.35899
-1.55991	-3.01179
-0.00431	-1.37929
-3.06450	0.99292
-0.53984	0.94191
-1.30489	2.14077
0.35272	-1.07320
1.32178	-3.16484
3.28540	1.04394
1.67880	2.24281
0.14870	0.55929
2.11233	-0.10391
-0.10631	0.58480
-0.38683	-1.27726
0.04670	0.43176
-0.71835	-0.15492
0.55673	0.66132
-0.18282	1.14597
-1.07538	0.25320
0.60773	0.12566
0.17421	-2.11902
-0.56534	-0.89465
2.36734	-2.47613
-2.50347	1.04394
-6.30321	0.58480
-0.92237	2.44687
3.23440	0.99292
1.42379	1.17148
2.87738	-1.63437
2.80087	0.45726
2.06133	0.53379
0.63323	-0.35899
1.27078	0.25320
-0.02981	0.30422
-1.50890	-0.86914
-3.06450	2.44687
-4.16107	-2.78222
1.34728	-2.50164
1.83181	-0.18043
3.59142	1.35003
0.25071	1.80917
-5.10463	1.09496
1.62780	1.29902
0.09770	1.27351
-3.09000	1.19699
1.32178	-0.12942
2.52035	-1.22625
1.78081	-1.04770
0.76074	-0.05289
2.36734	2.42136
1.80631	1.32453
-1.71292	-3.98109
-0.59084	-3.52195
-1.30489	-2.90976
-1.55991	2.70194
1.14327	3.51819
0.73524	3.21210
0.81175	1.40105
0.73524	1.35003
2.06133	0.07465
-0.51434	-2.52714
-3.44703	-1.25176
-4.21208	0.35523
-1.50890	-1.07320
2.46935	-0.84363
2.74987	0.35523
1.85731	1.37554
1.98482	2.82948
0.70974	0.22769
0.17421	-3.36890
0.93925	-1.17523
0.63323	-0.89465
-1.50890	1.06945
-2.14644	2.49788
2.06133	2.62542
-0.10631	-0.92016
-1.27939	-1.50683
-1.73842	2.26831
0.86275	0.04914
-0.82036	-1.58336
-0.89686	-1.09871
-0.43783	2.42136
-2.09544	1.04394
2.90288	-0.84363
4.61149	-0.99668
2.26534	0.86539
-0.74385	2.01323
-2.83499	-0.46102
0.32721	-1.35379
1.37278	-0.23145
2.92838	0.94191
-0.56534	0.04914
-0.99887	0.43176
1.27078	1.73265
-0.41233	-1.07320
-1.25389	-2.85874
-0.97337	-1.86394
-2.09544	2.11527
1.24527	2.29382
0.32721	0.17668
-0.71835	-0.35899
-0.61635	0.15117
1.39828	1.29902
1.44929	-0.94566
0.63323	-1.25176
0.68424	-1.27726
-1.25389	1.60511
-1.71292	2.98253
-0.25932	2.39585
1.85731	-2.14453
1.34728	-2.60367
-0.51434	-1.45582
0.27621	1.09496
1.24527	1.55410
2.01032	0.78886
-4.16107	1.14597
-0.13181	1.98773
3.10689	0.53379
-0.92237	-1.30277
0.22521	-1.71090
0.68424	-0.86914
-1.22839	-0.56305
-1.25389	1.70714
2.01032	0.50828
0.96476	0.20219
0.19971	-1.88945
1.37278	2.14077
-1.71292	-0.07840
0.14870	-0.43551
-2.75848	0.86539
1.16877	0.86539
1.06676	-0.30797
0.14870	-0.79262
-1.43240	-0.25695
1.34728	0.73785
1.37278	1.65613
1.42379	1.06945
0.68424	-1.20074
-0.00431	-1.17523
-0.23382	1.68163
-1.20288	0.10015
-0.20832	-0.79262
-1.45790	-1.04770
1.01576	0.94191
0.30171	1.01843
0.14870	-0.63957
-0.51434	-0.07840
0.07220	1.17148
1.37278	0.35523
0.93925	-0.43551
-0.10631	0.27871
-2.06994	0.71234
0.37822	0.12566
1.85731	-0.79262
1.16877	-0.35899
0.19971	-0.07840
-1.45790	0.61031
2.06133	0.53379
-0.23382	1.93671
0.53123	0.63582
1.55129	-1.83844
-5.33415	-2.90976
-4.18658	0.89089
0.70974	1.88570
1.16877	1.50308
3.59142	0.66132
2.16333	-1.58336
3.48942	-0.41000
1.44929	-0.46102
-4.05907	-0.69059
-0.82036	-1.43031
-0.28482	1.50308
0.48022	2.85499
0.83725	1.32453
0.73524	1.93671
-0.05531	-1.27726
-1.86593	-5.12893
-1.15188	-0.25695
0.81175	1.52859
0.14870	0.96742
1.57679	0.63582
-0.48884	1.63062
0.81175	2.16628
1.80631	-2.19554
-0.64185	-1.27726
1.09226	0.22769
-1.86593	-0.05289
-2.60547	0.96742
-1.30489	-0.38449
0.35272	-2.39961
1.37278	-0.66508
2.74987	2.75296
1.16877	1.17148
1.72980	1.37554
-0.15732	-1.02219
0.42922	0.66132
-2.14644	0.78886
2.26534	0.32972
1.95932	-0.05289
-2.22295	0.40625
-7.83331	1.17148
1.50029	-1.17523
0.99026	-4.49124
3.28540	-1.81293
2.06133	1.93671
-0.82036	1.04394
-1.38139	1.22250
2.52035	1.78367
0.68424	2.34484
0.53123	-2.42511
-1.84042	0.25320
-0.13181	0.04914
1.14327	0.35523
0.81175	-1.35379
-1.89143	0.17668
-0.84586	0.99292
0.83725	0.30422
0.68424	-0.12942
0.93925	0.63582
0.63323	-0.56305
1.67880	1.52859
-2.17195	0.58480
-0.92237	-1.48133
0.53123	0.27871
0.91375	-0.61406
0.70974	-0.89465
0.42922	1.52859
0.02119	1.57960
1.78081	-0.81812
0.68424	-1.78742
-2.50347	0.32972
-4.33958	0.76336
0.09770	1.12046
2.08683	1.93671
-0.10631	1.68163
1.78081	-2.29757
1.52579	-3.98109
1.11776	0.99292
0.07220	1.86019
-0.25932	0.43176
1.09226	0.27871
-0.89686	1.37554
1.52579	0.86539
0.76074	-0.61406
-3.09000	-0.15492
-8.21583	-0.00188
2.62236	0.02363
4.40748	0.43176
1.29628	0.04914
0.73524	-1.09871
-1.20288	-1.99148
-0.79486	0.53379
1.11776	1.14597
0.88825	-0.35899
0.86275	0.86539
0.83725	0.61031
0.37822	-0.02739
-0.33583	1.63062
-0.08081	1.63062
-2.68198	0.81437
0.78624	-2.24656
0.63323	-2.37410
0.83725	0.43176
1.72980	0.83988
-1.43240	0.22769
-0.28482	0.58480
0.37822	1.75816
1.21977	0.15117
-1.27939	0.25320
1.60230	-0.56305
0.32721	-1.45582
-0.13181	-0.12942
-3.72755	0.76336
1.47479	0.17668
3.43841	0.15117
0.53123	1.19699
2.44385	0.58480
1.52579	0.02363
-3.60004	-1.04770
0.48022	1.06945
-0.79486	-0.92016
0.32721	-2.39961
0.91375	0.81437
1.98482	1.27351
0.86275	0.96742
-4.21208	0.38074
-2.86049	2.21730
0.63323	0.63582
-0.38683	-2.06800
2.13783	-4.03210
1.52579	0.66132
0.19971	2.08976
-0.25932	1.04394
1.21977	1.47757
1.88281	1.63062
-1.25389	0.07465
0.70974	-0.86914
0.99026	-1.37929
0.53123	-0.86914
-0.18282	-1.50683
-2.35046	0.32972
-0.74385	0.71234
-1.15188	1.57960
0.53123	1.17148
2.06133	-0.56305
0.22521	-0.30797
-0.66735	0.53379
0.25071	-0.94566
0.88825	0.66132
2.11233	0.96742
-0.36133	-0.51203
-3.24301	1.01843
1.50029	0.43176
-0.20832	-0.69059
0.73524	-2.09351
0.45472	1.57960
0.19971	1.91120
1.52579	0.96742
-0.18282	-2.85874
0.83725	-4.64429
-0.76936	0.53379
0.70974	2.44687
-0.48884	2.26831
1.21977	2.08976
0.81175	1.60511
0.07220	0.27871
1.65330	-1.14973
-1.12638	-1.12422
-6.02269	-0.30797
-0.76936	0.43176
1.62780	-0.20594
3.31091	1.24800
2.82638	0.07465
-2.24845	-0.66508
-1.43240	-0.33348
1.83181	1.04394
2.31634	-0.58856
-0.53984	0.71234
-0.00431	0.22769
-0.02981	0.76336
-2.37596	-0.18043
0.25071	0.10015
0.53123	1.04394
2.11233	-0.15492
0.32721	0.30422
-1.68742	1.37554
0.58223	-1.04770
1.29628	-2.06800
0.73524	-0.25695
-0.00431	1.12046
-1.61091	0.68683
1.37278	1.12046
-0.92237	0.15117
-0.31033	0.91640
1.62780	0.76336
-1.10088	-0.51203
1.52579	-3.26687
-1.38139	-0.89465
-0.31033	1.65613
-0.10631	1.12046
2.67337	0.86539
-0.23382	1.32453
1.57679	0.20219
1.11776	-0.76711
-1.91693	-0.79262
-0.51434	0.43176
0.99026	1.09496
-0.99887	1.47757
0.27621	-0.35899
-3.47253	-0.33348
-0.43783	0.81437
2.01032	-1.32828
2.87738	-1.32828
0.22521	-0.69059
0.09770	1.29902
-1.58541	0.35523
0.70974	-0.20594
2.06133	-0.99668
1.42379	1.78367
-1.25389	2.39585
-2.32496	-0.61406
-2.04444	0.12566
1.39828	0.50828
2.13783	-1.86394
-0.99887	-1.22625
-0.61635	1.37554
0.04670	2.26831
0.40372	-1.07320
3.05589	-2.73121
0.30171	-0.43551
0.17421	1.17148
0.45472	1.78367
0.27621	2.70194
-1.99343	0.68683
-1.61091	-0.12942
-0.82036	-2.09351
2.62236	-2.14453
0.12320	2.03874
0.81175	1.60511
0.53123	-1.58336
0.50573	-0.56305
0.63323	-0.69059
0.32721	0.66132
1.01576	1.80917
1.04126	0.32972
-4.69661	-0.02739
0.17421	-0.56305
0.55673	0.30422
0.76074	-0.23145
-2.22295	0.96742
0.63323	0.76336
2.92838	0.38074
1.06676	-0.00188
-1.30489	-1.83844
-1.43240	-1.71090
0.68424	1.14597
-0.02981	1.37554
1.04126	0.17668
1.37278	0.38074
-0.43783	0.27871
-0.87136	2.08976
0.58223	1.06945
1.01576	-1.12422
0.09770	-1.45582
-1.38139	-0.74160
0.86275	-1.17523
1.21977	0.63582
-0.61635	1.86019
-2.17195	0.30422
-0.41233	0.25320
2.13783	-0.05289
0.17421	-0.05289
1.62780	0.30422
1.65330	-0.00188
1.21977	0.55929
-9.43991	-1.94047
1.29628	-0.02739
4.15246	0.83988
2.23984	2.52339
0.12320	0.27871
1.06676	-0.61406
1.62780	-0.10391
-1.27939	0.76336
-4.64560	0.83988
-0.84586	-0.48652
2.26534	-0.12942
2.03582	0.94191
1.04126	-0.12942
-0.89686	-1.91496
0.40372	-1.60887
-0.56534	-0.00188
0.17421	0.66132
0.55673	1.40105
1.11776	0.58480
-0.43783	1.06945
-0.53984	0.76336
0.53123	0.91640
0.27621	0.45726
0.12320	-0.92016
-0.10631	-0.71609
-4.00806	0.12566
2.06133	1.55410
1.16877	0.20219
-0.74385	-2.27207
-0.64185	-3.16484
1.93382	0.99292
1.16877	1.52859
-2.27395	2.21730
-1.07538	1.50308
2.46935	0.58480
1.62780	0.50828
1.16877	0.48277
1.34728	-0.05289
-2.27395	-1.04770
-1.45790	0.02363
0.50573	-0.25695
-0.08081	-2.70570
-0.15732	-1.50683
2.44385	0.71234
-0.97337	1.42656
-1.04987	0.86539
0.42922	2.82948
-0.79486	-1.17523
-0.74385	-1.71090
1.78081	-0.66508
-0.31033	1.98773
0.60773	2.19179
-0.84586	1.14597
0.55673	-0.38449
2.97938	-0.76711
1.55129	0.78886
-0.94787	-0.41000
0.14870	-0.74160
-0.94787	-0.51203
-1.53441	-0.71609
1.01576	-4.08312
0.02119	1.22250
-0.48884	1.98773
0.63323	1.88570
-0.74385	2.03874
0.50573	1.40105
-2.17195	-0.05289
0.55673	-0.48652
0.19971	-4.13413
-0.79486	-1.68539
2.52035	-0.15492
2.16333	2.39585
0.65874	1.55410
0.32721	0.66132
-1.45790	1.88570
-2.22295	-0.15492
0.45472	-0.74160
0.42922	-0.10391
1.16877	0.40625
1.37278	-0.05289
0.37822	-0.05289
0.86275	-0.20594
0.50573	-1.09871
-0.94787	-0.30797
-1.96793	-0.41000
-1.22839	-1.99148
-1.84042	1.24800
1.90832	2.24281
0.58223	1.19699
-0.25932	-0.25695
-0.48884	-0.61406
1.50029	0.61031
3.71893	1.80917
2.21434	0.10015
0.50573	-0.35899
0.53123	0.27871
0.22521	-0.20594
-4.79861	-0.30797
-0.02981	-1.45582
0.09770	-2.42511
-1.66191	1.24800
0.96476	0.30422
1.34728	0.10015
-0.31033	1.04394
0.45472	0.50828
0.45472	0.91640
0.63323	0.43176
0.30171	1.17148
0.12320	0.73785
0.02119	1.01843
0.63323	0.96742
0.32721	-1.58336
-0.38683	-2.22105
-0.61635	-2.32308
-0.28482	-0.30797
0.68424	0.58480
-0.13181	1.70714
-1.07538	1.47757
1.37278	0.20219
0.86275	1.35003
2.59686	0.83988
-0.87136	0.48277
-4.92612	-1.96597
-1.73842	-1.37929
-0.66735	-0.15492
3.66793	1.57960
3.48942	1.27351
1.70430	-0.07840
1.01576	-0.18043
-0.43783	0.55929
1.24527	0.40625
-1.25389	-0.46102
-1.61091	0.15117
-0.20832	-0.35899
-1.50890	0.38074
1.16877	0.20219
-0.89686	-0.25695
-2.86049	-0.61406
1.88281	0.53379
2.77537	0.71234
-0.08081	1.78367
2.13783	-0.18043
0.63323	-0.41000
0.37822	-1.04770
0.42922	-1.17523
-1.15188	-0.00188
-0.74385	2.14077
-0.38683	0.94191
-0.31033	-0.28246
-0.10631	-0.20594
0.35272	-0.53754
0.78624	-0.81812
0.70974	2.03874
0.22521	1.42656
-0.02981	0.91640
-0.00431	-0.05289
0.07220	-0.53754
0.37822	-1.88945
1.06676	-0.38449
0.40372	0.30422
-0.79486	0.35523
0.25071	0.40625
2.44385	1.19699
1.14327	1.83468
-5.02813	-2.32308
-3.54903	-2.37410
2.62236	-0.51203
0.40372	1.12046
2.21434	0.91640
-0.38683	1.96222
2.74987	0.50828
1.09226	0.50828
-0.76936	-0.12942
1.88281	0.30422
3.13239	0.30422
3.54042	0.30422
-5.07913	-0.58856
-7.62929	-0.58856
0.88825	-0.30797
3.08139	0.25320
1.50029	0.02363
0.37822	1.17148
1.04126	2.37034
-1.63641	-0.15492
-0.76936	-1.32828
0.70974	-2.19554
0.09770	-0.63957
-0.00431	1.88570
0.78624	2.06425
0.70974	-1.20074
0.42922	-1.68539
0.42922	0.38074
0.27621	1.86019
0.02119	1.70714
-0.00431	1.57960
0.17421	-2.50164
0.53123	-0.81812
-1.45790	0.99292
-0.02981	0.25320
0.53123	1.73265
0.99026	-0.38449
0.63323	-1.65988
-0.71835	-1.60887
-2.60547	1.45206
-0.74385	0.99292
1.34728	0.91640
-0.00431	-0.12942
3.79544	0.43176
2.01032	0.89089
2.06133	-1.04770
0.93925	-1.88945
-2.63097	0.25320
0.48022	1.19699
-0.89686	0.91640
-1.78942	0.32972
-0.99887	0.81437
2.08683	-0.86914
-2.75848	-0.51203
0.55673	-0.94566
1.57679	0.30422
0.70974	1.91120
1.55129	-0.02739
0.68424	1.78367
0.96476	-0.48652
-0.00431	-0.86914
-1.63641	-3.13933
-1.30489	-0.00188
0.83725	0.45726
0.32721	2.37034
0.09770	2.19179
0.83725	3.90081
0.27621	-0.30797
0.14870	-3.01179
-0.02981	-0.99668
-0.05531	2.49788
0.02119	0.17668
-0.08081	-1.53234
0.32721	-1.53234
0.73524	0.04914
0.73524	2.59991
0.93925	0.58480
0.83725	-0.97117
-5.18114	0.45726
0.19971	-0.05289
-1.89143	-0.18043
0.55673	-0.81812
2.11233	0.07465
5.42754	0.45726
4.33097	1.57960
-1.35589	0.20219
-1.94243	-0.07840
-2.37596	-0.99668
0.73524	0.12566
1.90832	0.50828
-0.43783	0.22769
-0.79486	0.04914
0.30171	0.02363
-2.83499	-0.05289
-0.38683	-0.07840
0.63323	0.45726
1.21977	0.22769
0.45472	0.96742
-1.27939	0.22769
-1.12638	0.32972
0.22521	-0.66508
0.68424	-1.63437
0.19971	2.52339
0.63323	0.22769
1.42379	-1.35379
1.57679	-1.07320
1.19427	0.50828
-0.69285	0.40625
-0.59084	1.19699
0.37822	3.82429
-1.04987	-1.04770
0.09770	-3.34339
0.07220	-1.68539
-0.43783	1.91120
0.42922	2.49788
0.60773	2.01323
1.34728	1.52859
1.95932	0.78886
-3.34502	-0.84363
-1.25389	-1.50683
-2.04444	-0.10391
-0.00431	1.96222
2.03582	-1.60887
2.06133	-5.12893
0.55673	-3.67499
0.63323	1.60511
1.83181	2.44687
1.50029	0.61031
-0.51434	1.40105
-3.44703	1.93671
-0.13181	1.17148
-1.63641	0.76336
0.48022	0.12566
1.67880	0.25320
1.34728	-0.05289
-1.07538	-0.33348
2.01032	-1.96597
1.80631	-1.12422
-0.08081	-0.35899
2.08683	1.37554
-2.73298	1.14597
-3.47253	-0.92016
0.81175	-0.00188
-1.30489	0.63582
-0.41233	-0.10391
1.24527	0.91640
0.73524	1.35003
1.95932	-0.00188
1.88281	-0.20594
1.04126	0.25320
0.76074	1.73265
0.07220	-0.92016
-2.52897	-1.22625
0.32721	-0.86914
-0.02981	-0.07840
-0.94787	-0.89465
0.17421	0.86539
0.99026	1.73265
0.50573	2.06425
0.50573	0.50828
0.22521	-0.63957
-0.08081	-1.45582
-1.22839	-0.20594
0.73524	0.43176
-0.69285	0.76336
-0.51434	0.02363
0.50573	-0.92016
0.83725	-0.76711
1.14327	-0.12942
1.14327	1.42656
0.63323	0.96742
-0.99887	0.66132
-1.66191	0.58480
0.17421	0.66132
2.26534	-0.23145
1.55129	-0.71609
-0.33583	0.53379
-3.37052	0.17668
-4.90062	-0.10391
1.90832	-2.19554
2.21434	-0.99668
2.39285	-0.25695
0.81175	1.68163
0.78624	1.06945
3.05589	1.73265
-0.92237	0.73785
-1.78942	-0.74160
-1.22839	-2.88425
-1.15188	0.50828
0.42922	1.37554
-0.00431	1.42656
0.22521	1.96222
0.30171	-0.69059
0.09770	-2.22105
0.04670	-1.43031
-0.18282	1.83468
0.27621	0.45726
0.76074	0.38074
0.42922	-0.05289
0.88825	-0.35899
0.07220	0.73785
-1.12638	0.68683
-0.08081	2.11527
0.53123	-0.23145
2.01032	-2.27207
-2.06994	-2.39961
0.93925	0.50828
-0.38683	1.68163
2.29084	0.68683
0.37822	0.73785
-2.78398	1.35003
-3.29402	0.43176
2.06133	-0.66508
2.82638	-1.63437
0.32721	0.71234
1.95932	-0.81812
0.35272	0.55929
-1.02437	0.48277
-0.38683	0.76336
-0.92237	0.96742
-0.00431	0.89089
0.22521	-0.41000
-0.48884	-0.43551
-2.12094	0.07465
1.80631	0.45726
-0.05531	0.04914
-0.82036	-0.79262
-1.30489	0.27871
1.14327	2.39585
2.06133	-0.63957
1.78081	-1.04770
0.63323	-1.91496
0.30171	1.63062
0.30171	1.57960
0.17421	0.20219
0.07220	1.06945
-1.33039	0.83988
-0.84586	-0.81812
-0.28482	-1.25176
0.32721	-0.51203
0.17421	1.29902
0.78624	0.45726
0.81175	-0.41000
-1.30489	0.91640
0.65874	0.96742
0.63323	-0.25695
-2.40146	-0.66508
2.49485	1.75816
-1.40690	-1.07320
-1.96793	-1.99148
2.11233	-1.65988
2.69887	1.14597
-1.76392	1.57960
0.42922	1.96222
1.29628	1.01843
1.78081	0.55929
1.09226	0.91640
-0.13181	-0.66508
-1.63641	-1.35379
-2.57997	-1.14973
1.21977	0.27871
-0.64185	-0.00188
-0.28482	0.63582
0.88825	0.89089
-1.53441	-0.10391
1.70430	-0.12942
1.14327	-0.15492
0.76074	1.32453
1.32178	0.83988
1.65330	0.25320
-2.98800	-0.56305
-3.09000	-3.29238
-0.41233	-0.74160
1.88281	1.09496
2.16333	2.37034
0.88825	0.76336
0.73524	0.27871
0.55673	0.55929
-0.00431	1.75816
-0.36133	1.01843
-0.66735	-1.60887
-0.53984	-4.18515
-1.20288	-0.51203
-0.92237	0.66132
0.17421	1.47757
1.04126	2.57441
1.39828	0.86539
1.55129	0.96742
1.70430	-1.43031
-4.54360	-2.68019
-0.25932	-0.71609
-0.28482	1.27351
0.76074	1.12046
2.72437	0.86539
1.19427	1.65613
-3.62554	-0.53754
1.29628	-0.94566
2.23984	-1.07320
1.55129	0.15117
-1.58541	0.10015
0.93925	0.55929
1.29628	1.29902
-3.49803	0.20219
-0.79486	0.38074
-1.91693	0.30422
2.06133	-0.07840
1.65330	-0.12942
1.09226	-0.25695
-0.84586	-0.28246
0.14870	0.20219
0.45472	0.38074
-0.00431	0.27871
-0.18282	1.47757
-0.13181	-0.89465
0.27621	-1.99148
0.02119	-1.78742
0.81175	1.57960
-0.20832	1.17148
-0.92237	1.52859
0.27621	2.19179
-1.22839	1.42656
0.53123	-0.10391
1.83181	-1.58336
1.80631	0.35523
1.47479	-0.43551
1.24527	-0.76711
-5.30865	-2.06800
-0.82036	-1.81293
0.17421	0.58480
-0.46334	1.50308
2.59686	1.19699
2.16333	1.57960
0.60773	0.50828
1.47479	-0.25695
-0.15732	0.15117
0.02119	0.38074
-0.53984	0.17668
-5.94619	-0.30797
1.14327	-0.84363
0.48022	0.50828
-0.41233	0.81437
-1.86593	-0.66508
1.83181	-0.53754
2.08683	0.63582
0.78624	-0.81812
1.27078	-1.20074
1.62780	0.63582
0.19971	1.55410
-0.31033	0.91640
-1.12638	0.86539
-0.69285	-0.05289
-0.13181	-0.38449
-0.43783	0.35523
0.81175	1.27351
-0.18282	-1.63437
-1.12638	-2.37410
-2.24845	0.53379
1.50029	2.62542
2.36734	1.75816
0.76074	0.96742
1.24527	-0.86914
0.35272	-0.30797
-1.48340	0.02363
0.09770	-0.18043
0.37822	2.65093
1.19427	-1.53234
0.30171	-3.72601
-0.53984	-1.07320
0.76074	1.78367
0.73524	1.45206
0.07220	1.80917
-0.74385	1.27351
0.68424	-0.25695
-0.18282	-1.48133
-0.94787	0.86539
0.78624	-0.46102
1.24527	-0.00188
-2.60547	0.07465
0.76074	1.47757
1.21977	0.20219
0.81175	-0.07840
-0.53984	-2.96078
-0.10631	0.38074
-0.56534	0.89089
0.50573	1.75816
1.16877	0.78886
-0.89686	0.53379
-0.92237	-0.69059
0.25071	0.04914
0.70974	1.32453
1.50029	1.60511
1.14327	-1.25176
-0.20832	-3.82804
0.58223	-3.08831
-0.66735	1.68163
0.35272	2.24281
0.83725	2.39585
-1.25389	1.32453
-0.33583	-0.58856
0.45472	-0.28246
1.01576	-0.51203
0.81175	-0.15492
-1.81492	0.32972
-0.25932	1.17148
1.32178	1.68163
0.48022	-0.46102
-0.59084	-2.60367
0.99026	-2.29757
1.57679	-0.15492
-3.72755	1.75816
-1.15188	1.78367
1.24527	2.65093
0.83725	-0.25695
1.16877	-4.36370
0.04670	-1.73640
1.44929	1.27351
1.72980	1.86019
0.68424	1.63062
-0.13181	1.52859
0.78624	0.48277
-0.46334	1.17148
-0.71835	0.76336
0.14870	-1.32828
-1.86593	-2.70570
0.91375	-0.07840
-1.30489	0.38074
-2.12094	0.76336
1.34728	0.96742
0.32721	0.22769
0.65874	-1.20074
2.11233	-0.07840
-0.33583	-0.00188
0.63323	0.55929
0.40372	0.96742
-0.87136	0.02363
1.93382	0.27871
1.70430	0.04914
0.53123	0.10015
-0.13181	-0.86914
-2.01894	-0.33348
-0.33583	0.73785
-0.82036	1.06945
-0.46334	-0.46102
0.25071	0.68683
1.21977	0.76336
1.32178	1.73265
0.78624	-0.38449
-0.76936	-0.81812
-4.13557	-2.29757
-0.97337	1.17148
2.92838	0.91640
2.59686	-0.35899
-0.33583	-0.20594
-0.28482	0.27871
-1.07538	0.45726
1.34728	0.66132
1.55129	1.04394
1.06676	0.25320
1.04126	-0.02739
0.37822	0.53379
-0.15732	0.83988
-0.51434	-0.71609
-1.20288	-2.01699
-2.83499	-2.39961
-1.53441	0.20219
0.22521	0.32972
1.21977	1.65613
-0.15732	2.08976
2.69887	1.17148
1.50029	0.10015
1.29628	0.83988
-1.61091	0.96742
-0.28482	0.07465
0.73524	-1.60887
-0.08081	-0.89465
0.17421	0.20219
0.88825	2.01323
-0.18282	1.04394
0.25071	-1.58336
-0.48884	-3.52195
-0.74385	-0.97117
0.55673	2.03874
0.45472	1.86019
1.21977	1.45206
0.93925	1.52859
-0.59084	-0.15492
-4.84962	0.12566
-0.25932	0.32972
3.48942	-0.69059
0.37822	-1.91496
1.80631	-0.84363
1.24527	0.94191
0.53123	1.09496
-3.42153	1.04394
1.78081	0.99292
0.48022	0.71234
-0.82036	0.20219
0.37822	0.20219
-3.01350	0.96742
1.04126	-0.38449
1.90832	-1.07320
2.72437	-2.32308
-3.39602	-0.05289
1.16877	0.78886
0.42922	1.04394
0.45472	0.94191
-0.18282	0.58480
0.30171	-0.48652
-0.38683	-0.12942
0.07220	0.35523
0.19971	0.96742
-1.43240	0.30422
0.50573	0.15117
-0.20832	-1.25176
0.73524	0.50828
0.76074	0.76336
0.40372	0.40625
-0.64185	-0.30797
0.22521	0.48277
0.78624	1.17148
1.98482	0.61031
-0.08081	-1.02219
-1.66191	-2.50164
-1.99343	-0.30797
0.76074	2.70194
1.09226	1.06945
1.80631	-0.46102
0.48022	-0.66508
-0.87136	0.68683
0.48022	0.25320
1.60230	1.09496
1.60230	0.35523
-0.10631	0.71234
-5.00263	-0.81812
-0.69285	0.63582
1.57679	-0.05289
0.58223	0.15117
0.83725	0.83988
1.80631	0.12566
-0.61635	-0.81812
-2.47797	-1.71090
0.04670	-0.15492
0.76074	0.48277
1.60230	1.78367
1.47479	0.30422
1.57679	0.96742
-2.01894	0.04914
0.93925	-0.25695
-1.58541	1.14597
-2.29945	-0.38449
0.27621	-2.06800
0.27621	-1.48133
1.55129	0.61031
0.63323	1.47757
1.19427	0.35523
1.27078	1.01843
0.02119	1.37554
0.37822	0.91640
0.30171	1.06945
-1.40690	-1.09871
-3.88056	-1.50683
-1.15188	-0.58856
3.15790	1.27351
2.59686	1.35003
1.47479	0.04914
0.88825	-0.97117
-0.99887	0.53379
-3.34502	-0.41000
0.35272	0.20219
-1.07538	-0.25695
2.52035	0.86539
-1.38139	-0.15492
-0.64185	0.27871
0.78624	0.04914
2.29084	-0.20594
-0.08081	0.38074
2.44385	1.35003
2.87738	0.86539
0.30171	-0.84363
-4.39059	-0.97117
-1.61091	-0.69059
0.12320	0.50828
0.60773	0.58480
1.55129	1.01843
0.78624	0.81437
-2.78398	0.76336
-0.25932	0.07465
2.01032	-0.53754
2.29084	-0.46102
-1.04987	0.20219
-1.27939	0.15117
-0.74385	0.30422
0.27621	0.27871
-1.22839	-0.41000
0.02119	-0.58856
0.86275	0.20219
1.27078	0.76336
2.80087	0.25320
2.36734	0.55929
-1.99343	0.89089
-1.63641	-0.89465
0.14870	-0.97117
-1.71292	-0.51203
1.55129	0.68683
2.03582	2.26831
-2.01894	0.61031
0.32721	1.14597
0.63323	0.25320
1.14327	-0.74160
-0.31033	-1.99148
-0.15732	-0.43551
-2.04444	0.61031
-0.05531	0.22769
0.40372	0.15117
0.78624	1.52859
1.47479	0.66132
-1.81492	-0.25695
-0.15732	-0.33348
0.91375	-0.71609
0.86275	-0.81812
1.09226	-0.56305
0.91375	0.45726
-0.13181	0.55929
-0.33583	1.45206
-1.53441	1.47757
-1.71292	0.04914
0.65874	-0.53754
1.65330	0.38074
2.36734	-1.27726
-0.61635	-1.12422
-1.58541	1.75816
-0.33583	0.99292
-1.12638	0.38074
-2.68198	-0.20594
2.13783	0.35523
1.19427	-0.51203
2.18883	-0.48652
2.31634	0.55929
0.86275	0.63582
-0.79486	0.45726
-1.33039	0.07465
0.55673	-0.10391
0.55673	-0.84363
-0.46334	0.66132
0.22521	0.61031
-2.14644	-0.38449
0.37822	-2.70570
0.09770	-0.76711
0.58223	1.70714
0.96476	1.63062
1.29628	1.57960
-0.18282	1.06945
0.02119	0.53379
0.22521	1.27351
-0.31033	-0.41000
-0.15732	0.12566
0.37822	-0.89465
1.04126	-1.17523
-0.41233	-2.78222
0.07220	-1.58336
-1.22839	0.58480
-0.64185	2.01323
1.55129	1.75816
-0.79486	1.68163
0.99026	0.27871
0.58223	0.35523
1.50029	-0.46102
-0.64185	-0.10391
0.55673	0.25320
0.22521	-0.28246
0.09770	-0.66508
0.68424	0.04914
-0.25932	-0.94566
0.42922	0.22769
0.30171	0.02363
-0.28482	0.71234
-0.71835	1.32453
-1.61091	0.73785
-0.36133	0.35523
1.27078	0.04914
3.48942	0.30422
-0.59084	-0.28246
-3.31952	-0.84363
0.91375	-0.35899
0.88825	-0.35899
-0.76936	0.71234
0.50573	1.12046
1.85731	0.89089
0.86275	-0.74160
-0.92237	0.02363
0.65874	-0.10391
1.34728	1.45206
-0.18282	-1.91496
-0.76936	-1.71090
-1.45790	-0.30797
0.27621	1.27351
-0.59084	2.59991
0.73524	1.98773
1.39828	0.68683
-0.87136	1.68163
1.19427	1.09496
0.12320	-2.39961
2.13783	-4.18515
-4.72211	-0.97117
-2.80949	1.73265
0.73524	1.01843
2.21434	1.17148
3.82094	0.68683
2.77537	0.17668
-1.33039	-0.35899
-0.89686	-0.12942
0.96476	0.17668
0.35272	0.25320
-0.66735	0.20219
-1.25389	-0.86914
-1.04987	-0.76711
0.45472	1.65613
0.27621	0.61031
-0.18282	-0.33348
-0.28482	-1.12422
2.16333	0.86539
-0.13181	0.66132
-2.27395	0.38074
-0.79486	-0.20594
-0.46334	0.96742
1.27078	0.02363
2.21434	-1.45582
1.57679	-0.18043
1.44929	0.99292
0.81175	0.81437
-3.54903	0.20219
0.55673	0.12566
1.34728	-0.79262
-1.07538	0.76336
0.91375	0.48277
1.19427	-0.18043
0.63323	-0.92016
-3.06450	-0.41000
-1.53441	0.55929
0.99026	2.42136
2.01032	1.32453
1.24527	-0.15492
-0.00431	-1.81293
-0.08081	-1.78742
-2.42696	-0.43551
-0.64185	0.02363
0.78624	1.57960
0.50573	1.57960
1.85731	1.17148
0.12320	0.45726
-0.59084	-0.23145
-0.10631	-0.94566
1.29628	-0.05289
2.18883	0.48277
-0.13181	-1.02219
1.04126	0.94191
-3.80405	1.01843
-1.91693	-0.74160
-1.22839	-1.68539
1.67880	0.58480
2.16333	-0.30797
1.11776	0.40625
1.52579	0.73785
-0.31033	1.40105
0.48022	0.94191
0.40372	0.45726
-2.35046	-0.05289
0.17421	0.61031
2.29084	0.73785
1.44929	-0.02739
-1.30489	-2.90976
-2.60547	-0.61406
-1.25389	0.15117
-1.91693	0.96742
1.44929	1.04394
2.57136	0.89089
2.97938	0.76336
1.34728	0.04914
-2.19745	-1.43031
-1.50890	0.43176
1.78081	0.43176
0.83725	0.20219
-0.00431	-0.25695
-0.13181	1.37554
1.47479	0.73785
0.09770	-0.25695
-2.09544	-5.33300
-0.38683	-0.07840
0.45472	1.27351
-0.31033	1.78367
-1.35589	1.75816
1.29628	1.17148
0.73524	0.40625
2.06133	-0.66508
1.34728	-1.17523
-2.17195	-0.38449
0.02119	1.75816
0.53123	2.31933
-0.23382	1.75816
0.65874	-4.72081
0.48022	-2.45062
0.86275	-0.23145
-0.59084	0.35523
-1.07538	1.60511
-0.89686	1.50308
-0.59084	1.24800
2.36734	0.81437
1.29628	-0.05289
0.02119	0.35523
0.19971	-0.46102
0.19971	1.27351
-0.46334	-0.51203
-0.82036	-2.27207
0.19971	-3.31788
0.78624	1.93671
0.76074	1.98773
0.91375	1.29902
-2.42696	0.07465
0.45472	-0.43551
0.81175	0.30422
-3.60004	-0.05289
0.58223	0.10015
1.78081	0.27871
2.67337	1.50308
1.90832	0.63582
-0.25932	-0.30797
0.83725	-0.51203
-0.99887	-0.66508
0.40372	-0.43551
-0.05531	-0.69059
-0.08081	1.09496
2.06133	1.40105
-1.81492	-0.46102
-2.27395	-0.02739
-2.78398	0.04914
0.37822	0.55929
1.78081	0.53379
0.48022	0.10015
-0.46334	-0.20594
1.37278	-0.12942
1.57679	0.35523
0.35272	1.27351
0.70974	2.21730
0.65874	-2.42511
0.83725	-1.71090
-2.12094	-1.25176
-2.63097	1.32453
0.78624	1.50308
1.34728	1.06945
1.52579	2.08976
0.86275	1.29902
-0.08081	-1.88945
0.58223	-2.55265
-2.60547	-1.27726
0.04670	0.45726
1.52579	1.80917
-1.07538	0.81437
0.68424	0.45726
1.98482	0.04914
0.22521	0.30422
0.12320	0.38074
0.93925	0.07465
0.02119	-0.41000
-3.06450	-0.56305
-2.42696	-0.58856
0.32721	0.53379
1.65330	1.27351
3.51492	0.94191
2.18883	-0.66508
1.62780	-0.15492
-0.61635	0.99292
-0.66735	-0.74160
-0.99887	-0.71609
-0.59084	-0.15492
-0.66735	0.81437
-1.33039	-0.46102
-1.15188	0.78886
0.70974	1.91120
0.70974	1.14597
0.88825	0.10015
0.58223	-0.33348
0.07220	0.32972
-0.46334	-0.10391
-0.13181	-1.35379
0.93925	0.38074
1.70430	1.50308
0.68424	0.38074
-3.21751	-1.76191
1.21977	-1.07320
1.29628	0.96742
-2.80949	1.27351
0.81175	0.27871
0.78624	-0.15492
1.55129	0.63582
0.78624	1.42656
0.81175	-0.66508
-0.79486	-1.86394
-1.81492	-1.43031
-0.00431	0.43176
-0.10631	1.27351
0.78624	1.29902
-0.59084	0.83988
1.93382	0.35523
0.40372	0.07465
0.81175	0.20219
-5.02813	0.27871
-2.19745	-1.04770
2.59686	0.43176
0.68424	-1.20074
-0.56534	0.66132
1.39828	0.99292
2.18883	1.01843
1.24527	-0.10391
1.34728	-0.94566
-0.61635	-0.69059
-0.94787	1.68163
0.12320	1.04394
0.09770	0.58480
0.09770	-0.23145
-0.02981	-1.40480
-0.28482	-1.12422
-0.48884	0.45726
-0.76936	0.63582
-0.28482	0.30422
0.12320	1.06945
0.48022	1.04394
0.93925	-0.05289
0.22521	-0.18043
0.02119	0.43176
0.22521	-0.18043
0.48022	-1.09871
0.40372	-0.94566
-0.15732	0.04914
1.14327	1.27351
0.09770	1.06945
0.25071	0.89089
0.93925	0.73785
-1.17738	-0.15492
-3.24301	0.71234
0.76074	0.17668
-2.80949	-1.32828
2.13783	-2.27207
1.42379	-1.60887
1.83181	0.27871
3.56592	1.12046
1.50029	0.45726
2.06133	0.53379
0.25071	1.96222
-2.57997	0.91640
-6.86425	-0.33348
-0.84586	-0.48652
1.52579	0.43176
-2.06994	-0.20594
1.75531	0.48277
1.37278	-0.05289
1.24527	-0.51203
1.39828	-0.05289
0.78624	1.75816
0.02119	-0.15492
-0.02981	-1.55785
-0.41233	-1.58336
-0.89686	1.29902
-0.13181	1.14597
-0.02981	-0.15492
-0.02981	-0.00188
0.93925	0.83988
0.76074	0.40625
-0.71835	-1.40480
-0.48884	-1.04770
-0.33583	1.45206
-0.20832	3.00804
0.83725	0.40625
0.99026	-1.50683
1.14327	-2.24656
-0.31033	0.22769
0.42922	1.63062
0.93925	1.42656
0.86275	0.66132
-2.47797	-0.07840
1.47479	-0.15492
-0.13181	0.20219
-0.94787	-0.63957
-1.27939	1.12046
0.19971	-1.22625
0.93925	-1.07320
-1.33039	-0.81812
-0.31033	0.22769
1.14327	0.99292
1.95932	1.19699
1.60230	0.45726
1.88281	0.22769
0.22521	0.32972
-1.20288	0.45726
-2.12094	0.30422
-1.10088	0.76336
0.58223	-0.48652
2.29084	-1.04770
0.32721	-0.38449
-0.71835	1.86019
-2.60547	-0.07840
0.40372	-0.79262
1.55129	-0.35899
0.99026	0.63582
0.70974	0.02363
-0.69285	0.15117
-0.59084	-0.02739
0.73524	0.53379
0.60773	0.68683
0.88825	0.73785
0.35272	-0.38449
-0.38683	-0.48652
-1.20288	-0.30797
1.29628	1.73265
-0.36133	0.99292
0.02119	-0.84363
0.63323	-1.81293
0.88825	0.22769
0.04670	0.83988
-0.61635	-0.56305
-1.35589	-0.15492
-1.25389	1.17148
1.06676	0.99292
2.52035	1.24800
1.32178	0.89089
0.73524	-0.07840
-0.31033	-1.02219
0.37822	-0.58856
-2.57997	0.27871
-1.55991	0.86539
2.92838	1.22250
2.31634	-1.43031
-2.06994	-1.40480
-2.42696	-0.10391
-0.84586	0.22769
2.01032	0.17668
2.95388	0.89089
-0.46334	1.27351
0.70974	1.09496
1.37278	0.66132
-0.28482	-0.18043
-3.09000	0.17668
1.65330	0.27871
0.07220	-0.51203
0.17421	-0.35899
0.27621	-1.30277
-7.24677	-0.35899
1.72980	-0.86914
1.83181	1.17148
1.85731	1.45206
1.47479	1.27351
1.01576	1.42656
0.73524	1.09496
0.32721	-0.35899
-0.38683	-0.58856
-0.99887	-1.86394
-0.89686	-0.41000
0.53123	0.40625
0.63323	0.40625
1.72980	0.71234
-1.89143	0.04914
-3.26852	1.06945
1.70430	0.78886
1.98482	-1.27726
1.04126	-2.22105
-0.89686	0.04914
-0.05531	1.04394
-0.36133	1.80917
2.03582	1.93671
0.88825	-0.00188
-1.96793	-0.38449
-1.99343	0.20219
0.68424	0.27871
1.27078	-0.15492
3.33641	-0.61406
0.22521	-1.30277
-1.45790	0.40625
0.02119	1.27351
-0.13181	-0.25695
1.11776	-0.18043
-0.23382	1.17148
-3.06450	0.96742
-0.82036	0.25320
0.60773	-0.41000
1.24527	-0.92016
1.16877	-0.51203
-0.28482	0.22769
-0.76936	1.17148
1.16877	0.50828
-0.08081	0.55929
1.16877	0.17668
1.19427	1.24800
-0.89686	-0.43551
1.04126	-0.81812
-0.92237	-1.32828
-0.41233	-0.53754
-0.31033	0.15117
-1.17738	0.91640
0.37822	0.38074
0.50573	1.24800
1.24527	0.35523
-0.82036	0.04914
0.30171	-0.20594
1.70430	0.94191
0.07220	0.45726
-0.00431	-0.51203
-1.20288	-1.25176
-3.14101	0.35523
1.70430	1.37554
2.49485	-0.61406
2.67337	0.66132
1.04126	0.10015
0.27621	0.43176
0.63323	-0.61406
-5.53816	-0.07840
-0.23382	-0.81812
0.83725	0.63582
3.05589	1.75816
1.95932	1.04394
-4.62010	-0.63957
-2.17195	-1.48133
0.40372	0.27871
1.21977	0.25320
2.16333	0.07465
1.72980	-0.12942
1.37278	0.30422
-0.38683	0.07465
-0.43783	1.14597
0.48022	1.27351
-0.76936	-0.56305
-2.47797	-0.35899
0.27621	-0.58856
0.78624	-1.14973
0.50573	0.48277
0.81175	2.54890
-0.74385	-0.56305
-0.76936	-1.27726
-0.99887	-1.35379
-2.78398	0.66132
1.78081	1.04394
2.57136	1.06945
2.08683	1.09496
1.14327	-0.05289
0.63323	0.35523
2.16333	0.94191
1.11776	-0.12942
-0.31033	-0.15492
-4.00806	-0.51203
-0.76936	-0.94566
-0.48884	-0.25695
-0.43783	0.32972
0.63323	0.35523
0.22521	0.86539
0.73524	0.81437
-0.41233	0.07465
-1.35589	-1.58336
-1.89143	-2.09351
-1.94243	0.30422
2.34184	1.40105
3.15790	1.40105
2.52035	0.96742
1.55129	0.76336
0.70974	0.27871
-0.25932	-0.02739
-0.87136	-0.15492
0.70974	1.52859
1.24527	0.81437
-0.59084	-0.74160
-0.92237	-5.76663
-4.67111	-1.53234
-5.58916	1.19699
1.78081	2.29382
2.85188	1.78367
2.26534	0.66132
0.48022	0.40625
2.49485	0.55929
3.10689	1.29902
-0.02981	0.32972
-0.82036	-0.10391
-1.20288	-0.76711
-1.76392	-1.50683
-0.36133	-0.30797
-0.02981	0.04914
0.35272	0.22769
0.48022	0.61031
0.48022	0.91640
0.35272	0.58480
0.63323	-0.28246
0.53123	-0.00188
0.22521	-0.10391
-0.36133	0.68683
0.70974	-0.84363
-1.63641	-0.66508
-0.92237	0.45726
0.09770	0.96742
2.06133	1.12046
1.14327	0.50828
1.90832	0.53379
1.11776	0.38074
-1.68742	-0.00188
-0.08081	-0.05289
-1.02437	-0.35899
-1.45790	-0.43551
-1.91693	-0.28246
1.24527	-0.02739
1.44929	-0.00188
1.75531	0.07465
0.99026	0.10015
0.53123	0.50828
0.32721	0.91640
-0.20832	0.22769
-0.56534	0.27871
0.40372	2.08976
-0.38683	-0.76711
-2.50347	-1.68539
0.91375	-4.33819
-0.25932	0.73785
0.35272	1.52859
0.91375	1.70714
0.45472	1.06945
1.50029	1.42656
1.65330	2.57441
0.60773	0.32972
-1.38139	-3.16484
-5.41065	-3.34339
-0.53984	1.17148
0.17421	2.19179
2.03582	1.52859
3.61693	0.43176
3.08139	-0.02739
1.32178	0.17668
0.17421	0.04914
-0.56534	-0.41000
-1.50890	-0.48652
-1.63641	-0.18043
-0.74385	-0.35899
0.25071	-0.00188
-0.10631	-0.10391
0.45472	0.40625
1.16877	1.09496
-1.02437	2.75296
-1.73842	-1.71090
-1.40690	-2.83324
1.98482	-3.26687
-0.13181	2.49788
0.68424	2.44687
0.70974	1.65613
1.42379	2.29382
2.69887	1.65613
3.41291	-0.58856
-0.20832	-0.92016
-3.54903	-2.19554
-2.88599	-0.33348
-0.08081	0.89089
1.72980	0.76336
-1.27939	0.12566
-0.13181	-2.01699
2.13783	-0.35899
0.40372	0.86539
-0.20832	1.14597
1.70430	0.48277
-0.28482	-0.25695
0.63323	0.17668
-2.24845	0.68683
-2.24845	0.30422
1.70430	-0.35899
1.52579	0.86539
1.50029	-0.07840
1.32178	-0.00188
-0.25932	-0.35899
-0.20832	-0.12942
-0.31033	-0.23145
-0.53984	0.38074
-0.43783	0.22769
-0.10631	0.63582
0.04670	0.04914
0.09770	-0.12942
0.32721	0.02363
0.42922	0.53379
0.30171	0.25320
0.14870	0.25320
-0.23382	0.27871
0.96476	-0.35899
0.17421	-0.20594
-0.15732	-0.15492
-0.20832	0.20219
0.04670	0.48277
1.57679	0.38074
1.42379	1.68163
0.58223	0.53379
-0.33583	-0.56305
-0.82036	-3.95558
-0.84586	0.63582
-1.58541	-0.23145
-1.02437	1.37554
1.29628	1.29902
-1.02437	2.37034
1.60230	0.94191
0.81175	-1.35379
-1.07538	-1.71090
1.34728	0.45726
1.32178	-0.25695
2.77537	0.83988
1.75531	1.73265
-0.82036	-0.05289
-2.73298	0.89089
-0.15732	-0.97117
0.73524	-0.56305
2.13783	-1.45582
-2.88599	-0.35899
-3.42153	0.91640
0.76074	1.04394
0.65874	0.58480
0.96476	1.65613
1.65330	1.04394
0.93925	-0.30797
0.35272	-2.75671
0.70974	-1.02219
-2.01894	0.89089
-0.43783	0.89089
0.45472	0.53379
0.25071	-0.25695
1.50029	1.88570
0.65874	0.48277
-0.23382	-1.63437
-0.97337	-1.81293
-1.66191	0.71234
-1.07538	1.83468
0.07220	0.76336
2.31634	0.22769
1.14327	-0.20594
2.26534	-1.09871
0.27621	0.22769
-0.18282	0.99292
0.78624	1.50308
-0.59084	0.63582
-2.14644	-1.25176
-0.59084	-1.96597
1.39828	0.40625
0.53123	0.96742
0.81175	0.81437
1.42379	1.98773
-1.53441	0.66132
-0.43783	-2.14453
0.27621	-3.62398
2.06133	-0.25695
-4.08457	1.47757
-2.60547	1.35003
1.88281	1.22250
2.74987	0.96742
1.09226	0.35523
1.57679	-0.18043
1.98482	-0.69059
0.91375	0.10015
-0.56534	-0.12942
-0.71835	0.50828
-2.09544	-0.30797
-2.93700	0.15117
-1.96793	-0.02739
1.83181	0.27871
1.70430	0.73785
0.81175	0.40625
0.63323	-0.35899
0.35272	-1.12422
0.76074	0.32972
0.76074	1.40105
0.19971	0.07465
0.50573	0.27871
0.76074	-1.07320
-0.79486	-0.35899
-3.24301	0.32972
-2.35046	0.50828
-0.15732	1.55410
1.04126	2.49788
2.26534	0.07465
3.08139	-3.08831
1.90832	-1.25176
-0.38683	0.78886
0.63323	1.29902
-0.87136	1.42656
-2.27395	0.81437
-0.18282	-0.58856
1.47479	-1.50683
-1.25389	0.35523
-0.05531	0.45726
-0.18282	-0.25695
0.17421	0.30422
-1.33039	0.48277
2.26534	-0.05289
3.25990	0.22769
1.21977	0.07465
0.02119	-0.07840
-0.43783	0.22769
0.50573	1.37554
-0.38683	0.68683
-2.78398	-0.86914
-0.28482	-2.24656
-2.68198	-0.15492
0.60773	0.10015
1.16877	0.68683
0.76074	1.37554
1.55129	1.73265
1.04126	0.30422
0.73524	-0.10391
0.30171	0.50828
0.12320	0.27871
0.37822	-0.84363
0.02119	-0.02739
0.53123	0.27871
-0.33583	1.73265
-0.69285	-0.07840
-2.09544	-1.30277
-0.97337	-1.99148
-0.48884	0.12566
1.57679	-0.05289
1.80631	0.15117
0.65874	0.68683
0.42922	1.37554
-0.08081	1.40105
-2.40146	0.99292
1.44929	0.66132
2.90288	2.54890
0.07220	-1.76191
0.40372	-3.11382
0.12320	-2.62918
-1.81492	1.73265
2.23984	1.42656
0.14870	1.17148
-0.23382	1.04394
-1.40690	1.12046
-2.42696	0.02363
-0.61635	-0.00188
2.31634	-1.04770
0.30171	-0.15492
-0.28482	-0.15492
-2.57997	0.20219
1.93382	0.45726
2.49485	0.07465
1.75531	-0.25695
0.99026	-0.18043
-1.61091	1.47757
-0.69285	0.25320
-0.38683	-0.48652
0.42922	-1.07320
-0.08081	-0.10391
0.53123	-1.25176
0.48022	0.32972
0.53123	1.50308
0.30171	1.86019
-1.45790	0.76336
-0.05531	0.94191
0.96476	0.55929
-0.05531	0.04914
-1.38139	0.53379
0.02119	-0.00188
1.14327	-2.75671
1.32178	-1.73640
3.03039	1.12046
-3.29402	0.89089
0.40372	1.19699
-0.74385	-0.46102
-0.38683	-1.48133
1.65330	-0.41000
2.11233	0.86539
-0.59084	0.89089
1.32178	1.14597
2.34184	1.57960
-2.42696	0.32972
-0.10631	-1.17523
-5.05363	-0.71609
1.44929	-0.20594
1.85731	0.63582
-2.86049	0.04914
1.88281	-0.48652
2.11233	0.12566
1.55129	-0.10391
0.19971	0.71234
-0.02981	0.50828
-0.31033	1.22250
-0.08081	0.35523
-0.10631	0.20219
-0.56534	0.55929
-0.05531	0.35523
0.22521	-1.60887
0.02119	-1.48133
0.09770	-0.41000
0.32721	1.80917
0.42922	1.78367
-0.08081	-0.89465
1.14327	-0.18043
-0.59084	-0.56305
-1.53441	-0.23145
-0.38683	-0.48652
1.24527	0.81437
0.27621	0.35523
1.62780	0.86539
2.36734	0.55929
-0.48884	0.61031
-0.56534	-0.53754
-5.79318	0.32972
1.04126	0.55929
2.57136	-0.15492
-0.28482	-0.28246
1.70430	-0.74160
2.03582	0.27871
-1.76392	-0.00188
-2.83499	0.20219
2.87738	0.22769
3.03039	0.91640
-1.15188	0.63582
0.42922	0.53379
1.34728	0.58480
-0.13181	-0.35899
-1.63641	-0.74160
-1.35589	-0.23145
-2.75848	-0.23145
-0.46334	0.30422
1.16877	1.73265
1.14327	0.53379
1.04126	-1.71090
0.53123	-0.10391
0.68424	-0.07840
0.17421	0.27871
0.12320	-0.33348
-0.48884	-0.05289
0.07220	1.04394
0.25071	1.17148
0.73524	0.71234
0.68424	0.20219
0.76074	-0.20594
0.81175	0.58480
-1.66191	0.55929
-2.17195	0.63582
1.09226	-1.50683
-0.02981	-0.41000
2.21434	0.78886
1.83181	-0.61406
-2.98800	-0.86914
-2.04444	-0.15492
3.31091	1.17148
-0.02981	0.58480
3.10689	0.32972
0.22521	-0.38449
-0.05531	-0.25695
-0.41233	0.53379
-1.91693	0.32972
0.09770	0.66132
1.88281	0.35523
0.48022	1.40105
-3.16651	0.25320
-0.56534	-0.35899
1.57679	0.10015
1.34728	-0.05289
0.53123	0.12566
-0.66735	-0.46102
0.04670	-0.48652
0.53123	-1.37929
-0.05531	-0.86914
-0.28482	1.45206
0.17421	1.73265
0.70974	1.06945
-0.31033	0.58480
-0.59084	-0.63957
0.30171	-1.04770
0.30171	-0.56305
0.17421	1.45206
-0.20832	0.73785
1.01576	0.89089
1.14327	-0.92016
0.30171	-0.07840
-0.20832	0.35523
0.73524	0.50828
-1.20288	0.43176
-2.88599	-0.46102
1.16877	-0.69059
2.59686	-0.66508
1.11776	0.76336
0.96476	1.40105
-0.28482	1.14597
-0.02981	-0.10391
-0.59084	-0.00188
-3.03900	-0.38449
1.98482	-0.25695
1.04126	-0.25695
-0.23382	0.43176
0.37822	0.63582
0.30171	-0.33348
2.11233	-1.20074
-0.66735	-0.02739
0.50573	1.19699
-0.48884	0.17668
-0.71835	0.25320
-1.68742	0.10015
-0.08081	0.55929
-0.36133	0.40625
-0.23382	-0.12942
0.93925	-0.20594
2.03582	0.73785
1.65330	0.71234
-0.20832	2.08976
0.14870	-0.86914
-0.33583	-2.88425
-1.30489	-3.62398
1.47479	1.17148
0.42922	2.59991
0.48022	2.14077
0.14870	1.42656
0.07220	0.45726
-0.20832	-0.51203
-0.02981	-1.09871
0.68424	0.17668
0.81175	1.27351
0.42922	-0.69059
-1.25389	-1.14973
-5.20664	-2.34859
-0.69285	0.50828
-0.38683	1.70714
2.80087	1.50308
3.23440	0.58480
2.72437	0.30422
2.87738	0.30422
2.92838	0.55929
-4.95162	0.07465
-2.57997	-0.51203
-0.69285	-0.51203
-0.59084	-0.48652
1.04126	0.20219
2.46935	0.94191
1.37278	0.43176
0.40372	0.12566
0.02119	-0.61406
-5.23214	-0.02739
0.35272	0.45726
0.68424	-0.02739
0.63323	0.12566
0.50573	-0.10391
1.42379	-0.15492
1.42379	1.04394
0.58223	0.94191
-1.12638	1.27351
-0.38683	-0.00188
-3.44703	-0.51203
0.73524	-0.33348
1.80631	-1.27726
1.47479	-0.79262
1.52579	-0.58856
1.11776	0.76336
0.86275	2.06425
-0.53984	1.63062
-1.50890	0.15117
-0.59084	1.27351
-0.48884	-0.41000
-1.35589	-1.22625
1.47479	-3.03730
1.75531	1.29902
-0.36133	1.24800
-1.45790	0.40625
-0.94787	-0.94566
1.04126	0.83988
1.16877	0.12566
-0.02981	0.45726
1.88281	0.76336
1.95932	0.35523
-0.76936	-0.33348
-2.70748	-0.46102
1.01576	0.10015
1.62780	0.43176
1.85731	1.17148
-0.36133	0.38074
-0.74385	-0.25695
-2.47797	-0.61406
0.02119	-0.86914
0.58223	-0.61406
0.40372	0.89089
1.47479	1.42656
1.42379	0.73785
-0.08081	0.25320
0.09770	0.83988
-0.28482	0.99292
0.04670	-0.15492
0.50573	-0.15492
0.07220	-1.58336
-4.79861	-2.29757
0.17421	0.96742
-0.36133	0.68683
1.88281	0.45726
0.70974	0.68683
0.50573	0.68683
1.88281	0.43176
1.29628	0.63582
0.93925	0.55929
0.27621	-0.23145
1.27078	0.86539
0.35272	-0.63957
-0.05531	-1.32828
-3.70204	-1.99148
-2.47797	0.50828
-3.72755	2.70194
1.95932	1.04394
2.29084	-0.18043
2.13783	-1.43031
1.09226	-0.30797
-0.41233	-0.76711
-0.13181	1.17148
1.57679	1.78367
1.85731	1.17148
-1.33039	-0.05289
0.27621	0.58480
0.17421	-0.12942
0.04670	0.04914
-2.04444	-0.38449
-1.61091	-1.12422
-2.55447	-2.27207
1.60230	-1.09871
3.00489	0.86539
-1.20288	1.73265
1.27078	1.37554
1.01576	1.01843
0.76074	0.45726
-0.41233	0.25320
0.45472	0.02363
0.40372	-0.02739
0.63323	-0.38449
1.50029	0.38074
-1.40690	0.10015
-0.61635	0.25320
-1.35589	0.35523
0.93925	0.20219
0.35272	0.20219
-0.02981	-1.32828
0.14870	-0.48652
0.19971	0.32972
0.45472	0.86539
1.16877	0.81437
1.24527	0.78886
-2.68198	-0.33348
-0.05531	-0.28246
-0.28482	-1.07320
0.96476	1.75816
-2.52897	0.76336
1.39828	0.10015
0.70974	0.38074
2.18883	0.45726
1.50029	0.02363
1.39828	-0.30797
2.21434	1.57960
-0.92237	0.91640
-2.32496	-2.22105
-2.04444	-2.88425
-1.73842	-2.19554
-2.57997	2.01323
3.54042	2.77847
1.55129	0.76336
0.48022	-1.88945
0.42922	-0.38449
-4.62010	1.70714
0.96476	1.55410
3.43841	1.45206
3.15790	0.50828
1.93382	0.17668
