0.14870	0.20219
0.12320	0.07465
0.07220	0.12566
0.04670	0.07465
0.07220	0.04914
0.04670	0.07465
0.12320	0.10015
0.22521	0.20219
0.17421	0.22769
0.19971	0.25320
0.22521	0.20219
0.14870	0.17668
0.07220	0.10015
0.07220	0.04914
-0.02981	0.15117
0.07220	0.15117
0.19971	0.22769
0.27621	0.20219
0.22521	0.22769
0.27621	0.12566
0.14870	0.07465
0.07220	0.02363
0.12320	0.07465
0.12320	0.15117
0.02119	0.12566
-0.00431	0.04914
0.07220	0.20219
0.25071	0.25320
0.32721	0.20219
0.37822	0.15117
0.27621	0.12566
0.04670	0.02363
0.02119	0.12566
0.04670	0.15117
0.09770	0.12566
0.02119	0.15117
0.14870	0.20219
0.17421	0.12566
0.14870	0.15117
0.19971	0.20219
0.22521	0.15117
0.09770	0.10015
0.17421	0.04914
0.12320	-0.00188
0.02119	0.07465
0.04670	0.27871
0.09770	0.10015
0.12320	0.10015
0.14870	0.15117
0.25071	0.12566
0.25071	0.20219
0.25071	0.10015
0.14870	0.15117
0.07220	0.04914
0.02119	0.07465
-0.08081	0.20219
0.12320	0.07465
0.27621	0.38074
0.30171	0.15117
0.19971	0.22769
0.19971	0.10015
0.09770	-0.00188
0.09770	0.02363
0.17421	0.02363
0.02119	-0.05289
-0.02981	0.07465
0.09770	0.30422
0.30171	0.40625
0.22521	0.17668
0.07220	0.20219
0.25071	0.04914
0.07220	0.25320
0.09770	0.12566
0.17421	0.07465
0.12320	0.10015
0.07220	0.04914
0.07220	0.12566
0.14870	0.22769
0.25071	0.12566
0.30171	0.25320
0.25071	0.25320
0.17421	0.10015
0.07220	0.04914
0.02119	-0.12942
-0.10631	0.02363
0.02119	0.27871
0.12320	0.32972
0.19971	0.32972
0.22521	0.22769
0.22521	0.22769
0.27621	-0.02739
0.04670	0.10015
0.12320	0.07465
-0.00431	0.02363
-0.00431	0.12566
0.02119	0.22769
0.19971	0.22769
0.32721	0.15117
0.19971	0.22769
0.19971	0.20219
0.19971	0.15117
0.19971	-0.00188
0.04670	0.12566
0.09770	0.35523
0.07220	0.02363
0.02119	-0.10391
0.14870	0.04914
0.19971	-0.07840
0.27621	0.30422
0.22521	0.20219
0.12320	0.27871
0.02119	0.32972
0.12320	0.30422
0.17421	0.07465
0.07220	-0.00188
0.02119	0.10015
0.17421	0.17668
0.30171	0.15117
0.22521	0.04914
0.17421	0.04914
0.19971	0.17668
0.09770	0.15117
0.09770	0.12566
0.14870	-0.00188
0.04670	0.04914
-0.02981	0.20219
0.04670	0.30422
0.19971	0.25320
0.19971	0.32972
0.32721	0.12566
0.32721	0.12566
0.32721	0.02363
0.14870	0.17668
-0.02981	0.07465
-0.10631	0.07465
-0.18282	0.20219
0.07220	0.17668
0.27621	0.04914
0.37822	0.07465
0.32721	-0.02739
0.37822	0.10015
0.14870	0.04914
-0.10631	0.10015
-0.15732	0.12566
-0.15732	0.25320
-0.05531	0.30422
0.14870	0.30422
0.40372	0.25320
0.42922	0.02363
0.32721	0.04914
0.30171	0.04914
0.09770	0.10015
0.12320	0.15117
0.04670	0.15117
-0.05531	0.20219
0.04670	0.30422
0.12320	0.12566
0.19971	0.15117
0.17421	0.07465
0.12320	0.04914
0.14870	-0.05289
0.14870	-0.00188
0.12320	0.17668
0.14870	0.12566
0.09770	0.25320
0.17421	0.27871
0.12320	0.40625
0.17421	0.40625
0.14870	0.20219
0.17421	0.20219
0.25071	0.04914
0.30171	0.02363
0.27621	0.04914
0.17421	0.07465
0.17421	0.02363
0.04670	0.15117
0.02119	0.15117
0.04670	0.12566
0.02119	0.12566
0.17421	0.15117
0.14870	0.22769
0.07220	0.20219
0.09770	0.07465
0.14870	-0.05289
0.07220	0.15117
0.09770	0.20219
0.19971	0.32972
0.30171	0.35523
0.35272	0.25320
0.30171	0.20219
0.25071	0.20219
0.17421	0.17668
0.14870	0.27871
0.14870	-0.05289
0.07220	0.04914
0.09770	0.04914
0.17421	0.02363
0.22521	0.20219
0.30171	0.25320
0.40372	0.22769
0.30171	0.27871
0.25071	0.15117
0.12320	0.15117
0.02119	0.02363
-0.08081	0.07465
-0.02981	0.25320
0.14870	0.25320
0.12320	0.25320
0.12320	0.17668
0.12320	0.30422
0.12320	0.04914
0.17421	0.02363
0.19971	-0.02739
0.25071	-0.07840
0.12320	0.04914
0.17421	0.10015
0.17421	0.15117
0.19971	0.22769
0.19971	0.17668
0.14870	0.20219
0.35272	0.15117
0.19971	0.17668
-0.20832	0.32972
-0.41233	0.10015
-0.23382	-0.10391
0.12320	-0.00188
0.70974	0.15117
0.91375	0.27871
0.70974	0.25320
0.09770	0.25320
0.04670	0.25320
-0.41233	0.02363
-0.74385	-0.05289
0.40372	-0.18043
0.50573	0.32972
0.32721	0.12566
0.22521	0.12566
0.17421	0.55929
-0.10631	0.02363
-0.36133	0.45726
0.04670	-0.18043
0.19971	-0.48652
0.14870	-0.43551
0.22521	-0.12942
0.22521	0.35523
0.45472	0.17668
0.07220	0.27871
0.04670	0.78886
0.35272	0.48277
0.27621	0.50828
0.17421	0.25320
-0.28482	-0.02739
-0.08081	-0.10391
0.32721	-0.15492
0.27621	0.10015
0.35272	0.63582
0.40372	0.30422
0.37822	0.15117
0.25071	-0.20594
0.19971	0.12566
0.12320	0.27871
0.02119	0.43176
0.14870	-0.20594
0.09770	-0.28246
-0.02981	0.30422
0.04670	-0.23145
-0.00431	0.35523
0.19971	0.96742
0.30171	0.25320
0.32721	0.25320
0.35272	0.20219
0.19971	0.10015
-0.13181	0.07465
-0.18282	-0.05289
-0.05531	0.04914
0.04670	0.07465
0.45472	0.20219
0.58223	0.27871
0.42922	0.38074
0.32721	0.22769
0.14870	0.04914
-0.00431	0.04914
-0.10631	-0.15492
-0.05531	-0.05289
0.07220	-0.28246
0.02119	0.04914
0.12320	0.17668
-0.00431	0.10015
0.19971	0.48277
0.19971	0.07465
-0.15732	0.10015
0.22521	0.04914
0.07220	0.40625
0.37822	0.02363
0.42922	-0.02739
0.14870	0.32972
0.32721	0.27871
0.14870	0.66132
0.19971	0.22769
-0.08081	-0.10391
0.04670	0.12566
-0.00431	-0.74160
0.02119	0.61031
0.22521	0.22769
0.48022	-0.56305
-0.08081	-0.02739
-0.38683	0.30422
-0.69285	0.89089
0.93925	0.45726
0.55673	-0.07840
0.63323	-0.35899
0.55673	0.17668
0.14870	0.20219
-1.20288	0.17668
-0.48884	0.02363
0.27621	0.53379
0.83725	-0.15492
0.99026	-0.07840
0.83725	-0.15492
0.55673	0.50828
0.22521	0.94191
0.19971	-0.46102
0.17421	-0.07840
-0.51434	0.68683
-0.97337	-0.69059
-0.33583	-0.46102
0.60773	-0.35899
-0.97337	0.43176
-1.02437	0.83988
0.14870	0.76336
1.11776	0.94191
1.44929	0.04914
-0.05531	-0.81812
0.07220	-0.61406
-0.13181	0.04914
0.40372	0.38074
0.96476	0.10015
0.88825	0.17668
0.30171	-1.09871
-0.59084	0.63582
0.25071	0.61031
0.88825	0.32972
0.65874	0.81437
-0.59084	0.27871
-1.10088	0.50828
-0.76936	-0.33348
-2.96250	1.29902
-1.45790	-0.12942
1.24527	-0.89465
2.08683	-1.09871
1.39828	-1.14973
-2.12094	-1.04770
0.93925	1.06945
1.85731	-0.00188
1.70430	0.68683
1.14327	1.35003
0.53123	2.80397
0.14870	-1.14973
-0.08081	-3.21585
0.04670	-1.30277
0.02119	1.24800
-0.61635	2.49788
-1.30489	0.83988
-1.71292	0.91640
-0.69285	-0.00188
-3.01350	0.53379
-2.52897	0.02363
2.21434	0.02363
2.18883	-0.76711
2.62236	-0.79262
1.90832	-0.48652
1.39828	0.55929
1.06676	1.06945
0.53123	0.10015
1.01576	-0.25695
-0.84586	-0.18043
-1.89143	0.55929
-0.64185	-0.28246
0.53123	-0.00188
0.25071	-0.61406
-0.51434	0.99292
-0.02981	0.91640
1.06676	-0.53754
0.04670	-0.89465
-0.02981	-1.43031
-1.61091	1.01843
-2.06994	0.91640
-0.99887	1.55410
1.06676	1.06945
1.75531	-1.60887
1.55129	0.38074
0.76074	2.93151
0.53123	1.32453
1.65330	-1.86394
1.21977	-0.56305
0.55673	-2.39961
0.63323	-0.41000
-3.06450	-0.99668
-2.83499	1.17148
-0.89686	1.88570
-0.41233	2.80397
0.53123	-0.30797
2.06133	0.20219
1.70430	-0.07840
3.18340	-1.35379
0.58223	-1.76191
-1.50890	-0.94566
-1.71292	0.25320
-2.37596	0.96742
-0.41233	3.72225
2.13783	-0.89465
1.98482	-1.71090
0.73524	-0.74160
0.14870	1.14597
-2.42696	0.86539
-0.82036	0.22769
0.22521	-1.02219
-0.25932	1.73265
-2.32496	1.68163
0.40372	-0.02739
3.33641	0.12566
3.89744	-0.99668
2.01032	-2.42511
0.35272	-3.95558
-0.53984	2.70194
-1.43240	2.16628
-2.22295	0.40625
-0.53984	-0.10391
-0.28482	0.04914
0.19971	1.65613
1.65330	0.48277
0.73524	0.73785
-0.71835	-0.53754
-0.79486	0.81437
-0.84586	0.94191
1.16877	0.25320
2.46935	-2.55265
0.65874	-3.67499
-0.61635	-1.37929
-4.05907	1.63062
-0.51434	1.57960
1.57679	0.20219
0.35272	0.30422
1.62780	2.21730
0.93925	2.77847
0.35272	-0.20594
1.83181	-1.68539
-1.02437	-0.28246
-2.55447	-0.07840
-0.69285	0.45726
1.39828	-2.93527
-0.61635	2.16628
2.11233	-0.76711
2.46935	-1.53234
1.85731	0.71234
-1.53441	1.40105
-5.51266	1.68163
-0.59084	0.91640
1.44929	0.68683
0.50573	-0.53754
1.47479	0.78886
1.01576	0.15117
-1.25389	-0.76711
-0.23382	-5.20546
2.57136	-1.14973
1.09226	1.40105
-0.53984	2.29382
-2.06994	0.63582
-2.63097	1.17148
0.73524	-0.02739
0.96476	0.10015
2.34184	0.50828
2.03582	-0.51203
1.39828	0.22769
-0.38683	0.55929
-4.59460	1.45206
-4.92612	1.60511
2.85188	0.43176
2.62236	0.63582
3.05589	-2.70570
0.96476	-0.92016
0.22521	-2.90976
-0.48884	0.30422
-0.31033	1.75816
-0.43783	3.87530
0.17421	0.99292
0.40372	-2.29757
0.27621	-3.29238
-1.78942	0.78886
-2.86049	0.10015
-2.91149	1.98773
-0.18282	1.96222
3.05589	2.49788
1.83181	-1.20074
-0.79486	2.03874
2.06133	-1.53234
1.47479	-1.91496
0.12320	-4.13413
1.14327	1.80917
2.08683	0.00000
-0.97337	2.19179
0.14870	2.93151
1.83181	0.61031
2.26534	-0.15492
-1.02437	-2.11902
-6.91525	-1.07320
-0.53984	0.55929
-1.50890	0.58480
-3.24301	1.78367
3.28540	0.15117
3.89744	-0.53754
-0.36133	-3.01179
0.78624	1.17148
0.37822	0.15117
0.55673	0.35523
1.14327	0.96742
0.99026	3.62022
0.22521	-0.05289
-0.94787	-1.81293
-0.25932	-2.62918
0.53123	-1.25176
-2.86049	1.09496
-2.96250	2.24281
0.55673	2.75296
1.47479	0.78886
2.06133	-0.23145
1.90832	-1.55785
-1.27939	0.10015
-0.00431	-0.07840
-0.38683	-1.09871
1.44929	-4.56776
1.42379	1.52859
-0.10631	2.77847
-0.66735	0.96742
0.53123	-0.71609
0.48022	0.58480
0.50573	1.19699
0.25071	0.61031
-2.01894	0.20219
0.53123	-0.63957
0.53123	1.45206
-0.13181	-0.07840
-1.15188	-2.37410
1.16877	-3.59847
0.02119	-0.05289
0.25071	1.75816
-0.69285	2.57441
-3.75305	-0.05289
1.42379	-0.66508
2.36734	0.32972
1.27078	0.43176
-0.31033	1.27351
1.55129	-0.23145
1.11776	1.06945
1.75531	0.55929
-0.00431	-0.25695
-1.53441	-0.71609
-0.18282	0.73785
0.55673	-1.48133
-0.31033	0.02363
-1.12638	0.10015
-0.20832	0.45726
-0.38683	0.73785
0.91375	0.45726
1.72980	1.45206
0.32721	-0.10391
-0.46334	0.35523
-2.52897	-1.96597
-0.79486	-0.92016
3.82094	-2.80773
-1.48340	2.16628
-0.08081	2.26831
1.65330	2.03874
1.19427	1.01843
1.37278	-0.38449
0.86275	-0.81812
0.37822	0.15117
-0.00431	-0.02739
-0.08081	2.24281
0.07220	-0.46102
0.99026	-2.27207
-1.30489	-4.38921
-3.37052	-3.13933
-3.57454	1.98773
2.31634	2.77847
2.44385	2.85499
1.62780	2.01323
-4.82411	2.29382
2.62236	1.24800
1.21977	0.04914
0.83725	-3.93007
-0.64185	-0.61406
-0.74385	-0.20594
3.03039	0.45726
2.52035	0.40625
0.22521	0.25320
-3.34502	-0.23145
0.55673	-0.20594
1.67880	0.02363
1.34728	2.57441
-0.38683	0.96742
0.12320	-0.00188
-1.38139	-3.90456
-0.94787	-2.39961
-3.70204	1.45206
-2.04444	1.73265
2.29084	1.75816
1.70430	1.27351
2.49485	0.83988
2.03582	0.55929
1.34728	0.12566
0.45472	0.30422
0.37822	-0.61406
0.35272	-1.09871
-0.84586	0.02363
-1.89143	2.65093
0.14870	-0.84363
0.37822	-2.32308
-3.49803	-3.72601
-4.44159	0.66132
2.62236	1.27351
2.06133	1.78367
1.75531	2.16628
1.85731	3.77327
1.29628	0.78886
1.72980	-0.12942
-0.15732	-4.87386
-2.63097	-0.20594
1.01576	1.35003
0.78624	2.67644
-0.51434	0.45726
-0.20832	1.60511
-5.58916	-1.81293
1.34728	-1.17523
3.18340	-0.81812
3.03039	-1.25176
-0.02981	0.53379
-1.71292	1.80917
-3.09000	-0.00188
1.78081	-3.62398
0.19971	0.78886
-0.10631	1.37554
1.85731	1.42656
2.11233	0.99292
1.70430	2.19179
1.62780	-1.48133
-3.57454	-2.29757
-2.45246	-0.05289
0.76074	0.04914
0.73524	0.04914
0.42922	0.43176
-1.15188	1.04394
-0.41233	1.73265
0.02119	1.01843
0.45472	-1.37929
1.37278	-2.98628
1.90832	0.45726
1.11776	1.65613
-0.89686	0.45726
-1.02437	-0.20594
-0.94787	0.91640
-1.27939	-0.10391
-0.48884	0.86539
2.54586	-0.30797
3.20890	0.12566
0.22521	-0.28246
-2.17195	-0.66508
1.65330	0.27871
-1.07538	0.53379
0.50573	0.04914
1.09226	0.38074
0.12320	0.66132
1.01576	0.66132
0.68424	0.48277
-1.17738	-1.20074
-2.35046	-0.41000
0.93925	-0.18043
1.55129	0.68683
0.19971	-0.25695
-0.15732	0.25320
0.83725	-0.61406
-3.26852	2.03874
0.99026	2.21730
1.29628	-0.28246
0.83725	-2.47613
0.48022	-0.38449
0.27621	1.22250
0.22521	0.45726
-0.00431	0.43176
-0.10631	-0.41000
-0.28482	-1.30277
0.02119	0.20219
0.17421	0.02363
-0.05531	-1.68539
0.19971	0.12566
0.35272	1.63062
0.53123	1.75816
0.78624	2.26831
-0.46334	2.29382
0.53123	-1.20074
0.07220	-3.31788
-7.04276	-5.99620
0.30171	1.06945
0.17421	2.47238
3.84644	2.37034
3.00489	1.88570
2.85188	1.52859
1.19427	2.08976
0.70974	-0.92016
1.44929	-0.99668
0.93925	-3.26687
-6.91525	0.07465
-4.13557	0.58480
1.09226	0.55929
2.01032	0.53379
1.88281	0.12566
2.77537	0.45726
0.88825	0.35523
-0.69285	1.40105
-1.81492	-1.83844
-4.54360	-2.11902
0.93925	-0.41000
1.75531	1.27351
1.37278	2.16628
1.24527	1.04394
1.16877	0.32972
0.53123	-0.56305
0.25071	0.58480
0.63323	1.63062
0.14870	-0.79262
0.76074	-2.57816
-1.22839	-1.81293
-5.07913	0.83988
-3.77855	2.08976
2.23984	1.40105
2.36734	0.66132
2.36734	0.43176
2.06133	-0.00188
1.44929	0.81437
1.04126	-0.46102
-0.94787	-1.02219
-1.71292	-0.84363
-1.43240	-1.07320
0.22521	-0.28246
0.30171	1.35003
1.80631	1.12046
1.55129	0.91640
0.45472	0.76336
-0.13181	-1.14973
-3.09000	-0.28246
-3.39602	0.94191
1.95932	0.22769
2.11233	-0.20594
1.14327	0.99292
0.60773	0.27871
0.42922	-1.20074
0.32721	-1.12422
-0.31033	1.32453
-0.99887	0.58480
0.60773	-0.38449
-2.80949	0.50828
0.27621	0.53379
1.27078	-0.28246
1.98482	-0.56305
1.42379	0.76336
-0.02981	0.20219
0.78624	1.78367
-0.28482	-1.83844
0.09770	0.76336
-0.74385	-1.65988
-1.12638	-0.56305
-1.99343	-0.20594
-1.25389	1.70714
0.99026	1.75816
0.48022	0.63582
1.42379	-0.20594
1.19427	-0.25695
0.91375	-0.43551
0.91375	-0.05289
0.99026	0.10015
0.04670	1.22250
-1.04987	-0.53754
-2.01894	-0.15492
1.01576	-2.65468
1.16877	-0.12942
-0.02981	0.76336
-1.12638	1.14597
-2.17195	1.37554
-0.66735	0.86539
1.57679	-0.23145
2.87738	0.27871
2.29084	0.32972
0.78624	0.40625
-0.38683	0.45726
-5.23214	-0.66508
0.83725	-0.56305
1.70430	0.58480
2.31634	0.35523
1.37278	0.15117
-0.31033	-1.48133
-0.87136	0.07465
0.42922	0.53379
-0.56534	-0.10391
-0.18282	-0.00188
-4.16107	1.60511
0.27621	0.22769
1.67880	0.12566
1.65330	0.58480
1.55129	1.22250
1.01576	-0.07840
0.55673	-0.58856
0.35272	-1.63437
0.27621	-0.46102
-0.48884	-1.09871
-0.79486	-0.10391
-0.08081	0.63582
0.07220	1.73265
0.91375	1.88570
-2.12094	-0.38449
-1.48340	0.53379
1.60230	-0.38449
-4.16107	-0.84363
0.81175	-0.79262
2.08683	1.17148
3.46392	1.45206
2.08683	0.91640
1.04126	-0.58856
0.07220	-0.69059
-2.70748	0.40625
1.32178	0.43176
0.93925	2.62542
0.70974	-0.38449
-0.51434	-2.62918
-1.27939	-1.73640
-3.29402	0.61031
-2.52897	1.12046
2.18883	0.94191
3.25990	0.66132
-0.53984	0.96742
-1.30489	1.12046
-2.78398	-0.38449
2.46935	-0.58856
2.39285	-2.65468
1.75531	-0.33348
0.86275	0.48277
-0.53984	0.83988
-0.36133	0.73785
0.48022	-0.28246
0.14870	0.53379
-0.23382	1.45206
-0.33583	1.19699
0.22521	-0.66508
-0.74385	-0.97117
0.09770	-1.17523
0.22521	0.76336
-2.40146	-0.33348
-0.74385	0.66132
1.24527	0.94191
1.14327	0.30422
2.13783	-0.25695
2.31634	1.22250
-1.71292	0.48277
0.22521	-1.27726
-0.28482	-0.97117
-1.12638	0.32972
-2.29945	3.49268
0.58223	-0.56305
1.70430	-1.71090
-0.00431	-2.75671
-0.08081	1.01843
1.85731	2.06425
1.60230	1.91120
1.06676	0.81437
-0.46334	-0.10391
-0.20832	-0.48652
-2.57997	0.15117
-1.02437	-0.00188
0.22521	-0.25695
0.04670	-0.51203
1.24527	0.48277
1.24527	0.30422
-0.46334	0.61031
0.73524	-0.61406
1.70430	0.71234
0.88825	0.83988
-0.02981	-2.65468
-4.26308	-0.79262
-5.38515	-0.76711
0.48022	1.60511
2.97938	1.04394
3.33641	1.01843
2.46935	0.55929
1.75531	1.29902
1.24527	0.63582
1.27078	-0.53754
-2.42696	-1.73640
-3.03900	-1.58336
0.42922	0.94191
-0.64185	-0.10391
-0.97337	0.32972
0.63323	1.57960
0.12320	0.94191
0.93925	0.15117
0.68424	-0.15492
0.48022	-0.15492
-0.59084	-0.51203
0.19971	0.78886
1.09226	0.12566
1.27078	-0.15492
0.60773	-0.48652
-1.96793	0.30422
-0.76936	-0.12942
-2.29945	-0.63957
0.35272	0.32972
3.51492	1.42656
1.93382	0.38074
-0.71835	-0.58856
0.99026	-0.23145
0.37822	0.86539
-1.71292	-0.07840
0.04670	0.45726
1.67880	0.78886
-0.15732	-0.07840
-0.99887	-0.05289
-0.97337	-0.30797
0.55673	-1.02219
0.14870	-0.25695
-1.02437	1.32453
1.06676	0.50828
0.42922	0.02363
-0.33583	-1.53234
-1.35589	0.17668
-1.99343	0.25320
1.32178	0.61031
1.34728	0.78886
1.60230	0.83988
1.32178	1.68163
1.24527	-0.28246
1.50029	-3.62398
-1.58541	-1.17523
-0.48884	0.30422
-0.53984	1.65613
-0.00431	1.52859
0.25071	1.37554
0.27621	0.83988
-0.02981	-0.38449
-0.97337	0.12566
-1.43240	-0.20594
-0.43783	-0.79262
0.55673	0.45726
1.55129	0.35523
1.44929	-0.61406
1.72980	-1.83844
-0.79486	-0.51203
-3.31952	0.66132
-2.37596	0.91640
0.73524	0.71234
2.36734	0.07465
2.26534	-0.15492
1.72980	0.55929
-0.00431	0.61031
-1.33039	-0.94566
-1.78942	-0.28246
1.06676	0.66132
1.01576	0.89089
0.12320	-0.48652
-1.61091	-0.30797
-2.29945	1.35003
1.34728	1.17148
2.49485	0.02363
1.50029	-0.84363
-3.34502	-1.22625
0.30171	-1.71090
0.78624	0.94191
1.19427	1.42656
0.63323	1.60511
0.09770	-1.37929
-0.48884	-0.56305
0.12320	1.52859
0.14870	2.98253
-0.08081	-1.35379
0.42922	-1.81293
0.27621	-0.46102
0.27621	0.04914
0.53123	-0.25695
-0.41233	1.04394
0.58223	1.75816
0.37822	0.99292
-2.32496	0.48277
-0.79486	0.66132
-0.02981	0.45726
2.44385	-0.35899
-2.09544	0.04914
0.32721	-0.81812
2.97938	0.66132
2.52035	-2.39961
1.85731	0.22769
0.04670	-1.30277
-3.14101	-0.74160
0.53123	0.32972
1.39828	2.65093
-0.61635	1.86019
-1.81492	1.55410
-1.33039	0.50828
-0.31033	0.04914
0.50573	-0.12942
0.14870	0.12566
0.55673	-0.10391
0.40372	-0.23145
0.83725	-0.56305
0.27621	-0.71609
0.83725	0.17668
-2.45246	0.96742
-0.36133	0.10015
0.96476	0.76336
1.85731	-0.76711
0.14870	-1.81293
-0.13181	-1.25176
-0.59084	1.06945
1.29628	2.95702
0.83725	0.73785
-1.63641	0.91640
0.81175	-1.12422
-1.30489	2.06425
0.86275	1.35003
-0.33583	-0.35899
0.53123	-0.25695
0.32721	0.27871
1.24527	-0.79262
0.70974	-2.37410
-1.10088	0.45726
-1.02437	0.61031
-1.63641	0.63582
1.65330	-0.76711
1.72980	0.45726
-0.89686	0.53379
0.96476	0.48277
-1.35589	0.96742
1.75531	0.15117
1.80631	-0.02739
0.07220	-0.89465
0.45472	-0.69059
-1.04987	-0.48652
-4.74761	0.30422
1.01576	0.38074
0.83725	0.43176
0.65874	-0.25695
0.22521	0.91640
1.88281	1.01843
1.09226	0.17668
1.04126	-1.17523
-0.59084	0.38074
-0.66735	0.38074
-0.10631	0.45726
-0.18282	-0.05289
0.22521	0.81437
0.19971	-0.18043
0.32721	-1.09871
0.17421	-0.28246
0.09770	0.25320
0.27621	0.25320
0.04670	0.30422
0.09770	0.86539
-0.61635	1.42656
0.09770	0.10015
0.76074	-1.17523
1.16877	-0.56305
-1.48340	-0.51203
-0.53984	0.55929
0.58223	0.43176
0.07220	0.94191
1.16877	0.58480
1.67880	-0.58856
0.55673	0.96742
-1.30489	0.27871
1.62780	0.45726
2.03582	-0.86914
-5.69117	0.15117
-0.18282	-0.89465
-0.64185	0.96742
1.42379	0.22769
1.29628	0.30422
2.11233	-0.10391
2.03582	-0.28246
0.58223	0.63582
-2.65648	1.12046
-0.87136	0.10015
1.16877	-0.12942
-0.61635	-0.79262
-2.35046	-0.18043
1.55129	1.37554
1.11776	0.73785
3.05589	-0.76711
-1.81492	-0.86914
-1.66191	0.78886
-0.00431	0.96742
0.88825	-1.04770
1.70430	-1.55785
-1.25389	0.45726
-0.36133	0.91640
0.76074	0.89089
-0.74385	0.66132
0.25071	2.19179
-0.02981	0.20219
-1.25389	-1.99148
0.12320	-3.21585
1.50029	0.27871
0.55673	1.42656
-0.43783	1.32453
1.11776	1.37554
0.70974	0.71234
-0.00431	0.45726
-0.10631	-0.56305
0.12320	-1.94047
0.02119	-1.86394
-0.41233	-0.07840
-1.07538	1.01843
0.17421	1.65613
0.83725	0.96742
1.39828	-0.25695
-1.91693	0.30422
-1.55991	-0.00188
0.09770	-0.56305
1.75531	-0.33348
2.72437	0.66132
1.27078	1.27351
-0.25932	0.20219
-2.09544	-1.86394
-2.73298	-2.19554
-0.10631	1.24800
2.03582	1.83468
1.50029	1.37554
0.22521	0.38074
1.09226	0.86539
0.76074	0.40625
-0.02981	-0.97117
0.58223	-0.56305
1.95932	-0.07840
-4.46709	0.02363
-3.47253	0.25320
0.42922	0.71234
1.93382	0.68683
1.65330	-0.10391
1.24527	-0.51203
0.93925	0.35523
-0.08081	-0.41000
-0.18282	-0.66508
-0.41233	0.10015
0.25071	0.71234
0.02119	0.73785
-0.10631	0.91640
-0.43783	0.27871
-0.99887	0.17668
-0.08081	-0.71609
0.63323	-0.28246
1.09226	-0.28246
0.19971	-0.12942
-0.05531	1.37554
0.70974	0.71234
1.16877	-0.12942
-0.02981	-1.37929
0.45472	0.68683
-0.20832	1.45206
1.34728	1.73265
-0.13181	-0.33348
-5.07913	-1.53234
-0.59084	-1.68539
2.62236	0.55929
2.72437	1.78367
1.98482	0.22769
0.65874	-0.20594
-0.43783	-0.63957
-2.47797	-0.35899
-1.99343	0.53379
-0.36133	0.32972
0.86275	0.45726
2.23984	0.17668
1.44929	0.15117
0.30171	0.61031
-0.02981	0.25320
0.07220	-0.23145
0.30171	0.02363
-0.48884	-0.02739
-0.74385	0.32972
0.76074	0.45726
-2.42696	-0.30797
0.04670	-0.92016
0.65874	0.99292
1.72980	1.04394
1.50029	0.22769
1.24527	0.04914
-0.00431	-0.05289
-2.40146	0.12566
-3.54903	1.12046
0.58223	-0.10391
1.62780	-1.40480
1.80631	-0.58856
1.52579	0.53379
0.91375	0.89089
0.70974	0.96742
0.30171	0.66132
-0.79486	0.58480
-0.82036	0.66132
-0.31033	-0.79262
-0.38683	-0.71609
-0.08081	-0.81812
0.02119	0.25320
-0.64185	-0.63957
0.40372	0.58480
0.65874	1.04394
0.76074	0.83988
-0.28482	-0.71609
-0.38683	-0.41000
0.35272	0.63582
2.13783	0.86539
0.68424	1.50308
0.35272	-0.23145
-4.23758	-0.53754
-3.16651	-0.66508
2.08683	0.78886
2.90288	-0.05289
2.72437	-0.05289
1.55129	0.12566
2.16333	0.76336
-2.12094	0.02363
-0.92237	-0.15492
-0.25932	-0.61406
0.19971	0.30422
-1.07538	0.45726
0.09770	1.27351
-0.31033	-1.12422
0.07220	-0.15492
0.48022	1.50308
0.35272	-0.12942
0.58223	-1.37929
0.81175	-0.97117
-1.38139	0.76336
-1.40690	0.63582
1.11776	1.70714
1.80631	0.48277
1.44929	0.25320
1.62780	0.53379
-0.79486	2.16628
-1.04987	-0.92016
-3.11551	-2.80773
0.48022	-1.32828
1.57679	1.06945
1.06676	0.73785
0.53123	0.73785
0.70974	0.35523
1.14327	0.99292
-0.79486	-0.74160
-0.28482	-1.02219
-0.84586	-1.17523
0.25071	0.99292
1.01576	1.65613
-0.20832	0.81437
0.37822	-0.23145
-2.57997	0.40625
-5.79318	0.02363
2.64786	1.12046
2.85188	-1.68539
2.41835	-0.63957
1.90832	0.45726
1.70430	0.32972
0.96476	1.06945
-0.89686	0.30422
0.55673	-0.58856
-3.29402	-0.63957
-3.57454	1.01843
-0.05531	0.71234
-0.18282	0.10015
1.80631	-0.20594
2.23984	-0.18043
0.22521	0.17668
0.50573	0.55929
1.57679	0.53379
1.21977	-0.33348
-0.48884	-0.18043
-4.00806	0.32972
-0.74385	-0.00188
-1.12638	0.15117
0.25071	-0.30797
1.52579	0.38074
1.75531	0.94191
1.50029	1.55410
1.21977	-0.38449
-0.56534	-2.11902
-1.89143	-0.56305
0.93925	0.86539
0.83725	1.40105
0.35272	2.26831
-0.08081	-0.20594
-0.31033	-2.22105
-0.00431	-0.99668
-0.28482	0.25320
0.60773	0.91640
0.22521	-1.20074
-0.59084	0.78886
-1.30489	0.63582
-1.02437	1.24800
1.60230	0.58480
1.50029	0.99292
1.34728	-0.07840
0.32721	-0.97117
-4.00806	-2.50164
-0.43783	-1.22625
1.44929	1.40105
0.73524	1.35003
1.62780	1.40105
1.75531	1.55410
1.29628	0.38074
1.01576	-1.02219
0.14870	-1.40480
-2.55447	-0.00188
-1.68742	0.02363
0.65874	0.30422
0.73524	-0.07840
-0.82036	0.50828
-2.96250	0.17668
0.25071	0.22769
3.05589	0.43176
1.21977	0.35523
0.58223	0.38074
0.14870	-0.02739
-0.23382	-0.69059
-0.79486	-1.88945
0.91375	0.91640
-0.25932	0.45726
-0.25932	0.58480
-0.36133	0.50828
0.78624	0.66132
0.42922	0.73785
0.19971	1.35003
-0.15732	-0.05289
0.19971	-0.79262
0.76074	-1.32828
0.65874	0.53379
0.30171	0.35523
-0.38683	0.61031
0.91375	1.01843
0.02119	0.73785
0.35272	-0.61406
-0.79486	-1.58336
0.60773	-0.71609
0.48022	0.76336
-2.96250	1.06945
-0.05531	0.96742
1.98482	0.55929
2.21434	0.48277
1.19427	-0.00188
-1.27939	-0.02739
-1.20288	-0.05289
0.83725	0.17668
0.93925	0.25320
-1.17738	-0.71609
0.68424	-0.66508
0.27621	-0.94566
0.88825	-0.43551
1.52579	0.66132
-0.66735	1.98773
-1.38139	1.22250
1.21977	1.01843
-1.27939	0.83988
-3.29402	-1.88945
0.35272	-1.96597
1.37278	0.12566
1.95932	1.37554
1.34728	0.76336
1.09226	0.50828
0.48022	0.25320
-0.13181	1.57960
-0.38683	1.32453
-0.36133	-0.43551
-0.36133	-1.55785
-0.33583	-0.58856
-0.28482	-0.28246
-0.13181	-0.46102
0.42922	0.45726
0.22521	1.22250
0.48022	-0.07840
-0.36133	-0.46102
0.42922	0.27871
1.01576	0.30422
0.96476	0.48277
0.07220	0.71234
0.09770	1.65613
0.09770	-0.02739
-0.99887	-2.39961
0.93925	-1.37929
-0.46334	0.66132
0.68424	0.78886
-1.30489	1.37554
0.60773	0.63582
1.60230	-0.38449
0.17421	0.17668
0.65874	-0.46102
0.45472	0.02363
0.83725	0.78886
-0.89686	0.04914
0.53123	0.48277
-1.58541	-0.58856
-0.08081	0.35523
0.70974	0.15117
0.65874	0.35523
0.32721	0.22769
0.37822	0.71234
0.35272	0.66132
-0.82036	0.96742
-0.66735	-1.45582
0.60773	-2.80773
0.09770	0.32972
-2.12094	1.09496
0.25071	0.76336
0.73524	0.83988
0.65874	0.81437
1.78081	0.96742
1.47479	0.68683
0.25071	0.17668
-0.43783	-0.71609
0.04670	-0.63957
0.32721	-0.46102
-0.05531	0.07465
0.32721	1.35003
-0.61635	0.63582
-0.10631	-0.23145
0.73524	-0.33348
-0.02981	-0.18043
-1.40690	0.30422
0.27621	0.15117
-0.46334	1.40105
-0.08081	-0.48652
1.65330	-0.58856
-0.23382	-0.81812
-2.45246	-0.02739
0.32721	0.96742
2.18883	1.27351
1.16877	0.71234
1.14327	0.55929
1.39828	0.15117
-0.23382	0.96742
0.86275	-0.56305
0.35272	-0.84363
0.45472	-0.74160
-1.25389	0.25320
-1.78942	1.40105
-2.93700	0.53379
0.65874	-0.58856
0.63323	-1.12422
1.11776	-0.15492
1.14327	0.76336
0.78624	1.17148
0.55673	1.22250
-0.18282	0.53379
-0.56534	-1.86394
0.88825	-1.43031
-1.71292	0.45726
-0.71835	1.57960
1.32178	1.57960
1.32178	1.24800
2.41835	0.61031
-0.76936	-1.14973
-1.73842	-1.25176
0.91375	-0.12942
0.73524	0.58480
-0.28482	-0.20594
0.53123	-0.10391
0.19971	0.55929
-1.73842	0.02363
0.19971	0.55929
1.85731	-0.15492
0.45472	0.20219
-0.25932	1.35003
-1.61091	0.55929
-1.45790	-0.76711
-1.33039	-1.22625
1.04126	0.07465
1.78081	0.71234
1.62780	1.50308
1.65330	1.17148
0.53123	-1.48133
0.81175	-2.60367
-2.01894	-0.94566
-4.21208	0.63582
-0.71835	1.52859
1.60230	1.63062
1.70430	0.94191
1.75531	0.45726
1.83181	0.48277
-0.13181	-0.10391
-2.32496	-0.05289
-0.02981	-0.51203
-0.10631	0.38074
0.25071	-0.23145
1.16877	-0.99668
0.17421	-0.15492
-0.02981	-0.10391
0.22521	0.22769
-0.59084	0.76336
0.83725	-1.20074
0.58223	0.76336
-0.28482	0.83988
-1.02437	0.63582
0.48022	0.02363
0.37822	0.50828
0.81175	0.27871
0.65874	0.35523
0.22521	0.50828
0.17421	0.45726
-4.31408	0.25320
1.98482	0.12566
0.12320	-1.22625
0.91375	-0.35899
0.30171	-0.18043
-1.55991	0.40625
1.04126	-0.23145
1.11776	0.58480
1.67880	0.40625
0.99026	1.04394
-0.89686	0.50828
0.58223	0.12566
-0.38683	-0.23145
-0.48884	-0.97117
-0.51434	-0.00188
-0.56534	0.30422
-0.05531	0.22769
-0.00431	0.73785
-0.82036	0.25320
0.02119	-0.18043
0.70974	-0.41000
1.24527	0.15117
0.73524	0.35523
0.60773	0.61031
0.73524	0.30422
-1.02437	-0.02739
-0.71835	-0.00188
-0.43783	-0.56305
0.32721	-0.35899
0.55673	0.35523
0.19971	0.50828
-0.38683	0.50828
-0.33583	0.43176
0.19971	0.35523
0.73524	0.35523
0.50573	0.17668
-0.31033	-0.15492
-0.38683	-0.25695
1.52579	1.17148
1.09226	-0.33348
-1.30489	-0.46102
-3.85505	-3.19035
-0.20832	-0.43551
3.00489	1.27351
1.70430	2.06425
-0.71835	1.35003
-0.13181	1.22250
-0.00431	0.48277
0.99026	1.24800
0.53123	0.43176
1.39828	-1.04770
0.83725	-2.22105
-0.43783	-2.24656
-3.77855	-0.10391
-0.48884	1.45206
1.39828	1.12046
1.47479	0.76336
0.65874	0.55929
0.42922	0.17668
-1.63641	-0.15492
-0.33583	0.35523
0.12320	0.25320
0.53123	-0.05289
0.30171	-0.63957
0.42922	0.27871
-0.00431	0.48277
-0.00431	0.10015
0.22521	-0.02739
0.37822	0.71234
0.60773	0.35523
1.01576	-1.12422
0.22521	-2.24656
-1.50890	0.91640
0.27621	1.78367
0.40372	0.81437
-0.31033	0.43176
0.32721	0.73785
1.60230	0.04914
-0.18282	-0.69059
0.12320	1.45206
-0.94787	0.07465
0.76074	-1.50683
-0.38683	-2.55265
-1.68742	-0.10391
1.93382	1.14597
0.07220	0.96742
-0.84586	0.55929
0.65874	0.38074
0.73524	0.22769
1.72980	0.76336
1.95932	0.63582
-4.16107	-1.20074
-0.20832	-0.97117
1.01576	1.04394
-0.36133	0.61031
0.63323	0.25320
1.50029	-0.79262
0.50573	-0.07840
-0.31033	0.96742
-2.14644	0.07465
-0.02981	-0.35899
1.34728	-0.58856
0.93925	0.53379
-2.35046	-0.05289
1.01576	0.91640
-0.33583	0.30422
1.34728	0.27871
0.83725	1.06945
0.91375	1.12046
0.55673	-0.99668
0.32721	-1.58336
0.81175	-0.28246
-0.25932	0.71234
-0.89686	0.76336
-0.84586	0.15117
-0.99887	0.66132
-0.82036	-0.05289
1.52579	-0.69059
1.01576	0.27871
1.39828	0.96742
0.14870	0.17668
-0.33583	0.38074
-1.43240	-1.40480
0.35272	-0.35899
0.25071	-0.69059
0.50573	0.63582
-0.15732	1.37554
-0.79486	0.78886
0.86275	0.50828
1.78081	0.07465
0.99026	0.68683
-0.13181	0.76336
0.76074	-0.71609
-4.67111	-1.07320
0.19971	-1.91496
0.68424	-0.48652
1.11776	0.91640
0.25071	0.25320
0.30171	0.71234
0.07220	0.27871
-0.92237	1.24800
1.16877	0.63582
0.65874	-0.25695
0.04670	-0.61406
-0.08081	-0.18043
0.48022	-0.25695
0.42922	-0.15492
0.63323	0.04914
-0.20832	0.30422
-1.61091	0.76336
0.45472	0.63582
1.01576	0.81437
0.60773	-0.46102
0.04670	-0.56305
0.76074	-0.20594
-1.76392	-1.07320
-4.72211	0.27871
0.55673	1.27351
2.54586	0.40625
2.18883	0.48277
2.11233	0.63582
1.21977	0.81437
0.22521	1.12046
-0.66735	-0.51203
0.32721	-1.60887
-1.17738	-0.99668
-1.25389	0.73785
-0.33583	0.76336
-0.46334	-0.00188
-1.22839	-0.84363
0.93925	-0.00188
1.09226	0.30422
2.36734	0.73785
0.65874	0.35523
-0.20832	0.43176
-3.34502	0.43176
-1.84042	0.40625
1.32178	-0.84363
1.85731	-1.22625
0.53123	0.15117
-0.05531	0.89089
1.80631	1.12046
1.42379	0.38074
0.76074	0.15117
-0.23382	0.96742
-0.97337	0.40625
-0.15732	-0.51203
1.32178	-1.91496
-0.79486	-0.43551
-0.05531	1.12046
-0.28482	0.76336
-0.48884	0.10015
-1.45790	0.38074
-0.18282	0.71234
1.19427	0.94191
1.04126	-0.02739
1.06676	-0.10391
1.06676	0.45726
0.55673	0.76336
-0.69285	-0.35899
-1.53441	-1.32828
1.09226	-0.66508
1.27078	0.30422
0.30171	0.83988
-0.15732	1.19699
-0.97337	0.43176
-0.43783	-0.66508
0.17421	-0.89465
-0.48884	1.06945
1.78081	0.71234
0.96476	1.55410
-0.71835	0.22769
0.70974	-0.81812
-0.38683	-1.22625
0.12320	0.27871
0.32721	0.15117
0.32721	0.30422
0.42922	0.25320
-0.89686	0.53379
-3.42153	1.40105
-0.02981	0.81437
1.75531	-1.32828
1.95932	-2.14453
0.70974	0.71234
-0.33583	0.89089
-0.59084	-0.30797
1.09226	1.37554
0.73524	1.27351
0.27621	-0.84363
0.19971	-0.58856
-0.05531	-0.53754
-0.41233	0.58480
-0.18282	1.17148
0.04670	1.19699
0.17421	-0.20594
-0.08081	0.10015
-0.15732	-0.05289
0.17421	-0.48652
0.14870	-0.92016
-0.10631	-0.53754
-0.28482	0.12566
0.12320	0.73785
1.57679	1.04394
-0.46334	0.10015
0.42922	0.78886
-0.76936	0.43176
-0.82036	-0.35899
-1.81492	-0.38449
2.01032	0.27871
2.29084	0.48277
1.21977	0.61031
0.40372	0.45726
0.22521	-0.12942
0.83725	0.43176
-0.18282	-1.25176
0.30171	-0.18043
-1.50890	0.61031
-0.51434	0.15117
1.50029	0.68683
-0.56534	0.27871
-3.34502	-0.99668
0.76074	0.20219
-0.33583	1.09496
0.86275	0.30422
1.27078	0.73785
1.70430	0.38074
1.09226	0.30422
0.73524	1.52859
-0.23382	-0.63957
-0.79486	-0.30797
-0.18282	-1.37929
0.32721	-0.61406
0.40372	0.99292
-0.33583	0.76336
-0.18282	0.61031
0.12320	0.43176
0.48022	0.73785
0.60773	0.40625
1.01576	-0.84363
0.22521	-1.48133
1.04126	-1.58336
-1.53441	0.66132
-0.94787	0.91640
0.27621	0.81437
-3.54903	0.83988
0.60773	0.81437
2.72437	0.12566
2.46935	0.27871
0.27621	-0.23145
-0.92237	-0.23145
1.01576	-0.48652
1.52579	0.25320
-0.05531	0.35523
-0.23382	0.40625
-0.20832	0.66132
1.14327	0.30422
-2.93700	-0.41000
1.11776	-0.51203
0.58223	-0.02739
-6.02269	0.63582
-0.25932	0.04914
2.87738	0.30422
2.95388	0.73785
2.23984	0.07465
-0.10631	0.40625
0.40372	-0.23145
-1.91693	0.22769
-2.52897	-0.23145
1.21977	-0.53754
1.21977	-1.45582
0.96476	0.86539
0.70974	1.83468
0.02119	-0.23145
-0.18282	-1.43031
-0.31033	0.04914
-0.08081	0.76336
0.14870	0.30422
-0.13181	0.38074
-0.33583	1.04394
-0.00431	0.66132
0.12320	1.09496
-0.48884	0.15117
0.45472	-0.81812
0.91375	-1.02219
-0.59084	-0.94566
0.76074	-0.15492
1.32178	0.30422
-0.61635	0.25320
0.58223	0.63582
0.91375	0.76336
-0.08081	0.40625
1.75531	0.12566
0.40372	0.50828
-2.86049	-0.05289
-1.94243	0.15117
-0.46334	-0.53754
1.65330	-0.38449
-0.74385	0.04914
2.03582	0.86539
1.95932	-0.05289
0.58223	-0.05289
-0.13181	0.81437
-0.59084	0.27871
0.99026	-0.00188
0.58223	0.55929
-0.89686	-0.41000
-0.76936	-0.38449
-0.20832	0.02363
-0.28482	0.66132
-0.08081	0.58480
0.25071	0.66132
0.45472	1.06945
0.07220	-0.35899
0.35272	-0.46102
0.04670	-1.20074
0.14870	0.27871
0.76074	0.81437
0.50573	-0.02739
0.53123	0.68683
0.04670	-0.86914
-0.56534	0.32972
-0.59084	0.04914
1.01576	0.27871
0.91375	0.22769
0.07220	1.17148
-1.81492	0.89089
0.96476	-0.35899
0.58223	-0.43551
1.01576	0.25320
-0.69285	-0.00188
0.02119	-1.12422
0.53123	-0.58856
0.22521	1.17148
0.27621	1.55410
0.63323	0.99292
-0.13181	0.10015
0.27621	-0.69059
-1.50890	0.45726
1.72980	0.02363
0.55673	-0.05289
-0.48884	0.38074
0.42922	-0.10391
-1.27939	-0.46102
0.17421	-0.00188
0.99026	0.38074
0.19971	-0.05289
-0.92237	0.43176
0.30171	0.53379
0.17421	0.30422
0.93925	-0.79262
0.65874	0.17668
-0.61635	0.43176
-0.25932	-0.86914
0.58223	0.63582
0.93925	0.25320
0.32721	0.53379
0.02119	0.50828
-0.05531	0.53379
-0.08081	0.35523
-0.00431	0.20219
0.02119	0.07465
0.12320	-0.02739
0.07220	-0.20594
0.27621	0.20219
-0.59084	0.10015
-0.20832	-1.07320
0.93925	-0.63957
0.78624	0.83988
0.58223	0.53379
-1.76392	0.76336
0.60773	-0.30797
-2.17195	-0.02739
0.40372	-0.58856
1.65330	0.86539
2.54586	-0.28246
0.91375	0.55929
0.60773	0.83988
0.93925	0.86539
0.68424	0.17668
-0.94787	-0.18043
-1.25389	-0.07840
-1.02437	-0.02739
0.55673	0.15117
-1.55991	0.61031
-1.91693	-0.46102
1.04126	-0.48652
2.01032	-0.00188
0.68424	0.02363
-0.59084	0.25320
1.44929	0.12566
0.81175	-0.07840
0.17421	0.32972
0.53123	0.40625
0.30171	0.10015
-0.08081	0.27871
-0.13181	0.40625
-0.31033	0.04914
-0.38683	0.15117
-0.28482	-0.89465
-0.18282	0.10015
0.12320	0.91640
0.32721	1.29902
0.30171	0.45726
0.14870	0.20219
0.22521	0.30422
0.19971	0.68683
0.35272	-1.81293
0.50573	-0.86914
0.83725	0.45726
-0.15732	0.89089
0.09770	0.55929
0.40372	1.01843
0.50573	0.04914
0.53123	-0.69059
0.65874	-0.25695
-3.49803	0.78886
-0.02981	0.61031
1.85731	-1.12422
1.83181	-1.17523
0.45472	-0.41000
-2.19745	1.06945
-1.15188	0.58480
1.06676	0.68683
1.09226	0.86539
1.39828	0.83988
0.96476	0.73785
1.24527	0.10015
0.32721	-0.43551
-0.53984	0.10015
-1.68742	-0.18043
-4.23758	-0.81812
-0.56534	0.10015
2.44385	-0.02739
2.36734	0.27871
1.04126	-0.02739
0.63323	0.15117
0.65874	0.10015
-0.53984	0.63582
0.07220	0.58480
-0.13181	0.38074
-0.84586	-0.53754
-0.25932	-0.81812
0.53123	0.40625
-0.08081	1.09496
-0.13181	0.48277
0.27621	0.38074
0.53123	0.27871
0.73524	-0.46102
0.42922	-1.48133
0.32721	0.83988
-0.08081	0.73785
0.12320	0.17668
0.30171	-0.56305
-0.69285	0.04914
-0.13181	-0.07840
0.70974	0.15117
-0.18282	-0.48652
1.09226	0.10015
0.83725	2.03874
-0.56534	0.30422
-3.29402	-0.23145
-0.48884	0.30422
0.30171	-0.10391
2.29084	0.22769
2.49485	-0.20594
-0.97337	-0.69059
1.85731	-1.12422
1.47479	1.47757
-1.91693	-0.00188
-0.92237	0.71234
-0.08081	-0.61406
0.55673	-0.07840
0.35272	1.14597
0.19971	0.91640
0.19971	0.53379
0.42922	0.94191
-0.53984	0.17668
0.50573	-0.23145
-0.66735	-0.30797
-1.81492	-0.23145
0.35272	-0.61406
0.81175	-0.33348
0.40372	0.40625
-0.05531	0.40625
0.55673	0.10015
0.93925	0.22769
0.73524	-0.10391
-0.36133	-1.20074
-0.43783	0.10015
-0.23382	1.27351
0.88825	1.35003
1.16877	0.91640
-0.38683	1.22250
0.42922	-0.92016
-1.43240	-0.84363
-0.02981	-1.32828
1.39828	0.15117
-2.04444	0.76336
-1.22839	0.68683
1.70430	1.80917
1.75531	0.68683
0.78624	-1.30277
-0.64185	-2.06800
0.91375	0.38074
1.01576	0.78886
0.27621	1.19699
-0.99887	0.30422
-0.94787	0.66132
0.70974	-0.46102
-1.02437	-0.46102
-0.36133	-0.63957
0.93925	0.94191
1.34728	0.94191
1.21977	0.12566
0.37822	-0.41000
-0.28482	-0.05289
-0.64185	0.40625
0.45472	0.38074
0.63323	0.71234
-0.08081	0.35523
-1.58541	-0.76711
0.17421	0.27871
0.12320	0.55929
-0.00431	-0.23145
-0.25932	-0.76711
0.48022	-0.46102
-0.05531	-0.02739
1.34728	-0.28246
-0.79486	0.71234
1.37278	0.99292
0.37822	0.83988
1.34728	0.86539
0.27621	0.55929
-2.52897	-0.25695
-0.31033	-0.10391
0.93925	-0.07840
0.88825	-0.07840
1.21977	0.20219
0.63323	-0.33348
0.22521	-0.43551
0.25071	-0.12942
-1.76392	0.63582
-1.76392	0.35523
-0.36133	0.30422
0.99026	0.10015
-0.08081	-0.20594
-0.41233	0.58480
0.70974	0.15117
1.06676	0.38074
0.88825	0.07465
0.81175	-0.86914
1.04126	0.43176
0.07220	0.25320
-0.64185	0.43176
0.68424	-0.18043
0.27621	0.68683
-0.76936	0.66132
0.12320	1.22250
-0.08081	-0.86914
-0.61635	-1.32828
-0.02981	0.38074
-1.20288	0.55929
0.35272	-0.05289
1.57679	-0.05289
1.24527	0.04914
0.37822	0.53379
-0.69285	0.53379
0.12320	-0.99668
0.02119	-0.99668
0.93925	-0.76711
-0.08081	0.53379
-1.48340	1.32453
0.22521	0.35523
0.63323	-0.07840
0.83725	0.30422
0.88825	0.86539
1.70430	0.50828
-1.22839	0.43176
-1.12638	0.22769
0.22521	0.22769
0.22521	0.07465
0.32721	0.12566
0.07220	-0.20594
0.88825	-0.41000
0.12320	-0.05289
-0.02981	-0.35899
2.31634	0.63582
-1.71292	-0.48652
-3.70204	0.30422
-0.84586	0.07465
-0.10631	0.17668
2.57136	0.43176
2.03582	0.55929
2.39285	0.32972
1.80631	0.38074
1.88281	1.32453
-0.00431	-0.23145
-5.35965	0.10015
-2.32496	-0.69059
-1.12638	-1.12422
0.04670	-0.46102
1.34728	1.06945
1.65330	0.61031
1.50029	0.04914
0.93925	0.71234
0.32721	0.55929
0.50573	0.91640
0.17421	-0.00188
-0.41233	-1.27726
-1.73842	-0.18043
-1.10088	0.25320
-0.41233	-0.51203
0.12320	-0.35899
1.01576	0.71234
1.06676	1.17148
0.81175	0.32972
0.73524	0.61031
0.48022	-0.33348
0.81175	-0.84363
-0.05531	-0.05289
-0.43783	0.71234
-0.89686	-0.00188
-3.34502	0.55929
0.99026	0.30422
1.24527	0.58480
2.16333	0.25320
2.72437	-0.00188
-0.23382	-0.61406
-3.19201	-0.07840
-2.98800	0.10015
-0.53984	0.22769
3.03039	0.38074
2.13783	0.22769
2.29084	0.27871
1.60230	0.15117
0.32721	0.07465
-0.66735	0.04914
-1.61091	-0.35899
-2.42696	-0.66508
0.35272	0.04914
-0.13181	0.07465
-1.22839	1.45206
0.88825	1.27351
0.68424	-0.28246
0.60773	-1.17523
-0.25932	-0.05289
0.02119	0.55929
0.83725	1.22250
0.93925	0.83988
0.40372	-0.38449
-0.08081	-1.07320
-0.05531	0.78886
1.04126	-0.66508
-0.02981	-1.02219
-0.31033	-0.56305
-0.56534	0.71234
-1.84042	0.99292
1.65330	1.14597
1.93382	0.58480
0.58223	-0.05289
-0.99887	0.30422
-0.20832	0.96742
0.93925	-0.05289
1.57679	-1.12422
-0.28482	0.43176
-1.17738	-0.38449
-1.10088	-0.48652
-0.02981	-0.92016
-0.00431	-0.15492
0.81175	0.32972
0.76074	1.17148
-0.41233	0.94191
-0.89686	0.27871
-0.89686	0.43176
1.44929	0.27871
1.16877	0.45726
1.50029	0.63582
1.06676	-0.12942
0.07220	-0.61406
-2.12094	-0.76711
-4.00806	-0.56305
0.40372	0.61031
2.16333	0.89089
2.03582	0.55929
-0.00431	0.94191
0.32721	-0.05289
1.11776	-0.15492
-0.74385	0.45726
0.22521	-1.25176
-0.05531	-1.37929
0.12320	-0.33348
0.02119	1.68163
0.14870	1.27351
-0.02981	0.73785
-0.31033	0.20219
-0.41233	0.32972
-0.15732	0.55929
-0.28482	-0.46102
0.55673	-1.48133
1.72980	1.14597
-1.63641	1.14597
-1.68742	-0.35899
0.37822	-2.45062
0.12320	1.06945
1.80631	0.10015
2.59686	0.02363
1.90832	-0.20594
-0.08081	1.35003
-1.30489	0.86539
-0.38683	0.53379
-0.99887	0.02363
-2.17195	0.96742
1.57679	0.04914
1.14327	-0.25695
0.37822	-0.89465
-0.48884	0.20219
0.19971	0.25320
0.88825	-0.33348
1.14327	0.30422
-0.33583	0.15117
-1.61091	0.15117
-0.48884	0.25320
0.32721	0.02363
0.37822	-0.12942
-1.94243	1.42656
0.78624	0.10015
1.27078	-0.84363
1.32178	-0.79262
-0.71835	0.50828
0.78624	0.32972
0.45472	0.96742
0.07220	0.43176
-0.23382	0.45726
0.63323	0.12566
-0.97337	-0.33348
-0.38683	-0.18043
0.12320	0.38074
0.40372	0.73785
0.42922	0.15117
1.37278	0.55929
0.93925	-0.63957
0.60773	-0.25695
-0.13181	-0.74160
-0.53984	1.83468
-0.08081	0.86539
-0.28482	-1.53234
-0.87136	-1.55785
0.17421	1.24800
0.32721	0.35523
-0.00431	0.38074
-0.43783	0.22769
-0.20832	0.10015
0.42922	0.43176
1.06676	1.22250
1.09226	0.17668
0.40372	0.30422
0.14870	-0.33348
-0.71835	-0.07840
-1.50890	0.15117
0.88825	0.12566
0.55673	0.04914
-0.20832	-0.56305
0.81175	0.48277
1.47479	0.40625
1.27078	0.61031
-0.76936	-0.48652
-0.79486	-0.30797
-0.61635	0.35523
0.19971	0.30422
-0.48884	0.32972
-0.20832	0.12566
0.73524	-0.18043
0.30171	0.22769
0.19971	0.38074
0.04670	0.45726
0.81175	0.15117
0.99026	0.12566
-0.94787	0.25320
0.25071	0.43176
-0.69285	0.25320
1.52579	-0.63957
0.58223	-0.61406
0.25071	0.89089
-0.10631	1.19699
-0.69285	0.04914
-0.71835	-1.99148
0.40372	0.15117
0.50573	1.12046
-0.46334	-0.05289
0.35272	-0.28246
1.04126	0.55929
1.01576	0.68683
0.83725	0.66132
0.60773	0.04914
-0.31033	0.53379
-0.69285	0.43176
-1.78942	-0.30797
-0.08081	-0.10391
0.48022	0.20219
0.35272	1.35003
1.01576	0.27871
0.93925	-0.25695
1.09226	-1.78742
-0.89686	-0.28246
-0.31033	0.83988
0.32721	0.38074
-0.00431	0.48277
-0.64185	0.35523
-0.61635	0.43176
0.58223	0.17668
1.80631	0.58480
1.29628	-0.61406
-0.25932	-0.74160
-2.83499	0.17668
0.02119	1.14597
1.01576	0.55929
1.24527	0.55929
1.50029	0.17668
-0.66735	0.12566
-1.43240	0.15117
0.19971	-0.07840
1.39828	0.25320
-0.23382	0.38074
0.07220	0.02363
0.04670	-0.79262
1.01576	-0.25695
0.17421	-0.25695
-0.64185	0.25320
-0.38683	0.71234
0.12320	0.96742
0.45472	-0.35899
0.83725	1.12046
0.58223	-0.43551
1.27078	-1.14973
-1.53441	-1.37929
-0.82036	1.06945
0.40372	0.83988
0.40372	1.32453
-1.73842	1.22250
-0.20832	-0.66508
1.39828	-0.07840
1.65330	0.43176
0.78624	0.15117
0.02119	0.04914
-0.94787	-0.15492
-0.00431	-0.58856
1.21977	-0.63957
0.58223	0.68683
-0.33583	0.22769
-0.25932	0.58480
0.32721	0.38074
0.42922	0.48277
0.93925	0.04914
-0.66735	-0.10391
-0.10631	0.35523
-0.00431	-0.35899
-0.08081	0.10015
-0.92237	-0.05289
-0.53984	0.45726
0.07220	1.70714
-0.71835	-0.25695
0.73524	-1.09871
0.70974	-0.92016
1.04126	0.17668
1.67880	0.30422
0.22521	0.66132
0.02119	0.76336
0.17421	0.61031
0.55673	-0.10391
1.04126	0.15117
-2.12094	0.27871
-1.99343	0.04914
-0.38683	0.02363
0.50573	-0.58856
1.27078	-0.30797
0.86275	-0.66508
0.27621	0.63582
0.48022	0.91640
-0.87136	0.96742
-0.18282	-0.00188
1.04126	0.04914
0.63323	-0.53754
-0.33583	0.04914
0.83725	0.58480
-1.25389	0.22769
-0.46334	0.58480
0.60773	1.04394
0.55673	-0.00188
0.37822	-0.53754
0.53123	-0.25695
0.12320	0.10015
0.22521	0.22769
0.53123	0.22769
0.07220	0.50828
0.14870	-0.07840
-0.43783	0.22769
-0.13181	0.43176
1.55129	0.43176
-1.61091	0.27871
0.30171	0.10015
-0.36133	-0.30797
0.93925	0.48277
1.50029	0.71234
-0.56534	-0.51203
-2.45246	-0.12942
-0.18282	-0.38449
0.83725	0.07465
0.73524	-0.12942
0.32721	-0.02739
1.09226	0.81437
-0.00431	0.81437
1.14327	0.27871
1.44929	-0.07840
-0.10631	0.30422
-0.51434	0.17668
-0.15732	-0.05289
-1.22839	-0.30797
-0.10631	0.45726
-0.99887	-0.05289
-0.18282	0.32972
0.83725	-0.76711
1.04126	-0.46102
0.55673	0.66132
0.12320	0.43176
-0.56534	0.43176
-1.30489	-1.17523
0.60773	0.68683
0.40372	1.24800
0.12320	0.35523
0.83725	0.17668
1.06676	0.35523
0.30171	0.30422
0.30171	0.20219
0.25071	-0.28246
-0.08081	0.20219
0.22521	0.81437
0.88825	-0.33348
-0.05531	-1.25176
-0.28482	-0.53754
-1.07538	0.17668
-1.35589	0.04914
-0.48884	0.10015
-0.59084	1.24800
1.37278	0.81437
2.31634	0.68683
2.16333	-0.33348
-2.14644	0.20219
-2.45246	-0.35899
0.25071	-0.51203
1.29628	-0.15492
2.77537	0.68683
-0.18282	0.40625
0.60773	-0.10391
-0.79486	-0.48652
-0.05531	0.53379
0.55673	0.30422
-0.38683	0.27871
-0.51434	0.10015
0.07220	0.25320
-1.45790	0.10015
0.88825	0.45726
0.68424	-0.30797
0.45472	-0.18043
1.01576	0.10015
0.76074	-0.07840
-0.38683	0.89089
-2.42696	0.15117
-0.25932	-0.46102
1.27078	-0.38449
1.21977	0.15117
0.93925	0.71234
0.68424	0.83988
-0.05531	-0.02739
0.76074	0.20219
-0.05531	0.40625
-1.10088	-0.20594
-1.43240	-0.00188
-1.50890	-0.20594
0.86275	0.04914
1.27078	0.76336
1.55129	0.68683
1.52579	0.10015
1.01576	0.02363
-0.61635	-0.20594
-2.47797	0.10015
0.96476	0.66132
-0.79486	-0.38449
0.27621	0.35523
0.81175	0.53379
0.70974	-0.02739
0.22521	-0.15492
-0.02981	0.07465
0.32721	0.43176
1.75531	0.61031
-0.43783	-0.86914
-1.50890	-0.81812
-1.25389	-0.02739
0.02119	0.68683
1.24527	0.53379
1.11776	0.30422
0.70974	0.96742
-0.36133	0.35523
0.25071	0.25320
0.17421	0.04914
-0.18282	0.04914
0.17421	-0.07840
0.27621	0.12566
0.12320	-0.12942
0.50573	-0.86914
-0.66735	-1.48133
-2.55447	0.02363
0.42922	1.24800
-0.13181	1.37554
1.04126	0.89089
1.85731	0.35523
0.78624	0.35523
0.25071	0.12566
2.29084	-0.02739
1.09226	-0.28246
0.09770	0.12566
-3.21751	0.17668
-2.65648	-0.48652
-0.13181	0.10015
0.99026	-0.43551
-0.48884	-0.38449
1.11776	0.12566
-0.00431	0.89089
0.73524	0.40625
1.01576	0.25320
1.01576	-0.05289
0.91375	-0.12942
-0.25932	-0.12942
-0.71835	0.86539
0.42922	0.55929
-0.28482	0.38074
-0.20832	0.22769
0.30171	0.22769
0.32721	0.73785
0.19971	0.48277
-0.28482	-1.25176
0.63323	-1.17523
0.42922	0.71234
-0.53984	1.24800
-1.17738	-0.38449
0.35272	-0.74160
0.58223	-0.66508
0.45472	0.20219
1.16877	1.88570
-0.08081	0.86539
-0.43783	0.66132
0.99026	-0.74160
-0.79486	0.12566
1.11776	0.35523
3.43841	0.71234
0.68424	-0.20594
-1.10088	0.45726
-2.06994	-0.10391
0.76074	-0.07840
-2.83499	-1.50683
-2.22295	-0.53754
1.78081	0.25320
1.39828	0.89089
0.63323	0.78886
0.76074	0.45726
0.53123	0.27871
0.53123	0.32972
-0.33583	0.04914
0.35272	0.25320
0.42922	0.32972
0.73524	0.32972
-0.23382	-0.30797
-1.20288	0.30422
-0.33583	1.52859
-0.08081	-0.10391
0.32721	-1.63437
-0.64185	-0.86914
-0.20832	0.50828
-0.51434	-0.02739
1.80631	0.71234
0.48022	0.12566
0.73524	0.10015
0.76074	0.96742
0.40372	0.48277
0.04670	-0.25695
0.63323	-0.69059
-0.25932	-0.25695
-0.41233	0.71234
-0.13181	0.76336
-0.13181	1.14597
0.53123	0.32972
-2.57997	-0.43551
0.12320	0.53379
1.78081	0.63582
1.83181	-0.41000
0.65874	-1.35379
-0.82036	0.40625
1.14327	0.40625
-0.79486	0.35523
-1.02437	-0.23145
1.06676	-0.23145
1.50029	1.04394
-0.69285	0.58480
0.37822	0.50828
0.04670	-0.12942
0.04670	-0.38449
0.32721	-0.20594
0.02119	0.30422
-0.13181	0.50828
1.65330	0.40625
-2.47797	0.76336
1.70430	0.71234
-0.36133	-0.28246
-0.82036	-1.02219
-0.87136	-0.18043
-0.05531	0.50828
0.63323	0.10015
1.67880	0.17668
1.55129	0.04914
-1.53441	0.71234
0.37822	0.15117
1.44929	-0.69059
-0.08081	-0.61406
-2.37596	0.53379
-0.99887	0.58480
1.70430	1.55410
1.98482	0.78886
2.13783	-1.65988
0.12320	-0.56305
-4.39059	0.94191
0.58223	1.17148
0.76074	0.96742
1.19427	0.02363
1.09226	-1.25176
0.83725	-0.07840
0.65874	-0.07840
-2.09544	-0.35899
-2.19745	-0.63957
0.68424	0.66132
0.83725	1.01843
0.60773	0.48277
0.32721	0.53379
-0.00431	0.12566
0.40372	-0.15492
0.58223	-0.71609
0.48022	0.04914
-0.99887	0.10015
-0.23382	-0.02739
0.32721	-0.28246
-0.25932	1.09496
0.25071	0.20219
0.42922	0.30422
0.81175	0.66132
0.73524	0.15117
-1.71292	-0.48652
-0.71835	-0.15492
0.17421	0.55929
0.86275	0.83988
1.04126	-0.81812
1.50029	-0.35899
-0.53984	0.04914
-0.79486	0.99292
-1.22839	1.09496
2.59686	0.99292
0.19971	-0.20594
-1.53441	-0.10391
0.50573	0.15117
2.52035	-0.30797
0.45472	0.17668
-0.59084	-0.53754
-0.38683	-0.20594
-0.38683	-0.46102
-0.31033	0.30422
-0.28482	0.55929
-1.50890	0.27871
-1.50890	0.35523
-0.41233	0.53379
0.88825	-0.05289
2.74987	0.17668
1.47479	0.38074
-0.20832	0.55929
-1.12638	0.02363
-0.64185	-0.00188
1.50029	0.45726
0.76074	0.91640
-0.48884	-0.25695
-0.97337	-1.60887
0.09770	-1.53234
0.58223	0.55929
0.58223	1.17148
0.37822	1.12046
0.68424	0.55929
0.91375	-0.53754
-0.71835	0.40625
-0.79486	0.04914
-0.28482	0.45726
0.02119	1.12046
0.40372	0.45726
0.04670	-1.12422
-0.05531	-0.99668
-0.38683	-0.35899
0.30171	0.61031
0.42922	0.53379
-0.51434	-0.43551
0.58223	0.12566
1.95932	0.71234
-1.27939	1.01843
-0.74385	0.12566
0.83725	0.02363
0.83725	-0.00188
0.99026	-0.05289
-0.56534	-0.02739
1.67880	0.04914
0.32721	0.58480
-0.38683	0.43176
-0.15732	0.15117
1.24527	-0.28246
-2.01894	-0.38449
-2.70748	-0.61406
1.37278	0.81437
2.62236	0.66132
-2.01894	0.32972
-0.20832	-0.00188
1.32178	-0.25695
0.83725	0.58480
-0.97337	0.15117
0.02119	0.22769
0.37822	0.22769
1.14327	0.10015
1.32178	1.24800
0.45472	0.04914
0.40372	-0.53754
-1.33039	-1.17523
-1.61091	0.20219
0.86275	0.66132
1.67880	0.45726
0.78624	-0.25695
0.76074	0.50828
-1.33039	0.53379
0.48022	0.20219
-0.59084	-0.35899
-2.14644	-0.61406
-0.84586	0.17668
1.75531	0.89089
2.80087	0.32972
0.58223	0.07465
-0.97337	-0.35899
-0.00431	0.35523
0.32721	0.73785
0.25071	0.25320
0.73524	0.27871
0.78624	0.07465
-3.57454	0.10015
0.48022	0.04914
0.04670	-0.15492
0.50573	0.50828
-0.92237	-0.76711
0.45472	-0.97117
-0.08081	0.02363
0.73524	0.10015
2.23984	-0.66508
1.90832	0.17668
0.83725	1.45206
0.35272	1.42656
-1.20288	0.76336
-1.53441	0.04914
0.53123	0.15117
-2.68198	0.04914
0.30171	0.17668
0.70974	-0.15492
0.60773	0.02363
0.37822	0.02363
0.12320	0.20219
0.09770	-0.15492
0.70974	0.10015
0.30171	0.17668
0.65874	0.02363
0.40372	0.02363
-0.51434	-0.66508
0.37822	-0.02739
0.76074	2.03874
-1.15188	0.45726
-1.94243	-1.37929
0.58223	-2.22105
0.73524	0.58480
2.13783	0.94191
0.32721	1.19699
-0.05531	0.94191
-0.25932	0.48277
-0.87136	-0.12942
0.60773	0.32972
0.17421	0.20219
-0.08081	0.35523
1.21977	-0.12942
0.02119	-0.51203
-1.48340	-0.25695
0.07220	0.53379
1.14327	0.43176
-0.18282	-0.02739
-1.99343	-0.25695
1.19427	-0.30797
0.93925	-0.38449
1.67880	0.45726
0.83725	0.45726
0.70974	0.81437
0.04670	-0.02739
-0.23382	0.40625
-0.20832	0.02363
-1.43240	-0.18043
-1.96793	0.12566
-0.76936	0.40625
0.25071	0.40625
0.96476	0.02363
1.09226	0.04914
1.19427	-0.81812
0.99026	0.15117
0.12320	0.55929
-0.46334	0.89089
-0.13181	0.45726
-0.82036	-0.51203
-0.10631	-0.25695
0.83725	0.58480
0.35272	0.22769
0.81175	0.02363
0.65874	-0.56305
0.02119	0.25320
0.12320	0.61031
0.68424	1.01843
-0.48884	0.78886
-0.87136	-0.18043
-0.59084	-0.99668
-0.69285	-0.84363
0.60773	-0.28246
-0.61635	0.58480
0.58223	1.45206
1.72980	1.32453
1.44929	0.66132
0.73524	-0.46102
-0.31033	0.07465
-0.92237	-0.23145
-0.00431	0.15117
0.37822	-0.38449
1.57679	0.04914
-0.61635	0.63582
-1.30489	0.40625
-0.02981	0.12566
1.42379	-0.05289
0.37822	0.07465
-1.10088	-0.25695
2.80087	0.12566
1.39828	0.55929
-3.93156	0.17668
-0.76936	0.04914
-0.02981	0.27871
-0.23382	0.10015
0.96476	-0.18043
1.39828	-0.46102
1.65330	0.73785
1.09226	0.22769
0.58223	0.02363
-0.05531	-0.05289
-1.38139	0.45726
-2.01894	0.58480
1.16877	0.27871
0.68424	0.40625
0.02119	-0.84363
0.12320	-1.40480
-0.59084	-0.86914
-0.43783	0.68683
-0.02981	1.83468
0.60773	0.71234
0.58223	0.76336
0.53123	1.40105
0.50573	-0.12942
0.30171	-1.78742
0.99026	-1.04770
0.14870	0.66132
0.50573	0.45726
-1.71292	0.20219
-0.99887	0.55929
-0.20832	0.58480
1.24527	-0.76711
0.42922	-0.66508
-2.22295	-0.02739
3.08139	0.04914
2.41835	0.89089
-2.35046	0.50828
-0.79486	0.43176
1.04126	0.55929
2.16333	0.07465
0.55673	0.48277
-0.38683	-0.30797
-0.28482	-0.00188
-0.64185	-0.02739
-1.55991	-0.00188
-0.23382	0.81437
0.63323	0.45726
1.83181	0.10015
0.50573	-0.28246
-2.68198	-0.25695
-3.09000	-0.25695
-0.28482	0.25320
2.16333	0.27871
2.34184	0.38074
1.62780	-0.05289
1.37278	0.10015
1.80631	0.10015
-0.79486	0.76336
-0.89686	-0.15492
0.45472	-0.33348
-1.35589	-0.74160
-0.51434	-0.00188
0.30171	0.71234
0.12320	1.01843
0.12320	0.89089
-0.71835	0.55929
-0.10631	0.32972
-0.00431	0.12566
0.76074	-0.25695
0.73524	-0.05289
0.35272	0.10015
0.48022	-1.32828
0.68424	-0.76711
-2.12094	-0.48652
-0.92237	0.71234
1.01576	0.50828
1.34728	0.43176
-0.31033	0.96742
1.16877	0.66132
1.44929	-0.05289
0.25071	-0.63957
-2.70748	0.22769
-0.89686	0.55929
3.36191	0.76336
-0.05531	0.20219
0.96476	-0.61406
-0.64185	-0.74160
-1.45790	0.45726
1.27078	0.61031
0.07220	0.25320
-1.61091	-0.02739
0.65874	-0.02739
1.90832	0.22769
-0.71835	0.27871
-3.26852	0.07465
1.27078	-0.23145
0.58223	-0.38449
0.65874	-0.02739
0.65874	0.02363
0.25071	0.58480
1.67880	0.83988
0.07220	-0.30797
