0.25071	0.27871
0.22521	0.20219
-0.00431	0.20219
-0.13181	0.17668
-0.00431	0.04914
-0.00431	0.04914
0.32721	0.07465
0.32721	-0.00188
0.17421	-0.00188
0.12320	0.68683
0.04670	0.27871
0.17421	-0.15492
0.19971	-0.02739
-0.10631	0.04914
-0.23382	0.38074
0.22521	0.43176
0.30171	0.32972
0.35272	0.04914
0.48022	-0.02739
0.30171	0.30422
0.17421	0.04914
0.19971	-0.46102
-0.02981	0.73785
-0.71835	0.40625
0.04670	-0.00188
0.37822	0.04914
0.30171	-0.05289
0.09770	0.20219
0.22521	0.45726
0.30171	0.43176
0.40372	0.15117
0.19971	0.02363
0.07220	-0.12942
-0.13181	0.35523
0.09770	-0.12942
0.30171	-0.25695
0.22521	-0.28246
0.02119	-0.05289
0.09770	0.35523
0.17421	0.55929
-0.08081	0.55929
0.12320	0.40625
0.12320	0.35523
-0.02981	0.15117
0.09770	0.02363
0.27621	-0.02739
0.35272	-0.05289
0.35272	-0.02739
0.35272	0.25320
0.17421	-0.15492
0.07220	0.07465
0.07220	0.25320
-0.20832	0.02363
-0.15732	0.20219
-0.05531	0.53379
0.14870	0.15117
0.37822	0.02363
0.32721	0.02363
0.32721	0.45726
0.45472	0.76336
0.17421	0.12566
-0.00431	-0.25695
-0.02981	-0.51203
-0.18282	0.78886
-0.25932	0.83988
-0.02981	-0.61406
0.48022	-1.58336
0.48022	-0.41000
0.40372	0.86539
0.27621	0.99292
0.27621	1.12046
0.07220	0.94191
-0.51434	0.45726
0.09770	-0.10391
0.30171	-0.61406
0.32721	-0.76711
0.30171	0.07465
0.09770	0.12566
-0.08081	0.25320
-0.18282	0.58480
-0.02981	0.30422
0.27621	0.20219
0.25071	0.30422
0.12320	-0.02739
0.25071	0.07465
0.14870	0.04914
0.04670	0.27871
0.09770	0.20219
0.53123	-0.28246
0.55673	0.15117
0.30171	-0.07840
0.14870	0.02363
0.09770	-0.00188
-0.28482	0.63582
-0.48884	0.17668
0.45472	-0.58856
0.32721	-0.69059
-0.05531	0.25320
0.12320	0.71234
0.19971	0.76336
0.14870	1.45206
-0.28482	0.81437
-0.15732	0.66132
-0.10631	-0.20594
0.42922	0.38074
0.73524	0.10015
0.63323	-0.43551
0.27621	-0.51203
0.07220	-0.07840
-0.18282	-0.56305
0.37822	-0.58856
0.45472	-1.09871
0.12320	0.68683
-0.23382	0.38074
-0.18282	-0.46102
0.27621	0.96742
0.22521	0.76336
-0.05531	0.71234
-0.18282	-0.05289
-0.00431	1.29902
0.09770	0.91640
0.42922	-0.10391
0.40372	-1.73640
0.14870	-0.25695
-0.13181	0.02363
-0.00431	0.27871
0.12320	0.76336
0.12320	0.96742
-0.15732	0.61031
0.73524	-0.63957
0.14870	0.96742
0.02119	0.40625
0.30171	0.35523
0.45472	-1.32828
0.32721	-0.23145
0.19971	-1.73640
0.04670	-0.63957
0.40372	-0.63957
0.68424	0.68683
-0.38683	1.45206
-0.53984	1.73265
-0.43783	0.66132
-0.64185	-0.00188
-0.18282	0.83988
0.73524	0.78886
0.37822	-0.43551
0.68424	-0.79262
0.25071	0.15117
0.30171	0.07465
0.70974	-0.58856
0.73524	-0.51203
0.32721	1.06945
-0.31033	0.81437
-0.71835	0.53379
-0.79486	-0.63957
0.32721	0.35523
0.37822	0.61031
0.27621	1.14597
0.22521	0.76336
0.22521	0.45726
0.12320	-1.14973
0.22521	-1.48133
0.50573	-0.46102
0.02119	-0.20594
-0.31033	0.66132
-0.53984	1.12046
-0.38683	-0.10391
-0.13181	0.73785
0.78624	0.50828
0.93925	0.07465
-0.23382	0.22769
1.04126	0.02363
0.63323	0.43176
0.73524	-0.05289
0.60773	-0.38449
0.09770	-1.14973
-0.05531	0.45726
-0.48884	-0.02739
-0.59084	0.81437
-0.38683	0.89089
-0.15732	0.91640
-0.56534	1.06945
-0.41233	-0.25695
0.35272	-0.74160
0.30171	0.86539
0.63323	-0.56305
0.32721	-0.30797
0.09770	0.12566
-0.02981	-0.25695
0.78624	-0.58856
0.68424	0.07465
0.30171	1.57960
0.42922	1.37554
0.14870	0.12566
0.14870	-0.05289
0.22521	0.55929
0.32721	-1.35379
-0.23382	-1.27726
-0.33583	0.02363
-0.00431	0.73785
-0.31033	0.25320
-0.10631	0.55929
0.22521	0.89089
0.70974	1.29902
0.63323	0.04914
0.88825	-0.99668
-0.53984	-2.19554
-0.61635	-0.86914
-0.28482	1.12046
0.50573	2.08976
-0.02981	0.91640
0.73524	-1.27726
0.22521	0.04914
0.78624	0.32972
0.86275	0.38074
0.55673	0.73785
0.42922	-1.60887
-0.74385	0.50828
-1.94243	1.12046
-2.19745	2.59991
0.02119	-0.79262
0.93925	-2.73121
1.75531	-1.88945
0.83725	0.50828
1.16877	0.96742
0.73524	0.61031
0.14870	1.65613
-0.28482	-0.74160
-0.28482	0.76336
0.76074	0.53379
-0.02981	0.35523
-1.38139	0.99292
0.53123	-0.18043
-0.69285	-1.81293
-0.79486	-0.92016
-0.28482	1.14597
0.88825	0.02363
0.78624	-0.02739
1.37278	-0.30797
1.32178	0.83988
-0.48884	0.50828
-0.66735	0.89089
-0.56534	2.44687
-0.25932	-0.02739
-0.74385	-0.86914
0.68424	-1.14973
0.88825	-1.02219
1.44929	-3.70050
1.37278	1.29902
0.73524	1.65613
0.14870	1.73265
-0.38683	1.86019
-0.71835	1.86019
-0.51434	0.91640
-0.69285	0.15117
-2.35046	-2.65468
-0.15732	-3.80253
-0.89686	0.27871
1.24527	0.10015
2.01032	-0.12942
3.05589	0.61031
1.50029	2.37034
0.55673	2.16628
-1.30489	0.83988
-1.20288	-0.07840
-0.76936	-0.51203
0.14870	-0.23145
0.55673	-0.58856
1.06676	-0.15492
0.35272	0.76336
0.32721	1.37554
0.76074	-1.37929
-0.28482	-1.37929
-0.64185	-1.20074
0.02119	0.73785
0.63323	0.45726
-2.37596	1.57960
-1.22839	1.14597
-1.33039	-1.99148
0.42922	2.16628
1.90832	-0.33348
0.93925	-0.30797
1.85731	0.58480
1.37278	0.55929
1.01576	-1.27726
1.42379	-0.10391
-0.15732	2.72745
-0.74385	2.14077
-0.38683	-0.76711
-0.71835	0.38074
-2.98800	-1.53234
-1.15188	-1.73640
-0.59084	-3.44542
0.86275	1.78367
1.09226	0.86539
2.21434	2.47238
1.55129	0.43176
0.99026	0.68683
0.65874	-1.83844
1.55129	1.35003
0.30171	2.57441
-0.74385	1.12046
-2.09544	-2.55265
-1.99343	-2.37410
-2.91149	1.83468
-0.38683	0.35523
0.55673	-2.29757
1.93382	-1.88945
2.23984	4.69155
0.93925	-0.86914
2.49485	2.08976
-1.15188	-1.09871
1.60230	0.81437
1.16877	-0.61406
0.93925	1.93671
-1.66191	1.09496
-2.50347	1.91120
-1.71292	-0.28246
-0.31033	-0.86914
0.22521	-1.76191
0.58223	-1.55785
-0.18282	-1.55785
-0.25932	-0.48652
3.18340	4.30893
2.72437	-3.57296
1.47479	-0.58856
-2.35046	2.44687
0.50573	2.85499
0.99026	0.10015
-1.40690	-2.93527
-1.86593	3.46718
0.37822	3.31413
-1.07538	1.45206
-2.19745	-0.86914
-1.81492	0.38074
3.36191	-2.39961
2.49485	-1.71090
1.93382	2.29382
1.04126	0.68683
1.16877	-5.02690
-2.91149	-5.10343
-4.13557	1.37554
-1.48340	3.59471
-3.06450	4.46198
2.16333	2.24281
2.80087	1.19699
4.68799	-1.65988
2.34184	-5.76663
1.01576	-0.92016
1.19427	0.94191
2.97938	1.78367
-5.86968	4.74256
-3.54903	-0.38449
-2.52897	-4.46573
-5.94619	-1.65988
2.23984	3.33964
0.02119	2.65093
3.36191	-1.68539
4.17796	-3.57296
3.20890	-1.22625
2.08683	3.39065
0.96476	4.35995
-1.04987	0.25320
-3.80405	-1.73640
-2.70748	-0.79262
-2.78398	0.38074
-5.10463	1.37554
1.21977	1.27351
3.82094	-1.94047
3.28540	-1.07320
2.69887	-2.60367
1.83181	3.79878
1.16877	1.78367
0.55673	-0.48652
-0.15732	-1.04770
0.35272	2.01323
-2.29945	0.50828
-3.93156	-0.33348
-3.42153	-0.74160
-0.31033	-2.98628
1.34728	-1.17523
1.01576	1.29902
3.46392	2.26831
1.34728	-1.12422
2.13783	4.84460
-1.38139	2.19179
-5.86968	-0.81812
-2.32496	-4.66979
0.02119	-0.84363
4.91751	1.96222
2.41835	2.88050
3.28540	2.31933
2.36734	-3.31788
0.40372	-3.93007
-6.27771	1.27351
-1.20288	2.77847
-1.71292	-1.91496
1.39828	-2.01699
2.46935	4.53850
3.15790	1.37554
-0.43783	-2.70570
-5.10463	2.29382
-0.18282	0.10015
-2.96250	-0.97117
2.80087	-1.91496
3.25990	-1.37929
2.44385	1.86019
-1.33039	3.13558
-1.53441	-2.55265
0.12320	-2.24656
0.27621	1.86019
1.47479	2.16628
2.82638	2.70194
-4.69661	0.10015
-0.99887	-0.35899
1.04126	-1.58336
-1.91693	0.40625
-1.17738	-1.63437
3.46392	-0.02739
5.37654	2.26831
-0.71835	1.14597
0.27621	-2.98628
-1.17738	0.10015
-4.62010	-3.57296
-3.82955	-0.07840
0.81175	1.70714
1.32178	1.50308
2.92838	2.88050
3.05589	-0.66508
2.26534	-0.41000
2.26534	-2.60367
0.91375	4.02835
-0.56534	4.18139
-3.19201	-2.80773
-2.68198	2.06425
0.02119	-1.40480
-4.56910	-2.42511
0.58223	-2.39961
1.93382	-3.19035
-2.24845	4.61503
4.43298	0.71234
0.30171	2.80397
5.12152	-3.54745
-2.24845	-1.07320
-4.31408	-1.09871
0.09770	5.78838
2.46935	1.09496
1.32178	0.07465
1.21977	-4.59327
-4.49259	-2.70570
0.73524	2.01323
3.76993	2.47238
2.92838	5.09967
2.08683	0.12566
0.93925	0.35523
-1.71292	-3.77702
-4.11007	1.17148
0.86275	0.30422
-5.53816	0.17668
-5.13014	-2.06800
3.08139	-1.58336
1.29628	0.32972
1.44929	-1.65988
1.93382	0.55929
2.52035	4.38546
1.57679	2.54890
-0.89686	0.73785
2.34184	-2.88425
1.47479	-1.73640
1.21977	-0.71609
-5.02813	0.40625
-7.50179	-0.12942
-0.08081	2.14077
2.46935	4.13038
-0.05531	0.25320
3.08139	-0.81812
4.45848	-6.09823
2.16333	0.48277
1.14327	3.72225
0.02119	5.45678
0.76074	-1.53234
-2.27395	-3.95558
-2.93700	-3.08831
-3.98256	1.68163
-1.25389	1.93671
3.87194	-0.46102
2.52035	-0.12942
-0.05531	4.53850
2.54586	1.40105
-0.64185	-3.54745
1.19427	-8.08783
-1.61091	1.06945
0.02119	5.35475
-0.23382	3.26312
0.50573	0.00000
-1.15188	0.00000
-1.15188	0.00000
-2.40146	0.00000
0.93925	0.00000
2.46935	0.00000
2.69887	-0.48652
1.44929	-5.86866
-0.00431	-3.26687
0.55673	2.39585
-2.35046	2.62542
-3.11551	2.24281
0.96476	1.17148
0.81175	4.30893
2.18883	1.04394
2.72437	-2.93527
2.06133	-6.37881
-0.82036	-0.92016
-5.81868	3.56921
-2.27395	-1.30277
0.19971	-1.43031
1.62780	-1.99148
1.72980	1.52859
0.25071	5.40576
3.97395	1.50308
3.08139	1.14597
0.83725	1.96222
-5.74217	-2.34859
-4.18658	-5.05241
1.88281	-3.70050
-2.93700	1.57960
2.41835	2.77847
2.57136	4.43647
1.62780	2.65093
1.70430	-0.74160
0.42922	-4.59327
-0.48884	-2.39961
-2.32496	-0.18043
0.30171	2.59991
0.35272	2.11527
0.25071	1.32453
0.93925	-0.48652
0.81175	0.02363
-7.60379	-1.40480
-3.93156	-1.83844
3.36191	-1.12422
2.29084	-0.10391
3.31091	0.02363
3.71893	5.40576
3.36191	-1.81293
1.42379	-1.37929
-3.80405	-2.52714
-8.06282	3.00804
2.82638	3.18659
2.92838	0.30422
-0.08081	-0.30797
-1.78942	0.35523
-0.08081	-0.58856
-0.08081	1.06945
2.34184	-1.09871
0.96476	-2.39961
0.68424	-2.70570
-0.64185	2.80397
-0.51434	0.61031
-3.09000	1.04394
-0.08081	0.61031
-0.13181	-0.25695
2.87738	1.55410
1.60230	0.76336
0.02119	-0.35899
0.35272	-1.37929
1.29628	-2.24656
0.78624	1.24800
0.68424	2.47238
-1.10088	1.88570
-3.98256	0.86539
0.73524	-0.23145
1.01576	1.70714
0.83725	-1.20074
0.91375	-3.11382
0.55673	-0.89465
-3.09000	0.86539
-0.89686	-0.79262
1.09226	-0.66508
-1.22839	1.04394
2.21434	2.75296
2.08683	1.55410
0.91375	1.55410
1.95932	2.06425
-0.61635	-0.76711
-4.56910	-1.58336
2.06133	-3.44542
1.37278	0.35523
0.14870	0.78886
-1.50890	0.73785
1.42379	0.76336
0.78624	1.06945
-3.39602	1.93671
0.55673	-0.20594
3.00489	-2.68019
1.70430	-3.24136
-0.87136	0.99292
-2.06994	2.49788
0.83725	2.59991
-1.20288	-1.99148
-0.15732	-0.63957
1.09226	0.02363
1.29628	2.59991
0.70974	1.96222
0.48022	2.47238
0.78624	-2.70570
0.07220	-6.73592
-3.85505	-3.11382
-2.04444	2.44687
-0.38683	2.59991
-1.30489	2.57441
1.52579	2.85499
3.28540	0.91640
4.43298	1.75816
0.83725	-0.89465
0.73524	-0.56305
-7.93532	-2.45062
-0.25932	-1.53234
-0.46334	-4.03210
1.37278	-0.86914
2.49485	2.01323
2.08683	2.72745
1.04126	2.85499
1.16877	3.26312
0.78624	1.24800
-2.45246	-3.01179
-2.17195	-3.21585
-3.31952	-3.54745
-1.27939	2.06425
1.78081	1.35003
2.18883	2.01323
1.57679	1.80917
1.14327	0.99292
1.75531	-0.18043
-1.33039	-0.84363
1.01576	-2.62918
1.72980	-0.25695
-0.79486	-2.06800
-6.53273	2.72745
0.17421	3.26312
2.72437	1.06945
1.85731	-0.79262
1.01576	0.45726
-1.91693	-2.06800
2.01032	0.89089
1.24527	-3.19035
0.07220	-1.07320
-0.69285	1.19699
0.76074	2.01323
-1.30489	1.93671
0.50573	1.17148
1.37278	0.15117
1.75531	2.06425
0.99026	2.06425
-0.43783	-3.08831
-1.58541	-9.51627
-0.53984	-1.60887
-0.89686	2.95702
-0.53984	3.79878
0.53123	3.11007
0.63323	0.22769
1.60230	-1.22625
-2.57997	-0.12942
0.58223	0.53379
3.05589	2.88050
0.50573	-0.30797
-0.69285	-2.90976
-6.60923	-7.16955
-0.05531	0.94191
3.56592	2.08976
3.59142	2.82948
1.29628	1.55410
1.32178	1.45206
0.17421	2.54890
1.21977	1.98773
0.42922	-2.19554
-3.49803	-2.45062
-2.19745	-2.39961
1.24527	0.32972
-1.12638	0.53379
-2.14644	2.39585
2.23984	0.73785
1.83181	1.12046
1.34728	0.61031
1.75531	1.55410
0.14870	-0.56305
-1.07538	-2.68019
-0.46334	-4.84835
-3.21751	-0.51203
2.16333	3.00804
-0.41233	1.04394
0.93925	1.17148
0.70974	-0.71609
-2.96250	1.57960
1.83181	1.42656
1.85731	1.12046
1.52579	3.84979
0.91375	-3.52195
0.25071	-4.95038
-1.43240	-3.62398
-1.27939	0.10015
-0.97337	3.54370
0.32721	1.83468
0.27621	2.62542
0.30171	-0.51203
0.30171	-1.17523
1.01576	0.07465
0.50573	1.19699
0.73524	-0.86914
-0.64185	0.15117
-2.19745	-0.15492
-1.78942	0.78886
-0.53984	0.55929
4.81550	2.52339
2.39285	1.35003
-3.26852	-2.60367
-0.74385	-3.85355
-0.61635	-2.52714
2.16333	1.14597
1.93382	3.72225
3.28540	2.59991
-3.19201	1.57960
1.16877	2.16628
0.45472	-0.48652
0.76074	-3.01179
0.58223	-1.09871
-2.93700	-2.11902
-3.54903	-0.48652
-3.01350	-2.60367
2.44385	2.57441
2.36734	2.47238
3.05589	1.57960
4.30547	3.56921
1.04126	0.81437
-8.57286	-0.69059
-2.01894	-5.38401
1.19427	-1.22625
1.83181	-1.22625
1.72980	2.01323
1.95932	1.45206
-0.87136	3.31413
-0.00431	1.06945
1.39828	-0.84363
1.85731	-1.48133
-3.26852	2.90601
-2.40146	-1.09871
0.96476	-3.03730
1.95932	-3.13933
0.81175	2.62542
0.70974	1.88570
0.73524	-0.25695
0.70974	-0.05289
-3.60004	0.68683
0.04670	0.30422
-1.53441	0.83988
2.21434	2.47238
2.21434	0.04914
0.14870	-4.54226
0.91375	-3.64948
0.78624	0.17668
0.88825	3.31413
-0.82036	3.79878
2.06133	3.31413
-2.22295	0.04914
-4.59460	-3.77702
1.88281	-2.04250
1.60230	1.17148
2.31634	4.13038
2.21434	0.78886
0.42922	-2.55265
-1.40690	-3.70050
-2.73298	-0.43551
0.60773	1.68163
0.53123	0.76336
0.40372	2.26831
0.35272	1.12046
0.73524	-0.74160
0.68424	0.99292
-0.61635	1.47757
-0.13181	-0.02739
-0.69285	-4.10862
1.39828	-2.19554
0.60773	-1.50683
-4.51810	1.37554
0.58223	2.37034
1.44929	1.78367
1.24527	2.26831
1.34728	1.57960
1.88281	2.19179
-2.73298	-2.57816
0.35272	-3.64948
0.96476	0.38074
0.50573	0.96742
1.06676	0.73785
0.40372	-0.43551
-0.79486	-1.09871
-1.73842	-1.07320
-5.41065	0.83988
2.82638	2.08976
4.84100	2.06425
2.11233	1.37554
-2.27395	-4.49124
-3.09000	-1.78742
1.88281	1.88570
1.95932	0.83988
-1.07538	-0.43551
-3.65104	-1.09871
0.25071	0.83988
1.16877	1.09496
0.76074	1.47757
0.70974	1.60511
-0.10631	0.30422
0.76074	-0.53754
0.86275	-2.04250
-1.10088	-1.32828
1.72980	0.73785
0.50573	0.32972
0.02119	-1.58336
-4.03357	1.37554
2.80087	2.08976
-0.51434	1.75816
0.60773	-0.12942
2.74987	-1.53234
0.48022	-2.39961
-3.60004	-2.01699
-1.38139	1.91120
2.57136	3.39065
-0.53984	0.27871
2.87738	-0.56305
0.14870	0.43176
0.14870	1.65613
0.09770	0.89089
-1.40690	-3.13933
-0.69285	-2.32308
-0.82036	0.10015
-0.28482	0.76336
0.76074	2.49788
0.37822	1.57960
-0.28482	0.89089
0.02119	-1.37929
0.65874	-1.20074
-0.05531	-1.32828
0.09770	-1.04770
-0.28482	0.35523
-1.35589	2.39585
1.42379	1.93671
1.21977	2.44687
0.70974	-0.07840
2.39285	-1.99148
-2.35046	-1.88945
-3.72755	0.66132
1.75531	1.91120
-2.24845	1.17148
2.21434	0.38074
2.29084	-0.84363
2.67337	-1.76191
4.17796	-1.14973
-4.28858	-0.76711
-1.40690	-0.25695
-0.05531	2.52339
0.25071	0.96742
-2.47797	-0.23145
-1.15188	-0.46102
-0.97337	1.93671
2.31634	0.76336
3.48942	-1.88945
1.93382	-1.02219
-1.33039	2.24281
-1.20288	0.66132
1.14327	1.06945
-3.26852	-0.53754
1.32178	-1.63437
0.40372	-0.63957
0.53123	-0.89465
-0.00431	1.65613
0.40372	0.78886
-0.71835	-0.58856
-0.25932	-0.18043
0.19971	-0.97117
0.04670	-0.66508
-0.08081	1.52859
0.58223	2.98253
-0.20832	0.91640
-0.28482	-2.93527
1.06676	-2.93527
1.32178	-0.02739
0.53123	3.05905
-1.48340	2.34484
0.78624	0.17668
1.01576	0.20219
-0.53984	0.30422
-2.83499	-0.71609
0.02119	-0.56305
2.34184	-1.58336
1.75531	-1.20074
-0.20832	-1.20074
2.23984	2.08976
-0.79486	2.95702
-0.28482	1.78367
0.63323	0.07465
2.95388	-0.23145
-1.99343	1.29902
0.07220	-1.63437
-2.50347	-2.57816
-2.50347	-1.32828
1.80631	1.70714
2.06133	2.47238
0.17421	2.16628
1.24527	1.12046
1.04126	-5.23097
1.09226	-4.03210
0.81175	0.66132
-0.28482	2.47238
-0.10631	1.70714
-1.12638	1.01843
-5.35965	1.37554
-0.71835	2.14077
2.03582	-0.69059
1.75531	-1.71090
1.37278	1.12046
1.06676	1.55410
0.73524	-0.41000
0.63323	-4.66979
0.65874	-3.59847
0.22521	0.55929
-0.99887	2.77847
-1.30489	1.75816
0.37822	0.94191
-0.38683	3.05905
0.17421	-0.00188
1.42379	-1.25176
0.70974	-3.44542
-0.64185	0.15117
-0.31033	1.86019
-0.56534	0.53379
-3.47253	0.17668
2.49485	0.83988
-0.25932	0.17668
1.83181	0.43176
1.85731	-0.23145
-0.46334	0.20219
-0.05531	-2.06800
2.95388	-1.68539
-0.13181	-1.27726
-1.07538	2.26831
0.99026	1.91120
-4.69661	1.45206
1.93382	1.86019
1.21977	-0.56305
-0.82036	-0.05289
-1.81492	-0.25695
-0.69285	0.96742
1.06676	1.37554
2.95388	-2.17003
2.44385	-3.06281
-0.79486	-0.12942
-0.28482	0.22769
0.04670	0.99292
-0.00431	0.99292
0.09770	0.83988
-0.10631	2.14077
-0.48884	0.99292
0.12320	-0.38449
0.76074	-2.01699
-0.08081	-1.78742
-1.55991	1.47757
-0.10631	0.45726
0.88825	0.38074
0.37822	-1.37929
0.40372	0.71234
-0.99887	-0.86914
2.18883	1.50308
-1.30489	0.38074
1.06676	1.75816
1.60230	0.91640
-1.35589	1.09496
-0.36133	-0.18043
1.75531	-1.99148
-3.16651	-2.45062
0.60773	1.09496
1.72980	1.04394
-3.37052	0.68683
-0.48884	-0.18043
1.47479	-0.84363
1.47479	-0.56305
0.76074	-0.69059
1.16877	2.01323
1.44929	3.56921
-0.97337	1.06945
1.85731	1.50308
0.32721	-0.10391
-3.29402	-3.62398
-6.04819	-5.63909
-0.02981	-0.38449
2.08683	2.80397
2.01032	2.21730
1.90832	2.29382
1.62780	0.68683
0.86275	-0.05289
0.58223	-0.97117
0.50573	-1.12422
-0.51434	-1.71090
-1.15188	0.96742
-1.02437	0.58480
-0.99887	-0.35899
-0.53984	-0.23145
-0.20832	-0.25695
1.19427	0.66132
1.52579	2.16628
2.36734	1.04394
0.37822	-0.66508
-1.58541	-0.46102
-1.63641	-0.07840
-3.54903	-2.34859
0.37822	0.96742
1.50029	1.96222
-0.08081	1.60511
3.69343	0.17668
3.48942	1.47757
1.16877	-0.92016
-3.44703	-1.25176
0.02119	-0.51203
1.24527	-0.15492
1.78081	-0.46102
-6.27771	-2.24656
0.78624	2.19179
1.85731	2.14077
-1.71292	0.35523
2.06133	1.19699
2.41835	1.35003
-1.04987	3.08456
-2.40146	-2.68019
0.37822	-4.59327
0.42922	-4.54226
0.19971	1.40105
0.42922	2.85499
0.48022	3.31413
0.81175	0.99292
0.19971	-1.35379
0.19971	-0.63957
-0.13181	0.38074
-0.31033	1.35003
0.78624	0.99292
-0.02981	0.91640
-0.33583	-0.12942
-0.18282	-3.44542
0.88825	-1.45582
-1.55991	0.35523
-0.15732	1.78367
1.11776	1.88570
0.88825	0.96742
2.72437	0.89089
-0.66735	-0.46102
-4.00806	0.20219
2.90288	-0.76711
0.25071	-0.35899
-0.28482	-0.74160
-0.08081	-0.46102
0.88825	2.80397
5.96307	0.48277
-1.48340	-2.73121
-8.52185	-2.98628
1.93382	1.57960
0.60773	2.39585
0.76074	0.10015
0.32721	1.14597
2.26534	1.27351
-1.25389	1.09496
0.73524	0.35523
-0.53984	-0.79262
0.55673	-1.12422
0.40372	0.15117
0.68424	-0.35899
0.14870	0.78886
-0.08081	-1.58336
-0.10631	-1.07320
-1.15188	-1.94047
0.19971	0.38074
0.48022	1.65613
0.42922	1.88570
1.90832	0.89089
-1.45790	1.47757
-1.91693	1.83468
0.99026	0.15117
1.60230	-2.09351
0.14870	-1.76191
-0.36133	-1.94047
-0.76936	0.17668
2.41835	1.40105
-2.88599	1.37554
1.75531	1.57960
1.27078	1.45206
1.70430	-1.45582
1.24527	-1.94047
-0.66735	-0.05289
-1.89143	1.09496
-4.97713	-0.53754
0.27621	-1.43031
0.65874	0.17668
2.62236	0.71234
0.93925	0.86539
0.48022	1.19699
0.88825	1.57960
2.29084	2.08976
0.45472	0.10015
-2.42696	-3.21585
-1.12638	-3.06281
-0.46334	-0.02739
0.32721	2.80397
0.48022	0.96742
0.73524	0.02363
1.16877	-0.66508
1.47479	1.32453
2.03582	3.72225
-5.02813	0.76336
-1.76392	-3.62398
0.91375	-4.38921
0.99026	-0.56305
1.50029	1.52859
1.14327	1.04394
0.81175	1.88570
0.88825	1.57960
0.32721	0.07465
-1.68742	-0.41000
-0.46334	-0.56305
-0.41233	0.96742
0.88825	-0.41000
-0.69285	-0.25695
-0.38683	-1.20074
0.04670	0.89089
3.10689	0.73785
1.83181	0.53379
-2.75848	0.83988
-1.73842	0.81437
1.44929	0.96742
1.75531	-2.32308
2.03582	-1.09871
-2.75848	-0.69059
-2.35046	-0.07840
3.48942	0.81437
1.85731	1.65613
-0.10631	1.55410
-0.74385	-0.10391
1.52579	0.07465
0.42922	2.11527
-4.21208	-0.43551
-0.53984	-3.01179
-1.10088	-1.86394
0.45472	0.78886
-1.48340	0.71234
1.83181	0.99292
1.67880	0.91640
1.39828	1.27351
0.86275	0.96742
0.25071	-0.07840
-0.05531	-2.24656
-0.23382	0.71234
-0.33583	1.68163
-0.28482	0.55929
0.04670	-0.89465
0.02119	-1.35379
0.32721	1.06945
-0.02981	-0.15492
0.83725	-2.42511
-0.92237	-1.02219
-0.41233	2.39585
0.40372	2.88050
2.36734	2.52339
1.04126	-0.07840
-1.12638	-0.58856
-2.01894	-2.32308
-1.68742	-1.58336
0.60773	-0.69059
2.23984	1.17148
2.34184	0.96742
0.22521	1.35003
1.85731	0.96742
1.55129	0.76336
-0.33583	0.76336
-1.91693	-1.35379
-2.57997	-2.06800
2.74987	0.38074
0.91375	1.37554
-1.68742	0.68683
-2.32496	-0.43551
0.19971	-0.41000
0.30171	-2.24656
1.19427	-0.63957
0.83725	0.10015
0.93925	3.05905
0.53123	2.29382
-1.15188	0.81437
0.55673	0.71234
0.02119	-0.15492
0.22521	-0.86914
0.70974	-1.94047
-0.43783	-1.22625
0.42922	0.66132
0.65874	0.86539
-0.10631	1.60511
-1.84042	-0.15492
-2.52897	0.94191
1.01576	1.78367
2.67337	-1.81293
1.52579	-2.14453
-1.02437	-0.28246
1.34728	0.38074
-0.20832	-0.97117
1.24527	2.29382
-2.55447	3.05905
3.28540	1.42656
-1.30489	0.20219
-3.42153	-1.20074
1.27078	2.08976
-0.66735	-1.83844
0.58223	-1.91496
2.29084	-4.23616
-1.02437	0.30422
0.70974	1.91120
1.47479	1.96222
1.34728	1.75816
-1.15188	1.83468
-0.59084	-0.46102
-2.32496	-1.68539
-3.01350	0.43176
1.60230	1.68163
0.93925	0.15117
0.81175	-3.16484
1.29628	-0.35899
1.67880	1.37554
0.68424	-0.28246
0.81175	-1.53234
0.45472	0.35523
0.76074	2.34484
-0.43783	1.83468
-1.38139	1.68163
-0.79486	0.66132
-0.28482	-2.29757
0.83725	-1.43031
-1.96793	0.40625
1.52579	0.43176
2.92838	2.26831
-4.62010	-1.07320
-2.57997	-0.25695
1.85731	-1.78742
2.77537	0.96742
-1.12638	1.63062
-1.71292	1.22250
1.72980	1.24800
2.77537	-0.25695
1.47479	-1.12422
0.65874	-1.37929
0.73524	0.25320
-0.41233	-0.81812
1.01576	0.40625
-2.22295	0.38074
-6.35421	0.68683
1.60230	0.15117
1.44929	0.45726
0.02119	0.30422
-1.94243	-0.76711
1.32178	-0.74160
0.04670	-0.61406
0.93925	1.98773
2.03582	-0.05289
0.65874	0.73785
0.40372	-0.79262
-0.13181	-1.14973
-0.18282	1.17148
0.14870	0.96742
0.25071	1.73265
-0.10631	-0.10391
0.07220	0.50828
0.07220	-0.84363
-0.00431	-1.07320
0.07220	-1.45582
0.04670	-2.04250
-0.43783	-0.07840
1.01576	2.01323
-0.69285	1.93671
-2.17195	1.88570
2.36734	0.07465
-0.61635	2.88050
-0.76936	2.29382
1.47479	-0.46102
1.78081	-6.25127
3.43841	-4.46573
-1.35589	0.30422
0.32721	1.52859
-1.66191	2.77847
-0.31033	2.08976
-2.40146	0.91640
1.57679	-0.92016
-1.61091	1.01843
1.93382	1.04394
0.76074	-0.00188
0.12320	-0.20594
-2.35046	-0.97117
-1.48340	1.17148
2.26534	-0.10391
3.20890	-0.94566
1.98482	-1.68539
-2.86049	-1.96597
-0.33583	0.38074
-0.61635	1.65613
-1.17738	1.52859
1.78081	1.45206
2.64786	0.25320
-0.38683	0.30422
-0.87136	-0.38449
-0.43783	-0.10391
-0.13181	0.96742
-0.15732	1.01843
-0.05531	0.25320
-0.41233	-1.07320
-0.15732	-0.35899
0.65874	-0.35899
0.17421	-0.61406
0.70974	-1.83844
0.68424	0.76336
0.81175	1.68163
0.65874	2.75296
0.32721	0.73785
-1.40690	1.17148
0.86275	-0.76711
0.63323	-2.39961
-1.68742	-1.22625
-2.24845	1.27351
2.06133	1.27351
3.46392	0.32972
0.55673	0.27871
1.34728	-0.23145
-3.85505	-0.33348
-1.58541	-1.86394
-0.69285	-1.14973
-0.18282	0.10015
1.55129	2.67644
3.46392	0.48277
1.78081	-0.48652
-3.29402	1.14597
0.73524	0.96742
-0.15732	1.06945
1.39828	0.63582
-0.53984	0.38074
-1.53441	-1.17523
0.48022	-1.35379
0.50573	-1.37929
0.65874	1.78367
0.30171	-0.94566
-1.33039	-2.88425
-1.50890	-0.33348
0.35272	2.29382
1.14327	2.67644
0.83725	3.23761
0.35272	0.94191
0.48022	-0.69059
0.63323	-2.34859
0.22521	-1.58336
1.60230	-1.07320
0.14870	1.24800
-1.30489	1.29902
1.14327	-0.10391
-0.84586	0.94191
-2.91149	0.66132
-0.08081	1.73265
0.35272	-0.02739
2.62236	-2.70570
2.31634	-4.49124
-1.20288	-1.09871
0.32721	3.26312
1.34728	2.16628
-2.22295	0.68683
0.22521	1.09496
0.58223	1.60511
0.68424	-0.43551
0.02119	-0.63957
0.96476	-0.30797
0.91375	0.83988
1.47479	-0.23145
-0.64185	-0.61406
-3.44703	-0.28246
-2.32496	-0.25695
0.86275	-0.63957
-0.05531	0.71234
-1.63641	-0.25695
2.16333	1.04394
2.18883	3.03355
2.39285	-0.94566
3.79544	-2.90976
-2.42696	-1.40480
-0.02981	2.21730
-1.22839	1.98773
-2.57997	0.83988
-0.69285	-1.43031
0.58223	-0.25695
0.68424	0.45726
1.42379	1.40105
0.53123	-0.48652
-0.05531	-0.76711
0.02119	-1.14973
1.21977	0.68683
0.50573	1.57960
-1.66191	1.14597
-0.94787	0.02363
0.53123	-0.63957
0.32721	-0.38449
0.91375	0.30422
-3.62554	-1.04770
1.14327	-1.45582
-0.23382	-0.53754
2.18883	1.29902
1.90832	1.57960
1.78081	1.19699
0.30171	1.17148
-2.45246	0.38074
-1.53441	0.58480
-0.53984	0.83988
0.48022	0.58480
2.31634	-2.47613
2.01032	-3.67499
-0.94787	-0.38449
-1.63641	1.06945
-1.02437	1.04394
1.24527	1.29902
0.60773	1.88570
0.70974	0.07465
0.25071	-0.20594
-0.38683	-0.46102
0.65874	-0.35899
1.09226	-0.84363
0.50573	0.76336
-0.74385	0.45726
-1.76392	1.65613
0.60773	0.63582
0.78624	-1.14973
1.06676	-0.76711
-0.28482	1.19699
-0.99887	-0.66508
0.91375	-2.62918
0.14870	-0.23145
-1.76392	0.83988
-1.30489	1.42656
2.21434	1.24800
2.54586	1.06945
2.13783	0.48277
0.81175	1.65613
0.40372	0.86539
-1.66191	-2.27207
-1.63641	-2.09351
-0.18282	-2.47613
-0.87136	-1.07320
-0.08081	2.49788
0.32721	2.11527
0.86275	2.03874
2.46935	1.37554
0.81175	-0.56305
-0.59084	-0.76711
-0.56534	-0.84363
1.01576	0.25320
-1.94243	-2.11902
-0.89686	0.35523
1.34728	0.99292
1.55129	0.25320
-1.43240	-1.35379
0.65874	0.43176
1.55129	1.40105
-1.02437	1.42656
0.58223	2.29382
-0.20832	-1.12422
0.12320	-1.88945
-0.53984	-1.35379
1.04126	1.35003
0.81175	0.63582
0.02119	0.55929
-2.17195	1.57960
1.01576	1.17148
0.30171	0.32972
0.32721	-3.13933
1.32178	-1.60887
-0.33583	1.42656
-1.73842	0.32972
1.50029	-0.48652
0.96476	-0.84363
-1.33039	2.95702
0.99026	1.27351
1.93382	0.53379
1.44929	0.25320
-0.33583	0.10015
-1.50890	-0.25695
0.65874	-0.25695
0.32721	-0.81812
0.14870	-1.40480
-0.79486	-0.05289
1.37278	-0.56305
-0.69285	2.06425
-2.88599	0.71234
-0.59084	-0.46102
1.11776	-0.92016
0.96476	1.47757
0.48022	0.68683
1.04126	0.45726
0.91375	-0.94566
1.42379	-0.05289
-1.30489	0.40625
0.35272	0.99292
1.70430	-0.15492
2.03582	0.02363
-0.05531	0.32972
-1.50890	0.20219
-1.38139	0.02363
-1.17738	-0.38449
0.91375	0.20219
1.11776	-0.61406
0.45472	0.58480
-0.46334	0.15117
1.85731	0.48277
2.49485	1.22250
-0.61635	0.22769
-6.91525	-0.05289
-2.52897	0.86539
2.26534	-0.25695
2.52035	-0.63957
1.83181	-2.47613
1.98482	0.35523
1.06676	1.78367
0.27621	2.95702
0.09770	0.48277
0.88825	-2.11902
-1.35589	1.19699
-0.41233	0.91640
-1.12638	-0.81812
-0.71835	-1.32828
-1.86593	-1.73640
0.78624	2.03874
1.34728	1.37554
0.60773	-0.00188
0.53123	-1.07320
1.52579	0.61031
0.60773	1.45206
-3.11551	0.78886
1.60230	0.50828
0.32721	-1.02219
2.11233	-0.51203
2.26534	0.99292
-0.18282	-0.51203
-2.50347	-2.19554
0.25071	-0.23145
0.50573	0.43176
0.35272	0.50828
0.32721	1.17148
0.25071	0.35523
-0.66735	0.94191
-2.52897	1.17148
0.91375	0.96742
0.50573	-1.04770
1.44929	-1.14973
1.37278	-0.33348
-0.18282	0.22769
1.34728	-0.07840
0.60773	-0.15492
-1.61091	0.86539
-0.08081	1.09496
0.32721	0.32972
-0.48884	0.07465
-0.97337	0.94191
-0.71835	-0.35899
1.29628	-0.97117
1.21977	0.73785
0.25071	1.42656
0.91375	-2.22105
0.17421	-1.60887
-0.43783	-0.28246
-0.56534	-0.15492
-0.23382	1.24800
0.02119	1.22250
0.22521	2.31933
1.27078	1.98773
2.90288	-0.48652
1.37278	-1.22625
-5.64017	1.57960
-3.95706	0.81437
-0.25932	-2.24656
1.85731	-2.50164
2.87738	0.20219
1.60230	0.55929
1.24527	0.07465
0.55673	-0.18043
-0.31033	1.17148
0.76074	1.35003
0.83725	0.43176
-1.04987	-0.99668
0.22521	0.35523
-3.88056	0.55929
-1.50890	0.38074
-0.69285	1.12046
0.73524	-0.25695
2.97938	-1.12422
1.34728	0.58480
2.03582	0.12566
0.78624	-0.71609
-0.13181	-0.38449
0.45472	0.63582
-0.20832	2.88050
-1.53441	-0.38449
-0.99887	-0.15492
-0.25932	-1.58336
0.07220	-0.76711
-0.05531	0.66132
0.32721	1.63062
0.50573	1.06945
2.44385	1.37554
-2.12094	0.45726
0.09770	-1.81293
1.19427	-2.55265
1.14327	-1.02219
-0.41233	0.12566
-1.10088	0.76336
0.86275	1.47757
1.16877	2.14077
0.42922	0.40625
-1.35589	-0.86914
1.29628	-1.22625
-2.12094	0.43176
1.90832	-0.41000
-2.17195	0.12566
-0.31033	0.53379
0.78624	1.60511
1.55129	-0.86914
0.19971	-0.92016
1.50029	-0.05289
0.40372	0.66132
-2.14644	1.04394
1.44929	0.94191
0.55673	0.55929
-0.69285	-0.02739
1.42379	-0.53754
-3.14101	-1.07320
-0.84586	-0.05289
0.19971	0.15117
1.04126	0.76336
0.63323	0.63582
1.50029	0.30422
-0.84586	-0.25695
-1.48340	-0.56305
0.73524	-0.69059
0.40372	1.40105
0.93925	0.81437
1.06676	0.45726
1.29628	-0.15492
0.22521	-0.15492
-0.89686	-0.05289
-1.35589	-2.09351
0.88825	-0.61406
0.58223	1.06945
-0.08081	2.24281
-0.56534	3.18659
1.32178	1.57960
0.63323	-1.14973
-0.97337	-4.56776
-0.92237	-2.24656
-0.08081	1.22250
-0.51434	2.31933
0.02119	1.88570
1.44929	-0.15492
0.14870	-1.09871
-0.71835	1.09496
2.13783	1.75816
1.11776	0.66132
-1.10088	-0.25695
-0.08081	1.70714
0.76074	-2.85874
-0.92237	-2.57816
0.40372	-1.88945
0.68424	1.19699
0.53123	0.94191
-0.20832	1.22250
-1.02437	1.40105
-1.40690	1.63062
1.21977	1.78367
0.32721	-0.81812
2.08683	-0.48652
-0.38683	-1.60887
0.09770	0.61031
-1.45790	1.55410
0.58223	0.83988
0.60773	-0.05289
1.34728	-1.32828
0.70974	-0.86914
-0.18282	-0.30797
-0.33583	1.27351
0.93925	0.66132
-0.20832	-1.76191
-0.64185	-1.68539
0.07220	0.61031
-0.33583	1.93671
0.19971	2.08976
0.81175	2.80397
0.32721	1.06945
1.11776	-1.04770
-2.60547	-2.32308
-0.61635	0.32972
0.83725	-0.43551
1.55129	-0.07840
0.78624	-0.15492
0.86275	0.27871
0.19971	0.35523
-0.05531	-0.35899
-2.93700	-0.71609
0.30171	0.78886
1.55129	1.24800
1.06676	-0.38449
1.75531	0.81437
0.07220	0.17668
2.06133	1.12046
-1.58541	-0.20594
-1.68742	-0.74160
-0.97337	-1.07320
0.55673	-0.12942
-3.29402	0.15117
3.76993	1.06945
-0.76936	1.19699
1.29628	0.76336
1.34728	0.32972
1.29628	0.25320
2.44385	0.22769
0.02119	0.30422
-3.24301	-2.93527
-2.86049	-2.65468
0.48022	-1.02219
0.68424	1.98773
0.53123	2.29382
0.91375	0.94191
0.50573	-0.71609
0.02119	-0.86914
0.19971	0.96742
0.25071	0.20219
0.81175	-0.61406
-0.79486	1.55410
-0.38683	1.22250
-0.33583	0.78886
0.73524	-0.71609
1.37278	-0.53754
0.40372	-1.48133
-1.61091	-0.02739
-0.36133	0.15117
0.91375	0.58480
0.58223	1.14597
0.58223	-0.00188
-2.65648	-0.97117
1.19427	0.04914
0.58223	1.55410
1.78081	0.07465
0.12320	-0.43551
-0.28482	-1.04770
-0.31033	1.22250
2.85188	0.78886
-2.47797	0.91640
1.04126	-0.00188
-2.45246	-0.38449
-0.97337	-0.94566
0.40372	0.50828
1.34728	0.76336
-0.33583	-0.35899
0.55673	-0.53754
1.78081	0.58480
0.04670	1.17148
0.12320	0.89089
-0.28482	1.45206
-1.15188	-1.35379
1.90832	-2.29757
-1.50890	-1.58336
0.37822	2.52339
-2.12094	2.06425
0.60773	0.07465
0.14870	-2.52714
0.93925	0.43176
1.27078	0.45726
0.73524	0.99292
0.58223	1.37554
1.06676	-0.23145
-0.41233	-0.10391
-0.71835	0.40625
-1.48340	0.04914
-0.05531	0.02363
-0.84586	0.76336
0.14870	-1.27726
1.70430	-0.25695
0.32721	-1.37929
-0.61635	-1.04770
1.06676	-0.79262
3.08139	0.83988
-2.37596	2.14077
-1.84042	2.19179
-2.42696	1.24800
2.18883	0.61031
1.47479	-0.28246
1.55129	0.02363
0.32721	-0.56305
1.27078	-1.78742
0.99026	0.15117
0.07220	0.61031
-3.19201	1.12046
-0.89686	-0.18043
0.09770	-1.48133
0.63323	-0.92016
-1.02437	0.53379
2.01032	0.50828
0.83725	1.22250
-0.08081	0.96742
-1.02437	0.91640
0.12320	-0.23145
0.81175	-0.15492
-0.13181	-0.84363
0.65874	-0.69059
0.45472	1.09496
0.09770	0.58480
0.22521	-1.73640
0.27621	-0.00188
0.58223	0.20219
0.99026	1.14597
0.25071	1.68163
-3.57454	0.73785
0.32721	-0.99668
0.50573	-0.35899
1.04126	-0.20594
0.60773	0.55929
1.16877	0.96742
-0.56534	-0.25695
-1.02437	1.06945
-1.02437	1.24800
1.88281	0.50828
2.64786	-0.38449
-0.10631	-1.14973
-1.71292	-1.88945
-4.41609	0.02363
1.29628	0.35523
2.18883	0.04914
1.44929	1.12046
2.54586	0.61031
2.18883	1.06945
-0.53984	0.89089
-4.97713	-0.46102
0.50573	-0.69059
-0.31033	-0.86914
1.65330	0.45726
1.14327	1.40105
-1.68742	0.78886
-0.41233	0.15117
0.86275	-1.14973
-0.89686	-0.12942
0.60773	-0.97117
1.44929	2.08976
1.95932	0.73785
0.30171	0.38074
0.09770	-1.02219
-2.01894	0.25320
-0.94787	0.58480
0.50573	-0.66508
0.83725	-0.43551
0.91375	-0.30797
0.32721	0.38074
-0.53984	0.71234
0.50573	1.45206
0.09770	-0.02739
0.81175	0.25320
0.22521	-0.02739
0.22521	0.25320
0.93925	0.89089
-1.15188	0.61031
-2.12094	-1.22625
-1.15188	-3.41992
1.14327	-0.74160
1.47479	1.78367
-0.25932	1.55410
-0.59084	0.63582
1.39828	2.24281
-0.18282	-0.92016
0.99026	-3.11382
-0.28482	-0.15492
1.14327	2.26831
2.74987	0.99292
-1.53441	-0.00188
-2.42696	0.38074
-0.38683	0.73785
0.63323	0.22769
-0.56534	0.48277
3.87194	-1.17523
1.65330	-0.69059
-2.47797	0.66132
-1.61091	0.61031
-0.69285	0.96742
0.99026	-1.88945
1.19427	-1.32828
-1.25389	-0.48652
0.37822	0.27871
-0.18282	1.73265
0.68424	1.83468
0.81175	0.86539
0.37822	-0.28246
0.17421	-0.48652
0.27621	0.45726
0.40372	-0.07840
0.83725	0.22769
-0.02981	-0.53754
-0.31033	0.07465
-0.48884	2.19179
-2.01894	0.68683
1.04126	-2.75671
0.45472	-0.33348
0.53123	0.07465
0.09770	0.58480
1.27078	-0.23145
0.83725	1.35003
-1.10088	0.68683
-1.84042	-0.43551
0.07220	0.50828
0.12320	1.06945
1.62780	0.38074
1.09226	0.55929
0.02119	-0.25695
-0.69285	-0.69059
2.23984	-0.76711
-0.08081	-0.46102
0.25071	0.81437
-1.17738	0.35523
0.76074	-0.23145
0.09770	-0.10391
-1.38139	0.71234
-1.50890	1.19699
0.78624	0.02363
0.35272	-0.07840
0.22521	-0.05289
1.80631	-0.46102
1.52579	0.10015
0.83725	1.63062
0.58223	0.22769
-0.71835	-1.86394
0.60773	-1.83844
-0.00431	0.99292
-0.23382	2.08976
-0.38683	1.06945
-0.46334	0.45726
-0.33583	2.14077
-0.15732	-0.79262
-0.28482	-2.04250
-0.05531	-3.34339
0.17421	1.78367
0.93925	2.42136
1.72980	1.40105
1.24527	0.27871
0.07220	-0.07840
-2.93700	-0.23145
-0.64185	0.02363
-0.94787	0.04914
-0.05531	0.27871
2.11233	-1.27726
2.46935	-1.53234
0.17421	-0.46102
1.16877	1.09496
0.68424	0.43176
-1.53441	0.27871
-2.09544	0.76336
1.52579	1.17148
-1.48340	1.70714
-1.61091	-1.65988
0.32721	-3.11382
1.62780	0.12566
0.22521	2.16628
1.29628	1.98773
3.38741	1.63062
2.01032	0.63582
-4.36509	0.53379
-5.56366	0.32972
0.42922	-0.58856
0.99026	-1.94047
0.96476	-1.14973
1.09226	0.27871
1.90832	0.35523
1.06676	-0.51203
-1.55991	1.96222
0.30171	0.27871
0.48022	-1.07320
-0.36133	-2.14453
0.02119	0.71234
0.27621	1.68163
1.52579	1.83468
-0.69285	2.47238
-0.36133	0.17668
0.32721	-0.69059
-0.15732	0.04914
-0.64185	0.86539
0.22521	-0.53754
0.83725	-1.02219
0.42922	-0.74160
0.99026	-0.63957
0.27621	-1.17523
0.22521	0.45726
-0.33583	2.03874
-2.57997	1.45206
-0.18282	0.73785
-0.92237	0.71234
1.90832	-0.07840
2.97938	-0.23145
3.89744	0.83988
-1.38139	-0.02739
-0.38683	-1.99148
-2.96250	-3.64948
-1.40690	-1.04770
0.42922	1.70714
1.88281	2.47238
0.09770	1.73265
0.53123	0.61031
0.27621	0.32972
1.14327	0.12566
0.40372	-0.15492
0.37822	-0.05289
-1.35589	0.89089
-2.73298	-0.71609
1.19427	-0.74160
0.96476	0.17668
0.70974	0.25320
0.02119	0.04914
0.88825	0.81437
0.35272	0.25320
-0.99887	-0.71609
0.40372	-1.25176
0.73524	0.78886
0.55673	1.24800
-1.33039	0.35523
-0.33583	-1.73640
-0.61635	-0.30797
1.34728	0.96742
1.24527	0.30422
-0.48884	1.65613
0.86275	1.65613
1.01576	1.78367
0.42922	-1.53234
-2.55447	-2.19554
1.27078	-1.73640
1.01576	0.38074
-0.20832	1.52859
-1.10088	2.90601
0.81175	1.45206
0.99026	-0.46102
0.32721	-2.57816
1.04126	-0.79262
-1.55991	0.22769
-0.89686	-0.86914
0.93925	0.10015
0.50573	1.37554
0.55673	1.37554
-0.79486	0.50828
0.63323	0.43176
0.42922	1.01843
-0.76936	-0.05289
0.81175	-1.73640
1.93382	-1.99148
-1.15188	-1.55785
-0.23382	2.31933
0.19971	1.50308
0.60773	1.12046
-0.20832	0.63582
0.19971	0.02363
0.68424	0.43176
-1.35589	1.17148
1.09226	0.15117
-1.07538	-1.17523
1.01576	-2.11902
0.86275	-1.07320
-0.64185	-0.66508
1.47479	1.40105
1.52579	0.91640
0.25071	1.14597
0.50573	0.76336
-0.89686	0.73785
-0.69285	0.68683
0.25071	0.35523
0.35272	0.20219
0.37822	-0.53754
-1.76392	0.30422
1.67880	0.12566
-0.97337	-2.11902
-0.31033	-2.62918
-0.69285	-1.45582
0.27621	1.47757
1.65330	1.60511
-0.59084	1.96222
-0.02981	0.86539
1.01576	0.89089
-0.05531	-0.00188
0.19971	-0.20594
0.42922	-0.15492
0.12320	0.04914
0.02119	1.47757
-0.59084	-1.91496
0.55673	-1.45582
-0.51434	-1.02219
-1.40690	1.68163
0.99026	1.70714
0.70974	0.45726
0.40372	0.45726
0.81175	-0.35899
-0.51434	-0.05289
0.48022	0.30422
1.85731	0.38074
-1.33039	1.01843
-0.82036	1.27351
-1.30489	0.15117
0.17421	-1.63437
0.35272	-1.25176
1.75531	-0.71609
0.88825	0.55929
-0.31033	-0.69059
-0.82036	0.94191
0.76074	0.38074
-0.61635	0.50828
-0.25932	1.50308
1.52579	1.14597
0.53123	-0.46102
0.48022	-0.76711
-0.15732	3.13558
-0.02981	0.04914
-1.10088	-0.94566
-0.31033	-4.31269
-1.73842	-0.18043
0.99026	0.63582
1.29628	2.01323
0.83725	1.22250
0.60773	1.09496
1.50029	1.60511
0.48022	0.71234
-0.13181	-1.63437
0.12320	-1.83844
-1.10088	-2.50164
-0.97337	1.68163
0.53123	1.06945
-2.22295	1.14597
0.40372	0.27871
1.04126	-0.25695
1.62780	-0.10391
-0.69285	-0.02739
1.75531	0.81437
-0.33583	0.48277
1.60230	0.04914
-2.04444	-0.51203
-0.02981	-0.30797
0.25071	0.66132
0.32721	1.24800
1.55129	-0.00188
-1.35589	-0.02739
0.19971	-1.63437
0.88825	-0.07840
0.58223	0.07465
-0.48884	1.75816
-0.36133	1.68163
-1.61091	0.50828
-0.79486	-1.09871
0.99026	-0.56305
0.12320	0.04914
1.01576	0.43176
1.65330	-0.25695
1.16877	0.25320
-0.61635	0.27871
-0.25932	-0.97117
0.48022	-0.56305
0.60773	1.27351
0.30171	1.37554
0.07220	1.06945
0.30171	1.40105
0.45472	0.48277
-0.97337	-2.01699
-2.96250	-1.17523
-0.46334	-2.83324
1.80631	-0.89465
0.83725	0.12566
0.55673	2.08976
0.35272	2.39585
0.22521	1.57960
-2.14644	0.45726
-0.15732	0.43176
0.48022	1.14597
1.42379	-1.30277
1.16877	-2.98628
1.60230	-0.48652
-1.48340	1.01843
0.32721	0.61031
0.55673	0.73785
1.21977	-0.48652
-1.15188	0.35523
1.01576	0.43176
-0.28482	0.35523
-1.61091	0.32972
-0.82036	-0.05289
-0.46334	-0.28246
1.01576	0.53379
0.58223	-0.10391
0.32721	0.15117
0.27621	-0.05289
0.19971	-0.58856
-0.00431	0.91640
1.42379	0.71234
0.04670	-1.09871
0.02119	0.35523
-0.59084	1.45206
-0.46334	0.71234
0.55673	-0.25695
-1.43240	0.40625
-0.08081	-1.02219
1.37278	-0.63957
1.09226	-0.48652
1.32178	1.40105
-0.08081	1.06945
-1.73842	1.17148
-1.15188	0.04914
1.39828	-1.58336
1.29628	-1.27726
0.53123	0.78886
0.93925	1.65613
-0.25932	0.81437
-0.31033	-0.58856
-1.50890	-0.25695
1.09226	-0.20594
1.95932	0.71234
0.83725	-0.84363
-1.50890	-0.63957
-2.09544	0.96742
-0.59084	1.14597
-1.30489	0.58480
1.09226	0.04914
1.47479	-0.12942
1.04126	0.07465
1.34728	0.17668
0.07220	1.19699
-1.76392	0.81437
-1.61091	-1.78742
0.45472	-3.16484
1.42379	0.94191
0.91375	1.19699
0.48022	0.50828
0.37822	-0.15492
-0.20832	1.50308
-0.66735	1.42656
0.78624	0.50828
0.14870	0.83988
-0.08081	0.48277
-0.08081	-0.41000
0.30171	-2.62918
-0.33583	-2.11902
-0.00431	1.35003
0.12320	1.12046
-0.53984	-0.28246
-0.56534	0.38074
0.35272	1.12046
-0.18282	0.71234
1.19427	0.25320
-1.22839	0.66132
0.99026	0.12566
1.24527	-0.12942
1.37278	-2.04250
1.55129	1.06945
-0.23382	1.75816
-1.02437	0.61031
-0.94787	-1.20074
0.81175	-2.34859
-2.86049	0.50828
-0.15732	1.37554
1.50029	1.06945
-0.33583	0.61031
1.24527	0.63582
1.75531	0.96742
1.98482	-0.35899
-4.16107	-1.04770
0.65874	-0.76711
0.78624	0.15117
0.63323	0.55929
0.48022	0.10015
0.45472	0.38074
-0.41233	-0.07840
-0.61635	-0.10391
0.45472	1.01843
0.81175	0.22769
-0.05531	-0.48652
-0.25932	-0.23145
-0.08081	0.94191
-0.20832	0.96742
0.14870	0.38074
0.78624	1.17148
0.83725	0.50828
-0.43783	-1.12422
1.01576	-2.27207
0.45472	1.29902
-0.20832	0.61031
-1.40690	0.38074
-0.10631	-1.48133
1.83181	0.10015
-2.14644	0.35523
0.27621	1.57960
1.95932	1.17148
0.07220	1.12046
1.01576	-1.20074
0.60773	-0.99668
0.55673	0.68683
2.72437	0.86539
0.07220	1.09496
-1.20288	-0.53754
-1.53441	-0.58856
-2.04444	-1.12422
-1.10088	-1.81293
0.12320	-0.15492
-0.79486	1.68163
1.27078	1.40105
1.19427	0.96742
0.91375	1.01843
0.19971	0.35523
0.93925	-0.05289
1.06676	-0.28246
0.68424	0.68683
-0.25932	0.58480
-0.33583	-0.97117
0.32721	-2.09351
-0.36133	-0.20594
-0.38683	0.78886
-0.59084	0.53379
-0.00431	0.96742
0.19971	1.09496
0.55673	-0.35899
0.02119	0.61031
-0.28482	-0.41000
1.01576	-0.25695
0.09770	-0.20594
-1.10088	0.40625
1.04126	0.38074
0.99026	0.35523
-1.66191	0.86539
1.04126	1.37554
1.21977	-0.66508
0.68424	-2.17003
-0.20832	-1.09871
0.86275	-0.99668
-0.38683	1.09496
0.40372	1.98773
-1.48340	1.52859
-1.02437	-1.27726
1.50029	0.55929
0.30171	0.76336
2.52035	1.17148
-2.32496	0.07465
0.09770	-0.07840
0.27621	-0.56305
-0.18282	1.27351
0.48022	0.02363
2.03582	-0.81812
-0.92237	-3.11382
-2.52897	-0.89465
0.58223	3.18659
0.91375	0.94191
1.27078	-2.29757
1.50029	-1.94047
1.24527	2.70194
-0.36133	2.08976
0.42922	1.24800
-0.18282	-1.88945
0.02119	1.52859
-0.20832	1.70714
-1.61091	1.12046
-0.18282	-1.99148
0.19971	-2.55265
0.60773	3.67124
-1.04987	1.37554
0.88825	-3.49644
0.88825	-3.49644
0.65874	0.68683
-0.79486	2.01323
-1.86593	2.08976
0.76074	2.29382
0.83725	0.61031
1.32178	0.38074
1.75531	-0.15492
1.21977	0.02363
-2.78398	-0.97117
1.39828	-0.69059
-0.71835	-1.32828
0.04670	0.27871
-1.78942	0.76336
0.12320	0.25320
1.50029	-1.25176
1.75531	-0.43551
-0.66735	0.83988
0.88825	1.17148
1.44929	0.30422
0.04670	1.47757
-1.33039	1.32453
1.60230	1.57960
-2.83499	1.63062
-1.91693	-3.62398
-3.19201	-4.44022
2.23984	-1.53234
1.60230	2.19179
2.29084	1.55410
2.06133	1.83468
1.19427	1.50308
0.22521	1.09496
-0.05531	0.43176
-0.20832	0.15117
-0.76936	-0.10391
-0.69285	-1.83844
-0.84586	-2.90976
-0.38683	-0.41000
-0.10631	1.01843
0.40372	-0.10391
0.17421	-0.02739
0.73524	1.47757
0.86275	1.73265
-0.74385	2.19179
-0.33583	0.48277
0.53123	-2.96078
-0.28482	-3.82804
0.58223	-0.66508
2.52035	2.77847
0.73524	2.52339
0.04670	2.49788
-0.99887	-0.46102
-2.96250	-0.20594
-0.18282	-0.76711
-1.07538	-0.71609
2.31634	-0.63957
1.32178	1.19699
2.03582	0.12566
1.95932	-0.15492
-0.36133	-0.12942
-1.12638	0.35523
-0.61635	1.50308
-1.76392	-1.27726
0.32721	-1.81293
-0.02981	-2.88425
-0.15732	1.73265
1.04126	1.42656
-1.15188	0.83988
-3.26852	-0.33348
2.18883	2.70194
1.50029	3.67124
1.39828	-0.53754
1.34728	-1.50683
0.83725	-1.96597
0.30171	1.19699
-0.00431	1.86019
-0.20832	-1.48133
-1.30489	-2.29757
-0.48884	-0.38449
-0.51434	0.94191
-0.02981	-0.00188
1.09226	0.15117
0.63323	1.24800
-0.51434	1.98773
0.68424	0.89089
1.32178	-0.56305
-0.00431	-0.43551
-0.51434	-1.71090
2.26534	1.40105
-1.55991	-0.79262
-2.09544	0.07465
1.11776	-0.63957
-3.19201	0.17668
-0.20832	0.78886
2.64786	1.78367
1.24527	0.55929
1.57679	0.15117
2.46935	-0.74160
0.70974	-0.05289
0.91375	0.45726
0.17421	0.15117
-0.66735	0.32972
-1.27939	0.83988
-1.76392	-0.05289
-2.22295	-1.30277
0.04670	-1.78742
-1.73842	-0.74160
1.75531	0.48277
1.65330	0.81437
1.62780	-0.05289
0.76074	0.48277
-0.28482	1.96222
0.35272	1.35003
-0.20832	0.53379
0.32721	-0.43551
0.40372	-0.28246
0.93925	0.15117
-1.20288	0.17668
-1.55991	0.04914
0.04670	0.89089
0.63323	-2.83324
0.83725	-2.17003
0.53123	-1.04770
0.60773	1.86019
0.37822	1.19699
1.14327	0.78886
-1.15188	0.91640
0.27621	1.27351
-1.73842	0.50828
-0.71835	-0.15492
-0.56534	-0.18043
2.52035	0.58480
3.56592	-2.29757
0.91375	-1.65988
-3.77855	0.89089
-4.72211	2.29382
2.97938	0.53379
-0.36133	-0.07840
2.31634	1.22250
2.82638	0.73785
1.27078	0.07465
0.78624	-0.38449
-0.05531	-1.09871
-0.20832	0.10015
-1.48340	2.57441
-0.74385	-1.99148
-1.94243	-1.68539
-1.20288	-3.19035
-0.46334	1.27351
1.04126	2.14077
-0.20832	1.96222
0.58223	1.27351
0.73524	1.12046
0.83725	-0.30797
0.22521	0.50828
0.45472	0.76336
0.60773	-0.71609
0.70974	-2.22105
-1.17738	-0.76711
-0.10631	3.08456
1.11776	-1.86394
-0.02981	-1.43031
-0.08081	-2.06800
-0.66735	3.26312
-1.15188	2.19179
-0.20832	0.48277
1.34728	-0.25695
0.86275	1.42656
2.52035	-0.15492
-1.73842	-0.92016
-3.34502	-1.86394
2.87738	0.71234
2.54586	1.73265
-0.89686	0.78886
0.04670	0.94191
-0.43783	-1.63437
0.76074	-1.14973
-1.02437	-0.33348
-0.64185	0.66132
0.76074	0.63582
1.19427	0.58480
0.68424	1.14597
0.65874	0.94191
-0.89686	0.20219
-0.99887	-2.68019
-0.56534	-0.46102
-0.56534	0.96742
0.40372	1.35003
0.93925	0.66132
0.70974	0.32972
0.22521	1.27351
0.86275	-0.05289
0.30171	-1.09871
-0.13181	-0.56305
-0.13181	-2.62918
1.01576	-2.62918
-0.66735	1.14597
0.25071	2.29382
0.50573	2.67644
-0.05531	1.57960
0.14870	1.50308
-1.43240	2.24281
-2.32496	0.04914
0.45472	0.55929
2.01032	-3.85355
-1.25389	-3.59847
2.87738	-2.04250
1.95932	0.50828
0.53123	0.76336
-1.12638	0.96742
0.55673	1.01843
0.83725	1.93671
0.88825	1.93671
0.50573	1.06945
-1.68742	0.27871
-1.94243	-2.14453
-0.66735	-0.07840
0.81175	0.07465
0.73524	0.50828
0.53123	-1.14973
0.68424	0.81437
-0.97337	1.22250
0.09770	-0.61406
-0.92237	-1.27726
1.67880	-0.12942
-0.51434	1.12046
1.06676	1.63062
1.01576	0.48277
0.25071	-0.43551
-0.46334	-2.17003
0.27621	2.39585
-0.13181	0.53379
0.07220	0.40625
-0.20832	-3.01179
-0.02981	0.20219
-0.38683	0.25320
-0.69285	0.63582
0.35272	0.20219
0.76074	0.94191
0.93925	0.30422
1.67880	0.73785
-1.12638	0.32972
-0.41233	1.60511
-0.61635	-1.68539
0.42922	-1.20074
-0.64185	-3.19035
-1.38139	0.38074
1.01576	1.98773
2.82638	1.52859
-0.87136	0.55929
1.29628	0.81437
0.60773	-0.02739
-0.66735	0.48277
0.37822	0.89089
0.78624	0.55929
-2.78398	-0.53754
1.06676	-3.13933
-0.02981	-1.40480
0.81175	-0.12942
1.21977	0.63582
0.30171	1.12046
-0.87136	1.24800
-0.05531	1.17148
0.07220	0.22769
-0.10631	-0.61406
-0.99887	0.61031
-0.36133	0.27871
0.58223	0.02363
0.50573	0.81437
0.50573	0.02363
0.70974	-3.08831
1.16877	-0.43551
-0.36133	3.39065
-2.47797	1.19699
0.32721	-0.61406
1.11776	-0.76711
0.96476	2.90601
1.24527	-0.99668
-1.25389	-0.41000
1.83181	-1.35379
-0.18282	-0.20594
-1.07538	-0.38449
-0.33583	2.57441
0.12320	0.89089
0.96476	-0.25695
1.55129	-1.40480
2.18883	0.81437
-1.40690	2.19179
0.58223	1.29902
0.12320	-2.29757
1.37278	-2.24656
-2.91149	-0.84363
-2.09544	1.37554
-2.27395	0.99292
1.24527	0.71234
1.88281	1.60511
1.14327	0.32972
1.78081	-0.15492
-0.69285	-0.05289
1.11776	-0.89465
1.19427	-1.53234
-0.69285	-0.00188
-0.74385	1.73265
-0.10631	1.12046
0.17421	0.27871
0.53123	0.99292
0.09770	-0.71609
0.02119	0.10015
-0.82036	-0.02739
-1.04987	0.12566
0.50573	-1.76191
0.40372	-0.99668
0.68424	1.50308
0.99026	1.47757
0.96476	0.40625
0.09770	-0.56305
0.73524	1.01843
0.76074	1.14597
-0.08081	-0.56305
-0.41233	-0.23145
-1.40690	-2.22105
-0.08081	-0.23145
1.60230	1.27351
1.29628	0.63582
-3.54903	-1.55785
0.22521	0.99292
1.42379	1.42656
0.35272	0.45726
-1.73842	0.07465
1.44929	0.32972
-0.25932	0.55929
1.42379	-0.12942
1.80631	0.17668
-1.12638	0.81437
2.72437	0.55929
-3.52353	-2.73121
-1.94243	-1.81293
0.04670	0.55929
2.21434	2.44687
1.60230	1.01843
-0.18282	1.24800
0.48022	0.63582
0.60773	-0.35899
0.45472	-0.69059
-0.53984	-0.63957
-0.08081	-0.07840
0.02119	-0.84363
0.14870	0.22769
-0.00431	1.57960
0.04670	2.03874
-0.87136	-0.25695
-0.31033	-1.73640
0.53123	0.94191
1.21977	-1.09871
-2.60547	-1.40480
0.22521	0.94191
1.04126	1.78367
1.16877	0.73785
1.01576	0.73785
0.83725	0.53379
1.24527	1.14597
-1.07538	-0.79262
-1.89143	-1.58336
-0.99887	-0.69059
-1.38139	-0.66508
0.99026	1.57960
1.67880	1.04394
2.01032	-0.66508
3.08139	-2.04250
0.42922	-0.92016
-0.59084	1.40105
-3.62554	1.50308
-0.46334	0.86539
0.48022	1.29902
1.09226	1.12046
0.70974	-0.30797
-1.73842	-0.71609
-0.15732	-1.83844
-1.07538	0.30422
2.26534	1.47757
1.65330	0.45726
0.78624	-0.63957
-1.02437	-1.78742
-1.43240	0.53379
-0.51434	1.42656
0.60773	0.17668
0.88825	0.15117
0.70974	0.76336
0.45472	-0.02739
0.45472	0.40625
0.73524	0.35523
-0.82036	1.29902
-0.38683	-0.94566
-0.36133	-1.45582
0.53123	-0.63957
-0.00431	0.73785
0.53123	1.29902
-0.51434	0.78886
0.65874	1.27351
-0.10631	-1.04770
-0.71835	-1.50683
0.35272	-1.58336
-0.82036	0.25320
1.62780	1.32453
1.19427	0.04914
-0.51434	1.32453
-1.61091	1.40105
0.68424	0.73785
0.99026	1.06945
1.34728	-0.25695
1.65330	-1.99148
0.45472	-1.55785
-0.00431	0.83988
-1.94243	-0.33348
-3.70204	-0.66508
-0.74385	0.15117
1.24527	0.94191
1.19427	0.91640
2.29084	1.70714
-1.33039	0.66132
-0.48884	-1.91496
-1.86593	-0.84363
1.42379	0.22769
0.93925	0.73785
-0.79486	0.32972
2.18883	1.73265
2.41835	0.04914
0.45472	-1.07320
-0.28482	-0.25695
-1.63641	0.96742
-0.28482	1.35003
-0.69285	-0.30797
0.12320	-0.46102
-0.08081	-0.76711
0.86275	1.12046
2.11233	2.19179
-0.33583	0.25320
-1.48340	-1.88945
-2.50347	-1.91496
-0.38683	-0.30797
1.01576	2.44687
3.38741	1.50308
2.31634	-2.45062
-0.69285	-3.31788
-4.05907	-1.58336
1.93382	3.44167
2.46935	2.77847
0.02119	1.75816
-1.91693	0.66132
1.55129	1.22250
0.30171	0.10015
-1.10088	-0.23145
-0.66735	0.61031
1.14327	-2.73121
-0.51434	-2.14453
-0.84586	-2.01699
0.63323	0.96742
-0.25932	2.19179
0.60773	1.01843
1.72980	-0.84363
0.76074	-0.61406
0.32721	1.09496
-0.53984	0.20219
-1.55991	-0.61406
-2.22295	1.01843
1.42379	3.11007
2.39285	0.58480
-0.10631	-2.62918
-2.27395	-1.76191
0.73524	0.48277
2.36734	1.22250
2.08683	0.48277
-2.01894	-0.12942
-0.59084	-0.92016
-1.02437	0.02363
0.91375	0.76336
1.78081	1.17148
-0.28482	0.96742
0.32721	0.86539
0.48022	-0.15492
1.06676	-0.86914
-2.93700	0.71234
-0.84586	-1.20074
-0.31033	-1.71090
0.45472	-0.56305
-0.41233	1.60511
2.39285	0.50828
-0.76936	0.22769
1.55129	-0.71609
-0.43783	0.22769
1.85731	0.25320
0.40372	0.73785
-0.66735	1.29902
-1.63641	0.50828
0.37822	0.27871
-0.74385	0.86539
-0.36133	-0.43551
0.88825	-0.97117
0.60773	-0.86914
-1.02437	0.45726
1.14327	2.49788
0.73524	2.75296
1.19427	-1.17523
2.23984	-6.14924
-2.73298	-4.77183
-2.17195	1.93671
-1.50890	2.47238
0.78624	2.80397
1.24527	2.49788
1.52579	1.65613
1.42379	0.78886
1.57679	0.40625
-1.15188	-0.05289
1.06676	-1.07320
-1.61091	-1.22625
-1.96793	-2.22105
-1.55991	-1.14973
0.53123	-0.79262
2.13783	1.01843
-0.69285	1.73265
1.55129	1.29902
0.70974	1.06945
1.42379	1.55410
-0.20832	3.51819
-0.15732	-1.48133
1.32178	-3.36890
-3.44703	-6.42983
-2.50347	1.40105
1.06676	3.00804
1.93382	2.21730
1.50029	1.88570
1.09226	1.22250
0.63323	0.66132
-0.05531	0.38074
-0.28482	0.35523
-0.43783	-0.71609
0.02119	-1.12422
-0.31033	-0.46102
-0.02981	-0.20594
-0.00431	-0.05289
-0.13181	-0.76711
-0.31033	-0.66508
0.02119	-1.48133
0.02119	0.94191
1.34728	2.21730
0.86275	2.47238
1.09226	0.40625
1.14327	0.35523
-3.88056	-0.81812
-0.71835	-0.61406
0.58223	-1.07320
1.50029	-0.02739
1.24527	1.52859
1.57679	1.86019
-0.08081	0.30422
0.35272	-0.25695
-0.10631	-0.02739
0.22521	-0.43551
1.72980	-1.43031
1.24527	0.27871
-1.94243	0.58480
-2.63097	1.12046
-2.70748	0.22769
0.07220	0.15117
1.09226	-0.12942
1.50029	-0.76711
2.85188	-0.97117
-0.59084	-0.23145
-1.15188	1.52859
1.11776	0.10015
-0.28482	-0.23145
0.55673	0.15117
1.65330	-0.51203
0.09770	0.66132
-1.20288	0.89089
0.12320	1.83468
0.12320	0.71234
-0.56534	-1.27726
1.14327	-1.09871
-1.50890	-0.43551
-0.08081	0.63582
2.23984	0.96742
1.04126	0.83988
-0.48884	-0.58856
-0.36133	-2.29757
-0.33583	-0.15492
-1.73842	0.96742
0.65874	0.89089
0.50573	1.27351
1.98482	1.09496
0.32721	0.17668
1.04126	-0.41000
1.04126	-0.74160
-0.76936	-0.97117
-4.36509	-0.15492
-3.34502	0.12566
2.06133	1.12046
2.92838	2.08976
2.77537	0.17668
0.32721	-2.55265
-0.41233	-1.37929
-1.45790	0.76336
-0.02981	0.04914
0.53123	0.89089
-0.43783	1.37554
-0.05531	1.17148
0.42922	0.61031
0.35272	0.94191
0.50573	0.25320
0.55673	-1.48133
-0.18282	-0.86914
-0.87136	-1.27726
-0.13181	-0.97117
0.14870	0.78886
-0.08081	0.94191
0.60773	0.83988
1.11776	0.30422
-1.63641	0.04914
0.86275	1.75816
-0.20832	-0.05289
1.39828	-0.66508
-0.31033	-1.43031
1.19427	-0.86914
-2.04444	0.04914
0.86275	0.22769
0.27621	1.17148
1.01576	1.65613
1.11776	1.09496
-1.15188	0.10015
0.93925	0.20219
1.65330	0.35523
