-0.08081	0.30422
-0.08081	0.22769
0.22521	0.15117
0.30171	0.15117
0.37822	0.12566
0.32721	-0.02739
0.25071	0.10015
0.09770	0.04914
0.04670	-0.02739
-0.02981	0.17668
-0.02981	0.38074
0.12320	0.32972
0.30171	-0.00188
0.22521	-0.15492
0.30171	0.02363
0.30171	0.38074
0.07220	0.15117
0.12320	0.15117
0.02119	0.20219
-0.00431	0.12566
0.12320	0.20219
0.02119	0.17668
0.02119	0.20219
0.40372	0.25320
0.42922	0.10015
0.37822	0.07465
0.27621	-0.00188
0.17421	0.02363
0.02119	0.04914
-0.05531	0.17668
-0.05531	0.25320
0.09770	0.32972
0.19971	0.20219
0.25071	0.02363
0.22521	-0.05289
0.19971	0.20219
0.12320	0.17668
0.12320	0.04914
0.17421	0.10015
0.02119	0.15117
-0.05531	0.32972
0.07220	0.38074
0.30171	0.25320
0.40372	0.12566
0.32721	0.02363
0.25071	0.07465
0.07220	0.04914
0.04670	0.10015
0.04670	0.12566
-0.00431	0.17668
-0.10631	0.15117
0.02119	0.17668
0.07220	0.20219
0.22521	0.30422
0.42922	-0.02739
0.48022	-0.05289
0.14870	0.07465
0.02119	0.22769
0.07220	0.30422
0.04670	0.22769
-0.02981	0.27871
0.09770	0.30422
0.14870	0.32972
0.25071	0.20219
0.30171	0.10015
0.32721	-0.23145
0.22521	-0.23145
0.02119	0.10015
-0.05531	0.07465
-0.05531	0.15117
-0.00431	0.38074
0.09770	0.32972
0.22521	0.30422
0.30171	0.20219
0.42922	0.17668
0.30171	0.15117
0.09770	0.10015
0.07220	-0.02739
0.12320	0.02363
-0.02981	0.20219
-0.10631	0.12566
0.14870	0.15117
0.30171	0.20219
0.25071	0.25320
0.27621	0.15117
0.30171	0.07465
0.09770	0.17668
0.07220	-0.00188
0.12320	0.07465
0.02119	0.20219
-0.05531	0.20219
0.14870	0.20219
0.12320	0.30422
0.07220	0.25320
0.19971	0.04914
0.32721	0.12566
0.27621	0.12566
0.12320	0.04914
0.04670	0.04914
0.02119	0.07465
-0.02981	0.22769
0.09770	0.25320
0.35272	0.22769
0.27621	0.12566
0.30171	0.02363
0.22521	0.10015
0.17421	0.25320
0.04670	0.07465
-0.08081	-0.15492
-0.08081	-0.12942
0.02119	0.12566
0.12320	0.45726
0.17421	0.48277
0.30171	0.32972
0.32721	0.17668
0.19971	-0.00188
0.12320	0.07465
0.07220	0.07465
0.02119	0.17668
-0.08081	0.17668
0.12320	0.20219
0.17421	0.20219
0.09770	0.22769
0.42922	0.02363
0.37822	0.04914
0.22521	0.10015
0.12320	0.15117
0.12320	0.17668
-0.00431	0.17668
-0.15732	0.07465
-0.05531	0.02363
0.17421	0.10015
0.25071	0.38074
0.14870	0.22769
0.27621	0.12566
0.32721	0.10015
0.27621	0.15117
0.09770	0.04914
0.07220	0.12566
-0.08081	0.15117
-0.08081	0.22769
-0.02981	0.32972
0.22521	0.22769
0.45472	0.10015
0.37822	-0.05289
0.22521	0.04914
0.04670	0.10015
0.09770	0.02363
0.12320	0.04914
-0.02981	0.30422
-0.10631	0.25320
0.02119	0.12566
0.19971	-0.10391
0.25071	0.22769
0.32721	0.27871
0.25071	0.25320
0.04670	0.15117
0.07220	0.04914
0.07220	0.04914
-0.08081	0.20219
-0.08081	0.25320
0.09770	0.22769
0.30171	0.17668
0.32721	0.15117
0.42922	0.15117
0.19971	0.04914
0.09770	-0.02739
0.12320	0.02363
0.02119	0.10015
-0.05531	0.07465
0.04670	0.27871
0.12320	0.25320
0.19971	0.40625
0.27621	0.32972
0.45472	0.15117
0.27621	-0.15492
0.07220	-0.05289
0.07220	0.10015
0.07220	0.02363
-0.08081	0.17668
-0.10631	0.25320
0.07220	0.35523
0.27621	0.30422
0.22521	0.12566
0.37822	0.10015
0.32721	0.04914
0.14870	0.02363
0.02119	0.04914
0.02119	0.22769
0.02119	0.25320
0.12320	0.04914
0.22521	0.02363
0.27621	0.10015
0.02119	0.15117
-0.00431	0.25320
0.30171	0.12566
0.32721	0.15117
0.27621	0.27871
0.12320	0.10015
0.09770	0.04914
-0.10631	0.12566
0.14870	0.17668
0.22521	0.20219
0.32721	0.15117
0.32721	0.17668
0.30171	0.22769
0.14870	0.20219
-0.00431	-0.02739
0.04670	0.04914
-0.08081	0.10015
-0.08081	0.15117
0.07220	0.27871
0.09770	0.07465
0.07220	0.15117
0.17421	0.10015
0.27621	0.12566
0.09770	0.15117
0.25071	-0.10391
0.17421	-0.05289
0.02119	0.07465
0.07220	0.35523
0.12320	0.30422
0.30171	0.43176
0.17421	0.15117
0.30171	0.10015
0.27621	0.04914
0.07220	-0.02739
0.07220	-0.15492
-0.08081	-0.18043
-0.15732	0.35523
0.02119	0.63582
0.22521	0.45726
0.42922	0.25320
0.27621	0.07465
0.30171	-0.05289
0.30171	0.15117
0.17421	0.10015
0.09770	-0.07840
-0.00431	-0.18043
0.02119	0.07465
-0.08081	0.35523
0.04670	0.32972
0.48022	0.22769
0.19971	0.30422
0.07220	0.02363
0.17421	-0.07840
0.02119	-0.51203
0.09770	-0.30797
0.32721	-0.23145
0.09770	0.50828
-0.18282	0.53379
0.02119	0.66132
0.19971	0.61031
0.40372	0.30422
0.45472	0.45726
0.27621	0.30422
0.07220	-0.05289
-0.00431	-0.18043
-0.10631	-0.35899
-0.02981	0.12566
0.07220	0.17668
0.35272	0.07465
0.04670	0.48277
-0.05531	0.25320
0.53123	-0.07840
0.42922	-0.10391
0.35272	-0.12942
0.02119	-0.05289
-0.05531	0.32972
-0.10631	0.40625
0.14870	0.40625
0.40372	0.40625
0.30171	0.38074
-0.10631	0.02363
0.17421	-0.35899
0.55673	0.02363
-0.10631	0.20219
0.02119	0.04914
-0.00431	-0.23145
0.12320	0.27871
0.19971	0.30422
0.25071	0.58480
0.22521	0.38074
0.19971	0.30422
0.37822	-0.25695
-0.00431	-0.48652
-0.20832	0.02363
-0.15732	0.10015
0.19971	0.40625
0.02119	0.20219
0.12320	-0.00188
0.14870	-0.15492
0.19971	0.61031
0.25071	0.78886
0.53123	0.71234
0.48022	0.27871
0.27621	-0.63957
-0.02981	-1.20074
-0.13181	-0.25695
-0.23382	0.81437
-0.28482	0.66132
0.40372	0.35523
-0.10631	0.43176
0.27621	0.40625
0.55673	0.22769
1.14327	0.07465
0.53123	-0.07840
-0.23382	-0.18043
-0.43783	0.25320
-0.51434	-0.12942
-0.10631	0.17668
0.25071	0.02363
0.27621	0.48277
0.19971	0.38074
0.22521	0.32972
0.14870	0.15117
0.14870	0.12566
0.14870	-0.23145
-0.08081	-0.00188
-0.15732	0.27871
-0.00431	0.27871
0.27621	-0.18043
0.58223	0.15117
0.40372	0.50828
1.04126	0.12566
0.04670	-0.35899
-0.10631	-0.69059
0.12320	0.12566
-0.51434	0.86539
-0.56534	0.91640
0.14870	0.43176
0.50573	0.17668
0.42922	0.38074
0.30171	1.06945
0.12320	0.50828
0.35272	-0.56305
0.19971	-1.45582
-0.20832	-1.50683
-0.10631	0.15117
-0.00431	0.71234
-0.00431	1.22250
0.93925	0.53379
0.32721	0.89089
0.53123	0.38074
0.93925	-0.25695
0.25071	0.04914
-0.61635	-0.12942
-0.82036	-0.10391
-0.38683	-0.07840
-0.23382	-0.84363
-0.05531	-0.23145
0.27621	-0.02739
0.55673	0.45726
0.68424	0.58480
0.68424	0.53379
0.60773	1.17148
0.37822	1.57960
0.14870	0.89089
0.19971	0.45726
-0.08081	-1.04770
0.12320	-2.14453
0.27621	-0.23145
-0.20832	1.06945
-0.36133	0.17668
0.45472	0.02363
-0.13181	-0.58856
-0.48884	0.89089
-0.13181	1.70714
0.70974	1.55410
0.88825	0.61031
-0.38683	-0.02739
-0.71835	-1.07320
-0.59084	-1.07320
0.32721	-1.04770
1.39828	-1.58336
1.16877	-1.58336
0.32721	1.09496
0.19971	1.86019
0.45472	1.17148
0.17421	1.27351
-0.41233	0.89089
-0.08081	1.86019
-0.15732	-0.41000
-0.00431	-0.66508
0.27621	-0.33348
-0.13181	0.15117
-0.33583	-1.02219
-0.00431	-0.23145
0.40372	-1.20074
-0.31033	-0.35899
0.14870	-0.10391
0.32721	0.94191
0.27621	1.57960
0.68424	1.40105
0.60773	-0.69059
0.83725	0.48277
0.25071	0.58480
-0.02981	0.45726
-0.13181	1.04394
-0.48884	0.81437
-0.38683	-1.63437
0.04670	-1.37929
-0.00431	-2.17003
0.45472	0.48277
-0.08081	0.30422
0.53123	0.55929
0.68424	0.38074
0.73524	-0.05289
0.48022	-0.07840
0.40372	1.40105
0.32721	0.55929
-0.18282	1.12046
-1.94243	0.68683
-0.36133	0.22769
0.68424	-0.30797
1.06676	-1.37929
0.76074	-0.69059
-1.04987	0.71234
-1.20288	1.29902
0.58223	-0.66508
1.19427	-1.17523
0.91375	-0.18043
0.30171	0.91640
0.42922	0.86539
0.68424	1.37554
-0.02981	0.38074
0.27621	0.04914
-0.43783	-1.14973
0.19971	-1.81293
-0.76936	-0.89465
-1.66191	-0.02739
-0.51434	0.91640
0.93925	0.43176
0.93925	1.60511
1.37278	1.52859
1.93382	0.76336
1.09226	0.40625
-0.10631	0.20219
-1.02437	-0.25695
-1.07538	0.10015
-0.76936	-0.58856
0.68424	-0.43551
0.19971	-0.61406
0.73524	0.45726
0.12320	0.99292
-0.02981	0.78886
-0.69285	0.61031
0.42922	-1.86394
0.19971	-2.55265
0.02119	-3.52195
-0.76936	0.94191
0.50573	2.93151
0.04670	3.46718
0.91375	2.39585
1.39828	-1.48133
0.83725	-0.38449
0.32721	-0.10391
-0.76936	0.66132
-0.02981	0.71234
1.19427	1.47757
0.35272	2.08976
0.40372	-1.48133
-0.18282	-2.14453
-1.50890	-2.14453
-3.72755	-1.12422
-0.25932	0.89089
2.26534	0.89089
0.09770	1.04394
1.93382	1.80917
1.37278	-0.51203
0.02119	-0.69059
0.93925	-2.88425
0.50573	1.47757
1.65330	-1.55785
0.76074	0.55929
-1.27939	1.75816
-1.07538	2.70194
-4.21208	2.49788
-0.97337	0.86539
-0.10631	-1.58336
-1.30489	-0.63957
1.52579	-0.81812
0.35272	-0.35899
2.62236	0.66132
3.99945	-0.38449
2.36734	1.29902
2.59686	-3.16484
-0.23382	-3.16484
-4.31408	-1.40480
-3.34502	1.09496
-3.34502	3.90081
0.42922	1.75816
-0.94787	1.37554
3.28540	1.17148
3.08139	1.17148
2.41835	0.04914
2.16333	2.11527
0.04670	-1.07320
-0.28482	0.00000
-0.02981	0.00000
-0.48884	2.44687
-2.98800	-6.09823
-1.55991	-5.56257
0.73524	-1.30277
-5.99719	2.67644
-3.85505	3.87530
4.40748	2.85499
5.75906	1.55410
2.44385	-2.19554
-1.84042	-1.27726
-0.82036	0.25320
1.09226	-0.89465
2.36734	0.17668
-2.06994	0.45726
-0.53984	-0.38449
3.18340	0.30422
2.13783	0.35523
2.29084	-0.35899
0.78624	2.70194
-6.94075	1.12046
-4.59460	2.39585
0.73524	-1.17523
1.88281	-0.18043
1.72980	-1.27726
1.80631	-2.06800
-0.02981	-3.26687
0.02119	-0.02739
-2.12094	1.14597
-1.38139	1.75816
2.26534	1.47757
5.27453	3.56921
-3.85505	-0.18043
1.83181	2.49788
-0.46334	-4.49124
-4.41609	-2.50164
-3.52353	-1.78742
3.94845	4.18139
4.53498	0.58480
1.47479	0.83988
-1.17738	0.15117
2.77537	-1.30277
0.83725	-0.20594
-3.75305	-0.15492
0.07220	2.98253
1.11776	-0.20594
0.53123	-1.07320
0.02119	0.48277
0.73524	-1.99148
-1.15188	-0.23145
-1.61091	-0.20594
0.37822	1.63062
0.27621	-0.86914
-0.43783	1.50308
2.54586	5.53330
0.96476	-1.22625
-0.13181	-2.60367
-0.92237	-4.84835
-6.22670	1.83468
-0.08081	2.01323
2.74987	1.86019
-0.59084	1.27351
1.27078	0.04914
4.10146	-0.56305
5.75906	-0.53754
4.45848	-1.65988
-0.82036	-0.51203
-4.67111	-0.99668
-9.64392	1.32453
-0.25932	0.96742
1.11776	-0.33348
0.53123	-0.28246
2.39285	1.42656
3.61693	-0.56305
2.16333	-0.25695
-0.79486	0.15117
0.40372	1.65613
1.16877	2.95702
-3.14101	1.83468
-3.88056	-2.57816
-0.82036	-4.33819
-4.49259	-5.05241
0.68424	3.97733
4.27997	5.53330
3.99945	-0.81812
2.44385	-2.57816
1.47479	0.76336
1.65330	1.06945
1.72980	0.63582
-4.74761	0.61031
-7.55279	2.82948
0.60773	2.54890
-5.94619	-2.73121
4.02495	-2.90976
3.94845	-1.60887
5.27453	-0.79262
4.25447	-1.40480
0.68424	-2.04250
-11.48004	0.04914
3.00489	6.70666
-0.66735	3.39065
1.24527	2.67644
1.72980	0.96742
3.28540	-2.75671
2.54586	-6.25127
-4.00806	-1.12422
-3.26852	3.18659
1.32178	0.25320
1.14327	4.94663
-0.10631	-1.55785
0.91375	-1.71090
0.53123	-1.73640
-3.95706	-0.51203
-3.42153	0.55929
-0.33583	0.53379
1.19427	1.37554
3.25990	-1.68539
4.71350	0.25320
2.34184	1.55410
2.85188	2.88050
-1.35589	1.80917
1.34728	-0.00188
-7.14476	-1.14973
-6.02269	-1.91496
-1.04987	-0.58856
3.89744	1.19699
3.18340	0.17668
3.15790	-2.29757
-1.78942	-0.56305
-0.51434	1.68163
3.36191	1.01843
2.54586	1.83468
0.73524	4.97213
0.30171	-2.98628
-9.77143	-4.00659
-0.71835	-4.54226
-0.25932	2.01323
2.46935	2.24281
-0.33583	3.64573
3.31091	4.10487
2.06133	1.17148
-0.79486	-0.79262
-1.91693	-3.16484
1.52579	0.02363
3.51492	-1.99148
2.67337	-4.13413
1.62780	1.35003
-8.44535	4.07936
-1.35589	0.63582
3.08139	2.59991
-1.53441	-1.30277
0.45472	-1.17523
-4.36509	-2.27207
1.67880	2.24281
2.21434	1.24800
3.38741	1.24800
3.43841	-0.97117
-1.04987	-2.11902
-0.76936	1.70714
-2.45246	1.91120
1.57679	-0.58856
2.31634	1.65613
-1.55991	-1.65988
-0.31033	-0.25695
-0.05531	-3.06281
-3.65104	-0.05289
3.66793	3.64573
2.69887	-1.32828
-1.30489	0.35523
-4.00806	-4.13413
3.66793	1.04394
3.05589	1.75816
1.27078	3.56921
1.75531	2.08976
-2.14644	-1.55785
-3.01350	-1.65988
0.73524	0.63582
-4.46709	-0.41000
0.73524	2.82948
1.37278	0.76336
1.21977	1.47757
4.15246	-1.55785
3.76993	-0.53754
1.57679	-0.86914
-2.32496	0.76336
-7.62929	-0.89465
-6.60923	-1.88945
1.47479	0.76336
5.22353	2.39585
4.25447	-0.71609
3.05589	-1.43031
1.27078	-2.01699
-0.28482	2.57441
-0.00431	1.01843
-2.45246	-0.28246
-0.28482	-0.00188
-2.96250	4.51299
-4.08457	-2.47613
2.64786	-2.85874
4.02495	-4.56776
-5.15564	3.97733
-1.76392	2.06425
1.55129	2.37034
3.79544	0.15117
3.36191	1.22250
2.49485	0.96742
1.72980	-0.53754
2.64786	-4.28718
-3.67654	-3.11382
-3.62554	0.30422
0.70974	1.06945
-7.11926	4.18139
-0.61635	0.12566
3.00489	-0.15492
5.83557	-0.20594
2.52035	-1.58336
-2.37596	-3.34339
-1.10088	1.09496
-4.92612	3.56921
2.23984	2.85499
2.80087	-0.10391
1.44929	-1.27726
-1.33039	0.40625
1.55129	0.45726
1.32178	-0.56305
2.08683	-0.35899
1.83181	0.32972
-5.41065	-0.12942
0.83725	-0.28246
-3.19201	0.22769
-3.77855	2.26831
1.55129	-0.71609
2.11233	0.04914
2.11233	-1.81293
0.22521	-1.78742
0.78624	-0.10391
0.09770	1.06945
0.63323	2.14077
0.58223	1.37554
0.48022	1.45206
1.47479	-0.15492
0.73524	-5.17995
-8.41985	-5.10343
-2.83499	1.96222
1.50029	4.38546
2.85188	3.00804
3.92294	2.57441
3.13239	1.17148
1.70430	-0.38449
0.12320	-0.10391
-1.61091	-2.60367
-2.37596	0.25320
0.22521	-5.05241
-1.17738	-3.82804
-1.22839	1.96222
1.06676	3.49268
1.29628	2.39585
1.34728	1.17148
1.95932	0.10015
-7.04276	-2.29757
-3.95706	1.01843
1.60230	1.22250
3.38741	2.24281
1.67880	1.68163
2.29084	-1.09871
3.31091	-0.66508
-0.25932	-5.15444
-1.78942	-1.04770
-1.48340	-0.89465
-2.19745	2.52339
-0.79486	2.67644
1.57679	2.08976
2.97938	0.81437
1.52579	1.14597
1.72980	-0.56305
-0.43783	4.33444
-4.16107	-2.90976
-1.33039	-2.75671
-0.25932	-8.26639
-4.36509	1.47757
2.72437	3.72225
2.26534	2.31933
2.39285	2.21730
3.28540	0.12566
0.76074	-0.30797
-2.14644	0.55929
-0.53984	1.68163
-1.02437	0.35523
1.62780	-1.45582
1.06676	1.68163
-0.38683	-1.48133
-0.48884	-3.70050
-0.56534	-5.05241
-1.76392	1.57960
0.27621	5.04866
1.01576	1.55410
-1.84042	-0.41000
0.14870	-0.10391
2.06133	1.63062
1.14327	1.50308
2.23984	0.76336
-1.94243	-0.30797
-1.55991	0.32972
1.75531	0.22769
2.39285	-0.05289
0.86275	-2.55265
-0.25932	-1.55785
0.78624	0.50828
-0.89686	-0.35899
-0.56534	-1.09871
-1.04987	-0.81812
-1.50890	2.67644
-2.01894	2.06425
2.46935	4.23241
1.60230	1.06945
-0.48884	-1.58336
-0.13181	-3.31788
1.16877	-3.52195
0.27621	1.35003
1.14327	1.96222
-1.43240	2.75296
0.93925	3.11007
0.58223	-0.79262
1.78081	-1.86394
-1.78942	-2.55265
-1.10088	-1.88945
0.02119	0.68683
-0.08081	2.16628
-1.38139	1.80917
1.50029	2.49788
2.13783	-0.43551
1.01576	-2.55265
0.65874	-3.26687
-0.18282	0.81437
-3.49803	0.96742
0.53123	1.73265
0.68424	0.86539
1.19427	2.19179
-0.48884	-2.93527
-2.47797	-1.94047
-1.10088	-1.09871
1.04126	1.45206
1.19427	0.89089
1.04126	2.26831
2.64786	1.47757
2.49485	2.06425
-0.31033	-0.81812
-8.75137	0.10015
1.01576	-0.92016
2.64786	-1.99148
1.14327	-2.78222
1.16877	1.37554
0.45472	1.78367
-1.20288	0.86539
-1.22839	0.81437
1.50029	1.88570
2.13783	-1.27726
2.01032	-2.68019
-3.98256	-1.43031
0.27621	0.45726
-1.02437	1.37554
0.37822	1.12046
0.65874	0.86539
0.12320	0.96742
0.76074	1.27351
1.11776	-0.35899
0.93925	-0.86914
0.60773	-2.52714
-0.59084	0.15117
0.78624	-0.43551
-1.63641	0.81437
-1.35589	1.98773
-3.29402	2.70194
1.27078	-0.25695
2.74987	-2.14453
3.38741	-1.73640
0.30171	1.29902
-1.07538	0.99292
-0.31033	0.10015
-1.04987	0.43176
1.80631	1.14597
-0.53984	0.10015
1.01576	0.76336
0.02119	-0.84363
0.93925	-1.50683
-0.15732	-2.55265
-3.77855	1.37554
0.12320	-0.23145
-0.36133	0.35523
0.12320	0.73785
2.54586	1.88570
1.75531	2.01323
0.68424	2.06425
0.58223	-1.20074
1.75531	-2.85874
-2.37596	-1.27726
-1.61091	1.63062
-1.53441	0.94191
1.11776	0.58480
1.21977	0.76336
1.16877	2.67644
-0.74385	1.57960
0.12320	-1.55785
0.30171	-7.42463
-1.84042	-2.27207
-0.79486	2.49788
-0.00431	3.44167
1.72980	2.21730
2.08683	1.98773
1.67880	1.01843
0.81175	-0.79262
1.14327	0.68683
0.17421	-0.81812
-1.07538	-3.31788
-1.68742	-4.74632
-3.80405	0.40625
0.42922	3.11007
0.14870	1.50308
1.14327	1.68163
1.06676	1.83468
2.16333	0.10015
0.68424	-1.88945
0.63323	-0.05289
-0.87136	-0.18043
-3.29402	0.12566
1.06676	-1.09871
-0.51434	1.35003
-2.04444	0.96742
-0.28482	0.63582
3.46392	1.27351
2.82638	1.42656
1.52579	-1.50683
-0.41233	-3.44542
3.43841	-1.65988
-3.06450	0.71234
-2.35046	2.37034
-3.06450	2.03874
-0.18282	-0.15492
0.55673	0.48277
-0.02981	1.32453
3.03039	2.37034
2.11233	-1.25176
1.75531	-3.47093
-0.28482	-2.85874
-4.95162	1.35003
-1.22839	1.75816
-1.07538	2.80397
1.88281	0.99292
1.09226	-0.05289
1.67880	-0.02739
1.52579	0.66132
1.62780	-1.45582
0.76074	-2.39961
-2.50347	0.30422
-1.04987	2.54890
0.68424	1.32453
0.22521	0.02363
-1.12638	-2.39961
0.58223	-0.84363
2.03582	-2.14453
-1.10088	-0.43551
-0.41233	0.50828
-0.64185	2.21730
0.96476	2.77847
1.44929	1.96222
-4.13557	0.73785
2.69887	0.73785
-4.69661	-2.04250
1.32178	0.32972
6.47311	0.22769
2.01032	-1.58336
-0.23382	-4.31269
-0.84586	0.40625
-1.71292	1.75816
-4.21208	-0.51203
1.06676	0.66132
3.38741	2.77847
0.65874	0.43176
-3.21751	-0.69059
-0.79486	0.83988
0.76074	0.68683
1.62780	-0.61406
1.52579	0.58480
1.27078	1.29902
0.58223	0.32972
-0.69285	1.09496
-0.48884	-0.02739
-0.46334	-3.75152
-0.43783	-4.00659
-0.59084	-0.05289
-0.61635	2.19179
0.37822	1.14597
0.63323	2.19179
-0.46334	1.17148
1.06676	0.83988
-1.15188	-0.28246
1.04126	-0.15492
0.25071	0.50828
2.49485	-0.15492
-0.25932	-1.58336
0.07220	3.05905
-1.91693	-1.50683
2.08683	-2.34859
1.11776	-2.14453
1.21977	2.01323
-2.14644	-0.02739
-0.08081	0.43176
-0.46334	0.30422
0.93925	2.01323
2.52035	1.42656
0.65874	0.68683
-1.84042	0.10015
0.45472	0.20219
-1.17738	0.78886
-0.36133	-0.12942
-0.10631	-0.35899
-0.69285	-1.40480
0.14870	-0.94566
-0.56534	-1.30277
1.62780	-0.63957
-1.30489	1.14597
1.19427	1.55410
0.86275	1.37554
0.32721	0.40625
-1.20288	0.32972
0.42922	-1.35379
-0.38683	-0.35899
1.27078	-0.79262
0.88825	0.63582
0.91375	0.17668
-0.18282	1.47757
-2.60547	2.62542
0.70974	2.08976
0.81175	1.35003
-0.15732	-3.06281
1.27078	-3.52195
-0.64185	-0.89465
0.88825	2.03874
1.34728	2.54890
1.24527	3.67124
-4.13557	-1.48133
-1.38139	-3.70050
0.86275	-3.13933
-0.41233	0.58480
1.70430	0.53379
0.81175	1.63062
0.88825	1.52859
1.50029	2.01323
0.12320	0.81437
2.52035	0.17668
1.52579	-0.89465
-8.59836	-1.20074
-1.07538	-0.15492
3.08139	-0.35899
2.41835	0.55929
0.14870	0.71234
-1.94243	-0.07840
1.19427	-0.43551
0.68424	1.50308
2.59686	1.42656
4.15246	-0.71609
-4.00806	-1.81293
-1.55991	-1.53234
-3.57454	0.83988
-2.88599	2.14077
4.07596	1.91120
4.33097	0.55929
1.67880	1.19699
0.93925	-0.81812
-0.02981	-2.62918
-0.94787	-2.88425
-0.69285	-0.25695
-5.38515	1.37554
0.35272	1.50308
1.52579	1.83468
1.72980	2.34484
1.52579	1.22250
0.78624	-0.92016
0.42922	-1.99148
0.22521	-0.33348
0.02119	0.27871
-0.18282	0.32972
-0.59084	0.48277
-1.45790	0.27871
2.18883	0.04914
-0.69285	0.12566
0.68424	-2.75671
-0.08081	-3.06281
-0.05531	1.75816
-0.71835	1.22250
-0.92237	0.63582
-1.07538	1.63062
1.09226	1.52859
1.50029	0.48277
2.11233	-0.00188
1.80631	-0.02739
1.88281	0.78886
-0.02981	-0.28246
-2.22295	-0.63957
-2.93700	0.12566
-0.02981	-0.30797
-0.08081	-0.97117
-1.12638	0.22769
0.27621	0.73785
2.16333	0.40625
1.14327	-0.38449
1.67880	-0.23145
1.55129	0.07465
-1.38139	1.01843
-1.94243	1.73265
-0.74385	-1.02219
1.90832	-1.35379
1.67880	-1.09871
-4.92612	-1.99148
-0.76936	0.86539
2.26534	2.21730
1.27078	2.37034
0.63323	1.17148
0.78624	1.32453
0.12320	1.52859
-0.15732	-0.07840
0.32721	-1.17523
0.86275	-3.75152
0.12320	-3.21585
-2.32496	-1.32828
-3.95706	2.08976
0.93925	1.93671
2.34184	1.19699
2.03582	1.68163
0.86275	0.50828
2.97938	-0.28246
0.32721	0.12566
0.17421	-0.25695
-6.43072	0.66132
1.27078	0.17668
2.11233	-0.05289
-0.13181	-1.53234
1.90832	-0.25695
0.40372	-0.05289
-0.41233	-0.25695
-4.84962	-0.33348
1.65330	1.01843
-0.48884	1.14597
3.61693	1.06945
3.10689	1.17148
-3.11551	0.22769
-2.52897	0.17668
0.68424	0.22769
0.32721	-0.66508
0.55673	-0.46102
1.29628	-0.18043
1.70430	0.78886
-0.99887	-1.45582
-0.36133	-0.63957
-0.23382	0.78886
-0.10631	0.78886
0.60773	0.38074
0.25071	1.04394
0.09770	1.78367
0.12320	0.45726
-0.02981	-0.89465
-0.08081	-3.03730
0.09770	-1.94047
0.32721	0.99292
0.48022	1.42656
0.32721	1.42656
0.07220	0.89089
-0.31033	0.96742
-0.53984	0.38074
-0.05531	-1.27726
1.88281	0.12566
0.70974	1.12046
0.02119	2.01323
1.34728	-2.55265
-3.65104	-4.21066
-0.25932	-1.60887
0.07220	1.93671
1.83181	2.62542
2.34184	-0.20594
1.11776	-0.35899
0.42922	0.22769
-6.96625	1.47757
0.70974	1.45206
2.08683	0.76336
-0.46334	0.35523
4.53498	0.22769
4.10146	1.19699
0.40372	0.35523
-1.17738	-1.99148
-3.01350	-3.24136
-2.29945	-1.48133
0.58223	0.58480
-2.83499	1.04394
0.99026	1.45206
0.22521	0.91640
0.40372	0.96742
1.11776	0.25320
0.91375	1.37554
0.19971	-0.53754
-0.25932	-1.43031
-0.00431	-1.60887
0.04670	1.57960
0.76074	1.63062
0.58223	0.15117
0.88825	-0.07840
2.54586	-0.53754
0.07220	-1.73640
-3.29402	-0.25695
-1.81492	1.83468
1.19427	1.29902
0.12320	0.43176
1.57679	-0.15492
1.44929	0.27871
-0.79486	1.01843
-2.70748	0.50828
2.03582	0.91640
2.21434	-1.83844
0.53123	-1.73640
1.21977	2.52339
-1.43240	0.15117
-0.92237	-2.06800
-2.06994	-3.44542
-0.92237	1.96222
2.57136	1.22250
0.42922	1.68163
3.94845	1.17148
0.91375	1.14597
-1.25389	0.45726
-2.06994	0.12566
-4.46709	-1.22625
2.97938	-1.65988
0.68424	0.35523
1.44929	0.55929
2.01032	0.68683
-1.35589	0.53379
0.37822	0.22769
1.06676	0.83988
0.60773	0.40625
0.22521	-1.40480
-3.24301	0.30422
-0.97337	-0.69059
0.55673	0.12566
1.21977	-0.18043
0.70974	1.50308
-1.02437	-0.20594
-1.76392	-0.46102
2.29084	1.17148
1.78081	0.81437
-1.86593	0.20219
0.07220	1.06945
0.70974	0.53379
1.37278	0.20219
1.72980	0.20219
0.55673	0.43176
-0.59084	-1.71090
-1.22839	-2.55265
0.19971	-2.22105
0.17421	0.55929
-0.28482	2.88050
-1.12638	1.80917
0.73524	0.91640
-1.02437	0.45726
0.70974	0.50828
2.67337	0.30422
1.78081	-0.30797
0.58223	0.15117
-2.29945	-0.53754
-3.24301	-0.97117
-2.19745	0.68683
-0.08081	1.19699
2.39285	0.32972
3.54042	-3.31788
1.72980	-2.47613
-1.45790	0.68683
0.07220	2.57441
0.17421	2.01323
0.99026	0.76336
-0.13181	0.61031
-1.33039	0.45726
-0.41233	0.68683
0.42922	1.32453
1.55129	1.52859
0.65874	-2.09351
-2.04444	-6.48085
-5.18114	-2.50164
-1.04987	2.31933
2.74987	3.05905
1.67880	2.29382
1.95932	0.81437
1.72980	0.78886
0.14870	1.60511
1.24527	-0.71609
1.09226	-3.11382
-1.81492	-0.92016
0.55673	0.38074
0.76074	1.29902
-0.69285	2.82948
-1.84042	-0.05289
-1.04987	-2.88425
0.19971	-2.96078
1.78081	0.45726
-0.10631	1.24800
0.25071	1.50308
-0.33583	2.21730
1.78081	1.40105
-0.15732	1.01843
-2.60547	0.35523
1.50029	-0.97117
0.45472	-0.84363
1.65330	-0.23145
-0.05531	-0.10391
-2.29945	0.22769
-0.43783	-1.07320
2.18883	-1.27726
0.88825	-0.25695
-0.53984	1.78367
0.09770	1.60511
1.34728	-0.46102
-2.70748	-0.81812
-0.36133	1.09496
0.86275	1.37554
1.32178	1.32453
0.42922	-0.66508
-2.12094	-0.99668
2.16333	-1.20074
0.50573	3.28862
1.95932	0.89089
-2.17195	-2.52714
-1.53441	-3.03730
-0.28482	1.06945
-2.40146	1.35003
0.99026	1.01843
2.77537	1.09496
1.88281	1.78367
0.68424	0.48277
-0.99887	-1.76191
0.37822	-3.03730
-0.20832	0.04914
0.58223	2.29382
0.32721	0.12566
-2.12094	-0.02739
-0.71835	0.55929
0.22521	0.17668
0.91375	-0.23145
0.68424	-0.79262
0.73524	1.17148
2.54586	1.52859
0.70974	-0.15492
-1.61091	-2.55265
-1.35589	0.32972
1.06676	2.65093
0.27621	0.71234
0.17421	-0.12942
-2.17195	-2.50164
0.14870	-0.15492
0.07220	0.96742
1.11776	1.04394
1.21977	0.99292
-1.43240	0.55929
2.52035	0.50828
1.01576	0.20219
2.18883	-1.07320
1.70430	-1.22625
-4.23758	0.32972
-3.06450	1.35003
-0.59084	-1.48133
1.01576	-0.71609
0.50573	1.04394
1.60230	0.61031
1.44929	0.04914
0.32721	-0.18043
-0.20832	0.91640
0.50573	0.25320
0.99026	1.47757
-0.46334	3.21210
-0.02981	-1.02219
0.27621	-4.31269
-0.20832	-2.83324
0.53123	1.45206
-1.20288	2.39585
-1.45790	1.47757
0.93925	0.07465
0.42922	-0.38449
0.32721	0.86539
0.35272	0.27871
0.48022	0.40625
-0.76936	0.30422
2.16333	-1.17523
1.24527	-1.78742
-3.57454	0.04914
1.34728	-0.71609
0.73524	0.78886
-0.05531	1.83468
1.65330	1.55410
2.16333	0.55929
0.12320	-0.61406
-3.34502	0.71234
-2.06994	0.12566
0.73524	-0.10391
0.27621	-1.76191
0.58223	0.10015
-0.69285	0.35523
1.09226	0.12566
1.27078	0.63582
2.21434	0.35523
1.78081	1.32453
-3.62554	0.86539
-1.27939	-1.17523
-1.86593	-2.93527
0.40372	-0.33348
1.27078	0.86539
2.03582	2.59991
2.13783	1.73265
-0.20832	-1.43031
0.55673	-1.45582
0.68424	0.96742
-1.53441	4.20690
-0.74385	-1.43031
-3.65104	-3.67499
-0.84586	-2.70570
2.03582	2.01323
1.57679	2.01323
0.73524	0.45726
1.14327	1.37554
2.11233	1.91120
2.06133	1.06945
-2.01894	-0.38449
-0.00431	-5.23097
0.02119	-0.89465
-3.85505	1.14597
-1.48340	1.45206
0.68424	2.47238
2.90288	1.63062
2.85188	-1.86394
-0.13181	-3.01179
-2.91149	0.20219
-0.84586	1.19699
1.83181	1.04394
2.57136	0.38074
1.65330	0.86539
-1.86593	2.44687
-0.15732	-0.97117
-3.09000	-3.44542
0.07220	-1.25176
-0.38683	1.37554
1.44929	1.22250
0.42922	0.43176
0.35272	0.55929
1.09226	0.68683
0.68424	0.25320
0.37822	0.96742
0.22521	1.50308
-0.76936	0.83988
1.55129	-0.89465
-0.10631	-1.30277
-2.70748	-3.31788
-1.50890	-0.66508
-0.00431	1.29902
0.91375	1.19699
1.57679	1.47757
0.99026	1.22250
0.91375	0.07465
-0.59084	-0.51203
-0.28482	-0.61406
-0.05531	0.61031
1.32178	0.96742
1.75531	0.50828
-1.33039	-0.02739
-2.83499	1.40105
1.50029	-0.53754
0.81175	-1.65988
-0.74385	-2.55265
0.42922	-0.28246
-0.89686	1.32453
-0.43783	2.11527
1.04126	1.70714
1.78081	0.30422
2.23984	-0.30797
1.78081	0.07465
-0.38683	0.48277
-0.74385	0.12566
-5.38515	1.29902
0.32721	1.42656
1.75531	-1.17523
1.78081	-4.05761
2.06133	-3.34339
-3.70204	0.66132
-1.20288	2.11527
1.72980	4.13038
2.77537	2.39585
-0.41233	0.02363
-2.52897	-2.80773
-1.71292	-3.11382
0.58223	0.71234
0.76074	2.42136
0.58223	2.03874
2.06133	0.91640
0.93925	1.17148
0.40372	0.76336
0.32721	0.04914
-0.23382	-1.83844
-0.61635	-1.30277
0.50573	-0.94566
1.14327	-0.02739
-1.96793	1.78367
-0.71835	0.48277
0.53123	-1.02219
2.36734	-2.55265
-2.24845	1.78367
-4.82411	-0.58856
0.99026	-0.18043
1.34728	0.38074
1.65330	1.75816
2.62236	1.55410
2.74987	0.68683
2.90288	0.96742
-1.43240	-0.43551
-0.56534	-2.24656
-5.10463	0.15117
-2.32496	2.26831
3.03039	-0.86914
2.97938	-0.92016
-0.31033	-1.63437
-0.41233	-0.00188
-2.32496	0.25320
0.42922	2.14077
-0.36133	0.61031
1.83181	-0.07840
1.95932	-1.07320
0.35272	0.50828
-0.28482	1.27351
-1.22839	0.94191
-0.69285	0.20219
0.14870	-1.86394
0.14870	-0.33348
0.45472	0.66132
0.25071	0.40625
0.07220	-0.02739
0.02119	-0.23145
0.17421	0.48277
-0.02981	0.58480
0.09770	-0.58856
0.88825	-0.46102
0.40372	-0.63957
1.04126	0.02363
0.76074	0.91640
-2.22295	-0.20594
-0.82036	0.04914
0.86275	1.19699
2.39285	1.70714
0.91375	-0.00188
-5.79318	-0.71609
0.58223	-0.23145
0.76074	-0.35899
3.71893	-0.02739
1.24527	1.60511
-0.53984	1.09496
-0.74385	-0.20594
0.02119	-1.71090
0.09770	-0.28246
0.07220	-0.35899
-1.30489	3.03355
2.92838	-0.61406
0.45472	-1.43031
0.09770	-1.88945
-0.20832	1.96222
-0.23382	0.43176
0.91375	0.48277
-3.31952	1.17148
-1.50890	0.30422
1.34728	-1.20074
-1.02437	-1.14973
0.81175	1.06945
1.11776	0.32972
0.99026	0.71234
1.11776	-0.25695
0.45472	0.48277
0.22521	0.43176
-0.18282	1.57960
-0.20832	0.50828
-0.36133	-2.17003
0.12320	-2.50164
0.81175	-0.15492
0.55673	0.91640
0.22521	1.88570
-0.00431	1.63062
-1.91693	0.71234
0.40372	1.52859
1.60230	0.71234
-0.13181	-1.14973
-0.92237	-4.36370
0.17421	-0.48652
2.49485	1.27351
1.78081	1.60511
-0.08081	2.19179
0.50573	0.25320
-4.62010	-0.56305
-0.59084	-2.14453
-0.18282	-0.15492
-0.05531	0.20219
3.00489	1.93671
3.48942	0.17668
1.27078	0.15117
-1.25389	-1.20074
-1.91693	0.22769
0.04670	0.53379
-0.43783	-0.00188
-2.45246	0.25320
-1.25389	0.02363
-2.47797	0.55929
2.62236	0.83988
3.13239	0.04914
1.44929	0.07465
1.39828	-1.14973
3.18340	0.58480
2.01032	2.29382
-1.50890	1.42656
-5.71667	-3.11382
-0.38683	-3.67499
0.58223	-0.99668
0.07220	1.80917
-0.08081	1.45206
0.76074	2.06425
0.25071	1.17148
0.04670	0.25320
0.02119	-0.51203
0.12320	0.68683
0.32721	-0.02739
1.47479	0.25320
1.39828	-0.48652
-0.76936	-1.02219
0.12320	-1.02219
-3.21751	-0.15492
1.65330	0.35523
0.55673	0.55929
0.93925	1.32453
2.08683	0.35523
-0.08081	0.35523
0.19971	-0.10391
-0.64185	-0.92016
-1.55991	-0.92016
0.91375	-0.00188
1.65330	0.81437
0.70974	0.63582
0.02119	2.42136
-0.69285	1.78367
-1.25389	-1.32828
-1.76392	-4.03210
-4.03357	-1.17523
-1.53441	2.14077
-0.41233	1.93671
3.69343	1.32453
3.18340	0.76336
2.36734	0.20219
1.72980	-0.10391
0.76074	-0.76711
0.42922	-0.33348
0.25071	-0.66508
-2.12094	-1.07320
-1.15188	-0.66508
-0.59084	1.55410
-0.08081	1.42656
-0.43783	0.61031
-0.20832	0.50828
0.65874	-1.83844
0.30171	-0.51203
0.99026	-0.46102
0.91375	1.09496
-1.50890	1.47757
-2.27395	1.14597
1.32178	0.22769
0.96476	-0.41000
-1.68742	-0.97117
3.46392	-0.23145
0.86275	0.48277
2.01032	-0.10391
1.29628	0.76336
0.22521	0.91640
-0.18282	-0.12942
-0.43783	0.30422
-0.38683	-0.99668
-1.99343	-1.68539
-0.59084	-0.18043
-1.02437	1.27351
1.88281	1.24800
0.58223	0.91640
-2.57997	0.86539
-1.58541	0.68683
3.15790	0.83988
3.48942	-0.48652
0.91375	-0.81812
-1.12638	-1.07320
-4.77311	-0.35899
-4.05907	-1.76191
0.63323	0.76336
4.45848	1.37554
2.46935	1.14597
2.34184	1.22250
1.47479	0.12566
0.30171	-1.35379
-0.23382	-0.79262
-0.02981	1.96222
-0.28482	0.89089
-1.30489	-1.50683
-3.19201	-2.29757
-0.36133	1.17148
0.50573	1.19699
0.73524	0.27871
0.42922	-1.68539
0.91375	1.52859
-1.50890	2.24281
2.03582	2.31933
1.55129	-0.58856
0.12320	-1.88945
-0.41233	-1.07320
0.81175	-0.10391
-0.33583	-0.53754
-1.68742	0.55929
-1.91693	-0.41000
-2.12094	1.24800
2.06133	1.42656
1.75531	1.09496
2.23984	-0.25695
2.67337	-0.10391
1.55129	-1.58336
0.02119	0.10015
-0.53984	0.76336
-2.40146	-0.18043
-4.23758	-1.71090
-4.82411	-0.05289
1.39828	1.19699
4.05045	1.63062
4.84100	0.86539
1.27078	0.45726
1.19427	-1.22625
-1.76392	0.27871
-1.76392	-0.30797
0.30171	0.10015
0.40372	0.53379
0.14870	0.27871
-1.63641	-0.10391
-0.61635	-0.79262
0.40372	0.12566
0.93925	1.17148
0.58223	1.17148
1.04126	-1.43031
-1.20288	-2.70570
-0.08081	-0.18043
-0.00431	1.57960
0.58223	1.52859
1.14327	1.29902
0.48022	0.78886
0.04670	-0.92016
-0.00431	-0.28246
-0.66735	0.50828
0.04670	0.40625
-1.71292	0.12566
1.14327	-0.61406
2.08683	0.43176
1.75531	-0.07840
-0.56534	0.45726
1.39828	-0.05289
-0.41233	-1.35379
-4.08457	-2.62918
-1.91693	-1.02219
1.57679	1.68163
1.75531	1.22250
3.03039	1.32453
1.01576	1.68163
-1.07538	1.75816
-1.35589	0.07465
-1.10088	-0.05289
-1.43240	-0.33348
1.67880	-1.65988
0.09770	-0.51203
0.12320	0.45726
1.09226	0.10015
2.18883	0.45726
0.81175	0.83988
0.12320	1.12046
-1.63641	0.30422
0.65874	-2.96078
-0.92237	-1.99148
-1.91693	0.22769
0.55673	1.12046
1.06676	1.65613
0.35272	1.12046
0.93925	1.06945
-1.15188	1.68163
0.91375	-0.18043
-0.46334	-1.94047
1.09226	-0.79262
0.17421	0.25320
1.90832	0.91640
-0.13181	1.42656
-0.69285	0.10015
1.24527	-0.63957
0.07220	-1.25176
0.02119	1.35003
-0.71835	0.25320
-1.17738	-0.79262
1.55129	-2.45062
1.09226	0.48277
-1.71292	1.68163
-3.72755	1.32453
1.47479	2.14077
1.90832	0.35523
2.64786	0.12566
-0.64185	-0.89465
1.95932	0.04914
0.73524	0.76336
-0.48884	-0.12942
-0.64185	-0.63957
-0.89686	-2.22105
-1.10088	1.42656
-3.72755	0.76336
2.62236	0.40625
0.07220	0.40625
-0.00431	0.45726
0.81175	0.07465
0.58223	-0.15492
0.09770	0.04914
0.14870	-0.35899
1.55129	0.45726
2.16333	1.12046
1.83181	-0.41000
-2.57997	-0.74160
-4.26308	-1.73640
-1.48340	1.06945
0.91375	1.65613
1.83181	1.12046
1.57679	0.66132
1.11776	0.30422
0.83725	-0.02739
1.01576	0.07465
1.21977	0.66132
-0.48884	-0.00188
-0.18282	-1.65988
-0.94787	-2.65468
-2.88599	-0.20594
0.48022	1.35003
-1.17738	0.96742
0.40372	1.68163
2.64786	0.58480
1.42379	0.38074
-0.10631	-0.66508
-1.45790	-0.81812
0.14870	0.68683
1.42379	0.76336
1.32178	2.03874
1.55129	0.22769
-0.92237	-0.48652
-2.01894	-4.28718
0.91375	-1.07320
-1.86593	0.86539
-0.84586	1.65613
0.73524	1.60511
-0.08081	1.04394
0.76074	0.35523
2.59686	0.04914
3.59142	-0.05289
-1.04987	1.42656
-2.86049	0.63582
0.22521	-2.29757
-3.09000	-3.54745
0.27621	-0.51203
1.75531	1.91120
1.85731	1.98773
1.34728	1.45206
0.35272	0.55929
0.19971	-0.05289
0.07220	0.10015
-0.74385	0.12566
0.12320	0.17668
0.78624	0.10015
-0.28482	0.15117
-1.35589	-0.56305
-1.48340	-0.41000
0.04670	1.14597
0.27621	0.35523
0.76074	-1.68539
1.14327	-0.97117
-0.56534	0.25320
0.32721	1.57960
1.34728	0.07465
1.47479	0.45726
-0.10631	2.14077
-0.33583	-0.33348
0.32721	0.32972
0.12320	-0.46102
-1.20288	-0.00188
-0.99887	1.01843
-0.61635	0.20219
0.73524	-0.05289
2.52035	0.10015
2.16333	0.25320
1.16877	-0.18043
-0.84586	-0.97117
-5.07913	-0.23145
0.45472	0.55929
1.70430	1.50308
1.90832	-0.71609
0.09770	-1.50683
-0.15732	-1.22625
1.44929	1.78367
0.12320	1.70714
-0.46334	1.40105
-0.48884	0.20219
-1.66191	0.35523
-0.69285	0.35523
-1.07538	0.27871
0.30171	-0.10391
1.42379	-0.18043
2.08683	-0.05289
1.85731	-1.17523
1.47479	-1.48133
-0.48884	-0.61406
-2.29945	0.35523
0.17421	1.14597
1.16877	1.50308
-0.61635	0.43176
0.40372	-0.23145
0.19971	-1.35379
0.17421	0.50828
0.35272	1.45206
0.53123	1.14597
0.53123	1.01843
-1.04987	0.61031
-2.65648	0.02363
-0.43783	-0.12942
0.86275	-1.07320
1.44929	-1.04770
1.62780	0.04914
2.13783	0.45726
-0.25932	0.45726
-0.23382	-0.05289
0.12320	-0.56305
-0.23382	0.27871
-4.31408	0.78886
1.16877	1.09496
1.90832	0.15117
1.62780	-0.66508
-0.38683	-0.28246
-0.13181	0.27871
-1.33039	0.66132
-0.33583	-0.28246
2.31634	0.86539
-0.53984	-0.23145
0.99026	0.12566
-0.64185	0.55929
0.73524	0.99292
-0.20832	0.68683
0.83725	-0.38449
1.90832	-0.66508
1.55129	-0.05289
-2.12094	-0.79262
-1.73842	0.50828
-0.08081	-1.40480
-2.45246	0.48277
-0.33583	0.83988
1.55129	0.63582
1.11776	0.66132
1.62780	1.14597
0.12320	3.11007
0.88825	0.07465
0.04670	-1.60887
-1.99343	-4.08312
0.73524	0.73785
-0.10631	1.04394
1.09226	0.96742
1.21977	0.48277
1.60230	-0.02739
0.48022	0.20219
0.53123	0.43176
-1.12638	0.63582
-1.35589	0.58480
-2.70748	-1.45582
-1.48340	-0.99668
1.80631	-0.18043
0.37822	0.86539
1.32178	0.35523
2.11233	1.06945
3.64243	0.12566
-1.91693	0.04914
-2.01894	1.17148
0.53123	0.04914
-2.98800	0.15117
-1.45790	0.15117
2.01032	-1.12422
2.57136	-1.40480
2.13783	-0.74160
2.03582	0.58480
-1.78942	1.24800
0.60773	1.24800
1.11776	1.24800
-0.48884	0.43176
-2.86049	0.15117
-0.87136	1.42656
-1.48340	-0.99668
0.02119	-1.99148
1.04126	-2.24656
1.50029	0.27871
-0.15732	1.75816
-0.69285	0.78886
0.76074	0.63582
1.65330	-0.51203
-0.87136	-0.53754
-1.40690	0.73785
1.27078	0.45726
0.35272	-0.53754
0.83725	0.66132
2.16333	1.50308
2.67337	-0.05289
-0.87136	-0.71609
0.37822	-0.41000
-1.84042	0.17668
0.07220	0.35523
-1.40690	0.58480
-5.20664	-0.10391
0.93925	0.10015
2.54586	0.53379
0.65874	-0.18043
0.50573	-0.02739
2.13783	0.50828
0.60773	-0.23145
-0.33583	-0.66508
0.78624	0.83988
0.70974	-0.05289
0.65874	-0.41000
-1.27939	1.06945
-0.15732	0.76336
0.35272	0.25320
-1.38139	-0.07840
-0.48884	0.30422
0.32721	0.43176
0.68424	0.10015
1.04126	0.55929
1.34728	-0.12942
-0.48884	-0.07840
0.86275	-1.50683
-0.79486	-2.42511
-4.08457	-0.61406
-2.98800	0.96742
2.03582	2.19179
1.47479	1.63062
3.41291	1.01843
2.06133	1.42656
0.25071	0.99292
2.74987	0.20219
1.93382	-1.50683
-0.15732	-2.11902
-0.43783	-1.68539
-1.17738	1.78367
-5.81868	1.78367
-2.52897	-0.53754
-0.08081	-2.50164
-1.02437	-0.63957
2.41835	2.54890
2.59686	0.30422
1.62780	0.53379
-0.48884	0.68683
0.73524	1.01843
1.27078	-0.00188
0.17421	-1.32828
0.09770	-0.02739
0.68424	2.29382
1.29628	0.73785
-3.95706	-1.32828
-0.56534	-1.88945
-3.37052	-0.15492
-0.31033	0.83988
1.93382	0.61031
3.76993	0.81437
2.64786	0.38074
1.34728	0.04914
-1.02437	-0.69059
-1.40690	0.63582
1.06676	0.38074
0.02119	-0.25695
-1.22839	-0.15492
0.32721	-0.74160
0.60773	0.58480
-0.20832	0.17668
0.40372	-0.02739
-0.79486	-0.51203
-0.18282	1.14597
1.14327	0.02363
0.58223	0.63582
0.22521	0.76336
-1.45790	0.32972
-1.27939	-0.46102
1.55129	0.76336
1.04126	0.38074
-0.82036	1.04394
0.53123	-0.71609
1.21977	-1.20074
1.29628	-0.25695
1.62780	0.35523
-2.88599	1.01843
-7.45078	-0.79262
1.90832	1.06945
3.20890	-0.10391
2.85188	0.15117
2.21434	-0.61406
0.04670	0.30422
0.02119	0.45726
0.40372	1.06945
-0.28482	1.12046
-0.25932	0.53379
-1.12638	-0.46102
0.40372	-0.35899
-0.38683	-0.48652
-1.35589	-0.10391
-1.81492	-0.35899
-1.07538	-0.35899
1.55129	0.76336
0.81175	0.73785
2.87738	0.76336
-0.25932	1.29902
-2.73298	-0.15492
1.85731	-0.86914
1.78081	-1.27726
2.26534	0.22769
0.27621	0.35523
-0.15732	0.86539
1.24527	0.94191
0.50573	-0.10391
0.32721	-0.10391
-2.37596	0.07465
-4.84962	0.17668
-0.33583	0.48277
0.17421	0.45726
0.04670	-0.74160
1.34728	-0.28246
2.06133	0.73785
3.36191	0.38074
0.70974	0.17668
0.93925	0.32972
-1.96793	0.71234
-1.53441	-0.53754
-0.15732	-1.27726
-0.53984	-0.89465
0.17421	1.57960
0.17421	1.22250
0.81175	0.43176
0.25071	-0.66508
0.68424	-0.84363
0.37822	-0.81812
-0.15732	0.45726
-0.38683	0.99292
0.48022	0.61031
-5.05363	-0.05289
-0.00431	0.73785
-1.04987	0.76336
1.57679	0.50828
5.40204	0.50828
4.25447	0.40625
-0.82036	-0.28246
0.96476	-0.58856
-0.38683	-0.15492
-0.36133	-1.96597
-0.25932	-0.18043
-2.17195	0.71234
-1.58541	0.66132
-0.41233	0.15117
-1.63641	0.71234
-0.36133	0.53379
2.92838	0.66132
2.26534	0.12566
-2.09544	0.02363
0.70974	1.29902
0.83725	0.22769
0.04670	-1.48133
1.16877	-2.34859
0.50573	-0.79262
-0.89686	1.14597
0.27621	1.32453
0.45472	1.91120
0.32721	1.17148
-2.09544	0.32972
-0.43783	-1.07320
-0.97337	-0.86914
0.81175	0.61031
0.96476	0.76336
0.83725	-1.35379
0.70974	-0.86914
1.24527	0.78886
0.37822	1.52859
-0.51434	-0.25695
-0.38683	-0.51203
1.90832	-0.12942
-1.73842	0.99292
0.78624	0.02363
-0.56534	0.04914
-4.56910	0.35523
0.53123	0.12566
1.37278	-0.25695
1.39828	-0.58856
2.08683	0.30422
1.67880	0.55929
1.67880	1.09496
0.02119	0.61031
-1.17738	0.76336
-0.05531	0.04914
0.73524	0.04914
-0.74385	-0.99668
-2.75848	-0.81812
-1.40690	0.17668
-0.97337	-0.15492
0.70974	0.25320
2.13783	0.76336
1.70430	0.81437
-0.02981	0.83988
-0.66735	-1.07320
-0.33583	-1.17523
1.04126	-0.25695
1.29628	0.50828
1.01576	1.22250
0.68424	1.96222
2.16333	0.83988
-0.56534	-0.58856
-1.81492	-2.45062
-1.04987	0.68683
-3.52353	1.27351
-1.99343	0.86539
2.18883	-0.10391
2.06133	-0.33348
1.80631	0.66132
1.70430	0.35523
0.40372	0.76336
-0.38683	0.04914
0.58223	-0.66508
0.40372	-2.09351
-0.74385	-0.46102
-0.71835	-0.15492
-1.10088	0.86539
-0.59084	2.29382
-0.15732	-0.81812
-0.23382	-2.22105
0.83725	0.12566
-0.92237	1.63062
-0.69285	1.14597
1.01576	0.68683
2.01032	1.42656
2.26534	0.86539
1.24527	0.12566
1.16877	-0.81812
0.22521	-0.56305
-0.18282	-2.27207
-0.56534	-0.58856
0.09770	0.45726
-1.78942	0.55929
-1.12638	1.37554
-1.58541	1.45206
0.07220	0.12566
-0.18282	-0.58856
1.09226	-0.81812
0.99026	0.25320
-0.82036	0.58480
2.03582	0.45726
2.08683	-0.02739
1.83181	0.83988
2.23984	0.73785
-3.34502	1.52859
-3.39602	-2.45062
-1.10088	-2.29757
0.32721	-1.60887
0.27621	1.29902
1.47479	1.37554
0.99026	0.99292
0.60773	0.86539
0.68424	0.91640
0.50573	0.10015
0.04670	-0.18043
-0.28482	-0.23145
-0.71835	0.61031
-0.28482	0.22769
0.50573	0.50828
0.45472	0.07465
0.65874	-2.34859
-2.35046	-0.53754
-0.46334	0.15117
1.24527	0.53379
-0.53984	2.19179
-0.05531	0.96742
-0.05531	-0.46102
1.01576	-0.89465
1.01576	0.40625
2.74987	1.27351
0.42922	-1.07320
-1.73842	-0.79262
-1.12638	-1.48133
-1.25389	1.17148
1.39828	1.50308
1.90832	1.55410
-0.97337	1.98773
0.45472	-0.00188
1.21977	-1.07320
-0.23382	-2.06800
0.32721	-0.86914
-2.04444	0.32972
-1.55991	1.06945
-1.40690	1.80917
1.19427	0.32972
1.01576	-0.63957
1.24527	-0.41000
0.91375	0.02363
0.58223	-0.33348
0.09770	0.15117
-0.20832	1.93671
-0.08081	1.14597
1.21977	-1.07320
-0.46334	-1.27726
-3.24301	0.15117
-0.08081	0.20219
1.19427	-0.71609
1.34728	-0.35899
0.93925	0.86539
0.60773	1.50308
0.45472	0.99292
0.78624	-0.48652
-0.10631	-0.48652
-0.41233	-0.23145
-2.04444	0.45726
-0.31033	1.37554
1.90832	1.24800
-1.84042	-0.61406
-0.46334	-1.71090
0.09770	-0.94566
1.95932	0.02363
1.11776	0.73785
-0.28482	0.22769
0.42922	0.30422
0.96476	0.81437
0.65874	1.75816
0.55673	0.40625
1.11776	-0.56305
1.37278	-1.27726
-1.53441	-0.05289
-3.60004	0.27871
-4.41609	0.02363
1.95932	0.63582
1.78081	0.96742
1.04126	-0.07840
1.44929	-1.50683
2.11233	-1.45582
0.96476	0.10015
-1.66191	0.43176
-0.10631	1.47757
-0.08081	1.29902
1.06676	0.76336
0.45472	1.29902
-0.64185	0.45726
-0.02981	-0.43551
0.45472	-0.58856
0.65874	0.27871
0.30171	0.63582
0.12320	-0.56305
-0.41233	-2.80773
-0.56534	1.14597
-0.33583	1.06945
-0.87136	0.89089
0.73524	-0.63957
1.27078	0.20219
0.68424	0.35523
1.67880	0.45726
1.83181	0.94191
-1.04987	-0.20594
-5.53816	-1.09871
-0.15732	-0.41000
-0.43783	0.38074
1.55129	0.32972
2.95388	0.50828
2.13783	0.55929
1.55129	-0.28246
1.19427	-0.25695
-0.13181	0.25320
-0.00431	0.76336
-1.66191	0.30422
-4.16107	0.38074
-2.45246	-0.51203
0.25071	0.50828
3.20890	0.53379
2.69887	0.83988
-0.00431	0.71234
1.65330	-0.89465
-0.02981	-2.47613
0.17421	-0.63957
-1.40690	1.75816
-2.01894	0.55929
-0.66735	-1.12422
0.17421	0.12566
1.85731	0.89089
1.50029	1.17148
-1.10088	1.17148
0.35272	-0.18043
0.60773	-1.30277
1.24527	-0.58856
-1.12638	1.45206
-0.94787	0.43176
0.04670	0.32972
0.68424	0.99292
0.19971	-0.33348
0.99026	-1.02219
1.14327	-0.61406
0.50573	-0.63957
0.48022	1.52859
-1.17738	0.81437
-1.02437	0.32972
-2.12094	-1.45582
1.11776	-0.05289
-1.40690	-0.05289
-0.79486	0.99292
2.80087	1.27351
0.48022	0.83988
2.52035	0.71234
2.31634	0.58480
-0.97337	-0.38449
0.14870	0.35523
2.34184	-0.18043
-0.53984	-1.43031
-1.07538	-1.12422
-6.35421	0.32972
-1.20288	-0.12942
2.72437	0.02363
1.80631	0.40625
-1.71292	0.73785
-0.84586	1.09496
1.78081	0.71234
2.16333	1.24800
2.03582	0.04914
-0.00431	-0.76711
-0.53984	-1.04770
0.58223	0.45726
-0.84586	0.38074
-2.14644	0.38074
-0.20832	0.22769
0.48022	-0.25695
1.04126	-0.38449
0.83725	0.50828
0.50573	-0.53754
0.09770	0.27871
-0.00431	-0.25695
0.58223	-0.38449
-0.53984	1.27351
-0.10631	0.66132
0.09770	1.96222
0.48022	1.32453
0.14870	-0.97117
0.12320	-2.22105
-1.58541	-1.20074
1.55129	0.55929
0.17421	0.76336
-1.63641	1.01843
0.14870	1.35003
0.12320	0.27871
1.95932	1.01843
2.87738	-1.17523
-0.79486	-1.09871
-1.73842	-1.20074
1.19427	0.91640
1.67880	0.32972
-2.01894	0.15117
0.12320	0.20219
-0.15732	0.76336
0.55673	0.96742
1.70430	0.99292
1.11776	-0.00188
-2.47797	-0.92016
-0.66735	-1.07320
-0.56534	-0.15492
0.04670	0.55929
0.70974	1.04394
0.68424	0.61031
0.76074	-0.02739
0.53123	-0.25695
-0.94787	0.81437
0.60773	-0.30797
0.09770	-0.76711
-0.08081	1.52859
-0.00431	-1.04770
-0.53984	-1.32828
0.25071	0.22769
0.07220	1.78367
0.22521	1.27351
1.14327	0.15117
1.57679	-0.25695
1.21977	0.25320
-1.30489	0.83988
-1.15188	-0.46102
0.35272	-0.53754
-1.48340	-0.05289
0.68424	1.19699
-1.43240	1.27351
2.97938	-0.81812
2.59686	-2.52714
1.24527	-2.70570
-0.10631	1.55410
-4.08457	2.06425
-3.54903	1.24800
0.22521	0.53379
2.92838	0.32972
1.72980	0.27871
2.52035	0.45726
-1.25389	0.25320
-1.45790	-0.28246
1.57679	-0.20594
0.91375	-0.05289
-1.78942	-0.56305
-0.56534	-1.58336
-1.89143	-0.05289
0.70974	0.45726
-0.74385	0.63582
2.49485	2.16628
2.67337	0.35523
1.29628	-0.25695
-2.96250	-2.06800
0.42922	0.45726
0.35272	0.10015
0.09770	0.04914
0.12320	0.68683
0.07220	1.45206
-0.15732	0.15117
-0.02981	0.58480
0.12320	0.15117
0.09770	-0.12942
0.04670	-0.07840
-0.33583	0.30422
-0.23382	0.30422
0.73524	-0.92016
0.83725	0.66132
0.02119	-0.84363
0.96476	-0.76711
-0.64185	-1.91496
0.19971	1.09496
-1.35589	0.86539
0.32721	0.17668
0.35272	0.66132
0.09770	1.70714
-0.33583	0.78886
-2.04444	-0.15492
3.36191	-0.56305
2.72437	-0.05289
1.85731	0.35523
-0.18282	-0.28246
0.09770	0.22769
-1.76392	-0.38449
-1.58541	0.55929
-1.12638	1.01843
-0.23382	0.55929
0.93925	-0.00188
0.96476	-0.99668
0.73524	-0.58856
-0.13181	0.10015
-0.00431	1.27351
0.55673	0.04914
-0.33583	-0.33348
-0.38683	-0.53754
-0.43783	0.40625
0.17421	0.83988
0.53123	0.15117
0.40372	-0.07840
0.17421	0.04914
0.25071	0.55929
0.73524	0.53379
-0.15732	0.35523
-1.04987	-0.15492
0.93925	0.53379
1.09226	1.19699
0.45472	-0.28246
1.27078	-1.37929
-0.38683	-0.89465
-1.38139	-0.51203
-0.18282	0.45726
-2.75848	0.86539
2.31634	1.86019
-0.18282	1.19699
-0.64185	-0.48652
2.06133	-1.25176
3.05589	1.06945
3.84644	-0.28246
-0.46334	-0.58856
-3.70204	-1.32828
-7.55279	1.55410
-0.71835	1.52859
3.71893	0.94191
2.64786	0.73785
1.44929	0.25320
0.48022	0.22769
-0.02981	-0.74160
0.25071	-0.43551
1.85731	-0.69059
0.35272	-0.46102
-0.33583	-0.05289
-3.62554	0.40625
-1.10088	-0.18043
-1.86593	0.76336
-0.02981	1.09496
1.50029	0.66132
1.93382	0.30422
0.53123	-0.30797
0.30171	0.10015
0.93925	1.12046
-0.69285	0.25320
0.88825	-0.12942
1.39828	-0.74160
0.60773	-0.23145
-0.10631	-0.07840
-0.28482	-0.92016
-0.31033	0.43176
-0.31033	0.50828
0.37822	0.73785
0.22521	0.15117
-1.55991	-1.02219
-1.45790	-0.53754
-0.61635	1.29902
1.85731	0.27871
1.90832	0.78886
1.52579	-0.18043
0.83725	0.48277
-0.59084	0.25320
-4.51810	0.04914
1.65330	-0.48652
0.07220	0.15117
1.75531	0.32972
0.88825	1.04394
0.45472	0.30422
1.32178	0.17668
0.12320	-1.04770
-1.68742	-0.99668
-0.18282	-1.65988
0.40372	0.48277
-1.55991	1.65613
-0.08081	1.14597
1.34728	2.11527
1.29628	-0.69059
-1.25389	-1.71090
-0.46334	-0.89465
-0.08081	0.25320
0.76074	1.47757
0.70974	1.17148
-2.19745	1.01843
0.45472	-0.92016
1.21977	0.12566
1.67880	-0.02739
1.95932	0.17668
2.54586	-1.14973
-3.95706	-0.66508
-3.54903	0.04914
0.83725	1.17148
0.78624	0.81437
1.09226	0.86539
0.65874	-0.00188
0.96476	-0.76711
1.44929	0.27871
0.12320	0.22769
-2.55447	-0.58856
0.48022	-0.99668
-0.08081	-0.38449
-0.79486	1.22250
-1.17738	1.04394
1.47479	1.24800
0.45472	0.61031
0.14870	-0.30797
0.25071	-0.35899
1.72980	0.25320
-0.36133	0.02363
-1.07538	-0.12942
-1.30489	0.17668
2.54586	0.02363
3.10689	1.06945
-1.50890	-0.48652
-0.82036	-0.99668
-0.13181	-1.43031
0.76074	1.27351
-0.00431	0.48277
-0.43783	0.81437
1.14327	0.94191
-0.23382	-0.18043
-1.43240	-0.33348
-0.56534	0.66132
1.01576	0.12566
1.32178	-0.23145
1.01576	0.25320
0.45472	0.78886
0.40372	0.45726
-0.05531	0.35523
-0.10631	-0.99668
-5.18114	-0.58856
0.32721	0.53379
1.70430	-0.43551
2.36734	0.32972
0.37822	-1.40480
1.14327	-0.25695
1.72980	1.04394
-0.84586	1.14597
-2.45246	1.47757
0.55673	0.96742
-0.43783	0.50828
0.76074	0.78886
-3.34502	-1.02219
0.73524	-1.35379
1.24527	-0.41000
2.13783	0.63582
3.00489	0.04914
1.80631	-0.51203
-5.58916	0.53379
-2.14644	-0.74160
1.42379	-0.23145
0.25071	0.35523
-2.60547	0.45726
2.08683	0.76336
2.16333	1.14597
1.57679	1.27351
1.83181	0.66132
-0.10631	-0.76711
0.30171	-0.89465
-0.18282	0.43176
0.12320	0.25320
-2.29945	-0.28246
-1.78942	-0.48652
-0.00431	-0.15492
-0.36133	-0.86914
-0.20832	-0.89465
0.30171	0.25320
0.83725	0.94191
-0.23382	1.24800
0.88825	0.68683
0.88825	0.66132
0.27621	0.43176
0.65874	0.27871
0.76074	0.04914
0.19971	-0.07840
0.19971	-0.20594
0.53123	-0.33348
0.04670	0.25320
-0.28482	0.94191
-0.13181	0.35523
-0.82036	-1.60887
-0.05531	-0.48652
1.19427	-0.25695
1.55129	-0.20594
-1.81492	-0.66508
-4.26308	0.94191
2.34184	0.83988
2.34184	1.40105
1.83181	0.76336
1.19427	0.15117
-1.73842	0.55929
-0.13181	0.40625
1.42379	0.27871
-2.17195	0.40625
-0.84586	-1.04770
1.16877	-0.81812
3.56592	-0.48652
-0.51434	0.45726
-1.91693	0.17668
0.63323	0.17668
-0.59084	0.22769
0.32721	1.68163
0.55673	-0.35899
-0.66735	-1.50683
0.17421	-0.76711
0.25071	0.76336
0.99026	1.40105
0.32721	1.35003
0.27621	-0.33348
0.55673	-0.94566
0.63323	-0.61406
-0.99887	0.89089
-2.01894	1.01843
-2.24845	0.99292
1.06676	-0.86914
1.47479	0.71234
1.21977	1.42656
-0.08081	0.86539
1.44929	-1.58336
0.65874	-3.36890
0.48022	-1.17523
0.58223	1.55410
-0.10631	1.24800
-1.40690	0.61031
-0.46334	1.04394
-0.89686	0.76336
1.42379	0.10015
-1.04987	0.38074
-2.40146	1.22250
3.23440	0.73785
3.03039	-1.91496
-1.10088	-3.70050
-2.35046	-1.50683
-0.13181	1.52859
1.21977	1.60511
1.70430	1.37554
1.09226	0.61031
0.17421	-0.20594
1.42379	0.43176
-1.02437	0.91640
-1.58541	0.45726
-0.05531	0.25320
0.53123	-0.25695
-0.05531	-0.76711
-0.08081	-0.84363
-0.71835	0.40625
-0.79486	0.04914
0.42922	-1.17523
0.65874	0.07465
-0.08081	0.96742
1.24527	1.09496
0.81175	0.96742
-0.15732	0.53379
0.86275	0.78886
0.17421	-0.38449
0.50573	-0.30797
0.07220	-0.12942
0.12320	-0.35899
1.06676	0.66132
-2.70748	0.53379
-0.28482	0.86539
0.55673	-0.30797
-0.08081	-1.17523
-0.13181	-0.35899
0.81175	0.63582
2.95388	1.09496
1.42379	0.78886
-0.71835	-0.05289
-1.40690	-1.60887
-2.65648	-0.48652
0.99026	0.38074
0.14870	0.73785
1.72980	0.50828
-2.17195	0.63582
0.02119	0.30422
2.64786	0.50828
1.06676	0.45726
-0.08081	0.07465
-0.53984	0.15117
-0.28482	0.15117
-0.00431	-0.25695
0.07220	-1.35379
-0.31033	-0.15492
-2.22295	0.61031
1.78081	0.53379
1.01576	0.91640
1.04126	1.27351
0.93925	-0.38449
0.91375	-1.20074
-1.38139	-0.92016
-0.36133	0.35523
0.48022	0.43176
-0.36133	-1.45582
-0.15732	1.24800
-0.02981	2.49788
0.07220	0.27871
0.93925	-0.35899
-0.05531	1.63062
-0.13181	-0.12942
0.04670	-0.28246
0.22521	-1.07320
0.04670	-0.10391
-0.18282	-0.63957
0.22521	-1.71090
0.83725	-1.07320
0.88825	1.52859
0.32721	2.39585
-0.71835	1.42656
-1.63641	0.48277
-1.20288	-0.23145
1.67880	0.22769
1.78081	0.22769
-0.71835	0.22769
2.36734	0.61031
1.29628	-0.20594
-0.76936	-1.68539
0.22521	-1.96597
-0.69285	-0.84363
-2.42696	0.68683
-0.31033	1.17148
1.32178	1.12046
1.19427	1.27351
-0.64185	0.38074
0.88825	-0.25695
2.26534	-0.58856
-2.09544	0.30422
0.32721	-0.10391
1.29628	-0.05289
-0.02981	0.02363
0.27621	0.38074
-1.66191	0.58480
-3.57454	0.45726
1.75531	0.63582
1.09226	-0.33348
1.60230	-0.48652
1.19427	0.04914
0.12320	1.14597
-0.15732	0.71234
0.58223	0.38074
-0.23382	-0.99668
0.25071	-0.00188
0.25071	-2.32308
0.27621	-0.20594
-1.58541	0.22769
-0.23382	1.22250
0.42922	1.47757
0.55673	0.86539
0.70974	-0.05289
0.50573	-1.22625
0.58223	-0.48652
0.48022	1.50308
0.40372	1.27351
-3.44703	-0.56305
-3.52353	-0.51203
0.96476	0.04914
3.38741	0.53379
1.34728	-0.07840
1.24527	0.35523
0.14870	-0.71609
2.13783	1.01843
2.06133	1.09496
-2.42696	-0.38449
-1.81492	-0.30797
-1.48340	-0.69059
1.29628	0.30422
-0.18282	0.15117
1.52579	0.35523
-1.25389	0.35523
-1.15188	0.38074
0.60773	-0.00188
-0.48884	0.45726
0.76074	0.58480
1.04126	-0.12942
1.44929	-0.05289
0.45472	0.68683
-0.41233	0.83988
-0.38683	0.78886
-0.69285	-0.69059
-0.00431	-1.07320
0.60773	-1.07320
0.55673	-0.00188
0.02119	-0.05289
-0.59084	0.76336
0.09770	0.48277
2.64786	1.60511
1.42379	0.04914
-3.39602	-0.76711
-0.13181	0.20219
0.91375	0.45726
-1.02437	1.06945
-2.70748	-0.48652
2.54586	0.66132
2.03582	0.38074
1.04126	1.22250
1.01576	-0.28246
0.73524	-0.89465
0.99026	-2.68019
-0.02981	-1.22625
-0.87136	0.45726
-4.87512	1.17148
-0.94787	1.35003
1.06676	0.99292
1.06676	0.81437
1.06676	-0.15492
-0.61635	-0.58856
0.22521	0.04914
1.21977	0.35523
0.02119	1.09496
1.32178	0.40625
1.14327	0.15117
0.32721	-0.18043
-0.99887	0.35523
-1.22839	0.61031
-0.43783	0.68683
0.76074	-1.65988
0.14870	-1.07320
0.73524	-0.56305
1.29628	0.45726
0.19971	1.14597
-0.46334	0.76336
-0.99887	0.58480
-0.51434	0.78886
2.29084	0.32972
1.78081	-0.53754
-0.99887	0.07465
0.02119	-0.35899
-2.17195	0.55929
-1.02437	1.57960
-3.72755	0.02363
1.75531	-0.58856
3.46392	-1.07320
2.21434	0.71234
2.29084	1.35003
-0.00431	-0.79262
-2.42696	-1.40480
-2.75848	-0.15492
1.29628	2.31933
2.31634	1.14597
0.91375	-1.86394
1.21977	-1.17523
-1.50890	0.73785
-5.07913	1.68163
0.60773	1.04394
