0.19971	0.25320
0.07220	0.02363
0.09770	0.12566
0.17421	0.17668
0.14870	0.17668
0.14870	0.12566
0.25071	0.22769
0.19971	0.22769
0.19971	0.17668
0.22521	0.17668
0.12320	0.17668
0.04670	0.07465
0.07220	0.07465
0.17421	0.10015
0.17421	0.15117
0.17421	0.10015
0.22521	0.20219
0.14870	0.10015
0.12320	0.12566
0.19971	0.07465
0.09770	0.20219
0.04670	0.15117
0.09770	0.02363
0.17421	0.12566
0.19971	0.15117
0.14870	0.07465
0.19971	0.15117
0.27621	0.15117
0.07220	0.15117
0.12320	0.12566
0.12320	0.12566
0.09770	0.15117
0.09770	0.17668
0.04670	0.12566
0.22521	0.12566
0.17421	0.20219
0.09770	0.12566
0.27621	0.15117
0.14870	0.12566
0.12320	0.10015
0.14870	0.17668
0.09770	0.15117
0.09770	0.10015
0.17421	0.15117
0.09770	0.15117
0.22521	0.12566
0.14870	0.15117
0.14870	0.10015
0.12320	0.12566
0.17421	0.15117
0.09770	0.12566
0.07220	0.10015
0.17421	0.20219
0.09770	0.07465
0.12320	0.15117
0.30171	0.35523
0.19971	0.27871
0.12320	0.12566
0.17421	0.07465
0.09770	0.07465
0.07220	0.04914
0.14870	0.15117
0.02119	0.07465
0.14870	0.15117
0.19971	0.20219
0.14870	0.10015
0.17421	0.22769
0.19971	0.17668
0.09770	0.10015
0.12320	0.15117
0.09770	0.15117
0.09770	0.10015
0.02119	0.07465
0.17421	0.12566
0.09770	0.02363
0.17421	0.15117
0.19971	0.32972
0.09770	0.20219
0.12320	-0.02739
0.17421	0.17668
0.09770	0.12566
0.14870	0.10015
0.09770	0.04914
0.12320	0.32972
0.12320	0.10015
0.12320	0.10015
-0.02981	0.07465
0.22521	0.27871
0.27621	0.12566
0.37822	0.04914
0.27621	0.38074
0.04670	0.17668
0.17421	0.25320
0.12320	0.15117
0.09770	0.02363
0.22521	-0.07840
0.09770	0.04914
0.12320	0.07465
0.17421	0.35523
0.07220	0.15117
0.14870	0.43176
-0.02981	0.12566
0.07220	-0.02739
0.17421	0.40625
0.19971	0.04914
0.22521	0.25320
0.09770	0.17668
0.27621	0.17668
0.22521	0.04914
0.17421	0.20219
0.04670	-0.05289
0.17421	0.17668
0.02119	0.02363
0.09770	0.10015
0.14870	0.10015
0.22521	-0.00188
0.12320	0.30422
0.12320	0.10015
0.12320	0.27871
0.17421	0.12566
0.25071	0.12566
0.02119	0.04914
0.09770	0.22769
-0.00431	-0.00188
0.09770	0.25320
0.09770	0.22769
0.27621	0.27871
0.27621	0.12566
0.40372	0.25320
0.07220	0.10015
0.37822	0.30422
0.19971	-0.07840
-0.02981	-0.00188
-0.20832	0.12566
-0.20832	0.38074
0.02119	0.04914
0.22521	-0.25695
0.22521	-0.15492
0.45472	0.30422
0.40372	0.50828
0.22521	0.10015
0.32721	0.53379
-0.02981	-0.43551
0.07220	0.25320
0.07220	0.07465
0.17421	-0.23145
0.02119	0.45726
-0.02981	0.04914
0.17421	0.50828
0.09770	0.40625
0.12320	-0.15492
0.12320	0.30422
0.07220	-0.12942
0.12320	-0.18043
0.19971	0.02363
0.14870	0.02363
0.48022	0.45726
0.42922	0.15117
0.19971	0.32972
-0.08081	-0.12942
0.17421	0.35523
0.07220	0.48277
-0.18282	-0.00188
0.09770	0.45726
0.04670	0.38074
0.40372	0.07465
0.42922	-0.12942
0.32721	-0.07840
0.30171	-0.02739
0.53123	0.17668
-0.36133	0.15117
0.07220	-0.35899
0.19971	-0.00188
-0.08081	0.30422
-0.38683	0.02363
-0.18282	0.96742
-0.33583	0.55929
0.17421	0.32972
0.27621	-0.07840
0.22521	-0.00188
0.86275	0.40625
0.63323	-0.51203
0.78624	-0.97117
0.42922	-0.38449
0.07220	0.27871
0.17421	1.80917
0.27621	0.83988
-0.38683	0.94191
-0.56534	-0.00188
-0.74385	0.53379
-0.53984	-1.63437
0.14870	-0.58856
0.50573	0.73785
0.35272	-0.51203
0.50573	0.04914
0.45472	-0.05289
0.22521	0.35523
0.58223	1.12046
0.60773	1.04394
0.17421	0.61031
-0.18282	0.32972
-0.23382	0.12566
-0.28482	-0.48652
-0.31033	-0.61406
-0.18282	-0.43551
0.22521	-0.33348
1.11776	0.27871
0.70974	0.04914
0.42922	0.27871
-0.08081	-0.00188
0.12320	0.22769
0.19971	0.30422
0.07220	0.15117
0.02119	0.25320
-0.00431	-0.05289
0.30171	0.55929
-0.31033	0.45726
0.19971	0.63582
0.25071	0.22769
0.40372	-0.66508
0.32721	-0.33348
0.02119	0.10015
0.04670	0.10015
-0.08081	0.76336
-0.00431	1.19699
0.53123	-0.05289
0.07220	-0.86914
0.40372	-1.04770
0.37822	-0.28246
-0.20832	1.04394
-0.36133	1.09496
-0.59084	0.58480
0.02119	0.35523
0.50573	1.09496
0.50573	0.07465
0.65874	-0.15492
0.53123	-0.92016
0.25071	-0.28246
0.35272	0.40625
0.25071	0.71234
-0.20832	-0.92016
0.04670	0.22769
-0.46334	0.25320
-0.20832	-0.69059
0.45472	-0.25695
0.58223	0.10015
0.17421	1.42656
0.14870	0.43176
0.02119	1.40105
-0.05531	0.63582
0.30171	0.32972
0.07220	-1.40480
0.32721	-0.15492
-0.18282	0.15117
0.22521	0.27871
0.07220	-0.25695
0.40372	0.91640
-0.00431	0.81437
0.25071	-0.76711
0.63323	-0.92016
0.76074	0.45726
0.25071	2.01323
0.19971	-1.30277
-0.38683	-0.89465
-0.53984	-0.69059
0.30171	1.27351
0.02119	-0.56305
0.32721	-0.12942
-0.00431	0.71234
-0.38683	2.03874
-1.20288	0.55929
0.53123	2.44687
1.01576	-1.43031
0.60773	0.48277
0.58223	-2.55265
0.37822	-0.53754
-0.02981	0.86539
-0.56534	-1.68539
0.83725	-0.66508
0.27621	1.01843
0.22521	1.93671
0.63323	2.59991
-0.53984	0.02363
-0.33583	-0.79262
0.25071	-1.04770
0.12320	0.07465
-0.13181	-0.10391
0.22521	-0.43551
0.53123	-1.91496
0.35272	0.76336
0.14870	1.83468
-0.53984	0.91640
-1.81492	0.50828
-0.43783	-0.35899
1.01576	-0.51203
0.99026	-1.20074
1.47479	0.12566
1.39828	-0.71609
1.09226	1.12046
0.40372	2.49788
0.12320	2.31933
-1.61091	-0.92016
-1.02437	-2.96078
-0.20832	-2.83324
-2.98800	-0.51203
-0.87136	2.16628
2.82638	3.36515
0.81175	1.86019
1.06676	-2.70570
2.49485	0.43176
1.01576	-0.48652
-0.28482	2.03874
-3.01350	1.35003
-0.10631	-0.18043
-0.53984	-2.83324
0.76074	-0.56305
1.16877	-1.20074
1.47479	-0.20594
1.42379	0.76336
-0.33583	1.86019
-1.61091	1.52859
0.40372	-2.11902
0.88825	-0.28246
1.37278	-0.15492
1.65330	2.29382
-5.15564	0.66132
-4.74761	-0.20594
-0.46334	0.71234
0.50573	1.65613
2.29084	2.59991
1.80631	-0.89465
3.46392	-1.94047
3.66793	-2.75671
0.70974	0.27871
-2.83499	-0.02739
-0.38683	-0.71609
0.53123	1.47757
-0.74385	1.68163
-0.74385	0.55929
1.65330	0.48277
-2.65648	-1.50683
-2.40146	-0.20594
2.67337	-0.41000
0.02119	0.99292
2.11233	-0.30797
0.60773	1.01843
1.39828	0.76336
0.17421	-0.15492
-0.82036	-0.99668
-1.53441	1.63062
-1.91693	2.24281
-1.04987	1.45206
1.67880	-2.32308
3.59142	-2.75671
1.72980	-1.43031
-0.59084	0.22769
1.19427	2.39585
-0.31033	1.27351
-4.08457	3.08456
-0.74385	-3.59847
0.50573	-1.68539
2.52035	0.99292
-0.48884	3.36515
-1.10088	-0.43551
1.34728	-1.60887
2.31634	1.68163
2.34184	-0.58856
-0.53984	-1.78742
-4.13557	-2.32308
1.16877	2.67644
0.12320	3.31413
0.27621	0.91640
1.52579	-1.68539
1.70430	-2.37410
1.75531	-0.23145
-1.68742	1.60511
-4.97713	1.32453
0.37822	3.28862
2.69887	-1.76191
-0.25932	-0.41000
-0.92237	-1.53234
-0.18282	0.86539
1.27078	0.71234
0.37822	-0.05289
2.49485	1.17148
3.64243	-2.06800
-0.66735	1.93671
-0.69285	-0.25695
-4.97713	0.25320
-3.14101	-0.30797
3.36191	0.63582
0.45472	-1.07320
0.07220	-2.09351
2.11233	1.24800
0.37822	1.80917
1.75531	1.57960
0.78624	-0.84363
-2.12094	-2.14453
-1.55991	2.31933
0.35272	-0.05289
1.93382	3.08456
-0.36133	-3.75152
-1.10088	-1.53234
-1.66191	-1.48133
1.39828	2.42136
-2.96250	3.18659
1.24527	4.20690
3.46392	-0.51203
2.13783	-6.07272
2.11233	-4.87386
0.78624	1.55410
0.63323	1.75816
-4.23758	2.08976
0.81175	2.19179
3.05589	0.78886
-0.43783	-4.00659
-6.86425	0.04914
-8.47085	2.01323
2.44385	2.65093
5.42754	-0.00188
7.18715	-1.27726
-0.00431	-1.81293
-5.43616	0.35523
2.06133	2.67644
4.81550	-0.25695
2.11233	-4.05761
-4.54360	-0.56305
1.27078	1.32453
0.14870	1.40105
-1.81492	1.86019
0.88825	0.68683
1.67880	1.88570
1.78081	-1.65988
-5.41065	-1.09871
-4.41609	-1.45582
2.95388	0.71234
1.88281	0.73785
0.40372	2.49788
2.01032	2.37034
1.11776	-1.17523
1.44929	-0.76711
1.95932	-0.56305
1.42379	-1.76191
-0.94787	-0.48652
-6.83875	-1.86394
-3.34502	3.11007
0.73524	0.76336
2.01032	2.24281
2.92838	1.45206
2.77537	0.35523
-0.28482	-1.60887
-1.25389	-1.78742
0.76074	0.20219
2.08683	3.26312
1.37278	-0.05289
1.67880	-0.86914
-0.51434	-0.35899
-5.05363	0.45726
-4.05907	1.06945
-0.56534	-0.63957
1.11776	0.40625
3.33641	1.09496
4.12696	-2.73121
3.74443	1.78367
-0.38683	1.12046
-4.92612	-3.75152
-0.79486	1.47757
-2.91149	1.50308
0.70974	1.35003
2.85188	-2.93527
1.78081	0.43176
1.11776	2.90601
1.16877	-1.04770
-0.89686	-0.66508
-0.89686	1.70714
-0.94787	-0.48652
0.19971	-0.48652
-0.13181	-3.44542
1.06676	1.52859
2.54586	2.93151
-0.99887	3.26312
-3.42153	-1.99148
-2.12094	-7.42463
-1.22839	1.55410
2.62236	2.90601
0.02119	2.70194
2.92838	0.17668
3.84644	0.66132
1.34728	1.37554
1.39828	-0.05289
-0.74385	-3.16484
-3.67654	-3.31788
-1.73842	0.12566
0.78624	2.59991
-0.69285	0.89089
1.34728	1.57960
2.39285	1.68163
-2.09544	-0.38449
-4.59460	-1.48133
1.44929	-0.58856
0.60773	-0.86914
-0.71835	-0.66508
2.90288	1.37554
1.90832	1.83468
-0.25932	0.53379
0.58223	-0.76711
0.91375	-0.20594
0.42922	-0.79262
0.73524	1.09496
0.60773	0.30422
-5.99719	0.02363
-2.32496	0.38074
1.14327	0.71234
2.31634	0.38074
1.21977	-0.69059
1.75531	0.89089
-0.02981	-0.99668
-1.15188	-2.32308
0.53123	-1.07320
-0.36133	1.80917
-0.10631	2.44687
0.68424	2.85499
0.60773	-0.63957
0.32721	0.35523
1.11776	-0.05289
3.18340	-0.23145
-1.84042	-5.05241
-4.95162	0.99292
0.04670	2.98253
1.52579	1.78367
-1.94243	1.55410
0.70974	-0.63957
2.49485	-0.63957
2.57136	-1.91496
2.59686	-1.09871
-5.41065	0.68683
-1.63641	0.96742
2.74987	0.40625
1.67880	0.45726
-1.35589	1.98773
3.28540	-0.23145
-1.17738	-1.35379
-0.64185	-0.66508
-2.32496	0.38074
-0.43783	0.20219
1.39828	1.04394
1.37278	-0.05289
-2.50347	-0.15492
1.01576	1.86019
1.34728	1.98773
0.86275	1.17148
0.30171	-3.77702
1.16877	-3.13933
0.19971	-1.37929
-3.01350	1.70714
-0.13181	3.08456
-0.36133	1.47757
-0.56534	0.99292
0.55673	-3.16484
0.22521	0.22769
2.11233	-1.07320
3.56592	1.57960
-0.87136	2.75296
-5.15564	1.14597
-1.40690	-0.05289
2.57136	-2.09351
2.62236	-1.17523
1.83181	1.47757
-0.08081	-1.50683
-2.70748	-2.04250
2.26534	-0.23145
1.06676	1.96222
-2.55447	2.19179
2.11233	0.81437
-0.79486	0.61031
-3.70204	0.12566
0.76074	-0.33348
1.90832	-0.23145
0.25071	0.73785
-0.99887	-0.99668
2.34184	0.63582
2.23984	-0.18043
-2.91149	-0.69059
-4.21208	-3.54745
0.63323	-0.56305
1.98482	2.67644
1.62780	2.54890
1.21977	1.73265
0.50573	1.14597
1.34728	0.78886
0.25071	0.35523
-0.82036	-0.53754
-1.48340	-2.27207
-1.10088	-3.90456
-0.10631	-0.79262
1.52579	0.40625
2.18883	2.06425
-1.17738	2.59991
-2.19745	1.78367
2.54586	2.70194
-0.18282	0.20219
0.22521	-4.21066
-6.30321	-1.17523
1.95932	-0.10391
3.31091	0.66132
2.82638	0.17668
1.80631	0.68683
4.66249	1.80917
1.98482	2.80397
-12.11758	-0.35899
0.14870	-0.94566
0.32721	-1.50683
1.37278	0.35523
-0.10631	-2.09351
0.30171	0.55929
0.53123	1.50308
0.99026	1.04394
2.16333	1.73265
1.21977	-1.37929
-2.50347	-1.35379
0.63323	-1.22625
-1.15188	0.86539
-1.04987	2.49788
1.39828	0.53379
-1.38139	-1.40480
-0.61635	-0.84363
1.01576	1.47757
1.65330	0.78886
1.67880	-1.30277
0.14870	-0.38449
-0.18282	1.06945
-1.22839	1.22250
-3.29402	0.25320
-0.38683	-1.73640
1.37278	0.02363
2.52035	-0.20594
1.85731	1.29902
1.75531	0.15117
1.11776	1.40105
0.17421	0.02363
-1.27939	-1.48133
-3.14101	0.43176
0.32721	0.86539
1.32178	1.70714
1.44929	0.83988
-2.57997	0.25320
-2.04444	-2.98628
0.40372	-4.33819
-1.33039	0.68683
4.50948	2.72745
-0.31033	1.93671
-1.22839	1.75816
2.13783	1.40105
2.39285	-0.18043
2.57136	-2.80773
-2.01894	-0.86914
-3.90606	0.17668
0.35272	2.49788
1.72980	-0.48652
-0.13181	-2.09351
-0.46334	-0.33348
1.85731	1.47757
-0.10631	-0.35899
-3.11551	0.91640
-0.05531	1.68163
-2.01894	0.02363
1.95932	0.50828
2.06133	-0.33348
0.93925	0.45726
-0.99887	2.70194
2.36734	-0.94566
-1.99343	-2.09351
-1.63641	-3.41992
0.40372	0.63582
1.34728	1.63062
1.24527	0.83988
0.93925	0.35523
1.37278	0.81437
-0.48884	1.14597
-0.25932	0.89089
0.91375	0.94191
0.78624	0.17668
-2.63097	-2.19554
-0.41233	-3.13933
-3.19201	-0.66508
-0.18282	2.44687
2.54586	2.06425
3.03039	1.12046
-0.25932	0.63582
2.13783	1.40105
0.48022	-0.79262
-1.63641	-0.46102
0.07220	-0.63957
0.55673	-0.43551
-2.12094	-1.53234
1.88281	0.71234
0.68424	0.25320
2.44385	-0.30797
-1.53441	0.43176
-0.15732	1.80917
-3.14101	0.73785
0.22521	0.58480
0.04670	0.76336
2.16333	1.47757
1.14327	-1.09871
-2.01894	-1.81293
0.42922	-0.97117
1.37278	1.47757
-1.38139	0.25320
0.78624	-0.61406
-0.82036	-0.23145
0.60773	1.24800
2.57136	1.70714
0.91375	-0.33348
-2.37596	-0.58856
1.44929	0.04914
-0.82036	1.06945
0.09770	-1.07320
0.42922	-0.99668
0.07220	1.86019
0.73524	-0.07840
0.09770	1.29902
-0.15732	-1.27726
-1.10088	-1.50683
0.22521	-1.30277
0.50573	2.29382
0.12320	1.68163
0.91375	1.12046
0.78624	0.43176
0.76074	0.61031
-1.86593	-0.48652
0.37822	0.71234
-3.11551	1.65613
1.29628	-0.35899
2.21434	-2.32308
1.14327	-1.17523
-2.50347	-0.99668
2.52035	0.30422
2.97938	0.17668
-0.13181	1.01843
-2.40146	1.50308
0.48022	2.06425
0.63323	-1.20074
-2.09544	-1.78742
0.53123	-1.58336
0.25071	1.27351
1.04126	2.11527
0.55673	1.70714
2.59686	-0.12942
3.84644	-0.74160
-6.37972	-0.30797
-9.33790	-2.60367
0.25071	-0.07840
3.18340	-0.05289
4.61149	1.32453
2.31634	0.53379
1.42379	0.78886
0.19971	0.81437
-0.87136	1.70714
-0.41233	1.37554
1.42379	-3.41992
-0.31033	-1.76191
-0.33583	-0.33348
-1.89143	1.78367
-0.84586	2.34484
-1.68742	1.09496
0.04670	0.71234
1.57679	-0.05289
-0.13181	-0.97117
1.04126	-0.86914
1.34728	-0.61406
2.18883	-2.04250
-0.23382	0.58480
-1.43240	4.15589
-2.60547	0.12566
1.44929	-1.83844
2.67337	-3.95558
1.70430	2.19179
-5.15564	2.90601
-0.38683	0.76336
0.53123	-0.20594
1.29628	0.43176
1.60230	0.86539
2.77537	0.40625
-0.38683	0.73785
0.73524	0.40625
-1.17738	-0.23145
-1.50890	-1.43031
0.17421	-1.35379
-1.89143	-0.58856
1.14327	1.60511
1.09226	0.02363
1.75531	-1.17523
-0.92237	-2.19554
-2.83499	-0.23145
-1.22839	2.67644
-0.02981	2.26831
3.54042	1.52859
2.21434	1.35003
-1.96793	-1.04770
1.01576	-2.06800
0.76074	-0.53754
-0.13181	2.14077
0.09770	1.68163
0.40372	1.24800
0.19971	-1.27726
-1.27939	-2.22105
-0.28482	0.91640
0.32721	-1.81293
1.55129	-0.35899
-2.01894	1.17148
-1.45790	2.39585
2.13783	0.83988
1.80631	0.91640
0.25071	0.35523
-0.25932	-0.69059
1.09226	-0.07840
2.77537	-1.07320
-4.87512	0.35523
-0.64185	1.63062
1.62780	-1.07320
1.24527	-1.83844
-1.81492	-0.23145
-1.15188	0.35523
-0.05531	0.81437
-0.00431	1.06945
-0.61635	1.50308
3.00489	1.42656
1.95932	-0.35899
-0.74385	1.40105
0.04670	0.32972
-0.48884	-2.50164
0.27621	-3.19035
-0.64185	-0.63957
1.27078	1.40105
0.99026	2.42136
0.45472	1.63062
0.32721	0.91640
0.30171	0.30422
-3.65104	-0.15492
-1.43240	1.32453
2.39285	-0.00188
2.18883	-2.11902
0.45472	-3.77702
-3.82955	-2.01699
-0.36133	1.80917
0.63323	3.11007
2.18883	2.16628
1.80631	-0.25695
1.52579	1.06945
-5.10463	0.04914
2.46935	1.42656
-0.23382	-1.68539
-0.56534	-2.93527
2.23984	-1.58336
1.55129	0.66132
-1.76392	1.98773
2.06133	1.70714
0.17421	0.96742
-2.91149	0.12566
0.14870	1.37554
-0.89686	-0.53754
1.14327	-1.81293
0.55673	-2.22105
1.14327	1.12046
0.65874	1.17148
-0.18282	0.71234
0.78624	1.27351
1.24527	0.12566
-1.33039	-1.63437
-2.80949	-2.45062
-0.41233	0.61031
-0.79486	1.68163
-0.41233	1.86019
-0.43783	1.01843
2.18883	-0.46102
2.97938	-0.86914
1.78081	0.73785
0.42922	0.81437
1.09226	0.94191
-1.63641	0.15117
-0.43783	0.76336
-0.02981	-2.88425
0.07220	-0.81812
0.42922	0.22769
-1.73842	0.04914
-0.66735	-0.94566
2.06133	1.17148
0.55673	2.06425
-0.89686	1.86019
1.04126	0.50828
-0.48884	0.83988
-1.71292	-0.74160
-0.02981	-1.25176
3.59142	-0.46102
-2.27395	0.04914
-0.87136	1.50308
3.03039	0.32972
3.08139	-2.37410
-1.02437	-4.38921
0.93925	-0.41000
-2.68198	2.98253
-0.48884	2.19179
2.85188	1.50308
-2.01894	1.70714
-5.66567	1.24800
1.83181	0.66132
2.11233	0.58480
1.04126	-0.15492
-1.27939	-1.20074
1.09226	-2.62918
0.40372	-2.50164
1.85731	-0.00188
0.68424	0.83988
-1.45790	0.91640
0.45472	1.50308
-0.23382	0.86539
-0.10631	0.48277
0.70974	1.45206
1.29628	3.62022
1.44929	-0.15492
-1.35589	-3.24136
-2.24845	-4.56776
0.19971	0.66132
-3.75305	1.55410
2.16333	1.47757
1.37278	0.86539
1.75531	1.60511
0.70974	0.35523
1.44929	-0.61406
1.04126	0.71234
-1.55991	1.78367
-0.61635	-0.86914
-0.36133	-0.30797
1.65330	-1.60887
3.18340	-0.51203
-0.89686	-2.75671
-9.41441	1.55410
1.70430	1.52859
3.31091	1.75816
-0.87136	0.91640
1.75531	0.71234
2.46935	0.02363
0.48022	0.25320
-0.20832	0.53379
0.68424	-0.46102
-0.28482	-0.97117
-0.79486	-0.00188
-0.38683	0.55929
0.27621	1.60511
0.12320	-0.46102
-0.53984	-2.62918
-0.61635	0.02363
0.40372	0.02363
2.03582	0.40625
0.04670	1.50308
-5.35965	2.03874
1.37278	0.35523
-4.39059	0.68683
3.10689	-1.14973
4.81550	-1.53234
3.79544	1.52859
1.04126	-0.25695
0.63323	-0.81812
-0.00431	-0.86914
-1.38139	1.88570
-0.36133	1.96222
-0.33583	0.78886
-0.43783	0.40625
-0.41233	0.43176
0.04670	-0.61406
0.07220	-1.20074
-1.17738	0.07465
1.72980	-0.02739
0.14870	-1.20074
-4.95162	-0.86914
0.60773	0.68683
2.80087	2.34484
-0.56534	2.11527
0.30171	1.22250
-2.06994	-0.94566
-0.18282	-2.88425
3.66793	0.32972
3.41291	1.29902
1.55129	0.83988
0.91375	0.78886
-0.28482	0.71234
1.01576	0.45726
-0.79486	0.58480
-1.86593	-0.89465
-2.45246	-1.63437
-0.92237	-1.99148
0.53123	1.09496
-2.75848	0.99292
0.99026	0.71234
1.01576	0.86539
0.93925	0.27871
0.73524	0.38074
0.50573	0.53379
0.12320	0.12566
-0.08081	0.81437
-0.56534	-0.71609
0.99026	1.24800
0.93925	-1.71090
-0.64185	-1.50683
0.53123	-0.25695
1.19427	0.96742
-1.25389	1.88570
0.02119	-0.12942
-1.40690	1.37554
1.88281	-1.12422
-0.00431	0.43176
0.68424	-0.46102
-0.43783	-0.25695
-1.81492	0.35523
0.30171	0.94191
0.55673	1.91120
0.63323	0.32972
-0.20832	0.55929
-0.31033	-2.09351
-1.48340	-0.18043
1.32178	0.15117
2.64786	-0.12942
-3.93156	-0.56305
1.57679	0.76336
2.23984	1.06945
-0.20832	1.22250
1.62780	0.83988
0.73524	-0.20594
-3.19201	-0.69059
2.03582	-0.33348
2.06133	0.10015
-0.69285	0.55929
-1.96793	-0.18043
1.04126	1.63062
1.14327	-1.81293
-1.35589	-0.53754
0.19971	1.19699
-1.15188	0.86539
-0.74385	-0.02739
0.60773	1.52859
0.60773	0.71234
1.47479	0.10015
1.37278	-1.45582
0.50573	-1.30277
-0.28482	-0.23145
0.37822	1.01843
0.02119	1.47757
-0.10631	-0.30797
-0.31033	1.78367
-0.79486	-0.76711
-0.38683	-0.97117
0.60773	-0.74160
0.19971	0.96742
0.25071	1.55410
1.72980	0.45726
-0.87136	-0.48652
0.14870	-0.10391
-0.56534	0.94191
-1.84042	0.20219
-0.36133	-1.17523
2.21434	-0.05289
-2.12094	0.30422
0.96476	-0.20594
3.03039	-0.05289
5.50405	0.96742
0.81175	0.45726
-5.10463	0.48277
2.44385	0.27871
0.27621	-1.76191
-5.66567	-0.15492
-4.26308	1.01843
2.23984	0.91640
2.06133	-0.07840
3.59142	-0.10391
2.72437	0.99292
0.96476	-0.12942
0.86275	0.30422
-0.51434	1.47757
-3.57454	1.14597
-1.73842	-1.53234
1.55129	-3.52195
-1.10088	-0.56305
-2.01894	-0.00188
0.78624	1.29902
1.65330	0.76336
1.52579	-0.28246
-0.84586	1.80917
0.32721	2.54890
1.37278	1.04394
0.17421	0.76336
0.07220	-2.55265
0.55673	-2.22105
1.21977	1.80917
-0.20832	1.24800
-1.38139	-0.92016
0.83725	-2.04250
-0.13181	1.78367
-0.41233	1.52859
0.22521	1.45206
-1.68742	-0.48652
0.76074	0.20219
0.78624	-1.37929
1.21977	0.12566
1.70430	0.32972
0.07220	-0.00188
0.76074	0.04914
2.59686	0.89089
-4.67111	-0.15492
-6.60923	0.20219
2.46935	-0.53754
2.34184	-0.20594
3.56592	-1.07320
2.77537	0.63582
-2.47797	0.94191
-3.39602	1.37554
2.92838	0.15117
1.16877	-0.66508
1.39828	-0.58856
-0.53984	0.96742
-4.95162	-2.52714
0.27621	-0.86914
1.55129	1.37554
1.04126	2.14077
0.78624	0.35523
0.58223	1.78367
0.68424	1.42656
0.19971	0.53379
-1.78942	-1.99148
-1.04987	1.04394
0.48022	-0.20594
0.99026	-1.53234
0.83725	-1.50683
1.14327	-0.23145
0.17421	-0.89465
0.70974	1.75816
-0.23382	0.27871
-0.33583	0.71234
-0.74385	-0.46102
2.62236	0.91640
-1.68742	1.52859
-4.49259	0.45726
-0.84586	0.55929
2.97938	-0.30797
3.33641	-0.99668
3.15790	-0.15492
2.23984	0.17668
-1.58541	0.68683
0.12320	0.35523
-0.31033	-1.71090
-0.41233	-0.51203
1.55129	0.40625
-3.34502	0.55929
-0.84586	1.32453
-1.50890	-0.51203
2.06133	-0.46102
0.63323	2.19179
-0.05531	0.83988
2.23984	-1.53234
-0.61635	-0.07840
0.96476	0.58480
-0.53984	1.57960
-0.43783	-0.25695
0.37822	-0.56305
-0.13181	0.53379
0.73524	2.21730
1.75531	-2.52714
-1.86593	-3.82804
0.55673	-1.35379
0.50573	1.65613
0.42922	2.95702
0.17421	1.96222
-1.02437	-0.18043
-2.65648	-0.66508
1.67880	0.48277
1.21977	1.17148
1.60230	1.73265
0.91375	-1.02219
-1.25389	-1.60887
-1.68742	-1.20074
-0.82036	0.48277
1.01576	0.91640
2.36734	0.58480
-1.43240	0.17668
1.34728	-0.81812
1.34728	-0.18043
1.29628	0.40625
0.50573	0.20219
-0.23382	-0.23145
-2.22295	-0.25695
0.35272	0.91640
-0.02981	1.19699
-1.50890	-1.22625
-0.28482	-0.00188
1.83181	0.91640
-1.66191	1.35003
0.02119	0.73785
1.90832	-0.46102
1.85731	0.45726
0.55673	0.15117
1.09226	-1.17523
-0.05531	-1.81293
-2.35046	0.61031
-1.86593	0.96742
1.04126	0.96742
1.39828	0.55929
0.09770	1.14597
0.53123	-2.32308
0.32721	-0.94566
0.48022	0.35523
1.83181	1.78367
2.82638	2.11527
-5.92069	0.55929
-1.40690	-2.09351
0.68424	-0.02739
-1.58541	0.40625
1.50029	-0.02739
1.16877	0.53379
2.74987	1.35003
2.57136	-0.38449
-3.47253	-0.74160
0.50573	0.40625
2.34184	0.17668
-1.04987	-1.02219
-2.88599	0.45726
1.50029	1.32453
0.68424	1.04394
-0.13181	0.12566
0.19971	0.32972
-1.61091	-0.18043
1.60230	-0.20594
-0.10631	-0.43551
0.48022	-0.97117
-0.71835	-0.20594
-0.23382	0.32972
-0.23382	0.15117
1.11776	0.91640
1.27078	0.89089
0.76074	0.58480
0.40372	0.25320
-0.18282	0.35523
-0.25932	-1.30277
-0.02981	0.63582
0.17421	-0.46102
-0.99887	-0.43551
0.12320	-0.00188
0.27621	2.39585
-0.71835	0.86539
1.47479	-1.83844
2.67337	-2.60367
-0.94787	1.45206
-0.61635	1.19699
-1.81492	0.96742
-1.61091	0.66132
2.97938	0.40625
1.75531	0.32972
-0.36133	0.15117
-2.09544	1.29902
0.19971	-0.30797
0.68424	-1.78742
3.28540	0.22769
0.65874	-0.48652
1.98482	-0.15492
-4.11007	-0.76711
-3.75305	0.10015
1.57679	0.86539
1.78081	1.01843
1.11776	1.27351
0.50573	0.78886
0.73524	0.45726
0.40372	0.20219
-2.52897	-0.12942
-1.68742	-0.28246
1.06676	-0.38449
0.73524	-0.12942
0.68424	-0.56305
1.11776	-0.51203
0.14870	0.40625
1.14327	1.83468
0.14870	0.66132
0.04670	-0.71609
-0.13181	-0.89465
-0.61635	1.40105
1.42379	0.50828
-1.96793	-1.55785
-1.48340	-1.50683
0.22521	0.61031
1.50029	1.88570
1.83181	2.08976
0.58223	1.63062
-2.24845	-0.07840
-0.46334	-1.99148
-0.61635	-1.68539
3.13239	0.66132
1.78081	0.27871
-1.58541	0.45726
0.65874	0.02363
0.22521	1.27351
-1.91693	-0.07840
0.73524	0.53379
1.85731	-1.27726
1.44929	-0.07840
1.47479	0.96742
-0.74385	-2.04250
-6.53273	-0.79262
0.91375	-0.56305
0.17421	2.57441
1.90832	1.50308
0.17421	0.55929
1.16877	0.30422
1.85731	0.96742
-1.91693	2.03874
-1.04987	-1.35379
1.83181	-1.50683
0.86275	-2.73121
0.30171	0.53379
-0.61635	1.01843
0.14870	0.63582
0.45472	0.86539
-0.69285	-0.00188
0.07220	-0.63957
-3.52353	0.02363
-0.23382	0.30422
2.29084	0.61031
2.29084	0.15117
1.90832	0.73785
1.01576	0.22769
0.37822	0.02363
1.11776	-3.21585
-1.25389	-1.32828
-1.66191	0.73785
0.19971	2.54890
0.76074	1.55410
-0.66735	0.53379
-0.51434	-1.09871
0.86275	-0.38449
-1.99343	0.66132
-3.72755	2.98253
0.83725	0.48277
3.13239	-0.84363
2.44385	-2.98628
-0.69285	-1.32828
0.68424	0.94191
0.25071	-0.10391
1.65330	-0.66508
-0.61635	-1.22625
-1.02437	1.96222
-0.08081	2.37034
0.48022	1.68163
1.37278	1.45206
0.91375	0.40625
-0.71835	-0.38449
-1.20288	-0.94566
1.88281	-2.01699
-0.18282	-2.75671
-3.01350	-1.07320
-4.92612	0.76336
-2.12094	0.25320
4.63699	1.68163
3.87194	1.40105
1.75531	1.45206
0.91375	-0.02739
0.73524	0.22769
-0.74385	-0.15492
-0.33583	-0.05289
0.99026	0.48277
1.14327	1.32453
-0.74385	-0.97117
-2.40146	-1.30277
-0.23382	-0.12942
-0.20832	1.27351
0.88825	0.22769
1.27078	0.91640
-1.43240	-1.83844
0.48022	-1.58336
0.22521	1.01843
-1.50890	1.06945
1.19427	1.93671
1.19427	0.55929
1.29628	0.81437
1.44929	0.61031
-0.05531	0.66132
-1.91693	-1.86394
-0.53984	-1.86394
0.68424	-0.71609
1.21977	1.45206
1.32178	1.12046
0.02119	0.55929
-2.22295	0.35523
-3.19201	0.04914
-0.84586	0.12566
4.22896	0.25320
2.13783	-0.63957
-2.06994	-1.02219
1.29628	-0.56305
3.71893	1.47757
-1.63641	0.30422
-4.67111	0.12566
2.72437	0.25320
1.24527	0.17668
-0.84586	0.58480
2.72437	-0.00188
0.58223	-0.05289
-0.41233	0.04914
-0.79486	0.12566
-0.43783	-0.41000
-2.75848	0.61031
0.09770	-0.10391
1.04126	0.76336
1.06676	0.02363
0.68424	-0.15492
0.48022	0.04914
0.07220	1.57960
-0.02981	-0.35899
0.09770	-0.63957
0.02119	-0.53754
-0.05531	-1.32828
0.25071	-0.69059
0.58223	1.42656
-0.23382	1.14597
1.11776	0.45726
0.07220	1.14597
0.25071	1.70714
-4.05907	0.10015
0.30171	0.10015
3.66793	-0.15492
0.53123	0.63582
-1.73842	1.12046
0.81175	-1.99148
-1.91693	-3.77702
0.88825	-2.78222
1.72980	1.04394
1.62780	1.52859
1.34728	1.47757
0.07220	1.60511
0.04670	0.99292
0.78624	0.94191
-2.01894	0.55929
-1.91693	0.07465
1.04126	-0.02739
0.27621	-0.15492
1.34728	0.35523
1.29628	0.20219
-2.98800	-0.81812
-1.27939	-0.63957
0.93925	-0.05289
0.81175	0.17668
0.45472	0.15117
0.37822	0.68683
0.30171	0.76336
0.14870	0.22769
-0.28482	0.40625
-0.10631	0.76336
0.27621	1.55410
0.30171	-1.12422
0.60773	-2.75671
0.48022	-1.32828
1.32178	0.38074
-1.10088	1.63062
-0.13181	0.66132
1.29628	1.06945
2.29084	2.49788
-2.50347	0.40625
-3.65104	0.22769
0.22521	-0.86914
0.40372	-1.14973
4.05045	-0.25695
0.50573	-0.23145
-1.63641	0.43176
0.17421	0.96742
1.27078	-0.07840
1.16877	-0.23145
1.09226	0.48277
2.95388	0.10015
-0.10631	-0.00188
-5.69117	0.50828
-1.43240	1.06945
1.93382	-0.05289
1.11776	-2.06800
-1.94243	-0.86914
0.37822	0.43176
2.16333	1.65613
-0.92237	1.35003
1.14327	0.73785
-0.23382	-1.09871
-1.73842	-0.86914
2.97938	0.61031
3.13239	0.96742
-1.96793	-0.15492
-1.50890	0.20219
0.68424	0.94191
0.68424	0.35523
0.99026	1.27351
0.48022	-1.17523
0.07220	-1.58336
-0.15732	-1.27726
-0.15732	1.17148
-0.08081	1.22250
-0.02981	1.83468
-0.69285	0.78886
-0.18282	-0.33348
0.60773	-1.22625
-0.33583	-0.10391
0.50573	-0.53754
0.32721	0.86539
1.27078	-0.18043
0.58223	-0.97117
-1.12638	-0.02739
-0.59084	1.14597
0.70974	0.89089
-0.53984	0.25320
2.97938	0.35523
-1.15188	0.32972
-2.04444	0.25320
0.76074	-0.69059
3.94845	-0.38449
0.73524	-1.63437
-2.09544	0.76336
0.63323	1.24800
-0.79486	0.83988
-1.30489	0.86539
0.86275	-0.25695
2.13783	0.45726
1.27078	0.17668
-0.43783	-1.02219
-4.69661	-1.07320
-0.00431	0.38074
1.70430	1.01843
0.96476	-0.05289
-1.40690	0.63582
1.11776	0.12566
1.55129	-0.28246
0.12320	0.40625
-0.64185	0.35523
0.14870	0.15117
0.37822	-0.92016
-1.22839	-1.78742
-0.31033	1.19699
0.96476	1.63062
1.09226	0.76336
0.65874	0.30422
0.25071	0.94191
-1.04987	2.06425
-0.23382	0.58480
0.70974	-1.96597
0.76074	-2.09351
0.68424	-0.51203
0.50573	2.03874
-0.08081	0.99292
0.09770	-0.05289
0.63323	-2.47613
0.81175	0.63582
-1.38139	-0.79262
-4.64560	0.83988
-0.10631	0.71234
0.42922	1.42656
2.03582	1.29902
3.36191	0.45726
0.93925	-0.00188
-2.29945	-0.81812
2.13783	-0.07840
1.70430	0.15117
1.62780	-0.35899
-1.30489	-0.05289
-2.63097	0.61031
-4.16107	-0.30797
0.48022	-0.41000
2.08683	-0.18043
0.42922	0.73785
2.18883	-0.12942
0.81175	0.40625
-0.74385	0.58480
1.09226	0.25320
-1.58541	0.63582
-1.63641	-0.25695
0.22521	0.20219
2.26534	0.81437
0.55673	-0.25695
0.68424	0.38074
0.07220	-0.81812
-0.05531	-0.00188
-0.02981	-0.25695
-0.23382	-0.10391
0.27621	0.73785
-0.28482	0.86539
-0.56534	1.55410
-0.13181	-0.79262
0.48022	-1.50683
-0.46334	-2.19554
0.65874	0.66132
1.52579	1.37554
-0.38683	2.62542
0.83725	0.99292
0.63323	-0.20594
0.96476	-0.05289
-1.63641	0.04914
-2.70748	-0.30797
-1.81492	-0.51203
3.89744	-2.14453
3.71893	1.06945
-3.72755	0.94191
1.60230	0.81437
1.29628	0.96742
-1.50890	0.48277
-1.25389	-0.48652
-0.10631	-0.02739
0.30171	-0.66508
4.86651	0.20219
1.78081	-0.66508
-4.77311	-0.97117
-0.89686	1.12046
1.34728	1.17148
-0.97337	0.73785
0.53123	1.14597
-0.13181	0.12566
1.27078	0.02363
1.27078	-2.27207
0.73524	0.30422
-0.28482	0.38074
-0.94787	0.76336
-0.28482	0.43176
-4.23758	0.04914
1.34728	1.37554
0.96476	1.60511
0.14870	-1.27726
1.55129	-1.60887
0.32721	-1.20074
0.55673	2.65093
0.78624	-0.15492
0.50573	-0.35899
0.48022	-0.30797
1.01576	1.04394
0.02119	-0.25695
1.34728	-0.28246
-4.44159	0.53379
-3.75305	2.93151
2.39285	1.24800
-2.91149	-0.10391
2.95388	-2.04250
5.58055	-2.37410
-0.61635	-1.96597
-1.40690	-0.35899
1.62780	2.08976
-1.43240	1.98773
0.42922	2.24281
-3.19201	1.88570
4.17796	-0.76711
-0.71835	-1.68539
0.42922	-1.50683
0.04670	0.40625
0.76074	0.78886
1.98482	0.76336
1.93382	0.38074
-4.56910	-0.48652
-3.95706	-0.00188
0.93925	0.71234
1.60230	0.71234
-0.18282	-0.53754
-1.55991	-0.79262
1.44929	-1.40480
1.67880	-0.48652
1.27078	0.78886
0.93925	0.86539
0.37822	2.57441
0.09770	-0.30797
-0.08081	-0.89465
0.19971	-1.65988
-0.33583	0.68683
-0.00431	1.01843
-0.20832	1.75816
-0.23382	1.04394
1.14327	0.66132
1.60230	0.22769
-1.12638	0.22769
-0.79486	-0.41000
-5.02813	-1.55785
3.94845	-0.97117
2.13783	-0.63957
-4.77311	-0.33348
0.09770	0.99292
3.36191	0.25320
3.05589	0.50828
2.01032	0.38074
1.80631	1.04394
1.19427	0.96742
-1.71292	0.55929
-1.17738	-0.84363
-2.78398	-1.50683
0.35272	-0.07840
0.88825	-0.18043
0.12320	0.76336
-1.71292	1.37554
-3.47253	1.01843
1.01576	1.09496
0.55673	-0.18043
1.39828	0.96742
1.55129	0.96742
1.44929	-2.11902
0.40372	-3.77702
0.12320	-1.35379
0.88825	1.70714
0.63323	1.88570
0.63323	1.32453
-1.35589	1.17148
-2.80949	-0.18043
1.09226	-0.05289
0.48022	-0.79262
1.01576	0.55929
-0.00431	1.60511
-0.94787	-0.94566
0.40372	-1.25176
1.70430	-0.38449
0.19971	1.06945
-2.78398	0.50828
-1.07538	-0.18043
1.01576	-0.48652
0.88825	0.66132
1.60230	0.71234
-1.89143	0.10015
1.65330	0.63582
2.85188	0.22769
0.58223	-0.05289
-0.82036	-0.94566
-0.10631	0.38074
-2.40146	0.48277
1.42379	0.30422
-1.04987	0.66132
-0.56534	1.32453
-0.05531	-0.15492
1.70430	-1.12422
2.13783	-1.25176
0.42922	-1.17523
1.39828	-0.15492
-1.48340	0.89089
-3.70204	1.52859
-0.64185	1.96222
0.73524	0.48277
1.14327	0.73785
1.01576	-0.35899
0.93925	0.55929
0.53123	0.25320
-0.20832	0.40625
-1.07538	-1.81293
0.19971	-3.57296
0.45472	-0.61406
0.37822	1.14597
0.83725	0.55929
1.14327	1.45206
-0.53984	0.94191
-3.67654	1.57960
1.01576	1.93671
1.29628	-0.61406
2.03582	-1.07320
1.42379	-0.99668
1.06676	0.61031
-2.35046	0.22769
-2.52897	0.27871
-0.64185	-0.15492
0.07220	0.02363
2.52035	0.12566
1.93382	0.20219
1.93382	0.94191
0.99026	0.55929
-0.28482	-0.35899
0.40372	-1.78742
0.50573	-0.69059
-3.95706	0.55929
-4.18658	0.86539
-0.18282	1.68163
1.90832	0.76336
3.13239	0.91640
0.68424	0.10015
0.60773	-1.04770
-0.08081	-0.38449
-0.59084	1.29902
0.86275	-0.10391
0.58223	-0.53754
-1.17738	-1.91496
-1.43240	-0.02739
0.53123	-0.66508
-0.02981	1.52859
1.11776	1.55410
0.68424	1.29902
1.67880	0.32972
0.27621	1.50308
-1.43240	0.55929
-0.05531	-0.66508
1.75531	-2.50164
-1.30489	-1.17523
-3.47253	0.86539
0.86275	0.99292
2.34184	-0.05289
2.74987	-0.25695
-0.64185	-0.12942
-4.03357	0.78886
0.25071	1.09496
1.88281	0.91640
2.31634	0.45726
0.68424	0.04914
-1.66191	-0.89465
0.19971	0.94191
0.37822	-0.97117
0.40372	-0.71609
-0.43783	-0.18043
0.12320	0.58480
0.48022	0.35523
1.83181	0.12566
-0.99887	-0.10391
-1.53441	0.68683
1.11776	1.14597
0.99026	0.68683
-2.86049	0.83988
-1.38139	-0.76711
1.98482	-0.10391
1.14327	-0.00188
-0.79486	-0.23145
-0.48884	1.09496
1.34728	0.86539
1.47479	-0.53754
0.32721	-1.22625
0.99026	-0.20594
2.57136	-0.35899
-0.56534	-0.58856
-5.64017	-0.07840
0.19971	0.63582
1.09226	1.37554
1.75531	1.80917
1.42379	0.58480
0.93925	0.63582
-0.08081	0.38074
-2.93700	-0.66508
0.22521	-1.96597
-0.13181	-0.61406
0.76074	0.04914
1.37278	1.22250
1.47479	0.73785
0.22521	0.58480
-3.39602	-1.78742
-1.89143	-1.27726
1.80631	0.15117
2.16333	1.63062
1.21977	1.04394
2.36734	0.73785
1.01576	-0.28246
-5.92069	0.53379
-2.45246	0.17668
2.16333	-0.43551
1.55129	-0.71609
0.65874	-0.33348
0.48022	0.96742
1.62780	0.81437
0.42922	-0.07840
0.30171	-1.09871
0.76074	0.04914
1.47479	-0.23145
0.86275	0.35523
-7.50179	0.40625
-1.99343	0.61031
1.19427	0.68683
1.29628	1.01843
1.85731	0.43176
0.91375	-0.12942
1.37278	-0.38449
1.65330	-0.94566
1.14327	0.30422
0.19971	1.12046
-2.27395	-0.76711
-1.02437	-0.63957
-1.63641	-0.07840
1.27078	0.94191
1.55129	1.32453
0.88825	0.45726
0.12320	0.15117
-1.40690	-0.76711
1.14327	-0.48652
-0.82036	1.04394
0.27621	-0.94566
-1.68742	-0.66508
-0.48884	-0.69059
-0.28482	1.88570
1.42379	0.76336
2.26534	0.66132
1.11776	0.45726
1.06676	0.76336
0.83725	-0.00188
0.12320	-0.05289
-0.61635	0.71234
0.04670	-0.23145
-0.66735	-2.11902
-1.12638	-0.94566
-0.53984	-0.33348
-4.64560	0.78886
-0.53984	1.12046
4.15246	0.89089
2.77537	0.15117
-0.20832	-0.05289
1.42379	1.27351
1.60230	0.76336
-0.69285	0.76336
-4.13557	0.25320
1.57679	-0.15492
1.98482	-0.15492
1.57679	0.02363
-0.18282	0.27871
-0.20832	-0.97117
-0.08081	-0.76711
-1.99343	-0.94566
-0.87136	-0.25695
-0.13181	0.83988
-0.00431	1.27351
0.42922	1.68163
0.32721	0.53379
0.19971	-1.48133
0.55673	-0.23145
0.55673	0.32972
0.22521	-0.30797
0.37822	0.73785
0.30171	1.35003
0.50573	1.68163
0.12320	-0.20594
0.91375	0.35523
-0.20832	-1.32828
-0.94787	-0.71609
0.91375	-1.20074
-0.53984	0.99292
0.73524	0.76336
-1.86593	1.01843
-2.75848	0.38074
-0.36133	-0.15492
3.25990	-1.76191
2.85188	-0.02739
0.81175	0.63582
2.82638	1.01843
1.11776	0.86539
0.45472	0.61031
-2.70748	0.50828
-3.80405	0.04914
-3.06450	-0.38449
0.42922	-1.30277
1.80631	-0.35899
0.35272	0.50828
1.67880	1.37554
2.80087	0.71234
1.32178	-0.56305
-1.61091	-1.40480
-3.16651	0.68683
1.21977	0.58480
0.73524	-0.00188
-0.36133	1.19699
0.99026	0.50828
0.63323	0.10015
0.93925	-0.53754
-0.38683	-0.25695
-3.03900	-0.51203
1.55129	0.45726
2.03582	0.78886
-0.46334	1.93671
-1.20288	-1.99148
-0.28482	-0.30797
0.40372	-0.48652
0.91375	1.47757
1.75531	1.22250
1.09226	0.73785
-0.28482	-0.10391
-0.02981	-0.20594
-1.55991	-0.07840
0.04670	0.45726
1.78081	0.12566
0.81175	-0.63957
-1.53441	-0.79262
-3.77855	-0.18043
-0.05531	0.40625
0.93925	0.35523
1.67880	0.53379
1.37278	0.04914
-0.18282	-0.00188
2.49485	0.96742
1.90832	1.01843
0.63323	-0.15492
-1.91693	-0.25695
-1.91693	-0.10391
0.37822	0.76336
0.32721	-1.02219
-0.28482	0.07465
1.67880	-0.41000
-1.45790	0.20219
-2.52897	0.50828
0.78624	0.99292
-0.94787	0.55929
1.01576	-0.12942
1.98482	0.38074
1.60230	0.04914
0.40372	-0.66508
0.93925	-0.51203
0.02119	-0.33348
-0.94787	0.96742
-0.59084	0.76336
0.19971	-0.38449
0.30171	-0.84363
1.93382	1.27351
-1.89143	0.17668
0.09770	-1.48133
-0.46334	0.15117
-2.35046	1.27351
0.86275	1.29902
2.21434	1.22250
2.36734	0.81437
1.65330	-0.38449
-0.28482	-0.15492
-1.73842	-0.12942
1.32178	-0.56305
-0.69285	-1.83844
-0.10631	-0.56305
-2.73298	0.61031
-1.07538	0.50828
1.65330	-0.18043
1.75531	0.61031
-1.86593	0.76336
2.06133	0.27871
-0.13181	-0.02739
0.35272	0.71234
2.31634	0.02363
0.93925	0.20219
1.50029	0.15117
-4.03357	0.35523
-1.58541	0.58480
2.31634	-0.28246
1.57679	-0.48652
-1.81492	-0.00188
-0.02981	-0.71609
0.40372	-1.04770
2.49485	0.61031
0.58223	1.17148
-1.71292	1.06945
-5.64017	0.58480
-0.25932	-0.18043
2.13783	1.37554
2.01032	-0.07840
2.03582	-0.61406
1.34728	-0.84363
0.22521	0.20219
-0.02981	0.86539
-0.48884	-0.43551
-0.61635	-0.35899
-0.48884	-1.78742
-0.53984	-0.28246
-0.41233	1.22250
0.27621	2.39585
0.78624	0.86539
1.70430	-0.38449
0.48022	-1.25176
-3.03900	0.58480
-0.20832	0.66132
0.04670	0.35523
1.75531	0.27871
0.70974	-0.76711
2.59686	-1.58336
-2.01894	-0.46102
0.99026	1.60511
1.88281	1.04394
1.19427	1.19699
-1.68742	0.25320
0.50573	-0.30797
-0.61635	-0.15492
0.04670	0.10015
-2.14644	-0.25695
0.07220	0.10015
2.06133	-0.02739
0.17421	0.45726
1.24527	0.02363
-2.78398	-0.20594
-1.45790	0.07465
2.26534	0.66132
0.14870	0.15117
-0.20832	0.20219
0.30171	-0.33348
1.55129	0.25320
1.09226	0.89089
1.06676	0.27871
-0.13181	0.25320
-0.92237	0.38074
-0.79486	-0.12942
-0.15732	-1.88945
-0.02981	-0.02739
-0.13181	1.19699
1.09226	1.65613
0.53123	-0.79262
-0.41233	0.38074
0.96476	-0.92016
1.27078	0.94191
-3.60004	0.78886
-4.46709	-0.81812
2.54586	-0.46102
2.82638	1.17148
2.62236	0.99292
1.67880	-0.48652
0.91375	-1.27726
-0.99887	-1.22625
-2.68198	0.22769
-2.29945	1.37554
2.95388	1.12046
1.47479	0.91640
0.65874	-0.35899
-1.04987	-0.99668
-0.38683	0.55929
-1.71292	0.27871
1.29628	0.25320
-0.87136	0.17668
-2.88599	0.86539
1.34728	0.10015
2.62236	-0.18043
3.84644	0.55929
0.04670	-0.46102
0.27621	-0.30797
-0.43783	-1.14973
-0.00431	0.02363
-0.84586	1.04394
-1.04987	0.58480
-1.53441	0.91640
-0.79486	0.45726
0.70974	0.04914
1.09226	0.25320
0.53123	-0.02739
0.32721	-0.89465
0.09770	0.35523
0.88825	0.83988
-0.69285	-0.02739
0.78624	-0.99668
-0.23382	0.71234
0.76074	0.50828
0.91375	0.17668
-0.13181	-0.43551
1.93382	0.73785
-3.88056	-0.69059
-6.86425	0.83988
1.57679	0.20219
2.95388	-0.07840
3.18340	-0.35899
2.59686	0.76336
2.31634	0.81437
0.14870	0.38074
-0.69285	-0.02739
0.14870	-0.15492
-1.71292	-0.15492
1.37278	-0.10391
0.02119	-0.12942
-6.81324	0.53379
-3.14101	0.32972
1.09226	-0.89465
4.76450	-0.66508
1.75531	-0.38449
-1.53441	1.17148
1.90832	0.63582
3.18340	0.76336
0.35272	0.35523
1.32178	1.35003
1.09226	0.02363
-1.17738	-0.25695
-6.15020	-0.76711
-4.54360	-0.66508
1.75531	0.45726
2.77537	0.86539
2.67337	0.32972
1.90832	0.04914
1.14327	0.32972
0.83725	0.71234
-0.28482	0.10015
-1.10088	-0.71609
-0.08081	-0.61406
-0.18282	-0.10391
-0.53984	-0.38449
-0.31033	-0.28246
-0.00431	1.29902
0.09770	0.81437
-0.00431	0.35523
0.27621	-0.28246
0.73524	0.32972
0.35272	0.89089
0.17421	0.66132
-0.28482	0.43176
1.67880	-1.25176
-0.23382	-0.05289
0.17421	0.91640
0.86275	0.22769
1.50029	-0.56305
-1.04987	-0.97117
-4.21208	-0.12942
-0.38683	0.94191
1.65330	0.07465
1.85731	0.50828
0.93925	0.20219
-1.22839	1.09496
2.46935	-0.02739
0.58223	0.15117
0.55673	-0.02739
-0.05531	0.53379
-3.37052	0.35523
0.50573	0.27871
-0.10631	-0.58856
1.14327	-0.79262
1.29628	0.68683
2.44385	0.68683
-0.08081	-0.00188
-3.39602	-0.48652
0.25071	0.04914
-0.43783	0.73785
-0.43783	-0.43551
0.91375	-0.38449
1.27078	0.96742
1.11776	-0.15492
-0.36133	0.10015
-0.56534	-1.02219
-0.13181	0.78886
-0.64185	1.17148
0.17421	0.86539
1.80631	0.35523
1.55129	1.32453
0.65874	1.78367
-1.25389	-1.17523
-1.33039	-2.39961
-0.05531	-2.01699
1.50029	0.66132
1.55129	1.37554
1.14327	1.24800
-0.38683	0.35523
-2.06994	0.45726
0.63323	0.02363
-1.50890	0.25320
-1.20288	-0.07840
1.83181	-0.15492
0.50573	-0.00188
1.21977	-0.23145
-0.69285	0.10015
1.57679	0.40625
1.44929	0.04914
-3.34502	-0.43551
0.93925	0.35523
0.42922	0.91640
0.30171	0.22769
1.27078	0.12566
0.17421	0.10015
0.88825	0.63582
0.40372	0.40625
-1.73842	-0.30797
-1.30489	0.40625
1.09226	0.81437
-2.50347	0.12566
0.53123	-0.28246
0.60773	-1.17523
0.76074	-1.32828
1.85731	0.32972
1.52579	0.32972
1.95932	0.73785
2.08683	1.01843
-1.33039	0.38074
-4.05907	-0.48652
-1.17738	-0.89465
0.09770	0.96742
0.76074	1.52859
1.65330	0.76336
0.60773	-0.74160
0.09770	-0.51203
0.60773	-0.05289
1.62780	0.99292
-2.57997	0.86539
-1.50890	-0.92016
-0.08081	-1.88945
0.55673	-0.89465
1.24527	0.48277
1.85731	1.47757
-0.74385	0.81437
-0.20832	0.76336
-0.74385	-0.18043
0.50573	0.15117
1.98482	0.68683
0.12320	0.32972
-0.08081	-0.15492
-2.32496	-0.79262
0.50573	0.96742
1.47479	0.58480
0.91375	-0.86914
-0.00431	-0.63957
0.53123	0.58480
1.11776	0.25320
0.42922	-0.18043
-5.18114	-0.20594
-1.30489	0.61031
1.72980	1.01843
1.60230	0.81437
-0.51434	0.04914
1.01576	-0.33348
1.75531	-0.86914
1.50029	0.17668
-0.97337	0.50828
-1.66191	0.73785
-1.07538	0.66132
0.42922	-0.97117
1.21977	-0.23145
0.58223	0.15117
1.24527	1.06945
0.96476	0.86539
0.93925	-0.41000
1.27078	0.04914
-0.64185	-0.25695
-6.04819	-0.15492
-4.18658	0.20219
1.88281	0.35523
3.74443	1.09496
2.92838	-0.15492
1.60230	0.66132
0.70974	-0.20594
0.65874	-0.20594
-0.02981	-2.24656
0.04670	-0.23145
-1.55991	0.53379
0.48022	1.55410
-0.36133	1.22250
-1.15188	0.61031
-0.69285	-0.07840
-2.42696	0.35523
2.23984	-0.53754
2.36734	-0.28246
0.88825	-0.33348
-4.92612	0.35523
0.73524	0.43176
3.76993	1.63062
2.16333	-0.30797
-0.10631	-1.27726
1.50029	-1.25176
-2.70748	1.32453
-4.26308	0.04914
0.02119	-0.66508
2.46935	-0.05289
2.57136	1.57960
1.24527	0.96742
0.48022	0.55929
-0.08081	-0.02739
-0.66735	1.96222
-0.13181	0.76336
-0.48884	0.45726
-0.43783	-2.11902
0.04670	-1.94047
-1.25389	-1.04770
-1.58541	0.66132
0.37822	1.98773
1.42379	-0.25695
1.16877	-1.22625
1.19427	-0.56305
1.04126	0.48277
0.48022	2.16628
-0.43783	1.06945
0.17421	0.43176
0.55673	-0.10391
1.21977	0.43176
-3.24301	1.06945
0.65874	-0.89465
-1.71292	-0.10391
-1.12638	-1.43031
-0.25932	0.71234
1.55129	0.96742
1.90832	0.55929
1.55129	-0.33348
2.34184	-1.22625
0.17421	-0.56305
-1.35589	0.07465
-6.25221	0.32972
-0.36133	1.17148
0.19971	0.43176
1.52579	0.04914
3.33641	0.58480
1.95932	0.66132
0.27621	0.22769
1.09226	-0.23145
-2.17195	0.55929
-0.66735	-0.84363
0.55673	-0.79262
-0.33583	0.25320
-0.41233	0.38074
-0.97337	1.01843
0.88825	0.86539
1.72980	0.15117
-0.02981	-1.14973
-1.17738	0.53379
-0.02981	-0.71609
0.27621	-0.33348
-0.10631	0.55929
1.14327	0.83988
0.25071	-0.41000
0.55673	0.55929
1.06676	0.55929
0.42922	0.55929
-0.10631	0.02363
0.04670	0.07465
0.32721	-0.12942
-0.36133	-0.63957
-0.28482	0.35523
-2.45246	-0.79262
-0.31033	0.02363
0.88825	0.71234
0.99026	0.89089
1.16877	0.76336
-0.28482	-0.43551
1.06676	-1.25176
1.42379	-0.33348
1.85731	0.58480
-2.83499	0.86539
-3.03900	0.35523
1.44929	0.10015
0.27621	0.68683
-4.56910	0.17668
2.95388	-0.12942
2.41835	-0.51203
2.16333	0.86539
1.80631	-0.02739
1.47479	0.07465
0.22521	0.81437
-0.64185	-0.28246
0.76074	0.20219
-3.95706	-0.38449
-2.63097	-0.61406
-1.10088	-0.89465
0.86275	-0.35899
1.60230	1.17148
0.60773	0.71234
-2.98800	0.68683
0.63323	0.89089
2.69887	0.15117
2.39285	-0.20594
1.04126	1.96222
-0.38683	-0.43551
1.09226	-0.15492
0.88825	-0.81812
-0.66735	-0.76711
-1.61091	-0.97117
-0.33583	1.47757
0.19971	2.14077
-0.28482	0.12566
0.27621	-0.41000
1.67880	-1.17523
-1.07538	0.83988
-0.33583	0.66132
-0.08081	-0.76711
-0.69285	0.50828
-0.38683	0.81437
0.53123	0.58480
3.08139	0.25320
-0.53984	0.50828
-2.32496	-1.53234
2.01032	-0.35899
2.62236	-0.00188
0.60773	0.73785
-1.02437	-0.63957
0.30171	-0.25695
-1.78942	0.91640
0.58223	1.17148
0.88825	0.25320
1.14327	-0.25695
0.81175	0.30422
-0.38683	1.17148
-0.13181	-0.07840
-0.43783	-0.20594
-0.43783	-0.07840
-1.84042	0.20219
-1.78942	-0.56305
0.07220	-0.30797
0.93925	0.63582
1.65330	1.42656
0.96476	-1.12422
0.12320	-0.07840
1.83181	0.17668
-0.51434	0.10015
-2.19745	-1.96597
0.55673	0.15117
1.27078	2.03874
1.70430	1.91120
1.21977	0.91640
-1.55991	-0.35899
-1.38139	-1.02219
0.93925	0.48277
0.50573	-0.10391
1.39828	-0.30797
-1.76392	-0.51203
0.91375	0.15117
0.50573	0.22769
-0.99887	0.78886
-2.27395	0.53379
1.95932	0.30422
0.93925	0.12566
1.04126	-0.35899
0.04670	-1.25176
0.60773	-1.27726
-1.81492	0.32972
0.60773	1.19699
2.08683	0.94191
0.32721	1.19699
-2.22295	1.17148
-0.89686	0.43176
0.25071	-1.02219
1.37278	-0.66508
1.14327	-0.30797
1.55129	0.48277
-0.61635	0.63582
-2.06994	0.45726
1.57679	-0.61406
-1.63641	0.22769
-0.36133	-0.15492
1.42379	0.78886
1.60230	0.10015
0.60773	-0.25695
-0.08081	-1.07320
0.09770	-0.71609
-0.20832	0.76336
-1.66191	0.96742
1.14327	-0.10391
-0.00431	0.55929
-0.36133	0.40625
0.02119	0.99292
-0.53984	0.81437
-0.87136	-0.33348
2.01032	0.10015
1.98482	0.91640
1.32178	-0.25695
-0.53984	-2.50164
-1.96793	-1.50683
-1.91693	1.37554
1.55129	1.50308
3.36191	-0.35899
1.83181	-0.10391
-3.01350	0.43176
-3.52353	0.40625
1.29628	1.04394
0.48022	0.71234
-0.89686	0.22769
0.93925	-0.41000
1.44929	0.61031
1.09226	-0.46102
1.52579	-0.86914
-0.56534	-0.94566
-0.99887	0.58480
0.37822	0.55929
0.14870	0.61031
0.09770	0.45726
0.22521	0.38074
0.48022	0.68683
-0.71835	0.58480
-1.71292	-0.05289
0.63323	-0.41000
0.12320	0.04914
-1.53441	-1.02219
1.44929	-0.81812
1.06676	0.32972
-0.74385	1.06945
0.73524	1.42656
1.27078	0.66132
1.01576	0.73785
0.60773	-0.18043
0.02119	-0.05289
0.04670	-1.07320
0.42922	0.12566
-0.10631	0.04914
0.63323	-0.12942
0.07220	0.02363
-4.03357	0.55929
0.37822	1.45206
0.63323	0.10015
-1.81492	-1.58336
2.01032	-1.22625
-1.50890	0.17668
2.44385	1.37554
2.54586	1.22250
1.39828	1.52859
-0.76936	0.12566
1.27078	-0.69059
0.48022	-0.92016
-0.99887	-0.69059
-1.17738	0.35523
-1.02437	0.58480
0.07220	0.55929
1.06676	0.73785
0.76074	0.04914
-0.46334	0.40625
-1.15188	0.32972
0.50573	-0.46102
0.50573	-1.37929
-2.27395	0.27871
2.06133	0.61031
1.95932	0.55929
-1.43240	-0.00188
-1.20288	0.96742
1.80631	-0.56305
1.37278	1.01843
1.09226	0.40625
1.52579	-0.05289
0.27621	-1.45582
-1.53441	-0.48652
-2.42696	0.38074
0.53123	1.06945
1.39828	1.91120
0.30171	0.76336
-1.07538	-0.63957
-1.17738	-1.32828
1.14327	-0.51203
0.68424	0.15117
0.40372	1.14597
-0.74385	0.35523
0.27621	0.38074
1.47479	-0.10391
2.72437	0.55929
-0.74385	1.29902
-2.35046	-0.89465
-1.78942	-0.76711
-3.75305	-2.11902
2.23984	0.55929
3.28540	1.04394
2.64786	0.76336
2.16333	0.86539
1.39828	0.43176
-0.51434	0.17668
-0.43783	0.99292
-1.63641	-0.15492
-0.18282	-0.43551
-0.05531	-1.20074
-1.91693	0.76336
-0.59084	-0.00188
1.04126	-0.38449
1.09226	0.40625
0.81175	0.17668
-1.96793	0.66132
-2.45246	0.50828
0.86275	-0.05289
1.47479	0.15117
1.19427	-0.25695
1.34728	-0.07840
0.86275	0.55929
1.44929	0.76336
0.86275	0.25320
0.55673	-0.94566
-0.69285	-0.63957
-0.64185	-0.66508
-1.45790	0.78886
-0.33583	1.37554
-0.23382	0.40625
0.25071	0.71234
-0.05531	0.27871
0.25071	-1.04770
0.60773	-0.02739
0.68424	0.20219
1.55129	0.15117
-1.81492	0.10015
-0.66735	1.01843
0.04670	-0.84363
-1.45790	-0.84363
0.19971	-0.05289
2.82638	0.81437
1.67880	0.55929
-0.25932	0.40625
-0.20832	0.35523
1.11776	0.35523
1.44929	0.12566
-1.04987	0.32972
-1.20288	-0.76711
0.99026	-0.38449
1.88281	0.89089
-1.15188	-0.15492
-0.79486	-0.43551
-0.02981	-0.28246
-0.23382	0.20219
-0.69285	1.12046
-0.31033	0.17668
1.29628	-0.61406
0.17421	0.61031
-0.10631	0.91640
-0.79486	0.35523
-0.13181	-0.15492
0.63323	-0.38449
-0.10631	-0.25695
1.65330	0.20219
-1.10088	0.32972
1.24527	0.83988
2.34184	1.83468
1.50029	0.20219
-1.35589	-1.04770
-2.93700	-1.12422
-1.04987	-0.05289
1.55129	0.63582
1.78081	0.53379
1.19427	0.04914
-0.23382	0.58480
-0.99887	-0.71609
-0.15732	0.43176
0.37822	0.55929
0.04670	0.91640
-0.89686	0.38074
1.09226	-0.48652
1.95932	-1.22625
-4.16107	-0.35899
-2.32496	0.40625
0.40372	1.37554
2.54586	1.09496
1.24527	0.07465
-0.00431	0.96742
1.88281	-0.86914
2.39285	-0.92016
0.83725	-1.53234
-3.75305	0.76336
-1.07538	1.37554
0.83725	0.81437
2.97938	0.35523
2.23984	0.30422
-5.48716	-0.05289
-3.09000	-0.69059
2.82638	0.89089
2.52035	0.15117
-0.18282	-0.28246
0.70974	-0.18043
-0.59084	0.17668
-0.66735	0.17668
0.53123	0.50828
1.34728	0.22769
1.90832	0.83988
-0.71835	-0.00188
-2.19745	-0.25695
-1.43240	-1.76191
0.81175	-0.23145
1.04126	0.58480
1.16877	0.78886
0.63323	0.78886
0.27621	1.19699
0.50573	0.61031
-0.13181	-0.79262
-0.56534	-0.23145
0.40372	0.96742
0.73524	-1.17523
-1.25389	-0.46102
-2.83499	0.43176
0.45472	1.40105
1.70430	0.43176
1.29628	-1.30277
-0.74385	-1.17523
0.63323	0.71234
1.21977	0.86539
0.02119	0.94191
1.24527	0.30422
0.55673	0.22769
-0.00431	0.43176
-0.18282	0.53379
-0.02981	-0.25695
-1.20288	-1.78742
0.88825	0.78886
1.29628	0.63582
0.65874	0.55929
-2.86049	0.22769
-1.20288	-0.02739
0.96476	-0.46102
0.76074	-0.30797
2.01032	0.53379
0.91375	1.12046
-0.89686	0.50828
-3.54903	-1.14973
-1.33039	-1.35379
1.88281	0.45726
1.88281	0.99292
1.65330	0.73785
1.47479	0.63582
0.88825	0.81437
0.48022	0.45726
-0.10631	0.30422
-1.71292	-0.69059
0.48022	-0.99668
-2.50347	0.35523
-4.49259	0.73785
-0.18282	0.86539
2.34184	-1.50683
3.00489	-0.38449
2.31634	0.15117
1.83181	1.22250
-0.18282	0.48277
-1.81492	0.20219
-1.10088	0.50828
1.32178	0.81437
-0.94787	0.43176
0.27621	0.25320
-0.08081	-0.63957
0.17421	-1.40480
0.78624	-1.20074
0.68424	0.58480
0.73524	0.86539
-2.68198	0.91640
-0.13181	0.30422
0.81175	0.71234
1.62780	0.73785
1.16877	-0.41000
-0.15732	0.04914
0.63323	0.58480
-0.20832	0.99292
-1.43240	-1.20074
-2.14644	-0.86914
-1.04987	-2.06800
-0.13181	0.71234
1.67880	1.14597
1.88281	1.50308
1.52579	1.27351
1.88281	0.35523
1.29628	-0.15492
-1.66191	-0.38449
-1.22839	-0.05289
0.73524	-0.84363
0.48022	-0.05289
-0.02981	0.63582
-2.50347	0.43176
-3.24301	0.10015
1.37278	0.86539
1.19427	-0.38449
1.57679	-0.69059
1.16877	0.04914
1.06676	0.71234
0.22521	-0.10391
0.04670	0.04914
0.22521	0.50828
0.96476	0.43176
0.27621	0.73785
-2.19745	0.15117
-2.29945	-0.46102
-1.12638	-0.89465
0.99026	-0.20594
1.75531	1.09496
2.16333	0.20219
2.34184	1.37554
0.27621	-0.71609
-1.53441	0.10015
-2.29945	-0.10391
0.07220	0.55929
0.45472	0.68683
1.04126	0.35523
1.09226	-0.05289
1.11776	-0.25695
1.04126	0.61031
-0.05531	0.35523
-3.52353	-0.15492
0.86275	-0.00188
1.19427	-0.69059
0.32721	0.30422
-0.92237	0.81437
0.40372	-0.00188
-0.10631	-0.00188
0.42922	-0.61406
0.53123	0.48277
0.12320	-0.02739
0.30171	0.86539
-0.53984	0.38074
0.60773	0.15117
0.78624	0.45726
0.53123	0.61031
0.37822	0.20219
-0.05531	-0.33348
0.14870	0.35523
0.22521	0.45726
-0.15732	-0.51203
0.07220	-2.06800
0.04670	0.66132
-1.91693	0.50828
0.19971	0.58480
-2.68198	-0.18043
0.63323	0.63582
1.80631	0.50828
2.46935	0.78886
1.85731	0.32972
0.09770	1.78367
1.04126	-0.56305
0.65874	-1.86394
0.02119	-2.17003
-1.25389	0.50828
-0.05531	1.22250
-1.89143	1.14597
-0.84586	0.04914
-3.75305	-0.84363
2.64786	0.58480
2.87738	1.37554
-1.04987	1.37554
-0.13181	-0.66508
0.14870	-1.53234
0.42922	-1.02219
1.50029	1.32453
2.64786	1.35003
1.67880	0.55929
-0.64185	0.40625
-1.76392	-1.04770
-0.15732	0.48277
-0.25932	-0.12942
-0.56534	0.76336
0.07220	0.17668
0.32721	-0.02739
0.02119	-0.05289
0.25071	-0.41000
-0.53984	-0.63957
0.19971	-0.53754
1.32178	-0.28246
-0.59084	1.22250
0.42922	0.81437
0.32721	0.76336
1.01576	0.25320
1.16877	0.20219
0.04670	0.22769
-1.73842	0.78886
-1.10088	-0.33348
1.09226	-0.71609
1.09226	-2.29757
1.57679	0.07465
-0.28482	1.37554
-1.94243	1.22250
-1.12638	1.14597
1.16877	1.06945
-0.00431	0.48277
0.22521	-0.86914
0.76074	-0.74160
1.01576	-0.07840
-2.04444	-0.46102
2.36734	0.48277
1.50029	0.66132
-0.18282	-0.05289
0.42922	-0.25695
-0.18282	-0.51203
0.17421	1.27351
-0.69285	0.02363
-4.79861	-0.53754
1.24527	-1.68539
2.52035	0.53379
-0.99887	1.63062
-1.91693	1.50308
1.70430	0.25320
2.29084	-0.63957
1.50029	-0.71609
-0.28482	-0.25695
0.14870	0.89089
0.83725	1.63062
0.25071	0.02363
-1.89143	-0.18043
-0.25932	-0.41000
0.35272	0.25320
0.68424	0.22769
-1.27939	-0.05289
0.22521	-0.56305
1.11776	-0.23145
-0.84586	0.48277
-0.00431	-0.25695
0.60773	0.63582
-0.69285	0.40625
0.83725	0.63582
2.01032	-0.05289
1.57679	-0.46102
1.01576	0.94191
0.02119	0.43176
-3.26852	0.53379
-1.04987	-0.84363
-0.89686	-0.02739
-0.84586	0.48277
3.00489	0.40625
2.36734	0.25320
0.09770	1.19699
-1.58541	0.55929
-0.33583	-1.20074
1.55129	-2.70570
1.42379	1.68163
-1.63641	0.32972
-1.89143	0.45726
2.44385	-0.61406
-2.50347	0.94191
-0.71835	1.19699
1.60230	-0.10391
2.31634	2.21730
-0.99887	-1.14973
1.57679	-0.97117
-0.61635	-2.83324
0.02119	0.58480
0.32721	1.35003
0.78624	1.65613
0.48022	0.96742
0.22521	0.45726
-0.15732	0.40625
-0.76936	-0.07840
-0.05531	0.12566
0.09770	-0.46102
0.09770	-0.10391
0.02119	-0.51203
0.58223	-0.89465
-0.36133	-0.00188
-2.50347	-0.20594
-0.89686	1.50308
1.29628	0.76336
1.90832	0.02363
1.37278	-0.05289
1.90832	0.81437
-2.63097	-0.46102
0.27621	-1.45582
0.27621	-0.99668
0.73524	0.73785
1.27078	1.52859
0.45472	1.22250
0.91375	0.83988
-0.00431	1.65613
