0.19971	0.20219
0.27621	0.15117
0.17421	0.17668
0.07220	0.20219
0.04670	0.17668
0.09770	-0.00188
-0.05531	0.10015
0.07220	0.04914
0.17421	0.07465
0.14870	0.07465
0.14870	0.30422
0.25071	0.25320
0.25071	0.15117
0.14870	0.20219
0.09770	0.22769
0.07220	0.10015
-0.10631	0.02363
0.02119	-0.00188
0.22521	0.10015
0.32721	0.30422
0.30171	0.35523
0.35272	0.17668
0.30171	0.07465
0.17421	0.12566
0.04670	0.22769
0.04670	-0.02739
-0.13181	-0.02739
-0.02981	-0.12942
0.17421	-0.07840
0.22521	0.30422
0.09770	0.50828
0.19971	0.32972
0.17421	0.30422
0.09770	0.27871
0.17421	0.20219
0.04670	-0.02739
0.02119	0.02363
0.07220	0.02363
0.19971	0.10015
0.25071	0.20219
0.22521	0.15117
0.30171	0.10015
0.17421	0.02363
0.07220	-0.05289
0.04670	0.15117
0.07220	0.12566
0.02119	0.27871
0.02119	0.35523
0.09770	0.30422
0.17421	0.17668
0.14870	0.10015
0.19971	0.10015
0.14870	-0.02739
0.09770	0.02363
0.04670	-0.02739
-0.02981	0.04914
-0.15732	0.12566
-0.00431	0.20219
0.22521	0.17668
0.30171	0.25320
0.37822	0.27871
0.27621	0.15117
0.25071	0.15117
0.17421	0.20219
0.14870	0.02363
0.09770	0.04914
-0.02981	0.04914
0.02119	0.07465
0.14870	0.12566
0.22521	0.15117
0.27621	0.20219
0.22521	0.15117
0.09770	0.15117
0.09770	0.20219
0.12320	0.07465
0.14870	0.15117
0.04670	0.27871
0.14870	0.04914
0.19971	-0.00188
0.27621	-0.00188
0.19971	0.10015
0.25071	0.07465
0.12320	0.12566
0.02119	0.12566
0.02119	0.15117
0.02119	0.02363
-0.00431	0.35523
-0.00431	0.38074
0.19971	0.25320
0.22521	0.02363
0.22521	0.02363
0.32721	0.15117
0.22521	0.32972
0.19971	0.27871
0.14870	0.12566
0.17421	0.04914
-0.05531	0.04914
-0.00431	0.12566
0.14870	0.02363
0.25071	0.12566
0.22521	0.15117
0.19971	0.15117
0.12320	0.07465
0.09770	0.15117
0.12320	0.15117
0.09770	0.10015
0.12320	0.15117
0.04670	0.22769
0.09770	0.30422
0.22521	0.20219
0.22521	0.32972
0.32721	0.12566
0.32721	0.15117
0.19971	0.12566
-0.00431	0.10015
-0.02981	0.07465
0.04670	0.12566
0.09770	0.15117
0.19971	0.10015
0.27621	0.15117
0.12320	0.12566
0.19971	0.04914
0.12320	0.04914
0.04670	0.02363
0.02119	0.02363
-0.02981	-0.00188
-0.10631	0.17668
0.02119	0.25320
0.17421	0.17668
0.32721	0.20219
0.30171	0.30422
0.32721	0.25320
0.22521	0.10015
0.12320	0.02363
0.12320	0.04914
0.12320	0.07465
-0.02981	0.10015
0.02119	0.17668
0.09770	0.20219
0.22521	0.22769
0.30171	0.22769
0.32721	0.32972
0.25071	0.17668
0.12320	0.07465
0.09770	0.10015
0.07220	-0.00188
-0.02981	0.04914
0.07220	0.15117
0.07220	0.17668
0.17421	0.15117
0.22521	0.22769
0.35272	0.25320
0.30171	0.15117
0.19971	-0.07840
0.07220	0.02363
0.07220	0.17668
-0.02981	0.20219
0.09770	0.20219
0.22521	0.07465
0.25071	0.15117
0.14870	0.12566
0.19971	0.12566
0.14870	0.07465
0.17421	0.07465
0.04670	0.12566
-0.02981	0.17668
0.04670	0.17668
0.17421	0.15117
0.32721	0.15117
0.32721	0.22769
0.07220	0.22769
0.02119	0.17668
0.02119	0.12566
-0.20832	0.12566
0.02119	0.12566
0.27621	0.12566
0.32721	0.02363
0.37822	0.10015
0.35272	0.15117
0.40372	0.22769
0.19971	0.32972
0.25071	0.15117
0.17421	0.10015
0.02119	-0.10391
-0.08081	0.27871
-0.13181	0.27871
-0.20832	0.10015
-0.00431	-0.07840
0.17421	-0.05289
0.27621	0.12566
0.22521	0.45726
0.25071	0.25320
0.17421	0.20219
0.14870	0.20219
0.19971	0.15117
0.22521	0.10015
0.02119	0.20219
0.07220	0.15117
0.22521	0.17668
0.27621	0.20219
0.32721	0.10015
0.27621	0.10015
0.17421	0.07465
0.07220	0.15117
0.09770	0.17668
0.12320	0.12566
-0.00431	0.22769
0.09770	0.12566
0.12320	0.02363
0.22521	0.07465
0.25071	0.12566
0.27621	0.25320
0.22521	0.17668
0.04670	0.15117
-0.02981	0.12566
0.04670	0.15117
0.02119	0.17668
0.12320	0.17668
0.19971	0.12566
0.27621	0.12566
0.17421	0.20219
0.27621	0.12566
0.19971	0.10015
0.12320	0.17668
0.14870	0.12566
0.09770	0.10015
0.02119	0.12566
0.04670	0.32972
0.17421	0.22769
0.19971	0.22769
0.22521	0.02363
0.30171	0.02363
0.25071	0.04914
0.09770	0.25320
0.02119	0.27871
0.19971	0.25320
-0.08081	0.04914
-0.18282	0.25320
0.12320	-0.10391
0.30171	-0.12942
0.19971	0.15117
0.19971	0.25320
0.25071	0.25320
0.37822	0.30422
0.35272	0.40625
0.17421	0.15117
0.12320	0.12566
0.09770	0.10015
0.07220	0.10015
0.09770	0.10015
0.09770	0.15117
0.12320	0.20219
0.17421	0.07465
-0.02981	0.02363
-0.05531	0.02363
-0.00431	0.04914
-0.02981	0.15117
0.04670	0.12566
0.25071	0.10015
0.30171	0.22769
0.22521	0.32972
0.40372	0.27871
0.30171	0.22769
0.19971	0.15117
0.17421	0.07465
0.09770	0.04914
0.02119	0.02363
-0.00431	0.07465
0.12320	0.17668
0.27621	0.25320
0.27621	0.20219
0.25071	0.12566
0.09770	0.25320
0.07220	0.10015
0.07220	-0.18043
0.07220	-0.25695
-0.02981	-0.05289
-0.05531	0.35523
0.14870	0.32972
0.30171	0.25320
0.25071	0.55929
0.53123	0.86539
0.58223	0.35523
-0.08081	-0.25695
-0.51434	-0.61406
-0.38683	-0.99668
-0.28482	0.10015
0.37822	0.48277
0.17421	0.07465
0.19971	0.22769
0.73524	0.45726
0.78624	0.12566
0.55673	0.66132
0.37822	0.63582
0.22521	0.35523
0.25071	0.45726
-0.13181	-0.07840
-0.43783	-0.86914
-0.46334	-0.97117
-0.46334	-1.30277
-0.33583	0.10015
0.22521	1.04394
0.55673	0.91640
0.42922	0.55929
0.37822	0.86539
0.30171	0.86539
0.19971	0.17668
0.04670	-0.38449
0.04670	-0.43551
-0.05531	0.10015
-0.00431	0.40625
0.22521	0.45726
0.14870	0.02363
-0.00431	-0.10391
0.22521	-0.20594
-0.08081	-0.07840
0.14870	0.22769
0.99026	0.25320
0.58223	0.17668
-0.46334	-0.05289
-0.31033	0.22769
-0.28482	0.61031
-0.15732	0.15117
0.30171	-0.07840
0.22521	-0.35899
0.83725	-0.92016
0.27621	0.12566
0.30171	0.68683
0.42922	1.29902
-0.20832	1.12046
-0.08081	0.07465
-0.08081	0.02363
-0.33583	-0.74160
-0.38683	-0.23145
0.76074	0.40625
0.76074	0.63582
0.76074	0.15117
0.55673	0.50828
0.32721	0.99292
0.07220	0.83988
0.07220	-0.76711
-0.18282	-1.68539
0.07220	-0.99668
-0.20832	0.25320
-0.51434	0.27871
-0.61635	0.22769
-0.51434	0.15117
-0.02981	0.58480
0.48022	0.76336
0.53123	0.91640
0.73524	0.66132
0.48022	0.35523
-0.28482	-0.51203
-0.64185	-0.41000
-0.33583	0.12566
0.70974	-0.15492
0.32721	-0.33348
0.88825	0.20219
1.57679	0.61031
0.37822	0.32972
-0.00431	-0.18043
-0.64185	0.17668
-1.40690	0.45726
-0.18282	0.66132
0.96476	-0.79262
-0.02981	-0.05289
0.27621	-1.65988
0.99026	0.55929
0.60773	-0.05289
0.81175	0.35523
0.70974	2.31933
-1.30489	1.35003
-1.10088	0.40625
-0.25932	-0.71609
-0.99887	-0.07840
-0.69285	0.10015
0.63323	1.19699
1.04126	1.60511
1.57679	-1.07320
2.13783	-2.70570
1.29628	-1.02219
-0.20832	0.58480
-2.12094	-0.25695
-1.78942	-0.35899
-0.25932	0.89089
1.52579	0.96742
-0.59084	0.30422
-0.69285	0.04914
1.47479	-0.18043
1.65330	0.71234
1.57679	0.61031
1.37278	0.02363
1.21977	0.43176
-0.23382	0.68683
-2.12094	-0.12942
-1.02437	0.25320
-0.69285	0.15117
-0.99887	-0.02739
-2.80949	-0.76711
-2.52897	-2.19554
2.13783	-2.90976
3.00489	1.09496
3.08139	3.00804
3.69343	1.75816
0.88825	2.59991
-0.59084	-0.84363
-1.91693	-1.22625
-2.50347	1.55410
-1.50890	-1.63437
-0.56534	-0.12942
0.37822	-1.12422
-0.00431	-0.99668
1.55129	1.80917
2.80087	1.42656
1.90832	2.65093
1.85731	1.50308
-1.33039	0.78886
-2.86049	-2.04250
-3.16651	-0.43551
-1.48340	-0.76711
3.13239	1.27351
3.97395	0.50828
1.83181	0.78886
-0.61635	-0.05289
-4.56910	-3.16484
-1.04987	-0.33348
-2.83499	1.42656
0.83725	-0.71609
6.29460	0.15117
3.05589	3.00804
0.02119	0.38074
-2.63097	-0.69059
0.25071	-2.70570
0.65874	-1.37929
2.16333	1.50308
1.50029	2.06425
-0.46334	-0.02739
-2.70748	0.76336
-1.07538	1.42656
-3.70204	-0.94566
-3.34502	-0.58856
1.55129	-2.17003
1.47479	-0.89465
0.22521	2.16628
4.43298	1.63062
1.65330	1.60511
2.16333	-1.78742
-0.08081	-0.00188
-1.68742	1.06945
-1.10088	2.80397
-2.17195	0.55929
-0.74385	-3.21585
2.62236	-5.02690
1.80631	-0.25695
1.14327	1.98773
1.27078	1.12046
0.63323	2.01323
-1.20288	-4.03210
-1.58541	-2.29757
-2.68198	1.52859
-1.73842	1.45206
1.88281	3.39065
-0.28482	4.61503
-2.27395	1.70714
-1.22839	-1.43031
1.62780	-5.25647
3.54042	-6.12374
3.79544	2.47238
2.90288	3.97733
-0.69285	2.24281
0.42922	1.68163
-1.61091	-0.58856
-3.52353	-1.25176
0.76074	-2.29757
2.44385	3.62022
-1.10088	-1.32828
-1.20288	-5.99620
0.88825	-3.44542
0.04670	3.41616
3.48942	3.39065
-6.83875	3.31413
-2.01894	2.21730
0.04670	2.57441
0.88825	-2.37410
4.25447	-3.49644
1.72980	-1.32828
1.19427	2.19179
-0.64185	1.06945
0.83725	0.96742
0.78624	-1.32828
0.65874	-0.12942
1.04126	3.69675
-1.10088	1.47757
0.35272	-5.33300
-4.49259	-3.95558
-3.70204	0.63582
-3.37052	5.07416
1.52579	0.66132
3.08139	2.16628
3.33641	0.00000
3.28540	-1.30277
2.13783	0.63582
0.53123	0.02363
-0.66735	-0.69059
2.06133	-0.84363
0.02119	-0.18043
-1.58541	1.70714
-5.71667	1.04394
-1.35589	1.37554
-1.71292	-0.61406
0.30171	-1.32828
3.13239	-0.46102
4.10146	-0.69059
0.76074	-2.37410
0.48022	0.58480
-1.15188	-1.27726
-0.92237	-0.99668
-0.28482	2.34484
-0.46334	1.42656
1.65330	2.01323
1.29628	3.00804
-0.13181	0.45726
-1.43240	-0.51203
-1.91693	-0.66508
0.86275	1.27351
0.27621	-1.32828
1.32178	-1.48133
0.37822	-4.08312
-1.20288	-1.91496
-1.86593	6.24752
1.83181	0.40625
0.88825	1.52859
-3.37052	-4.31269
-0.64185	-0.48652
2.69887	1.86019
2.77537	6.22201
2.23984	1.37554
1.60230	-4.13413
1.01576	-2.70570
1.37278	5.40576
-1.12638	0.25320
-5.58916	-0.23145
-2.68198	2.52339
-0.31033	0.40625
0.27621	-0.38449
2.21434	-5.38401
0.53123	-4.64429
0.78624	1.42656
1.34728	2.16628
1.44929	1.12046
-0.20832	1.60511
-0.76936	1.88570
-1.78942	3.77327
-2.60547	-0.23145
0.25071	-1.99148
-0.18282	-3.72601
-0.05531	-1.53234
1.19427	-1.22625
2.90288	1.98773
3.61693	2.57441
2.59686	2.47238
0.07220	1.27351
-2.47797	0.53379
-4.33958	-2.39961
-2.68198	0.27871
1.75531	0.81437
1.39828	0.22769
1.19427	-0.41000
2.34184	1.96222
-0.20832	0.38074
0.14870	-3.52195
-1.78942	-3.11382
-0.38683	-3.49644
-0.48884	1.86019
0.88825	1.42656
-1.40690	5.66084
-2.40146	0.76336
-0.08081	-0.66508
2.31634	-0.97117
2.46935	1.24800
1.90832	3.13558
-0.33583	-1.37929
-1.55991	-0.94566
1.01576	-1.14973
2.54586	1.63062
3.94845	1.27351
-3.47253	-2.83324
-2.78398	-1.37929
-2.12094	-0.66508
-1.17738	0.35523
2.13783	3.39065
2.29084	3.33964
1.75531	-0.46102
-2.75848	-1.07320
1.50029	-0.61406
0.30171	5.91592
0.32721	0.02363
-0.15732	-1.60887
-1.30489	-5.86866
0.81175	-1.43031
2.46935	0.32972
1.42379	2.37034
-0.59084	2.08976
-0.97337	0.58480
1.06676	0.66132
-1.10088	0.73785
-4.28858	0.25320
1.90832	-1.96597
1.57679	0.61031
-0.53984	0.20219
1.44929	1.37554
2.31634	-0.56305
0.91375	-0.86914
0.17421	-3.67499
-0.51434	0.55929
-4.05907	-0.41000
-1.68742	1.47757
-0.41233	1.83468
2.08683	3.97733
2.31634	1.78367
2.13783	-1.60887
3.71893	-1.30277
-0.94787	-0.63957
-0.66735	0.83988
-5.51266	-2.93527
-3.54903	0.07465
2.11233	1.70714
2.57136	2.21730
2.41835	0.63582
0.93925	0.55929
0.91375	-0.20594
-0.25932	-2.06800
1.78081	1.86019
2.54586	0.91640
-0.23382	-3.72601
-6.63473	-1.63437
-4.72211	-0.86914
1.78081	-0.66508
0.37822	1.45206
0.22521	2.11527
1.67880	0.96742
2.13783	1.35003
0.70974	1.47757
2.16333	0.78886
0.68424	-0.86914
-0.59084	-0.53754
-2.45246	4.53850
0.96476	-2.90976
1.70430	-2.09351
1.24527	-4.54226
-0.59084	1.65613
-2.80949	-0.74160
-3.80405	1.98773
-1.27939	1.12046
1.75531	1.83468
1.88281	1.52859
1.70430	0.55929
1.65330	3.39065
1.93382	-0.15492
1.65330	-3.41992
2.26534	-3.29238
-2.78398	-0.46102
-5.69117	-0.38449
1.14327	0.96742
0.83725	2.01323
2.01032	1.75816
0.07220	0.32972
-0.02981	-0.35899
0.07220	-0.15492
1.24527	0.71234
-0.74385	-0.51203
-1.45790	-0.43551
-2.55447	-0.92016
0.99026	0.40625
0.93925	0.35523
1.42379	0.91640
1.11776	4.13038
1.24527	-0.10391
1.70430	-8.26639
-2.47797	-3.01179
-4.46709	1.42656
-0.28482	2.62542
2.57136	2.95702
2.06133	1.68163
3.05589	1.91120
0.30171	0.61031
-1.94243	0.15117
3.46392	0.68683
-0.23382	-1.65988
-2.01894	-1.12422
-1.86593	-2.57816
0.02119	0.86539
0.60773	0.63582
0.55673	0.89089
-0.33583	3.49268
0.96476	0.07465
-0.41233	-1.76191
-0.08081	-4.59327
-2.40146	-0.33348
1.16877	-1.07320
-0.84586	2.85499
1.34728	2.62542
1.32178	1.52859
1.52579	0.86539
1.50029	0.40625
0.45472	4.38546
0.70974	0.22769
0.63323	-2.45062
-5.25764	-5.17995
-4.33958	-3.90456
-2.29945	1.96222
4.10146	2.39585
3.23440	2.16628
1.09226	0.96742
2.97938	0.86539
2.34184	0.38074
-0.79486	-0.02739
-1.45790	1.04394
0.07220	0.91640
-1.55991	-2.42511
-3.44703	-4.05761
-0.23382	-0.33348
1.34728	1.27351
0.88825	1.57960
0.53123	0.96742
0.35272	2.93151
0.78624	-0.63957
1.75531	-1.65988
-3.14101	-0.43551
-0.18282	1.09496
0.81175	0.35523
1.11776	1.88570
1.44929	1.78367
0.76074	0.58480
0.22521	-0.97117
-1.40690	-7.60318
-0.28482	-1.60887
1.80631	0.81437
-0.94787	3.59471
0.60773	2.24281
-1.27939	2.90601
0.25071	1.45206
0.78624	1.19699
1.98482	1.06945
2.21434	-0.25695
-3.06450	-5.07792
-2.83499	-4.66979
-4.51810	-1.45582
2.21434	1.78367
3.94845	2.24281
2.87738	2.14077
2.13783	1.68163
1.11776	0.61031
0.22521	1.14597
-0.15732	0.35523
-2.45246	-2.17003
-3.88056	-3.59847
0.14870	0.25320
0.65874	0.58480
-0.64185	1.09496
1.01576	1.29902
1.06676	1.27351
0.93925	1.98773
0.68424	-0.56305
-0.23382	-1.45582
-1.73842	-1.65988
-0.28482	1.04394
0.83725	1.22250
2.06133	0.15117
0.12320	-0.63957
-0.43783	0.40625
0.70974	0.58480
0.68424	0.38074
0.68424	0.04914
0.32721	-0.25695
0.09770	0.63582
-1.02437	-0.23145
-1.61091	0.02363
-0.61635	-2.19554
1.42379	-0.18043
-0.00431	4.13038
1.93382	2.06425
-0.43783	-5.15444
-0.48884	-3.95558
-1.50890	-0.23145
-0.08081	2.95702
-0.20832	3.26312
2.64786	3.39065
2.16333	1.17148
1.19427	-1.48133
0.35272	-0.15492
1.01576	-0.33348
-1.02437	-0.23145
-1.63641	2.62542
-1.20288	-0.35899
-1.12638	-2.39961
0.83725	-4.92487
-3.80405	-2.73121
0.45472	0.94191
0.83725	3.16108
0.91375	2.57441
2.59686	1.52859
3.00489	0.45726
1.29628	0.27871
-0.05531	0.50828
-0.79486	1.14597
-1.07538	-0.56305
-0.64185	-0.99668
-0.18282	-1.91496
-0.18282	-0.25695
-0.51434	-0.18043
-0.66735	1.40105
-0.36133	1.12046
1.11776	-0.66508
1.34728	-2.09351
-0.64185	-0.02739
-0.10631	1.09496
0.55673	0.83988
-0.76936	1.19699
-1.25389	0.02363
1.90832	1.17148
2.90288	0.99292
3.64243	0.53379
-3.82955	-0.74160
-5.41065	-1.09871
0.91375	-0.51203
1.93382	0.45726
2.16333	0.48277
2.36734	0.10015
1.57679	0.43176
-0.08081	0.78886
-1.35589	0.07465
-0.94787	-0.30797
0.83725	-0.02739
-1.71292	-2.45062
-1.91693	-1.02219
-0.23382	0.58480
1.06676	1.98773
1.93382	0.48277
-0.18282	2.21730
0.81175	1.01843
-2.75848	-1.09871
-0.33583	-2.27207
1.70430	1.93671
1.44929	-1.04770
0.76074	-1.14973
0.27621	-1.27726
0.22521	2.03874
0.14870	1.42656
0.17421	1.88570
-0.10631	1.57960
0.48022	-0.41000
0.12320	-1.22625
-2.06994	-2.50164
0.63323	-1.12422
-1.04987	0.04914
0.40372	1.06945
-0.51434	1.60511
1.62780	1.29902
1.80631	0.30422
1.67880	-0.20594
-0.02981	0.04914
-1.10088	-0.25695
0.91375	-0.38449
1.80631	0.38074
-2.29945	1.04394
-1.12638	-0.02739
0.42922	-0.33348
1.55129	-0.38449
0.70974	1.06945
1.88281	0.94191
0.45472	0.73785
-2.78398	-0.41000
-3.98256	-1.96597
-0.46334	0.30422
2.01032	1.17148
2.01032	0.12566
1.24527	0.10015
0.83725	1.42656
0.32721	-0.53754
-0.15732	-1.58336
-1.86593	-1.99148
0.07220	1.96222
1.16877	1.80917
1.14327	1.45206
0.78624	1.98773
0.04670	0.02363
-0.38683	-0.30797
-0.51434	-2.70570
-0.59084	-0.86914
-0.15732	-0.15492
0.27621	0.68683
0.37822	1.14597
0.02119	1.29902
0.27621	0.35523
-0.00431	-0.30797
-0.13181	-0.43551
-0.13181	0.61031
0.99026	1.57960
1.19427	0.63582
-0.79486	-1.99148
0.48022	-4.15964
0.50573	-1.76191
0.17421	2.70194
-1.35589	2.08976
0.02119	1.65613
1.37278	1.37554
0.70974	0.35523
0.40372	1.73265
-0.13181	1.35003
-4.62010	-2.47613
-0.31033	-4.23616
1.06676	0.63582
1.78081	-0.63957
0.63323	0.91640
1.72980	1.86019
1.27078	0.53379
-0.13181	0.63582
0.04670	0.91640
0.70974	0.45726
-2.78398	-0.84363
-0.97337	-0.12942
-0.79486	0.10015
1.14327	0.20219
0.73524	-0.15492
-0.94787	-0.18043
0.78624	-0.43551
2.29084	-0.05289
0.76074	-0.02739
-0.13181	0.73785
-0.38683	1.17148
1.55129	1.86019
-1.25389	-2.01699
-1.38139	-2.80773
0.22521	-0.05289
-0.08081	-0.35899
-0.64185	0.89089
-0.10631	1.35003
-1.66191	2.01323
1.83181	1.37554
1.67880	0.86539
1.83181	0.04914
1.32178	0.63582
0.63323	2.65093
-0.28482	-1.09871
-1.48340	-4.51675
0.22521	-3.52195
-0.41233	0.32972
-1.68742	1.29902
-2.40146	2.16628
-0.38683	1.12046
3.41291	0.40625
0.68424	0.02363
1.16877	0.35523
0.09770	1.91120
0.53123	0.25320
-0.15732	-1.30277
-0.76936	-4.10862
-4.49259	-2.52714
1.83181	1.37554
2.34184	1.98773
1.95932	2.19179
3.43841	1.29902
-0.79486	1.29902
-1.33039	0.96742
-3.54903	0.55929
-1.89143	-1.63437
0.25071	-1.45582
1.04126	-1.20074
-0.18282	-0.02739
2.52035	0.71234
1.75531	1.19699
0.93925	0.63582
0.45472	0.96742
0.48022	-0.15492
-0.18282	0.50828
-1.02437	-0.94566
-2.04444	-1.86394
-0.66735	-0.38449
0.53123	1.45206
0.45472	1.01843
0.42922	0.78886
0.19971	0.94191
0.91375	-0.35899
0.68424	-1.81293
-0.05531	1.12046
0.22521	0.89089
-0.97337	-1.04770
0.91375	-0.15492
-1.86593	0.45726
1.60230	1.17148
1.24527	1.17148
1.32178	0.55929
-1.17738	-0.15492
-2.14644	-0.46102
2.31634	-0.46102
1.16877	-1.45582
-0.43783	0.12566
0.68424	0.68683
0.32721	1.60511
-0.10631	-0.23145
-0.18282	-1.78742
0.88825	0.50828
0.93925	1.37554
-0.69285	0.89089
-2.17195	0.76336
-0.31033	0.68683
1.14327	-0.10391
2.49485	-0.99668
-0.59084	0.35523
-2.32496	0.12566
-0.02981	1.01843
1.34728	0.17668
-0.31033	-1.45582
0.99026	-2.22105
1.04126	-0.76711
-0.53984	1.17148
-1.63641	1.14597
1.09226	0.63582
0.37822	1.32453
1.16877	0.68683
0.73524	-0.00188
0.81175	-0.05289
0.27621	1.37554
-0.00431	0.61031
0.17421	-0.89465
-0.00431	-0.10391
-0.59084	-1.40480
-2.27395	-1.65988
-0.89686	-0.66508
0.96476	1.75816
-0.51434	2.01323
3.54042	0.86539
-1.20288	0.07465
-0.66735	-0.56305
0.45472	0.35523
-1.50890	-0.23145
0.37822	-0.48652
1.34728	0.22769
0.73524	0.45726
2.16333	1.42656
2.01032	1.55410
0.68424	-0.99668
-0.25932	-4.10862
-1.43240	-3.54745
-1.73842	0.71234
-3.06450	2.88050
-0.38683	2.57441
2.03582	2.08976
1.09226	1.57960
2.16333	0.58480
-1.73842	-0.20594
0.17421	0.48277
0.19971	-1.04770
-1.35589	-0.20594
0.42922	-0.74160
1.06676	-1.02219
0.91375	-3.31788
0.91375	0.04914
0.83725	1.35003
0.65874	1.83468
0.07220	0.22769
0.42922	0.55929
-3.16651	0.07465
-1.15188	0.45726
0.70974	0.78886
0.63323	0.22769
0.50573	0.40625
1.39828	0.86539
1.09226	0.73785
0.76074	0.07465
-0.05531	-0.66508
-1.73842	-3.41992
0.17421	-0.81812
0.02119	1.17148
0.07220	0.96742
0.12320	0.83988
0.73524	1.19699
0.83725	0.86539
-1.53441	0.68683
-0.79486	1.14597
2.57136	-0.89465
-1.10088	-2.19554
1.52579	-2.22105
-0.13181	0.53379
-2.22295	-0.05289
-1.45790	1.40105
2.23984	2.90601
1.16877	0.81437
0.78624	-0.79262
1.19427	-1.25176
0.32721	0.61031
0.42922	0.38074
0.04670	0.66132
0.55673	2.49788
-1.48340	0.89089
-0.08081	-2.98628
-0.79486	-2.24656
-4.87512	0.71234
0.30171	1.55410
1.50029	1.01843
2.49485	0.76336
1.09226	0.66132
0.99026	1.32453
-0.41233	-1.07320
-0.08081	-1.99148
-0.99887	-2.04250
0.50573	0.83988
1.16877	0.94191
0.53123	1.06945
0.83725	0.76336
1.70430	0.86539
-0.53984	1.83468
0.32721	0.07465
-1.04987	-2.88425
-1.76392	-2.98628
-3.67654	0.73785
-0.87136	1.55410
1.11776	1.14597
1.70430	0.91640
2.36734	0.94191
1.90832	1.68163
0.07220	0.35523
-1.35589	-2.29757
0.81175	-1.86394
0.22521	1.22250
0.25071	1.01843
0.04670	-0.48652
0.42922	-1.65988
0.42922	1.17148
-1.50890	1.12046
-0.41233	0.66132
0.22521	1.01843
1.27078	0.81437
0.96476	-1.25176
-0.87136	-0.18043
-1.99343	1.14597
1.04126	-0.20594
-0.94787	-2.39961
0.65874	-0.38449
-3.34502	1.27351
2.39285	3.64573
2.95388	0.81437
2.44385	-1.30277
1.47479	-1.37929
-0.23382	-1.02219
-0.10631	0.53379
-1.63641	0.86539
-2.52897	1.52859
0.12320	1.29902
0.83725	1.91120
-0.46334	-2.04250
1.04126	-2.24656
-0.33583	-3.72601
0.09770	0.63582
-1.07538	2.62542
0.60773	1.73265
1.09226	1.27351
0.53123	0.53379
0.40372	0.25320
0.42922	-0.05289
-0.38683	-0.35899
-0.66735	0.04914
-0.13181	-0.02739
0.12320	0.55929
0.65874	0.07465
0.53123	-0.46102
0.30171	-1.20074
0.40372	-0.02739
0.99026	0.83988
0.12320	2.65093
-0.08081	-1.02219
-2.04444	-2.57816
-2.12094	0.15117
1.16877	1.45206
1.47479	0.83988
1.75531	0.71234
0.86275	-0.25695
1.19427	-0.02739
-2.12094	-0.56305
0.83725	0.96742
1.19427	1.50308
-2.47797	1.17148
-2.80949	0.12566
1.80631	-1.91496
2.49485	-0.51203
3.33641	-1.58336
-3.85505	-0.53754
0.42922	-0.56305
1.27078	0.68683
-1.73842	0.48277
0.78624	1.01843
0.78624	1.35003
0.55673	0.96742
0.53123	0.25320
0.19971	-0.61406
-1.04987	-0.35899
-0.00431	0.12566
0.35272	0.45726
-1.35589	-0.10391
0.50573	-1.02219
0.07220	-0.05289
0.04670	0.15117
0.76074	-0.12942
0.76074	0.91640
-0.15732	0.22769
0.30171	0.32972
0.45472	0.63582
0.88825	0.43176
0.14870	-0.69059
0.78624	0.38074
0.02119	1.04394
1.21977	0.48277
-1.43240	-1.32828
-2.63097	-0.74160
0.91375	0.45726
-1.35589	0.48277
-1.33039	0.55929
1.90832	1.01843
1.60230	1.47757
2.34184	0.15117
0.68424	-1.35379
-0.79486	-0.23145
-0.36133	0.04914
1.75531	-1.25176
-1.35589	0.30422
0.65874	1.37554
1.01576	0.30422
-1.20288	-0.00188
-5.30865	0.58480
1.65330	1.01843
1.72980	-0.07840
1.42379	0.76336
0.14870	-1.07320
0.70974	0.20219
2.57136	-1.17523
-2.91149	0.15117
0.73524	-0.46102
0.35272	0.27871
-0.23382	0.66132
0.30171	1.96222
0.93925	0.76336
-0.43783	0.12566
-0.43783	-2.57816
-1.10088	-0.12942
0.53123	1.06945
1.75531	1.12046
0.19971	0.99292
-0.00431	0.30422
-0.15732	0.07465
0.58223	-0.00188
1.85731	1.45206
-3.70204	-0.35899
0.65874	-2.19554
0.60773	-1.91496
0.42922	0.45726
1.85731	1.27351
1.29628	1.60511
-2.17195	0.94191
-0.18282	-0.63957
0.76074	0.58480
0.45472	1.78367
1.29628	-0.23145
2.06133	-1.07320
-0.46334	-0.86914
-5.66567	0.27871
-0.79486	0.76336
2.31634	0.73785
-0.25932	0.40625
2.01032	0.81437
0.99026	0.27871
0.99026	-2.19554
0.37822	-3.52195
-0.13181	0.58480
-0.46334	0.32972
-0.89686	1.75816
-0.46334	1.14597
-0.00431	1.01843
-0.05531	0.12566
0.58223	2.19179
-0.64185	0.22769
0.99026	-2.50164
0.76074	-1.22625
-0.28482	0.30422
0.25071	0.89089
0.60773	1.09496
-0.43783	0.76336
1.01576	0.45726
-2.22295	0.53379
-0.18282	-0.46102
2.57136	-0.02739
2.72437	-0.69059
1.65330	-0.43551
-0.56534	-0.99668
-0.94787	1.80917
-3.88056	0.78886
0.53123	0.22769
0.60773	-3.98109
-0.46334	1.04394
0.88825	1.12046
2.13783	1.63062
1.06676	1.45206
-0.82036	1.40105
0.27621	-1.07320
0.19971	-0.99668
0.45472	-1.14973
-0.02981	0.22769
-1.12638	0.48277
-0.33583	0.73785
0.42922	0.76336
-0.43783	0.83988
-1.20288	-0.69059
0.48022	0.04914
-0.20832	-0.51203
0.14870	-0.46102
1.06676	-1.55785
1.19427	0.55929
0.83725	0.15117
0.63323	0.78886
0.50573	1.12046
-1.58541	0.86539
-0.10631	-0.10391
1.37278	1.50308
1.24527	3.08456
-0.23382	-0.69059
-2.06994	-4.87386
-0.53984	-0.84363
-1.10088	1.60511
1.93382	1.63062
2.16333	1.70714
2.34184	0.17668
-2.35046	0.10015
-4.41609	-1.60887
1.04126	-0.81812
2.77537	-0.71609
0.68424	0.58480
1.14327	0.89089
0.32721	0.55929
-0.82036	0.45726
1.39828	0.20219
-0.28482	0.20219
-0.59084	0.55929
-0.00431	0.53379
0.35272	0.48277
0.48022	-0.56305
-0.31033	-0.74160
-1.02437	-1.37929
-2.42696	-0.30797
0.42922	0.20219
2.13783	2.06425
1.65330	0.91640
-0.59084	0.04914
0.30171	0.02363
0.93925	0.81437
0.53123	0.55929
-0.79486	0.68683
-0.33583	-0.41000
1.24527	-1.83844
0.02119	0.71234
0.14870	0.91640
0.42922	-0.00188
0.99026	0.40625
0.65874	-0.56305
-0.31033	-1.94047
-1.12638	-0.41000
-0.64185	1.57960
0.25071	0.35523
-2.78398	-1.12422
1.67880	1.12046
2.01032	1.17148
-0.74385	0.45726
-2.19745	0.20219
1.42379	0.53379
1.65330	0.96742
3.03039	-0.66508
2.36734	0.07465
-3.29402	-0.28246
-0.69285	0.48277
-0.59084	-0.25695
0.78624	-0.30797
-0.28482	-0.10391
0.12320	0.96742
0.42922	0.04914
1.88281	-0.12942
-1.86593	0.02363
0.35272	-0.00188
-0.10631	-0.69059
-0.00431	0.66132
0.68424	0.15117
0.17421	0.55929
0.45472	-0.05289
-0.28482	1.06945
-0.38683	0.53379
0.30171	0.25320
0.17421	0.04914
0.12320	0.48277
0.12320	-0.76711
0.30171	0.30422
0.42922	0.27871
0.42922	0.68683
-0.08081	-0.38449
0.86275	-0.94566
0.09770	0.22769
0.42922	1.70714
-0.33583	-0.00188
-1.48340	-0.97117
-1.66191	-0.51203
0.83725	0.25320
2.13783	0.89089
2.97938	0.96742
-3.60004	-1.30277
-2.68198	-0.05289
3.03039	0.58480
2.26534	1.83468
1.67880	0.96742
0.40372	0.50828
0.45472	-1.30277
-2.50347	-0.18043
-2.50347	0.12566
0.22521	0.04914
-0.33583	0.22769
0.09770	0.43176
1.19427	0.89089
1.52579	-0.10391
1.55129	-0.23145
-1.61091	-0.58856
-0.89686	0.32972
0.68424	-0.05289
0.45472	-1.07320
0.50573	0.43176
0.40372	0.76336
0.32721	1.09496
-0.00431	0.66132
-0.00431	0.12566
-0.15732	-0.76711
-0.66735	-0.00188
-0.51434	0.50828
-0.18282	0.96742
0.42922	0.25320
0.48022	-1.45582
0.76074	-0.81812
0.76074	-0.89465
0.73524	1.06945
0.09770	1.29902
-0.53984	2.01323
-0.76936	0.22769
1.55129	0.02363
0.22521	-0.84363
-0.08081	-1.20074
-0.48884	-0.69059
-2.55447	0.86539
-0.00431	1.91120
2.54586	0.40625
3.08139	-0.43551
-0.23382	0.04914
0.76074	0.40625
-1.02437	0.12566
-1.48340	0.68683
-0.69285	0.27871
1.62780	-1.14973
1.47479	-1.73640
-0.94787	0.04914
-0.56534	1.14597
1.01576	1.45206
0.93925	1.01843
0.63323	1.19699
0.53123	-0.66508
-2.22295	-1.37929
-0.46334	-2.14453
0.99026	0.89089
0.58223	0.61031
-1.35589	0.89089
0.17421	1.14597
-0.82036	1.65613
1.14327	0.76336
1.34728	1.17148
0.83725	-1.17523
0.73524	-0.79262
0.78624	-1.73640
-0.10631	-0.41000
0.53123	1.35003
-1.27939	1.29902
-0.28482	-0.30797
0.30171	-0.25695
0.12320	0.45726
0.58223	0.96742
-0.05531	1.24800
0.30171	-0.76711
-0.33583	-0.35899
-1.53441	-1.40480
-1.12638	-0.02739
0.88825	0.50828
2.67337	0.73785
1.78081	0.94191
0.22521	0.43176
-1.22839	0.07465
-2.24845	-0.10391
-1.45790	0.89089
2.16333	-0.94566
3.28540	0.50828
1.37278	-0.12942
-0.87136	0.58480
-0.18282	0.53379
-2.83499	0.63582
0.58223	0.68683
1.62780	-0.53754
-0.10631	-1.02219
-0.64185	0.22769
-1.63641	1.83468
-0.08081	-0.18043
-0.08081	-0.35899
1.21977	0.25320
1.16877	-0.07840
0.88825	-0.69059
1.01576	0.25320
0.53123	-0.71609
0.68424	0.45726
-0.92237	1.12046
-3.01350	1.42656
-0.25932	0.83988
0.70974	-0.99668
0.86275	-0.46102
0.96476	-1.88945
0.91375	0.76336
-0.02981	2.39585
-0.74385	0.25320
-1.25389	-1.30277
0.73524	-1.55785
1.37278	0.76336
1.34728	1.37554
-1.48340	0.58480
-1.40690	0.55929
0.83725	0.48277
0.63323	0.61031
1.34728	0.78886
0.96476	0.30422
-1.30489	-1.63437
-0.51434	-1.17523
-0.82036	-0.51203
1.44929	1.01843
2.01032	0.86539
0.65874	0.76336
-3.19201	0.22769
0.17421	-0.30797
-1.50890	-0.28246
2.06133	1.47757
2.72437	0.53379
0.30171	-0.53754
-2.47797	-2.24656
-0.61635	0.55929
-0.31033	1.37554
1.50029	0.68683
1.67880	0.17668
0.65874	-0.05289
-0.08081	0.35523
-0.71835	0.12566
-1.58541	0.50828
-0.18282	0.68683
0.70974	0.27871
0.73524	-0.76711
0.37822	0.02363
0.81175	1.06945
0.45472	-0.43551
0.25071	-1.55785
-0.25932	0.02363
-1.43240	-0.23145
-0.13181	0.48277
0.14870	1.78367
0.68424	0.53379
0.45472	-0.25695
0.81175	-0.53754
0.37822	1.01843
0.45472	0.27871
0.91375	-0.10391
0.17421	-0.12942
-1.43240	-0.00188
-1.25389	0.38074
1.57679	0.30422
-2.45246	0.53379
0.35272	-0.25695
2.34184	-1.53234
-0.08081	-0.66508
-0.51434	1.09496
1.80631	0.96742
2.13783	0.61031
-0.97337	0.27871
-0.51434	-0.02739
0.88825	1.22250
1.04126	-0.02739
0.12320	0.10015
-0.15732	-0.86914
-0.46334	-0.79262
-2.01894	-1.07320
0.22521	0.53379
0.19971	0.35523
-1.33039	-0.25695
0.63323	0.30422
1.01576	1.24800
1.06676	0.94191
0.09770	0.86539
0.09770	0.43176
0.63323	-0.07840
0.02119	0.78886
0.27621	0.15117
0.76074	-1.14973
0.37822	-1.50683
-0.00431	-0.05289
-1.96793	1.78367
0.40372	-0.41000
0.81175	-0.43551
0.63323	-0.05289
1.34728	0.48277
1.11776	0.61031
-1.84042	-1.88945
-2.22295	-0.15492
0.48022	1.98773
0.19971	1.29902
2.34184	0.15117
1.85731	-1.76191
-3.62554	-1.09871
1.60230	1.27351
-0.76936	1.42656
-0.99887	1.24800
1.19427	0.89089
1.65330	0.32972
0.76074	0.17668
1.14327	-0.94566
1.93382	-0.66508
-1.40690	0.15117
-3.06450	-0.05289
-1.99343	-0.51203
1.83181	-1.63437
0.02119	-0.25695
-0.10631	0.17668
0.68424	0.89089
0.88825	0.81437
0.40372	1.04394
0.50573	0.71234
-0.00431	0.83988
-0.61635	1.01843
-0.08081	-1.25176
0.65874	-1.63437
0.17421	0.17668
0.22521	0.61031
0.73524	1.27351
-0.53984	0.76336
-1.02437	-1.53234
-0.66735	-2.11902
1.47479	0.81437
0.55673	1.65613
-0.08081	0.76336
0.91375	0.45726
1.37278	-0.53754
1.01576	0.38074
-0.84586	1.01843
1.06676	0.12566
-1.61091	0.07465
-1.50890	-0.56305
-0.33583	-0.51203
-0.36133	0.45726
1.42379	0.20219
0.68424	0.35523
1.75531	0.12566
0.42922	0.30422
1.37278	0.40625
-1.40690	0.12566
-2.80949	-0.07840
0.07220	0.07465
0.91375	0.22769
1.95932	-1.37929
-0.66735	0.04914
-0.43783	-0.23145
1.39828	1.47757
0.58223	1.06945
0.63323	0.63582
-0.71835	-0.12942
-1.81492	0.89089
0.04670	0.66132
0.37822	0.10015
1.65330	-0.71609
0.63323	-0.00188
0.04670	0.27871
0.14870	0.22769
0.37822	0.07465
0.12320	0.15117
-0.48884	-0.51203
-0.87136	-1.73640
-0.53984	-0.38449
0.50573	1.63062
0.02119	1.14597
0.48022	0.32972
0.81175	0.12566
0.76074	0.71234
0.86275	0.71234
0.55673	-0.43551
0.48022	-0.74160
-1.25389	-0.20594
-0.20832	-0.02739
-1.43240	-0.76711
1.57679	0.61031
0.48022	1.29902
-2.88599	0.66132
1.19427	0.58480
0.60773	-0.10391
2.18883	-0.30797
0.14870	0.22769
-0.00431	-0.86914
0.32721	-0.79262
1.50029	-0.18043
1.34728	0.50828
-0.61635	1.73265
-0.20832	1.12046
-1.38139	-0.33348
-1.86593	-1.88945
0.58223	-0.30797
0.83725	0.12566
-1.99343	0.91640
-0.74385	1.29902
1.09226	0.50828
0.02119	0.15117
1.65330	0.32972
1.57679	0.12566
0.88825	-0.02739
0.53123	0.58480
0.27621	-0.15492
-0.41233	0.20219
-0.38683	-1.94047
-0.28482	-1.40480
-0.18282	-0.51203
-0.08081	0.53379
-0.15732	1.32453
-0.43783	1.45206
0.37822	1.27351
0.25071	0.17668
0.17421	0.27871
0.50573	1.06945
0.70974	-0.12942
0.93925	0.40625
-0.00431	0.25320
-0.48884	-0.94566
0.45472	-2.68019
-1.50890	-1.91496
1.39828	0.12566
-0.20832	1.12046
-1.48340	1.63062
3.20890	2.59991
0.42922	0.94191
-1.45790	-0.25695
-0.36133	-0.15492
-1.30489	0.25320
2.54586	0.66132
-0.56534	-0.18043
0.09770	-1.30277
1.67880	-1.55785
1.50029	0.32972
0.02119	0.99292
-0.71835	0.63582
-0.48884	-0.05289
-1.71292	-0.94566
0.14870	0.99292
0.73524	0.22769
-1.10088	0.48277
-0.82036	0.04914
0.91375	0.50828
1.55129	0.20219
2.13783	0.43176
-0.69285	-0.00188
-0.64185	-0.12942
-0.41233	0.48277
0.73524	0.07465
1.01576	0.12566
0.81175	0.55929
0.45472	0.35523
0.02119	-0.63957
-0.15732	-1.02219
0.02119	0.35523
-1.94243	1.42656
-2.37596	-0.56305
0.53123	-0.25695
1.44929	-0.05289
1.29628	0.66132
0.78624	0.27871
-0.59084	0.55929
0.53123	1.19699
1.55129	0.27871
0.40372	1.12046
1.04126	-1.27726
-2.45246	-0.97117
-2.32496	-1.40480
0.83725	0.66132
0.93925	0.58480
-0.13181	0.40625
0.25071	0.73785
1.42379	0.66132
1.44929	0.76336
0.02119	0.07465
-0.53984	-0.12942
-2.63097	-0.53754
2.03582	1.37554
1.09226	-0.63957
0.37822	-1.37929
-1.91693	-2.39961
-0.10631	1.06945
0.78624	1.50308
0.32721	0.96742
0.27621	0.78886
0.25071	1.01843
0.68424	0.76336
-0.23382	-0.07840
0.45472	-1.43031
-0.13181	-0.58856
0.02119	0.04914
1.24527	3.18659
-0.41233	0.38074
0.22521	-1.40480
0.12320	-2.29757
-0.79486	-2.57816
0.17421	0.89089
0.42922	2.39585
0.27621	2.39585
0.04670	1.14597
0.09770	0.89089
0.27621	0.12566
0.40372	-1.48133
0.12320	0.25320
-0.00431	-0.35899
0.02119	-0.23145
-0.43783	-1.30277
0.27621	0.71234
1.19427	1.88570
-0.05531	-0.10391
0.53123	-2.29757
0.14870	-0.58856
-0.61635	0.81437
0.60773	1.47757
1.37278	0.96742
-2.70748	0.22769
-0.56534	-0.20594
-0.99887	-0.10391
2.72437	0.38074
0.32721	-0.25695
-0.43783	1.27351
2.16333	0.04914
2.06133	-0.69059
0.55673	-0.92016
-0.59084	-0.41000
-1.22839	0.32972
-1.12638	0.35523
-0.59084	0.89089
0.04670	-0.15492
0.17421	-0.41000
0.32721	0.30422
-0.18282	0.53379
0.37822	0.81437
0.37822	1.47757
0.35272	0.66132
0.22521	-0.23145
0.50573	-0.92016
0.65874	-1.63437
0.91375	0.32972
0.55673	0.38074
-1.48340	0.25320
-0.46334	-0.63957
-0.89686	0.15117
1.01576	0.55929
1.29628	1.19699
0.14870	0.50828
1.72980	-0.63957
1.14327	0.32972
-3.77855	-0.18043
-1.04987	0.38074
1.83181	0.78886
1.04126	0.68683
1.67880	-0.63957
1.01576	-0.15492
-1.22839	0.02363
-0.28482	0.48277
0.63323	-0.15492
-1.66191	0.32972
-1.55991	0.32972
0.78624	-0.20594
1.47479	-0.30797
0.81175	0.53379
0.22521	-0.05289
-0.00431	-0.10391
0.27621	0.40625
-0.69285	-1.07320
-1.33039	0.38074
0.65874	0.32972
1.06676	0.53379
0.53123	1.01843
0.45472	1.40105
0.40372	0.99292
0.12320	-2.09351
0.32721	-2.70570
0.45472	-0.48652
-0.38683	1.42656
-0.64185	1.35003
-0.89686	1.40105
0.37822	0.55929
0.53123	-0.84363
0.60773	-1.14973
-0.84586	1.22250
0.73524	1.27351
0.27621	-0.51203
0.93925	-1.14973
0.25071	0.45726
1.19427	0.35523
-0.31033	0.12566
0.14870	0.25320
-1.30489	0.71234
-0.08081	0.45726
0.60773	-0.05289
-0.15732	-1.14973
0.27621	-0.51203
0.04670	-0.28246
0.42922	-0.05289
1.57679	0.99292
-1.40690	1.01843
-0.38683	1.04394
0.42922	0.50828
0.60773	-0.12942
0.65874	-0.41000
0.22521	-1.25176
0.35272	0.89089
0.12320	0.30422
-0.41233	0.45726
0.19971	1.06945
0.70974	-0.30797
-0.10631	-0.99668
0.02119	-0.81812
0.60773	0.91640
-0.64185	0.71234
-0.25932	0.38074
0.40372	-0.30797
0.25071	-0.05289
0.37822	0.07465
-1.22839	0.48277
-1.50890	0.35523
1.19427	-0.05289
1.83181	-0.20594
1.85731	-0.25695
0.53123	0.94191
0.14870	0.68683
0.81175	-0.05289
-0.82036	-2.32308
-0.08081	-0.33348
-0.79486	0.96742
0.40372	1.35003
0.73524	1.40105
-2.70748	-0.56305
0.37822	0.02363
1.19427	0.76336
0.53123	-0.12942
-0.61635	-0.58856
0.30171	-0.79262
0.09770	-0.74160
0.55673	1.01843
0.86275	1.09496
1.55129	0.66132
-0.71835	0.76336
-0.59084	-0.12942
-0.31033	0.04914
0.60773	-0.23145
0.86275	-0.66508
-0.56534	-0.46102
-0.00431	0.25320
1.88281	0.45726
-1.73842	0.32972
0.63323	0.53379
-0.89686	0.32972
0.12320	0.10015
1.04126	0.25320
0.63323	-0.00188
0.30171	-1.27726
0.09770	-0.38449
-0.59084	1.52859
-0.84586	1.37554
0.12320	-0.61406
0.09770	-2.50164
1.11776	0.78886
0.37822	1.68163
-0.20832	1.01843
-0.10631	0.35523
0.32721	0.32972
0.63323	0.43176
0.30171	-0.00188
0.65874	1.01843
0.35272	-0.18043
0.19971	-1.25176
-1.71292	-3.47093
-1.10088	-1.37929
0.22521	1.12046
0.45472	1.63062
0.42922	0.63582
1.60230	1.17148
0.63323	1.65613
-0.51434	0.20219
0.96476	-0.66508
-0.23382	0.17668
0.88825	-0.05289
0.81175	0.12566
-1.17738	-0.56305
-0.99887	0.35523
-2.78398	0.27871
-0.31033	0.40625
0.09770	0.12566
1.75531	-0.74160
2.31634	-0.20594
1.95932	0.15117
-0.23382	0.55929
-1.02437	0.94191
-0.43783	0.15117
1.16877	-0.46102
1.21977	0.20219
-0.89686	0.02363
-0.99887	0.17668
-2.37596	1.06945
0.53123	0.12566
0.83725	0.27871
0.88825	0.83988
0.48022	-0.02739
0.55673	-2.24656
0.19971	-0.76711
0.60773	0.81437
0.25071	0.32972
0.60773	1.17148
0.32721	0.55929
-1.96793	0.10015
-2.04444	-0.53754
0.07220	0.32972
1.75531	0.66132
1.75531	0.53379
2.06133	0.25320
0.40372	0.02363
-2.29945	-0.69059
-0.10631	-1.04770
-0.00431	0.02363
-0.43783	0.53379
-0.33583	1.57960
1.93382	0.35523
1.67880	-0.51203
-0.61635	-1.09871
0.35272	1.09496
0.14870	1.29902
0.45472	1.40105
-1.71292	-1.12422
-1.22839	-1.88945
0.22521	-0.20594
1.19427	1.22250
0.48022	0.48277
0.22521	-1.04770
0.81175	0.35523
-0.61635	0.96742
-0.10631	1.52859
-0.46334	0.68683
1.16877	0.81437
-0.31033	-1.32828
1.16877	-1.04770
-0.08081	-2.14453
0.25071	0.76336
0.32721	1.35003
0.45472	0.94191
0.48022	0.66132
-0.08081	0.35523
-0.23382	0.48277
-0.53984	0.73785
0.14870	-0.18043
0.42922	-1.25176
0.88825	-0.38449
0.17421	0.32972
-0.89686	-0.05289
-1.43240	-0.05289
0.60773	0.17668
-0.00431	0.04914
1.09226	0.66132
2.03582	0.53379
0.99026	1.06945
-2.24845	1.29902
-0.94787	-0.28246
0.58223	-0.56305
1.06676	-1.48133
1.75531	-0.18043
1.24527	0.86539
0.88825	1.29902
-2.96250	0.96742
-0.05531	0.22769
0.22521	0.40625
1.62780	0.15117
0.53123	-0.30797
-0.61635	-1.22625
0.32721	-0.18043
0.48022	-0.56305
-0.53984	0.55929
-1.71292	1.04394
-0.28482	0.48277
0.81175	-0.51203
-0.48884	-0.12942
0.78624	0.22769
0.22521	0.58480
0.68424	-0.00188
1.60230	0.58480
0.83725	1.06945
0.27621	-0.18043
-0.13181	0.40625
-0.02981	0.50828
-0.20832	-1.35379
-0.20832	-2.04250
-0.02981	-1.07320
-0.05531	0.15117
-1.61091	1.50308
0.12320	1.55410
1.19427	1.24800
0.91375	1.37554
-0.15732	0.68683
-0.97337	-0.46102
1.70430	-1.27726
1.42379	-0.74160
-2.75848	-0.25695
-1.58541	1.17148
0.37822	1.04394
2.74987	-1.02219
1.62780	-0.58856
1.62780	-0.38449
-0.10631	0.32972
-1.02437	0.45726
-2.32496	-0.12942
-0.94787	0.55929
1.55129	0.76336
1.42379	0.94191
-0.61635	0.32972
0.68424	-0.25695
1.57679	-0.84363
-1.66191	-0.28246
-1.02437	0.55929
-1.30489	0.20219
-0.69285	-0.18043
0.37822	-0.66508
0.58223	0.25320
1.06676	0.94191
0.55673	0.20219
1.42379	-0.79262
-1.48340	0.50828
0.70974	1.22250
0.32721	0.55929
-1.53441	0.02363
1.14327	-0.84363
1.04126	-0.79262
1.60230	0.66132
0.17421	0.78886
0.09770	-0.48652
0.02119	0.63582
-0.20832	0.73785
-1.30489	0.61031
-0.87136	0.27871
0.14870	-0.05289
0.30171	-0.30797
1.50029	0.04914
1.95932	0.25320
-2.60547	-0.71609
-0.41233	0.35523
-1.25389	-0.58856
1.06676	0.40625
1.06676	-0.18043
1.44929	0.53379
0.88825	-0.07840
0.60773	0.55929
0.42922	1.27351
0.48022	1.17148
-0.28482	0.96742
-1.10088	-0.15492
0.17421	-0.66508
0.45472	0.68683
-0.64185	-0.35899
-0.08081	-1.43031
-0.82036	-2.65468
-0.28482	1.12046
1.50029	1.86019
-1.68742	1.45206
1.55129	0.91640
1.83181	0.45726
0.48022	0.22769
-0.18282	0.20219
0.07220	-0.15492
-0.43783	-0.56305
-0.94787	-0.66508
1.24527	-0.10391
1.72980	0.20219
0.96476	0.61031
-0.71835	-0.05289
-1.02437	-0.51203
-2.42696	0.17668
1.11776	0.32972
0.81175	0.76336
0.35272	0.81437
-0.00431	0.10015
0.76074	-2.06800
2.36734	0.48277
-0.74385	0.32972
-2.12094	0.94191
-0.94787	1.50308
-2.17195	0.63582
0.42922	-0.05289
1.42379	0.04914
2.34184	0.81437
0.60773	-0.30797
0.17421	-0.79262
-0.23382	-0.56305
0.78624	0.27871
0.60773	1.12046
0.07220	-0.18043
0.09770	-1.35379
0.50573	0.35523
-0.74385	1.24800
-1.30489	0.04914
-0.08081	-0.56305
-0.31033	-0.07840
-0.38683	-0.53754
0.73524	0.02363
1.01576	1.55410
1.32178	0.76336
0.50573	0.43176
1.37278	0.12566
-1.58541	-0.25695
-0.59084	-0.23145
-0.13181	1.01843
0.35272	0.50828
-0.66735	-0.43551
-0.59084	-1.20074
-0.08081	-0.92016
2.87738	0.48277
2.18883	0.86539
-0.05531	1.19699
-0.00431	0.63582
-0.46334	0.02363
0.07220	0.50828
0.02119	-0.28246
-0.00431	0.30422
0.02119	0.61031
-0.87136	-1.02219
-0.59084	-0.74160
-0.31033	-0.69059
0.14870	0.76336
0.14870	1.14597
0.30171	-0.38449
0.32721	1.06945
0.30171	0.25320
0.68424	-0.41000
0.55673	0.07465
-0.08081	0.96742
-0.48884	0.83988
-0.33583	-0.00188
1.95932	-0.30797
0.04670	-1.17523
-0.84586	0.12566
0.45472	1.22250
-0.28482	0.68683
0.88825	0.25320
-1.40690	-0.48652
0.48022	-0.51203
0.55673	-0.10391
0.88825	0.45726
0.12320	0.78886
0.22521	1.06945
-0.31033	0.02363
-0.46334	-1.09871
-0.46334	-1.07320
-0.10631	0.83988
1.32178	0.43176
2.41835	0.15117
2.57136	-0.00188
-0.87136	0.55929
-4.62010	0.63582
-0.87136	-0.05289
0.32721	-0.10391
-0.28482	0.38074
1.09226	0.22769
0.88825	0.22769
1.50029	-0.56305
1.27078	-1.40480
-0.69285	-0.61406
0.17421	0.89089
0.53123	1.14597
0.02119	0.81437
0.04670	-0.18043
0.07220	0.81437
-0.46334	0.12566
-0.36133	-0.15492
-0.76936	-1.17523
-0.20832	0.96742
0.53123	0.32972
1.21977	0.86539
0.65874	-0.99668
1.57679	-1.04770
-0.43783	-0.35899
-0.00431	0.55929
-2.68198	1.09496
-1.22839	0.96742
1.09226	0.61031
0.99026	1.17148
1.14327	0.48277
-0.28482	-2.17003
0.50573	-3.13933
1.34728	0.96742
-0.74385	1.55410
-0.74385	1.29902
0.78624	1.01843
0.42922	0.68683
0.63323	-0.86914
1.78081	-0.63957
0.50573	0.38074
-1.81492	0.55929
-0.76936	-0.20594
0.04670	-0.12942
-1.91693	0.02363
-1.40690	0.40625
0.32721	0.35523
0.88825	0.71234
1.19427	0.04914
1.06676	-0.53754
0.91375	-0.12942
0.30171	0.91640
0.42922	0.40625
0.63323	-0.15492
-0.05531	-0.56305
-0.18282	0.22769
-0.36133	0.58480
-0.43783	1.12046
0.48022	0.15117
-0.02981	-1.25176
-0.59084	-0.51203
-0.74385	1.57960
1.09226	0.61031
0.86275	0.96742
-0.20832	-0.00188
-0.69285	-0.18043
0.17421	-0.51203
1.06676	-0.69059
0.42922	0.02363
1.32178	1.52859
2.31634	0.45726
-2.91149	-0.33348
1.11776	-1.04770
-2.55447	-0.02739
-2.86049	0.89089
2.29084	-0.69059
1.93382	-1.17523
0.30171	0.12566
-1.12638	1.47757
1.50029	1.37554
0.12320	0.38074
1.04126	0.17668
0.40372	-0.28246
0.48022	1.35003
-0.69285	0.02363
0.53123	-0.56305
0.48022	-2.22105
-3.31952	-0.05289
-0.61635	1.37554
0.55673	1.42656
0.55673	0.71234
1.14327	-1.27726
1.39828	-0.99668
-0.08081	0.53379
0.53123	0.58480
0.37822	0.76336
0.17421	0.78886
-1.17738	0.12566
-0.28482	0.53379
0.09770	0.50828
0.96476	-0.30797
1.65330	-1.45582
-2.06994	0.66132
0.09770	-0.84363
-1.96793	-1.07320
0.25071	-0.81812
1.70430	1.50308
2.13783	1.57960
1.60230	-0.02739
1.14327	0.53379
-0.84586	0.22769
-0.79486	1.04394
1.47479	0.15117
0.17421	-0.05289
-0.05531	-0.10391
-6.86425	-0.02739
0.55673	0.04914
1.14327	-0.25695
1.04126	0.27871
2.06133	0.27871
-0.76936	-0.79262
0.02119	-0.51203
1.42379	0.58480
1.55129	0.71234
1.14327	0.10015
-0.99887	1.19699
0.50573	0.71234
0.02119	-1.53234
-1.89143	-1.43031
-0.28482	0.07465
-1.50890	1.57960
0.37822	1.70714
1.95932	0.45726
1.60230	-0.84363
-0.43783	-0.33348
-0.20832	-0.20594
0.37822	1.29902
0.07220	-0.10391
0.09770	-1.55785
0.22521	-0.15492
0.07220	1.24800
0.60773	0.99292
0.40372	0.71234
0.58223	0.04914
-2.73298	0.27871
-0.43783	-0.71609
0.96476	-0.28246
0.78624	-0.28246
0.93925	-0.05289
-0.31033	0.27871
0.27621	0.25320
-0.00431	-0.28246
0.09770	0.58480
1.21977	1.27351
0.91375	1.09496
-2.50347	-1.73640
0.25071	-2.19554
1.65330	0.78886
0.19971	2.01323
-0.64185	0.94191
-2.06994	-0.12942
2.52035	0.15117
0.30171	0.89089
0.81175	0.48277
-0.69285	-0.38449
-0.89686	-0.56305
0.19971	0.43176
-0.64185	0.27871
-0.02981	-0.56305
1.42379	0.20219
0.93925	-1.22625
0.88825	-0.33348
0.48022	1.22250
-0.02981	-0.07840
-0.51434	-1.09871
-0.46334	-0.97117
-0.33583	0.89089
-0.08081	1.70714
-0.13181	0.89089
0.19971	1.09496
0.27621	1.04394
0.14870	0.58480
0.22521	0.43176
0.40372	-1.22625
0.37822	-0.81812
0.78624	-0.15492
0.37822	0.02363
1.29628	-0.33348
1.44929	0.81437
-4.69661	0.20219
-4.62010	0.02363
1.01576	-1.20074
2.67337	-0.46102
2.62236	1.29902
2.72437	1.29902
1.88281	1.65613
0.32721	0.25320
-1.25389	-1.02219
-1.61091	-0.76711
0.45472	-0.30797
0.99026	-0.23145
-0.36133	0.45726
-0.56534	1.06945
0.19971	0.63582
-0.71835	0.86539
-1.84042	-0.00188
-2.17195	-0.46102
-0.13181	-0.35899
1.21977	-0.48652
2.85188	0.07465
1.47479	-0.28246
0.86275	0.10015
0.19971	1.17148
-0.38683	0.63582
-0.31033	0.25320
-0.02981	1.17148
-0.08081	0.43176
0.07220	-1.48133
-0.02981	-1.73640
-0.10631	-0.25695
-0.10631	0.73785
0.09770	0.94191
0.04670	-0.86914
0.09770	0.55929
0.02119	1.32453
0.40372	0.61031
0.53123	0.83988
0.50573	0.83988
0.37822	0.66132
0.02119	-0.71609
-0.66735	-1.94047
0.76074	-1.53234
-0.25932	0.63582
-0.82036	0.99292
-0.05531	1.45206
1.98482	0.40625
-1.15188	-0.05289
-0.87136	-1.17523
-0.74385	-0.35899
1.95932	0.73785
1.19427	0.73785
1.06676	0.07465
0.19971	-1.12422
0.04670	0.48277
0.53123	0.63582
-0.18282	0.35523
-0.69285	0.07465
-0.92237	0.04914
-0.53984	0.30422
-0.59084	0.02363
0.91375	0.83988
0.02119	-0.30797
0.25071	-0.61406
0.78624	-0.30797
0.04670	1.14597
-1.50890	-0.20594
-1.91693	-0.74160
1.24527	-0.58856
1.39828	0.99292
1.67880	0.76336
1.04126	1.01843
2.06133	1.04394
1.04126	0.04914
-0.99887	0.20219
-2.04444	-0.20594
-1.48340	-0.46102
0.83725	-1.25176
0.50573	-0.38449
-0.02981	0.94191
-0.46334	1.29902
0.70974	0.89089
1.09226	-0.30797
0.70974	-0.61406
0.63323	-0.07840
-1.33039	0.40625
-0.46334	0.55929
0.37822	1.12046
-1.71292	-0.02739
0.91375	-0.15492
0.55673	0.38074
-0.31033	0.66132
-0.43783	-0.58856
2.11233	-1.73640
0.86275	-0.84363
0.25071	1.01843
0.14870	0.07465
0.50573	0.58480
0.32721	0.32972
-0.08081	0.53379
-0.94787	-0.15492
0.45472	0.15117
0.53123	0.73785
-0.36133	1.78367
-1.50890	0.81437
0.60773	-2.24656
1.42379	-1.53234
-0.99887	-0.79262
-0.31033	0.83988
0.50573	1.06945
0.25071	0.96742
-0.00431	0.78886
1.27078	0.35523
1.24527	0.22769
0.53123	0.07465
0.09770	-0.63957
0.55673	-0.35899
-0.64185	0.99292
-2.35046	0.48277
-0.41233	-1.12422
1.42379	-1.32828
1.19427	-1.07320
1.14327	1.17148
-0.02981	1.50308
-0.25932	0.55929
-0.66735	-0.81812
-0.20832	-1.30277
-0.18282	0.81437
0.63323	0.63582
0.55673	0.48277
0.02119	0.10015
0.58223	1.75816
1.62780	0.71234
1.29628	0.94191
-2.68198	0.45726
-1.84042	-0.46102
0.12320	-0.63957
-0.89686	-1.81293
0.68424	-0.41000
1.55129	0.25320
1.50029	0.30422
1.39828	0.30422
0.93925	1.06945
-0.20832	-0.00188
0.30171	0.10015
-0.28482	-0.74160
0.48022	-1.07320
-0.28482	0.50828
-1.73842	0.96742
-0.74385	1.14597
0.25071	-0.41000
0.65874	-0.02739
0.60773	0.17668
-1.43240	1.24800
1.34728	0.89089
0.45472	0.27871
2.72437	-0.99668
-0.02981	-0.23145
-5.10463	0.30422
-0.15732	0.50828
0.02119	-0.28246
0.91375	-0.79262
2.97938	-0.58856
2.13783	0.76336
1.57679	0.55929
-0.31033	0.55929
-0.74385	0.94191
-0.05531	0.76336
-0.23382	-0.69059
-1.20288	-1.45582
-0.13181	0.40625
-0.08081	0.91640
0.02119	0.22769
0.22521	0.15117
0.02119	-0.25695
-0.10631	0.12566
0.42922	0.35523
-0.10631	-0.05289
0.07220	0.73785
0.48022	0.07465
0.55673	0.17668
0.78624	-0.71609
1.29628	-0.00188
1.09226	0.02363
-0.92237	0.20219
-3.34502	0.15117
-0.08081	0.96742
0.81175	0.96742
-0.74385	-0.07840
-0.79486	-0.05289
2.36734	-0.84363
2.49485	-0.25695
0.86275	-0.58856
1.16877	0.58480
0.45472	0.86539
-0.23382	0.78886
-1.10088	0.50828
-0.76936	-0.28246
-0.38683	0.17668
0.02119	0.30422
0.48022	-0.02739
0.17421	-0.00188
-0.13181	0.43176
-0.89686	0.15117
-0.94787	-0.66508
-0.74385	-0.48652
0.83725	0.20219
1.11776	0.40625
0.40372	0.04914
1.06676	0.96742
2.62236	1.57960
-0.51434	-0.69059
-1.10088	-1.55785
-1.55991	-1.73640
-1.68742	0.04914
0.25071	0.38074
1.72980	1.57960
1.72980	1.19699
1.44929	1.19699
-0.51434	0.66132
-0.92237	-0.05289
0.42922	-0.00188
0.83725	-0.43551
-0.28482	-0.25695
-0.36133	-0.02739
-0.20832	-0.41000
-0.08081	-0.63957
0.53123	-0.20594
-1.73842	-0.58856
-0.36133	-0.58856
0.58223	0.86539
-2.09544	0.53379
0.27621	0.91640
2.44385	0.68683
0.99026	-0.15492
1.72980	0.15117
-0.23382	0.81437
-1.58541	-0.05289
0.83725	0.38074
0.88825	1.06945
0.99026	-0.00188
0.76074	-2.60367
-0.33583	-1.02219
-0.71835	0.53379
-0.74385	1.27351
-1.91693	-0.07840
-1.30489	0.55929
0.88825	0.38074
1.37278	0.07465
1.57679	0.15117
1.09226	0.38074
0.73524	0.91640
-0.59084	0.12566
-0.33583	0.10015
-1.22839	-0.05289
-0.08081	0.27871
0.96476	-0.05289
0.88825	-0.41000
-0.43783	0.76336
0.60773	-0.25695
0.83725	0.63582
0.50573	-0.51203
0.60773	-0.35899
0.22521	0.27871
0.09770	-0.66508
-0.00431	-0.28246
-0.84586	0.99292
-1.07538	0.99292
-1.76392	0.94191
0.55673	1.40105
1.04126	1.06945
1.44929	-1.02219
0.40372	-1.94047
0.42922	-0.43551
-1.02437	0.83988
1.93382	0.61031
-2.70748	0.68683
-0.13181	0.48277
0.88825	0.27871
1.50029	-0.30797
1.57679	-0.20594
1.14327	0.35523
0.93925	0.07465
-0.53984	0.07465
-0.82036	-1.07320
-1.35589	-0.02739
-0.79486	-0.38449
0.63323	0.17668
0.37822	-0.28246
0.02119	0.91640
-2.19745	1.04394
-1.50890	0.66132
1.72980	0.78886
1.70430	0.45726
1.44929	0.27871
0.99026	0.40625
0.53123	0.55929
0.09770	-0.35899
0.14870	-1.76191
0.25071	-0.30797
0.12320	2.06425
-1.45790	-0.43551
0.09770	-1.83844
-1.71292	0.38074
-2.19745	1.24800
0.37822	1.17148
1.21977	0.25320
1.75531	-0.63957
1.14327	0.17668
0.96476	-0.25695
0.81175	0.17668
1.85731	0.10015
-1.76392	0.61031
-0.28482	0.43176
-0.66735	-0.00188
-0.53984	-0.05289
0.27621	-0.56305
-0.41233	0.58480
1.39828	0.48277
0.58223	-0.20594
0.27621	0.27871
0.68424	0.55929
0.17421	0.55929
-1.15188	0.25320
0.40372	0.45726
-0.02981	0.45726
0.58223	-0.07840
1.70430	0.10015
1.24527	0.50828
-0.43783	-0.53754
-1.84042	-2.19554
-3.54903	-0.66508
-1.38139	0.66132
1.75531	1.65613
2.44385	1.04394
2.06133	0.10015
1.44929	-0.66508
1.62780	0.02363
-1.04987	1.06945
-0.18282	0.76336
-0.08081	1.40105
-0.20832	0.58480
-0.92237	-0.71609
-1.20288	-1.07320
0.63323	0.30422
0.78624	0.25320
0.86275	0.17668
-0.64185	0.45726
-0.66735	1.45206
0.22521	0.43176
0.93925	-1.63437
0.42922	-2.29757
0.53123	0.38074
0.96476	1.17148
-0.82036	1.29902
-0.31033	0.61031
0.04670	0.07465
0.55673	0.12566
1.50029	0.12566
0.99026	-0.38449
0.07220	-0.76711
-1.89143	0.78886
-0.51434	0.45726
1.01576	0.53379
0.93925	0.27871
-0.97337	-0.23145
0.91375	-0.00188
0.30171	0.07465
-1.73842	-0.10391
-3.19201	0.81437
1.37278	-0.41000
1.34728	-0.38449
1.14327	-0.48652
1.93382	0.73785
1.52579	0.91640
-0.74385	0.17668
-1.50890	0.35523
0.50573	0.07465
1.06676	0.20219
-0.15732	-0.41000
-0.05531	-0.56305
-0.33583	-0.23145
0.12320	0.48277
-0.43783	1.47757
0.96476	0.66132
0.88825	0.50828
-0.48884	1.27351
-0.64185	-0.18043
0.42922	-1.58336
0.65874	-3.19035
0.35272	0.12566
0.53123	1.86019
1.06676	1.70714
0.27621	0.71234
-0.79486	0.04914
0.19971	1.06945
-0.48884	0.17668
-1.27939	-0.38449
-0.20832	-1.55785
0.73524	-0.28246
1.01576	-0.25695
0.99026	1.01843
0.14870	1.01843
-1.10088	0.48277
1.09226	0.35523
0.78624	0.35523
0.07220	-0.74160
-1.30489	-0.58856
-0.66735	-0.71609
0.50573	0.66132
1.24527	0.53379
0.50573	0.55929
0.32721	0.83988
0.55673	0.30422
-0.05531	0.12566
0.12320	-0.05289
0.45472	-0.15492
0.09770	0.04914
-0.99887	0.04914
0.14870	0.22769
0.30171	0.53379
-0.13181	0.38074
0.81175	-0.30797
0.68424	-0.28246
0.12320	-0.35899
-0.15732	0.38074
-1.68742	1.09496
0.48022	0.17668
0.37822	-0.56305
0.25071	-0.00188
-0.02981	0.02363
0.83725	0.15117
1.47479	0.15117
-0.46334	0.66132
1.55129	1.09496
0.65874	0.63582
-0.38683	-0.33348
-2.01894	-0.84363
-2.93700	-1.35379
0.93925	-0.30797
1.44929	1.17148
0.70974	1.14597
1.52579	0.86539
0.99026	0.63582
0.83725	0.45726
-0.00431	0.43176
-0.18282	-0.38449
-1.22839	-1.17523
-1.58541	-1.58336
0.07220	-0.15492
0.70974	0.61031
-0.79486	0.89089
0.14870	0.25320
1.34728	0.63582
1.70430	0.71234
0.32721	0.25320
-0.61635	0.07465
0.42922	-0.48652
-0.61635	-0.48652
0.30171	0.04914
1.42379	0.91640
-1.43240	0.76336
-0.05531	0.15117
0.32721	0.10015
-0.18282	-0.18043
0.63323	0.02363
0.45472	-0.10391
0.22521	0.50828
0.14870	-0.38449
0.07220	0.50828
0.37822	0.22769
-0.53984	-0.18043
-0.59084	-0.56305
0.19971	0.61031
0.35272	0.55929
1.44929	1.37554
-0.28482	-0.05289
-1.10088	0.22769
0.53123	0.45726
1.83181	-0.61406
0.40372	-2.11902
-1.78942	-0.48652
0.42922	1.14597
0.48022	0.94191
-1.17738	0.61031
0.50573	1.17148
0.53123	0.71234
1.16877	-0.46102
1.39828	-0.35899
0.14870	0.17668
-1.40690	0.35523
0.50573	0.40625
-0.41233	-0.25695
0.09770	-0.10391
1.11776	-0.46102
0.27621	0.55929
-0.13181	-0.71609
-0.43783	-0.61406
-0.92237	0.71234
0.22521	1.01843
0.53123	0.55929
0.65874	0.48277
0.40372	0.35523
-0.02981	0.15117
-0.08081	0.35523
-0.00431	-0.33348
0.19971	-0.56305
-0.20832	-0.28246
1.04126	0.63582
0.63323	0.17668
0.48022	-0.18043
-2.42696	0.27871
-1.58541	0.30422
1.52579	0.38074
0.96476	0.66132
1.24527	0.43176
1.37278	0.55929
0.53123	-0.10391
-0.28482	-0.66508
-0.41233	-1.71090
-0.23382	0.07465
1.21977	0.89089
-1.71292	0.96742
-1.48340	0.83988
0.63323	0.20219
-0.38683	0.63582
1.16877	-0.61406
0.73524	-0.58856
-0.51434	-0.74160
0.14870	1.37554
1.11776	0.68683
1.04126	-0.51203
-0.02981	-0.15492
0.70974	0.66132
-0.61635	0.35523
0.83725	-0.41000
-1.63641	0.55929
-0.10631	0.81437
0.02119	0.32972
-0.36133	-0.18043
-0.05531	-0.63957
