0.25071	0.17668
0.12320	0.15117
-0.00431	0.15117
0.09770	0.22769
0.12320	0.17668
0.19971	-0.00188
0.17421	0.10015
0.09770	0.15117
0.19971	0.10015
0.25071	0.22769
0.14870	0.22769
0.14870	0.15117
0.12320	0.15117
0.17421	0.07465
0.09770	0.12566
0.09770	0.10015
0.12320	0.20219
0.25071	0.12566
0.19971	0.12566
0.12320	0.10015
0.19971	0.15117
0.19971	0.25320
0.09770	0.17668
0.07220	0.12566
0.09770	0.07465
0.09770	0.25320
0.12320	0.17668
0.14870	-0.00188
0.17421	0.12566
0.25071	0.15117
0.17421	0.15117
0.07220	0.12566
0.14870	0.15117
0.17421	0.25320
0.04670	0.15117
-0.02981	0.07465
0.22521	0.15117
0.25071	0.12566
0.17421	0.12566
0.12320	0.20219
0.12320	0.15117
0.12320	0.30422
0.14870	0.12566
0.09770	0.07465
0.09770	0.07465
0.12320	0.15117
0.17421	0.12566
0.09770	0.10015
0.17421	0.17668
0.19971	0.04914
0.09770	0.15117
0.12320	0.27871
0.19971	0.22769
0.12320	0.10015
0.02119	0.17668
0.12320	0.30422
0.17421	0.07465
0.12320	-0.00188
0.17421	0.12566
0.25071	0.17668
0.17421	0.07465
0.07220	0.20219
0.09770	0.25320
0.22521	0.17668
0.07220	0.04914
0.02119	0.10015
0.12320	0.15117
0.27621	0.17668
0.22521	0.10015
0.17421	0.12566
0.17421	0.30422
0.17421	0.12566
0.09770	0.30422
0.04670	0.20219
0.07220	0.22769
0.14870	0.02363
0.12320	-0.02739
0.22521	0.04914
0.17421	0.07465
0.14870	0.20219
0.22521	0.27871
0.12320	0.15117
0.12320	0.20219
0.09770	0.30422
0.09770	0.12566
0.09770	0.20219
0.14870	0.07465
0.22521	0.10015
0.12320	0.07465
0.17421	0.15117
0.22521	0.20219
0.02119	0.15117
0.12320	0.22769
0.14870	0.17668
0.02119	0.07465
0.09770	0.10015
0.22521	0.15117
0.14870	0.12566
0.14870	0.10015
0.27621	0.30422
0.17421	0.38074
0.07220	0.02363
0.09770	0.07465
0.17421	-0.18043
-0.00431	0.15117
0.17421	0.32972
0.09770	0.22769
0.09770	0.20219
0.22521	0.40625
0.14870	0.12566
0.19971	0.07465
0.12320	-0.12942
0.12320	0.10015
0.12320	0.15117
0.07220	0.35523
0.12320	0.02363
0.17421	0.25320
0.09770	0.25320
0.22521	0.04914
0.22521	0.10015
0.17421	0.02363
0.09770	0.40625
0.12320	0.20219
0.07220	0.15117
0.12320	-0.00188
-0.00431	0.22769
0.09770	0.04914
0.17421	0.10015
0.17421	-0.00188
0.32721	0.22769
0.17421	0.10015
0.14870	0.15117
0.12320	0.30422
0.17421	0.15117
0.17421	0.12566
-0.08081	0.20219
0.04670	0.07465
0.09770	0.15117
0.02119	0.10015
0.30171	0.15117
0.32721	0.17668
0.22521	0.17668
0.22521	0.04914
0.12320	0.30422
0.25071	0.04914
0.12320	0.07465
0.12320	0.02363
0.02119	0.20219
-0.05531	0.20219
0.19971	0.15117
0.25071	0.27871
0.09770	0.22769
0.12320	0.07465
0.22521	-0.02739
0.02119	0.27871
0.07220	0.10015
0.17421	0.15117
0.12320	-0.30797
0.25071	-0.07840
0.19971	0.25320
0.17421	0.63582
0.19971	0.38074
0.04670	0.22769
0.22521	0.30422
0.04670	-0.02739
0.12320	0.22769
0.09770	0.15117
0.17421	-0.53754
0.25071	-0.05289
0.17421	-0.00188
0.09770	0.25320
0.14870	0.20219
0.19971	0.61031
0.02119	0.45726
0.09770	0.43176
0.19971	0.30422
0.14870	0.12566
0.12320	-0.15492
0.17421	-0.02739
0.30171	-0.07840
0.19971	0.04914
0.09770	-0.00188
-0.02981	0.22769
0.25071	0.30422
0.14870	0.12566
0.02119	-0.10391
0.04670	0.10015
0.09770	0.12566
0.25071	0.20219
0.17421	0.27871
0.07220	0.20219
0.22521	0.25320
0.19971	0.20219
0.17421	0.10015
0.17421	0.12566
0.04670	0.12566
0.19971	0.07465
0.27621	0.04914
0.09770	0.15117
0.19971	0.02363
0.12320	0.32972
0.09770	0.12566
0.09770	0.22769
-0.00431	0.22769
0.12320	0.15117
0.07220	-0.02739
0.17421	0.17668
0.27621	0.12566
0.04670	0.22769
0.25071	0.27871
0.30171	0.20219
0.17421	-0.33348
0.19971	-0.07840
0.09770	0.30422
0.04670	0.20219
0.07220	0.25320
0.17421	0.27871
0.09770	0.22769
0.22521	0.35523
0.19971	0.30422
0.17421	0.17668
0.19971	0.04914
0.12320	-0.02739
0.04670	-0.30797
0.17421	-0.10391
0.09770	0.22769
0.14870	0.20219
0.12320	0.32972
-0.05531	0.04914
0.35272	0.17668
0.35272	0.35523
0.07220	0.27871
-0.00431	0.27871
0.19971	0.12566
0.12320	0.07465
-0.02981	0.22769
0.07220	0.07465
-0.13181	-0.12942
0.30171	-0.35899
0.42922	0.40625
0.68424	0.17668
0.02119	0.22769
0.02119	0.53379
-0.28482	0.45726
-0.10631	-0.12942
0.50573	-0.48652
0.63323	0.12566
0.48022	0.27871
0.30171	-0.02739
-0.18282	0.91640
0.04670	0.53379
0.02119	-0.25695
-0.20832	-0.30797
-0.15732	0.35523
-0.00431	-0.58856
0.02119	0.81437
0.32721	0.43176
0.37822	-0.05289
0.27621	-0.38449
0.30171	0.58480
0.37822	0.22769
0.07220	-0.46102
-0.00431	0.07465
-0.33583	1.09496
-0.05531	0.96742
0.73524	1.27351
-0.08081	0.04914
0.14870	-1.02219
0.09770	-0.74160
0.04670	-0.56305
0.35272	0.15117
-0.02981	0.45726
0.07220	0.27871
0.32721	0.38074
0.40372	0.43176
-0.10631	0.20219
0.17421	0.30422
-0.05531	-0.28246
0.32721	-0.58856
0.17421	0.22769
0.30171	0.22769
0.35272	0.30422
-0.00431	0.25320
-0.28482	0.25320
-0.31033	-0.10391
-0.31033	0.40625
0.37822	0.25320
0.35272	0.66132
0.22521	0.35523
0.58223	-0.81812
0.45472	-0.63957
0.50573	0.76336
0.30171	-0.00188
0.37822	0.27871
0.17421	-0.97117
-0.18282	-0.00188
-0.48884	1.83468
-0.28482	1.40105
-0.10631	-0.30797
0.12320	-0.18043
0.25071	0.81437
-0.05531	-0.46102
0.19971	-0.56305
0.70974	0.35523
0.45472	0.66132
0.40372	-0.71609
0.30171	0.27871
0.19971	-0.48652
0.09770	-0.15492
0.32721	0.50828
0.04670	0.07465
-0.13181	0.12566
-0.08081	0.78886
0.04670	1.17148
-0.08081	-0.12942
-0.00431	-0.58856
0.53123	-0.71609
0.14870	0.50828
-0.25932	-0.43551
0.19971	0.35523
0.40372	1.63062
0.58223	0.50828
0.35272	0.66132
0.04670	-1.07320
0.22521	0.17668
-0.23382	0.12566
0.19971	0.30422
0.04670	0.43176
0.12320	0.20219
0.12320	0.02363
0.68424	0.07465
0.42922	-0.25695
0.45472	0.22769
-0.64185	0.10015
-0.00431	-0.10391
-0.02981	-0.00188
0.07220	-0.15492
0.22521	0.58480
0.35272	0.66132
0.27621	0.27871
0.19971	0.61031
0.19971	0.78886
0.27621	-0.30797
-0.18282	-1.32828
-0.36133	-0.56305
0.25071	1.42656
0.17421	0.02363
0.07220	-0.30797
0.45472	-0.18043
0.42922	0.55929
0.32721	1.12046
-0.18282	0.27871
-0.33583	0.04914
-0.33583	-0.28246
0.60773	-0.41000
0.32721	0.53379
0.02119	-0.48652
0.50573	-0.63957
-0.33583	0.12566
0.42922	1.40105
0.48022	-0.41000
0.12320	-0.58856
0.14870	1.27351
0.02119	0.45726
0.25071	0.73785
0.27621	-0.43551
0.02119	0.02363
-0.48884	0.17668
-0.28482	0.22769
0.32721	1.73265
0.30171	-0.84363
-0.08081	-0.02739
-0.28482	-0.56305
0.53123	0.10015
0.93925	1.09496
-0.02981	0.25320
-0.61635	-0.86914
-0.18282	-1.68539
0.53123	0.58480
0.60773	0.86539
0.53123	0.04914
0.53123	0.10015
0.17421	0.10015
-0.23382	0.63582
-0.23382	-0.63957
0.17421	0.89089
-0.00431	0.61031
-0.18282	0.48277
0.25071	-0.48652
0.53123	0.73785
0.63323	-0.28246
-0.36133	-0.25695
0.48022	0.40625
0.02119	0.50828
-0.53984	0.30422
-0.23382	0.50828
-0.41233	-0.79262
0.53123	-0.35899
1.11776	-0.46102
0.32721	-0.71609
0.32721	0.17668
0.63323	1.24800
0.55673	1.63062
-0.43783	0.35523
-0.38683	0.25320
-0.41233	-0.33348
0.30171	0.10015
0.55673	0.25320
0.78624	1.47757
-0.18282	-1.25176
-1.10088	-1.30277
-0.66735	-0.23145
-0.13181	-0.05289
0.42922	0.58480
0.86275	0.45726
1.04126	2.49788
0.14870	1.01843
0.65874	0.76336
0.22521	0.12566
0.07220	-0.05289
0.25071	-1.27726
-0.02981	0.45726
-0.74385	0.17668
-0.51434	0.43176
0.19971	-0.53754
-0.15732	-1.40480
-0.15732	-0.92016
0.68424	0.35523
0.53123	1.29902
0.30171	0.63582
1.32178	-0.23145
-0.59084	0.96742
-0.94787	1.86019
0.70974	2.93151
0.19971	-1.55785
0.19971	-3.16484
0.22521	-3.93007
-0.13181	1.32453
0.48022	2.93151
0.04670	1.60511
-0.51434	1.17148
-0.59084	0.10015
-1.04987	-1.07320
0.60773	-0.23145
1.52579	-0.35899
0.99026	0.30422
0.27621	-1.53234
1.65330	1.73265
0.78624	-0.58856
-2.80949	0.12566
-1.27939	1.35003
0.30171	1.35003
-0.28482	-1.35379
-0.18282	-2.17003
2.13783	-0.15492
0.50573	3.69675
-0.10631	1.75816
1.16877	-0.30797
1.04126	0.04914
-2.73298	0.40625
-2.52897	-0.46102
1.90832	-2.22105
1.75531	-1.86394
1.09226	2.70194
0.45472	1.32453
0.68424	-1.27726
-0.92237	-1.63437
-1.86593	0.78886
0.63323	1.50308
0.14870	2.31933
0.35272	-0.12942
0.58223	0.76336
0.22521	-2.04250
-0.13181	0.12566
0.65874	-0.97117
0.42922	-0.18043
-0.10631	-0.20594
-0.66735	1.75816
-2.65648	3.72225
-1.91693	0.15117
0.02119	-1.07320
2.52035	-2.62918
2.59686	0.45726
1.93382	2.72745
0.09770	-0.46102
-1.50890	-1.30277
0.30171	-0.35899
1.34728	0.30422
0.17421	1.01843
0.60773	3.79878
0.32721	-0.25695
-0.66735	-2.50164
-0.43783	0.76336
0.78624	-0.12942
-2.04444	0.53379
-4.72211	-2.27207
0.22521	3.26312
0.00000	4.74256
0.00000	-1.17523
0.00000	-7.09303
1.62780	-2.50164
2.06133	1.68163
2.52035	3.03355
2.16333	4.00284
-1.48340	0.68683
0.83725	-0.97117
0.93925	-0.07840
0.58223	1.98773
0.93925	0.25320
-2.06994	-3.87905
-2.22295	-5.91967
-1.71292	-0.76711
-0.28482	1.88570
3.66793	3.28862
2.21434	6.04346
0.25071	0.61031
-2.42696	-3.52195
0.30171	-0.56305
0.70974	-0.63957
-1.27939	-0.79262
-2.09544	-0.58856
0.02119	1.83468
1.65330	2.65093
4.15246	1.22250
3.03039	-0.51203
-1.43240	-1.40480
0.35272	-2.37410
-2.63097	0.55929
-0.79486	-0.51203
0.93925	-0.23145
0.63323	-0.74160
1.95932	2.19179
-0.41233	3.23761
-0.71835	0.10015
-0.13181	-2.90976
0.53123	-2.55265
-1.04987	1.98773
-6.53273	1.68163
-2.12094	0.89089
1.65330	0.04914
2.95388	0.66132
5.68256	0.76336
2.06133	1.86019
-0.18282	-2.65468
-1.73842	-3.01179
1.29628	-0.56305
0.12320	2.01323
-1.22839	2.77847
-1.04987	-1.20074
1.57679	-1.63437
0.50573	1.19699
-0.13181	1.47757
-1.33039	-0.89465
-1.73842	2.11527
2.26534	-0.94566
1.93382	-1.04770
-3.54903	-3.29238
-1.96793	-0.23145
-1.22839	2.85499
2.06133	3.21210
2.74987	2.01323
1.09226	0.48277
2.11233	0.02363
0.45472	-2.45062
-0.56534	-3.47093
0.30171	-2.52714
-0.18282	0.81437
-0.71835	5.32924
0.93925	0.61031
1.55129	-1.37929
-4.11007	-1.91496
-1.76392	1.91120
-0.18282	2.37034
1.90832	0.53379
1.55129	-1.07320
1.24527	0.07465
1.16877	0.71234
1.06676	-0.12942
0.50573	-0.10391
-0.13181	-0.69059
0.09770	-0.41000
-0.08081	-0.86914
-1.45790	-2.09351
-0.36133	2.70194
-0.87136	1.12046
0.48022	-0.25695
-0.76936	-2.17003
-0.99887	2.19179
2.36734	1.22250
0.91375	-0.94566
0.17421	-0.20594
0.19971	1.14597
0.25071	2.08976
0.19971	0.30422
1.93382	-2.60367
0.19971	-1.83844
-0.97337	1.27351
-0.53984	1.27351
0.45472	0.58480
-0.94787	0.61031
0.73524	0.63582
1.85731	2.47238
1.72980	0.22769
-0.51434	-1.48133
0.25071	-4.15964
-2.75848	-3.08831
-1.50890	1.32453
-0.20832	1.29902
0.30171	1.17148
-1.63641	1.68163
2.46935	1.37554
2.59686	0.76336
2.23984	1.40105
0.63323	3.08456
0.19971	-0.94566
-0.64185	-4.36370
-2.29945	-2.22105
-1.04987	-0.07840
-1.61091	1.01843
1.62780	0.83988
1.09226	2.52339
-1.22839	0.73785
-0.00431	0.73785
1.70430	0.32972
1.42379	-0.43551
0.12320	0.53379
1.34728	1.93671
-0.28482	3.28862
-1.12638	-4.00659
0.25071	-6.40432
0.27621	-2.14453
-0.00431	1.98773
-0.74385	2.49788
-1.02437	2.80397
0.14870	1.57960
1.52579	0.22769
1.65330	1.09496
-2.83499	0.76336
0.96476	-1.65988
-0.94787	1.32453
0.99026	-1.22625
0.91375	-1.60887
2.11233	-4.97589
-1.86593	1.96222
1.85731	2.67644
-0.59084	1.65613
-0.84586	1.47757
0.55673	0.55929
-0.08081	2.19179
1.04126	-0.86914
0.48022	-2.73121
0.81175	0.15117
-1.94243	-0.74160
-2.47797	0.71234
-1.04987	-1.81293
1.16877	1.17148
1.37278	1.32453
2.95388	1.88570
-1.61091	0.63582
-0.20832	0.55929
0.58223	0.43176
1.80631	-0.07840
1.01576	-1.22625
-0.64185	-0.94566
0.17421	0.55929
0.63323	0.48277
0.58223	-0.99668
-0.79486	1.86019
-2.01894	-0.02739
-0.41233	-0.66508
0.93925	-0.00188
0.68424	-0.10391
-0.48884	0.86539
0.12320	0.45726
0.78624	-0.66508
-1.35589	0.48277
1.75531	1.27351
-2.29945	0.40625
1.65330	3.64573
2.13783	-1.58336
3.61693	-7.57768
-1.38139	-0.69059
-1.33039	2.42136
1.04126	2.59991
-0.46334	1.80917
-0.84586	1.83468
1.52579	-0.28246
1.21977	0.66132
0.83725	-1.99148
-5.07913	-1.07320
0.32721	-2.32308
1.09226	0.04914
0.07220	0.83988
0.37822	1.52859
0.22521	0.35523
-0.28482	-0.15492
-0.69285	-0.53754
0.99026	-0.00188
0.65874	1.04394
-0.64185	0.38074
-0.08081	0.22769
0.40372	-1.58336
0.96476	1.45206
0.68424	1.73265
-0.08081	-0.84363
0.12320	-0.84363
1.01576	0.35523
1.65330	1.83468
-3.72755	0.68683
-4.33958	-0.46102
2.95388	1.22250
2.03582	-1.96597
-0.79486	-1.48133
1.42379	-0.66508
1.37278	2.95702
1.80631	1.35003
1.32178	0.83988
-2.04444	-1.14973
-2.27395	0.02363
-0.28482	-0.30797
1.34728	0.89089
1.19427	-0.33348
1.42379	-0.12942
-2.19745	0.40625
0.14870	2.06425
0.60773	0.17668
-0.48884	-0.76711
-0.61635	-2.34859
-0.20832	-3.19035
-0.36133	-0.81812
1.55129	1.75816
1.85731	2.67644
0.76074	1.88570
-0.51434	3.79878
0.63323	1.17148
-3.14101	-3.57296
0.53123	-4.69530
0.86275	1.32453
0.96476	1.47757
0.02119	2.01323
-0.10631	1.04394
1.75531	0.53379
1.55129	0.25320
2.11233	1.93671
-2.93700	-2.27207
-1.10088	-5.48604
-2.42696	-0.81812
0.91375	0.53379
-1.10088	1.14597
0.53123	2.03874
1.42379	1.65613
1.52579	1.37554
1.62780	1.04394
2.72437	0.66132
-0.38683	-0.63957
-4.82411	-3.16484
-3.88056	-0.15492
2.29084	0.45726
1.21977	0.66132
2.16333	0.91640
1.16877	0.50828
1.24527	0.91640
0.70974	-0.00188
-2.09544	0.10015
-1.15188	-0.35899
-0.41233	-0.07840
0.91375	0.71234
-0.43783	-1.22625
0.86275	-0.61406
-2.19745	2.01323
0.32721	1.70714
1.14327	0.25320
1.01576	-0.92016
0.25071	1.06945
1.72980	0.63582
-2.40146	1.86019
-0.20832	-1.27726
0.55673	-1.32828
-0.46334	-1.88945
-1.66191	1.17148
2.03582	2.01323
3.33641	1.09496
0.50573	-0.76711
0.12320	-0.94566
-1.63641	0.53379
0.73524	1.55410
-1.73842	2.11527
-0.41233	-1.60887
1.85731	-2.62918
3.18340	-3.39441
-2.83499	1.65613
-1.86593	1.78367
0.27621	1.75816
1.24527	2.39585
0.68424	0.35523
0.78624	1.29902
1.24527	0.61031
-0.25932	-3.52195
-0.53984	-4.56776
-0.20832	0.27871
0.45472	1.98773
-0.10631	1.50308
-0.46334	-0.10391
0.32721	1.60511
-0.79486	1.37554
-0.08081	-1.20074
0.58223	-1.78742
1.19427	-0.12942
0.53123	0.83988
-1.38139	1.01843
-0.53984	0.27871
-1.94243	-0.10391
2.54586	0.30422
2.72437	0.71234
0.09770	0.73785
1.29628	0.48277
-2.01894	0.02363
0.93925	-0.58856
-0.76936	-2.93527
-1.61091	-1.55785
1.72980	2.77847
2.23984	0.27871
0.32721	-1.22625
0.17421	1.45206
-0.79486	1.40105
-4.49259	0.89089
-1.15188	1.06945
2.34184	-0.12942
3.56592	2.95702
1.60230	-2.04250
-2.50347	-3.08831
-1.30489	-1.20074
1.34728	0.99292
1.14327	3.64573
1.01576	0.86539
1.04126	-0.48652
0.35272	-1.58336
-2.27395	0.35523
0.63323	0.78886
-0.08081	0.02363
-0.25932	3.18659
0.02119	0.58480
0.53123	0.02363
-0.18282	-2.39961
-0.82036	-1.83844
-0.48884	-0.28246
2.36734	0.81437
2.36734	1.17148
-2.88599	0.40625
-1.43240	0.71234
1.47479	0.45726
1.65330	2.26831
-2.29945	-0.89465
1.52579	-1.07320
2.54586	0.20219
-1.63641	0.61031
0.09770	0.63582
0.96476	0.43176
1.47479	-0.30797
0.53123	-0.81812
-3.85505	-1.30277
-0.84586	-0.25695
0.86275	1.12046
0.86275	0.35523
0.68424	0.78886
0.58223	0.96742
0.78624	-0.76711
0.81175	-0.63957
0.12320	-0.69059
-0.28482	0.04914
-1.38139	0.50828
-0.33583	1.75816
0.42922	1.32453
0.73524	0.04914
1.16877	-0.28246
-0.51434	-1.04770
-0.33583	1.27351
0.58223	-0.92016
0.42922	-0.46102
0.42922	-1.96597
0.02119	0.91640
0.14870	1.37554
-0.59084	1.96222
-1.04987	1.29902
2.11233	1.60511
0.65874	-0.86914
0.19971	-0.38449
-1.63641	-0.43551
-2.01894	-1.35379
-1.68742	-1.86394
1.98482	-0.02739
3.36191	1.22250
2.23984	1.52859
1.67880	2.31933
-0.84586	-1.81293
1.04126	-1.73640
-1.94243	-0.76711
-1.43240	0.76336
1.14327	0.96742
-0.94787	0.91640
-1.61091	2.01323
-1.66191	-0.38449
0.53123	-0.10391
1.01576	0.86539
1.83181	-0.48652
0.30171	-1.40480
0.50573	1.19699
-0.13181	1.17148
-0.59084	-1.55785
0.73524	-2.90976
0.42922	1.04394
0.96476	0.83988
0.53123	2.29382
-0.94787	-0.43551
-0.94787	-1.60887
-1.17738	-0.71609
1.55129	1.73265
0.88825	0.83988
1.09226	-0.35899
-0.28482	0.55929
-2.17195	1.32453
1.75531	0.96742
-1.07538	-0.38449
-0.02981	0.78886
-1.71292	2.26831
1.55129	-2.50164
0.93925	-4.84835
2.03582	-3.24136
0.53123	0.04914
-0.64185	1.96222
-0.94787	2.67644
1.16877	2.26831
0.12320	0.99292
1.60230	0.40625
-0.10631	1.24800
-0.71835	1.60511
0.04670	0.15117
-1.10088	-2.42511
-0.61635	-3.36890
-2.17195	-0.94566
0.02119	-0.46102
2.06133	2.14077
1.27078	1.63062
1.98482	1.14597
1.57679	3.23761
0.37822	-0.81812
-0.99887	-0.79262
-2.32496	-2.45062
0.19971	0.15117
1.47479	0.48277
1.34728	1.83468
0.12320	0.99292
-1.55991	1.47757
-0.15732	-1.14973
0.45472	0.45726
0.42922	-0.20594
0.22521	0.30422
0.78624	-0.51203
1.65330	0.02363
0.07220	0.96742
-3.95706	-2.01699
-0.69285	-0.00188
1.55129	0.45726
2.26534	2.88050
1.34728	-1.02219
-1.12638	0.07465
0.07220	-1.17523
-2.80949	-0.46102
1.88281	0.58480
0.42922	1.45206
0.93925	0.91640
1.19427	2.24281
0.88825	-0.30797
0.37822	-0.81812
-1.68742	-3.52195
-0.69285	-1.43031
0.65874	1.12046
-0.33583	0.81437
-0.10631	0.68683
-0.94787	1.06945
1.27078	0.10015
0.32721	1.37554
0.58223	-0.56305
0.70974	-0.28246
0.35272	-1.43031
0.25071	-0.97117
-0.31033	0.71234
-1.66191	1.17148
-0.92237	1.96222
1.27078	0.10015
0.45472	-0.71609
1.06676	-0.38449
0.48022	-0.07840
0.55673	-0.30797
1.24527	0.73785
1.11776	0.27871
-2.29945	0.38074
-2.45246	0.61031
-0.18282	0.04914
1.90832	0.78886
0.25071	-0.92016
1.42379	-1.63437
-0.38683	-0.86914
-2.96250	0.99292
1.32178	0.94191
1.70430	0.61031
3.03039	2.42136
-0.28482	-1.17523
-2.37596	-3.01179
0.32721	0.40625
0.93925	1.29902
0.88825	0.55929
-1.43240	1.68163
0.99026	0.86539
-0.20832	1.22250
0.37822	-0.76711
0.07220	-3.82804
0.14870	-0.86914
-0.69285	0.10015
0.30171	1.17148
-0.25932	0.89089
0.27621	0.66132
0.53123	1.68163
-0.33583	1.35003
-0.94787	0.99292
1.88281	-1.30277
0.14870	-2.45062
-0.05531	1.22250
-0.13181	-0.20594
-0.48884	-1.53234
-0.48884	0.58480
1.44929	0.86539
-0.92237	1.06945
2.44385	0.35523
2.16333	0.86539
1.90832	0.61031
-2.91149	-0.71609
0.37822	-0.48652
-0.23382	-0.71609
-1.10088	1.09496
-2.19745	0.91640
2.31634	1.14597
-0.13181	-0.46102
-0.53984	-1.65988
-0.46334	-2.60367
0.40372	0.68683
0.22521	0.76336
0.93925	2.08976
-0.10631	0.73785
1.57679	0.25320
1.32178	1.45206
-2.06994	0.86539
0.91375	-0.23145
1.37278	-1.68539
-2.52897	-1.25176
-0.76936	-0.35899
0.55673	1.14597
-0.15732	-0.89465
-1.89143	-1.30277
0.14870	-0.97117
1.27078	2.77847
2.01032	3.33964
-0.18282	-0.00188
2.69887	-2.50164
-2.29945	-0.92016
-0.53984	2.80397
1.42379	1.24800
0.99026	-0.69059
0.99026	-2.09351
1.57679	-0.15492
-0.74385	0.78886
-1.38139	0.96742
-1.73842	-0.92016
-4.00806	0.40625
0.45472	0.45726
0.30171	0.20219
1.44929	-0.41000
3.15790	-0.20594
2.74987	0.58480
0.19971	0.68683
0.48022	0.76336
-0.25932	1.37554
-4.84962	0.25320
1.65330	-2.96078
0.30171	-2.47613
1.78081	0.25320
-0.64185	1.52859
-4.36509	-0.18043
1.80631	0.04914
1.65330	1.32453
-0.38683	1.42656
-1.76392	1.68163
0.22521	1.04394
1.80631	-0.53754
0.30171	-1.25176
1.67880	-0.94566
1.14327	2.21730
0.78624	-1.78742
-0.64185	-2.68019
-1.84042	-0.23145
0.40372	1.73265
0.07220	1.52859
-0.69285	0.66132
0.48022	0.96742
1.14327	2.57441
0.17421	-1.37929
-1.25389	-2.14453
-2.27395	-1.09871
-0.38683	0.27871
1.27078	1.52859
1.93382	0.78886
0.53123	1.98773
2.64786	-0.97117
3.74443	-1.17523
-2.68198	-1.40480
-3.44703	1.96222
-0.10631	0.73785
0.65874	-0.58856
0.22521	1.06945
1.04126	0.50828
0.48022	1.14597
0.88825	-1.37929
1.57679	-1.99148
0.88825	-0.84363
-3.90606	1.06945
-1.12638	0.40625
-2.22295	1.78367
2.08683	0.04914
0.93925	0.76336
0.14870	0.02363
-0.89686	0.94191
1.21977	0.50828
1.88281	-1.30277
-0.08081	0.45726
-0.48884	-1.81293
-0.10631	-1.17523
0.40372	-0.38449
1.75531	0.50828
0.55673	1.50308
0.73524	1.42656
0.14870	0.58480
-0.02981	1.04394
-0.00431	0.10015
-3.93156	-1.71090
-0.56534	-3.11382
-0.97337	-0.61406
0.99026	1.45206
1.44929	1.78367
0.63323	1.06945
-0.38683	0.30422
-0.13181	1.91120
1.42379	-0.38449
0.04670	0.50828
1.14327	-2.32308
0.07220	0.53379
0.73524	-0.66508
0.81175	0.94191
0.45472	-0.46102
0.04670	-0.97117
0.83725	-0.79262
-0.05531	-0.51203
-1.33039	-0.18043
-2.65648	3.49268
0.14870	0.58480
-1.30489	0.32972
1.27078	-0.43551
1.98482	-0.05289
1.16877	0.94191
1.37278	0.78886
1.67880	-0.71609
0.83725	-0.51203
0.78624	-0.92016
-2.93700	-0.56305
-2.35046	-0.02739
-0.15732	-0.05289
1.78081	0.78886
0.27621	0.30422
0.70974	0.76336
-0.31033	1.19699
0.96476	-0.33348
1.14327	-0.71609
-0.56534	0.27871
-2.63097	0.71234
-1.76392	-0.58856
1.42379	-0.97117
1.95932	0.07465
1.72980	1.32453
0.48022	0.78886
1.01576	-0.07840
-1.66191	-0.20594
0.40372	-0.41000
-1.22839	-0.05289
0.96476	2.16628
0.42922	0.20219
-0.18282	-3.87905
0.60773	0.86539
0.45472	0.78886
-1.43240	0.53379
0.35272	1.63062
2.13783	2.54890
-1.71292	-1.76191
0.68424	-2.42511
-2.83499	-2.04250
0.88825	0.30422
0.35272	1.06945
1.47479	3.28862
2.87738	1.17148
-1.86593	0.25320
-0.02981	-2.09351
1.67880	-0.10391
1.14327	-1.04770
-0.41233	0.83988
-1.96793	2.03874
1.42379	-1.25176
0.27621	-4.97589
0.40372	-0.05289
-2.01894	2.93151
-1.99343	1.93671
0.76074	2.39585
-0.02981	-0.51203
2.13783	-0.76711
0.12320	0.17668
1.52579	0.63582
1.37278	0.86539
0.60773	0.15117
-0.23382	-0.53754
-1.20288	-0.10391
-2.47797	0.32972
0.09770	-1.91496
1.75531	-0.23145
-0.48884	-0.97117
-0.15732	-0.35899
0.55673	0.86539
0.93925	2.08976
1.16877	1.37554
-1.15188	0.73785
0.55673	0.22769
0.22521	0.78886
1.11776	0.61031
-0.71835	-1.04770
-1.76392	-1.14973
-0.99887	-2.42511
2.52035	-0.23145
-0.51434	1.98773
-1.84042	0.12566
0.32721	-0.02739
0.17421	0.86539
1.98482	0.20219
3.13239	-0.58856
-0.13181	0.27871
-0.05531	1.27351
-1.25389	0.89089
1.57679	-0.51203
-1.76392	-0.30797
2.36734	-0.63957
1.95932	-0.23145
-4.03357	-0.30797
-2.17195	1.06945
0.02119	0.76336
0.81175	0.02363
1.42379	0.45726
1.11776	0.45726
-0.84586	0.53379
-0.51434	-1.55785
1.62780	-1.37929
2.31634	-2.62918
-3.11551	0.32972
0.09770	1.73265
0.37822	0.53379
0.09770	1.40105
0.96476	1.27351
0.55673	2.01323
-0.23382	1.50308
1.44929	-2.65468
0.58223	-1.96597
-1.27939	-0.46102
-1.07538	0.86539
-1.40690	0.96742
0.73524	0.73785
0.53123	-0.25695
0.55673	0.17668
0.60773	0.68683
1.72980	0.63582
0.91375	-0.48652
1.70430	-1.30277
-0.28482	-0.84363
-1.45790	-0.33348
-1.91693	-0.41000
0.50573	1.22250
1.85731	2.52339
1.14327	0.96742
-0.89686	0.22769
-2.52897	0.76336
0.76074	-0.00188
1.44929	1.63062
-0.33583	-3.75152
-0.10631	-1.09871
-0.31033	-2.50164
-0.71835	2.29382
0.88825	1.73265
2.01032	2.47238
0.73524	0.71234
-1.45790	-0.30797
-0.94787	-0.89465
1.75531	0.81437
-0.13181	0.40625
1.14327	-0.12942
0.07220	-0.66508
-0.38683	0.25320
-0.51434	-0.48652
0.58223	-0.69059
0.48022	0.50828
-1.10088	-0.20594
1.27078	-0.38449
-1.17738	0.89089
-2.75848	1.68163
0.17421	1.40105
1.16877	-1.02219
2.72437	-0.71609
2.18883	0.27871
1.62780	0.76336
-2.98800	1.14597
-1.07538	1.50308
2.26534	0.38074
0.81175	-3.01179
1.32178	-1.94047
-3.85505	0.02363
-3.52353	0.66132
2.34184	1.17148
2.29084	2.01323
0.76074	0.35523
0.32721	-0.76711
0.40372	0.04914
0.60773	0.40625
0.19971	0.17668
-0.31033	-0.66508
-0.59084	-0.05289
-1.27939	0.91640
-1.02437	2.01323
1.44929	-0.33348
1.01576	-2.62918
-0.02981	-0.23145
1.44929	1.22250
-0.48884	0.12566
-0.41233	-0.00188
-1.61091	-0.10391
2.18883	2.08976
0.53123	0.66132
-3.16651	-0.38449
1.32178	0.12566
1.50029	0.04914
2.41835	-0.43551
2.01032	0.20219
0.60773	1.45206
-0.18282	-0.66508
-3.57454	-2.19554
-0.36133	-0.25695
-0.94787	-0.23145
-0.10631	1.78367
2.03582	-0.20594
2.08683	0.83988
-1.20288	1.68163
0.78624	0.43176
1.01576	-0.74160
-2.37596	-0.58856
0.76074	1.91120
1.21977	-0.25695
-0.15732	-1.58336
0.96476	0.02363
-0.99887	-1.35379
-0.53984	-0.48652
-0.18282	0.07465
-0.38683	2.34484
0.53123	1.29902
0.81175	1.37554
0.93925	0.10015
0.02119	0.15117
-0.92237	-0.00188
0.83725	0.25320
1.75531	-2.17003
0.81175	-0.58856
-1.27939	0.50828
-2.19745	2.16628
1.39828	0.43176
-0.13181	-0.97117
2.49485	-1.37929
-2.47797	0.35523
0.45472	1.19699
1.14327	1.52859
0.42922	1.63062
3.23440	-0.23145
-1.66191	-2.96078
-1.84042	-0.92016
0.88825	1.45206
-0.66735	0.91640
-0.31033	1.14597
0.17421	-0.79262
2.59686	-0.30797
0.27621	0.15117
-3.85505	0.91640
-1.33039	-0.15492
1.34728	0.22769
2.46935	-0.30797
0.25071	0.71234
1.75531	0.78886
-1.33039	-0.25695
0.40372	0.30422
0.70974	-0.41000
0.58223	0.50828
0.45472	-2.78222
-1.63641	-1.14973
0.42922	0.22769
0.12320	2.42136
0.27621	1.42656
0.32721	1.96222
0.93925	0.81437
-1.53441	-0.66508
-3.44703	-0.38449
0.48022	0.71234
0.93925	0.86539
1.65330	-0.43551
1.72980	-1.45582
2.80087	-0.66508
1.09226	0.66132
-2.50347	0.50828
-1.10088	0.68683
-1.48340	-1.07320
1.95932	-0.94566
2.57136	-1.83844
-3.16651	-0.10391
-0.64185	1.63062
1.32178	2.08976
1.55129	2.08976
0.14870	0.50828
0.83725	-0.30797
1.24527	-0.18043
-1.43240	0.12566
-1.58541	0.15117
-0.76936	-0.20594
-0.05531	0.25320
0.68424	0.48277
2.26534	-0.28246
0.86275	-3.90456
0.73524	-0.15492
-0.46334	0.53379
-0.20832	0.58480
-0.15732	0.86539
-0.28482	0.43176
-0.23382	2.31933
-1.07538	0.66132
0.53123	1.37554
0.70974	-1.53234
-0.31033	0.12566
0.22521	-0.18043
0.81175	0.63582
0.65874	0.12566
-0.18282	1.98773
-0.33583	-0.63957
-0.89686	-1.32828
1.93382	-2.34859
1.39828	0.94191
-0.41233	1.50308
-3.24301	-0.25695
1.04126	-0.38449
-1.91693	-1.35379
2.26534	1.40105
2.18883	1.22250
1.09226	0.94191
-0.74385	1.09496
0.32721	0.53379
1.37278	0.07465
0.30171	-0.69059
-2.98800	0.30422
-3.31952	-2.24656
1.24527	0.66132
-0.38683	-0.51203
0.02119	0.25320
3.03039	0.07465
1.75531	1.19699
-1.40690	0.99292
0.07220	0.71234
0.45472	-0.35899
0.45472	-0.35899
0.53123	0.45726
-0.36133	0.12566
-1.35589	0.86539
0.50573	0.61031
0.63323	-0.71609
0.76074	-2.78222
0.02119	-0.97117
0.60773	-0.25695
-2.19745	0.76336
0.22521	2.42136
1.16877	1.70714
-0.76936	2.06425
-0.64185	-0.07840
1.75531	-0.25695
0.99026	0.12566
0.25071	1.27351
0.88825	-0.58856
-0.31033	-1.53234
-0.41233	-1.09871
1.62780	1.37554
-1.86593	-2.04250
0.07220	-0.84363
-2.93700	-0.97117
1.21977	1.47757
1.27078	2.14077
1.01576	2.67644
1.70430	1.12046
0.60773	0.50828
1.70430	-0.25695
-2.22295	-0.74160
-2.63097	0.40625
0.45472	0.27871
0.93925	-1.83844
0.70974	-2.17003
-0.28482	0.81437
0.91375	0.20219
0.91375	-0.35899
-0.00431	0.63582
-3.88056	0.86539
0.04670	1.40105
1.88281	1.65613
0.78624	-1.68539
0.55673	-1.30277
-0.38683	2.54890
1.32178	0.10015
0.12320	-1.04770
-1.35589	-0.89465
0.65874	0.73785
1.90832	1.78367
-0.10631	0.07465
1.14327	-0.23145
-0.79486	-1.27726
-0.99887	0.25320
2.41835	1.78367
0.02119	1.68163
-0.79486	-0.92016
-1.40690	-1.83844
-1.58541	-0.63957
0.88825	1.78367
0.60773	0.38074
0.07220	-1.07320
-2.63097	-1.76191
1.39828	0.63582
2.80087	1.29902
1.67880	0.71234
0.78624	0.55929
-0.25932	0.61031
-1.33039	-0.20594
-1.07538	0.15117
0.32721	0.32972
0.76074	-0.00188
-0.10631	0.81437
-0.76936	-0.12942
0.68424	-0.56305
-0.36133	-1.40480
-0.18282	-0.97117
0.70974	-1.32828
0.68424	1.37554
1.29628	2.80397
1.27078	0.99292
1.95932	1.24800
-3.16651	0.38074
-3.62554	-1.45582
-3.44703	-1.27726
1.60230	0.45726
3.33641	1.55410
1.62780	1.24800
1.44929	-0.41000
0.83725	-1.63437
0.37822	0.20219
0.22521	0.45726
-0.51434	0.50828
0.22521	0.45726
0.42922	-0.20594
-1.84042	-0.89465
-0.53984	0.12566
2.08683	-0.43551
2.03582	0.99292
-4.69661	0.25320
-3.60004	0.07465
1.27078	-1.27726
-1.02437	0.76336
0.78624	0.55929
1.95932	1.98773
3.43841	0.63582
3.03039	-0.48652
0.86275	-0.81812
0.12320	0.35523
-0.13181	-0.07840
-1.02437	-0.20594
-0.41233	0.45726
-0.69285	1.19699
-0.56534	0.81437
-0.53984	0.86539
-0.28482	-0.79262
-0.15732	-0.00188
0.22521	-1.40480
1.27078	-0.30797
1.14327	-1.25176
-1.07538	0.78886
-1.53441	0.76336
-0.10631	1.68163
2.29084	0.73785
1.04126	1.70714
-0.48884	-1.37929
-3.24301	-0.18043
0.04670	-0.12942
0.55673	-0.53754
3.41291	-0.20594
2.44385	0.22769
1.72980	1.01843
-2.37596	0.83988
-0.25932	0.58480
1.27078	0.43176
1.85731	-1.20074
-1.76392	-0.10391
-2.57997	0.45726
-3.11551	-0.84363
0.40372	-0.71609
-0.00431	-0.02739
-0.99887	0.48277
1.01576	0.86539
2.36734	1.78367
1.85731	0.96742
0.63323	0.66132
0.70974	-0.81812
0.48022	-1.37929
-0.33583	0.15117
0.14870	-0.05289
0.50573	0.20219
-0.82036	-0.53754
-0.10631	1.55410
-1.04987	0.38074
-0.08081	-1.22625
0.27621	0.40625
-0.48884	-0.18043
1.09226	-0.23145
-0.38683	1.29902
-0.56534	1.55410
2.44385	1.12046
1.27078	-1.20074
-0.92237	-0.18043
-3.14101	0.25320
-1.40690	-0.89465
1.75531	-2.60367
2.59686	0.40625
1.39828	1.86019
1.70430	0.22769
2.39285	0.73785
2.46935	0.32972
-2.01894	1.40105
-2.83499	0.22769
-0.89686	0.15117
-1.10088	-0.71609
-1.81492	0.32972
0.25071	-0.56305
1.55129	0.17668
0.12320	-2.34859
1.04126	-0.58856
0.88825	-0.56305
0.58223	1.75816
0.70974	2.39585
-0.79486	1.32453
-0.48884	-0.48652
-0.28482	0.07465
-0.05531	-0.12942
0.96476	0.86539
0.93925	0.38074
-1.40690	0.22769
0.45472	0.55929
1.24527	-1.53234
-0.94787	-0.99668
-0.87136	-1.14973
-0.00431	0.55929
0.99026	0.22769
0.76074	1.45206
1.55129	0.76336
0.40372	0.02363
0.70974	1.29902
-4.44159	1.06945
-0.53984	-0.15492
0.42922	-0.92016
0.83725	-0.66508
0.81175	-0.97117
0.32721	-1.04770
0.88825	0.53379
1.27078	1.27351
1.60230	1.80917
-1.86593	1.09496
-1.81492	0.27871
-0.53984	-3.36890
0.09770	-1.94047
-0.92237	0.94191
-1.30489	1.57960
2.59686	1.01843
2.95388	0.53379
1.88281	1.37554
-2.78398	0.71234
0.22521	-0.25695
1.39828	-1.78742
-1.96793	0.48277
0.55673	0.22769
0.25071	-0.07840
0.22521	-0.94566
1.65330	0.35523
-0.36133	1.22250
-1.02437	0.25320
1.14327	1.50308
-0.15732	0.45726
-0.61635	-0.35899
0.50573	-1.78742
0.37822	0.22769
-1.66191	0.58480
0.60773	-0.43551
1.14327	-1.58336
0.93925	-0.79262
1.21977	-0.18043
1.32178	2.06425
-1.84042	2.37034
-1.04987	0.99292
-0.48884	0.53379
1.04126	0.22769
-0.48884	0.12566
1.70430	0.30422
-0.43783	-1.27726
0.58223	-1.48133
0.42922	-1.48133
-0.13181	0.96742
-0.05531	1.96222
-0.25932	0.91640
-1.45790	-2.47613
-0.15732	-1.27726
0.81175	0.58480
0.88825	1.19699
-2.19745	-0.89465
1.21977	0.53379
3.18340	1.88570
-0.38683	1.32453
0.93925	1.47757
-1.50890	1.06945
0.37822	-0.61406
0.19971	0.38074
1.04126	0.86539
-1.12638	-2.45062
-1.15188	-3.24136
0.37822	-0.23145
-0.99887	1.27351
0.40372	0.99292
1.39828	1.40105
-1.63641	1.35003
1.72980	-0.30797
-0.10631	-0.69059
-0.00431	-0.51203
-0.18282	0.10015
1.01576	1.04394
1.09226	0.50828
0.02119	0.02363
0.70974	-0.92016
-2.65648	-0.79262
-0.79486	0.94191
1.27078	0.89089
1.47479	-0.69059
-0.02981	-0.99668
0.99026	1.98773
0.88825	1.75816
-0.51434	0.40625
-1.68742	-0.84363
-2.42696	-0.07840
-0.15732	0.48277
1.62780	0.22769
2.52035	-0.48652
4.40748	0.20219
-0.79486	-0.00188
-1.25389	-0.25695
-1.38139	0.35523
-0.94787	1.06945
-0.59084	-0.51203
2.57136	0.27871
0.70974	0.20219
-1.91693	0.91640
-0.38683	-0.84363
-0.53984	-0.97117
0.60773	-1.17523
-0.20832	1.98773
0.48022	0.94191
0.50573	0.63582
0.60773	-0.46102
0.81175	0.07465
0.32721	0.30422
0.78624	1.06945
1.21977	1.24800
0.02119	0.55929
-4.79861	-0.00188
-0.00431	-0.89465
0.78624	-2.70570
1.72980	-1.45582
0.83725	0.17668
-0.82036	1.73265
1.06676	1.63062
1.21977	2.39585
1.72980	-0.46102
-1.50890	-0.28246
-0.10631	-0.71609
0.86275	0.71234
-0.61635	-0.20594
-0.53984	0.02363
0.22521	-0.15492
-0.02981	-0.43551
0.99026	-1.63437
-1.91693	1.40105
1.11776	0.89089
-0.31033	0.15117
-0.25932	0.40625
-0.66735	0.20219
1.60230	0.55929
1.29628	-0.15492
1.95932	-0.25695
0.58223	0.17668
-0.08081	-0.20594
-1.38139	0.20219
0.60773	2.03874
-0.28482	0.40625
-0.31033	-1.58336
-0.33583	-0.79262
-2.24845	-0.10391
-0.00431	-1.04770
1.29628	-0.38449
1.27078	1.50308
0.96476	1.27351
1.06676	1.47757
-0.51434	1.35003
0.04670	-1.02219
0.50573	-0.66508
-0.15732	0.30422
-0.74385	-0.30797
-0.94787	-0.00188
-0.28482	1.09496
0.91375	-0.74160
0.58223	-1.02219
0.83725	0.17668
0.17421	0.61031
-0.41233	-0.33348
0.45472	0.17668
2.29084	1.14597
2.34184	1.14597
-2.47797	0.48277
-3.26852	-0.51203
-1.50890	1.98773
1.39828	0.40625
2.64786	0.35523
1.85731	-1.12422
-0.05531	-1.50683
0.73524	-2.19554
1.21977	0.81437
-2.52897	1.09496
-1.22839	1.70714
0.50573	1.40105
1.57679	-0.07840
1.27078	-0.56305
-1.33039	1.01843
-2.32496	1.65613
0.53123	-0.76711
0.73524	-1.68539
0.04670	0.76336
1.44929	-0.43551
0.65874	-2.22105
0.63323	-0.53754
0.27621	1.68163
-0.69285	1.78367
0.09770	1.57960
0.22521	0.45726
0.22521	0.30422
-0.02981	3.31413
0.48022	0.17668
0.55673	-3.06281
-1.94243	-5.17995
-1.04987	-0.00188
0.37822	1.80917
1.75531	1.73265
1.62780	1.86019
1.32178	1.50308
-0.71835	-0.25695
-1.61091	-0.30797
-0.66735	-0.79262
0.70974	-0.48652
0.58223	-0.10391
2.77537	0.71234
2.06133	0.73785
-2.88599	0.76336
-1.02437	0.12566
0.81175	-1.07320
1.75531	-0.56305
-1.48340	0.96742
-2.19745	-0.56305
-1.66191	-0.97117
1.70430	-0.10391
1.75531	1.70714
1.60230	1.40105
1.14327	0.48277
-0.10631	-0.25695
0.09770	0.15117
0.25071	0.48277
-0.84586	0.12566
-0.84586	-0.48652
-0.74385	-0.20594
-1.02437	0.12566
0.40372	1.78367
0.83725	-0.61406
1.39828	-1.35379
1.42379	-2.37410
-1.35589	1.47757
-0.10631	1.98773
-0.82036	0.43176
-0.08081	0.20219
1.98482	0.22769
0.96476	0.30422
1.19427	-0.61406
-1.99343	-0.23145
-0.79486	-0.76711
-0.46334	-0.02739
0.88825	0.30422
1.19427	1.35003
1.67880	1.17148
1.27078	0.17668
-0.08081	0.25320
-1.10088	-0.25695
-0.00431	0.17668
-3.49803	-0.30797
-0.25932	-0.30797
-2.14644	-0.46102
0.32721	0.04914
3.54042	-0.23145
1.24527	0.66132
2.23984	1.80917
-1.10088	0.63582
2.01032	-0.30797
-2.47797	-2.52714
-1.20288	-0.02739
0.60773	0.38074
1.27078	1.68163
0.04670	1.04394
-0.08081	0.73785
0.53123	-0.07840
0.65874	0.48277
0.22521	-0.23145
-0.61635	-2.17003
-0.18282	-0.63957
0.19971	0.48277
0.02119	1.27351
-0.13181	2.08976
-1.02437	-0.48652
0.32721	0.27871
-0.02981	0.04914
1.09226	0.32972
1.85731	0.15117
0.35272	0.38074
0.55673	-0.10391
-1.15188	-0.89465
-4.21208	0.55929
-0.10631	1.04394
1.57679	0.45726
2.13783	-1.60887
3.76993	-1.30277
1.50029	0.76336
1.75531	1.01843
-2.17195	0.53379
-5.79318	0.48277
-1.20288	0.76336
2.52035	0.53379
2.59686	0.50828
1.60230	-0.41000
-4.62010	-0.10391
0.30171	-0.56305
0.37822	0.58480
1.04126	-0.46102
0.96476	-0.94566
1.75531	0.10015
0.42922	1.17148
0.48022	0.76336
-0.10631	1.78367
-1.35589	1.32453
-1.15188	1.01843
0.09770	-2.29757
-0.41233	-2.78222
-0.18282	-0.38449
0.53123	2.14077
-0.23382	2.24281
0.45472	-0.35899
0.48022	-2.50164
1.11776	-0.51203
1.09226	1.80917
-0.99887	1.73265
0.65874	1.88570
0.35272	-0.18043
1.06676	-0.46102
1.52579	-0.89465
-0.02981	1.68163
-2.63097	-0.15492
-3.93156	-1.78742
1.47479	-0.69059
2.72437	1.04394
2.52035	0.20219
-1.61091	-0.28246
0.40372	0.50828
1.85731	0.78886
0.22521	0.68683
1.62780	-0.46102
0.96476	-0.38449
-3.14101	0.25320
-5.23214	1.24800
1.04126	-0.46102
0.91375	-0.74160
1.85731	0.63582
1.32178	0.07465
-0.56534	0.20219
0.55673	-0.30797
0.83725	0.53379
0.70974	0.40625
-0.69285	0.86539
-1.07538	-0.94566
0.27621	0.96742
0.53123	0.27871
-1.35589	-1.09871
0.04670	-0.00188
1.14327	-0.00188
1.39828	0.66132
1.65330	0.81437
0.83725	1.01843
-2.52897	0.45726
-1.84042	-2.17003
-0.46334	0.76336
1.09226	0.89089
0.93925	0.43176
-0.25932	0.83988
1.78081	-1.02219
-0.10631	-0.10391
0.25071	-0.28246
-1.02437	-0.94566
1.19427	0.66132
0.48022	0.73785
-0.25932	-0.12942
-1.35589	-0.81812
-0.13181	0.22769
0.70974	1.78367
-0.66735	0.45726
1.75531	-0.56305
1.27078	-0.23145
1.55129	0.45726
-1.38139	0.94191
-1.76392	0.43176
-0.89686	-0.02739
0.09770	0.22769
2.13783	-1.12422
0.27621	-0.23145
0.58223	0.96742
0.81175	1.75816
-1.76392	1.14597
-1.89143	-1.71090
1.85731	-2.73121
0.76074	-0.66508
0.58223	1.91120
-0.00431	1.24800
1.29628	0.55929
-0.20832	0.81437
-0.56534	1.29902
-0.38683	-0.18043
0.70974	0.15117
0.81175	-1.83844
-0.02981	-0.20594
-1.94243	0.04914
0.58223	0.89089
1.24527	0.63582
0.04670	0.35523
-0.08081	-0.15492
0.83725	0.17668
1.85731	0.73785
-0.25932	-0.58856
-2.12094	-0.30797
-0.87136	-1.94047
1.65330	1.22250
1.70430	1.75816
1.09226	0.83988
-3.14101	-1.53234
-1.94243	-1.27726
-1.91693	1.22250
1.90832	1.60511
3.13239	1.70714
-2.29945	0.55929
1.29628	-0.99668
1.90832	-0.35899
1.98482	0.22769
0.58223	0.17668
-0.13181	0.02363
-1.43240	-0.02739
-0.94787	1.27351
0.14870	-0.20594
-0.43783	-1.60887
0.09770	-3.16484
-0.36133	0.83988
-0.15732	1.40105
0.53123	1.47757
0.93925	0.45726
1.78081	1.17148
-0.71835	0.99292
-1.61091	0.10015
-1.84042	-0.10391
0.88825	-0.61406
1.90832	0.68683
1.29628	-0.76711
1.09226	-2.42511
0.22521	0.22769
-0.46334	1.63062
-0.53984	2.39585
-0.10631	-0.05289
0.86275	-0.35899
-0.00431	-0.35899
2.82638	0.58480
-1.40690	0.91640
-3.93156	-0.89465
1.42379	-0.48652
-0.08081	-0.07840
-0.69285	-0.81812
1.67880	0.04914
2.08683	1.52859
-1.02437	1.42656
0.63323	-0.20594
-0.89686	-0.12942
-0.08081	-0.56305
0.93925	0.91640
0.02119	1.09496
0.07220	-0.61406
-0.13181	-1.40480
0.83725	0.10015
1.19427	0.81437
0.45472	0.35523
-2.63097	-1.83844
-1.50890	-0.02739
0.50573	0.91640
1.60230	1.01843
1.65330	1.73265
0.96476	1.29902
-0.28482	0.32972
-1.73842	-1.60887
0.45472	-0.00188
-0.08081	1.37554
1.72980	-1.68539
1.65330	-2.06800
-2.73298	1.47757
-3.70204	0.55929
1.95932	0.61031
1.44929	-0.25695
1.60230	0.17668
0.83725	-0.51203
0.58223	0.73785
0.30171	-0.25695
0.99026	0.55929
-0.43783	1.75816
-0.74385	-0.81812
0.04670	-0.71609
-0.18282	-2.68019
-2.40146	1.17148
0.22521	1.63062
2.16333	1.57960
0.65874	1.09496
1.27078	0.17668
-2.04444	-0.58856
-2.29945	-0.18043
-1.35589	-0.18043
1.88281	-0.48652
1.98482	0.27871
2.03582	0.07465
1.29628	-0.10391
-0.18282	-0.38449
-0.20832	-0.02739
-0.66735	-0.02739
-0.23382	0.27871
0.53123	1.47757
0.63323	-0.05289
0.04670	0.07465
-0.43783	1.06945
-0.76936	-0.46102
-0.61635	-2.24656
0.53123	0.10015
0.30171	0.68683
-0.99887	-1.50683
1.06676	2.39585
-0.25932	3.16108
0.37822	0.76336
1.50029	-2.32308
0.81175	0.53379
-1.07538	0.81437
-0.74385	0.53379
0.83725	0.35523
0.02119	-0.63957
0.55673	-0.76711
0.02119	-0.58856
-0.10631	1.29902
1.90832	0.15117
0.02119	-1.37929
-2.22295	-0.66508
-2.52897	0.73785
2.64786	-0.35899
1.11776	0.53379
1.19427	0.91640
-0.97337	0.83988
-0.48884	0.12566
0.73524	-0.48652
0.81175	-0.10391
0.78624	-0.20594
1.27078	0.76336
0.93925	0.32972
-1.02437	0.48277
-0.05531	0.30422
-2.14644	0.10015
-2.22295	-0.41000
1.34728	-0.43551
-0.76936	0.78886
0.93925	1.47757
2.34184	0.15117
1.70430	-1.17523
1.75531	-0.56305
0.50573	0.83988
0.70974	-0.23145
-1.12638	-0.20594
-1.20288	-0.48652
-0.82036	0.50828
-0.51434	0.53379
0.14870	0.78886
-0.38683	1.04394
0.93925	0.38074
0.48022	0.50828
0.14870	-1.73640
-0.69285	-2.60367
-0.74385	-0.00188
1.95932	2.54890
0.73524	1.24800
0.42922	-0.05289
-3.93156	0.32972
0.68424	0.22769
2.34184	0.30422
1.95932	0.25320
0.78624	-0.10391
1.19427	-0.02739
-0.59084	-1.27726
0.65874	-0.51203
-0.08081	-1.22625
-4.28858	0.73785
-0.92237	0.68683
0.45472	0.27871
-0.13181	-0.43551
1.27078	0.83988
1.34728	1.42656
-0.00431	1.01843
1.34728	-0.35899
-2.19745	-0.00188
0.99026	-0.07840
1.62780	-0.00188
-2.12094	1.35003
-0.56534	0.12566
1.57679	1.57960
1.34728	-1.78742
1.06676	-1.40480
-0.82036	-1.94047
0.25071	-0.30797
0.42922	1.80917
-0.71835	1.65613
-0.94787	-0.00188
-0.94787	-0.10391
1.55129	0.58480
-1.61091	1.14597
1.60230	0.15117
0.19971	-1.48133
0.48022	1.29902
0.73524	1.52859
0.07220	-0.79262
-1.10088	-1.55785
0.91375	0.83988
1.21977	0.63582
-0.08081	-0.18043
0.04670	-1.30277
-0.46334	1.27351
-1.22839	1.06945
-0.71835	1.50308
-0.64185	-1.58336
1.85731	-2.32308
1.90832	-1.53234
0.17421	0.32972
-0.87136	1.57960
1.60230	2.44687
-0.48884	1.91120
0.45472	0.50828
2.36734	-0.38449
-2.50347	-0.69059
0.40372	-0.58856
0.60773	0.50828
-2.37596	-0.25695
-0.18282	-0.63957
0.09770	-1.02219
0.37822	1.68163
1.06676	-0.23145
0.96476	-2.19554
-0.15732	-1.12422
-0.69285	1.19699
0.27621	1.35003
1.14327	1.06945
0.63323	1.09496
-0.33583	0.76336
0.27621	1.14597
-0.71835	0.71234
-0.46334	-0.89465
0.12320	-0.76711
1.80631	0.04914
0.99026	0.35523
0.14870	-0.12942
0.68424	-0.79262
-0.23382	-2.22105
-1.58541	-1.71090
1.98482	0.99292
-0.31033	2.42136
-2.17195	1.78367
-4.59460	1.65613
0.14870	0.25320
3.51492	-0.38449
2.72437	-2.11902
2.69887	0.17668
2.36734	-0.38449
0.91375	1.27351
-2.17195	0.76336
-4.31408	-0.18043
0.48022	0.10015
0.55673	-0.20594
-2.88599	0.55929
0.07220	0.55929
2.54586	-0.63957
2.13783	-0.41000
-0.31033	0.12566
1.04126	1.45206
0.45472	1.09496
-0.00431	-0.43551
-0.61635	-0.63957
-2.14644	-0.38449
0.32721	-0.33348
0.50573	-0.05289
0.42922	-0.20594
-0.05531	0.71234
0.48022	0.91640
0.02119	0.63582
0.12320	1.14597
0.07220	0.55929
0.32721	0.02363
0.22521	-1.88945
0.27621	-0.25695
-0.02981	0.78886
0.09770	1.60511
0.35272	0.15117
0.53123	-1.68539
0.19971	-1.22625
-0.15732	1.93671
-0.02981	0.10015
1.85731	0.25320
-0.59084	-1.12422
-4.21208	-0.12942
-1.73842	1.01843
1.65330	1.06945
3.48942	0.96742
1.04126	-0.10391
1.24527	-0.48652
0.68424	0.83988
0.83725	-0.97117
1.37278	-0.02739
-0.56534	0.22769
-0.43783	0.61031
-0.43783	0.89089
0.53123	0.10015
-3.67654	-0.23145
-2.88599	-1.12422
-0.31033	-0.92016
1.55129	0.48277
1.62780	1.98773
1.19427	0.43176
1.11776	-0.86914
0.93925	0.40625
1.65330	0.15117
-0.69285	-1.63437
-0.74385	-0.74160
0.50573	0.17668
0.55673	1.42656
-0.10631	1.50308
0.35272	1.42656
0.88825	-0.00188
-0.59084	0.99292
1.11776	-0.74160
0.09770	-0.61406
-2.22295	-1.68539
-3.14101	0.10015
1.60230	0.58480
2.16333	0.48277
-0.79486	-0.12942
0.27621	0.38074
1.01576	1.14597
-0.08081	0.45726
-0.18282	-0.53754
1.01576	-1.12422
0.76074	-0.12942
0.22521	-0.25695
0.02119	0.53379
0.25071	1.06945
1.62780	0.89089
2.06133	0.94191
-0.36133	0.63582
-7.42528	-0.66508
-1.43240	-1.65988
1.70430	-0.15492
1.39828	1.14597
1.93382	0.63582
1.50029	1.17148
0.68424	-0.25695
0.88825	-1.27726
0.19971	-0.07840
-0.89686	1.22250
-0.36133	0.07465
-0.38683	0.38074
-0.28482	-0.56305
-0.23382	0.17668
-0.00431	0.40625
0.30171	0.61031
0.04670	0.15117
0.48022	-0.63957
0.35272	-2.22105
0.58223	-0.53754
0.50573	0.96742
0.32721	2.03874
0.60773	1.40105
-0.97337	0.32972
-3.03900	-0.35899
1.11776	0.25320
2.59686	0.43176
2.44385	0.07465
-1.22839	0.04914
-1.91693	-0.05289
2.13783	-0.15492
1.29628	0.07465
0.91375	0.55929
-0.59084	0.61031
-1.89143	-0.51203
-0.28482	-1.22625
-1.81492	-1.55785
1.83181	0.48277
0.02119	1.45206
-0.97337	2.08976
1.88281	0.68683
-0.99887	0.61031
-0.74385	-1.37929
1.04126	0.15117
1.24527	0.20219
0.70974	0.99292
0.73524	0.63582
0.45472	-0.02739
-0.13181	-1.27726
-1.17738	-1.55785
-1.02437	-0.51203
-0.00431	1.83468
0.19971	1.78367
0.40372	0.38074
0.60773	-0.71609
0.68424	-0.99668
1.57679	0.12566
0.27621	0.66132
-1.15188	1.88570
-1.86593	0.04914
-1.04987	0.89089
1.47479	-1.73640
-0.69285	-1.99148
2.31634	-2.50164
2.49485	0.96742
0.25071	2.16628
-2.86049	1.50308
-0.05531	1.80917
0.96476	0.63582
0.91375	0.22769
0.17421	-0.15492
1.19427	-1.09871
-0.87136	-1.14973
-1.10088	-0.38449
0.88825	0.40625
-0.74385	1.06945
-1.89143	0.86539
-0.38683	-0.35899
2.18883	-0.00188
2.90288	0.48277
-0.28482	0.43176
-0.00431	0.68683
-1.10088	-0.53754
-3.01350	-0.81812
0.88825	0.22769
1.29628	-0.25695
1.65330	-0.07840
0.02119	0.53379
0.37822	1.04394
0.02119	1.91120
0.42922	0.38074
0.40372	0.02363
0.42922	-0.05289
-1.27939	0.40625
-0.51434	-0.25695
-0.02981	-0.25695
0.27621	-0.33348
0.25071	-0.53754
0.86275	0.04914
0.88825	0.32972
-0.69285	0.45726
-1.10088	0.04914
-2.01894	0.10015
0.73524	-0.33348
2.34184	0.66132
1.42379	0.02363
1.37278	1.24800
1.44929	1.19699
-1.61091	0.22769
0.09770	-2.17003
0.70974	-0.99668
0.70974	0.94191
-1.12638	1.22250
-0.46334	0.12566
1.37278	0.40625
-0.05531	0.04914
-3.47253	-0.18043
-2.63097	-1.27726
1.67880	0.76336
-0.79486	0.81437
2.06133	-0.25695
1.72980	-0.02739
1.75531	0.40625
1.24527	0.45726
0.83725	0.83988
-0.92237	-0.33348
-1.84042	-0.25695
0.68424	0.22769
1.42379	1.01843
0.25071	0.17668
-2.29945	-1.17523
-0.79486	-2.32308
-0.79486	-0.18043
1.14327	2.08976
1.16877	1.14597
1.34728	0.63582
0.40372	0.50828
-1.50890	0.20219
0.17421	-0.56305
1.14327	-0.79262
1.44929	0.81437
-0.33583	0.66132
-0.18282	0.68683
0.93925	1.42656
1.04126	0.38074
-1.58541	-1.60887
-3.03900	-4.08312
-0.79486	-2.34859
-0.38683	1.57960
1.39828	1.78367
2.36734	1.80917
2.41835	1.96222
-0.71835	1.01843
0.30171	0.38074
1.06676	0.43176
-1.71292	-0.38449
-0.13181	-1.27726
0.27621	-1.35379
-0.05531	-0.05289
0.19971	0.96742
-1.22839	0.35523
0.32721	-0.81812
1.14327	-0.12942
1.52579	1.09496
-2.14644	0.53379
-0.00431	-2.80773
1.06676	-0.66508
-0.48884	0.66132
-2.50347	1.63062
1.39828	2.03874
1.75531	0.68683
0.50573	0.35523
0.93925	1.63062
0.07220	0.12566
0.19971	-0.46102
0.48022	-1.27726
-0.02981	0.48277
0.27621	-2.39961
-0.38683	-1.45582
-0.59084	-0.05289
-1.17738	2.01323
-1.12638	1.47757
0.68424	1.29902
1.47479	0.50828
1.90832	-0.12942
-1.30489	0.48277
0.68424	-0.02739
0.63323	-0.56305
0.63323	-0.35899
-1.12638	0.15117
-0.23382	-0.33348
-0.13181	-0.63957
0.88825	0.12566
1.72980	0.89089
2.31634	0.76336
-1.84042	0.25320
-5.56366	-0.66508
0.30171	0.66132
1.52579	0.48277
2.01032	0.50828
1.98482	0.20219
1.78081	-0.10391
-0.74385	-0.46102
-1.33039	0.68683
-0.66735	0.04914
0.45472	0.30422
0.68424	-0.48652
-0.15732	0.76336
-1.96793	1.37554
1.04126	0.73785
0.78624	-2.42511
1.21977	-1.07320
1.50029	-0.23145
-0.59084	0.86539
-2.22295	1.14597
-1.04987	1.06945
0.81175	0.12566
0.50573	-0.28246
1.27078	-0.79262
-0.15732	0.38074
0.22521	1.12046
0.83725	0.94191
0.70974	1.24800
-0.10631	0.43176
0.78624	0.45726
1.19427	-2.55265
0.12320	-1.12422
-2.75848	-1.94047
-1.40690	0.94191
0.48022	1.06945
1.93382	1.22250
-1.43240	1.27351
-0.76936	-0.46102
1.75531	-0.33348
1.78081	-0.18043
1.42379	0.48277
1.44929	0.25320
-4.49259	-0.15492
-1.45790	0.53379
1.01576	-0.12942
0.76074	-0.28246
1.47479	0.17668
2.01032	0.35523
-1.86593	0.81437
0.35272	0.55929
1.14327	0.94191
0.88825	-0.61406
-0.59084	-0.05289
-0.66735	-1.99148
-0.10631	-0.46102
-0.20832	0.32972
0.60773	1.04394
0.09770	1.57960
0.04670	0.91640
-0.76936	0.66132
-1.12638	-0.53754
0.02119	-0.30797
-0.13181	-0.15492
1.57679	0.25320
1.72980	0.78886
2.06133	1.37554
-1.15188	-0.56305
-0.64185	-2.04250
0.53123	-1.48133
-1.94243	0.91640
1.55129	1.88570
0.73524	0.66132
0.93925	-0.58856
0.53123	0.40625
0.02119	0.15117
-2.65648	0.38074
0.37822	1.57960
0.02119	0.53379
-0.74385	-0.92016
0.81175	-2.57816
0.07220	-0.02739
1.32178	0.55929
2.16333	1.27351
1.95932	1.19699
-3.06450	0.30422
-5.23214	1.06945
1.37278	0.76336
1.78081	-1.02219
2.46935	-0.66508
1.14327	0.22769
0.83725	-0.28246
0.88825	-0.89465
0.93925	-0.15492
-2.91149	0.94191
-0.76936	0.12566
0.40372	0.32972
0.81175	0.94191
0.63323	-0.15492
-0.13181	-0.28246
0.35272	-1.02219
-0.31033	1.37554
-0.66735	1.01843
0.02119	-0.25695
-0.18282	-0.69059
-1.22839	0.91640
1.34728	-0.00188
1.37278	-0.48652
1.09226	0.53379
1.72980	0.25320
-0.89686	1.29902
-3.03900	0.61031
0.14870	0.96742
1.24527	-0.74160
1.39828	-1.65988
0.81175	-1.04770
0.12320	1.01843
0.35272	0.66132
-0.00431	0.30422
-0.97337	-0.23145
-0.79486	0.55929
0.48022	0.48277
0.14870	0.30422
0.14870	0.32972
0.68424	-0.05289
0.27621	0.55929
0.32721	0.15117
0.35272	0.55929
0.17421	1.06945
0.40372	-0.51203
-0.18282	-1.83844
-0.74385	-0.97117
-0.43783	-0.25695
0.12320	1.55410
0.25071	0.71234
0.30171	0.43176
1.04126	0.12566
0.32721	0.99292
1.90832	0.76336
-1.61091	-0.41000
-0.59084	-0.89465
-1.86593	0.66132
1.50029	0.53379
2.36734	1.27351
-1.48340	1.01843
-1.15188	-0.97117
2.18883	-1.83844
1.42379	-0.35899
-0.99887	1.70714
2.08683	-0.46102
-2.06994	-0.86914
-1.71292	-1.27726
1.06676	1.35003
1.19427	0.30422
1.06676	0.99292
1.60230	0.45726
-0.46334	2.31933
-0.74385	2.19179
-0.20832	-1.37929
0.04670	-4.08312
-0.28482	-0.48652
-0.46334	1.68163
-0.61635	0.68683
-1.10088	0.17668
0.68424	0.04914
0.73524	0.81437
0.96476	0.66132
0.91375	0.83988
0.17421	0.07465
0.04670	-0.71609
-0.25932	-0.71609
0.55673	-1.20074
-1.66191	-0.18043
0.93925	0.99292
1.34728	0.27871
1.65330	0.50828
0.35272	-0.10391
-0.89686	-0.81812
-2.68198	-0.25695
0.35272	1.17148
1.98482	0.78886
-0.99887	0.73785
-0.71835	0.86539
1.04126	-0.15492
1.55129	0.43176
2.41835	0.63582
-1.12638	-0.41000
-0.15732	-0.43551
1.67880	0.35523
-3.95706	-1.09871
-0.87136	-0.20594
0.93925	-0.41000
0.93925	0.04914
0.22521	1.42656
0.58223	0.38074
0.68424	-0.46102
0.37822	-1.07320
0.25071	-0.02739
0.14870	0.35523
-0.08081	1.47757
-0.69285	1.01843
-0.41233	0.73785
0.07220	0.73785
0.42922	-0.63957
0.65874	-0.51203
0.58223	-0.07840
-0.43783	-0.05289
-1.12638	0.53379
0.45472	0.73785
0.32721	-0.25695
1.06676	-0.89465
2.95388	0.25320
-1.91693	0.22769
-3.39602	0.04914
0.40372	0.55929
1.44929	0.99292
2.26534	0.04914
1.37278	0.04914
1.67880	0.76336
-0.48884	0.25320
-2.01894	-0.33348
0.68424	-0.97117
-0.15732	-0.99668
-1.68742	-0.18043
-0.23382	0.15117
1.55129	1.37554
-0.08081	1.04394
0.19971	-0.25695
-0.99887	0.04914
0.81175	0.68683
0.55673	-0.41000
0.14870	0.30422
0.35272	0.20219
0.55673	0.38074
0.40372	-0.23145
-0.10631	-0.35899
-0.10631	0.12566
0.02119	1.37554
0.12320	0.43176
0.32721	-1.02219
0.17421	-0.46102
0.17421	0.55929
-1.17738	0.25320
0.19971	1.04394
0.09770	0.35523
0.25071	0.43176
0.88825	-0.07840
1.04126	0.38074
0.76074	0.15117
-0.02981	0.15117
0.53123	-1.32828
-0.31033	-1.27726
0.45472	-0.00188
-0.48884	1.24800
-2.63097	0.25320
1.01576	0.22769
-0.79486	1.32453
2.57136	0.81437
0.37822	0.38074
0.58223	-0.66508
1.60230	0.25320
2.01032	0.04914
-0.69285	0.81437
-2.42696	-0.25695
-1.58541	-0.12942
0.73524	-0.33348
-0.41233	-0.23145
-2.01894	-0.02739
1.06676	0.53379
2.08683	1.37554
0.91375	0.76336
1.55129	-1.14973
1.42379	-4.28718
0.73524	-1.45582
0.45472	2.70194
0.14870	2.42136
-1.27939	2.82948
-2.78398	1.12046
-1.04987	-1.91496
0.27621	-2.37410
0.37822	0.10015
0.50573	0.55929
0.68424	1.01843
0.68424	1.01843
0.55673	0.40625
0.32721	0.04914
0.53123	0.30422
1.04126	-0.48652
0.76074	-0.71609
-0.76936	0.22769
-1.25389	-0.20594
-0.28482	-0.02739
0.53123	0.25320
0.45472	0.35523
-2.55447	-0.41000
2.57136	-0.81812
0.68424	-0.35899
1.32178	1.09496
-0.74385	1.78367
0.88825	1.70714
-0.20832	0.15117
0.53123	-1.09871
-0.38683	-0.28246
0.02119	0.81437
1.16877	0.12566
-3.39602	-0.05289
-1.40690	-0.35899
1.78081	0.32972
1.83181	0.94191
1.83181	-0.15492
-1.07538	-0.79262
-2.09544	0.22769
0.83725	-0.33348
1.01576	-0.23145
1.21977	0.73785
0.63323	1.45206
-0.25932	0.02363
-0.10631	-1.99148
-0.13181	-0.89465
-0.13181	0.45726
-0.05531	0.53379
0.12320	0.53379
0.04670	0.94191
0.04670	0.73785
0.22521	0.50828
-0.10631	0.81437
0.22521	0.40625
-0.08081	-0.02739
0.32721	0.58480
-0.38683	-0.99668
0.37822	-0.66508
1.19427	-1.14973
1.16877	-1.02219
0.27621	0.55929
-0.82036	1.01843
-1.81492	0.94191
1.65330	0.38074
1.42379	0.81437
0.32721	0.45726
-0.31033	-0.38449
1.09226	0.25320
1.04126	1.29902
-0.15732	-1.22625
-3.80405	-1.37929
-0.51434	-0.38449
0.78624	-0.20594
-0.10631	0.15117
0.40372	2.08976
0.96476	0.66132
0.88825	0.38074
0.60773	0.17668
0.35272	0.78886
-0.00431	0.66132
0.22521	-0.15492
-0.20832	-2.01699
-0.05531	-1.12422
-1.27939	-0.63957
0.30171	1.09496
-0.64185	1.65613
0.50573	0.99292
0.76074	1.35003
0.88825	0.20219
1.72980	0.02363
0.32721	-0.25695
-0.92237	0.04914
-1.10088	-0.38449
-1.73842	-0.10391
0.50573	-0.35899
0.63323	0.40625
2.57136	-1.48133
0.65874	-0.56305
-0.41233	0.53379
0.42922	1.32453
0.53123	1.68163
1.65330	1.35003
0.04670	0.15117
-0.51434	-1.12422
-1.25389	-0.66508
0.30171	0.43176
0.50573	0.25320
-0.97337	0.10015
-0.64185	0.45726
-0.00431	0.40625
-0.13181	-0.05289
0.02119	-1.27726
0.83725	-0.48652
0.37822	0.17668
1.55129	1.27351
0.25071	0.40625
0.09770	0.71234
-0.13181	0.20219
0.53123	1.73265
0.14870	-1.04770
