0.09770	0.22769
0.09770	0.25320
0.19971	0.30422
0.04670	0.17668
0.04670	0.07465
0.02119	0.10015
0.07220	0.07465
0.25071	0.12566
0.25071	0.04914
0.19971	0.10015
0.19971	0.12566
0.07220	0.22769
0.04670	0.27871
0.12320	0.25320
0.09770	0.12566
0.09770	0.04914
0.07220	0.17668
0.25071	0.12566
0.25071	0.12566
0.25071	0.12566
0.17421	0.17668
0.07220	0.25320
0.07220	0.25320
0.07220	0.20219
0.12320	0.15117
0.07220	0.04914
0.07220	0.02363
0.25071	0.02363
0.22521	0.12566
0.27621	0.15117
0.12320	0.20219
0.14870	0.15117
0.07220	0.22769
0.02119	0.25320
0.02119	0.20219
-0.00431	0.07465
0.22521	0.04914
0.27621	-0.02739
0.19971	0.02363
0.19971	0.22769
0.22521	0.27871
0.19971	0.22769
0.09770	0.15117
0.04670	0.15117
-0.02981	0.10015
0.09770	0.07465
0.30171	0.10015
0.27621	0.02363
0.12320	0.10015
0.17421	0.10015
0.09770	0.22769
0.19971	0.27871
0.12320	0.22769
0.22521	0.10015
0.09770	0.20219
0.04670	0.12566
0.04670	-0.00188
0.22521	0.02363
0.22521	0.07465
0.17421	0.20219
0.09770	0.15117
0.17421	0.17668
0.17421	0.22769
0.04670	0.22769
0.04670	0.20219
0.12320	0.10015
0.14870	0.07465
0.12320	-0.02739
0.25071	0.04914
0.25071	0.20219
0.30171	0.27871
0.22521	0.22769
0.04670	0.20219
-0.05531	0.20219
-0.05531	0.22769
0.04670	0.10015
0.22521	0.10015
0.17421	-0.05289
0.25071	0.10015
0.19971	0.22769
0.22521	0.25320
0.27621	0.17668
0.14870	0.15117
0.04670	0.12566
-0.10631	0.12566
-0.08081	0.15117
0.14870	0.15117
0.27621	0.07465
0.32721	0.15117
0.25071	0.20219
0.19971	0.22769
0.09770	0.17668
0.02119	0.22769
0.09770	0.20219
0.09770	0.20219
0.14870	0.15117
0.12320	0.04914
0.14870	0.04914
0.17421	0.04914
0.22521	0.15117
0.27621	0.27871
0.17421	0.20219
0.09770	0.22769
0.09770	0.17668
-0.00431	0.10015
-0.00431	0.02363
0.14870	0.04914
0.30171	0.04914
0.22521	0.15117
0.19971	0.15117
0.17421	0.12566
0.07220	0.15117
0.02119	0.22769
-0.02981	0.17668
-0.00431	0.20219
0.14870	0.15117
0.22521	0.04914
0.19971	0.04914
0.09770	0.10015
0.14870	0.10015
0.14870	0.12566
0.14870	0.22769
0.12320	0.22769
0.19971	0.22769
0.12320	0.17668
0.22521	0.10015
0.17421	0.07465
0.17421	-0.02739
0.12320	-0.02739
0.25071	0.15117
0.25071	0.20219
0.14870	0.30422
0.12320	0.30422
-0.02981	0.27871
-0.00431	0.04914
0.09770	0.07465
0.14870	0.15117
0.22521	0.04914
0.14870	0.02363
0.25071	0.15117
0.22521	0.30422
0.12320	0.17668
0.07220	0.17668
0.09770	0.27871
0.09770	0.20219
0.09770	0.10015
0.07220	0.07465
0.17421	0.12566
0.19971	0.04914
0.14870	0.12566
0.17421	0.22769
0.12320	0.27871
0.04670	0.20219
0.12320	0.10015
0.12320	0.15117
0.07220	0.17668
0.12320	0.07465
0.14870	-0.02739
0.25071	0.07465
0.19971	0.25320
0.12320	0.22769
0.17421	0.22769
0.17421	0.17668
0.17421	0.17668
0.09770	0.20219
-0.08081	0.15117
0.12320	0.02363
0.35272	0.07465
0.19971	0.12566
0.12320	0.15117
0.02119	0.20219
0.12320	0.25320
0.19971	0.30422
0.02119	0.15117
-0.02981	0.15117
0.09770	0.02363
0.25071	0.07465
0.27621	0.10015
0.14870	0.07465
0.25071	0.04914
0.19971	0.15117
0.09770	0.22769
0.12320	0.25320
0.02119	0.27871
0.04670	0.22769
0.12320	0.15117
0.12320	0.07465
0.12320	0.04914
0.12320	0.07465
0.19971	0.07465
0.17421	0.12566
0.14870	0.15117
0.09770	0.25320
0.12320	0.17668
0.07220	0.17668
0.12320	0.15117
0.17421	0.12566
0.19971	-0.02739
0.14870	0.07465
0.14870	0.22769
0.17421	0.25320
0.07220	0.15117
0.07220	0.20219
0.19971	0.27871
0.07220	0.15117
-0.00431	0.02363
0.07220	0.10015
0.25071	0.12566
0.22521	-0.00188
0.17421	0.15117
0.19971	0.27871
0.19971	0.17668
0.07220	0.20219
-0.00431	0.25320
0.02119	0.15117
0.04670	0.04914
0.12320	0.04914
0.27621	0.10015
0.17421	0.02363
0.22521	0.17668
0.25071	0.27871
0.12320	0.22769
-0.02981	0.22769
0.07220	0.10015
0.07220	0.12566
0.09770	0.17668
0.22521	0.15117
0.32721	0.07465
0.22521	0.02363
0.19971	0.12566
0.12320	0.20219
0.12320	0.20219
0.02119	0.15117
0.07220	0.17668
0.12320	0.15117
0.12320	0.15117
0.25071	0.15117
0.19971	0.12566
0.12320	0.04914
0.14870	0.17668
0.22521	0.20219
0.22521	0.17668
0.17421	0.25320
0.09770	0.20219
0.04670	0.04914
0.12320	0.10015
0.12320	0.10015
0.17421	-0.02739
0.22521	0.04914
0.25071	0.12566
0.17421	0.20219
0.09770	0.20219
0.12320	0.20219
-0.00431	0.17668
0.04670	0.12566
0.07220	0.15117
0.14870	0.15117
0.19971	0.02363
0.17421	0.10015
0.25071	0.17668
0.19971	0.22769
0.09770	0.20219
0.12320	0.22769
0.14870	0.20219
0.17421	0.15117
0.17421	0.04914
0.22521	-0.00188
0.27621	-0.02739
0.30171	-0.02739
0.19971	0.22769
0.17421	0.20219
0.17421	0.27871
0.02119	0.30422
-0.02981	0.27871
0.02119	0.17668
-0.08081	0.04914
0.17421	0.04914
0.22521	0.04914
0.30171	0.12566
0.14870	0.22769
0.32721	0.25320
0.22521	0.25320
0.12320	0.12566
0.09770	0.10015
-0.05531	0.02363
0.02119	0.02363
0.07220	0.04914
0.22521	-0.02739
0.30171	0.10015
0.25071	0.12566
0.07220	0.30422
-0.00431	0.38074
0.04670	0.32972
0.12320	0.27871
0.09770	0.12566
-0.00431	-0.05289
0.09770	-0.02739
0.27621	-0.10391
0.32721	-0.05289
0.35272	0.15117
0.27621	0.27871
0.19971	0.27871
0.04670	0.25320
0.02119	0.22769
-0.10631	0.17668
0.07220	0.12566
0.17421	0.10015
0.14870	0.02363
0.12320	0.02363
0.37822	0.15117
0.19971	0.22769
0.22521	0.27871
0.12320	0.22769
0.12320	0.22769
-0.02981	0.12566
0.02119	0.02363
0.02119	0.02363
0.19971	-0.05289
0.22521	0.10015
0.30171	0.20219
0.14870	0.25320
0.17421	0.22769
-0.02981	0.25320
0.12320	0.32972
0.07220	0.02363
0.22521	-0.05289
0.17421	-0.05289
0.27621	0.12566
0.14870	0.25320
0.02119	0.35523
0.22521	0.30422
0.25071	0.30422
0.22521	0.20219
0.07220	-0.12942
-0.00431	0.02363
-0.08081	0.10015
0.17421	-0.02739
0.25071	-0.02739
0.14870	0.07465
0.19971	0.30422
0.19971	0.30422
0.32721	0.15117
0.17421	0.25320
0.02119	0.17668
-0.05531	0.22769
0.04670	-0.20594
0.19971	0.27871
0.37822	0.17668
0.22521	0.25320
0.14870	0.12566
0.19971	0.15117
0.12320	-0.02739
0.02119	0.07465
0.12320	0.04914
0.12320	-0.02739
0.17421	0.12566
0.19971	0.27871
0.22521	0.22769
0.19971	0.20219
0.09770	0.38074
0.07220	0.50828
0.17421	0.15117
0.14870	-0.07840
0.12320	-0.02739
0.27621	-0.07840
0.04670	0.12566
0.12320	-0.30797
0.12320	0.15117
0.22521	0.35523
0.19971	0.45726
0.35272	0.35523
0.30171	0.50828
-0.05531	0.32972
-0.28482	0.25320
0.19971	0.04914
0.19971	-0.00188
0.30171	-0.20594
0.22521	-0.10391
-0.00431	0.04914
0.17421	0.63582
0.02119	0.50828
0.04670	-0.10391
0.45472	-0.46102
0.09770	-0.25695
-0.08081	-0.18043
0.09770	-0.02739
0.22521	0.17668
0.50573	1.04394
0.14870	0.86539
0.07220	0.66132
0.22521	0.66132
0.07220	0.45726
0.04670	-0.71609
-0.02981	-0.63957
-0.23382	-0.30797
0.02119	-0.48652
0.32721	-0.10391
0.48022	0.61031
0.27621	0.99292
0.17421	0.32972
0.14870	0.68683
-0.10631	0.02363
0.07220	-0.94566
0.22521	-0.56305
0.17421	0.68683
0.14870	0.94191
0.27621	0.63582
0.09770	0.53379
0.02119	0.07465
0.30171	-0.66508
0.14870	-0.43551
0.19971	-0.56305
-0.15732	0.63582
-0.08081	0.73785
-0.02981	0.02363
0.19971	-0.07840
-0.00431	-0.20594
0.73524	-1.32828
0.02119	-0.58856
0.48022	0.40625
0.17421	1.55410
-0.25932	1.73265
-0.00431	2.19179
0.17421	0.89089
0.22521	-1.53234
-0.59084	-2.29757
0.09770	-0.63957
0.58223	-0.30797
0.09770	0.15117
0.58223	0.25320
0.48022	0.35523
0.04670	1.40105
0.22521	0.45726
-0.23382	0.25320
-0.71835	0.91640
-0.31033	1.68163
-0.00431	1.73265
0.42922	1.14597
0.88825	-1.86394
1.65330	-2.22105
0.55673	-2.06800
0.12320	-2.70570
-0.38683	-0.43551
-0.13181	2.06425
-0.51434	0.43176
-0.92237	-1.07320
-0.18282	1.37554
-0.20832	2.67644
0.35272	0.83988
1.16877	0.27871
1.16877	-0.43551
0.45472	0.48277
0.37822	1.50308
0.02119	2.52339
-0.00431	0.27871
-0.71835	-3.03730
-0.66735	-3.36890
0.02119	-1.63437
0.32721	-0.48652
0.27621	0.43176
0.19971	1.55410
0.50573	0.53379
0.65874	2.08976
0.07220	1.57960
-0.00431	1.57960
0.17421	1.14597
0.32721	0.91640
0.17421	-1.45582
-0.25932	-2.39961
-0.69285	-2.47613
-0.18282	-1.32828
0.30171	0.99292
0.73524	1.86019
0.76074	0.66132
0.65874	1.14597
0.07220	0.94191
-0.79486	-0.46102
-0.38683	-1.58336
-0.25932	-1.22625
-0.18282	-0.05289
0.63323	0.76336
0.27621	2.08976
-0.33583	1.57960
0.37822	0.10015
0.27621	0.30422
0.02119	-2.32308
0.76074	-1.17523
1.19427	1.22250
1.70430	1.52859
0.50573	1.50308
0.02119	0.89089
-1.10088	0.58480
-1.76392	0.15117
-1.02437	0.00000
-0.28482	0.00000
0.09770	0.00000
-0.25932	0.00000
0.30171	0.00000
0.12320	0.00000
0.70974	0.00000
1.11776	-0.30797
1.72980	-2.17003
0.91375	-0.99668
-0.00431	0.71234
0.02119	-0.92016
-0.28482	-2.78222
-0.92237	0.27871
-0.05531	2.03874
0.14870	1.91120
0.19971	-0.84363
0.14870	0.61031
0.22521	1.93671
0.32721	1.65613
-1.81492	-0.41000
0.17421	-0.53754
2.90288	0.81437
-0.10631	0.02363
0.32721	0.40625
0.17421	-1.71090
-0.36133	-1.94047
-0.74385	0.10015
-0.20832	0.71234
0.25071	1.12046
0.14870	1.12046
0.68424	-0.43551
0.07220	-0.23145
-0.64185	-0.02739
0.07220	0.15117
0.73524	-0.66508
0.07220	-1.02219
0.40372	0.76336
1.01576	1.83468
0.83725	1.42656
-0.25932	0.40625
-0.92237	-1.32828
-1.12638	-0.97117
-0.61635	0.22769
0.37822	0.83988
0.83725	0.61031
0.88825	0.45726
0.53123	-0.35899
0.19971	-0.33348
-0.00431	0.55929
0.02119	0.30422
0.12320	-0.00188
0.02119	-0.23145
0.63323	-0.33348
1.09226	0.94191
0.53123	0.96742
0.86275	-0.94566
-0.74385	-0.99668
-1.45790	-1.60887
-0.33583	-1.63437
0.04670	1.35003
-0.10631	2.90601
0.30171	2.70194
0.32721	1.17148
0.14870	0.32972
0.32721	0.58480
0.04670	1.27351
0.58223	0.30422
3.76993	-2.65468
0.99026	-3.21585
-1.55991	-1.88945
-1.71292	-1.07320
-1.12638	-0.51203
-0.05531	2.06425
1.01576	3.39065
0.58223	1.12046
0.50573	0.10015
0.14870	-0.43551
-0.20832	-0.05289
-0.23382	0.15117
0.02119	0.68683
0.30171	0.25320
0.25071	0.15117
0.35272	-0.10391
0.93925	-0.18043
1.29628	-0.05289
0.32721	0.32972
-0.25932	-0.61406
-0.41233	-1.25176
-0.23382	-0.30797
0.27621	0.78886
-0.08081	0.91640
0.19971	0.76336
0.22521	1.22250
-0.28482	1.27351
-0.76936	-0.61406
-0.74385	-1.40480
0.04670	0.81437
1.37278	0.96742
1.55129	-1.73640
0.35272	-2.34859
-0.64185	0.61031
-0.28482	1.83468
-0.46334	1.70714
0.12320	1.04394
1.50029	0.91640
-0.10631	-0.46102
-0.38683	-0.48652
0.07220	0.20219
0.93925	0.20219
0.60773	0.25320
-0.00431	-0.15492
0.55673	0.22769
-0.48884	-0.76711
-0.71835	-2.04250
-0.53984	-0.66508
-0.08081	0.76336
0.53123	0.68683
0.83725	0.45726
0.17421	1.17148
0.12320	1.96222
0.07220	0.50828
-0.08081	0.22769
-0.15732	0.45726
0.53123	-0.10391
0.37822	-1.22625
0.53123	0.30422
0.73524	0.38074
0.50573	-0.07840
-0.23382	-0.94566
-0.69285	-1.22625
-0.56534	1.06945
0.17421	1.37554
0.35272	-0.89465
0.30171	-1.22625
0.42922	1.17148
0.55673	2.08976
0.17421	1.40105
-0.23382	-0.46102
-0.43783	-0.38449
0.25071	0.43176
0.55673	-0.28246
0.14870	-1.71090
-0.25932	-2.14453
-0.66735	-0.20594
-0.28482	1.50308
1.60230	2.52339
0.14870	0.55929
0.30171	0.66132
0.42922	1.19699
0.53123	0.55929
0.99026	-0.25695
-0.02981	-1.68539
-0.64185	-0.61406
0.09770	0.40625
-0.05531	0.45726
-0.25932	-0.15492
-0.41233	-0.30797
-0.18282	-0.00188
0.19971	0.30422
0.55673	0.53379
0.40372	-0.15492
0.02119	-0.46102
-0.13181	0.04914
0.17421	0.40625
0.30171	0.96742
0.27621	0.68683
0.55673	0.27871
0.78624	0.30422
0.07220	0.76336
-0.00431	-0.00188
-0.38683	-1.09871
0.12320	-1.50683
0.09770	0.83988
-0.00431	1.06945
0.19971	-0.66508
0.27621	0.78886
0.14870	0.89089
0.04670	0.55929
0.22521	0.40625
-0.53984	-0.20594
0.45472	-0.25695
1.04126	-2.39961
-0.23382	-0.63957
0.07220	1.14597
0.17421	1.60511
0.07220	1.47757
0.12320	1.32453
-0.20832	0.63582
-0.18282	-1.25176
-0.97337	-1.43031
1.65330	-0.86914
0.07220	0.07465
-0.33583	0.45726
-0.23382	0.68683
0.27621	0.63582
0.68424	0.15117
0.76074	0.17668
0.48022	0.15117
0.14870	-0.58856
0.19971	-0.15492
-0.38683	0.50828
-0.33583	0.38074
0.35272	0.38074
0.91375	0.91640
0.42922	1.01843
0.27621	-2.62918
-0.13181	-1.96597
-0.28482	0.86539
-0.41233	1.78367
-0.28482	1.35003
0.37822	0.45726
0.19971	0.81437
0.65874	0.89089
0.65874	0.15117
0.35272	0.22769
-0.00431	-0.38449
-0.48884	-1.55785
-0.08081	-0.61406
-0.08081	-0.25695
0.17421	0.35523
0.53123	0.68683
0.42922	0.30422
0.02119	-0.00188
0.19971	0.15117
-0.25932	0.40625
0.02119	0.22769
0.73524	-0.05289
0.60773	0.07465
0.02119	0.12566
0.04670	0.25320
0.02119	0.15117
-0.08081	0.04914
-0.51434	0.15117
-0.48884	1.12046
0.12320	2.03874
1.21977	-0.33348
0.70974	-3.13933
0.53123	-2.34859
-0.43783	0.25320
0.48022	2.14077
0.02119	1.75816
-0.00431	1.24800
-0.10631	0.50828
-0.69285	0.61031
-0.08081	0.96742
0.96476	-0.66508
0.70974	-1.78742
-0.13181	-0.86914
-0.33583	-0.05289
-0.05531	0.35523
0.68424	0.55929
1.09226	0.99292
0.12320	0.76336
-0.10631	-0.10391
-0.43783	-0.58856
-0.05531	-0.61406
0.70974	0.27871
0.14870	0.68683
-0.10631	0.55929
-0.00431	0.58480
0.19971	0.48277
0.02119	0.55929
0.60773	0.27871
0.14870	-2.37410
0.30171	-1.04770
0.25071	0.10015
-0.28482	0.55929
-0.02981	1.45206
0.04670	0.99292
-0.13181	0.48277
-0.20832	1.06945
-0.02981	1.09496
0.32721	0.73785
0.42922	-0.46102
0.09770	-3.34339
0.17421	-2.09351
0.30171	-0.20594
0.58223	2.59991
0.45472	1.57960
1.47479	0.91640
-0.02981	-0.23145
-1.02437	-0.69059
-0.08081	-1.32828
0.04670	0.32972
-0.13181	1.60511
0.22521	1.35003
0.19971	0.15117
0.37822	-0.71609
-0.02981	0.22769
-0.25932	0.43176
-0.20832	-0.46102
0.40372	-0.58856
0.63323	-0.12942
0.30171	0.32972
0.68424	0.86539
0.91375	1.04394
0.32721	-0.51203
-0.08081	-0.38449
-0.38683	0.30422
-0.89686	-0.51203
-0.23382	-0.15492
-0.05531	-0.38449
0.78624	-0.23145
0.55673	0.86539
0.14870	1.24800
0.45472	0.89089
0.55673	0.71234
0.37822	0.30422
0.07220	0.20219
-0.13181	-0.56305
-0.28482	-0.74160
-0.38683	0.07465
0.07220	-0.56305
0.40372	-0.20594
0.17421	0.66132
0.48022	0.96742
-0.00431	-0.25695
0.02119	-0.35899
0.58223	0.25320
-0.02981	0.27871
-0.31033	0.81437
0.42922	1.19699
0.30171	0.61031
0.02119	-0.56305
0.02119	-3.11382
-0.18282	-1.63437
0.48022	1.19699
0.17421	1.14597
-0.41233	2.21730
0.60773	1.93671
0.42922	0.71234
-0.25932	-0.81812
-0.25932	-0.46102
0.30171	-0.12942
0.99026	0.53379
0.35272	-0.66508
-0.53984	-0.86914
-0.10631	-0.86914
-0.23382	0.32972
-0.02981	1.12046
0.17421	0.89089
0.68424	-0.25695
0.91375	-0.43551
0.53123	0.45726
-0.05531	0.68683
-0.10631	0.66132
-0.38683	-0.18043
0.07220	-0.33348
0.02119	0.02363
-0.00431	0.17668
0.02119	0.30422
0.27621	0.35523
0.40372	0.35523
0.40372	0.15117
0.02119	-0.92016
0.04670	0.35523
-0.28482	0.94191
0.83725	-0.23145
0.37822	-0.76711
-0.20832	0.12566
-0.08081	1.22250
-0.38683	0.50828
0.07220	-1.04770
0.53123	-0.69059
0.07220	-0.43551
0.12320	0.25320
0.35272	1.35003
0.17421	2.39585
0.25071	1.68163
-0.00431	-0.66508
-0.02981	-2.14453
0.48022	0.15117
0.65874	-0.02739
0.22521	-1.17523
0.22521	0.27871
-0.10631	0.86539
-0.28482	0.66132
-0.18282	0.96742
-0.18282	1.35003
0.30171	-0.51203
0.17421	-1.76191
0.48022	-1.17523
0.40372	-0.15492
-0.10631	0.38074
-0.10631	0.48277
0.53123	0.89089
0.93925	0.78886
0.42922	0.50828
-0.05531	0.81437
-0.74385	0.25320
-0.13181	-0.35899
-0.02981	-1.25176
0.25071	-0.15492
0.30171	0.07465
0.09770	0.22769
0.09770	-0.25695
0.42922	0.66132
0.40372	0.55929
-0.13181	1.04394
0.17421	1.32453
0.68424	-0.23145
-0.31033	-1.68539
-0.23382	-0.30797
-0.10631	-0.51203
0.32721	-0.00188
0.14870	1.01843
0.40372	0.58480
0.45472	1.35003
0.50573	1.47757
0.12320	0.50828
-0.20832	-1.81293
-0.38683	-3.36890
0.02119	-2.09351
0.86275	0.83988
0.27621	2.19179
-0.18282	2.08976
-0.20832	1.47757
0.02119	0.99292
-0.15732	0.55929
-0.00431	0.32972
0.22521	-1.20074
0.09770	-1.96597
0.22521	-1.40480
0.32721	0.32972
0.45472	1.17148
0.50573	0.86539
0.02119	1.35003
-0.02981	-0.02739
1.09226	-0.76711
-0.05531	-0.48652
-0.61635	-0.84363
-0.36133	-0.38449
0.40372	0.45726
0.50573	0.86539
0.30171	1.29902
-0.00431	0.99292
0.12320	0.89089
0.25071	-0.10391
-0.05531	-0.74160
-0.33583	-0.20594
-0.10631	0.45726
0.17421	0.58480
0.22521	-0.46102
0.50573	-0.30797
0.60773	0.17668
0.12320	-0.30797
0.07220	-0.66508
-0.02981	0.50828
0.12320	1.17148
-0.02981	1.35003
-0.02981	-0.18043
0.50573	-0.35899
0.02119	-0.20594
0.14870	-0.02739
0.58223	0.76336
0.45472	0.68683
0.14870	-0.43551
-0.02981	-0.74160
-0.61635	0.04914
-0.31033	0.12566
-0.05531	0.45726
0.45472	0.99292
0.65874	0.73785
0.68424	0.12566
-0.18282	-0.07840
-0.15732	-0.46102
0.53123	-0.23145
0.48022	0.12566
0.07220	0.04914
-0.15732	-0.15492
0.32721	0.25320
0.86275	0.15117
0.55673	0.27871
0.09770	0.81437
-0.84586	0.63582
0.19971	0.86539
-0.46334	0.81437
-0.46334	-1.30277
0.12320	-1.71090
-0.41233	-1.55785
0.96476	0.45726
0.45472	1.47757
0.35272	1.55410
0.42922	0.81437
0.70974	-0.00188
0.30171	-0.23145
0.09770	0.53379
0.30171	0.45726
0.07220	-0.12942
-0.00431	0.76336
-0.10631	-0.02739
-0.46334	-1.53234
-0.00431	-2.78222
0.09770	-0.05289
0.37822	1.35003
0.19971	1.14597
0.07220	1.27351
0.07220	1.17148
0.25071	0.81437
0.35272	0.63582
0.42922	0.35523
0.30171	-0.10391
-0.23382	-0.53754
-0.13181	-1.73640
-0.28482	-0.79262
0.22521	0.45726
0.35272	0.50828
0.48022	0.45726
0.35272	0.76336
0.17421	0.63582
-0.00431	0.58480
-0.08081	-0.86914
-0.38683	-1.50683
-0.10631	-1.50683
0.73524	0.63582
0.32721	1.47757
0.35272	1.93671
0.14870	1.19699
0.25071	0.99292
-0.41233	-0.28246
-0.00431	-0.63957
0.53123	0.15117
0.30171	0.12566
-0.05531	-0.30797
-0.15732	-0.12942
0.32721	0.45726
-0.41233	0.12566
0.73524	0.10015
0.78624	-0.02739
-0.18282	-0.35899
-0.46334	-0.53754
-0.10631	-0.05289
0.07220	0.48277
0.70974	0.71234
0.88825	0.66132
0.12320	0.48277
-0.71835	0.04914
0.70974	-0.46102
0.35272	0.25320
-0.59084	-0.20594
-0.48884	-0.38449
-0.10631	0.17668
0.48022	0.50828
0.37822	0.22769
0.35272	1.24800
0.27621	1.04394
0.22521	0.17668
0.02119	-2.19554
0.12320	-0.89465
0.14870	1.01843
0.30171	1.55410
0.42922	1.45206
0.09770	0.55929
-0.08081	-2.14453
0.19971	-2.06800
0.09770	0.43176
0.09770	0.91640
0.02119	0.86539
-0.23382	-0.41000
-0.00431	0.63582
0.07220	0.45726
0.12320	1.14597
0.60773	0.61031
0.30171	-0.33348
0.04670	0.02363
0.22521	-0.23145
0.45472	-0.02739
0.42922	0.07465
-0.66735	-0.66508
0.81175	-0.35899
0.83725	0.22769
-0.23382	0.04914
-0.59084	0.04914
-0.25932	0.73785
-0.25932	-0.00188
-0.02981	0.35523
0.09770	1.17148
0.19971	1.04394
0.32721	-0.15492
0.40372	-0.66508
0.50573	-0.20594
0.53123	0.45726
0.02119	0.40625
0.14870	0.17668
0.19971	-0.18043
0.91375	-0.51203
0.45472	-0.23145
-0.10631	0.63582
-0.53984	0.45726
-0.10631	-0.05289
-0.28482	0.04914
-0.18282	0.40625
-0.71835	0.96742
0.88825	0.76336
0.53123	-0.20594
0.02119	-1.32828
0.07220	-0.63957
0.40372	-1.83844
0.42922	-0.33348
0.14870	2.01323
-0.05531	2.14077
0.60773	0.15117
0.32721	0.71234
0.19971	0.50828
-0.31033	0.22769
-0.05531	0.27871
-0.18282	0.04914
-0.13181	-0.43551
-0.31033	-0.58856
-0.23382	-0.18043
0.32721	-0.48652
0.81175	-0.28246
0.42922	-0.07840
0.83725	0.43176
0.48022	0.15117
-0.20832	0.25320
-0.61635	0.66132
0.60773	0.89089
0.22521	0.86539
-0.28482	-0.35899
-0.20832	-1.88945
-0.10631	-1.14973
0.19971	-0.30797
0.73524	1.42656
0.17421	1.73265
-0.28482	1.45206
0.19971	1.32453
0.58223	0.94191
0.04670	-0.89465
0.02119	-0.56305
-0.10631	0.20219
0.35272	0.53379
0.53123	-0.51203
-0.43783	-2.62918
-0.28482	-0.63957
0.07220	0.73785
0.25071	1.17148
0.42922	1.04394
0.68424	0.91640
0.30171	0.45726
-0.10631	0.02363
-0.02981	-0.15492
0.14870	-0.15492
0.12320	-0.28246
0.09770	0.10015
0.14870	0.10015
0.12320	0.96742
-0.08081	-0.07840
0.07220	-1.02219
0.48022	-1.04770
0.02119	0.15117
-0.38683	0.17668
0.09770	-0.05289
-0.36133	1.24800
0.68424	1.52859
0.63323	1.40105
0.45472	0.38074
0.76074	0.35523
-0.00431	-0.53754
-0.31033	-1.43031
-0.28482	-0.15492
-0.18282	0.15117
-0.18282	0.20219
0.07220	0.02363
0.25071	0.30422
0.19971	0.83988
0.35272	1.45206
1.19427	-0.38449
1.24527	-1.58336
-0.28482	-1.55785
-0.51434	-0.99668
-0.46334	0.86539
-0.23382	1.29902
0.37822	0.91640
0.25071	0.76336
0.42922	0.89089
0.37822	0.71234
0.09770	0.35523
-0.20832	-0.46102
-0.00431	-0.25695
0.12320	-0.66508
0.37822	-0.51203
0.53123	0.22769
0.48022	0.43176
0.30171	0.15117
-0.31033	-0.25695
-0.05531	0.07465
-0.20832	0.76336
0.22521	1.17148
0.25071	-0.30797
0.25071	-0.71609
-0.28482	-0.33348
-0.10631	-0.02739
0.12320	0.38074
0.58223	0.71234
0.27621	0.66132
0.53123	0.55929
0.50573	0.20219
0.37822	0.45726
0.07220	-0.43551
-0.46334	-0.58856
-0.18282	-0.15492
0.12320	-1.68539
0.19971	-0.07840
0.02119	1.06945
0.93925	1.17148
0.30171	0.73785
-0.25932	1.14597
-0.10631	0.35523
0.30171	-0.28246
0.37822	-1.04770
0.12320	-0.53754
0.22521	0.50828
-0.79486	-0.15492
0.60773	-0.18043
1.04126	0.43176
0.22521	0.99292
-0.28482	0.58480
-0.48884	0.32972
0.07220	0.35523
-0.05531	0.15117
0.22521	0.12566
0.27621	-0.15492
0.04670	0.04914
0.32721	0.38074
0.53123	-0.56305
0.50573	-1.09871
-0.00431	-1.40480
-0.23382	-0.84363
0.04670	1.50308
0.09770	1.75816
-0.02981	1.32453
0.27621	1.42656
0.40372	0.66132
-0.18282	-0.48652
0.12320	0.20219
0.32721	-0.28246
0.17421	-2.06800
0.17421	-0.56305
0.12320	0.76336
0.04670	0.81437
-0.08081	0.86539
0.22521	1.17148
0.86275	-0.30797
0.19971	0.55929
-0.15732	-0.53754
0.02119	-1.17523
-0.05531	-1.83844
0.07220	-0.35899
-0.13181	1.27351
0.02119	1.73265
0.27621	1.68163
0.65874	0.81437
0.42922	-0.05289
0.04670	-0.81812
-0.00431	0.07465
-0.05531	0.63582
0.30171	0.38074
-0.18282	-1.07320
-0.08081	-0.35899
0.65874	-0.84363
0.14870	0.22769
-0.10631	-0.38449
0.25071	0.89089
0.09770	1.27351
0.42922	1.17148
0.25071	0.22769
0.40372	0.10015
0.30171	-0.30797
-0.23382	-0.66508
-0.23382	0.38074
-0.08081	0.94191
0.19971	-0.12942
0.02119	-0.58856
0.07220	0.10015
0.65874	0.38074
0.99026	1.42656
0.27621	0.73785
0.14870	-1.27726
0.02119	-2.75671
-0.38683	-2.62918
-0.48884	0.32972
-0.15732	2.39585
0.07220	2.34484
0.42922	2.01323
0.63323	1.63062
0.42922	1.14597
0.17421	0.66132
0.02119	-1.76191
-0.05531	-2.57816
0.07220	-0.18043
0.30171	0.17668
0.04670	0.12566
-0.18282	0.10015
0.42922	0.25320
0.48022	0.45726
0.17421	0.63582
0.19971	0.89089
-0.31033	0.71234
-0.20832	0.38074
-0.02981	-1.30277
0.50573	-2.39961
0.19971	-0.99668
-0.20832	0.50828
0.63323	1.98773
0.32721	1.73265
0.60773	1.17148
-0.00431	0.66132
-0.10631	0.43176
-0.13181	0.04914
0.65874	-1.02219
0.27621	-1.45582
-0.18282	0.17668
0.09770	0.68683
0.22521	0.43176
0.35272	0.32972
0.63323	0.45726
0.48022	0.71234
-0.13181	0.22769
-0.28482	-1.12422
-0.33583	-2.70570
-0.05531	0.12566
-0.02981	0.94191
0.32721	1.40105
0.19971	1.17148
0.25071	-0.53754
0.53123	-0.38449
0.65874	1.04394
0.14870	0.04914
-0.28482	-0.28246
-0.33583	-0.02739
-0.10631	0.89089
0.35272	1.35003
0.60773	0.89089
0.17421	0.22769
-0.18282	-1.43031
-0.00431	-1.43031
0.32721	0.22769
0.04670	1.09496
0.48022	0.63582
0.45472	0.02363
-0.15732	-0.23145
-0.23382	-0.46102
0.12320	0.30422
1.37278	0.89089
0.19971	0.25320
-0.51434	-0.46102
-0.28482	-0.10391
0.19971	0.50828
0.37822	0.50828
-0.00431	-0.18043
-0.20832	-0.35899
-0.33583	-0.02739
1.01576	0.66132
0.58223	1.40105
-0.13181	0.66132
0.58223	-0.69059
0.73524	-0.61406
0.17421	-0.15492
-0.28482	-0.43551
-0.61635	-0.02739
-0.59084	0.43176
0.07220	1.12046
0.17421	1.17148
0.12320	1.68163
0.35272	1.09496
0.60773	-1.99148
0.60773	-3.31788
0.53123	-0.46102
0.14870	0.61031
-0.18282	0.83988
-0.28482	1.19699
-0.15732	0.86539
0.30171	0.71234
0.27621	0.89089
0.35272	0.83988
0.09770	0.43176
-0.05531	-0.33348
0.37822	-0.58856
0.02119	-0.53754
0.27621	-0.28246
0.02119	-1.07320
-0.23382	-1.37929
-0.15732	0.22769
0.19971	1.09496
0.60773	1.45206
0.63323	1.04394
0.53123	0.20219
0.17421	-0.86914
-0.20832	-0.20594
-0.25932	0.15117
-0.02981	1.06945
-0.18282	1.12046
0.22521	0.40625
-0.00431	-0.00188
0.14870	-0.23145
0.68424	-0.97117
1.11776	0.50828
0.19971	1.24800
-0.66735	-1.45582
-0.23382	-2.55265
-0.23382	0.07465
0.22521	1.73265
0.68424	2.01323
0.17421	1.29902
0.81175	0.40625
0.22521	0.10015
-0.02981	-0.46102
0.53123	0.45726
-0.36133	0.30422
-0.20832	-0.76711
0.07220	-0.38449
0.02119	-0.63957
-0.00431	-0.23145
0.12320	0.96742
0.32721	0.32972
0.04670	-0.38449
0.30171	0.27871
0.40372	1.22250
0.04670	0.81437
-0.23382	0.17668
0.42922	-0.58856
0.17421	0.10015
0.02119	-0.20594
0.04670	0.50828
0.37822	0.50828
0.37822	0.04914
-0.28482	-1.37929
0.73524	-0.28246
0.58223	-0.33348
-0.05531	0.73785
-0.08081	0.76336
0.02119	0.66132
0.30171	0.94191
0.22521	0.78886
-0.05531	0.25320
0.14870	-0.18043
0.02119	-0.92016
-0.28482	-0.74160
-0.20832	0.25320
-0.00431	0.35523
0.35272	-0.89465
0.58223	-0.76711
0.37822	-0.05289
0.07220	1.42656
0.02119	1.78367
0.48022	0.83988
0.42922	0.02363
0.32721	0.07465
-0.23382	-0.58856
-0.31033	-0.53754
-0.08081	0.04914
0.32721	0.07465
0.58223	0.73785
0.19971	0.76336
0.07220	0.58480
0.35272	0.27871
0.35272	-0.23145
-0.10631	-1.17523
-0.59084	-1.20074
-0.20832	-0.00188
-0.10631	0.45726
0.27621	0.63582
0.42922	-0.20594
0.50573	0.83988
0.30171	0.81437
0.65874	-0.46102
0.17421	0.25320
0.14870	0.30422
-0.08081	0.12566
-0.18282	0.30422
-0.08081	0.40625
0.14870	0.35523
0.37822	0.45726
0.40372	0.61031
0.19971	0.48277
-0.00431	0.43176
0.12320	-0.41000
0.19971	-0.97117
0.17421	-0.99668
0.17421	-0.02739
-0.20832	0.68683
0.02119	0.53379
0.32721	1.04394
0.07220	0.81437
0.42922	-1.27726
0.45472	-1.48133
0.12320	0.83988
0.22521	0.91640
0.02119	0.02363
-0.36133	-0.02739
-0.15732	-0.30797
-0.00431	0.89089
0.32721	1.75816
0.30171	0.96742
0.19971	-1.27726
0.30171	-0.43551
0.14870	0.45726
-0.00431	0.45726
0.07220	0.02363
0.30171	-0.23145
0.37822	-0.00188
0.58223	-0.23145
-0.66735	-0.18043
0.17421	-0.12942
0.30171	-0.61406
0.63323	0.40625
0.04670	1.19699
-0.08081	0.96742
0.19971	-0.38449
0.22521	-0.48652
-0.13181	-0.00188
0.27621	0.40625
0.45472	0.68683
0.07220	0.81437
0.12320	0.96742
0.02119	-0.20594
-0.02981	-0.61406
0.19971	0.32972
0.02119	-0.56305
0.58223	0.40625
0.09770	0.38074
-0.20832	-1.58336
0.25071	0.27871
0.27621	1.22250
0.07220	1.14597
0.07220	0.15117
0.27621	-0.79262
0.27621	0.89089
0.02119	0.45726
0.19971	-0.86914
0.14870	-0.10391
0.19971	0.17668
0.32721	0.63582
0.12320	-0.12942
-0.02981	-0.07840
0.02119	-0.05289
0.19971	-0.18043
-0.10631	0.48277
0.35272	0.63582
0.12320	0.32972
-0.08081	0.63582
0.12320	0.22769
0.32721	-2.04250
0.04670	-1.81293
0.40372	0.38074
0.60773	1.60511
0.25071	1.52859
-0.18282	0.73785
-0.48884	-0.02739
-0.31033	-0.05289
0.17421	0.15117
0.17421	-0.02739
0.27621	0.12566
0.22521	0.17668
0.17421	-0.02739
0.27621	-0.20594
-0.38683	-0.38449
0.73524	-0.76711
0.60773	0.15117
-0.18282	0.63582
-0.18282	-0.10391
-0.13181	0.02363
-0.05531	0.50828
0.14870	0.83988
0.42922	1.24800
0.30171	0.66132
0.22521	-0.28246
0.12320	-0.76711
-0.02981	0.04914
0.02119	-0.00188
0.25071	-1.20074
-0.36133	0.25320
0.37822	0.27871
0.30171	0.86539
0.04670	0.94191
0.25071	0.27871
0.37822	0.15117
0.30171	-0.02739
0.02119	0.30422
0.07220	0.04914
0.02119	0.04914
-0.02981	0.30422
-0.15732	0.20219
-0.02981	-1.45582
0.27621	-0.33348
0.37822	1.19699
0.32721	0.53379
0.48022	-0.43551
0.53123	0.15117
0.27621	0.66132
0.07220	0.71234
0.12320	0.27871
-0.23382	-0.20594
-0.31033	-0.00188
-0.00431	0.45726
0.04670	-0.12942
0.25071	-0.23145
0.45472	0.17668
0.50573	0.32972
0.02119	0.32972
-0.02981	0.12566
0.25071	0.10015
-0.08081	-0.58856
-0.15732	0.02363
0.02119	-0.28246
0.09770	0.32972
0.37822	1.04394
1.09226	0.66132
0.32721	-0.02739
-0.28482	0.53379
-0.05531	0.86539
-0.33583	-0.25695
0.68424	-1.50683
1.21977	-0.35899
-0.36133	1.12046
-0.00431	0.96742
0.02119	1.32453
-0.15732	1.27351
-0.08081	-0.58856
-0.05531	-1.60887
0.09770	-0.53754
0.02119	-0.02739
0.32721	-0.02739
0.07220	-1.04770
0.22521	1.06945
0.32721	1.57960
0.02119	1.29902
0.25071	0.81437
0.32721	0.30422
0.19971	0.15117
-0.18282	-0.20594
0.25071	-1.20074
0.30171	-0.74160
0.58223	-0.02739
0.19971	0.32972
-0.00431	0.40625
-0.18282	0.38074
-0.08081	0.17668
0.22521	0.27871
-0.13181	0.40625
0.32721	0.17668
0.07220	0.20219
-0.13181	0.20219
-0.02981	0.15117
0.27621	0.20219
0.48022	-0.23145
0.50573	-0.33348
0.42922	0.20219
-0.05531	0.66132
0.02119	0.55929
0.22521	-0.76711
0.04670	-0.46102
0.02119	0.43176
0.14870	0.76336
0.17421	0.91640
0.07220	0.27871
0.04670	0.20219
-0.05531	0.20219
-0.08081	-0.53754
-0.00431	-0.79262
0.50573	0.12566
0.68424	0.32972
-0.28482	0.50828
0.50573	-0.02739
0.14870	0.04914
-0.08081	0.38074
-0.18282	0.04914
0.30171	0.15117
0.22521	0.38074
0.27621	0.66132
-0.02981	-0.05289
-0.02981	-0.53754
-0.13181	0.22769
0.07220	0.55929
0.40372	0.30422
1.11776	0.15117
-0.02981	0.17668
-0.05531	0.43176
0.22521	0.35523
0.32721	-0.07840
0.09770	-0.76711
-0.31033	-0.84363
-0.08081	0.22769
0.25071	0.73785
0.45472	0.10015
0.19971	0.15117
0.04670	0.68683
-0.05531	-0.20594
-0.23382	0.04914
-0.10631	0.83988
-0.08081	0.50828
0.30171	0.25320
0.45472	0.38074
0.50573	-0.00188
0.25071	-0.28246
0.58223	-0.00188
0.45472	0.40625
0.35272	0.76336
-0.31033	0.63582
-0.13181	-1.48133
-0.33583	-2.09351
-0.25932	-0.48652
0.07220	1.01843
0.17421	1.96222
0.65874	1.68163
0.58223	0.10015
0.22521	0.04914
0.12320	0.50828
-0.28482	0.76336
-0.10631	-0.07840
0.07220	-1.50683
-0.18282	-1.09871
0.32721	0.63582
0.42922	0.83988
0.45472	0.17668
-0.08081	-1.27726
0.55673	0.96742
0.58223	1.06945
-0.13181	0.40625
-0.61635	0.07465
-0.46334	-0.79262
0.12320	0.20219
0.58223	0.02363
0.40372	0.10015
0.14870	1.14597
0.09770	1.14597
0.07220	0.55929
0.32721	-0.10391
0.35272	-0.74160
0.32721	-0.56305
0.19971	-0.35899
-0.20832	0.10015
-0.08081	0.86539
0.02119	0.83988
0.22521	-0.02739
0.63323	0.20219
-0.13181	-1.02219
0.04670	0.63582
0.32721	0.02363
0.50573	-0.63957
0.32721	0.58480
-0.08081	-0.35899
-0.05531	0.07465
-0.41233	0.89089
0.73524	0.50828
-0.13181	0.32972
0.14870	0.55929
0.37822	0.71234
0.04670	0.50828
0.07220	0.25320
0.07220	-0.28246
0.27621	-0.71609
0.32721	-0.81812
0.25071	-0.10391
0.25071	0.55929
0.22521	0.50828
-0.13181	-0.92016
-0.18282	-0.41000
0.27621	0.99292
0.45472	1.17148
0.22521	0.68683
0.17421	-0.33348
0.07220	-0.58856
0.25071	0.32972
0.22521	-0.20594
0.04670	0.07465
0.17421	0.66132
0.25071	0.27871
-0.15732	0.20219
-0.71835	0.53379
0.63323	0.63582
0.42922	-0.00188
0.17421	-0.10391
0.27621	0.17668
-0.08081	-0.15492
0.07220	-1.02219
0.53123	0.45726
0.30171	0.81437
0.04670	0.55929
-0.00431	0.40625
-0.02981	-0.56305
-0.18282	-0.92016
0.09770	-0.07840
0.45472	0.45726
0.40372	-0.15492
0.12320	0.71234
0.07220	0.86539
-0.08081	0.71234
0.22521	0.30422
-0.08081	-0.02739
0.14870	-0.05289
-0.05531	0.02363
0.17421	0.07465
0.30171	-0.35899
0.63323	0.10015
0.50573	0.43176
-0.05531	-0.07840
-0.31033	0.10015
0.09770	0.94191
-0.05531	1.19699
-0.13181	0.45726
0.02119	-2.98628
0.45472	-4.03210
0.14870	-0.41000
0.12320	2.31933
0.53123	3.05905
0.22521	2.19179
0.12320	0.91640
0.17421	1.14597
0.14870	-0.23145
0.07220	-0.86914
0.25071	0.02363
-0.18282	-0.41000
-0.05531	-0.69059
0.09770	-0.10391
0.35272	0.04914
0.27621	0.25320
0.04670	0.35523
0.07220	0.25320
0.17421	-0.05289
0.19971	-0.41000
0.07220	-0.30797
0.32721	-0.58856
0.48022	0.55929
0.04670	1.29902
0.25071	0.99292
-0.02981	0.50828
-0.08081	0.35523
0.02119	0.10015
0.22521	-0.20594
-0.08081	-0.35899
0.02119	0.27871
0.30171	0.53379
0.30171	0.63582
-0.05531	-1.55785
0.02119	-1.09871
0.45472	0.43176
0.50573	0.71234
-0.08081	0.35523
-0.23382	0.35523
0.19971	0.78886
0.25071	0.66132
0.40372	0.50828
0.25071	-0.86914
-0.08081	-1.22625
0.02119	0.15117
0.17421	0.81437
0.25071	1.19699
0.27621	1.45206
-0.05531	-0.10391
-0.08081	-0.53754
-0.08081	-0.51203
0.25071	-0.25695
0.73524	-0.05289
0.50573	0.63582
0.04670	0.86539
-0.38683	0.04914
0.12320	0.30422
-0.31033	0.15117
0.27621	-0.30797
0.37822	-0.18043
0.12320	-0.05289
0.30171	0.40625
-0.00431	0.71234
-0.10631	0.17668
0.25071	-0.00188
0.04670	0.15117
0.22521	0.17668
0.32721	-0.15492
0.22521	-0.35899
-0.05531	-0.15492
0.02119	0.61031
0.04670	0.35523
0.12320	0.04914
-0.05531	0.30422
0.04670	0.91640
0.25071	0.68683
0.30171	-0.38449
0.14870	-0.86914
0.27621	-0.00188
-0.08081	0.50828
-0.15732	-0.81812
0.07220	-0.02739
0.09770	0.91640
0.53123	1.47757
0.60773	0.89089
-0.05531	-0.46102
0.09770	0.02363
0.25071	0.40625
-0.33583	-0.02739
-0.28482	-0.23145
-0.08081	0.22769
0.42922	1.12046
0.58223	0.15117
0.42922	-1.45582
0.17421	-3.16484
0.07220	-0.46102
0.12320	1.29902
0.09770	1.75816
-0.08081	1.40105
-0.15732	0.99292
-0.38683	0.71234
0.65874	0.45726
0.60773	-0.12942
0.12320	-0.86914
0.02119	-0.41000
0.04670	0.38074
0.22521	0.32972
0.19971	-0.89465
0.17421	-0.25695
-0.13181	0.55929
-0.20832	0.38074
-0.08081	0.17668
-0.08081	0.55929
0.32721	0.68683
0.76074	0.50828
0.48022	-0.00188
0.09770	-1.07320
-0.02981	-1.32828
-0.23382	0.32972
-0.13181	0.53379
0.22521	1.06945
0.27621	1.04394
0.45472	1.06945
0.70974	0.66132
0.42922	0.68683
0.07220	-0.05289
-0.15732	-1.50683
-0.33583	-0.97117
-0.25932	-0.61406
-0.08081	-0.10391
0.09770	0.50828
0.19971	1.40105
0.32721	0.96742
0.37822	0.55929
0.14870	-0.84363
0.42922	-0.43551
0.32721	0.30422
0.27621	0.66132
-0.00431	0.53379
-0.18282	-0.38449
-0.02981	-0.33348
0.40372	-0.00188
-0.08081	0.02363
0.07220	0.10015
0.07220	0.38074
0.19971	0.43176
0.07220	0.25320
0.30171	0.48277
0.27621	0.48277
0.14870	0.17668
-0.18282	0.02363
0.17421	-0.10391
0.32721	-0.18043
0.40372	-0.02739
0.09770	0.20219
0.27621	0.25320
0.30171	0.45726
-0.02981	0.30422
-0.18282	-0.38449
-0.05531	-0.58856
-0.36133	-0.69059
0.12320	-0.18043
-0.02981	0.55929
0.37822	1.40105
1.14327	1.17148
0.65874	1.27351
-0.23382	-0.99668
0.02119	-1.27726
-0.02981	-0.28246
-0.05531	0.43176
0.09770	0.58480
0.27621	0.15117
0.50573	0.53379
0.30171	0.76336
0.12320	0.66132
0.09770	0.22769
-0.25932	-0.41000
-0.18282	-0.38449
0.09770	-0.23145
0.12320	-0.33348
-0.02981	-0.41000
0.09770	0.25320
0.48022	0.30422
0.42922	-0.00188
0.22521	0.55929
0.17421	0.40625
0.35272	0.55929
0.32721	0.43176
-0.13181	0.04914
-0.08081	-0.25695
-0.36133	-0.81812
0.09770	-0.23145
0.55673	0.40625
0.09770	0.61031
0.19971	0.68683
0.04670	0.22769
0.04670	0.61031
0.27621	0.30422
0.40372	0.32972
-0.10631	-0.48652
0.04670	-0.43551
0.32721	-0.00188
0.22521	0.55929
-0.00431	-0.10391
0.07220	-0.07840
0.22521	0.53379
0.12320	1.01843
-0.00431	0.53379
0.32721	-1.53234
0.07220	-1.04770
0.14870	-0.25695
0.14870	0.55929
0.12320	0.94191
0.17421	1.14597
0.19971	0.91640
0.32721	0.96742
0.25071	0.35523
-0.02981	-0.48652
0.19971	-0.51203
0.42922	-0.15492
0.02119	-0.74160
0.09770	-0.61406
-0.08081	0.45726
0.02119	0.66132
-0.08081	0.78886
0.35272	0.91640
0.88825	0.07465
0.12320	-0.43551
-0.08081	-0.28246
0.30171	-1.27726
-0.20832	-0.61406
-0.10631	0.86539
0.14870	0.94191
0.32721	0.55929
0.19971	0.71234
0.09770	0.83988
0.02119	0.71234
0.19971	0.58480
0.48022	0.55929
0.25071	-0.25695
-0.05531	-0.56305
0.07220	-1.78742
0.07220	-1.25176
0.09770	-0.51203
0.19971	0.73785
0.19971	1.45206
0.45472	1.24800
0.04670	0.61031
0.12320	0.50828
-0.20832	0.40625
0.09770	0.43176
0.45472	0.04914
0.37822	-0.58856
-0.02981	-1.91496
-0.02981	-1.14973
0.07220	0.53379
0.12320	1.29902
0.07220	0.91640
0.04670	0.86539
0.07220	0.68683
0.19971	-0.02739
0.07220	-0.25695
0.65874	0.04914
0.86275	0.04914
-0.28482	0.48277
-0.05531	-0.23145
-0.48884	-0.97117
0.22521	-1.32828
0.19971	0.10015
0.12320	1.40105
0.02119	1.14597
0.07220	1.04394
0.12320	0.73785
0.53123	0.40625
0.48022	-0.28246
0.14870	-0.81812
0.04670	-0.61406
0.12320	-0.02739
0.14870	0.53379
0.04670	0.43176
-0.02981	0.17668
0.07220	-0.25695
0.09770	-0.15492
0.55673	0.94191
0.07220	-0.05289
-0.28482	-1.12422
0.04670	-1.25176
0.09770	0.94191
0.53123	1.47757
0.48022	1.22250
0.17421	0.89089
0.19971	0.58480
0.02119	0.15117
-0.02981	-0.43551
0.09770	-0.30797
0.12320	0.10015
-0.15732	-0.18043
0.27621	-0.28246
0.65874	-0.25695
0.42922	-0.10391
0.22521	0.15117
0.04670	0.38074
-0.08081	0.68683
0.09770	0.50828
-0.15732	-0.20594
-0.28482	-0.94566
-0.08081	0.04914
0.04670	0.63582
0.37822	0.66132
0.12320	0.66132
0.04670	0.83988
0.32721	0.83988
0.42922	0.68683
0.63323	-0.56305
0.63323	-2.04250
0.19971	-1.25176
-0.05531	0.17668
-0.20832	0.86539
-0.10631	0.78886
-0.23382	1.27351
-0.08081	0.73785
-0.02981	0.50828
0.17421	0.83988
0.48022	0.45726
0.53123	-0.43551
0.68424	-1.25176
-0.15732	-1.02219
-0.18282	-0.20594
-0.15732	0.22769
0.14870	0.45726
0.17421	0.50828
0.14870	0.50828
0.07220	0.30422
0.19971	0.12566
0.09770	0.22769
0.07220	-0.18043
0.12320	0.04914
0.27621	0.40625
0.17421	0.38074
0.07220	0.12566
0.37822	-0.00188
0.04670	0.04914
-0.00431	-0.05289
-0.10631	0.48277
0.09770	0.66132
0.27621	0.15117
0.27621	-0.15492
-0.02981	0.10015
0.12320	0.25320
0.22521	0.15117
0.07220	-0.12942
0.50573	-0.10391
0.09770	0.10015
0.17421	0.40625
0.19971	0.30422
0.12320	0.12566
0.27621	0.53379
0.25071	0.04914
-0.05531	0.15117
-0.33583	-0.18043
-0.18282	-0.05289
0.02119	0.15117
0.32721	0.73785
0.48022	0.99292
0.27621	-0.15492
0.12320	-0.71609
0.14870	0.15117
0.09770	0.22769
0.17421	0.50828
-0.10631	-0.05289
0.17421	0.07465
0.04670	0.02363
0.12320	0.17668
0.12320	0.22769
0.32721	0.48277
0.12320	0.10015
-0.00431	-0.30797
0.25071	0.04914
0.40372	0.20219
0.12320	0.20219
-0.13181	0.17668
0.12320	0.40625
0.14870	0.61031
0.27621	0.38074
0.32721	0.15117
0.02119	0.15117
0.09770	0.10015
0.27621	0.32972
0.12320	0.27871
0.25071	-0.35899
0.02119	-1.25176
0.17421	-0.86914
0.12320	0.45726
0.25071	0.53379
0.22521	0.91640
0.19971	0.89089
0.27621	0.63582
-0.00431	0.17668
-0.23382	0.02363
-0.13181	-0.20594
0.14870	0.04914
0.09770	0.30422
0.19971	0.53379
0.30171	-0.38449
0.63323	-1.43031
0.07220	0.35523
0.96476	0.94191
0.32721	0.73785
-0.23382	0.40625
-0.38683	0.07465
-0.53984	-0.41000
-0.33583	0.07465
0.14870	0.91640
0.40372	-0.18043
0.09770	-1.76191
0.42922	0.02363
0.55673	1.01843
0.30171	0.91640
-0.00431	0.12566
0.40372	0.12566
0.02119	0.15117
-0.10631	0.45726
0.14870	0.22769
0.53123	-0.10391
0.37822	-0.58856
0.12320	-0.02739
-0.23382	0.76336
-0.05531	0.71234
-0.15732	0.15117
-0.23382	-0.12942
-0.13181	-0.12942
0.09770	0.02363
0.45472	0.15117
0.63323	0.32972
0.58223	0.30422
0.40372	0.32972
-0.20832	-0.00188
-0.05531	-0.10391
0.04670	0.02363
0.27621	0.32972
0.32721	-0.48652
0.02119	-0.30797
-0.15732	0.43176
-0.10631	0.12566
0.02119	0.83988
0.19971	1.63062
0.27621	-0.05289
0.14870	-1.60887
0.12320	-0.25695
0.17421	0.17668
0.12320	0.38074
0.09770	0.48277
0.45472	0.55929
0.27621	0.71234
0.22521	0.99292
0.32721	0.66132
0.25071	-0.02739
-0.33583	-1.78742
-0.38683	-1.43031
-0.28482	-0.58856
0.09770	0.48277
0.40372	1.06945
0.42922	0.96742
0.22521	-0.00188
0.07220	0.12566
0.32721	0.35523
0.27621	0.35523
-0.10631	0.45726
-0.15732	0.30422
-0.13181	-0.05289
0.32721	0.10015
0.19971	0.20219
-0.05531	0.04914
-0.23382	-0.10391
0.76074	-0.20594
0.65874	0.30422
0.22521	0.10015
-0.02981	0.12566
-0.23382	0.15117
-0.05531	-0.33348
0.09770	-0.00188
-0.08081	0.35523
-0.08081	0.25320
0.25071	0.48277
0.22521	0.63582
0.35272	0.58480
0.45472	-0.05289
0.42922	0.48277
-0.02981	0.02363
0.07220	-2.27207
-0.00431	-0.46102
-0.02981	0.96742
0.22521	1.01843
0.30171	0.89089
0.22521	0.89089
0.32721	0.55929
0.12320	0.04914
-0.00431	-0.15492
-0.46334	0.25320
0.35272	0.20219
0.68424	-0.18043
0.19971	-0.89465
-0.02981	-0.51203
0.07220	-0.46102
0.17421	0.02363
0.09770	0.73785
-0.00431	0.78886
0.07220	0.20219
0.17421	0.02363
-0.08081	0.15117
-0.15732	0.27871
0.14870	0.71234
0.25071	0.25320
0.68424	0.10015
0.37822	-0.18043
0.35272	-0.02739
0.37822	0.38074
-0.18282	-0.07840
-0.13181	0.40625
-0.10631	0.04914
0.27621	0.30422
0.30171	0.30422
0.04670	-0.07840
0.04670	0.15117
0.19971	-0.05289
0.32721	0.15117
0.12320	0.68683
-0.33583	0.61031
-0.08081	-0.23145
-0.08081	-0.99668
0.02119	-0.71609
0.53123	0.83988
0.68424	0.76336
0.32721	0.78886
0.30171	0.38074
0.17421	0.94191
0.02119	0.22769
0.02119	-0.23145
-0.15732	-0.66508
0.07220	-0.56305
0.53123	0.04914
0.22521	0.32972
-0.18282	0.73785
-0.10631	0.45726
0.14870	-0.56305
0.25071	-0.18043
0.25071	0.38074
-0.00431	0.48277
0.30171	0.53379
0.53123	0.38074
-0.25932	0.04914
-0.20832	0.35523
0.32721	0.20219
0.30171	0.12566
0.19971	0.04914
0.22521	0.04914
0.07220	-0.12942
-0.05531	0.27871
0.12320	0.35523
0.45472	-0.00188
0.07220	-0.48652
0.07220	-1.17523
0.04670	0.04914
0.50573	0.86539
0.19971	0.99292
0.09770	0.91640
-0.20832	0.76336
-0.13181	0.32972
-0.00431	0.02363
0.22521	-0.58856
0.27621	-0.74160
0.30171	0.10015
0.12320	1.06945
0.32721	-0.15492
0.37822	-1.37929
0.17421	0.30422
-0.02981	0.66132
-0.10631	1.22250
0.02119	0.86539
0.35272	0.04914
-0.02981	-0.00188
0.25071	-0.00188
0.02119	0.30422
0.35272	-0.02739
0.63323	0.15117
0.14870	-0.07840
-0.23382	-0.33348
-0.36133	0.15117
-0.02981	0.04914
0.09770	0.32972
0.19971	-0.02739
-0.23382	-0.92016
0.35272	-2.01699
0.50573	0.58480
0.22521	1.78367
-0.13181	1.86019
0.30171	1.37554
0.30171	0.76336
0.09770	0.02363
0.19971	0.02363
0.09770	-0.33348
-0.10631	-0.71609
0.07220	-0.81812
0.17421	-0.25695
-0.08081	0.20219
-0.10631	0.40625
0.40372	0.17668
0.45472	0.38074
0.09770	0.35523
0.09770	0.04914
-0.18282	-0.02739
-0.00431	0.22769
0.22521	0.32972
0.35272	0.38074
0.32721	-0.23145
0.07220	-0.25695
-0.02981	-0.84363
0.04670	0.30422
0.17421	0.58480
0.12320	0.22769
0.04670	0.94191
0.25071	1.32453
0.25071	1.14597
0.04670	0.35523
0.17421	-0.33348
0.12320	-0.71609
0.35272	-0.43551
0.07220	-0.23145
-0.20832	-0.25695
0.14870	0.10015
0.12320	0.10015
0.25071	0.22769
0.25071	0.38074
0.07220	0.32972
0.45472	0.02363
0.50573	0.20219
-0.20832	0.04914
-0.15732	0.04914
0.07220	0.25320
-0.10631	0.25320
-0.00431	0.50828
0.48022	0.30422
0.32721	-0.12942
0.14870	0.20219
0.04670	0.40625
0.27621	0.48277
0.14870	0.10015
0.14870	0.50828
0.04670	0.12566
0.32721	-0.18043
0.30171	-0.33348
-0.00431	-1.37929
-0.02981	-0.07840
0.35272	1.37554
0.30171	1.19699
0.22521	0.86539
0.14870	0.71234
-0.20832	-0.12942
-0.15732	-0.23145
-0.10631	-0.69059
0.12320	-0.56305
0.53123	0.15117
0.32721	0.22769
0.50573	0.55929
0.35272	0.53379
0.12320	0.15117
-0.15732	-0.12942
-0.10631	-0.18043
0.22521	0.07465
0.35272	0.25320
-0.10631	0.35523
0.02119	0.07465
0.19971	0.04914
0.42922	-0.10391
0.22521	-0.10391
0.30171	0.53379
-0.10631	0.58480
0.04670	0.61031
0.27621	0.40625
0.02119	0.17668
0.07220	0.02363
0.25071	-0.71609
0.17421	0.02363
-0.18282	-0.07840
0.17421	-0.66508
-0.00431	0.12566
0.32721	-0.25695
0.35272	0.32972
0.37822	1.37554
0.76074	0.91640
0.12320	0.81437
-0.28482	0.07465
-0.10631	0.12566
0.22521	0.02363
0.22521	-0.30797
0.04670	0.30422
-0.00431	-1.02219
0.07220	-0.79262
-0.02981	-0.10391
0.07220	-0.05289
0.22521	0.43176
0.50573	1.06945
0.50573	1.09496
0.53123	0.73785
0.45472	0.27871
-0.46334	-0.05289
-0.05531	-1.30277
0.17421	-1.09871
-0.08081	0.55929
0.02119	0.63582
0.12320	0.78886
0.17421	0.76336
0.32721	0.53379
0.07220	-0.23145
0.22521	0.17668
0.12320	-0.05289
0.17421	-0.23145
0.19971	-0.30797
0.04670	-0.25695
0.12320	0.20219
0.25071	0.76336
0.60773	0.96742
0.42922	-0.56305
-0.02981	-0.46102
-0.10631	0.10015
0.04670	0.43176
-0.05531	0.94191
0.12320	0.63582
0.07220	-0.30797
0.07220	-0.38449
-0.08081	-0.12942
0.35272	0.32972
0.27621	0.10015
0.53123	0.27871
0.35272	0.58480
0.27621	0.66132
0.07220	0.27871
-0.08081	-0.12942
-0.28482	-0.63957
-0.38683	-1.30277
-0.00431	-0.05289
0.25071	0.15117
0.65874	0.61031
0.27621	1.09496
0.09770	0.58480
0.25071	0.27871
0.30171	0.15117
0.02119	0.55929
-0.10631	0.15117
0.14870	-0.58856
0.25071	-0.99668
-0.00431	-0.46102
0.07220	0.66132
-0.02981	0.61031
0.17421	0.63582
0.37822	0.58480
0.42922	0.27871
0.12320	0.35523
0.09770	0.32972
-0.10631	-0.07840
-0.25932	0.07465
0.12320	-0.51203
0.27621	-0.15492
0.25071	-0.05289
0.55673	-0.00188
0.30171	0.15117
0.17421	0.58480
0.07220	0.40625
-0.05531	0.04914
-0.08081	0.35523
-0.05531	0.40625
-0.18282	0.55929
0.02119	0.43176
0.22521	-0.30797
0.58223	-0.43551
0.48022	-0.48652
0.17421	-0.28246
-0.08081	0.53379
0.45472	0.89089
0.17421	0.27871
0.07220	-0.02739
-0.00431	0.45726
-0.05531	0.40625
-0.10631	-0.00188
0.02119	0.30422
0.37822	0.45726
0.32721	-0.63957
-0.05531	-0.63957
-0.05531	0.17668
0.07220	0.40625
0.17421	0.58480
0.30171	0.55929
0.14870	0.40625
0.22521	0.17668
0.30171	0.10015
0.22521	-0.25695
0.02119	0.07465
0.14870	0.35523
-0.08081	0.15117
-0.05531	0.04914
-0.08081	-1.17523
0.17421	-0.43551
0.12320	0.04914
0.45472	0.63582
0.12320	0.94191
0.22521	0.76336
0.09770	0.76336
-0.18282	0.81437
0.02119	0.45726
0.02119	-0.18043
0.32721	-1.14973
0.42922	-0.92016
0.40372	-0.18043
-0.00431	-0.12942
-0.05531	0.25320
0.07220	0.66132
0.02119	0.96742
0.12320	0.81437
-0.00431	-0.18043
0.22521	-0.18043
0.07220	0.35523
0.19971	0.43176
0.32721	-0.02739
0.32721	0.17668
0.40372	-0.10391
0.09770	-0.18043
-0.08081	0.35523
-0.02981	0.48277
-0.10631	0.30422
-0.23382	-1.22625
0.02119	-0.76711
0.09770	-0.46102
0.14870	0.71234
0.32721	1.78367
0.30171	-0.33348
0.19971	-1.07320
0.32721	0.68683
0.42922	1.52859
0.22521	1.17148
-0.10631	0.53379
-0.13181	0.22769
0.14870	-0.05289
0.37822	-0.43551
-0.05531	-0.00188
-0.05531	-0.18043
0.12320	-0.35899
0.27621	-0.35899
0.22521	-0.25695
0.19971	0.17668
0.12320	0.43176
-0.02981	0.32972
0.55673	0.32972
0.42922	0.12566
-0.13181	-0.46102
-0.31033	-0.20594
0.04670	0.76336
0.37822	1.27351
0.32721	0.81437
0.68424	0.30422
0.42922	-0.25695
-0.33583	-0.56305
-0.33583	-0.63957
0.27621	-0.43551
0.40372	0.66132
0.32721	0.76336
-0.05531	0.63582
-0.02981	0.61031
-0.18282	0.61031
-0.00431	0.07465
0.17421	-0.46102
0.37822	-0.71609
0.35272	-0.99668
0.32721	-0.43551
0.14870	0.40625
0.02119	0.63582
0.17421	0.63582
0.35272	0.81437
0.22521	0.50828
-0.13181	0.15117
-0.18282	-0.18043
0.09770	-0.25695
-0.02981	0.04914
0.02119	0.43176
0.35272	0.58480
0.42922	0.73785
-0.18282	0.25320
0.48022	-0.18043
0.50573	-0.81812
0.12320	-0.53754
-0.18282	-0.58856
-0.10631	0.12566
0.48022	1.01843
0.22521	0.81437
-0.13181	0.48277
-0.08081	0.25320
0.09770	0.32972
-0.00431	0.55929
0.09770	0.32972
0.42922	-0.43551
0.27621	-0.76711
0.22521	-0.35899
-0.20832	-0.69059
-0.02981	0.27871
0.12320	0.50828
0.53123	0.76336
0.53123	0.76336
0.22521	0.94191
-0.08081	0.50828
-0.28482	0.07465
0.14870	-0.20594
0.07220	-0.56305
0.17421	-0.18043
0.27621	0.04914
0.12320	-0.10391
0.04670	0.25320
0.42922	0.55929
0.30171	0.30422
0.07220	0.27871
-0.08081	0.22769
-0.08081	0.10015
0.07220	0.30422
0.45472	-0.23145
0.68424	-0.76711
0.22521	0.17668
-0.15732	0.55929
-0.25932	0.45726
-0.20832	0.04914
0.27621	0.27871
0.42922	0.35523
0.02119	0.63582
0.25071	0.76336
0.22521	-0.07840
0.27621	-0.28246
0.42922	-0.58856
0.14870	-0.00188
-0.10631	0.30422
-0.13181	0.30422
-0.00431	0.25320
0.37822	0.43176
0.68424	0.40625
0.32721	-0.18043
-0.33583	-0.35899
-0.25932	0.15117
0.50573	0.04914
0.37822	-0.00188
0.25071	0.53379
-0.20832	0.35523
-0.02981	-0.02739
0.14870	0.07465
0.14870	-0.38449
0.12320	-0.15492
0.02119	0.32972
-0.02981	0.96742
0.09770	0.94191
0.42922	0.25320
0.40372	-0.33348
0.14870	-0.30797
0.02119	-0.76711
0.30171	-0.33348
0.30171	0.63582
0.27621	0.68683
0.19971	0.71234
0.12320	0.40625
-0.00431	0.50828
0.09770	0.25320
-0.10631	-0.28246
0.02119	-0.02739
-0.10631	0.07465
0.02119	-0.07840
0.09770	-0.05289
0.09770	0.02363
0.40372	-0.33348
0.32721	-0.28246
0.32721	0.15117
0.60773	0.53379
0.19971	0.50828
0.17421	0.96742
-0.08081	0.48277
0.12320	0.07465
-0.00431	-0.18043
-0.00431	-0.15492
0.12320	0.35523
0.42922	0.43176
0.30171	0.20219
0.07220	-0.10391
0.02119	0.32972
0.04670	0.40625
-0.00431	-0.38449
0.17421	-0.56305
-0.05531	-0.18043
-0.08081	-0.30797
0.50573	0.63582
0.42922	0.86539
0.37822	0.10015
0.22521	0.22769
0.17421	0.35523
0.30171	0.22769
0.02119	0.94191
0.25071	-0.69059
-0.38683	-1.02219
-0.38683	0.04914
0.12320	0.43176
0.45472	0.71234
0.48022	0.83988
-0.02981	0.27871
-0.08081	-0.10391
0.14870	-0.15492
0.25071	-0.18043
0.22521	0.20219
-0.10631	0.12566
-0.13181	0.04914
0.17421	0.04914
0.42922	0.20219
0.53123	0.58480
0.32721	0.53379
0.17421	0.45726
0.02119	-0.05289
0.22521	0.02363
-0.02981	-0.53754
-0.13181	-0.69059
-0.31033	-0.15492
-0.05531	0.10015
0.35272	0.20219
0.50573	0.86539
0.48022	1.01843
0.19971	0.48277
0.04670	0.25320
-0.00431	0.17668
0.12320	0.02363
-0.08081	-0.18043
-0.02981	-0.07840
0.12320	-0.25695
-0.00431	-0.18043
0.07220	-0.05289
0.30171	0.27871
0.32721	0.45726
0.07220	0.45726
0.04670	-0.28246
0.32721	0.02363
-0.10631	0.10015
0.22521	0.30422
0.02119	0.25320
0.25071	0.25320
0.25071	0.25320
0.19971	0.73785
0.12320	-0.07840
-0.15732	-0.89465
-0.10631	0.07465
-0.02981	0.25320
0.32721	0.55929
0.42922	0.38074
0.14870	-0.00188
0.14870	0.10015
0.04670	0.25320
0.09770	0.50828
0.32721	0.27871
0.07220	0.17668
0.02119	-0.02739
0.14870	-0.12942
0.22521	-0.41000
-0.00431	-0.35899
-0.08081	-0.05289
0.27621	0.22769
0.55673	0.61031
0.22521	0.53379
0.02119	0.07465
-0.00431	0.17668
0.09770	-0.25695
0.09770	-0.18043
0.09770	0.61031
0.07220	0.63582
0.17421	0.55929
0.12320	-0.10391
0.22521	-0.05289
0.12320	0.12566
0.22521	0.20219
0.17421	0.45726
-0.08081	0.04914
-0.02981	-0.18043
0.04670	0.04914
0.19971	0.04914
0.17421	-0.00188
-0.02981	-0.33348
0.32721	-0.02739
0.35272	0.66132
0.32721	1.04394
0.25071	0.30422
0.02119	-0.12942
-0.05531	-0.05289
-0.23382	-0.30797
-0.10631	0.17668
0.27621	0.58480
0.30171	0.45726
-0.00431	-0.46102
0.07220	-0.81812
0.53123	-0.10391
0.19971	0.58480
0.17421	0.91640
0.32721	0.66132
0.07220	0.58480
-0.13181	0.32972
0.04670	0.35523
0.12320	-0.02739
0.22521	0.02363
0.12320	0.07465
0.27621	-1.63437
0.50573	-0.56305
0.22521	0.02363
-0.05531	0.27871
-0.18282	0.63582
-0.25932	0.71234
-0.18282	0.50828
0.27621	0.25320
0.78624	0.35523
0.50573	0.40625
0.04670	-0.33348
-0.18282	-0.00188
-0.25932	0.38074
-0.15732	0.25320
0.14870	-0.10391
0.35272	0.25320
0.37822	0.10015
0.30171	-0.10391
0.19971	-0.10391
0.09770	0.25320
0.27621	1.04394
0.40372	0.45726
0.09770	-0.28246
-0.23382	-1.32828
-0.08081	-0.51203
-0.20832	1.01843
0.14870	0.78886
0.32721	0.63582
0.22521	0.68683
0.17421	0.40625
0.40372	0.40625
0.30171	0.04914
0.09770	-0.46102
-0.18282	-0.41000
-0.08081	-0.25695
0.07220	0.22769
0.32721	0.25320
0.35272	0.32972
0.12320	-0.41000
-0.08081	-0.63957
0.27621	0.48277
0.32721	0.76336
0.12320	1.12046
-0.13181	0.38074
-0.05531	-0.74160
-0.00431	0.20219
0.37822	-0.05289
0.32721	0.27871
0.12320	0.15117
0.37822	0.04914
0.37822	0.58480
0.02119	0.04914
-0.23382	-0.00188
0.07220	0.25320
0.04670	0.12566
0.22521	0.32972
0.27621	0.27871
0.55673	-0.00188
0.32721	-0.15492
-0.15732	0.02363
0.04670	0.32972
0.30171	0.04914
0.22521	0.30422
0.07220	-0.05289
-0.08081	0.04914
0.14870	0.58480
0.14870	-0.25695
0.09770	-0.53754
0.22521	0.35523
0.40372	0.76336
0.53123	0.48277
0.17421	0.68683
0.02119	0.48277
0.14870	0.04914
-0.18282	-0.05289
-0.08081	-0.56305
-0.05531	-0.10391
0.40372	0.17668
0.42922	0.04914
0.14870	0.04914
0.19971	0.20219
0.02119	0.22769
-0.18282	-0.02739
-0.00431	0.12566
-0.00431	0.22769
0.19971	-0.02739
0.76074	0.10015
0.19971	0.02363
0.25071	0.20219
-0.13181	0.30422
-0.13181	0.20219
0.09770	0.22769
0.30171	0.35523
0.19971	0.10015
-0.08081	-0.15492
0.04670	0.17668
-0.13181	0.04914
-0.05531	0.04914
0.35272	0.35523
