0.12320	0.20219
0.19971	0.22769
0.27621	0.15117
0.14870	0.07465
0.07220	-0.02739
-0.00431	0.07465
-0.00431	0.20219
0.19971	0.25320
0.25071	0.17668
0.09770	0.15117
0.19971	0.12566
0.12320	0.12566
0.22521	0.20219
0.14870	0.04914
0.07220	0.02363
-0.00431	0.07465
0.04670	0.12566
0.17421	0.32972
0.35272	0.25320
0.22521	0.17668
0.22521	0.22769
0.17421	0.20219
0.22521	0.07465
0.22521	-0.00188
0.04670	0.04914
-0.08081	0.07465
-0.05531	0.20219
0.25071	0.20219
0.27621	0.17668
0.19971	0.12566
0.14870	0.17668
0.12320	0.17668
0.19971	0.15117
0.17421	0.07465
0.12320	0.02363
0.02119	0.07465
0.02119	0.25320
0.17421	0.30422
0.27621	0.17668
0.22521	0.12566
0.17421	0.17668
0.07220	0.12566
0.09770	0.07465
0.14870	0.15117
0.22521	0.15117
0.07220	-0.02739
0.07220	0.10015
0.12320	0.22769
0.14870	0.27871
0.14870	0.22769
0.27621	0.20219
0.19971	0.04914
0.07220	0.02363
0.12320	0.07465
0.02119	0.07465
-0.02981	0.04914
0.07220	0.22769
0.17421	0.17668
0.19971	0.22769
0.30171	0.10015
0.25071	0.15117
0.25071	0.20219
0.14870	0.15117
0.02119	0.10015
0.09770	0.07465
0.02119	0.02363
0.02119	0.20219
0.12320	0.35523
0.30171	0.20219
0.22521	0.20219
0.14870	0.12566
0.19971	0.07465
0.22521	0.10015
0.09770	0.10015
0.02119	0.15117
0.09770	0.15117
0.07220	0.07465
0.09770	0.22769
0.17421	0.25320
0.14870	0.02363
0.04670	0.12566
0.14870	0.12566
0.19971	0.07465
0.12320	0.12566
0.04670	0.15117
0.12320	0.15117
0.14870	0.20219
0.12320	0.25320
0.22521	0.17668
0.27621	0.07465
0.17421	0.20219
0.19971	0.10015
0.07220	0.15117
0.04670	0.04914
0.12320	0.07465
0.04670	-0.00188
0.04670	0.12566
0.17421	0.20219
0.12320	0.25320
0.17421	0.27871
0.30171	0.17668
0.32721	0.15117
0.22521	0.04914
0.04670	0.10015
-0.00431	0.12566
0.09770	0.15117
0.17421	0.15117
0.09770	0.20219
0.19971	0.15117
0.25071	0.15117
0.17421	0.22769
0.07220	0.15117
0.09770	0.12566
0.14870	0.04914
0.14870	-0.00188
0.02119	-0.02739
0.14870	0.12566
0.12320	0.22769
0.07220	0.17668
0.09770	0.25320
0.17421	0.25320
0.25071	0.20219
0.14870	0.12566
0.19971	0.17668
0.14870	0.04914
0.02119	-0.05289
0.19971	0.07465
0.09770	-0.12942
0.22521	0.10015
0.30171	0.22769
0.09770	0.35523
-0.00431	0.27871
0.09770	0.27871
-0.05531	0.07465
-0.05531	0.07465
0.19971	0.04914
0.35272	0.04914
0.02119	0.32972
0.04670	0.25320
0.12320	0.27871
0.14870	0.32972
0.17421	0.15117
0.19971	0.10015
0.02119	-0.05289
0.09770	0.04914
0.12320	-0.25695
0.14870	0.02363
0.04670	0.22769
0.07220	0.30422
0.22521	0.25320
0.04670	0.43176
0.14870	0.04914
0.04670	-0.23145
0.14870	0.04914
0.12320	0.17668
0.35272	0.15117
0.14870	0.32972
0.19971	0.38074
0.12320	0.25320
0.02119	0.25320
0.09770	0.25320
0.12320	0.15117
0.19971	0.04914
0.09770	0.04914
0.09770	-0.10391
0.09770	-0.10391
-0.00431	-0.07840
0.04670	0.04914
0.22521	0.20219
0.22521	0.32972
0.30171	0.27871
0.25071	0.30422
0.09770	0.27871
0.09770	0.35523
0.04670	0.15117
0.22521	-0.00188
0.12320	0.04914
0.19971	-0.05289
-0.08081	0.12566
0.07220	0.02363
0.14870	0.12566
0.25071	0.22769
0.22521	-0.10391
0.04670	-0.12942
0.02119	0.45726
0.22521	0.66132
0.12320	0.50828
0.14870	0.30422
0.14870	0.12566
0.07220	-0.15492
0.09770	0.15117
0.32721	0.15117
0.32721	0.12566
0.09770	0.32972
0.22521	0.12566
0.07220	-0.00188
-0.08081	-0.07840
0.07220	-0.07840
0.42922	-0.25695
0.22521	0.10015
-0.20832	0.30422
0.35272	0.50828
0.19971	0.17668
0.19971	-0.66508
0.07220	0.07465
-0.00431	0.48277
-0.00431	-0.05289
0.25071	0.40625
0.22521	0.17668
0.27621	0.30422
0.55673	0.04914
-0.25932	-1.27726
-0.53984	-0.33348
0.58223	1.78367
0.50573	2.54890
0.02119	1.09496
-0.02981	0.10015
0.12320	-0.41000
0.12320	-0.69059
-0.13181	-0.10391
-0.18282	0.02363
0.63323	0.25320
0.81175	0.12566
-0.13181	-0.94566
-0.38683	-2.11902
-0.33583	-0.58856
0.09770	0.99292
-0.08081	0.76336
0.30171	0.15117
0.27621	1.37554
0.17421	0.83988
0.65874	-0.12942
0.58223	0.55929
-0.00431	0.53379
-0.43783	-0.15492
0.25071	-0.38449
-0.15732	0.10015
0.09770	0.38074
0.25071	0.35523
-0.05531	0.30422
0.17421	0.66132
-0.05531	1.24800
0.45472	-0.56305
1.01576	-2.34859
0.02119	-2.17003
-0.02981	-0.86914
0.25071	1.65613
-0.41233	1.17148
0.07220	-0.63957
0.53123	0.30422
-0.23382	1.47757
-0.10631	1.32453
0.37822	0.55929
0.53123	0.20219
0.12320	0.73785
0.02119	0.53379
0.63323	-0.07840
-0.08081	0.02363
-0.08081	-0.86914
-0.28482	-0.30797
0.45472	-1.27726
0.02119	0.07465
-0.02981	1.06945
0.65874	0.38074
0.40372	-0.66508
0.07220	-1.91496
0.07220	-0.71609
-0.00431	1.06945
0.22521	2.39585
-0.28482	2.52339
-0.43783	1.37554
-0.05531	-0.38449
0.58223	-2.09351
0.17421	-0.63957
-0.38683	-1.50683
-0.08081	0.94191
0.73524	2.06425
0.19971	2.21730
0.63323	-0.10391
0.86275	-3.93007
0.09770	-1.73640
0.09770	1.42656
-0.66735	2.54890
0.04670	1.75816
0.96476	1.27351
0.07220	-0.41000
-0.20832	-2.29757
0.22521	-2.17003
0.04670	-2.17003
-0.87136	-1.50683
-0.33583	1.24800
0.32721	3.67124
0.83725	2.42136
0.09770	1.09496
0.14870	0.27871
-0.20832	0.04914
0.14870	1.27351
0.68424	-0.30797
-0.08081	-1.12422
0.22521	-2.17003
0.58223	-2.24656
0.58223	-2.01699
-0.13181	1.12046
-0.56534	0.61031
0.02119	-0.15492
-0.02981	1.68163
0.40372	2.49788
0.93925	1.19699
0.17421	0.76336
0.09770	0.12566
0.07220	0.07465
-0.36133	0.12566
-0.64185	-0.38449
-0.46334	-0.66508
0.42922	-0.15492
1.24527	1.37554
1.11776	-0.97117
-0.53984	-2.17003
-0.41233	-2.62918
0.19971	-0.66508
-0.00431	1.06945
0.50573	1.78367
0.32721	2.82948
0.27621	2.01323
0.09770	1.12046
0.02119	-0.97117
0.12320	-1.55785
-0.69285	-0.97117
-0.00431	1.24800
0.50573	0.40625
0.22521	0.27871
-0.15732	0.94191
0.35272	1.17148
0.81175	1.01843
0.96476	-1.30277
0.25071	-2.50164
0.70974	-2.19554
-1.10088	-0.18043
-1.10088	0.25320
-0.69285	1.70714
-0.33583	1.52859
0.48022	1.37554
1.55129	0.86539
0.83725	-0.18043
0.42922	-1.04770
-0.38683	-0.00188
0.78624	0.04914
0.88825	1.19699
0.30171	1.17148
0.04670	-0.10391
-0.59084	-1.07320
-0.23382	-0.86914
0.19971	-0.48652
-1.81492	0.22769
-0.51434	0.12566
4.07596	0.48277
1.57679	2.11527
-0.97337	0.48277
-0.79486	-2.32308
-0.13181	-1.99148
-0.53984	1.19699
-0.25932	2.29382
-0.13181	0.02363
-0.38683	-0.56305
-0.41233	1.27351
1.42379	2.08976
2.41835	0.99292
1.32178	-0.86914
0.53123	-3.01179
-0.71835	-1.43031
-0.61635	-0.18043
-0.94787	1.14597
-0.61635	0.55929
-0.18282	0.66132
0.22521	1.22250
0.42922	0.55929
0.30171	-0.00188
0.50573	0.25320
0.81175	-0.61406
0.19971	-0.07840
0.02119	-1.27726
0.60773	-0.15492
-0.13181	0.68683
-0.56534	0.94191
0.37822	1.12046
3.66793	1.14597
0.12320	0.04914
-2.27395	-1.14973
-0.87136	-1.45582
0.07220	-1.25176
-0.56534	1.09496
0.32721	1.19699
0.32721	0.94191
-0.53984	1.06945
-0.02981	0.35523
0.76074	-0.41000
1.24527	0.07465
0.35272	-0.41000
0.37822	0.04914
1.62780	0.55929
-0.15732	0.12566
-0.48884	-0.69059
-0.25932	0.96742
-0.08081	1.17148
1.09226	-0.35899
0.48022	-1.96597
-1.04987	-2.17003
-0.48884	-0.28246
-0.23382	1.98773
-0.13181	1.45206
0.65874	1.57960
1.01576	2.11527
0.50573	0.86539
-0.61635	-1.25176
-0.48884	-1.60887
0.35272	-0.61406
0.50573	-0.46102
0.09770	1.27351
0.40372	1.14597
0.53123	0.73785
-0.41233	0.22769
-0.38683	0.35523
0.12320	-1.27726
0.68424	-3.29238
0.32721	0.61031
0.09770	2.62542
-0.41233	-0.23145
0.93925	-1.58336
0.68424	0.15117
0.07220	0.73785
0.02119	2.14077
-0.18282	2.29382
1.11776	1.22250
0.68424	-0.18043
-0.36133	-1.27726
0.02119	-1.17523
-0.69285	-0.92016
-0.89686	0.61031
0.12320	0.96742
0.14870	0.86539
0.27621	0.02363
0.48022	-0.81812
0.86275	-0.20594
0.40372	-0.63957
-0.18282	-1.25176
0.02119	0.12566
-0.08081	0.40625
-0.38683	0.96742
0.37822	2.26831
0.93925	1.57960
0.50573	-1.37929
0.22521	-1.78742
-0.15732	0.91640
-0.13181	1.09496
-0.18282	0.63582
-0.02981	0.40625
0.19971	-0.35899
-0.25932	0.04914
0.73524	1.93671
0.63323	1.52859
-0.18282	-0.25695
0.48022	-3.49644
0.30171	-2.88425
0.02119	0.35523
-1.07538	1.37554
0.07220	1.50308
0.40372	0.73785
0.42922	0.83988
-0.18282	1.57960
-0.36133	-0.53754
1.04126	-1.73640
1.09226	-0.89465
-0.18282	-0.25695
-0.25932	1.19699
-1.04987	1.75816
1.11776	0.38074
3.31091	-0.86914
-0.59084	0.32972
-0.53984	0.76336
-0.56534	-0.12942
-0.97337	-0.43551
-1.07538	-0.43551
-0.53984	0.58480
0.37822	1.88570
0.88825	-0.38449
0.53123	-2.11902
0.68424	-0.38449
1.72980	0.20219
0.65874	-0.10391
-0.33583	0.38074
-0.64185	1.75816
-0.25932	1.50308
0.17421	0.94191
1.06676	-0.25695
0.45472	-1.02219
0.02119	-0.99668
-0.97337	1.24800
-0.66735	0.81437
0.22521	-0.86914
-0.74385	0.00000
-0.10631	-0.76711
0.93925	0.35523
1.57679	0.02363
0.63323	0.50828
-0.18282	0.63582
-0.41233	1.24800
-0.79486	0.12566
0.14870	-3.31788
0.93925	-2.09351
0.04670	0.30422
0.04670	1.78367
0.53123	1.78367
0.17421	2.54890
0.04670	2.19179
-0.61635	-0.33348
0.76074	-2.52714
0.50573	-1.22625
-0.33583	-0.25695
-0.43783	0.71234
-0.25932	0.73785
0.76074	0.76336
1.50029	1.17148
0.99026	0.35523
0.04670	0.12566
-0.51434	-1.99148
-0.74385	-2.04250
-0.82036	0.10015
-0.08081	0.78886
0.12320	-0.12942
-0.08081	0.55929
0.40372	0.94191
0.22521	1.57960
-0.20832	2.21730
1.06676	1.29902
-1.68742	0.61031
2.31634	-1.45582
3.00489	-4.28718
-0.59084	-1.32828
-0.89686	0.38074
-0.05531	1.50308
0.32721	0.04914
0.04670	0.86539
0.27621	1.55410
0.45472	1.93671
-1.15188	1.45206
-1.12638	-1.14973
-0.36133	-1.65988
0.09770	-1.20074
0.63323	0.07465
0.60773	1.75816
0.04670	0.10015
1.06676	-0.69059
0.99026	-0.51203
-0.13181	0.83988
0.04670	1.14597
0.58223	0.86539
0.70974	0.86539
1.70430	0.22769
-0.48884	-1.02219
-1.48340	0.50828
-0.51434	0.12566
0.02119	-0.41000
-0.48884	-0.66508
-0.18282	-0.30797
0.14870	-1.12422
0.68424	0.68683
0.27621	1.50308
0.35272	2.34484
0.60773	0.89089
0.25071	-2.50164
0.37822	-0.74160
0.02119	0.32972
0.32721	0.73785
-0.31033	-0.35899
-0.15732	-0.74160
-0.33583	-0.10391
0.45472	1.47757
0.70974	1.52859
0.37822	0.71234
-0.18282	0.15117
0.60773	-0.12942
0.70974	-0.30797
0.14870	-0.20594
-0.46334	-0.33348
-0.33583	-0.30797
0.48022	0.27871
0.35272	0.02363
0.40372	1.57960
0.02119	-0.92016
-0.74385	-1.37929
0.81175	-0.46102
0.91375	0.58480
-0.28482	1.09496
0.02119	1.04394
-0.00431	0.38074
-0.00431	0.86539
-0.15732	1.57960
0.91375	-0.43551
0.25071	-2.60367
0.93925	-0.66508
0.22521	0.04914
-1.10088	0.38074
-0.64185	0.25320
0.30171	1.04394
0.58223	0.94191
0.53123	1.50308
0.48022	-0.28246
-0.43783	-0.71609
0.12320	0.45726
-0.10631	-0.56305
0.42922	-0.99668
0.25071	-0.46102
0.12320	1.14597
0.25071	1.47757
0.30171	1.22250
-0.02981	0.78886
0.83725	0.61031
0.40372	-1.17523
0.17421	-3.59847
-0.87136	-2.11902
-0.33583	0.66132
0.07220	2.21730
0.40372	2.19179
0.32721	0.73785
0.07220	-0.02739
-0.36133	0.53379
1.16877	0.55929
-0.18282	-1.86394
-0.59084	-2.27207
-0.28482	-0.23145
0.30171	1.63062
0.70974	2.59991
0.81175	0.58480
0.83725	-0.25695
0.86275	0.22769
-0.38683	-0.07840
-0.87136	-1.55785
-0.23382	-0.23145
0.35272	1.09496
-0.53984	1.29902
0.53123	-0.25695
1.55129	-1.30277
-0.28482	0.43176
-0.28482	0.55929
-0.05531	0.35523
0.09770	0.63582
0.78624	-1.04770
0.45472	-1.30277
-0.82036	-0.28246
-0.66735	1.37554
0.32721	2.24281
1.27078	1.27351
0.81175	-1.78742
-0.36133	-0.46102
-0.28482	0.55929
-0.41233	-0.15492
-0.99887	-0.92016
0.86275	0.63582
0.81175	1.32453
-0.05531	-0.00188
0.19971	0.07465
0.93925	0.76336
1.04126	-0.53754
-0.28482	-0.35899
-0.59084	0.45726
0.12320	1.86019
0.60773	0.71234
0.12320	-1.81293
-0.10631	-2.52714
0.30171	-1.07320
-0.56534	1.27351
1.39828	2.39585
1.14327	0.83988
-0.64185	0.02363
-1.27939	-0.41000
-0.41233	0.10015
0.32721	-0.76711
0.32721	0.61031
0.30171	1.40105
0.42922	-0.18043
1.32178	-1.25176
1.01576	-0.23145
-0.31033	0.86539
-0.59084	1.06945
-0.64185	0.73785
-0.28482	0.61031
1.34728	0.40625
0.50573	-0.69059
-0.20832	-1.25176
-0.18282	-0.53754
-0.89686	0.48277
0.55673	1.63062
0.96476	0.15117
0.17421	-0.76711
-0.71835	0.35523
-0.18282	0.99292
1.60230	0.78886
0.76074	-0.66508
-0.31033	-0.89465
-0.99887	0.30422
-0.36133	0.27871
-0.15732	-0.84363
0.60773	0.27871
0.96476	0.55929
-0.10631	0.43176
-0.61635	0.89089
-0.13181	0.53379
1.37278	0.55929
-0.41233	0.02363
0.83725	-0.61406
0.73524	0.63582
0.07220	0.43176
-0.25932	-0.25695
0.14870	-0.79262
-0.41233	-0.84363
-0.00431	-0.46102
-0.18282	0.55929
-0.05531	0.61031
0.68424	0.78886
1.04126	0.12566
-0.15732	0.22769
-0.69285	0.86539
0.45472	0.07465
-0.08081	0.04914
-0.92237	-0.28246
1.16877	-0.20594
1.14327	-0.53754
0.22521	0.55929
-0.36133	0.83988
0.55673	-0.15492
1.11776	0.55929
-0.48884	2.39585
-1.12638	0.71234
-0.66735	-2.90976
-0.25932	-2.47613
0.25071	0.07465
0.40372	1.35003
1.19427	2.11527
-0.02981	0.99292
1.24527	1.09496
0.53123	0.15117
-0.56534	-1.02219
-0.41233	-0.71609
-0.00431	-0.69059
0.09770	-1.40480
0.55673	0.30422
0.63323	0.86539
-0.20832	1.70714
-2.86049	1.65613
2.74987	1.06945
1.88281	-1.14973
-0.82036	-1.76191
-0.94787	0.35523
-0.71835	1.83468
0.88825	0.96742
0.35272	-2.27207
-0.13181	-1.37929
-0.05531	1.45206
-0.31033	0.86539
-1.35589	-0.41000
1.01576	-0.66508
0.99026	0.53379
0.53123	1.06945
0.78624	0.48277
-0.02981	0.55929
0.17421	0.10015
0.04670	-0.58856
0.09770	-0.00188
0.12320	0.48277
0.68424	0.07465
-0.15732	-0.07840
-0.00431	-1.09871
-0.13181	-0.48652
0.12320	1.22250
0.02119	1.37554
-0.25932	0.20219
-0.64185	0.43176
1.16877	1.22250
1.34728	-0.00188
-0.89686	-1.71090
-0.15732	-2.32308
-0.31033	0.12566
0.73524	1.55410
0.99026	2.29382
0.70974	1.01843
0.04670	-1.09871
-0.38683	-1.02219
-0.64185	-0.23145
0.09770	0.76336
0.04670	0.73785
0.40372	-0.18043
0.37822	0.30422
-0.10631	0.78886
-0.05531	0.71234
0.17421	-0.00188
0.22521	-0.35899
0.53123	0.10015
0.17421	0.55929
-1.04987	-0.15492
1.44929	-1.60887
1.24527	-1.22625
0.02119	-0.10391
-0.43783	0.35523
-0.31033	1.14597
-0.48884	2.11527
0.37822	1.80917
0.45472	-0.05289
-0.05531	-0.86914
0.25071	0.30422
0.19971	-0.00188
-0.00431	0.17668
-0.51434	0.40625
0.83725	0.30422
1.09226	-0.07840
-0.00431	-0.63957
-0.51434	-0.66508
-0.82036	-0.79262
0.22521	0.45726
0.58223	1.04394
-0.02981	0.02363
0.83725	0.32972
-0.08081	0.25320
-0.28482	1.70714
0.78624	-0.00188
0.53123	-1.73640
-0.66735	-1.96597
-0.05531	0.50828
0.45472	1.68163
0.14870	1.40105
-0.18282	1.04394
0.17421	0.50828
-0.15732	-0.00188
1.29628	-0.05289
-0.15732	-0.46102
-1.02437	-0.10391
-0.97337	0.04914
2.03582	0.35523
0.88825	-0.02739
-0.08081	-0.46102
-0.33583	-0.20594
-0.74385	-0.10391
-0.13181	0.04914
0.42922	0.53379
0.60773	0.27871
0.45472	-0.10391
-0.59084	-0.25695
-0.69285	0.30422
1.44929	0.35523
3.41291	0.32972
0.50573	0.76336
-0.92237	-0.15492
-0.89686	-0.12942
-0.13181	-0.58856
-1.20288	0.15117
-0.79486	0.78886
0.58223	0.73785
0.68424	0.48277
0.53123	-0.02739
0.58223	0.45726
0.27621	-0.25695
0.14870	-0.10391
0.12320	-0.48652
-0.18282	-0.97117
0.25071	-0.46102
1.09226	1.09496
0.35272	1.14597
-0.59084	0.25320
-0.87136	-0.15492
-0.23382	0.78886
0.42922	0.76336
0.04670	-0.05289
0.50573	0.22769
0.50573	0.15117
1.62780	0.86539
-0.05531	0.32972
-0.48884	-1.91496
-1.50890	-1.68539
0.27621	0.12566
0.14870	0.86539
-0.02981	0.71234
0.19971	1.14597
-0.08081	1.01843
-0.53984	0.50828
0.27621	0.73785
1.67880	0.58480
1.06676	-1.32828
0.37822	-2.73121
-0.61635	-1.37929
-0.51434	0.76336
-0.23382	1.80917
-0.08081	1.19699
-0.00431	1.17148
0.22521	1.45206
2.44385	1.63062
0.09770	-0.23145
-0.53984	-0.86914
-0.99887	-1.17523
-0.43783	-0.18043
0.07220	0.17668
0.32721	-0.05289
-0.25932	-0.79262
0.88825	0.22769
1.14327	0.86539
-0.33583	0.12566
-0.61635	0.07465
0.32721	-0.56305
1.80631	-0.20594
-0.02981	-0.00188
-0.79486	0.53379
-0.74385	0.73785
0.07220	1.78367
0.12320	2.80397
0.14870	1.35003
0.07220	-1.81293
0.55673	-1.99148
0.91375	-2.42511
0.02119	0.17668
-0.28482	0.35523
0.22521	0.48277
0.48022	1.57960
0.25071	1.86019
1.04126	0.96742
0.22521	-0.12942
-0.53984	-1.22625
-0.61635	-0.12942
-0.00431	0.20219
0.30171	0.27871
0.73524	-0.25695
0.48022	-0.38449
0.30171	-0.84363
-0.10631	0.55929
-0.28482	0.78886
-0.33583	0.30422
1.70430	-0.23145
0.63323	-0.00188
-0.82036	-0.23145
-0.76936	0.78886
-0.23382	0.55929
0.73524	0.25320
0.25071	0.48277
-0.28482	0.32972
0.50573	0.43176
0.96476	-0.05289
0.40372	-0.66508
-0.10631	-1.17523
-0.69285	-0.89465
-0.41233	-0.02739
0.40372	1.40105
0.37822	1.86019
0.40372	1.93671
1.32178	-0.18043
1.50029	-2.65468
0.22521	-1.60887
-0.76936	1.19699
-1.61091	1.42656
0.83725	-0.30797
1.04126	-0.97117
-0.10631	0.63582
-0.48884	1.55410
-0.71835	1.17148
-0.20832	0.15117
-0.20832	-0.81812
0.27621	-0.18043
-0.31033	-0.12942
0.58223	-0.05289
1.06676	0.40625
-0.00431	0.43176
0.83725	0.22769
-0.13181	-0.51203
-0.18282	0.10015
0.53123	-0.07840
0.63323	-0.25695
0.42922	0.35523
0.30171	0.63582
-0.66735	0.76336
-0.20832	0.81437
0.91375	0.83988
-0.28482	-0.05289
-0.53984	-0.74160
-0.33583	-0.46102
-0.15732	-0.20594
0.22521	0.27871
0.99026	-0.30797
0.73524	0.15117
-0.13181	0.53379
-0.28482	0.15117
0.12320	1.01843
0.09770	1.40105
0.25071	0.22769
0.68424	-0.61406
0.02119	0.30422
-0.15732	-0.46102
-0.23382	-1.22625
-0.33583	-1.68539
0.73524	0.40625
-0.41233	0.78886
1.01576	1.32453
1.06676	1.04394
0.22521	0.55929
0.14870	0.12566
-0.25932	-0.61406
0.12320	-0.10391
-0.28482	-0.00188
0.07220	0.10015
0.02119	0.55929
-0.46334	-0.05289
-0.28482	-0.38449
0.73524	-0.12942
0.02119	0.27871
0.02119	0.61031
0.76074	0.53379
0.78624	0.17668
-0.13181	-1.63437
-0.38683	-0.69059
-0.28482	0.66132
0.42922	0.76336
0.07220	0.48277
0.17421	0.32972
0.14870	1.24800
0.32721	0.25320
0.27621	-0.51203
-0.15732	-0.02739
-0.25932	-0.48652
-0.33583	-0.86914
0.02119	0.40625
0.63323	0.94191
0.58223	0.68683
0.42922	0.76336
0.02119	0.45726
-0.13181	0.66132
0.07220	-0.23145
-0.33583	-2.32308
1.09226	-0.51203
0.27621	0.17668
0.07220	1.27351
0.04670	0.43176
-0.56534	0.10015
-0.38683	0.40625
0.07220	0.66132
0.35272	0.30422
0.40372	-0.46102
0.25071	-0.15492
-0.43783	0.45726
1.60230	0.07465
1.44929	-1.30277
-0.28482	0.35523
-0.51434	0.27871
-1.02437	0.73785
0.58223	0.61031
0.70974	0.55929
-0.20832	0.96742
-0.48884	0.89089
-0.13181	-0.23145
0.50573	-0.94566
0.09770	-0.66508
-0.05531	0.32972
0.07220	0.45726
0.07220	-0.97117
0.22521	-0.53754
-0.25932	-1.50683
1.65330	-0.28246
0.30171	1.78367
0.17421	1.35003
-0.02981	1.17148
-0.61635	1.01843
-0.08081	0.35523
0.99026	-0.02739
-0.28482	-0.51203
-0.20832	-0.15492
-0.10631	0.66132
0.27621	0.25320
0.68424	-0.33348
0.42922	-0.74160
0.02119	-1.48133
-0.36133	-0.15492
-0.08081	0.02363
0.09770	0.53379
0.40372	1.17148
0.19971	0.71234
-0.08081	0.61031
0.12320	0.66132
0.73524	0.30422
-0.15732	-1.02219
0.09770	-0.35899
-0.08081	0.71234
-0.84586	0.02363
0.22521	-0.25695
1.85731	-0.07840
0.73524	0.35523
-0.25932	0.27871
0.07220	0.68683
0.04670	1.17148
-0.48884	0.40625
-0.41233	-0.18043
-0.25932	-1.48133
-0.28482	-0.99668
-0.53984	0.10015
1.01576	1.78367
1.37278	0.53379
0.40372	-1.25176
-0.02981	-1.32828
-0.02981	1.19699
-0.02981	1.32453
-0.41233	0.20219
-0.33583	0.38074
3.61693	0.12566
0.35272	-0.25695
-0.92237	-1.07320
-0.82036	0.12566
-0.18282	1.17148
-0.28482	0.81437
-0.33583	0.68683
0.60773	0.73785
0.40372	0.02363
-0.15732	-0.74160
0.19971	-0.25695
-0.10631	-0.48652
-0.02981	-1.30277
0.35272	-0.18043
0.63323	0.53379
0.93925	1.42656
0.07220	0.94191
-0.15732	0.02363
0.27621	-0.20594
0.70974	0.45726
-0.02981	0.61031
-0.48884	-0.23145
-0.20832	-0.23145
0.12320	-0.56305
0.02119	0.25320
0.32721	0.53379
-0.18282	-0.05289
0.81175	0.30422
-0.00431	0.89089
0.07220	0.55929
-0.33583	-0.63957
0.02119	-0.46102
0.27621	-0.07840
-0.69285	0.17668
1.39828	1.40105
1.19427	0.96742
-0.05531	-0.56305
-0.74385	-0.10391
-0.10631	-0.76711
0.53123	-0.15492
0.40372	0.89089
-0.18282	-0.00188
0.04670	-0.20594
0.32721	0.73785
0.17421	1.47757
-0.25932	0.48277
0.55673	-1.32828
0.30171	-1.20074
-0.20832	-0.25695
0.14870	0.55929
0.07220	1.24800
0.14870	1.06945
0.14870	1.12046
-0.15732	0.35523
-0.13181	-0.61406
0.60773	-0.58856
0.19971	-0.56305
1.11776	0.15117
0.53123	0.40625
0.48022	0.40625
-0.71835	-0.15492
-0.76936	0.07465
-0.56534	-0.56305
0.04670	-0.05289
0.30171	0.43176
0.63323	-0.33348
0.68424	1.06945
0.12320	0.73785
0.07220	0.12566
0.42922	-0.05289
-0.00431	0.15117
0.19971	1.52859
-0.08081	-0.41000
0.32721	-1.12422
0.17421	0.30422
0.02119	0.25320
0.30171	-0.25695
0.09770	0.10015
-0.10631	0.10015
-0.46334	0.73785
0.65874	0.66132
0.35272	0.71234
0.02119	0.15117
-0.18282	-0.18043
-0.13181	-0.18043
0.81175	0.45726
0.58223	0.17668
0.37822	-1.07320
-0.23382	-2.14453
-0.28482	-0.35899
-0.15732	1.27351
0.12320	1.45206
1.06676	-0.07840
0.12320	-0.12942
-0.61635	0.30422
0.17421	1.19699
1.06676	1.35003
0.99026	0.40625
-0.02981	-0.00188
-0.46334	-0.02739
-0.28482	0.35523
-0.53984	0.04914
0.14870	-0.84363
0.42922	-0.92016
0.93925	-0.10391
0.40372	-0.10391
0.30171	0.25320
-0.10631	0.66132
-0.46334	0.20219
-0.13181	0.25320
0.40372	0.50828
-0.48884	-0.02739
1.16877	-0.48652
1.52579	0.61031
-0.48884	1.12046
-0.51434	0.35523
0.07220	0.61031
-0.18282	-0.35899
0.40372	-1.32828
0.19971	-0.51203
-0.13181	0.02363
0.32721	-0.07840
0.14870	1.96222
-0.02981	1.01843
-1.07538	0.17668
0.42922	0.22769
0.65874	0.12566
1.09226	-0.20594
0.12320	-0.81812
0.22521	-0.10391
0.60773	0.63582
-0.28482	0.40625
-0.89686	-0.18043
1.09226	0.22769
0.63323	0.38074
-0.28482	0.04914
-0.33583	0.12566
-0.08081	0.25320
0.07220	0.40625
0.27621	0.12566
0.30171	-0.33348
-0.25932	-0.61406
0.17421	-0.23145
0.50573	0.76336
0.17421	0.50828
0.99026	0.66132
0.55673	1.01843
-0.48884	-1.35379
-0.13181	-1.55785
0.19971	0.10015
-0.36133	0.76336
-0.48884	1.14597
-0.05531	1.37554
0.37822	1.04394
0.58223	0.66132
0.81175	-0.02739
0.63323	-0.61406
-0.18282	-0.61406
0.22521	-0.43551
-0.87136	-0.00188
0.22521	-0.10391
1.37278	0.02363
-0.25932	0.02363
-0.43783	0.45726
-0.08081	0.25320
0.22521	0.02363
0.25071	0.63582
0.22521	0.20219
-0.23382	-0.05289
1.29628	-0.10391
1.01576	-0.05289
-0.59084	0.15117
-0.94787	0.50828
-0.48884	0.38074
0.25071	-0.51203
0.96476	-0.66508
0.40372	0.43176
-0.43783	1.42656
-0.00431	0.71234
0.48022	0.53379
0.32721	0.04914
-0.94787	0.61031
1.11776	0.68683
0.93925	-1.12422
-0.41233	-1.94047
-0.10631	-0.43551
0.25071	0.43176
0.14870	0.86539
0.07220	1.17148
0.30171	0.73785
-0.02981	0.30422
-0.69285	0.15117
-0.41233	-0.15492
0.86275	-0.23145
0.63323	-0.46102
0.53123	-0.74160
0.30171	-0.35899
0.12320	0.40625
-0.48884	0.76336
-0.05531	0.25320
-0.00431	0.22769
0.17421	1.09496
0.40372	0.55929
0.42922	-1.14973
1.09226	-1.48133
0.02119	0.38074
-0.48884	1.12046
-0.25932	0.66132
0.04670	0.12566
1.09226	0.48277
0.25071	1.88570
-0.66735	0.53379
-0.13181	-0.97117
0.55673	-0.76711
0.37822	-1.27726
0.73524	-0.48652
-0.02981	-0.12942
-0.33583	1.37554
-0.08081	1.01843
0.09770	0.17668
0.12320	0.04914
0.02119	0.63582
0.86275	0.55929
0.07220	0.20219
-0.31033	-0.92016
-0.20832	-0.33348
0.93925	1.24800
0.48022	0.15117
0.17421	-0.63957
-0.69285	-1.73640
-0.51434	-0.38449
0.63323	0.58480
1.70430	1.27351
0.37822	1.63062
-0.79486	0.53379
0.17421	-0.35899
-0.00431	-0.41000
0.27621	0.12566
0.07220	1.06945
0.42922	0.71234
0.17421	-0.94566
0.02119	-0.76711
0.25071	0.48277
0.55673	0.81437
-0.18282	0.17668
-0.51434	-0.00188
1.14327	0.58480
0.19971	0.58480
-0.15732	-0.48652
-0.23382	-1.50683
-0.28482	-1.53234
0.37822	0.66132
0.32721	1.29902
0.86275	0.89089
0.32721	1.22250
-0.20832	1.29902
0.12320	-0.25695
2.01032	-2.29757
0.32721	0.17668
-0.94787	0.53379
-1.15188	0.81437
0.25071	0.89089
0.27621	0.20219
0.12320	-0.58856
0.04670	0.43176
-0.08081	0.40625
0.76074	-0.25695
0.40372	-0.94566
0.17421	-0.76711
-0.13181	0.35523
0.14870	1.35003
0.25071	1.32453
0.17421	0.12566
0.07220	-2.11902
-0.10631	-1.71090
-0.13181	-0.23145
0.04670	1.47757
0.58223	2.06425
-0.25932	1.96222
1.55129	1.22250
0.12320	-0.23145
-0.64185	-1.58336
-0.28482	-0.46102
0.07220	0.38074
0.17421	0.45726
-0.13181	-0.00188
0.09770	0.35523
0.55673	0.25320
-0.25932	0.17668
0.02119	-0.46102
1.34728	-0.58856
-0.76936	-0.41000
0.45472	-0.18043
0.42922	0.86539
-0.10631	1.22250
-0.05531	0.55929
0.45472	-0.41000
0.12320	-0.53754
-0.23382	-0.00188
0.91375	0.48277
-0.46334	0.63582
-0.20832	-0.20594
-0.13181	-0.79262
0.32721	0.66132
0.73524	1.83468
0.68424	1.93671
-0.10631	-0.74160
-0.43783	-1.12422
0.65874	-0.02739
-0.18282	-0.35899
-0.05531	-0.69059
0.35272	0.61031
0.12320	0.96742
0.12320	0.71234
0.04670	0.63582
0.78624	-0.25695
0.35272	-0.58856
0.27621	-0.38449
-0.51434	-0.02739
-0.02981	0.68683
-0.13181	0.76336
-0.02981	0.04914
-0.82036	-0.92016
1.34728	-0.35899
-0.53984	-0.12942
0.42922	0.89089
0.60773	1.09496
0.14870	0.86539
0.07220	0.30422
-0.10631	-0.41000
-0.23382	-0.56305
0.07220	-1.02219
0.60773	-0.43551
-0.00431	0.86539
-0.41233	1.17148
-0.28482	0.73785
0.63323	1.22250
1.27078	0.55929
0.32721	-0.41000
0.07220	0.25320
-0.00431	-0.07840
0.04670	0.35523
-0.69285	-0.63957
0.63323	-0.35899
0.35272	-0.94566
-0.43783	-0.58856
-0.36133	0.68683
0.45472	1.12046
0.70974	1.68163
0.22521	1.29902
0.09770	-1.48133
0.65874	-2.01699
-0.13181	0.38074
0.02119	0.89089
-0.13181	0.76336
-0.08081	1.12046
-0.13181	0.04914
0.09770	-0.76711
0.83725	-0.05289
0.27621	0.83988
0.25071	0.89089
-0.20832	0.35523
0.27621	-0.41000
0.09770	-0.66508
0.27621	0.32972
0.40372	0.63582
0.02119	0.68683
0.50573	-0.89465
0.78624	-0.61406
-0.48884	0.45726
-0.41233	-1.09871
-0.15732	-1.30277
0.22521	-0.30797
0.30171	1.63062
0.37822	1.73265
0.27621	1.42656
0.02119	0.27871
-0.08081	0.40625
-0.31033	0.30422
0.12320	-0.12942
0.73524	-0.86914
0.12320	-0.71609
0.12320	-0.20594
0.12320	0.22769
0.07220	-0.43551
0.86275	0.02363
0.45472	0.07465
-0.92237	0.94191
0.42922	0.55929
0.22521	-0.23145
-0.46334	0.30422
-0.00431	-0.33348
0.27621	-1.09871
0.14870	0.55929
0.30171	1.45206
0.30171	1.12046
0.19971	0.66132
0.42922	0.58480
0.19971	0.73785
0.19971	-0.10391
0.02119	-1.37929
-0.74385	-1.73640
-0.00431	-0.00188
0.35272	1.29902
0.32721	0.38074
0.02119	-0.92016
-0.13181	-0.10391
0.07220	0.30422
-0.00431	-0.56305
0.83725	1.32453
0.78624	-0.00188
-0.31033	0.02363
-0.31033	0.99292
0.02119	1.06945
0.30171	0.81437
0.37822	-0.20594
0.42922	0.27871
0.02119	-0.30797
0.65874	0.68683
0.30171	-0.02739
0.02119	-1.27726
0.32721	-1.53234
-0.94787	-1.40480
-0.76936	0.20219
0.48022	1.37554
0.07220	1.52859
0.73524	1.68163
0.96476	0.22769
0.07220	-1.17523
-0.20832	-0.25695
-0.69285	-0.25695
0.70974	-0.35899
0.37822	0.66132
0.07220	1.04394
-0.36133	1.32453
-0.28482	0.76336
0.12320	-0.97117
0.42922	-0.30797
0.09770	-0.12942
0.40372	-0.56305
0.68424	-0.18043
0.48022	0.53379
-0.02981	1.37554
-0.05531	0.43176
0.30171	-1.50683
0.02119	-0.28246
-0.23382	0.96742
-0.31033	0.53379
0.35272	0.68683
0.35272	0.40625
0.30171	0.71234
-0.00431	0.22769
-0.15732	-0.61406
0.35272	-1.81293
0.19971	-1.48133
0.42922	1.52859
-0.05531	1.17148
-0.43783	-0.46102
0.58223	-0.46102
0.25071	0.48277
-0.10631	0.68683
0.04670	1.12046
0.45472	1.19699
-0.08081	0.22769
-0.20832	-0.41000
-0.33583	-0.00188
-0.20832	0.27871
2.69887	0.48277
1.09226	0.50828
-0.69285	-0.41000
-0.69285	-1.58336
-0.00431	-1.32828
-0.08081	-1.20074
0.35272	0.27871
-0.23382	1.06945
-0.46334	1.52859
0.04670	1.17148
0.63323	1.06945
0.73524	0.86539
0.02119	0.45726
-0.33583	-1.96597
-0.31033	-2.68019
0.32721	0.40625
0.88825	1.29902
0.99026	1.70714
0.30171	1.65613
-0.51434	0.02363
0.12320	-0.61406
0.55673	-0.12942
-0.33583	0.17668
-0.56534	-0.05289
-0.10631	0.53379
0.19971	0.48277
0.25071	-0.51203
0.70974	-0.63957
0.19971	-0.20594
-0.23382	1.12046
0.76074	-0.15492
0.07220	-0.94566
-0.51434	-2.60367
-0.13181	-0.81812
0.58223	1.50308
0.50573	3.13558
0.17421	2.62542
-0.20832	-0.20594
-0.08081	0.12566
-0.00431	0.43176
-0.00431	-0.05289
0.60773	-0.10391
0.96476	0.17668
-0.20832	0.02363
-0.00431	-1.25176
-0.05531	-1.76191
0.32721	0.32972
-0.18282	0.94191
0.07220	0.30422
0.42922	-1.25176
-0.02981	-0.33348
0.07220	0.81437
0.19971	1.42656
0.09770	0.58480
0.40372	-0.33348
0.07220	-1.17523
0.22521	0.22769
-0.25932	1.22250
0.30171	1.14597
0.86275	0.25320
-0.00431	0.35523
-0.46334	0.12566
0.30171	0.04914
0.35272	-0.89465
-0.00431	-0.86914
0.22521	-1.07320
0.17421	0.40625
-0.08081	0.43176
1.06676	1.12046
0.40372	1.22250
-0.20832	1.06945
-0.66735	0.27871
-0.59084	-0.46102
0.22521	-0.58856
0.32721	-0.74160
0.60773	-0.84363
1.42379	-0.46102
0.37822	0.68683
-0.46334	0.71234
-0.31033	0.94191
0.27621	0.86539
0.32721	-0.43551
0.19971	0.30422
-0.23382	0.27871
-0.10631	0.27871
-0.00431	-0.41000
0.02119	-1.25176
-0.02981	-0.41000
0.53123	0.55929
1.01576	1.06945
0.55673	0.86539
-0.28482	0.61031
-0.43783	0.15117
0.53123	-0.35899
-0.28482	-0.63957
-0.33583	-0.33348
0.42922	-0.00188
-0.00431	1.27351
0.02119	0.30422
-0.00431	-0.35899
0.32721	0.04914
0.65874	0.17668
-0.79486	0.04914
1.34728	0.15117
0.22521	0.63582
-0.56534	-0.18043
0.37822	0.20219
0.40372	0.40625
-0.05531	-0.30797
-0.15732	0.17668
0.32721	0.22769
0.37822	0.30422
-0.08081	0.20219
-0.48884	-0.23145
-0.38683	-0.30797
0.25071	0.10015
0.53123	0.55929
0.50573	-0.15492
0.02119	-0.35899
-0.20832	0.61031
0.60773	0.94191
0.58223	0.17668
-0.18282	0.32972
-0.13181	0.02363
0.30171	-0.86914
0.22521	0.15117
0.19971	0.04914
-0.20832	-0.25695
-0.15732	0.35523
0.32721	0.73785
0.19971	0.10015
-0.05531	0.89089
-0.18282	0.94191
0.32721	0.02363
1.09226	0.35523
-0.23382	-1.07320
-0.38683	-1.12422
-0.10631	-0.43551
0.17421	1.12046
-0.25932	0.83988
0.91375	0.15117
0.50573	-0.02739
-0.33583	0.35523
-0.02981	0.78886
0.37822	0.66132
0.32721	0.35523
0.22521	-0.35899
-0.82036	-0.84363
-0.08081	-1.17523
1.16877	0.73785
0.22521	0.89089
-0.33583	0.45726
0.55673	0.58480
-0.20832	1.35003
-0.41233	0.30422
0.14870	-1.12422
0.58223	-0.86914
-0.33583	-1.07320
0.32721	0.38074
0.17421	1.55410
0.60773	1.40105
0.40372	-0.61406
0.50573	-0.41000
0.30171	-0.33348
-0.36133	0.17668
-0.74385	1.45206
-0.23382	1.35003
-0.08081	0.10015
0.07220	-0.41000
0.53123	0.10015
0.27621	-0.05289
0.73524	-0.05289
0.32721	-0.58856
-0.25932	-0.35899
0.09770	0.40625
0.17421	-0.12942
0.22521	0.10015
0.37822	0.53379
0.12320	0.71234
0.04670	-0.10391
0.53123	-0.15492
0.55673	0.76336
-0.28482	0.86539
-0.38683	0.55929
-0.08081	-0.33348
-1.20288	-0.89465
0.55673	-0.48652
1.44929	0.91640
0.73524	0.78886
-0.23382	0.10015
-0.28482	-0.33348
0.19971	-1.81293
0.27621	-0.74160
0.09770	1.17148
0.42922	1.40105
-0.33583	1.27351
-0.02981	0.66132
0.30171	0.22769
0.30171	0.25320
-0.64185	0.48277
1.09226	-0.41000
0.76074	-1.43031
0.19971	-0.48652
-0.43783	0.30422
0.32721	0.63582
0.68424	0.43176
0.22521	-0.00188
-0.51434	0.35523
0.12320	-1.30277
0.35272	0.10015
-0.33583	1.17148
-0.38683	0.96742
-0.25932	0.96742
0.09770	-0.15492
0.37822	-1.20074
0.02119	0.61031
0.07220	0.86539
0.02119	0.27871
0.81175	-0.43551
1.04126	0.25320
0.63323	0.61031
-0.28482	0.07465
0.32721	-0.61406
0.37822	-0.43551
-1.02437	-0.23145
0.07220	-0.74160
0.42922	1.12046
0.17421	1.37554
-0.13181	0.50828
-0.13181	-0.43551
0.09770	-1.22625
0.45472	0.17668
0.27621	1.01843
0.02119	0.94191
0.40372	0.71234
0.04670	0.96742
-0.25932	-0.79262
0.25071	-1.14973
0.63323	0.17668
-0.15732	0.55929
0.27621	0.68683
0.07220	-0.12942
-0.00431	0.32972
-0.20832	0.63582
0.53123	0.25320
0.12320	-0.33348
0.12320	-0.66508
0.48022	0.63582
-0.69285	0.40625
0.58223	-0.48652
0.73524	-0.28246
-0.05531	1.01843
-0.43783	1.35003
0.17421	0.25320
0.53123	-2.11902
0.22521	-0.05289
0.09770	1.27351
-0.00431	-0.51203
0.17421	-0.10391
-0.46334	0.96742
0.32721	1.45206
0.42922	0.30422
0.27621	-0.20594
0.12320	0.12566
-0.15732	0.15117
-0.13181	0.50828
0.48022	0.66132
0.53123	-0.69059
0.27621	-0.94566
-0.08081	-0.97117
-0.53984	0.25320
0.09770	0.66132
0.60773	0.30422
0.35272	-0.02739
-0.46334	0.20219
0.12320	0.40625
0.60773	0.55929
0.48022	-0.12942
0.27621	0.07465
0.53123	0.17668
-0.48884	0.10015
-0.36133	-0.15492
0.07220	-0.38449
-0.41233	0.15117
0.35272	0.76336
0.22521	1.60511
0.27621	1.22250
0.53123	-0.84363
0.53123	-0.81812
-0.08081	-0.28246
-0.59084	-0.69059
0.32721	-0.07840
0.65874	0.68683
0.27621	1.42656
0.09770	-0.30797
-0.05531	-0.35899
-0.31033	0.12566
0.99026	0.25320
-0.08081	-0.10391
0.32721	-1.78742
-0.10631	0.27871
-0.18282	1.45206
-0.33583	1.22250
-0.33583	1.01843
0.14870	0.32972
0.42922	-0.30797
0.40372	-1.07320
0.27621	0.17668
0.19971	0.43176
0.99026	0.22769
0.07220	0.71234
-0.28482	0.10015
-0.15732	-0.58856
-0.18282	-0.38449
-0.41233	-1.02219
0.42922	-0.63957
1.01576	-0.00188
0.58223	1.47757
0.12320	1.45206
-0.13181	1.27351
-0.08081	0.17668
0.09770	-0.53754
-0.23382	-0.23145
0.32721	-0.33348
0.93925	0.45726
-0.05531	1.14597
0.02119	-0.38449
-0.15732	-0.25695
0.14870	0.61031
0.07220	0.66132
0.14870	-0.10391
0.76074	-0.76711
0.53123	-0.35899
-0.28482	1.37554
-0.48884	-0.28246
-0.10631	-2.88425
0.22521	-0.30797
0.09770	1.73265
0.63323	1.80917
0.12320	1.19699
0.55673	0.43176
0.19971	0.48277
0.83725	0.40625
-0.33583	-0.43551
-0.61635	-1.83844
-0.18282	-0.56305
0.45472	0.10015
0.37822	0.96742
0.12320	1.73265
0.02119	1.65613
-0.56534	1.35003
-0.15732	-1.12422
0.91375	-3.57296
0.81175	-2.29757
-0.08081	-0.89465
0.30171	2.08976
0.73524	1.73265
0.02119	0.53379
-0.38683	1.83468
-0.13181	1.29902
-0.13181	-0.81812
0.35272	-0.86914
0.17421	0.81437
-0.25932	0.91640
-0.53984	-0.02739
-0.36133	-0.92016
1.60230	-1.20074
0.81175	0.27871
0.53123	0.71234
-0.48884	0.83988
-0.41233	0.55929
-0.13181	0.30422
0.40372	0.27871
0.17421	0.02363
0.14870	-0.92016
0.19971	-0.89465
-0.18282	-0.05289
-0.05531	0.71234
0.27621	0.32972
0.73524	0.50828
0.68424	-0.63957
-0.13181	-1.09871
-0.18282	0.04914
0.12320	1.35003
-0.02981	1.37554
-0.23382	1.78367
0.17421	1.63062
0.83725	0.45726
0.48022	-1.58336
-0.28482	-2.11902
-0.82036	-1.65988
1.57679	0.38074
0.30171	1.19699
-0.99887	1.12046
-0.08081	1.09496
0.65874	0.50828
0.81175	-0.28246
-0.18282	-0.23145
-0.38683	0.20219
0.22521	0.53379
0.40372	0.38074
-0.38683	0.35523
0.22521	-1.50683
1.04126	-0.97117
-0.28482	-0.23145
-0.08081	0.58480
0.32721	0.12566
0.25071	0.91640
0.22521	1.24800
-0.13181	1.68163
0.02119	1.42656
-0.15732	-1.88945
0.32721	-1.68539
0.60773	-0.61406
0.04670	-0.51203
0.45472	1.35003
0.17421	1.70714
-0.02981	0.71234
-0.05531	0.61031
0.02119	0.78886
0.09770	-0.12942
0.40372	-0.48652
0.07220	-1.02219
-0.08081	0.02363
-0.23382	-0.66508
0.17421	-0.71609
0.42922	-0.35899
-0.00431	0.32972
0.55673	0.50828
0.86275	1.52859
0.32721	1.70714
-0.15732	0.73785
-0.15732	0.25320
-0.05531	0.38074
0.09770	-0.51203
0.19971	-1.94047
0.09770	-1.22625
0.42922	-0.86914
-0.08081	1.01843
0.27621	1.73265
0.09770	1.70714
0.04670	1.14597
-0.08081	-1.04770
-0.18282	-2.75671
0.96476	-0.92016
0.58223	0.61031
-0.18282	1.55410
-0.18282	1.57960
-0.00431	1.04394
0.65874	0.50828
0.99026	-0.35899
0.12320	-0.25695
-0.71835	-0.51203
-0.69285	-1.43031
-0.28482	-0.41000
0.48022	0.61031
0.53123	0.25320
0.55673	1.09496
0.30171	0.83988
0.04670	-0.66508
0.81175	-0.23145
0.02119	0.63582
-0.69285	0.78886
-0.41233	-0.00188
-0.13181	-0.33348
-0.15732	0.30422
0.63323	1.06945
0.83725	0.12566
0.73524	-0.28246
-0.08081	-0.58856
-0.92237	-0.02739
0.70974	-0.25695
0.37822	0.83988
-0.02981	0.35523
-0.28482	-0.81812
0.45472	0.12566
0.93925	0.71234
-0.00431	0.94191
-0.05531	0.25320
-0.82036	0.38074
0.45472	0.53379
0.53123	0.22769
-0.28482	0.04914
-0.41233	-1.60887
0.32721	-0.61406
0.53123	0.76336
0.19971	-0.56305
0.58223	-0.58856
0.55673	0.68683
0.02119	1.57960
0.09770	0.83988
1.24527	-0.20594
0.17421	-0.94566
-0.82036	0.63582
-0.76936	1.17148
-0.74385	0.48277
-0.08081	-0.23145
0.45472	0.20219
1.01576	0.27871
0.53123	0.15117
0.04670	-0.56305
0.22521	-0.53754
0.22521	0.22769
-0.18282	0.22769
0.14870	-0.46102
-0.00431	-1.96597
-0.08081	-0.30797
0.65874	1.80917
0.99026	1.78367
0.02119	0.96742
-0.56534	0.96742
-0.00431	0.04914
0.70974	-0.97117
-0.13181	-0.84363
-0.28482	-0.02739
0.37822	0.27871
0.02119	0.07465
0.22521	0.38074
0.09770	0.96742
-0.53984	0.55929
1.19427	0.58480
0.22521	0.30422
-0.18282	-0.20594
0.09770	-0.89465
-0.53984	-1.09871
-0.08081	-0.66508
0.58223	-0.48652
0.76074	0.66132
0.65874	0.96742
0.19971	1.50308
-0.36133	1.12046
0.37822	0.81437
0.50573	-0.23145
-0.89686	-1.99148
-0.43783	-1.86394
-0.10631	-0.23145
0.07220	1.68163
0.14870	0.45726
0.65874	-0.20594
1.14327	1.52859
0.50573	1.55410
0.09770	1.37554
-0.20832	0.35523
-0.05531	-1.09871
0.02119	-1.53234
0.27621	-0.97117
0.22521	0.25320
0.14870	0.99292
-0.28482	0.91640
-0.28482	-0.38449
0.42922	-0.76711
0.37822	0.02363
0.22521	-1.40480
-0.28482	0.04914
0.48022	0.63582
0.53123	0.35523
0.25071	1.32453
-0.13181	1.55410
-0.66735	0.32972
0.53123	0.20219
0.30171	-0.20594
-0.31033	-0.46102
1.11776	-1.55785
0.76074	0.76336
0.22521	0.78886
-0.08081	0.91640
-0.43783	0.63582
-0.31033	0.04914
0.02119	-0.15492
-0.08081	-0.94566
0.30171	-0.02739
0.19971	-0.25695
0.35272	-0.61406
0.19971	-0.28246
-0.00431	1.09496
0.14870	2.19179
0.93925	0.53379
0.25071	-2.75671
0.50573	-0.74160
0.22521	1.65613
-0.23382	1.04394
-0.33583	-0.92016
-0.28482	0.04914
0.04670	0.63582
0.07220	1.32453
-0.08081	0.94191
0.25071	0.38074
0.55673	0.55929
0.02119	0.15117
0.25071	-1.99148
0.48022	-1.68539
0.09770	0.22769
-0.20832	0.63582
-0.05531	0.71234
0.68424	-0.69059
-0.00431	0.89089
-0.28482	0.99292
-0.71835	0.04914
0.27621	-0.33348
1.34728	-0.38449
0.99026	0.17668
0.12320	1.09496
-0.13181	0.78886
-0.31033	-0.00188
-0.33583	-0.69059
-0.20832	-0.51203
-0.08081	0.61031
0.25071	1.42656
0.70974	0.15117
-0.02981	-0.51203
0.50573	-0.58856
0.19971	-0.23145
-0.48884	0.63582
0.78624	0.58480
-0.00431	0.45726
0.04670	0.38074
0.04670	0.30422
0.32721	0.86539
0.30171	-0.05289
-1.81492	-0.99668
1.67880	-0.92016
1.11776	-0.35899
-0.28482	0.17668
-0.69285	0.66132
-0.38683	0.78886
0.35272	0.96742
0.58223	0.53379
0.25071	0.15117
0.25071	-0.23145
0.02119	-0.38449
-0.13181	-1.04770
-0.18282	0.04914
-0.15732	0.91640
-0.28482	1.40105
0.27621	0.27871
1.01576	-0.56305
0.53123	-0.66508
0.12320	-0.94566
0.17421	-0.07840
-0.08081	0.76336
0.35272	1.35003
0.32721	1.12046
0.22521	1.57960
-0.31033	0.96742
-0.41233	-1.73640
0.45472	-3.16484
0.14870	-0.76711
0.09770	0.45726
0.17421	0.91640
0.14870	1.60511
0.30171	1.12046
0.14870	0.48277
0.37822	1.27351
-0.05531	-0.86914
-0.05531	-1.12422
-0.08081	-1.09871
0.12320	-1.17523
0.48022	0.68683
0.63323	1.24800
0.45472	1.35003
-1.22839	1.01843
1.24527	1.22250
1.34728	1.09496
-0.51434	-1.07320
-0.74385	-3.62398
-0.46334	-2.42511
-0.51434	-0.35899
-0.10631	1.47757
0.04670	1.91120
0.19971	1.35003
0.30171	1.14597
0.68424	1.14597
1.11776	0.07465
0.48022	-0.00188
-0.28482	0.22769
-0.10631	-1.17523
-0.38683	-2.50164
0.14870	-0.46102
0.88825	0.83988
-0.00431	1.73265
-0.08081	1.60511
0.12320	0.89089
-0.13181	-0.56305
-0.41233	-1.55785
0.22521	-1.40480
0.73524	0.04914
0.22521	0.04914
-0.05531	1.14597
0.42922	1.24800
0.35272	1.80917
0.04670	1.86019
-0.28482	0.71234
-0.59084	-1.12422
0.07220	-1.86394
1.65330	-0.56305
0.32721	-0.18043
-0.18282	0.07465
-0.13181	1.14597
-0.20832	-0.12942
-0.08081	-1.14973
-0.18282	0.15117
-0.43783	1.96222
1.29628	0.30422
0.55673	-0.12942
-0.31033	-1.07320
-0.31033	0.25320
-0.36133	1.17148
1.52579	1.22250
0.73524	1.04394
0.42922	0.81437
-0.23382	-0.00188
0.12320	-1.55785
-0.43783	-0.07840
-0.79486	-0.30797
-0.31033	-0.99668
0.27621	-0.18043
0.68424	0.45726
0.53123	0.55929
0.14870	0.96742
-0.10631	0.25320
-0.15732	-0.00188
-0.28482	0.32972
0.86275	0.15117
1.06676	-0.25695
-0.02981	0.35523
-0.25932	-0.12942
-0.02981	-0.99668
0.27621	0.71234
0.22521	0.58480
0.22521	0.58480
0.12320	1.09496
-0.00431	-0.30797
0.30171	0.10015
-0.10631	-1.12422
0.04670	-0.97117
-0.20832	0.53379
0.09770	0.89089
0.25071	1.27351
0.45472	1.55410
0.42922	0.66132
0.30171	-0.41000
0.60773	0.43176
0.35272	-0.74160
-0.43783	-1.37929
-0.41233	-0.12942
-0.00431	-1.14973
0.30171	-0.71609
0.09770	1.22250
-0.08081	1.57960
0.73524	1.73265
1.04126	1.14597
-0.13181	0.43176
-0.79486	-0.81812
0.12320	-0.81812
0.73524	-0.23145
0.40372	0.20219
-0.23382	-0.18043
-0.46334	-0.25695
0.50573	0.43176
0.73524	0.86539
-0.10631	0.63582
-0.23382	0.15117
0.17421	0.83988
0.48022	-0.71609
0.04670	-1.22625
-0.05531	-0.46102
-0.28482	0.27871
0.04670	0.68683
0.63323	-0.43551
0.48022	1.42656
0.02119	1.80917
-0.10631	0.30422
0.04670	-1.58336
-0.28482	-0.35899
0.50573	0.96742
1.19427	0.27871
0.27621	0.35523
-0.05531	-0.15492
-0.10631	-0.35899
-0.23382	-0.07840
0.07220	0.45726
0.09770	0.68683
0.19971	0.45726
-0.08081	0.50828
-0.31033	-0.56305
1.42379	-0.18043
0.32721	-0.00188
-0.59084	-0.12942
-0.38683	0.32972
-0.02981	0.32972
0.12320	0.04914
0.60773	0.73785
0.32721	0.48277
0.09770	-0.00188
-0.43783	-0.48652
-0.99887	-0.18043
0.86275	0.66132
0.53123	-1.71090
0.14870	-2.65468
0.02119	0.78886
0.14870	2.24281
0.32721	1.98773
0.25071	1.70714
0.22521	0.91640
-0.05531	0.71234
-0.25932	-0.61406
0.09770	-1.12422
0.42922	-0.84363
0.58223	-0.41000
0.42922	0.40625
-0.25932	0.61031
-0.25932	-0.25695
0.17421	0.15117
0.42922	-0.00188
-0.10631	-0.41000
-0.13181	-1.43031
0.48022	-0.46102
0.42922	1.24800
-0.05531	1.86019
-0.08081	1.40105
0.04670	1.40105
0.60773	-0.15492
0.32721	-0.86914
-0.15732	-0.30797
0.37822	0.35523
0.60773	-0.18043
-0.41233	-0.46102
-0.18282	-0.58856
0.09770	-0.97117
0.32721	0.76336
-0.05531	1.45206
-0.02981	1.14597
0.12320	0.20219
0.07220	-0.35899
0.04670	-0.99668
0.83725	-1.32828
0.78624	0.35523
0.19971	1.19699
-0.13181	1.17148
-0.00431	1.60511
0.19971	0.73785
-0.05531	-0.66508
-0.28482	-1.40480
0.32721	-0.43551
-0.33583	1.04394
-0.43783	-0.05289
-0.31033	-2.17003
0.78624	0.04914
0.70974	1.06945
0.70974	1.37554
-0.18282	1.65613
0.35272	0.66132
1.04126	-2.11902
-0.08081	-0.97117
-0.38683	0.78886
-0.46334	0.25320
-0.02981	0.63582
0.17421	1.24800
0.17421	1.09496
0.45472	0.02363
0.32721	-0.20594
0.25071	0.32972
0.53123	-0.97117
0.07220	-1.91496
0.02119	-0.46102
-0.00431	0.61031
-0.05531	1.68163
-0.05531	0.58480
-0.10631	-0.02739
0.25071	-0.69059
-0.00431	-0.51203
0.40372	0.25320
0.58223	1.09496
0.17421	0.78886
0.22521	0.50828
-0.31033	-0.89465
0.19971	0.48277
-0.25932	0.66132
0.68424	1.37554
0.42922	-0.28246
-0.38683	-1.07320
0.12320	-0.84363
0.30171	0.50828
-0.08081	0.53379
0.27621	0.38074
0.09770	0.04914
-0.48884	-0.02739
0.09770	0.15117
-0.10631	-0.46102
0.81175	-0.15492
0.73524	0.78886
0.40372	-0.12942
0.99026	-0.99668
0.09770	0.61031
-0.36133	0.86539
-0.69285	0.73785
-0.38683	0.94191
-0.10631	0.76336
-0.08081	0.22769
0.04670	-0.23145
0.55673	-0.81812
0.73524	-0.28246
0.68424	0.58480
-0.41233	-1.04770
-0.08081	-1.09871
0.14870	-0.23145
0.22521	0.40625
0.40372	0.43176
0.27621	1.60511
-0.08081	1.40105
-0.08081	0.96742
0.42922	0.27871
0.32721	-1.27726
-0.41233	-0.66508
0.32721	-0.05289
0.35272	0.96742
0.02119	0.50828
-0.33583	-0.76711
-0.53984	-0.89465
0.55673	0.20219
0.53123	0.55929
0.45472	0.40625
-0.10631	0.89089
0.35272	1.35003
0.22521	0.53379
-0.15732	-0.61406
0.14870	0.07465
0.27621	0.12566
0.65874	-0.23145
0.81175	-1.32828
-0.28482	-0.69059
-0.36133	0.43176
-0.79486	0.63582
-0.59084	0.66132
0.07220	0.43176
0.19971	-0.33348
0.45472	0.22769
0.32721	-0.35899
0.58223	-0.10391
1.27078	0.30422
0.35272	0.68683
-0.33583	1.42656
0.04670	1.04394
0.63323	-0.02739
0.14870	-0.41000
-0.59084	-0.18043
-0.48884	0.10015
-0.20832	-0.10391
0.42922	0.07465
0.55673	1.27351
-0.25932	0.68683
0.40372	-1.27726
0.68424	-3.13933
-0.23382	-1.35379
-0.38683	0.48277
0.17421	1.35003
0.22521	2.29382
0.45472	2.11527
0.70974	0.43176
-0.13181	-1.25176
0.12320	-0.89465
0.55673	-1.14973
0.19971	0.15117
-0.33583	1.88570
-0.36133	1.45206
0.09770	-0.51203
0.53123	-0.74160
0.17421	0.43176
0.04670	0.15117
0.27621	0.22769
0.63323	0.40625
0.02119	0.20219
-0.59084	0.17668
-0.15732	0.22769
0.70974	-1.32828
1.72980	-1.55785
0.04670	0.22769
-0.33583	1.19699
-0.43783	0.99292
-0.69285	0.99292
0.37822	0.15117
0.14870	0.58480
0.42922	-0.15492
0.27621	-0.86914
-0.31033	-2.47613
0.14870	-1.53234
0.76074	1.86019
0.07220	3.16108
0.07220	2.59991
0.27621	0.32972
0.50573	-1.45582
0.60773	-0.92016
0.42922	0.45726
-0.31033	0.02363
-0.53984	-0.43551
-0.48884	0.25320
-0.13181	0.63582
0.42922	1.01843
0.17421	0.48277
0.76074	-0.94566
0.76074	-1.48133
0.12320	-0.18043
-0.36133	0.25320
0.07220	0.53379
-0.43783	0.61031
-0.48884	0.25320
0.09770	-0.30797
0.68424	0.25320
0.58223	0.78886
0.30171	0.94191
0.14870	-1.07320
0.63323	-0.66508
0.40372	0.25320
0.12320	0.86539
-0.23382	0.99292
-0.31033	1.01843
0.12320	0.10015
0.27621	-0.33348
-0.18282	-0.20594
0.48022	-0.02739
0.81175	1.04394
-0.02981	-0.46102
0.22521	-1.73640
0.12320	-0.20594
-0.38683	1.01843
-0.00431	1.68163
0.14870	0.45726
0.09770	-0.48652
0.42922	0.15117
0.30171	0.55929
-0.10631	0.35523
0.04670	0.96742
0.50573	0.40625
0.30171	-0.33348
0.25071	-0.66508
-0.00431	-1.09871
0.09770	0.15117
0.45472	-0.25695
-0.00431	0.66132
-0.43783	0.30422
0.17421	-2.75671
0.27621	-1.12422
-0.05531	1.86019
-0.15732	2.57441
0.32721	2.01323
-0.00431	1.17148
0.04670	1.65613
1.90832	1.52859
0.48022	-0.61406
-0.28482	-3.31788
-0.69285	-2.09351
-0.28482	0.02363
-0.25932	0.22769
0.35272	0.66132
0.73524	0.48277
0.30171	0.04914
-0.38683	0.15117
0.04670	0.68683
0.50573	0.86539
0.50573	0.43176
0.12320	0.30422
-0.10631	-0.86914
-0.46334	-1.86394
0.48022	-1.63437
1.44929	1.37554
0.02119	2.01323
-0.38683	1.01843
-0.00431	1.27351
-0.10631	1.37554
-0.02981	0.22769
0.65874	0.07465
-0.38683	-1.81293
-0.15732	-1.09871
0.12320	-0.12942
0.37822	0.35523
0.42922	0.48277
0.58223	0.66132
0.27621	0.71234
-0.00431	0.15117
0.02119	0.55929
0.14870	0.30422
0.09770	-0.28246
0.40372	-0.86914
-0.59084	-2.73121
0.17421	-0.61406
-0.23382	1.45206
0.07220	1.22250
0.17421	0.73785
0.60773	0.99292
-0.08081	1.29902
0.12320	1.14597
0.42922	-0.00188
0.50573	-0.38449
-0.20832	-1.73640
-0.02981	-1.27726
0.27621	0.81437
0.37822	0.63582
0.68424	0.78886
0.55673	0.76336
0.25071	0.38074
-0.56534	0.30422
-0.59084	-1.12422
-0.41233	-0.97117
-0.25932	-0.15492
0.02119	0.55929
0.14870	1.12046
0.53123	0.81437
0.96476	0.73785
0.48022	-1.71090
0.53123	-1.04770
0.12320	0.86539
-0.10631	1.68163
0.04670	2.26831
0.53123	0.66132
-0.51434	-1.81293
-0.05531	-1.81293
-0.08081	-0.58856
-0.43783	-0.71609
0.27621	0.96742
0.42922	1.75816
1.19427	1.63062
0.17421	2.03874
-0.13181	0.15117
0.32721	-2.24656
-0.38683	-1.81293
-0.18282	-0.20594
0.09770	0.78886
0.14870	0.71234
0.19971	0.96742
0.12320	0.83988
0.19971	0.17668
0.22521	-0.05289
0.25071	-0.46102
0.86275	-2.29757
0.12320	-1.14973
-0.25932	0.45726
0.09770	1.55410
0.42922	1.57960
0.40372	1.57960
0.07220	1.12046
0.14870	-0.35899
0.07220	-0.86914
-0.28482	-0.69059
-0.20832	-0.35899
-0.10631	1.14597
0.07220	1.29902
0.73524	-0.46102
1.21977	-1.88945
0.60773	-0.23145
-0.28482	0.12566
-0.13181	-0.00188
-0.08081	0.63582
-0.13181	1.40105
-0.08081	2.21730
0.09770	0.32972
0.25071	-1.25176
0.12320	-0.79262
0.07220	-0.41000
0.30171	-1.58336
0.14870	-0.86914
0.63323	1.60511
1.14327	0.78886
-0.31033	1.37554
-0.46334	1.42656
-0.25932	1.01843
-0.13181	-0.00188
0.07220	-0.48652
0.30171	-0.51203
0.19971	0.07465
0.04670	0.38074
0.55673	-0.51203
0.78624	-0.81812
-0.00431	-1.04770
-0.31033	0.30422
-0.10631	0.76336
-0.23382	-0.30797
-0.02981	-0.07840
1.14327	1.78367
0.27621	0.45726
-0.20832	-0.35899
0.19971	-0.46102
0.68424	-0.10391
-0.43783	0.30422
-0.28482	1.57960
0.02119	1.45206
0.09770	0.91640
0.50573	0.50828
0.40372	-0.05289
0.09770	-0.58856
0.30171	-0.23145
0.14870	-1.63437
-0.02981	-1.37929
-0.25932	0.63582
0.07220	0.89089
0.73524	-0.92016
0.83725	1.42656
-0.18282	0.81437
-0.28482	-1.40480
-0.00431	-1.78742
0.25071	0.45726
0.25071	1.78367
0.50573	1.37554
0.17421	1.04394
-0.31033	1.50308
0.04670	0.22769
0.09770	0.27871
0.22521	0.76336
0.30171	-0.79262
0.09770	-1.71090
0.25071	-0.35899
0.78624	0.58480
0.22521	1.32453
-0.02981	1.06945
0.09770	-0.33348
-0.28482	-1.68539
-0.05531	-0.86914
0.70974	0.25320
0.25071	0.48277
-0.20832	0.76336
-0.13181	0.15117
0.09770	0.20219
-0.02981	0.35523
0.04670	0.30422
0.17421	1.09496
0.04670	0.66132
0.76074	0.66132
0.22521	-0.66508
-0.15732	-1.43031
-0.46334	-0.41000
0.09770	-0.12942
0.68424	0.86539
0.42922	1.35003
0.19971	0.63582
0.22521	-0.15492
-0.02981	-0.58856
-0.20832	0.02363
0.07220	0.25320
0.25071	0.10015
0.27621	0.32972
0.25071	0.63582
0.14870	0.71234
-0.18282	-0.23145
0.35272	-0.71609
0.53123	-0.66508
-0.05531	-0.94566
-0.08081	0.17668
0.27621	1.17148
-0.00431	0.48277
0.27621	0.66132
0.14870	0.99292
0.35272	1.70714
0.09770	0.71234
-0.10631	-1.37929
-0.13181	-3.67499
-0.08081	-0.99668
0.30171	0.89089
-0.00431	1.45206
-0.10631	0.91640
0.04670	0.86539
0.88825	0.04914
0.93925	-0.56305
0.14870	0.38074
-0.20832	0.43176
-0.15732	0.27871
-0.00431	-0.28246
-0.08081	0.15117
0.17421	0.68683
-0.05531	0.32972
0.32721	-0.43551
0.76074	-0.94566
0.07220	-0.63957
0.70974	-0.48652
0.14870	0.86539
-0.69285	0.40625
-0.46334	0.35523
0.12320	0.99292
0.50573	1.40105
0.32721	1.14597
-0.00431	-0.81812
0.50573	-1.40480
-0.05531	-0.76711
-0.38683	-1.14973
-0.08081	-0.10391
0.17421	1.68163
0.09770	1.73265
0.22521	1.45206
0.58223	-0.10391
1.24527	-1.12422
-0.00431	-0.07840
-0.53984	1.55410
-0.15732	1.06945
0.32721	-1.25176
-0.15732	-2.06800
-0.08081	-0.92016
0.14870	1.27351
0.27621	0.53379
0.76074	-0.43551
0.60773	-0.33348
0.07220	0.89089
-0.25932	1.29902
0.02119	0.58480
0.09770	0.91640
0.07220	-0.25695
-0.20832	-0.74160
0.04670	-0.15492
0.19971	-0.05289
0.22521	0.76336
0.09770	0.45726
0.17421	0.76336
0.42922	1.06945
0.45472	0.38074
0.50573	-1.35379
0.02119	-1.22625
-0.31033	-0.86914
-0.28482	-0.56305
0.22521	-0.30797
0.37822	0.35523
-0.08081	0.61031
-0.10631	1.86019
0.07220	2.16628
0.27621	0.86539
0.14870	-2.55265
0.09770	-0.79262
0.19971	0.76336
-0.08081	0.78886
0.32721	1.35003
0.60773	0.94191
0.65874	-0.28246
0.14870	-0.30797
-0.02981	-0.35899
-0.31033	-0.63957
-0.18282	-1.55785
0.30171	-2.24656
-0.33583	0.61031
-0.41233	2.03874
0.48022	1.17148
0.50573	0.96742
0.42922	0.12566
0.50573	-0.15492
0.50573	0.86539
-0.08081	0.73785
0.04670	-0.28246
0.09770	-0.12942
0.17421	-0.25695
-0.13181	-0.00188
-0.28482	0.12566
0.32721	-0.41000
0.42922	0.55929
0.30171	-0.07840
-0.02981	-0.10391
0.09770	0.53379
0.14870	-0.79262
0.12320	-0.56305
-0.13181	1.12046
-0.08081	0.22769
-0.08081	-1.07320
0.50573	0.22769
0.73524	1.42656
0.04670	1.37554
0.32721	0.63582
0.96476	0.73785
-0.23382	0.63582
-0.28482	0.17668
-0.23382	-0.20594
-0.00431	-0.84363
0.35272	-0.43551
-0.36133	-0.76711
0.27621	-0.20594
0.42922	0.45726
0.22521	0.66132
0.19971	-0.66508
-0.02981	0.35523
-0.00431	0.45726
0.22521	0.15117
0.78624	0.53379
0.22521	1.42656
0.22521	-0.18043
-0.10631	-0.97117
-0.10631	-0.15492
0.12320	0.78886
-0.00431	1.29902
0.14870	1.01843
-0.18282	0.15117
-0.10631	-0.41000
0.32721	-0.38449
0.30171	0.07465
0.53123	0.53379
0.12320	0.04914
0.40372	-0.10391
0.04670	-0.20594
0.37822	-1.32828
0.35272	-0.15492
0.02119	0.30422
-0.31033	0.73785
-0.23382	0.71234
-0.08081	0.63582
0.27621	0.71234
0.68424	0.22769
0.25071	-0.15492
0.09770	0.50828
0.02119	-0.10391
0.17421	-0.53754
0.88825	-1.25176
-0.13181	-0.99668
-0.02981	0.81437
-0.02981	1.86019
0.07220	0.66132
0.35272	0.66132
-0.05531	1.78367
0.25071	-0.00188
0.93925	-2.37410
-0.02981	-2.32308
-0.28482	0.43176
-0.36133	0.89089
-0.36133	1.17148
-0.41233	1.22250
0.63323	0.91640
1.39828	1.01843
0.30171	1.70714
-0.08081	-0.30797
-0.10631	-3.44542
-0.00431	-2.62918
0.12320	-0.33348
0.09770	1.68163
0.19971	1.98773
-0.13181	1.78367
0.02119	0.76336
0.02119	-0.48652
