0.12320	0.20219
0.09770	0.22769
0.12320	0.27871
0.14870	0.20219
0.04670	0.02363
0.14870	0.07465
0.19971	0.17668
0.22521	0.10015
0.17421	0.04914
0.17421	0.15117
0.12320	0.22769
0.14870	0.15117
0.22521	0.15117
0.02119	0.20219
0.07220	0.20219
0.12320	0.10015
0.32721	-0.02739
0.22521	0.07465
0.27621	0.04914
0.22521	0.20219
0.22521	0.32972
0.09770	0.38074
0.02119	0.07465
-0.08081	0.15117
0.04670	0.17668
0.17421	0.12566
0.22521	-0.00188
0.14870	-0.00188
0.22521	0.07465
0.25071	0.20219
0.14870	0.20219
0.07220	0.15117
0.07220	0.27871
0.12320	0.43176
0.14870	0.22769
0.12320	0.20219
0.32721	-0.07840
0.22521	-0.07840
0.12320	0.04914
0.14870	-0.10391
0.22521	0.12566
0.12320	0.58480
-0.02981	0.58480
-0.05531	0.02363
0.07220	-0.00188
0.27621	-0.02739
0.30171	-0.00188
0.17421	0.07465
0.09770	0.17668
0.12320	0.02363
0.17421	0.25320
0.12320	0.63582
0.14870	0.25320
-0.00431	0.07465
0.07220	0.02363
0.14870	-0.02739
0.19971	0.02363
0.19971	0.04914
0.19971	-0.02739
0.32721	0.20219
0.22521	0.27871
0.02119	0.20219
0.09770	0.12566
0.07220	0.22769
-0.00431	0.25320
0.09770	0.15117
0.22521	0.17668
0.09770	0.04914
0.12320	0.07465
0.25071	0.20219
0.25071	0.07465
0.22521	0.15117
-0.05531	0.25320
0.04670	0.15117
0.14870	0.07465
0.14870	0.04914
0.12320	0.04914
0.22521	0.10015
0.30171	0.20219
0.12320	0.17668
0.02119	0.22769
0.07220	0.12566
0.27621	0.12566
0.17421	0.10015
-0.02981	0.25320
0.04670	0.25320
0.19971	0.20219
0.12320	0.17668
0.14870	0.02363
0.25071	0.04914
0.22521	0.25320
0.12320	0.27871
0.09770	0.12566
0.17421	0.12566
0.12320	0.10015
0.07220	0.10015
0.19971	0.17668
0.14870	0.12566
0.19971	0.02363
0.22521	0.17668
0.09770	0.22769
0.07220	0.30422
0.07220	0.15117
0.09770	0.12566
0.02119	0.22769
0.30171	0.10015
0.22521	0.04914
0.12320	-0.00188
0.17421	0.07465
0.12320	0.22769
0.17421	0.12566
0.19971	0.10015
0.02119	0.10015
-0.02981	0.20219
0.04670	0.17668
0.12320	0.04914
0.25071	0.04914
0.27621	-0.02739
0.19971	0.04914
0.27621	0.30422
0.14870	0.38074
0.04670	0.12566
0.02119	0.15117
0.02119	0.12566
-0.00431	-0.10391
0.19971	0.17668
0.27621	0.55929
0.12320	0.07465
0.22521	-0.12942
0.17421	-0.10391
0.19971	-0.00188
0.12320	0.35523
0.04670	0.35523
0.09770	0.17668
0.09770	0.12566
0.17421	0.02363
0.14870	-0.00188
0.14870	0.15117
0.35272	0.10015
0.17421	0.17668
-0.00431	0.38074
-0.13181	0.27871
0.02119	0.22769
0.22521	0.38074
0.14870	0.25320
0.17421	0.10015
0.17421	0.04914
0.14870	0.07465
0.17421	-0.12942
0.17421	-0.15492
0.09770	0.12566
0.07220	0.25320
0.12320	0.22769
0.07220	0.22769
0.02119	0.15117
0.22521	0.07465
0.09770	0.27871
0.27621	0.58480
0.02119	0.04914
0.22521	-0.18043
0.27621	0.02363
0.32721	0.17668
0.35272	0.58480
-0.00431	0.35523
0.07220	0.43176
-0.00431	0.25320
0.09770	0.10015
0.22521	-0.46102
0.14870	-0.81812
0.07220	-0.43551
0.37822	0.20219
0.25071	0.53379
0.12320	0.78886
0.07220	0.58480
-0.28482	0.30422
-0.02981	0.38074
0.12320	-0.05289
0.76074	-0.41000
0.55673	-0.10391
0.14870	0.63582
-0.43783	0.78886
0.07220	0.27871
0.22521	-0.71609
0.48022	-0.12942
-0.00431	-0.30797
-0.28482	-0.63957
0.25071	-0.30797
0.45472	0.86539
0.37822	0.43176
0.53123	0.17668
-0.10631	1.06945
0.07220	1.19699
-0.46334	1.17148
-0.15732	0.61031
0.48022	-1.60887
0.40372	-1.50683
0.35272	0.17668
-0.08081	0.91640
-0.08081	0.45726
0.76074	-0.33348
-0.00431	-1.07320
0.07220	0.50828
0.12320	0.71234
0.04670	0.76336
0.25071	-0.38449
0.42922	-1.17523
0.09770	0.38074
0.02119	1.32453
0.02119	1.52859
-0.33583	1.35003
0.04670	0.76336
0.58223	-1.96597
0.02119	-3.34339
0.07220	-0.43551
0.14870	1.27351
-0.18282	2.24281
0.58223	2.06425
0.07220	0.35523
-0.41233	-0.86914
0.04670	-1.43031
-0.20832	-2.14453
0.68424	-1.58336
1.16877	1.75816
0.35272	2.70194
-0.23382	2.14077
-0.18282	0.12566
0.07220	-0.35899
0.35272	-0.92016
-0.08081	-0.53754
-0.20832	-0.07840
0.14870	-1.12422
0.70974	1.60511
-0.76936	2.26831
-0.02981	1.98773
0.30171	0.20219
1.29628	-3.24136
0.93925	-2.06800
-0.51434	-0.35899
0.19971	0.76336
-0.05531	-0.15492
0.53123	0.45726
-0.46334	1.98773
-0.74385	2.59991
-0.69285	2.59991
0.14870	-2.65468
0.60773	-4.41472
0.30171	-1.94047
0.37822	0.17668
0.09770	2.01323
0.55673	2.54890
-0.20832	2.44687
0.17421	0.10015
0.09770	-0.84363
-0.25932	0.10015
0.19971	-0.48652
0.83725	-0.63957
0.32721	-1.53234
0.19971	-0.43551
-0.74385	0.55929
0.25071	1.37554
0.30171	0.91640
-0.33583	-0.46102
0.12320	-0.25695
0.55673	-0.23145
0.02119	1.06945
-0.05531	2.08976
-0.46334	1.78367
-0.05531	-0.25695
-0.89686	-3.19035
3.89744	-3.03730
1.93382	-0.46102
-0.53984	1.91120
-0.02981	2.14077
0.40372	2.03874
-0.66735	0.96742
-1.58541	-0.33348
-0.59084	-1.96597
0.04670	-0.12942
0.02119	0.32972
1.27078	-0.15492
0.09770	0.63582
-0.18282	-0.46102
-0.51434	-0.35899
-0.08081	-1.60887
0.30171	0.38074
0.93925	1.57960
1.39828	1.12046
0.48022	-0.92016
0.78624	-0.07840
-0.08081	0.30422
-0.94787	0.20219
-1.07538	1.19699
0.14870	1.06945
-0.33583	-0.07840
0.30171	-0.00188
1.04126	-0.23145
0.73524	-0.10391
-0.23382	-0.05289
0.19971	-0.74160
0.53123	0.94191
-0.79486	0.02363
-0.53984	-1.14973
0.02119	-1.48133
0.02119	0.58480
0.68424	1.70714
0.91375	1.91120
0.35272	0.45726
0.63323	-0.07840
-0.00431	-0.02739
-0.18282	-0.33348
-0.20832	-0.46102
-0.08081	0.48277
0.32721	0.81437
0.63323	0.68683
0.48022	-2.09351
-0.20832	-1.14973
-0.89686	0.07465
0.27621	1.70714
0.27621	1.98773
0.22521	0.30422
0.19971	-1.86394
-0.59084	-0.86914
-0.46334	0.61031
-2.42696	-0.69059
1.65330	-1.22625
3.28540	1.60511
0.19971	2.24281
-0.79486	1.86019
-0.74385	0.76336
-0.71835	0.53379
-0.41233	-0.05289
1.42379	-2.09351
1.14327	-1.22625
0.40372	-0.28246
0.32721	1.09496
0.22521	0.91640
0.12320	-1.02219
0.32721	-1.48133
-0.38683	-0.23145
-1.12638	0.71234
-0.64185	0.71234
0.17421	1.22250
0.14870	1.68163
0.02119	0.02363
0.32721	-0.92016
0.22521	0.35523
1.44929	0.61031
0.96476	-0.86914
0.04670	-0.61406
0.12320	0.17668
0.07220	0.66132
-0.31033	-0.63957
0.91375	-0.81812
-0.10631	0.66132
-0.66735	1.63062
-0.36133	0.76336
-0.23382	0.07465
-0.02981	0.04914
0.09770	0.61031
-0.05531	1.09496
0.81175	0.81437
1.57679	-0.46102
1.19427	0.22769
0.83725	-1.65988
-0.02981	-1.60887
-0.74385	1.35003
-0.38683	1.27351
0.42922	-2.50164
0.63323	-2.75671
0.22521	1.45206
-0.66735	1.50308
-2.12094	-0.25695
3.36191	-0.84363
1.47479	1.32453
-0.33583	1.93671
-1.15188	2.49788
-0.74385	2.75296
0.32721	0.61031
-0.25932	-1.27726
-0.56534	-1.63437
-0.18282	-0.99668
0.27621	-0.71609
1.21977	-0.05289
0.93925	0.22769
0.86275	0.15117
1.24527	0.12566
0.55673	0.15117
-1.20288	0.48277
-0.84586	0.91640
0.70974	0.20219
1.16877	-2.17003
-0.10631	-1.27726
-0.38683	0.32972
-0.61635	0.66132
-0.71835	1.65613
0.86275	0.48277
0.68424	0.07465
-0.05531	0.20219
0.19971	1.12046
0.63323	1.91120
-0.05531	1.78367
0.07220	-0.71609
0.17421	-0.23145
0.17421	-0.00188
0.09770	-1.17523
0.63323	-3.13933
-0.59084	-1.76191
-0.74385	0.99292
0.60773	1.91120
0.70974	2.52339
0.81175	0.71234
1.09226	-0.97117
-0.84586	-0.30797
-1.40690	-0.05289
-0.56534	-0.41000
0.53123	-1.04770
0.09770	0.25320
0.25071	1.57960
-1.55991	0.61031
3.48942	-0.18043
2.23984	-1.37929
-0.00431	0.12566
-0.41233	1.65613
-1.02437	0.27871
0.02119	0.35523
-0.53984	0.61031
-0.48884	0.25320
-0.69285	-0.53754
0.27621	-0.53754
0.48022	-0.02739
0.81175	0.17668
0.25071	-0.05289
0.02119	0.55929
1.16877	2.34484
-0.10631	1.17148
-0.18282	-3.08831
0.02119	-3.39441
0.93925	0.83988
1.93382	1.29902
0.78624	0.86539
-0.84586	1.52859
-1.43240	1.32453
-0.92237	0.43176
-1.12638	-1.43031
-0.31033	-1.45582
0.96476	-1.04770
0.14870	0.53379
0.02119	1.91120
0.68424	1.83468
0.70974	1.47757
0.58223	-0.12942
0.35272	-2.22105
0.40372	-1.48133
0.53123	0.48277
0.42922	1.12046
0.32721	-0.38449
0.27621	1.19699
-0.51434	1.19699
-0.48884	0.68683
-0.82036	-0.10391
-0.28482	-2.01699
0.53123	-1.76191
1.34728	-0.58856
0.45472	0.61031
0.07220	0.83988
-0.25932	2.16628
-0.43783	1.37554
-0.87136	-0.07840
-0.28482	0.07465
0.12320	0.12566
-0.28482	-0.15492
4.40748	0.35523
1.39828	-0.51203
-0.59084	-0.33348
-1.25389	-1.04770
0.50573	1.19699
-0.18282	1.80917
-1.81492	0.38074
0.02119	-2.14453
0.32721	-1.78742
0.60773	0.12566
0.76074	-0.00188
0.09770	1.06945
0.32721	1.45206
0.45472	1.47757
0.09770	1.55410
-0.38683	0.30422
0.25071	-0.79262
0.78624	0.17668
0.32721	0.22769
-0.41233	0.12566
-0.38683	-1.65988
0.25071	-1.45582
-0.28482	0.30422
-0.02981	0.00000
0.40372	0.00000
0.68424	0.00000
-0.00431	0.00000
0.42922	0.00000
1.01576	0.00000
0.27621	1.55410
-0.38683	0.50828
-0.31033	-0.35899
0.27621	0.35523
0.40372	0.15117
-0.38683	-0.02739
-0.00431	0.94191
-0.51434	0.89089
0.30171	-1.04770
0.14870	0.83988
0.30171	1.80917
0.45472	0.02363
-0.05531	-1.50683
1.83181	-1.04770
0.96476	-0.10391
-0.71835	1.12046
-0.69285	0.86539
0.12320	0.20219
-2.75848	0.25320
3.33641	-0.00188
1.24527	0.53379
-1.22839	0.07465
-1.10088	-0.84363
-0.94787	-1.20074
-0.23382	-0.53754
1.01576	1.29902
1.44929	1.73265
0.78624	0.04914
0.40372	-0.43551
0.14870	0.91640
-0.71835	0.61031
-1.12638	-1.37929
0.55673	-1.07320
0.09770	0.89089
-0.08081	1.98773
0.14870	0.04914
0.50573	0.25320
0.32721	0.27871
0.45472	0.63582
0.93925	0.32972
-0.41233	-0.79262
-1.40690	-0.51203
0.78624	-0.15492
0.83725	-0.33348
-0.10631	-0.33348
-0.05531	0.43176
0.07220	1.12046
0.02119	0.73785
0.32721	-0.35899
0.35272	0.15117
0.60773	-0.12942
0.02119	-0.15492
-0.08081	-0.35899
0.25071	0.15117
0.27621	1.75816
-0.00431	1.37554
-0.33583	-1.17523
-1.20288	-1.45582
0.91375	-0.66508
0.99026	0.96742
0.09770	1.96222
-0.59084	1.29902
0.86275	-0.10391
0.55673	-1.88945
-1.40690	-0.00188
-0.00431	0.58480
2.31634	-0.28246
1.14327	-0.43551
-1.38139	0.12566
-0.79486	0.63582
1.01576	0.96742
0.55673	1.06945
0.40372	-0.69059
-0.92237	-1.76191
-0.13181	-0.58856
-0.10631	0.89089
0.25071	1.37554
0.35272	1.29902
0.68424	-0.89465
1.14327	-1.09871
0.37822	-0.61406
0.07220	1.06945
-0.33583	0.61031
-1.02437	-0.38449
-0.99887	0.55929
0.04670	0.91640
0.68424	0.66132
0.76074	1.01843
1.01576	0.89089
0.53123	0.12566
-0.59084	-1.20074
-0.38683	-1.27726
0.68424	-1.40480
-0.33583	-1.17523
1.24527	0.83988
0.09770	1.86019
-0.18282	1.35003
0.14870	0.58480
-0.69285	0.53379
0.76074	-0.12942
-0.48884	-0.46102
-0.33583	0.20219
0.12320	0.17668
-0.46334	-0.10391
-0.00431	1.06945
1.55129	1.75816
1.47479	-2.04250
0.14870	-2.19554
-0.00431	-0.18043
-0.15732	1.04394
-0.23382	1.01843
-0.51434	1.27351
-0.74385	1.04394
0.83725	0.81437
-1.20288	-0.05289
3.76993	-0.46102
0.17421	-0.07840
-0.89686	-0.48652
-0.31033	-0.30797
-0.00431	-0.05289
0.19971	0.30422
-0.02981	0.10015
0.37822	-0.02739
0.53123	0.40625
0.07220	0.32972
0.09770	0.78886
0.12320	-0.63957
0.25071	0.12566
0.19971	0.89089
0.32721	0.55929
0.07220	-0.69059
1.42379	0.17668
0.40372	1.22250
-1.81492	1.12046
0.07220	0.07465
1.14327	-0.94566
1.09226	-1.40480
-0.36133	-0.92016
-0.89686	0.83988
-0.99887	0.96742
0.70974	0.89089
1.14327	0.73785
0.19971	0.50828
-0.51434	-0.35899
-0.23382	-0.07840
0.09770	-0.84363
-0.31033	-0.43551
0.17421	-0.56305
0.45472	0.50828
0.48022	1.52859
1.04126	1.52859
0.88825	0.73785
0.19971	0.71234
0.14870	-0.23145
0.12320	-1.83844
0.02119	-0.99668
-0.20832	-1.40480
-0.69285	0.22769
-0.20832	1.78367
-0.99887	2.31933
0.86275	1.98773
0.35272	0.61031
0.27621	-1.91496
0.45472	-3.47093
0.17421	0.32972
0.45472	1.75816
-0.05531	0.27871
-0.20832	-0.63957
-0.53984	0.55929
1.19427	1.24800
0.35272	1.86019
0.12320	0.55929
-0.89686	-1.48133
0.50573	-1.07320
-0.38683	-0.10391
0.04670	-0.23145
0.22521	0.38074
0.12320	0.81437
0.99026	0.71234
0.76074	0.12566
0.76074	-0.20594
-0.02981	1.17148
-0.41233	0.40625
-0.64185	-1.83844
-0.05531	-1.32828
-0.15732	0.35523
0.32721	0.78886
0.93925	1.32453
0.40372	1.27351
0.27621	1.98773
-0.05531	0.04914
0.12320	-0.97117
0.32721	-0.86914
-0.20832	-0.84363
-0.10631	-0.58856
-0.25932	0.17668
0.17421	0.66132
-0.23382	0.53379
1.70430	0.20219
1.47479	0.53379
-0.23382	1.14597
-0.79486	1.27351
-0.33583	0.02363
-0.18282	-2.42511
-1.66191	-1.86394
0.99026	-0.15492
0.83725	1.86019
-0.05531	2.49788
-0.13181	1.47757
0.07220	0.04914
1.55129	-0.43551
-0.05531	-1.27726
-0.74385	-2.27207
-0.18282	-0.18043
0.83725	1.35003
0.70974	1.29902
-0.18282	1.04394
-0.36133	0.35523
-0.10631	0.48277
0.04670	0.63582
0.02119	0.25320
0.04670	0.30422
0.17421	-0.84363
0.22521	-2.17003
-0.15732	-2.90976
0.65874	-0.69059
1.85731	1.73265
0.96476	1.75816
-0.18282	2.47238
-0.56534	2.08976
-0.84586	0.04914
-1.10088	-0.86914
0.83725	-0.25695
-0.18282	-0.89465
0.32721	-0.23145
0.76074	0.35523
0.19971	0.43176
0.02119	0.48277
-0.18282	0.15117
0.45472	0.63582
0.04670	-0.53754
0.07220	-1.78742
0.42922	-0.46102
-0.20832	0.91640
-0.59084	2.62542
0.83725	1.63062
-0.08081	-2.78222
-0.33583	-2.83324
-0.05531	0.58480
0.40372	2.08976
0.83725	2.03874
0.58223	0.94191
0.40372	-0.33348
-0.15732	-0.76711
-0.38683	-0.05289
0.55673	1.14597
0.07220	-0.05289
0.58223	-1.37929
-0.10631	-0.28246
0.04670	0.55929
-0.15732	-0.20594
-0.46334	-1.20074
-0.25932	-0.20594
0.19971	0.50828
1.11776	1.35003
0.50573	1.91120
-0.00431	0.73785
0.48022	-0.02739
0.63323	-0.12942
-0.10631	-0.48652
-0.99887	-0.20594
0.42922	0.02363
0.55673	-0.48652
0.04670	-0.25695
0.02119	0.48277
0.14870	0.20219
0.48022	-0.02739
0.07220	0.89089
-0.48884	0.61031
-0.02981	-0.10391
0.63323	-0.97117
0.70974	0.02363
0.22521	0.07465
-0.08081	-0.07840
-0.13181	1.01843
-0.05531	2.34484
0.19971	1.50308
0.32721	-0.79262
0.04670	-3.49644
0.27621	-1.63437
0.12320	0.12566
-0.46334	1.32453
0.25071	1.42656
1.88281	0.91640
0.96476	0.86539
-0.31033	0.55929
-1.15188	0.25320
-0.99887	-0.20594
-0.13181	-0.28246
0.37822	-0.97117
0.88825	-0.23145
0.42922	0.55929
-0.18282	0.63582
-0.02981	0.55929
0.32721	0.38074
0.17421	-1.45582
0.19971	-2.60367
0.02119	-0.00188
-0.18282	1.01843
0.70974	1.47757
0.09770	1.68163
0.12320	0.81437
1.42379	0.71234
0.35272	0.66132
-0.74385	-0.58856
-0.79486	-0.74160
0.04670	0.63582
0.53123	0.68683
-0.41233	-0.63957
-0.13181	-0.69059
1.50029	-0.25695
0.40372	-0.05289
-0.10631	0.89089
-0.64185	0.35523
-0.89686	-0.00188
0.63323	-0.07840
1.98482	-0.05289
0.65874	-0.89465
-0.33583	-0.76711
-0.33583	0.83988
-0.31033	1.86019
-0.53984	1.47757
0.07220	0.63582
0.17421	-0.00188
0.17421	0.15117
0.60773	0.22769
0.42922	-0.30797
-0.15732	-2.04250
-0.23382	-2.17003
0.50573	0.07465
0.53123	0.86539
0.12320	1.27351
0.04670	1.06945
0.07220	1.04394
0.55673	0.50828
0.32721	0.40625
-0.99887	0.43176
0.58223	-0.53754
0.30171	-1.53234
-0.31033	-0.66508
-1.45790	0.30422
1.06676	0.61031
0.63323	1.27351
0.40372	0.99292
0.42922	-0.18043
-0.79486	-2.70570
0.27621	-1.71090
1.01576	1.45206
0.58223	2.21730
-0.33583	1.37554
-0.20832	0.04914
-0.00431	0.63582
-0.13181	0.68683
0.30171	-0.02739
0.48022	0.63582
0.27621	-0.23145
0.63323	-1.50683
0.32721	-0.66508
-0.15732	-0.15492
-0.08081	1.27351
0.63323	1.40105
0.53123	-0.84363
-0.25932	-0.84363
-0.23382	0.25320
-0.82036	0.43176
-1.35589	0.04914
0.55673	0.20219
0.73524	0.25320
0.35272	0.94191
0.60773	0.76336
0.93925	0.61031
0.68424	-0.61406
0.40372	-1.22625
-0.87136	-0.33348
-0.25932	0.89089
0.27621	1.42656
-0.51434	-0.99668
0.86275	-1.78742
0.53123	0.30422
0.04670	2.16628
-0.28482	0.91640
-0.84586	-0.05289
0.27621	0.43176
1.29628	0.86539
0.30171	1.32453
0.45472	-0.00188
-0.08081	-0.86914
-0.08081	-1.35379
-0.84586	-1.17523
-0.74385	-0.58856
0.50573	0.89089
1.01576	0.43176
0.81175	0.66132
0.02119	0.40625
-0.00431	-0.79262
-0.71835	-0.33348
0.76074	1.14597
0.07220	1.17148
0.70974	0.25320
0.42922	-1.04770
-0.15732	0.02363
-0.05531	1.19699
0.42922	0.63582
-0.13181	0.04914
-0.61635	-0.10391
-0.00431	-0.81812
0.60773	0.27871
1.01576	0.58480
-0.02981	0.81437
-0.10631	-0.63957
-0.46334	-0.48652
0.27621	1.01843
0.27621	0.15117
0.45472	0.12566
-0.33583	0.02363
-0.13181	-1.58336
0.48022	0.04914
0.37822	0.76336
0.63323	0.40625
0.09770	1.09496
-0.00431	0.78886
-0.41233	0.35523
-0.13181	0.22769
0.45472	-0.79262
-0.05531	-0.79262
0.32721	-0.69059
0.19971	-0.51203
0.53123	1.17148
0.68424	1.42656
0.40372	0.66132
0.42922	0.12566
-0.13181	0.53379
0.12320	0.53379
-0.56534	-1.04770
-0.33583	-0.46102
0.65874	0.53379
-1.48340	0.17668
0.93925	-0.48652
1.75531	-0.46102
0.12320	0.07465
-1.27939	0.96742
-0.51434	1.98773
0.76074	-0.58856
0.37822	-0.07840
0.04670	-0.69059
0.12320	-0.07840
-0.05531	-0.00188
-0.31033	1.12046
-0.02981	0.96742
0.86275	0.45726
0.73524	0.55929
0.73524	0.53379
0.53123	0.15117
0.32721	-0.25695
-0.33583	-1.09871
-0.28482	-1.09871
-0.33583	0.04914
0.65874	0.66132
-0.10631	0.53379
0.19971	0.02363
0.19971	0.58480
0.35272	0.73785
0.14870	-0.86914
-0.38683	-0.43551
-0.20832	0.99292
-0.25932	0.76336
0.17421	0.63582
1.29628	-1.14973
0.99026	-0.35899
0.27621	1.57960
-0.41233	0.48277
-0.61635	-1.12422
0.50573	-1.53234
0.45472	0.45726
-0.20832	1.32453
-0.13181	1.37554
-0.23382	1.24800
1.06676	1.42656
0.40372	0.07465
-0.10631	-1.76191
-0.00431	-0.76711
0.53123	-0.48652
0.27621	0.27871
-0.13181	0.20219
-0.28482	-0.15492
0.17421	-0.99668
0.02119	0.12566
-0.51434	0.94191
1.16877	1.09496
0.48022	0.86539
0.14870	0.63582
0.07220	0.30422
0.17421	-0.20594
0.02119	-0.20594
-0.20832	0.68683
-0.38683	0.30422
1.27078	-1.12422
0.48022	-1.27726
-0.13181	-0.63957
-0.38683	1.17148
-0.31033	0.78886
0.32721	0.17668
0.04670	0.61031
0.22521	0.45726
0.07220	-0.46102
0.37822	-0.63957
0.48022	0.25320
0.37822	0.55929
0.22521	0.78886
1.11776	1.52859
0.25071	0.30422
-0.56534	-0.48652
-0.38683	0.02363
-0.59084	-0.51203
0.02119	-0.25695
-0.51434	0.20219
0.58223	0.12566
0.55673	-0.25695
1.24527	-0.35899
-0.10631	0.50828
-0.46334	0.45726
0.09770	0.20219
0.42922	0.35523
0.78624	-0.20594
0.42922	-0.28246
-0.59084	0.12566
0.07220	0.25320
-0.18282	1.06945
0.60773	0.63582
-0.15732	0.15117
0.78624	1.14597
0.22521	0.81437
-0.61635	-0.07840
-0.38683	-0.66508
1.34728	-2.55265
0.65874	-1.30277
0.14870	0.86539
-0.59084	1.04394
-0.23382	0.66132
0.35272	0.86539
0.02119	0.20219
0.19971	-0.28246
0.68424	-0.46102
-0.10631	1.01843
0.19971	-0.07840
0.17421	-1.04770
-0.02981	-0.74160
0.07220	0.86539
-0.02981	2.11527
0.27621	1.83468
0.73524	0.48277
0.42922	-1.09871
0.12320	-0.79262
-0.28482	-0.48652
-0.48884	0.15117
0.48022	0.43176
0.37822	0.35523
0.22521	-0.07840
-0.00431	-1.04770
0.45472	0.55929
-0.05531	0.91640
0.14870	-0.05289
0.22521	-1.58336
0.22521	-0.74160
0.27621	1.22250
0.48022	1.50308
-0.41233	1.63062
-0.51434	1.27351
0.12320	0.35523
0.45472	-0.12942
-0.13181	-0.71609
0.27621	-0.58856
0.19971	-0.05289
0.04670	0.04914
0.48022	-0.84363
0.58223	-1.07320
0.83725	0.50828
0.07220	1.32453
0.88825	0.89089
-0.10631	0.27871
0.32721	0.43176
-0.79486	-0.07840
-0.92237	-0.33348
-0.56534	-0.92016
-0.38683	0.15117
0.35272	1.09496
0.76074	0.78886
0.65874	-1.48133
0.48022	-0.18043
0.09770	0.83988
0.93925	1.14597
0.42922	0.50828
-0.15732	0.02363
-0.79486	-0.12942
-0.28482	-0.63957
1.19427	-0.25695
0.07220	-0.25695
-0.36133	0.32972
0.45472	0.45726
0.17421	0.50828
-0.05531	0.53379
0.30171	0.91640
0.81175	0.35523
-0.05531	-1.12422
0.12320	-1.78742
0.25071	-0.41000
-0.08081	1.06945
-0.02981	0.96742
0.09770	0.53379
0.81175	0.22769
0.58223	0.63582
0.09770	0.45726
-0.31033	-0.00188
-0.05531	-0.30797
0.32721	-0.28246
0.55673	-0.05289
0.27621	0.38074
-0.31033	0.68683
-0.82036	-0.81812
0.45472	-1.63437
1.04126	0.02363
0.45472	0.71234
0.53123	0.48277
0.27621	1.75816
-0.48884	1.80917
-0.74385	0.81437
-0.38683	0.25320
-0.05531	-0.30797
0.42922	-1.20074
-0.82036	-1.07320
1.09226	-0.20594
1.78081	0.15117
1.24527	0.55929
-0.36133	0.04914
-0.28482	-0.63957
-0.13181	-0.12942
-0.38683	-0.00188
-0.41233	0.43176
0.19971	0.68683
0.19971	1.32453
0.14870	0.45726
0.12320	0.17668
0.45472	0.35523
0.37822	-1.17523
0.07220	-0.69059
0.14870	0.96742
0.91375	1.12046
0.37822	0.25320
0.25071	-1.53234
-0.36133	-0.63957
-0.38683	0.17668
-0.18282	0.83988
-0.25932	1.01843
0.65874	0.71234
0.91375	0.58480
0.48022	1.09496
-0.00431	0.48277
-0.56534	-0.28246
0.14870	-0.30797
0.14870	-0.46102
0.19971	-0.18043
-0.10631	-0.38449
-1.17738	-0.58856
1.98482	-1.17523
0.83725	0.22769
-0.66735	1.27351
-0.18282	1.17148
0.63323	1.29902
0.35272	1.63062
-0.15732	-0.20594
-0.10631	-1.37929
-0.10631	-2.01699
-0.82036	-0.43551
1.93382	0.96742
1.06676	1.32453
-0.61635	1.09496
-1.15188	0.40625
0.40372	0.15117
0.09770	0.20219
-0.33583	-0.15492
0.53123	-0.20594
0.93925	-0.28246
0.48022	0.02363
-0.18282	0.10015
-0.38683	0.17668
-0.18282	0.30422
0.55673	0.32972
-0.02981	-0.53754
-0.74385	-1.04770
0.12320	-0.51203
0.22521	0.35523
0.32721	0.94191
0.32721	0.96742
0.37822	1.06945
0.53123	1.06945
0.07220	-0.07840
-0.33583	-1.27726
-0.08081	-0.84363
-0.00431	-0.58856
-0.69285	0.63582
0.86275	0.96742
0.70974	1.42656
0.04670	0.89089
-0.33583	-1.30277
0.14870	-1.88945
-0.66735	0.30422
0.96476	0.78886
0.50573	0.27871
0.48022	0.07465
0.42922	0.30422
-0.20832	0.81437
-0.18282	0.35523
-0.08081	0.17668
0.07220	-0.00188
-0.28482	-0.51203
-0.02981	-0.33348
0.99026	-0.12942
0.99026	0.02363
0.09770	0.25320
0.22521	0.58480
-0.02981	0.76336
-0.79486	1.01843
0.65874	0.32972
0.63323	-0.84363
0.27621	-0.28246
-0.53984	-0.18043
-0.43783	-1.48133
-0.56534	-0.74160
0.02119	1.19699
0.53123	1.80917
0.37822	0.63582
0.88825	0.15117
1.06676	0.10015
-0.15732	-0.02739
0.02119	0.32972
0.17421	0.40625
-0.05531	-0.35899
-1.12638	-0.38449
1.29628	0.15117
0.91375	0.25320
-0.64185	0.32972
-0.31033	0.15117
-0.18282	-0.05289
-0.31033	-0.05289
0.04670	-0.15492
0.45472	-1.07320
0.60773	-0.18043
0.02119	0.38074
0.63323	0.63582
0.25071	1.06945
-0.05531	0.66132
0.27621	0.25320
-0.00431	-0.00188
-0.25932	0.94191
-0.23382	0.53379
0.99026	-0.92016
0.02119	-1.81293
0.42922	0.96742
0.40372	0.99292
-0.15732	0.81437
-0.36133	-0.28246
-0.41233	-0.00188
-0.02981	-0.58856
-0.00431	-0.28246
0.07220	0.55929
0.17421	0.99292
0.60773	0.76336
0.96476	-1.09871
-0.20832	-1.17523
-0.18282	0.12566
-1.02437	0.81437
-0.59084	0.71234
1.72980	0.63582
0.65874	0.61031
0.17421	-0.51203
0.12320	-0.86914
0.07220	-0.12942
-0.61635	0.53379
-0.00431	1.09496
0.99026	1.04394
0.14870	0.55929
-0.15732	-0.46102
-0.05531	-0.18043
-0.18282	-0.61406
-0.33583	-0.61406
0.02119	0.38074
0.04670	0.22769
0.65874	0.38074
1.29628	0.15117
0.86275	0.76336
-0.33583	-0.69059
-0.36133	-1.07320
-0.48884	0.02363
-0.25932	0.58480
0.14870	1.37554
0.76074	1.27351
0.78624	-0.25695
0.42922	-0.74160
0.22521	0.48277
-0.05531	1.27351
-0.28482	0.30422
-0.92237	-0.20594
0.07220	-0.58856
0.09770	-0.25695
0.35272	0.04914
0.76074	-0.25695
0.30171	-0.18043
-0.08081	0.22769
-0.08081	0.96742
0.12320	-0.05289
0.48022	-0.99668
0.02119	-0.89465
-0.25932	0.55929
0.32721	1.29902
0.32721	0.58480
0.78624	0.86539
0.45472	0.76336
1.16877	1.06945
0.09770	0.04914
-0.64185	-0.79262
-0.28482	-0.86914
-0.13181	-0.79262
-0.38683	-0.53754
-0.31033	0.91640
0.12320	1.27351
0.40372	0.96742
0.73524	0.63582
0.53123	0.15117
-0.23382	-0.12942
0.96476	-0.48652
0.12320	-1.35379
0.12320	-0.48652
-0.02981	-0.53754
-0.59084	0.32972
-0.28482	1.75816
0.30171	1.88570
0.17421	-0.58856
0.09770	-0.69059
0.76074	0.10015
0.55673	0.45726
0.32721	0.73785
-0.31033	0.66132
-0.20832	0.25320
-0.28482	0.61031
-0.71835	-0.05289
1.44929	-0.71609
0.48022	-1.68539
-0.18282	-1.37929
-0.05531	0.04914
0.22521	1.68163
0.45472	1.78367
0.35272	0.55929
-0.08081	0.20219
-0.15732	-0.38449
0.30171	0.30422
0.27621	0.45726
-0.13181	0.38074
-0.20832	0.61031
0.55673	-0.02739
0.30171	-0.41000
0.09770	-0.35899
0.19971	-0.07840
-0.20832	1.01843
-0.05531	-0.18043
0.27621	-1.58336
0.02119	-1.53234
0.58223	-0.00188
0.65874	1.24800
-0.02981	1.78367
0.14870	1.55410
0.81175	0.38074
-0.28482	0.35523
-0.97337	0.43176
-0.56534	-0.71609
0.14870	-1.73640
0.09770	0.22769
0.53123	1.45206
0.07220	1.63062
1.11776	0.71234
-0.00431	-0.33348
0.02119	-1.68539
0.73524	-0.89465
0.30171	0.02363
-0.28482	1.29902
0.04670	1.04394
-0.08081	0.40625
-0.51434	-0.25695
-0.31033	-1.27726
0.35272	-0.51203
0.63323	0.99292
0.30171	0.35523
0.14870	0.10015
-0.00431	1.04394
0.32721	1.45206
0.27621	0.10015
0.04670	-1.09871
0.32721	-0.71609
0.63323	-0.00188
-0.53984	0.35523
-0.46334	0.27871
1.06676	0.15117
-0.10631	-0.18043
-0.71835	0.12566
-0.38683	0.04914
0.70974	0.35523
0.83725	0.43176
0.14870	0.04914
0.83725	0.55929
0.14870	-0.25695
-0.18282	-0.15492
-0.36133	0.58480
-0.10631	0.55929
0.25071	0.73785
0.45472	0.76336
0.07220	-0.30797
-0.10631	-1.55785
-0.05531	-2.60367
0.12320	-0.38449
0.45472	1.83468
0.68424	2.37034
0.22521	0.15117
0.12320	-1.37929
0.86275	0.04914
-0.20832	1.06945
-0.56534	1.19699
-0.08081	0.35523
0.40372	0.71234
0.02119	0.35523
-0.18282	-0.43551
-0.76936	-1.02219
1.16877	-0.10391
1.55129	0.94191
0.02119	0.45726
-0.56534	-1.04770
-0.08081	-1.76191
-0.02981	-0.30797
-0.20832	0.89089
-0.20832	0.71234
-0.76936	1.12046
0.42922	0.83988
1.01576	0.30422
-0.48884	0.81437
1.65330	0.04914
0.30171	-0.84363
-0.05531	-1.86394
0.14870	0.15117
0.27621	0.94191
-0.28482	0.78886
-0.18282	0.66132
-0.05531	0.81437
-0.38683	0.53379
0.40372	0.48277
0.73524	-0.02739
0.63323	-0.46102
-0.46334	-0.61406
-0.43783	-1.58336
0.58223	0.15117
0.22521	-0.92016
0.19971	0.40625
-0.18282	1.55410
0.14870	1.17148
0.37822	0.71234
0.19971	0.71234
0.12320	0.40625
0.02119	0.04914
0.19971	0.17668
0.30171	0.04914
0.42922	0.12566
0.70974	-1.07320
0.65874	-2.04250
-1.55991	-0.48652
-0.48884	0.55929
0.32721	0.66132
1.06676	1.63062
0.35272	0.73785
-0.43783	0.38074
-0.15732	-0.33348
-0.08081	-0.25695
0.53123	0.12566
0.42922	0.45726
0.07220	-0.20594
0.04670	0.35523
-0.13181	0.78886
-0.05531	0.63582
-0.00431	0.25320
0.48022	0.32972
0.58223	0.07465
0.88825	-0.33348
1.21977	-0.69059
0.19971	-0.53754
-1.50890	-0.38449
0.04670	0.32972
-0.08081	-0.02739
-0.41233	0.55929
0.42922	0.66132
0.63323	-0.28246
0.30171	0.32972
0.07220	1.37554
-0.13181	0.73785
-0.02981	0.02363
0.09770	0.12566
0.27621	0.17668
0.65874	0.02363
0.37822	-0.56305
0.02119	-0.18043
-0.20832	-0.25695
0.27621	-0.56305
0.22521	0.86539
0.17421	1.19699
-0.56534	0.50828
1.14327	0.38074
0.99026	-0.35899
-0.28482	-0.61406
-0.56534	0.02363
-0.71835	0.35523
0.17421	0.66132
0.88825	0.12566
0.55673	-1.48133
0.42922	0.25320
-0.18282	1.14597
0.04670	0.83988
0.37822	0.22769
-0.25932	0.15117
-0.25932	-0.74160
-0.13181	0.20219
0.14870	0.17668
0.55673	0.50828
0.73524	0.25320
0.53123	-0.15492
0.07220	-0.12942
0.35272	-0.02739
0.17421	-0.07840
-0.38683	0.66132
-0.20832	0.61031
-0.10631	0.30422
-0.15732	-0.25695
0.78624	0.17668
0.22521	0.78886
0.42922	-0.56305
0.35272	-0.76711
-0.33583	-0.89465
-0.15732	-0.58856
0.55673	1.27351
-0.02981	2.82948
0.32721	1.86019
0.35272	-2.19554
-0.23382	-2.83324
-0.13181	0.12566
0.35272	1.32453
0.42922	1.63062
0.35272	0.81437
-0.64185	0.76336
0.27621	0.76336
0.04670	0.10015
-0.20832	-1.37929
0.65874	-0.61406
0.70974	0.43176
0.09770	-0.51203
0.40372	-0.18043
0.09770	-0.30797
-0.02981	0.07465
0.14870	0.83988
0.19971	0.63582
0.50573	-0.35899
-0.56534	-0.48652
0.04670	1.04394
0.76074	1.19699
0.70974	1.17148
-0.79486	0.78886
-0.02981	-0.33348
0.02119	-0.33348
-0.46334	-0.43551
0.14870	0.32972
0.25071	0.30422
-0.18282	-0.41000
1.04126	-0.58856
1.04126	0.04914
0.30171	-0.86914
-0.10631	-0.25695
0.17421	0.91640
-0.08081	1.14597
-0.15732	1.14597
-0.33583	-0.00188
-0.25932	-1.09871
0.58223	-0.33348
0.42922	-0.48652
0.17421	1.50308
0.25071	1.40105
0.12320	0.10015
-0.31033	-2.39961
0.27621	-1.81293
0.55673	1.47757
0.14870	2.49788
0.22521	1.70714
0.19971	0.17668
-0.23382	-1.43031
0.17421	-0.56305
0.53123	0.50828
-0.08081	0.07465
0.09770	-0.00188
-0.05531	-0.48652
-0.02981	-0.28246
0.32721	0.35523
0.04670	0.25320
0.40372	0.12566
0.12320	0.40625
0.70974	-0.10391
-0.18282	-0.35899
0.09770	0.30422
0.48022	0.58480
0.22521	0.30422
-0.38683	-0.05289
-0.08081	0.30422
0.25071	0.96742
-0.05531	0.53379
-0.15732	-0.81812
0.40372	-0.38449
0.65874	0.07465
0.12320	0.55929
0.35272	0.71234
0.27621	0.22769
0.25071	0.30422
-0.02981	-0.18043
-0.05531	-1.83844
-0.10631	-1.04770
0.37822	1.12046
-0.08081	2.16628
0.09770	1.42656
0.65874	-0.05289
0.45472	-0.89465
-0.10631	-0.02739
-0.18282	-0.25695
-0.20832	0.32972
-0.02981	-0.10391
0.22521	-0.25695
0.30171	0.15117
0.27621	0.35523
0.04670	0.76336
-0.20832	0.43176
0.73524	-0.02739
0.40372	-0.46102
0.04670	0.22769
-0.10631	-0.46102
-0.08081	0.20219
-0.08081	0.38074
0.22521	0.58480
-0.13181	0.12566
0.73524	0.25320
0.42922	-0.07840
0.35272	0.02363
0.78624	-0.46102
-0.36133	0.15117
-0.79486	0.55929
-0.08081	0.50828
0.30171	0.27871
0.48022	-0.43551
0.58223	0.15117
0.50573	0.94191
-1.27939	0.58480
0.70974	-0.07840
1.42379	-1.53234
0.27621	-0.76711
-0.51434	0.32972
-0.36133	0.91640
-0.38683	1.06945
0.07220	0.78886
0.17421	0.50828
0.68424	-0.63957
0.48022	-0.79262
0.12320	-0.58856
0.07220	0.53379
0.07220	1.40105
-0.15732	0.68683
-0.33583	0.32972
0.30171	0.17668
1.09226	-0.48652
0.22521	-0.43551
-0.02981	0.17668
0.14870	0.89089
0.09770	-0.71609
-0.08081	-1.09871
0.04670	0.04914
0.45472	0.68683
0.04670	0.32972
-0.25932	0.02363
-0.13181	0.22769
0.09770	0.96742
0.60773	0.71234
0.68424	0.43176
0.09770	0.15117
0.37822	-0.28246
0.07220	0.15117
-0.18282	-0.05289
-0.13181	-0.12942
-0.13181	-0.58856
0.91375	0.02363
-0.10631	-0.07840
-0.08081	0.89089
0.07220	1.19699
0.02119	-0.43551
1.06676	-1.32828
0.25071	-0.69059
-0.10631	0.30422
-0.02981	1.29902
0.14870	1.73265
-0.18282	0.25320
0.14870	-0.33348
0.14870	-0.46102
0.22521	0.22769
0.32721	0.73785
-0.10631	-0.02739
-0.23382	-0.30797
-0.15732	-1.09871
0.12320	0.22769
0.53123	0.83988
0.63323	0.89089
0.42922	0.25320
-0.48884	-0.05289
0.58223	0.55929
0.63323	-0.25695
0.02119	-0.48652
-0.41233	-0.61406
0.02119	0.89089
0.04670	0.30422
0.17421	-0.99668
0.53123	-0.25695
-0.23382	0.96742
-0.15732	0.81437
0.09770	0.78886
0.27621	0.17668
0.02119	0.43176
-0.23382	0.43176
0.09770	0.68683
0.35272	0.30422
1.29628	-1.02219
0.60773	-1.43031
-0.13181	0.02363
-0.20832	0.94191
0.19971	-0.05289
-0.08081	-0.28246
0.02119	0.32972
0.37822	0.89089
0.04670	0.63582
0.30171	0.25320
-0.56534	0.22769
-0.51434	-0.00188
0.25071	-0.66508
0.76074	-0.02739
0.09770	0.43176
0.37822	0.81437
0.42922	-0.12942
0.81175	-0.15492
0.25071	-0.56305
0.02119	-0.38449
-0.66735	0.40625
-0.20832	0.50828
0.96476	1.17148
-0.02981	0.30422
0.14870	-0.41000
-0.00431	0.10015
-0.25932	0.25320
-0.05531	0.35523
0.17421	0.35523
0.12320	-0.05289
0.19971	-0.30797
0.65874	-0.18043
0.48022	0.35523
0.09770	0.27871
-0.18282	0.20219
-0.23382	0.20219
0.07220	-0.05289
0.58223	0.04914
0.17421	-0.05289
-0.13181	0.15117
-0.20832	0.91640
0.73524	0.96742
0.55673	-0.76711
-0.28482	-1.30277
-0.23382	0.10015
0.25071	0.71234
0.17421	0.53379
-0.53984	-0.56305
-0.64185	0.32972
0.65874	1.24800
1.14327	1.27351
0.63323	0.78886
-0.23382	0.48277
0.02119	-0.35899
0.22521	-0.99668
0.04670	-0.63957
-0.18282	-0.53754
0.40372	0.07465
0.25071	0.58480
-0.23382	0.58480
-0.18282	0.63582
-0.02981	0.66132
0.40372	0.04914
0.53123	0.15117
0.22521	-0.76711
0.12320	-0.35899
0.25071	-0.05289
0.60773	0.45726
0.09770	0.07465
-0.38683	0.32972
-0.36133	0.61031
0.22521	0.27871
0.58223	-0.48652
0.12320	-0.25695
-0.87136	-0.48652
0.22521	0.55929
1.21977	1.32453
0.63323	1.19699
0.09770	0.76336
0.17421	0.12566
-0.51434	0.04914
-0.31033	-0.71609
0.14870	-0.43551
0.55673	-0.79262
0.14870	0.17668
-0.31033	0.27871
-0.10631	0.02363
0.02119	0.17668
0.09770	0.45726
1.09226	0.38074
1.06676	-0.15492
0.65874	-0.20594
-0.59084	-0.15492
-0.69285	0.04914
-0.05531	1.01843
0.25071	1.22250
0.02119	-0.74160
0.53123	-0.76711
0.65874	-0.15492
0.07220	0.66132
-0.28482	0.55929
-0.23382	0.48277
0.30171	0.66132
0.88825	1.01843
0.12320	-0.18043
-0.38683	-0.53754
0.12320	0.45726
0.42922	0.86539
0.42922	0.15117
-0.23382	-1.45582
-0.20832	-1.91496
-0.18282	-0.94566
-0.28482	-0.05289
0.37822	1.70714
0.37822	1.78367
0.45472	0.86539
0.19971	-0.38449
0.19971	-0.81812
-0.00431	0.17668
-0.13181	0.61031
0.12320	0.66132
0.22521	0.25320
0.25071	-0.84363
0.45472	-0.92016
0.73524	0.25320
0.55673	1.06945
-0.31033	1.06945
-0.61635	0.27871
0.09770	-0.38449
0.42922	0.02363
-0.18282	0.27871
-0.13181	-0.05289
0.17421	-0.97117
0.14870	-1.25176
0.30171	0.50828
0.17421	1.06945
0.60773	1.06945
0.83725	0.86539
0.22521	0.73785
0.30171	-0.15492
-0.59084	-0.10391
-0.51434	-0.02739
-0.23382	-0.07840
0.02119	-0.71609
0.58223	0.50828
-0.02981	0.55929
0.60773	0.40625
0.63323	-0.25695
0.14870	-0.46102
-0.23382	-0.92016
-0.10631	-0.28246
-0.05531	0.55929
-0.08081	0.86539
0.53123	0.91640
0.88825	0.83988
-0.00431	1.24800
0.09770	0.30422
0.04670	-0.07840
0.02119	0.04914
0.25071	-0.53754
-0.28482	-0.74160
-1.04987	-0.12942
1.01576	-0.07840
1.11776	0.35523
0.09770	0.63582
-0.15732	0.55929
-0.36133	0.30422
0.65874	0.32972
0.17421	-0.25695
-0.28482	-0.48652
-0.20832	0.27871
0.48022	0.48277
0.25071	0.73785
0.22521	0.68683
0.50573	-0.30797
0.07220	-1.14973
0.25071	0.50828
0.04670	-0.46102
0.02119	0.45726
0.07220	0.68683
0.19971	0.66132
-0.61635	0.73785
0.32721	0.35523
0.45472	-0.30797
0.14870	-0.12942
0.27621	0.15117
0.19971	0.30422
0.37822	0.27871
0.58223	-0.00188
0.25071	0.12566
-0.41233	0.07465
-0.48884	0.07465
-0.05531	-0.66508
0.27621	-0.92016
0.09770	-0.35899
0.88825	1.52859
0.32721	1.19699
0.09770	0.12566
-0.23382	-1.12422
-0.25932	-0.07840
1.42379	0.58480
0.42922	0.68683
-0.36133	0.38074
-0.33583	0.99292
-0.18282	0.63582
-0.00431	0.35523
0.17421	-0.61406
0.42922	-1.40480
-0.20832	0.12566
-0.25932	0.50828
0.09770	0.04914
0.50573	-0.23145
0.50573	-0.25695
0.32721	0.07465
0.32721	0.76336
-0.00431	0.25320
0.25071	0.22769
0.19971	0.27871
0.58223	0.58480
0.42922	0.78886
-0.64185	0.63582
-0.08081	-0.86914
0.22521	-0.79262
0.27621	-0.58856
-0.10631	0.27871
0.14870	0.94191
-0.13181	0.86539
0.19971	0.78886
0.83725	-0.56305
0.65874	-0.25695
-0.00431	0.27871
-0.56534	0.04914
0.14870	0.22769
0.53123	0.94191
-0.38683	0.58480
0.19971	-0.51203
0.12320	-1.07320
0.09770	-0.58856
0.09770	-0.20594
0.14870	-0.02739
0.27621	0.48277
0.50573	1.29902
-0.18282	0.86539
-0.13181	-0.12942
0.37822	-0.00188
0.09770	1.01843
-0.10631	0.76336
1.29628	0.10015
0.37822	0.04914
-0.76936	-0.89465
-0.89686	-0.84363
0.63323	-0.28246
0.65874	0.35523
0.88825	0.83988
-0.00431	0.32972
-0.36133	-0.46102
-0.56534	-0.33348
-0.33583	0.20219
-0.02981	0.91640
0.19971	1.06945
0.42922	0.43176
0.55673	0.15117
0.88825	0.04914
0.42922	-1.09871
0.09770	-0.92016
0.02119	0.17668
-0.28482	0.63582
-0.08081	0.99292
-0.02981	0.83988
0.19971	0.50828
0.32721	-0.23145
0.04670	-0.74160
-0.08081	0.10015
-0.05531	0.35523
0.07220	0.04914
0.27621	-0.00188
0.40372	-0.00188
0.32721	1.19699
0.30171	0.35523
-0.38683	-0.92016
-0.15732	-1.07320
0.53123	-0.53754
0.22521	-0.58856
0.37822	0.35523
-0.20832	1.63062
0.12320	1.70714
-0.05531	1.01843
0.37822	0.32972
-0.36133	0.17668
0.42922	-0.07840
0.63323	-0.61406
0.30171	-0.46102
-0.25932	-0.25695
-0.18282	-0.12942
-0.23382	-0.20594
-0.25932	0.53379
0.55673	0.91640
1.29628	0.20219
0.50573	-0.25695
-0.33583	-0.33348
-1.17738	0.04914
0.14870	0.53379
0.60773	0.35523
0.60773	0.45726
0.25071	0.27871
0.27621	-0.41000
0.17421	0.02363
-0.18282	0.40625
-0.31033	0.81437
-0.41233	0.25320
-0.28482	-0.92016
0.17421	-0.84363
0.88825	0.02363
0.93925	0.32972
0.02119	0.35523
0.12320	0.61031
-0.05531	1.04394
0.02119	0.81437
-0.00431	-0.20594
-0.20832	-0.97117
0.42922	-0.02739
0.91375	0.38074
0.22521	0.45726
-0.15732	0.40625
-0.15732	-0.23145
0.12320	-0.25695
0.17421	-0.18043
-0.15732	0.61031
-0.36133	0.55929
0.40372	0.10015
0.04670	0.45726
0.81175	0.68683
0.83725	0.50828
-0.36133	-0.51203
-0.20832	-1.20074
-0.05531	-0.56305
0.02119	0.55929
0.32721	0.78886
0.17421	0.61031
0.09770	0.25320
0.42922	-0.05289
0.04670	0.32972
0.19971	1.14597
0.50573	-0.18043
-0.33583	-1.71090
0.07220	-0.89465
0.30171	0.25320
0.55673	1.19699
0.68424	1.14597
-0.36133	0.45726
-0.46334	-0.23145
-0.23382	-0.15492
0.14870	0.43176
0.45472	0.68683
-0.36133	0.58480
0.58223	-0.05289
0.09770	-0.38449
0.58223	-1.07320
0.35272	-0.35899
0.32721	0.86539
-0.18282	0.53379
-0.33583	0.40625
0.55673	-0.00188
0.65874	-0.30797
-0.20832	-0.18043
-0.64185	0.30422
0.19971	0.78886
-0.18282	0.78886
0.22521	0.55929
0.83725	0.02363
0.70974	-0.18043
0.27621	-0.92016
-0.13181	-0.18043
-0.69285	-1.04770
-0.46334	0.15117
0.35272	1.40105
1.37278	1.09496
0.32721	0.07465
-0.74385	0.38074
0.86275	-0.15492
0.65874	0.40625
-0.92237	-0.15492
-0.48884	-0.46102
0.07220	0.02363
0.73524	-0.05289
0.30171	0.35523
0.99026	0.66132
0.81175	0.38074
-0.38683	-0.10391
-0.61635	0.20219
-0.05531	0.35523
0.04670	0.22769
0.02119	-0.25695
0.12320	-0.76711
0.32721	-0.25695
-0.51434	0.55929
1.21977	1.35003
1.27078	0.99292
-0.15732	-0.46102
-0.46334	-0.10391
-0.25932	-0.10391
0.12320	0.04914
0.09770	0.55929
0.17421	-0.33348
-0.02981	-0.35899
0.27621	0.48277
0.30171	0.91640
-0.18282	0.07465
-0.15732	0.07465
0.17421	0.40625
0.48022	-0.05289
0.32721	-0.46102
-0.28482	-0.23145
0.63323	0.45726
0.45472	0.58480
0.12320	0.32972
-0.20832	-0.79262
-0.18282	0.10015
-0.00431	1.19699
0.14870	0.86539
-0.31033	0.15117
0.32721	-1.25176
0.45472	-1.37929
1.85731	0.63582
0.81175	1.12046
-0.48884	0.86539
-0.61635	0.43176
-1.27939	0.20219
1.06676	-0.07840
1.04126	0.32972
-0.64185	0.53379
-1.22839	-0.05289
0.68424	-1.02219
0.86275	-0.81812
0.14870	0.43176
0.30171	1.17148
0.04670	0.91640
-0.10631	0.35523
0.25071	0.20219
0.55673	-1.37929
0.12320	-0.48652
0.09770	0.78886
0.04670	0.63582
-0.20832	0.15117
-0.76936	0.61031
0.65874	0.58480
0.37822	-0.05289
-0.10631	-0.12942
-0.31033	-0.02739
0.50573	-0.05289
1.21977	-0.18043
0.14870	0.55929
-0.13181	0.76336
-0.08081	0.10015
0.30171	-0.66508
0.42922	-0.12942
-0.23382	0.07465
0.32721	0.25320
0.55673	0.83988
0.17421	1.12046
-0.41233	0.55929
0.07220	-0.71609
-0.20832	-1.53234
-0.38683	-0.35899
-0.48884	0.02363
1.06676	0.50828
0.27621	1.01843
0.73524	0.91640
0.53123	0.91640
-0.10631	0.63582
-0.08081	-0.48652
-0.15732	-0.61406
0.32721	0.04914
0.45472	0.38074
0.70974	0.50828
-0.87136	-0.43551
-0.33583	-0.28246
1.24527	0.50828
-0.00431	0.15117
-0.71835	0.10015
-0.59084	-1.20074
-0.02981	-0.74160
0.76074	0.91640
0.81175	1.27351
0.63323	0.76336
0.27621	-0.33348
-0.00431	0.58480
0.19971	0.96742
0.12320	0.68683
0.02119	-0.05289
-0.08081	-0.10391
-0.43783	-0.46102
-0.23382	-0.07840
-0.10631	-0.12942
1.42379	-0.53754
0.45472	-0.02739
-0.08081	0.35523
0.17421	-0.61406
0.12320	0.22769
0.09770	0.40625
-0.02981	1.60511
0.50573	1.19699
0.22521	-1.17523
0.40372	-0.74160
-0.10631	0.35523
-0.25932	0.53379
-0.08081	0.22769
-0.08081	-0.05289
-0.20832	0.48277
0.35272	0.43176
-0.02981	-0.56305
0.70974	0.53379
1.83181	0.20219
0.83725	0.15117
0.09770	-0.00188
-0.71835	-0.28246
-0.46334	-0.46102
0.02119	0.04914
0.14870	0.55929
0.42922	0.55929
-0.46334	-0.00188
-0.18282	0.63582
0.17421	0.55929
0.22521	-0.20594
0.55673	-0.66508
0.68424	0.10015
0.35272	0.02363
1.11776	0.10015
-0.23382	0.32972
-0.69285	0.71234
-0.76936	-0.05289
0.32721	0.12566
0.93925	-0.74160
0.42922	-0.07840
0.14870	0.45726
-0.10631	0.89089
-0.48884	0.15117
-1.50890	0.66132
0.50573	0.35523
1.42379	-0.18043
0.19971	-0.71609
-0.02981	-0.05289
0.17421	0.38074
0.37822	0.61031
0.60773	0.55929
0.27621	-0.00188
-0.10631	-0.25695
0.83725	-0.20594
0.42922	0.55929
-0.51434	0.38074
-0.59084	0.35523
-0.53984	-0.79262
0.32721	-1.35379
0.65874	-1.53234
0.48022	1.17148
-0.05531	1.75816
-0.18282	1.47757
0.25071	1.24800
0.02119	0.58480
1.11776	-0.20594
0.07220	-0.00188
0.40372	0.78886
-0.28482	-0.02739
-0.31033	-1.86394
0.32721	-1.48133
0.93925	0.53379
0.07220	0.61031
-0.20832	0.27871
-0.18282	0.12566
-0.10631	-0.07840
0.09770	1.09496
0.19971	1.19699
0.27621	1.75816
-0.56534	-0.53754
1.37278	-2.22105
0.93925	-0.58856
-0.02981	0.27871
-0.36133	0.58480
0.07220	1.42656
0.12320	1.19699
-0.28482	0.17668
-0.13181	-1.20074
0.55673	-0.69059
0.35272	-0.02739
-0.36133	-0.92016
0.25071	0.73785
0.88825	1.75816
-0.23382	1.70714
0.14870	0.25320
0.48022	-0.28246
-0.13181	0.17668
-0.13181	0.66132
0.02119	-0.97117
-0.10631	-2.50164
0.07220	-1.65988
0.35272	0.78886
0.42922	1.98773
0.55673	1.17148
0.68424	0.76336
0.12320	-0.10391
-0.18282	-0.48652
-0.23382	-1.17523
-0.23382	-0.25695
-0.02981	1.32453
0.12320	0.96742
0.27621	0.48277
-0.00431	-0.02739
0.53123	0.71234
0.53123	0.71234
0.96476	-0.07840
-0.08081	-1.17523
-0.69285	-1.07320
-0.31033	-0.81812
0.02119	0.10015
0.83725	1.06945
0.53123	0.81437
-0.08081	0.63582
-0.02981	0.32972
0.07220	-0.10391
-0.79486	0.22769
0.37822	-0.94566
1.01576	0.04914
-1.81492	0.71234
1.29628	0.81437
1.55129	0.89089
-0.20832	0.63582
-0.41233	-0.43551
-0.79486	-0.23145
1.50029	0.55929
0.60773	0.12566
-0.59084	-1.27726
-0.41233	-0.86914
0.17421	-0.28246
0.19971	-0.02739
-0.13181	1.22250
-0.28482	1.29902
-0.08081	-0.05289
0.76074	0.81437
0.63323	1.27351
-0.25932	0.07465
-0.10631	-0.97117
0.27621	-0.33348
0.55673	0.43176
0.35272	0.55929
0.50573	0.07465
0.93925	-0.00188
0.65874	-0.15492
-0.20832	-0.97117
-0.71835	0.53379
-0.28482	0.32972
-0.31033	0.20219
-0.51434	0.61031
-0.28482	0.32972
-0.48884	0.40625
0.88825	0.12566
0.91375	0.04914
0.45472	-0.41000
0.12320	0.02363
0.68424	0.12566
0.99026	0.86539
-0.23382	0.50828
-0.33583	-0.25695
-0.33583	-0.43551
-0.33583	0.04914
1.47479	0.55929
0.32721	0.76336
-0.43783	0.45726
-0.18282	-0.18043
-0.20832	-0.86914
0.12320	0.12566
0.35272	-0.05289
0.60773	-1.27726
0.09770	0.20219
-0.41233	1.24800
-0.31033	1.57960
0.27621	1.45206
1.01576	0.02363
-0.59084	-1.25176
0.25071	-0.81812
0.35272	0.20219
-0.05531	0.38074
0.07220	0.73785
0.30171	0.71234
0.83725	0.43176
0.35272	-0.61406
-0.38683	-1.48133
-0.25932	-0.35899
0.48022	0.45726
0.73524	0.83988
-0.25932	0.55929
-0.66735	0.30422
0.09770	0.35523
0.55673	0.50828
0.09770	0.43176
0.14870	0.25320
0.60773	-0.28246
0.07220	-0.61406
0.07220	0.17668
0.19971	0.61031
0.19971	0.45726
0.04670	-0.35899
0.55673	-1.32828
0.30171	-0.53754
-0.00431	0.66132
0.12320	0.73785
0.02119	0.04914
0.25071	1.32453
-0.66735	0.78886
1.32178	0.15117
0.55673	0.66132
-0.87136	0.63582
-0.79486	-0.12942
-0.18282	-2.47613
0.40372	-0.56305
-0.05531	0.32972
0.60773	0.86539
0.48022	1.50308
0.68424	0.86539
1.50029	-0.58856
0.02119	-0.33348
-0.84586	-1.12422
-0.66735	-0.94566
-0.13181	0.55929
0.22521	1.01843
0.45472	0.68683
0.04670	0.55929
0.25071	0.35523
0.63323	0.45726
-0.31033	0.55929
-0.08081	0.30422
-0.18282	-0.05289
0.07220	-0.56305
0.63323	-0.84363
0.09770	-0.30797
0.12320	-0.15492
-0.38683	0.35523
1.65330	-0.12942
1.01576	0.43176
-0.31033	0.94191
-0.71835	0.43176
-1.53441	0.71234
0.25071	0.58480
0.99026	0.04914
-0.20832	-1.35379
-0.59084	-1.50683
-0.15732	0.15117
0.58223	1.52859
0.45472	1.80917
0.63323	0.40625
0.02119	-1.27726
-0.08081	-0.46102
0.19971	0.58480
0.53123	0.17668
-0.00431	0.40625
-0.08081	-0.97117
-0.53984	-0.35899
0.50573	0.73785
0.68424	1.52859
0.02119	1.45206
-0.31033	1.57960
-0.18282	0.25320
-0.25932	-1.78742
0.48022	-2.45062
1.09226	-0.53754
0.58223	0.50828
0.09770	1.12046
-0.20832	1.04394
0.12320	0.66132
0.19971	0.15117
0.27621	-0.05289
0.12320	-0.07840
-0.66735	0.12566
-0.20832	0.25320
-0.31033	-0.05289
0.02119	-0.63957
0.76074	-0.10391
0.58223	0.35523
0.22521	0.30422
1.80631	0.30422
0.60773	0.22769
-0.64185	0.20219
-0.76936	0.63582
-0.43783	0.30422
-0.28482	0.25320
-0.02981	0.27871
0.35272	-0.12942
0.45472	-0.79262
0.48022	-0.58856
0.30171	0.50828
0.22521	0.22769
0.58223	0.50828
0.25071	0.53379
-0.18282	0.91640
-0.20832	0.30422
0.02119	0.12566
-0.15732	-0.07840
0.19971	-0.05289
1.44929	-0.71609
0.42922	-1.30277
-0.59084	0.53379
-0.28482	0.61031
0.09770	0.30422
0.07220	0.55929
0.09770	0.71234
-0.41233	0.63582
-0.20832	0.89089
-0.10631	0.20219
0.19971	-0.35899
0.78624	-0.23145
0.48022	-0.41000
-0.13181	-0.10391
-0.82036	0.27871
0.68424	0.40625
1.34728	-0.33348
0.55673	-0.92016
-0.13181	0.02363
-0.48884	0.78886
-0.56534	0.71234
-0.25932	0.71234
-0.36133	0.32972
1.29628	-0.51203
0.53123	-0.23145
-0.15732	-0.02739
0.27621	0.17668
0.32721	1.01843
0.14870	0.35523
-0.18282	-0.30797
-0.05531	1.19699
-0.13181	1.24800
0.02119	0.43176
0.35272	-1.04770
0.07220	-0.10391
0.25071	-1.53234
0.19971	-1.27726
-0.13181	0.58480
0.37822	1.98773
1.24527	1.04394
0.19971	-0.51203
-0.15732	-1.04770
-0.76936	-0.76711
-0.02981	0.38074
0.68424	1.12046
-0.10631	1.50308
0.07220	0.94191
0.19971	-0.41000
0.78624	-0.97117
0.25071	-0.05289
-0.51434	0.15117
-0.08081	0.25320
-0.00431	0.12566
0.07220	0.12566
-0.05531	-0.07840
0.17421	-0.02739
0.45472	0.48277
0.73524	0.96742
-0.02981	0.25320
-0.74385	-1.35379
1.19427	-1.07320
0.99026	0.32972
-0.31033	0.76336
-0.48884	1.17148
-0.05531	0.38074
0.12320	0.12566
0.25071	0.25320
0.27621	-0.05289
0.42922	1.06945
0.40372	0.07465
-0.00431	-1.76191
-0.08081	-1.17523
-0.31033	0.81437
-0.33583	1.09496
-0.02981	0.89089
0.53123	0.83988
0.60773	0.81437
0.09770	0.25320
0.02119	0.04914
0.27621	-0.10391
0.70974	-0.38449
0.07220	-0.05289
-0.33583	-0.99668
-0.08081	-0.41000
0.68424	0.48277
0.19971	-0.10391
-0.20832	-0.99668
0.55673	0.10015
0.45472	1.29902
0.12320	1.42656
-0.53984	0.78886
-0.41233	0.63582
-0.97337	-0.51203
1.11776	-1.22625
1.16877	0.07465
0.30171	1.17148
-0.00431	0.53379
-0.05531	0.50828
-0.08081	-0.07840
-0.02981	0.25320
1.04126	0.53379
-0.69285	-0.25695
1.37278	-0.58856
0.32721	0.38074
-0.20832	-0.33348
-0.31033	-0.86914
-0.18282	0.81437
-0.13181	0.27871
0.07220	-1.12422
0.02119	-0.15492
0.19971	0.66132
0.32721	1.29902
0.27621	0.48277
0.37822	0.04914
0.19971	0.61031
-0.61635	0.76336
0.07220	0.43176
1.24527	0.22769
0.48022	0.12566
0.09770	-0.94566
0.32721	-0.71609
-0.20832	0.25320
-0.23382	0.15117
-0.13181	0.38074
-0.00431	0.17668
-0.18282	0.40625
0.17421	0.32972
0.50573	-0.71609
0.50573	-0.15492
0.48022	-0.10391
0.04670	0.25320
-0.25932	0.53379
-0.02981	0.58480
-0.02981	0.38074
0.37822	0.96742
0.55673	0.35523
-0.08081	0.15117
0.07220	-0.66508
0.76074	-0.18043
0.32721	0.15117
-0.18282	0.89089
-0.48884	0.35523
-1.61091	-0.02739
0.96476	-0.89465
0.91375	-0.61406
0.25071	1.19699
0.14870	0.91640
-0.33583	-0.46102
0.45472	-1.94047
0.88825	0.20219
0.02119	1.32453
-0.33583	1.35003
-0.18282	1.35003
-0.36133	0.91640
-0.20832	0.07465
0.09770	-0.79262
0.42922	-0.10391
0.63323	-0.53754
0.30171	-1.17523
0.58223	0.02363
-0.18282	0.32972
-0.08081	0.10015
0.50573	0.35523
0.09770	0.45726
0.02119	0.43176
-0.02981	0.83988
-0.18282	0.68683
1.47479	-0.35899
0.14870	-0.53754
0.40372	-0.15492
-0.36133	0.02363
-0.48884	-0.18043
-0.64185	0.15117
-0.10631	0.58480
0.83725	0.99292
0.78624	1.45206
0.19971	0.73785
0.12320	-0.66508
0.27621	-0.97117
-0.08081	-0.51203
-0.33583	-0.07840
1.04126	0.17668
0.53123	0.53379
-0.08081	0.48277
-0.18282	0.22769
-0.18282	0.94191
-0.08081	-0.07840
0.19971	0.78886
0.53123	0.99292
0.19971	-1.37929
-0.05531	-2.90976
-0.08081	-1.63437
0.02119	0.40625
0.07220	1.75816
0.27621	1.75816
0.40372	1.55410
-0.05531	1.52859
1.75531	0.17668
0.78624	-0.20594
-0.64185	-0.99668
-0.69285	-0.97117
-0.48884	0.20219
-0.28482	-0.05289
-0.02981	-0.30797
0.45472	0.20219
0.78624	0.58480
0.37822	0.89089
0.04670	0.50828
0.30171	0.71234
0.02119	0.35523
0.09770	-1.25176
-0.20832	-1.37929
-0.10631	-0.86914
0.19971	0.43176
0.35272	1.68163
0.04670	1.88570
0.02119	-0.15492
-0.05531	-0.69059
0.40372	-0.02739
0.32721	0.35523
0.25071	0.61031
-0.41233	0.40625
0.40372	-0.10391
0.50573	0.55929
0.32721	-0.05289
-0.20832	-0.74160
0.09770	-0.81812
0.25071	-0.25695
0.27621	0.78886
-0.05531	0.12566
0.35272	-0.94566
0.40372	0.78886
-0.25932	0.96742
-0.28482	0.68683
0.09770	0.35523
0.78624	0.20219
-0.15732	0.15117
-0.05531	-0.51203
0.02119	-0.53754
1.11776	-0.02739
0.30171	0.66132
-0.15732	0.48277
-0.10631	0.58480
-0.25932	0.94191
-0.10631	-0.18043
-0.00431	-1.17523
0.45472	-0.25695
0.12320	0.71234
0.14870	-0.63957
0.37822	-0.28246
0.40372	0.20219
0.02119	1.12046
0.25071	1.01843
0.76074	-0.48652
0.88825	0.22769
-0.56534	0.66132
0.04670	0.15117
0.02119	0.25320
-1.35589	0.48277
0.19971	0.35523
0.55673	-0.56305
-0.23382	-0.23145
0.02119	-0.12942
1.09226	-0.33348
0.50573	0.12566
0.19971	0.17668
-0.13181	-0.12942
-0.15732	0.48277
-0.05531	0.78886
-0.02981	0.20219
0.58223	-0.10391
0.07220	0.53379
0.27621	0.07465
0.09770	-1.96597
-0.08081	-0.99668
0.32721	1.04394
0.07220	1.19699
0.22521	1.01843
0.32721	1.29902
0.37822	0.94191
0.04670	0.02363
0.02119	-0.84363
0.07220	0.04914
0.25071	0.20219
0.50573	-0.51203
0.19971	-1.48133
-0.25932	0.10015
-0.20832	0.68683
-0.25932	0.91640
0.09770	1.14597
0.35272	0.78886
0.12320	-0.28246
-0.31033	-1.07320
0.45472	-1.09871
0.48022	-0.30797
-0.00431	0.78886
0.04670	0.96742
0.14870	0.73785
0.35272	0.89089
0.22521	0.91640
-0.41233	0.96742
1.11776	2.39585
0.27621	-0.07840
-0.31033	-5.20546
-0.51434	-5.05241
-0.05531	0.15117
0.99026	2.90601
0.30171	2.26831
-0.13181	1.65613
-0.15732	1.17148
-0.05531	1.14597
-0.05531	0.83988
-0.10631	-0.10391
0.37822	-0.92016
0.55673	-1.48133
-0.02981	-0.51203
-0.13181	-0.00188
-0.00431	-0.20594
0.58223	0.12566
1.32178	0.58480
0.48022	0.81437
-0.43783	0.61031
-0.43783	0.30422
-0.31033	-0.30797
0.02119	-0.48652
0.19971	-0.69059
-0.23382	-0.46102
0.17421	-0.05289
0.50573	1.19699
0.40372	1.29902
0.22521	0.91640
0.14870	1.01843
0.09770	0.53379
0.02119	-0.79262
-0.66735	-1.09871
0.12320	-0.51203
0.63323	-0.41000
0.30171	0.63582
0.93925	0.76336
0.42922	0.38074
-0.48884	0.25320
-0.76936	0.43176
-0.28482	-0.07840
0.12320	-1.12422
-0.08081	-0.74160
0.22521	0.25320
0.40372	0.96742
0.60773	1.65613
0.45472	1.14597
0.50573	-0.71609
0.35272	-1.58336
0.53123	0.78886
-0.38683	1.32453
0.09770	-0.15492
0.50573	-1.71090
-0.66735	-1.94047
-0.20832	0.55929
-0.20832	1.50308
-0.15732	1.63062
-0.20832	1.42656
0.35272	1.01843
1.34728	-0.07840
0.42922	-0.48652
-0.48884	-0.97117
0.55673	-0.05289
0.07220	-0.20594
-0.15732	-0.18043
0.04670	0.17668
0.27621	0.07465
0.17421	0.07465
0.04670	0.55929
-0.20832	0.63582
-0.33583	0.40625
-0.05531	-0.25695
0.83725	0.17668
0.09770	0.58480
0.63323	-0.76711
0.42922	-0.05289
0.07220	-0.12942
0.25071	-0.10391
0.48022	0.76336
0.27621	0.94191
-0.36133	0.63582
-0.33583	0.35523
-0.15732	0.32972
0.32721	0.45726
0.60773	-0.66508
0.30171	-0.53754
-0.13181	0.38074
-0.20832	0.12566
0.12320	0.04914
-0.28482	0.35523
0.30171	0.02363
0.88825	-0.05289
0.50573	0.50828
0.09770	0.17668
-0.05531	-1.09871
0.25071	-0.05289
0.48022	0.45726
0.14870	0.38074
-0.18282	-0.10391
-0.23382	0.22769
-0.28482	0.76336
0.04670	0.81437
0.27621	0.73785
-0.13181	0.78886
-0.05531	-0.18043
0.76074	-1.02219
0.83725	-0.12942
0.65874	0.35523
0.25071	0.35523
-0.64185	-0.63957
-0.53984	-0.86914
-0.00431	-0.86914
-0.41233	0.89089
0.83725	1.55410
0.73524	1.09496
0.76074	0.22769
0.63323	0.10015
-0.18282	-0.05289
-0.46334	-0.20594
-0.28482	0.10015
0.17421	0.20219
-0.25932	-0.12942
-0.36133	0.07465
0.37822	0.86539
0.55673	0.76336
0.32721	-0.69059
0.22521	-2.90976
0.30171	-1.96597
0.07220	0.89089
0.40372	1.60511
0.07220	1.50308
-0.38683	1.40105
-0.10631	1.06945
0.09770	0.73785
0.50573	0.30422
0.27621	0.22769
0.12320	-0.05289
0.07220	-0.41000
0.32721	-0.53754
0.45472	-0.46102
0.60773	0.35523
-0.05531	0.55929
-0.69285	-0.58856
-0.28482	-0.97117
-0.00431	-1.91496
0.14870	-2.90976
0.14870	0.86539
0.22521	2.47238
0.37822	3.00804
0.09770	2.34484
-0.33583	1.83468
1.65330	2.37034
1.52579	-0.07840
-0.05531	-2.52714
-0.82036	-3.36890
-0.61635	-1.58336
-0.02981	0.10015
