0.32721	0.25320
0.19971	0.32972
0.09770	0.22769
0.04670	0.12566
0.09770	0.10015
0.14870	0.22769
0.07220	0.12566
0.09770	-0.05289
0.14870	0.07465
0.27621	0.20219
0.17421	0.17668
0.22521	0.20219
0.32721	0.30422
0.19971	0.22769
-0.00431	0.10015
-0.05531	0.10015
0.04670	0.17668
-0.10631	-0.02739
0.17421	0.04914
0.32721	0.15117
0.32721	0.22769
0.48022	0.10015
0.25071	0.22769
0.07220	0.25320
-0.08081	0.04914
-0.05531	0.15117
0.04670	0.20219
-0.13181	-0.00188
0.19971	-0.00188
0.30171	0.12566
0.27621	0.25320
0.25071	0.32972
0.25071	0.27871
0.14870	0.12566
0.12320	0.32972
0.04670	0.12566
0.12320	0.02363
0.02119	0.02363
0.09770	0.04914
0.17421	0.10015
0.14870	0.12566
0.19971	0.30422
0.14870	0.35523
0.12320	0.20219
0.14870	0.10015
0.09770	0.07465
-0.02981	0.07465
-0.08081	0.02363
-0.00431	0.07465
0.17421	0.22769
0.37822	0.25320
0.32721	0.20219
0.22521	0.22769
0.09770	0.15117
0.04670	0.10015
0.09770	0.10015
0.04670	0.04914
0.12320	0.04914
0.09770	0.04914
0.12320	0.10015
0.14870	0.15117
0.22521	0.25320
0.30171	0.17668
0.25071	0.25320
0.09770	0.10015
-0.00431	0.10015
-0.05531	0.02363
-0.00431	-0.00188
0.07220	0.12566
0.22521	0.20219
0.32721	0.22769
0.25071	0.20219
0.27621	0.12566
0.19971	0.17668
0.14870	0.17668
0.12320	0.15117
0.09770	0.17668
0.09770	0.10015
0.07220	0.02363
0.27621	0.07465
0.19971	0.12566
0.14870	0.25320
0.14870	0.17668
0.22521	0.12566
0.19971	0.17668
0.07220	0.04914
-0.02981	0.04914
0.07220	0.27871
0.22521	0.12566
0.19971	-0.05289
0.17421	0.15117
0.14870	0.25320
0.22521	0.43176
0.17421	0.32972
0.12320	0.15117
0.17421	0.12566
0.07220	0.04914
0.04670	0.12566
0.12320	0.10015
0.12320	0.07465
0.22521	0.17668
0.22521	0.32972
0.22521	0.12566
0.14870	0.10015
0.19971	0.22769
0.09770	0.22769
-0.05531	-0.05289
0.02119	-0.07840
0.12320	-0.02739
0.17421	0.02363
0.25071	0.02363
0.32721	0.27871
0.12320	0.89089
0.19971	0.58480
0.07220	-0.18043
0.07220	-0.18043
-0.00431	-0.05289
0.09770	-0.12942
-0.05531	-0.15492
0.12320	0.15117
0.35272	0.38074
0.17421	0.27871
0.17421	0.22769
0.19971	0.25320
0.25071	0.25320
0.19971	0.17668
0.09770	0.04914
-0.02981	-0.02739
-0.02981	0.02363
-0.08081	0.12566
0.22521	0.22769
0.58223	0.20219
0.19971	0.22769
0.04670	0.12566
0.09770	0.12566
0.02119	0.07465
0.12320	0.12566
0.09770	0.10015
0.17421	0.17668
0.14870	0.17668
0.12320	0.20219
0.02119	0.22769
0.14870	0.25320
0.27621	0.17668
0.27621	0.15117
0.25071	0.12566
0.09770	-0.02739
0.12320	0.17668
-0.02981	0.10015
0.02119	0.02363
0.12320	0.17668
0.22521	0.43176
0.30171	0.07465
0.32721	0.17668
0.17421	0.25320
0.02119	0.32972
0.04670	-0.00188
0.02119	-0.10391
0.07220	0.10015
0.14870	0.10015
0.12320	0.10015
0.14870	0.25320
0.27621	0.27871
0.07220	0.02363
0.09770	-0.07840
0.09770	0.12566
0.17421	0.38074
0.25071	0.25320
0.12320	0.25320
0.02119	0.10015
0.17421	0.25320
0.32721	0.10015
0.27621	0.12566
0.30171	0.10015
0.12320	0.12566
0.12320	0.15117
0.04670	0.15117
-0.10631	-0.02739
-0.08081	-0.23145
0.12320	-0.02739
0.17421	0.25320
0.22521	0.38074
0.35272	0.22769
0.32721	0.20219
0.25071	0.35523
0.02119	0.12566
0.02119	0.07465
-0.02981	-0.02739
0.02119	0.12566
0.14870	0.17668
0.14870	0.10015
0.27621	0.25320
0.14870	0.38074
0.17421	0.50828
0.27621	0.15117
0.25071	-0.15492
0.12320	0.02363
0.02119	-0.00188
-0.10631	-0.28246
0.12320	-0.12942
0.22521	0.07465
0.17421	0.35523
0.25071	0.53379
0.25071	0.76336
0.12320	0.35523
-0.00431	0.32972
0.09770	0.07465
0.02119	0.10015
0.04670	0.07465
0.14870	-0.46102
0.30171	-0.71609
0.22521	-0.25695
0.14870	0.15117
-0.10631	0.40625
0.22521	0.63582
-0.02981	0.48277
0.07220	0.55929
0.35272	0.68683
0.17421	0.63582
0.27621	0.07465
0.70974	-1.73640
0.04670	-1.04770
-0.48884	-0.07840
0.09770	1.06945
0.50573	1.06945
-0.20832	0.48277
-0.08081	0.58480
-0.28482	0.12566
0.58223	-0.12942
0.53123	-0.18043
0.14870	-0.30797
-0.38683	-0.48652
0.30171	0.68683
0.25071	1.12046
0.12320	0.27871
-0.10631	-0.56305
0.25071	-0.28246
0.53123	0.38074
-0.33583	0.40625
0.60773	0.68683
0.12320	0.40625
-0.51434	-1.76191
0.68424	-1.91496
0.09770	-0.53754
0.27621	1.60511
-0.59084	1.93671
0.19971	1.98773
-0.56534	0.89089
-0.20832	0.25320
0.68424	0.50828
0.81175	-2.34859
0.17421	-1.12422
0.22521	-0.30797
0.45472	0.20219
0.58223	0.66132
-0.31033	0.50828
-0.61635	0.20219
-0.02981	1.22250
0.19971	1.75816
0.81175	0.71234
0.99026	-1.88945
0.27621	-4.87386
-0.08081	-1.02219
-0.08081	1.96222
-0.13181	2.72745
0.27621	2.26831
0.50573	0.30422
0.07220	-0.33348
-0.43783	0.43176
-0.10631	0.07465
0.40372	-0.38449
0.12320	-3.24136
0.17421	-1.78742
0.53123	2.82948
-0.08081	3.95182
0.19971	1.32453
-0.36133	-2.34859
0.22521	-1.12422
0.78624	0.76336
0.91375	1.24800
-0.00431	1.12046
-0.92237	0.63582
0.25071	0.15117
0.37822	-0.48652
-0.08081	-1.35379
0.12320	-0.15492
-0.43783	-0.35899
0.17421	-0.97117
0.83725	-2.68019
0.96476	0.20219
1.60230	3.31413
0.48022	2.72745
-0.64185	0.35523
-1.20288	-1.30277
-1.33039	0.17668
-0.20832	0.63582
0.81175	-0.12942
0.96476	0.48277
-0.00431	1.47757
0.02119	0.61031
0.50573	-0.46102
-0.05531	-1.07320
0.17421	1.04394
0.73524	1.24800
-0.18282	-1.32828
0.35272	-1.68539
0.04670	-0.89465
0.37822	0.45726
-0.08081	0.43176
-0.59084	0.89089
0.07220	0.89089
-0.28482	-0.92016
0.30171	-0.74160
0.60773	1.27351
0.12320	1.96222
-0.00431	1.47757
0.32721	-2.01699
-0.10631	-2.39961
-0.23382	0.66132
0.12320	2.01323
0.70974	2.42136
0.96476	0.20219
-0.08081	-1.17523
0.04670	-0.76711
0.02119	0.27871
0.37822	0.76336
0.27621	0.38074
-0.20832	-1.30277
0.12320	-0.79262
0.27621	0.35523
-0.31033	0.96742
-0.76936	0.61031
1.16877	-0.05289
0.83725	-0.10391
-0.23382	1.14597
-0.51434	0.94191
-0.28482	-1.02219
0.60773	-2.22105
-0.02981	0.12566
-0.02981	-0.53754
0.53123	1.12046
0.32721	1.80917
0.27621	1.55410
0.12320	0.20219
-0.48884	0.07465
-0.15732	0.38074
0.32721	-0.30797
0.25071	-0.25695
0.27621	-0.63957
0.02119	-0.25695
0.60773	0.61031
0.22521	-0.15492
0.40372	-0.35899
0.09770	-0.05289
-0.08081	0.50828
-0.05531	-0.07840
-0.15732	0.35523
0.12320	0.12566
0.22521	0.50828
0.22521	0.73785
0.07220	-0.71609
0.19971	-1.30277
0.40372	0.15117
0.63323	1.70714
-0.15732	1.47757
-0.20832	0.76336
-0.02981	-0.43551
-0.23382	0.10015
-0.38683	-0.63957
-0.02981	-1.14973
0.22521	0.35523
0.17421	1.12046
0.65874	-0.56305
0.81175	-0.74160
0.25071	0.55929
0.35272	1.17148
0.53123	0.78886
0.02119	-0.28246
-0.10631	-1.22625
0.68424	0.63582
-0.02981	1.06945
-0.66735	0.10015
-0.84586	-0.35899
1.04126	-0.10391
1.24527	-0.84363
-0.20832	-0.35899
-0.48884	1.04394
-0.23382	1.63062
-0.20832	1.04394
0.32721	0.38074
0.76074	0.53379
0.58223	-2.09351
0.48022	-1.68539
0.32721	0.17668
-0.18282	1.80917
-0.23382	1.55410
0.30171	0.96742
0.27621	-0.56305
-0.20832	-0.61406
-0.02981	-1.63437
0.83725	0.22769
-0.33583	0.55929
-0.20832	0.27871
0.27621	-0.07840
0.53123	0.83988
1.34728	0.91640
0.48022	0.81437
-0.43783	-0.61406
-0.36133	0.30422
0.07220	-0.20594
0.19971	-1.45582
0.37822	-0.86914
0.30171	0.38074
0.60773	1.22250
-0.18282	0.91640
-0.56534	0.83988
0.07220	0.30422
0.35272	-0.15492
-0.05531	0.02363
-0.20832	0.76336
-0.05531	0.25320
0.02119	-0.86914
0.04670	-0.97117
0.88825	-1.81293
1.50029	1.27351
0.63323	2.54890
-0.10631	1.55410
-0.43783	-0.41000
-0.23382	-0.86914
0.07220	0.22769
0.19971	0.78886
0.42922	0.73785
0.83725	-1.07320
0.02119	-0.61406
-0.15732	-0.51203
-0.23382	-0.74160
-0.48884	0.50828
-0.71835	0.68683
-0.02981	0.91640
0.09770	1.04394
0.17421	0.83988
0.53123	-0.94566
1.16877	-0.07840
1.29628	0.38074
0.30171	-0.46102
-0.18282	-0.89465
-0.56534	0.22769
-0.61635	0.71234
-0.18282	1.17148
-0.18282	0.50828
0.50573	0.27871
0.83725	0.43176
-0.08081	-0.15492
-0.15732	-1.83844
0.22521	-0.53754
0.63323	-0.43551
0.60773	1.19699
0.02119	1.96222
0.02119	-0.00188
0.22521	-0.23145
-0.53984	-0.97117
-0.48884	0.71234
0.09770	0.94191
0.25071	1.27351
1.19427	1.29902
0.78624	-0.07840
-0.02981	-1.27726
-0.64185	-1.02219
-0.20832	-0.07840
-0.00431	0.30422
-0.00431	0.15117
-0.33583	0.02363
-0.10631	-0.18043
1.01576	0.91640
1.50029	1.37554
0.63323	0.02363
-0.46334	-1.86394
-0.61635	-0.58856
-0.13181	1.27351
0.68424	1.12046
0.37822	0.12566
-0.33583	-0.38449
-0.74385	-0.46102
-0.18282	0.12566
0.93925	1.73265
0.55673	0.66132
0.37822	-0.48652
-0.28482	0.04914
-0.00431	-1.32828
0.45472	-0.58856
0.09770	-0.99668
0.04670	1.27351
-0.00431	1.35003
0.12320	1.63062
0.32721	1.45206
-0.02981	0.25320
0.19971	0.17668
0.14870	-0.10391
-0.10631	-1.32828
-0.00431	-2.37410
0.30171	-0.46102
0.12320	0.68683
0.30171	0.10015
0.37822	0.78886
0.58223	1.35003
0.22521	0.10015
0.04670	-0.18043
-0.02981	0.43176
0.19971	-0.02739
-0.53984	0.02363
-0.18282	0.43176
0.14870	-0.35899
0.45472	1.06945
0.12320	1.19699
0.19971	0.91640
0.14870	-0.18043
0.96476	-1.53234
0.53123	-1.12422
-0.20832	0.04914
-0.33583	0.22769
-0.13181	0.02363
-0.08081	0.35523
0.14870	0.83988
0.48022	1.27351
0.17421	0.53379
-0.20832	-0.99668
0.02119	-0.38449
0.30171	0.25320
0.58223	0.71234
-0.00431	0.43176
0.45472	0.48277
0.55673	0.15117
0.60773	0.12566
0.53123	0.63582
-0.08081	-0.51203
-0.31033	-1.88945
-0.25932	-2.24656
-0.43783	0.78886
0.04670	1.19699
0.27621	1.37554
0.42922	0.91640
0.25071	1.40105
-0.02981	0.86539
-0.02981	-0.92016
0.40372	0.15117
0.14870	0.63582
0.14870	0.22769
0.19971	-0.48652
-0.13181	-0.48652
0.27621	-0.07840
0.78624	0.45726
-0.00431	0.25320
0.12320	-0.43551
0.48022	-1.25176
-0.20832	-0.20594
0.53123	1.14597
0.37822	0.99292
-0.66735	0.50828
-0.82036	-0.25695
-0.33583	-0.20594
0.04670	0.27871
0.53123	0.61031
0.99026	0.32972
0.27621	-0.07840
-0.28482	-0.38449
-0.20832	0.10015
0.55673	0.48277
0.88825	0.48277
0.63323	0.55929
-0.13181	-0.71609
-0.59084	-0.30797
-0.18282	-0.28246
0.27621	0.50828
0.53123	1.14597
0.55673	0.96742
-0.15732	-0.74160
-0.31033	-0.20594
0.25071	-0.02739
-0.46334	-0.74160
-0.31033	0.22769
0.40372	1.68163
0.76074	0.91640
0.50573	-2.57816
-0.00431	-1.45582
0.22521	1.42656
0.19971	2.14077
0.22521	1.27351
-0.31033	-0.61406
-0.18282	-0.15492
0.42922	0.55929
1.04126	0.55929
0.17421	-0.07840
-0.31033	0.22769
0.02119	-0.05289
0.91375	-0.28246
0.19971	-0.15492
-0.25932	-0.07840
-0.59084	-0.58856
-0.00431	-0.23145
0.76074	0.38074
0.42922	0.73785
-0.38683	-0.35899
-0.23382	-0.18043
0.02119	0.50828
0.22521	1.09496
0.07220	1.19699
0.14870	-0.25695
0.35272	-0.43551
0.93925	-0.61406
-0.15732	-0.84363
-0.10631	0.43176
0.14870	0.27871
0.58223	-0.02739
0.53123	1.68163
0.63323	2.39585
-0.13181	1.42656
-0.02981	-0.66508
-0.33583	-1.94047
-0.33583	-1.86394
-0.33583	-1.32828
-0.00431	0.91640
0.70974	1.47757
1.09226	1.19699
-0.02981	0.63582
-0.38683	0.43176
0.22521	0.17668
0.12320	-0.10391
0.22521	-0.18043
-0.20832	-0.74160
0.12320	-0.02739
0.58223	-0.02739
-0.18282	-0.92016
0.22521	-0.63957
0.04670	-0.05289
-0.13181	0.55929
0.09770	1.27351
0.22521	1.60511
0.12320	0.99292
0.50573	0.50828
0.63323	-1.27726
0.40372	-0.07840
-0.31033	0.48277
-0.18282	-1.48133
0.04670	-0.97117
-0.10631	1.01843
-0.08081	1.98773
0.17421	1.42656
0.19971	0.68683
0.07220	-0.15492
0.60773	-0.86914
0.12320	-0.76711
-0.28482	0.02363
0.12320	-0.28246
0.96476	0.17668
0.70974	0.53379
0.35272	0.86539
-0.43783	0.86539
-0.92237	0.20219
-0.25932	-0.53754
-0.18282	-1.50683
-0.08081	-0.51203
0.27621	0.40625
0.68424	0.78886
1.21977	0.81437
0.25071	0.40625
0.07220	0.45726
0.70974	0.83988
0.17421	0.58480
-0.76936	-0.56305
0.27621	-1.22625
0.07220	0.04914
-0.33583	0.48277
-0.08081	1.09496
0.37822	0.86539
0.35272	-0.48652
0.25071	-1.07320
0.09770	0.48277
0.17421	0.86539
0.30171	-0.30797
-0.13181	-0.43551
-0.02981	0.15117
0.30171	-0.20594
0.25071	0.66132
0.04670	0.73785
0.12320	0.86539
1.01576	0.58480
0.12320	-0.20594
0.04670	-0.05289
-0.02981	0.20219
-0.25932	0.53379
-0.02981	0.35523
0.50573	-0.89465
0.22521	0.40625
-0.00431	-1.37929
-0.13181	-1.30277
-0.10631	-0.51203
0.30171	0.17668
0.48022	1.01843
0.07220	1.09496
-0.25932	1.47757
-0.15732	1.45206
0.45472	1.14597
0.53123	0.15117
0.25071	-0.76711
0.37822	-0.20594
-0.43783	-0.23145
0.12320	-0.71609
0.32721	-0.48652
0.58223	-0.12942
0.42922	0.20219
-0.02981	0.50828
-0.05531	-0.38449
0.22521	-0.30797
0.07220	-0.63957
0.22521	0.43176
0.07220	1.35003
-0.02981	0.50828
-0.15732	0.68683
0.04670	0.35523
0.09770	0.15117
-0.25932	-0.33348
0.63323	-0.00188
0.81175	0.22769
0.45472	0.27871
-0.08081	0.61031
-0.25932	0.55929
-0.00431	-0.38449
0.12320	-2.27207
0.07220	-0.48652
0.37822	1.35003
0.73524	1.12046
-0.15732	-0.30797
-0.38683	-0.51203
0.22521	-0.10391
0.58223	0.63582
0.02119	0.71234
-0.20832	0.58480
-0.38683	0.15117
0.09770	0.04914
0.22521	-0.07840
0.40372	0.10015
0.48022	-0.07840
0.35272	-0.97117
0.30171	0.45726
0.53123	1.35003
0.12320	-0.05289
-0.15732	-1.07320
-0.28482	-0.79262
0.30171	-0.02739
0.22521	1.29902
0.19971	1.45206
0.02119	1.24800
0.07220	0.66132
0.17421	0.15117
-0.25932	0.04914
0.17421	-0.46102
0.50573	-0.99668
0.09770	-0.76711
0.09770	0.10015
-0.08081	0.71234
0.02119	0.43176
0.50573	-0.41000
-0.59084	0.02363
0.55673	0.48277
1.06676	0.17668
0.12320	0.38074
-0.13181	0.15117
-0.13181	0.30422
-0.20832	0.07465
-0.25932	-0.41000
0.12320	0.20219
0.32721	0.73785
0.45472	-0.33348
0.19971	0.50828
0.30171	0.68683
0.25071	0.58480
-0.15732	-0.15492
-0.15732	-0.15492
0.22521	-0.07840
0.45472	-0.30797
0.55673	-0.97117
0.12320	0.07465
0.17421	1.04394
-0.31033	0.30422
-0.13181	-0.94566
0.30171	0.04914
0.37822	1.22250
-0.56534	1.37554
-0.13181	1.01843
0.40372	0.40625
0.35272	-0.35899
0.91375	-0.46102
0.42922	-0.35899
-0.43783	-1.02219
-0.13181	-1.17523
0.22521	-0.38449
0.22521	0.78886
0.12320	0.94191
0.60773	0.63582
0.27621	0.89089
-0.33583	0.66132
-0.89686	-0.35899
-0.10631	-1.60887
0.60773	-0.66508
0.32721	1.27351
0.25071	1.60511
0.32721	1.14597
0.07220	-0.46102
0.68424	-0.53754
0.63323	-0.00188
0.32721	-0.05289
-0.20832	-0.46102
-0.43783	-0.18043
-0.10631	0.76336
0.37822	0.94191
0.32721	0.40625
-0.02981	0.55929
0.02119	0.55929
-0.00431	-0.28246
-0.05531	-0.58856
-0.43783	-0.84363
0.48022	-0.81812
0.63323	0.22769
0.50573	0.83988
0.12320	0.76336
0.99026	0.71234
0.14870	0.61031
-0.74385	0.20219
-0.56534	-1.04770
0.09770	-0.56305
0.25071	0.25320
-0.00431	0.17668
0.07220	0.35523
0.27621	0.86539
0.17421	0.83988
0.22521	0.66132
0.63323	0.30422
0.88825	-0.05289
-0.33583	-0.76711
-0.33583	-1.43031
0.32721	0.12566
0.09770	0.76336
0.22521	0.73785
-0.02981	0.63582
0.07220	1.01843
-0.00431	0.78886
0.42922	-0.00188
0.04670	-0.30797
0.40372	-0.79262
-0.05531	-2.73121
-0.59084	-0.99668
0.12320	1.47757
0.99026	1.24800
0.48022	0.38074
0.35272	0.76336
0.12320	1.35003
0.12320	1.32453
-0.02981	0.71234
-0.13181	-0.41000
-0.23382	-1.12422
-0.13181	-0.58856
0.37822	0.15117
0.42922	0.12566
0.14870	-0.41000
0.42922	0.10015
0.22521	1.06945
0.22521	0.66132
-0.18282	-0.53754
-0.18282	-0.97117
0.19971	-0.07840
0.09770	1.12046
0.19971	-0.38449
0.45472	-0.20594
0.45472	0.91640
0.35272	1.24800
0.02119	0.76336
-0.08081	0.32972
-0.59084	-0.58856
-0.13181	0.27871
0.12320	0.04914
0.48022	-0.15492
0.55673	-0.20594
0.27621	-0.12942
0.25071	0.40625
0.07220	0.43176
0.19971	0.02363
0.50573	-0.02739
-0.38683	-0.63957
-0.05531	-0.18043
0.09770	1.17148
-0.02981	0.73785
0.63323	-0.58856
-0.18282	-0.10391
0.45472	-0.25695
0.32721	0.20219
-0.00431	0.38074
0.14870	0.99292
0.30171	0.53379
0.12320	-0.10391
0.42922	-0.56305
-0.20832	-0.63957
0.14870	0.27871
-0.28482	1.17148
-0.05531	1.93671
-0.02981	0.55929
0.09770	-0.89465
0.09770	-1.20074
-0.13181	-0.56305
0.48022	0.55929
1.24527	0.78886
0.53123	0.15117
-0.00431	0.30422
-0.23382	-0.07840
0.12320	-0.10391
0.27621	-0.35899
0.40372	-0.00188
0.02119	0.45726
-0.41233	0.89089
-0.23382	0.25320
0.22521	-0.51203
-0.02981	-0.69059
0.14870	-0.23145
0.27621	0.43176
0.42922	0.66132
0.19971	1.37554
0.25071	0.81437
0.42922	0.48277
-0.28482	-0.97117
-0.02981	-0.74160
-0.18282	0.12566
0.14870	0.12566
0.68424	0.07465
0.88825	0.78886
0.04670	0.81437
0.02119	0.61031
-0.59084	-0.15492
-0.00431	-0.33348
0.42922	-0.15492
0.22521	-0.05289
0.04670	-0.69059
0.40372	-0.20594
-0.23382	0.83988
0.50573	1.17148
0.32721	0.40625
-0.00431	0.25320
0.09770	0.35523
0.12320	-0.10391
0.07220	-0.23145
-0.10631	0.20219
-0.36133	-0.10391
0.19971	-0.00188
0.81175	0.10015
0.73524	-0.25695
0.40372	0.45726
0.07220	1.40105
-0.33583	0.20219
0.83725	-1.25176
0.22521	-2.37410
-0.84586	-0.35899
-0.79486	1.22250
-0.28482	1.57960
0.32721	1.45206
0.32721	1.17148
0.65874	0.66132
0.60773	-0.00188
0.22521	-0.28246
0.27621	-0.25695
0.02119	-0.97117
0.07220	-0.84363
0.27621	-0.18043
0.19971	0.38074
0.25071	0.55929
-0.13181	-0.15492
0.04670	0.58480
0.02119	0.86539
-0.20832	0.55929
0.02119	-0.15492
0.22521	-1.12422
0.48022	0.45726
0.60773	0.76336
-0.36133	0.50828
0.22521	0.15117
0.07220	0.07465
-0.18282	-0.71609
0.12320	-0.63957
0.45472	0.25320
0.45472	0.27871
0.32721	0.68683
-0.10631	0.73785
-0.08081	0.30422
-0.02981	0.15117
0.35272	0.55929
0.02119	0.63582
0.07220	0.53379
0.96476	0.20219
0.07220	-0.18043
-0.61635	-0.38449
-0.31033	-0.41000
-0.08081	-0.81812
0.40372	-0.66508
0.83725	0.12566
0.42922	0.86539
-0.13181	0.78886
-0.13181	0.40625
0.35272	0.20219
0.48022	-0.00188
-0.00431	0.30422
-0.02981	0.83988
-0.36133	0.71234
-0.10631	-1.27726
0.83725	-2.42511
0.45472	0.02363
0.09770	1.40105
-0.13181	1.50308
-0.13181	0.91640
0.17421	0.94191
0.50573	0.35523
-0.10631	-0.15492
-0.02981	-0.00188
0.12320	-0.30797
0.42922	-0.25695
0.27621	0.15117
0.07220	-0.33348
0.22521	-0.51203
0.25071	-0.10391
0.45472	0.35523
0.19971	0.86539
-0.08081	0.48277
-0.33583	0.25320
-0.00431	0.10015
0.35272	-0.00188
0.22521	0.50828
0.27621	0.71234
0.45472	-0.58856
0.42922	-0.81812
0.02119	-0.12942
-0.28482	0.02363
-0.10631	0.43176
0.02119	0.86539
0.22521	0.61031
0.27621	0.30422
0.30171	-0.12942
0.09770	-0.10391
0.19971	0.58480
0.50573	0.86539
0.50573	0.07465
0.32721	-0.43551
-0.23382	-0.46102
-0.23382	-0.74160
-0.28482	-0.35899
-0.08081	0.68683
0.07220	1.45206
-0.02981	-0.58856
0.25071	-2.17003
0.96476	-0.38449
0.45472	1.32453
-0.05531	2.06425
-0.05531	1.50308
0.27621	1.29902
-0.00431	0.76336
0.04670	-0.76711
0.37822	-0.97117
0.37822	0.02363
-0.20832	-0.07840
-1.12638	0.10015
0.14870	-0.10391
1.06676	-0.07840
0.07220	-0.18043
-0.28482	-0.20594
-0.05531	0.15117
0.40372	0.25320
0.12320	0.40625
0.63323	0.48277
0.25071	0.15117
0.12320	0.25320
0.22521	0.63582
0.32721	0.32972
0.50573	-0.63957
-0.18282	-0.30797
-0.38683	0.20219
0.25071	0.50828
0.07220	-0.07840
0.32721	0.35523
0.14870	0.73785
0.22521	0.61031
0.40372	0.12566
0.09770	-0.46102
-0.13181	-0.07840
0.04670	0.25320
0.48022	-0.07840
0.22521	0.76336
0.02119	-0.05289
0.22521	-0.33348
0.53123	-0.35899
0.17421	0.55929
-0.08081	0.61031
-0.13181	0.73785
-0.43783	0.02363
-0.10631	0.22769
0.35272	0.30422
-0.15732	-0.33348
0.12320	-0.35899
0.96476	-0.30797
1.01576	0.25320
0.32721	0.43176
0.02119	0.12566
-0.23382	-0.58856
-0.20832	0.35523
0.17421	1.32453
-0.13181	-0.15492
-0.20832	-0.69059
-0.38683	0.40625
0.09770	0.43176
0.73524	0.66132
0.22521	0.73785
0.04670	-0.15492
0.42922	0.10015
0.37822	0.12566
0.02119	-0.99668
-0.18282	-0.10391
-0.61635	0.50828
0.96476	0.27871
1.06676	0.25320
0.32721	0.71234
-0.10631	0.43176
-0.28482	-0.07840
-0.15732	-0.35899
0.07220	-0.35899
0.09770	-0.12942
-0.20832	0.32972
-0.20832	0.35523
-0.02981	0.30422
0.14870	0.17668
0.53123	0.20219
0.73524	0.40625
0.50573	0.15117
0.09770	-0.00188
0.12320	0.10015
0.09770	0.50828
0.07220	0.35523
-0.23382	0.22769
0.02119	0.30422
0.32721	-0.61406
0.17421	0.40625
0.91375	0.02363
0.25071	-0.86914
-0.23382	-0.76711
-0.61635	0.25320
-0.18282	1.47757
0.25071	1.14597
0.45472	0.38074
0.25071	0.17668
0.48022	-0.02739
0.09770	-0.28246
-0.08081	-0.46102
-0.41233	-0.28246
0.50573	-0.18043
0.60773	-0.48652
-0.10631	0.53379
-0.10631	0.96742
-0.02981	0.45726
0.12320	-0.41000
0.58223	0.12566
0.22521	0.53379
0.25071	0.96742
0.50573	0.96742
0.22521	-0.35899
-0.25932	-0.28246
-0.28482	-0.41000
-0.08081	-0.15492
0.14870	-0.33348
0.22521	-0.23145
0.02119	0.12566
0.09770	0.45726
0.07220	0.71234
0.37822	0.99292
0.27621	1.01843
0.25071	0.66132
0.07220	-0.92016
0.27621	-0.63957
0.30171	-1.48133
0.19971	-1.07320
-0.05531	0.25320
0.22521	1.29902
0.48022	1.63062
0.09770	1.60511
-0.66735	1.70714
0.96476	-0.15492
0.17421	-1.55785
-0.48884	-0.58856
-0.53984	-1.07320
-0.10631	-0.30797
0.50573	0.66132
0.68424	0.94191
0.32721	0.48277
-0.10631	0.55929
0.55673	0.53379
0.50573	0.43176
-0.23382	-0.53754
0.22521	-0.53754
0.32721	-0.33348
0.17421	-0.15492
0.12320	-0.18043
-0.02981	0.20219
0.04670	0.73785
0.22521	0.94191
0.14870	0.55929
-0.28482	0.48277
0.12320	0.45726
0.65874	0.30422
0.30171	-0.51203
0.32721	-0.99668
-0.08081	-0.35899
-0.00431	0.45726
-0.00431	0.12566
0.25071	0.68683
0.07220	0.50828
-0.10631	-0.02739
-0.31033	0.27871
0.60773	0.55929
0.68424	0.32972
0.04670	0.15117
0.27621	-0.10391
0.27621	-0.20594
0.09770	0.25320
-0.00431	0.63582
-0.08081	0.32972
-0.10631	-0.76711
-0.05531	-0.66508
-0.48884	0.25320
0.48022	0.30422
0.81175	0.22769
0.55673	0.43176
0.19971	0.76336
0.12320	0.78886
-0.10631	-0.15492
0.04670	0.04914
-0.20832	-1.27726
-0.25932	-1.04770
-0.23382	0.17668
-0.43783	0.61031
0.83725	1.55410
0.93925	1.40105
0.50573	1.09496
0.02119	-0.35899
-0.08081	-1.12422
0.12320	-0.10391
0.12320	-0.00188
0.30171	0.04914
0.32721	0.32972
0.12320	0.43176
-0.20832	0.17668
0.02119	-0.12942
0.48022	0.12566
-0.08081	0.07465
0.04670	-0.10391
0.12320	-0.15492
-0.18282	-0.15492
0.02119	0.38074
0.22521	0.63582
0.40372	0.22769
0.32721	0.22769
0.12320	0.22769
-0.18282	-0.38449
-0.28482	-0.10391
0.14870	0.15117
0.63323	1.14597
0.22521	0.99292
0.53123	0.78886
0.83725	-0.33348
-0.23382	-0.66508
-0.43783	-1.73640
-0.66735	-0.35899
0.14870	0.94191
0.65874	0.71234
0.09770	0.45726
0.53123	0.83988
-0.05531	0.58480
-0.23382	0.04914
-0.28482	-0.02739
0.25071	-0.02739
0.58223	0.17668
0.37822	-0.51203
0.25071	-0.92016
0.27621	-0.41000
-0.00431	0.20219
-0.10631	1.01843
0.27621	0.50828
-0.31033	0.02363
-0.15732	0.25320
-0.08081	0.04914
0.37822	0.43176
0.32721	0.66132
0.27621	0.35523
0.17421	-0.05289
0.50573	-0.02739
0.45472	-0.56305
-0.25932	-0.61406
-0.28482	0.02363
0.32721	0.99292
0.88825	1.70714
-0.43783	0.50828
-0.41233	-1.81293
-0.00431	-1.32828
-0.05531	0.40625
0.37822	1.06945
0.63323	1.17148
0.22521	0.96742
0.09770	0.89089
-0.23382	0.61031
-0.31033	0.27871
0.17421	-1.43031
0.58223	-1.65988
0.78624	0.43176
0.27621	0.43176
0.32721	0.27871
0.32721	0.22769
-0.74385	0.30422
0.09770	0.40625
-0.38683	0.22769
-0.15732	-0.12942
-0.00431	0.25320
0.48022	0.45726
0.70974	0.20219
0.30171	0.27871
0.19971	0.38074
0.27621	0.12566
0.27621	0.10015
0.35272	0.63582
-0.48884	-0.12942
0.09770	-0.41000
0.50573	-0.84363
0.12320	-0.48652
0.02119	0.20219
0.25071	0.43176
0.04670	0.78886
0.07220	1.12046
0.02119	1.06945
-0.05531	0.50828
0.30171	0.17668
0.14870	-0.71609
-0.18282	-1.14973
0.19971	0.20219
0.50573	0.30422
0.53123	0.76336
0.35272	0.45726
0.37822	-0.25695
0.14870	-0.12942
0.02119	-0.00188
-0.02981	0.04914
-0.00431	-0.43551
-0.00431	0.15117
0.09770	1.09496
0.25071	1.68163
-0.20832	-0.35899
-0.20832	-1.55785
0.65874	-1.30277
-0.10631	0.17668
-0.10631	1.01843
-0.02981	1.17148
0.22521	0.91640
0.83725	0.55929
0.35272	-0.48652
0.30171	-0.79262
0.17421	0.25320
0.27621	0.58480
0.02119	0.61031
-0.08081	0.78886
-0.28482	-0.46102
-0.02981	-1.20074
0.48022	-0.53754
0.30171	-0.56305
0.32721	-0.18043
0.02119	0.94191
-0.13181	1.27351
-0.13181	0.71234
-0.18282	0.66132
0.35272	0.78886
0.53123	0.35523
-0.00431	-0.41000
-0.05531	-1.60887
0.42922	-1.17523
0.19971	0.81437
0.55673	1.12046
1.21977	-0.81812
0.12320	0.10015
-0.48884	0.63582
0.02119	0.76336
-0.33583	0.94191
-0.28482	0.10015
-0.13181	0.40625
0.12320	0.78886
0.78624	0.07465
0.63323	-1.17523
0.37822	-0.28246
-0.28482	-0.12942
-0.66735	0.12566
0.27621	-0.07840
0.17421	0.27871
0.02119	0.63582
0.12320	0.40625
0.30171	0.30422
0.48022	0.07465
0.32721	-0.20594
0.22521	-0.10391
0.32721	0.17668
0.27621	0.50828
-0.00431	0.38074
0.07220	-0.10391
0.02119	0.43176
-0.36133	0.66132
-0.23382	-0.05289
-0.23382	-0.43551
0.42922	-0.53754
0.63323	0.17668
0.60773	0.83988
0.68424	0.55929
0.27621	-0.35899
-0.61635	0.32972
-0.48884	-0.66508
-0.25932	-0.74160
-0.02981	0.45726
0.48022	1.04394
0.65874	1.06945
0.50573	1.17148
0.42922	0.17668
-0.00431	-0.89465
-0.08081	-0.76711
-0.59084	-0.15492
0.19971	-0.12942
0.65874	0.35523
0.30171	0.22769
0.09770	0.40625
0.14870	0.63582
0.19971	0.25320
0.12320	0.66132
0.09770	0.35523
0.32721	-0.12942
-0.02981	-0.48652
0.73524	0.10015
-0.13181	-0.51203
-0.25932	-0.12942
0.09770	0.15117
0.25071	0.43176
0.48022	0.50828
-0.00431	0.73785
-0.33583	0.55929
0.14870	0.45726
0.14870	-0.10391
0.83725	-0.51203
0.78624	-0.10391
-0.33583	-0.00188
-0.02981	0.43176
0.09770	0.71234
-0.15732	0.55929
-0.23382	-1.07320
0.17421	-0.84363
0.27621	-0.30797
0.32721	0.20219
0.22521	0.53379
0.22521	1.27351
0.22521	1.27351
-0.02981	1.01843
0.27621	0.38074
0.22521	-0.05289
-0.10631	-0.53754
0.48022	-1.02219
0.02119	-0.92016
-0.28482	-0.18043
0.12320	-0.02739
0.50573	0.43176
0.32721	0.63582
0.14870	0.76336
0.09770	0.76336
0.12320	-0.12942
-0.28482	-0.79262
-0.94787	0.15117
0.32721	0.30422
0.50573	0.50828
0.42922	0.73785
0.37822	0.30422
0.55673	-0.56305
0.27621	-0.86914
0.17421	0.48277
0.12320	0.40625
0.12320	0.15117
-0.28482	0.78886
-0.43783	0.55929
-0.18282	-1.27726
0.12320	-0.23145
0.27621	0.53379
0.19971	0.27871
0.68424	0.22769
0.55673	0.50828
0.93925	0.45726
0.32721	0.48277
-0.41233	-0.12942
-0.13181	-0.05289
-0.20832	0.04914
0.19971	0.20219
0.25071	0.20219
-0.23382	-0.58856
-0.13181	-0.20594
0.19971	0.35523
0.14870	0.43176
0.17421	0.48277
0.17421	0.02363
0.25071	-0.10391
-0.02981	-0.66508
0.14870	-0.35899
0.40372	0.63582
0.25071	0.86539
0.65874	1.06945
0.60773	0.45726
0.19971	0.66132
-0.28482	-0.15492
-0.53984	-0.92016
0.30171	-1.20074
-0.08081	0.07465
-0.41233	0.81437
0.02119	0.66132
0.32721	0.71234
0.58223	0.02363
0.42922	0.38074
0.27621	0.50828
0.09770	-0.18043
0.02119	-0.66508
0.14870	0.02363
-0.23382	-0.51203
-0.02981	0.07465
0.35272	0.40625
0.50573	0.94191
0.53123	0.32972
0.60773	0.32972
0.12320	-0.00188
-0.43783	-0.00188
-0.31033	-0.58856
-0.20832	-0.00188
0.27621	0.35523
0.19971	0.38074
0.32721	0.55929
0.30171	-0.25695
-0.00431	0.58480
0.19971	0.58480
0.19971	0.40625
0.22521	0.25320
0.27621	0.17668
-0.36133	-0.51203
0.37822	-1.14973
0.45472	-0.66508
-0.15732	0.66132
-0.20832	0.76336
-0.10631	0.58480
-0.23382	0.83988
0.37822	0.76336
0.53123	0.53379
0.53123	-0.86914
-0.36133	-0.30797
0.45472	-0.18043
0.42922	-0.28246
-0.10631	-0.02739
-0.28482	-0.07840
0.22521	-0.07840
0.27621	0.76336
0.55673	1.42656
0.17421	0.58480
-0.08081	0.07465
0.02119	-0.15492
0.25071	-0.00188
0.30171	0.35523
0.19971	-1.02219
-0.05531	-0.71609
0.02119	1.04394
0.14870	1.06945
0.25071	0.25320
0.45472	-0.58856
-0.00431	0.04914
-0.13181	0.55929
0.09770	0.30422
0.07220	0.25320
0.27621	0.20219
0.37822	-0.35899
0.40372	-0.66508
0.07220	0.22769
0.12320	0.68683
0.53123	0.89089
0.07220	-0.10391
-0.33583	-0.92016
-0.31033	0.04914
0.19971	0.63582
0.17421	1.17148
0.27621	0.86539
0.32721	0.07465
0.55673	0.22769
-0.02981	-0.05289
-0.20832	-0.43551
-0.64185	-0.58856
0.35272	-0.35899
0.83725	-0.15492
0.27621	0.10015
-0.18282	0.38074
0.02119	0.58480
0.12320	0.07465
0.58223	0.38074
0.48022	0.15117
-0.05531	0.55929
-0.31033	0.68683
0.04670	0.27871
-0.28482	0.07465
-0.08081	0.22769
0.04670	-0.74160
0.30171	-0.25695
0.27621	0.22769
0.12320	0.96742
0.48022	0.58480
1.01576	-0.30797
0.30171	-0.43551
-0.00431	-0.07840
-0.31033	0.07465
-0.15732	0.25320
0.12320	0.32972
0.17421	0.61031
0.30171	0.76336
0.27621	0.53379
0.32721	-0.74160
0.25071	-0.94566
0.19971	0.20219
-0.46334	0.27871
-0.51434	-0.46102
0.48022	0.53379
0.45472	0.58480
0.32721	0.55929
0.40372	0.50828
0.48022	0.83988
0.04670	0.45726
-0.15732	-0.58856
-0.08081	-0.63957
-0.31033	-0.10391
0.48022	0.15117
0.42922	0.20219
-0.18282	0.38074
0.09770	0.45726
0.40372	0.07465
0.40372	0.55929
0.32721	0.58480
0.42922	0.55929
0.35272	-0.63957
-0.02981	-0.71609
-0.76936	-0.71609
-0.36133	-0.63957
0.12320	-0.43551
0.42922	1.19699
0.30171	1.37554
0.25071	0.76336
0.25071	0.30422
-0.25932	0.45726
0.02119	0.40625
1.24527	-0.41000
0.73524	-0.25695
0.35272	-0.33348
-0.33583	0.20219
-0.23382	0.55929
-0.08081	0.35523
0.22521	0.17668
-0.02981	0.12566
-0.28482	-0.23145
-0.20832	-0.20594
-0.08081	0.10015
-0.08081	-0.20594
0.17421	-0.15492
0.60773	0.15117
0.63323	0.25320
0.63323	0.27871
0.83725	0.50828
0.42922	0.27871
-0.05531	0.35523
-0.05531	0.22769
-1.07538	0.22769
-0.33583	0.12566
0.27621	-0.25695
0.40372	-0.10391
0.22521	0.15117
-0.28482	0.45726
0.12320	0.63582
0.25071	-0.25695
0.32721	-0.58856
0.40372	-0.02739
0.25071	-0.02739
0.12320	0.68683
0.04670	0.86539
0.07220	0.76336
-0.05531	0.48277
-0.02981	-0.20594
0.04670	-0.53754
0.35272	-0.15492
0.30171	-0.15492
0.42922	-0.15492
0.22521	-0.25695
0.09770	0.40625
-0.18282	1.24800
0.04670	0.94191
0.19971	-0.15492
0.07220	-1.32828
0.09770	-0.35899
0.02119	0.66132
0.17421	0.83988
0.25071	0.76336
0.53123	-0.79262
0.40372	-0.05289
-0.08081	-0.33348
-0.41233	0.12566
-0.46334	0.43176
0.40372	0.04914
0.96476	0.27871
-0.64185	0.81437
0.93925	0.38074
0.68424	0.53379
-0.28482	0.22769
-0.10631	-0.18043
-0.46334	-0.07840
-0.41233	0.25320
0.32721	0.43176
0.37822	0.04914
0.48022	-0.25695
0.25071	-0.46102
0.14870	-0.18043
0.19971	-0.00188
0.12320	-0.07840
-0.08081	0.17668
-0.00431	0.48277
0.02119	0.35523
0.12320	0.35523
0.19971	0.35523
0.55673	0.50828
0.04670	1.01843
0.22521	1.22250
0.32721	0.58480
0.07220	-1.94047
-0.02981	-2.06800
-0.28482	0.04914
-0.08081	0.48277
0.12320	0.76336
0.81175	0.76336
0.40372	0.94191
0.12320	1.06945
0.02119	-0.43551
0.04670	-0.41000
0.09770	0.04914
0.19971	0.30422
0.25071	-0.23145
-0.08081	-0.23145
-0.02981	-0.23145
0.30171	0.20219
0.17421	0.30422
0.02119	0.20219
0.30171	0.04914
0.63323	-0.20594
0.09770	0.22769
-0.43783	0.27871
-0.05531	0.35523
0.42922	0.50828
0.22521	0.43176
-0.46334	0.76336
0.45472	0.45726
1.34728	0.04914
0.30171	-0.69059
-0.33583	-0.28246
-0.25932	-0.35899
-0.10631	-0.76711
-0.10631	0.04914
-0.13181	0.43176
0.93925	0.76336
0.35272	0.89089
0.19971	1.22250
0.09770	0.50828
0.17421	-0.00188
0.02119	-0.07840
-0.10631	0.25320
-0.48884	-0.25695
0.40372	-0.51203
0.78624	-0.46102
0.70974	0.22769
-0.08081	0.66132
-0.15732	-0.46102
0.04670	-0.35899
-0.00431	0.25320
0.07220	0.53379
0.35272	0.35523
0.37822	0.43176
0.02119	0.17668
-0.08081	-0.25695
-0.20832	-0.00188
0.19971	0.27871
0.53123	0.68683
0.45472	0.61031
-0.00431	0.04914
0.42922	-0.41000
0.53123	-0.33348
-0.41233	0.04914
-0.10631	0.43176
0.27621	0.43176
0.09770	0.30422
-0.10631	0.17668
0.07220	0.38074
-0.08081	0.40625
0.14870	0.40625
-0.08081	-0.25695
0.37822	-0.12942
0.78624	-1.22625
0.17421	-0.41000
-0.23382	0.45726
-0.20832	0.32972
0.09770	0.55929
0.50573	0.78886
0.99026	0.58480
0.04670	0.43176
-0.13181	0.20219
-0.36133	-0.00188
-0.13181	0.20219
0.02119	0.10015
-0.08081	-0.07840
-0.13181	-1.37929
0.12320	-1.43031
1.14327	0.10015
0.88825	1.45206
0.45472	1.47757
-0.00431	1.17148
-0.38683	0.20219
-0.69285	-0.30797
-0.10631	-0.30797
0.35272	0.04914
0.42922	-0.00188
0.48022	-0.18043
-0.10631	0.53379
-0.05531	0.32972
0.42922	0.53379
0.76074	0.83988
0.09770	0.10015
-0.23382	-0.61406
-0.15732	-0.97117
0.22521	-1.04770
0.27621	-0.41000
0.32721	0.99292
0.19971	1.06945
0.07220	1.12046
0.14870	1.19699
0.30171	0.89089
0.14870	0.04914
-0.33583	-1.20074
-0.23382	-1.27726
0.17421	-0.46102
-0.10631	0.22769
1.14327	0.76336
0.76074	1.09496
0.50573	0.99292
0.02119	-0.33348
-0.25932	-0.00188
-0.18282	0.15117
-0.46334	0.04914
-0.02981	0.22769
0.07220	-0.28246
0.17421	-0.23145
0.12320	0.68683
0.07220	0.99292
0.96476	-0.30797
0.96476	-1.43031
-0.02981	-2.55265
-0.28482	0.20219
-0.10631	1.65613
0.09770	1.83468
0.07220	1.37554
0.17421	1.22250
0.12320	0.63582
0.22521	0.10015
0.40372	-0.23145
-0.15732	-0.46102
-0.13181	-0.46102
0.30171	-0.92016
0.25071	-0.74160
0.22521	-0.07840
0.04670	0.50828
0.19971	0.32972
0.70974	-0.18043
0.19971	0.50828
-0.25932	0.40625
-0.25932	0.50828
-0.02981	0.71234
-0.48884	0.73785
0.12320	0.27871
0.93925	-0.43551
0.73524	-1.63437
-0.25932	-1.78742
-0.33583	0.81437
0.27621	1.98773
0.63323	1.60511
0.63323	0.94191
0.02119	0.43176
-0.00431	0.25320
-0.02981	0.66132
-0.23382	-1.22625
-0.69285	-1.53234
0.25071	-0.28246
0.60773	-0.23145
0.83725	-0.05289
0.04670	0.76336
-0.00431	1.22250
0.37822	0.53379
-0.02981	0.15117
0.19971	-0.02739
0.35272	-0.28246
0.35272	-0.18043
-0.41233	0.12566
-0.33583	0.30422
-0.15732	0.32972
0.32721	-0.15492
0.12320	0.22769
0.32721	0.55929
0.76074	0.45726
0.09770	0.40625
0.17421	-0.71609
-0.43783	-1.12422
0.35272	0.45726
0.35272	1.04394
0.81175	0.83988
0.50573	0.15117
-0.28482	-0.58856
-0.48884	-0.05289
-0.00431	0.43176
0.53123	0.53379
-0.05531	0.38074
-0.18282	-0.05289
-0.00431	-0.41000
-0.00431	0.43176
0.30171	0.48277
1.19427	0.50828
0.12320	-0.86914
-0.25932	-0.10391
0.02119	0.35523
-0.02981	0.27871
-0.28482	0.02363
0.04670	0.30422
0.73524	0.45726
0.58223	0.53379
-0.00431	0.12566
-0.13181	0.25320
0.42922	0.15117
0.14870	0.48277
0.14870	-0.00188
-0.23382	-0.94566
-0.10631	-0.84363
0.07220	0.30422
0.19971	0.76336
0.22521	0.55929
0.45472	-0.07840
0.07220	0.35523
-0.38683	-0.00188
0.78624	0.12566
0.48022	0.50828
-0.02981	0.32972
-0.31033	0.12566
-0.02981	0.35523
0.53123	0.50828
-0.02981	0.04914
0.09770	-0.86914
0.14870	-0.48652
0.04670	0.30422
0.02119	0.20219
0.19971	0.32972
0.50573	0.40625
-0.00431	0.27871
-0.43783	1.35003
0.65874	0.32972
0.48022	-1.40480
0.30171	-1.17523
-0.25932	-0.07840
0.27621	0.83988
0.27621	1.01843
-0.02981	0.94191
-0.13181	0.76336
-0.20832	0.43176
0.37822	0.20219
0.25071	0.04914
0.14870	-0.99668
-0.08081	-1.30277
0.48022	0.22769
0.30171	0.50828
0.14870	0.63582
0.30171	0.25320
-0.02981	0.22769
-0.38683	0.43176
-0.05531	0.07465
0.17421	-0.41000
-0.08081	-0.81812
0.27621	0.17668
0.53123	0.73785
0.55673	0.53379
0.22521	0.48277
0.30171	0.35523
0.32721	0.30422
-0.53984	0.38074
-0.25932	-0.58856
0.12320	-0.69059
0.19971	0.20219
0.14870	0.32972
0.35272	0.20219
0.09770	0.45726
-0.25932	0.22769
0.04670	0.17668
-0.28482	0.25320
1.11776	0.38074
0.63323	0.35523
-0.05531	-0.71609
0.02119	-0.71609
-0.08081	0.07465
0.37822	0.61031
0.17421	0.45726
0.45472	-0.07840
0.02119	0.25320
-0.46334	0.38074
-0.02981	0.55929
-0.23382	0.50828
0.58223	-0.35899
0.32721	-0.28246
0.02119	-1.25176
0.27621	0.17668
0.09770	1.09496
0.14870	0.99292
-0.18282	0.12566
0.07220	0.55929
0.65874	-0.48652
0.68424	-0.53754
-0.08081	-0.43551
-0.48884	0.04914
-0.18282	0.55929
0.27621	0.63582
0.42922	0.30422
0.32721	0.10015
0.07220	0.15117
0.07220	0.12566
-0.02981	-0.63957
0.07220	0.10015
0.19971	0.20219
0.42922	0.25320
0.35272	0.27871
0.12320	0.35523
0.17421	0.38074
-0.31033	0.63582
0.32721	0.27871
0.53123	-0.15492
0.02119	-0.35899
-0.31033	0.20219
-0.10631	0.12566
0.07220	0.10015
0.48022	0.02363
0.32721	0.15117
0.09770	-0.07840
-0.08081	-0.10391
-0.10631	0.45726
0.17421	0.66132
-0.08081	0.73785
0.25071	0.40625
1.88281	-0.48652
0.50573	0.17668
-0.31033	0.32972
-0.23382	-0.18043
-0.18282	-0.12942
0.30171	0.10015
-0.13181	0.15117
-0.15732	0.17668
0.19971	-0.00188
0.17421	-0.00188
0.12320	0.04914
0.53123	0.15117
-0.13181	0.27871
0.19971	0.40625
0.19971	0.27871
0.09770	0.10015
0.09770	0.12566
0.19971	-0.05289
0.17421	-0.10391
0.35272	0.27871
0.50573	0.20219
0.17421	0.04914
-0.05531	0.63582
0.12320	0.83988
0.22521	0.20219
-0.51434	-0.28246
0.09770	-0.69059
0.22521	-0.00188
0.02119	-0.33348
0.37822	-0.46102
0.12320	0.30422
0.04670	0.91640
0.09770	0.35523
0.42922	0.10015
0.42922	0.71234
-0.13181	1.04394
0.07220	0.02363
-0.08081	-1.02219
0.12320	-0.53754
0.14870	-0.02739
0.45472	0.71234
-0.02981	0.89089
0.42922	0.78886
0.22521	0.45726
0.14870	0.22769
0.07220	0.20219
-0.02981	-0.63957
-0.28482	-2.55265
-0.28482	-1.30277
0.30171	0.63582
0.40372	1.19699
0.30171	1.24800
0.40372	1.06945
0.58223	0.68683
0.12320	-0.05289
-0.53984	0.30422
-0.56534	0.10015
0.17421	-0.25695
1.32178	-0.35899
0.32721	-0.05289
0.02119	0.38074
0.12320	0.43176
0.27621	0.53379
-0.18282	0.17668
0.12320	-0.10391
-0.02981	-0.56305
0.27621	-0.33348
-0.00431	0.38074
0.02119	0.53379
-0.13181	0.78886
-0.31033	0.04914
0.50573	0.04914
0.88825	0.15117
0.12320	0.10015
-0.10631	-0.38449
-0.05531	-0.00188
0.09770	-0.25695
0.22521	0.15117
-0.05531	0.71234
-0.20832	0.68683
0.35272	0.38074
0.53123	0.20219
0.32721	0.07465
0.07220	-0.20594
0.19971	-0.38449
0.07220	-0.20594
-0.18282	0.27871
-0.79486	0.12566
0.37822	0.61031
0.58223	0.53379
-0.25932	-0.33348
0.04670	-0.18043
0.30171	0.04914
0.86275	0.30422
0.35272	0.53379
-0.10631	0.35523
0.04670	0.20219
0.58223	0.07465
-0.08081	-0.23145
-0.28482	-0.74160
-0.15732	-0.15492
0.37822	0.61031
0.35272	0.63582
0.19971	0.50828
0.17421	0.50828
0.07220	-0.10391
0.12320	-0.00188
-0.20832	-0.07840
-0.08081	0.12566
0.53123	0.10015
0.48022	0.12566
0.27621	0.53379
0.09770	0.30422
-0.02981	0.20219
0.19971	0.15117
0.14870	-0.18043
-0.02981	0.22769
-0.28482	0.04914
-0.00431	-0.10391
0.45472	-0.23145
0.40372	-0.07840
0.12320	0.40625
0.09770	0.81437
0.30171	0.66132
0.60773	0.30422
-0.00431	-0.56305
-0.18282	-1.09871
-0.48884	-1.53234
-0.10631	0.30422
0.40372	1.45206
0.76074	1.40105
0.04670	1.19699
-0.15732	0.68683
0.27621	0.02363
0.93925	-0.23145
0.02119	-0.43551
-0.28482	-0.46102
-0.33583	-0.05289
0.09770	0.35523
0.37822	0.07465
0.12320	0.20219
0.17421	-0.33348
0.17421	-0.05289
0.37822	0.45726
0.27621	0.58480
0.27621	0.40625
0.42922	0.02363
-0.02981	-0.20594
-0.08081	-0.56305
-0.28482	-0.33348
0.04670	0.50828
0.27621	0.83988
0.86275	0.96742
0.07220	0.61031
0.02119	0.50828
0.02119	-0.41000
-0.10631	-0.56305
-0.02981	-0.30797
0.17421	-0.15492
-0.05531	0.45726
0.37822	0.78886
0.73524	0.83988
0.32721	0.30422
-0.38683	0.22769
-0.48884	-0.20594
-0.23382	-0.71609
0.19971	-1.09871
0.17421	-0.02739
0.63323	0.15117
0.37822	0.73785
0.14870	0.71234
0.35272	0.32972
0.19971	-0.15492
0.09770	-0.28246
-0.23382	0.45726
0.40372	0.86539
0.30171	0.25320
-0.20832	-0.30797
-0.33583	0.04914
-0.18282	-0.02739
0.68424	-0.41000
0.42922	0.17668
-0.00431	0.38074
0.04670	0.96742
0.22521	-0.15492
0.32721	-0.12942
0.25071	0.35523
-0.18282	-0.25695
-0.15732	-0.51203
0.07220	0.04914
0.17421	0.61031
0.19971	0.83988
0.37822	0.78886
0.25071	0.17668
0.07220	-0.76711
0.12320	-0.43551
-0.02981	0.35523
0.30171	0.50828
0.19971	0.73785
-0.18282	0.45726
0.22521	0.10015
0.76074	-0.79262
0.60773	-0.56305
-0.13181	0.25320
-0.59084	0.66132
-0.38683	0.61031
0.50573	0.17668
0.14870	-0.05289
-0.20832	0.17668
0.45472	0.40625
0.42922	0.04914
0.60773	-0.48652
0.27621	0.27871
-0.02981	0.22769
-0.00431	0.55929
-0.08081	0.45726
0.14870	0.04914
0.02119	0.27871
0.22521	-0.56305
0.76074	-0.89465
0.68424	-0.00188
0.09770	0.78886
-0.28482	0.86539
-0.20832	0.53379
0.12320	0.50828
0.12320	0.45726
0.14870	0.20219
0.58223	-0.38449
0.32721	-0.84363
-0.23382	-0.23145
-0.02981	-0.43551
0.04670	-0.10391
0.14870	0.76336
0.22521	0.94191
0.12320	0.58480
0.37822	0.53379
0.19971	0.27871
-0.23382	0.15117
0.17421	-0.02739
-0.02981	-0.15492
-0.15732	-0.28246
0.58223	0.12566
0.45472	-0.10391
0.63323	0.04914
0.14870	0.38074
-0.31033	0.40625
-0.31033	-0.86914
-0.31033	-0.76711
-0.15732	0.38074
0.22521	-0.18043
0.58223	0.48277
0.65874	1.60511
0.40372	1.37554
0.17421	0.86539
0.04670	0.20219
0.50573	-0.53754
0.45472	-0.51203
-0.46334	-0.63957
-0.56534	-0.81812
0.19971	0.02363
0.58223	0.96742
0.32721	0.73785
-0.13181	-0.07840
-0.10631	-0.00188
-0.00431	0.25320
0.25071	0.27871
0.14870	0.27871
0.27621	0.15117
0.02119	-0.53754
0.19971	-0.46102
0.17421	0.38074
-0.10631	0.15117
0.50573	-0.12942
0.63323	0.45726
0.14870	0.96742
0.14870	0.35523
0.09770	0.27871
-0.28482	0.22769
-0.61635	0.53379
-0.59084	0.83988
1.01576	-0.25695
0.65874	-0.89465
-0.18282	-0.23145
-0.15732	-0.94566
0.02119	-0.25695
0.42922	0.76336
0.42922	0.86539
0.27621	0.66132
0.09770	0.58480
0.37822	0.22769
0.27621	0.15117
-0.05531	0.22769
-0.05531	-0.38449
-0.00431	-1.53234
0.17421	-1.07320
0.09770	0.61031
0.37822	1.01843
0.27621	0.91640
-0.36133	0.83988
0.53123	0.27871
0.96476	0.55929
-0.13181	0.38074
-0.36133	-0.10391
0.22521	-0.20594
0.22521	-0.18043
0.17421	-0.10391
0.22521	-0.23145
-0.00431	-0.12942
-0.25932	-0.00188
-0.02981	0.20219
0.12320	0.22769
0.35272	0.20219
0.37822	0.32972
0.55673	0.55929
0.48022	0.43176
0.32721	0.38074
-0.05531	0.48277
-0.28482	0.15117
-0.23382	-0.00188
0.17421	-0.30797
0.22521	-0.58856
-0.33583	-0.05289
0.37822	0.38074
0.53123	0.66132
0.30171	0.50828
0.22521	0.48277
-0.02981	0.32972
0.25071	-0.12942
-0.10631	-1.14973
-0.46334	-1.09871
-0.00431	0.45726
0.37822	1.37554
0.35272	0.61031
0.25071	0.04914
0.27621	-0.25695
0.14870	-0.25695
0.12320	0.61031
-0.15732	0.55929
0.30171	0.53379
0.50573	0.53379
0.09770	0.22769
0.68424	-0.18043
0.25071	-0.89465
-0.15732	-0.05289
-0.38683	0.50828
-0.05531	-0.12942
-0.13181	-0.28246
-0.08081	-0.23145
0.22521	0.35523
0.40372	0.43176
0.50573	0.63582
0.32721	0.61031
0.30171	0.38074
0.48022	0.55929
0.50573	0.20219
0.02119	-0.25695
-0.53984	-1.30277
-0.02981	-0.56305
0.17421	0.04914
-0.23382	0.35523
0.12320	0.96742
0.12320	0.27871
0.30171	0.55929
0.50573	0.94191
0.30171	0.43176
-0.02981	0.63582
0.02119	0.12566
-0.02981	0.04914
-0.08081	-1.88945
0.07220	-1.27726
0.17421	0.55929
0.40372	0.68683
0.48022	0.83988
0.30171	0.78886
0.37822	0.32972
0.30171	0.02363
-0.25932	0.02363
-0.46334	0.40625
-0.59084	-0.66508
0.55673	0.02363
0.73524	-0.02739
0.50573	-0.15492
-0.13181	0.76336
0.07220	0.76336
0.17421	0.68683
0.27621	0.12566
0.37822	0.07465
-0.20832	-0.12942
-0.31033	-0.30797
0.09770	-0.53754
0.09770	-0.86914
0.09770	0.45726
0.17421	0.91640
0.63323	0.76336
0.50573	0.71234
-0.20832	0.68683
-0.08081	0.35523
0.37822	-0.33348
0.88825	-0.99668
-0.08081	-0.89465
-0.02981	0.35523
0.04670	0.61031
0.07220	0.55929
0.12320	0.68683
0.17421	0.45726
-0.00431	0.25320
-0.08081	-0.33348
-0.15732	-0.74160
-0.00431	-0.15492
0.53123	0.27871
0.48022	0.02363
0.19971	0.22769
0.27621	0.50828
0.25071	0.35523
-0.02981	0.32972
0.27621	0.48277
0.53123	0.50828
0.02119	0.30422
-0.10631	-0.66508
-0.05531	-0.63957
0.37822	-0.05289
0.30171	0.58480
0.17421	0.66132
-0.10631	0.45726
-0.10631	0.40625
-0.08081	0.07465
-0.15732	-0.61406
0.32721	-0.02739
0.30171	0.04914
-0.20832	0.10015
0.58223	0.15117
0.68424	0.55929
0.17421	0.45726
0.37822	0.07465
0.37822	-0.07840
0.09770	0.27871
-0.00431	-0.00188
-0.18282	0.22769
-0.13181	0.15117
0.19971	0.17668
0.19971	0.20219
0.25071	0.30422
0.02119	0.30422
0.17421	0.22769
0.12320	0.07465
0.09770	-0.20594
0.07220	-0.05289
0.04670	-0.35899
-0.00431	-0.02739
0.09770	0.50828
0.48022	0.55929
0.53123	0.50828
0.14870	0.35523
-0.25932	-0.20594
0.27621	-0.00188
0.55673	-0.41000
-0.08081	0.27871
-0.23382	0.63582
-0.13181	0.25320
0.22521	0.10015
0.30171	0.17668
0.32721	0.32972
0.32721	0.15117
-0.15732	-0.05289
-0.02981	0.25320
0.48022	0.45726
0.12320	-0.46102
0.14870	-0.48652
0.02119	0.17668
0.09770	0.55929
0.19971	0.50828
0.02119	0.25320
-0.13181	0.04914
0.04670	0.32972
0.14870	0.53379
0.25071	0.35523
0.48022	0.20219
0.25071	-0.20594
-0.41233	-0.18043
0.22521	-0.71609
1.09226	-0.35899
0.48022	-0.10391
-0.15732	0.53379
-0.15732	1.14597
0.17421	1.17148
0.02119	0.12566
-0.59084	0.04914
0.12320	-0.69059
0.12320	-0.63957
-0.31033	-0.23145
-0.05531	0.40625
0.48022	0.55929
0.60773	0.40625
0.83725	0.61031
0.81175	0.55929
0.09770	0.17668
-0.23382	-0.25695
-0.31033	-0.38449
-0.51434	-0.05289
0.22521	0.48277
0.60773	0.50828
0.17421	0.27871
0.12320	-0.53754
0.14870	-0.30797
0.40372	0.30422
-0.15732	0.02363
0.14870	0.22769
0.14870	0.38074
-0.08081	0.43176
0.07220	0.25320
0.35272	0.02363
0.40372	0.27871
0.27621	0.38074
-0.00431	0.35523
-0.02981	-0.30797
0.27621	0.02363
0.27621	0.17668
0.04670	0.66132
0.37822	-0.43551
-0.02981	-1.58336
-0.36133	-1.53234
-0.51434	0.40625
0.60773	1.96222
0.63323	2.06425
0.14870	1.32453
-0.00431	0.58480
0.04670	0.17668
0.04670	-0.51203
0.25071	-0.66508
0.02119	0.10015
0.27621	-0.71609
0.42922	-0.63957
0.07220	0.40625
-0.10631	0.30422
0.19971	0.27871
0.27621	0.15117
0.22521	0.35523
0.12320	0.40625
0.02119	0.12566
0.32721	0.07465
-0.00431	0.12566
-0.25932	-0.20594
0.09770	-0.10391
0.55673	0.20219
0.60773	0.68683
0.09770	0.53379
0.04670	0.43176
0.22521	0.04914
0.04670	0.12566
-0.15732	0.38074
-0.18282	-0.00188
0.02119	-0.41000
0.37822	-0.97117
0.32721	-0.05289
0.25071	0.83988
0.37822	0.30422
0.12320	0.12566
0.02119	0.45726
0.04670	0.94191
0.07220	0.58480
0.32721	0.04914
0.07220	-0.15492
0.40372	0.35523
0.42922	0.10015
0.37822	0.27871
-0.18282	-0.35899
-0.38683	-0.48652
-0.18282	0.07465
0.14870	-0.07840
0.58223	-0.15492
0.42922	-0.12942
-0.08081	-0.15492
-0.00431	0.15117
-0.00431	0.63582
0.25071	0.76336
0.12320	0.58480
-0.10631	0.30422
-0.18282	0.35523
0.30171	-0.07840
0.48022	0.32972
0.22521	0.15117
0.07220	-0.15492
0.32721	-0.20594
0.02119	-0.33348
-0.00431	0.25320
0.17421	0.94191
0.17421	0.55929
0.25071	-0.00188
0.04670	-0.53754
-0.25932	-1.20074
0.27621	0.22769
0.60773	0.96742
0.02119	1.01843
0.40372	0.50828
0.30171	-0.07840
0.07220	0.10015
0.09770	0.55929
-0.08081	-0.46102
-0.02981	-1.12422
-0.00431	0.38074
0.25071	0.94191
0.25071	0.55929
-0.02981	0.68683
0.04670	0.02363
-0.20832	-0.66508
0.02119	-0.28246
1.04126	0.38074
0.99026	0.58480
-0.08081	0.58480
-0.18282	-0.12942
-0.18282	0.04914
-0.25932	0.10015
-0.69285	0.12566
0.30171	0.22769
0.73524	0.20219
0.40372	-0.15492
-0.02981	0.12566
-0.02981	0.25320
0.02119	0.10015
0.40372	-0.00188
0.40372	0.07465
0.14870	0.32972
-0.02981	0.25320
-0.02981	-0.05289
0.45472	-0.07840
0.12320	0.45726
-0.18282	0.10015
-0.00431	0.25320
0.35272	0.43176
0.32721	0.04914
0.09770	-0.00188
-0.08081	0.04914
0.12320	0.25320
0.04670	-0.02739
0.14870	0.04914
0.25071	0.40625
0.12320	0.25320
0.27621	0.27871
0.19971	0.07465
0.14870	-0.79262
0.58223	-0.56305
0.09770	0.40625
-0.36133	0.63582
-0.10631	0.73785
0.22521	0.40625
0.40372	0.02363
0.35272	0.35523
0.22521	0.27871
-0.28482	0.20219
0.09770	-0.05289
0.40372	0.04914
0.12320	-0.18043
-0.02981	-0.56305
0.09770	-0.12942
0.19971	0.30422
1.16877	0.45726
0.27621	0.30422
-0.00431	0.20219
-0.46334	-0.05289
-0.25932	0.15117
0.09770	0.38074
-0.31033	0.12566
0.37822	0.22769
0.83725	0.45726
0.17421	0.35523
0.07220	0.45726
0.14870	-0.00188
-0.18282	-0.43551
-0.33583	-0.43551
0.30171	0.25320
0.40372	0.55929
0.40372	0.91640
0.07220	0.73785
0.14870	-0.61406
0.04670	-1.12422
-0.13181	-0.79262
0.14870	0.15117
0.35272	1.01843
0.04670	1.06945
0.04670	0.86539
0.12320	0.53379
0.02119	0.68683
0.07220	0.02363
0.40372	-0.61406
0.42922	-0.23145
0.19971	0.04914
-0.28482	-0.86914
0.04670	-0.58856
0.37822	0.55929
0.25071	0.91640
0.12320	0.45726
-0.08081	-0.46102
0.02119	-0.48652
0.30171	0.40625
0.19971	0.81437
-0.02981	0.81437
0.25071	0.61031
0.22521	0.20219
-0.02981	-0.25695
-0.08081	-0.25695
0.17421	-0.15492
0.14870	0.27871
1.06676	0.58480
0.76074	0.38074
-0.10631	-0.38449
-0.41233	-0.41000
-0.43783	-0.46102
-0.05531	-0.00188
0.09770	0.81437
0.22521	0.45726
0.22521	0.20219
0.48022	0.22769
0.04670	0.04914
-0.05531	-0.12942
0.04670	0.15117
0.40372	-0.18043
0.14870	0.45726
0.07220	0.50828
0.32721	0.30422
0.30171	0.86539
0.48022	0.83988
0.37822	-0.23145
-0.10631	-0.74160
-0.28482	-0.86914
0.04670	0.04914
0.45472	0.38074
-0.13181	0.20219
-0.10631	0.17668
-0.05531	0.32972
0.02119	0.35523
0.17421	0.40625
0.12320	0.43176
0.04670	-0.10391
0.63323	-0.23145
0.30171	0.15117
0.17421	0.30422
-0.13181	-0.66508
0.04670	-1.04770
0.07220	0.68683
0.14870	1.12046
0.25071	0.86539
0.09770	0.63582
0.02119	0.40625
0.27621	-0.02739
0.07220	-0.05289
-0.25932	0.04914
0.04670	-0.07840
0.65874	-0.00188
0.22521	-0.10391
0.37822	-0.35899
0.58223	0.02363
-0.13181	0.35523
-0.38683	0.15117
-0.02981	0.32972
-0.08081	0.10015
0.14870	-0.05289
0.02119	0.22769
-0.10631	0.22769
0.07220	0.40625
0.17421	0.40625
0.09770	0.45726
0.30171	-0.15492
0.50573	-0.48652
0.88825	0.17668
0.55673	0.38074
0.12320	-0.05289
-0.00431	0.50828
-0.08081	0.55929
-0.23382	0.02363
0.25071	0.02363
0.30171	0.32972
-0.08081	-0.00188
-0.02981	-0.38449
-0.05531	0.12566
-0.13181	0.20219
0.19971	0.17668
0.83725	0.40625
0.17421	-0.02739
-0.13181	-0.66508
0.09770	-0.63957
0.02119	0.86539
0.32721	0.73785
0.37822	-0.63957
0.35272	-0.07840
0.09770	0.91640
-0.15732	0.53379
-0.18282	0.04914
-0.18282	0.15117
-0.05531	0.27871
0.12320	0.48277
0.35272	0.25320
0.40372	-0.00188
0.32721	-0.18043
0.42922	-0.23145
0.42922	0.10015
-0.00431	0.22769
-0.02981	0.02363
0.09770	-0.07840
-0.05531	0.35523
0.19971	0.73785
0.17421	-0.07840
0.12320	-0.41000
0.27621	-0.56305
0.25071	-0.15492
0.07220	0.63582
0.27621	0.94191
-0.02981	0.40625
-0.64185	0.30422
0.60773	0.45726
0.40372	0.20219
-0.08081	0.38074
-0.00431	-0.05289
0.09770	-0.28246
0.04670	-0.48652
0.30171	0.07465
0.55673	0.20219
-0.08081	-0.35899
-0.31033	-0.28246
-0.02981	0.02363
0.14870	0.38074
0.32721	0.50828
0.50573	0.76336
0.35272	0.81437
-0.08081	0.71234
0.19971	0.55929
0.73524	-0.05289
-0.02981	-1.43031
-0.38683	-1.30277
-0.33583	-0.92016
-0.05531	0.38074
0.35272	1.12046
0.50573	1.04394
0.30171	0.89089
-0.15732	0.61031
0.14870	0.38074
0.65874	-0.10391
0.04670	-0.38449
-0.28482	0.17668
-0.15732	-0.15492
0.55673	-0.00188
0.45472	-0.15492
-0.05531	-0.30797
0.32721	0.02363
0.68424	-0.46102
0.12320	-0.10391
-0.05531	0.94191
-0.10631	0.96742
-0.23382	0.81437
-0.25932	0.17668
-0.18282	0.25320
-0.08081	-0.05289
0.17421	-0.07840
0.19971	0.58480
1.11776	-0.25695
0.73524	-0.18043
-0.08081	-0.05289
-0.20832	0.07465
0.14870	-0.02739
0.30171	0.35523
0.37822	0.71234
0.14870	0.68683
0.02119	0.04914
-0.28482	-0.99668
-0.00431	-0.41000
0.17421	0.43176
-0.15732	0.68683
-0.02981	0.55929
0.37822	0.20219
0.30171	-0.23145
0.12320	-0.61406
0.22521	0.40625
0.32721	0.76336
0.19971	0.76336
0.17421	0.66132
0.02119	-0.15492
0.35272	-1.07320
0.17421	-0.48652
-0.08081	0.27871
-0.25932	0.55929
0.07220	0.66132
0.48022	0.66132
0.40372	0.15117
0.04670	0.04914
0.22521	0.15117
0.02119	-0.07840
0.12320	-0.00188
0.14870	-0.05289
0.14870	0.10015
-0.08081	0.04914
0.02119	0.04914
0.07220	0.12566
0.17421	0.20219
0.19971	0.25320
0.42922	0.25320
0.25071	0.32972
0.19971	0.12566
0.27621	-0.00188
0.07220	0.07465
-0.13181	0.15117
-0.13181	0.27871
0.19971	0.25320
-0.05531	0.22769
0.30171	0.12566
0.32721	0.35523
0.07220	0.35523
-0.15732	0.20219
0.58223	-0.43551
0.22521	-1.04770
-0.20832	-0.10391
-0.61635	0.45726
0.17421	0.83988
0.73524	0.89089
0.63323	0.40625
0.32721	0.17668
0.02119	-0.02739
-0.25932	-0.81812
-0.18282	-0.61406
0.32721	0.27871
0.53123	0.76336
0.09770	0.66132
-0.02981	0.48277
0.07220	-0.46102
-0.08081	-0.43551
-0.08081	0.48277
0.04670	0.61031
0.07220	0.35523
0.22521	0.20219
0.32721	-0.00188
0.25071	-0.18043
0.04670	-0.20594
0.17421	0.04914
0.09770	-0.33348
0.32721	0.10015
0.58223	0.71234
0.35272	0.61031
-0.02981	0.55929
0.22521	-0.41000
0.68424	0.25320
-0.38683	-0.05289
