0.14870	0.30422
0.19971	0.22769
0.27621	0.15117
0.22521	0.32972
0.22521	0.17668
0.09770	0.17668
0.12320	0.10015
0.02119	-0.02739
-0.05531	-0.02739
0.09770	0.10015
0.35272	0.17668
0.22521	0.17668
0.25071	0.22769
0.17421	0.27871
0.14870	0.25320
0.12320	0.15117
0.02119	0.10015
-0.08081	-0.02739
-0.08081	-0.07840
0.14870	0.12566
0.30171	0.20219
0.30171	0.22769
0.27621	0.30422
0.19971	0.43176
0.14870	0.12566
0.14870	0.07465
0.14870	0.07465
0.02119	-0.10391
-0.08081	-0.00188
0.09770	0.07465
0.35272	0.25320
0.32721	0.27871
0.30171	0.25320
0.22521	0.25320
0.25071	0.20219
0.07220	0.15117
-0.08081	0.17668
-0.13181	0.02363
-0.02981	-0.05289
0.17421	-0.02739
0.25071	0.10015
0.19971	0.15117
0.25071	0.25320
0.37822	0.25320
0.32721	0.15117
0.09770	0.07465
-0.00431	0.15117
-0.08081	0.10015
0.02119	-0.02739
0.19971	0.15117
0.30171	0.15117
0.22521	0.27871
0.27621	0.35523
0.25071	0.30422
0.25071	0.12566
0.12320	-0.02739
-0.00431	-0.00188
-0.00431	-0.05289
-0.05531	-0.00188
0.12320	0.12566
0.30171	0.15117
0.32721	0.17668
0.32721	0.22769
0.12320	0.25320
0.17421	0.27871
0.12320	0.20219
0.07220	0.12566
0.02119	-0.05289
-0.10631	0.04914
0.07220	0.20219
0.22521	0.25320
0.25071	0.22769
0.27621	0.27871
0.25071	0.20219
0.14870	0.15117
0.17421	0.10015
0.09770	0.02363
0.04670	0.02363
-0.00431	0.04914
0.07220	0.04914
0.12320	0.10015
0.17421	0.25320
0.17421	0.30422
0.17421	0.35523
0.22521	0.27871
0.19971	0.15117
0.12320	0.12566
0.02119	-0.05289
0.04670	-0.10391
0.02119	0.12566
0.19971	0.25320
0.17421	0.32972
0.32721	0.27871
0.22521	0.20219
0.19971	0.10015
0.17421	0.10015
0.04670	0.07465
-0.00431	0.02363
-0.00431	0.07465
0.12320	0.25320
0.27621	0.27871
0.09770	0.12566
0.17421	0.10015
0.17421	0.15117
0.19971	0.07465
0.12320	0.10015
0.04670	0.04914
0.07220	0.02363
0.07220	0.02363
0.25071	0.22769
0.22521	0.25320
0.27621	0.35523
0.25071	0.32972
0.22521	0.43176
0.09770	0.27871
0.09770	0.04914
0.07220	-0.02739
0.02119	-0.12942
-0.00431	-0.10391
-0.00431	0.04914
0.22521	0.20219
0.22521	0.22769
0.30171	0.22769
0.32721	0.27871
0.17421	0.20219
0.17421	0.07465
0.17421	0.04914
-0.13181	-0.05289
-0.05531	-0.00188
0.14870	0.12566
0.27621	-0.00188
0.19971	0.07465
0.19971	0.25320
0.17421	0.27871
0.17421	0.30422
0.19971	0.32972
0.14870	0.22769
0.07220	0.17668
-0.00431	0.12566
0.12320	0.04914
0.25071	-0.00188
0.25071	-0.05289
0.22521	0.25320
0.17421	0.32972
0.02119	0.15117
0.07220	0.04914
0.17421	-0.07840
0.12320	0.07465
0.09770	-0.05289
0.17421	0.20219
0.42922	0.20219
0.19971	0.35523
0.17421	0.50828
0.22521	0.35523
0.07220	0.20219
-0.15732	-0.20594
0.09770	0.02363
-0.00431	-0.25695
0.09770	-0.00188
0.14870	-0.12942
0.12320	-0.18043
0.30171	0.50828
0.32721	0.58480
0.14870	0.48277
0.25071	0.83988
0.12320	0.71234
0.27621	0.50828
0.04670	-0.30797
-0.08081	-0.89465
-0.02981	-1.30277
0.12320	-0.28246
0.30171	0.55929
0.30171	0.91640
0.22521	0.78886
0.07220	0.35523
0.04670	0.35523
0.22521	0.45726
0.27621	0.17668
0.02119	-0.18043
0.09770	0.02363
-0.05531	-0.25695
0.25071	-0.10391
0.12320	-0.07840
0.32721	-0.15492
-0.10631	0.04914
-0.10631	0.25320
0.22521	0.99292
0.30171	1.14597
0.25071	0.55929
-0.13181	-1.25176
0.02119	-2.32308
0.42922	-0.43551
0.27621	1.22250
0.58223	1.78367
0.53123	1.52859
-0.08081	-0.23145
-0.43783	-0.56305
-0.13181	-0.46102
-0.05531	0.35523
0.32721	0.66132
0.25071	1.17148
0.14870	0.68683
0.53123	0.43176
0.22521	-0.05289
0.07220	-0.18043
-0.20832	-0.58856
-0.20832	-1.20074
0.04670	-0.74160
0.42922	-0.02739
0.53123	0.15117
0.30171	0.25320
0.07220	0.35523
0.50573	-0.10391
0.14870	0.55929
-0.36133	1.55410
0.14870	1.42656
-0.08081	-1.25176
-0.18282	-1.65988
-0.18282	-0.28246
0.07220	0.99292
0.50573	1.19699
0.83725	1.17148
0.73524	1.80917
0.32721	1.24800
-0.20832	0.96742
-0.33583	-0.53754
0.12320	-1.43031
0.48022	-1.83844
0.27621	-2.65468
-0.41233	-2.45062
-0.08081	-0.69059
0.12320	1.47757
0.40372	2.52339
0.37822	2.95702
0.91375	1.88570
0.14870	-1.37929
-0.38683	-1.35379
-0.51434	-0.18043
0.19971	0.66132
0.81175	1.57960
0.19971	0.53379
0.14870	-0.76711
-0.10631	-0.86914
-0.08081	0.43176
0.27621	1.45206
0.02119	2.06425
0.99026	1.22250
0.09770	-2.27207
-0.53984	-4.56776
-0.28482	-3.21585
0.35272	-0.05289
0.07220	2.49788
0.22521	1.22250
0.55673	0.38074
0.07220	0.83988
0.37822	1.88570
-0.13181	1.57960
-0.05531	1.06945
0.22521	-0.79262
0.19971	-1.22625
-0.20832	0.63582
0.07220	2.06425
0.42922	2.49788
0.35272	-0.61406
0.22521	-6.48085
-0.00431	-3.13933
0.12320	-0.00188
0.32721	1.83468
0.27621	2.98253
0.50573	2.37034
0.53123	0.73785
0.32721	1.45206
-0.61635	0.35523
-0.66735	-2.09351
-0.69285	-4.26167
-0.05531	-0.84363
0.50573	2.42136
0.96476	1.42656
0.32721	1.27351
-0.05531	0.94191
0.02119	0.40625
0.50573	1.19699
0.68424	0.76336
-0.05531	-2.27207
-0.23382	-2.39961
0.32721	-0.61406
0.55673	0.20219
0.55673	0.68683
-0.25932	0.35523
-0.66735	-0.00188
-0.15732	0.35523
0.02119	1.32453
0.14870	0.76336
0.73524	0.38074
0.99026	1.06945
-0.00431	1.50308
0.07220	1.22250
-0.23382	-1.86394
-0.28482	-1.96597
0.48022	-0.23145
0.40372	-0.00188
0.17421	0.76336
-0.02981	1.78367
-0.02981	1.17148
-0.23382	-0.35899
-0.08081	-3.57296
0.55673	-1.48133
-0.10631	0.38074
-0.28482	-1.14973
0.02119	1.35003
0.30171	3.00804
0.40372	2.49788
0.25071	0.96742
0.73524	0.02363
0.42922	-0.07840
0.37822	-0.53754
0.09770	0.15117
-0.10631	0.43176
-0.08081	-1.17523
-0.18282	-0.76711
-0.13181	0.22769
0.04670	-0.07840
0.22521	0.10015
0.53123	-1.02219
0.22521	0.20219
0.48022	0.89089
-0.05531	0.71234
-0.13181	0.81437
-0.48884	-0.12942
-0.08081	-0.35899
0.07220	-0.15492
0.45472	0.83988
0.42922	1.12046
0.37822	0.96742
0.30171	0.15117
0.32721	-1.30277
-0.05531	-0.23145
0.02119	0.78886
0.17421	0.61031
-0.08081	0.73785
0.17421	-0.20594
0.37822	-2.47613
0.25071	-0.69059
-0.13181	-0.46102
-0.20832	0.89089
0.60773	1.80917
0.22521	1.98773
-0.00431	0.50828
0.02119	-1.17523
-0.00431	-0.63957
0.14870	0.10015
0.09770	0.10015
-0.08081	0.38074
0.50573	0.99292
0.42922	0.22769
0.32721	0.10015
-0.13181	0.66132
0.37822	0.76336
0.32721	-0.71609
0.40372	-2.34859
-0.46334	-3.16484
-0.28482	-0.56305
0.19971	2.16628
0.65874	1.98773
0.50573	1.86019
-0.05531	1.80917
0.07220	1.12046
0.07220	-0.79262
0.12320	-0.94566
-0.28482	-1.02219
0.12320	-0.46102
0.37822	0.35523
0.27621	0.63582
0.35272	1.09496
0.30171	0.32972
0.25071	-0.05289
-0.08081	-0.28246
-0.05531	0.22769
0.30171	-2.27207
-0.08081	-3.44542
-0.08081	-0.38449
0.19971	1.63062
0.37822	2.65093
0.35272	2.85499
0.55673	2.37034
0.37822	1.27351
-0.41233	-0.76711
-0.28482	-1.37929
-0.10631	-2.09351
0.22521	-1.68539
0.14870	-0.66508
0.53123	0.63582
0.76074	1.98773
0.60773	2.01323
-0.23382	-0.05289
-0.05531	-0.53754
-0.13181	-0.35899
-0.28482	-0.38449
-0.13181	-0.18043
0.02119	-0.10391
0.27621	0.25320
0.35272	0.30422
0.19971	0.53379
0.12320	1.24800
0.83725	-0.00188
0.58223	-0.33348
0.07220	0.30422
-0.23382	-0.07840
-0.02981	-0.12942
0.12320	-0.02739
-0.08081	0.07465
-0.23382	0.48277
-0.10631	0.22769
0.14870	0.45726
0.02119	0.10015
0.27621	-0.86914
0.35272	-0.15492
0.27621	0.86539
0.42922	0.48277
0.14870	0.58480
0.40372	0.81437
0.27621	0.50828
0.32721	-0.56305
0.22521	-0.05289
0.19971	-1.22625
-0.13181	-1.17523
-0.13181	-0.71609
-0.28482	-0.02739
-0.08081	1.37554
0.25071	2.03874
0.48022	2.21730
0.45472	1.37554
0.09770	-0.07840
0.48022	-0.76711
0.22521	-0.05289
0.12320	-0.74160
-0.20832	-1.37929
-0.36133	-0.38449
0.25071	0.66132
0.50573	0.61031
-0.36133	-0.69059
0.04670	-2.65468
0.48022	-0.23145
0.12320	0.25320
0.27621	0.35523
0.09770	1.75816
0.19971	2.01323
0.12320	1.55410
0.09770	0.99292
-0.08081	0.32972
0.35272	-0.58856
0.42922	-1.25176
0.42922	0.07465
-0.25932	0.81437
0.40372	0.32972
0.68424	0.15117
-0.08081	-0.74160
-0.69285	-0.66508
0.02119	0.96742
0.25071	1.01843
-0.08081	-0.23145
0.07220	-1.65988
0.22521	-1.40480
0.63323	-0.81812
0.30171	-0.38449
0.25071	2.14077
-0.02981	2.16628
-0.08081	1.32453
0.12320	1.22250
-0.02981	0.99292
0.14870	0.43176
0.68424	-0.18043
0.55673	-0.25695
0.02119	-0.07840
-0.13181	-0.12942
-0.00431	-0.63957
-0.08081	-1.07320
-0.10631	-0.38449
-0.13181	-0.46102
0.25071	0.17668
0.22521	0.27871
0.07220	0.38074
0.35272	1.22250
0.50573	0.83988
0.53123	0.68683
0.12320	0.12566
-0.43783	-0.46102
-0.02981	-0.15492
0.14870	-0.28246
0.02119	-0.46102
0.37822	-0.81812
0.32721	-0.23145
0.09770	1.45206
0.02119	0.96742
0.32721	1.19699
0.14870	1.32453
0.02119	0.58480
-0.10631	-0.63957
-0.13181	-0.30797
0.19971	-0.41000
0.40372	-0.76711
0.19971	-0.18043
0.32721	-0.18043
0.40372	0.10015
0.09770	0.63582
0.04670	0.43176
0.07220	0.15117
0.04670	0.73785
-0.36133	0.20219
-0.10631	-1.09871
0.88825	-1.22625
0.73524	-0.07840
-0.15732	0.61031
-0.20832	0.94191
-0.20832	1.06945
0.37822	1.80917
0.35272	2.82948
0.32721	-1.04770
0.12320	-4.89936
-0.02981	-2.42511
-0.02981	0.89089
0.09770	1.98773
0.42922	1.88570
0.48022	1.80917
0.37822	0.91640
-0.28482	0.15117
-0.10631	-0.48652
-0.10631	-1.50683
0.14870	-1.30277
-0.18282	-0.94566
0.96476	0.17668
0.19971	1.06945
-0.13181	1.40105
0.09770	0.32972
0.35272	-0.38449
-0.13181	-0.74160
-0.15732	-1.27726
0.09770	-0.15492
0.02119	0.45726
0.09770	1.65613
0.35272	1.22250
0.35272	0.61031
0.42922	0.12566
-0.02981	-0.48652
-0.13181	-0.43551
0.27621	0.17668
0.35272	0.83988
0.04670	0.68683
0.09770	-0.18043
0.07220	-0.94566
0.12320	-0.51203
0.27621	-0.02739
-0.10631	0.45726
0.12320	0.68683
-0.23382	0.45726
-0.10631	0.48277
-0.13181	-0.25695
0.30171	-0.28246
0.55673	-0.71609
0.53123	-0.69059
0.37822	-0.35899
-0.05531	0.94191
0.09770	1.60511
0.17421	1.27351
0.14870	-0.05289
0.17421	0.27871
0.02119	0.63582
-0.10631	-0.23145
0.12320	-1.30277
-0.15732	-0.97117
0.17421	0.61031
0.27621	1.91120
0.48022	1.60511
0.45472	0.10015
0.27621	-2.06800
0.07220	-1.48133
-0.15732	0.15117
-0.13181	1.17148
-0.28482	0.20219
-0.05531	-0.35899
0.37822	0.17668
0.32721	0.45726
0.58223	0.76336
0.40372	1.04394
0.25071	1.65613
-0.20832	-0.25695
-0.00431	-1.17523
0.30171	-0.35899
0.02119	-0.86914
-0.02981	0.04914
0.22521	0.50828
-0.20832	0.40625
0.07220	0.71234
0.42922	0.94191
0.50573	-0.28246
0.37822	-0.28246
-0.00431	-0.15492
-0.23382	-0.30797
-0.23382	-0.71609
-0.15732	0.81437
0.12320	0.32972
0.32721	-0.94566
0.65874	0.50828
0.70974	1.22250
0.22521	1.14597
-0.15732	-0.43551
-0.02981	0.66132
-0.02981	0.30422
-0.08081	-0.33348
-0.02981	-0.25695
0.55673	0.55929
0.58223	1.75816
0.14870	-0.30797
-0.05531	-1.09871
0.02119	-1.35379
-0.33583	-2.14453
-0.13181	-0.97117
0.19971	0.66132
0.42922	1.37554
0.30171	1.98773
0.07220	1.32453
0.42922	0.81437
0.22521	1.24800
0.12320	0.38074
0.09770	-1.71090
0.04670	-1.12422
0.12320	-1.37929
-0.00431	-0.63957
-0.10631	1.14597
-0.05531	1.24800
0.14870	0.81437
0.53123	0.73785
0.70974	0.76336
0.35272	-0.12942
0.07220	-0.69059
-0.13181	-0.94566
-0.41233	-0.51203
-0.41233	0.40625
-0.05531	0.43176
0.60773	1.06945
0.45472	0.63582
0.50573	0.22769
0.09770	-1.37929
0.04670	-0.81812
0.04670	0.12566
0.07220	0.25320
0.30171	0.71234
-0.08081	1.09496
-0.05531	1.06945
0.37822	0.45726
0.42922	0.22769
0.27621	0.81437
0.14870	0.48277
0.07220	-0.12942
0.04670	-0.76711
0.02119	-1.96597
-0.02981	-0.02739
0.09770	0.71234
-0.02981	0.35523
-0.10631	0.89089
0.25071	0.71234
0.55673	-0.00188
0.22521	-2.65468
-0.05531	-1.45582
0.02119	0.89089
0.02119	1.91120
0.19971	1.91120
0.09770	1.32453
0.07220	0.10015
0.50573	0.12566
0.12320	0.25320
-0.02981	-0.15492
0.25071	0.43176
0.35272	-0.15492
0.07220	-0.51203
0.14870	-0.58856
0.14870	-0.66508
0.17421	-0.30797
0.12320	0.71234
0.02119	0.35523
0.07220	-0.35899
0.07220	-0.48652
0.07220	0.53379
0.27621	1.01843
0.25071	0.94191
0.40372	0.45726
0.53123	0.40625
-0.05531	0.53379
-0.20832	0.63582
0.04670	-0.38449
0.04670	-1.58336
-0.00431	-0.25695
0.42922	0.35523
0.48022	0.45726
0.37822	0.50828
0.09770	0.89089
-0.13181	0.66132
-0.08081	0.10015
0.07220	-1.04770
0.12320	-0.05289
0.12320	0.58480
0.32721	0.07465
0.35272	-0.35899
0.35272	0.17668
0.19971	0.40625
-0.08081	-0.18043
-0.00431	0.40625
0.07220	0.71234
0.14870	0.48277
0.19971	0.45726
0.07220	-0.00188
0.07220	0.38074
0.14870	0.04914
0.30171	-0.23145
0.27621	-0.25695
0.12320	-0.00188
0.32721	0.43176
0.37822	0.55929
-0.59084	0.27871
-0.43783	-0.00188
0.02119	-1.48133
0.70974	-1.17523
0.58223	-0.25695
0.25071	0.96742
0.17421	1.57960
0.04670	1.32453
-0.18282	1.32453
-0.15732	0.38074
-0.18282	-0.89465
0.07220	-0.41000
0.30171	0.50828
0.40372	0.40625
0.55673	0.38074
0.81175	-0.15492
0.12320	0.04914
-0.15732	-0.66508
-0.23382	-0.71609
0.02119	0.10015
-0.08081	-0.12942
-0.08081	0.04914
0.14870	0.78886
0.48022	0.96742
0.07220	0.83988
0.30171	0.76336
0.25071	0.53379
0.35272	0.12566
0.19971	-1.04770
-0.20832	-0.46102
-0.28482	-0.48652
-0.05531	-0.74160
0.32721	0.02363
0.32721	0.86539
0.40372	1.52859
0.35272	1.73265
0.04670	0.20219
0.25071	-0.84363
0.14870	-0.61406
0.07220	-0.15492
-0.13181	-0.61406
0.17421	0.25320
0.30171	1.04394
0.32721	0.78886
0.27621	0.40625
0.14870	0.71234
-0.20832	0.55929
-0.15732	0.12566
-0.00431	-1.27726
0.30171	-1.83844
0.35272	-1.09871
0.09770	0.58480
0.12320	1.37554
0.12320	1.17148
0.37822	0.96742
0.50573	-0.48652
0.22521	-0.51203
0.09770	0.30422
0.12320	0.71234
-0.02981	1.24800
0.02119	0.99292
-0.13181	0.27871
0.09770	-0.66508
0.60773	-0.97117
0.27621	-2.01699
0.12320	0.07465
0.30171	0.83988
0.07220	0.86539
-0.08081	0.76336
-0.20832	0.61031
0.07220	0.66132
0.32721	-0.58856
0.25071	-0.94566
0.07220	-1.71090
0.25071	0.38074
0.07220	1.29902
0.22521	1.45206
0.07220	1.06945
0.07220	0.89089
0.09770	0.43176
-0.08081	-0.12942
0.25071	-0.51203
0.17421	-1.30277
0.22521	-0.46102
0.19971	0.17668
0.22521	0.27871
0.27621	0.40625
0.30171	0.50828
0.07220	0.43176
0.02119	0.76336
0.19971	0.27871
0.04670	0.10015
-0.08081	-0.79262
0.14870	-1.30277
-0.00431	-0.46102
0.25071	0.76336
0.40372	1.47757
0.37822	1.47757
0.17421	0.96742
-0.18282	0.94191
-0.31033	1.12046
0.07220	-0.20594
0.19971	-4.00659
0.12320	-1.71090
0.22521	0.83988
0.42922	1.24800
0.40372	0.86539
0.22521	0.96742
0.27621	1.14597
0.07220	0.55929
-0.08081	-0.35899
-0.20832	-1.17523
0.35272	0.50828
0.35272	0.83988
0.02119	-0.23145
0.04670	-0.46102
0.04670	-0.71609
0.30171	-0.20594
0.27621	0.68683
0.22521	0.96742
0.12320	0.86539
0.09770	1.40105
0.07220	1.27351
-0.08081	-1.37929
0.09770	-3.62398
0.22521	-0.63957
0.25071	0.94191
0.19971	1.75816
0.14870	1.80917
0.09770	1.68163
-0.13181	-0.23145
0.30171	-1.14973
0.45472	-0.89465
0.12320	-0.15492
0.48022	-0.05289
0.27621	0.45726
-0.05531	0.58480
-0.13181	0.58480
0.12320	0.48277
-0.08081	-0.15492
-0.18282	0.04914
-0.13181	-0.35899
0.09770	-0.33348
0.53123	0.04914
0.58223	0.07465
0.22521	0.30422
-0.20832	0.53379
0.12320	0.25320
0.17421	0.91640
0.02119	0.30422
0.19971	-0.86914
0.12320	-0.41000
0.32721	0.07465
0.02119	0.10015
-0.00431	0.96742
0.17421	-0.25695
0.14870	0.22769
0.40372	1.24800
0.09770	-0.10391
-0.08081	-1.04770
0.02119	-0.38449
0.35272	0.38074
0.02119	0.63582
0.09770	0.55929
0.17421	0.43176
0.40372	0.53379
0.35272	0.30422
0.32721	0.02363
0.09770	0.02363
-0.28482	-0.92016
-0.13181	-0.30797
-0.08081	0.27871
0.12320	0.32972
0.27621	0.32972
0.53123	0.17668
0.25071	0.78886
0.30171	0.55929
0.32721	-0.28246
0.12320	-1.30277
-0.15732	-0.89465
-0.31033	0.15117
-0.05531	1.12046
0.19971	0.86539
0.32721	0.76336
0.27621	0.76336
0.12320	0.53379
0.19971	0.27871
0.27621	-0.30797
0.27621	-0.69059
0.02119	-0.18043
-0.28482	0.25320
0.14870	0.66132
0.32721	-0.76711
0.32721	-1.81293
0.07220	-0.25695
0.19971	1.32453
0.12320	1.68163
0.07220	1.22250
-0.13181	0.61031
-0.18282	-0.53754
-0.02981	-0.86914
0.14870	0.10015
0.40372	0.76336
0.30171	0.68683
0.45472	-0.23145
0.27621	-0.38449
0.12320	-0.05289
0.09770	-0.43551
-0.18282	-0.61406
-0.10631	-0.18043
-0.10631	0.30422
-0.25932	0.55929
0.55673	0.96742
0.55673	0.73785
0.19971	0.61031
0.02119	-0.07840
0.35272	-0.23145
0.22521	0.17668
-0.05531	-0.53754
0.27621	0.40625
-0.00431	0.32972
-0.08081	0.22769
0.19971	0.48277
0.12320	0.45726
0.09770	0.04914
0.07220	0.20219
0.25071	0.25320
0.19971	-0.30797
0.12320	-1.96597
0.19971	-0.05289
0.17421	0.55929
-0.00431	0.43176
0.17421	0.35523
0.30171	0.45726
0.25071	0.50828
0.27621	0.66132
0.14870	0.89089
0.12320	0.55929
-0.08081	-0.15492
0.02119	-1.12422
0.07220	-0.74160
0.25071	0.17668
0.19971	-0.12942
-0.02981	0.55929
0.27621	0.99292
0.17421	0.10015
0.22521	-0.00188
0.07220	0.96742
0.04670	0.78886
-0.18282	-1.32828
-0.15732	-1.58336
0.12320	-0.15492
0.40372	0.83988
0.27621	1.27351
0.30171	1.24800
0.78624	0.73785
0.32721	-0.71609
0.04670	-1.43031
-0.23382	0.30422
-0.20832	0.96742
-0.20832	0.20219
0.27621	-0.00188
0.65874	0.66132
0.22521	0.91640
-0.08081	-0.05289
0.02119	-1.35379
0.09770	-1.99148
-0.02981	-0.86914
0.02119	1.29902
0.42922	1.98773
0.55673	1.35003
0.07220	0.53379
0.09770	0.35523
0.02119	0.02363
0.27621	0.35523
0.04670	0.02363
0.14870	-0.81812
0.09770	-0.20594
0.09770	1.17148
-0.15732	-0.48652
-0.20832	-1.27726
-0.25932	-1.20074
0.32721	-0.07840
0.65874	1.27351
0.63323	1.93671
0.37822	-0.20594
0.02119	-0.48652
-0.02981	0.99292
0.02119	0.04914
0.12320	0.30422
0.09770	0.61031
0.32721	0.32972
0.22521	0.99292
0.02119	0.45726
0.09770	-0.89465
0.17421	-0.86914
-0.00431	-0.71609
0.07220	-0.23145
-0.00431	0.45726
0.27621	0.68683
0.40372	0.30422
0.40372	-0.02739
0.19971	0.25320
0.14870	0.66132
-0.08081	0.32972
0.14870	0.15117
0.32721	-0.07840
0.17421	-0.56305
0.09770	0.10015
0.04670	0.38074
-0.13181	0.02363
0.25071	0.73785
0.09770	1.04394
0.22521	0.22769
0.40372	-0.41000
0.58223	-0.02739
0.19971	0.35523
0.17421	0.48277
-0.00431	0.76336
-0.13181	-0.25695
-0.10631	-1.73640
0.02119	-0.02739
-0.00431	0.10015
0.07220	1.12046
0.27621	0.76336
0.35272	-0.58856
0.40372	-0.28246
0.37822	0.04914
-0.08081	0.71234
-0.10631	0.86539
0.32721	0.53379
0.17421	0.89089
0.17421	0.45726
0.30171	-0.30797
0.12320	-1.48133
-0.10631	-0.56305
-0.02981	0.55929
0.07220	0.43176
0.37822	0.45726
0.32721	0.68683
0.17421	0.22769
0.09770	0.27871
0.09770	-0.48652
0.07220	-1.17523
0.19971	-0.28246
0.30171	0.96742
0.32721	0.78886
0.04670	0.63582
-0.08081	0.20219
0.04670	0.02363
-0.20832	-0.05289
0.32721	0.30422
0.40372	0.25320
0.04670	0.27871
0.07220	-0.97117
0.12320	-0.53754
0.35272	0.48277
0.19971	0.66132
0.30171	1.37554
0.22521	0.38074
0.12320	-0.00188
-0.28482	-0.41000
0.02119	0.17668
0.07220	0.53379
0.27621	-0.71609
0.45472	-1.12422
0.65874	0.48277
0.22521	1.01843
-0.02981	0.04914
-0.02981	-0.10391
-0.02981	0.58480
0.17421	0.96742
0.22521	0.89089
0.27621	-0.05289
0.04670	0.45726
0.22521	0.30422
0.45472	-1.04770
0.25071	-1.86394
-0.18282	-0.33348
0.09770	0.81437
-0.18282	0.38074
-0.18282	0.27871
-0.13181	0.35523
0.37822	0.61031
0.37822	0.99292
0.19971	0.40625
0.40372	-0.41000
0.22521	-0.41000
0.09770	-0.10391
0.22521	0.12566
-0.10631	0.15117
-0.05531	0.43176
0.17421	0.43176
-0.15732	-0.00188
0.40372	0.07465
0.40372	0.20219
0.14870	-0.05289
0.02119	-0.23145
0.02119	0.35523
0.22521	0.63582
0.27621	1.04394
0.32721	0.50828
0.12320	-0.20594
-0.33583	-1.58336
-0.28482	-2.01699
-0.00431	0.07465
0.40372	1.19699
0.53123	1.57960
0.58223	1.78367
0.30171	1.27351
-0.08081	-1.27726
-0.28482	-0.30797
0.07220	0.35523
0.09770	-0.41000
0.22521	-0.28246
0.35272	-0.12942
0.27621	-0.51203
0.07220	0.78886
-0.08081	1.63062
-0.02981	1.35003
0.14870	-0.79262
0.37822	-1.07320
-0.02981	-0.48652
0.04670	-1.40480
-0.10631	0.02363
0.19971	1.12046
0.37822	1.55410
0.40372	1.27351
-0.02981	0.96742
0.19971	1.06945
0.32721	-0.63957
-0.15732	-1.71090
-0.36133	-2.14453
-0.00431	-0.30797
0.19971	0.94191
0.48022	0.81437
0.60773	0.22769
0.50573	1.14597
0.12320	1.12046
0.17421	0.40625
-0.36133	-0.00188
-0.28482	0.10015
0.02119	-0.33348
0.04670	-1.07320
0.17421	0.22769
0.19971	0.48277
0.68424	0.17668
0.40372	0.04914
0.07220	0.22769
0.07220	0.81437
-0.15732	-0.05289
0.07220	0.55929
0.37822	-0.35899
-0.05531	-1.68539
0.09770	-1.09871
0.17421	0.10015
0.40372	1.37554
0.45472	1.68163
0.32721	1.50308
-0.13181	1.47757
-0.05531	0.55929
0.02119	-2.47613
0.07220	-1.45582
-0.02981	-0.35899
0.12320	1.09496
0.30171	1.12046
0.53123	0.68683
0.37822	-0.00188
0.02119	0.20219
0.02119	-0.10391
-0.05531	0.07465
0.19971	0.04914
0.12320	-0.10391
-0.08081	-0.18043
0.12320	0.07465
0.32721	0.43176
0.30171	-0.25695
0.12320	0.35523
0.19971	0.12566
0.22521	-0.07840
0.07220	0.38074
-0.08081	0.15117
-0.08081	-0.12942
-0.10631	-0.02739
-0.05531	0.30422
0.48022	0.63582
0.27621	0.86539
0.50573	0.61031
0.35272	0.50828
-0.23382	0.55929
0.07220	-1.37929
0.12320	-1.99148
0.30171	-0.35899
-0.00431	0.96742
0.30171	0.71234
0.50573	1.09496
0.12320	1.24800
-0.05531	1.04394
0.12320	0.25320
0.14870	-1.09871
-0.08081	-0.99668
-0.00431	-0.74160
0.07220	0.30422
0.17421	0.89089
0.14870	0.27871
0.07220	0.20219
0.12320	-0.28246
0.30171	-0.30797
0.37822	0.40625
0.53123	1.04394
-0.20832	0.71234
-0.18282	0.17668
0.09770	-1.45582
0.27621	-1.22625
0.09770	-0.15492
0.12320	1.01843
0.32721	1.88570
0.35272	1.68163
0.30171	0.96742
-0.00431	-2.29757
-0.36133	-1.99148
-0.10631	0.45726
0.17421	1.68163
0.55673	1.45206
0.35272	0.81437
0.42922	0.15117
-0.00431	-0.28246
-0.08081	-1.91496
-0.00431	-0.48652
0.17421	0.58480
0.17421	0.58480
0.19971	0.27871
0.50573	0.43176
0.22521	-0.35899
0.09770	-0.05289
0.12320	0.32972
-0.10631	0.58480
0.19971	0.45726
0.07220	-0.15492
-0.15732	-0.84363
-0.25932	-0.20594
0.14870	0.15117
0.45472	0.89089
0.48022	1.09496
0.19971	0.17668
0.27621	-0.51203
0.07220	-0.46102
-0.08081	0.12566
0.12320	1.17148
0.48022	0.91640
0.19971	0.17668
0.02119	-0.38449
0.12320	-0.46102
0.17421	0.68683
0.14870	1.19699
0.19971	0.02363
-0.00431	-2.14453
0.02119	-1.27726
0.45472	1.22250
0.12320	1.68163
-0.20832	0.48277
-0.08081	0.12566
0.35272	-0.18043
0.22521	-0.48652
0.19971	0.38074
0.37822	1.01843
0.07220	0.35523
0.40372	0.22769
0.27621	-0.25695
-0.08081	-0.56305
-0.00431	-0.51203
-0.10631	-0.02739
0.19971	0.35523
0.12320	0.76336
-0.02981	0.89089
0.09770	0.78886
0.17421	0.91640
0.09770	-0.10391
0.14870	-0.46102
0.42922	-0.86914
0.32721	-0.58856
0.04670	-0.05289
0.14870	0.66132
0.32721	0.58480
0.02119	0.66132
0.14870	0.12566
0.04670	-0.07840
0.12320	-0.41000
0.19971	-0.07840
0.04670	0.58480
-0.33583	0.35523
-0.08081	0.40625
0.32721	0.71234
0.32721	0.73785
0.25071	-0.71609
0.30171	-0.18043
0.32721	-0.30797
0.09770	-0.23145
-0.10631	0.04914
0.27621	0.40625
0.14870	0.78886
-0.05531	0.17668
0.12320	0.32972
0.07220	0.35523
0.30171	0.12566
0.53123	0.02363
0.04670	-0.20594
0.09770	0.27871
0.09770	0.07465
-0.08081	-0.97117
-0.25932	-0.58856
-0.08081	0.12566
0.35272	1.01843
0.55673	0.73785
0.04670	-0.02739
0.32721	0.48277
0.27621	0.53379
0.17421	0.22769
-0.00431	-0.12942
0.12320	-0.25695
0.04670	0.02363
0.19971	0.40625
0.04670	0.50828
-0.05531	-0.15492
0.12320	-0.25695
0.32721	0.66132
0.17421	0.91640
0.27621	-0.74160
0.07220	-0.86914
0.53123	0.17668
0.02119	-0.20594
-0.10631	0.53379
0.09770	0.91640
0.32721	0.73785
0.42922	0.32972
0.48022	-0.00188
-0.13181	-0.10391
-0.18282	-0.07840
0.17421	-0.38449
-0.00431	-0.12942
-0.00431	1.45206
-0.10631	1.32453
0.27621	0.32972
0.17421	-2.75671
0.09770	-2.50164
0.53123	0.55929
0.60773	1.65613
0.25071	1.75816
0.07220	1.50308
0.19971	0.66132
-0.05531	-0.18043
-0.13181	-0.43551
-0.05531	-0.23145
0.35272	0.35523
0.14870	-1.22625
0.12320	-0.84363
0.07220	0.15117
0.30171	0.45726
0.25071	0.55929
0.17421	0.43176
-0.28482	0.43176
0.48022	1.04394
0.55673	0.40625
-0.20832	-0.41000
-0.02981	-1.09871
0.17421	-0.05289
0.14870	0.89089
0.17421	0.61031
0.25071	0.22769
-0.02981	0.30422
-0.31033	0.40625
0.02119	-0.15492
0.17421	-1.88945
0.32721	-0.99668
0.55673	0.86539
0.63323	1.86019
0.53123	2.24281
0.12320	1.29902
-0.51434	-0.99668
-0.33583	-1.25176
-0.28482	-0.69059
-0.13181	-0.10391
0.65874	0.38074
0.73524	0.61031
0.09770	0.30422
0.14870	0.58480
0.07220	0.55929
0.12320	-0.02739
0.19971	-0.58856
0.12320	0.25320
-0.02981	0.25320
-0.31033	-0.00188
0.02119	0.02363
0.45472	0.15117
0.27621	0.50828
0.30171	0.50828
0.32721	0.40625
0.27621	-0.43551
0.25071	-0.76711
0.02119	-0.15492
0.35272	0.02363
0.07220	0.48277
-0.05531	1.19699
-0.05531	0.71234
0.17421	0.15117
0.17421	0.02363
0.32721	0.40625
0.22521	0.35523
-0.05531	-0.41000
-0.08081	-0.18043
-0.08081	-0.10391
0.07220	0.30422
0.27621	0.32972
0.42922	-0.74160
0.58223	-0.89465
0.32721	0.40625
-0.02981	0.71234
-0.20832	1.06945
-0.25932	1.75816
0.19971	1.24800
0.65874	-0.81812
0.12320	-2.50164
-0.15732	-2.96078
-0.08081	-0.53754
0.09770	2.21730
0.27621	2.34484
0.32721	1.17148
0.42922	0.94191
0.07220	0.73785
0.02119	0.12566
0.02119	-0.38449
-0.15732	-0.25695
0.14870	-0.35899
0.12320	-0.25695
0.70974	-0.12942
0.50573	-0.00188
0.32721	0.20219
-0.00431	0.22769
-0.25932	0.10015
-0.31033	0.12566
-0.13181	-1.37929
-0.20832	-1.20074
0.02119	-0.12942
0.37822	0.35523
0.37822	1.78367
0.50573	2.11527
0.45472	1.29902
0.19971	0.89089
0.07220	-0.05289
-0.02981	-1.20074
0.19971	-0.38449
-0.02981	-0.05289
0.02119	-0.20594
0.25071	0.15117
0.09770	0.35523
0.07220	0.53379
0.19971	0.50828
0.40372	0.04914
0.04670	-0.15492
-0.02981	-0.28246
-0.18282	0.02363
0.17421	-0.38449
0.25071	-0.10391
0.45472	-0.02739
0.30171	0.04914
0.19971	0.81437
0.19971	1.01843
0.50573	1.37554
0.09770	-0.53754
-0.31033	-1.40480
-0.23382	-0.20594
-0.23382	0.76336
0.02119	0.32972
0.27621	0.35523
0.45472	0.66132
0.58223	1.47757
0.48022	0.96742
0.30171	-0.99668
0.32721	-1.81293
-0.05531	-0.92016
-0.20832	-0.41000
-0.18282	0.50828
-0.20832	1.22250
0.32721	1.68163
0.42922	1.68163
0.19971	0.07465
0.14870	-1.81293
0.09770	-1.20074
0.12320	0.12566
0.42922	0.78886
0.04670	0.35523
-0.10631	0.30422
0.02119	0.48277
0.19971	0.20219
0.19971	-0.00188
0.19971	0.50828
0.14870	0.50828
0.37822	0.04914
0.45472	-0.71609
0.04670	-1.20074
-0.18282	-0.69059
-0.00431	1.50308
-0.15732	0.55929
0.12320	-0.20594
0.27621	0.66132
0.40372	1.63062
0.22521	0.66132
0.19971	-0.41000
0.19971	0.07465
-0.00431	-0.07840
0.09770	0.10015
0.09770	0.15117
-0.05531	-0.02739
0.58223	-0.53754
-0.00431	-1.35379
-0.05531	0.02363
0.14870	0.91640
0.40372	1.04394
0.02119	0.53379
0.09770	0.20219
-0.00431	-0.56305
-0.23382	0.25320
0.22521	0.50828
0.53123	0.30422
0.65874	0.43176
0.17421	-1.30277
-0.23382	-0.66508
0.04670	0.94191
-0.08081	1.73265
-0.08081	0.94191
-0.00431	0.22769
0.22521	-0.07840
0.37822	-0.10391
0.32721	-0.10391
0.32721	0.25320
0.17421	-0.35899
0.07220	-0.00188
0.02119	0.10015
0.14870	-0.66508
0.17421	-0.56305
-0.02981	-0.02739
0.12320	0.32972
0.12320	0.53379
0.12320	0.38074
0.09770	0.43176
0.32721	1.04394
0.32721	0.58480
0.14870	0.27871
-0.02981	0.17668
0.17421	-0.18043
-0.08081	-0.46102
-0.18282	-1.86394
0.07220	-1.76191
0.17421	0.96742
0.30171	1.70714
0.50573	1.55410
0.35272	1.24800
0.12320	0.86539
-0.05531	0.04914
0.09770	-0.18043
-0.10631	0.38074
0.12320	0.38074
0.19971	-1.27726
0.25071	-1.32828
0.07220	0.12566
0.09770	-0.79262
0.22521	-0.23145
0.32721	1.17148
0.32721	1.17148
0.07220	-0.25695
-0.25932	-0.35899
-0.18282	0.63582
-0.51434	0.89089
0.45472	1.04394
0.45472	0.43176
0.50573	0.25320
0.63323	0.02363
0.19971	-0.30797
-0.28482	-0.48652
-0.13181	-0.00188
0.22521	0.27871
0.02119	0.20219
-0.02981	-0.10391
0.25071	-0.53754
0.12320	-0.79262
0.09770	-0.15492
0.02119	0.66132
0.40372	0.66132
0.19971	0.96742
0.32721	0.94191
0.14870	0.35523
0.02119	0.02363
-0.13181	-0.00188
0.09770	-0.23145
0.12320	-1.30277
0.27621	-1.91496
0.35272	-0.46102
-0.00431	1.12046
0.09770	2.03874
0.32721	1.70714
0.22521	1.52859
0.02119	0.76336
-0.05531	0.07465
0.17421	0.10015
0.42922	-0.53754
0.42922	-1.14973
0.37822	-0.74160
-0.13181	-0.23145
-0.13181	-0.18043
0.12320	0.25320
-0.15732	0.15117
-0.08081	0.12566
0.09770	0.02363
0.48022	0.22769
0.17421	0.30422
0.22521	0.50828
0.42922	0.55929
0.35272	0.35523
0.02119	-0.20594
-0.02981	0.32972
-0.08081	0.07465
0.09770	-0.46102
0.14870	-0.56305
0.14870	0.32972
-0.13181	0.76336
0.32721	1.14597
0.35272	0.35523
0.22521	0.22769
0.14870	-0.33348
-0.08081	0.04914
-0.08081	0.02363
0.42922	-1.02219
0.30171	-0.97117
0.14870	0.17668
0.02119	1.35003
0.12320	0.73785
0.22521	-0.12942
0.30171	0.35523
0.45472	0.71234
0.12320	1.04394
-0.02981	0.83988
0.04670	-0.15492
0.09770	-1.86394
0.12320	-1.04770
0.17421	0.25320
0.30171	0.76336
0.32721	0.96742
0.12320	0.71234
0.19971	0.10015
0.04670	-0.66508
-0.13181	-0.28246
-0.08081	0.38074
0.19971	-0.02739
0.22521	-0.10391
0.19971	1.12046
0.17421	0.86539
0.02119	-0.33348
0.30171	-0.51203
0.48022	0.25320
0.17421	0.30422
0.48022	0.55929
-0.25932	0.63582
-0.28482	-1.25176
-0.02981	-0.61406
0.09770	0.48277
0.55673	1.01843
0.07220	0.71234
0.09770	-0.51203
0.22521	-0.05289
0.22521	0.32972
0.09770	0.61031
-0.00431	0.17668
0.07220	0.76336
0.04670	-0.48652
0.25071	-0.23145
0.35272	-0.15492
0.50573	0.17668
-0.00431	0.22769
0.22521	0.25320
0.09770	0.02363
-0.18282	0.17668
-0.10631	0.02363
0.12320	0.22769
0.14870	0.17668
0.42922	0.50828
0.35272	-0.05289
0.17421	-0.71609
-0.05531	0.50828
0.19971	0.38074
0.07220	-0.46102
-0.00431	0.38074
-0.08081	-0.05289
0.09770	0.48277
0.42922	1.12046
0.30171	0.45726
0.42922	-0.23145
-0.02981	-0.15492
-0.00431	0.04914
0.09770	0.22769
0.02119	0.61031
0.22521	0.53379
-0.23382	-0.20594
0.12320	-0.46102
0.40372	-0.12942
0.50573	0.17668
0.25071	-0.30797
0.07220	0.22769
-0.08081	0.20219
0.07220	-0.05289
0.30171	0.40625
0.12320	-0.02739
-0.18282	-0.48652
0.09770	-0.33348
0.09770	1.06945
0.37822	1.73265
0.27621	0.45726
0.19971	0.20219
-0.08081	-0.53754
-0.00431	-0.12942
0.07220	0.35523
0.12320	-0.23145
0.40372	-0.30797
0.09770	0.32972
0.25071	0.58480
0.45472	-0.15492
0.17421	-0.18043
0.12320	0.38074
0.37822	0.30422
0.30171	0.66132
-0.10631	0.73785
-0.33583	0.48277
-0.23382	-1.63437
0.07220	-0.56305
0.42922	0.27871
0.02119	0.53379
0.27621	0.58480
0.37822	-0.76711
0.58223	-0.79262
0.30171	0.61031
-0.08081	1.55410
-0.02981	0.68683
-0.20832	0.22769
-0.20832	0.12566
0.19971	0.32972
0.42922	0.17668
0.32721	-0.48652
0.50573	-0.20594
0.27621	0.45726
-0.13181	-0.18043
-0.20832	-0.53754
-0.18282	0.15117
-0.02981	0.35523
0.09770	0.04914
0.55673	0.12566
0.35272	0.45726
0.07220	0.15117
-0.05531	-0.07840
0.12320	0.66132
0.12320	0.48277
0.17421	-0.15492
0.04670	-0.00188
-0.00431	0.04914
0.30171	-0.28246
0.22521	0.55929
0.32721	1.14597
0.42922	1.19699
0.27621	1.09496
0.04670	-0.18043
0.17421	-2.50164
0.02119	-2.42511
-0.38683	-1.27726
-0.28482	0.91640
0.07220	1.91120
0.37822	1.98773
0.35272	1.42656
0.25071	0.76336
0.25071	0.40625
0.22521	-0.07840
0.22521	-0.43551
0.07220	-0.81812
0.09770	-0.99668
0.22521	-0.74160
-0.15732	-0.33348
0.04670	0.25320
0.30171	0.55929
0.12320	0.71234
0.53123	0.76336
0.45472	0.94191
0.12320	0.71234
-0.05531	0.25320
-0.18282	-0.46102
-0.08081	-0.66508
-0.18282	-1.02219
0.19971	-0.99668
0.25071	1.19699
0.45472	1.70714
0.17421	0.86539
0.60773	-0.51203
0.32721	-1.09871
0.32721	0.78886
-0.18282	0.76336
0.04670	0.40625
-0.15732	-0.05289
-0.05531	0.20219
0.07220	0.02363
0.27621	0.40625
0.25071	0.40625
0.19971	-0.07840
0.12320	-0.99668
0.19971	-0.30797
-0.00431	0.43176
0.12320	0.48277
0.25071	0.48277
0.30171	-0.07840
0.17421	-0.35899
0.07220	0.10015
0.07220	0.73785
0.17421	0.94191
0.12320	0.61031
0.12320	-0.61406
0.17421	-0.86914
0.25071	-0.02739
-0.00431	1.06945
0.12320	1.17148
0.22521	-0.30797
0.25071	-0.99668
0.19971	0.66132
0.12320	0.25320
0.02119	-0.05289
0.14870	0.63582
0.02119	0.43176
0.27621	0.71234
0.17421	0.32972
0.19971	-0.46102
0.22521	-0.20594
0.12320	0.58480
0.12320	0.76336
0.12320	-0.86914
0.22521	-2.32308
0.04670	-0.92016
0.04670	0.73785
-0.08081	1.42656
0.02119	1.27351
0.32721	1.19699
0.37822	0.48277
0.42922	0.17668
0.17421	0.15117
-0.00431	0.12566
0.19971	0.43176
-0.02981	-0.63957
0.02119	-1.68539
0.12320	-1.48133
0.17421	0.15117
0.04670	1.04394
0.22521	1.35003
0.19971	1.47757
0.32721	0.86539
0.27621	0.73785
0.07220	0.02363
0.12320	-1.30277
-0.10631	-0.61406
-0.13181	-0.38449
0.07220	0.12566
0.25071	0.15117
0.22521	0.43176
0.22521	0.68683
0.17421	0.83988
0.45472	1.12046
0.27621	0.15117
-0.20832	-1.60887
-0.13181	-1.43031
0.22521	-0.15492
-0.15732	0.38074
0.27621	1.47757
0.48022	1.37554
0.37822	0.76336
0.14870	-0.69059
-0.02981	-0.15492
-0.18282	0.55929
0.14870	0.38074
0.19971	-0.99668
-0.08081	-0.79262
0.14870	0.55929
0.12320	0.55929
0.30171	0.76336
0.02119	0.45726
0.07220	-1.04770
0.27621	-0.02739
0.12320	0.76336
0.02119	0.45726
0.12320	-0.18043
0.17421	-0.07840
0.37822	0.35523
0.53123	0.40625
0.30171	0.25320
0.09770	0.45726
-0.23382	0.48277
-0.10631	-0.69059
-0.00431	-0.71609
-0.00431	-0.02739
0.02119	0.02363
0.12320	0.32972
0.14870	0.55929
0.25071	0.48277
0.42922	0.55929
0.35272	0.07465
0.32721	-0.00188
0.17421	0.43176
0.12320	0.02363
0.22521	-0.07840
0.22521	0.35523
0.07220	0.20219
0.02119	0.43176
0.02119	-0.12942
-0.20832	-0.05289
-0.08081	-0.58856
0.27621	-0.71609
0.37822	0.81437
0.35272	1.09496
0.27621	0.30422
-0.13181	-0.02739
0.02119	0.20219
-0.23382	-0.07840
0.35272	0.68683
0.48022	0.35523
0.35272	0.40625
0.50573	0.55929
0.17421	0.07465
-0.13181	-0.71609
-0.00431	-1.22625
-0.00431	-0.66508
-0.05531	0.17668
0.25071	0.55929
0.02119	0.66132
0.12320	0.71234
0.27621	0.81437
0.35272	1.45206
0.19971	0.22769
0.27621	-0.25695
0.22521	-0.02739
-0.10631	-0.69059
-0.05531	-0.84363
0.17421	-0.84363
0.22521	0.07465
0.40372	0.86539
0.17421	1.42656
0.12320	1.29902
0.02119	0.86539
-0.10631	0.50828
0.02119	-0.10391
0.04670	-0.71609
0.45472	-0.86914
0.32721	-0.38449
0.02119	-0.84363
-0.08081	-0.74160
0.12320	0.50828
0.22521	1.27351
0.30171	0.83988
0.25071	0.45726
0.25071	0.35523
0.02119	0.17668
-0.13181	-0.43551
0.32721	0.02363
0.04670	0.40625
0.30171	-0.00188
0.27621	-1.40480
0.07220	-0.35899
-0.00431	1.37554
0.02119	1.01843
0.12320	1.09496
-0.08081	0.50828
0.14870	-0.71609
0.14870	0.38074
0.17421	0.55929
0.09770	0.45726
0.32721	-0.43551
0.25071	-1.48133
0.12320	-1.22625
-0.00431	-0.38449
0.12320	0.99292
0.27621	1.42656
0.02119	0.94191
0.17421	0.32972
0.35272	0.25320
0.14870	-0.18043
0.04670	-0.15492
0.14870	0.07465
0.32721	0.10015
0.27621	-0.15492
-0.05531	0.10015
-0.18282	0.58480
-0.00431	0.55929
0.09770	-1.14973
0.30171	-0.58856
0.22521	0.04914
0.12320	0.71234
0.30171	0.78886
0.30171	0.89089
0.12320	0.89089
0.02119	0.04914
-0.00431	-1.35379
-0.13181	-1.40480
0.09770	0.22769
0.32721	1.04394
0.25071	0.96742
0.53123	0.76336
0.14870	0.45726
-0.10631	-0.66508
0.02119	-0.20594
0.04670	0.15117
-0.13181	-0.00188
0.07220	0.12566
0.19971	0.25320
0.25071	0.55929
0.32721	0.30422
0.27621	0.10015
0.27621	-0.20594
0.19971	-0.46102
-0.02981	-0.02739
0.09770	0.10015
-0.02981	0.02363
-0.13181	0.07465
-0.02981	0.38074
0.32721	0.66132
0.37822	0.91640
0.35272	-0.10391
0.17421	-1.91496
-0.02981	-0.35899
0.09770	0.78886
0.02119	0.96742
-0.18282	0.76336
-0.13181	0.63582
0.40372	0.63582
0.40372	0.12566
0.35272	-1.30277
0.37822	-0.30797
0.17421	0.32972
-0.00431	0.40625
-0.05531	0.32972
0.25071	0.10015
0.12320	-0.20594
0.12320	-0.35899
0.14870	0.55929
0.17421	0.76336
0.12320	-0.10391
0.09770	-0.43551
-0.05531	-0.53754
0.42922	0.10015
0.30171	0.81437
-0.00431	1.42656
0.07220	0.86539
0.37822	0.27871
0.17421	-0.53754
-0.08081	-1.27726
0.19971	-0.46102
0.53123	0.91640
0.30171	1.06945
-0.05531	-0.23145
-0.13181	-0.81812
-0.10631	0.07465
0.09770	1.19699
0.07220	0.78886
0.17421	0.38074
0.07220	-0.25695
0.17421	-2.19554
0.17421	-0.94566
0.30171	1.42656
0.25071	0.99292
0.32721	0.76336
0.17421	0.07465
0.12320	-0.28246
-0.15732	0.45726
-0.08081	0.63582
0.27621	0.25320
0.17421	-0.15492
0.07220	-0.23145
0.02119	-0.15492
-0.15732	-0.20594
0.27621	-0.41000
0.19971	0.02363
0.14870	0.38074
0.25071	0.76336
0.32721	0.86539
0.07220	0.20219
0.12320	0.12566
0.37822	-0.02739
0.14870	-0.20594
0.14870	0.04914
0.17421	-0.05289
0.02119	-0.23145
-0.02981	-0.02739
-0.13181	0.55929
0.02119	0.73785
0.37822	0.78886
0.32721	0.86539
0.12320	0.04914
0.17421	-0.56305
0.19971	-0.58856
0.25071	-0.35899
0.07220	0.66132
-0.05531	-0.33348
-0.15732	-0.97117
-0.05531	-0.02739
0.53123	1.09496
0.30171	1.27351
0.42922	1.01843
0.40372	0.48277
0.12320	-0.56305
-0.05531	-0.43551
0.02119	0.17668
-0.00431	0.17668
0.04670	0.10015
0.02119	0.15117
0.42922	0.20219
0.32721	0.12566
0.12320	0.04914
-0.00431	0.12566
0.07220	0.38074
0.12320	0.43176
-0.08081	0.55929
-0.10631	-0.76711
0.12320	-0.89465
0.30171	0.10015
0.19971	0.32972
0.30171	0.43176
0.40372	-0.18043
0.30171	0.02363
-0.08081	0.78886
0.19971	1.22250
0.25071	0.86539
0.25071	0.32972
-0.08081	-0.76711
-0.10631	0.10015
0.12320	0.32972
0.22521	0.02363
0.14870	-0.41000
0.12320	-0.51203
0.19971	0.61031
0.12320	-0.05289
0.12320	-1.43031
0.12320	-0.35899
-0.02981	1.12046
0.27621	1.37554
0.22521	0.58480
0.32721	0.27871
0.37822	0.15117
0.27621	0.15117
0.30171	0.25320
0.17421	0.17668
-0.00431	-0.18043
-0.10631	-0.76711
-0.00431	-0.12942
0.04670	0.30422
0.30171	-0.10391
0.02119	-1.02219
0.30171	0.10015
0.32721	1.52859
0.19971	1.22250
0.30171	0.68683
0.09770	-0.05289
-0.08081	-0.48652
-0.05531	-0.33348
0.04670	0.17668
0.07220	0.15117
0.02119	0.12566
0.22521	0.45726
0.40372	0.83988
0.30171	0.71234
0.14870	0.12566
0.12320	-0.74160
0.02119	-2.27207
-0.02981	-1.02219
0.25071	1.04394
0.32721	1.42656
0.25071	1.32453
0.32721	1.06945
0.17421	0.40625
0.04670	-0.10391
0.02119	-0.12942
-0.02981	-0.12942
-0.02981	-0.33348
0.14870	-0.43551
0.09770	-0.25695
0.19971	0.15117
0.14870	1.06945
0.22521	-0.05289
0.32721	-0.12942
0.25071	0.10015
0.17421	-0.92016
-0.00431	-0.00188
-0.05531	0.83988
0.02119	0.68683
0.25071	0.50828
0.27621	0.32972
0.07220	0.53379
0.09770	0.27871
0.50573	0.20219
0.55673	0.61031
-0.13181	0.12566
-0.15732	-0.15492
-0.18282	-0.81812
-0.10631	-1.22625
-0.02981	-0.48652
0.22521	0.61031
0.58223	0.81437
0.27621	0.45726
0.22521	1.01843
0.27621	0.22769
0.30171	-0.25695
0.14870	0.02363
-0.08081	-0.15492
-0.20832	-0.35899
-0.02981	0.15117
0.32721	0.58480
0.27621	0.86539
0.30171	0.55929
0.53123	0.76336
0.50573	0.30422
-0.18282	-0.53754
-0.28482	-0.81812
-0.25932	-0.25695
-0.08081	0.07465
-0.05531	0.15117
0.37822	0.43176
0.58223	0.45726
0.68424	0.45726
0.35272	0.53379
0.30171	-0.76711
0.02119	-0.41000
-0.28482	0.30422
-0.36133	0.61031
0.04670	0.45726
0.14870	0.25320
0.12320	0.02363
0.25071	0.43176
0.40372	1.19699
0.37822	0.48277
0.35272	-1.55785
0.30171	-1.20074
0.45472	0.02363
-0.08081	-0.15492
-0.23382	0.45726
-0.08081	1.29902
0.25071	0.96742
0.04670	0.83988
0.19971	0.53379
0.25071	-0.23145
0.22521	-0.05289
0.02119	0.10015
0.12320	-0.05289
0.42922	-0.00188
0.07220	-0.46102
-0.05531	-0.94566
0.02119	-0.00188
0.14870	0.55929
0.12320	0.58480
0.42922	0.55929
0.50573	0.35523
0.19971	0.17668
-0.08081	0.02363
-0.10631	-0.00188
0.19971	-0.02739
0.27621	0.02363
0.22521	0.27871
-0.08081	0.53379
-0.08081	0.17668
0.19971	0.35523
0.14870	0.07465
0.25071	-1.17523
0.37822	-0.86914
0.32721	0.22769
0.14870	0.83988
0.22521	1.42656
0.12320	1.22250
-0.15732	0.02363
0.30171	-0.23145
0.32721	-0.74160
0.32721	-0.02739
0.09770	0.83988
0.12320	1.09496
0.25071	0.38074
-0.05531	-0.56305
-0.20832	-0.66508
0.04670	-0.51203
0.25071	-1.17523
0.22521	0.68683
0.42922	0.86539
0.30171	0.86539
0.27621	0.71234
0.17421	0.17668
-0.23382	-0.35899
-0.08081	-0.94566
0.27621	-0.43551
0.27621	0.78886
0.09770	1.17148
0.12320	0.83988
0.19971	0.25320
0.25071	-0.07840
0.32721	0.10015
0.02119	0.07465
-0.00431	-0.20594
-0.00431	-0.18043
0.02119	0.02363
-0.05531	-0.10391
0.14870	-0.05289
0.25071	0.15117
0.30171	0.17668
0.35272	0.35523
0.32721	0.63582
0.07220	0.45726
-0.02981	0.27871
-0.23382	-0.02739
-0.13181	-0.30797
0.22521	-0.76711
0.30171	-0.35899
0.14870	0.61031
0.25071	1.09496
0.35272	1.17148
0.12320	1.27351
-0.10631	-1.76191
-0.18282	-2.47613
0.09770	0.63582
0.32721	0.76336
0.42922	0.61031
0.22521	0.96742
0.25071	0.45726
0.22521	0.55929
0.17421	0.81437
0.17421	0.71234
0.17421	0.07465
-0.15732	-0.05289
-0.13181	-0.71609
0.25071	-1.48133
0.30171	-1.37929
0.19971	-0.02739
0.07220	0.45726
0.14870	0.83988
0.22521	0.55929
0.12320	0.45726
0.27621	0.58480
0.02119	0.43176
0.02119	0.38074
0.25071	0.12566
0.09770	-0.00188
-0.00431	0.20219
-0.00431	-0.02739
0.22521	0.30422
0.30171	0.10015
0.19971	-0.28246
0.17421	-0.02739
0.14870	0.15117
0.04670	-0.02739
-0.08081	0.22769
0.37822	0.38074
0.48022	0.66132
0.27621	0.50828
0.22521	0.43176
-0.00431	0.43176
0.07220	-0.00188
-0.02981	-0.51203
-0.18282	-1.22625
-0.10631	-0.56305
0.17421	0.20219
0.32721	-0.12942
0.40372	0.35523
0.25071	0.89089
-0.00431	0.32972
0.12320	-0.94566
0.40372	0.58480
0.19971	1.17148
-0.08081	0.76336
0.07220	0.61031
0.02119	-0.41000
0.19971	-0.20594
0.42922	0.35523
0.04670	0.25320
0.04670	-0.05289
-0.02981	0.02363
0.27621	0.17668
0.25071	0.04914
0.09770	0.04914
0.12320	-0.35899
0.12320	-0.18043
0.32721	0.32972
0.27621	0.20219
0.19971	0.20219
0.04670	0.45726
0.04670	0.50828
0.25071	1.09496
0.12320	0.43176
-0.18282	-0.89465
-0.43783	-1.96597
-0.10631	-1.32828
0.45472	0.91640
0.50573	1.45206
0.48022	1.52859
0.50573	1.57960
0.09770	0.50828
-0.15732	-0.69059
0.07220	-0.58856
-0.08081	-0.66508
-0.00431	-0.15492
0.09770	0.30422
0.32721	0.53379
0.22521	0.32972
0.22521	0.12566
0.19971	0.30422
0.19971	0.35523
0.02119	0.17668
-0.00431	0.02363
-0.00431	-0.20594
-0.10631	-0.43551
0.02119	-0.61406
0.22521	0.43176
0.37822	0.40625
0.32721	0.91640
0.22521	0.45726
0.22521	-0.02739
0.22521	-0.02739
0.09770	0.02363
-0.00431	0.45726
0.04670	0.27871
0.04670	0.20219
0.19971	-0.02739
0.25071	0.10015
0.27621	0.22769
0.27621	0.15117
0.22521	-0.25695
-0.00431	-0.35899
-0.02981	0.17668
0.04670	-0.00188
0.17421	0.12566
0.22521	0.22769
0.25071	0.22769
0.09770	-0.10391
0.07220	-0.05289
0.14870	0.35523
0.35272	0.45726
0.22521	0.50828
0.19971	0.66132
0.19971	0.81437
-0.00431	0.38074
-0.00431	-0.23145
0.14870	-0.28246
0.17421	-0.58856
0.04670	0.30422
0.25071	-0.61406
0.02119	-0.25695
-0.08081	0.38074
0.25071	1.14597
0.12320	0.96742
0.14870	0.20219
0.22521	-0.38449
0.14870	-0.97117
0.04670	-0.12942
0.27621	0.66132
0.32721	0.81437
0.37822	0.73785
0.09770	0.45726
-0.02981	-0.07840
-0.15732	-0.69059
-0.02981	-0.48652
0.02119	-0.12942
0.22521	0.35523
0.50573	0.50828
0.68424	0.32972
-0.00431	0.02363
0.22521	-0.02739
0.04670	0.35523
-0.08081	0.17668
-0.00431	0.20219
0.09770	0.40625
0.02119	0.78886
-0.00431	-0.10391
-0.05531	-1.09871
0.32721	-1.09871
0.14870	-0.18043
0.22521	0.99292
0.32721	1.22250
0.32721	0.89089
0.09770	0.48277
0.22521	0.35523
0.22521	0.25320
0.19971	0.40625
-0.10631	0.10015
-0.00431	-0.41000
0.45472	-1.53234
0.12320	-0.94566
-0.13181	-0.02739
0.02119	0.66132
-0.00431	0.43176
-0.05531	0.45726
0.30171	0.81437
0.19971	0.25320
0.12320	0.40625
0.32721	0.17668
0.32721	0.07465
0.07220	-0.00188
0.07220	-0.38449
0.25071	0.17668
0.32721	0.20219
0.07220	0.17668
0.02119	0.35523
0.02119	0.40625
0.07220	0.83988
0.14870	0.43176
0.45472	-0.97117
0.27621	-1.27726
-0.08081	0.12566
0.14870	0.66132
0.17421	0.76336
0.19971	0.58480
0.07220	0.12566
0.09770	0.22769
0.14870	0.22769
0.30171	0.20219
0.12320	-0.86914
-0.13181	-1.17523
0.17421	0.32972
0.22521	1.12046
0.02119	0.94191
-0.00431	0.68683
0.30171	0.71234
0.48022	0.15117
0.17421	0.04914
0.30171	-0.43551
0.35272	-0.81812
-0.00431	-0.48652
-0.05531	0.07465
0.04670	0.50828
0.02119	0.71234
0.04670	0.63582
0.27621	0.04914
0.27621	-0.07840
0.17421	0.45726
0.22521	0.27871
0.53123	0.07465
0.04670	0.04914
0.04670	0.04914
-0.05531	-0.07840
-0.15732	-0.25695
0.02119	-0.10391
0.17421	-0.23145
0.30171	-0.10391
0.19971	0.66132
0.37822	1.22250
0.60773	1.09496
0.14870	0.76336
-0.05531	-0.43551
0.02119	-0.66508
-0.08081	-0.25695
-0.05531	0.02363
0.12320	-0.07840
0.40372	0.10015
0.07220	-0.25695
0.14870	0.55929
0.35272	1.40105
0.19971	1.17148
0.12320	-0.48652
0.09770	-1.83844
0.17421	-1.09871
0.09770	0.27871
0.14870	0.94191
0.04670	0.40625
0.17421	1.35003
0.42922	1.29902
0.32721	0.91640
0.22521	-0.56305
0.30171	-1.09871
-0.05531	-0.66508
-0.38683	-0.20594
-0.28482	-0.00188
-0.05531	0.30422
0.27621	0.61031
0.27621	0.50828
0.17421	0.35523
0.27621	0.35523
0.42922	0.20219
0.07220	-0.10391
0.09770	-0.25695
0.17421	-0.05289
0.09770	-0.35899
0.19971	-0.18043
0.42922	0.53379
0.30171	0.48277
0.17421	0.40625
0.22521	0.66132
0.09770	0.73785
-0.10631	0.27871
-0.02981	0.02363
0.17421	-0.02739
0.09770	-0.10391
0.04670	0.48277
0.09770	-0.38449
0.12320	-1.48133
0.07220	-0.43551
0.12320	0.78886
0.27621	0.78886
0.22521	0.94191
0.17421	0.58480
0.04670	-0.10391
0.12320	0.07465
-0.02981	-0.35899
0.37822	0.02363
0.42922	0.86539
0.30171	0.66132
0.17421	0.45726
0.07220	0.40625
0.32721	-0.00188
-0.02981	-0.66508
-0.31033	-0.74160
-0.20832	-0.74160
-0.00431	0.25320
0.32721	0.71234
0.32721	0.89089
0.53123	0.66132
0.63323	0.86539
0.32721	-0.86914
-0.25932	-1.83844
-0.18282	0.02363
-0.05531	0.58480
-0.13181	0.76336
0.02119	0.96742
0.22521	0.04914
0.35272	0.04914
0.48022	0.68683
0.42922	0.94191
0.25071	0.35523
0.09770	0.10015
-0.05531	-0.58856
-0.23382	-0.69059
-0.13181	-0.25695
0.27621	0.25320
0.27621	0.20219
0.37822	0.12566
0.40372	0.15117
0.12320	-0.20594
-0.02981	-0.43551
0.04670	0.15117
0.02119	0.50828
-0.08081	0.71234
0.07220	0.55929
0.37822	0.58480
0.40372	0.89089
0.14870	-0.05289
0.04670	-0.86914
0.02119	-0.89465
0.02119	-0.12942
0.04670	0.40625
0.17421	0.81437
0.04670	0.76336
-0.10631	0.53379
0.12320	-0.15492
0.30171	-1.09871
0.35272	-0.69059
0.48022	-0.00188
0.19971	0.78886
0.17421	1.32453
0.09770	0.63582
0.02119	-0.10391
-0.00431	-0.38449
0.07220	0.27871
0.04670	0.71234
0.19971	0.55929
0.19971	-0.02739
0.19971	-0.35899
0.30171	-0.71609
0.19971	-0.25695
-0.05531	0.04914
-0.05531	0.38074
-0.15732	0.40625
-0.00431	0.83988
0.37822	0.83988
0.68424	-0.97117
0.12320	-1.40480
0.25071	-0.79262
0.07220	1.01843
0.25071	1.55410
0.12320	1.27351
0.14870	0.71234
-0.13181	-0.15492
-0.18282	-0.18043
-0.05531	-0.30797
0.12320	-0.05289
0.30171	0.07465
0.32721	-0.33348
0.40372	0.20219
0.19971	0.43176
0.30171	0.32972
0.32721	0.20219
-0.05531	-0.05289
-0.10631	-0.07840
0.02119	0.38074
0.14870	-0.00188
0.22521	0.15117
0.35272	0.17668
0.12320	-0.05289
0.19971	0.12566
0.40372	0.20219
0.02119	0.35523
-0.10631	0.38074
0.07220	0.25320
-0.28482	-0.23145
-0.10631	-0.15492
0.19971	0.30422
0.30171	0.89089
0.45472	0.38074
0.37822	-0.00188
0.19971	-0.10391
-0.00431	0.43176
-0.08081	0.12566
0.17421	-0.35899
0.25071	-0.69059
0.25071	0.15117
0.07220	0.53379
0.30171	0.43176
0.37822	0.83988
0.09770	0.53379
-0.08081	-0.00188
-0.02981	0.12566
-0.00431	-0.05289
-0.10631	-0.86914
-0.02981	-0.86914
0.17421	-0.28246
0.17421	0.12566
0.45472	0.78886
0.70974	1.50308
0.19971	0.96742
-0.02981	0.02363
-0.00431	-0.30797
0.02119	-0.38449
0.22521	-0.20594
-0.10631	-0.33348
0.04670	-0.10391
0.02119	0.38074
0.42922	0.94191
0.19971	0.76336
0.30171	0.76336
0.04670	-0.18043
0.22521	0.04914
0.12320	-0.07840
0.17421	-0.23145
-0.00431	-0.89465
0.19971	-0.51203
0.07220	0.07465
0.22521	0.76336
0.30171	1.12046
0.17421	0.45726
0.12320	0.15117
-0.00431	-0.05289
-0.13181	-0.23145
0.12320	-0.00188
0.19971	0.40625
0.19971	0.12566
0.12320	0.32972
0.27621	0.07465
0.25071	-0.23145
0.04670	0.12566
0.14870	0.32972
0.37822	0.40625
0.17421	0.22769
-0.20832	0.27871
-0.13181	-0.15492
0.22521	-0.51203
0.19971	-0.46102
0.30171	0.35523
0.27621	0.76336
0.12320	0.71234
0.25071	0.32972
0.30171	0.22769
-0.02981	0.48277
-0.00431	0.02363
-0.10631	0.07465
0.02119	0.17668
0.30171	0.07465
0.14870	-0.35899
0.27621	0.04914
0.40372	-0.15492
0.12320	0.02363
0.17421	0.78886
0.02119	0.48277
0.02119	0.20219
-0.02981	-0.79262
-0.18282	-2.06800
0.12320	-0.43551
0.40372	1.47757
0.40372	2.06425
0.37822	1.50308
0.22521	0.73785
-0.10631	0.32972
0.04670	0.15117
0.12320	-0.23145
0.27621	-1.25176
-0.10631	-1.27726
-0.15732	-0.05289
0.17421	0.20219
0.37822	0.61031
0.17421	0.55929
0.35272	0.45726
0.14870	0.12566
0.17421	0.25320
0.25071	-0.25695
-0.08081	-0.79262
-0.05531	-0.25695
0.14870	0.71234
0.22521	0.48277
0.35272	0.48277
0.35272	0.73785
0.07220	0.66132
0.07220	0.45726
-0.02981	0.12566
0.02119	-0.23145
0.30171	-0.10391
0.17421	0.02363
0.12320	0.20219
0.17421	-0.07840
0.30171	-0.00188
0.22521	0.15117
0.04670	-0.53754
0.02119	-0.18043
0.02119	0.25320
0.12320	0.91640
0.09770	0.83988
0.12320	0.53379
0.37822	-0.28246
0.27621	-0.38449
0.04670	-0.33348
-0.00431	-0.07840
0.17421	0.45726
0.32721	0.63582
-0.00431	0.55929
0.02119	0.38074
-0.00431	0.15117
0.12320	0.32972
0.14870	0.27871
0.17421	-0.20594
0.35272	-0.81812
0.17421	-0.35899
0.17421	0.38074
0.07220	0.53379
0.12320	0.45726
0.14870	0.20219
0.22521	0.04914
0.17421	-0.10391
0.07220	0.15117
0.25071	0.10015
0.09770	0.25320
-0.02981	0.07465
0.09770	0.22769
0.50573	0.27871
0.02119	0.45726
-0.08081	0.48277
-0.00431	0.17668
0.12320	-0.02739
0.22521	0.04914
0.32721	0.20219
0.27621	0.25320
0.30171	0.53379
0.12320	0.07465
-0.00431	-0.46102
0.12320	-0.20594
0.07220	0.15117
0.12320	-0.20594
0.22521	-0.10391
0.09770	-0.15492
0.04670	-0.15492
0.22521	0.81437
0.30171	0.94191
0.14870	0.45726
-0.08081	0.12566
0.14870	0.66132
0.22521	0.32972
0.12320	0.04914
0.07220	-0.58856
0.12320	-0.46102
0.30171	0.02363
0.42922	0.30422
0.17421	0.04914
-0.02981	0.15117
-0.05531	0.25320
0.12320	0.35523
0.07220	0.25320
0.22521	-0.12942
0.04670	0.27871
0.19971	0.12566
0.45472	0.17668
0.27621	-0.15492
0.04670	-0.63957
0.07220	0.30422
0.32721	0.94191
-0.05531	0.40625
0.07220	0.38074
0.19971	0.61031
0.12320	0.32972
0.07220	-0.35899
0.12320	-0.02739
0.14870	0.25320
0.19971	-0.20594
0.12320	-0.69059
0.07220	0.48277
-0.13181	0.53379
0.25071	-0.38449
0.19971	-0.51203
-0.00431	0.35523
0.32721	1.17148
0.58223	-0.05289
0.30171	0.83988
0.25071	0.32972
-0.10631	-0.94566
-0.02981	0.48277
-0.05531	0.55929
-0.02981	0.35523
-0.08081	0.07465
0.09770	0.22769
0.42922	0.35523
0.37822	0.35523
0.50573	-0.15492
0.04670	-0.23145
0.02119	-0.48652
0.19971	-0.92016
-0.00431	0.22769
-0.15732	0.35523
-0.02981	0.40625
0.12320	0.40625
0.12320	0.45726
0.35272	0.50828
0.48022	0.35523
0.22521	0.55929
0.02119	-0.07840
-0.18282	-0.43551
-0.18282	-0.38449
0.07220	-0.05289
0.60773	0.25320
0.32721	0.71234
0.17421	0.55929
0.25071	0.76336
0.17421	0.48277
-0.05531	-0.30797
-0.02981	-0.23145
-0.20832	-0.74160
-0.23382	-1.17523
0.12320	-0.12942
0.55673	0.99292
0.30171	1.14597
0.42922	1.14597
0.32721	0.25320
0.09770	0.07465
0.17421	-0.00188
-0.18282	0.20219
0.12320	-0.12942
-0.08081	-0.79262
-0.13181	-0.66508
-0.02981	-0.30797
0.22521	0.86539
0.32721	0.99292
0.32721	0.86539
0.37822	0.45726
0.07220	0.35523
0.02119	0.35523
0.14870	-0.35899
0.09770	-1.37929
0.09770	-1.27726
-0.31033	0.04914
-0.02981	0.78886
0.12320	0.48277
0.30171	0.63582
0.53123	0.61031
0.32721	0.35523
0.17421	0.32972
0.04670	0.07465
-0.10631	0.07465
0.02119	0.25320
0.14870	-0.00188
0.14870	-0.30797
0.30171	0.17668
0.14870	0.48277
0.12320	-0.12942
0.09770	-0.53754
0.40372	0.68683
0.45472	1.06945
0.02119	0.17668
-0.36133	-0.89465
