0.04670	-0.23145
0.17421	0.32972
-0.08081	0.07465
-0.02981	0.17668
0.12320	-0.05289
0.40372	-0.15492
0.19971	0.30422
0.19971	0.58480
0.30171	0.27871
0.30171	0.48277
0.17421	0.02363
0.02119	-0.30797
0.09770	-0.30797
-0.05531	-0.25695
-0.00431	0.45726
0.19971	0.40625
0.25071	0.43176
0.30171	-0.00188
0.17421	0.30422
0.22521	0.04914
0.22521	-0.18043
0.09770	0.07465
-0.15732	0.10015
0.04670	0.12566
0.19971	0.27871
0.30171	0.48277
0.12320	0.55929
0.32721	0.17668
0.27621	-0.12942
0.14870	0.12566
-0.08081	-0.05289
0.09770	-0.07840
0.02119	-0.10391
-0.00431	0.30422
0.07220	0.27871
0.35272	0.17668
0.22521	0.17668
0.19971	0.20219
0.25071	0.10015
0.22521	0.10015
0.07220	0.10015
0.09770	0.07465
0.07220	-0.02739
0.02119	0.25320
0.07220	0.48277
0.30171	0.30422
0.17421	0.12566
0.12320	0.32972
0.19971	-0.10391
0.19971	-0.25695
0.04670	0.10015
0.12320	0.32972
0.07220	0.07465
0.07220	0.15117
0.07220	0.25320
0.22521	0.15117
0.32721	0.12566
0.25071	0.27871
0.12320	0.20219
0.12320	-0.05289
0.22521	-0.02739
-0.00431	0.07465
-0.00431	0.30422
0.09770	0.17668
0.25071	0.15117
0.35272	0.22769
0.22521	0.25320
0.14870	0.17668
0.22521	0.10015
0.22521	-0.00188
0.09770	-0.07840
0.02119	-0.02739
-0.08081	0.22769
-0.02981	0.38074
0.17421	0.20219
0.25071	0.22769
0.19971	0.25320
0.25071	0.15117
0.30171	0.02363
0.14870	0.15117
-0.00431	0.04914
0.09770	0.02363
0.04670	0.07465
0.12320	0.17668
0.09770	0.22769
0.12320	0.40625
0.14870	0.22769
0.27621	0.10015
0.27621	-0.02739
0.25071	0.04914
-0.00431	0.07465
-0.08081	0.02363
0.09770	0.17668
-0.13181	0.15117
0.09770	0.30422
0.35272	0.50828
0.22521	0.43176
0.12320	0.10015
0.19971	-0.07840
0.25071	-0.00188
0.27621	-0.10391
0.09770	-0.00188
-0.10631	0.20219
-0.02981	0.22769
0.12320	0.20219
0.19971	0.15117
0.14870	0.10015
0.25071	0.32972
0.27621	0.22769
0.12320	0.17668
0.14870	-0.00188
0.12320	-0.00188
0.02119	0.10015
-0.08081	0.07465
0.09770	0.12566
0.19971	0.27871
0.25071	0.25320
0.14870	0.15117
0.27621	0.07465
0.27621	0.20219
0.12320	0.07465
0.02119	0.07465
0.09770	0.07465
0.02119	-0.00188
0.07220	0.22769
0.25071	0.25320
0.25071	0.27871
0.30171	0.15117
0.37822	0.10015
0.22521	0.07465
0.17421	-0.05289
0.09770	0.04914
-0.08081	0.15117
-0.13181	0.17668
0.04670	0.22769
0.17421	0.35523
0.17421	0.25320
0.22521	0.20219
0.14870	0.22769
0.17421	0.04914
0.19971	0.04914
0.17421	0.04914
0.04670	0.10015
0.04670	0.12566
0.12320	0.38074
0.25071	0.04914
0.22521	0.04914
0.14870	0.07465
0.09770	0.22769
0.22521	0.32972
0.22521	0.32972
0.09770	0.12566
-0.02981	0.12566
-0.00431	0.07465
0.04670	0.10015
0.04670	0.25320
0.14870	0.20219
0.22521	0.38074
0.22521	-0.07840
0.22521	0.10015
0.22521	-0.12942
0.14870	0.04914
-0.08081	0.07465
0.07220	0.07465
0.12320	0.17668
0.12320	0.22769
0.22521	0.25320
0.22521	0.22769
0.27621	0.17668
0.22521	0.10015
0.17421	0.12566
-0.02981	0.12566
-0.05531	0.15117
0.04670	0.25320
0.02119	0.27871
0.07220	0.25320
0.32721	0.17668
0.35272	0.17668
0.22521	0.15117
0.27621	-0.02739
0.14870	-0.10391
-0.08081	-0.05289
-0.08081	0.07465
0.04670	-0.05289
0.14870	0.32972
0.22521	0.40625
0.19971	0.53379
0.25071	0.32972
0.37822	0.17668
0.22521	0.20219
0.04670	-0.00188
0.04670	-0.20594
0.02119	-0.28246
0.02119	0.22769
-0.02981	0.30422
0.19971	0.20219
0.32721	0.15117
0.32721	0.43176
0.25071	0.38074
0.32721	0.12566
0.09770	0.10015
-0.10631	0.17668
-0.08081	0.20219
0.04670	-0.33348
0.12320	-0.02739
0.14870	0.76336
0.12320	0.25320
0.27621	-0.43551
0.32721	-0.05289
0.04670	0.04914
0.19971	0.15117
0.04670	0.15117
0.02119	0.12566
0.09770	0.25320
0.12320	0.12566
0.09770	0.22769
0.14870	0.32972
0.27621	0.32972
0.27621	0.07465
0.17421	0.27871
0.17421	-0.02739
0.12320	0.02363
-0.05531	-0.00188
0.02119	0.07465
-0.00431	0.02363
0.27621	0.48277
0.25071	0.43176
0.27621	0.20219
0.19971	-0.46102
0.02119	-0.00188
0.07220	0.30422
0.22521	0.35523
-0.02981	-0.18043
-0.08081	0.10015
0.07220	-0.25695
0.19971	0.22769
0.14870	0.35523
0.32721	0.38074
0.25071	0.83988
0.35272	0.50828
0.22521	-0.05289
0.12320	-0.35899
-0.20832	-0.23145
0.04670	0.02363
0.04670	0.25320
0.12320	0.17668
0.09770	0.45726
0.30171	0.53379
0.60773	0.27871
0.22521	0.35523
0.17421	0.04914
0.02119	-0.48652
-0.10631	-0.28246
0.19971	-0.61406
-0.05531	-0.35899
-0.10631	0.27871
0.22521	0.71234
0.04670	0.30422
0.17421	0.45726
-0.02981	0.86539
-0.13181	0.50828
0.60773	0.30422
0.32721	0.22769
0.45472	0.07465
-0.08081	-0.51203
-0.05531	0.50828
0.14870	0.12566
0.48022	-1.45582
0.48022	-1.43031
-0.33583	-0.07840
-0.28482	0.40625
-0.08081	1.09496
0.27621	1.01843
0.25071	1.50308
0.19971	0.99292
0.19971	0.55929
0.17421	1.01843
0.42922	0.10015
0.50573	-0.12942
-0.10631	-0.12942
0.42922	-2.04250
0.09770	-3.62398
-0.56534	-2.14453
-0.64185	1.32453
-0.18282	2.54890
0.50573	1.93671
0.53123	1.01843
0.60773	1.47757
0.78624	1.32453
0.30171	-0.28246
0.12320	-1.81293
-0.15732	-1.43031
0.12320	0.30422
-0.69285	1.19699
-0.43783	-0.71609
0.07220	-0.46102
0.09770	1.50308
0.40372	1.86019
0.86275	1.32453
0.58223	-1.86394
0.32721	-3.75152
-0.38683	-2.50164
-0.23382	-0.35899
-0.15732	1.55410
0.42922	3.74776
0.32721	3.44167
0.35272	0.12566
0.45472	-0.15492
0.12320	-0.12942
-0.36133	0.32972
0.12320	0.12566
0.27621	-0.38449
0.35272	0.45726
0.50573	0.50828
0.27621	-0.35899
0.37822	0.15117
-0.41233	-2.60367
-0.53984	-4.41472
0.07220	-1.20074
-0.56534	0.76336
0.14870	1.22250
0.22521	1.04394
0.25071	3.39065
0.12320	4.15589
0.68424	0.81437
1.01576	-1.12422
0.86275	-1.12422
-0.08081	1.19699
-0.25932	2.85499
0.42922	1.01843
0.40372	-3.70050
-0.13181	-2.73121
-0.33583	-0.69059
-0.05531	-1.17523
0.50573	-0.71609
0.09770	-0.05289
-0.56534	1.75816
0.12320	3.21210
0.37822	2.65093
0.35272	1.50308
0.22521	-0.05289
0.27621	-0.86914
0.14870	-2.22105
-0.33583	-1.86394
0.22521	-0.89465
0.42922	0.96742
-0.28482	2.14077
0.02119	2.21730
0.35272	0.20219
0.30171	-1.14973
0.40372	-1.53234
0.88825	0.25320
0.55673	0.43176
-0.46334	-0.43551
-0.74385	0.66132
-0.43783	1.04394
0.32721	-2.22105
0.09770	-2.39961
0.73524	1.47757
0.70974	3.11007
0.32721	2.14077
0.12320	1.29902
-0.25932	-0.12942
-0.28482	0.20219
-0.28482	0.25320
0.07220	-0.69059
0.14870	-1.27726
0.17421	-0.61406
0.55673	-0.43551
0.60773	0.55929
0.09770	0.30422
0.07220	-0.48652
0.22521	-0.84363
0.30171	-1.04770
0.17421	0.30422
-0.23382	0.32972
0.25071	1.57960
0.22521	0.89089
0.37822	2.11527
-0.13181	1.45206
0.22521	0.55929
0.12320	-0.97117
-0.46334	-2.32308
-0.23382	-0.07840
0.19971	-0.25695
0.04670	0.43176
0.42922	1.22250
0.73524	1.09496
0.86275	-0.51203
0.30171	-0.43551
-0.18282	0.27871
-0.00431	0.55929
-0.41233	0.66132
-0.28482	0.04914
0.42922	-0.15492
0.73524	0.15117
-0.25932	0.07465
-0.08081	0.02363
0.22521	-0.05289
0.42922	-0.66508
0.07220	-0.92016
0.02119	0.15117
-0.43783	-0.07840
0.22521	-1.17523
0.40372	-0.25695
0.30171	1.65613
0.37822	2.16628
0.27621	1.45206
0.27621	0.15117
0.25071	-0.66508
0.17421	-1.20074
-0.13181	0.91640
-0.41233	2.01323
0.17421	1.91120
0.42922	-0.05289
0.30171	-2.06800
0.04670	-1.43031
0.45472	-0.48652
0.73524	-1.63437
0.19971	-0.86914
-0.56534	0.15117
-0.31033	1.50308
-0.15732	1.50308
-0.05531	1.27351
0.35272	1.17148
0.60773	-0.38449
0.42922	-0.02739
0.02119	0.45726
-0.05531	-0.66508
-0.08081	-0.92016
-0.10631	-0.69059
0.27621	0.02363
0.09770	1.14597
0.73524	0.48277
0.68424	-1.04770
0.12320	-0.35899
-0.31033	0.58480
-0.48884	1.63062
0.04670	1.60511
0.30171	0.02363
0.09770	-0.30797
0.27621	0.55929
0.68424	-0.02739
0.35272	-0.18043
-0.02981	-1.04770
0.09770	-1.07320
0.12320	-0.02739
0.17421	1.68163
0.37822	1.17148
0.30171	0.45726
0.32721	-1.45582
0.04670	-3.03730
0.12320	0.63582
-0.18282	1.68163
-0.08081	1.55410
0.17421	1.42656
-0.02981	1.88570
0.60773	0.63582
0.73524	-1.68539
0.17421	-1.78742
0.07220	-0.43551
-0.08081	0.04914
-0.31033	0.40625
-0.15732	0.22769
-0.20832	0.89089
-0.23382	0.91640
0.55673	-0.46102
0.60773	-0.00188
-0.00431	0.89089
0.68424	-1.43031
0.63323	-1.58336
-0.00431	-0.28246
-0.20832	1.17148
-0.15732	1.70714
-0.00431	1.17148
0.09770	1.01843
0.17421	1.93671
0.04670	0.38074
0.48022	-1.25176
0.50573	-3.03730
-0.23382	-2.62918
-0.36133	0.61031
-0.13181	1.88570
-0.08081	1.04394
0.30171	-0.00188
0.73524	0.73785
0.68424	1.42656
0.35272	-0.25695
-0.02981	-1.04770
-0.18282	-0.51203
0.32721	-0.76711
0.27621	0.76336
-0.25932	0.61031
-0.28482	1.01843
-0.18282	1.09496
0.30171	0.99292
0.27621	-0.07840
0.14870	-1.07320
0.35272	0.00000
0.30171	0.00000
-0.18282	-0.71609
-0.05531	-0.23145
-0.23382	0.04914
-0.02981	0.20219
0.02119	0.25320
0.32721	0.35523
0.88825	0.78886
0.73524	0.12566
0.09770	-0.28246
-0.23382	-0.05289
-0.00431	-0.46102
-0.13181	-0.20594
-0.02981	0.89089
0.14870	1.35003
0.30171	1.12046
-0.08081	0.07465
-0.02981	-1.04770
0.32721	-0.38449
0.53123	0.25320
0.50573	1.68163
0.37822	1.50308
0.19971	-0.79262
-0.28482	-1.40480
-0.10631	-1.73640
-0.15732	-0.28246
0.19971	1.80917
0.30171	1.73265
0.48022	0.40625
0.14870	-1.17523
0.58223	0.50828
0.32721	1.45206
0.14870	1.19699
-0.31033	1.22250
-0.28482	-1.04770
-0.05531	-1.83844
0.22521	-0.86914
0.30171	-0.56305
-0.28482	0.91640
0.27621	1.17148
0.30171	1.01843
0.35272	0.20219
0.25071	-1.83844
-0.02981	-2.34859
-0.13181	0.04914
0.09770	3.23761
0.83725	2.47238
0.68424	0.68683
-0.25932	-2.57816
-0.51434	-2.70570
-0.13181	1.17148
0.19971	2.80397
0.07220	1.75816
0.09770	0.94191
0.42922	0.66132
0.14870	-0.10391
0.04670	-1.53234
0.09770	-1.30277
0.19971	-0.76711
0.37822	-0.18043
0.32721	0.76336
0.19971	0.96742
0.19971	0.91640
0.09770	-0.28246
0.27621	-1.02219
0.12320	0.35523
-0.38683	0.45726
-0.31033	0.61031
0.14870	-1.14973
0.19971	-2.47613
0.22521	0.66132
0.42922	1.63062
0.42922	1.86019
0.02119	2.03874
-0.28482	0.94191
-0.36133	0.22769
0.14870	0.22769
0.50573	0.66132
0.65874	0.66132
0.81175	-0.20594
0.45472	-1.88945
0.22521	-2.11902
0.30171	-0.92016
-0.48884	-0.76711
-0.82036	-0.56305
-0.71835	0.30422
-0.18282	1.12046
0.32721	2.14077
0.22521	1.63062
0.68424	-0.18043
0.45472	0.76336
0.19971	-0.94566
0.22521	0.07465
0.04670	0.81437
0.02119	0.48277
0.60773	-0.51203
0.58223	-0.02739
0.42922	-0.46102
0.25071	-0.30797
-0.00431	1.27351
-0.05531	0.91640
-0.10631	0.04914
-0.23382	-0.86914
-0.20832	-0.46102
0.04670	0.58480
0.04670	0.45726
0.22521	0.78886
0.58223	1.22250
0.25071	0.68683
0.27621	-2.42511
0.32721	-2.11902
0.48022	-0.41000
-0.08081	0.02363
-0.33583	0.78886
-0.15732	1.52859
0.07220	1.88570
0.45472	1.22250
0.76074	2.08976
-0.08081	1.04394
-0.28482	-1.04770
-0.20832	-3.52195
0.07220	-2.96078
0.37822	0.86539
0.09770	2.03874
0.12320	0.35523
0.40372	-0.89465
0.27621	0.20219
-0.13181	0.76336
0.30171	1.09496
0.27621	0.53379
0.32721	0.45726
0.19971	0.99292
0.12320	0.55929
0.42922	0.20219
-0.05531	0.10015
-0.25932	-1.63437
0.02119	-0.63957
-0.00431	0.20219
-0.05531	0.30422
0.50573	0.25320
0.60773	0.04914
0.25071	0.78886
-0.41233	-0.43551
-0.25932	-0.86914
-0.28482	0.71234
0.65874	1.19699
0.83725	-0.10391
0.45472	-2.80773
0.12320	0.02363
0.12320	2.19179
0.42922	1.86019
0.25071	1.50308
-0.15732	0.04914
-0.31033	0.07465
0.07220	-0.05289
-0.43783	-1.27726
0.04670	-2.14453
0.58223	0.04914
0.07220	0.63582
0.25071	1.40105
0.27621	1.17148
0.19971	0.25320
0.42922	0.20219
0.48022	0.48277
0.12320	-0.20594
-0.28482	-0.74160
-0.20832	-0.33348
0.19971	-0.66508
0.63323	-0.94566
0.09770	-1.22625
0.12320	1.19699
0.19971	2.14077
0.22521	1.70714
0.19971	1.37554
-0.23382	0.07465
-0.00431	-1.81293
0.02119	-0.12942
0.55673	-0.56305
0.22521	0.78886
-0.31033	0.83988
0.12320	-1.20074
0.27621	-0.81812
0.14870	0.15117
0.35272	1.52859
0.32721	1.32453
0.02119	0.17668
-0.00431	0.89089
0.22521	-0.12942
0.19971	-1.83844
0.40372	-0.66508
-0.08081	1.14597
0.02119	1.42656
0.60773	0.61031
0.27621	-0.02739
-0.48884	-0.51203
-0.41233	-0.79262
0.02119	0.04914
0.14870	-1.53234
0.42922	-0.25695
0.35272	-0.71609
0.30171	2.03874
0.32721	1.70714
0.42922	1.27351
-0.15732	1.17148
-0.20832	-0.46102
0.25071	-0.66508
0.22521	-0.48652
0.27621	0.27871
0.37822	1.29902
0.55673	0.50828
0.07220	-0.69059
-0.31033	-3.06281
-0.23382	-1.63437
-0.20832	0.96742
0.48022	1.45206
0.42922	1.57960
0.17421	1.45206
0.40372	1.37554
0.14870	0.15117
0.81175	-0.43551
0.37822	-0.30797
0.22521	-0.79262
-0.43783	-0.74160
-0.48884	-0.74160
-0.15732	0.55929
0.12320	1.75816
-0.00431	0.83988
0.25071	-2.27207
0.35272	-1.22625
0.63323	-0.35899
0.63323	1.55410
0.48022	1.78367
-0.00431	1.42656
-0.25932	1.17148
-0.25932	0.17668
0.12320	0.32972
0.30171	0.35523
-0.18282	-0.41000
0.04670	-1.65988
0.48022	-1.50683
0.53123	-0.15492
0.04670	-0.66508
0.22521	0.73785
0.04670	1.22250
-0.15732	1.12046
0.12320	0.89089
0.35272	0.27871
0.42922	-0.61406
0.07220	-0.33348
0.32721	0.50828
-0.02981	1.42656
-0.13181	0.35523
-0.13181	-1.81293
0.19971	-3.16484
0.70974	-0.12942
0.35272	2.26831
0.17421	1.06945
0.09770	0.35523
-0.13181	0.83988
0.04670	1.40105
-0.08081	0.45726
-0.00431	-0.18043
0.09770	-0.81812
0.35272	-0.86914
0.27621	0.02363
0.07220	0.10015
0.25071	0.17668
0.27621	0.78886
0.32721	0.53379
0.19971	0.43176
-0.10631	0.76336
0.14870	0.83988
0.14870	-1.04770
0.02119	-1.43031
-0.28482	0.30422
0.17421	0.86539
0.55673	0.48277
0.22521	-1.32828
0.35272	-2.60367
0.40372	0.96742
-0.05531	2.34484
-0.33583	2.01323
0.14870	0.83988
0.19971	0.22769
0.04670	-0.00188
0.02119	-0.76711
-0.48884	-0.51203
0.37822	0.30422
1.04126	0.81437
0.40372	1.42656
-0.08081	0.32972
0.30171	-1.78742
0.32721	-0.92016
-0.05531	-0.46102
-0.59084	-0.10391
-0.18282	0.45726
0.07220	0.68683
0.35272	0.89089
0.32721	0.53379
0.32721	0.17668
0.42922	-0.00188
0.30171	0.25320
0.04670	0.89089
-0.10631	-0.33348
-0.13181	-0.84363
0.04670	-0.79262
0.40372	0.71234
0.35272	1.52859
0.30171	1.63062
-0.02981	-0.43551
-0.15732	-2.32308
-0.02981	-0.63957
0.09770	0.55929
-0.02981	1.68163
0.19971	1.65613
0.42922	0.94191
0.17421	-1.09871
0.17421	-2.50164
0.53123	-0.10391
0.25071	0.50828
-0.00431	0.40625
0.07220	0.53379
0.14870	1.06945
0.07220	0.61031
0.07220	0.48277
-0.13181	0.40625
-0.00431	-0.00188
0.48022	-0.18043
0.12320	-0.10391
0.30171	0.10015
0.12320	-0.38449
0.48022	0.22769
0.07220	-0.81812
0.04670	-0.74160
-0.28482	0.02363
0.27621	0.83988
0.30171	1.37554
-0.00431	1.75816
-0.02981	-1.20074
0.42922	-1.53234
0.12320	-0.66508
0.25071	1.52859
0.30171	1.45206
0.32721	1.32453
-0.08081	-0.66508
-0.00431	-0.76711
-0.02981	0.89089
0.12320	0.45726
0.32721	0.99292
0.32721	0.61031
0.22521	-0.20594
-0.10631	-0.76711
-0.13181	-1.12422
0.04670	-0.35899
0.07220	-0.66508
-0.02981	-1.07320
0.70974	0.83988
0.58223	1.47757
0.37822	0.76336
0.07220	0.66132
0.07220	-0.51203
-0.10631	-0.56305
0.12320	0.63582
0.55673	1.91120
0.19971	2.29382
-0.33583	-1.60887
-0.28482	-3.52195
0.17421	-0.56305
0.68424	1.22250
-0.08081	0.15117
0.14870	-0.18043
0.25071	0.91640
0.14870	1.70714
0.19971	1.27351
0.17421	1.14597
0.07220	0.38074
-0.69285	-0.25695
0.70974	-0.51203
1.27078	-0.23145
0.37822	-0.28246
-0.08081	-0.10391
0.02119	-0.41000
-0.20832	-2.39961
-0.31033	-1.12422
-0.20832	-0.05289
-0.00431	0.91640
0.17421	1.73265
0.02119	1.32453
0.73524	0.45726
0.25071	0.15117
0.60773	0.68683
0.37822	0.38074
0.09770	-0.99668
-0.15732	-0.61406
0.09770	0.76336
0.14870	1.65613
0.27621	1.78367
0.27621	-0.02739
0.04670	-2.57816
0.22521	-1.94047
-0.00431	1.27351
-0.08081	1.78367
-0.20832	0.40625
0.07220	-0.86914
-0.02981	-0.23145
0.27621	0.61031
0.14870	0.96742
0.19971	0.81437
0.37822	-0.25695
0.37822	-1.12422
0.63323	-0.25695
-0.13181	-0.18043
-0.18282	-0.81812
0.19971	0.02363
0.27621	0.81437
-0.18282	1.57960
-0.38683	1.17148
-0.00431	0.20219
0.35272	-0.76711
0.58223	-1.30277
0.32721	0.02363
-0.18282	-0.18043
0.09770	0.63582
0.19971	1.19699
0.17421	0.91640
0.09770	0.99292
0.37822	1.12046
0.22521	0.20219
0.40372	-1.45582
0.53123	-0.38449
0.14870	-0.92016
-0.13181	-0.05289
-0.10631	0.17668
-0.31033	0.22769
-0.08081	0.81437
0.07220	0.63582
0.12320	0.43176
-0.05531	-0.15492
0.35272	0.20219
0.27621	-0.25695
0.70974	-0.66508
0.83725	-1.07320
-0.05531	0.53379
-0.23382	0.25320
-0.05531	1.65613
0.12320	0.25320
0.45472	-0.15492
0.40372	0.22769
-0.00431	-0.02739
-0.10631	0.25320
0.02119	0.43176
0.07220	0.76336
0.09770	0.83988
0.17421	0.83988
-0.08081	0.35523
0.02119	-0.33348
0.22521	-0.74160
0.50573	-0.15492
0.45472	-0.61406
0.07220	-0.86914
0.07220	0.04914
-0.00431	0.27871
0.14870	0.20219
-0.02981	-0.71609
-0.23382	-0.02739
0.14870	1.04394
0.63323	0.96742
0.22521	0.04914
-0.00431	0.63582
0.04670	1.78367
-0.20832	1.55410
-0.02981	-1.55785
0.17421	-1.91496
0.04670	-0.43551
-0.05531	0.38074
0.12320	0.78886
0.48022	1.17148
0.55673	2.08976
0.70974	0.83988
0.63323	-1.91496
-0.13181	-2.37410
-0.28482	-1.07320
-0.20832	0.81437
-0.48884	1.12046
-0.15732	1.50308
0.27621	0.86539
0.45472	0.15117
0.19971	0.15117
0.37822	0.27871
0.48022	-0.46102
0.55673	-0.23145
0.07220	-0.12942
-0.13181	-0.61406
-0.56534	-1.12422
0.19971	0.58480
-0.02981	1.50308
0.02119	1.01843
0.60773	0.35523
0.60773	-0.48652
-0.02981	-1.04770
0.09770	-0.05289
-0.13181	0.55929
-0.05531	0.50828
-0.10631	0.22769
0.45472	0.45726
0.35272	-0.12942
0.02119	0.20219
0.02119	0.53379
0.07220	0.55929
0.30171	0.17668
0.50573	0.45726
0.30171	0.53379
0.53123	-0.89465
-0.10631	-1.68539
-0.25932	-0.30797
-0.13181	0.22769
-0.13181	0.30422
-0.05531	1.01843
0.09770	3.56921
0.70974	3.08456
0.07220	-2.88425
0.40372	-6.04721
-0.05531	-3.01179
-0.18282	0.83988
-0.08081	3.39065
0.12320	3.05905
0.40372	1.96222
0.60773	1.06945
0.40372	0.35523
0.25071	0.32972
-0.08081	-0.61406
-0.10631	-1.22625
0.07220	-1.09871
-0.02981	-0.10391
0.02119	-0.20594
-0.00431	-0.23145
0.35272	0.15117
0.32721	0.53379
0.02119	0.35523
0.22521	0.30422
0.42922	0.48277
0.40372	0.10015
-0.00431	-0.56305
-0.05531	-0.30797
-0.13181	-0.05289
-0.25932	0.12566
0.70974	1.17148
0.25071	0.99292
0.30171	0.71234
0.07220	0.27871
0.14870	-0.28246
0.04670	-0.05289
-0.10631	1.04394
0.45472	0.27871
-0.18282	-0.69059
0.22521	0.02363
0.63323	-1.12422
0.60773	-0.05289
-0.23382	-0.20594
-0.20832	0.61031
0.04670	-0.10391
0.02119	0.27871
-0.08081	1.47757
0.17421	0.86539
0.12320	-0.46102
0.09770	-0.94566
0.40372	-0.15492
0.14870	0.71234
0.17421	0.45726
0.12320	0.40625
0.19971	0.50828
0.37822	0.38074
0.09770	-0.41000
-0.08081	-0.99668
-0.00431	-1.17523
-0.10631	0.20219
0.25071	0.63582
0.68424	0.71234
0.42922	0.78886
0.07220	0.55929
0.04670	0.25320
0.17421	0.30422
-0.02981	0.27871
-0.08081	0.12566
-0.18282	-0.58856
0.02119	-1.22625
0.32721	-1.04770
-0.15732	0.48277
0.78624	1.55410
0.42922	1.37554
0.27621	1.04394
0.27621	0.30422
-0.13181	-1.40480
-0.15732	-1.32828
-0.00431	0.76336
0.32721	1.68163
0.37822	1.01843
0.14870	-0.58856
-0.36133	-1.45582
0.07220	-0.48652
0.27621	1.01843
-0.08081	0.50828
-0.13181	0.38074
0.19971	0.63582
0.27621	0.78886
0.42922	0.76336
0.30171	0.02363
0.30171	-1.71090
0.19971	-0.66508
0.07220	0.38074
0.22521	0.32972
0.02119	-0.00188
-0.02981	0.45726
0.09770	0.94191
-0.10631	0.86539
-0.02981	-0.63957
0.19971	-1.96597
0.40372	0.15117
0.19971	0.73785
0.32721	1.17148
0.55673	0.86539
0.02119	0.25320
-0.18282	-0.05289
0.12320	0.35523
0.14870	0.20219
-0.05531	-0.51203
-0.13181	0.12566
0.12320	-0.35899
0.07220	-1.73640
0.22521	0.02363
0.25071	1.04394
0.30171	1.60511
0.55673	1.57960
0.07220	1.04394
0.17421	0.50828
0.32721	-0.74160
-0.02981	-1.30277
-0.23382	0.02363
-0.08081	0.86539
0.30171	-0.43551
0.22521	-1.04770
0.37822	0.50828
0.30171	0.55929
0.04670	-0.30797
-0.18282	0.07465
0.02119	0.66132
-0.02981	1.29902
-0.10631	0.50828
0.32721	-0.86914
0.37822	-0.18043
0.12320	0.15117
-0.18282	0.02363
0.25071	0.02363
0.17421	0.32972
-0.08081	0.07465
-0.02981	-0.74160
-0.08081	0.68683
1.16877	1.88570
0.58223	0.55929
-0.10631	-0.48652
-0.53984	-0.28246
-0.20832	-0.12942
0.22521	0.40625
-0.20832	0.02363
0.07220	0.20219
0.12320	-0.35899
0.50573	-0.97117
0.60773	-0.20594
0.55673	1.09496
0.02119	1.04394
-0.10631	0.76336
-0.00431	0.02363
0.32721	-0.99668
0.04670	0.58480
-0.15732	0.04914
-0.15732	-0.53754
0.09770	-0.46102
0.42922	0.32972
0.42922	0.76336
0.14870	0.86539
0.09770	1.27351
0.22521	0.55929
0.09770	-1.25176
-0.20832	-1.71090
-0.23382	-1.25176
-0.10631	0.55929
0.19971	1.09496
0.22521	0.94191
0.60773	0.76336
0.73524	0.89089
0.32721	0.96742
-0.02981	0.55929
-0.36133	-0.33348
-0.08081	-0.41000
0.14870	-1.02219
0.17421	-0.58856
0.22521	-0.15492
0.19971	0.10015
0.17421	0.22769
-0.10631	0.43176
0.32721	0.73785
0.19971	0.10015
-0.05531	0.99292
0.48022	1.63062
0.37822	-0.46102
-0.28482	0.04914
-0.28482	0.63582
-0.13181	-1.83844
0.19971	-2.50164
0.60773	-0.94566
0.07220	1.63062
0.58223	2.06425
0.81175	2.01323
-0.25932	1.29902
-0.38683	0.02363
0.22521	-0.30797
0.50573	-0.00188
0.02119	-0.30797
-0.25932	-0.10391
0.02119	-0.10391
0.04670	-0.30797
-0.02981	-0.66508
0.32721	-0.33348
0.22521	0.20219
0.17421	0.32972
0.30171	0.73785
0.37822	0.71234
0.30171	-0.15492
0.19971	-0.28246
0.17421	-0.00188
0.07220	1.14597
0.19971	0.86539
0.30171	-1.43031
0.04670	0.22769
-0.15732	0.40625
-0.36133	0.07465
0.02119	0.66132
0.35272	1.01843
0.35272	0.22769
0.40372	0.94191
0.14870	0.78886
0.12320	0.10015
-0.02981	-3.77702
0.17421	-1.73640
0.19971	1.06945
0.22521	1.40105
0.04670	1.22250
0.25071	1.17148
0.35272	-0.51203
-0.13181	-0.66508
-0.00431	0.35523
0.32721	0.58480
0.30171	0.45726
0.32721	0.53379
0.37822	0.17668
-0.05531	0.30422
0.04670	0.12566
0.27621	-1.32828
0.09770	-1.35379
0.22521	-1.07320
0.09770	-0.56305
0.27621	0.78886
0.04670	1.32453
-0.02981	1.86019
-0.08081	1.68163
0.02119	1.19699
0.37822	0.96742
0.19971	0.61031
0.17421	-0.02739
0.32721	-1.27726
0.32721	-2.24656
0.04670	-0.33348
-0.10631	-2.27207
0.40372	-0.33348
0.37822	1.12046
0.04670	1.40105
-0.13181	1.14597
-0.69285	1.01843
0.42922	0.86539
0.32721	0.43176
0.12320	-0.18043
0.40372	-0.71609
-0.00431	-0.51203
0.04670	0.04914
0.22521	0.17668
0.35272	0.53379
0.25071	0.43176
0.19971	0.48277
-0.02981	-0.63957
-0.25932	-0.66508
0.14870	0.25320
0.27621	0.35523
0.17421	0.15117
0.02119	0.38074
0.14870	0.76336
0.30171	1.12046
0.22521	1.29902
0.40372	0.78886
0.14870	-1.27726
0.07220	-2.75671
-0.08081	-1.53234
0.17421	1.47757
0.27621	2.80397
0.22521	0.96742
-0.20832	0.30422
0.30171	-0.33348
-0.05531	-2.39961
0.09770	-0.89465
0.17421	-0.00188
0.32721	0.22769
0.32721	2.06425
0.35272	1.80917
0.30171	0.91640
-0.33583	0.43176
0.02119	-0.48652
0.30171	-0.94566
-0.00431	-0.43551
0.19971	0.20219
0.27621	0.35523
0.22521	-0.02739
0.19971	-0.23145
0.22521	0.04914
-0.08081	0.55929
-0.15732	0.30422
-0.05531	-0.35899
0.14870	-0.15492
0.22521	-0.63957
0.40372	-0.61406
0.12320	0.76336
0.02119	0.94191
0.09770	0.78886
0.14870	0.96742
0.32721	0.12566
0.37822	-0.43551
-0.02981	0.15117
-0.00431	-0.00188
0.22521	-0.89465
0.02119	0.32972
0.09770	0.99292
0.12320	0.76336
0.07220	0.78886
0.27621	0.40625
0.17421	0.25320
-0.08081	-1.45582
-0.31033	-1.81293
0.30171	-0.07840
0.53123	1.98773
-0.05531	1.57960
0.63323	-0.63957
0.25071	-1.58336
-0.10631	-0.35899
-0.08081	-0.71609
-0.13181	0.20219
0.32721	1.37554
0.48022	1.96222
0.14870	1.32453
0.04670	0.55929
0.04670	0.25320
-0.05531	0.10015
-0.08081	-0.28246
-0.23382	-0.46102
0.35272	-0.07840
0.37822	-0.46102
0.32721	-1.45582
-0.23382	-1.58336
-0.05531	-0.12942
0.40372	1.24800
0.55673	0.96742
0.53123	0.48277
0.27621	0.83988
0.22521	0.48277
0.09770	0.25320
-0.51434	0.15117
-0.38683	0.35523
0.02119	0.10015
-0.00431	0.20219
0.30171	0.12566
0.37822	0.04914
0.53123	0.61031
0.40372	-0.28246
0.04670	-0.76711
0.12320	0.04914
-0.00431	0.12566
0.07220	0.02363
0.27621	-1.50683
-0.08081	-0.35899
0.19971	1.57960
0.17421	2.29382
0.19971	2.49788
0.17421	0.76336
0.25071	-1.40480
0.09770	-0.86914
0.09770	-1.35379
-0.20832	-2.04250
0.19971	-0.12942
0.12320	1.17148
0.09770	1.55410
0.07220	1.06945
0.27621	1.06945
0.48022	0.94191
0.09770	0.12566
0.04670	-0.48652
-0.10631	-0.25695
-0.10631	-0.35899
0.32721	-0.81812
0.40372	-1.48133
0.07220	-1.91496
0.35272	0.55929
0.19971	1.83468
-0.05531	1.96222
0.14870	1.06945
0.04670	-0.92016
-0.08081	0.55929
0.09770	1.01843
0.02119	-0.53754
-0.08081	-1.12422
0.02119	-0.15492
0.14870	0.68683
0.42922	0.81437
0.55673	0.78886
0.12320	0.15117
0.27621	0.55929
0.17421	0.38074
0.35272	0.04914
-0.02981	-0.48652
0.09770	-0.25695
0.22521	0.32972
0.14870	0.12566
0.02119	-0.79262
0.12320	-1.43031
-0.10631	-0.12942
0.02119	0.15117
-0.10631	1.06945
0.07220	1.50308
0.32721	1.27351
0.19971	0.58480
0.07220	-0.86914
0.17421	0.04914
0.27621	-0.41000
0.40372	0.38074
0.32721	1.04394
0.12320	0.94191
0.02119	-0.84363
-0.02981	-2.42511
0.07220	-0.07840
0.12320	1.50308
0.17421	1.24800
0.12320	0.66132
0.04670	-0.46102
0.27621	0.04914
-0.13181	0.32972
0.40372	0.20219
0.04670	0.66132
-0.23382	-0.43551
-0.23382	-0.43551
-0.56534	-0.10391
0.25071	0.12566
0.86275	0.32972
0.55673	0.86539
0.07220	0.55929
0.37822	0.02363
0.65874	0.07465
0.35272	0.15117
-0.08081	0.17668
-0.38683	0.07465
-0.28482	-0.46102
-0.00431	-0.10391
0.22521	0.50828
0.27621	0.94191
0.63323	0.68683
-0.02981	-0.20594
-0.18282	-0.81812
0.19971	-0.28246
0.07220	0.43176
0.09770	-0.56305
0.22521	0.22769
0.25071	1.32453
0.17421	1.52859
0.14870	0.73785
0.07220	-1.14973
-0.08081	-0.71609
0.19971	0.02363
0.42922	0.20219
0.02119	0.35523
0.19971	0.63582
0.19971	1.14597
0.30171	-0.56305
0.07220	-1.17523
0.04670	-0.56305
0.02119	-0.53754
0.14870	0.96742
0.17421	1.27351
0.07220	0.86539
0.17421	0.78886
-0.10631	0.43176
-0.18282	-0.02739
0.88825	0.25320
0.63323	-0.89465
0.27621	-0.92016
-0.10631	-0.28246
-0.00431	-0.23145
0.14870	-0.07840
0.09770	0.66132
-0.05531	0.99292
-0.20832	0.45726
-0.02981	0.61031
0.53123	0.78886
0.40372	-0.00188
-0.08081	-2.39961
0.17421	-1.30277
0.14870	0.32972
0.14870	1.24800
0.22521	1.37554
0.27621	0.71234
0.04670	0.43176
0.22521	1.29902
0.45472	1.01843
0.70974	-0.18043
-0.28482	-0.74160
-0.36133	-1.07320
-0.23382	-1.65988
0.30171	-0.35899
0.27621	0.45726
-0.33583	0.78886
0.19971	0.61031
0.73524	0.27871
0.48022	0.48277
-0.08081	0.63582
-0.25932	-0.30797
-0.13181	-0.63957
0.25071	0.12566
0.55673	0.32972
0.58223	0.25320
0.09770	0.66132
-0.48884	0.73785
-0.18282	0.61031
-0.00431	-0.46102
0.04670	-0.18043
0.35272	0.55929
0.32721	0.76336
0.32721	0.86539
0.40372	-1.09871
0.53123	-1.58336
0.12320	-0.15492
0.02119	0.63582
-0.08081	0.38074
-0.18282	0.58480
-0.02981	0.73785
0.07220	0.96742
0.45472	0.45726
0.37822	0.25320
0.14870	-0.05289
-0.15732	0.04914
-0.18282	-0.00188
0.27621	-0.25695
0.12320	-1.04770
-0.23382	-1.17523
0.17421	-1.20074
0.37822	-0.00188
0.42922	1.63062
0.25071	1.32453
0.19971	1.40105
0.22521	1.09496
0.02119	0.53379
-0.05531	-0.02739
-0.25932	-0.28246
-0.08081	0.53379
0.50573	-0.35899
0.40372	-1.53234
0.37822	-0.97117
0.07220	-0.10391
0.07220	-0.38449
0.12320	1.52859
0.48022	2.06425
0.09770	-0.07840
-0.56534	-1.35379
-0.36133	-0.48652
0.12320	0.81437
0.22521	1.19699
0.35272	0.86539
0.42922	0.58480
0.32721	0.38074
0.30171	0.30422
0.17421	-0.30797
-0.25932	-0.61406
-0.05531	-0.48652
0.25071	-0.05289
0.07220	0.12566
0.07220	0.27871
0.02119	-0.00188
0.14870	-0.18043
0.50573	0.35523
0.22521	0.07465
0.22521	0.58480
-0.38683	0.38074
-0.00431	-0.25695
0.35272	0.63582
0.32721	0.63582
-0.05531	0.22769
0.17421	0.12566
0.86275	-0.86914
0.04670	-1.07320
-0.00431	-0.48652
-0.20832	-0.05289
-0.18282	1.42656
0.09770	1.52859
0.35272	1.22250
0.09770	1.27351
0.30171	0.71234
0.19971	-0.20594
0.32721	-1.02219
-0.13181	-1.22625
0.04670	-0.97117
0.83725	0.10015
0.35272	0.10015
-0.10631	-0.15492
-0.02981	0.12566
-0.02981	0.78886
-0.10631	-0.28246
0.12320	-0.66508
0.07220	0.45726
-0.02981	1.01843
0.22521	1.17148
0.48022	0.76336
-0.28482	0.10015
-0.02981	-0.89465
0.78624	-0.63957
0.53123	-0.20594
0.12320	0.12566
-0.00431	0.71234
-0.10631	0.94191
-0.08081	0.86539
-0.05531	0.53379
0.07220	0.04914
0.32721	-0.20594
-0.10631	-0.00188
-0.00431	-0.46102
0.19971	-1.07320
0.30171	0.20219
0.50573	0.91640
0.30171	0.27871
0.27621	-1.07320
0.48022	-0.30797
0.22521	0.81437
-0.20832	0.83988
-0.41233	0.58480
-0.31033	0.53379
-0.00431	1.37554
0.02119	0.99292
0.76074	-0.15492
0.22521	-3.16484
-0.02981	-2.93527
-0.08081	-0.07840
0.19971	2.49788
0.30171	2.08976
0.22521	1.50308
0.50573	1.09496
0.42922	0.71234
0.07220	0.35523
-0.00431	-0.05289
0.12320	-0.97117
-0.13181	-2.45062
0.07220	-0.51203
-0.00431	0.45726
0.02119	0.35523
0.19971	0.07465
0.37822	0.22769
0.35272	0.53379
0.09770	0.78886
0.02119	0.35523
-0.00431	-0.07840
0.09770	-0.10391
0.02119	0.02363
0.14870	0.43176
0.04670	0.71234
0.12320	0.35523
0.63323	0.35523
0.45472	-1.30277
-0.00431	-0.35899
-0.08081	0.66132
0.14870	0.55929
0.09770	0.40625
0.07220	0.61031
-0.13181	0.43176
0.09770	-0.20594
0.45472	-0.38449
-0.18282	-0.30797
0.07220	0.27871
0.25071	0.45726
0.35272	0.43176
0.48022	0.38074
0.22521	0.30422
-0.02981	0.25320
-0.25932	-0.02739
-0.10631	-0.46102
-0.05531	-0.46102
0.22521	-0.30797
0.53123	-0.07840
0.42922	0.32972
0.27621	0.68683
-0.00431	0.71234
0.04670	0.63582
0.37822	0.66132
0.12320	0.63582
0.07220	-0.63957
-0.00431	-1.20074
0.02119	-0.58856
-0.02981	0.12566
-0.08081	0.22769
0.19971	0.55929
0.55673	1.60511
0.40372	1.75816
0.07220	1.09496
0.07220	-0.86914
0.02119	-1.40480
0.09770	-0.51203
0.07220	0.38074
0.19971	-1.14973
0.17421	-0.97117
0.40372	1.27351
0.09770	1.83468
0.12320	1.04394
0.02119	-0.43551
-0.13181	-0.56305
-0.13181	-0.00188
0.09770	0.63582
0.37822	0.91640
0.25071	0.96742
0.40372	0.48277
0.25071	-1.78742
-0.10631	-2.57816
0.04670	-0.15492
0.30171	-0.07840
0.07220	0.83988
0.17421	1.40105
-0.00431	1.52859
0.17421	1.27351
0.04670	0.04914
-0.15732	-0.71609
-0.18282	0.10015
0.27621	0.10015
0.35272	-0.30797
0.32721	0.66132
0.19971	0.91640
0.12320	-0.46102
-0.10631	-1.43031
0.14870	-0.63957
0.50573	0.66132
0.27621	0.68683
0.19971	0.76336
0.17421	0.66132
-0.23382	0.43176
0.58223	0.32972
0.22521	0.50828
-0.51434	-0.53754
-0.28482	-1.53234
-0.02981	-1.78742
0.40372	-0.15492
0.40372	1.04394
0.45472	1.42656
-0.23382	1.45206
0.55673	1.24800
0.42922	0.94191
0.14870	0.25320
-0.13181	-0.02739
-0.20832	-0.56305
-0.13181	-1.14973
0.19971	-1.04770
0.19971	-0.33348
0.19971	0.20219
0.04670	0.40625
0.19971	0.73785
0.19971	0.48277
0.27621	0.43176
0.04670	0.32972
0.12320	0.76336
-0.02981	0.78886
-0.02981	-1.07320
0.32721	-1.30277
0.50573	0.22769
0.27621	1.12046
0.04670	0.53379
0.02119	0.53379
0.19971	0.73785
0.12320	0.15117
0.22521	-0.58856
0.25071	0.66132
0.12320	0.99292
0.14870	-0.07840
-0.18282	-3.44542
0.02119	-2.06800
0.27621	1.68163
0.02119	2.06425
0.02119	1.32453
0.12320	0.76336
0.27621	0.40625
0.30171	0.25320
0.22521	0.27871
-0.00431	0.32972
0.27621	0.07465
0.17421	-0.46102
0.09770	-0.74160
0.22521	-0.35899
0.14870	-0.38449
0.09770	-0.07840
-0.02981	0.30422
0.07220	-0.07840
0.25071	0.40625
0.25071	0.99292
-0.05531	-0.86914
-0.05531	-0.71609
-0.02981	0.27871
0.27621	1.42656
0.40372	1.40105
-0.00431	0.83988
0.25071	0.55929
0.50573	0.40625
0.42922	-0.05289
0.22521	-0.99668
0.30171	-0.25695
-0.02981	0.15117
-0.33583	-0.07840
-0.31033	-0.05289
0.07220	0.38074
0.17421	-0.02739
0.22521	-0.25695
0.12320	-0.00188
0.32721	0.45726
0.48022	0.35523
0.27621	0.27871
0.27621	0.07465
0.37822	0.50828
-0.08081	0.58480
-0.23382	-0.25695
-0.05531	-0.61406
0.12320	-0.46102
0.07220	-0.33348
0.22521	0.35523
0.53123	-0.07840
0.45472	0.68683
-0.08081	1.88570
0.19971	1.37554
0.12320	1.12046
-0.23382	-0.28246
-0.38683	-0.10391
-0.13181	-1.17523
0.40372	-3.41992
0.27621	-0.43551
0.30171	1.55410
0.50573	1.52859
0.35272	1.35003
0.22521	0.96742
0.12320	0.43176
0.27621	0.17668
0.09770	-1.04770
0.22521	-0.76711
-0.23382	0.30422
-0.15732	-0.51203
-0.28482	-1.07320
0.19971	0.22769
0.32721	0.86539
0.40372	0.73785
0.12320	0.61031
0.35272	0.63582
0.19971	0.48277
-0.10631	0.35523
0.09770	-0.35899
0.40372	-0.00188
-0.00431	0.32972
0.55673	0.43176
0.19971	0.10015
0.07220	-0.23145
-0.18282	-1.40480
-0.13181	-1.04770
0.04670	0.78886
0.53123	1.37554
0.22521	1.04394
0.22521	0.12566
0.32721	-0.12942
0.12320	0.63582
0.04670	0.30422
0.14870	-0.05289
0.02119	-0.51203
-0.00431	-0.30797
-0.25932	0.40625
-0.08081	-0.23145
0.58223	0.15117
0.53123	0.73785
0.32721	0.94191
0.27621	0.10015
0.12320	-0.25695
0.14870	-0.18043
-0.00431	-0.35899
0.27621	0.35523
0.14870	0.35523
0.09770	0.40625
-0.08081	0.20219
-0.31033	0.10015
0.09770	0.04914
0.40372	-0.10391
0.40372	0.10015
0.14870	0.27871
0.09770	-0.25695
0.07220	0.02363
0.12320	-0.07840
-0.00431	0.45726
0.22521	0.78886
0.22521	0.35523
0.19971	0.17668
0.14870	1.50308
0.09770	0.30422
0.12320	-1.27726
0.02119	-2.06800
0.19971	-0.71609
0.17421	0.38074
-0.05531	1.42656
0.09770	1.50308
0.27621	1.57960
0.04670	1.09496
0.22521	0.86539
0.17421	-1.35379
0.04670	-2.24656
-0.05531	-0.71609
0.02119	0.32972
0.12320	0.66132
0.17421	0.86539
0.19971	0.55929
0.32721	-0.25695
0.25071	-0.35899
0.22521	0.22769
0.37822	-0.00188
-0.02981	0.25320
-0.02981	0.50828
0.19971	0.94191
0.19971	0.61031
0.07220	0.04914
-0.00431	-0.58856
-0.10631	0.27871
0.07220	0.22769
0.37822	0.17668
0.12320	-0.81812
-0.02981	-0.51203
0.04670	0.10015
0.02119	0.32972
0.12320	1.04394
0.30171	0.45726
0.17421	-0.20594
0.17421	0.10015
0.40372	-0.25695
0.22521	-0.07840
0.42922	0.78886
0.32721	0.73785
-0.05531	-0.30797
-0.13181	-0.05289
-0.28482	0.25320
-0.00431	-0.02739
0.14870	0.53379
0.12320	0.35523
0.22521	-0.05289
0.30171	0.04914
0.37822	0.10015
0.09770	-0.12942
-0.02981	-0.76711
-0.08081	-1.50683
0.12320	0.35523
0.30171	1.27351
0.63323	1.98773
0.48022	1.47757
0.12320	0.86539
-0.18282	-0.58856
0.02119	-0.89465
-0.41233	-0.56305
0.09770	-0.10391
0.32721	-0.15492
0.02119	-0.18043
0.02119	0.35523
0.32721	0.58480
0.55673	0.61031
0.45472	0.76336
0.07220	0.94191
0.22521	-0.48652
0.19971	-1.12422
0.09770	-1.55785
0.17421	-1.07320
0.07220	0.40625
-0.08081	1.29902
-0.08081	1.17148
-0.02981	0.96742
0.07220	0.68683
0.07220	0.73785
0.07220	0.22769
1.09226	-0.28246
0.19971	-0.25695
-0.13181	-0.86914
0.30171	-0.94566
0.30171	-0.63957
0.19971	0.43176
0.07220	1.04394
-0.10631	1.09496
-0.05531	0.43176
-0.00431	0.40625
0.07220	1.04394
0.07220	0.73785
0.17421	-0.28246
0.09770	-1.94047
0.35272	-2.42511
0.27621	-0.07840
0.17421	1.22250
0.09770	1.37554
0.32721	1.19699
0.14870	0.66132
0.12320	0.25320
0.19971	0.10015
0.25071	0.07465
-0.18282	0.15117
-0.00431	-0.00188
0.27621	0.61031
0.22521	0.53379
-0.10631	-1.43031
0.07220	-2.45062
0.09770	-2.39961
0.25071	0.25320
0.32721	1.27351
0.07220	2.24281
-0.10631	2.77847
0.17421	2.08976
0.32721	0.35523
0.37822	-0.86914
0.42922	-1.63437
-0.13181	-0.56305
0.12320	0.35523
0.37822	0.68683
0.32721	0.55929
0.12320	0.38074
-0.00431	-0.05289
-0.05531	-0.18043
0.09770	-0.07840
0.09770	-0.00188
0.22521	-0.12942
0.22521	-0.02739
0.12320	-0.00188
-0.33583	-0.35899
-0.02981	-0.86914
0.32721	-0.10391
0.25071	0.86539
0.19971	0.96742
0.27621	0.66132
0.27621	0.48277
0.40372	0.71234
0.17421	0.89089
0.09770	0.63582
0.04670	-0.15492
-0.05531	-0.89465
-0.20832	-0.84363
0.02119	-0.66508
0.22521	-0.94566
0.12320	-0.25695
0.35272	1.09496
0.17421	0.73785
0.19971	0.78886
0.17421	1.01843
0.04670	1.01843
0.19971	0.53379
0.19971	0.10015
0.02119	-1.37929
0.14870	-2.11902
0.32721	-0.05289
0.37822	1.22250
-0.02981	0.86539
-0.02981	0.53379
0.22521	0.81437
0.22521	0.43176
0.02119	-0.15492
0.09770	0.20219
0.09770	0.30422
-0.13181	-0.56305
0.19971	-1.88945
0.58223	-0.51203
0.22521	0.45726
0.12320	0.83988
0.25071	1.12046
0.14870	1.12046
0.02119	0.48277
0.12320	-0.28246
0.27621	-0.12942
-0.18282	-0.02739
-0.05531	0.02363
0.17421	0.07465
0.27621	0.10015
0.37822	0.58480
0.30171	0.45726
0.09770	-0.00188
0.12320	-0.12942
0.09770	0.15117
0.04670	0.53379
-0.05531	0.02363
0.22521	-0.76711
0.53123	-0.58856
0.12320	0.50828
-0.15732	0.86539
-0.05531	0.89089
0.30171	0.83988
0.19971	-0.41000
0.12320	-2.17003
0.12320	0.20219
0.09770	-0.15492
0.30171	0.53379
0.25071	0.25320
-0.00431	0.76336
0.07220	1.93671
-0.02981	1.27351
0.86275	0.30422
0.32721	-0.05289
-0.28482	-0.33348
0.17421	-0.43551
0.04670	-0.35899
-0.28482	0.04914
-0.08081	0.04914
0.22521	-0.00188
0.42922	0.22769
0.07220	0.35523
0.12320	-0.84363
0.14870	-1.81293
0.12320	-0.28246
0.02119	0.61031
-0.00431	0.71234
0.22521	0.83988
0.25071	1.37554
0.25071	0.99292
0.27621	0.81437
0.17421	0.32972
0.17421	0.12566
0.07220	0.10015
0.14870	-0.15492
0.14870	-0.30797
-0.15732	-0.58856
-0.13181	-1.17523
-0.05531	-0.28246
0.04670	0.04914
0.22521	0.27871
0.37822	0.91640
0.22521	0.55929
0.50573	0.45726
0.07220	0.17668
-0.08081	0.15117
0.19971	0.66132
-0.05531	0.81437
0.09770	-0.92016
0.30171	-0.76711
0.22521	-0.02739
-0.02981	-0.28246
-0.02981	-0.56305
0.17421	-0.38449
0.48022	1.40105
0.35272	2.01323
-0.02981	0.66132
0.04670	-0.02739
0.22521	-0.53754
0.09770	0.22769
0.22521	0.78886
0.07220	-0.10391
-0.08081	-0.51203
0.07220	-0.15492
0.07220	0.10015
-0.00431	-0.05289
0.12320	-0.20594
0.25071	0.10015
0.30171	0.50828
0.12320	0.58480
0.48022	0.12566
0.37822	-0.02739
0.32721	-0.10391
-0.02981	-0.10391
-0.31033	-0.02739
-0.23382	0.20219
0.12320	0.22769
-0.02981	0.07465
0.25071	0.25320
0.30171	0.76336
0.17421	0.17668
0.30171	0.58480
0.32721	0.45726
0.22521	0.32972
-0.02981	0.17668
-0.20832	0.10015
0.27621	-0.00188
0.12320	-0.25695
0.09770	-0.30797
0.42922	-0.66508
0.30171	-0.10391
-0.00431	-0.15492
-0.05531	0.48277
0.25071	1.14597
-0.00431	-0.18043
-0.05531	-0.15492
0.09770	0.71234
0.17421	0.63582
0.53123	0.73785
0.76074	0.43176
0.37822	0.04914
-0.10631	-1.02219
-0.28482	-1.12422
-0.33583	0.12566
-0.20832	0.94191
-0.20832	-0.18043
-0.18282	0.30422
0.19971	0.71234
0.65874	0.30422
0.93925	-0.07840
0.53123	0.20219
0.14870	-0.28246
0.27621	0.04914
-0.13181	0.73785
-0.53984	0.48277
0.45472	0.10015
0.17421	0.02363
-0.00431	-0.12942
-0.10631	0.02363
-0.08081	0.04914
0.40372	0.30422
0.12320	-0.35899
0.30171	-0.53754
-0.00431	0.22769
-0.05531	0.32972
0.09770	0.17668
0.30171	0.40625
0.35272	0.40625
0.22521	0.43176
0.07220	0.45726
0.12320	0.63582
0.37822	-0.23145
0.35272	-0.69059
-0.00431	0.27871
-0.05531	0.30422
-0.08081	-0.20594
-0.13181	-0.10391
-0.05531	0.17668
0.19971	0.35523
0.42922	1.06945
0.53123	0.91640
0.19971	0.20219
0.25071	-1.71090
-0.23382	-1.43031
0.02119	0.53379
0.17421	1.42656
-0.10631	0.96742
-0.02981	0.07465
0.12320	-1.94047
0.04670	-0.56305
0.14870	1.68163
0.48022	1.17148
0.40372	0.50828
0.27621	0.45726
0.25071	0.02363
0.02119	-0.10391
-0.20832	0.15117
-0.10631	-0.18043
0.27621	-1.71090
0.58223	-0.28246
0.32721	0.63582
0.07220	1.04394
0.04670	0.89089
-0.10631	0.07465
0.02119	0.12566
0.12320	0.07465
0.30171	-0.66508
0.14870	0.83988
-0.02981	0.35523
0.17421	-0.92016
0.27621	0.07465
0.14870	0.86539
0.14870	0.91640
0.32721	-0.25695
0.27621	-0.38449
-0.02981	0.22769
0.07220	0.68683
-0.02981	0.50828
-0.08081	-0.25695
0.25071	0.04914
0.25071	0.66132
0.32721	0.71234
0.22521	0.17668
0.27621	-1.12422
-0.08081	-0.84363
-0.08081	-0.23145
0.04670	0.78886
0.40372	1.19699
-0.00431	-0.12942
0.53123	-0.35899
0.17421	-1.04770
-0.05531	0.07465
-0.02981	1.27351
-0.02981	1.24800
0.30171	1.06945
0.14870	0.25320
-0.02981	-0.58856
0.42922	0.07465
0.32721	0.66132
-0.08081	-0.92016
0.02119	0.02363
0.12320	-0.35899
0.17421	-1.65988
0.19971	0.07465
0.09770	1.29902
0.07220	1.35003
0.22521	0.71234
0.22521	0.50828
0.19971	-0.02739
0.09770	-0.63957
0.19971	0.20219
0.55673	0.58480
0.22521	-0.25695
-0.15732	0.07465
-0.20832	0.45726
0.02119	-0.10391
0.17421	-0.58856
0.19971	-0.63957
-0.05531	0.02363
0.19971	0.68683
0.17421	1.27351
0.22521	0.58480
0.19971	-0.35899
0.30171	-0.56305
0.19971	-1.27726
-0.23382	-0.10391
0.19971	2.14077
0.30171	0.38074
0.12320	0.73785
0.07220	0.73785
0.32721	0.71234
0.30171	-0.28246
0.25071	-0.33348
0.14870	-0.61406
0.04670	-0.10391
-0.13181	-0.43551
-0.20832	0.15117
-0.18282	0.43176
0.55673	0.68683
0.37822	0.40625
0.37822	-0.12942
0.19971	0.22769
0.09770	0.27871
0.02119	0.10015
0.09770	-1.20074
-0.08081	-0.10391
0.04670	0.32972
0.14870	0.45726
0.48022	1.24800
0.19971	0.71234
0.25071	0.30422
0.02119	-0.51203
0.22521	-0.25695
0.12320	0.27871
0.14870	-0.41000
-0.00431	-0.00188
0.17421	0.55929
0.22521	0.48277
-0.00431	0.48277
0.22521	0.32972
0.19971	0.22769
0.19971	0.20219
0.12320	-0.07840
-0.05531	-0.30797
-0.08081	0.07465
0.02119	-1.96597
0.22521	-0.84363
0.37822	0.99292
0.32721	1.24800
0.09770	1.01843
0.42922	1.32453
0.55673	1.14597
-0.00431	0.45726
-0.18282	-0.61406
-0.33583	-1.53234
-0.08081	-0.63957
-0.00431	0.35523
0.12320	0.83988
0.45472	0.32972
0.19971	-1.32828
0.19971	-1.25176
0.37822	1.12046
0.27621	1.52859
0.22521	1.01843
0.02119	0.66132
0.04670	0.38074
-0.00431	-0.00188
0.12320	-0.28246
0.12320	-0.25695
0.12320	0.12566
0.12320	-0.25695
-0.00431	-0.81812
-0.00431	-0.25695
0.09770	0.45726
-0.18282	0.55929
0.30171	0.45726
0.73524	0.22769
0.12320	-0.05289
-0.00431	0.15117
-0.00431	0.45726
0.12320	0.58480
0.09770	0.55929
0.22521	0.40625
0.17421	-0.02739
0.14870	0.15117
-0.02981	-0.58856
0.09770	-1.27726
0.19971	0.17668
0.19971	1.52859
0.30171	-0.10391
0.14870	-0.84363
0.12320	1.09496
0.14870	1.29902
0.04670	-1.09871
0.02119	-1.43031
-0.08081	0.89089
-0.05531	1.42656
0.32721	0.96742
0.76074	0.45726
0.22521	0.55929
0.09770	0.91640
0.40372	0.50828
0.02119	-0.38449
-0.31033	-1.91496
-0.10631	-1.78742
0.02119	-0.33348
-0.05531	-0.94566
0.19971	0.45726
0.68424	1.55410
0.53123	1.88570
0.22521	1.35003
0.07220	0.86539
0.12320	0.15117
0.12320	-0.51203
0.12320	-1.25176
-0.08081	-0.69059
-0.36133	0.15117
0.04670	-0.66508
0.58223	0.66132
0.53123	0.86539
0.27621	1.37554
0.12320	1.12046
0.07220	-0.20594
0.14870	-0.66508
0.07220	-0.97117
-0.05531	0.17668
-0.00431	0.25320
-0.31033	-0.30797
0.50573	0.78886
0.45472	0.89089
0.04670	0.30422
0.19971	0.50828
0.35272	0.04914
0.19971	-1.27726
0.02119	0.35523
-0.05531	0.91640
0.09770	-0.69059
0.32721	-0.89465
0.19971	0.04914
-0.00431	0.63582
0.09770	1.17148
0.12320	1.14597
0.22521	-0.07840
0.12320	-0.81812
0.12320	-0.02739
-0.08081	0.50828
-0.00431	0.55929
0.12320	0.22769
-0.23382	-0.12942
1.19427	-0.25695
0.58223	0.17668
0.19971	0.10015
-0.13181	0.35523
-0.18282	0.68683
0.12320	1.09496
-0.00431	0.76336
-0.02981	-0.41000
0.12320	-2.09351
-0.08081	-2.04250
-0.02981	0.12566
0.30171	1.37554
0.37822	1.60511
0.55673	1.29902
0.42922	0.48277
0.07220	0.15117
-0.20832	0.10015
-0.18282	-0.33348
-0.08081	-1.09871
0.35272	-0.71609
0.40372	0.55929
0.30171	1.12046
0.19971	-0.84363
0.14870	-0.30797
0.22521	0.58480
-0.13181	1.06945
0.07220	0.40625
0.09770	-0.20594
0.12320	0.04914
0.12320	0.43176
0.32721	0.61031
0.17421	1.17148
0.19971	0.78886
0.14870	-1.91496
0.14870	-1.35379
0.07220	-0.30797
0.07220	-0.07840
0.25071	0.76336
-0.08081	0.91640
0.48022	0.89089
0.42922	0.63582
0.02119	0.55929
-0.08081	0.53379
-0.15732	0.30422
0.14870	-0.51203
0.32721	-0.99668
0.27621	-0.25695
-0.18282	0.04914
0.19971	-0.51203
0.12320	0.12566
0.07220	0.55929
0.17421	0.04914
0.12320	1.09496
0.63323	0.63582
0.40372	0.27871
0.02119	0.22769
-0.05531	-0.66508
-0.05531	-1.73640
0.02119	0.50828
0.12320	1.55410
0.07220	1.35003
0.27621	0.94191
0.30171	0.38074
0.42922	0.15117
0.12320	0.02363
-0.18282	-1.45582
-0.38683	-0.69059
-0.20832	-0.41000
0.04670	-0.86914
0.37822	0.17668
0.07220	0.94191
0.93925	1.14597
0.48022	0.96742
-0.02981	-0.10391
0.09770	-0.23145
0.02119	0.32972
-0.20832	0.30422
-0.20832	-0.33348
-0.08081	-1.50683
0.32721	-0.51203
0.48022	0.78886
0.45472	1.65613
0.07220	1.42656
0.07220	0.86539
0.27621	0.43176
0.14870	0.15117
0.09770	-0.33348
0.02119	-1.14973
-0.02981	-0.56305
0.09770	0.45726
0.09770	0.63582
0.25071	1.01843
0.32721	-0.56305
0.12320	-1.27726
-0.18282	-0.56305
0.04670	-0.10391
0.02119	-1.17523
0.12320	0.02363
0.14870	1.98773
0.22521	1.96222
0.35272	0.78886
0.48022	0.25320
0.09770	0.99292
0.27621	0.27871
0.07220	-0.99668
0.14870	-1.35379
0.14870	-0.46102
-0.13181	0.66132
0.02119	0.73785
0.22521	0.89089
0.30171	0.45726
0.04670	0.30422
0.25071	-0.12942
-0.18282	-0.94566
0.07220	-0.53754
0.09770	-0.15492
0.12320	0.32972
0.22521	0.71234
0.25071	-0.07840
0.40372	-0.10391
0.25071	0.15117
0.07220	-0.02739
-0.00431	0.40625
0.12320	0.86539
0.14870	0.81437
0.12320	0.38074
0.22521	0.30422
-0.00431	0.22769
0.14870	0.58480
0.42922	0.07465
0.19971	-2.85874
0.09770	-1.35379
-0.18282	0.81437
-0.05531	1.45206
0.12320	0.96742
0.35272	0.73785
-0.00431	-0.07840
0.09770	-0.15492
0.30171	1.32453
0.25071	1.09496
0.22521	0.20219
0.14870	-0.76711
0.02119	-0.28246
0.17421	0.45726
0.04670	0.68683
0.30171	-0.89465
-0.00431	-2.52714
-0.00431	-0.66508
0.07220	1.06945
0.12320	0.99292
0.04670	0.27871
0.27621	0.96742
0.25071	0.66132
0.12320	0.30422
0.09770	0.73785
0.22521	1.01843
-0.02981	-0.46102
0.12320	-1.43031
0.25071	-0.23145
0.32721	0.25320
0.12320	0.35523
0.17421	0.73785
0.09770	0.81437
-0.05531	0.15117
-0.00431	0.10015
0.22521	0.20219
-0.13181	-0.23145
-0.08081	-0.51203
0.09770	-1.09871
0.37822	0.04914
0.37822	0.86539
0.32721	1.68163
0.07220	0.73785
0.19971	-1.07320
-0.00431	-0.84363
-0.08081	0.45726
0.07220	1.24800
0.25071	0.63582
0.14870	-0.38449
0.12320	-0.38449
0.32721	0.38074
0.17421	0.81437
0.09770	0.96742
-0.02981	0.45726
0.14870	-1.09871
-0.10631	-0.53754
0.42922	0.27871
0.27621	0.04914
0.07220	-0.20594
0.04670	0.30422
-0.15732	0.22769
-0.00431	0.32972
0.27621	-0.35899
0.32721	0.35523
0.25071	-0.71609
0.14870	-0.05289
0.04670	0.35523
0.17421	0.50828
0.14870	1.14597
0.09770	0.83988
0.02119	0.55929
0.27621	0.58480
0.32721	0.61031
0.19971	-0.15492
0.32721	-1.04770
0.14870	-2.06800
-0.18282	-1.43031
-0.05531	0.78886
0.27621	1.09496
0.25071	0.89089
0.19971	0.89089
0.09770	0.81437
0.30171	0.30422
0.22521	0.02363
0.09770	-0.30797
-0.25932	-0.12942
-0.02981	-0.20594
-0.00431	-0.15492
0.12320	-0.38449
0.35272	0.94191
0.12320	1.01843
0.19971	-2.29757
0.25071	-0.18043
0.22521	1.32453
0.09770	1.27351
0.22521	1.12046
0.07220	0.89089
0.12320	0.55929
0.07220	0.15117
0.42922	-0.69059
0.32721	-1.71090
0.19971	-0.00188
0.07220	0.86539
-0.13181	0.12566
0.09770	0.25320
0.04670	-1.27726
-0.08081	-0.12942
-0.00431	0.83988
0.32721	1.17148
0.25071	1.04394
0.22521	-0.99668
0.07220	-1.25176
0.07220	0.35523
0.19971	1.01843
0.35272	1.06945
0.55673	1.17148
0.07220	-0.56305
0.04670	-0.20594
-0.08081	0.20219
0.07220	0.15117
0.02119	0.30422
0.04670	-0.18043
0.25071	-0.00188
0.12320	0.53379
0.19971	0.40625
0.22521	0.32972
0.17421	0.12566
-0.05531	-0.02739
0.09770	-0.51203
0.19971	-1.17523
0.40372	0.12566
0.35272	0.40625
0.12320	0.25320
-0.00431	0.68683
-0.28482	0.91640
0.14870	0.15117
0.09770	0.99292
-0.00431	0.30422
-0.18282	-0.56305
-0.08081	-0.74160
0.68424	-1.32828
0.96476	0.78886
0.27621	1.24800
-0.10631	1.40105
0.02119	0.53379
-0.08081	-0.79262
-0.02981	-0.58856
0.17421	-0.00188
0.19971	0.32972
0.22521	0.40625
0.14870	0.58480
0.22521	0.91640
0.12320	0.27871
0.17421	-0.28246
0.14870	-0.33348
-0.08081	0.10015
-0.05531	0.50828
-0.10631	-1.68539
0.19971	-0.79262
0.40372	-1.14973
0.27621	-0.33348
0.48022	2.19179
0.27621	2.39585
-0.00431	1.88570
-0.25932	0.76336
0.09770	0.20219
0.14870	-0.33348
0.19971	-0.97117
0.12320	-0.66508
0.12320	0.20219
0.25071	0.61031
0.27621	-0.79262
-0.08081	-1.40480
0.04670	0.35523
0.17421	1.17148
0.22521	0.38074
0.32721	-0.79262
-0.79486	-1.43031
0.53123	0.40625
0.73524	1.88570
0.02119	1.37554
0.07220	1.17148
-0.02981	-0.10391
-0.00431	-0.35899
0.25071	-0.35899
0.32721	-0.05289
0.02119	-0.61406
-0.33583	-0.66508
-0.15732	0.32972
0.02119	0.45726
0.42922	0.32972
0.19971	0.45726
0.25071	0.35523
0.37822	0.22769
0.25071	-0.02739
0.17421	-0.15492
0.19971	-0.28246
0.12320	0.25320
0.37822	0.63582
-0.08081	-0.30797
0.19971	-0.48652
0.25071	-0.23145
0.14870	0.55929
0.07220	0.78886
-0.08081	0.83988
0.09770	0.63582
-0.13181	-0.76711
-0.15732	-0.43551
0.32721	-0.18043
0.32721	0.25320
0.14870	0.20219
0.27621	0.83988
0.32721	0.61031
0.22521	0.48277
0.30171	0.48277
0.02119	-0.15492
-0.08081	-1.09871
-0.08081	-0.58856
0.07220	0.68683
0.22521	1.12046
0.50573	0.78886
0.25071	-1.55785
0.19971	-0.94566
-0.00431	0.07465
0.19971	0.71234
0.14870	0.78886
-0.18282	0.58480
0.32721	1.06945
0.04670	0.40625
-0.00431	-1.53234
-0.08081	-1.99148
0.14870	-0.74160
0.27621	1.29902
0.09770	2.08976
0.17421	1.86019
0.07220	1.14597
0.02119	0.38074
0.19971	-0.07840
0.22521	-0.46102
0.09770	-0.84363
0.07220	-0.56305
0.25071	-0.51203
0.32721	-0.15492
0.48022	0.15117
0.37822	0.25320
0.04670	0.55929
-0.10631	0.45726
-0.20832	0.22769
-0.13181	-0.25695
0.14870	-0.51203
0.35272	-0.20594
0.40372	0.55929
0.25071	1.01843
0.19971	0.73785
0.12320	0.61031
0.02119	0.25320
0.07220	-0.07840
0.07220	-0.53754
-0.00431	-0.92016
0.30171	0.58480
0.27621	1.52859
0.19971	-0.48652
0.37822	-1.12422
0.14870	0.38074
0.04670	0.83988
0.09770	0.63582
0.04670	1.17148
-0.10631	1.17148
-0.02981	0.04914
0.19971	-3.21585
0.27621	-1.96597
0.30171	0.61031
0.19971	0.94191
0.22521	1.60511
0.12320	1.37554
0.25071	0.83988
-0.10631	-0.18043
-0.13181	-0.79262
0.02119	-0.89465
-0.10631	-0.35899
0.07220	0.40625
0.48022	0.38074
0.55673	0.25320
-0.05531	0.66132
0.40372	0.78886
0.37822	0.45726
-0.18282	-0.53754
-0.20832	-1.27726
-0.18282	-0.28246
0.27621	0.71234
0.60773	0.86539
0.40372	0.76336
-0.02981	-0.58856
0.12320	-0.23145
0.22521	0.50828
0.02119	0.81437
-0.28482	0.55929
-0.13181	0.22769
0.25071	0.07465
0.32721	0.27871
0.22521	-0.35899
0.30171	-0.97117
0.27621	0.48277
0.12320	0.25320
0.22521	0.50828
0.07220	0.66132
-0.05531	0.45726
0.14870	-0.35899
0.09770	-1.48133
0.12320	-2.70570
0.14870	0.55929
0.32721	1.98773
0.27621	1.93671
0.19971	1.47757
0.02119	0.66132
0.02119	0.10015
-0.15732	-0.05289
-0.05531	-0.12942
0.17421	-0.15492
0.25071	-0.69059
0.30171	-0.46102
0.45472	0.07465
0.37822	0.20219
0.12320	-0.07840
-0.05531	-0.00188
0.02119	0.02363
0.07220	0.04914
-0.00431	0.17668
0.02119	0.38074
0.19971	0.58480
0.12320	0.40625
0.17421	0.43176
0.32721	0.35523
0.22521	0.22769
0.19971	0.10015
0.32721	-0.00188
0.22521	-0.12942
-0.02981	-0.12942
-0.18282	0.04914
0.25071	0.22769
0.07220	0.15117
0.12320	0.35523
0.14870	0.12566
0.07220	0.07465
0.04670	0.10015
0.17421	0.02363
0.12320	0.04914
0.02119	0.17668
0.12320	-0.10391
0.32721	-0.07840
0.32721	0.55929
0.22521	0.40625
0.12320	0.15117
0.19971	0.22769
0.14870	0.12566
-0.05531	-0.07840
-0.08081	0.02363
-0.00431	0.07465
0.07220	0.12566
-0.00431	0.15117
0.35272	0.17668
0.63323	0.35523
0.30171	0.27871
0.02119	0.12566
0.02119	0.20219
0.02119	0.10015
0.02119	0.04914
-0.00431	-0.00188
0.07220	0.10015
0.27621	-0.25695
0.32721	0.10015
0.27621	0.63582
0.22521	0.32972
0.25071	0.07465
0.09770	0.02363
0.14870	0.10015
0.02119	0.02363
-0.08081	-0.07840
0.12320	0.07465
0.22521	0.32972
0.14870	0.30422
0.12320	0.45726
0.32721	0.61031
0.27621	0.43176
-0.15732	-0.41000
-0.08081	-0.97117
-0.08081	-1.48133
0.35272	0.38074
0.55673	1.32453
0.14870	1.32453
-0.23382	-1.20074
0.09770	-1.14973
0.22521	0.81437
0.45472	1.68163
0.30171	1.60511
0.09770	1.14597
0.35272	0.45726
-0.08081	-0.25695
-0.18282	-0.30797
0.17421	-0.35899
0.22521	-0.43551
0.22521	-0.12942
0.07220	-0.84363
