0.17421	0.22769
0.09770	0.17668
0.02119	0.07465
0.25071	0.25320
0.09770	0.12566
0.07220	0.10015
0.12320	0.17668
0.17421	0.10015
0.19971	0.25320
0.19971	0.17668
0.07220	0.15117
0.19971	0.10015
0.22521	0.10015
0.17421	0.17668
0.17421	0.07465
0.07220	0.20219
0.17421	0.15117
0.14870	0.15117
0.12320	0.12566
0.12320	0.15117
0.14870	0.17668
0.19971	0.10015
0.09770	0.22769
0.22521	0.07465
0.07220	0.12566
0.14870	0.07465
0.12320	0.15117
0.14870	0.12566
0.14870	0.10015
0.12320	0.17668
0.25071	0.04914
-0.05531	0.15117
0.07220	0.12566
0.19971	0.27871
0.22521	0.17668
0.19971	0.17668
0.14870	0.25320
0.25071	0.07465
0.09770	0.12566
0.12320	0.15117
0.19971	0.10015
0.02119	0.20219
0.12320	0.12566
0.14870	0.17668
0.12320	0.04914
0.14870	0.20219
0.22521	0.15117
0.14870	0.15117
0.17421	0.17668
0.14870	0.17668
0.12320	0.20219
0.12320	0.15117
0.17421	0.10015
0.12320	0.15117
0.14870	0.15117
0.14870	0.15117
0.12320	0.15117
0.09770	0.20219
0.32721	0.10015
0.07220	0.20219
0.17421	0.04914
0.12320	0.22769
0.07220	0.12566
0.12320	0.15117
0.14870	0.15117
0.12320	0.15117
0.09770	0.10015
0.19971	0.17668
0.09770	0.15117
0.19971	0.15117
0.09770	0.15117
0.22521	0.12566
0.17421	0.15117
0.14870	0.12566
0.17421	0.25320
0.22521	0.10015
0.07220	0.20219
0.22521	0.10015
0.14870	0.22769
0.12320	0.12566
0.12320	0.22769
0.14870	0.10015
0.12320	0.12566
0.09770	0.12566
0.14870	0.15117
0.14870	0.10015
0.14870	0.20219
0.14870	0.04914
0.14870	0.22769
0.19971	0.10015
0.07220	0.20219
0.25071	0.17668
0.07220	0.12566
0.22521	0.10015
0.12320	0.17668
0.14870	0.12566
0.14870	0.07465
0.14870	0.20219
0.14870	0.10015
0.14870	0.25320
0.14870	0.10015
0.12320	0.10015
0.19971	0.10015
0.09770	0.25320
0.25071	0.04914
0.07220	0.20219
0.19971	0.12566
0.02119	0.20219
0.17421	0.15117
0.09770	0.15117
0.14870	0.25320
0.19971	0.12566
0.12320	0.20219
0.14870	0.07465
0.07220	0.22769
0.25071	0.02363
0.07220	0.20219
0.17421	0.12566
0.12320	0.20219
0.12320	0.15117
0.12320	0.15117
0.12320	0.15117
0.14870	0.15117
0.14870	0.17668
0.12320	0.17668
0.14870	0.17668
0.12320	0.07465
0.14870	0.12566
0.07220	0.20219
0.22521	0.20219
0.12320	0.17668
0.17421	0.12566
0.07220	0.10015
0.17421	0.15117
0.07220	0.17668
0.19971	0.15117
0.07220	0.15117
0.22521	0.15117
0.09770	0.25320
0.14870	0.07465
0.12320	0.20219
0.14870	0.10015
0.12320	0.12566
0.07220	0.15117
0.22521	0.17668
0.07220	0.20219
0.25071	0.07465
0.12320	0.25320
0.14870	0.12566
0.09770	0.15117
0.14870	0.17668
0.22521	0.12566
0.09770	0.07465
0.19971	0.10015
0.04670	0.22769
0.17421	0.07465
0.12320	0.15117
0.14870	0.15117
0.22521	0.15117
0.07220	0.22769
0.12320	0.07465
0.07220	0.20219
0.19971	0.04914
0.09770	0.15117
0.17421	0.15117
0.14870	0.07465
0.14870	0.20219
0.22521	0.10015
0.12320	0.20219
0.19971	0.10015
0.12320	0.25320
0.17421	0.15117
0.17421	0.12566
0.09770	0.12566
0.17421	0.10015
0.02119	0.22769
0.12320	0.10015
0.12320	0.20219
0.17421	0.12566
0.14870	0.15117
0.09770	0.20219
0.17421	0.04914
0.14870	0.12566
0.07220	0.17668
0.17421	0.04914
0.07220	0.25320
0.19971	0.17668
0.07220	0.12566
0.14870	0.15117
0.12320	0.12566
0.17421	0.15117
0.22521	0.17668
0.12320	0.20219
0.19971	0.07465
0.09770	0.20219
0.22521	0.17668
0.09770	0.10015
0.22521	0.12566
0.14870	0.15117
0.14870	0.10015
0.09770	0.15117
0.14870	0.17668
0.19971	0.15117
0.07220	0.20219
0.12320	0.12566
0.17421	0.22769
0.19971	0.04914
0.14870	0.15117
0.14870	0.12566
0.14870	0.12566
0.04670	0.15117
0.19971	0.12566
0.09770	0.22769
0.12320	0.10015
0.17421	0.20219
0.17421	0.12566
0.14870	0.17668
0.09770	0.12566
0.25071	0.07465
0.04670	0.20219
0.14870	0.12566
0.14870	0.15117
0.07220	0.15117
0.19971	0.12566
0.07220	0.22769
0.14870	0.12566
0.09770	0.17668
0.14870	0.15117
0.12320	0.04914
0.14870	0.15117
0.14870	0.07465
0.09770	0.22769
0.22521	0.10015
0.07220	0.20219
0.09770	0.15117
0.14870	0.07465
0.12320	0.17668
0.17421	0.20219
0.14870	0.20219
0.19971	0.07465
0.09770	0.17668
0.19971	0.10015
0.09770	0.22769
0.22521	0.04914
0.07220	0.17668
0.22521	0.07465
0.14870	0.15117
0.04670	0.15117
0.17421	0.12566
0.09770	0.20219
0.19971	0.07465
0.09770	0.17668
0.14870	0.20219
0.12320	0.15117
0.27621	0.15117
0.14870	0.04914
0.12320	0.20219
0.12320	0.10015
0.12320	0.10015
0.22521	0.20219
0.09770	0.12566
0.22521	0.12566
0.07220	0.22769
0.22521	0.04914
0.19971	0.17668
0.14870	0.12566
0.12320	0.12566
0.14870	0.15117
0.14870	0.15117
0.07220	0.15117
0.09770	0.15117
0.14870	0.12566
0.14870	0.10015
0.14870	0.17668
0.17421	0.17668
0.09770	0.12566
0.14870	0.15117
0.19971	0.15117
0.12320	0.12566
0.22521	0.20219
0.07220	0.15117
0.22521	0.12566
0.04670	0.15117
0.14870	0.20219
0.14870	0.12566
0.07220	0.20219
0.22521	0.12566
0.14870	0.10015
0.14870	0.25320
0.19971	0.10015
0.07220	0.15117
0.17421	0.17668
0.14870	0.07465
0.07220	0.25320
0.12320	0.15117
0.07220	0.12566
0.17421	0.17668
0.22521	0.04914
0.09770	0.15117
0.12320	0.12566
0.12320	0.10015
0.09770	0.15117
0.22521	0.12566
0.09770	0.15117
0.22521	0.12566
0.09770	0.07465
0.14870	0.22769
0.22521	0.12566
0.12320	0.15117
0.14870	0.20219
0.19971	0.04914
0.09770	0.25320
0.22521	0.07465
0.14870	0.10015
0.14870	0.15117
0.14870	0.35523
0.12320	0.07465
0.14870	0.02363
0.07220	0.15117
0.19971	0.02363
0.07220	0.22769
0.22521	0.10015
0.07220	0.25320
0.19971	0.07465
0.12320	0.25320
0.22521	0.12566
0.04670	0.20219
0.17421	0.17668
0.14870	0.15117
0.17421	0.12566
0.14870	0.15117
0.09770	0.15117
0.19971	0.10015
0.07220	0.20219
0.22521	0.12566
0.14870	0.12566
0.14870	0.17668
0.12320	0.12566
0.14870	0.17668
0.17421	0.20219
0.17421	0.25320
0.14870	0.17668
0.14870	0.12566
0.22521	0.15117
0.07220	0.15117
0.19971	0.12566
0.07220	0.10015
0.19971	0.12566
0.17421	0.07465
0.14870	0.25320
0.12320	0.10015
0.14870	0.12566
0.19971	0.15117
0.09770	0.20219
0.12320	0.22769
0.22521	0.07465
0.09770	0.15117
0.17421	0.15117
0.07220	0.15117
0.17421	0.10015
0.04670	0.10015
0.14870	0.15117
0.14870	0.10015
0.17421	0.15117
0.14870	0.15117
0.12320	0.12566
0.19971	0.10015
0.09770	0.12566
0.19971	0.12566
0.07220	0.25320
0.17421	0.17668
0.17421	0.12566
0.14870	0.15117
0.17421	0.22769
0.19971	0.10015
0.17421	0.15117
0.22521	0.12566
0.09770	0.12566
0.14870	0.15117
0.14870	0.07465
0.14870	0.20219
0.09770	0.10015
0.12320	0.12566
0.22521	0.15117
0.12320	0.10015
0.14870	0.17668
0.14870	0.04914
0.17421	0.15117
0.19971	0.20219
0.14870	0.10015
0.09770	0.25320
0.19971	0.15117
0.12320	0.15117
0.14870	0.12566
0.12320	0.10015
0.07220	0.12566
0.19971	0.12566
0.17421	0.02363
0.17421	0.22769
0.19971	0.15117
0.12320	0.15117
0.12320	0.20219
0.14870	0.10015
0.14870	0.12566
0.22521	0.17668
0.07220	0.07465
0.14870	0.17668
0.12320	0.12566
0.07220	0.10015
0.19971	0.12566
0.09770	0.17668
0.17421	0.12566
0.09770	0.15117
0.25071	0.15117
0.09770	0.12566
0.19971	0.12566
0.14870	0.04914
0.17421	0.25320
0.14870	0.10015
0.04670	0.12566
0.22521	0.15117
0.09770	0.10015
0.14870	0.20219
0.12320	0.07465
0.14870	0.15117
0.22521	0.12566
0.04670	0.07465
0.12320	0.22769
0.12320	0.12566
0.09770	0.15117
0.12320	0.15117
0.14870	0.10015
0.17421	0.22769
0.12320	0.07465
0.14870	0.20219
0.12320	0.10015
0.14870	0.22769
0.14870	0.10015
0.14870	0.22769
0.14870	0.10015
0.14870	0.17668
0.19971	0.07465
0.12320	0.20219
0.19971	0.07465
0.09770	0.17668
0.12320	0.15117
0.14870	0.15117
0.14870	0.25320
0.14870	0.10015
0.12320	0.15117
0.12320	0.15117
0.19971	0.12566
0.14870	0.15117
0.14870	0.15117
0.14870	0.10015
0.14870	0.25320
0.17421	0.10015
0.07220	0.15117
0.22521	0.15117
0.14870	0.10015
0.12320	0.22769
0.14870	0.07465
0.14870	0.20219
0.19971	0.04914
0.07220	0.15117
0.19971	0.12566
0.04670	0.12566
0.17421	0.20219
0.12320	0.04914
0.17421	0.17668
0.19971	0.10015
0.07220	0.17668
0.19971	0.10015
0.07220	0.22769
0.17421	0.10015
0.14870	0.15117
0.14870	0.15117
0.17421	0.15117
0.14870	0.22769
0.14870	0.04914
0.09770	0.20219
0.22521	0.17668
0.07220	0.15117
0.14870	0.12566
0.14870	0.07465
0.04670	0.17668
0.19971	0.10015
0.07220	0.17668
0.12320	0.15117
0.12320	0.17668
0.12320	0.17668
0.14870	0.20219
0.12320	0.20219
0.19971	0.10015
0.09770	0.22769
0.14870	0.15117
0.14870	0.10015
0.17421	0.17668
0.14870	0.02363
0.07220	0.00000
0.19971	0.20219
0.14870	0.10015
0.22521	0.15117
0.19971	0.12566
0.09770	0.10015
0.22521	0.22769
0.12320	0.10015
0.07220	0.15117
0.17421	0.12566
0.09770	0.10015
0.22521	0.20219
0.17421	0.12566
0.14870	0.12566
0.14870	0.10015
0.17421	0.15117
0.14870	0.07465
0.14870	0.12566
0.14870	0.15117
0.12320	0.15117
0.14870	0.10015
0.12320	0.20219
0.14870	0.07465
0.14870	0.15117
0.14870	0.15117
0.14870	0.10015
0.14870	0.17668
0.14870	0.12566
0.07220	0.12566
0.12320	0.15117
0.07220	0.12566
0.22521	0.17668
0.07220	0.12566
0.22521	0.15117
0.09770	0.12566
0.22521	0.10015
0.09770	0.20219
0.19971	0.20219
0.07220	0.17668
0.22521	0.17668
0.09770	0.10015
0.22521	0.20219
0.09770	0.10015
0.19971	0.12566
0.09770	0.15117
0.12320	0.15117
0.14870	0.12566
0.14870	0.15117
0.22521	0.20219
0.07220	0.07465
0.22521	0.25320
0.09770	0.07465
0.22521	0.22769
0.04670	0.07465
0.22521	0.20219
0.07220	0.15117
0.22521	0.17668
0.07220	0.12566
0.19971	0.12566
0.14870	0.15117
0.12320	0.27871
0.22521	0.15117
0.14870	0.15117
0.17421	0.12566
0.14870	0.15117
0.12320	0.07465
0.14870	0.22769
0.17421	0.10015
0.19971	0.15117
0.07220	0.07465
0.22521	0.17668
0.07220	0.17668
0.25071	0.15117
0.07220	0.17668
0.25071	0.10015
0.07220	0.20219
0.22521	0.12566
0.12320	0.15117
0.12320	0.04914
0.19971	0.27871
0.12320	0.10015
0.22521	0.22769
0.07220	0.07465
0.19971	0.22769
0.07220	0.10015
0.17421	0.20219
-0.00431	0.02363
0.17421	0.20219
0.14870	0.12566
0.14870	0.15117
0.14870	0.15117
0.09770	0.17668
0.22521	0.22769
0.09770	0.10015
0.19971	0.25320
0.12320	0.12566
0.22521	0.12566
0.14870	0.15117
0.12320	0.12566
0.14870	0.15117
0.12320	0.15117
0.14870	0.15117
0.09770	0.04914
0.22521	0.25320
0.09770	0.12566
0.22521	0.17668
0.12320	0.10015
0.12320	0.15117
0.14870	0.15117
0.12320	0.15117
0.14870	0.17668
0.19971	0.17668
0.09770	0.10015
0.22521	0.17668
0.12320	0.15117
0.14870	0.12566
0.12320	0.10015
0.14870	0.10015
0.17421	0.20219
0.07220	0.04914
0.22521	0.22769
0.07220	0.07465
0.22521	0.25320
0.07220	0.17668
0.19971	0.07465
0.02119	0.12566
0.09770	0.15117
0.14870	0.10015
0.25071	0.30422
0.12320	-0.02739
0.25071	0.25320
0.12320	0.15117
0.19971	0.22769
0.09770	0.10015
0.17421	0.15117
-0.15732	0.10015
0.27621	0.22769
0.14870	0.07465
0.27621	0.15117
0.09770	0.12566
0.25071	0.17668
0.02119	0.15117
0.17421	0.15117
-0.18282	0.07465
0.40372	0.22769
0.09770	0.12566
0.32721	0.45726
0.14870	-0.00188
0.25071	0.15117
0.14870	0.07465
0.27621	0.17668
-0.20832	0.10015
-0.69285	0.25320
0.42922	0.15117
0.63323	0.15117
0.48022	0.15117
0.32721	0.02363
0.27621	0.32972
0.12320	0.25320
0.02119	0.27871
-0.18282	0.10015
-0.20832	-0.46102
-0.08081	-0.12942
0.60773	0.53379
0.53123	0.22769
0.04670	0.20219
0.07220	0.48277
0.32721	-0.25695
0.60773	0.38074
-1.15188	0.27871
-1.30489	0.20219
0.70974	0.02363
1.14327	0.15117
0.73524	0.27871
0.50573	0.27871
0.53123	-0.00188
0.40372	0.15117
0.35272	-0.41000
-0.05531	0.35523
-0.05531	0.78886
-0.13181	-0.86914
-0.10631	1.24800
-0.89686	-1.30277
-0.18282	0.10015
0.19971	0.35523
0.02119	0.63582
0.32721	-0.18043
0.50573	0.63582
0.35272	0.73785
0.83725	0.38074
1.01576	-0.25695
0.76074	1.55410
0.53123	-3.57296
-1.43240	0.61031
-3.39602	0.40625
0.70974	0.78886
0.63323	0.50828
0.86275	0.81437
0.78624	-2.32308
0.48022	0.43176
0.35272	1.12046
0.45472	1.29902
-0.00431	-1.07320
0.17421	1.01843
-0.15732	1.32453
0.07220	-1.71090
0.65874	0.83988
0.55673	0.53379
-0.05531	1.17148
-0.71835	-0.46102
-2.50347	-2.24656
-2.17195	-0.23145
0.48022	0.78886
1.78081	1.57960
2.16333	1.06945
1.75531	-0.99668
-0.51434	2.24281
0.14870	0.63582
1.11776	0.45726
0.55673	-0.07840
0.50573	1.75816
0.14870	-1.43031
-2.73298	-0.56305
-1.61091	-0.23145
1.39828	0.55929
0.86275	-0.51203
-0.38683	0.61031
0.32721	2.37034
0.07220	-2.29757
0.37822	0.40625
0.37822	-0.66508
-0.05531	-2.22105
-0.33583	0.78886
0.14870	-2.85874
0.35272	1.98773
0.09770	1.22250
-0.66735	0.71234
1.14327	0.50828
0.86275	0.50828
0.32721	-0.28246
0.53123	0.15117
0.60773	2.03874
-0.99887	0.40625
0.27621	-0.00188
0.40372	-0.25695
0.81175	-0.10391
0.50573	-0.56305
-0.71835	-4.36370
0.32721	-0.61406
-0.18282	3.59471
-0.33583	1.37554
-0.38683	0.91640
0.53123	0.76336
0.30171	0.50828
-1.07538	-0.66508
1.04126	0.94191
1.52579	0.81437
0.58223	-1.45582
0.17421	-0.92016
-0.00431	3.11007
-0.38683	-0.43551
-0.33583	-0.69059
-0.46334	0.30422
0.02119	1.40105
0.17421	1.32453
0.07220	1.12046
0.60773	0.58480
0.30171	-0.48652
0.12320	-0.97117
0.25071	-0.66508
0.73524	-0.63957
0.02119	2.01323
-0.38683	-3.24136
-0.20832	-0.28246
-0.00431	1.55410
0.04670	0.55929
0.48022	0.71234
0.73524	2.01323
-0.97337	0.63582
-0.99887	0.12566
1.72980	-0.84363
1.90832	-0.76711
0.83725	-0.69059
-0.33583	-1.35379
-0.59084	-1.55785
-0.33583	0.17668
-0.38683	-2.19554
-0.20832	-0.35899
0.04670	0.58480
-0.38683	1.47757
0.37822	1.40105
0.27621	0.15117
0.42922	0.25320
0.76074	-0.35899
0.17421	-1.30277
0.12320	0.10015
0.12320	0.25320
0.37822	0.20219
0.42922	-4.92487
0.35272	1.37554
-1.20288	0.55929
-0.79486	0.83988
1.11776	0.66132
1.21977	1.06945
0.93925	0.96742
-1.20288	0.61031
0.86275	0.83988
0.60773	-0.92016
-2.80949	0.40625
0.78624	0.91640
0.60773	1.78367
0.19971	-5.84315
-0.13181	-1.04770
0.48022	1.50308
0.63323	1.04394
0.12320	0.55929
-0.00431	-0.07840
-0.82036	0.96742
0.65874	0.35523
0.09770	0.53379
0.30171	-2.52714
0.53123	-0.20594
0.22521	0.58480
0.50573	0.02363
-1.43240	1.47757
0.73524	-0.20594
0.91375	-0.05289
0.02119	0.83988
-0.15732	0.86539
0.22521	0.12566
0.25071	0.94191
0.17421	-0.30797
0.17421	-0.69059
0.12320	-0.25695
0.07220	-0.35899
0.22521	-0.28246
0.07220	0.38074
0.32721	1.32453
-0.10631	-1.25176
0.09770	0.50828
0.32721	0.63582
0.14870	0.76336
0.17421	-0.35899
-0.08081	1.24800
-0.00431	-0.99668
-0.59084	-2.32308
-0.74385	0.81437
1.88281	-1.07320
0.25071	0.96742
0.27621	0.30422
0.07220	3.41616
-0.05531	0.83988
0.07220	-0.99668
-0.13181	0.86539
0.32721	0.43176
0.14870	0.50828
-0.00431	0.55929
0.30171	0.94191
0.22521	-0.97117
0.17421	-1.35379
0.12320	0.96742
-0.05531	0.17668
0.19971	0.73785
0.32721	2.62542
0.17421	0.50828
-0.02981	-1.99148
-0.18282	-0.00188
0.04670	0.76336
0.86275	1.47757
0.32721	-0.63957
-0.18282	-0.97117
-0.13181	-3.70050
-0.38683	1.17148
0.48022	2.03874
0.19971	0.12566
0.09770	1.68163
-0.02981	0.10015
0.32721	0.25320
0.22521	0.22769
0.17421	0.50828
0.14870	-0.28246
0.25071	0.66132
0.25071	-0.10391
0.07220	0.04914
0.04670	1.60511
0.37822	-2.27207
-0.48884	0.15117
-0.05531	-1.88945
0.09770	0.76336
0.58223	1.22250
0.35272	0.22769
0.07220	1.14597
0.12320	0.55929
0.04670	1.29902
0.07220	-2.19554
0.07220	0.96742
0.07220	-0.20594
-0.08081	1.73265
0.04670	-4.15964
0.19971	0.68683
0.30171	0.76336
0.17421	0.20219
0.22521	0.58480
0.45472	1.04394
0.25071	3.23761
0.04670	-2.37410
-0.00431	0.96742
0.27621	-2.37410
-0.02981	-2.11902
-0.28482	0.30422
0.32721	0.50828
0.40372	-0.28246
-0.02981	-0.84363
0.27621	1.06945
0.32721	2.57441
0.30171	0.20219
0.19971	-1.86394
-0.02981	-2.55265
0.17421	0.61031
0.04670	0.04914
-0.00431	1.24800
0.25071	1.37554
0.12320	0.68683
0.22521	0.40625
0.17421	0.22769
0.14870	0.73785
0.09770	0.89089
0.30171	0.20219
0.19971	-1.78742
0.30171	-2.34859
0.17421	1.06945
0.42922	2.06425
0.12320	-1.48133
0.12320	-0.99668
-0.38683	2.19179
-0.05531	1.55410
0.37822	0.45726
0.42922	0.30422
-0.02981	0.71234
0.22521	-1.60887
0.02119	1.17148
-0.23382	-2.11902
0.30171	1.57960
0.37822	-3.93007
0.14870	1.63062
0.27621	0.76336
-0.05531	1.22250
0.25071	-1.50683
0.27621	1.68163
-0.15732	0.63582
0.12320	0.55929
0.12320	-1.30277
-0.02981	1.22250
0.14870	-0.56305
0.48022	1.40105
0.35272	-1.40480
0.32721	0.83988
0.19971	1.24800
-0.00431	0.35523
0.19971	0.40625
0.07220	0.43176
0.17421	0.10015
0.02119	-0.76711
0.02119	0.15117
0.09770	-0.97117
0.14870	3.41616
0.09770	-4.56776
0.14870	0.55929
0.32721	-0.20594
0.02119	1.42656
0.27621	1.47757
0.17421	1.14597
0.12320	0.32972
0.04670	-0.12942
0.02119	0.17668
-0.02981	-0.07840
0.45472	0.32972
0.35272	-0.74160
0.53123	1.24800
0.07220	-3.72601
-0.02981	0.32972
0.02119	-0.46102
-0.48884	0.81437
0.25071	1.91120
0.53123	-0.76711
0.37822	0.25320
0.14870	0.94191
0.22521	1.37554
0.22521	2.06425
0.07220	-2.01699
0.04670	0.86539
0.02119	-1.40480
0.12320	0.66132
0.14870	0.27871
0.09770	0.94191
0.17421	0.04914
0.04670	0.04914
0.14870	-0.05289
0.12320	-2.09351
0.22521	0.27871
0.35272	3.64573
0.14870	-3.85355
0.12320	-0.74160
0.14870	0.55929
0.12320	0.76336
0.14870	0.50828
0.07220	0.32972
-0.02981	0.91640
0.19971	0.53379
0.12320	0.32972
0.32721	0.25320
0.17421	-0.28246
0.37822	0.73785
0.04670	-1.22625
0.14870	0.94191
0.22521	-1.88945
0.12320	1.52859
0.04670	0.35523
-0.13181	0.40625
-0.00431	0.43176
0.07220	1.17148
0.27621	0.86539
0.27621	0.40625
0.37822	1.35003
0.14870	-2.83324
0.04670	1.17148
0.12320	-0.46102
0.09770	-3.54745
0.27621	1.57960
0.12320	0.91640
0.09770	0.61031
0.04670	0.32972
0.22521	0.45726
0.12320	0.02363
0.30171	-0.18043
0.17421	0.30422
0.04670	0.15117
0.14870	-0.61406
0.09770	-0.10391
0.14870	0.66132
0.12320	1.27351
0.09770	-0.66508
0.14870	-0.15492
0.14870	-0.07840
0.14870	0.15117
0.22521	0.68683
0.17421	1.24800
0.12320	-2.39961
0.09770	1.27351
0.22521	0.61031
0.19971	1.06945
-0.13181	1.27351
-0.05531	-0.35899
0.27621	-0.53754
0.27621	0.02363
0.14870	1.88570
0.37822	-2.34859
-0.00431	0.81437
0.12320	1.09496
0.35272	-0.10391
0.14870	-0.33348
-0.18282	-1.65988
0.07220	2.14077
0.09770	-0.99668
0.22521	0.99292
0.25071	1.19699
-0.13181	0.07465
0.30171	0.38074
0.25071	1.09496
0.14870	0.63582
0.25071	-0.15492
0.09770	-0.97117
0.19971	0.86539
0.02119	-0.18043
0.17421	0.07465
0.19971	-0.66508
0.25071	-0.05289
0.09770	-0.76711
0.02119	1.65613
0.17421	-1.02219
0.14870	0.83988
0.25071	0.30422
0.09770	1.60511
0.12320	-2.01699
0.04670	-0.53754
0.22521	1.57960
0.25071	-0.79262
0.12320	0.96742
0.19971	0.53379
0.30171	0.61031
0.12320	0.27871
0.19971	0.32972
0.12320	-0.66508
0.14870	0.76336
0.14870	0.22769
0.17421	-0.56305
-0.00431	-1.86394
0.14870	0.81437
0.12320	0.55929
0.17421	3.69675
0.27621	-3.70050
0.12320	0.32972
0.07220	-1.48133
0.02119	1.83468
0.22521	0.63582
0.14870	1.75816
0.32721	1.17148
0.22521	0.25320
-0.08081	0.61031
0.32721	0.02363
0.14870	-0.12942
0.19971	-4.33819
0.19971	0.32972
0.09770	0.83988
0.19971	0.58480
0.07220	0.40625
0.17421	0.35523
-0.10631	-0.15492
0.02119	0.10015
0.07220	0.94191
0.35272	0.71234
0.35272	-3.01179
0.07220	0.15117
0.27621	1.45206
0.12320	1.37554
0.09770	-0.92016
0.04670	1.24800
0.07220	-0.56305
0.35272	0.96742
0.25071	2.44687
0.22521	-1.35379
0.07220	-2.37410
0.07220	0.22769
0.12320	2.37034
0.04670	0.35523
0.17421	0.96742
0.07220	-4.00659
0.12320	0.53379
0.09770	0.91640
0.12320	0.81437
0.30171	0.71234
0.07220	0.91640
0.25071	0.63582
0.12320	-1.04770
0.27621	-0.92016
0.14870	0.10015
0.09770	0.86539
0.22521	0.86539
0.07220	0.35523
0.12320	-0.05289
0.19971	0.53379
0.12320	-0.58856
0.17421	0.27871
0.02119	-0.12942
0.12320	1.70714
0.17421	-2.93527
0.14870	1.27351
0.30171	1.04394
0.14870	-0.18043
0.04670	0.68683
0.22521	1.88570
0.17421	-3.64948
0.22521	1.19699
0.07220	0.10015
0.22521	1.17148
0.09770	-0.86914
0.22521	0.89089
0.07220	0.32972
0.12320	-0.12942
0.07220	1.24800
0.19971	-0.25695
0.14870	-0.00188
0.14870	0.50828
0.07220	-1.96597
0.02119	0.66132
0.19971	-1.02219
0.09770	1.12046
0.17421	0.78886
0.22521	0.55929
0.09770	1.06945
0.12320	-0.94566
0.14870	0.94191
0.17421	-0.25695
0.12320	-0.58856
-0.00431	-0.10391
0.25071	0.32972
0.04670	0.61031
0.14870	0.50828
0.35272	-0.58856
0.37822	0.71234
0.22521	1.35003
0.09770	-1.40480
0.09770	0.40625
0.04670	0.35523
0.27621	-0.58856
0.09770	0.35523
0.12320	0.40625
0.04670	0.81437
0.12320	0.53379
0.25071	1.65613
0.12320	-2.50164
0.22521	-1.30277
-0.08081	0.81437
0.09770	-0.18043
0.22521	-0.20594
0.14870	0.66132
0.27621	0.96742
0.12320	-0.51203
0.27621	0.53379
0.17421	0.22769
0.25071	0.73785
0.07220	0.20219
0.09770	-0.05289
0.12320	-1.12422
0.07220	1.12046
0.12320	-1.68539
0.07220	0.04914
0.25071	0.66132
0.14870	0.66132
0.19971	0.71234
0.25071	-0.15492
0.02119	0.32972
0.14870	0.96742
0.09770	-0.38449
0.25071	0.58480
0.17421	-2.04250
0.07220	0.22769
0.04670	0.94191
0.14870	0.94191
0.07220	-0.51203
0.14870	0.35523
0.25071	0.78886
0.19971	-0.18043
-0.10631	-0.43551
0.22521	-1.25176
0.25071	1.17148
0.19971	0.86539
0.14870	0.04914
0.17421	0.20219
0.07220	1.14597
0.09770	-0.23145
0.07220	0.32972
0.14870	0.66132
0.14870	0.53379
0.17421	0.30422
0.09770	-1.88945
0.04670	0.15117
0.19971	0.22769
0.17421	0.22769
0.35272	0.58480
0.14870	-0.00188
0.02119	0.89089
0.07220	-0.25695
0.17421	-0.38449
0.27621	-0.28246
0.12320	0.50828
0.19971	-0.28246
0.14870	1.27351
0.14870	1.35003
0.12320	-1.55785
0.22521	0.43176
0.07220	0.38074
0.19971	-0.18043
0.07220	0.17668
0.30171	0.73785
0.04670	0.12566
0.12320	-0.66508
0.02119	0.71234
0.12320	0.50828
0.19971	-0.28246
0.12320	0.15117
0.22521	0.68683
0.07220	-0.35899
0.27621	0.50828
0.12320	0.48277
0.22521	0.27871
0.09770	-0.92016
0.14870	0.81437
0.07220	-0.23145
0.12320	0.10015
0.17421	1.37554
0.19971	-0.89465
0.09770	-0.46102
0.22521	1.01843
0.02119	0.40625
0.14870	-0.38449
0.04670	0.61031
0.12320	1.09496
0.17421	-1.68539
0.09770	0.94191
0.32721	-0.46102
0.22521	1.22250
0.22521	-0.86914
0.12320	-1.55785
0.17421	0.12566
-0.00431	2.16628
0.22521	-1.09871
0.02119	0.86539
0.09770	-0.58856
0.17421	0.66132
0.27621	1.01843
0.12320	-2.42511
0.25071	0.27871
0.09770	-0.41000
0.07220	1.12046
-0.00431	0.71234
0.12320	1.06945
0.19971	0.02363
0.25071	0.15117
0.14870	0.58480
0.17421	0.38074
0.09770	-1.88945
0.22521	1.14597
0.09770	-0.48652
0.07220	0.25320
0.17421	-0.05289
0.19971	-0.05289
0.12320	1.14597
0.12320	0.35523
0.14870	-0.07840
0.12320	-0.02739
0.02119	0.20219
0.19971	0.58480
0.22521	1.73265
0.32721	-1.99148
0.04670	0.15117
0.17421	0.50828
0.09770	0.45726
0.12320	1.27351
0.12320	-1.53234
0.22521	0.50828
0.07220	-0.00188
0.09770	0.71234
0.17421	-0.20594
0.09770	0.55929
0.25071	0.55929
0.12320	0.83988
0.22521	-1.14973
0.09770	0.45726
0.04670	0.55929
0.27621	-0.07840
0.02119	-0.66508
-0.08081	-0.99668
0.27621	0.55929
0.25071	1.27351
0.19971	-0.15492
0.19971	-0.12942
0.17421	0.12566
0.27621	0.25320
0.22521	1.06945
0.12320	-0.43551
0.14870	0.86539
0.02119	0.53379
0.04670	-0.76711
0.17421	0.38074
0.09770	0.91640
0.09770	-0.84363
0.22521	0.55929
0.17421	-0.18043
0.07220	-0.00188
0.22521	0.66132
0.12320	-0.07840
0.12320	-0.63957
0.22521	0.53379
0.14870	0.35523
0.19971	-0.20594
0.22521	0.66132
0.12320	0.91640
0.12320	0.45726
0.19971	0.10015
0.02119	-0.07840
0.09770	0.53379
0.17421	0.50828
0.12320	-1.27726
0.22521	0.22769
0.27621	0.43176
0.09770	0.71234
0.12320	0.50828
0.04670	1.01843
0.09770	-0.97117
0.14870	-0.86914
0.19971	0.25320
0.12320	-0.12942
0.07220	-0.02739
0.30171	1.17148
0.12320	0.20219
0.25071	0.53379
0.25071	0.94191
-0.02981	0.22769
0.19971	-0.84363
0.14870	0.20219
0.07220	0.68683
0.09770	-0.15492
0.09770	-0.00188
0.09770	0.25320
0.19971	0.48277
0.07220	0.63582
0.19971	0.22769
0.19971	0.20219
0.25071	1.27351
0.30171	-2.01699
0.07220	-1.45582
-0.02981	1.17148
0.12320	2.01323
0.19971	0.76336
0.19971	-0.35899
0.19971	-1.71090
0.12320	0.76336
0.07220	1.63062
0.22521	-1.76191
0.22521	0.94191
0.07220	0.07465
0.22521	0.55929
0.12320	0.81437
0.09770	-1.68539
0.22521	0.50828
0.17421	0.20219
0.17421	0.76336
0.12320	0.17668
0.09770	0.40625
0.09770	0.22769
0.22521	0.07465
0.07220	0.50828
0.12320	-2.52714
0.07220	0.68683
0.12320	0.55929
0.22521	0.99292
0.17421	0.71234
0.19971	0.81437
0.19971	-0.43551
0.17421	0.27871
-0.13181	-0.07840
0.02119	-0.92016
0.27621	0.27871
0.27621	0.32972
0.02119	0.73785
0.07220	-0.94566
0.14870	1.01843
0.19971	0.15117
0.19971	0.12566
0.19971	-1.63437
0.04670	0.38074
0.09770	1.12046
0.19971	1.55410
0.19971	-0.74160
0.12320	-1.53234
-0.02981	0.58480
0.12320	0.81437
0.17421	0.53379
0.19971	0.43176
0.22521	-0.12942
0.12320	-0.25695
0.12320	2.08976
0.14870	-0.18043
0.12320	-2.55265
0.17421	0.15117
0.09770	0.66132
0.17421	0.22769
0.09770	0.91640
0.14870	-0.79262
0.19971	0.43176
0.09770	0.30422
0.25071	0.66132
0.07220	0.12566
0.25071	0.43176
0.04670	0.35523
0.17421	-0.71609
0.19971	0.02363
0.19971	-0.76711
0.09770	0.12566
0.02119	1.09496
0.07220	0.81437
0.19971	0.76336
0.30171	0.22769
0.14870	-0.28246
0.09770	0.30422
0.09770	-0.23145
0.22521	0.61031
0.09770	0.25320
0.30171	0.58480
0.07220	-1.50683
0.12320	0.38074
-0.00431	0.20219
0.09770	-0.41000
0.14870	0.38074
0.17421	0.89089
0.14870	0.55929
0.07220	0.58480
0.17421	0.07465
0.22521	0.55929
0.07220	-3.16484
0.17421	0.94191
0.12320	-0.43551
0.17421	0.83988
0.22521	0.86539
0.07220	0.89089
0.14870	0.27871
0.09770	0.50828
0.22521	-0.97117
0.12320	-0.43551
0.14870	0.25320
0.17421	0.27871
0.09770	0.40625
0.02119	0.25320
0.14870	0.89089
0.09770	-0.86914
0.22521	-0.15492
0.22521	0.45726
0.22521	1.57960
0.14870	0.20219
-0.10631	-1.25176
0.22521	-1.55785
0.09770	1.17148
0.27621	0.63582
0.07220	0.35523
0.30171	0.02363
0.12320	0.96742
0.19971	0.55929
0.02119	0.43176
0.14870	0.22769
0.12320	0.07465
0.14870	-0.46102
0.09770	-0.89465
0.30171	0.32972
0.07220	0.10015
0.22521	0.10015
0.09770	0.12566
0.27621	0.58480
0.07220	-0.12942
0.17421	0.35523
0.04670	0.38074
0.14870	0.02363
0.07220	0.27871
0.32721	-0.25695
0.19971	0.55929
0.09770	-0.66508
0.02119	-1.30277
0.19971	1.93671
0.09770	0.32972
0.32721	0.25320
0.17421	0.40625
0.14870	-0.61406
0.14870	1.27351
0.07220	0.78886
0.19971	-0.35899
0.07220	0.20219
0.19971	-0.58856
0.07220	0.27871
0.14870	0.40625
0.07220	-0.05289
0.12320	-0.18043
0.07220	0.12566
0.19971	-0.35899
0.12320	0.58480
0.22521	-0.23145
0.14870	0.12566
-0.02981	-0.20594
0.27621	0.53379
0.25071	0.99292
0.17421	-0.56305
0.14870	0.71234
0.17421	-0.48652
0.09770	0.43176
0.19971	-0.02739
0.14870	1.06945
0.14870	1.01843
0.12320	0.58480
0.07220	0.25320
0.22521	-0.38449
0.09770	-0.05289
0.12320	1.19699
0.09770	-0.63957
0.09770	-1.73640
0.12320	-1.12422
0.12320	0.89089
0.30171	1.06945
0.25071	0.76336
0.12320	0.15117
0.14870	0.12566
0.30171	0.63582
0.17421	0.17668
0.12320	1.09496
0.14870	-0.18043
0.12320	-0.58856
0.12320	-0.00188
-0.02981	0.40625
0.19971	-1.83844
0.22521	0.35523
0.12320	0.73785
0.12320	0.86539
0.30171	1.04394
0.09770	-0.18043
0.19971	0.40625
0.19971	0.12566
0.19971	0.35523
0.09770	0.10015
-0.02981	0.66132
0.04670	-0.02739
0.07220	0.89089
0.22521	-1.68539
0.22521	0.58480
0.30171	-0.05289
0.09770	-0.66508
0.19971	0.73785
0.09770	0.76336
0.22521	-0.02739
0.12320	2.54890
0.14870	-2.01699
0.12320	-0.81812
-0.05531	1.04394
0.22521	-1.07320
0.30171	0.55929
0.12320	0.50828
0.02119	0.35523
0.04670	0.17668
0.17421	0.22769
0.27621	-0.12942
0.30171	0.30422
0.12320	-0.63957
0.14870	0.66132
0.22521	-0.05289
0.09770	0.81437
0.04670	-0.38449
0.09770	0.38074
0.19971	0.78886
0.30171	-0.43551
0.22521	0.96742
0.14870	0.38074
0.14870	-0.43551
0.09770	0.43176
-0.05531	0.35523
0.14870	-0.05289
0.22521	0.35523
0.27621	0.55929
0.14870	-1.48133
0.19971	-0.56305
0.09770	0.53379
0.14870	0.63582
0.12320	1.14597
0.09770	0.20219
0.14870	0.63582
0.19971	-2.34859
0.14870	1.35003
0.02119	-1.73640
0.22521	0.81437
0.14870	1.14597
0.27621	1.06945
0.12320	0.86539
0.17421	1.17148
0.12320	-0.20594
0.22521	-0.84363
0.09770	-1.09871
0.07220	0.25320
0.09770	0.15117
0.19971	-0.43551
0.17421	0.55929
0.07220	0.86539
0.22521	-0.00188
0.19971	-0.92016
0.19971	0.38074
0.04670	0.35523
0.19971	0.71234
0.22521	0.50828
0.02119	0.40625
-0.05531	-0.30797
0.09770	-0.02739
0.27621	0.22769
0.12320	0.22769
0.22521	1.12046
0.12320	-2.80773
0.14870	1.35003
-0.02981	-0.76711
0.22521	0.83988
0.22521	-0.56305
0.17421	0.73785
0.27621	1.24800
-0.00431	0.32972
0.14870	0.12566
0.19971	0.53379
0.04670	-0.10391
0.09770	0.07465
0.07220	-1.22625
0.17421	0.55929
0.17421	-0.63957
0.14870	0.32972
0.27621	0.76336
0.19971	0.78886
0.19971	-0.35899
0.09770	0.76336
0.19971	0.61031
-0.00431	-0.18043
0.17421	0.30422
0.04670	0.25320
0.14870	0.58480
0.14870	-1.45582
0.07220	0.91640
0.14870	-0.43551
0.14870	-0.69059
0.37822	0.76336
0.22521	-0.53754
0.12320	1.24800
0.07220	1.35003
0.19971	0.12566
0.30171	0.58480
-0.10631	-0.41000
0.09770	0.25320
0.14870	0.22769
0.07220	-0.12942
0.19971	-0.05289
-0.00431	-1.04770
0.35272	1.29902
0.32721	-0.23145
0.19971	1.93671
0.14870	-1.48133
0.12320	-0.63957
0.12320	-0.20594
0.02119	-0.15492
0.14870	0.86539
0.12320	-0.28246
0.30171	1.19699
0.02119	0.50828
0.14870	-0.51203
0.04670	0.86539
0.12320	-0.92016
0.19971	0.45726
0.19971	0.76336
0.25071	0.32972
0.17421	-0.69059
-0.02981	0.12566
-0.08081	1.14597
0.19971	-0.07840
0.35272	0.25320
0.27621	-0.15492
0.22521	0.43176
0.12320	0.12566
0.22521	0.04914
0.07220	0.61031
0.14870	-0.41000
-0.00431	0.15117
0.17421	0.32972
0.07220	0.17668
0.12320	0.32972
0.02119	-1.12422
0.17421	0.35523
0.12320	1.98773
0.12320	0.17668
0.25071	-2.65468
0.35272	-1.86394
0.22521	1.12046
-0.05531	1.50308
0.12320	1.17148
0.04670	0.86539
0.22521	0.71234
0.07220	-0.74160
0.22521	0.17668
0.27621	0.10015
0.22521	0.10015
0.19971	0.35523
0.17421	-0.30797
0.09770	0.12566
0.12320	0.12566
0.02119	-0.00188
0.07220	0.02363
0.09770	-0.07840
0.12320	0.17668
0.14870	0.20219
0.22521	0.25320
0.02119	0.30422
0.22521	0.53379
0.27621	0.96742
0.14870	0.40625
0.22521	1.32453
0.12320	-0.46102
0.14870	-3.54745
0.04670	-1.99148
0.12320	1.04394
0.07220	1.75816
0.19971	0.02363
0.12320	0.73785
0.35272	0.71234
0.12320	0.43176
0.12320	0.27871
0.09770	0.17668
0.30171	-0.05289
0.14870	-0.15492
-0.08081	-0.10391
-0.18282	-0.25695
0.19971	0.04914
0.40372	0.04914
0.22521	0.43176
0.22521	-0.94566
0.25071	0.50828
0.17421	-0.02739
0.12320	0.48277
0.04670	0.96742
0.09770	-0.56305
0.02119	-0.12942
0.09770	0.94191
0.12320	-0.81812
0.09770	1.22250
0.22521	0.10015
0.14870	-0.79262
0.27621	-0.86914
0.14870	1.29902
0.25071	1.42656
0.07220	0.07465
0.14870	0.55929
0.02119	-0.30797
0.22521	0.27871
-0.00431	0.15117
0.22521	0.17668
0.17421	0.15117
0.19971	0.04914
0.22521	-0.07840
0.17421	0.04914
0.02119	-0.05289
0.09770	0.27871
0.09770	0.43176
0.14870	-0.00188
0.12320	0.07465
0.07220	0.38074
0.12320	0.17668
0.25071	0.15117
0.12320	-0.05289
0.22521	1.52859
0.09770	1.35003
0.12320	-2.57816
0.12320	-1.22625
-0.00431	1.32453
0.19971	-0.12942
0.07220	-0.53754
0.19971	1.06945
0.14870	0.61031
0.22521	0.35523
0.02119	0.73785
0.14870	-0.71609
0.12320	-0.25695
0.22521	1.19699
0.27621	-0.05289
0.17421	-1.14973
0.14870	-0.38449
0.14870	0.22769
0.07220	0.15117
0.09770	0.15117
0.07220	0.27871
0.27621	0.15117
0.17421	0.76336
0.19971	1.06945
0.14870	0.04914
0.22521	0.55929
0.12320	0.50828
0.12320	-1.12422
0.12320	-1.73640
-0.00431	0.73785
0.07220	0.35523
0.04670	-0.41000
0.09770	0.71234
0.32721	0.91640
0.25071	-0.15492
0.19971	0.50828
0.22521	0.66132
0.07220	0.25320
0.17421	0.10015
0.19971	-0.10391
0.17421	-0.63957
0.22521	0.30422
0.07220	0.38074
0.14870	0.78886
0.04670	-0.63957
0.27621	1.06945
0.09770	-0.58856
-0.05531	-0.81812
0.12320	0.38074
0.17421	0.71234
0.09770	-0.28246
-0.18282	0.38074
0.32721	0.12566
0.42922	-0.63957
0.14870	0.17668
0.14870	0.58480
0.14870	0.22769
0.19971	0.27871
0.19971	0.27871
0.14870	0.04914
0.09770	0.17668
0.04670	0.20219
0.14870	0.32972
0.02119	0.04914
0.12320	1.01843
0.14870	-0.28246
0.25071	-1.60887
0.27621	1.63062
0.12320	0.71234
0.19971	-1.30277
0.02119	0.68683
0.07220	0.89089
0.12320	0.17668
0.09770	0.15117
0.14870	-0.00188
0.27621	-0.35899
0.22521	0.35523
0.25071	0.66132
0.19971	0.07465
0.17421	0.22769
0.19971	0.22769
0.02119	0.17668
0.12320	0.22769
-0.38683	0.48277
-0.10631	0.20219
0.37822	0.30422
0.27621	0.27871
0.48022	0.04914
0.25071	0.78886
0.14870	-1.04770
0.14870	-1.09871
0.14870	-0.05289
0.22521	0.94191
0.09770	0.68683
0.07220	1.01843
0.09770	-0.00188
0.12320	0.99292
0.17421	-1.09871
0.09770	0.02363
0.22521	0.30422
0.07220	0.61031
0.19971	-1.27726
0.09770	0.25320
0.30171	0.17668
0.09770	0.30422
0.12320	0.30422
0.17421	0.22769
0.14870	0.55929
0.07220	0.40625
0.09770	-0.46102
0.12320	-1.09871
0.22521	0.89089
-0.00431	-0.02739
0.19971	-0.35899
0.09770	0.35523
0.27621	1.06945
0.04670	0.76336
0.27621	0.89089
0.07220	0.58480
0.25071	-1.45582
0.09770	-0.43551
0.27621	-0.71609
0.19971	1.73265
0.02119	0.71234
0.02119	-0.51203
0.17421	0.45726
0.09770	0.58480
0.19971	-0.97117
0.12320	-0.00188
0.22521	0.35523
0.14870	0.45726
0.09770	0.25320
0.12320	-0.05289
0.09770	0.48277
0.27621	-0.15492
-0.00431	-0.05289
0.19971	0.86539
0.27621	1.09496
0.25071	-1.22625
-0.05531	0.35523
0.19971	-0.15492
0.14870	0.38074
-0.05531	0.55929
-0.08081	1.37554
0.27621	-1.53234
0.32721	0.96742
0.22521	-1.12422
0.22521	0.45726
0.12320	0.35523
0.02119	0.35523
0.19971	0.12566
0.02119	-0.35899
0.14870	-0.05289
0.02119	0.07465
0.19971	0.20219
0.09770	0.53379
0.22521	1.17148
0.12320	-1.14973
0.17421	0.07465
0.22521	1.14597
0.25071	-0.69059
0.09770	-1.07320
0.02119	0.61031
0.07220	-0.48652
0.17421	0.94191
0.19971	0.58480
0.09770	-0.38449
0.22521	-0.20594
0.12320	-0.00188
0.32721	0.04914
0.04670	0.89089
0.25071	1.35003
0.09770	0.04914
0.19971	-1.09871
0.17421	0.32972
0.14870	0.22769
0.17421	0.94191
0.09770	-0.28246
0.14870	1.57960
0.04670	-1.20074
0.25071	0.78886
0.04670	0.12566
0.22521	0.02363
-0.02981	-0.07840
0.19971	1.98773
0.09770	-1.68539
0.12320	-2.19554
0.12320	0.35523
0.04670	0.94191
0.30171	0.94191
0.17421	0.66132
0.12320	-0.38449
0.25071	1.06945
0.09770	0.53379
0.19971	0.17668
0.12320	1.12046
0.19971	-0.41000
0.14870	-0.00188
0.09770	-0.56305
0.02119	1.14597
0.17421	-2.96078
0.04670	0.68683
0.25071	1.68163
0.22521	-1.35379
0.19971	1.06945
0.17421	0.66132
0.04670	0.15117
0.19971	0.17668
0.14870	1.40105
0.09770	0.35523
0.17421	-2.06800
0.07220	0.15117
0.17421	0.32972
0.17421	0.48277
0.12320	0.43176
0.12320	0.50828
0.02119	0.48277
0.22521	-1.07320
0.19971	0.76336
0.17421	0.55929
0.27621	0.32972
0.07220	-0.00188
0.25071	0.17668
0.12320	-0.05289
0.09770	0.50828
0.25071	0.35523
0.09770	0.94191
0.12320	-1.20074
0.07220	0.68683
-0.00431	-0.84363
0.22521	-1.02219
0.12320	1.60511
0.30171	0.38074
0.12320	0.32972
0.19971	0.63582
0.09770	0.22769
0.07220	0.35523
0.22521	0.50828
0.14870	0.17668
0.30171	0.81437
0.04670	-2.50164
0.22521	-0.28246
0.02119	0.48277
0.09770	0.15117
0.12320	1.29902
0.07220	-0.20594
0.19971	-0.66508
0.12320	0.45726
0.17421	1.32453
0.25071	-0.25695
0.19971	0.71234
0.09770	1.19699
0.19971	-0.43551
0.02119	-0.61406
0.14870	0.68683
0.19971	0.25320
0.17421	-0.10391
0.22521	0.04914
0.09770	-0.48652
-0.02981	0.12566
-0.08081	0.83988
0.02119	0.15117
0.32721	-0.74160
0.22521	0.25320
0.30171	0.10015
0.09770	0.91640
0.22521	0.25320
0.14870	-0.43551
0.07220	0.48277
0.14870	0.71234
0.07220	-0.92016
0.17421	0.68683
0.09770	-0.99668
0.09770	-0.25695
0.09770	-0.10391
0.12320	0.83988
0.22521	1.32453
0.14870	0.73785
0.19971	0.12566
0.19971	-1.35379
0.09770	0.07465
0.19971	0.73785
0.14870	1.35003
0.07220	-2.27207
0.19971	0.73785
0.07220	0.55929
0.17421	-0.38449
0.07220	-0.58856
0.17421	1.06945
0.14870	1.83468
0.19971	-2.11902
0.09770	0.48277
0.12320	0.86539
0.12320	0.96742
0.25071	0.45726
0.22521	0.15117
0.14870	0.15117
0.12320	0.50828
0.12320	-1.50683
0.09770	0.25320
0.14870	-1.60887
0.14870	0.78886
0.19971	0.53379
0.25071	0.91640
0.04670	0.17668
0.14870	0.45726
0.22521	0.81437
0.07220	0.22769
0.14870	-0.89465
0.09770	1.32453
0.27621	0.35523
0.17421	-0.76711
0.14870	-0.81812
-0.02981	0.35523
0.17421	-0.23145
0.17421	0.50828
0.22521	0.25320
0.22521	0.43176
0.07220	0.10015
0.17421	-0.23145
0.14870	-0.56305
0.19971	0.96742
0.17421	1.24800
0.09770	1.12046
0.07220	0.25320
0.22521	-1.94047
0.14870	0.89089
0.12320	-0.18043
0.04670	0.02363
0.07220	-0.20594
0.17421	-0.69059
0.27621	0.66132
0.17421	0.61031
0.12320	1.52859
0.09770	-2.32308
0.14870	0.68683
0.22521	-0.35899
0.07220	0.25320
0.19971	0.40625
0.07220	0.43176
0.17421	0.38074
0.07220	0.27871
0.27621	0.22769
0.14870	0.12566
0.22521	0.02363
0.04670	-0.00188
0.17421	-0.05289
0.07220	0.20219
0.22521	1.06945
0.12320	0.68683
0.22521	-0.61406
0.25071	-0.97117
0.19971	-0.92016
-0.00431	-1.35379
-0.46334	1.52859
-0.25932	0.10015
0.22521	1.27351
0.63323	1.06945
0.53123	0.02363
0.42922	0.40625
0.30171	0.25320
0.25071	-0.05289
0.12320	0.02363
0.12320	0.02363
-0.00431	-0.02739
0.09770	-0.12942
-0.00431	0.04914
0.07220	0.15117
0.12320	-0.28246
0.09770	0.04914
0.19971	0.20219
0.12320	0.55929
0.19971	0.50828
0.19971	-0.66508
0.17421	0.50828
0.22521	0.55929
0.17421	0.48277
0.17421	0.25320
0.19971	0.22769
0.17421	0.15117
0.14870	0.04914
0.12320	-0.02739
0.14870	0.10015
0.09770	-0.02739
0.17421	0.15117
0.04670	0.27871
0.19971	0.58480
0.09770	-0.35899
0.30171	-0.28246
0.04670	-1.58336
0.02119	0.81437
0.02119	0.71234
0.37822	1.57960
0.40372	1.86019
0.32721	-0.76711
0.07220	0.38074
-0.28482	0.27871
-0.13181	0.02363
0.37822	-0.02739
0.37822	-0.05289
0.32721	-0.18043
0.35272	-0.05289
0.14870	-0.02739
0.17421	-0.00188
-0.02981	-0.02739
0.09770	0.48277
0.07220	0.40625
0.12320	-0.43551
0.17421	0.63582
0.02119	1.06945
0.17421	-2.42511
0.12320	-0.00188
0.14870	1.22250
0.14870	-0.71609
0.02119	1.01843
0.09770	0.35523
0.12320	0.45726
0.32721	0.71234
0.14870	-0.02739
0.27621	0.02363
0.12320	-0.02739
0.09770	0.10015
0.22521	0.15117
0.09770	-0.58856
0.12320	0.12566
0.14870	0.25320
0.22521	0.04914
0.17421	0.07465
0.19971	0.50828
0.09770	0.32972
0.25071	0.20219
0.09770	0.30422
0.09770	0.55929
0.14870	-0.92016
0.02119	0.30422
0.19971	-0.10391
0.09770	0.86539
0.22521	-1.09871
0.09770	-0.41000
0.19971	1.63062
0.12320	1.63062
0.04670	0.63582
0.12320	0.20219
0.32721	-1.45582
0.12320	0.76336
0.12320	-0.63957
0.12320	0.25320
0.19971	0.04914
0.19971	0.30422
0.12320	0.10015
0.22521	0.38074
0.09770	0.25320
0.19971	0.04914
-0.02981	-0.20594
0.12320	-0.05289
0.22521	0.73785
0.17421	-0.89465
0.22521	0.58480
-0.08081	1.19699
0.02119	0.15117
0.17421	0.15117
0.22521	-2.57816
0.22521	0.99292
0.14870	0.94191
0.17421	-0.35899
0.14870	0.73785
0.30171	0.83988
-0.08081	0.40625
-0.00431	-0.38449
-0.05531	0.04914
0.30171	-0.69059
0.27621	-0.10391
0.22521	0.30422
0.22521	0.35523
0.14870	0.38074
0.14870	0.48277
0.09770	0.76336
0.19971	-0.97117
0.04670	0.10015
0.14870	0.25320
0.02119	0.83988
0.14870	0.15117
0.04670	-0.18043
0.12320	-1.48133
0.17421	0.30422
0.25071	0.96742
0.17421	-0.33348
0.12320	0.73785
0.22521	0.71234
0.09770	0.45726
0.12320	0.83988
0.17421	0.15117
0.27621	0.04914
0.09770	0.35523
0.25071	-1.78742
0.02119	0.04914
0.12320	0.43176
0.02119	0.48277
0.22521	0.22769
0.09770	-0.02739
0.19971	0.20219
0.22521	0.22769
0.25071	0.45726
0.12320	0.07465
0.22521	0.40625
0.04670	0.32972
-0.02981	-1.53234
0.17421	1.45206
0.32721	-1.04770
-0.00431	1.09496
-0.02981	0.30422
0.09770	-0.10391
0.25071	0.20219
0.27621	-0.58856
0.22521	0.89089
0.17421	-0.38449
0.17421	0.32972
0.02119	0.38074
0.14870	0.25320
0.02119	0.43176
0.17421	-0.76711
0.04670	-0.00188
0.19971	0.15117
0.04670	0.12566
0.12320	0.07465
0.17421	0.15117
0.14870	0.20219
0.17421	0.35523
0.12320	0.27871
0.22521	0.20219
0.09770	0.15117
0.09770	0.71234
0.25071	0.63582
0.12320	-0.46102
0.22521	2.70194
0.04670	-5.07792
-0.02981	1.45206
-0.02981	0.81437
0.12320	0.32972
0.32721	0.89089
0.32721	0.35523
0.14870	-0.02739
0.04670	0.45726
-0.08081	-1.14973
0.14870	0.45726
0.37822	0.32972
0.22521	0.25320
0.14870	0.10015
0.14870	0.15117
0.12320	0.04914
0.07220	0.07465
0.17421	0.10015
0.07220	0.04914
0.22521	0.15117
0.07220	0.02363
0.14870	0.15117
0.07220	0.17668
0.12320	0.25320
0.25071	0.15117
0.07220	0.10015
0.30171	0.35523
0.12320	0.07465
0.22521	0.25320
0.19971	0.15117
0.27621	0.25320
0.09770	0.86539
0.17421	0.96742
0.07220	0.15117
0.19971	-0.46102
0.19971	-3.57296
-0.00431	0.20219
0.02119	1.88570
0.07220	-0.92016
0.22521	1.01843
0.30171	1.06945
0.09770	1.12046
0.07220	0.83988
0.09770	-1.32828
0.25071	0.12566
0.19971	0.04914
0.22521	0.12566
0.14870	0.02363
0.12320	0.02363
0.07220	0.02363
0.17421	0.02363
0.25071	0.20219
0.09770	0.15117
0.22521	0.25320
0.17421	0.27871
0.14870	0.17668
0.14870	0.30422
0.04670	-0.10391
0.17421	0.20219
0.09770	0.94191
0.12320	-1.60887
0.19971	0.89089
0.19971	0.22769
0.27621	-1.22625
0.09770	0.68683
0.09770	0.45726
0.14870	1.83468
0.22521	-0.74160
0.17421	0.55929
0.17421	1.17148
0.14870	-0.07840
0.09770	-0.79262
0.17421	0.40625
0.19971	-0.46102
0.12320	0.07465
0.02119	-0.66508
0.04670	0.10015
0.19971	0.43176
0.07220	0.63582
0.30171	0.15117
0.27621	0.32972
0.19971	0.40625
0.19971	0.17668
0.17421	0.07465
0.17421	0.78886
-0.00431	0.78886
0.07220	-2.50164
0.02119	-0.20594
0.17421	0.83988
0.14870	0.55929
0.12320	0.22769
0.14870	0.17668
0.14870	0.10015
0.25071	1.01843
0.17421	0.45726
0.07220	-2.88425
0.04670	0.96742
0.30171	0.81437
0.30171	-0.05289
0.19971	1.40105
0.17421	0.02363
0.25071	0.50828
0.07220	-0.10391
0.12320	-0.63957
-0.08081	-0.28246
0.17421	0.15117
0.19971	0.58480
0.14870	0.40625
0.19971	-0.07840
0.12320	1.14597
-0.05531	0.48277
0.22521	-2.45062
0.27621	1.27351
0.17421	1.06945
0.22521	-0.33348
0.22521	0.38074
0.02119	0.45726
0.19971	0.55929
0.12320	-1.17523
0.04670	-0.28246
0.07220	-0.10391
0.32721	0.76336
0.17421	-1.45582
0.09770	0.40625
0.07220	1.01843
0.19971	0.61031
0.27621	0.17668
0.14870	-0.18043
0.19971	0.45726
0.04670	0.99292
0.14870	-0.43551
0.09770	-0.15492
0.17421	0.20219
0.09770	0.53379
0.17421	-1.27726
0.02119	0.66132
0.19971	0.07465
0.22521	0.17668
0.12320	0.20219
0.17421	0.32972
0.17421	1.24800
0.07220	-0.89465
0.04670	0.20219
