0.12320	0.20219
0.12320	0.10015
0.09770	0.12566
0.17421	0.12566
0.07220	0.15117
0.30171	0.22769
0.14870	0.10015
0.19971	0.20219
0.09770	0.10015
0.19971	0.12566
0.07220	0.15117
0.17421	0.10015
0.07220	0.12566
0.19971	0.17668
0.09770	0.15117
0.19971	0.20219
0.07220	0.10015
0.22521	0.12566
0.07220	0.17668
0.19971	0.10015
0.09770	0.15117
0.19971	0.12566
0.14870	0.17668
0.14870	0.17668
0.19971	0.12566
0.09770	0.04914
0.22521	0.12566
0.09770	0.10015
0.17421	0.25320
0.04670	0.12566
0.19971	0.22769
0.09770	0.10015
0.19971	0.20219
0.07220	0.04914
0.22521	0.12566
0.07220	0.10015
0.22521	0.25320
0.09770	0.12566
0.19971	0.12566
0.14870	0.15117
0.14870	0.15117
0.12320	0.10015
0.12320	0.22769
0.14870	0.10015
0.22521	0.22769
0.09770	0.02363
0.12320	0.20219
0.12320	0.10015
0.14870	0.25320
0.14870	0.07465
0.22521	0.12566
0.07220	0.04914
0.19971	0.20219
0.09770	0.07465
0.19971	0.25320
0.12320	0.15117
0.12320	0.10015
0.12320	0.15117
0.14870	0.07465
0.14870	0.17668
0.12320	0.02363
0.17421	0.35523
0.12320	0.15117
0.19971	0.22769
0.07220	0.07465
0.22521	0.15117
0.09770	0.10015
0.22521	0.15117
0.09770	0.10015
0.19971	0.22769
0.07220	0.07465
0.19971	0.15117
0.09770	0.15117
0.19971	0.07465
0.09770	0.22769
0.17421	0.10015
0.07220	0.25320
0.14870	-0.00188
0.12320	0.30422
0.07220	0.22769
0.22521	0.12566
0.17421	0.12566
0.25071	0.12566
0.17421	0.12566
0.17421	0.15117
0.14870	0.17668
0.12320	0.10015
0.12320	0.15117
0.14870	0.17668
0.12320	0.22769
0.04670	0.02363
0.19971	0.20219
0.07220	0.04914
0.12320	0.25320
0.14870	0.15117
0.17421	0.12566
0.14870	0.04914
0.14870	0.22769
0.17421	0.12566
0.14870	0.20219
0.14870	0.15117
0.14870	0.17668
0.14870	0.12566
0.14870	0.15117
0.14870	0.10015
0.07220	0.12566
0.22521	0.35523
0.07220	0.10015
0.22521	0.15117
0.07220	-0.00188
0.19971	0.20219
0.07220	0.10015
0.14870	0.17668
0.14870	0.17668
0.22521	0.20219
0.14870	0.15117
0.22521	0.10015
0.07220	0.22769
0.17421	0.15117
0.19971	0.12566
0.12320	0.25320
0.19971	0.15117
0.17421	0.04914
0.12320	0.10015
0.14870	0.22769
0.14870	0.17668
0.09770	0.10015
0.12320	0.15117
0.19971	0.12566
0.14870	0.04914
0.12320	0.25320
0.19971	0.12566
0.12320	0.17668
0.17421	0.15117
0.19971	0.20219
0.14870	0.10015
0.22521	0.15117
0.07220	0.17668
0.19971	0.17668
0.07220	0.10015
0.22521	0.15117
0.07220	0.20219
0.19971	0.07465
0.07220	0.15117
0.19971	0.25320
0.07220	0.12566
0.19971	0.20219
0.12320	0.04914
0.22521	0.10015
0.04670	0.10015
0.14870	0.12566
0.09770	0.07465
0.12320	0.10015
0.27621	0.15117
0.12320	0.25320
0.22521	0.30422
0.12320	0.12566
0.22521	0.02363
0.07220	0.20219
0.17421	0.10015
0.17421	0.12566
0.12320	0.04914
0.14870	0.12566
0.17421	0.25320
0.19971	0.12566
0.04670	0.17668
0.17421	0.04914
0.07220	0.12566
0.17421	0.17668
0.25071	0.15117
0.07220	0.15117
0.22521	0.04914
0.09770	0.12566
0.12320	0.15117
0.14870	0.22769
0.09770	0.12566
0.22521	0.25320
0.04670	-0.02739
0.22521	0.25320
0.07220	0.22769
0.19971	0.22769
0.17421	-0.00188
0.12320	0.12566
0.14870	0.10015
0.22521	0.17668
0.07220	0.12566
0.22521	0.15117
0.14870	0.17668
0.14870	0.15117
0.14870	0.15117
0.12320	0.10015
0.22521	0.20219
0.09770	0.15117
0.19971	0.07465
0.07220	0.15117
0.22521	0.17668
0.17421	0.15117
0.12320	0.04914
0.17421	0.17668
0.12320	0.30422
0.22521	0.12566
0.07220	0.12566
0.12320	-0.05289
0.14870	0.04914
0.14870	0.02363
0.25071	0.15117
0.12320	0.20219
0.14870	0.10015
0.12320	0.22769
0.14870	0.20219
0.12320	0.20219
0.12320	0.12566
0.14870	0.30422
0.17421	0.10015
0.14870	0.17668
0.12320	0.07465
0.19971	0.10015
0.09770	0.04914
0.22521	0.32972
0.09770	0.04914
0.25071	0.17668
0.07220	0.02363
0.22521	0.07465
0.07220	0.10015
0.19971	0.15117
0.07220	0.07465
0.22521	0.17668
0.09770	0.04914
0.22521	0.25320
0.07220	0.07465
0.14870	0.32972
0.17421	0.10015
0.14870	0.12566
0.09770	-0.00188
0.19971	0.30422
0.07220	0.15117
0.19971	0.25320
0.09770	0.07465
0.19971	0.17668
0.07220	0.15117
0.22521	0.20219
0.14870	0.10015
0.12320	0.15117
0.14870	0.10015
0.19971	0.25320
0.07220	0.10015
0.22521	0.25320
0.07220	0.12566
0.12320	0.12566
0.07220	0.10015
0.22521	0.10015
0.09770	0.17668
0.19971	0.15117
0.07220	0.30422
0.14870	0.15117
0.12320	0.12566
0.07220	0.15117
0.17421	0.17668
0.07220	0.07465
0.14870	0.22769
0.14870	0.22769
0.14870	0.15117
0.12320	0.15117
0.12320	0.02363
0.22521	0.22769
0.09770	0.04914
0.22521	0.17668
0.17421	0.04914
0.14870	0.22769
0.12320	0.10015
0.12320	0.20219
0.12320	0.20219
0.14870	0.15117
0.12320	0.17668
0.14870	0.12566
0.12320	0.12566
0.09770	0.15117
0.14870	0.04914
0.07220	0.17668
0.12320	0.17668
0.14870	0.20219
0.14870	0.04914
0.12320	0.20219
0.09770	0.04914
0.19971	0.22769
0.09770	0.07465
0.22521	0.12566
0.07220	0.27871
0.17421	0.17668
0.07220	0.15117
0.25071	0.10015
0.07220	0.10015
0.22521	0.15117
0.07220	0.15117
0.22521	0.12566
0.07220	0.17668
0.19971	0.12566
0.12320	0.12566
0.25071	0.15117
0.14870	0.17668
0.12320	0.04914
0.19971	0.22769
0.07220	0.12566
0.19971	0.07465
0.09770	0.22769
0.14870	0.15117
0.14870	0.15117
0.09770	0.12566
0.19971	0.10015
0.09770	0.20219
0.22521	0.10015
0.02119	0.17668
0.17421	0.10015
0.19971	0.15117
0.02119	0.15117
0.25071	0.12566
0.09770	0.17668
0.32721	0.15117
0.09770	0.15117
0.04670	0.15117
0.09770	0.20219
0.12320	0.04914
0.17421	0.22769
0.14870	0.04914
0.32721	0.20219
0.25071	0.17668
0.09770	0.04914
-0.46334	0.17668
0.40372	0.15117
0.48022	0.15117
0.14870	0.12566
-0.41233	0.17668
0.19971	0.17668
0.37822	0.10015
0.76074	0.22769
-0.28482	0.04914
-0.25932	0.17668
0.63323	0.12566
0.50573	0.12566
-1.12638	0.15117
0.45472	0.17668
0.86275	0.15117
0.32721	0.12566
0.14870	0.10015
-0.99887	0.22769
0.40372	0.10015
0.17421	0.10015
0.09770	0.10015
-0.53984	0.22769
0.09770	0.10015
0.45472	0.22769
0.22521	0.07465
0.32721	0.15117
0.17421	0.17668
0.27621	0.12566
0.12320	0.10015
0.22521	0.22769
0.07220	0.10015
0.22521	0.15117
0.22521	0.10015
0.27621	0.15117
0.12320	0.17668
0.07220	0.15117
0.07220	0.15117
0.02119	0.04914
0.17421	0.17668
0.04670	0.07465
0.12320	0.27871
0.14870	0.10015
0.14870	0.15117
0.17421	0.07465
0.17421	0.20219
0.14870	0.10015
0.17421	0.17668
0.14870	0.15117
0.14870	0.12566
0.14870	0.12566
0.14870	0.12566
0.17421	0.12566
0.14870	0.17668
0.12320	0.15117
0.14870	0.15117
0.12320	0.15117
0.14870	0.20219
0.14870	0.20219
0.14870	0.12566
0.12320	0.15117
0.14870	0.17668
0.25071	0.12566
0.30171	0.17668
-0.51434	0.25320
0.45472	-0.00188
0.32721	0.22769
0.19971	0.07465
0.27621	0.22769
0.17421	0.12566
0.12320	0.22769
0.12320	0.07465
0.12320	0.15117
0.17421	0.15117
0.37822	0.12566
-0.53984	0.15117
0.35272	0.12566
0.14870	0.12566
0.25071	0.20219
0.12320	0.12566
0.19971	0.17668
0.07220	0.15117
0.22521	0.30422
0.09770	0.07465
0.25071	0.17668
0.09770	0.04914
0.22521	0.12566
0.09770	0.15117
0.12320	0.12566
0.17421	0.17668
0.09770	0.15117
0.22521	0.25320
0.17421	0.17668
0.22521	0.20219
0.07220	0.12566
0.12320	0.15117
0.07220	0.15117
0.12320	0.15117
0.14870	0.20219
0.12320	0.10015
0.17421	0.22769
0.04670	0.12566
0.25071	0.15117
0.14870	0.17668
0.32721	0.15117
0.02119	-0.00188
0.17421	0.25320
0.07220	0.15117
0.22521	0.17668
-0.02981	0.10015
0.37822	0.25320
0.35272	0.12566
0.19971	0.17668
-0.89686	0.07465
0.35272	0.20219
0.32721	0.04914
0.42922	0.20219
0.14870	0.07465
0.27621	0.20219
0.12320	0.12566
0.12320	0.12566
0.12320	0.15117
0.12320	0.12566
0.12320	0.20219
0.09770	0.12566
0.19971	0.12566
0.07220	0.12566
0.19971	0.12566
0.07220	0.15117
0.22521	0.15117
0.09770	0.15117
0.25071	0.10015
0.12320	0.17668
0.22521	0.02363
0.14870	0.22769
0.17421	0.10015
0.22521	0.15117
0.07220	0.17668
0.25071	0.10015
0.14870	0.20219
0.14870	0.07465
0.12320	0.25320
0.04670	0.07465
0.22521	0.15117
0.12320	0.15117
0.27621	0.15117
0.12320	0.12566
0.09770	0.12566
0.12320	0.22769
0.12320	0.12566
0.12320	0.17668
0.04670	0.12566
0.22521	0.17668
0.07220	0.07465
0.22521	0.22769
0.09770	0.10015
0.25071	0.15117
0.09770	0.10015
0.22521	0.15117
0.07220	0.10015
0.22521	0.22769
0.07220	0.07465
0.22521	0.17668
0.14870	0.12566
0.12320	0.15117
0.12320	0.12566
0.14870	0.07465
0.12320	0.15117
0.14870	0.10015
0.17421	0.17668
0.12320	0.00000
0.30171	0.00000
0.02119	0.00000
0.17421	0.00000
0.14870	0.20219
0.04670	0.17668
0.12320	0.22769
0.07220	0.10015
0.22521	0.20219
0.14870	0.07465
0.17421	0.15117
0.14870	0.20219
0.17421	0.04914
0.14870	0.15117
0.09770	0.07465
0.19971	0.22769
0.09770	0.07465
0.17421	0.17668
0.09770	0.17668
0.17421	0.17668
0.09770	0.10015
0.04670	0.07465
0.19971	0.22769
0.14870	0.15117
0.14870	0.17668
0.14870	0.17668
0.14870	0.10015
0.14870	0.17668
0.09770	0.12566
0.22521	0.25320
0.07220	0.12566
0.19971	0.25320
0.09770	0.04914
0.22521	0.17668
0.07220	0.04914
0.17421	0.15117
0.14870	0.20219
0.12320	0.15117
0.25071	0.15117
-0.00431	0.07465
0.14870	0.17668
0.30171	0.15117
0.22521	0.07465
0.17421	0.22769
-0.00431	0.04914
0.12320	0.17668
0.12320	0.20219
0.12320	0.17668
0.17421	0.15117
0.12320	0.02363
0.12320	0.22769
0.17421	0.04914
0.14870	0.20219
0.14870	0.07465
0.07220	0.17668
0.09770	0.12566
0.32721	0.25320
0.04670	0.07465
0.17421	0.25320
0.12320	0.04914
0.17421	0.20219
0.12320	0.10015
0.09770	0.22769
0.14870	0.15117
0.19971	0.12566
0.27621	0.10015
0.04670	0.04914
0.14870	0.20219
0.09770	0.10015
0.12320	0.15117
0.14870	0.15117
0.14870	0.12566
0.14870	0.22769
0.14870	0.10015
0.19971	0.22769
0.09770	0.15117
0.19971	0.12566
0.12320	0.10015
0.19971	0.25320
0.14870	0.02363
0.14870	0.22769
0.12320	0.10015
0.14870	0.12566
0.22521	0.12566
0.07220	0.17668
0.22521	0.15117
0.12320	0.15117
0.19971	0.20219
0.14870	0.07465
0.22521	0.22769
0.14870	0.15117
0.07220	0.15117
0.17421	0.17668
0.09770	0.10015
0.22521	0.17668
0.14870	0.15117
0.17421	0.17668
0.14870	0.15117
0.07220	0.07465
0.25071	0.22769
0.07220	0.10015
0.22521	0.12566
0.12320	0.12566
0.14870	0.15117
0.19971	0.17668
0.07220	0.04914
0.19971	0.20219
0.09770	0.12566
0.22521	0.25320
0.07220	0.02363
0.12320	0.17668
0.17421	0.15117
0.27621	0.15117
0.14870	0.20219
0.12320	0.17668
0.14870	0.12566
0.07220	0.17668
0.22521	0.07465
0.09770	0.12566
0.19971	0.20219
0.09770	0.07465
0.25071	0.17668
0.12320	0.17668
0.17421	0.17668
0.09770	0.07465
0.27621	0.17668
0.07220	0.04914
0.19971	0.22769
0.07220	0.10015
0.19971	0.20219
0.07220	0.10015
0.12320	0.22769
0.17421	0.15117
0.14870	0.15117
0.14870	0.12566
0.17421	0.15117
0.19971	0.20219
0.14870	0.12566
0.17421	0.17668
0.12320	0.17668
0.14870	0.15117
0.14870	0.15117
0.14870	0.15117
0.19971	0.15117
0.14870	0.12566
0.17421	0.17668
0.12320	0.22769
0.14870	0.12566
0.19971	0.20219
0.07220	0.15117
0.12320	0.10015
0.14870	0.15117
0.14870	0.12566
0.25071	0.20219
0.09770	0.10015
0.19971	0.20219
0.07220	0.04914
0.14870	0.22769
0.12320	0.12566
0.12320	0.12566
0.22521	0.22769
0.12320	0.10015
0.22521	0.17668
0.09770	0.10015
0.22521	0.20219
0.09770	0.17668
0.12320	0.15117
0.12320	0.15117
0.17421	0.10015
0.09770	0.20219
0.14870	0.12566
0.30171	0.15117
0.04670	0.17668
0.17421	0.22769
0.09770	0.12566
0.12320	0.12566
0.14870	0.12566
0.19971	0.10015
0.12320	0.15117
0.17421	0.15117
0.14870	0.15117
0.14870	0.17668
0.14870	0.15117
0.14870	0.25320
0.17421	0.15117
0.14870	0.12566
0.12320	0.17668
0.17421	0.15117
0.12320	0.07465
0.22521	0.20219
0.09770	0.17668
0.14870	0.07465
0.12320	0.20219
-0.13181	0.07465
0.32721	0.22769
0.19971	0.17668
0.22521	-0.00188
0.19971	0.15117
0.12320	0.04914
0.25071	0.20219
0.09770	0.12566
0.07220	0.12566
0.02119	0.15117
0.25071	0.10015
0.53123	0.27871
-0.48884	0.12566
-0.08081	0.15117
0.25071	0.15117
0.02119	0.17668
0.37822	0.17668
0.55673	0.25320
0.19971	0.04914
0.88825	0.12566
0.19971	0.10015
0.02119	0.15117
0.50573	0.12566
-0.33583	0.02363
-1.20288	0.12566
-0.10631	0.07465
-0.05531	0.20219
-1.02437	-0.00188
0.35272	0.32972
0.96476	0.10015
-0.92237	-0.46102
2.11233	0.07465
1.78081	0.89089
1.70430	0.40625
-0.28482	0.20219
0.04670	0.68683
0.22521	-0.76711
-0.92237	-0.48652
-1.43240	0.53379
-0.00431	1.09496
0.70974	-0.92016
0.42922	-0.35899
-0.08081	-0.33348
-0.08081	-0.00188
0.09770	2.08976
-0.38683	1.19699
0.02119	-0.71609
-0.31033	0.07465
1.14327	0.40625
-1.76392	-2.78222
0.09770	0.50828
2.29084	1.27351
1.37278	0.40625
-0.79486	0.83988
1.29628	1.09496
0.99026	2.19179
0.40372	-2.70570
0.02119	0.63582
-0.02981	-0.66508
-0.25932	1.80917
-2.68198	-1.25176
1.65330	-1.43031
0.45472	2.67644
-0.38683	-6.27678
0.09770	-0.86914
0.14870	0.63582
0.04670	0.27871
0.45472	0.83988
0.14870	3.39065
-0.56534	2.37034
0.35272	1.37554
1.14327	0.30422
-1.66191	-0.97117
-3.52353	1.45206
0.76074	-6.83795
2.52035	-1.20074
1.27078	-0.43551
-0.18282	-0.46102
0.93925	-1.04770
-0.13181	2.54890
0.19971	2.88050
0.63323	5.27823
-1.02437	-2.98628
1.09226	-1.35379
0.42922	-0.94566
-0.23382	2.21730
-0.41233	2.24281
-0.02981	1.80917
0.60773	0.91640
-1.91693	-3.49644
-3.80405	-3.49644
2.77537	1.52859
-0.02981	2.03874
0.91375	-0.18043
1.55129	-1.17523
1.27078	-0.28246
1.60230	-0.53754
-0.64185	-0.99668
0.35272	-0.25695
-0.00431	0.20219
-0.69285	0.45726
0.25071	1.29902
0.40372	0.66132
0.96476	3.26312
2.49485	-2.93527
-5.79318	3.44167
-4.56910	-4.36370
1.85731	2.29382
1.75531	0.78886
0.45472	-0.02739
0.50573	1.06945
1.70430	-0.79262
3.13239	-0.51203
0.99026	2.08976
0.42922	2.59991
-0.99887	0.38074
1.11776	0.55929
-5.61467	-2.68019
-2.52897	-3.31788
2.41835	-2.09351
1.72980	-2.24656
-0.20832	-0.02739
0.22521	0.50828
0.14870	0.68683
0.55673	1.60511
0.96476	2.06425
0.48022	0.71234
0.25071	0.22769
0.12320	1.22250
0.40372	-2.34859
0.07220	1.50308
0.07220	2.26831
0.60773	-0.56305
0.12320	1.55410
-3.06450	-0.07840
0.86275	0.27871
0.93925	-1.71090
0.70974	-2.65468
0.40372	0.25320
0.22521	1.68163
-0.10631	-0.58856
-0.38683	2.59991
1.32178	-0.05289
0.40372	0.17668
-0.43783	-5.86866
0.45472	1.29902
-0.74385	1.01843
-1.04987	0.27871
0.65874	1.27351
-0.69285	0.61031
1.21977	0.48277
0.53123	1.24800
1.55129	1.32453
0.81175	-0.63957
-0.08081	1.45206
-0.48884	0.66132
-0.71835	-1.58336
-0.00431	0.25320
0.19971	1.09496
0.37822	-3.06281
-0.13181	0.02363
0.12320	0.35523
0.17421	0.07465
1.11776	0.86539
-0.15732	0.78886
0.12320	0.83988
0.76074	0.78886
0.09770	-0.38449
-0.20832	-0.23145
-0.43783	-0.02739
0.50573	-0.41000
-0.53984	-0.05289
0.35272	-0.35899
0.30171	0.58480
0.42922	0.66132
0.40372	0.94191
0.42922	0.17668
-0.02981	1.35003
0.25071	-1.88945
-0.10631	-0.02739
0.76074	0.55929
0.37822	-0.76711
0.14870	-0.41000
-1.71292	0.07465
0.32721	0.61031
1.93382	1.09496
0.37822	2.52339
-0.61635	-4.15964
-0.41233	2.14077
-0.25932	-0.10391
-0.33583	-0.86914
0.09770	-0.74160
0.22521	1.14597
0.70974	1.09496
0.78624	2.49788
0.19971	-1.68539
0.32721	0.35523
-0.08081	1.04394
0.63323	-0.56305
-0.28482	0.40625
-0.08081	-1.50683
0.42922	0.20219
0.19971	0.38074
-0.02981	-1.07320
-0.13181	0.99292
0.02119	0.30422
0.12320	0.63582
0.27621	0.20219
0.37822	1.17148
-0.02981	1.12046
-0.23382	-0.94566
0.42922	0.32972
0.25071	0.86539
0.32721	-0.12942
-0.38683	-0.35899
0.50573	-0.38449
0.73524	0.78886
0.32721	-0.07840
-0.05531	0.22769
0.02119	-0.12942
-0.00431	0.04914
-0.38683	-0.30797
-0.36133	-0.20594
0.63323	0.45726
0.93925	1.06945
0.12320	1.17148
-0.02981	-0.99668
0.55673	-0.56305
0.27621	0.96742
-0.28482	0.15117
0.04670	1.60511
-0.36133	-3.54745
0.09770	0.35523
0.14870	2.75296
0.32721	-0.71609
0.58223	-0.05289
0.60773	1.63062
0.19971	1.60511
0.12320	-0.58856
-0.02981	-1.22625
0.19971	-0.94566
0.32721	0.12566
0.09770	1.80917
-0.51434	-0.41000
-0.02981	0.53379
0.35272	0.30422
0.48022	-1.27726
0.12320	0.15117
-0.08081	0.50828
0.12320	0.99292
0.53123	-2.80773
-0.00431	-1.04770
-0.36133	0.76336
-0.05531	0.40625
0.37822	-0.05289
0.12320	1.60511
0.14870	0.63582
0.25071	0.86539
0.02119	-2.42511
-0.13181	2.16628
0.48022	-1.50683
0.88825	1.98773
0.45472	0.17668
0.04670	1.65613
-0.15732	-2.65468
-0.46334	0.20219
-0.10631	0.17668
-0.15732	0.96742
0.12320	0.68683
0.22521	0.30422
0.27621	-1.17523
0.35272	-0.20594
0.12320	-0.41000
0.14870	-0.35899
0.27621	0.96742
-0.05531	0.99292
0.12320	0.20219
1.21977	0.81437
1.06676	0.25320
0.45472	0.58480
-0.38683	-2.50164
-0.51434	1.57960
-0.66735	1.55410
-0.13181	-0.71609
0.12320	0.04914
0.12320	0.86539
0.14870	2.08976
0.25071	0.27871
0.42922	0.86539
0.30171	2.06425
0.30171	-2.19554
0.17421	0.32972
0.25071	-2.60367
-0.15732	2.19179
0.22521	-1.14973
0.45472	-1.86394
0.17421	1.52859
0.07220	-0.35899
-0.18282	1.17148
0.37822	2.26831
-0.10631	-2.57816
0.02119	0.27871
0.40372	0.15117
0.40372	0.63582
0.02119	0.78886
0.25071	0.66132
0.02119	1.37554
0.04670	-1.43031
0.14870	-0.48652
-0.08081	-1.86394
0.22521	0.76336
0.12320	0.58480
0.09770	1.09496
0.30171	-1.25176
0.40372	1.50308
0.07220	-2.39961
0.07220	1.57960
0.07220	-0.48652
0.22521	1.12046
-0.08081	1.73265
0.53123	0.81437
0.30171	-3.59847
0.12320	-0.99668
-0.08081	0.73785
0.12320	1.17148
0.42922	2.19179
0.25071	-1.53234
0.07220	1.12046
-0.20832	0.68683
-0.08081	-0.58856
0.25071	-1.22625
0.07220	0.45726
0.22521	0.17668
0.22521	1.40105
0.30171	-0.25695
-0.08081	0.04914
0.55673	-1.35379
0.53123	0.86539
0.25071	-0.41000
-0.05531	2.54890
-0.00431	-1.48133
-0.10631	1.19699
-0.08081	1.12046
0.09770	0.94191
0.32721	-1.88945
0.02119	2.19179
-0.20832	-3.08831
0.40372	-0.41000
0.40372	1.04394
0.27621	1.37554
0.09770	0.15117
0.17421	0.71234
0.04670	0.86539
0.19971	1.86019
0.07220	-1.22625
0.12320	-1.25176
0.17421	-2.01699
0.09770	0.07465
0.19971	1.60511
0.19971	2.08976
0.09770	0.99292
0.25071	-0.38449
0.02119	0.02363
0.12320	0.30422
0.19971	-0.56305
0.14870	-0.51203
0.22521	0.45726
-0.08081	-0.79262
0.22521	0.71234
0.25071	-2.11902
0.12320	2.34484
0.32721	-0.71609
0.09770	-0.46102
-0.13181	0.78886
-0.00431	1.96222
0.17421	-0.84363
0.19971	-0.02739
0.14870	0.45726
0.25071	0.63582
0.30171	0.73785
0.17421	0.30422
0.12320	1.24800
0.19971	0.04914
0.07220	-0.58856
0.22521	-1.25176
0.19971	0.68683
-0.05531	-1.48133
-0.02981	0.78886
0.07220	0.81437
0.22521	0.73785
0.30171	-0.25695
0.19971	0.07465
0.12320	0.32972
0.09770	3.23761
0.22521	-5.28198
0.19971	0.25320
0.14870	0.45726
0.09770	1.42656
0.12320	0.20219
0.12320	1.19699
0.17421	0.38074
0.07220	0.58480
0.19971	0.50828
0.12320	0.78886
0.17421	-1.48133
0.27621	1.22250
0.04670	-1.43031
0.30171	0.53379
0.12320	-0.02739
0.09770	0.43176
0.17421	0.27871
0.32721	0.76336
-0.08081	0.12566
0.32721	0.38074
0.07220	-0.48652
0.19971	0.12566
0.17421	0.58480
0.09770	1.47757
0.07220	-2.27207
0.27621	0.94191
0.04670	-0.12942
0.09770	1.17148
0.17421	1.14597
0.14870	-3.16484
0.32721	1.27351
-0.00431	1.32453
0.19971	-0.12942
0.22521	1.19699
0.12320	0.43176
0.19971	1.70714
0.07220	-2.68019
0.22521	0.10015
0.07220	0.50828
0.17421	-1.55785
0.12320	1.68163
0.22521	-1.99148
0.14870	1.68163
-0.05531	0.35523
0.25071	0.83988
0.19971	0.66132
0.27621	-1.91496
0.27621	1.47757
0.04670	0.20219
-0.00431	-0.00188
0.14870	1.27351
0.19971	-1.58336
0.19971	0.86539
0.04670	-0.56305
0.07220	0.30422
0.14870	-0.15492
0.14870	0.02363
0.22521	0.45726
0.12320	0.58480
0.17421	1.04394
0.17421	-0.15492
0.07220	0.07465
0.14870	-0.38449
0.22521	-0.43551
0.22521	1.45206
0.12320	-1.94047
-0.05531	-0.23145
0.12320	1.73265
0.22521	1.52859
0.27621	1.06945
0.32721	0.45726
-0.10631	-2.68019
0.12320	-0.20594
0.17421	1.12046
0.17421	-0.61406
0.12320	1.17148
0.09770	0.10015
0.12320	-0.15492
0.09770	-0.05289
0.07220	0.20219
0.25071	0.07465
0.09770	-0.20594
0.27621	0.25320
0.22521	0.94191
0.17421	0.32972
0.07220	1.40105
0.17421	-2.78222
0.12320	1.42656
-0.00431	1.65613
0.17421	-2.80773
0.07220	0.76336
0.12320	-0.25695
0.22521	1.45206
0.12320	1.91120
0.22521	-1.88945
0.19971	-0.20594
0.14870	0.40625
0.09770	0.35523
-0.00431	0.50828
0.12320	0.66132
0.17421	0.73785
0.17421	-0.41000
0.35272	-0.18043
0.12320	0.38074
0.19971	1.12046
0.14870	-1.04770
0.14870	0.02363
0.02119	0.45726
0.19971	0.10015
0.02119	0.35523
0.12320	-0.02739
0.14870	1.04394
0.19971	-0.02739
0.32721	-0.15492
0.02119	0.04914
0.09770	-1.55785
0.14870	0.89089
0.27621	0.61031
0.07220	0.55929
0.25071	0.76336
0.19971	0.50828
0.07220	0.02363
0.12320	0.22769
0.17421	-0.97117
0.07220	0.38074
0.09770	0.12566
0.19971	0.04914
0.12320	-0.18043
0.12320	0.55929
0.17421	0.30422
0.12320	1.75816
0.27621	-1.50683
0.12320	-1.88945
0.14870	1.06945
0.12320	1.24800
0.19971	0.81437
0.07220	0.91640
0.12320	0.63582
0.25071	-0.25695
0.02119	0.02363
0.14870	-0.05289
0.07220	-2.17003
0.14870	0.55929
0.32721	1.17148
0.17421	0.15117
0.14870	1.06945
0.17421	-0.69059
0.07220	0.40625
0.12320	0.45726
0.12320	0.20219
0.02119	0.15117
0.12320	0.17668
0.12320	0.38074
-0.02981	-0.07840
0.04670	-0.25695
0.17421	-0.35899
0.19971	0.61031
0.02119	0.86539
0.17421	0.07465
0.35272	-0.35899
0.32721	-0.33348
0.09770	-0.15492
-0.10631	1.65613
0.04670	1.04394
-0.00431	-3.44542
0.35272	1.17148
0.14870	-0.61406
0.25071	1.37554
0.27621	0.73785
0.22521	0.96742
0.12320	0.50828
0.07220	0.45726
0.04670	-0.33348
0.04670	-0.05289
0.14870	0.20219
0.17421	0.02363
0.22521	-0.20594
0.09770	-0.25695
0.19971	0.43176
0.17421	-0.61406
0.09770	0.71234
0.22521	0.45726
0.14870	0.30422
0.27621	0.61031
0.14870	0.48277
0.07220	-0.10391
0.19971	-1.71090
0.12320	0.35523
0.14870	0.99292
0.07220	0.73785
0.12320	0.04914
0.17421	1.80917
0.22521	-1.37929
0.12320	0.76336
0.22521	0.86539
0.12320	1.01843
0.12320	-1.43031
0.09770	1.17148
0.07220	-1.02219
-0.05531	0.45726
0.14870	-0.18043
0.25071	0.55929
0.32721	0.27871
0.19971	-0.15492
0.09770	-0.89465
0.17421	0.58480
0.09770	0.68683
0.19971	0.55929
-0.00431	0.25320
0.09770	-0.43551
0.12320	0.99292
0.09770	0.35523
0.17421	-0.63957
0.14870	-0.99668
0.32721	0.76336
0.07220	0.73785
0.25071	0.45726
0.09770	1.22250
0.22521	-1.04770
0.02119	0.27871
0.25071	0.96742
0.14870	-1.55785
0.12320	-0.66508
0.17421	0.86539
0.14870	-1.12422
0.14870	0.96742
0.07220	0.22769
0.17421	0.12566
0.07220	0.94191
0.27621	0.91640
0.09770	0.38074
0.09770	-0.30797
0.07220	0.10015
0.19971	0.22769
0.17421	0.81437
0.22521	-0.33348
0.07220	-0.20594
0.07220	-1.32828
-0.10631	0.89089
0.19971	0.63582
0.35272	0.48277
0.25071	0.02363
0.12320	0.43176
0.22521	0.43176
0.14870	-0.48652
0.12320	0.76336
0.22521	-0.81812
0.17421	1.73265
0.07220	-0.35899
0.19971	0.96742
0.12320	-1.30277
0.09770	-0.00188
0.09770	0.45726
0.07220	0.38074
0.14870	0.27871
0.17421	0.02363
0.09770	0.20219
0.14870	0.35523
0.14870	0.07465
0.14870	-0.02739
0.12320	0.27871
0.17421	-0.10391
0.19971	0.04914
0.12320	-0.18043
0.27621	0.40625
0.04670	1.40105
0.25071	-1.02219
0.07220	-0.38449
0.14870	-0.25695
0.04670	1.12046
0.22521	1.09496
0.14870	-0.46102
0.14870	0.94191
-0.02981	0.76336
0.19971	-1.68539
0.19971	0.89089
0.19971	-0.20594
0.09770	0.50828
-0.00431	0.30422
0.35272	-0.15492
0.04670	-0.43551
0.25071	-0.58856
0.12320	-0.66508
0.22521	0.45726
0.04670	0.25320
0.12320	0.71234
0.22521	0.30422
0.19971	0.99292
0.12320	0.83988
0.09770	2.21730
0.12320	-4.38921
0.07220	-1.14973
0.25071	1.47757
0.12320	0.89089
0.09770	1.22250
0.22521	0.61031
0.12320	0.45726
0.25071	0.76336
0.19971	-1.40480
0.09770	0.53379
0.17421	-0.53754
0.14870	0.22769
0.12320	0.15117
0.07220	-0.02739
0.14870	-0.28246
0.27621	-0.56305
0.12320	-0.07840
0.12320	0.71234
0.14870	1.04394
0.17421	0.71234
-0.00431	0.53379
0.07220	-0.07840
0.12320	0.43176
0.19971	0.30422
0.32721	-0.00188
0.12320	-0.66508
-0.10631	-0.84363
0.19971	0.58480
0.22521	0.35523
0.25071	0.89089
0.14870	1.04394
0.17421	-0.86914
0.14870	-0.74160
0.07220	-0.25695
0.09770	1.06945
0.19971	-0.05289
0.02119	0.61031
0.09770	-1.04770
0.07220	-0.07840
0.22521	-0.30797
0.17421	0.58480
0.22521	1.01843
0.12320	0.61031
0.17421	0.48277
0.09770	0.27871
0.22521	0.04914
0.09770	-0.20594
0.27621	0.66132
0.07220	-1.40480
0.04670	1.01843
-0.00431	-1.27726
0.22521	1.12046
0.09770	0.73785
0.30171	0.61031
0.25071	0.02363
0.22521	0.63582
0.07220	0.38074
0.04670	-0.76711
0.09770	-0.63957
0.07220	0.20219
0.22521	0.55929
0.12320	-0.63957
0.22521	0.32972
0.09770	0.45726
0.22521	0.71234
0.12320	0.20219
0.25071	0.30422
0.14870	-0.12942
0.14870	0.38074
0.14870	1.29902
0.22521	-0.20594
0.07220	-1.88945
0.19971	0.71234
0.02119	0.83988
0.19971	0.48277
0.19971	0.76336
0.12320	-1.91496
0.19971	0.38074
0.17421	0.66132
0.04670	1.47757
0.25071	-1.04770
0.17421	0.48277
0.12320	-0.07840
0.14870	-0.81812
0.07220	0.71234
0.22521	0.50828
0.12320	-0.35899
0.19971	-0.20594
0.09770	0.50828
0.14870	0.50828
0.17421	1.12046
0.09770	-0.00188
0.12320	0.61031
0.27621	-1.09871
0.14870	0.63582
0.17421	-0.23145
0.09770	-0.30797
0.07220	-0.00188
0.22521	0.58480
0.19971	1.04394
0.12320	-0.89465
0.02119	0.35523
0.12320	0.73785
0.07220	-0.00188
0.17421	-0.00188
0.22521	0.10015
0.14870	0.02363
0.22521	0.55929
0.09770	-0.51203
0.12320	0.91640
0.19971	-1.88945
0.12320	0.94191
0.14870	0.10015
0.14870	2.14077
0.14870	-2.73121
0.12320	0.96742
0.17421	1.06945
0.25071	-0.46102
0.07220	0.55929
0.02119	1.19699
0.22521	-0.51203
0.30171	0.22769
0.09770	0.17668
0.04670	0.76336
0.17421	-1.12422
0.07220	0.12566
0.22521	0.53379
0.12320	-0.94566
0.14870	0.99292
0.17421	0.10015
0.17421	-0.25695
0.17421	0.55929
0.14870	0.45726
0.14870	0.20219
0.19971	0.40625
0.14870	0.86539
0.09770	1.06945
0.12320	-2.29757
0.07220	0.38074
0.14870	0.17668
0.07220	-0.38449
0.09770	-0.74160
0.09770	1.32453
0.22521	1.12046
0.19971	-0.23145
0.30171	0.78886
0.12320	-0.00188
0.22521	0.35523
0.09770	-0.05289
0.22521	-0.25695
-0.02981	-0.53754
0.02119	0.15117
0.07220	0.55929
0.22521	-0.05289
0.22521	0.68683
0.09770	0.25320
0.17421	-0.46102
0.22521	0.50828
0.12320	0.55929
0.07220	1.06945
0.27621	-2.04250
0.12320	0.15117
-0.18282	0.50828
0.17421	0.63582
0.25071	0.27871
0.12320	-1.25176
0.22521	0.89089
0.07220	1.93671
0.14870	-0.48652
0.09770	0.45726
0.19971	0.40625
0.02119	0.15117
0.19971	-0.12942
0.19971	-0.23145
0.22521	0.76336
0.09770	-0.79262
0.09770	0.12566
0.14870	0.02363
0.04670	-0.05289
0.17421	1.14597
0.19971	-0.10391
0.32721	-1.17523
0.09770	0.27871
0.02119	0.50828
0.09770	0.68683
0.27621	0.22769
0.32721	0.32972
0.09770	0.55929
0.27621	0.61031
0.07220	-2.42511
0.09770	0.63582
-0.00431	0.76336
0.17421	-0.58856
0.09770	0.96742
0.22521	0.32972
-0.00431	-0.20594
0.17421	-0.23145
0.14870	1.32453
0.27621	-0.51203
-0.13181	1.60511
0.14870	-0.81812
0.27621	-0.25695
0.22521	-0.46102
0.19971	0.43176
0.17421	0.99292
0.09770	-0.51203
0.04670	0.66132
0.12320	-0.46102
0.19971	0.32972
0.12320	0.53379
0.25071	-0.35899
-0.20832	0.20219
0.22521	0.35523
0.17421	0.27871
0.27621	0.43176
0.09770	-0.41000
0.27621	-1.45582
0.04670	0.48277
0.22521	0.50828
0.04670	0.55929
0.22521	0.71234
-0.00431	0.99292
0.09770	-0.05289
0.07220	1.04394
0.25071	-2.24656
0.22521	-1.48133
0.09770	0.99292
0.22521	1.09496
0.09770	0.99292
0.22521	0.73785
0.09770	0.50828
0.22521	-0.07840
0.09770	-0.00188
0.12320	-1.71090
0.07220	1.32453
0.32721	0.25320
0.09770	-0.35899
0.14870	0.10015
0.19971	-0.02739
0.09770	0.40625
0.17421	-0.05289
0.07220	0.17668
0.30171	-0.56305
0.12320	0.35523
0.12320	0.48277
0.12320	0.78886
0.17421	0.02363
0.22521	-1.27726
0.09770	1.27351
0.17421	0.07465
0.04670	-0.18043
0.27621	-1.17523
0.04670	0.86539
0.02119	0.83988
0.12320	-0.43551
0.19971	0.25320
0.32721	0.40625
0.19971	0.35523
0.25071	0.91640
0.12320	0.32972
0.19971	-0.56305
0.09770	-0.69059
0.12320	0.10015
-0.00431	0.15117
0.02119	0.27871
0.14870	-0.38449
0.30171	0.25320
0.27621	0.10015
0.22521	0.55929
-0.05531	1.73265
-0.05531	-1.12422
0.07220	-1.60887
0.22521	0.99292
0.32721	-0.30797
0.17421	0.55929
0.30171	2.14077
0.14870	-0.41000
0.14870	0.66132
0.09770	0.25320
0.09770	0.48277
0.12320	0.30422
-0.00431	-0.74160
0.19971	0.04914
0.02119	-0.10391
0.09770	-0.10391
0.12320	0.02363
0.22521	0.53379
0.30171	0.86539
0.07220	-1.12422
0.22521	0.10015
0.04670	-0.89465
0.12320	0.48277
0.09770	0.73785
0.04670	0.45726
0.30171	0.48277
0.22521	0.71234
0.14870	0.48277
0.17421	0.66132
0.12320	-0.10391
0.14870	-0.99668
0.22521	0.45726
0.09770	0.45726
0.19971	0.04914
0.12320	0.32972
0.12320	0.02363
0.12320	0.12566
0.07220	0.04914
0.19971	0.02363
0.07220	0.20219
0.12320	0.04914
0.14870	0.55929
0.12320	-0.97117
0.22521	0.40625
0.04670	1.68163
0.17421	0.50828
0.27621	-1.17523
0.02119	0.12566
0.19971	0.43176
0.12320	-0.86914
0.09770	0.94191
0.35272	-0.66508
0.12320	1.42656
0.09770	1.17148
-0.00431	0.91640
0.19971	-0.53754
0.25071	0.27871
-0.02981	0.07465
0.12320	0.12566
-0.00431	-0.00188
0.40372	-0.02739
0.32721	-0.12942
0.32721	-0.02739
0.22521	-0.10391
0.07220	-0.15492
0.07220	-0.07840
0.12320	-0.00188
0.19971	0.15117
0.04670	0.27871
0.09770	0.76336
0.09770	0.68683
0.22521	1.91120
0.19971	0.66132
0.04670	-2.39961
0.22521	-2.22105
0.04670	0.55929
-0.00431	1.14597
0.27621	0.66132
0.07220	1.09496
0.30171	-0.00188
0.12320	0.96742
0.22521	0.63582
0.17421	0.20219
0.12320	-0.15492
0.19971	-0.23145
0.07220	-0.41000
0.22521	-0.33348
0.07220	-0.15492
0.22521	0.30422
0.09770	0.66132
0.09770	0.55929
0.22521	-1.09871
0.12320	0.30422
0.22521	0.76336
0.02119	0.15117
0.14870	0.17668
-0.02981	0.15117
0.19971	0.22769
0.07220	0.63582
0.22521	-1.07320
0.14870	0.40625
0.27621	1.55410
0.14870	-0.58856
0.22521	0.10015
0.12320	0.86539
0.04670	0.27871
0.12320	0.61031
0.14870	0.50828
0.14870	0.45726
0.25071	0.43176
0.22521	-0.66508
0.04670	0.04914
0.12320	-0.00188
0.09770	-0.10391
0.12320	0.04914
0.22521	0.20219
0.27621	-0.76711
0.07220	0.02363
0.19971	0.45726
0.09770	0.50828
0.12320	-0.10391
0.12320	0.68683
0.02119	0.30422
0.25071	-0.25695
0.25071	1.01843
0.22521	-1.58336
0.19971	0.83988
-0.02981	0.48277
-0.08081	-0.02739
-0.00431	0.30422
0.37822	0.58480
0.12320	0.07465
0.19971	-0.00188
0.14870	-0.12942
0.17421	-0.02739
0.19971	0.04914
0.09770	0.15117
0.22521	0.07465
0.07220	-0.53754
0.27621	1.17148
0.07220	0.73785
0.14870	-0.74160
0.12320	0.25320
0.17421	0.20219
0.12320	-0.35899
-0.08081	0.53379
0.09770	-0.61406
0.09770	0.68683
0.12320	0.73785
0.22521	0.43176
0.27621	-0.63957
0.14870	0.43176
0.22521	-0.35899
0.17421	0.20219
0.14870	0.25320
0.14870	0.10015
0.19971	0.12566
0.02119	-0.05289
0.07220	0.32972
0.12320	0.22769
0.12320	0.32972
0.25071	0.17668
0.22521	0.78886
0.19971	1.78367
0.17421	-3.62398
0.17421	0.81437
0.14870	1.06945
0.22521	-0.92016
0.02119	0.17668
0.02119	1.37554
0.02119	-0.81812
0.32721	0.30422
-0.00431	-0.12942
0.27621	0.55929
0.27621	0.30422
0.25071	0.32972
-0.08081	0.15117
0.09770	0.25320
0.32721	-0.51203
0.27621	0.27871
0.17421	0.07465
0.09770	0.12566
0.12320	0.02363
0.09770	0.02363
0.07220	-0.10391
0.09770	0.07465
0.22521	0.30422
0.07220	0.50828
0.14870	1.35003
0.09770	-1.71090
0.19971	0.20219
0.14870	-0.46102
0.27621	-0.20594
0.04670	0.89089
0.22521	-0.12942
0.09770	-0.25695
0.14870	1.17148
0.14870	0.10015
0.14870	0.32972
0.17421	0.30422
0.25071	0.02363
0.22521	0.10015
-0.05531	0.20219
0.17421	0.22769
0.12320	0.10015
0.22521	0.15117
0.17421	0.12566
-0.00431	0.38074
0.17421	-0.15492
0.25071	-0.30797
0.19971	-0.15492
0.19971	-0.35899
0.17421	0.02363
0.07220	0.32972
0.09770	0.66132
0.17421	0.83988
0.07220	-0.10391
0.19971	-1.22625
0.04670	0.58480
0.09770	0.86539
0.17421	1.17148
0.14870	-1.53234
0.25071	0.63582
0.12320	-0.61406
0.07220	0.20219
0.07220	-0.07840
0.30171	0.40625
-0.02981	0.78886
-0.08081	-0.63957
0.32721	-0.58856
0.37822	0.43176
0.22521	-0.66508
0.09770	0.53379
0.17421	0.73785
0.14870	-0.15492
-0.00431	0.55929
0.17421	0.27871
0.07220	0.22769
0.04670	-0.53754
0.22521	-0.05289
0.12320	0.25320
0.14870	0.27871
0.22521	0.04914
0.22521	0.55929
0.12320	0.58480
0.09770	0.35523
0.17421	0.30422
0.14870	-1.58336
0.17421	-0.35899
0.22521	1.12046
0.09770	0.91640
0.12320	-0.69059
0.19971	1.01843
0.12320	0.35523
0.14870	0.15117
0.19971	0.25320
0.02119	0.55929
0.09770	-1.40480
0.12320	-0.18043
0.30171	0.61031
0.17421	0.35523
0.22521	0.04914
0.12320	0.40625
0.12320	-0.48652
0.17421	0.96742
0.14870	-1.25176
0.14870	0.15117
0.04670	0.71234
0.17421	0.63582
0.09770	-0.20594
0.14870	-0.33348
0.14870	0.76336
0.14870	0.76336
0.19971	0.45726
0.02119	0.58480
0.12320	-1.58336
0.04670	0.04914
0.14870	-0.79262
0.19971	-0.33348
0.07220	0.55929
0.30171	0.81437
0.12320	0.61031
0.25071	0.45726
0.02119	0.17668
0.17421	0.15117
0.35272	0.32972
-0.08081	0.30422
0.07220	0.35523
0.07220	0.38074
0.12320	-0.61406
0.19971	-1.48133
0.19971	0.96742
0.14870	-0.97117
0.27621	0.76336
0.09770	0.07465
0.12320	1.12046
0.07220	0.17668
0.12320	0.25320
0.17421	0.25320
0.09770	0.71234
0.25071	0.35523
0.09770	0.04914
0.07220	-0.10391
0.07220	0.12566
0.22521	-0.84363
0.12320	-0.00188
0.14870	0.91640
0.12320	-1.04770
0.12320	-0.58856
0.17421	1.42656
0.12320	0.68683
0.09770	-0.38449
0.27621	0.45726
0.02119	0.94191
0.09770	-1.02219
0.22521	0.73785
0.17421	-0.23145
0.14870	0.38074
0.12320	0.02363
0.09770	0.25320
0.04670	-0.30797
0.12320	0.32972
0.09770	0.12566
0.25071	0.55929
0.14870	0.07465
0.27621	-0.89465
-0.02981	0.45726
0.02119	0.81437
0.12320	-0.10391
0.22521	-0.00188
0.14870	0.12566
0.22521	0.50828
0.02119	-0.38449
0.27621	0.68683
0.22521	0.15117
0.22521	-0.79262
0.17421	0.61031
0.17421	0.53379
0.14870	-0.71609
0.14870	1.12046
0.02119	0.04914
0.30171	0.78886
0.09770	0.25320
0.04670	0.25320
-0.05531	-0.07840
0.09770	-0.30797
0.25071	0.43176
0.22521	-0.23145
0.25071	-0.48652
0.12320	0.20219
0.12320	0.12566
0.09770	0.38074
0.12320	0.32972
0.12320	0.10015
0.25071	0.50828
0.07220	0.38074
0.27621	-0.15492
0.09770	-0.07840
0.27621	0.17668
0.09770	0.30422
0.22521	1.06945
0.09770	-2.17003
0.19971	0.91640
0.17421	0.22769
0.12320	0.25320
0.12320	0.07465
0.02119	0.86539
0.12320	0.55929
0.04670	-0.05289
0.14870	-0.20594
0.14870	0.63582
0.25071	0.10015
0.14870	-0.20594
0.19971	0.10015
0.19971	0.27871
0.12320	0.10015
0.14870	0.15117
0.14870	0.07465
0.12320	0.43176
0.07220	-0.15492
0.04670	-0.05289
0.22521	0.12566
0.09770	0.12566
0.22521	0.81437
-0.00431	0.66132
0.19971	-1.73640
0.22521	0.32972
0.19971	1.24800
0.07220	-1.25176
0.02119	0.45726
0.22521	0.68683
0.09770	0.30422
0.17421	-0.56305
0.09770	0.45726
0.22521	1.17148
0.14870	-0.30797
0.27621	-0.61406
0.07220	-0.02739
0.02119	0.89089
0.30171	0.73785
0.12320	0.58480
0.19971	-0.05289
0.07220	0.04914
0.25071	-0.05289
0.12320	-0.18043
0.19971	0.10015
0.12320	0.35523
0.14870	0.22769
0.14870	0.40625
0.12320	-0.23145
0.22521	0.30422
0.07220	0.35523
0.12320	0.04914
0.12320	-0.05289
0.12320	0.12566
0.12320	-0.51203
0.14870	0.58480
0.07220	0.58480
0.25071	1.17148
0.07220	-0.33348
0.07220	-2.19554
0.19971	1.75816
0.25071	-0.66508
0.07220	1.37554
0.19971	0.25320
0.02119	-0.33348
0.22521	-0.00188
0.12320	-0.30797
0.17421	-0.07840
0.14870	0.32972
0.14870	0.40625
0.12320	-0.25695
0.04670	0.07465
0.17421	-0.35899
0.22521	0.48277
0.12320	0.15117
0.17421	0.66132
0.09770	0.15117
0.14870	-1.20074
0.12320	0.22769
0.25071	0.61031
0.14870	0.99292
0.25071	-0.00188
0.09770	-0.69059
0.25071	1.19699
0.04670	-0.99668
0.12320	0.35523
0.17421	0.22769
0.07220	1.37554
0.19971	-0.05289
0.09770	-1.14973
0.25071	0.10015
0.22521	1.52859
-0.10631	1.04394
0.07220	-0.63957
0.12320	-0.41000
0.30171	-0.05289
0.37822	-0.10391
0.22521	0.22769
0.22521	0.35523
0.09770	0.32972
0.14870	0.22769
0.07220	-0.02739
0.17421	-0.51203
-0.08081	0.76336
-0.25932	0.17668
0.22521	-0.18043
0.25071	0.38074
0.22521	0.25320
0.22521	0.07465
0.14870	0.55929
0.19971	-0.18043
0.25071	0.78886
0.09770	0.25320
0.22521	-0.30797
0.17421	0.78886
0.12320	-0.23145
0.07220	-0.94566
0.12320	-0.02739
0.19971	1.19699
0.07220	-0.61406
0.14870	1.12046
0.17421	0.25320
0.14870	0.07465
0.25071	0.04914
0.02119	0.35523
0.09770	0.35523
0.07220	0.55929
0.19971	-0.15492
0.25071	-0.58856
0.12320	0.45726
0.09770	-0.28246
0.07220	-0.61406
0.12320	0.96742
0.22521	-0.56305
0.17421	0.89089
0.32721	0.78886
0.07220	0.45726
0.12320	-0.81812
0.02119	0.86539
0.22521	0.63582
0.12320	0.32972
-0.13181	-0.00188
0.25071	0.02363
0.09770	0.27871
0.17421	-1.12422
0.12320	0.12566
0.12320	0.61031
0.22521	-0.20594
0.14870	0.55929
0.12320	0.55929
0.27621	-0.79262
0.27621	0.04914
0.17421	0.53379
0.25071	1.01843
0.02119	0.63582
0.04670	0.30422
0.02119	0.02363
0.27621	-0.23145
0.22521	0.45726
-0.08081	-0.89465
0.02119	0.45726
0.19971	0.27871
0.42922	-0.05289
0.12320	-0.81812
0.27621	1.52859
0.02119	-1.50683
0.07220	-0.25695
0.09770	1.45206
0.12320	1.04394
0.25071	-0.51203
0.09770	-0.89465
0.09770	1.14597
0.07220	1.27351
0.09770	-0.02739
0.12320	-0.18043
0.09770	-0.35899
0.22521	0.25320
0.04670	-0.10391
0.22521	0.17668
0.14870	0.17668
0.12320	0.07465
0.17421	-0.56305
0.17421	0.53379
0.22521	0.25320
0.12320	0.32972
0.22521	0.50828
0.12320	0.25320
0.17421	1.04394
-0.00431	-1.58336
0.09770	1.06945
0.25071	0.25320
0.22521	-0.28246
0.14870	-0.00188
0.12320	0.76336
0.17421	-0.66508
0.12320	0.94191
0.09770	-0.61406
0.27621	0.45726
0.09770	0.71234
0.17421	0.63582
0.07220	0.32972
0.25071	0.30422
0.09770	-0.25695
0.14870	-0.20594
0.12320	-0.05289
0.19971	0.10015
-0.05531	0.07465
0.07220	-0.28246
0.30171	0.04914
0.27621	0.32972
0.22521	0.53379
0.12320	0.96742
-0.13181	-1.22625
-0.05531	0.43176
0.30171	0.71234
0.32721	-0.20594
0.19971	0.17668
0.14870	0.20219
0.04670	0.78886
0.12320	-1.12422
0.14870	1.42656
0.14870	-0.12942
0.12320	0.15117
0.07220	-0.46102
0.12320	-1.17523
0.02119	1.47757
0.14870	-0.56305
0.12320	0.86539
0.12320	0.81437
0.17421	-0.41000
0.25071	0.40625
0.17421	0.35523
0.09770	-0.07840
0.27621	0.55929
0.12320	-0.30797
0.22521	0.66132
-0.08081	-0.41000
0.12320	-1.17523
0.14870	0.63582
0.12320	0.50828
0.25071	0.27871
0.27621	0.45726
0.09770	-0.07840
-0.00431	0.15117
0.07220	-0.18043
0.09770	-0.30797
0.32721	0.04914
0.04670	0.45726
0.25071	0.48277
0.14870	0.58480
0.17421	-0.10391
0.09770	0.63582
0.14870	-0.51203
0.19971	0.66132
0.17421	-0.43551
0.19971	0.86539
0.04670	-0.33348
0.19971	-0.23145
0.09770	0.61031
0.14870	-0.38449
0.22521	0.27871
0.09770	0.17668
0.32721	-0.28246
0.25071	0.32972
0.09770	1.01843
-0.02981	0.53379
0.17421	0.32972
0.42922	-1.07320
0.12320	0.35523
0.04670	0.22769
0.09770	0.15117
0.22521	0.12566
0.17421	-0.02739
0.19971	-0.00188
0.04670	-0.02739
0.17421	0.25320
0.04670	-0.15492
0.19971	0.66132
0.19971	-0.46102
0.14870	-0.00188
0.02119	0.17668
0.14870	0.63582
0.12320	0.12566
0.22521	-0.71609
0.09770	0.43176
0.19971	1.91120
0.09770	-0.35899
0.25071	-2.09351
0.09770	1.19699
0.17421	1.14597
0.02119	-0.12942
0.09770	-0.35899
0.27621	0.30422
0.22521	0.61031
0.27621	0.38074
0.14870	0.32972
-0.15732	-0.46102
0.07220	0.04914
0.12320	-0.25695
0.35272	-0.76711
0.07220	0.81437
0.14870	-0.12942
0.07220	0.48277
0.19971	-0.07840
0.22521	0.30422
0.12320	0.43176
0.14870	0.40625
0.04670	0.07465
0.17421	0.73785
0.07220	-0.05289
0.14870	-1.22625
0.17421	0.58480
0.22521	0.07465
0.14870	0.48277
-0.15732	-0.81812
0.02119	0.35523
0.25071	1.19699
0.35272	0.78886
0.19971	0.68683
0.27621	0.35523
0.07220	-0.48652
0.14870	0.40625
0.12320	-0.00188
0.09770	-0.23145
0.22521	0.38074
0.07220	-0.51203
0.02119	-0.05289
0.07220	-0.15492
0.07220	0.22769
0.27621	0.25320
0.09770	-0.15492
0.14870	-0.15492
0.09770	0.40625
0.19971	1.04394
0.25071	-0.02739
0.04670	0.66132
0.17421	0.73785
0.12320	-0.97117
0.17421	0.58480
0.25071	-0.79262
0.27621	0.30422
0.14870	0.38074
-0.38683	-0.43551
0.09770	0.35523
0.14870	0.15117
0.19971	0.32972
0.27621	0.25320
0.32721	0.48277
0.27621	0.12566
0.09770	0.22769
0.22521	-0.20594
0.09770	-0.18043
0.12320	0.38074
-0.05531	-0.76711
0.17421	0.50828
0.07220	0.55929
0.19971	0.66132
0.14870	0.61031
0.14870	0.32972
0.25071	-0.05289
0.17421	-0.10391
0.09770	0.17668
-0.00431	-0.00188
-0.00431	0.02363
0.22521	-0.05289
0.12320	0.02363
0.25071	0.10015
0.19971	-0.05289
0.17421	0.07465
0.30171	0.15117
0.27621	0.35523
-0.10631	0.40625
-0.10631	0.30422
0.27621	0.43176
0.30171	0.32972
0.25071	0.45726
0.32721	0.27871
0.12320	-0.07840
0.17421	-0.46102
0.04670	-0.35899
0.19971	0.58480
0.09770	-0.30797
0.12320	-0.84363
-0.08081	0.99292
0.17421	0.58480
0.27621	0.04914
-0.00431	0.55929
0.25071	0.83988
0.22521	-0.56305
0.22521	0.76336
0.27621	0.73785
0.09770	0.02363
0.30171	0.71234
0.12320	-0.79262
0.02119	-1.88945
-0.02981	0.50828
0.30171	0.73785
0.04670	0.58480
0.25071	0.58480
0.07220	1.17148
0.14870	-0.66508
0.12320	0.53379
0.27621	-0.58856
0.12320	-0.07840
0.09770	-0.05289
0.17421	0.81437
0.14870	0.78886
0.12320	-0.41000
0.14870	0.73785
0.14870	0.32972
0.22521	0.20219
0.12320	-0.56305
0.19971	0.63582
0.12320	-0.97117
0.07220	0.17668
0.17421	0.12566
0.12320	0.66132
0.19971	0.30422
0.19971	0.38074
0.04670	-1.40480
0.07220	0.61031
0.19971	1.37554
0.14870	-0.48652
0.27621	1.55410
0.09770	-2.70570
0.22521	1.29902
0.14870	0.10015
0.07220	0.58480
0.27621	0.10015
0.27621	0.61031
0.30171	0.61031
-0.15732	-0.53754
0.09770	-1.17523
0.19971	0.35523
0.45472	0.63582
0.09770	0.27871
-0.00431	0.02363
0.12320	0.30422
0.12320	1.04394
0.32721	0.53379
0.04670	-2.24656
0.22521	0.58480
0.12320	0.68683
0.22521	-0.20594
0.04670	0.58480
0.17421	-0.30797
-0.00431	0.12566
0.27621	0.68683
0.12320	0.81437
0.12320	0.96742
0.02119	-0.46102
0.17421	0.15117
0.19971	-0.15492
0.12320	-0.15492
0.19971	0.15117
0.25071	0.45726
0.14870	0.10015
0.14870	0.02363
0.02119	0.12566
0.19971	-0.46102
0.02119	0.12566
0.22521	0.50828
0.02119	0.04914
0.17421	0.12566
0.07220	0.17668
0.19971	0.55929
0.22521	0.73785
0.02119	0.58480
0.12320	-0.46102
0.19971	0.63582
0.25071	-1.04770
0.25071	1.06945
0.07220	0.58480
-0.08081	-2.14453
-0.05531	0.81437
0.17421	0.86539
0.25071	0.53379
0.12320	0.43176
0.19971	-0.00188
0.22521	0.22769
0.19971	0.07465
0.14870	-0.18043
0.14870	-0.35899
0.22521	0.83988
0.09770	-1.55785
0.22521	0.76336
0.04670	0.43176
0.12320	0.45726
0.17421	0.22769
0.09770	0.25320
0.22521	0.10015
0.14870	-0.05289
0.12320	0.35523
0.07220	0.22769
0.19971	0.10015
0.14870	0.12566
0.25071	0.12566
