0.22521	0.20219
0.12320	0.17668
0.14870	0.10015
0.22521	0.20219
0.14870	0.15117
0.14870	0.17668
0.22521	0.12566
0.12320	0.07465
0.12320	0.22769
0.22521	0.12566
0.07220	0.15117
0.12320	0.17668
0.07220	0.15117
0.12320	0.17668
0.14870	0.22769
0.14870	0.15117
0.12320	0.15117
0.14870	0.07465
0.22521	0.20219
0.07220	0.12566
0.22521	0.20219
0.07220	0.04914
0.22521	0.20219
0.09770	0.10015
0.19971	0.22769
0.07220	0.12566
0.19971	0.17668
0.17421	0.15117
0.14870	0.12566
0.12320	0.15117
0.14870	0.12566
0.17421	0.25320
0.09770	0.15117
0.19971	0.22769
0.09770	0.07465
0.14870	0.20219
0.14870	0.04914
0.14870	0.20219
0.12320	0.15117
0.12320	0.17668
0.22521	0.12566
0.09770	0.15117
0.22521	0.17668
0.09770	0.10015
0.19971	0.25320
0.07220	0.07465
0.14870	0.22769
0.14870	0.10015
0.14870	0.12566
0.22521	0.17668
0.07220	0.10015
0.14870	0.22769
0.22521	0.17668
0.07220	0.15117
0.19971	0.15117
0.07220	0.07465
0.22521	0.22769
0.14870	0.10015
0.14870	0.20219
0.19971	0.15117
0.12320	0.07465
0.14870	0.25320
0.09770	0.04914
0.14870	0.15117
0.14870	0.15117
0.12320	0.15117
0.14870	0.15117
0.12320	0.17668
0.22521	0.15117
0.07220	0.12566
0.14870	0.12566
0.09770	0.17668
0.22521	0.12566
0.07220	0.17668
0.19971	0.10015
0.07220	0.17668
0.19971	0.15117
0.09770	0.12566
0.22521	0.15117
0.04670	0.10015
0.17421	0.25320
0.07220	0.10015
0.19971	0.22769
0.07220	0.15117
0.12320	0.10015
0.14870	0.15117
0.17421	0.15117
0.14870	0.22769
0.07220	0.07465
0.22521	0.20219
0.07220	0.10015
0.14870	0.15117
0.12320	0.12566
0.14870	0.17668
0.25071	0.25320
0.09770	0.04914
0.19971	0.20219
0.07220	0.07465
0.14870	0.22769
0.14870	0.12566
0.14870	0.15117
0.12320	0.10015
0.17421	0.17668
0.19971	0.15117
0.07220	0.15117
0.17421	0.15117
0.07220	0.10015
0.22521	0.20219
0.12320	0.12566
0.14870	0.22769
0.12320	0.04914
0.17421	0.22769
0.12320	0.12566
0.12320	0.12566
0.17421	0.15117
0.07220	0.15117
0.22521	0.15117
0.14870	0.15117
0.12320	0.17668
0.07220	0.04914
0.25071	0.17668
0.09770	0.10015
0.22521	0.25320
0.07220	0.10015
0.22521	0.22769
0.09770	0.10015
0.19971	0.15117
0.07220	0.12566
0.22521	0.20219
0.14870	0.04914
0.22521	0.22769
0.07220	0.07465
0.14870	0.20219
0.14870	0.15117
0.19971	0.15117
0.07220	0.12566
0.22521	0.12566
0.09770	0.15117
0.19971	0.15117
0.07220	0.12566
0.19971	0.25320
0.07220	0.07465
0.19971	0.17668
0.12320	0.12566
0.14870	0.15117
0.17421	0.15117
0.12320	0.04914
0.17421	0.15117
0.07220	0.15117
0.19971	0.15117
0.09770	0.04914
0.14870	0.17668
0.14870	0.12566
0.17421	0.25320
0.14870	0.15117
0.12320	0.12566
0.12320	0.12566
0.14870	0.12566
0.14870	0.12566
0.17421	0.15117
0.09770	0.07465
0.22521	0.17668
0.07220	0.10015
0.12320	0.22769
0.14870	0.07465
0.12320	0.17668
0.19971	0.15117
0.17421	0.04914
0.14870	0.15117
0.22521	0.15117
0.07220	0.07465
0.14870	0.20219
0.14870	0.12566
0.12320	0.15117
0.19971	0.22769
0.12320	0.10015
0.07220	0.15117
0.12320	0.25320
0.22521	0.12566
0.09770	0.15117
0.22521	0.25320
0.14870	0.04914
0.09770	0.12566
0.22521	0.15117
0.17421	0.07465
0.14870	0.15117
0.14870	0.15117
0.04670	0.15117
0.19971	0.17668
0.09770	0.12566
0.17421	0.15117
0.09770	0.15117
0.22521	0.17668
0.07220	0.15117
0.19971	0.12566
0.07220	0.15117
0.22521	0.15117
0.09770	0.04914
0.19971	0.17668
0.09770	0.10015
0.22521	0.20219
0.09770	0.10015
0.22521	0.17668
0.07220	0.07465
0.22521	0.20219
0.09770	0.12566
0.22521	0.22769
0.07220	0.15117
0.17421	0.15117
0.12320	0.15117
0.14870	0.12566
0.14870	0.20219
0.14870	0.04914
0.17421	0.20219
0.09770	0.07465
0.22521	0.25320
0.09770	0.04914
0.22521	0.20219
0.09770	0.12566
0.14870	0.15117
0.14870	0.12566
0.07220	0.10015
0.25071	0.22769
0.09770	0.10015
0.14870	0.20219
0.12320	0.15117
0.14870	0.15117
0.12320	0.15117
0.14870	0.04914
0.14870	0.17668
0.12320	0.07465
0.17421	0.25320
0.09770	0.10015
0.19971	0.25320
0.14870	0.04914
0.14870	0.22769
0.14870	0.04914
0.14870	0.20219
0.14870	0.12566
0.14870	0.15117
0.19971	0.15117
0.12320	0.10015
0.12320	0.20219
0.09770	0.10015
0.22521	0.20219
0.17421	0.15117
0.12320	0.17668
0.14870	0.22769
0.12320	0.12566
0.19971	0.17668
0.09770	0.04914
0.14870	0.15117
0.17421	0.10015
0.17421	0.12566
0.25071	0.22769
0.07220	0.04914
0.09770	0.15117
0.14870	0.20219
0.14870	0.07465
0.22521	0.15117
0.09770	0.17668
0.12320	0.07465
0.17421	0.25320
0.09770	0.15117
0.12320	0.15117
0.14870	0.12566
0.07220	0.04914
0.22521	0.22769
0.17421	0.07465
0.14870	0.15117
0.14870	0.12566
0.12320	0.10015
0.19971	0.15117
0.12320	0.10015
0.17421	0.22769
0.09770	0.10015
0.22521	0.15117
0.07220	0.15117
0.19971	0.15117
0.09770	0.15117
0.14870	0.07465
0.12320	0.20219
0.12320	0.10015
0.14870	0.22769
0.14870	0.10015
0.12320	0.25320
0.14870	0.07465
0.14870	0.20219
0.12320	0.07465
0.17421	0.22769
0.07220	0.07465
0.22521	0.10015
0.14870	0.10015
0.17421	0.10015
0.14870	0.15117
0.17421	0.15117
0.17421	0.25320
0.07220	0.04914
0.22521	0.20219
0.09770	0.07465
0.12320	0.17668
0.14870	0.17668
0.12320	0.15117
0.14870	0.17668
0.12320	0.12566
0.22521	0.12566
0.12320	0.12566
0.14870	0.15117
0.12320	0.15117
0.17421	0.15117
0.14870	0.10015
0.12320	0.12566
0.17421	0.15117
0.17421	0.15117
0.14870	0.12566
0.14870	0.12566
0.12320	0.15117
0.12320	0.15117
0.14870	0.07465
0.12320	0.20219
0.14870	0.10015
0.14870	0.15117
0.17421	0.17668
0.17421	0.04914
0.17421	0.20219
0.12320	0.12566
0.22521	0.20219
0.07220	0.17668
0.22521	0.17668
0.07220	0.15117
0.22521	0.15117
0.14870	0.07465
0.17421	0.20219
0.22521	0.12566
0.14870	0.07465
0.12320	0.15117
0.12320	0.22769
0.09770	0.10015
0.14870	0.12566
0.12320	0.12566
0.09770	0.15117
0.19971	0.12566
0.14870	0.04914
0.12320	0.20219
0.17421	0.04914
0.12320	0.25320
0.12320	0.15117
0.07220	0.12566
0.22521	0.17668
0.09770	0.15117
0.25071	0.17668
0.17421	0.10015
0.12320	0.20219
0.12320	0.15117
0.07220	0.12566
0.22521	0.25320
0.12320	0.04914
0.14870	0.25320
0.14870	0.07465
0.14870	0.25320
0.17421	0.10015
0.12320	0.15117
0.22521	0.15117
0.07220	0.12566
0.14870	0.15117
0.14870	0.22769
0.12320	0.10015
0.14870	0.20219
0.12320	0.10015
0.22521	0.20219
0.07220	0.07465
0.22521	0.25320
0.07220	0.10015
0.14870	0.22769
0.07220	0.10015
0.19971	0.22769
0.07220	0.10015
0.19971	0.17668
0.14870	0.04914
0.14870	0.22769
0.17421	0.04914
0.14870	0.15117
0.17421	0.15117
0.07220	0.17668
0.22521	0.15117
0.07220	0.12566
0.22521	0.12566
0.07220	0.12566
0.19971	0.12566
0.07220	0.07465
0.19971	0.20219
0.07220	0.10015
0.22521	0.22769
0.12320	0.15117
0.14870	0.12566
0.14870	0.12566
0.14870	0.25320
0.12320	0.07465
0.14870	0.17668
0.14870	0.10015
0.12320	0.17668
0.12320	0.10015
0.14870	0.20219
0.19971	0.15117
0.07220	0.12566
0.22521	0.17668
0.07220	0.15117
0.19971	0.22769
0.12320	0.02363
0.17421	0.22769
0.12320	0.07465
0.12320	0.20219
0.14870	0.17668
0.09770	0.12566
0.22521	0.12566
0.09770	0.10015
0.19971	0.12566
0.07220	0.10015
0.12320	0.22769
0.12320	0.04914
0.12320	0.12566
0.14870	0.17668
0.14870	0.15117
0.17421	0.07465
0.14870	0.22769
0.17421	0.10015
0.14870	0.12566
0.14870	0.17668
0.14870	0.12566
0.09770	0.15117
0.12320	0.12566
0.17421	0.15117
0.07220	0.10015
0.19971	0.17668
0.07220	0.04914
0.14870	0.15117
0.07220	0.15117
0.19971	0.15117
0.07220	0.12566
0.22521	0.12566
0.09770	0.17668
0.19971	0.15117
0.09770	0.15117
0.19971	0.12566
0.07220	0.15117
0.12320	0.15117
0.12320	0.25320
0.17421	0.10015
0.17421	0.20219
0.12320	0.15117
0.14870	0.17668
0.17421	0.10015
0.14870	0.15117
0.12320	0.17668
0.14870	0.12566
0.17421	0.22769
0.12320	0.12566
0.14870	0.17668
0.14870	0.15117
0.17421	0.15117
0.12320	0.07465
0.17421	0.12566
0.14870	0.15117
0.17421	0.20219
0.14870	0.15117
0.09770	0.12566
0.19971	0.22769
0.14870	0.12566
0.22521	0.12566
0.07220	0.15117
0.22521	0.15117
0.09770	0.10015
0.25071	0.25320
0.09770	0.10015
0.12320	0.17668
0.14870	0.15117
0.14870	0.15117
0.12320	0.12566
0.14870	0.17668
0.17421	0.15117
0.12320	0.25320
0.14870	0.12566
0.09770	0.12566
0.12320	0.15117
0.17421	0.12566
0.14870	0.15117
0.12320	0.12566
0.19971	0.20219
0.07220	0.10015
0.22521	0.22769
0.07220	0.10015
0.17421	0.22769
0.14870	0.04914
0.14870	0.20219
0.14870	0.07465
0.14870	0.17668
0.17421	0.15117
0.12320	0.12566
0.17421	0.12566
0.14870	0.10015
0.22521	0.20219
0.07220	0.10015
0.19971	0.22769
0.09770	0.10015
0.22521	0.22769
0.14870	0.10015
0.14870	0.17668
0.14870	0.07465
0.07220	0.12566
0.12320	0.20219
0.17421	0.04914
0.14870	0.12566
0.12320	0.15117
0.07220	0.17668
0.22521	0.15117
0.09770	0.10015
0.22521	0.20219
0.09770	0.10015
0.19971	0.22769
0.22521	0.15117
0.07220	0.15117
0.19971	0.20219
0.04670	0.02363
0.25071	0.25320
0.07220	0.15117
0.14870	0.17668
0.14870	0.20219
0.07220	0.07465
0.17421	0.20219
0.14870	0.17668
0.09770	0.07465
0.14870	0.10015
0.12320	0.20219
0.07220	0.10015
0.17421	0.15117
0.14870	0.22769
0.07220	0.04914
0.19971	0.17668
0.12320	0.12566
0.17421	0.15117
0.14870	0.20219
0.09770	0.10015
0.17421	0.15117
0.22521	0.12566
0.12320	0.10015
0.12320	0.22769
0.25071	0.17668
0.09770	0.15117
0.19971	0.17668
0.07220	0.10015
0.12320	0.20219
0.12320	0.10015
0.09770	0.15117
0.22521	0.15117
0.14870	0.10015
0.12320	0.07465
0.19971	0.15117
0.09770	0.10015
0.14870	0.22769
0.14870	0.10015
0.07220	0.10015
0.17421	0.22769
0.17421	0.04914
0.12320	0.20219
0.19971	0.15117
0.09770	0.12566
0.19971	0.12566
0.12320	0.17668
0.07220	0.10015
0.19971	0.12566
0.14870	0.07465
0.14870	0.15117
0.17421	0.15117
0.09770	0.04914
0.14870	0.15117
0.19971	0.15117
0.14870	0.10015
0.14870	0.12566
0.22521	0.15117
0.09770	0.10015
0.17421	0.22769
0.22521	0.15117
0.02119	0.15117
0.19971	0.20219
0.14870	0.17668
0.14870	0.10015
0.22521	0.22769
0.17421	0.15117
0.12320	0.12566
0.22521	0.25320
0.07220	0.07465
0.14870	0.15117
0.14870	0.17668
0.09770	0.07465
0.14870	0.15117
0.12320	0.12566
0.09770	0.12566
0.22521	0.25320
0.14870	0.15117
0.14870	0.10015
0.19971	0.15117
0.14870	0.15117
0.12320	0.17668
0.19971	0.22769
0.17421	0.15117
0.14870	0.12566
0.12320	0.20219
0.07220	0.07465
0.22521	0.15117
0.12320	0.10015
0.07220	0.15117
0.19971	0.12566
0.07220	0.07465
0.17421	0.25320
0.14870	0.07465
0.09770	0.12566
0.19971	0.22769
0.14870	0.10015
0.12320	0.15117
0.19971	0.20219
0.09770	0.12566
0.14870	0.22769
0.12320	0.15117
0.07220	0.10015
0.19971	0.25320
0.07220	-0.00188
0.14870	0.17668
0.14870	0.12566
0.14870	0.12566
0.19971	0.22769
0.09770	0.04914
0.22521	0.12566
0.12320	0.15117
0.14870	0.17668
0.12320	0.12566
0.14870	0.17668
0.19971	0.22769
0.09770	0.04914
0.14870	0.15117
0.12320	0.17668
0.09770	0.04914
0.19971	0.22769
0.09770	0.17668
0.12320	0.15117
0.14870	0.22769
0.07220	0.04914
0.19971	0.15117
0.17421	0.20219
0.19971	0.12566
0.22521	0.22769
0.07220	0.10015
0.22521	0.15117
0.19971	0.17668
-0.05531	0.02363
-0.00431	0.17668
0.02119	0.10015
-0.18282	0.12566
0.09770	0.04914
0.55673	0.17668
0.60773	0.27871
0.12320	0.07465
-0.08081	0.22769
0.58223	0.32972
0.22521	0.12566
0.04670	0.17668
0.37822	0.20219
-0.02981	-0.30797
-1.20288	-0.18043
-0.18282	0.27871
0.73524	0.76336
0.88825	0.38074
0.45472	-0.12942
0.35272	0.12566
0.22521	0.15117
-0.05531	0.45726
-0.15732	-0.00188
0.07220	-0.38449
-0.94787	-0.10391
-0.18282	0.86539
0.30171	0.96742
0.60773	0.96742
0.73524	-0.66508
0.17421	-0.05289
-0.10631	-1.45582
0.32721	-0.66508
0.42922	0.22769
0.37822	-0.51203
0.53123	0.86539
0.83725	1.88570
-1.15188	0.86539
0.53123	-0.02739
-0.69285	1.68163
-0.33583	-1.96597
0.96476	0.30422
0.53123	0.17668
0.81175	0.99292
0.40372	-1.94047
-0.10631	0.55929
-0.46334	-1.68539
0.27621	-0.20594
-0.38683	1.73265
-0.25932	1.06945
-0.31033	-0.10391
0.04670	2.62542
-0.33583	-0.15492
0.88825	0.50828
1.80631	-3.85355
-0.28482	2.24281
0.02119	0.45726
1.16877	3.87530
0.48022	0.35523
-1.27939	1.37554
-0.76936	-4.74632
0.76074	-0.81812
0.25071	-1.02219
0.48022	-1.68539
-0.33583	0.15117
1.57679	0.30422
-0.13181	-0.43551
-2.65648	-4.18515
0.02119	8.41568
-0.89686	-0.00188
1.04126	0.55929
-0.15732	0.78886
1.27078	0.91640
1.27078	-0.00188
1.32178	-0.71609
0.14870	-1.43031
-1.22839	-0.69059
-0.25932	-0.43551
0.17421	0.25320
0.63323	-4.77183
0.73524	0.20219
0.45472	3.31413
-0.36133	3.84979
-1.12638	5.07416
-1.07538	1.96222
0.53123	0.27871
0.63323	-0.92016
0.09770	-4.23616
1.72980	-2.62918
3.59142	0.15117
-8.82787	0.15117
-3.75305	-3.34339
1.19427	0.48277
5.96307	4.38546
8.00321	-3.72601
2.36734	5.15069
-5.99719	-5.46054
-0.97337	2.77847
1.60230	3.31413
3.94845	2.14077
-8.70036	1.45206
0.12320	0.76336
2.46935	-6.02170
-0.18282	0.73785
0.02119	0.61031
-0.38683	0.63582
-2.83499	1.78367
-1.58541	1.50308
5.12152	1.50308
-3.29402	-1.07320
8.97227	-0.35899
-8.06282	0.17668
-0.31033	-4.03210
8.02871	-1.27726
2.16333	-1.55785
-0.48884	1.73265
-1.43240	1.96222
-1.61091	1.24800
-1.50890	-1.78742
-1.20288	3.41616
-0.71835	-0.25695
-0.64185	1.63062
-0.41233	1.04394
0.65874	-0.07840
0.55673	-0.28246
0.68424	1.80917
-0.13181	0.94191
2.69887	-4.18515
-1.50890	-1.32828
1.50029	-0.15492
1.78081	0.45726
-0.71835	-1.65988
-0.46334	0.83988
-0.36133	1.91120
2.36734	1.50308
-1.02437	1.09496
-4.13557	-0.63957
2.64786	-1.45582
0.68424	-0.46102
-0.43783	-1.48133
-0.51434	-0.02739
-0.38683	-0.92016
-0.25932	0.73785
0.04670	3.31413
0.37822	1.91120
0.53123	0.20219
0.73524	2.06425
0.27621	-3.62398
0.40372	0.71234
0.02119	-1.73640
0.48022	1.12046
-0.38683	1.45206
0.73524	1.27351
0.30171	0.53379
-0.18282	-0.30797
-0.13181	0.35523
-0.20832	-0.58856
-1.15188	-0.02739
-0.33583	-2.50164
0.53123	-1.14973
1.16877	1.35003
1.67880	2.65093
-0.64185	1.27351
-0.10631	1.60511
-1.30489	-0.86914
0.68424	-0.05289
-0.02981	-0.56305
0.55673	-0.28246
0.63323	0.30422
-0.08081	0.10015
-0.23382	0.15117
-0.36133	1.17148
-0.20832	-1.09871
0.60773	2.67644
1.01576	1.37554
0.65874	1.47757
0.04670	-5.56257
-0.05531	2.75296
-0.38683	-1.43031
-0.59084	0.22769
0.93925	2.08976
-0.10631	-1.94047
0.14870	0.94191
0.63323	0.63582
0.60773	0.30422
0.22521	1.73265
-0.10631	-1.48133
-0.25932	0.22769
-0.13181	0.12566
0.02119	0.30422
-0.05531	-0.15492
0.32721	1.06945
0.58223	2.08976
0.30171	-3.59847
-0.13181	1.22250
-0.41233	0.78886
-0.00431	-1.04770
0.32721	1.17148
0.70974	0.38074
0.53123	0.96742
-0.00431	1.01843
0.02119	-1.04770
-0.10631	0.20219
-0.18282	-3.19035
0.07220	0.10015
-0.00431	-1.43031
0.04670	2.01323
0.14870	0.50828
0.32721	0.27871
0.45472	1.83468
-0.05531	-0.41000
0.48022	0.02363
0.65874	1.32453
0.02119	1.78367
-0.02981	2.57441
0.30171	-3.03730
0.04670	-3.13933
-0.82036	0.94191
0.22521	0.15117
0.63323	1.04394
0.27621	0.45726
0.04670	1.47757
0.04670	0.25320
0.12320	-1.48133
-0.18282	0.73785
-0.00431	1.42656
0.07220	0.48277
0.27621	-1.25176
0.22521	-2.93527
0.19971	2.82948
0.22521	0.73785
0.27621	-2.96078
0.22521	0.76336
0.30171	2.42136
0.48022	1.96222
0.30171	0.86539
-0.02981	0.30422
-0.28482	-0.43551
0.02119	-1.50683
0.17421	-1.35379
0.09770	-0.05289
0.02119	-0.81812
-0.18282	0.40625
0.12320	0.91640
0.22521	-1.53234
0.32721	0.07465
0.32721	1.19699
0.30171	0.25320
0.32721	2.65093
0.12320	-2.93527
0.25071	3.90081
-0.00431	-5.56257
0.12320	1.78367
0.09770	1.86019
0.12320	2.16628
0.42922	1.42656
0.22521	1.65613
-0.00431	-3.08831
-0.18282	-1.37929
0.25071	0.22769
0.12320	0.55929
0.12320	-0.23145
0.22521	0.63582
0.04670	-0.23145
-0.10631	0.15117
0.32721	-0.63957
0.17421	0.48277
-0.00431	0.35523
0.58223	-0.63957
0.45472	1.65613
0.25071	-0.61406
-0.41233	-5.56257
0.35272	2.03874
-0.31033	0.81437
0.68424	2.39585
0.32721	-0.30797
-0.05531	2.24281
-0.36133	-2.09351
0.22521	0.45726
0.35272	-0.07840
0.63323	0.76336
-0.28482	0.22769
-0.13181	0.30422
0.02119	1.91120
0.22521	-1.43031
0.19971	-0.46102
0.40372	0.58480
0.12320	-2.70570
0.27621	0.61031
0.19971	-1.27726
0.19971	0.17668
0.14870	0.45726
0.17421	1.47757
-0.08081	0.78886
0.32721	1.55410
0.19971	-0.00188
0.50573	0.71234
0.30171	1.24800
-0.05531	2.67644
-0.23382	-6.14924
-0.28482	-0.25695
0.02119	0.91640
0.17421	1.65613
0.27621	1.98773
0.55673	0.78886
0.22521	1.04394
-0.31033	-0.00188
0.68424	-0.53754
0.55673	-1.73640
0.45472	0.15117
-0.23382	-2.88425
-0.20832	2.52339
-0.18282	-2.37410
-0.08081	-0.05289
0.17421	1.78367
0.27621	0.73785
0.45472	1.47757
0.35272	-0.84363
-0.02981	1.32453
0.22521	0.02363
0.27621	0.15117
0.22521	-0.35899
0.12320	-0.89465
-0.08081	0.32972
0.19971	0.40625
-0.10631	1.29902
0.30171	1.04394
0.30171	-0.18043
0.19971	0.12566
-0.46334	-1.22625
0.25071	-2.68019
0.55673	-1.12422
0.30171	1.45206
-0.05531	1.22250
0.19971	1.42656
-0.02981	0.07465
-0.46334	0.73785
0.17421	0.12566
0.32721	0.76336
0.40372	1.63062
0.30171	-2.06800
-0.05531	1.17148
-0.38683	-1.60887
0.91375	0.89089
0.40372	0.99292
0.42922	0.02363
-0.18282	1.52859
-0.02981	-0.99668
-0.23382	-2.24656
-0.05531	1.40105
-0.05531	1.52859
0.22521	-2.90976
0.50573	0.99292
0.53123	0.48277
0.17421	1.27351
-0.25932	1.47757
-0.18282	0.91640
0.45472	-1.32828
0.32721	0.61031
0.09770	-2.09351
0.02119	0.86539
0.14870	1.78367
0.37822	2.59991
0.22521	-3.72601
0.17421	0.66132
0.17421	0.66132
0.02119	1.14597
0.32721	0.07465
0.27621	-0.00188
0.12320	0.27871
0.07220	0.71234
0.04670	0.48277
-0.02981	0.04914
0.02119	-0.28246
-0.31033	0.73785
0.22521	-0.63957
0.37822	-1.07320
0.63323	0.55929
0.48022	1.06945
-0.10631	0.58480
-0.61635	0.68683
-0.13181	-0.10391
0.32721	-0.05289
0.78624	0.94191
0.07220	-0.35899
-0.20832	0.25320
0.12320	0.22769
0.17421	0.17668
0.30171	0.17668
-0.10631	0.30422
0.14870	0.61031
0.19971	0.27871
0.09770	0.27871
0.22521	0.45726
0.07220	-0.79262
0.17421	-3.03730
0.12320	1.06945
0.12320	0.96742
0.32721	0.07465
0.09770	1.09496
0.22521	0.40625
0.02119	1.83468
0.09770	-1.07320
0.07220	0.96742
0.22521	0.55929
0.14870	0.43176
0.14870	2.08976
0.04670	-1.43031
0.07220	-2.04250
-0.02981	-0.76711
0.25071	0.61031
0.17421	-0.15492
0.22521	1.80917
0.22521	1.80917
-0.00431	-2.39961
0.14870	-0.38449
0.17421	-0.53754
0.22521	0.99292
0.25071	1.40105
0.07220	1.09496
0.07220	0.55929
-0.33583	-0.46102
0.22521	-0.48652
0.42922	-0.18043
-0.05531	1.04394
0.45472	-0.35899
0.19971	-0.97117
0.14870	-2.88425
0.17421	1.63062
0.12320	1.80917
0.19971	0.86539
-0.13181	-0.10391
-0.00431	0.10015
0.12320	0.86539
0.12320	-1.20074
0.35272	0.78886
0.07220	0.71234
0.30171	-0.81812
0.19971	1.14597
0.14870	-1.20074
0.07220	-0.66508
0.22521	0.55929
0.09770	1.42656
0.22521	1.52859
0.14870	0.43176
0.17421	0.35523
0.09770	-0.48652
0.12320	0.27871
0.09770	-1.43031
0.09770	-0.84363
0.14870	0.83988
0.17421	-2.78222
0.19971	1.14597
0.17421	1.22250
-0.00431	0.55929
0.25071	0.07465
-0.00431	0.12566
0.27621	1.57960
0.07220	-2.85874
0.32721	1.19699
0.04670	0.20219
0.04670	0.55929
0.12320	0.73785
-0.00431	-0.05289
0.22521	0.96742
0.27621	-2.04250
0.17421	-0.63957
0.22521	0.02363
0.09770	0.76336
0.02119	1.98773
0.12320	0.12566
-0.25932	-0.05289
0.37822	-0.66508
0.32721	-0.53754
0.25071	0.81437
0.12320	-0.71609
0.09770	0.30422
-0.08081	2.29382
0.32721	-1.73640
0.45472	1.01843
0.17421	0.83988
-0.15732	0.38074
-0.08081	-1.50683
0.14870	-0.92016
0.32721	0.02363
0.14870	0.63582
0.19971	0.68683
0.09770	0.86539
-0.13181	0.45726
0.17421	-0.33348
0.68424	-1.58336
0.27621	1.78367
0.12320	0.91640
0.07220	0.76336
-0.05531	-0.92016
0.09770	-0.23145
0.07220	0.53379
0.17421	0.17668
-0.10631	-2.09351
0.14870	1.09496
0.14870	1.19699
0.09770	-0.76711
0.22521	0.86539
0.09770	-0.99668
0.07220	0.48277
0.22521	-0.07840
0.12320	-0.15492
-0.00431	-0.05289
0.19971	0.32972
0.14870	0.45726
0.27621	0.94191
0.22521	-1.22625
0.07220	0.10015
0.14870	-1.60887
0.19971	0.81437
0.30171	0.86539
0.12320	1.06945
-0.08081	1.60511
0.12320	0.25320
0.09770	-0.66508
0.02119	-0.48652
0.12320	0.50828
0.27621	-0.56305
0.17421	0.94191
0.37822	0.66132
0.14870	-1.50683
0.19971	0.91640
-0.13181	0.43176
0.45472	-0.30797
0.12320	0.30422
0.12320	0.45726
-0.02981	-0.00188
-0.38683	-0.30797
0.48022	0.86539
0.32721	-1.22625
0.09770	0.10015
0.02119	0.25320
0.09770	0.55929
0.12320	0.53379
0.45472	0.63582
0.22521	-0.69059
0.14870	0.17668
0.09770	0.89089
-0.05531	-1.14973
0.14870	-0.07840
0.07220	0.66132
0.19971	1.14597
0.14870	0.73785
0.22521	-2.27207
0.17421	0.30422
0.25071	1.63062
0.02119	-0.51203
0.09770	0.48277
0.14870	1.04394
0.25071	-0.97117
0.14870	0.45726
0.14870	0.40625
0.07220	-0.07840
-0.18282	-0.28246
0.48022	0.07465
0.25071	-0.58856
0.22521	-0.12942
-0.13181	0.86539
0.07220	0.07465
0.12320	0.27871
0.25071	0.35523
0.07220	0.15117
-0.02981	0.02363
0.07220	0.07465
0.12320	0.53379
0.09770	0.48277
0.35272	-1.48133
0.17421	0.63582
0.27621	0.07465
0.09770	1.19699
0.12320	-0.43551
0.14870	0.89089
0.14870	-0.35899
0.19971	0.35523
0.02119	0.71234
0.22521	-0.20594
0.14870	-0.23145
0.30171	0.53379
0.17421	-0.51203
0.12320	-0.35899
-0.00431	0.78886
0.17421	0.76336
0.12320	-0.00188
0.27621	0.32972
0.12320	-0.38449
0.09770	0.32972
0.22521	-0.12942
0.12320	0.43176
0.32721	-0.35899
0.19971	0.68683
-0.10631	-0.07840
0.09770	-0.23145
0.22521	-1.17523
-0.00431	0.86539
0.19971	1.17148
0.17421	0.43176
0.12320	-1.71090
0.09770	0.15117
0.17421	0.73785
0.14870	-0.46102
0.19971	0.78886
0.22521	0.50828
0.14870	0.32972
0.22521	0.32972
0.07220	0.22769
0.07220	0.20219
0.19971	0.99292
0.07220	-2.06800
0.19971	-0.25695
0.17421	0.66132
0.09770	0.53379
0.22521	0.55929
0.02119	-0.02739
0.04670	-0.74160
0.12320	1.06945
0.19971	-0.76711
0.30171	-1.32828
-0.02981	0.48277
0.02119	0.81437
0.14870	0.22769
0.27621	1.60511
0.07220	-0.43551
0.22521	-1.73640
0.22521	0.99292
0.14870	0.94191
0.07220	0.55929
0.04670	-0.61406
0.12320	0.45726
0.09770	0.43176
0.17421	-0.86914
0.27621	0.32972
0.07220	-0.15492
0.25071	0.86539
0.25071	0.35523
-0.00431	0.30422
0.07220	-1.09871
0.02119	-0.46102
0.19971	0.81437
0.19971	0.78886
0.12320	-0.46102
0.17421	1.45206
0.12320	-1.27726
0.14870	0.68683
0.25071	-0.05289
0.30171	0.35523
0.09770	0.12566
0.19971	0.12566
-0.00431	-0.20594
0.14870	-0.61406
0.04670	1.60511
0.09770	-0.79262
0.04670	0.91640
0.25071	0.50828
0.14870	0.35523
0.19971	0.61031
0.25071	0.25320
0.14870	0.15117
0.12320	-0.05289
0.22521	0.20219
0.22521	-0.43551
0.04670	0.48277
0.19971	-0.20594
0.02119	0.35523
0.19971	-1.68539
0.12320	0.55929
0.09770	0.73785
0.12320	0.12566
0.19971	0.55929
0.07220	0.86539
0.22521	0.17668
0.12320	0.22769
0.25071	-0.94566
0.17421	0.94191
0.25071	0.38074
-0.00431	1.27351
0.17421	-0.00188
0.17421	-0.25695
0.19971	0.58480
0.19971	0.25320
0.02119	-0.25695
0.14870	0.63582
0.07220	0.02363
0.27621	0.38074
0.12320	-0.58856
0.14870	-0.48652
-0.00431	0.71234
0.19971	0.45726
0.14870	0.22769
0.27621	-0.18043
0.12320	0.83988
0.12320	-0.53754
0.17421	0.53379
0.14870	0.15117
0.09770	0.40625
0.27621	0.91640
0.09770	-0.30797
0.19971	-0.61406
0.04670	0.66132
0.19971	0.83988
0.02119	0.35523
0.17421	0.22769
0.14870	-1.32828
0.17421	0.53379
0.22521	-0.35899
0.09770	0.55929
0.30171	0.27871
0.02119	0.73785
0.17421	0.89089
0.07220	-0.92016
0.32721	0.76336
0.17421	0.32972
0.32721	1.01843
0.17421	0.48277
0.04670	-0.10391
0.09770	-0.33348
-0.05531	-0.69059
0.19971	-0.38449
0.30171	0.66132
0.27621	-0.38449
0.19971	1.19699
0.19971	-0.43551
0.09770	0.71234
0.09770	0.02363
0.04670	-0.38449
0.04670	-0.02739
0.22521	0.38074
0.17421	0.15117
0.12320	0.53379
0.14870	0.40625
0.22521	0.94191
0.17421	-0.66508
0.17421	1.80917
0.14870	-3.06281
0.14870	0.73785
0.17421	0.35523
0.12320	-0.20594
0.12320	0.12566
0.14870	0.55929
0.14870	0.20219
0.12320	0.61031
0.07220	0.45726
0.04670	-0.18043
0.09770	0.50828
0.25071	-1.53234
0.27621	1.09496
0.22521	0.71234
0.22521	0.58480
0.09770	-0.69059
0.17421	0.25320
0.07220	-0.00188
0.07220	0.10015
0.17421	-0.35899
0.30171	0.55929
0.09770	0.83988
0.12320	-0.10391
0.04670	0.96742
0.14870	-2.34859
0.07220	0.96742
0.19971	-0.63957
0.22521	0.45726
0.19971	0.25320
0.09770	0.17668
0.32721	0.55929
0.22521	0.96742
0.14870	0.45726
0.07220	-0.30797
0.17421	-0.84363
-0.00431	0.68683
0.22521	0.83988
0.19971	-0.97117
0.37822	0.30422
0.02119	0.32972
-0.02981	-0.53754
-0.00431	0.17668
0.27621	0.58480
0.14870	0.48277
0.14870	0.12566
0.17421	-0.35899
0.12320	0.35523
0.12320	0.04914
0.12320	0.45726
0.19971	0.63582
0.14870	0.58480
0.12320	-1.73640
0.12320	0.30422
0.22521	0.32972
0.17421	0.30422
0.22521	0.63582
0.12320	0.43176
0.09770	0.15117
0.12320	-0.00188
0.07220	0.48277
0.17421	-1.07320
0.12320	0.20219
0.30171	-0.66508
0.09770	1.88570
0.12320	-0.56305
0.02119	0.40625
0.30171	0.25320
0.04670	0.45726
0.07220	-0.02739
0.22521	0.68683
0.17421	-0.56305
0.19971	1.12046
0.12320	-1.40480
0.19971	-0.07840
0.22521	0.30422
0.14870	0.78886
0.09770	0.40625
0.14870	0.04914
0.12320	-0.07840
0.12320	0.17668
0.07220	0.20219
0.22521	0.15117
-0.02981	-0.02739
0.14870	0.02363
0.12320	0.04914
0.17421	0.45726
0.19971	0.53379
0.22521	-0.66508
0.17421	-0.35899
0.19971	0.55929
0.12320	0.10015
0.09770	-0.79262
0.04670	1.22250
0.30171	1.55410
0.30171	-1.68539
0.04670	-0.33348
-0.18282	1.40105
0.07220	0.78886
0.22521	-1.17523
0.14870	0.73785
0.30171	0.25320
0.14870	-0.05289
0.19971	-0.15492
0.14870	-0.05289
0.12320	-0.00188
0.07220	-0.18043
0.07220	0.12566
0.12320	0.10015
0.22521	0.50828
0.19971	-0.46102
0.12320	0.04914
-0.00431	0.53379
0.14870	1.14597
0.32721	1.12046
0.07220	-0.15492
0.22521	-0.33348
0.07220	-1.02219
0.14870	1.04394
0.14870	0.99292
0.12320	1.60511
0.17421	-0.79262
0.02119	0.17668
0.09770	-0.38449
0.17421	0.78886
0.09770	-1.27726
0.12320	0.22769
0.14870	-0.00188
0.09770	0.17668
0.22521	0.17668
0.12320	0.10015
0.19971	0.35523
0.07220	0.32972
0.25071	0.38074
0.09770	0.27871
0.27621	0.81437
0.14870	-0.69059
0.12320	-1.07320
-0.08081	-0.07840
0.02119	2.14077
0.32721	0.50828
0.35272	-0.69059
0.17421	0.25320
0.17421	0.30422
0.09770	0.20219
0.17421	0.61031
0.12320	0.10015
0.17421	-2.06800
-0.15732	0.43176
0.19971	0.66132
0.12320	0.43176
0.27621	0.45726
0.07220	0.32972
0.27621	0.30422
0.17421	0.32972
0.12320	0.55929
0.27621	0.58480
0.04670	0.25320
0.09770	-1.17523
0.07220	-0.10391
-0.02981	0.12566
0.12320	-0.28246
0.12320	0.02363
0.12320	0.71234
0.09770	-0.86914
0.25071	0.66132
0.30171	0.02363
0.12320	1.22250
0.25071	0.45726
-0.00431	0.12566
0.27621	0.68683
0.17421	-0.02739
0.25071	0.10015
0.02119	-0.51203
0.07220	0.61031
0.09770	0.10015
0.17421	-1.55785
0.19971	0.25320
0.14870	0.71234
0.27621	1.37554
-0.00431	0.25320
0.07220	0.15117
0.19971	-0.81812
0.14870	0.10015
0.17421	0.20219
0.17421	-0.05289
0.14870	0.17668
0.02119	-0.07840
0.25071	0.61031
0.14870	-1.22625
0.12320	0.25320
0.14870	0.15117
0.14870	1.45206
0.19971	0.15117
0.14870	0.55929
0.14870	-1.07320
0.02119	0.25320
0.12320	0.15117
0.07220	0.22769
0.25071	0.48277
0.19971	-0.61406
0.19971	-0.56305
0.17421	2.26831
0.22521	0.20219
0.14870	-1.50683
0.17421	0.86539
0.04670	0.96742
0.07220	0.91640
0.17421	-0.89465
0.17421	0.63582
0.14870	-0.38449
0.07220	-0.05289
0.19971	1.40105
0.27621	-0.25695
0.12320	-0.23145
-0.02981	-1.76191
0.19971	1.42656
-0.00431	0.66132
0.22521	0.10015
0.12320	-0.84363
0.19971	-0.02739
0.32721	0.48277
0.27621	0.66132
-0.08081	0.68683
0.19971	-0.35899
0.19971	1.04394
0.12320	-0.71609
0.09770	0.71234
0.19971	0.10015
0.04670	-1.65988
0.12320	1.50308
0.17421	0.76336
0.19971	0.43176
0.22521	-1.27726
0.07220	0.55929
0.09770	0.17668
0.09770	0.04914
0.17421	0.61031
0.30171	1.47757
0.22521	-0.99668
0.25071	0.53379
0.02119	-0.97117
0.04670	0.15117
-0.02981	0.04914
0.17421	0.20219
0.22521	0.27871
0.22521	0.61031
0.17421	0.30422
0.17421	0.83988
0.22521	-0.61406
0.19971	-0.23145
0.22521	-0.05289
0.17421	1.42656
-0.08081	0.45726
0.04670	0.30422
0.12320	0.07465
0.27621	0.27871
0.09770	0.35523
0.19971	-0.51203
0.14870	-0.20594
0.17421	-1.09871
0.17421	1.17148
0.12320	0.25320
0.09770	-0.07840
0.22521	0.76336
-0.00431	0.91640
0.14870	-1.63437
-0.00431	0.81437
0.22521	-0.23145
0.25071	0.25320
0.04670	0.38074
0.14870	0.48277
0.14870	0.53379
0.19971	-0.18043
0.12320	-0.28246
0.14870	-0.30797
0.17421	1.04394
0.17421	-0.20594
0.17421	0.32972
0.27621	-0.63957
0.14870	0.55929
-0.05531	0.25320
0.12320	0.04914
-0.00431	-0.00188
0.19971	0.27871
0.14870	0.10015
0.27621	0.04914
0.07220	-0.46102
0.22521	1.35003
0.25071	-0.48652
0.09770	1.57960
0.19971	-3.62398
0.12320	0.66132
0.14870	1.17148
0.12320	1.65613
0.14870	0.83988
-0.08081	-0.76711
0.09770	0.53379
0.27621	0.53379
0.22521	0.12566
0.27621	-0.07840
0.07220	-0.15492
0.25071	-0.56305
0.02119	0.32972
0.25071	-1.37929
0.12320	1.37554
-0.05531	0.02363
0.07220	-0.33348
0.07220	0.55929
0.25071	0.58480
0.25071	0.30422
0.09770	-0.15492
0.22521	0.35523
0.25071	-1.60887
0.25071	1.40105
0.02119	0.55929
0.12320	0.45726
0.07220	-0.00188
0.17421	-0.00188
-0.00431	0.15117
0.27621	0.20219
0.09770	0.22769
0.25071	0.07465
0.12320	0.17668
0.22521	0.04914
0.02119	0.50828
0.19971	-0.35899
-0.00431	-0.02739
0.22521	-0.05289
0.17421	0.25320
0.22521	-0.51203
0.07220	1.29902
0.30171	0.53379
0.12320	0.22769
0.14870	-0.12942
0.17421	0.25320
0.22521	0.48277
0.02119	-0.79262
0.14870	-0.15492
0.02119	0.45726
0.19971	0.17668
0.17421	0.43176
0.27621	-0.10391
0.14870	0.27871
0.27621	-0.18043
0.07220	0.22769
0.12320	1.12046
0.12320	-1.65988
0.22521	-0.00188
-0.15732	0.94191
0.32721	-0.15492
0.17421	0.61031
0.19971	0.86539
0.12320	-0.51203
0.22521	0.78886
0.04670	-0.12942
0.17421	-0.07840
-0.02981	-0.84363
0.19971	-0.02739
0.14870	1.37554
0.19971	1.12046
0.07220	-1.91496
0.32721	0.53379
0.14870	0.78886
0.12320	0.61031
0.17421	-0.46102
0.02119	0.32972
0.19971	1.47757
0.17421	-0.07840
0.09770	0.30422
0.19971	-0.76711
-0.02981	-0.10391
0.22521	-0.00188
0.22521	0.66132
0.07220	-0.46102
0.17421	0.30422
0.14870	-0.15492
0.07220	0.30422
0.12320	-0.15492
0.09770	0.07465
0.14870	0.07465
0.25071	0.81437
0.12320	0.32972
0.22521	0.53379
0.07220	-0.53754
0.17421	0.25320
0.04670	0.30422
0.19971	0.48277
0.22521	0.35523
0.17421	0.20219
0.17421	0.02363
0.04670	0.02363
0.04670	0.40625
0.19971	-0.76711
0.07220	-0.05289
0.12320	0.50828
0.14870	0.27871
0.14870	0.58480
0.27621	0.43176
0.12320	-1.35379
0.22521	1.22250
0.12320	0.27871
0.27621	1.47757
-0.25932	-1.76191
0.22521	0.50828
0.07220	0.48277
0.27621	0.15117
0.22521	0.81437
0.19971	0.91640
0.22521	-2.60367
0.14870	0.17668
0.04670	0.86539
0.22521	0.96742
0.19971	1.12046
0.19971	-0.43551
0.22521	0.45726
0.09770	-0.07840
0.17421	0.40625
0.07220	0.22769
0.02119	0.12566
0.14870	-0.28246
0.30171	0.20219
0.22521	0.35523
-0.00431	0.15117
0.12320	0.07465
0.12320	-0.63957
0.30171	0.53379
0.09770	0.50828
0.27621	0.15117
0.09770	-1.53234
0.19971	0.63582
0.22521	1.32453
0.12320	0.25320
0.12320	0.04914
-0.02981	0.76336
0.12320	-0.66508
0.12320	0.63582
0.27621	0.45726
0.19971	0.27871
0.09770	0.12566
0.19971	0.30422
0.09770	-0.20594
0.19971	-0.61406
0.09770	0.94191
0.25071	-0.51203
0.12320	-0.86914
0.14870	1.01843
0.17421	1.27351
0.04670	0.58480
0.17421	0.58480
0.14870	-0.00188
-0.00431	-0.00188
0.19971	0.10015
0.25071	0.07465
0.17421	0.96742
0.17421	-2.06800
0.17421	0.81437
0.19971	-0.15492
0.17421	1.04394
0.09770	0.25320
0.19971	-1.17523
0.09770	0.76336
0.14870	-0.53754
0.12320	1.24800
0.07220	1.09496
0.17421	0.61031
0.09770	0.73785
0.25071	-3.06281
0.07220	1.14597
0.19971	2.29382
0.09770	-0.23145
0.12320	-1.65988
0.12320	0.35523
0.07220	0.71234
0.25071	0.07465
0.12320	0.10015
0.17421	0.20219
0.17421	-2.65468
0.27621	1.80917
0.09770	0.83988
0.09770	-0.66508
0.09770	1.83468
0.17421	0.38074
0.12320	-1.27726
0.25071	0.02363
0.14870	0.45726
0.09770	1.24800
0.04670	-0.97117
0.22521	0.73785
0.17421	0.71234
0.17421	0.07465
0.09770	0.12566
0.14870	0.17668
0.17421	0.02363
0.25071	0.17668
0.22521	-0.15492
0.09770	0.25320
-0.00431	-1.17523
0.07220	0.22769
0.17421	1.63062
0.12320	-0.99668
0.27621	-0.46102
0.22521	1.01843
0.32721	0.66132
0.25071	0.96742
-0.15732	-0.81812
0.30171	-0.51203
0.19971	0.50828
0.19971	0.53379
0.19971	0.66132
0.12320	0.17668
0.12320	0.45726
0.12320	0.17668
0.07220	-0.74160
0.12320	-0.07840
0.02119	-0.30797
0.22521	1.52859
0.22521	-2.27207
0.14870	0.94191
0.14870	0.86539
0.12320	-0.43551
0.14870	0.91640
0.19971	1.37554
0.09770	-0.81812
0.09770	-0.38449
0.09770	-0.46102
0.12320	-0.15492
0.09770	0.81437
0.27621	0.76336
0.22521	0.55929
0.07220	0.32972
0.12320	0.76336
0.02119	0.07465
0.14870	-1.50683
0.19971	0.22769
0.30171	0.07465
0.09770	1.19699
0.12320	-0.48652
0.12320	0.27871
0.22521	1.04394
0.09770	-0.20594
0.07220	-0.35899
0.19971	0.10015
0.02119	0.55929
0.14870	0.04914
0.02119	0.15117
0.22521	-0.28246
0.07220	-0.66508
0.25071	1.12046
0.17421	0.38074
0.09770	-0.10391
0.09770	0.53379
0.14870	0.17668
0.25071	0.55929
0.12320	-0.00188
0.25071	0.10015
0.07220	-0.66508
0.17421	0.76336
0.12320	0.04914
0.22521	0.66132
0.09770	-0.38449
0.19971	0.10015
0.02119	0.40625
0.09770	-0.92016
0.14870	-0.18043
0.17421	0.45726
0.07220	1.04394
0.12320	1.40105
0.07220	-0.07840
0.14870	-2.90976
0.14870	0.63582
0.09770	0.63582
0.30171	-1.48133
0.19971	1.65613
0.19971	1.04394
-0.25932	0.55929
0.14870	-0.41000
0.17421	0.02363
0.25071	-0.18043
0.02119	0.43176
0.07220	-1.17523
0.12320	0.63582
0.22521	0.32972
0.14870	-0.23145
0.22521	0.68683
0.22521	0.25320
0.14870	0.15117
0.19971	0.35523
0.02119	-0.12942
0.22521	0.40625
0.02119	0.68683
0.12320	0.04914
0.12320	0.76336
0.14870	-2.96078
0.14870	1.09496
0.14870	0.22769
0.22521	1.27351
0.09770	-0.12942
0.25071	0.12566
0.12320	0.71234
0.25071	0.76336
0.07220	-0.25695
0.25071	-0.41000
0.04670	0.86539
0.19971	-0.35899
0.09770	0.07465
0.17421	0.53379
0.04670	0.12566
0.25071	0.30422
0.09770	-0.25695
0.17421	-0.02739
0.14870	0.10015
0.09770	0.17668
0.07220	0.02363
0.12320	0.48277
0.25071	0.78886
0.19971	-0.05289
0.12320	-0.02739
0.09770	0.17668
0.17421	0.45726
0.09770	0.96742
0.04670	0.35523
0.14870	-0.12942
0.07220	-1.30277
0.40372	0.83988
0.14870	-1.17523
0.19971	1.01843
0.17421	1.83468
0.09770	-0.10391
0.09770	-1.83844
0.02119	0.43176
0.17421	0.58480
0.09770	1.06945
0.27621	-0.51203
0.17421	0.55929
0.12320	-0.23145
0.14870	-0.12942
0.12320	0.32972
0.12320	-0.92016
0.14870	-0.12942
0.27621	1.06945
-0.00431	1.19699
0.12320	-0.41000
0.07220	0.22769
0.27621	-0.18043
0.19971	-1.27726
0.04670	0.76336
0.12320	0.89089
0.25071	-0.66508
0.09770	0.27871
0.14870	-0.25695
0.14870	0.78886
0.17421	-0.02739
0.14870	1.45206
-0.05531	0.73785
0.17421	0.07465
0.07220	-0.35899
0.19971	0.25320
0.17421	0.99292
0.19971	-0.92016
0.14870	1.06945
0.09770	0.04914
0.14870	0.10015
0.19971	0.02363
0.12320	-0.86914
0.27621	1.55410
0.02119	-1.09871
0.09770	0.71234
0.14870	-0.99668
0.14870	0.63582
0.14870	0.66132
0.09770	0.83988
0.25071	0.50828
-0.00431	0.22769
0.02119	-0.41000
-0.05531	-0.15492
0.30171	0.30422
0.25071	0.25320
0.30171	0.63582
0.12320	-0.69059
0.19971	0.53379
0.02119	-0.28246
0.19971	0.81437
0.07220	0.86539
0.17421	-2.04250
0.22521	-0.46102
0.17421	1.37554
0.12320	0.99292
0.12320	0.55929
0.12320	-1.30277
0.07220	0.66132
0.22521	0.07465
0.14870	0.81437
0.22521	0.07465
0.14870	-0.69059
0.09770	0.68683
0.02119	-1.09871
0.07220	0.30422
0.09770	1.19699
0.12320	-0.71609
0.32721	-0.43551
0.19971	1.47757
0.22521	0.91640
0.09770	0.50828
0.17421	-0.10391
0.14870	0.17668
0.07220	-0.02739
-0.08081	0.43176
0.09770	-1.43031
0.22521	-1.53234
0.32721	0.17668
0.12320	0.58480
0.07220	0.86539
0.17421	1.37554
0.09770	1.22250
0.22521	0.43176
0.04670	-0.51203
0.22521	0.55929
0.12320	0.15117
0.02119	-1.14973
0.27621	1.50308
0.17421	-1.22625
0.25071	-0.20594
0.07220	0.04914
0.17421	0.22769
0.07220	0.27871
0.12320	0.35523
0.22521	0.68683
0.12320	0.78886
0.22521	-0.05289
0.12320	0.45726
0.22521	-0.00188
0.12320	0.07465
0.07220	0.32972
0.07220	0.02363
0.17421	0.04914
0.17421	0.15117
0.19971	-0.71609
0.12320	0.58480
0.12320	1.12046
0.09770	0.22769
0.19971	0.04914
0.32721	0.15117
0.25071	-0.46102
0.12320	0.40625
0.12320	0.58480
-0.08081	0.38074
0.09770	0.35523
0.09770	-0.61406
0.04670	-0.38449
0.30171	0.58480
0.25071	0.10015
0.19971	-0.07840
0.22521	-0.56305
0.09770	1.35003
0.22521	0.35523
0.09770	0.71234
0.17421	0.04914
0.14870	-0.71609
0.17421	0.25320
0.14870	-0.35899
0.17421	0.91640
0.14870	0.43176
0.12320	-1.12422
0.19971	1.37554
0.12320	-1.30277
0.19971	-0.25695
0.22521	0.12566
0.07220	0.61031
0.09770	1.37554
0.12320	0.25320
0.04670	-0.25695
0.25071	0.15117
0.19971	0.68683
0.17421	0.53379
0.17421	-0.35899
0.12320	-1.99148
0.14870	1.29902
0.17421	-0.12942
0.09770	0.63582
0.14870	0.07465
0.17421	0.27871
0.02119	0.10015
0.25071	0.17668
0.19971	0.02363
0.25071	0.25320
-0.00431	0.55929
0.19971	-0.25695
0.14870	0.53379
0.07220	-1.94047
0.22521	0.30422
0.17421	0.76336
0.14870	0.66132
0.25071	0.66132
0.14870	0.27871
0.22521	0.04914
0.12320	0.17668
0.12320	0.12566
0.04670	-0.81812
0.12320	0.17668
0.09770	1.01843
0.22521	2.06425
0.09770	-3.13933
0.14870	0.48277
0.12320	0.76336
0.02119	-1.43031
0.22521	0.91640
0.14870	0.55929
0.12320	1.32453
0.17421	-0.99668
0.19971	1.40105
0.04670	-0.15492
0.12320	-0.35899
0.04670	-0.28246
0.27621	0.83988
0.17421	0.50828
0.07220	-0.07840
0.17421	1.70714
0.17421	-0.10391
0.12320	-2.65468
0.14870	2.03874
0.12320	-2.55265
0.25071	0.32972
0.17421	0.61031
0.07220	0.15117
0.17421	1.37554
0.12320	0.50828
0.17421	0.43176
0.22521	0.45726
0.09770	0.48277
0.19971	-0.43551
0.19971	-0.92016
0.12320	-0.05289
0.02119	-0.05289
0.12320	-0.07840
0.25071	0.20219
0.09770	0.27871
0.12320	0.32972
0.19971	0.40625
0.19971	-1.25176
0.27621	1.91120
0.07220	-1.78742
0.27621	0.73785
0.07220	0.86539
0.02119	0.99292
0.22521	0.50828
0.19971	-0.15492
0.12320	-0.00188
0.17421	0.50828
0.07220	-0.86914
0.12320	0.40625
0.22521	-0.15492
-0.00431	0.10015
0.25071	0.20219
0.25071	0.12566
0.17421	0.53379
0.17421	0.81437
0.17421	0.55929
0.14870	-1.48133
0.07220	-1.48133
0.19971	0.55929
0.09770	0.55929
0.14870	0.89089
0.12320	0.91640
0.22521	-0.41000
0.07220	0.43176
0.12320	0.68683
0.25071	-0.71609
0.22521	-1.68539
0.14870	0.86539
0.07220	0.48277
0.17421	0.27871
0.04670	0.61031
0.17421	1.12046
0.07220	0.66132
0.12320	-2.29757
0.14870	-0.48652
0.25071	0.25320
0.12320	1.04394
0.19971	-0.48652
0.09770	0.48277
0.17421	0.25320
0.17421	0.50828
0.17421	0.55929
0.07220	0.53379
0.12320	0.04914
0.19971	-1.91496
0.09770	0.10015
0.19971	0.71234
0.04670	0.66132
0.19971	-0.05289
0.04670	0.55929
0.25071	0.76336
0.17421	-0.00188
0.22521	0.71234
0.14870	-0.53754
0.17421	-0.43551
0.07220	-0.38449
0.07220	0.12566
0.25071	0.96742
0.14870	0.66132
0.22521	-0.48652
0.07220	1.06945
0.22521	-0.46102
0.04670	0.07465
0.07220	0.22769
0.12320	0.43176
0.17421	0.12566
0.27621	0.12566
0.09770	0.48277
0.22521	0.15117
-0.00431	0.15117
0.17421	0.55929
0.12320	0.17668
0.30171	0.25320
0.09770	0.04914
0.14870	0.10015
0.07220	0.58480
0.17421	-0.33348
0.14870	0.38074
0.22521	0.04914
0.22521	-0.92016
0.07220	-0.20594
0.22521	-0.61406
0.04670	1.01843
0.19971	1.42656
0.07220	1.22250
0.32721	-0.05289
0.04670	0.48277
-0.02981	0.63582
0.12320	-1.58336
0.22521	1.06945
0.25071	-0.28246
0.19971	-0.05289
0.19971	0.35523
0.09770	0.10015
0.25071	0.15117
0.12320	0.15117
0.09770	0.15117
0.09770	0.38074
0.14870	0.22769
0.09770	0.02363
0.07220	-0.07840
0.25071	-0.05289
0.09770	-0.12942
0.27621	0.15117
0.12320	0.04914
0.25071	0.53379
0.09770	0.20219
0.17421	1.45206
0.07220	-1.02219
0.14870	1.86019
0.09770	-3.82804
0.30171	0.55929
0.02119	1.12046
0.12320	1.57960
0.17421	-1.04770
0.32721	0.78886
0.09770	-0.69059
0.19971	1.75816
0.09770	0.30422
0.25071	0.48277
0.12320	0.50828
0.25071	0.15117
0.07220	-0.12942
0.14870	-0.05289
0.12320	0.22769
0.07220	0.15117
0.14870	-0.71609
0.07220	-0.48652
0.09770	0.55929
0.12320	-0.99668
0.12320	0.20219
0.19971	0.94191
0.14870	0.25320
0.14870	0.48277
0.17421	-0.25695
0.22521	0.43176
0.17421	-0.05289
0.19971	-0.07840
0.14870	0.71234
0.19971	0.96742
0.12320	0.35523
0.02119	-0.97117
0.02119	0.53379
0.17421	0.32972
0.25071	0.66132
0.12320	-1.07320
0.14870	0.55929
0.12320	-0.46102
0.22521	0.40625
0.30171	1.01843
0.25071	-0.86914
-0.15732	0.63582
0.07220	0.86539
0.19971	-1.37929
0.09770	0.58480
0.07220	-0.10391
0.14870	-0.35899
0.19971	0.45726
0.19971	0.35523
0.14870	0.50828
0.12320	0.30422
0.09770	0.58480
0.17421	-0.58856
0.04670	-0.00188
0.22521	-0.10391
0.12320	0.12566
0.14870	0.40625
0.14870	0.12566
0.09770	-0.30797
0.27621	0.61031
0.17421	0.81437
0.17421	-0.28246
0.22521	0.38074
0.09770	-1.88945
0.12320	1.12046
-0.02981	0.48277
0.22521	0.94191
0.09770	-0.05289
0.14870	1.06945
0.12320	-0.25695
0.32721	-1.60887
0.12320	1.12046
0.30171	0.76336
0.02119	1.06945
-0.00431	0.17668
0.14870	-0.76711
0.12320	0.04914
0.12320	0.25320
0.12320	0.25320
0.19971	0.35523
0.17421	0.17668
0.14870	0.17668
0.12320	-0.12942
0.17421	-0.07840
0.04670	-0.07840
0.12320	0.12566
0.14870	0.10015
0.07220	1.50308
0.12320	-2.09351
0.19971	0.81437
0.27621	-0.38449
0.14870	1.17148
0.14870	-1.40480
0.22521	-0.48652
0.19971	1.65613
0.25071	1.04394
0.09770	0.94191
0.12320	0.32972
0.04670	-0.12942
0.17421	-0.05289
0.07220	-0.05289
0.19971	-0.43551
0.04670	0.04914
0.12320	-0.15492
0.19971	-0.12942
0.12320	-0.10391
0.14870	-0.07840
0.17421	-0.00188
0.19971	0.27871
0.12320	0.45726
0.22521	0.55929
0.07220	1.09496
0.17421	-0.05289
0.09770	-0.02739
0.12320	-0.15492
0.07220	0.43176
0.14870	-0.28246
0.17421	0.63582
0.17421	-0.28246
0.14870	0.81437
0.25071	-1.12422
0.14870	-1.73640
0.12320	1.96222
0.25071	1.42656
-0.00431	0.61031
0.04670	0.25320
0.14870	-0.07840
0.22521	-0.00188
0.09770	-0.18043
0.14870	-0.07840
0.22521	-0.28246
0.19971	0.10015
0.17421	0.04914
0.17421	-0.02739
0.14870	-0.35899
0.07220	0.71234
0.12320	-0.07840
-0.00431	0.43176
0.22521	1.32453
0.25071	-0.12942
0.19971	0.43176
0.19971	-0.18043
0.07220	-0.25695
0.02119	-0.15492
0.07220	0.04914
0.14870	0.50828
0.30171	1.24800
0.14870	-0.66508
0.12320	1.09496
0.14870	-1.32828
0.17421	-1.12422
0.02119	0.83988
0.14870	1.55410
0.12320	-0.63957
0.27621	0.63582
-0.08081	0.25320
0.22521	0.10015
0.19971	-0.02739
0.09770	-0.07840
0.19971	-0.20594
