0.12320	0.20219
0.07220	0.04914
0.22521	0.17668
0.07220	0.12566
0.19971	0.20219
0.12320	0.17668
0.14870	0.10015
0.14870	0.17668
0.02119	0.10015
0.25071	0.12566
0.19971	0.15117
0.30171	0.17668
0.02119	0.10015
0.12320	0.20219
-0.02981	0.10015
0.30171	0.15117
0.19971	0.15117
0.09770	0.12566
0.12320	0.20219
0.14870	0.12566
0.14870	0.12566
0.17421	0.12566
0.22521	0.17668
0.17421	0.12566
0.12320	0.15117
0.14870	0.15117
0.12320	0.15117
0.12320	0.15117
0.14870	0.15117
0.14870	0.12566
0.14870	0.17668
0.14870	0.07465
0.14870	0.22769
0.12320	0.12566
0.12320	0.17668
0.14870	0.07465
0.14870	0.20219
0.12320	0.07465
0.19971	0.22769
0.09770	0.10015
0.17421	0.22769
0.17421	0.10015
0.07220	0.15117
0.12320	0.15117
0.17421	0.22769
0.07220	0.12566
0.25071	0.17668
0.09770	0.12566
0.14870	0.10015
0.07220	0.15117
0.19971	0.10015
0.09770	0.10015
0.22521	0.20219
0.09770	0.10015
0.14870	0.17668
0.14870	0.17668
0.17421	0.15117
0.09770	0.15117
0.27621	0.17668
0.07220	0.20219
0.14870	0.17668
0.02119	0.12566
0.22521	0.15117
0.14870	0.12566
0.14870	0.12566
0.17421	0.10015
0.22521	0.17668
0.12320	0.17668
0.12320	0.15117
0.07220	0.15117
0.22521	0.10015
0.14870	0.22769
0.17421	0.02363
0.14870	0.17668
0.12320	0.12566
0.17421	0.15117
0.09770	0.20219
0.17421	0.12566
0.14870	0.07465
0.09770	0.17668
0.02119	0.12566
0.25071	0.12566
0.19971	0.25320
0.07220	0.10015
0.12320	0.15117
0.12320	0.17668
0.19971	0.17668
0.07220	0.10015
0.22521	0.10015
0.14870	0.22769
0.17421	0.12566
0.19971	0.17668
0.09770	0.12566
0.12320	0.17668
0.14870	0.12566
0.14870	0.10015
0.17421	0.15117
0.14870	0.15117
0.12320	0.15117
0.14870	0.10015
0.14870	0.17668
0.09770	0.10015
0.22521	0.12566
0.12320	0.15117
0.12320	0.15117
0.14870	0.15117
0.09770	0.15117
0.25071	0.20219
0.07220	0.10015
0.22521	0.20219
-0.00431	0.15117
0.32721	0.15117
0.27621	0.20219
0.09770	0.10015
0.07220	0.07465
-0.00431	0.17668
0.12320	0.15117
0.19971	0.10015
0.07220	0.20219
0.14870	0.10015
0.17421	0.15117
0.12320	0.15117
0.22521	0.17668
0.12320	0.25320
0.12320	0.04914
0.14870	0.22769
0.17421	0.10015
0.17421	0.22769
0.14870	0.07465
0.12320	0.22769
0.07220	0.07465
0.19971	0.12566
0.12320	0.15117
0.14870	0.15117
0.14870	0.15117
0.17421	0.12566
0.09770	0.15117
0.14870	0.15117
0.07220	0.12566
0.22521	0.22769
0.09770	0.04914
0.22521	0.20219
0.04670	0.12566
0.19971	0.22769
0.07220	0.02363
0.22521	0.22769
0.07220	0.04914
0.12320	0.20219
-0.02981	0.04914
0.40372	0.22769
0.35272	0.07465
0.27621	0.25320
-0.02981	0.07465
0.09770	0.17668
-0.00431	0.10015
0.19971	0.15117
0.12320	0.07465
0.12320	0.15117
0.12320	0.15117
0.19971	0.15117
0.19971	0.15117
0.19971	0.15117
0.17421	0.15117
0.14870	0.15117
0.14870	0.22769
0.14870	0.15117
0.22521	0.25320
0.07220	0.10015
0.12320	0.17668
0.12320	0.12566
0.12320	0.20219
0.12320	0.10015
0.19971	0.20219
0.12320	0.10015
0.19971	0.22769
0.04670	0.10015
0.12320	0.15117
0.17421	0.15117
0.17421	0.04914
0.22521	0.25320
0.04670	0.07465
0.17421	0.17668
0.09770	0.15117
0.17421	0.07465
0.14870	0.17668
0.12320	0.10015
0.19971	0.15117
0.12320	0.15117
0.17421	0.04914
0.22521	0.22769
0.07220	0.15117
0.25071	0.15117
0.14870	0.12566
0.12320	0.15117
0.14870	0.20219
0.14870	0.07465
0.22521	0.20219
0.04670	0.15117
0.17421	0.15117
0.14870	0.15117
0.14870	0.15117
0.12320	0.12566
0.14870	0.10015
0.14870	0.22769
0.07220	0.15117
0.30171	0.07465
0.14870	0.20219
0.09770	0.10015
0.12320	0.15117
0.07220	0.15117
0.17421	0.15117
0.09770	0.20219
0.14870	0.07465
0.12320	0.20219
0.19971	0.15117
0.17421	0.15117
0.09770	0.17668
0.19971	0.04914
0.12320	0.20219
0.12320	0.15117
0.12320	0.15117
0.12320	0.15117
0.14870	0.07465
0.17421	0.17668
0.12320	0.10015
0.17421	0.17668
0.14870	0.15117
0.12320	0.15117
0.09770	0.17668
0.22521	0.15117
0.09770	0.17668
0.02119	0.07465
0.22521	0.12566
0.07220	0.12566
0.17421	0.10015
0.14870	0.20219
0.09770	0.15117
0.19971	0.17668
0.14870	0.20219
0.12320	0.17668
0.17421	0.17668
0.14870	0.10015
0.09770	0.15117
0.22521	0.15117
0.09770	0.17668
0.12320	0.10015
0.12320	0.15117
0.12320	0.10015
0.22521	0.15117
0.07220	0.20219
0.22521	0.10015
0.14870	0.12566
0.09770	0.15117
0.22521	0.12566
0.07220	0.20219
0.17421	0.07465
0.14870	0.20219
0.12320	0.04914
0.12320	0.15117
0.12320	0.15117
0.22521	0.15117
0.07220	0.20219
0.17421	0.07465
0.22521	0.25320
0.14870	0.10015
0.17421	0.10015
0.09770	0.15117
0.12320	0.10015
0.12320	0.20219
0.09770	0.12566
0.19971	0.20219
0.14870	0.07465
0.17421	0.17668
0.14870	0.12566
0.12320	0.07465
0.14870	0.20219
0.09770	0.12566
0.17421	0.20219
0.07220	0.10015
0.27621	0.17668
0.07220	0.07465
0.22521	0.25320
0.07220	0.10015
0.12320	0.17668
0.14870	0.12566
0.14870	0.20219
0.14870	0.04914
0.14870	0.22769
0.14870	0.10015
0.22521	0.25320
0.07220	0.17668
0.22521	0.15117
0.14870	0.22769
0.14870	0.04914
0.14870	0.12566
0.09770	0.12566
0.19971	0.15117
0.07220	0.15117
0.19971	0.20219
0.14870	0.15117
0.14870	0.17668
0.14870	0.15117
0.09770	0.15117
0.17421	0.07465
0.17421	0.25320
0.14870	0.04914
0.14870	0.20219
0.09770	0.10015
0.22521	0.22769
0.12320	0.07465
0.12320	0.17668
0.17421	0.10015
0.17421	0.12566
0.14870	0.15117
0.12320	0.12566
0.17421	0.20219
0.09770	0.07465
0.22521	0.22769
0.14870	0.07465
0.14870	0.17668
0.14870	0.15117
0.14870	0.15117
0.22521	0.22769
0.09770	0.10015
0.09770	0.17668
0.17421	0.15117
0.32721	0.12566
0.12320	0.15117
0.12320	0.15117
0.12320	0.15117
0.09770	0.20219
0.07220	0.07465
0.14870	0.17668
0.09770	0.15117
0.22521	0.17668
0.12320	0.17668
0.14870	0.12566
0.14870	0.12566
0.12320	0.07465
0.22521	0.22769
0.07220	0.17668
0.19971	0.15117
0.12320	0.17668
0.09770	0.07465
0.19971	0.22769
0.07220	0.12566
0.22521	0.17668
0.14870	0.07465
0.17421	0.20219
0.12320	0.10015
0.09770	0.22769
0.09770	0.10015
0.19971	0.20219
0.07220	0.15117
0.22521	0.17668
0.12320	0.10015
0.22521	0.17668
0.17421	0.07465
0.14870	0.17668
0.12320	0.12566
0.14870	0.22769
0.14870	0.07465
0.14870	0.17668
0.12320	0.15117
0.07220	0.12566
0.22521	0.22769
0.09770	0.10015
0.22521	0.22769
0.12320	0.12566
0.12320	0.17668
0.19971	0.20219
0.17421	0.15117
0.19971	0.22769
0.07220	-0.00188
0.22521	0.22769
0.07220	0.10015
0.19971	0.25320
0.09770	0.10015
0.25071	0.12566
0.07220	0.20219
0.22521	0.15117
0.12320	0.17668
0.12320	0.10015
0.17421	0.22769
0.17421	0.07465
0.22521	0.22769
0.09770	0.15117
0.14870	0.12566
0.17421	0.22769
0.14870	0.04914
0.14870	0.17668
0.09770	0.12566
0.22521	0.20219
0.07220	0.17668
0.17421	0.10015
0.17421	0.15117
0.07220	0.10015
0.17421	0.12566
0.14870	0.12566
0.14870	0.15117
0.14870	0.15117
0.14870	0.15117
0.12320	0.15117
0.09770	0.15117
0.19971	0.15117
0.14870	0.07465
0.22521	0.17668
0.07220	0.15117
0.14870	0.15117
0.04670	0.15117
0.19971	0.20219
0.07220	0.07465
0.22521	0.15117
0.12320	0.20219
0.19971	0.15117
0.09770	0.12566
0.17421	0.15117
0.12320	0.12566
0.14870	0.17668
0.14870	0.15117
0.19971	0.17668
0.12320	0.15117
0.07220	0.15117
0.19971	0.15117
0.09770	0.10015
0.22521	0.22769
0.09770	0.07465
0.12320	0.22769
0.12320	0.10015
0.14870	0.15117
0.17421	0.15117
0.07220	0.15117
0.19971	0.12566
0.04670	0.10015
0.14870	0.17668
0.07220	0.07465
0.22521	0.15117
0.12320	0.07465
0.22521	0.20219
0.09770	0.10015
0.19971	0.25320
0.04670	0.15117
0.22521	0.10015
0.09770	0.17668
0.12320	0.17668
0.14870	0.15117
0.14870	0.15117
0.12320	0.12566
0.12320	0.15117
0.07220	0.12566
0.19971	0.25320
0.09770	0.02363
0.22521	0.17668
0.07220	0.07465
0.19971	0.27871
0.07220	0.10015
0.19971	0.15117
0.14870	0.04914
0.17421	0.15117
0.14870	0.22769
0.14870	0.17668
0.14870	0.12566
0.07220	0.15117
0.12320	0.20219
0.17421	0.07465
0.14870	0.17668
0.14870	0.17668
0.14870	0.12566
0.19971	0.17668
0.07220	0.15117
0.19971	0.22769
0.07220	0.10015
0.14870	0.20219
0.14870	0.10015
0.22521	0.20219
0.14870	0.10015
0.14870	0.20219
0.12320	0.04914
0.14870	0.20219
0.12320	0.12566
0.12320	0.17668
0.09770	0.20219
0.12320	0.12566
0.09770	0.15117
0.14870	0.12566
0.17421	0.15117
0.12320	0.15117
0.12320	0.20219
0.14870	0.15117
0.17421	0.15117
0.14870	0.12566
0.12320	0.17668
0.14870	0.15117
0.14870	0.04914
0.14870	0.15117
0.07220	0.07465
0.22521	0.22769
0.12320	0.10015
0.12320	0.00000
0.12320	0.00000
0.09770	0.15117
0.19971	0.25320
0.17421	0.07465
0.14870	0.25320
0.22521	0.10015
0.07220	0.17668
0.12320	0.20219
0.07220	0.10015
0.12320	0.12566
0.22521	0.20219
0.07220	0.17668
0.17421	0.10015
0.14870	0.25320
0.07220	0.07465
0.22521	0.17668
0.07220	0.04914
0.22521	0.25320
-0.00431	0.10015
0.27621	0.20219
0.25071	0.15117
0.12320	0.15117
0.09770	0.12566
0.12320	0.15117
0.12320	0.17668
0.14870	0.07465
0.22521	0.22769
0.09770	0.10015
0.22521	0.22769
0.07220	0.10015
0.25071	0.17668
0.04670	0.07465
0.19971	0.20219
0.12320	0.07465
0.14870	0.22769
0.09770	0.07465
0.14870	0.22769
0.09770	0.07465
0.17421	0.17668
0.12320	0.04914
0.12320	0.15117
0.12320	0.10015
0.17421	0.22769
0.14870	0.07465
0.14870	0.22769
0.17421	0.07465
0.14870	0.20219
0.19971	0.15117
0.09770	0.04914
0.14870	0.22769
0.14870	0.07465
0.19971	0.22769
0.09770	0.17668
0.22521	0.12566
0.17421	0.12566
0.12320	0.12566
0.17421	0.25320
0.07220	0.10015
0.22521	0.25320
0.04670	0.02363
0.19971	0.20219
0.12320	0.10015
0.22521	0.20219
0.09770	0.17668
0.19971	0.20219
0.12320	0.10015
0.12320	0.35523
0.19971	0.35523
0.07220	-0.02739
0.07220	0.02363
0.25071	-0.15492
0.27621	-0.00188
0.07220	0.02363
-0.00431	0.12566
0.19971	0.17668
0.07220	0.22769
0.22521	0.35523
0.17421	0.15117
0.14870	0.32972
0.17421	0.35523
0.12320	0.17668
0.17421	0.25320
0.12320	0.04914
0.19971	0.25320
0.07220	0.12566
0.14870	0.15117
0.14870	0.12566
0.14870	0.10015
0.14870	0.15117
0.04670	0.02363
0.19971	0.17668
0.09770	0.04914
0.12320	0.12566
0.14870	0.17668
0.12320	0.10015
0.25071	0.17668
0.09770	0.10015
0.17421	0.22769
0.12320	0.15117
0.17421	0.15117
0.12320	0.15117
0.12320	0.15117
0.14870	0.17668
0.14870	0.17668
0.14870	0.15117
0.14870	0.17668
0.14870	0.20219
0.09770	0.04914
0.14870	0.20219
0.07220	0.10015
0.19971	0.17668
0.09770	0.02363
0.14870	0.15117
0.14870	0.20219
0.14870	0.15117
0.14870	0.22769
0.17421	0.07465
0.27621	0.17668
0.09770	0.10015
0.09770	0.15117
0.19971	0.25320
0.12320	0.07465
0.12320	0.20219
0.09770	0.07465
0.22521	0.10015
0.32721	0.15117
0.22521	0.15117
-0.02981	0.10015
-0.23382	0.07465
0.07220	0.25320
0.32721	0.12566
0.42922	0.25320
0.25071	0.02363
0.25071	0.25320
0.12320	0.12566
0.12320	0.15117
0.22521	0.17668
0.04670	0.07465
0.14870	0.15117
0.22521	0.25320
0.25071	0.22769
-0.02981	-0.15492
-0.08081	-0.02739
0.12320	0.43176
0.22521	0.22769
0.07220	0.50828
-0.05531	-0.63957
0.12320	1.75816
0.37822	-1.07320
0.58223	-0.58856
0.76074	0.96742
0.45472	0.12566
-0.43783	-0.05289
-0.99887	-0.38449
0.35272	2.65093
-0.02981	-3.19035
0.45472	1.55410
0.02119	-1.07320
0.83725	0.89089
1.27078	1.32453
-0.48884	0.15117
-0.33583	-0.46102
-0.38683	0.76336
-0.94787	0.78886
0.60773	-0.33348
0.50573	0.10015
0.45472	-0.51203
0.78624	2.06425
-0.20832	-0.00188
-0.56534	-0.92016
0.32721	-0.05289
0.53123	3.62022
-1.81492	-5.35850
1.80631	-1.09871
0.55673	-1.25176
0.32721	0.48277
-0.46334	1.47757
0.27621	-0.43551
-0.02981	1.93671
-0.64185	2.26831
0.83725	0.83988
1.52579	0.63582
-0.87136	0.99292
-2.68198	1.17148
1.44929	-5.43503
0.32721	2.49788
0.19971	-3.80253
0.19971	0.27871
1.34728	0.30422
-0.18282	0.86539
0.04670	1.52859
0.32721	0.04914
0.35272	0.81437
-0.61635	3.33964
-0.36133	-2.32308
0.22521	-0.53754
0.32721	1.52859
-0.59084	-0.74160
0.68424	0.81437
0.70974	0.20219
0.93925	0.63582
0.60773	0.25320
-0.13181	0.91640
0.55673	0.32972
-0.84586	-0.99668
-0.53984	-1.27726
0.37822	0.17668
0.27621	-0.92016
-0.13181	-1.32828
-0.53984	-1.55785
0.02119	0.30422
0.14870	-1.78742
0.27621	1.68163
1.01576	2.14077
0.83725	4.07936
1.32178	3.03355
-0.53984	1.93671
0.17421	-1.43031
0.58223	-0.66508
0.30171	-1.17523
-2.09544	-0.92016
0.63323	-1.43031
0.09770	-0.46102
-0.41233	-2.19554
0.58223	0.91640
0.37822	0.83988
0.40372	-0.76711
0.02119	0.96742
0.35272	0.15117
0.09770	0.96742
-0.13181	1.04394
0.27621	0.15117
-0.08081	-0.12942
1.14327	0.76336
0.37822	0.27871
0.02119	0.83988
-0.23382	-0.66508
0.14870	-0.02739
-0.18282	0.32972
-0.41233	0.07465
0.45472	0.02363
-0.10631	-0.46102
0.42922	0.86539
0.40372	0.07465
0.07220	-0.15492
0.19971	-2.32308
-0.23382	0.71234
0.58223	-0.02739
-0.74385	0.15117
0.91375	0.71234
0.68424	0.94191
-0.18282	0.96742
-0.28482	0.96742
0.17421	-0.84363
-0.28482	0.38074
0.37822	-0.05289
0.50573	-0.15492
-0.41233	-0.02739
0.40372	1.52859
0.30171	0.76336
0.04670	0.25320
0.48022	0.15117
0.32721	-0.48652
0.14870	0.35523
0.12320	-0.63957
-0.05531	-0.63957
0.02119	-0.02739
0.02119	-0.56305
0.53123	0.38074
0.96476	0.96742
-0.36133	1.55410
-0.10631	0.45726
1.16877	0.32972
-0.51434	-0.71609
-0.36133	-0.12942
0.48022	0.10015
0.35272	-1.07320
0.09770	1.19699
0.19971	0.43176
-0.43783	0.10015
-0.59084	-0.07840
1.24527	0.22769
0.68424	0.15117
-0.13181	-1.81293
0.19971	-1.63437
0.02119	1.57960
0.25071	0.38074
0.12320	0.20219
0.27621	1.19699
0.19971	0.25320
0.30171	0.02363
-0.97337	-1.20074
-0.64185	1.14597
0.99026	1.14597
0.58223	-0.38449
0.45472	0.12566
-0.25932	0.81437
0.04670	-0.48652
0.32721	-0.33348
0.48022	0.45726
-0.13181	-0.97117
0.22521	0.12566
0.04670	0.89089
0.93925	1.01843
-0.10631	0.15117
-0.00431	0.63582
-0.08081	0.20219
-0.05531	0.12566
0.37822	0.17668
-0.28482	0.43176
0.22521	-0.28246
0.76074	-0.28246
0.27621	-1.55785
0.30171	-0.18043
-0.23382	-1.30277
-0.25932	2.24281
-0.20832	0.96742
0.40372	2.75296
0.14870	-3.01179
0.73524	-0.84363
-0.00431	1.63062
0.53123	-0.41000
0.65874	1.22250
0.07220	-1.22625
-0.31033	-0.46102
-0.76936	-0.20594
0.37822	-0.97117
0.73524	-1.45582
-0.33583	1.29902
-0.13181	-0.66508
0.83725	0.66132
0.22521	1.32453
0.37822	1.24800
0.12320	-0.46102
-0.18282	1.40105
0.02119	0.10015
-0.02981	-2.01699
0.07220	2.06425
0.12320	-0.35899
0.40372	1.06945
0.22521	-3.72601
0.22521	1.29902
0.48022	2.44687
0.12320	-1.35379
0.40372	0.68683
0.32721	0.83988
-0.15732	1.27351
-0.08081	-0.25695
-0.00431	0.55929
0.12320	0.30422
0.32721	0.27871
0.35272	0.96742
0.14870	0.22769
-0.08081	-0.53754
-0.13181	0.15117
-0.25932	-2.29757
0.32721	0.25320
0.48022	-0.38449
-0.20832	0.94191
-0.00431	-2.27207
0.22521	-0.35899
0.32721	0.20219
0.17421	2.67644
0.48022	-0.07840
0.19971	-0.58856
0.32721	1.60511
0.37822	0.48277
-0.08081	1.22250
-0.08081	1.42656
0.12320	0.02363
0.22521	0.89089
0.07220	-1.50683
0.12320	-2.75671
-0.05531	-1.78742
0.07220	0.66132
-0.02981	-1.14973
0.12320	-0.02739
0.17421	0.99292
0.12320	0.91640
0.22521	1.12046
0.48022	1.17148
0.22521	-0.58856
0.09770	1.01843
0.22521	1.37554
0.35272	-0.05289
-0.64185	-0.23145
0.07220	0.94191
0.83725	0.10015
0.65874	-2.39961
0.22521	0.43176
-0.20832	-0.51203
-0.25932	-0.18043
-0.20832	0.20219
-0.41233	1.14597
-0.00431	-0.28246
0.50573	1.78367
0.53123	-1.53234
0.48022	0.76336
0.32721	0.99292
-0.23382	-0.35899
0.14870	1.83468
0.53123	0.15117
0.45472	-2.62918
0.22521	-0.58856
0.07220	1.29902
-0.18282	1.86019
-0.18282	1.22250
0.02119	0.38074
0.12320	-1.27726
0.19971	0.38074
0.32721	0.66132
0.02119	0.89089
0.12320	-2.01699
0.17421	-1.30277
0.42922	2.29382
0.17421	-2.73121
-0.15732	1.73265
-0.13181	0.99292
-0.00431	0.15117
0.32721	0.10015
0.40372	1.29902
0.40372	0.58480
-0.15732	-0.10391
0.42922	-0.25695
-0.02981	-0.69059
0.32721	-0.76711
0.02119	0.78886
0.04670	-0.23145
-0.15732	-0.20594
0.17421	1.14597
0.37822	0.68683
0.17421	0.30422
0.02119	-0.71609
-0.10631	1.52859
0.14870	1.01843
0.35272	-0.51203
0.35272	-2.32308
-0.00431	1.06945
-0.15732	1.27351
0.40372	0.55929
0.37822	-0.10391
0.12320	0.15117
0.22521	0.61031
0.17421	0.81437
-0.05531	0.10015
0.07220	-0.15492
0.14870	-0.38449
0.25071	0.81437
0.14870	-0.99668
-0.18282	-1.73640
-0.08081	0.22769
0.60773	1.78367
0.45472	1.22250
0.07220	-0.71609
0.04670	2.01323
0.19971	-0.18043
-0.02981	-1.07320
0.22521	1.01843
0.12320	-0.20594
0.22521	0.48277
0.09770	0.89089
-0.13181	-1.07320
0.32721	0.40625
0.42922	-0.02739
-0.13181	0.07465
0.40372	1.78367
0.32721	-0.69059
-0.05531	-2.24656
0.12320	2.37034
0.07220	0.12566
0.12320	1.06945
0.09770	1.47757
0.14870	0.17668
0.19971	-0.46102
0.09770	-0.30797
0.27621	-0.30797
0.14870	-0.43551
-0.08081	1.09496
0.27621	-0.94566
0.22521	-0.38449
0.55673	1.27351
0.27621	0.45726
0.09770	0.76336
0.19971	0.22769
0.02119	1.17148
-0.05531	-2.80773
-0.28482	-0.61406
-0.15732	-0.02739
0.14870	0.55929
0.22521	2.01323
0.60773	0.76336
0.48022	0.32972
-0.08081	-0.30797
0.35272	-0.12942
-0.33583	0.35523
0.53123	-3.16484
0.40372	1.24800
0.22521	0.66132
-0.18282	-0.20594
-0.13181	0.94191
-0.00431	1.19699
-0.00431	0.20219
0.22521	-0.25695
0.12320	-1.17523
0.37822	0.17668
0.07220	1.06945
0.02119	0.66132
0.40372	0.96742
0.53123	-0.69059
0.22521	-0.28246
0.09770	-0.35899
-0.08081	-0.56305
0.22521	-0.07840
0.07220	0.61031
0.22521	0.96742
-0.02981	-1.96597
0.22521	1.04394
0.12320	0.63582
0.14870	0.76336
0.12320	0.45726
0.14870	0.94191
0.12320	-0.25695
0.09770	0.07465
0.14870	-0.61406
0.12320	-0.05289
-0.28482	0.91640
0.35272	-0.79262
0.81175	-0.07840
0.73524	0.35523
0.40372	1.40105
-0.38683	-0.28246
-0.20832	-0.97117
-0.13181	0.96742
-0.08081	0.61031
0.45472	1.06945
0.14870	0.91640
0.25071	0.50828
0.19971	-0.20594
0.04670	-0.07840
0.22521	0.20219
0.19971	-1.55785
0.09770	0.94191
0.27621	-2.01699
0.25071	0.94191
0.22521	0.61031
-0.13181	0.48277
0.25071	0.22769
0.40372	-0.05289
-0.08081	0.02363
-0.00431	0.68683
0.04670	-0.66508
0.02119	1.60511
0.17421	0.73785
0.09770	-3.16484
0.45472	1.47757
0.30171	0.15117
-0.05531	0.22769
-0.00431	0.83988
0.12320	-0.20594
0.27621	1.40105
0.22521	0.12566
0.27621	-0.28246
-0.10631	0.04914
-0.08081	0.71234
0.14870	-0.94566
0.22521	0.40625
0.19971	0.22769
0.25071	-0.89465
0.12320	-0.00188
0.25071	0.55929
0.12320	0.20219
0.22521	0.61031
0.17421	0.32972
0.09770	0.99292
-0.00431	-1.07320
0.02119	-0.33348
0.12320	-0.00188
0.19971	0.73785
0.25071	-0.15492
0.07220	0.71234
0.12320	-1.09871
0.19971	1.22250
0.09770	0.55929
0.02119	0.04914
0.32721	-0.94566
0.17421	1.01843
-0.46334	-0.30797
0.50573	0.30422
0.35272	0.76336
0.60773	-1.94047
0.22521	0.96742
0.09770	0.86539
-0.02981	0.55929
-0.25932	0.22769
-0.23382	0.04914
0.09770	0.61031
0.37822	-0.02739
0.17421	-0.84363
0.27621	-0.07840
0.19971	0.22769
0.32721	0.17668
0.27621	-0.15492
0.27621	0.38074
0.02119	0.04914
0.14870	0.63582
0.19971	1.29902
0.12320	-0.46102
0.09770	-0.30797
0.17421	-0.41000
0.25071	0.83988
0.12320	1.24800
0.07220	-0.05289
0.14870	-0.71609
0.09770	-1.27726
0.12320	1.09496
0.04670	0.91640
0.19971	0.58480
0.25071	-0.61406
0.17421	-0.15492
0.25071	0.76336
0.14870	0.35523
0.17421	-2.70570
0.32721	0.99292
-0.08081	0.20219
0.09770	0.43176
0.12320	0.35523
-0.00431	0.04914
0.27621	0.86539
0.17421	0.48277
0.22521	1.35003
0.22521	-1.55785
0.22521	0.76336
0.22521	0.58480
0.02119	0.40625
0.04670	-2.68019
0.02119	0.55929
-0.15732	1.04394
0.35272	-0.79262
0.42922	0.15117
0.27621	0.55929
-0.31033	0.38074
0.22521	0.94191
0.04670	-0.97117
0.40372	0.89089
0.37822	-0.86914
-0.31033	0.76336
0.14870	0.63582
0.17421	0.35523
0.22521	-0.51203
0.12320	1.14597
0.17421	-1.37929
0.14870	-1.78742
0.12320	1.88570
0.14870	0.83988
0.27621	0.45726
0.14870	0.48277
0.09770	0.27871
0.09770	1.32453
0.09770	-1.68539
0.02119	-1.40480
0.17421	1.35003
0.14870	-0.53754
0.19971	1.52859
0.09770	-2.22105
0.12320	0.81437
0.07220	0.68683
0.14870	-0.18043
0.14870	0.78886
0.25071	0.63582
0.25071	-0.28246
0.17421	0.15117
-0.08081	0.45726
0.02119	0.22769
0.35272	0.55929
0.27621	-0.71609
0.14870	0.10015
0.14870	0.78886
0.02119	0.81437
0.19971	-0.30797
-0.00431	-0.43551
0.09770	0.10015
0.14870	-0.43551
0.19971	-0.05289
0.09770	0.50828
0.45472	0.38074
0.17421	0.30422
0.02119	0.48277
0.32721	0.30422
0.19971	0.96742
0.17421	-0.05289
0.02119	-0.35899
0.12320	-0.02739
0.19971	-1.07320
0.07220	0.55929
0.22521	1.88570
0.07220	-0.74160
0.07220	-0.28246
0.32721	-0.43551
0.17421	0.04914
0.17421	1.01843
-0.20832	0.15117
0.07220	0.38074
0.37822	0.07465
0.27621	0.20219
0.25071	0.15117
0.19971	-1.32828
0.27621	-0.71609
0.09770	0.89089
0.14870	0.71234
-0.00431	0.76336
0.27621	0.63582
0.12320	0.25320
-0.02981	0.27871
0.07220	-1.27726
0.12320	0.89089
0.32721	-0.61406
0.12320	1.63062
0.17421	-1.25176
-0.00431	0.20219
0.25071	0.71234
0.17421	-0.46102
0.09770	0.15117
-0.23382	0.30422
0.14870	0.68683
0.27621	0.04914
0.19971	0.20219
0.12320	-0.02739
0.27621	-0.20594
0.35272	0.43176
0.14870	0.35523
0.07220	0.91640
-0.05531	0.38074
0.09770	-0.89465
0.22521	0.20219
0.14870	0.68683
0.12320	-0.18043
0.22521	0.15117
0.25071	0.55929
0.09770	0.78886
0.12320	1.01843
0.17421	-0.10391
0.07220	-1.48133
0.02119	-1.27726
0.09770	0.04914
0.17421	1.06945
0.27621	0.15117
0.14870	0.27871
0.04670	0.73785
0.19971	0.22769
0.17421	-0.61406
0.32721	0.07465
0.12320	0.58480
-0.10631	-0.48652
0.09770	0.04914
0.27621	0.50828
0.27621	0.58480
0.04670	-0.10391
0.12320	-0.58856
0.14870	0.86539
0.09770	-0.58856
0.19971	1.63062
0.22521	-0.02739
0.19971	-0.84363
0.14870	0.45726
0.12320	0.50828
0.09770	-0.28246
0.22521	0.38074
0.17421	0.17668
0.19971	1.27351
-0.05531	-0.38449
0.07220	-0.84363
-0.20832	-0.25695
0.14870	0.53379
0.22521	0.50828
0.37822	1.32453
0.32721	-1.22625
0.35272	0.45726
0.14870	0.53379
0.12320	0.35523
0.12320	-1.17523
0.19971	0.91640
0.04670	0.76336
0.07220	0.89089
0.07220	0.86539
0.22521	0.25320
0.17421	-0.23145
0.12320	0.27871
0.02119	0.17668
0.22521	-0.84363
0.12320	-0.79262
0.12320	0.96742
0.30171	0.53379
0.55673	0.53379
0.12320	0.02363
0.07220	0.25320
-0.05531	-0.41000
0.12320	-0.12942
-0.00431	-0.15492
0.07220	0.63582
-0.00431	2.31933
0.22521	-5.00139
0.25071	0.07465
0.19971	1.01843
0.30171	1.80917
0.27621	0.78886
0.30171	0.43176
0.09770	0.55929
0.09770	-0.02739
-0.13181	-0.30797
0.19971	0.35523
0.27621	-0.07840
0.22521	-0.43551
-0.18282	-0.23145
-0.13181	-0.25695
0.35272	0.66132
0.22521	0.27871
0.19971	0.35523
0.12320	0.07465
0.30171	0.15117
0.17421	0.17668
0.12320	-0.25695
0.14870	0.61031
0.07220	0.66132
0.32721	0.35523
0.12320	-0.33348
0.17421	-0.02739
-0.05531	1.27351
0.02119	-1.55785
0.25071	-0.79262
0.25071	1.01843
0.30171	0.35523
0.19971	0.96742
-0.00431	0.07465
0.09770	1.01843
0.30171	-0.02739
0.17421	-0.07840
0.25071	0.68683
0.17421	0.02363
-0.00431	0.15117
0.02119	-1.55785
0.25071	0.94191
0.14870	0.73785
0.27621	-0.10391
0.09770	0.22769
0.17421	0.15117
0.17421	0.10015
0.19971	-0.00188
0.27621	0.35523
0.02119	0.38074
-0.05531	-0.07840
0.25071	1.06945
0.19971	0.20219
-0.00431	-0.53754
0.12320	-0.58856
0.14870	0.50828
0.02119	0.15117
0.25071	1.09496
0.19971	-0.71609
0.14870	1.35003
0.27621	0.27871
0.04670	-2.27207
0.17421	0.81437
0.12320	0.22769
-0.02981	0.53379
0.22521	0.83988
0.17421	0.02363
-0.00431	-1.32828
0.14870	-0.10391
0.25071	1.42656
0.07220	-0.05289
0.09770	0.53379
0.22521	0.50828
0.17421	0.12566
0.04670	-0.10391
0.07220	0.30422
-0.00431	-0.25695
0.30171	-0.35899
0.35272	-0.10391
0.17421	0.15117
0.12320	0.76336
-0.05531	-0.30797
0.22521	1.14597
0.30171	0.78886
0.17421	-0.15492
-0.20832	-0.05289
-0.08081	-0.63957
0.48022	0.50828
0.32721	-0.41000
0.02119	0.61031
0.12320	0.12566
0.27621	0.15117
0.22521	0.17668
0.02119	0.53379
0.04670	0.50828
0.12320	0.12566
0.17421	0.89089
0.30171	-0.10391
0.12320	-0.10391
0.14870	0.07465
0.07220	-0.79262
0.19971	0.17668
0.19971	0.71234
0.12320	-0.51203
0.14870	0.43176
0.02119	0.40625
0.14870	0.55929
0.17421	0.58480
0.09770	-0.30797
0.22521	0.12566
0.17421	-0.00188
0.19971	-0.28246
0.12320	-0.05289
0.02119	1.22250
0.12320	-1.40480
0.14870	0.15117
0.14870	1.78367
0.25071	-0.35899
0.07220	-1.50683
0.14870	0.91640
0.14870	0.96742
0.14870	-1.20074
0.17421	0.50828
0.04670	-0.23145
0.04670	1.35003
0.17421	0.63582
0.32721	-0.02739
0.32721	-0.33348
0.12320	0.40625
0.27621	0.10015
0.12320	0.22769
0.17421	1.37554
0.02119	-1.32828
0.02119	0.04914
0.09770	0.35523
0.02119	0.15117
0.02119	0.43176
-0.00431	-0.00188
0.19971	0.35523
0.40372	-0.89465
0.50573	0.48277
0.17421	-0.12942
-0.05531	0.66132
-0.18282	0.27871
0.12320	-0.07840
0.19971	0.86539
0.27621	0.96742
0.32721	-1.68539
0.30171	-0.15492
0.22521	0.89089
0.12320	0.45726
0.02119	0.22769
0.02119	0.07465
0.17421	-0.30797
0.19971	0.25320
-0.00431	0.17668
0.19971	0.25320
0.02119	0.12566
0.17421	0.07465
0.22521	-0.28246
0.27621	-0.38449
0.14870	0.40625
0.12320	0.02363
0.19971	1.29902
0.09770	-1.22625
0.30171	1.06945
0.09770	-0.02739
0.14870	1.91120
0.02119	0.22769
0.22521	0.55929
0.12320	-2.29757
0.27621	0.50828
0.07220	0.68683
0.09770	-2.17003
0.09770	1.98773
0.14870	0.10015
0.17421	-1.27726
0.22521	0.71234
0.17421	0.73785
0.14870	1.06945
0.12320	0.58480
0.19971	-0.99668
0.22521	-0.07840
-0.18282	0.10015
0.25071	0.86539
0.22521	0.86539
0.25071	-1.35379
0.07220	-0.10391
0.17421	0.71234
0.07220	-0.12942
0.04670	0.43176
0.25071	-1.76191
0.17421	0.73785
0.17421	0.55929
0.09770	1.22250
0.19971	-0.71609
0.07220	-0.12942
0.19971	0.94191
0.14870	0.71234
0.32721	0.58480
-0.18282	0.22769
-0.05531	-0.48652
0.25071	-0.02739
0.19971	0.15117
0.27621	0.17668
0.25071	-0.84363
0.17421	0.25320
0.22521	0.45726
0.04670	0.43176
0.14870	0.30422
0.07220	0.20219
0.14870	0.76336
0.14870	0.10015
0.09770	-0.81812
0.17421	0.32972
0.09770	0.96742
0.09770	0.71234
0.14870	-0.51203
0.19971	-0.25695
0.17421	1.06945
0.17421	0.86539
0.14870	-1.78742
0.12320	-0.74160
0.25071	0.63582
0.17421	0.78886
0.22521	0.43176
0.12320	0.50828
0.09770	0.96742
0.12320	0.10015
0.07220	0.04914
0.12320	-1.02219
0.14870	-0.23145
0.19971	1.35003
0.12320	-0.25695
0.27621	0.22769
0.22521	0.76336
0.09770	0.81437
0.02119	1.17148
0.04670	0.25320
0.14870	-1.20074
0.09770	-1.68539
0.19971	0.66132
0.27621	0.32972
0.30171	0.48277
-0.08081	0.27871
0.04670	0.25320
0.17421	0.07465
0.25071	0.61031
0.22521	-0.15492
0.27621	-1.02219
0.12320	0.53379
0.12320	0.86539
0.04670	0.38074
0.07220	-0.05289
0.07220	0.12566
0.17421	0.22769
0.14870	-0.18043
0.17421	0.96742
0.19971	-0.28246
0.12320	0.76336
0.22521	-0.86914
0.19971	0.38074
0.17421	0.07465
-0.02981	-0.76711
0.07220	0.83988
0.22521	-0.53754
0.17421	1.22250
0.14870	-1.17523
0.22521	1.17148
0.30171	0.04914
0.22521	0.25320
0.07220	-0.84363
0.12320	0.25320
0.19971	0.38074
0.17421	-0.02739
0.14870	0.45726
0.02119	0.50828
0.12320	0.71234
-0.00431	-0.07840
0.22521	-1.96597
0.14870	1.06945
0.22521	1.65613
0.02119	-0.79262
0.22521	-0.18043
0.12320	0.58480
0.17421	0.45726
0.22521	-0.35899
0.32721	0.89089
-0.08081	-0.86914
-0.08081	0.38074
0.30171	0.07465
0.27621	0.25320
0.27621	0.07465
0.07220	-0.18043
0.25071	-0.12942
0.14870	0.32972
0.07220	0.45726
-0.10631	1.22250
0.09770	-1.63437
0.19971	-0.20594
0.14870	-0.48652
0.30171	0.94191
0.07220	-0.33348
0.27621	0.35523
0.19971	1.22250
0.22521	-0.58856
0.17421	0.83988
0.19971	-0.05289
0.12320	0.32972
0.12320	-0.00188
0.07220	0.35523
0.02119	-0.15492
0.07220	0.17668
0.14870	1.45206
0.27621	-2.42511
0.09770	0.96742
0.14870	0.55929
0.12320	-0.30797
0.14870	0.20219
0.12320	0.38074
0.17421	0.22769
0.12320	0.27871
0.14870	-0.05289
0.09770	0.07465
0.25071	0.53379
-0.02981	0.32972
0.17421	0.61031
0.09770	-0.35899
0.32721	-0.20594
-0.00431	0.55929
0.02119	-1.94047
0.09770	-1.07320
0.40372	1.73265
0.09770	1.52859
0.12320	1.50308
0.07220	-0.20594
0.19971	0.71234
0.27621	0.25320
0.14870	-0.25695
0.09770	-1.53234
0.09770	0.15117
0.14870	0.25320
0.07220	-0.46102
0.22521	0.17668
-0.00431	0.55929
0.25071	0.83988
0.14870	0.32972
0.07220	0.38074
0.02119	0.07465
0.22521	0.30422
0.30171	0.22769
0.35272	0.15117
0.22521	-0.94566
0.12320	-0.18043
-0.15732	0.32972
0.07220	-0.00188
0.22521	-0.30797
0.07220	0.22769
0.22521	0.55929
0.12320	0.32972
0.14870	0.81437
0.09770	0.27871
0.14870	0.45726
0.19971	0.20219
0.32721	-1.58336
0.14870	0.32972
-0.00431	0.91640
0.04670	0.48277
0.25071	0.55929
0.09770	-0.66508
0.22521	-0.18043
0.17421	0.91640
0.22521	0.02363
-0.10631	-0.07840
0.09770	0.04914
0.17421	-0.07840
0.30171	0.20219
0.14870	0.35523
0.27621	-0.02739
0.09770	0.10015
0.30171	0.53379
0.09770	1.06945
0.07220	-1.83844
0.14870	0.12566
-0.05531	0.35523
0.12320	1.04394
0.14870	-1.60887
0.22521	0.78886
0.32721	1.01843
0.04670	0.53379
0.25071	0.02363
0.02119	-0.61406
0.17421	-0.41000
0.17421	-0.05289
0.12320	1.24800
0.17421	0.58480
0.19971	0.22769
0.19971	0.27871
0.09770	0.50828
0.12320	0.17668
0.17421	-0.41000
0.22521	-0.38449
0.17421	0.94191
0.25071	-1.02219
0.14870	0.15117
-0.00431	0.45726
0.14870	-0.51203
0.07220	-0.07840
0.17421	-0.33348
0.22521	0.61031
0.14870	0.35523
0.40372	0.73785
-0.10631	1.12046
-0.05531	-0.38449
0.07220	-0.79262
0.30171	-2.52714
0.22521	2.01323
0.17421	-0.05289
0.12320	-0.28246
0.19971	0.83988
0.30171	1.73265
0.22521	0.58480
-0.02981	-0.07840
0.22521	-0.05289
0.07220	-0.38449
0.19971	-0.28246
-0.00431	-0.86914
0.22521	-0.33348
0.07220	0.96742
0.12320	0.04914
0.12320	0.43176
0.27621	0.10015
0.09770	0.38074
0.19971	0.32972
0.02119	-0.15492
0.17421	1.12046
0.17421	-2.47613
0.32721	0.12566
-0.18282	0.83988
0.17421	1.35003
0.22521	0.96742
0.19971	0.27871
0.12320	0.30422
0.12320	-0.33348
0.17421	0.04914
0.14870	0.48277
0.02119	-0.76711
0.04670	-1.25176
0.12320	-0.10391
0.35272	0.61031
0.30171	0.96742
0.17421	1.29902
0.14870	0.04914
0.12320	0.35523
0.12320	0.55929
-0.00431	-0.18043
0.22521	-0.35899
0.04670	0.25320
0.19971	1.04394
0.09770	-0.99668
0.30171	-0.66508
0.19971	0.86539
0.09770	-0.56305
0.12320	0.45726
0.22521	0.35523
0.14870	0.27871
0.09770	1.04394
-0.28482	-1.07320
0.14870	0.22769
0.30171	-0.10391
0.32721	-0.12942
0.12320	0.61031
0.30171	0.68683
0.25071	-0.25695
0.32721	0.25320
-0.15732	-0.02739
0.12320	0.78886
0.12320	0.96742
0.12320	-0.92016
0.09770	-0.84363
0.04670	0.15117
0.30171	0.55929
0.27621	1.68163
0.22521	-2.11902
0.09770	0.86539
-0.08081	0.78886
0.17421	0.71234
0.07220	0.43176
0.22521	0.58480
0.25071	-0.58856
0.12320	-1.27726
0.30171	-0.07840
0.19971	0.66132
0.07220	0.10015
0.14870	0.12566
0.04670	0.40625
0.12320	0.86539
0.19971	0.55929
0.12320	-0.35899
0.17421	0.25320
0.22521	-1.02219
0.30171	-0.07840
0.07220	0.30422
0.12320	0.73785
0.17421	0.58480
0.04670	-0.97117
0.19971	0.81437
0.22521	-0.10391
0.09770	-1.02219
0.12320	0.86539
0.02119	1.73265
0.17421	0.94191
0.22521	-1.68539
0.02119	0.91640
0.12320	-0.15492
0.22521	0.38074
0.19971	-0.18043
0.17421	0.76336
0.14870	0.68683
0.17421	-0.38449
0.14870	0.22769
0.07220	-0.33348
0.07220	0.30422
0.22521	1.01843
0.14870	-0.76711
0.30171	-0.66508
0.17421	1.12046
-0.02981	-0.23145
0.04670	-0.86914
0.22521	0.53379
0.07220	0.43176
0.30171	0.45726
0.12320	0.55929
0.17421	0.15117
0.14870	0.32972
0.22521	-0.69059
0.14870	-1.14973
0.22521	1.06945
0.04670	0.17668
0.07220	1.12046
0.12320	-0.43551
0.14870	0.58480
0.17421	-0.35899
0.07220	0.15117
0.27621	0.66132
0.17421	-0.35899
0.17421	-0.15492
-0.05531	0.43176
0.17421	0.71234
0.12320	0.63582
0.19971	-0.00188
0.22521	-0.33348
0.19971	-0.23145
0.22521	0.50828
0.22521	-0.05289
0.12320	0.50828
0.19971	-0.35899
0.07220	0.30422
-0.00431	-0.28246
0.17421	-0.23145
0.02119	0.76336
0.22521	-0.12942
0.04670	-0.71609
0.17421	0.78886
0.12320	0.17668
0.17421	0.35523
-0.00431	0.61031
0.25071	1.12046
0.14870	-1.81293
0.35272	0.71234
0.27621	1.06945
0.09770	0.86539
0.12320	-0.05289
0.02119	-1.40480
0.30171	0.30422
0.17421	0.81437
0.19971	-0.56305
-0.10631	0.96742
0.09770	-0.18043
0.22521	-0.41000
-0.00431	0.30422
0.17421	0.66132
0.09770	-0.20594
0.25071	-0.07840
0.25071	0.45726
0.12320	-0.35899
0.12320	0.12566
0.07220	0.81437
0.27621	0.86539
0.27621	-0.38449
0.19971	0.38074
0.04670	0.20219
0.17421	0.32972
0.07220	0.10015
0.09770	0.35523
0.22521	0.38074
0.07220	1.01843
0.14870	-1.14973
0.07220	-0.79262
0.02119	0.04914
0.09770	0.04914
0.14870	1.12046
0.30171	0.53379
0.09770	-0.97117
0.12320	0.86539
0.14870	0.22769
0.14870	-0.25695
0.22521	1.04394
0.07220	-0.15492
0.27621	0.55929
0.22521	1.42656
-0.10631	-1.68539
-0.20832	-0.46102
0.19971	0.15117
0.27621	-0.25695
0.14870	0.22769
0.27621	0.81437
0.25071	0.58480
0.32721	0.78886
-0.08081	-0.41000
0.12320	-0.63957
0.04670	0.25320
0.17421	0.58480
0.02119	0.30422
0.22521	-0.35899
0.09770	0.38074
0.17421	0.15117
0.25071	0.32972
0.07220	1.14597
-0.05531	-0.43551
0.32721	0.61031
0.32721	-0.35899
0.12320	0.40625
0.09770	-0.46102
0.02119	-0.33348
0.09770	-0.23145
0.19971	0.61031
0.09770	0.50828
0.17421	-0.07840
0.07220	-0.43551
0.22521	0.55929
0.14870	0.38074
0.12320	0.96742
0.19971	-1.27726
0.22521	-0.05289
0.22521	0.38074
0.09770	-0.69059
0.09770	1.37554
-0.00431	0.07465
0.04670	0.48277
0.17421	1.24800
0.30171	0.22769
0.35272	0.04914
0.14870	0.43176
0.17421	0.35523
0.09770	-1.07320
0.02119	0.30422
0.07220	-0.25695
0.12320	-0.76711
0.25071	0.55929
0.09770	0.35523
0.32721	0.89089
0.27621	-1.20074
0.17421	0.27871
0.22521	0.55929
-0.05531	0.68683
-0.15732	0.30422
0.07220	-0.20594
0.19971	0.35523
0.30171	-0.18043
0.27621	0.73785
0.12320	0.12566
0.09770	0.22769
0.17421	0.76336
0.12320	-0.61406
0.12320	-0.30797
0.22521	0.20219
0.37822	0.96742
-0.20832	0.04914
-0.31033	-0.25695
0.30171	-0.15492
0.42922	0.63582
0.27621	0.20219
0.22521	0.25320
-0.00431	0.55929
0.14870	0.45726
0.04670	-1.35379
0.12320	0.25320
0.19971	0.45726
0.17421	1.14597
0.19971	-0.10391
0.17421	-0.74160
0.22521	0.32972
0.07220	1.45206
0.04670	-1.02219
0.19971	-0.10391
0.12320	0.35523
0.27621	0.10015
0.12320	0.94191
-0.10631	-1.17523
0.25071	0.04914
0.25071	0.58480
0.19971	0.55929
0.09770	0.43176
-0.05531	-0.07840
0.09770	0.30422
0.09770	-0.84363
-0.00431	0.10015
0.37822	0.35523
0.19971	-0.25695
0.22521	0.55929
0.30171	0.81437
0.12320	0.30422
0.04670	-0.18043
-0.02981	0.35523
0.14870	0.15117
0.25071	0.04914
0.19971	0.40625
0.12320	0.53379
0.07220	0.25320
0.04670	-0.23145
-0.05531	0.73785
0.17421	-0.71609
0.17421	-0.89465
0.30171	0.86539
0.17421	-0.35899
0.19971	0.63582
0.19971	-0.15492
0.07220	-0.00188
0.14870	0.12566
0.14870	-0.74160
0.30171	0.96742
-0.00431	0.73785
0.17421	0.68683
0.12320	0.40625
0.27621	0.15117
0.17421	0.45726
0.25071	-1.71090
0.35272	0.04914
0.12320	0.81437
-0.41233	0.50828
-0.00431	-0.46102
0.48022	0.38074
0.45472	0.63582
0.04670	0.55929
-0.00431	0.35523
0.22521	-0.23145
0.27621	-0.05289
0.19971	0.40625
0.19971	-0.05289
0.14870	-0.66508
-0.05531	-0.48652
0.12320	0.86539
0.09770	0.89089
0.14870	-0.02739
0.14870	0.07465
0.22521	-1.37929
0.17421	0.53379
0.02119	0.40625
0.09770	0.63582
0.27621	0.91640
0.17421	0.66132
0.12320	0.40625
0.04670	0.17668
0.19971	-0.33348
-0.13181	0.45726
0.22521	0.10015
0.30171	-0.61406
0.40372	-1.27726
0.17421	-0.61406
0.17421	1.29902
-0.05531	1.60511
0.02119	-0.76711
0.12320	0.15117
0.17421	0.43176
0.27621	-0.35899
0.27621	0.96742
0.14870	-0.56305
-0.20832	-0.07840
0.22521	0.78886
0.07220	-0.79262
0.09770	0.76336
0.19971	0.04914
0.19971	0.55929
0.17421	-0.33348
0.19971	0.25320
0.14870	0.48277
0.22521	0.48277
0.07220	-0.86914
0.17421	0.81437
0.17421	-0.05289
0.07220	0.30422
0.04670	0.30422
0.25071	0.32972
0.22521	-0.00188
0.22521	0.50828
0.12320	-1.07320
0.14870	-0.18043
0.22521	-0.02739
-0.31033	0.53379
-0.13181	0.35523
0.07220	0.55929
0.48022	-0.63957
0.32721	0.38074
0.30171	0.91640
0.17421	0.86539
-0.00431	0.12566
0.14870	-1.14973
-0.00431	-0.56305
0.12320	0.50828
0.04670	0.68683
0.17421	0.10015
0.30171	0.76336
-0.20832	0.55929
0.17421	0.25320
0.12320	-1.32828
0.09770	0.10015
0.27621	0.17668
0.12320	0.55929
0.17421	0.71234
0.19971	0.58480
0.09770	-0.05289
0.27621	-0.12942
0.14870	-0.33348
0.22521	-0.20594
0.12320	0.73785
-0.05531	-0.23145
0.19971	0.45726
0.09770	-0.56305
0.27621	0.58480
0.27621	1.04394
-0.00431	-0.56305
-0.08081	0.15117
0.07220	0.10015
0.37822	0.12566
0.32721	0.32972
0.27621	0.45726
0.17421	-0.10391
0.22521	-0.12942
0.17421	-0.10391
0.12320	-0.53754
0.22521	0.22769
-0.05531	0.10015
0.17421	0.25320
0.09770	0.35523
-0.02981	1.14597
0.22521	-1.04770
0.09770	0.25320
0.19971	0.86539
0.19971	0.22769
0.09770	-0.00188
0.35272	-0.10391
0.27621	0.91640
0.37822	0.35523
-0.08081	0.04914
-0.18282	-1.04770
-0.00431	0.71234
0.19971	0.58480
0.30171	-0.66508
0.27621	0.12566
0.12320	0.66132
0.19971	0.15117
0.22521	-0.00188
0.17421	-0.41000
0.14870	0.32972
0.09770	-0.20594
0.07220	0.22769
0.02119	0.35523
0.12320	0.27871
0.09770	0.12566
0.19971	0.22769
0.02119	0.38074
0.25071	-0.33348
0.19971	-0.10391
0.32721	0.48277
0.22521	0.22769
0.14870	0.40625
0.19971	0.55929
0.02119	0.40625
0.12320	0.04914
-0.00431	0.58480
0.04670	0.07465
0.14870	-2.24656
0.22521	0.94191
-0.00431	0.53379
0.25071	0.55929
0.25071	0.40625
0.04670	0.17668
0.14870	0.40625
0.12320	-1.04770
0.22521	0.30422
0.12320	0.12566
0.19971	0.63582
0.30171	-0.12942
0.22521	0.20219
0.30171	0.38074
-0.05531	0.25320
-0.08081	0.45726
0.12320	0.12566
0.14870	-0.00188
0.22521	-0.05289
-0.08081	-0.71609
-0.15732	0.25320
0.40372	1.22250
0.42922	-0.51203
0.32721	0.63582
0.14870	0.50828
0.09770	0.22769
0.07220	-1.53234
0.22521	-0.07840
0.04670	0.32972
0.12320	0.07465
0.14870	0.04914
0.09770	0.07465
0.12320	0.89089
0.25071	0.25320
0.02119	0.50828
0.27621	1.37554
0.12320	0.04914
0.19971	-1.55785
0.25071	0.35523
0.12320	0.50828
0.09770	0.27871
0.12320	-0.30797
0.19971	0.38074
0.19971	0.78886
0.27621	-0.30797
0.09770	0.20219
0.22521	0.68683
0.02119	-0.20594
0.07220	-0.38449
0.04670	-0.38449
0.07220	0.50828
0.12320	0.99292
0.27621	0.94191
0.32721	-0.53754
-0.08081	-0.63957
0.09770	0.43176
0.12320	-0.35899
0.07220	0.04914
0.19971	0.17668
0.19971	0.35523
0.27621	0.17668
0.09770	0.32972
0.12320	0.35523
0.12320	0.63582
0.22521	-0.00188
0.22521	-0.12942
0.14870	-1.48133
0.12320	0.78886
0.17421	0.40625
-0.02981	0.58480
0.22521	0.32972
0.30171	0.48277
0.25071	-0.07840
-0.41233	1.14597
0.09770	-0.18043
0.42922	0.68683
0.30171	-1.07320
0.19971	-0.05289
0.12320	0.12566
0.02119	-0.94566
0.19971	0.30422
0.04670	0.43176
0.27621	0.78886
0.14870	-0.30797
0.14870	0.35523
0.12320	0.43176
-0.00431	0.12566
0.22521	0.27871
0.09770	-0.00188
0.12320	0.20219
0.25071	0.48277
0.09770	-0.18043
0.19971	0.50828
-0.13181	0.15117
0.14870	-0.00188
0.25071	0.38074
0.22521	-0.46102
0.25071	-0.15492
0.12320	0.86539
0.12320	-1.22625
-0.00431	1.55410
0.17421	-0.05289
0.19971	0.20219
0.27621	1.96222
0.07220	-2.98628
0.09770	0.55929
0.07220	0.89089
0.14870	-0.56305
0.19971	0.63582
0.07220	0.76336
0.17421	0.55929
0.12320	0.22769
0.17421	-0.25695
0.30171	0.25320
0.22521	0.22769
0.22521	0.12566
0.07220	-0.30797
0.22521	-0.12942
0.12320	0.27871
-0.00431	-0.41000
0.02119	-0.15492
0.22521	0.48277
0.37822	0.45726
0.02119	0.91640
-0.08081	-0.33348
-0.10631	0.45726
0.35272	0.50828
0.63323	-0.86914
0.09770	0.17668
0.04670	0.25320
0.07220	0.40625
0.22521	0.15117
0.12320	-0.05289
0.07220	0.45726
0.07220	0.32972
0.09770	0.32972
0.17421	-1.88945
-0.00431	0.07465
0.32721	1.14597
0.07220	0.83988
0.09770	0.40625
0.02119	0.10015
0.17421	-0.12942
0.19971	0.35523
0.17421	-0.05289
0.14870	0.78886
0.19971	0.73785
0.17421	0.38074
0.07220	-1.27726
0.22521	0.17668
0.07220	0.04914
0.25071	0.02363
0.09770	0.17668
0.25071	-0.46102
0.02119	0.22769
0.07220	1.27351
0.19971	-0.30797
0.32721	0.58480
0.09770	-0.97117
0.17421	0.48277
-0.02981	0.35523
0.19971	1.04394
0.09770	-0.25695
0.27621	0.10015
0.04670	-0.66508
0.17421	0.50828
0.27621	0.73785
0.07220	-0.07840
0.27621	0.38074
0.12320	-0.51203
0.07220	0.38074
0.12320	0.53379
0.04670	0.15117
-0.28482	0.66132
0.27621	0.02363
0.25071	-0.33348
0.45472	-1.40480
0.02119	0.40625
0.12320	0.43176
0.27621	0.22769
0.27621	0.22769
0.09770	0.10015
0.12320	0.17668
0.19971	0.22769
0.07220	0.35523
0.09770	0.22769
-0.00431	-0.74160
0.07220	0.35523
0.17421	0.45726
0.30171	0.43176
0.22521	0.66132
-0.05531	0.27871
0.14870	0.45726
0.25071	-0.53754
0.04670	-0.05289
0.12320	-1.78742
0.19971	0.91640
0.17421	1.42656
0.19971	0.73785
0.02119	0.15117
0.22521	0.35523
0.17421	0.22769
0.22521	-0.94566
0.07220	0.58480
0.02119	0.58480
0.02119	0.35523
0.17421	-0.20594
0.22521	-0.15492
0.14870	-0.15492
0.22521	0.30422
0.09770	-0.84363
0.27621	0.53379
0.25071	0.30422
0.19971	1.17148
0.04670	-0.51203
0.17421	0.10015
0.12320	0.71234
0.12320	0.81437
0.19971	0.45726
0.04670	-0.00188
0.12320	-0.51203
0.12320	-0.38449
0.04670	0.58480
0.19971	0.50828
0.25071	-0.41000
0.12320	0.48277
0.19971	-0.00188
0.25071	0.50828
0.19971	0.66132
0.04670	-0.25695
0.22521	-0.71609
0.17421	0.38074
0.02119	0.02363
0.09770	0.07465
0.09770	0.04914
0.12320	0.04914
0.27621	0.15117
0.12320	0.32972
-0.00431	0.48277
0.22521	0.66132
0.22521	0.35523
0.42922	0.15117
0.14870	-0.12942
0.22521	0.20219
0.12320	-0.05289
0.12320	1.09496
0.12320	-1.88945
-0.00431	0.86539
0.22521	0.58480
0.09770	-0.43551
0.14870	-1.71090
0.19971	1.47757
-0.00431	0.89089
0.17421	0.86539
0.07220	0.20219
0.32721	-0.05289
0.19971	-0.25695
0.17421	0.07465
0.25071	-0.23145
0.09770	0.35523
0.19971	0.04914
0.07220	0.25320
0.14870	0.17668
0.09770	0.38074
0.09770	0.22769
0.14870	0.04914
0.12320	0.04914
0.30171	0.50828
0.19971	-0.33348
0.17421	-0.48652
0.12320	-0.25695
0.14870	0.35523
0.12320	1.35003
0.19971	1.14597
0.07220	-0.05289
-0.18282	-0.18043
0.32721	0.15117
0.09770	0.20219
0.12320	-0.38449
0.22521	0.20219
0.22521	0.20219
0.22521	0.20219
0.04670	0.02363
0.19971	0.12566
0.12320	0.35523
0.27621	0.32972
0.14870	0.81437
-0.00431	-0.25695
0.12320	-0.33348
0.02119	-0.07840
0.19971	0.32972
0.12320	0.71234
0.27621	-0.69059
0.19971	0.76336
-0.08081	0.66132
-0.13181	-0.66508
0.17421	-0.58856
0.45472	-0.02739
0.37822	0.78886
0.25071	0.10015
0.07220	1.06945
0.27621	-0.25695
0.09770	1.04394
0.07220	0.66132
0.04670	0.32972
-0.00431	-0.25695
0.17421	-2.17003
0.14870	-0.10391
0.09770	-0.41000
0.19971	0.32972
0.09770	0.81437
0.22521	0.45726
0.09770	0.81437
0.27621	0.66132
0.17421	0.94191
0.32721	-1.78742
0.17421	0.61031
0.12320	0.73785
0.07220	-1.55785
0.14870	0.50828
