0.22521	0.07465
0.07220	0.15117
0.22521	0.15117
0.07220	0.25320
0.25071	0.15117
0.09770	0.25320
0.19971	0.10015
0.12320	0.20219
0.14870	0.07465
0.12320	0.22769
0.09770	0.12566
0.19971	0.15117
0.07220	0.20219
0.14870	0.07465
0.12320	0.15117
0.09770	0.15117
0.22521	0.10015
0.14870	0.20219
0.14870	0.10015
0.14870	0.15117
0.12320	0.10015
0.22521	0.15117
0.07220	0.17668
0.19971	0.04914
0.07220	0.22769
0.19971	0.10015
0.14870	0.15117
0.14870	0.02363
0.17421	0.12566
0.14870	0.15117
0.12320	0.15117
0.14870	0.07465
0.14870	0.20219
0.17421	0.15117
0.14870	0.12566
0.07220	0.20219
0.19971	0.17668
0.14870	0.12566
0.19971	0.15117
0.12320	0.12566
0.14870	0.17668
0.22521	0.10015
0.07220	0.15117
0.19971	0.10015
0.12320	0.17668
0.12320	0.15117
0.17421	0.15117
0.12320	0.12566
0.14870	0.15117
0.12320	0.15117
0.12320	0.10015
0.07220	0.17668
0.19971	0.07465
0.09770	0.20219
0.17421	0.10015
0.14870	0.25320
0.14870	0.15117
0.14870	0.15117
0.17421	0.17668
0.14870	0.12566
0.14870	0.15117
0.14870	0.04914
0.12320	0.15117
0.25071	0.07465
0.07220	0.20219
0.22521	0.15117
0.07220	0.15117
0.22521	0.15117
0.09770	0.15117
0.19971	0.15117
0.17421	0.15117
0.17421	0.20219
0.14870	0.10015
0.07220	0.20219
0.12320	0.12566
0.17421	0.15117
0.12320	0.15117
0.19971	0.10015
0.07220	0.22769
0.22521	0.17668
0.09770	0.15117
0.19971	0.15117
0.07220	0.10015
0.22521	0.12566
0.09770	0.17668
0.19971	0.15117
0.09770	0.17668
0.14870	0.10015
0.14870	0.07465
0.12320	0.20219
0.19971	0.07465
0.09770	0.22769
0.22521	0.15117
0.07220	0.22769
0.17421	0.17668
0.07220	0.12566
0.22521	0.15117
0.14870	0.12566
0.17421	0.17668
0.14870	0.15117
0.14870	0.12566
0.17421	0.15117
0.14870	0.12566
0.09770	0.15117
0.22521	0.17668
0.12320	0.15117
0.19971	0.15117
0.07220	0.12566
0.22521	0.15117
0.09770	0.12566
0.12320	0.15117
0.09770	0.22769
0.19971	0.12566
0.07220	0.12566
0.14870	0.17668
0.12320	0.17668
0.17421	0.15117
0.12320	0.15117
0.14870	0.22769
0.12320	0.15117
0.14870	0.15117
0.07220	0.15117
0.19971	0.12566
0.12320	0.22769
0.17421	0.12566
0.19971	0.15117
0.09770	0.15117
0.22521	0.04914
0.12320	0.22769
0.19971	0.02363
0.09770	0.22769
0.22521	0.07465
0.07220	0.22769
0.22521	0.07465
0.09770	0.22769
0.19971	0.07465
0.07220	0.22769
0.14870	0.10015
0.14870	0.15117
0.14870	0.07465
0.17421	0.17668
0.12320	0.17668
0.14870	0.17668
0.07220	0.12566
0.22521	0.12566
0.07220	0.20219
0.14870	0.12566
0.17421	0.25320
0.14870	0.15117
0.14870	0.12566
0.12320	0.12566
0.22521	0.07465
0.14870	0.17668
0.14870	0.04914
0.09770	0.20219
0.19971	0.10015
0.09770	0.25320
0.22521	0.15117
0.14870	0.12566
0.07220	0.15117
0.22521	0.12566
0.17421	0.20219
0.14870	0.12566
0.19971	0.15117
0.09770	0.22769
0.19971	0.07465
0.04670	0.17668
0.17421	0.10015
0.17421	0.15117
0.12320	0.15117
0.12320	0.15117
0.14870	0.22769
0.14870	0.07465
0.14870	0.20219
0.12320	0.07465
0.07220	0.20219
0.19971	0.15117
0.12320	0.20219
0.22521	0.12566
0.04670	0.20219
0.14870	0.15117
0.17421	0.17668
0.25071	0.15117
0.09770	0.20219
0.19971	0.10015
0.07220	0.15117
0.17421	0.10015
0.14870	0.25320
0.14870	0.12566
0.14870	0.04914
0.12320	0.25320
0.19971	0.12566
0.14870	0.12566
0.12320	0.25320
0.22521	0.07465
0.09770	0.15117
0.14870	0.15117
0.22521	0.10015
0.04670	0.17668
0.17421	0.10015
0.22521	0.04914
0.14870	0.25320
0.12320	0.10015
0.22521	0.20219
0.07220	0.20219
0.12320	0.15117
0.22521	0.04914
0.09770	0.17668
0.12320	0.15117
0.12320	0.10015
0.09770	0.22769
0.19971	0.15117
0.12320	0.15117
0.07220	0.17668
0.22521	0.07465
0.14870	0.12566
0.17421	0.17668
0.12320	0.17668
0.14870	0.12566
0.12320	0.12566
0.17421	0.15117
0.22521	0.15117
0.07220	0.22769
0.22521	0.04914
0.14870	0.22769
0.12320	0.07465
0.22521	0.10015
0.07220	0.20219
0.14870	0.15117
0.17421	0.15117
0.07220	0.15117
0.19971	0.12566
0.14870	0.12566
0.14870	0.20219
0.19971	0.07465
0.07220	0.17668
0.14870	0.15117
0.12320	0.15117
0.09770	0.25320
0.19971	0.07465
0.17421	0.17668
0.09770	0.17668
0.19971	0.07465
0.14870	0.22769
0.09770	0.15117
0.17421	0.17668
0.12320	0.15117
0.09770	0.15117
0.12320	0.10015
0.19971	0.17668
0.09770	0.12566
0.12320	0.12566
0.14870	0.15117
0.09770	0.12566
0.19971	0.15117
0.07220	0.20219
0.22521	0.04914
0.07220	0.12566
0.22521	0.17668
0.14870	0.15117
0.12320	0.10015
0.14870	0.10015
0.12320	0.22769
0.14870	0.10015
0.09770	0.22769
0.22521	0.12566
0.09770	0.17668
0.22521	0.15117
0.09770	0.20219
0.17421	0.10015
0.14870	0.15117
0.14870	0.12566
0.14870	0.10015
0.12320	0.17668
0.14870	0.15117
0.09770	0.15117
0.19971	0.10015
0.09770	0.20219
0.22521	0.10015
0.14870	0.20219
0.14870	0.10015
0.14870	0.15117
0.09770	0.15117
0.19971	0.10015
0.14870	0.25320
0.12320	0.07465
0.14870	0.15117
0.09770	0.20219
0.19971	0.07465
0.07220	0.22769
0.14870	0.10015
0.14870	0.12566
0.14870	0.15117
0.19971	0.12566
0.09770	0.22769
0.19971	0.10015
0.12320	0.17668
0.14870	0.12566
0.19971	0.17668
0.07220	0.15117
0.22521	0.07465
0.14870	0.20219
0.14870	0.12566
0.19971	0.07465
0.14870	0.20219
0.14870	0.12566
0.14870	0.10015
0.09770	0.20219
0.19971	0.15117
0.14870	0.12566
0.17421	0.17668
0.14870	0.07465
0.09770	0.20219
0.22521	0.07465
0.14870	0.15117
0.12320	0.22769
0.14870	0.04914
0.07220	0.22769
0.14870	0.12566
0.22521	0.10015
0.07220	0.22769
0.12320	0.17668
0.22521	0.07465
0.09770	0.22769
0.17421	0.15117
0.19971	0.04914
0.09770	0.12566
0.14870	0.15117
0.17421	0.15117
0.14870	0.22769
0.22521	0.07465
0.07220	0.25320
0.19971	0.12566
0.14870	0.12566
0.22521	0.12566
0.17421	0.12566
0.12320	0.25320
0.22521	0.07465
0.09770	0.17668
0.14870	0.12566
0.14870	0.22769
0.12320	0.15117
0.19971	0.20219
0.09770	0.15117
0.14870	0.10015
0.14870	0.22769
0.17421	0.12566
0.19971	0.07465
0.07220	0.12566
0.22521	0.10015
0.07220	0.15117
0.17421	0.17668
0.19971	0.04914
0.09770	0.12566
0.22521	0.10015
0.14870	0.22769
0.17421	0.10015
0.12320	0.20219
0.12320	0.04914
0.17421	0.17668
0.14870	0.12566
0.14870	0.15117
0.12320	0.17668
0.14870	0.15117
0.17421	0.15117
0.14870	0.15117
0.12320	0.15117
0.14870	0.15117
0.12320	0.10015
0.14870	0.12566
0.12320	0.17668
0.14870	0.15117
0.22521	0.10015
0.07220	0.22769
0.19971	0.10015
0.12320	0.15117
0.14870	0.07465
0.22521	0.15117
0.07220	0.15117
0.14870	0.10015
0.17421	0.22769
0.14870	0.15117
0.22521	0.10015
0.17421	0.25320
0.12320	0.04914
0.14870	0.17668
0.09770	0.22769
0.22521	0.02363
0.07220	0.20219
0.17421	0.15117
0.17421	0.15117
0.14870	0.15117
0.22521	0.10015
0.14870	0.22769
0.14870	0.07465
0.17421	0.15117
0.19971	0.20219
0.14870	0.10015
0.19971	0.10015
0.17421	0.10015
0.17421	0.17668
0.14870	0.10015
0.14870	0.12566
0.14870	0.17668
0.14870	0.15117
0.12320	0.15117
0.12320	0.15117
0.19971	0.15117
0.07220	0.15117
0.12320	0.04914
0.14870	0.12566
0.14870	0.10015
0.14870	0.20219
0.14870	0.07465
0.19971	0.17668
0.09770	0.15117
0.19971	0.17668
0.12320	0.22769
0.07220	0.10015
0.19971	0.10015
0.09770	0.12566
0.22521	0.20219
0.14870	0.20219
0.12320	0.02363
0.14870	0.25320
0.14870	0.07465
0.12320	0.20219
0.14870	0.07465
0.14870	0.22769
0.14870	0.04914
0.12320	0.15117
0.14870	0.15117
0.17421	0.22769
0.14870	0.07465
0.07220	0.17668
0.19971	0.04914
0.07220	0.25320
0.22521	0.10015
0.07220	0.22769
0.19971	0.02363
0.09770	0.25320
0.19971	0.07465
0.14870	0.20219
0.14870	0.12566
0.14870	0.15117
0.07220	0.22769
0.22521	0.10015
0.07220	0.20219
0.22521	0.10015
0.07220	0.25320
0.12320	0.10015
0.17421	0.17668
0.12320	0.10015
0.12320	0.20219
0.22521	0.10015
0.07220	0.25320
0.19971	0.15117
0.04670	0.15117
0.14870	0.04914
0.09770	0.22769
0.12320	0.10015
0.14870	0.22769
0.14870	0.04914
0.07220	0.22769
0.14870	0.07465
0.09770	0.22769
0.19971	0.07465
0.12320	0.20219
0.22521	0.07465
0.07220	0.22769
0.14870	0.07465
0.14870	0.22769
0.22521	0.07465
0.12320	0.22769
0.12320	0.15117
0.19971	0.20219
0.07220	0.15117
0.22521	0.10015
0.09770	0.22769
0.17421	0.10015
0.09770	0.20219
0.22521	0.07465
0.14870	0.17668
0.14870	0.07465
0.14870	0.25320
0.14870	0.07465
0.14870	0.12566
0.19971	0.12566
0.09770	0.17668
0.22521	0.10015
0.07220	0.20219
0.12320	0.12566
0.12320	0.20219
0.17421	0.17668
0.14870	0.15117
0.17421	0.15117
0.14870	0.17668
0.19971	0.04914
0.07220	0.25320
0.00000	0.12566
0.19971	0.15117
0.07220	0.12566
0.22521	0.20219
0.14870	0.17668
0.17421	0.17668
0.14870	0.10015
0.14870	0.15117
0.12320	0.07465
0.14870	0.15117
0.14870	0.12566
0.14870	0.10015
0.14870	0.15117
0.12320	0.15117
0.14870	0.17668
0.09770	0.17668
0.19971	0.15117
0.09770	0.07465
0.19971	0.17668
0.07220	0.10015
0.22521	0.22769
0.04670	0.10015
0.12320	0.17668
0.14870	0.15117
0.07220	0.10015
0.22521	0.15117
0.12320	0.17668
0.19971	0.17668
0.09770	0.10015
0.25071	0.15117
0.14870	0.07465
0.12320	0.15117
0.12320	0.15117
0.22521	0.17668
0.07220	0.22769
0.19971	0.17668
0.09770	0.12566
0.22521	0.15117
0.09770	0.12566
0.22521	0.15117
0.09770	0.17668
0.22521	0.20219
0.07220	0.04914
0.22521	0.27871
0.07220	0.07465
0.19971	0.22769
0.07220	0.04914
0.22521	0.22769
0.07220	0.10015
0.22521	0.22769
0.07220	0.02363
0.19971	0.15117
0.07220	0.12566
0.22521	0.20219
0.09770	0.10015
0.22521	0.25320
0.07220	0.07465
0.19971	0.22769
0.07220	0.10015
0.17421	0.17668
0.14870	0.07465
0.14870	0.20219
0.14870	0.17668
0.19971	0.20219
0.09770	0.04914
0.19971	0.20219
0.04670	0.15117
0.14870	0.17668
0.12320	0.15117
0.14870	0.15117
0.19971	0.17668
0.04670	-0.00188
0.22521	0.22769
0.09770	0.12566
0.22521	0.22769
0.09770	0.10015
0.17421	0.22769
0.07220	0.07465
0.22521	0.22769
0.07220	0.04914
0.19971	0.25320
0.09770	0.12566
0.22521	0.20219
0.07220	0.07465
0.19971	0.17668
0.09770	0.10015
0.19971	0.20219
0.09770	0.04914
0.22521	0.25320
0.07220	0.04914
0.19971	0.27871
0.12320	0.07465
0.14870	0.20219
0.22521	0.15117
0.09770	0.15117
0.14870	0.25320
0.14870	0.10015
0.07220	0.12566
0.22521	0.15117
0.12320	0.02363
0.17421	0.22769
0.14870	0.10015
0.12320	0.15117
0.12320	0.12566
0.17421	0.17668
0.12320	0.07465
0.14870	0.25320
0.14870	0.04914
0.12320	0.12566
0.19971	0.17668
0.09770	0.12566
0.19971	0.12566
0.07220	0.17668
0.19971	0.20219
0.07220	0.10015
0.22521	0.17668
0.07220	0.12566
0.19971	0.20219
0.09770	0.07465
0.14870	0.22769
0.04670	0.12566
0.19971	0.12566
0.14870	0.25320
0.14870	-0.00188
0.14870	0.17668
0.07220	0.07465
0.19971	0.15117
0.07220	0.12566
0.17421	0.10015
0.14870	0.22769
0.14870	0.15117
0.22521	0.25320
0.14870	0.15117
0.14870	0.20219
0.17421	0.22769
0.09770	0.15117
0.19971	0.17668
0.12320	0.10015
0.17421	0.17668
0.14870	0.07465
0.17421	0.12566
0.19971	0.15117
-0.00431	0.04914
0.32721	0.17668
0.12320	0.15117
-0.05531	0.22769
0.30171	0.15117
0.19971	0.17668
-0.36133	0.02363
0.42922	0.20219
0.55673	0.20219
0.35272	0.22769
-0.31033	0.02363
0.17421	0.10015
0.30171	0.04914
0.45472	0.15117
0.45472	0.45726
0.17421	0.55929
1.06676	0.12566
-0.25932	-0.12942
-3.19201	-0.10391
-0.43783	-0.66508
0.73524	0.81437
0.93925	0.43176
0.73524	0.25320
0.73524	0.35523
0.60773	0.22769
1.19427	0.15117
1.90832	0.04914
1.14327	-0.56305
-0.74385	0.02363
-1.78942	0.04914
-2.22295	-0.05289
-1.78942	0.20219
-0.51434	0.17668
0.45472	0.96742
2.36734	0.61031
2.46935	0.40625
1.88281	0.53379
0.12320	-0.41000
-0.64185	-3.03730
-0.69285	-0.00188
-0.00431	0.10015
0.42922	1.37554
0.68424	1.78367
0.07220	1.19699
-1.30489	0.76336
-2.68198	0.50828
-0.94787	1.78367
-1.99343	-0.25695
2.16333	-1.17523
2.26534	-1.65988
3.38741	-1.65988
0.96476	-2.60367
-3.01350	-0.00188
-0.31033	0.20219
1.34728	0.63582
1.75531	1.55410
1.44929	2.80397
-0.18282	1.29902
0.02119	-0.66508
-2.14644	0.68683
-0.71835	-0.07840
0.73524	-0.15492
-0.59084	0.63582
0.02119	1.04394
0.42922	-0.71609
0.63323	-0.46102
0.22521	0.22769
0.14870	2.29382
0.07220	-1.73640
-0.25932	0.15117
-0.05531	-0.23145
0.53123	-0.25695
0.48022	-1.30277
-0.00431	1.17148
-0.31033	0.86539
0.45472	-0.15492
0.48022	-0.07840
0.42922	-1.12422
-0.94787	-1.02219
0.76074	1.93671
0.09770	0.32972
0.91375	1.80917
0.37822	1.22250
-0.31033	-1.12422
0.07220	0.02363
-0.28482	0.02363
0.25071	-1.17523
0.22521	0.68683
0.53123	-0.84363
-0.28482	0.35523
-0.28482	0.91640
0.35272	0.81437
0.60773	0.55929
0.40372	1.32453
-0.18282	2.06425
-0.71835	-2.42511
0.02119	0.35523
0.35272	0.83988
-0.08081	0.63582
0.96476	0.86539
0.32721	0.43176
0.22521	-0.81812
0.96476	0.12566
-0.08081	-3.93007
0.12320	0.22769
-0.51434	-0.30797
-0.20832	1.06945
0.07220	-0.69059
-0.18282	0.40625
0.68424	2.26831
-0.71835	0.96742
0.22521	-0.07840
0.68424	0.04914
0.70974	-0.38449
-0.05531	-0.76711
-0.08081	-0.28246
0.48022	-0.28246
0.30171	1.37554
-0.00431	-1.68539
0.02119	0.50828
0.17421	1.17148
0.55673	0.40625
-0.64185	-0.48652
-0.28482	1.09496
0.63323	0.89089
0.27621	0.66132
0.09770	0.38074
0.09770	0.20219
0.02119	0.53379
0.32721	-0.07840
0.25071	-0.61406
0.17421	-0.18043
0.09770	-0.66508
0.14870	-0.02739
-0.00431	-0.28246
-0.00431	-0.12942
0.27621	0.35523
0.02119	-0.15492
-0.13181	0.66132
0.53123	0.07465
0.35272	0.83988
0.42922	0.81437
0.12320	0.38074
1.01576	-0.05289
-1.10088	0.20219
-0.66735	-0.53754
0.65874	-0.05289
0.30171	-0.66508
0.40372	-0.23145
-0.20832	0.12566
0.27621	-0.30797
0.63323	0.40625
0.88825	1.65613
-0.69285	1.73265
-0.59084	-0.86914
-0.02981	-2.14453
0.83725	1.50308
1.19427	1.24800
-0.18282	0.45726
-0.20832	1.45206
-0.18282	-1.45582
-0.48884	-0.41000
-0.18282	-0.41000
0.37822	0.55929
0.48022	0.30422
0.63323	0.10015
0.42922	-0.81812
0.04670	-0.43551
-0.05531	0.81437
0.12320	1.14597
-0.05531	-2.42511
0.12320	-0.69059
0.32721	0.83988
-0.28482	0.99292
0.22521	0.81437
0.07220	0.25320
-0.13181	0.81437
0.91375	-0.51203
0.40372	-0.84363
0.30171	0.02363
-0.05531	0.45726
0.07220	0.55929
0.02119	0.10015
0.73524	-0.86914
-0.00431	0.30422
-0.71835	0.35523
0.04670	0.55929
-0.23382	1.63062
0.30171	-1.78742
1.37278	0.22769
0.42922	0.48277
-0.74385	0.20219
-0.13181	-0.07840
0.17421	0.96742
0.22521	-0.76711
0.27621	0.10015
0.14870	-0.66508
0.30171	0.38074
0.12320	-0.51203
0.27621	0.35523
0.09770	1.01843
0.25071	0.45726
-0.20832	0.38074
-0.05531	0.04914
0.17421	-0.20594
0.19971	-0.61406
0.27621	-0.12942
0.22521	-0.25695
0.19971	-0.00188
0.19971	1.78367
0.04670	-1.60887
0.30171	0.12566
0.17421	0.58480
0.14870	-0.23145
-0.53984	0.86539
-0.02981	0.73785
0.48022	1.06945
0.42922	-0.86914
0.32721	-0.41000
0.14870	0.99292
0.07220	-0.05289
0.32721	-0.28246
-0.18282	2.34484
0.07220	-0.15492
0.35272	-3.06281
0.53123	-0.97117
0.04670	0.63582
-0.51434	0.63582
-0.10631	0.40625
0.19971	0.50828
0.53123	0.38074
0.27621	1.32453
0.55673	0.53379
0.27621	-0.84363
0.19971	0.45726
-0.15732	0.96742
0.09770	0.25320
0.12320	0.32972
0.17421	-0.46102
0.12320	0.71234
0.27621	0.04914
0.07220	0.48277
0.25071	0.71234
0.07220	1.29902
0.22521	-1.04770
0.12320	-0.46102
0.12320	-0.02739
0.14870	1.47757
0.09770	0.55929
0.07220	-3.62398
0.14870	0.68683
0.22521	0.73785
0.22521	0.89089
0.14870	0.71234
0.14870	-1.68539
0.04670	0.76336
0.17421	2.06425
0.12320	-0.76711
0.35272	-0.66508
0.22521	0.38074
0.09770	0.45726
-0.00431	0.63582
-0.18282	1.57960
0.09770	-2.90976
0.19971	0.40625
0.37822	0.35523
0.32721	1.78367
0.35272	0.04914
0.04670	-0.76711
0.07220	0.17668
0.12320	0.04914
0.22521	-0.43551
0.12320	0.15117
0.04670	0.76336
-0.00431	-1.20074
-0.08081	0.32972
0.04670	1.27351
0.63323	-2.14453
0.65874	-0.43551
-0.23382	2.03874
-0.13181	-0.23145
0.42922	1.35003
0.32721	0.45726
0.19971	1.06945
0.12320	0.55929
0.25071	0.45726
-0.02981	-0.84363
0.14870	0.15117
0.07220	0.12566
0.25071	-1.99148
0.22521	0.20219
0.09770	0.50828
0.17421	0.32972
-0.00431	-0.10391
0.12320	0.45726
0.07220	0.27871
0.22521	0.27871
0.32721	0.71234
0.14870	0.89089
-0.20832	-0.97117
0.09770	0.81437
0.22521	-0.56305
0.60773	-0.66508
0.07220	1.22250
0.07220	0.32972
0.17421	0.35523
0.19971	-0.25695
0.09770	0.76336
-0.08081	0.50828
0.19971	0.22769
0.12320	-0.38449
0.12320	-0.07840
0.02119	0.04914
0.22521	0.45726
0.09770	0.71234
0.25071	0.15117
0.30171	0.02363
0.19971	-0.28246
0.09770	0.61031
0.04670	0.50828
0.12320	0.68683
0.22521	0.04914
0.07220	0.63582
-0.18282	-1.88945
0.07220	-0.28246
0.27621	-0.35899
0.32721	0.25320
0.07220	0.17668
0.12320	0.53379
0.09770	0.61031
0.30171	0.25320
0.40372	0.89089
0.22521	-0.56305
-0.20832	0.76336
0.22521	0.78886
0.27621	-0.53754
0.12320	0.10015
0.14870	-0.46102
-0.02981	-0.20594
0.12320	0.50828
0.09770	-0.56305
0.14870	0.38074
0.17421	0.76336
-0.08081	0.07465
0.19971	-0.58856
0.19971	-0.38449
0.25071	0.66132
0.17421	0.83988
0.27621	0.40625
0.30171	-1.20074
0.07220	0.81437
0.12320	0.40625
0.09770	0.73785
0.14870	0.22769
0.22521	0.81437
0.27621	0.71234
0.02119	-1.40480
0.07220	0.45726
0.04670	-0.97117
0.07220	-0.10391
0.12320	0.99292
0.17421	-0.89465
0.35272	0.25320
0.22521	-0.02739
0.02119	0.89089
0.12320	-1.04770
0.19971	0.22769
0.32721	0.48277
-0.13181	0.32972
0.12320	0.15117
0.32721	0.30422
0.53123	0.99292
-0.33583	0.35523
-0.02981	-0.97117
0.25071	0.99292
0.42922	0.96742
0.14870	-1.71090
0.14870	0.61031
0.12320	-1.32828
0.02119	0.58480
0.04670	0.73785
0.04670	-0.48652
0.22521	0.83988
0.17421	0.91640
0.19971	1.19699
0.09770	-0.84363
0.19971	0.55929
0.14870	-0.30797
0.17421	-0.46102
0.09770	0.78886
0.14870	-0.25695
0.27621	0.32972
0.12320	0.48277
0.22521	-0.20594
-0.00431	-0.00188
0.19971	0.15117
0.22521	0.02363
-0.05531	0.50828
0.12320	0.17668
0.17421	0.32972
0.32721	-0.35899
0.19971	-0.41000
0.12320	0.32972
0.12320	0.73785
0.25071	0.96742
0.07220	-0.84363
-0.02981	0.12566
0.12320	0.17668
0.19971	-0.81812
0.12320	-0.23145
0.09770	1.01843
0.42922	0.63582
0.04670	0.25320
-0.13181	0.45726
0.17421	0.86539
0.35272	-1.60887
0.09770	-0.76711
0.22521	0.83988
0.12320	0.30422
0.22521	1.09496
0.12320	-0.00188
0.22521	0.20219
-0.00431	0.12566
0.12320	0.40625
0.09770	0.15117
0.19971	0.40625
0.14870	1.19699
0.19971	-0.81812
0.12320	0.55929
0.25071	0.02363
-0.02981	0.04914
0.12320	0.12566
-0.10631	-0.74160
0.14870	-0.15492
0.14870	-0.56305
0.25071	0.78886
0.14870	0.68683
0.17421	1.14597
0.12320	-0.56305
0.22521	0.86539
0.14870	0.17668
0.27621	0.45726
-0.00431	0.17668
0.19971	-0.18043
0.09770	0.50828
0.22521	-0.43551
-0.02981	0.25320
0.32721	0.15117
0.04670	-0.20594
0.22521	-0.74160
-0.08081	0.66132
0.19971	0.40625
0.22521	0.17668
0.27621	-0.51203
0.22521	0.10015
0.32721	0.20219
0.04670	0.04914
0.02119	0.10015
0.07220	-0.30797
0.19971	-0.53754
0.19971	0.68683
0.04670	1.17148
0.12320	0.04914
0.02119	0.40625
0.19971	-0.25695
0.09770	-0.51203
0.07220	0.38074
0.27621	0.17668
0.12320	-0.05289
0.17421	0.71234
0.14870	0.48277
0.07220	-0.07840
0.09770	0.12566
0.12320	-0.07840
0.22521	0.20219
0.22521	0.66132
0.27621	-1.04770
0.12320	-0.28246
-0.20832	0.55929
0.17421	0.45726
0.32721	0.99292
0.09770	-1.14973
0.04670	0.94191
0.17421	-1.04770
0.32721	1.06945
0.22521	1.06945
0.09770	-0.12942
0.09770	0.25320
0.14870	-0.46102
0.19971	0.35523
0.19971	0.86539
-0.13181	0.43176
0.22521	-0.76711
0.19971	0.32972
0.19971	0.30422
0.12320	0.04914
0.22521	0.71234
0.14870	0.73785
0.04670	-2.39961
0.12320	-0.56305
0.12320	-0.00188
0.19971	0.83988
0.07220	0.50828
0.17421	0.55929
0.07220	0.86539
0.19971	-1.12422
0.04670	1.27351
0.19971	-1.20074
0.17421	0.61031
0.07220	0.30422
0.19971	0.78886
0.19971	0.04914
0.12320	-1.07320
0.25071	0.68683
-0.05531	0.35523
0.09770	0.68683
0.25071	-0.00188
0.14870	0.17668
0.07220	-0.07840
0.25071	0.71234
0.22521	0.86539
0.12320	-0.69059
0.14870	-0.46102
0.22521	0.15117
0.17421	-0.66508
0.27621	0.81437
0.09770	0.58480
0.02119	-0.07840
-0.00431	0.22769
-0.02981	-0.41000
0.27621	1.68163
0.45472	0.73785
0.22521	-0.33348
0.09770	-0.94566
0.17421	0.40625
0.12320	0.15117
0.04670	1.45206
0.09770	-0.33348
-0.08081	-1.09871
0.22521	-1.22625
0.17421	0.89089
0.30171	1.04394
0.17421	0.45726
0.22521	-0.05289
0.12320	0.32972
0.07220	-0.02739
0.12320	-0.12942
0.12320	0.61031
0.09770	-0.63957
0.19971	-0.15492
0.04670	-0.43551
0.04670	0.27871
0.14870	0.94191
0.14870	0.83988
0.30171	0.12566
0.09770	0.04914
0.14870	0.38074
0.09770	-0.38449
0.12320	1.01843
0.09770	-0.02739
0.02119	-0.38449
0.25071	-0.35899
0.19971	-1.07320
0.12320	-0.12942
0.25071	1.17148
0.19971	0.32972
0.07220	0.81437
-0.13181	0.66132
-0.02981	0.55929
0.37822	0.27871
0.35272	0.38074
0.19971	-0.00188
0.19971	-1.22625
0.19971	-0.15492
0.19971	-1.02219
0.09770	0.45726
-0.31033	0.17668
-0.25932	0.48277
0.32721	0.35523
0.40372	0.94191
0.30171	0.15117
0.19971	0.04914
0.25071	0.66132
0.04670	0.04914
0.17421	0.32972
0.02119	-0.51203
0.02119	-0.02739
0.14870	0.48277
0.19971	-0.02739
0.14870	-0.84363
0.09770	0.78886
0.22521	1.57960
0.07220	-0.23145
0.19971	0.68683
0.27621	1.35003
0.12320	-0.66508
0.17421	0.10015
0.09770	-0.07840
0.07220	-0.38449
0.12320	-0.33348
0.17421	-0.15492
0.25071	0.12566
0.19971	0.55929
0.25071	0.48277
0.22521	0.45726
0.04670	-1.07320
0.30171	-0.25695
-0.02981	0.76336
0.02119	1.42656
0.17421	-0.25695
0.09770	1.42656
0.32721	-4.33819
0.19971	1.40105
0.22521	1.19699
0.12320	0.91640
0.02119	0.81437
-0.00431	-0.89465
0.25071	0.02363
0.22521	-0.07840
0.14870	0.32972
0.19971	0.32972
0.19971	0.20219
0.22521	-0.35899
0.07220	-0.30797
0.19971	-0.28246
0.09770	-0.41000
0.02119	0.30422
0.07220	0.45726
0.22521	0.22769
0.19971	0.10015
0.27621	0.15117
0.19971	0.76336
0.19971	0.71234
-0.23382	-0.89465
0.22521	0.83988
0.30171	-2.04250
0.30171	0.68683
0.07220	1.14597
0.22521	1.17148
0.12320	-0.05289
0.04670	0.12566
0.02119	0.02363
0.14870	1.60511
0.19971	-1.12422
0.22521	-0.02739
0.17421	0.12566
0.14870	0.25320
0.04670	-0.69059
0.12320	0.20219
0.19971	0.15117
0.22521	-0.30797
-0.08081	0.12566
-0.25932	0.76336
0.22521	0.20219
0.19971	0.15117
0.32721	-0.97117
0.25071	-0.28246
0.19971	1.17148
0.09770	0.68683
0.17421	0.58480
0.30171	0.07465
0.07220	1.60511
0.04670	-4.61878
0.04670	0.63582
-0.00431	0.86539
0.17421	1.42656
0.17421	0.89089
0.09770	-0.10391
0.09770	0.81437
0.12320	0.63582
0.12320	-0.58856
0.17421	-0.12942
0.25071	0.10015
0.04670	-0.20594
0.27621	-0.02739
0.19971	0.32972
0.12320	0.04914
0.25071	0.12566
-0.00431	-0.20594
0.12320	0.30422
0.17421	0.43176
0.32721	0.61031
-0.00431	0.30422
-0.23382	-0.94566
0.25071	1.32453
0.32721	1.78367
0.14870	-2.83324
-0.23382	1.12046
0.09770	-0.28246
0.35272	0.81437
0.19971	0.20219
0.22521	1.42656
0.25071	-0.84363
0.17421	0.50828
0.07220	0.04914
0.12320	0.15117
-0.00431	-0.05289
0.09770	-0.43551
0.12320	-0.18043
0.04670	0.35523
0.32721	-0.41000
0.02119	0.10015
0.12320	0.58480
0.09770	0.22769
0.12320	0.63582
0.17421	0.27871
0.19971	-1.27726
0.27621	1.52859
0.19971	0.43176
0.17421	-0.30797
0.17421	2.31933
0.07220	-4.21066
0.09770	0.53379
0.22521	0.83988
0.12320	0.86539
0.02119	0.32972
0.07220	1.37554
0.14870	-0.81812
0.04670	0.15117
0.17421	0.17668
0.22521	-0.43551
0.14870	0.12566
0.09770	0.22769
0.27621	0.45726
0.19971	0.55929
0.09770	-0.00188
0.12320	0.30422
0.09770	-0.51203
0.17421	-0.30797
0.17421	0.61031
0.22521	0.55929
0.25071	0.73785
0.12320	-1.37929
0.17421	-0.00188
-0.05531	1.42656
0.02119	-2.50164
-0.23382	1.01843
0.30171	1.27351
0.42922	0.91640
0.32721	0.73785
0.22521	0.22769
0.14870	0.22769
0.17421	-0.07840
0.07220	0.04914
0.19971	-0.86914
0.14870	0.15117
0.09770	0.45726
0.02119	0.35523
0.14870	-1.32828
0.37822	-0.46102
0.07220	0.55929
-0.31033	0.78886
0.14870	0.55929
0.22521	0.76336
0.37822	-0.10391
0.19971	-0.07840
0.09770	0.27871
0.25071	-1.40480
0.09770	0.99292
0.04670	-0.15492
0.14870	0.17668
0.04670	-0.46102
0.07220	1.24800
0.30171	-0.23145
0.19971	0.02363
0.09770	0.86539
0.12320	0.07465
0.17421	0.32972
0.14870	0.25320
0.19971	0.48277
0.25071	0.12566
0.14870	0.20219
0.17421	-0.10391
0.04670	-1.14973
0.19971	-0.25695
0.09770	0.58480
0.17421	1.22250
0.07220	-0.53754
0.09770	0.38074
0.22521	-0.56305
0.09770	0.12566
0.02119	-0.43551
0.09770	0.17668
0.27621	0.25320
0.04670	-0.15492
0.32721	0.68683
0.19971	0.43176
0.17421	0.71234
0.04670	0.32972
0.12320	-0.00188
0.14870	0.10015
0.17421	1.75816
0.07220	-3.21585
0.02119	0.35523
0.14870	0.96742
0.12320	-0.71609
0.27621	0.12566
0.17421	0.12566
0.19971	0.30422
0.19971	0.25320
0.17421	0.53379
0.19971	0.22769
0.25071	0.61031
0.30171	0.45726
-0.13181	-0.23145
-0.38683	-0.10391
0.25071	0.61031
0.35272	-0.92016
0.27621	0.38074
0.25071	0.83988
0.17421	-0.86914
0.12320	0.35523
0.07220	1.06945
0.04670	0.61031
0.25071	-0.79262
0.09770	-0.02739
0.17421	0.48277
0.09770	0.81437
0.12320	0.10015
0.12320	0.20219
0.19971	0.89089
0.25071	-2.24656
-0.13181	0.66132
0.12320	0.58480
0.14870	0.66132
0.17421	-0.18043
0.07220	0.40625
0.22521	0.07465
0.19971	-0.18043
0.17421	-0.58856
0.22521	-0.74160
0.17421	0.86539
0.17421	1.01843
0.14870	0.89089
0.17421	0.40625
0.02119	0.71234
0.12320	-0.25695
0.07220	-1.02219
0.22521	0.63582
0.12320	0.04914
0.14870	-0.81812
0.17421	0.35523
0.22521	0.61031
0.14870	0.22769
0.12320	0.22769
0.12320	0.53379
-0.00431	-0.76711
0.12320	0.68683
0.07220	-0.12942
0.30171	-0.43551
0.12320	-0.18043
0.22521	0.63582
0.12320	0.71234
0.27621	1.01843
0.07220	-1.17523
0.09770	0.07465
0.12320	-0.33348
0.12320	1.17148
0.12320	0.35523
0.07220	0.02363
0.07220	0.12566
0.17421	0.02363
0.14870	0.04914
0.14870	0.07465
0.30171	0.35523
0.12320	-1.02219
0.17421	0.99292
0.14870	0.96742
0.22521	0.10015
-0.13181	-2.70570
0.19971	0.25320
0.09770	0.89089
0.19971	1.52859
0.14870	0.38074
0.12320	0.50828
0.25071	1.06945
0.14870	-0.71609
0.19971	0.25320
0.09770	0.07465
0.17421	-1.68539
0.07220	0.43176
0.19971	0.35523
0.07220	0.22769
0.04670	0.15117
0.12320	0.45726
0.19971	0.53379
0.07220	0.10015
0.19971	-0.23145
0.19971	0.48277
0.02119	0.17668
-0.08081	-0.79262
0.32721	0.86539
0.19971	-0.18043
0.19971	0.04914
0.22521	0.63582
0.07220	0.35523
-0.05531	-0.58856
0.27621	0.30422
0.27621	-0.20594
0.12320	0.50828
0.09770	0.15117
0.12320	0.04914
0.09770	0.99292
0.09770	-0.92016
-0.00431	0.86539
0.25071	-0.28246
0.14870	0.58480
0.17421	0.55929
0.12320	0.32972
0.32721	0.35523
0.09770	-0.10391
0.12320	-0.25695
0.04670	0.12566
0.19971	0.17668
0.17421	-0.15492
0.19971	0.20219
0.19971	0.38074
-0.02981	-0.10391
0.19971	0.20219
0.14870	0.10015
0.12320	0.32972
0.17421	0.43176
0.22521	0.17668
0.17421	0.12566
0.17421	0.61031
0.19971	-0.10391
0.19971	-0.23145
0.22521	0.17668
-0.13181	-0.28246
0.09770	1.06945
0.14870	0.73785
0.19971	0.55929
0.17421	-1.27726
0.17421	0.71234
0.07220	0.30422
0.12320	-0.30797
0.19971	-0.79262
0.17421	0.68683
0.17421	0.17668
0.17421	0.55929
0.12320	-0.10391
0.12320	0.40625
0.12320	-0.00188
0.14870	-0.15492
0.17421	-0.38449
0.14870	0.63582
0.25071	0.30422
0.19971	-0.35899
0.27621	1.12046
0.04670	-0.18043
0.09770	-0.97117
0.02119	0.48277
0.09770	0.81437
0.19971	-0.84363
0.14870	1.19699
0.17421	0.43176
0.27621	-0.56305
0.32721	-0.66508
-0.00431	-0.30797
-0.20832	0.35523
-0.02981	0.38074
0.40372	0.63582
0.22521	0.45726
0.32721	-0.43551
0.17421	0.40625
0.35272	1.22250
0.25071	-0.46102
0.02119	-0.66508
-0.08081	-0.05289
0.14870	-0.15492
0.14870	0.22769
0.17421	0.12566
0.12320	0.38074
-0.02981	0.53379
0.27621	-0.23145
0.14870	-0.25695
0.22521	0.27871
0.12320	0.76336
0.14870	0.20219
0.02119	0.02363
0.12320	0.25320
0.17421	0.35523
0.25071	0.81437
0.17421	-0.48652
0.14870	0.48277
0.19971	0.40625
0.12320	-0.46102
0.12320	-0.97117
-0.10631	0.30422
0.09770	0.35523
0.14870	0.71234
0.37822	1.01843
0.27621	0.63582
0.17421	0.02363
0.12320	-0.84363
0.09770	-0.10391
0.22521	-0.43551
0.17421	0.50828
0.17421	0.48277
0.09770	0.53379
0.17421	-0.74160
0.14870	0.07465
0.07220	0.66132
0.14870	0.61031
0.04670	0.40625
0.14870	0.27871
0.14870	0.07465
0.19971	0.35523
0.25071	-0.20594
0.12320	0.73785
0.14870	-0.63957
0.04670	0.68683
0.27621	-1.60887
-0.00431	0.04914
-0.00431	0.94191
0.19971	0.58480
0.37822	0.30422
0.37822	0.27871
0.17421	0.27871
0.02119	-0.10391
0.09770	-0.10391
0.12320	-0.02739
0.25071	0.61031
0.17421	0.35523
0.22521	0.10015
0.14870	0.07465
0.02119	0.20219
0.12320	0.25320
0.07220	-0.63957
0.19971	-0.00188
0.12320	0.30422
0.25071	-0.02739
0.12320	0.76336
0.09770	0.40625
0.14870	0.76336
0.27621	-0.48652
0.27621	0.50828
0.14870	-1.02219
-0.08081	0.61031
0.07220	0.61031
0.27621	0.04914
0.19971	-0.41000
0.27621	0.50828
0.22521	0.17668
0.12320	0.02363
0.12320	0.45726
0.22521	0.27871
0.09770	-0.33348
0.19971	-0.18043
0.17421	0.55929
0.14870	0.89089
0.04670	-0.63957
-0.00431	0.27871
0.17421	0.35523
0.17421	0.15117
0.09770	-0.33348
0.25071	0.40625
0.12320	-0.69059
0.17421	0.22769
0.12320	0.43176
0.27621	0.35523
0.35272	1.17148
-0.15732	-1.40480
0.14870	0.20219
0.32721	0.63582
0.12320	1.29902
0.04670	0.17668
0.14870	-0.56305
0.25071	-0.18043
0.12320	0.35523
0.30171	0.58480
0.07220	0.15117
0.17421	0.10015
0.09770	0.53379
0.19971	0.48277
0.12320	-0.23145
0.14870	0.17668
-0.00431	-1.02219
0.19971	-0.28246
-0.05531	0.78886
0.04670	0.20219
0.14870	0.81437
0.30171	0.10015
0.27621	0.25320
0.07220	0.25320
0.19971	-0.25695
-0.02981	-0.02739
0.14870	0.32972
0.42922	0.78886
0.17421	0.73785
0.14870	0.78886
0.25071	-0.63957
0.02119	-0.43551
0.12320	0.12566
0.07220	0.35523
0.04670	-0.28246
0.17421	0.17668
0.12320	0.76336
0.22521	1.04394
0.12320	-1.65988
0.22521	-0.41000
0.04670	0.55929
0.12320	0.71234
0.17421	0.55929
0.07220	0.25320
0.14870	-0.02739
-0.00431	-0.35899
0.17421	0.20219
0.12320	0.50828
0.17421	-0.18043
0.32721	0.73785
0.17421	-1.68539
0.02119	1.24800
0.09770	1.45206
0.30171	-0.66508
0.02119	0.30422
0.09770	-0.30797
0.30171	0.30422
0.12320	0.17668
0.32721	-0.00188
-0.00431	-0.05289
0.17421	0.76336
-0.00431	-0.46102
0.25071	0.63582
0.04670	-0.97117
0.30171	0.96742
0.12320	0.76336
0.17421	0.40625
0.02119	-0.63957
0.12320	-1.09871
0.07220	1.06945
0.22521	1.45206
0.12320	0.83988
0.22521	-0.53754
0.14870	-0.58856
0.12320	0.35523
0.22521	0.76336
0.12320	0.02363
0.04670	-0.18043
0.09770	-0.25695
0.17421	0.63582
0.22521	0.25320
0.14870	-0.35899
0.14870	-0.53754
0.12320	0.15117
0.07220	0.30422
0.27621	0.32972
0.09770	0.17668
0.17421	0.25320
0.04670	0.20219
0.19971	1.06945
0.17421	0.25320
0.17421	-0.30797
0.19971	0.30422
0.09770	0.58480
0.14870	0.48277
-0.02981	-0.58856
0.30171	-2.39961
0.12320	0.20219
0.12320	1.68163
0.17421	-0.43551
0.27621	0.61031
0.27621	0.86539
0.02119	0.91640
-0.10631	0.63582
0.02119	-0.53754
0.35272	-0.18043
0.30171	0.15117
0.35272	0.20219
0.19971	0.32972
-0.10631	-0.63957
0.19971	-0.25695
0.25071	-0.15492
0.12320	0.30422
0.25071	0.45726
-0.00431	0.30422
0.07220	0.55929
0.17421	0.15117
0.12320	0.40625
0.19971	-0.23145
0.17421	-0.76711
0.09770	0.68683
0.14870	0.86539
0.12320	1.17148
0.27621	-2.68019
0.07220	0.50828
0.12320	0.94191
-0.02981	0.25320
0.17421	-0.00188
0.25071	-0.28246
0.19971	0.12566
0.27621	0.73785
0.02119	-0.07840
0.14870	0.02363
0.09770	0.63582
0.12320	0.12566
0.19971	0.43176
0.27621	0.10015
-0.10631	0.04914
0.12320	-1.45582
0.22521	0.22769
0.12320	0.81437
0.22521	0.48277
0.09770	0.15117
0.25071	0.35523
0.09770	0.61031
0.27621	-0.07840
0.02119	0.10015
0.19971	0.61031
0.17421	-1.65988
0.14870	1.35003
0.14870	0.10015
0.02119	-0.63957
0.19971	0.55929
0.22521	0.76336
0.30171	0.07465
0.14870	0.25320
-0.00431	0.53379
0.27621	-1.07320
0.12320	0.12566
0.27621	1.75816
0.07220	0.15117
0.17421	-0.76711
0.07220	-1.02219
0.22521	0.76336
0.07220	0.73785
0.12320	0.43176
0.07220	0.20219
0.17421	0.27871
0.14870	-0.05289
0.19971	0.35523
0.12320	-0.10391
0.19971	0.12566
0.22521	0.32972
0.19971	0.43176
0.07220	-1.65988
0.09770	-0.25695
0.04670	1.50308
0.07220	-0.76711
0.22521	0.38074
0.17421	0.30422
0.19971	0.32972
0.09770	0.35523
0.19971	0.89089
0.17421	-0.51203
0.17421	0.22769
0.12320	0.25320
0.07220	-1.02219
0.04670	0.10015
0.14870	0.55929
0.17421	0.55929
0.12320	-0.46102
0.37822	0.35523
0.30171	0.45726
0.12320	0.58480
-0.18282	0.35523
-0.23382	-1.04770
0.35272	-0.00188
0.30171	0.81437
0.27621	0.32972
0.19971	0.25320
0.12320	-0.07840
0.17421	-0.05289
0.02119	0.53379
0.14870	0.04914
0.22521	-1.17523
-0.08081	0.78886
0.25071	-0.38449
0.02119	1.17148
0.19971	-0.43551
0.19971	0.53379
0.14870	-0.25695
0.09770	0.68683
0.04670	-0.05289
0.14870	0.07465
0.22521	0.86539
0.14870	0.43176
0.32721	-0.38449
0.25071	-0.30797
0.07220	0.22769
0.12320	0.27871
-0.00431	0.17668
0.07220	-0.00188
0.30171	0.04914
0.14870	-0.20594
0.30171	0.22769
0.12320	0.68683
0.07220	-0.05289
0.17421	-0.10391
0.07220	0.83988
0.12320	0.73785
0.19971	-0.23145
0.17421	0.55929
0.09770	-0.35899
0.12320	-1.30277
0.22521	0.66132
0.17421	0.76336
0.25071	0.66132
-0.13181	-0.43551
0.14870	0.50828
0.09770	-0.12942
0.27621	0.25320
0.17421	-0.81812
0.25071	0.53379
0.07220	0.99292
0.19971	0.68683
0.09770	-1.09871
0.04670	0.30422
0.12320	0.78886
-0.02981	-0.46102
0.17421	-1.60887
0.40372	0.43176
0.27621	0.45726
0.09770	1.24800
0.22521	0.55929
0.02119	0.86539
0.17421	-1.17523
0.07220	-0.02739
0.22521	0.45726
0.12320	0.20219
0.14870	1.14597
-0.02981	0.25320
0.25071	-0.66508
0.04670	0.20219
0.17421	0.50828
0.09770	-0.81812
0.14870	0.25320
0.17421	0.32972
0.12320	-0.18043
0.25071	0.78886
0.22521	0.10015
0.27621	-0.61406
-0.15732	0.12566
0.04670	1.57960
0.17421	-0.92016
0.25071	-0.30797
0.09770	0.99292
0.27621	-0.10391
0.14870	0.43176
0.17421	0.91640
0.12320	-0.35899
0.09770	-0.92016
0.17421	0.35523
0.07220	-0.28246
0.12320	0.55929
0.07220	0.27871
0.19971	0.30422
0.02119	0.30422
0.25071	0.04914
0.12320	0.35523
0.22521	0.07465
0.17421	-0.71609
0.12320	0.35523
0.14870	0.17668
0.12320	0.43176
0.17421	0.58480
0.14870	-0.30797
0.19971	0.48277
0.19971	-0.38449
0.37822	0.35523
0.09770	0.20219
-0.25932	-0.07840
-0.51434	0.76336
0.25071	-0.71609
0.45472	-1.86394
0.60773	1.04394
0.27621	1.06945
0.19971	0.96742
0.14870	0.89089
0.04670	-0.15492
0.07220	0.20219
0.07220	-0.56305
0.07220	-0.10391
0.22521	0.96742
0.07220	-0.10391
0.19971	0.12566
0.14870	0.50828
0.25071	0.04914
-0.05531	0.25320
0.17421	0.22769
0.22521	-0.00188
0.19971	0.32972
0.17421	0.99292
0.14870	-0.53754
0.14870	-0.23145
0.12320	-0.38449
0.25071	-0.12942
0.17421	0.25320
0.07220	-0.18043
0.22521	0.55929
0.04670	0.38074
0.19971	0.38074
-0.00431	0.20219
0.19971	0.12566
0.07220	0.20219
0.14870	0.25320
0.17421	1.35003
0.07220	-1.78742
0.19971	0.76336
0.09770	0.27871
0.25071	0.10015
0.14870	-0.00188
0.22521	0.02363
0.09770	0.04914
0.14870	0.07465
0.17421	0.10015
0.07220	0.17668
0.07220	0.38074
0.14870	-0.00188
0.25071	-0.10391
0.12320	-0.00188
0.22521	0.22769
0.02119	-0.00188
0.17421	1.52859
0.07220	-1.17523
0.27621	-0.15492
0.09770	0.63582
0.17421	0.10015
-0.00431	0.45726
0.25071	0.40625
0.32721	0.38074
0.12320	0.66132
0.09770	0.04914
-0.02981	0.10015
0.14870	-2.06800
0.22521	0.99292
0.25071	-0.00188
0.02119	1.12046
0.17421	0.22769
0.25071	0.55929
0.17421	-0.79262
0.14870	0.40625
0.27621	0.73785
-0.13181	-0.58856
-0.08081	0.27871
0.19971	0.66132
0.48022	0.58480
0.27621	0.38074
0.07220	0.40625
0.22521	0.12566
-0.00431	-0.12942
0.19971	0.25320
0.14870	-0.30797
0.19971	-0.20594
0.19971	0.66132
0.19971	0.38074
0.14870	0.02363
-0.05531	-1.07320
0.07220	0.07465
0.14870	0.32972
0.22521	0.20219
0.14870	0.40625
0.07220	0.40625
0.12320	0.35523
0.17421	0.04914
0.22521	0.94191
0.19971	-0.05289
0.22521	0.40625
0.12320	-0.43551
0.22521	0.40625
-0.08081	-0.76711
0.22521	-0.05289
0.02119	0.22769
0.22521	0.68683
0.25071	0.99292
0.32721	-0.23145
-0.31033	-0.23145
0.19971	0.25320
0.22521	0.35523
0.17421	-0.02739
0.14870	-0.30797
0.14870	-0.10391
0.14870	0.27871
0.22521	0.02363
0.09770	-0.28246
0.07220	0.66132
-0.15732	0.40625
0.17421	0.15117
0.25071	1.06945
0.40372	-1.37929
0.14870	0.04914
0.07220	0.17668
0.12320	0.27871
0.17421	0.35523
0.09770	0.55929
0.17421	0.30422
0.27621	0.86539
-0.13181	-0.58856
0.04670	-0.53754
0.22521	0.91640
0.30171	0.20219
0.17421	0.55929
0.25071	-0.15492
0.07220	0.02363
0.09770	0.02363
0.07220	-0.18043
0.22521	-0.15492
0.04670	-0.20594
0.12320	0.07465
0.14870	0.27871
0.14870	0.25320
0.22521	0.50828
0.07220	-0.20594
0.19971	0.48277
0.19971	0.45726
0.14870	0.32972
0.14870	0.32972
0.09770	-0.25695
0.09770	-0.20594
0.22521	0.04914
0.14870	0.61031
0.27621	0.25320
0.12320	-0.61406
0.17421	0.96742
0.09770	0.76336
0.14870	0.43176
0.14870	-0.86914
0.07220	-0.89465
0.09770	-0.74160
0.12320	0.73785
0.07220	1.17148
0.22521	0.76336
0.14870	0.78886
0.30171	-1.09871
0.25071	0.53379
0.14870	0.17668
0.12320	0.04914
0.12320	-0.41000
0.04670	-0.05289
0.17421	0.27871
0.02119	0.17668
0.09770	-0.28246
0.09770	0.40625
0.07220	0.63582
0.27621	-0.84363
0.14870	0.32972
0.14870	0.78886
0.12320	0.68683
0.09770	-0.23145
0.22521	0.22769
0.02119	0.12566
0.17421	0.81437
0.09770	0.12566
0.30171	0.15117
0.17421	1.01843
0.37822	-1.37929
-0.15732	0.02363
-0.02981	-0.33348
0.37822	0.48277
0.30171	0.30422
0.14870	0.45726
-0.05531	0.20219
0.25071	0.35523
0.09770	0.43176
0.17421	-0.58856
0.07220	0.15117
0.17421	0.40625
0.12320	0.10015
0.12320	0.20219
0.17421	0.22769
0.12320	0.10015
0.22521	0.15117
0.09770	1.09496
0.17421	-0.41000
0.02119	-1.94047
0.14870	0.73785
0.12320	1.37554
0.12320	0.78886
0.12320	-1.20074
0.07220	0.22769
0.14870	0.50828
0.09770	0.20219
0.32721	0.58480
0.07220	-0.74160
0.19971	0.32972
0.12320	0.61031
0.14870	0.63582
0.17421	-0.94566
0.25071	0.30422
0.12320	0.22769
0.09770	-0.61406
0.09770	0.15117
0.09770	0.25320
0.14870	0.55929
0.30171	0.35523
0.17421	0.83988
-0.00431	0.27871
0.25071	-2.22105
0.04670	-0.00188
0.02119	0.27871
0.04670	1.14597
0.27621	0.78886
0.25071	0.76336
0.22521	0.53379
0.14870	-0.15492
0.22521	0.25320
0.19971	-0.23145
0.14870	0.55929
0.14870	-0.97117
0.12320	0.40625
0.09770	-0.51203
0.09770	0.25320
0.09770	0.66132
0.09770	-0.25695
0.04670	0.73785
0.17421	-0.66508
0.12320	0.48277
0.17421	0.35523
0.25071	0.55929
0.09770	-0.38449
0.17421	0.81437
0.12320	-0.00188
0.19971	-0.05289
-0.05531	0.76336
0.09770	-0.41000
0.42922	0.38074
0.19971	0.73785
0.25071	-0.00188
0.12320	-0.00188
0.02119	-0.43551
0.09770	0.32972
0.14870	-0.02739
0.04670	0.45726
0.07220	-0.61406
0.40372	0.53379
0.19971	0.32972
0.27621	0.66132
0.12320	0.35523
-0.02981	0.10015
0.17421	0.55929
0.04670	-0.51203
0.25071	-0.20594
0.14870	0.86539
0.17421	-1.48133
0.25071	0.32972
0.17421	0.81437
-0.00431	-0.05289
0.14870	1.12046
0.04670	-0.99668
0.17421	0.45726
0.19971	0.58480
0.12320	0.89089
0.19971	-0.41000
0.22521	-0.00188
0.07220	0.32972
0.17421	-0.71609
0.17421	0.12566
0.07220	0.43176
0.19971	0.48277
0.09770	0.25320
0.12320	0.50828
0.22521	-0.56305
-0.00431	0.10015
0.12320	0.38074
0.09770	-0.02739
0.09770	0.25320
0.22521	0.32972
0.09770	0.17668
0.17421	0.43176
0.09770	0.35523
0.27621	-1.32828
0.12320	-0.66508
0.14870	0.20219
0.09770	0.15117
0.17421	1.09496
0.07220	1.01843
0.27621	-1.07320
0.02119	0.71234
-0.28482	-0.28246
0.12320	0.43176
0.58223	0.63582
0.32721	0.10015
0.30171	-0.20594
0.25071	-0.25695
0.07220	-0.71609
0.14870	-0.18043
0.12320	0.71234
0.12320	1.52859
0.14870	0.68683
-0.00431	-0.74160
0.04670	-0.28246
0.09770	0.15117
0.14870	0.50828
0.19971	0.43176
0.17421	-0.66508
0.19971	0.66132
0.09770	0.30422
0.14870	-0.07840
0.07220	-0.30797
0.14870	0.63582
0.32721	0.94191
0.27621	-0.10391
-0.18282	-0.41000
-0.02981	-0.23145
0.17421	0.04914
0.30171	0.53379
0.22521	0.35523
0.19971	0.30422
0.04670	0.22769
-0.00431	0.25320
0.25071	0.15117
0.25071	-0.10391
0.14870	-0.53754
0.17421	0.20219
0.12320	0.45726
0.14870	0.63582
0.17421	-0.25695
0.07220	0.55929
0.17421	0.35523
0.09770	-0.48652
0.07220	-0.15492
0.07220	-0.12942
0.07220	0.10015
0.12320	0.48277
0.19971	0.27871
0.32721	0.58480
0.02119	0.07465
-0.05531	0.25320
0.25071	0.48277
0.30171	0.12566
0.32721	0.30422
0.12320	0.22769
0.14870	0.15117
0.19971	0.20219
0.07220	0.04914
0.07220	0.22769
0.09770	-0.18043
0.19971	-0.61406
0.14870	0.66132
0.09770	0.48277
-0.02981	0.07465
0.02119	-1.32828
0.37822	0.22769
-0.13181	0.86539
0.37822	1.06945
0.17421	0.20219
0.30171	0.30422
0.14870	1.29902
0.22521	-1.88945
0.12320	-0.30797
0.09770	0.58480
0.12320	0.78886
0.14870	0.50828
0.07220	0.53379
-0.05531	-0.92016
0.12320	-0.10391
0.09770	-0.76711
0.17421	0.99292
0.19971	1.06945
0.17421	-1.88945
0.22521	1.40105
-0.10631	0.25320
0.19971	-0.35899
0.27621	-0.05289
0.25071	0.30422
0.12320	1.09496
0.04670	0.81437
-0.02981	0.83988
0.19971	0.83988
0.25071	-0.41000
0.07220	-1.73640
0.17421	0.38074
0.12320	0.78886
0.09770	0.43176
0.22521	-0.28246
0.14870	-0.28246
0.12320	0.15117
0.12320	0.07465
0.12320	-0.05289
0.27621	0.04914
0.07220	-0.18043
0.27621	0.20219
0.07220	0.30422
0.14870	0.55929
0.17421	0.22769
0.32721	0.50828
-0.10631	0.94191
-0.08081	-0.46102
0.27621	-0.66508
0.27621	0.17668
0.19971	0.30422
0.12320	1.01843
0.27621	-1.25176
0.12320	0.66132
0.25071	0.94191
0.04670	1.14597
-0.05531	-1.68539
0.25071	0.12566
0.19971	0.04914
0.22521	0.04914
0.04670	0.10015
0.22521	1.12046
-0.00431	0.38074
0.27621	0.35523
0.02119	-0.15492
0.07220	-0.23145
0.22521	-0.20594
0.17421	-0.12942
0.30171	0.20219
0.12320	0.48277
0.19971	-0.38449
0.07220	0.27871
0.12320	0.53379
0.17421	-0.46102
0.09770	0.02363
0.19971	0.25320
0.07220	0.83988
0.19971	0.83988
0.19971	-2.04250
0.19971	0.81437
0.14870	1.24800
0.14870	1.27351
0.19971	-0.89465
0.22521	-0.97117
-0.13181	-0.61406
-0.10631	0.76336
0.30171	-1.14973
0.30171	0.71234
0.27621	0.78886
0.22521	0.68683
0.09770	0.20219
-0.13181	-0.02739
0.14870	0.20219
0.55673	0.35523
0.09770	-0.25695
0.04670	0.12566
0.32721	-0.05289
0.14870	0.35523
-0.02981	0.20219
0.02119	-0.15492
0.17421	0.45726
0.19971	0.45726
0.25071	-0.20594
0.07220	0.45726
0.12320	-0.69059
0.04670	-0.07840
0.19971	0.43176
0.09770	0.17668
0.14870	0.89089
0.22521	0.73785
0.12320	-0.58856
0.19971	-0.23145
0.19971	1.17148
0.17421	-2.14453
0.17421	0.99292
0.12320	0.91640
0.19971	0.50828
-0.02981	0.83988
0.17421	-1.63437
0.07220	1.06945
0.12320	0.15117
0.22521	0.43176
0.22521	-1.12422
0.25071	0.12566
0.12320	0.55929
0.22521	-0.43551
0.02119	0.15117
0.22521	0.86539
0.14870	0.20219
