0.12320	0.20219
0.14870	0.10015
0.22521	0.22769
0.07220	0.12566
0.22521	0.04914
0.14870	0.17668
0.12320	0.15117
0.22521	0.20219
0.09770	0.15117
0.12320	0.07465
0.12320	0.17668
0.14870	0.07465
0.22521	0.15117
0.09770	0.15117
0.14870	0.15117
0.14870	0.20219
0.17421	0.04914
0.14870	0.15117
0.09770	0.22769
0.14870	0.07465
0.14870	0.22769
0.09770	0.07465
0.19971	0.22769
0.09770	0.12566
0.12320	0.07465
0.19971	0.20219
0.07220	0.10015
0.14870	0.15117
0.14870	0.12566
0.07220	0.07465
0.25071	0.22769
0.07220	0.17668
0.17421	0.15117
0.17421	0.17668
0.12320	0.12566
0.22521	0.15117
0.09770	0.10015
0.22521	0.22769
0.09770	0.02363
0.19971	0.17668
0.14870	0.07465
0.14870	0.15117
0.17421	0.12566
0.07220	0.12566
0.19971	0.20219
0.14870	0.15117
0.14870	0.10015
0.14870	0.17668
0.14870	0.10015
0.19971	0.22769
0.07220	0.15117
0.12320	0.12566
0.14870	0.12566
0.09770	0.12566
0.19971	0.17668
0.07220	0.07465
0.14870	0.20219
0.09770	0.10015
0.22521	0.25320
0.07220	0.07465
0.25071	0.22769
0.07220	0.12566
0.19971	0.20219
0.12320	0.07465
0.14870	0.20219
0.14870	0.15117
0.12320	0.25320
0.12320	0.15117
0.14870	0.15117
0.14870	0.20219
0.12320	0.12566
0.17421	0.12566
0.14870	0.12566
0.12320	0.15117
0.14870	0.12566
0.14870	0.15117
0.09770	0.10015
0.12320	0.12566
0.17421	0.25320
0.12320	0.17668
0.14870	0.15117
0.14870	0.02363
0.12320	0.20219
0.07220	0.07465
0.22521	0.20219
0.09770	0.04914
0.19971	0.22769
0.09770	0.10015
0.17421	0.20219
0.07220	0.10015
0.14870	0.22769
0.14870	0.15117
0.14870	0.12566
0.12320	0.15117
0.14870	0.20219
0.19971	0.25320
0.09770	0.15117
0.12320	0.20219
0.09770	0.12566
0.14870	0.12566
0.22521	0.22769
0.09770	0.12566
0.14870	0.10015
0.14870	0.20219
0.17421	0.10015
0.19971	0.15117
0.09770	0.22769
0.12320	0.07465
0.12320	0.20219
0.09770	0.15117
0.14870	0.12566
0.17421	0.20219
0.09770	0.17668
0.14870	0.15117
0.17421	0.22769
0.07220	0.12566
0.17421	0.12566
0.09770	0.22769
0.17421	0.15117
0.19971	0.15117
0.07220	0.22769
0.17421	0.07465
0.22521	0.12566
0.12320	0.22769
0.09770	0.15117
0.19971	0.12566
0.12320	0.15117
0.14870	0.15117
0.19971	0.15117
0.09770	0.15117
0.14870	0.07465
0.17421	0.22769
0.14870	0.07465
0.22521	0.20219
0.04670	0.10015
0.14870	0.10015
0.17421	0.17668
0.14870	0.12566
0.22521	0.22769
0.09770	0.10015
0.22521	0.15117
0.09770	0.15117
0.19971	0.17668
0.14870	0.17668
0.14870	0.04914
0.09770	0.15117
0.04670	0.12566
0.22521	0.22769
0.09770	0.15117
0.19971	0.04914
0.14870	0.20219
0.12320	0.04914
0.19971	0.22769
0.09770	0.15117
0.19971	0.15117
0.17421	0.17668
0.14870	0.17668
0.17421	0.15117
0.12320	0.07465
0.14870	0.17668
0.14870	0.02363
0.12320	0.15117
0.09770	0.10015
0.22521	0.17668
0.09770	0.17668
0.22521	0.10015
0.09770	0.20219
0.22521	0.17668
0.07220	0.12566
0.14870	0.15117
0.12320	0.12566
0.14870	0.15117
0.12320	0.25320
0.19971	0.10015
0.14870	0.22769
0.12320	0.07465
0.12320	0.15117
0.09770	0.17668
0.19971	0.25320
0.09770	0.12566
0.14870	0.15117
0.14870	0.15117
0.14870	0.17668
0.22521	0.15117
0.07220	0.15117
0.22521	0.25320
0.09770	0.04914
0.19971	0.12566
0.12320	0.15117
0.17421	0.07465
0.22521	0.17668
0.09770	0.12566
0.14870	0.12566
0.14870	0.22769
0.14870	0.10015
0.19971	0.17668
0.14870	0.15117
0.22521	0.17668
0.14870	0.12566
0.14870	0.07465
0.22521	0.17668
0.07220	0.04914
0.12320	0.15117
0.12320	0.15117
0.09770	0.10015
0.22521	0.25320
0.14870	0.12566
0.12320	0.12566
0.19971	0.20219
0.07220	0.07465
0.22521	0.12566
0.14870	0.20219
0.14870	0.10015
0.22521	0.20219
0.09770	0.04914
0.14870	0.22769
0.14870	0.07465
0.14870	0.20219
0.12320	0.12566
0.14870	0.15117
0.17421	0.15117
0.17421	0.17668
0.14870	0.15117
0.09770	0.07465
0.22521	0.17668
0.07220	0.07465
0.12320	0.15117
0.14870	0.20219
0.17421	0.15117
0.14870	0.10015
0.09770	0.12566
0.22521	0.17668
0.14870	0.15117
0.14870	0.04914
0.12320	0.25320
0.12320	0.10015
0.14870	0.07465
0.09770	0.15117
0.14870	0.27871
0.07220	0.12566
0.22521	0.22769
0.09770	0.07465
0.19971	0.20219
0.09770	0.12566
0.22521	0.15117
0.07220	0.15117
0.19971	0.12566
0.14870	0.17668
0.12320	0.12566
0.17421	0.17668
0.14870	0.17668
0.14870	0.12566
0.12320	0.04914
0.14870	0.22769
0.12320	0.10015
0.12320	0.22769
0.12320	0.04914
0.14870	0.20219
0.14870	0.07465
0.14870	0.22769
0.14870	0.20219
0.14870	0.15117
0.14870	0.12566
0.09770	0.17668
0.17421	0.15117
0.07220	0.15117
0.22521	0.15117
0.07220	0.12566
0.22521	0.15117
0.07220	0.12566
0.22521	0.12566
0.07220	0.12566
0.22521	0.15117
0.12320	0.12566
0.22521	0.07465
0.07220	0.17668
0.19971	0.17668
0.09770	0.10015
0.22521	0.15117
0.17421	0.07465
0.12320	0.12566
0.14870	0.25320
0.09770	0.15117
0.19971	0.17668
0.04670	0.04914
0.19971	0.25320
0.14870	0.04914
0.14870	0.20219
0.12320	0.04914
0.22521	0.20219
0.17421	0.07465
0.14870	0.15117
0.07220	0.17668
0.19971	0.15117
0.09770	0.12566
0.17421	0.15117
0.09770	0.12566
0.22521	0.15117
0.07220	0.12566
0.19971	0.15117
0.07220	0.12566
0.12320	0.17668
0.14870	0.15117
0.12320	0.22769
0.17421	0.07465
0.14870	0.12566
0.07220	0.15117
0.25071	0.07465
0.12320	0.20219
0.14870	0.12566
0.22521	0.22769
0.07220	0.10015
0.19971	0.17668
0.17421	0.15117
0.17421	0.15117
0.12320	0.22769
0.12320	0.15117
0.14870	0.22769
0.07220	0.07465
0.14870	0.15117
0.07220	0.12566
0.14870	0.20219
0.17421	0.15117
0.09770	0.07465
0.22521	0.20219
0.09770	0.12566
0.17421	0.17668
0.07220	0.10015
0.19971	0.17668
0.09770	0.07465
0.22521	0.22769
0.09770	0.02363
0.19971	0.17668
0.09770	0.07465
0.22521	0.20219
0.07220	0.10015
0.22521	0.12566
0.14870	0.17668
0.12320	0.15117
0.12320	0.15117
0.14870	0.12566
0.14870	0.12566
0.14870	0.15117
0.14870	0.15117
0.14870	0.15117
0.14870	0.12566
0.17421	0.15117
0.12320	0.17668
0.12320	0.12566
0.12320	0.15117
0.14870	0.15117
0.14870	0.02363
0.12320	0.15117
0.09770	0.10015
0.22521	0.15117
0.17421	0.07465
0.09770	0.04914
0.19971	0.20219
0.14870	0.15117
0.19971	0.17668
0.17421	0.17668
0.14870	0.04914
0.19971	0.20219
0.07220	0.15117
0.17421	0.07465
0.12320	0.25320
0.07220	0.10015
0.12320	0.10015
0.22521	0.20219
0.09770	0.15117
0.12320	0.12566
0.22521	0.22769
0.07220	0.10015
0.12320	0.17668
0.14870	0.17668
0.09770	0.12566
0.19971	0.12566
0.14870	0.12566
0.14870	0.07465
0.22521	0.20219
0.12320	0.12566
0.14870	0.12566
0.12320	0.27871
0.09770	0.04914
0.17421	0.12566
0.14870	0.12566
0.09770	0.12566
0.19971	0.25320
0.07220	0.20219
0.12320	0.02363
0.14870	0.22769
0.12320	0.12566
0.22521	0.15117
0.07220	0.15117
0.14870	0.10015
0.17421	0.20219
0.17421	0.04914
0.22521	0.17668
0.09770	0.20219
0.14870	0.15117
0.14870	0.15117
0.14870	0.17668
0.12320	0.22769
0.14870	0.07465
0.14870	0.12566
0.07220	0.12566
0.22521	0.12566
0.09770	0.12566
0.22521	0.17668
0.09770	0.15117
0.12320	0.10015
0.14870	0.25320
0.14870	0.04914
0.12320	0.22769
0.14870	0.07465
0.14870	0.12566
0.09770	0.17668
0.17421	0.10015
0.07220	0.17668
0.22521	0.10015
0.17421	0.15117
0.19971	0.10015
0.12320	0.25320
0.14870	0.02363
0.22521	0.20219
0.07220	0.04914
0.17421	0.17668
0.07220	0.10015
0.19971	0.15117
0.09770	0.15117
0.22521	0.15117
0.17421	0.22769
0.17421	0.04914
0.22521	0.25320
0.07220	0.17668
0.22521	0.10015
0.14870	0.20219
0.12320	0.15117
0.19971	0.10015
0.19971	0.15117
0.09770	0.20219
0.12320	0.10015
0.09770	0.15117
0.04670	0.15117
0.17421	0.15117
0.22521	0.20219
0.07220	0.10015
0.12320	0.15117
0.14870	0.25320
0.14870	0.04914
0.22521	0.15117
0.14870	0.12566
0.12320	0.10015
0.22521	0.15117
0.17421	0.15117
0.17421	0.07465
0.22521	0.17668
0.12320	0.20219
0.04670	0.04914
0.19971	0.15117
0.09770	0.15117
0.14870	0.22769
0.14870	0.12566
0.07220	0.07465
0.22521	0.25320
0.07220	0.10015
0.19971	0.22769
0.09770	0.12566
0.19971	0.17668
0.07220	0.15117
0.14870	0.15117
0.19971	0.12566
0.09770	0.02363
0.22521	0.22769
0.07220	0.12566
0.14870	0.15117
0.17421	0.12566
0.14870	0.07465
0.14870	0.17668
0.14870	0.04914
0.19971	0.15117
0.14870	0.20219
0.14870	0.12566
0.19971	0.15117
0.09770	0.22769
0.14870	0.04914
0.12320	0.15117
0.07220	0.20219
0.14870	0.12566
0.22521	0.15117
0.14870	0.20219
0.19971	0.12566
0.19971	0.12566
0.12320	0.17668
0.07220	0.22769
0.12320	0.17668
0.19971	0.07465
0.14870	0.20219
0.09770	0.00000
0.14870	0.00000
0.19971	0.15117
0.09770	0.12566
0.17421	0.25320
0.19971	0.15117
0.12320	0.07465
0.14870	0.22769
0.17421	0.15117
0.09770	0.17668
0.22521	0.12566
0.07220	0.04914
0.14870	0.25320
0.12320	0.07465
0.14870	0.20219
0.14870	0.17668
0.04670	0.07465
0.19971	0.17668
0.12320	0.12566
0.07220	0.12566
0.14870	0.17668
0.14870	0.10015
0.07220	0.15117
0.22521	0.15117
0.14870	0.07465
0.12320	0.15117
0.22521	0.20219
0.09770	0.17668
0.14870	0.15117
0.17421	0.15117
0.07220	0.17668
0.12320	0.15117
0.19971	0.22769
0.07220	0.04914
0.22521	0.22769
0.09770	0.10015
0.17421	0.25320
0.14870	0.15117
0.12320	0.22769
0.09770	0.10015
0.14870	0.10015
0.17421	0.17668
0.07220	0.02363
0.19971	0.15117
0.14870	0.07465
0.12320	0.15117
0.19971	0.15117
0.09770	0.10015
0.14870	0.22769
0.12320	0.12566
0.07220	0.15117
0.22521	0.15117
0.09770	0.07465
0.22521	0.20219
0.09770	0.10015
0.12320	0.20219
0.14870	0.15117
0.14870	0.12566
0.19971	0.22769
0.09770	0.10015
0.19971	0.12566
0.14870	0.04914
0.17421	0.15117
0.12320	0.22769
0.07220	0.10015
0.19971	0.10015
0.07220	0.07465
0.14870	0.15117
0.14870	0.15117
0.14870	0.07465
0.19971	0.04914
0.17421	0.10015
0.14870	0.32972
0.12320	0.04914
0.14870	0.22769
0.12320	0.55929
0.14870	-0.86914
0.22521	0.15117
0.17421	0.35523
0.14870	0.61031
0.09770	0.25320
0.12320	-0.05289
0.07220	0.35523
0.14870	-0.02739
0.14870	0.15117
0.04670	0.12566
0.22521	-0.61406
0.09770	0.25320
0.22521	0.35523
0.12320	0.27871
0.14870	0.22769
0.12320	0.20219
0.07220	0.12566
0.17421	0.17668
0.07220	0.10015
0.22521	0.17668
0.09770	0.02363
0.22521	0.17668
0.09770	0.15117
0.19971	0.15117
0.17421	0.12566
0.14870	0.15117
0.14870	0.15117
0.22521	0.20219
0.09770	0.12566
0.19971	0.20219
0.14870	0.10015
0.12320	0.17668
0.14870	0.17668
0.12320	0.10015
0.14870	0.10015
0.14870	0.15117
0.12320	0.10015
0.22521	0.20219
0.09770	0.07465
0.19971	0.17668
0.09770	0.07465
0.22521	0.17668
0.14870	0.10015
0.14870	0.30422
0.12320	0.22769
0.14870	0.04914
0.17421	0.04914
0.14870	0.04914
0.14870	-0.18043
0.14870	0.32972
0.22521	-0.00188
0.09770	0.61031
0.22521	0.15117
0.04670	0.10015
0.19971	0.25320
0.12320	0.07465
0.14870	0.17668
0.02119	0.07465
0.35272	0.10015
0.17421	0.02363
0.25071	0.20219
-0.02981	0.04914
-0.10631	0.22769
-0.36133	0.10015
0.32721	0.20219
0.53123	0.25320
0.50573	0.07465
-0.18282	0.17668
0.14870	0.17668
0.07220	0.15117
0.55673	0.20219
0.50573	0.10015
-0.00431	0.32972
-0.08081	-0.05289
-0.08081	0.40625
-0.00431	-0.02739
0.02119	-0.56305
0.09770	0.38074
0.48022	0.68683
0.40372	-0.15492
0.27621	0.40625
-0.18282	0.02363
0.30171	0.27871
0.14870	-0.38449
0.55673	0.12566
-1.02437	0.71234
-0.08081	-0.86914
0.45472	0.83988
1.06676	0.12566
-0.56534	1.68163
0.14870	-2.70570
0.42922	0.43176
-0.05531	0.45726
0.35272	0.35523
0.30171	-0.02739
0.35272	1.78367
0.35272	-3.75152
-0.31033	1.88570
0.12320	0.68683
0.53123	1.32453
-0.13181	1.60511
-1.73842	0.81437
-0.97337	-1.20074
1.06676	-1.68539
0.88825	-2.96078
-0.00431	-1.37929
1.09226	3.92632
0.73524	-0.25695
0.22521	1.04394
0.83725	-2.73121
0.42922	3.90081
0.12320	3.39065
-0.38683	-4.36370
-0.25932	-0.15492
-1.27939	0.15117
-0.48884	0.38074
0.02119	-4.59327
0.02119	5.55881
0.19971	-2.90976
2.11233	3.49268
-2.22295	3.41616
0.86275	1.01843
1.27078	0.68683
1.16877	-3.41992
-0.31033	0.61031
-0.25932	-1.27726
0.70974	-0.41000
0.17421	1.37554
0.45472	0.17668
1.11776	-0.76711
-0.31033	-1.40480
-3.16651	0.15117
0.99026	-0.23145
0.55673	0.71234
0.32721	0.32972
0.63323	1.17148
0.09770	2.62542
0.81175	0.58480
0.53123	-1.48133
0.68424	5.43127
-0.05531	-10.28150
-0.69285	1.78367
-0.23382	2.62542
-0.18282	2.29382
0.63323	2.01323
0.63323	0.83988
-1.22839	0.02363
0.88825	-0.56305
0.32721	-1.20074
1.60230	-2.55265
-2.37596	-1.30277
0.19971	0.71234
1.04126	1.17148
0.83725	-1.86394
-0.15732	-5.28198
0.04670	2.21730
-0.31033	2.14077
-0.41233	2.59991
0.02119	0.61031
0.42922	-0.69059
0.58223	0.81437
0.30171	0.48277
0.27621	0.10015
0.25071	-0.00188
0.58223	0.38074
0.09770	-3.70050
-0.43783	-1.07320
-0.13181	3.03355
-0.23382	2.14077
-0.59084	-0.00188
1.04126	-0.25695
1.55129	0.96742
0.12320	-0.53754
-0.82036	0.86539
1.16877	1.32453
0.35272	1.75816
-1.15188	-7.19506
0.73524	-4.92487
-0.23382	-3.16484
0.22521	2.75296
0.12320	3.23761
-0.20832	2.31933
0.02119	1.45206
-0.28482	1.75816
0.93925	0.76336
0.07220	0.15117
0.02119	0.89089
0.60773	-2.37410
0.37822	-2.19554
0.17421	0.91640
0.02119	-3.90456
-0.33583	1.37554
0.02119	2.14077
0.22521	1.22250
0.14870	1.96222
0.45472	0.12566
0.65874	0.43176
-0.53984	-0.02739
0.32721	-0.43551
0.42922	-0.61406
0.32721	-1.81293
0.45472	-0.10391
-0.31033	-1.60887
1.50029	-1.22625
-2.70748	1.57960
-0.69285	1.73265
1.50029	1.14597
0.73524	1.37554
0.93925	0.89089
0.07220	0.58480
0.17421	-0.84363
-0.15732	1.19699
-0.05531	-0.76711
0.04670	-0.92016
0.02119	-1.55785
0.07220	1.93671
0.12320	0.66132
0.04670	1.29902
0.32721	1.22250
0.07220	-3.19035
-0.02981	0.17668
0.04670	0.53379
0.30171	0.15117
0.73524	-1.48133
0.63323	0.58480
0.63323	-1.94047
0.12320	0.81437
-0.18282	1.98773
-0.79486	1.12046
-0.05531	0.78886
-1.33039	0.45726
-1.48340	0.53379
1.34728	0.66132
1.88281	-0.10391
1.16877	0.25320
0.70974	-0.38449
0.55673	-1.04770
0.58223	0.53379
0.17421	1.35003
-0.38683	-1.48133
-0.18282	0.55929
-1.55991	1.09496
-2.86049	-1.43031
-0.08081	1.52859
1.14327	2.01323
1.11776	0.63582
1.11776	0.10015
1.01576	-0.61406
0.45472	-1.91496
0.19971	-1.09871
0.04670	-1.65988
-0.10631	-0.05289
-0.00431	0.96742
0.02119	1.98773
0.27621	0.63582
0.27621	0.25320
-0.00431	0.81437
-0.05531	0.40625
-0.02981	1.17148
0.09770	0.86539
0.02119	0.20219
0.07220	-0.25695
0.09770	-0.05289
0.02119	0.12566
0.27621	0.20219
0.58223	-2.29757
0.12320	1.42656
0.09770	-0.81812
0.25071	0.91640
0.02119	-0.97117
0.02119	1.22250
-0.15732	0.66132
0.12320	0.73785
0.17421	0.71234
0.25071	1.12046
0.55673	0.35523
-0.48884	0.07465
0.53123	-0.38449
0.37822	-0.15492
0.07220	0.20219
0.02119	-1.17523
-0.05531	0.07465
0.12320	0.20219
0.35272	4.61503
0.58223	0.12566
0.04670	-1.37929
-0.10631	-0.74160
-0.20832	0.89089
0.30171	-0.25695
0.02119	0.32972
0.30171	0.25320
0.12320	-0.00188
0.65874	0.12566
-0.33583	0.50828
0.22521	-0.71609
-0.18282	1.06945
0.58223	3.13558
0.81175	-6.20026
0.25071	-0.56305
-0.36133	1.88570
-0.25932	2.14077
0.07220	1.24800
0.17421	1.24800
0.12320	0.53379
0.22521	-0.10391
0.22521	-0.41000
0.14870	1.35003
0.09770	-1.27726
0.02119	-0.94566
-0.08081	1.45206
0.53123	-0.51203
0.60773	0.91640
0.02119	-0.38449
0.30171	0.71234
-0.41233	-1.73640
-0.02981	1.42656
0.27621	-2.27207
-0.18282	2.65093
0.42922	-2.17003
1.29628	0.78886
0.02119	1.45206
-0.20832	0.53379
-0.18282	-3.13933
0.02119	1.68163
-0.13181	1.37554
0.09770	1.45206
0.40372	0.22769
0.14870	-0.71609
-0.08081	-0.71609
0.30171	1.09496
0.35272	-3.29238
0.02119	1.09496
-0.02981	-0.05289
0.17421	1.09496
0.27621	-0.71609
0.27621	0.89089
0.30171	1.63062
0.25071	1.50308
-0.15732	0.58480
0.32721	-0.15492
0.48022	-0.02739
0.12320	-0.86914
-0.13181	-1.48133
-0.13181	-0.94566
0.25071	-2.24656
-0.38683	0.99292
-0.48884	1.78367
0.19971	1.57960
0.32721	0.27871
-0.08081	1.50308
1.14327	-2.78222
0.88825	0.63582
0.48022	-0.63957
-0.10631	1.01843
0.22521	2.42136
0.19971	-1.02219
-0.18282	1.75816
-0.71835	1.32453
-0.33583	2.47238
0.07220	-4.28718
0.48022	1.17148
0.45472	0.66132
0.58223	0.66132
0.35272	-3.26687
-0.28482	2.70194
0.12320	-1.53234
0.50573	0.91640
0.09770	0.78886
0.12320	-1.07320
0.14870	-1.32828
0.22521	2.34484
0.17421	0.20219
0.22521	-0.25695
0.14870	-3.87905
0.12320	-1.02219
0.27621	2.57441
0.12320	1.06945
-0.20832	1.35003
0.12320	2.29382
-0.23382	2.59991
-0.08081	-5.66460
0.88825	1.52859
1.01576	0.73785
-0.53984	0.71234
-0.15732	0.50828
0.37822	0.20219
0.88825	0.04914
0.45472	-0.53754
-0.84586	-0.30797
-0.41233	-0.51203
0.17421	0.15117
-0.15732	0.12566
0.32721	-0.33348
0.68424	-0.10391
0.12320	-0.15492
0.09770	0.96742
0.37822	-1.73640
0.17421	0.53379
-0.10631	1.75816
0.50573	-0.02739
0.19971	2.52339
0.12320	-2.27207
0.19971	1.22250
0.42922	-0.51203
0.09770	-3.54745
-0.02981	0.73785
0.12320	1.52859
-0.18282	1.50308
-0.02981	-0.66508
-0.00431	0.55929
0.12320	0.43176
0.17421	-1.55785
0.07220	0.35523
0.25071	-0.25695
0.40372	0.83988
0.19971	0.86539
0.22521	0.66132
0.19971	0.50828
0.19971	0.12566
0.27621	-0.69059
0.04670	1.86019
0.02119	-0.05289
0.35272	-1.50683
-0.05531	0.43176
0.22521	-0.66508
0.68424	2.19179
-0.10631	-0.33348
0.04670	1.01843
0.30171	-2.22105
0.02119	-0.30797
-0.71835	-0.66508
0.27621	1.27351
0.81175	2.65093
0.73524	0.48277
0.14870	1.78367
-0.13181	1.32453
-0.00431	-0.15492
0.02119	1.19699
0.04670	-1.71090
0.17421	-5.84315
0.19971	3.23761
0.22521	-2.27207
0.25071	1.27351
0.14870	-1.30277
0.27621	2.52339
0.14870	1.04394
0.19971	-0.25695
0.19971	1.01843
0.32721	1.68163
0.07220	-0.46102
-0.00431	0.48277
0.17421	-1.58336
0.12320	0.02363
0.12320	-0.38449
-0.05531	0.73785
0.19971	1.06945
0.12320	-1.78742
0.27621	1.52859
0.12320	-0.18043
0.27621	1.09496
0.07220	0.40625
0.32721	0.10015
-0.02981	-0.48652
-0.28482	-0.30797
-0.23382	1.06945
0.40372	0.55929
0.35272	-2.55265
0.02119	-0.86914
0.02119	0.10015
0.58223	0.55929
0.42922	2.49788
-0.02981	1.29902
0.12320	-0.89465
-0.02981	-0.35899
0.02119	1.68163
0.17421	2.80397
0.37822	-5.86866
0.37822	-1.53234
0.04670	4.05386
-0.05531	-1.04770
0.09770	0.68683
0.04670	-1.65988
-0.00431	2.47238
0.19971	1.06945
0.32721	0.99292
0.25071	0.78886
0.02119	-2.14453
0.14870	-0.66508
0.17421	1.22250
0.14870	-1.02219
0.17421	0.22769
0.40372	-0.10391
-0.02981	0.61031
0.09770	-0.43551
0.04670	0.94191
0.30171	0.78886
0.19971	0.30422
0.17421	0.35523
0.07220	0.07465
0.07220	-0.25695
0.22521	2.26831
0.17421	-1.30277
0.17421	0.58480
0.09770	-5.76663
0.14870	1.57960
0.22521	1.37554
0.17421	1.57960
0.04670	2.08976
0.02119	0.89089
0.27621	0.17668
0.09770	1.37554
0.22521	-1.78742
0.25071	-0.43551
0.35272	0.27871
0.22521	0.15117
-0.20832	0.22769
-0.15732	1.14597
0.07220	-0.86914
0.27621	-0.20594
0.37822	-1.17523
0.25071	-1.25176
0.19971	0.45726
-0.02981	3.74776
0.25071	0.25320
0.07220	-1.20074
0.07220	0.99292
0.17421	0.22769
0.25071	2.19179
0.14870	-1.91496
0.07220	0.71234
0.09770	0.02363
0.07220	0.15117
0.19971	-0.28246
0.19971	1.60511
0.25071	-1.50683
0.12320	0.15117
-0.05531	2.31933
0.14870	-1.35379
0.35272	-2.11902
0.25071	-1.07320
-0.00431	1.86019
0.12320	1.70714
0.09770	0.43176
0.19971	0.48277
0.32721	-1.22625
0.14870	0.02363
0.14870	1.27351
0.12320	1.22250
0.07220	0.32972
-0.02981	0.17668
0.07220	-0.05289
0.48022	-0.28246
0.32721	1.91120
0.04670	-5.38401
-0.08081	0.94191
-0.00431	1.27351
-0.00431	-0.38449
0.27621	1.88570
0.60773	-0.25695
-0.10631	0.27871
0.09770	-0.25695
0.02119	-0.15492
0.25071	2.44687
0.27621	1.93671
0.17421	-2.83324
0.04670	0.25320
0.14870	1.32453
-0.02981	-0.15492
0.25071	-0.69059
0.12320	0.40625
0.22521	-0.63957
0.02119	2.34484
-0.00431	0.15117
0.30171	-2.75671
0.14870	1.24800
0.30171	-1.09871
0.30171	1.24800
0.32721	1.37554
0.22521	1.63062
-0.00431	-1.78742
-0.20832	0.15117
0.07220	-0.35899
-0.08081	0.04914
0.22521	0.66132
0.65874	0.38074
0.22521	-0.35899
-0.05531	0.27871
-0.02981	0.15117
0.17421	-1.55785
0.02119	0.91640
-0.43783	-0.48652
0.27621	-0.05289
0.30171	0.45726
0.32721	1.32453
0.42922	1.50308
0.27621	-2.14453
0.17421	-0.79262
0.35272	-0.05289
0.09770	1.93671
0.02119	-1.09871
-0.00431	2.70194
-0.00431	-2.57816
0.04670	1.17148
0.02119	0.71234
0.12320	0.43176
0.32721	1.04394
0.35272	-0.43551
0.42922	-1.88945
0.14870	2.44687
-0.08081	-1.04770
-0.20832	-0.05289
0.12320	1.91120
-0.05531	-6.60838
0.30171	2.49788
0.09770	2.26831
0.30171	1.06945
0.42922	0.45726
-0.02981	0.10015
0.09770	-0.23145
-0.00431	0.94191
0.48022	0.78886
0.30171	0.10015
0.09770	-0.33348
0.09770	-0.38449
0.02119	-0.41000
0.19971	-0.61406
-0.00431	-0.12942
-0.18282	1.37554
0.30171	2.03874
0.12320	1.42656
0.19971	-0.43551
0.22521	-2.52714
0.12320	-1.88945
0.30171	2.59991
0.09770	2.14077
0.07220	0.91640
0.19971	1.01843
0.07220	0.81437
0.12320	-0.58856
-0.02981	0.76336
0.09770	0.76336
0.22521	-1.27726
0.32721	-0.18043
0.25071	0.61031
0.12320	0.10015
-0.02981	0.22769
0.19971	0.20219
-0.02981	0.12566
0.25071	-0.15492
0.40372	-0.05289
0.07220	0.40625
0.09770	0.15117
-0.00431	1.12046
0.02119	-0.97117
0.48022	-2.45062
0.19971	0.68683
-0.13181	1.88570
0.04670	2.37034
0.25071	0.15117
0.55673	-1.04770
0.25071	-0.48652
0.12320	1.32453
0.09770	0.89089
0.19971	-0.97117
0.07220	0.50828
0.19971	1.73265
0.09770	1.47757
0.22521	-1.78742
-0.02981	0.83988
0.02119	0.63582
0.14870	-0.56305
0.27621	0.96742
0.12320	-5.66460
0.12320	0.78886
0.02119	2.39585
0.14870	0.40625
0.22521	0.76336
0.17421	0.53379
0.37822	0.45726
0.30171	-0.12942
0.07220	-0.66508
0.19971	2.14077
-0.13181	-0.79262
0.14870	-2.73121
0.27621	0.53379
0.12320	0.55929
0.07220	0.17668
0.07220	0.55929
-0.00431	1.42656
0.22521	-0.89465
0.17421	0.38074
0.12320	-0.20594
0.30171	1.93671
0.22521	2.72745
0.25071	-5.76663
0.12320	0.55929
0.22521	0.86539
-0.02981	0.63582
0.09770	1.45206
0.22521	-0.33348
0.22521	0.35523
0.19971	0.22769
0.14870	1.17148
0.07220	-1.27726
-0.00431	-0.99668
0.12320	1.12046
0.09770	0.50828
0.22521	0.10015
0.12320	0.50828
0.07220	-2.42511
0.22521	1.42656
0.14870	-1.43031
0.19971	1.65613
0.14870	1.93671
0.09770	1.12046
0.04670	-3.01179
0.30171	1.12046
0.19971	0.04914
0.12320	0.20219
-0.02981	1.35003
0.09770	0.20219
0.27621	0.25320
0.25071	0.27871
-0.05531	0.78886
0.30171	-0.56305
0.27621	-0.41000
0.27621	-0.05289
0.09770	0.63582
0.14870	0.55929
0.22521	-0.56305
0.09770	-0.69059
-0.02981	1.12046
0.04670	-0.61406
0.17421	0.40625
0.19971	-2.24656
0.19971	1.88570
0.07220	1.80917
0.19971	0.55929
0.12320	-0.81812
0.27621	0.27871
0.19971	1.47757
0.14870	1.70714
0.12320	-0.28246
0.22521	-0.41000
0.14870	-0.10391
0.14870	-0.81812
0.09770	-1.12422
0.04670	-0.46102
0.14870	1.37554
0.14870	0.81437
0.22521	0.32972
0.22521	-0.38449
0.19971	-0.41000
0.04670	0.73785
0.17421	0.83988
0.17421	0.38074
0.07220	-1.07320
0.02119	0.04914
0.04670	0.63582
0.12320	1.86019
0.07220	3.00804
0.35272	-7.37362
0.32721	-1.17523
0.19971	0.58480
0.09770	1.78367
0.12320	1.75816
0.02119	1.19699
0.14870	2.01323
0.09770	-1.22625
0.32721	0.38074
-0.00431	0.04914
0.17421	-2.14453
-0.08081	-0.00188
0.19971	0.45726
0.27621	-0.46102
0.50573	-0.46102
0.17421	-0.58856
0.02119	1.06945
-0.15732	1.57960
0.12320	0.04914
0.32721	1.24800
0.40372	2.88050
0.22521	-6.30229
-0.23382	-1.27726
0.19971	1.98773
0.32721	1.24800
0.07220	1.01843
-0.18282	1.57960
0.19971	0.76336
0.40372	-1.76191
0.27621	0.20219
0.22521	-1.48133
0.17421	-0.38449
0.07220	0.94191
0.04670	1.40105
-0.05531	-1.02219
0.09770	-1.83844
0.22521	0.81437
0.19971	0.12566
0.22521	1.70714
0.09770	1.68163
0.22521	-2.29757
0.09770	-0.15492
0.02119	1.14597
0.35272	0.55929
0.27621	0.45726
0.04670	-0.51203
0.27621	0.15117
0.09770	0.25320
0.04670	0.17668
0.07220	0.35523
0.14870	-0.35899
0.35272	0.50828
0.12320	-0.56305
0.19971	0.50828
0.12320	1.19699
0.17421	-2.50164
0.30171	0.76336
0.09770	0.86539
0.02119	1.80917
0.14870	0.02363
0.19971	0.55929
0.19971	-2.01699
0.12320	-1.43031
0.02119	0.71234
0.17421	1.17148
0.17421	2.31933
0.32721	1.01843
0.07220	0.89089
-0.00431	-0.86914
0.22521	0.48277
0.25071	0.63582
0.09770	-0.41000
0.09770	-0.28246
0.07220	-0.86914
0.02119	-0.28246
0.19971	-0.41000
0.04670	0.89089
0.19971	-0.02739
0.25071	-1.22625
0.19971	1.17148
0.27621	0.15117
0.07220	0.35523
0.19971	1.32453
0.19971	1.27351
0.12320	-0.02739
0.22521	-0.10391
0.12320	0.27871
0.12320	0.48277
0.07220	-0.61406
0.04670	0.45726
0.25071	-1.20074
0.04670	1.12046
0.25071	-0.23145
0.12320	1.37554
0.14870	-2.50164
0.07220	-0.02739
0.02119	0.96742
0.07220	1.19699
0.30171	1.37554
0.25071	-2.62918
0.27621	0.45726
0.09770	-0.00188
0.25071	0.02363
0.04670	0.83988
0.14870	0.35523
0.22521	0.61031
0.12320	0.91640
-0.02981	-1.58336
0.04670	0.66132
0.07220	-0.63957
0.25071	-0.43551
0.27621	-0.51203
0.25071	0.10015
0.30171	0.15117
0.14870	1.57960
-0.08081	-0.10391
0.04670	-0.05289
0.25071	1.22250
0.12320	-0.43551
0.09770	-0.28246
0.22521	0.12566
0.14870	0.61031
0.32721	0.86539
0.07220	-0.61406
0.07220	0.17668
0.12320	-0.12942
0.07220	-0.61406
0.12320	1.06945
0.02119	0.91640
0.12320	0.94191
0.40372	-0.20594
0.17421	0.27871
0.14870	1.14597
0.14870	-3.24136
0.04670	0.38074
0.17421	0.43176
0.12320	0.83988
0.17421	0.38074
0.22521	0.30422
0.09770	1.06945
0.19971	-0.00188
-0.02981	0.12566
0.12320	-0.51203
0.02119	-0.05289
0.17421	-0.66508
0.04670	1.63062
0.27621	-0.48652
0.27621	0.73785
0.22521	-0.71609
0.14870	0.40625
0.07220	0.58480
0.19971	0.48277
-0.00431	0.58480
0.14870	-0.41000
0.07220	-0.51203
0.12320	1.42656
0.17421	0.20219
0.12320	-0.79262
0.07220	-0.46102
0.04670	-1.25176
0.19971	0.76336
0.12320	-0.81812
0.17421	0.71234
0.02119	0.91640
0.12320	0.61031
0.25071	0.48277
0.27621	0.25320
0.27621	1.96222
0.22521	0.15117
-0.05531	-1.81293
0.02119	-0.86914
0.02119	0.25320
0.09770	0.27871
0.25071	-0.28246
0.30171	0.94191
0.14870	-0.00188
0.04670	-0.23145
0.14870	0.61031
0.22521	0.55929
0.22521	-1.07320
0.27621	1.45206
0.19971	-0.86914
0.02119	-0.69059
-0.05531	1.24800
0.02119	0.71234
0.22521	0.12566
0.14870	0.07465
0.14870	-0.10391
-0.00431	1.32453
0.19971	-1.32828
0.27621	0.30422
0.30171	0.73785
0.12320	-0.05289
0.07220	-0.48652
0.09770	0.45726
0.02119	0.12566
0.07220	1.24800
0.14870	-0.61406
0.22521	1.65613
0.12320	0.50828
0.27621	-0.61406
0.14870	0.48277
0.14870	-0.33348
0.07220	0.66132
0.04670	-0.00188
0.14870	-0.12942
0.19971	-0.05289
0.22521	0.48277
0.07220	0.86539
0.19971	0.38074
0.09770	0.55929
0.19971	-2.93527
0.19971	1.29902
0.09770	1.37554
0.19971	1.98773
0.12320	-1.48133
0.02119	-1.07320
0.17421	0.83988
0.12320	0.07465
0.19971	0.55929
0.30171	0.53379
0.14870	0.22769
0.07220	0.71234
0.02119	0.04914
0.12320	-1.17523
0.30171	0.76336
0.14870	-1.04770
-0.02981	0.25320
0.17421	0.63582
0.25071	0.61031
0.17421	0.48277
0.12320	0.20219
0.25071	-0.33348
0.12320	0.32972
0.17421	0.17668
0.04670	-3.47093
0.22521	1.27351
-0.18282	1.42656
0.22521	0.30422
0.09770	1.52859
0.17421	-0.28246
0.30171	-0.84363
0.22521	1.63062
0.19971	-0.12942
0.19971	0.27871
0.07220	-0.81812
0.14870	0.71234
0.25071	0.76336
0.17421	-0.61406
0.09770	-0.76711
-0.00431	0.45726
0.07220	1.50308
0.22521	-1.40480
0.27621	0.86539
0.12320	-0.10391
0.12320	-1.88945
0.12320	0.83988
-0.00431	1.01843
0.25071	0.71234
0.14870	0.22769
0.07220	-0.46102
0.12320	-0.20594
0.25071	-0.56305
0.22521	1.27351
0.17421	0.96742
0.12320	1.09496
0.14870	-0.56305
0.12320	0.25320
0.19971	0.25320
0.02119	-1.14973
0.14870	0.04914
0.12320	0.58480
0.25071	-1.25176
0.09770	0.45726
0.27621	0.10015
0.09770	0.61031
0.14870	-0.00188
0.17421	0.78886
0.09770	-0.97117
0.22521	1.09496
0.07220	0.61031
0.19971	-0.18043
0.09770	0.07465
0.25071	2.21730
0.09770	-2.73121
0.17421	1.40105
0.12320	-0.25695
0.09770	2.31933
0.19971	-0.43551
0.07220	-0.66508
0.27621	0.17668
0.19971	0.25320
0.17421	0.12566
-0.05531	-0.43551
0.17421	0.48277
0.04670	0.61031
0.22521	-0.07840
0.17421	0.40625
0.19971	-0.25695
0.27621	-0.00188
0.22521	-0.51203
-0.00431	0.55929
0.12320	-0.66508
0.14870	-0.05289
0.22521	0.99292
0.07220	0.61031
0.17421	0.55929
0.04670	0.78886
0.14870	-0.71609
0.17421	-0.07840
0.14870	0.66132
0.07220	1.68163
0.12320	-0.97117
0.27621	-0.92016
0.14870	-0.97117
0.19971	0.22769
0.27621	1.86019
0.22521	0.12566
0.32721	0.40625
0.02119	-0.00188
0.12320	0.25320
-0.08081	0.12566
0.09770	0.07465
0.17421	0.07465
0.19971	-0.56305
0.17421	0.15117
0.07220	-0.12942
0.12320	0.45726
0.17421	0.83988
0.27621	-0.86914
0.27621	0.78886
0.12320	1.42656
0.09770	-2.47613
-0.13181	0.30422
0.17421	0.17668
0.12320	0.91640
0.25071	0.71234
0.17421	0.50828
0.07220	-0.61406
0.07220	-1.25176
0.09770	0.35523
0.27621	-0.76711
0.27621	1.45206
0.17421	1.55410
0.19971	1.22250
0.12320	-1.17523
0.22521	0.12566
0.02119	-0.10391
0.07220	0.10015
0.04670	-0.15492
0.07220	0.91640
0.25071	0.02363
0.25071	0.17668
0.07220	-0.33348
0.12320	-0.76711
0.09770	-0.71609
0.17421	0.53379
0.25071	1.17148
0.07220	0.43176
0.09770	-0.76711
0.12320	0.15117
0.04670	-0.02739
0.12320	0.83988
0.07220	-0.00188
0.14870	0.50828
0.30171	1.22250
0.12320	0.04914
0.14870	-0.48652
0.17421	-0.00188
0.12320	-0.56305
0.27621	1.06945
-0.02981	-1.32828
0.12320	1.19699
0.17421	-1.04770
0.07220	1.98773
0.17421	0.17668
0.19971	-0.28246
0.07220	-0.66508
0.19971	0.15117
0.09770	-0.76711
0.19971	1.06945
0.19971	0.63582
0.12320	0.40625
0.04670	0.30422
0.19971	-0.25695
0.19971	0.04914
0.22521	0.50828
0.22521	-0.41000
0.09770	-0.02739
0.22521	-0.58856
-0.00431	0.63582
0.09770	-0.02739
0.14870	0.78886
0.02119	-1.68539
0.12320	0.50828
0.27621	1.50308
0.19971	-0.38449
0.09770	-0.79262
0.14870	0.61031
0.22521	1.24800
0.12320	0.83988
0.14870	-1.65988
0.30171	-0.92016
0.12320	1.17148
0.17421	-0.05289
0.02119	0.63582
0.04670	0.50828
0.02119	-0.56305
0.22521	0.35523
0.30171	0.61031
0.12320	-0.69059
0.22521	0.40625
0.30171	-0.43551
0.14870	0.68683
0.19971	-0.05289
-0.02981	0.22769
0.17421	0.53379
0.07220	0.66132
0.17421	-0.58856
0.22521	-0.35899
0.19971	1.88570
0.04670	-0.58856
0.09770	-1.71090
0.19971	1.93671
0.25071	-0.07840
0.02119	0.38074
0.12320	1.14597
0.17421	0.99292
0.17421	0.40625
0.07220	-0.53754
-0.02981	-1.60887
0.04670	-0.97117
0.25071	0.66132
0.30171	0.66132
0.22521	0.43176
0.14870	0.17668
0.14870	-0.58856
0.04670	0.83988
0.09770	-0.00188
0.02119	0.38074
0.22521	0.25320
0.02119	0.25320
0.12320	0.45726
0.17421	-0.56305
0.19971	-1.76191
0.22521	0.94191
0.19971	0.55929
0.22521	0.83988
0.14870	0.63582
0.12320	-0.71609
0.09770	-0.25695
0.09770	0.81437
0.14870	1.12046
0.12320	1.96222
0.12320	-3.52195
0.07220	-0.30797
0.25071	0.58480
0.17421	0.73785
0.19971	0.58480
0.17421	-0.12942
-0.00431	0.48277
0.12320	0.12566
0.09770	0.63582
0.30171	0.50828
0.22521	2.24281
0.12320	-2.68019
0.27621	-0.89465
0.07220	-0.07840
0.09770	-0.76711
-0.00431	0.50828
0.19971	0.63582
0.12320	0.96742
0.17421	1.01843
0.02119	-1.58336
0.09770	-0.58856
0.27621	-1.07320
0.17421	1.37554
0.14870	1.27351
0.30171	1.52859
0.22521	0.32972
0.14870	0.27871
0.02119	0.12566
0.17421	-0.05289
0.04670	-0.66508
0.07220	-0.00188
0.07220	-0.10391
0.22521	-0.28246
0.22521	-0.10391
0.09770	0.58480
-0.13181	0.38074
0.02119	0.12566
0.48022	-3.90456
0.32721	2.80397
0.22521	1.24800
0.22521	0.12566
0.12320	0.96742
0.02119	-0.58856
0.02119	-0.48652
0.14870	0.73785
0.14870	0.20219
0.07220	0.12566
0.25071	0.76336
0.02119	0.73785
0.12320	-1.78742
0.14870	-1.32828
0.17421	1.24800
0.14870	0.53379
0.12320	0.66132
0.14870	0.10015
0.14870	0.17668
0.04670	0.04914
0.27621	-0.15492
0.19971	-0.05289
0.12320	0.86539
0.27621	0.45726
0.17421	-2.52714
0.12320	-3.34339
0.12320	2.26831
0.17421	0.53379
0.07220	1.57960
0.09770	1.47757
0.02119	0.86539
0.14870	0.04914
0.32721	0.32972
0.22521	0.15117
0.09770	-0.58856
-0.08081	-0.10391
0.19971	0.12566
0.32721	-0.97117
0.04670	-0.28246
0.12320	0.66132
0.22521	1.14597
0.14870	-1.22625
0.19971	-0.41000
0.19971	0.78886
0.12320	0.89089
0.04670	0.81437
0.12320	-0.15492
0.14870	-1.40480
0.14870	-0.10391
0.14870	1.88570
0.19971	0.61031
0.27621	0.86539
0.09770	0.35523
0.14870	-0.38449
0.04670	-0.30797
-0.02981	-0.07840
0.17421	0.66132
0.12320	-0.35899
0.07220	-0.12942
0.30171	0.61031
0.27621	-0.18043
0.17421	-0.63957
0.12320	-0.07840
0.30171	0.78886
0.09770	0.38074
0.19971	0.27871
0.12320	0.27871
0.07220	0.40625
0.12320	0.30422
0.12320	-0.53754
0.09770	-0.35899
-0.18282	-0.35899
0.22521	0.99292
0.30171	1.22250
0.22521	-0.58856
0.27621	-0.05289
0.12320	-1.78742
0.22521	1.29902
0.04670	1.01843
0.17421	0.71234
-0.00431	0.86539
0.19971	1.12046
0.14870	-0.46102
0.04670	-0.02739
0.04670	-0.10391
0.14870	-0.66508
0.12320	0.30422
0.09770	-0.23145
0.12320	-0.66508
0.19971	0.15117
0.19971	0.78886
0.19971	-0.35899
0.02119	-0.89465
0.22521	1.24800
0.25071	1.06945
0.17421	0.35523
0.22521	1.06945
0.14870	0.38074
0.14870	1.47757
-0.18282	-0.00188
0.02119	-0.81812
0.25071	-0.30797
0.19971	-0.25695
-0.13181	-0.28246
0.22521	0.10015
0.30171	-0.05289
0.17421	0.22769
0.30171	0.35523
0.04670	0.10015
0.17421	0.53379
0.17421	0.32972
0.07220	0.63582
0.09770	-0.07840
0.14870	-0.46102
0.14870	-0.46102
0.14870	1.06945
0.12320	-0.46102
0.17421	-0.79262
0.17421	0.17668
0.19971	1.35003
0.02119	-0.05289
0.02119	-0.00188
0.19971	1.98773
0.27621	-0.38449
0.12320	0.89089
0.02119	-1.17523
0.22521	0.45726
0.35272	0.86539
0.14870	-0.35899
0.19971	-0.02739
0.02119	-0.20594
0.22521	-0.18043
0.09770	-0.30797
-0.02981	0.43176
0.04670	0.96742
0.12320	1.14597
0.32721	-0.92016
0.12320	-0.76711
0.19971	0.83988
0.17421	-0.28246
0.12320	0.35523
0.22521	0.94191
0.07220	1.63062
0.12320	-1.48133
0.22521	0.58480
0.14870	-0.25695
0.19971	0.63582
0.04670	-1.58336
0.14870	0.94191
0.12320	-0.58856
0.04670	1.17148
0.22521	2.08976
0.22521	-1.83844
-0.02981	0.20219
0.09770	0.63582
0.19971	-0.00188
0.22521	0.22769
0.25071	0.45726
0.25071	-0.25695
0.07220	0.17668
0.19971	-0.15492
0.07220	0.78886
0.02119	1.27351
0.07220	-1.63437
0.17421	-1.37929
0.09770	0.45726
0.09770	1.57960
0.17421	-1.99148
0.25071	1.27351
0.19971	0.91640
0.12320	-0.18043
0.07220	1.27351
0.19971	-0.00188
0.19971	-0.99668
0.19971	0.94191
0.09770	0.10015
0.09770	0.15117
0.22521	0.32972
0.14870	0.02363
0.22521	0.15117
0.02119	-0.43551
0.09770	-0.71609
0.25071	-0.05289
0.22521	0.50828
-0.00431	0.99292
0.27621	-0.07840
0.30171	0.71234
0.09770	-0.28246
0.04670	-0.81812
0.32721	0.61031
0.17421	0.81437
0.22521	2.70194
0.04670	-1.17523
0.02119	-0.28246
0.12320	0.55929
0.04670	0.63582
0.22521	-1.04770
0.14870	-0.43551
0.19971	-0.12942
0.02119	0.68683
0.22521	-0.74160
0.22521	1.04394
0.22521	0.53379
0.17421	-1.37929
0.17421	0.55929
0.17421	0.78886
0.14870	1.14597
0.22521	-1.40480
0.12320	0.35523
0.14870	0.91640
0.09770	0.02363
0.09770	-0.61406
0.07220	1.91120
0.14870	-2.11902
0.04670	0.20219
0.22521	-0.94566
0.17421	-0.00188
0.17421	1.78367
0.30171	1.68163
0.09770	-0.12942
0.14870	-0.74160
0.12320	0.43176
0.09770	0.10015
0.19971	-0.51203
0.14870	0.27871
0.12320	0.78886
0.07220	-0.92016
0.14870	-0.00188
0.14870	0.10015
0.12320	0.22769
0.17421	0.22769
0.17421	0.15117
0.09770	0.25320
0.17421	0.30422
0.22521	0.35523
0.22521	-1.32828
0.17421	1.63062
0.09770	-0.46102
0.02119	-0.02739
0.22521	0.32972
0.07220	0.78886
0.27621	0.40625
0.07220	1.75816
0.14870	-1.88945
0.17421	-1.32828
0.12320	1.37554
0.32721	0.99292
0.14870	0.83988
0.09770	-0.05289
0.04670	0.02363
0.04670	-0.89465
0.17421	0.12566
0.22521	0.73785
0.09770	-0.05289
0.12320	-2.80773
-0.00431	0.12566
0.22521	1.12046
0.22521	0.73785
0.09770	0.96742
0.22521	1.55410
0.02119	0.32972
0.22521	-0.99668
0.12320	-0.71609
0.19971	-0.30797
0.14870	0.96742
0.17421	1.04394
0.22521	0.22769
0.07220	-1.04770
0.02119	1.01843
0.07220	0.50828
0.19971	0.17668
0.25071	-0.46102
0.22521	0.66132
0.02119	-0.38449
0.14870	0.22769
0.22521	-0.02739
0.17421	-0.86914
0.07220	0.53379
0.12320	-0.00188
0.14870	0.15117
0.14870	0.27871
0.19971	0.55929
0.12320	0.94191
0.12320	-0.12942
0.14870	0.45726
0.14870	0.10015
0.22521	-0.66508
0.22521	-0.56305
0.14870	1.17148
0.12320	1.45206
0.07220	-1.71090
0.14870	1.24800
0.19971	0.96742
0.19971	-2.93527
0.12320	1.65613
0.27621	-1.43031
0.09770	2.16628
0.22521	0.50828
0.07220	-0.05289
-0.00431	0.55929
0.07220	0.55929
0.25071	0.78886
0.25071	-0.12942
0.30171	-0.48652
0.14870	-0.38449
-0.05531	-0.00188
-0.10631	-0.05289
0.22521	-0.99668
0.32721	0.15117
0.17421	0.50828
0.07220	0.68683
0.30171	0.45726
0.09770	-0.00188
0.07220	-0.12942
-0.02981	0.81437
0.19971	-0.61406
0.12320	0.32972
0.17421	0.73785
0.07220	0.48277
0.27621	-0.53754
0.22521	0.30422
0.25071	0.38074
0.14870	1.55410
0.12320	-2.57816
0.14870	-0.00188
0.07220	0.58480
0.09770	0.25320
0.04670	0.86539
0.07220	-0.92016
0.17421	0.10015
0.14870	1.52859
0.22521	-0.02739
0.22521	0.94191
0.22521	-0.20594
0.19971	-0.86914
-0.00431	-0.76711
0.07220	0.71234
0.07220	0.68683
0.22521	0.61031
0.09770	1.01843
0.12320	-1.48133
-0.08081	0.20219
0.25071	1.06945
0.30171	0.17668
0.25071	-0.15492
0.09770	-0.99668
0.17421	-0.41000
-0.02981	0.78886
0.14870	0.35523
0.14870	0.43176
0.14870	0.96742
0.09770	-0.86914
0.09770	0.12566
0.19971	0.50828
0.17421	0.17668
0.19971	0.38074
-0.02981	-0.43551
0.22521	0.15117
0.14870	-0.48652
0.14870	0.55929
0.14870	0.55929
0.04670	-0.84363
0.17421	0.63582
0.32721	-0.56305
0.19971	1.22250
0.35272	0.61031
0.12320	0.35523
0.02119	0.45726
0.09770	-1.27726
0.02119	0.43176
0.07220	0.78886
0.07220	-0.81812
0.22521	0.22769
0.27621	-0.99668
0.22521	0.99292
0.30171	0.45726
-0.05531	0.17668
0.04670	0.25320
0.27621	-0.20594
0.22521	0.71234
0.07220	0.55929
0.07220	0.04914
0.04670	0.38074
0.12320	-0.30797
0.09770	-0.46102
0.22521	0.02363
0.25071	0.58480
0.12320	-0.15492
0.30171	0.35523
-0.00431	-0.10391
0.04670	0.91640
0.04670	0.20219
0.30171	-0.02739
0.12320	-0.30797
0.12320	0.27871
0.12320	0.20219
0.12320	0.15117
0.19971	0.63582
0.12320	-0.38449
0.30171	0.20219
0.12320	0.40625
0.14870	0.22769
0.12320	0.04914
0.09770	0.25320
0.09770	0.07465
0.02119	0.86539
0.12320	-0.74160
0.19971	0.10015
0.17421	1.40105
0.27621	-1.71090
0.02119	0.12566
0.22521	0.35523
0.19971	0.45726
0.17421	0.38074
0.17421	0.96742
0.17421	-0.43551
0.22521	-0.48652
0.14870	-0.38449
-0.00431	-0.00188
0.22521	0.53379
0.09770	0.15117
0.22521	0.43176
0.12320	0.12566
0.14870	0.30422
0.09770	0.35523
0.07220	-0.97117
0.12320	-0.10391
0.02119	0.32972
0.14870	0.61031
-0.00431	-0.10391
0.30171	0.07465
0.19971	0.02363
0.14870	0.66132
0.17421	0.89089
0.07220	-1.63437
0.22521	0.10015
0.09770	0.73785
0.17421	0.76336
0.09770	0.73785
0.22521	0.55929
-0.02981	-0.79262
0.25071	1.01843
0.12320	-0.89465
0.17421	-0.02739
0.14870	0.50828
0.17421	0.22769
0.07220	0.07465
0.12320	0.22769
0.07220	-0.46102
0.22521	-0.05289
0.32721	0.71234
0.14870	-0.56305
0.25071	0.66132
0.30171	0.86539
0.02119	-0.33348
0.14870	0.48277
0.02119	0.63582
0.07220	-0.05289
0.19971	1.37554
0.17421	-3.57296
0.14870	1.27351
0.09770	1.17148
0.12320	0.96742
0.22521	-0.25695
0.07220	0.86539
-0.18282	-0.15492
0.17421	-1.02219
0.17421	0.48277
0.30171	-1.17523
0.27621	1.09496
0.17421	0.66132
0.17421	0.43176
0.12320	-0.00188
0.17421	-0.15492
0.04670	0.10015
0.12320	0.10015
0.07220	0.15117
0.14870	0.20219
0.02119	0.22769
0.37822	0.25320
0.09770	0.48277
0.32721	0.45726
-0.02981	0.81437
0.12320	-2.50164
0.07220	0.32972
0.19971	0.83988
0.14870	0.32972
0.27621	0.45726
0.17421	1.32453
0.25071	-0.41000
0.09770	-0.02739
0.27621	-0.63957
0.09770	-0.66508
0.12320	1.55410
0.07220	0.38074
0.17421	0.20219
0.14870	0.58480
0.14870	0.43176
-0.02981	-0.53754
0.14870	0.63582
0.12320	0.20219
0.19971	-1.37929
0.04670	-0.02739
0.22521	-0.28246
0.17421	-0.74160
0.17421	1.17148
0.12320	0.55929
0.22521	0.40625
0.09770	0.53379
0.27621	0.27871
0.12320	-0.18043
0.19971	-0.12942
-0.00431	-0.25695
0.22521	0.86539
0.12320	-0.20594
0.12320	0.58480
0.14870	0.25320
-0.05531	-0.20594
0.14870	-0.84363
0.17421	0.22769
0.17421	-0.05289
0.14870	0.71234
0.22521	0.27871
0.14870	0.61031
0.12320	1.35003
0.12320	-0.10391
0.17421	0.02363
0.17421	-0.28246
0.09770	0.48277
0.25071	-0.84363
0.04670	0.45726
0.14870	-0.07840
0.14870	0.02363
0.07220	0.66132
0.07220	-0.05289
0.04670	0.07465
0.12320	-0.20594
0.19971	-0.10391
0.09770	0.53379
0.25071	0.53379
0.09770	-0.05289
0.19971	0.04914
0.02119	0.89089
0.35272	0.76336
0.12320	-0.71609
0.12320	-1.60887
0.17421	0.99292
-0.02981	1.06945
0.17421	0.12566
0.04670	0.27871
0.27621	0.17668
0.19971	0.53379
0.25071	0.32972
0.04670	0.07465
0.12320	-0.05289
-0.02981	-0.25695
0.12320	1.12046
0.22521	0.40625
0.19971	-1.76191
0.40372	-0.86914
0.12320	0.27871
0.22521	0.73785
0.04670	0.55929
0.04670	0.99292
0.09770	0.55929
0.12320	-2.60367
0.09770	1.47757
0.14870	-0.56305
0.09770	0.94191
0.12320	-0.05289
0.17421	0.25320
0.27621	0.61031
0.09770	-2.14453
0.19971	0.35523
0.02119	0.78886
0.30171	0.94191
-0.00431	0.63582
0.32721	0.27871
0.25071	0.12566
0.09770	0.12566
0.07220	0.15117
0.17421	-0.00188
0.09770	-0.10391
0.19971	-1.32828
0.04670	-0.00188
0.27621	-0.18043
0.19971	0.25320
0.17421	0.63582
0.07220	1.57960
0.14870	-1.02219
0.19971	-0.10391
0.17421	0.45726
0.07220	0.94191
-0.00431	0.55929
0.19971	-0.56305
0.25071	1.29902
0.17421	0.86539
0.22521	-0.97117
0.09770	-0.46102
0.25071	0.10015
0.09770	-0.99668
0.14870	0.71234
0.04670	-0.00188
0.17421	-0.20594
0.22521	0.63582
0.07220	0.38074
0.19971	0.66132
0.07220	0.04914
0.17421	-0.07840
0.14870	0.38074
0.14870	0.15117
0.09770	0.43176
0.17421	-0.35899
0.19971	1.04394
0.09770	-2.70570
0.14870	1.14597
0.17421	0.48277
0.22521	1.35003
0.12320	-0.46102
0.09770	-0.69059
0.22521	0.53379
-0.08081	0.53379
0.25071	-1.48133
0.25071	1.22250
0.19971	0.76336
0.30171	0.78886
0.12320	-0.43551
0.12320	-0.18043
-0.13181	-0.35899
0.17421	-0.48652
0.25071	0.50828
0.19971	-0.74160
0.12320	-0.00188
-0.00431	1.01843
0.14870	0.15117
0.02119	0.25320
0.30171	0.20219
0.22521	-1.04770
0.22521	0.83988
0.14870	0.76336
0.09770	0.32972
0.14870	0.15117
0.04670	0.20219
0.32721	-0.46102
0.19971	0.50828
0.07220	1.06945
0.12320	0.35523
0.07220	0.25320
0.22521	-0.61406
0.14870	-0.66508
0.07220	0.66132
0.07220	0.66132
-0.02981	-0.00188
0.22521	-0.18043
0.14870	0.61031
0.22521	-0.51203
0.19971	0.10015
0.12320	-0.00188
0.19971	-0.20594
0.02119	0.61031
0.25071	0.83988
0.17421	0.61031
0.07220	-0.53754
0.09770	0.40625
0.12320	0.45726
0.09770	-0.05289
-0.00431	0.07465
0.19971	0.58480
0.17421	0.20219
0.07220	-0.33348
0.17421	0.83988
0.07220	0.32972
0.09770	0.07465
0.22521	-0.53754
