0.09770	0.22769
0.19971	0.17668
0.17421	0.15117
0.14870	0.22769
0.22521	0.04914
0.09770	0.12566
0.12320	0.15117
0.14870	0.07465
0.09770	0.20219
0.22521	0.12566
0.12320	0.12566
0.14870	0.20219
0.12320	0.07465
0.14870	0.17668
0.19971	0.17668
0.09770	0.15117
0.22521	0.15117
0.07220	0.15117
0.22521	0.17668
0.07220	0.02363
0.12320	0.17668
0.17421	0.15117
0.17421	0.22769
0.17421	0.04914
0.07220	0.15117
0.22521	0.15117
0.09770	0.22769
0.14870	0.04914
0.09770	0.25320
0.12320	0.10015
0.07220	0.20219
0.22521	0.07465
0.07220	0.22769
0.19971	0.10015
0.09770	0.20219
0.22521	0.04914
0.07220	0.22769
0.22521	0.10015
0.07220	0.22769
0.22521	0.17668
0.14870	0.04914
0.22521	0.15117
0.17421	0.15117
0.17421	0.17668
0.14870	0.10015
0.14870	0.25320
0.22521	0.10015
0.09770	0.22769
0.22521	0.12566
0.14870	0.15117
0.12320	0.25320
0.12320	0.10015
0.12320	0.15117
0.22521	0.17668
0.07220	0.12566
0.22521	0.22769
0.14870	0.10015
0.14870	0.20219
0.22521	0.10015
0.04670	0.15117
0.17421	0.25320
0.14870	0.04914
0.07220	0.20219
0.22521	0.17668
0.12320	0.12566
0.14870	0.17668
0.14870	0.20219
0.09770	0.17668
0.22521	0.10015
0.07220	0.22769
0.22521	0.07465
0.12320	0.12566
0.22521	0.15117
0.09770	0.15117
0.17421	0.20219
0.07220	0.07465
0.19971	0.15117
0.09770	0.15117
0.22521	0.17668
0.14870	0.25320
0.19971	0.10015
0.12320	0.22769
0.14870	0.15117
0.17421	0.15117
0.07220	0.15117
0.14870	0.07465
0.14870	0.25320
0.14870	0.15117
0.17421	0.15117
0.07220	0.15117
0.22521	0.07465
0.12320	0.25320
0.14870	0.04914
0.12320	0.12566
0.14870	0.17668
0.12320	0.10015
0.02119	0.22769
0.22521	0.10015
0.19971	0.17668
0.07220	0.15117
0.22521	0.07465
0.07220	0.20219
0.12320	0.07465
0.17421	0.15117
0.07220	0.20219
0.19971	0.07465
0.12320	0.12566
0.22521	0.10015
0.09770	0.17668
0.14870	0.12566
0.12320	0.10015
0.12320	0.22769
0.12320	0.07465
0.17421	0.22769
0.19971	0.04914
0.09770	0.25320
0.19971	0.10015
0.09770	0.27871
0.22521	0.15117
0.07220	0.15117
0.17421	0.12566
0.14870	0.04914
0.14870	0.17668
0.14870	0.12566
0.14870	0.20219
0.14870	0.12566
0.12320	0.12566
0.14870	0.20219
0.12320	0.12566
0.14870	0.17668
0.19971	0.04914
0.14870	0.25320
0.14870	0.12566
0.12320	0.15117
0.17421	0.15117
0.14870	0.17668
0.12320	0.12566
0.19971	0.12566
0.07220	0.25320
0.19971	0.15117
0.12320	0.17668
0.17421	0.25320
0.17421	0.07465
0.07220	0.10015
0.25071	0.15117
0.14870	0.12566
0.14870	0.15117
0.09770	0.12566
0.17421	0.22769
0.22521	0.15117
0.09770	0.15117
0.09770	0.17668
0.22521	0.10015
0.04670	0.20219
0.14870	0.12566
0.12320	0.10015
0.09770	0.12566
0.19971	0.07465
0.09770	0.25320
0.12320	0.07465
0.12320	0.15117
0.07220	0.12566
0.19971	0.12566
0.09770	0.20219
0.19971	0.04914
0.12320	0.17668
0.14870	0.15117
0.12320	0.15117
0.14870	0.12566
0.22521	0.17668
0.09770	0.10015
0.17421	0.15117
0.09770	0.15117
0.22521	0.07465
0.07220	0.20219
0.22521	0.07465
0.14870	0.17668
0.19971	0.15117
0.07220	0.15117
0.22521	0.17668
0.07220	0.17668
0.17421	0.25320
0.14870	0.12566
0.12320	0.17668
0.19971	0.04914
0.07220	0.12566
0.19971	0.15117
0.07220	0.15117
0.22521	0.12566
0.14870	0.15117
0.14870	0.22769
0.14870	0.04914
0.09770	0.12566
0.22521	0.04914
0.07220	0.12566
0.25071	0.12566
0.09770	0.25320
0.22521	0.10015
0.12320	0.22769
0.19971	0.12566
0.09770	0.20219
0.19971	0.17668
0.14870	0.20219
0.14870	0.15117
0.17421	0.12566
0.12320	0.10015
0.09770	0.22769
0.25071	0.10015
0.09770	0.15117
0.14870	0.15117
0.12320	0.04914
0.07220	0.20219
0.22521	0.12566
0.09770	0.15117
0.22521	0.17668
0.14870	0.17668
0.07220	0.12566
0.12320	0.12566
0.14870	0.20219
0.14870	0.10015
0.14870	0.12566
0.07220	0.15117
0.22521	0.15117
0.07220	0.22769
0.19971	0.12566
0.09770	0.15117
0.14870	0.15117
0.14870	0.07465
0.07220	0.22769
0.22521	0.04914
0.07220	0.15117
0.14870	0.15117
0.12320	0.15117
0.12320	0.20219
0.22521	0.07465
0.09770	0.17668
0.22521	0.12566
0.07220	0.15117
0.19971	0.15117
0.07220	0.15117
0.14870	0.04914
0.04670	0.15117
0.25071	0.10015
0.12320	0.17668
0.22521	0.07465
0.07220	0.20219
0.19971	0.10015
0.09770	0.25320
0.22521	0.17668
0.07220	0.20219
0.19971	0.04914
0.09770	0.22769
0.19971	0.12566
0.09770	0.15117
0.22521	0.12566
0.09770	0.17668
0.22521	0.07465
0.09770	0.27871
0.22521	0.10015
0.07220	0.10015
0.19971	0.20219
0.12320	0.12566
0.19971	0.22769
0.02119	0.15117
0.22521	0.12566
0.07220	0.12566
0.22521	0.15117
0.09770	0.15117
0.19971	0.20219
0.12320	0.02363
0.14870	0.20219
0.14870	0.07465
0.04670	0.12566
0.12320	0.25320
0.12320	0.10015
0.07220	0.12566
0.22521	0.17668
0.07220	0.07465
0.14870	0.22769
0.12320	0.04914
0.07220	0.17668
0.22521	0.15117
0.09770	0.15117
0.19971	0.15117
0.12320	0.04914
0.17421	0.22769
0.17421	0.10015
0.14870	0.20219
0.12320	0.10015
0.14870	0.20219
0.14870	0.07465
0.12320	0.10015
0.12320	0.15117
0.14870	0.15117
0.12320	0.10015
0.14870	0.20219
0.12320	0.07465
0.12320	0.15117
0.12320	0.15117
0.14870	0.32972
0.14870	0.12566
0.22521	0.12566
0.09770	0.15117
0.22521	0.12566
0.07220	0.12566
0.14870	0.12566
0.14870	0.12566
0.09770	0.15117
0.25071	0.10015
0.07220	0.22769
0.14870	0.22769
0.17421	0.20219
0.14870	0.12566
0.14870	0.07465
0.12320	0.17668
0.22521	0.10015
0.07220	0.20219
0.22521	0.15117
0.17421	0.12566
0.14870	0.22769
0.19971	0.10015
0.07220	0.22769
0.19971	0.15117
0.14870	0.10015
0.17421	0.20219
0.14870	0.07465
0.17421	0.22769
0.22521	0.10015
0.07220	0.15117
0.19971	0.15117
0.07220	0.12566
0.19971	0.07465
0.14870	0.12566
0.14870	0.10015
0.22521	0.12566
0.04670	0.15117
0.14870	0.22769
0.12320	0.10015
0.12320	0.20219
0.25071	0.20219
0.07220	0.12566
0.19971	0.17668
0.14870	0.12566
0.22521	0.12566
0.07220	0.12566
0.22521	0.17668
0.07220	0.15117
0.14870	0.17668
0.12320	0.12566
0.14870	0.12566
0.12320	0.15117
0.12320	0.17668
0.04670	0.15117
0.14870	0.15117
0.09770	0.15117
0.22521	0.12566
0.07220	0.15117
0.19971	0.15117
0.02119	0.15117
0.25071	0.12566
0.07220	0.17668
0.25071	0.12566
0.14870	0.20219
0.14870	0.17668
0.04670	0.22769
0.17421	0.15117
0.14870	0.10015
0.17421	0.17668
0.14870	0.15117
0.12320	0.15117
0.12320	0.15117
0.12320	0.20219
0.14870	0.20219
0.14870	0.20219
0.14870	0.04914
0.14870	0.20219
0.14870	0.12566
0.14870	0.25320
0.19971	0.10015
0.09770	0.10015
0.19971	0.15117
0.09770	0.22769
0.22521	0.07465
0.12320	0.17668
0.14870	0.17668
0.12320	0.15117
0.14870	0.15117
0.12320	0.10015
0.09770	0.20219
0.22521	0.02363
0.17421	0.15117
0.09770	0.20219
0.14870	0.04914
0.14870	0.17668
0.14870	0.10015
0.09770	0.27871
0.14870	0.04914
0.14870	0.15117
0.14870	0.15117
0.14870	0.15117
0.12320	0.15117
0.22521	0.07465
0.07220	0.22769
0.19971	0.10015
0.04670	0.15117
0.17421	0.25320
0.14870	0.04914
0.17421	0.27871
0.12320	0.10015
0.17421	0.22769
0.12320	0.04914
0.07220	0.22769
0.27621	0.07465
0.09770	0.22769
0.14870	0.12566
0.12320	0.15117
0.12320	0.15117
0.17421	0.15117
0.12320	0.20219
0.14870	0.10015
0.14870	0.17668
0.14870	0.20219
0.14870	0.07465
0.12320	0.02363
0.14870	0.25320
0.17421	0.10015
0.19971	0.15117
0.17421	0.10015
0.09770	0.22769
0.09770	0.22769
0.14870	0.40625
0.12320	0.12566
0.25071	0.04914
0.07220	-0.05289
0.17421	0.20219
0.14870	0.12566
0.17421	0.04914
0.17421	0.63582
0.12320	-0.79262
0.19971	-0.25695
0.09770	0.48277
0.12320	0.48277
0.17421	0.35523
0.17421	-0.25695
0.07220	0.78886
0.14870	0.04914
0.17421	0.38074
0.25071	0.30422
0.09770	0.30422
0.17421	-0.25695
0.09770	-0.81812
0.22521	0.40625
0.07220	0.45726
0.17421	0.04914
0.12320	0.04914
0.17421	-0.15492
0.22521	0.78886
0.04670	0.38074
0.09770	0.22769
0.14870	0.30422
0.12320	-0.58856
0.17421	0.10015
0.17421	0.25320
0.25071	0.15117
0.09770	0.17668
0.19971	0.12566
0.07220	0.25320
0.22521	0.12566
0.09770	0.20219
0.12320	0.17668
0.14870	0.07465
0.12320	0.20219
0.07220	0.10015
0.14870	0.17668
0.17421	0.25320
0.19971	0.07465
0.27621	0.04914
0.04670	0.17668
0.22521	0.15117
0.14870	-0.07840
0.09770	0.04914
0.12320	0.20219
0.07220	0.27871
0.12320	0.35523
0.12320	0.30422
0.25071	-0.12942
0.17421	0.20219
0.14870	-0.00188
0.09770	0.30422
0.07220	0.27871
0.14870	0.04914
0.09770	0.17668
0.22521	-0.05289
0.14870	0.20219
0.17421	0.02363
0.12320	0.35523
0.12320	0.04914
0.07220	0.04914
0.19971	0.25320
0.07220	0.00000
0.19971	0.30422
0.09770	-1.09871
0.19971	0.10015
0.09770	0.55929
0.22521	0.45726
0.09770	0.45726
0.12320	0.38074
0.07220	0.04914
0.19971	0.10015
0.09770	0.02363
0.19971	0.25320
0.14870	0.04914
0.19971	-0.25695
0.07220	0.04914
0.19971	0.38074
0.14870	0.12566
0.22521	0.22769
0.04670	0.45726
0.09770	-0.28246
0.30171	-0.25695
0.19971	0.43176
0.22521	0.20219
-0.08081	1.32453
0.22521	0.55929
0.04670	-0.30797
0.14870	-0.25695
0.09770	0.25320
0.27621	-0.51203
0.12320	-0.63957
0.27621	0.38074
0.07220	0.38074
0.17421	0.25320
0.02119	0.35523
0.19971	0.32972
0.19971	0.27871
0.35272	0.20219
0.04670	0.10015
0.12320	0.17668
0.02119	0.04914
0.17421	0.22769
0.14870	0.22769
0.07220	-0.15492
0.12320	0.07465
0.09770	0.12566
0.22521	0.22769
0.09770	0.12566
0.17421	0.25320
0.12320	-0.05289
0.12320	-0.07840
0.22521	0.30422
0.14870	-0.05289
0.19971	0.04914
0.07220	0.61031
0.09770	0.43176
0.09770	0.66132
0.22521	0.02363
0.17421	0.02363
0.14870	0.02363
0.12320	0.07465
0.07220	-0.23145
0.17421	0.07465
0.07220	0.07465
0.22521	0.53379
0.07220	-0.00188
0.22521	0.04914
0.17421	0.04914
0.12320	0.04914
0.19971	0.73785
0.09770	0.25320
0.17421	-0.38449
0.17421	0.45726
0.09770	-0.97117
0.17421	1.06945
0.02119	0.15117
0.12320	0.07465
0.30171	0.25320
0.14870	0.07465
0.22521	0.07465
0.19971	0.07465
0.04670	0.15117
0.09770	0.15117
0.02119	0.12566
0.14870	0.20219
0.22521	0.17668
-0.00431	0.17668
-0.20832	0.17668
-0.23382	0.07465
0.53123	0.15117
0.50573	0.15117
0.45472	0.17668
0.22521	0.07465
0.12320	0.22769
0.27621	0.25320
0.25071	0.04914
0.09770	0.10015
-0.23382	0.20219
-0.08081	0.15117
-0.13181	-0.38449
0.25071	0.17668
0.32721	0.53379
0.53123	0.12566
-0.38683	0.86539
-0.28482	-0.18043
0.37822	0.12566
-0.36133	-0.15492
0.32721	0.32972
0.86275	0.55929
0.73524	-0.05289
0.55673	-0.33348
0.63323	0.25320
0.50573	0.22769
-0.38683	-0.41000
-0.92237	0.25320
0.04670	-0.20594
0.07220	1.01843
-0.92237	0.61031
0.53123	0.25320
0.55673	0.38074
0.55673	-0.53754
0.45472	-0.10391
0.30171	-0.12942
0.35272	-0.30797
0.07220	0.55929
-3.09000	0.22769
0.30171	0.55929
1.01576	-0.02739
1.01576	0.15117
0.78624	0.96742
0.88825	-0.10391
0.58223	-1.37929
0.14870	1.04394
0.27621	-0.20594
0.58223	0.66132
-0.10631	0.15117
-0.92237	0.96742
-1.04987	0.30422
0.07220	0.17668
-0.00431	0.61031
0.02119	-0.94566
0.55673	-2.50164
0.25071	0.73785
-0.10631	1.65613
0.14870	0.25320
1.34728	0.40625
0.70974	0.22769
1.14327	-0.10391
0.22521	-0.66508
-0.43783	0.96742
-1.07538	-1.14973
-0.15732	0.94191
0.32721	0.12566
-0.59084	1.78367
0.22521	1.63062
0.30171	1.35003
2.03582	1.91120
0.68424	-4.28718
0.07220	-3.31788
-0.53984	-1.99148
-0.41233	0.22769
0.02119	1.27351
-0.00431	3.00804
-0.15732	0.66132
1.98482	0.83988
-0.10631	1.88570
-1.35589	-2.93527
1.19427	-5.40952
0.48022	2.26831
-0.00431	0.61031
-0.23382	-1.81293
-0.74385	0.17668
-2.04444	-0.05289
0.88825	1.32453
1.09226	1.32453
0.45472	1.06945
-0.48884	0.81437
1.27078	0.81437
1.39828	1.12046
0.19971	0.76336
-0.33583	1.98773
0.32721	-3.29238
0.02119	-0.15492
-0.28482	-1.83844
-0.25932	-1.27726
-0.10631	3.13558
0.27621	-5.20546
0.14870	-0.63957
-0.33583	0.63582
-0.61635	0.10015
0.60773	2.42136
1.34728	3.44167
-0.08081	1.78367
-1.73842	0.86539
1.34728	-1.71090
1.44929	-0.63957
-0.18282	-0.92016
-0.23382	-1.37929
0.22521	-1.02219
-0.18282	-0.48652
0.12320	-0.51203
0.27621	-0.20594
-1.66191	-0.05289
0.02119	1.01843
0.83725	1.93671
-0.64185	1.22250
2.34184	-0.58856
1.06676	-2.90976
-3.67654	4.10487
1.50029	2.93151
1.50029	1.70714
2.31634	-0.46102
3.08139	-0.07840
-3.98256	-0.38449
-1.63641	-1.81293
1.95932	0.15117
0.32721	1.96222
0.12320	-1.60887
-0.02981	-1.68539
-0.33583	-3.08831
-0.10631	-0.53754
-1.20288	0.94191
-0.53984	0.99292
1.16877	1.06945
0.68424	0.02363
1.01576	0.25320
-0.28482	-0.25695
0.17421	0.78886
0.22521	-0.35899
0.30171	1.40105
0.32721	-1.53234
0.17421	1.57960
0.30171	2.34484
-0.18282	2.01323
0.32721	-0.07840
-1.07538	-1.91496
0.30171	-1.58336
0.32721	1.52859
0.40372	0.35523
0.45472	1.37554
-0.10631	2.21730
0.86275	-0.51203
0.81175	-0.69059
-0.69285	-1.07320
1.14327	-0.74160
-4.56910	-1.02219
1.95932	-0.71609
-0.59084	-1.14973
1.57679	-0.23145
0.07220	0.27871
0.07220	0.68683
-1.02437	1.14597
1.72980	0.83988
1.95932	-0.38449
0.48022	1.57960
-0.56534	0.58480
0.48022	1.24800
-0.33583	-3.03730
-2.09544	0.40625
-0.56534	2.24281
0.22521	1.37554
-0.89686	0.78886
1.06676	0.10015
0.60773	0.43176
0.86275	-0.35899
1.78081	-1.55785
0.35272	-0.97117
0.40372	0.38074
0.99026	-0.20594
0.68424	0.86539
-0.08081	-1.88945
-1.33039	-1.35379
-2.35046	-1.32828
0.48022	2.24281
-1.68742	1.42656
0.19971	1.22250
1.83181	1.04394
1.24527	1.04394
0.35272	-0.07840
0.40372	-0.38449
1.16877	0.43176
-0.61635	-0.12942
1.27078	-0.61406
1.93382	-0.76711
-1.30489	0.38074
-4.92612	0.07465
-3.67654	-1.27726
-0.79486	0.27871
2.57136	-0.76711
3.31091	1.47757
1.65330	0.96742
1.50029	1.42656
1.65330	0.99292
0.58223	0.71234
0.73524	1.09496
-0.25932	-0.15492
-1.35589	1.45206
-0.87136	0.89089
-0.28482	-4.21066
-0.43783	1.45206
-1.71292	-1.07320
-1.10088	1.73265
0.40372	1.47757
0.65874	0.55929
0.81175	-0.10391
0.86275	-0.51203
0.63323	-0.71609
1.16877	-0.71609
-0.64185	-0.63957
1.14327	1.52859
0.99026	-1.76191
0.42922	-0.20594
-1.10088	0.66132
-0.92237	1.68163
0.17421	1.47757
0.63323	0.73785
0.53123	0.04914
0.12320	-1.04770
0.42922	0.10015
0.14870	-0.10391
0.02119	0.15117
-1.04987	1.35003
0.32721	-2.34859
0.63323	0.99292
0.14870	-2.47613
0.19971	2.85499
-0.25932	3.18659
0.35272	-2.06800
0.42922	0.68683
-0.08081	0.43176
0.27621	0.53379
0.45472	0.78886
0.27621	-0.76711
0.19971	-0.97117
0.35272	-0.00188
0.37822	1.35003
0.04670	0.22769
-0.13181	-2.37410
-0.76936	0.43176
-0.25932	0.55929
-0.05531	0.73785
0.27621	0.55929
0.55673	0.45726
1.21977	0.96742
1.01576	-0.74160
0.32721	0.78886
0.12320	-0.35899
-0.10631	-1.91496
-0.61635	1.52859
-0.48884	-0.43551
-0.23382	0.17668
0.02119	2.24281
0.07220	-2.70570
0.19971	1.96222
0.30171	2.11527
0.17421	0.45726
0.17421	-0.51203
0.76074	1.06945
0.42922	-2.04250
0.42922	-1.04770
0.53123	0.10015
-0.66735	-0.63957
-0.48884	0.55929
0.35272	-0.46102
0.22521	0.66132
0.12320	0.91640
0.17421	-0.48652
0.09770	0.94191
0.12320	-0.02739
0.17421	2.01323
0.50573	-1.07320
0.30171	0.17668
0.22521	0.99292
-0.05531	-2.60367
-0.10631	2.01323
-0.13181	0.20219
0.04670	0.22769
0.14870	0.35523
0.25071	-0.20594
0.12320	-1.43031
0.32721	1.65613
0.45472	-4.03210
0.73524	0.35523
0.09770	1.06945
0.04670	1.91120
-0.08081	3.59471
-0.13181	-3.82804
0.27621	0.68683
0.32721	0.30422
0.09770	-0.86914
-0.25932	3.28862
0.32721	-1.53234
0.63323	1.80917
0.42922	0.15117
-0.33583	-0.12942
0.12320	-1.45582
0.02119	0.27871
-0.18282	-0.35899
0.30171	0.15117
0.04670	0.22769
0.12320	0.02363
0.30171	-0.15492
0.35272	0.40625
0.27621	0.61031
0.04670	0.45726
0.30171	0.86539
0.14870	0.76336
0.30171	-1.40480
0.12320	-0.35899
0.09770	1.86019
-0.61635	-6.12374
0.02119	0.89089
0.22521	0.73785
0.78624	2.34484
0.45472	2.85499
0.60773	3.16108
-0.28482	-4.26167
-0.28482	-1.50683
0.22521	0.30422
0.07220	0.07465
0.07220	-1.22625
0.09770	-0.66508
-0.41233	1.01843
-0.23382	1.27351
0.88825	1.19699
0.32721	0.12566
0.19971	-0.35899
0.27621	-0.56305
0.25071	0.43176
0.12320	-1.40480
0.35272	1.32453
0.22521	0.53379
0.19971	1.68163
0.02119	-1.27726
-0.02981	0.55929
-0.31033	0.53379
0.07220	1.35003
0.42922	-2.06800
0.35272	1.27351
0.17421	-0.61406
0.02119	0.68683
0.09770	-0.28246
0.07220	0.30422
0.17421	0.99292
0.09770	1.19699
0.50573	-1.07320
0.22521	0.96742
0.04670	-1.76191
0.04670	0.12566
0.04670	-0.00188
0.22521	0.27871
0.30171	1.17148
0.04670	0.35523
0.14870	0.53379
-0.13181	-0.94566
0.14870	0.45726
0.37822	1.65613
0.14870	-0.05289
0.12320	-1.68539
0.22521	-0.00188
0.02119	0.71234
0.48022	-1.07320
0.40372	1.42656
0.09770	1.93671
-0.08081	-3.01179
0.35272	0.58480
-0.15732	0.94191
-0.46334	0.94191
0.17421	0.73785
0.83725	1.37554
0.32721	-1.02219
0.12320	2.03874
0.14870	-7.06752
0.07220	3.36515
-0.08081	-0.28246
0.42922	0.02363
0.42922	0.12566
0.07220	0.12566
0.07220	0.35523
0.12320	0.27871
0.40372	0.58480
0.09770	1.75816
0.12320	-3.64948
0.12320	0.58480
0.09770	-1.53234
0.04670	1.37554
0.07220	1.29902
0.22521	1.65613
0.12320	1.42656
0.25071	-2.04250
0.27621	1.63062
0.27621	-0.76711
-0.02981	2.67644
-0.08081	-4.31269
0.12320	0.99292
0.35272	0.32972
0.17421	0.38074
-0.15732	-0.15492
0.32721	-0.00188
0.22521	0.22769
0.12320	1.40105
0.12320	0.40625
0.25071	-0.66508
0.17421	1.57960
0.17421	-3.57296
0.02119	-1.30277
0.09770	1.96222
0.19971	0.53379
0.19971	1.01843
0.14870	0.43176
0.12320	-0.69059
0.22521	0.76336
0.14870	0.35523
0.14870	0.07465
0.07220	0.12566
0.09770	0.15117
0.09770	0.76336
0.17421	0.17668
0.27621	-0.02739
0.07220	0.50828
0.12320	0.71234
0.22521	-0.35899
0.25071	0.50828
0.14870	0.04914
0.09770	0.35523
0.22521	-2.73121
0.12320	0.10015
0.07220	1.19699
0.14870	-1.12422
0.17421	1.88570
0.12320	-0.92016
0.22521	-0.79262
0.02119	1.19699
0.19971	1.27351
0.04670	1.01843
0.22521	-0.38449
0.19971	0.43176
0.17421	-0.79262
0.19971	1.06945
-0.15732	0.76336
0.37822	-0.00188
0.07220	0.30422
0.09770	-0.92016
0.14870	1.57960
-0.02981	-0.30797
0.45472	-1.78742
0.48022	-0.05289
0.12320	-1.12422
-0.18282	-0.15492
0.04670	0.66132
0.17421	1.55410
0.07220	0.73785
0.14870	0.76336
0.04670	-0.51203
0.14870	-0.58856
0.19971	-0.61406
0.19971	0.68683
0.22521	0.25320
0.02119	0.78886
0.25071	-1.40480
0.30171	0.55929
0.37822	1.22250
0.04670	-0.69059
-0.18282	0.32972
-0.13181	-0.18043
0.37822	0.32972
0.30171	0.53379
0.22521	-0.18043
0.09770	0.45726
0.19971	-1.83844
0.07220	1.86019
0.22521	-1.30277
0.17421	0.50828
0.12320	0.71234
0.02119	0.91640
0.12320	1.09496
0.22521	-1.68539
0.17421	0.45726
0.14870	-0.05289
0.12320	1.57960
0.12320	-0.69059
0.35272	0.12566
0.22521	-0.10391
-0.15732	-0.18043
0.17421	-0.00188
0.12320	0.76336
0.25071	0.78886
0.12320	-1.09871
0.22521	-2.57816
0.30171	1.55410
0.17421	1.91120
0.30171	-0.05289
0.07220	0.89089
-0.00431	2.67644
0.14870	-3.90456
0.09770	1.04394
0.25071	0.20219
0.07220	-0.05289
0.07220	0.12566
0.19971	1.17148
0.22521	0.02363
0.27621	-0.02739
-0.00431	0.89089
0.14870	-0.07840
0.22521	-0.71609
0.12320	0.68683
0.09770	-1.32828
0.02119	-0.46102
0.04670	2.39585
0.02119	-2.01699
0.30171	0.53379
0.27621	0.76336
-0.05531	1.09496
0.35272	0.53379
0.37822	0.17668
0.37822	0.22769
-0.00431	0.43176
-0.05531	-0.51203
0.07220	-0.00188
-0.10631	-0.56305
0.09770	-1.25176
0.14870	0.55929
0.19971	0.55929
0.25071	1.19699
0.14870	0.25320
0.04670	-0.02739
0.17421	0.02363
0.27621	1.29902
0.22521	-2.34859
0.30171	2.34484
0.09770	-3.08831
0.17421	1.50308
0.27621	2.65093
0.19971	-1.96597
-0.08081	0.20219
-0.15732	0.27871
0.07220	0.58480
0.40372	1.27351
0.19971	-1.40480
0.25071	-0.00188
-0.02981	-0.18043
0.22521	-0.86914
0.12320	0.76336
0.07220	0.30422
0.09770	0.38074
0.30171	0.50828
0.22521	0.50828
0.12320	0.02363
0.22521	0.17668
0.25071	0.30422
0.07220	-0.12942
0.12320	1.50308
0.07220	-2.39961
0.14870	0.76336
0.09770	-1.14973
0.09770	1.47757
0.07220	0.07465
0.25071	0.02363
0.19971	0.86539
0.30171	-0.25695
-0.00431	0.10015
0.19971	0.73785
-0.00431	-0.18043
0.12320	0.15117
0.27621	-0.53754
0.22521	0.45726
0.09770	0.45726
0.25071	-0.86914
0.07220	0.58480
0.14870	0.71234
0.12320	0.50828
0.07220	-0.07840
0.17421	0.86539
0.17421	-1.88945
0.12320	0.10015
0.19971	1.06945
0.07220	0.86539
0.25071	0.94191
0.04670	0.76336
0.12320	-0.20594
0.27621	-1.55785
0.19971	0.71234
0.04670	0.58480
0.12320	0.30422
0.17421	-0.28246
0.12320	-0.56305
-0.02981	-0.20594
0.02119	0.30422
0.14870	-0.71609
0.22521	0.40625
0.32721	0.55929
0.14870	0.45726
0.25071	0.35523
0.35272	0.25320
0.25071	0.63582
0.19971	-0.51203
-0.10631	0.61031
0.14870	-0.99668
0.07220	-0.20594
0.17421	0.66132
0.12320	1.24800
0.25071	0.94191
0.22521	1.52859
0.09770	-0.07840
0.22521	-3.06281
0.07220	0.48277
0.17421	0.68683
-0.15732	0.81437
0.22521	0.78886
0.19971	0.10015
0.17421	-0.18043
0.35272	0.12566
0.04670	-0.12942
0.27621	0.15117
0.17421	0.12566
0.19971	0.30422
-0.02981	0.02363
0.19971	-0.18043
0.07220	0.04914
0.22521	-0.05289
-0.08081	0.27871
0.12320	0.45726
0.12320	0.61031
0.07220	0.73785
0.17421	0.07465
0.22521	-1.55785
0.42922	-0.05289
0.25071	0.91640
0.17421	1.06945
0.07220	-0.05289
0.09770	0.02363
0.04670	0.43176
0.02119	0.58480
0.19971	0.61031
0.17421	-1.53234
0.17421	0.68683
0.17421	-0.25695
0.12320	-0.02739
0.09770	1.06945
0.19971	0.66132
0.27621	0.30422
0.09770	-3.13933
0.12320	1.22250
0.02119	-0.81812
-0.13181	2.03874
0.35272	-0.53754
0.22521	0.83988
0.19971	0.76336
0.12320	0.96742
0.40372	-0.00188
-0.05531	-0.30797
0.25071	0.12566
0.14870	1.24800
0.19971	-1.40480
0.17421	-0.15492
0.02119	0.91640
0.19971	0.32972
-0.02981	0.40625
0.19971	-0.51203
0.25071	-0.10391
0.19971	0.43176
0.12320	0.35523
-0.02981	0.32972
0.04670	0.15117
0.19971	0.45726
0.30171	-1.63437
0.12320	-0.99668
0.19971	1.93671
0.27621	0.58480
0.25071	0.04914
-0.10631	1.47757
-0.05531	-0.94566
0.14870	0.78886
0.17421	0.86539
0.32721	0.63582
0.27621	-0.71609
0.22521	-0.41000
0.12320	0.12566
0.17421	0.73785
0.02119	0.55929
0.12320	0.30422
0.02119	0.68683
0.02119	-2.19554
0.19971	-0.48652
0.12320	0.63582
0.22521	-0.48652
0.09770	0.40625
0.14870	0.27871
0.22521	0.86539
0.19971	0.55929
0.19971	0.73785
0.09770	0.10015
0.02119	0.35523
0.22521	0.81437
0.22521	-0.05289
-0.08081	0.38074
0.04670	-0.66508
0.25071	-1.02219
0.32721	0.02363
0.30171	0.66132
0.27621	1.14597
0.12320	-0.63957
0.12320	0.40625
0.09770	0.68683
-0.08081	0.38074
0.04670	-1.09871
0.25071	0.45726
0.12320	0.58480
0.22521	-0.05289
-0.00431	-0.71609
0.30171	-0.23145
0.09770	1.45206
0.30171	0.15117
0.14870	0.45726
0.07220	-0.23145
-0.02981	1.14597
0.22521	-1.96597
0.30171	0.07465
0.22521	1.06945
0.09770	0.38074
0.09770	-0.74160
0.14870	0.55929
0.04670	0.96742
0.12320	0.73785
0.09770	0.45726
0.17421	0.35523
0.17421	-1.14973
0.04670	-1.40480
0.14870	0.45726
0.09770	0.12566
0.19971	0.43176
0.17421	0.99292
0.19971	0.35523
0.22521	0.25320
0.02119	-1.35379
0.22521	0.22769
0.22521	0.30422
0.17421	0.86539
0.22521	0.55929
0.07220	0.55929
0.07220	0.20219
-0.08081	0.04914
0.12320	-0.05289
-0.08081	0.12566
0.76074	-0.53754
0.07220	-0.00188
0.04670	-0.02739
-0.02981	0.04914
0.19971	0.45726
0.14870	0.07465
-0.18282	1.17148
0.40372	-0.25695
0.50573	-0.51203
0.07220	-0.20594
-0.10631	1.06945
0.02119	0.78886
0.17421	0.07465
0.19971	-0.94566
0.14870	1.22250
0.07220	0.38074
0.22521	1.32453
0.25071	-1.02219
0.17421	0.55929
0.12320	-0.97117
0.09770	-0.46102
0.22521	0.04914
-0.02981	0.48277
0.02119	0.66132
0.07220	-1.35379
0.22521	0.76336
0.35272	0.45726
0.27621	0.20219
0.17421	0.78886
0.25071	0.55929
0.07220	0.91640
0.04670	-1.99148
0.12320	-0.81812
0.02119	0.58480
0.07220	1.60511
0.09770	-0.89465
0.12320	-0.02739
0.27621	0.25320
0.27621	1.06945
0.09770	0.63582
0.07220	1.06945
-0.00431	0.45726
0.22521	-1.60887
0.12320	0.02363
0.17421	-0.07840
0.22521	0.30422
-0.00431	0.20219
0.04670	0.86539
0.17421	0.68683
0.42922	0.04914
0.40372	-1.58336
-0.05531	-1.30277
-0.00431	0.30422
0.04670	0.94191
0.19971	1.04394
0.14870	1.29902
0.19971	-0.48652
0.25071	0.55929
0.02119	0.32972
0.07220	0.45726
0.07220	0.45726
0.07220	-1.96597
0.22521	0.63582
0.14870	0.73785
0.25071	-1.07320
0.14870	-0.94566
0.19971	1.19699
0.14870	0.73785
0.22521	0.66132
0.07220	-1.48133
0.19971	1.32453
0.09770	0.17668
0.22521	-0.02739
0.07220	0.35523
0.09770	1.14597
0.17421	-0.25695
0.07220	-0.00188
0.22521	-0.43551
0.17421	-0.28246
-0.05531	0.83988
-0.00431	-0.66508
0.27621	-0.18043
0.40372	-0.23145
0.07220	0.94191
0.37822	0.71234
0.14870	0.17668
-0.00431	0.40625
0.04670	-0.97117
-0.28482	-0.15492
0.12320	0.53379
0.30171	0.61031
0.27621	0.12566
0.25071	0.35523
0.17421	0.17668
0.09770	0.30422
0.25071	0.20219
-0.08081	1.75816
0.19971	-3.72601
0.12320	1.12046
0.12320	0.20219
0.09770	0.55929
0.27621	0.12566
0.09770	-1.12422
0.09770	-1.32828
0.09770	0.94191
0.04670	1.27351
0.19971	1.01843
0.07220	-0.02739
0.27621	0.15117
0.12320	0.40625
0.12320	0.53379
0.07220	-1.04770
0.30171	0.81437
0.07220	-0.28246
0.25071	0.25320
0.12320	0.17668
0.12320	-0.56305
0.30171	0.22769
0.09770	0.53379
0.12320	1.65613
0.12320	-0.86914
0.22521	0.35523
-0.00431	-1.02219
-0.08081	0.76336
0.22521	0.45726
0.19971	-0.46102
0.22521	0.55929
0.32721	0.96742
0.09770	-0.07840
0.09770	-0.38449
0.14870	0.55929
0.04670	-0.18043
0.22521	0.71234
0.17421	-0.00188
0.12320	-1.07320
0.12320	0.55929
0.12320	0.35523
0.12320	0.10015
0.12320	-0.02739
0.02119	0.02363
0.12320	0.94191
0.12320	1.01843
0.30171	-1.35379
0.19971	-0.74160
0.12320	1.37554
0.14870	1.83468
0.09770	-0.69059
0.35272	-2.45062
-0.00431	0.17668
-0.18282	0.25320
0.19971	1.09496
0.19971	0.02363
0.30171	-0.15492
0.12320	0.91640
0.37822	0.76336
0.30171	0.25320
0.22521	0.91640
-0.08081	-0.63957
0.09770	-0.58856
-0.10631	0.45726
0.17421	0.53379
0.09770	0.40625
0.14870	0.10015
0.19971	0.43176
0.32721	-1.81293
0.14870	-0.86914
0.22521	0.25320
0.07220	0.73785
0.07220	0.71234
0.12320	0.55929
0.09770	1.32453
0.19971	-0.61406
0.09770	0.53379
0.22521	0.07465
0.17421	-1.02219
0.19971	0.96742
-0.05531	1.06945
0.17421	-0.35899
-0.10631	1.75816
0.22521	-1.02219
0.35272	-0.69059
0.25071	0.35523
0.19971	0.45726
0.02119	0.43176
0.25071	0.15117
0.07220	0.40625
0.27621	-0.12942
0.07220	0.35523
0.12320	-0.33348
0.04670	-0.33348
0.07220	-0.35899
0.02119	0.15117
0.17421	0.35523
0.22521	0.94191
-0.08081	-0.18043
0.14870	0.07465
0.14870	0.50828
0.27621	0.53379
-0.00431	-0.28246
0.25071	0.63582
0.40372	-0.79262
0.27621	-1.12422
0.12320	1.06945
0.12320	1.86019
0.07220	-0.35899
0.02119	0.96742
0.07220	0.86539
0.12320	-1.02219
0.02119	-0.63957
0.12320	0.50828
0.04670	0.32972
0.19971	0.35523
0.17421	0.04914
0.25071	0.17668
0.17421	0.15117
0.12320	-0.66508
0.04670	0.30422
0.14870	1.50308
0.14870	-2.80773
0.14870	0.96742
0.07220	-0.23145
0.37822	-0.46102
0.14870	0.94191
0.12320	1.35003
-0.15732	-0.35899
0.12320	-1.02219
0.22521	0.76336
0.14870	0.43176
0.22521	-0.46102
0.07220	0.50828
0.14870	0.71234
0.17421	0.53379
0.17421	0.15117
0.14870	0.73785
0.09770	-0.10391
0.19971	-1.88945
0.02119	-0.38449
0.17421	-0.28246
0.12320	0.43176
0.14870	0.50828
0.25071	0.45726
0.07220	0.07465
0.09770	0.68683
0.02119	1.06945
0.22521	0.55929
0.22521	-1.37929
0.02119	0.12566
0.32721	0.30422
0.30171	0.66132
0.17421	1.14597
0.12320	-0.53754
0.14870	0.61031
0.02119	0.17668
0.19971	0.35523
0.04670	0.02363
0.14870	0.45726
0.02119	-0.74160
0.17421	-0.48652
0.09770	0.66132
0.22521	-0.69059
0.12320	0.45726
0.22521	1.52859
0.09770	0.43176
0.22521	-0.63957
0.12320	0.20219
0.22521	0.35523
0.09770	0.32972
0.19971	0.66132
0.17421	-1.37929
-0.00431	-1.14973
0.14870	1.55410
0.19971	-0.23145
0.22521	1.63062
0.14870	-0.00188
0.12320	0.15117
0.12320	0.10015
0.19971	0.15117
0.12320	0.17668
0.12320	0.40625
0.12320	-0.53754
0.04670	0.20219
0.22521	-0.15492
0.27621	-0.10391
0.25071	1.09496
0.09770	0.53379
0.19971	0.15117
0.19971	-0.15492
0.12320	-0.81812
-0.13181	0.02363
0.17421	0.15117
-0.00431	0.50828
0.04670	0.53379
0.35272	0.58480
0.22521	-1.53234
0.22521	0.25320
0.12320	0.76336
0.27621	0.58480
0.12320	0.55929
0.09770	0.17668
0.14870	0.15117
0.19971	0.76336
0.09770	1.50308
0.30171	-0.86914
0.19971	-2.93527
0.17421	1.47757
0.02119	-0.25695
-0.02981	0.45726
-0.00431	0.76336
0.12320	0.10015
0.40372	0.27871
0.30171	1.09496
0.04670	-1.37929
-0.02981	0.38074
0.37822	0.35523
0.19971	0.17668
0.12320	0.30422
0.02119	0.07465
0.30171	0.76336
0.14870	0.20219
0.14870	-0.05289
0.02119	-0.00188
0.25071	0.43176
0.12320	-0.20594
0.09770	-0.56305
0.07220	1.14597
0.19971	-0.35899
0.04670	0.73785
0.19971	-1.09871
0.27621	0.43176
0.22521	1.37554
0.45472	1.60511
-0.00431	-0.66508
-0.23382	0.50828
0.07220	0.17668
0.27621	-0.15492
0.27621	-0.35899
0.17421	0.27871
0.14870	-1.09871
0.14870	0.32972
0.30171	0.61031
0.27621	0.63582
0.02119	-0.07840
0.09770	0.45726
0.07220	0.25320
0.04670	-0.76711
0.25071	0.35523
0.12320	0.58480
0.12320	-0.69059
0.02119	0.66132
0.17421	0.55929
0.27621	-0.18043
0.22521	1.22250
0.07220	-1.96597
0.07220	0.63582
0.12320	0.81437
0.14870	0.43176
0.14870	-0.79262
0.07220	0.55929
0.22521	0.89089
0.27621	-0.20594
0.22521	0.76336
0.14870	-0.20594
0.07220	1.57960
0.09770	-0.38449
0.19971	-0.05289
0.19971	-0.00188
0.12320	0.43176
0.07220	-1.35379
0.25071	0.94191
-0.02981	-0.18043
0.14870	0.91640
0.19971	1.22250
0.09770	-0.63957
0.07220	-0.56305
0.12320	0.25320
0.14870	-0.02739
0.17421	0.27871
0.19971	-0.61406
0.19971	0.53379
0.19971	0.43176
0.14870	2.39585
0.14870	-1.68539
0.14870	-2.17003
0.14870	1.06945
0.14870	1.40105
0.12320	0.86539
0.07220	0.27871
0.14870	-0.18043
0.04670	0.40625
0.30171	0.30422
0.02119	-0.18043
0.09770	-0.07840
0.02119	-0.25695
0.12320	-0.23145
0.22521	0.04914
0.22521	-0.15492
0.19971	-0.56305
0.17421	0.45726
0.27621	-0.35899
0.17421	1.24800
0.04670	1.06945
0.02119	0.53379
0.30171	0.83988
0.09770	-1.04770
0.04670	0.50828
0.17421	0.07465
0.12320	-0.05289
0.12320	0.32972
0.22521	0.04914
0.02119	0.20219
0.09770	0.73785
0.02119	-2.34859
0.30171	0.32972
0.27621	0.63582
0.19971	0.12566
0.17421	-0.33348
0.22521	1.50308
0.12320	0.89089
0.30171	-0.99668
0.27621	2.11527
-0.00431	-1.37929
-0.05531	0.32972
-0.31033	0.35523
0.09770	-0.66508
0.07220	0.17668
0.22521	-1.50683
0.45472	0.91640
0.25071	1.35003
0.25071	-1.27726
0.17421	0.27871
0.14870	0.48277
0.02119	0.32972
0.07220	-0.15492
0.09770	-0.02739
0.12320	-0.05289
0.12320	0.12566
0.19971	0.45726
0.09770	0.66132
0.27621	0.48277
0.14870	0.76336
0.17421	1.37554
-0.02981	-1.78742
-0.05531	-2.39961
0.12320	0.94191
0.14870	-0.05289
0.19971	1.09496
0.30171	0.40625
0.35272	1.47757
0.17421	-0.92016
0.12320	0.73785
0.22521	-2.04250
0.19971	1.12046
0.12320	-0.05289
0.09770	0.32972
0.17421	0.32972
0.02119	0.04914
0.07220	0.48277
0.12320	0.73785
0.19971	0.22769
0.19971	0.10015
0.07220	0.27871
0.09770	-0.69059
-0.18282	0.04914
0.09770	0.22769
0.30171	-0.07840
0.17421	-0.58856
0.19971	-0.43551
0.42922	0.61031
0.04670	0.50828
0.02119	-0.05289
0.32721	1.93671
0.40372	0.96742
0.19971	-0.05289
0.14870	-0.53754
0.02119	-0.43551
0.12320	-0.00188
-0.05531	0.40625
0.07220	-0.71609
0.09770	-0.23145
0.07220	-0.61406
0.22521	0.40625
0.07220	0.20219
0.19971	0.89089
0.17421	1.14597
0.22521	-0.28246
0.27621	0.55929
0.22521	0.96742
0.17421	0.17668
0.12320	-1.40480
-0.23382	-0.76711
0.17421	-0.86914
0.14870	0.96742
0.35272	0.78886
0.25071	-0.56305
0.14870	0.48277
0.12320	1.09496
0.27621	0.68683
0.22521	0.07465
0.14870	0.10015
0.04670	0.10015
-0.00431	0.25320
0.12320	0.22769
0.22521	0.04914
0.09770	-1.43031
0.25071	0.43176
0.12320	-0.02739
0.12320	0.35523
0.12320	0.30422
0.32721	0.73785
0.22521	-1.12422
-0.02981	-0.20594
0.12320	0.45726
0.14870	0.02363
0.22521	0.45726
0.22521	0.45726
0.27621	0.38074
0.04670	0.38074
0.09770	0.91640
0.09770	-1.30277
0.12320	0.45726
0.19971	0.61031
0.19971	2.59991
0.12320	-3.52195
0.14870	0.61031
0.09770	0.63582
0.04670	-0.35899
0.22521	-0.30797
0.25071	0.83988
0.04670	0.17668
0.22521	0.17668
0.12320	-0.05289
0.12320	-0.10391
0.22521	0.40625
0.19971	0.27871
0.14870	0.04914
0.02119	0.17668
-0.00431	-0.00188
0.04670	-0.02739
0.22521	0.07465
0.14870	0.20219
0.17421	-0.05289
0.22521	0.45726
0.07220	0.17668
0.27621	0.35523
0.30171	0.48277
0.37822	0.53379
-0.02981	0.68683
-0.23382	-0.00188
0.25071	1.63062
0.02119	-1.94047
0.32721	-2.55265
0.17421	0.63582
0.25071	0.30422
0.04670	0.07465
0.19971	0.68683
0.09770	0.71234
0.22521	0.76336
0.07220	0.27871
0.19971	0.61031
0.14870	0.04914
0.17421	0.35523
0.17421	0.02363
-0.00431	-0.38449
0.17421	0.55929
0.04670	-0.81812
0.25071	0.73785
0.02119	-0.76711
0.19971	-0.07840
0.17421	0.30422
0.19971	-1.71090
0.37822	1.42656
0.22521	0.99292
0.27621	-0.61406
0.04670	1.45206
-0.08081	-0.51203
0.14870	1.19699
0.17421	-0.23145
0.22521	0.25320
0.19971	0.17668
0.09770	0.27871
0.02119	0.02363
0.19971	0.27871
0.14870	-0.33348
0.12320	-0.30797
0.12320	0.07465
0.02119	-0.12942
0.17421	-0.05289
0.17421	0.12566
0.30171	0.30422
0.02119	-0.12942
0.19971	0.50828
0.17421	0.96742
0.12320	-0.00188
0.25071	1.42656
0.12320	-0.33348
0.25071	0.22769
0.17421	0.30422
0.27621	0.12566
-0.02981	-0.28246
0.09770	-0.99668
-0.00431	0.22769
0.17421	1.22250
0.07220	-1.78742
0.30171	0.76336
0.25071	0.32972
0.12320	1.06945
0.14870	-1.04770
0.12320	0.10015
0.12320	1.24800
0.30171	-0.94566
0.25071	-0.46102
0.19971	0.89089
-0.10631	0.66132
-0.05531	0.55929
0.12320	-0.35899
0.12320	0.27871
0.19971	0.63582
0.25071	-0.74160
0.30171	-0.48652
0.14870	-0.12942
-0.05531	0.15117
0.12320	0.22769
0.04670	0.20219
0.30171	0.43176
0.35272	0.55929
0.19971	0.55929
0.07220	0.20219
0.02119	0.15117
0.14870	-0.10391
0.02119	0.12566
0.22521	-0.86914
-0.08081	0.45726
0.19971	1.57960
0.32721	-0.38449
0.17421	-0.92016
0.09770	0.50828
0.17421	0.25320
0.30171	0.30422
-0.23382	0.50828
0.02119	0.61031
0.35272	0.40625
0.22521	0.50828
0.17421	-1.37929
0.22521	0.22769
0.07220	0.30422
0.12320	0.40625
0.04670	0.27871
0.09770	-0.18043
0.25071	-0.02739
0.22521	0.32972
0.27621	0.73785
-0.05531	-0.20594
0.25071	0.32972
0.19971	0.38074
0.09770	-1.99148
0.19971	1.47757
0.07220	0.63582
0.12320	-0.92016
0.17421	0.81437
0.12320	0.02363
0.22521	-0.48652
0.22521	0.15117
0.14870	0.68683
0.09770	0.61031
0.22521	-0.84363
0.07220	0.53379
0.27621	0.35523
0.14870	0.17668
0.25071	0.10015
-0.00431	-0.15492
0.07220	0.15117
0.19971	0.12566
0.35272	0.10015
0.12320	0.17668
-0.05531	0.12566
0.07220	0.04914
0.19971	-0.10391
0.22521	0.40625
0.09770	-0.71609
0.30171	0.81437
0.27621	0.76336
-0.05531	-0.76711
0.07220	-0.23145
-0.00431	1.12046
0.04670	0.61031
0.40372	0.38074
0.32721	-0.84363
0.19971	0.50828
0.02119	0.35523
0.19971	0.15117
0.04670	0.04914
0.12320	0.71234
0.09770	0.27871
0.12320	-0.05289
0.25071	0.43176
0.14870	0.15117
0.22521	-1.60887
0.14870	1.12046
0.12320	0.86539
0.19971	1.04394
0.17421	-0.86914
0.04670	0.12566
0.14870	0.10015
-0.02981	0.04914
0.19971	0.73785
0.14870	0.25320
0.22521	-0.66508
0.32721	1.22250
0.14870	1.06945
0.27621	0.58480
0.09770	0.27871
0.09770	-2.45062
0.19971	0.04914
0.14870	0.71234
0.19971	0.04914
-0.08081	-0.71609
0.14870	0.48277
0.02119	0.40625
0.09770	0.83988
0.25071	-0.35899
0.22521	0.55929
0.22521	0.55929
0.27621	0.27871
0.22521	-0.66508
0.02119	-0.61406
0.22521	0.76336
-0.13181	0.27871
-0.00431	0.83988
0.30171	-0.15492
0.27621	-0.33348
0.27621	-0.07840
0.19971	0.81437
0.19971	0.30422
0.19971	-0.51203
0.02119	0.53379
0.12320	0.32972
0.07220	-0.46102
0.35272	-0.10391
0.12320	0.25320
-0.05531	0.53379
-0.05531	0.30422
0.17421	0.66132
0.25071	-0.76711
0.14870	0.58480
0.25071	0.17668
0.25071	-0.18043
0.17421	0.78886
0.12320	-0.38449
0.12320	0.91640
0.02119	0.43176
0.22521	-0.74160
0.12320	0.58480
0.12320	0.15117
0.17421	0.20219
0.09770	-0.02739
0.32721	0.25320
0.12320	-0.25695
0.04670	0.04914
0.04670	0.45726
0.14870	0.58480
0.25071	0.02363
0.30171	0.48277
0.04670	0.22769
0.09770	0.12566
0.17421	-0.43551
0.19971	0.27871
0.12320	-1.17523
0.14870	1.14597
0.19971	-0.02739
0.07220	0.63582
0.14870	0.25320
0.02119	0.22769
0.14870	-0.35899
0.17421	0.99292
0.25071	1.27351
0.27621	-0.46102
0.02119	-0.28246
0.12320	-1.58336
0.12320	0.22769
-0.08081	0.91640
0.17421	-0.79262
0.42922	-0.10391
-0.00431	0.53379
0.30171	0.63582
0.27621	0.76336
0.17421	-0.81812
0.07220	0.50828
0.19971	0.43176
0.09770	-0.61406
0.25071	0.35523
0.09770	0.25320
0.12320	0.35523
0.02119	-0.30797
0.19971	0.45726
0.09770	0.32972
0.19971	0.15117
0.12320	0.10015
0.25071	0.32972
-0.02981	-0.12942
0.19971	-0.00188
0.04670	0.38074
0.32721	0.76336
0.14870	-1.30277
0.22521	0.63582
0.07220	-0.86914
0.19971	0.43176
0.09770	0.22769
0.07220	0.68683
0.04670	0.15117
0.22521	-0.28246
0.09770	-0.35899
0.19971	0.43176
0.14870	1.42656
0.27621	-0.33348
0.12320	0.58480
0.17421	0.61031
0.09770	0.30422
0.14870	-0.56305
0.12320	-1.04770
0.12320	-0.30797
0.17421	0.55929
0.12320	0.91640
0.19971	0.78886
0.07220	-1.50683
0.22521	0.58480
0.09770	-0.12942
0.22521	0.66132
-0.00431	0.50828
0.07220	0.35523
-0.05531	0.20219
0.40372	0.27871
0.30171	0.55929
-0.23382	-0.79262
0.32721	0.15117
0.22521	-0.84363
0.17421	0.81437
0.19971	0.15117
0.22521	0.07465
0.12320	0.43176
0.19971	0.55929
-0.02981	0.35523
0.02119	-0.58856
0.22521	0.15117
0.25071	-0.10391
0.30171	-0.69059
0.02119	0.89089
0.02119	0.91640
0.02119	-0.25695
0.25071	0.73785
0.22521	0.50828
0.27621	0.32972
0.27621	-0.15492
0.02119	-0.02739
0.14870	0.32972
0.09770	-0.15492
0.07220	-0.07840
0.02119	-0.38449
0.12320	0.40625
0.12320	-0.35899
0.27621	0.81437
0.14870	1.35003
0.32721	-0.56305
0.09770	0.55929
0.25071	-1.45582
0.09770	1.57960
0.09770	-0.63957
-0.00431	0.78886
0.12320	1.24800
0.07220	-0.94566
0.12320	-0.12942
0.19971	0.04914
0.27621	0.63582
0.12320	-0.81812
-0.15732	0.61031
0.19971	0.78886
0.22521	0.15117
0.07220	-0.20594
0.37822	0.30422
0.27621	0.04914
0.02119	0.10015
0.09770	-0.41000
0.30171	0.63582
0.12320	0.12566
0.12320	0.40625
0.02119	-0.25695
0.12320	0.50828
0.19971	0.15117
0.12320	-0.58856
0.02119	-0.66508
0.14870	0.94191
0.17421	0.81437
0.27621	0.30422
0.04670	0.10015
0.12320	-0.00188
0.09770	0.07465
0.17421	0.27871
0.07220	-0.76711
0.17421	0.38074
0.19971	1.12046
0.25071	-0.12942
0.17421	0.02363
0.17421	-0.61406
0.22521	1.09496
0.09770	-0.02739
0.30171	0.73785
-0.00431	0.53379
-0.05531	-0.48652
0.12320	0.15117
0.25071	0.17668
0.27621	0.32972
0.19971	-0.18043
0.12320	0.55929
0.14870	-0.48652
0.09770	0.22769
0.12320	0.20219
0.22521	0.50828
0.07220	-0.30797
-0.02981	0.53379
0.27621	-0.00188
0.19971	0.12566
0.22521	0.55929
0.09770	0.63582
0.17421	-1.25176
0.07220	-0.76711
0.27621	0.73785
0.02119	0.45726
-0.10631	0.20219
0.17421	0.04914
0.25071	0.96742
0.35272	-1.04770
0.25071	1.24800
0.14870	0.96742
0.17421	-1.12422
0.02119	0.20219
0.12320	0.22769
0.12320	0.32972
0.25071	-0.30797
0.14870	-0.02739
0.12320	-0.25695
0.19971	0.91640
0.14870	0.73785
0.19971	0.22769
0.14870	-0.28246
0.02119	0.35523
-0.00431	0.07465
0.12320	0.04914
0.12320	-0.84363
0.25071	0.02363
0.17421	0.55929
0.17421	0.61031
0.22521	0.25320
0.14870	0.17668
0.07220	0.38074
0.22521	0.68683
0.12320	-0.18043
-0.02981	-0.00188
-0.10631	-0.23145
0.14870	1.17148
0.32721	0.40625
0.25071	-1.35379
0.27621	-0.02739
0.22521	1.14597
0.27621	0.58480
0.07220	0.32972
0.12320	0.48277
0.19971	0.43176
0.19971	-0.18043
-0.20832	-0.41000
0.12320	0.12566
0.09770	-1.63437
0.04670	0.35523
0.17421	0.86539
0.12320	-0.35899
0.22521	0.50828
0.22521	0.63582
0.22521	0.45726
0.17421	0.07465
0.07220	0.25320
0.17421	0.66132
0.07220	0.10015
0.19971	-0.92016
0.09770	0.55929
0.04670	-0.15492
0.04670	0.43176
0.32721	0.17668
0.02119	-0.23145
0.12320	0.55929
0.07220	0.43176
0.27621	0.58480
0.07220	0.20219
0.35272	0.38074
0.35272	0.55929
-0.08081	0.04914
0.17421	-0.07840
0.07220	-0.41000
0.07220	0.30422
0.09770	-0.56305
0.19971	-1.45582
0.12320	0.17668
0.22521	1.09496
0.19971	1.17148
0.12320	0.58480
-0.10631	-0.46102
-0.02981	1.17148
0.09770	-0.97117
0.37822	0.71234
0.22521	0.17668
0.27621	0.35523
0.17421	-0.33348
0.12320	0.17668
0.14870	-0.07840
0.04670	0.30422
0.14870	-0.23145
0.12320	0.07465
0.07220	0.91640
0.12320	-0.23145
0.27621	1.09496
0.17421	0.45726
0.17421	0.32972
0.07220	0.35523
-0.00431	-1.32828
0.14870	0.66132
0.25071	-0.38449
0.27621	-1.09871
0.09770	0.32972
0.12320	-0.58856
0.19971	0.40625
0.25071	0.78886
0.22521	0.58480
0.02119	0.71234
0.17421	0.66132
0.09770	0.04914
0.17421	-0.23145
0.14870	-0.18043
0.19971	0.12566
0.04670	-0.53754
-0.08081	-0.07840
0.27621	0.55929
0.25071	0.17668
-0.00431	-0.05289
0.04670	1.17148
0.27621	-0.25695
0.27621	0.15117
0.12320	-0.35899
0.25071	0.45726
0.12320	0.02363
0.17421	-0.51203
0.14870	0.55929
0.02119	0.50828
0.19971	0.12566
0.19971	0.63582
-0.02981	0.02363
0.04670	0.30422
0.30171	-1.32828
0.09770	0.38074
0.09770	0.43176
0.12320	0.83988
0.09770	-0.69059
0.30171	0.04914
0.12320	0.73785
0.17421	-1.04770
0.09770	0.50828
0.22521	1.01843
0.12320	1.57960
0.19971	-1.12422
0.12320	0.27871
0.32721	0.43176
0.04670	0.10015
0.04670	0.17668
0.04670	-0.46102
0.14870	-0.58856
0.12320	0.22769
0.27621	0.76336
0.17421	1.04394
0.19971	-0.86914
0.14870	-0.71609
0.17421	0.43176
0.17421	-0.15492
0.12320	1.04394
0.19971	0.91640
0.07220	0.48277
-0.00431	0.25320
0.14870	0.15117
0.12320	-0.43551
0.19971	-0.46102
0.14870	-0.23145
0.17421	-0.74160
0.12320	0.15117
0.19971	0.91640
0.35272	-0.23145
0.09770	1.01843
0.22521	0.76336
0.07220	-0.12942
0.04670	-1.53234
0.07220	0.40625
-0.02981	0.45726
0.27621	0.66132
0.12320	-0.15492
0.25071	-0.46102
0.09770	0.71234
0.37822	0.43176
-0.13181	0.15117
0.12320	0.15117
0.04670	0.17668
0.22521	-0.02739
0.14870	-0.20594
0.30171	0.25320
0.12320	0.10015
0.07220	0.50828
0.09770	0.83988
0.09770	-0.30797
0.07220	-1.68539
0.22521	0.55929
0.27621	0.45726
0.09770	2.03874
0.14870	-1.96597
0.09770	0.78886
0.09770	-0.89465
0.12320	0.78886
0.17421	0.48277
0.12320	0.68683
0.12320	0.25320
0.19971	0.10015
0.19971	-0.43551
0.27621	0.81437
0.19971	-0.35899
-0.10631	-0.23145
0.19971	0.55929
0.17421	-0.12942
0.04670	0.22769
0.07220	-0.00188
0.25071	0.96742
0.19971	-1.55785
0.22521	0.20219
0.07220	1.06945
0.17421	-0.28246
-0.02981	0.40625
0.12320	0.43176
0.07220	0.38074
0.12320	-0.97117
0.19971	-0.15492
0.12320	0.53379
0.27621	1.04394
0.17421	0.81437
0.02119	0.50828
-0.18282	0.55929
0.09770	0.15117
0.35272	-1.58336
0.25071	0.30422
0.22521	0.17668
0.02119	0.35523
0.14870	-0.38449
0.25071	0.15117
0.12320	0.58480
0.17421	-0.30797
0.22521	0.35523
0.07220	1.24800
0.12320	0.15117
