0.25071	0.35523
0.04670	0.22769
0.07220	0.15117
0.14870	0.02363
0.17421	0.20219
0.17421	0.22769
0.07220	0.04914
0.19971	0.15117
0.19971	0.04914
0.09770	0.15117
0.09770	0.10015
0.17421	0.17668
0.07220	0.07465
0.19971	0.17668
0.12320	0.02363
0.19971	0.25320
0.14870	-0.02739
0.14870	0.17668
0.14870	0.20219
0.14870	0.10015
0.12320	0.10015
0.09770	-0.00188
0.12320	0.27871
0.14870	0.35523
0.17421	0.22769
0.07220	0.12566
0.22521	0.25320
0.07220	-0.02739
0.22521	0.10015
0.02119	-0.00188
0.12320	-0.00188
0.04670	0.17668
0.17421	0.20219
0.12320	0.27871
0.14870	0.35523
0.12320	0.22769
0.22521	0.12566
0.09770	-0.07840
0.22521	-0.05289
0.07220	-0.12942
0.14870	0.27871
0.07220	0.20219
0.22521	0.20219
0.09770	0.15117
0.22521	0.12566
0.04670	0.22769
0.14870	0.20219
0.17421	0.20219
0.14870	0.02363
0.12320	0.20219
0.14870	0.10015
0.19971	0.15117
0.07220	0.10015
0.19971	0.15117
0.17421	0.25320
0.14870	0.07465
0.17421	0.20219
-0.02981	0.17668
0.32721	0.15117
0.12320	0.04914
0.12320	-0.02739
0.12320	-0.15492
0.07220	0.22769
0.17421	0.35523
0.17421	0.43176
0.09770	0.27871
0.22521	0.15117
0.12320	0.15117
0.12320	-0.00188
0.12320	0.22769
0.07220	-0.07840
0.17421	0.04914
0.14870	-0.02739
0.14870	-0.05289
0.17421	0.20219
0.19971	0.35523
0.17421	0.35523
0.02119	0.07465
0.14870	0.22769
0.14870	0.12566
0.12320	0.27871
0.12320	0.15117
0.12320	0.02363
0.22521	0.12566
0.09770	0.10015
0.22521	-0.02739
0.19971	0.02363
0.17421	0.22769
0.12320	0.25320
0.07220	0.12566
0.17421	0.15117
0.12320	0.12566
0.12320	0.27871
0.12320	0.10015
0.09770	-0.05289
0.19971	-0.02739
0.12320	0.15117
0.17421	0.35523
0.19971	0.17668
0.02119	0.04914
0.22521	0.15117
0.07220	0.35523
0.14870	0.10015
0.25071	0.10015
0.19971	-0.00188
0.17421	0.32972
0.12320	0.27871
0.22521	0.17668
0.12320	0.17668
0.12320	0.04914
0.17421	0.15117
0.07220	-0.00188
0.14870	0.04914
0.14870	0.17668
0.14870	0.10015
0.12320	0.20219
0.12320	0.10015
0.19971	0.12566
0.09770	0.27871
0.14870	0.10015
0.25071	0.04914
0.09770	0.15117
0.12320	0.17668
0.14870	0.22769
0.12320	0.30422
0.14870	0.32972
0.17421	0.17668
0.12320	0.15117
0.07220	-0.12942
0.19971	0.20219
0.09770	0.15117
0.12320	0.17668
-0.00431	-0.07840
0.37822	0.22769
0.07220	0.15117
0.17421	0.35523
0.07220	0.22769
0.19971	0.22769
0.14870	0.12566
0.19971	0.04914
0.14870	0.12566
0.14870	-0.18043
0.17421	-0.02739
0.09770	0.02363
0.14870	0.35523
0.22521	0.50828
0.17421	0.25320
0.22521	0.25320
0.04670	0.10015
0.12320	0.20219
0.04670	0.02363
0.09770	0.15117
0.12320	0.02363
0.14870	0.12566
0.14870	0.20219
0.14870	0.07465
0.27621	-0.00188
0.07220	-0.23145
0.22521	0.04914
0.14870	0.32972
0.14870	0.17668
0.17421	0.35523
0.04670	0.25320
0.12320	0.12566
0.22521	0.32972
0.12320	0.17668
0.19971	0.27871
0.12320	0.07465
0.14870	0.10015
0.09770	0.30422
0.14870	-0.07840
0.19971	-0.23145
0.09770	-0.05289
0.12320	0.12566
0.09770	0.43176
0.37822	-0.02739
0.14870	0.32972
0.02119	0.27871
0.22521	0.17668
-0.00431	0.15117
0.07220	0.17668
0.12320	0.22769
0.07220	0.04914
0.22521	-0.12942
0.14870	-0.07840
0.09770	-0.10391
0.25071	0.35523
0.12320	0.35523
0.14870	0.22769
0.14870	0.25320
0.04670	-0.02739
0.09770	-0.07840
0.12320	0.04914
0.09770	-0.00188
0.14870	0.15117
0.14870	0.35523
0.04670	0.50828
0.12320	0.17668
0.25071	-0.05289
0.14870	-0.10391
0.04670	0.07465
0.17421	-0.18043
0.27621	0.22769
0.12320	0.45726
0.07220	0.32972
0.22521	0.22769
0.22521	0.20219
0.09770	0.10015
0.14870	-0.00188
0.17421	0.15117
0.12320	0.02363
0.12320	-0.00188
0.17421	0.10015
0.14870	0.15117
0.12320	0.07465
0.12320	0.15117
0.37822	0.32972
-0.10631	0.04914
0.45472	0.02363
-0.02981	0.15117
-0.00431	0.15117
0.04670	0.35523
0.12320	0.40625
0.14870	0.35523
0.25071	0.20219
0.19971	-0.20594
0.12320	-0.00188
0.19971	-0.00188
0.22521	0.12566
0.12320	0.27871
0.07220	0.04914
0.19971	-0.00188
0.09770	0.38074
0.09770	0.17668
0.19971	-0.05289
0.12320	-0.05289
0.22521	0.20219
0.07220	0.32972
0.12320	0.12566
0.12320	0.12566
0.12320	0.10015
0.09770	0.12566
0.09770	0.17668
0.14870	-0.00188
0.22521	-0.00188
0.07220	0.35523
0.14870	0.38074
0.17421	0.15117
0.09770	-0.15492
0.14870	0.02363
0.09770	0.20219
0.22521	0.17668
0.12320	0.17668
0.17421	0.10015
0.22521	0.20219
-0.00431	0.17668
0.22521	0.15117
0.30171	0.15117
0.07220	0.10015
0.14870	0.17668
-0.02981	0.15117
0.14870	-0.05289
0.17421	0.02363
0.12320	0.27871
0.19971	0.30422
0.27621	0.17668
-0.05531	0.22769
0.09770	0.17668
0.32721	0.30422
0.17421	-0.00188
0.14870	-0.28246
0.19971	-0.51203
0.09770	0.10015
0.14870	0.61031
0.14870	0.43176
0.12320	0.35523
0.17421	0.38074
0.07220	0.17668
0.19971	0.20219
0.09770	0.02363
0.22521	0.02363
0.12320	-0.05289
0.09770	0.04914
-0.02981	0.20219
0.25071	0.27871
0.37822	0.32972
0.04670	0.15117
0.09770	0.04914
0.02119	-0.12942
0.22521	-0.02739
0.07220	0.25320
0.14870	0.17668
0.07220	0.17668
0.22521	0.25320
0.09770	0.27871
0.17421	0.20219
0.17421	0.15117
0.19971	0.04914
0.17421	0.04914
0.09770	0.12566
0.17421	0.22769
0.12320	0.17668
0.09770	0.10015
0.12320	-0.10391
0.12320	-0.00188
0.07220	-0.23145
0.19971	0.15117
0.04670	0.27871
0.19971	0.53379
0.02119	0.35523
0.27621	0.07465
0.07220	0.15117
0.04670	0.22769
0.14870	0.22769
0.09770	0.15117
0.22521	0.10015
0.12320	0.02363
0.17421	0.10015
0.14870	-0.07840
0.12320	-0.05289
0.12320	-0.23145
0.12320	0.10015
0.17421	0.45726
-0.02981	0.35523
0.32721	0.22769
0.25071	0.30422
-0.23382	0.12566
0.30171	0.10015
0.19971	0.10015
0.17421	0.02363
0.22521	0.15117
0.09770	0.30422
0.22521	0.10015
-0.05531	0.20219
0.17421	0.07465
0.27621	0.15117
0.17421	0.25320
0.09770	0.35523
0.19971	0.07465
0.12320	-0.20594
0.07220	-0.23145
0.02119	-0.28246
0.17421	0.17668
0.37822	0.58480
0.12320	0.58480
0.02119	0.48277
0.12320	0.27871
0.12320	0.22769
0.04670	0.04914
0.22521	0.04914
0.14870	0.17668
0.12320	-0.02739
0.22521	0.02363
0.07220	0.10015
0.22521	0.15117
0.17421	0.15117
0.14870	-0.02739
0.22521	0.30422
0.07220	0.04914
0.14870	-0.05289
0.09770	0.04914
0.17421	-0.02739
0.09770	0.20219
0.12320	0.20219
0.22521	0.10015
0.04670	0.45726
0.14870	0.53379
0.22521	0.68683
0.09770	0.35523
0.27621	0.10015
0.12320	0.10015
0.09770	-0.05289
0.12320	0.04914
0.07220	-0.10391
0.22521	0.02363
0.02119	-0.02739
0.35272	0.04914
-0.28482	0.07465
0.32721	0.25320
0.12320	0.10015
0.22521	0.04914
0.22521	0.20219
0.04670	-0.00188
0.07220	0.15117
0.37822	0.25320
0.09770	0.45726
-0.15732	0.35523
0.53123	0.35523
0.17421	0.22769
-0.02981	0.30422
0.19971	0.15117
0.02119	-0.20594
0.17421	-0.25695
-0.00431	-0.30797
0.19971	0.48277
0.14870	0.35523
0.25071	0.22769
0.14870	0.10015
0.27621	0.02363
0.09770	0.55929
-0.02981	0.10015
0.27621	-0.10391
0.17421	-0.05289
0.12320	-0.25695
0.19971	0.04914
0.02119	0.12566
0.19971	0.40625
0.22521	0.25320
0.19971	0.53379
0.04670	0.35523
0.12320	0.38074
0.09770	0.38074
0.07220	-0.02739
0.25071	-0.02739
0.14870	0.15117
0.07220	-0.02739
0.22521	-0.10391
0.19971	-0.12942
0.17421	-0.07840
0.14870	-0.12942
0.02119	0.35523
0.04670	0.25320
0.14870	0.04914
0.27621	0.22769
0.17421	0.55929
-0.08081	0.55929
0.45472	0.66132
0.37822	0.30422
0.12320	-0.18043
0.02119	-0.66508
0.09770	-0.84363
0.14870	0.27871
0.04670	0.25320
0.09770	0.50828
-0.08081	0.53379
0.22521	0.32972
0.17421	0.30422
0.25071	0.22769
0.30171	-0.02739
0.22521	-0.15492
0.04670	-0.10391
0.19971	0.15117
0.02119	0.35523
0.12320	0.07465
0.22521	-0.00188
0.14870	-0.20594
0.19971	-0.46102
0.22521	0.78886
0.09770	0.78886
0.07220	0.15117
0.14870	0.25320
0.09770	-0.35899
0.12320	-0.00188
0.27621	-0.12942
0.09770	0.12566
0.12320	0.89089
0.07220	0.71234
0.14870	0.61031
0.12320	0.45726
0.17421	0.10015
0.09770	-0.10391
0.19971	-0.12942
0.09770	-0.10391
0.19971	0.04914
0.14870	-0.05289
0.14870	-0.25695
0.14870	-0.81812
0.14870	-0.30797
0.02119	0.27871
0.22521	0.53379
-0.02981	0.55929
0.09770	0.71234
0.60773	0.53379
0.04670	0.17668
-0.46334	0.22769
0.25071	0.25320
0.19971	0.25320
0.25071	0.30422
0.07220	0.15117
0.30171	-0.00188
0.30171	0.22769
-0.00431	-0.35899
-0.18282	-0.58856
0.12320	-0.18043
0.22521	0.22769
0.14870	0.66132
0.19971	0.55929
0.32721	0.12566
0.27621	0.15117
0.12320	0.12566
-0.05531	0.38074
0.02119	0.20219
0.09770	0.17668
0.12320	0.10015
0.25071	0.27871
0.09770	0.12566
0.25071	0.73785
0.09770	-0.30797
0.17421	0.00000
-0.00431	0.00000
0.25071	-0.51203
0.17421	-0.63957
0.02119	-0.63957
0.09770	0.43176
0.14870	0.71234
0.22521	1.14597
0.09770	0.81437
0.22521	0.17668
0.17421	-0.33348
0.12320	-1.35379
0.14870	-0.43551
0.02119	0.61031
0.14870	0.81437
0.14870	0.91640
0.17421	0.73785
0.09770	0.25320
0.22521	0.10015
0.09770	-0.02739
0.22521	0.12566
0.09770	-0.25695
0.14870	-0.18043
0.09770	-0.02739
0.12320	0.07465
0.17421	-0.00188
0.19971	-0.30797
0.02119	0.04914
0.04670	0.32972
0.42922	0.45726
0.07220	0.32972
0.09770	0.35523
0.07220	0.20219
0.17421	0.32972
0.22521	0.07465
0.25071	0.17668
0.17421	0.10015
0.04670	0.04914
-0.08081	0.10015
-0.05531	0.25320
0.25071	0.25320
0.12320	0.17668
0.30171	0.12566
0.14870	0.10015
0.14870	0.12566
0.53123	-0.02739
0.40372	0.15117
-0.05531	0.12566
0.02119	0.45726
-0.15732	0.20219
0.07220	-0.25695
-0.00431	-0.20594
0.12320	-0.07840
0.12320	0.35523
0.12320	0.38074
-0.02981	-0.05289
0.14870	0.27871
0.12320	0.17668
0.40372	0.66132
0.19971	0.43176
0.40372	1.04394
0.27621	0.76336
0.25071	-0.30797
-0.25932	-0.84363
-0.53984	-0.79262
0.19971	-1.17523
0.40372	0.55929
0.53123	1.32453
-0.05531	0.43176
0.14870	0.40625
0.12320	0.35523
0.25071	0.66132
0.19971	0.04914
0.12320	-0.51203
0.25071	-0.43551
0.12320	-0.43551
-0.10631	-1.76191
0.14870	-0.86914
0.12320	0.81437
0.02119	2.03874
-0.05531	1.19699
0.12320	0.91640
0.35272	0.38074
0.22521	-0.05289
0.19971	-0.38449
0.25071	0.63582
0.22521	1.24800
0.02119	-0.30797
-0.18282	-0.89465
-0.18282	-1.35379
0.37822	-0.28246
0.50573	0.22769
0.30171	-0.02739
0.25071	0.91640
-0.10631	0.43176
0.19971	0.66132
0.25071	0.20219
0.40372	0.48277
0.12320	-0.30797
-0.05531	-1.12422
-0.10631	-0.46102
0.22521	0.61031
-0.05531	0.78886
-0.02981	0.58480
0.22521	0.83988
0.32721	0.76336
0.12320	1.47757
0.19971	-0.02739
-0.10631	-1.48133
0.14870	-2.14453
0.07220	-0.53754
0.32721	1.40105
0.27621	1.19699
0.30171	0.78886
0.30171	0.61031
0.45472	-1.27726
0.37822	0.30422
0.48022	0.25320
0.22521	-0.69059
-0.10631	-0.56305
-0.61635	1.45206
-0.28482	2.47238
0.17421	0.27871
0.22521	-0.92016
-0.79486	-1.20074
0.09770	0.12566
0.91375	0.22769
0.58223	1.27351
-0.59084	0.89089
-0.10631	-2.06800
0.14870	-2.68019
0.78624	0.71234
0.70974	1.19699
0.63323	1.52859
0.19971	0.38074
0.58223	2.16628
-0.13181	1.70714
-0.10631	-0.99668
0.14870	-0.86914
-0.82036	-0.92016
0.22521	-0.53754
0.22521	0.25320
0.04670	-0.79262
-0.28482	-0.71609
-0.18282	0.27871
0.22521	0.76336
-0.71835	1.37554
-0.28482	0.73785
1.34728	0.55929
0.86275	0.32972
0.35272	1.37554
0.42922	-0.56305
0.40372	0.22769
0.93925	-3.21585
0.35272	-2.83324
-1.68742	-0.61406
-0.61635	2.70194
-0.74385	2.57441
-0.02981	1.14597
0.99026	-0.15492
1.37278	0.25320
0.86275	2.88050
1.09226	-0.20594
-0.43783	-3.54745
-0.92237	-3.29238
-0.28482	-0.23145
0.14870	2.42136
0.50573	1.78367
0.12320	3.72225
0.45472	1.55410
-0.69285	1.45206
-0.31033	-1.20074
0.78624	0.22769
0.14870	-2.70570
-0.15732	-1.02219
-0.08081	-3.01179
0.37822	-1.35379
0.81175	1.35003
0.55673	2.54890
1.09226	1.91120
0.45472	2.16628
-0.36133	1.47757
0.12320	0.10015
0.17421	-3.13933
-0.28482	-3.49644
0.25071	-1.63437
0.12320	1.04394
-0.33583	2.70194
-0.20832	1.55410
-0.97337	2.01323
-0.10631	1.09496
0.83725	1.78367
0.22521	-3.06281
0.81175	-1.02219
0.48022	-0.53754
-0.25932	1.12046
-0.38683	2.08976
0.53123	0.63582
-0.08081	-0.46102
0.22521	-2.32308
1.09226	-1.12422
1.06676	-0.66508
0.83725	0.32972
0.88825	3.18659
0.04670	-0.71609
-0.46334	0.07465
-0.69285	-1.58336
-1.15188	1.14597
0.07220	2.19179
0.32721	1.17148
0.53123	0.61031
-0.08081	-0.05289
0.96476	0.61031
-1.07538	-0.18043
-1.12638	-1.30277
-0.43783	-2.09351
-0.28482	-0.66508
-0.00431	-1.91496
0.63323	1.52859
1.27078	2.88050
2.85188	0.30422
1.85731	0.43176
0.42922	1.37554
-0.53984	0.07465
-0.31033	-1.07320
0.40372	-2.37410
-0.15732	0.55929
-0.51434	3.26312
-0.38683	1.32453
-1.35589	-1.71090
-0.94787	-1.96597
0.14870	1.65613
0.42922	1.42656
0.42922	0.45726
0.96476	-0.53754
0.53123	1.88570
0.58223	0.35523
-0.23382	-0.71609
0.35272	-1.20074
-0.79486	-1.12422
0.55673	-0.25695
0.76074	1.09496
0.07220	1.40105
0.12320	1.42656
0.58223	-1.32828
0.53123	-0.41000
-0.08081	0.66132
-0.71835	-0.48652
-0.64185	0.32972
-0.53984	2.16628
-0.28482	-1.88945
1.44929	-0.00188
0.35272	-0.43551
-0.89686	0.68683
0.27621	-0.66508
0.17421	2.08976
1.01576	1.37554
0.14870	1.68163
0.96476	-3.39441
1.14327	1.04394
1.72980	0.12566
-1.40690	-0.86914
-1.35589	-0.81812
-0.43783	0.50828
0.27621	1.86019
-0.59084	0.66132
-0.05531	0.53379
-0.05531	0.10015
0.12320	-0.86914
1.04126	0.35523
2.26534	-0.46102
1.01576	0.83988
-0.59084	-1.17523
-0.28482	4.00284
-0.38683	-5.43503
-0.28482	-0.46102
-0.48884	-0.05289
-0.15732	1.01843
0.40372	2.34484
-0.46334	1.32453
-0.33583	1.29902
0.60773	0.81437
1.09226	0.76336
1.21977	0.27871
0.53123	-0.74160
-0.00431	-1.17523
0.22521	-2.39961
-0.23382	-0.46102
0.63323	-1.14973
-0.38683	-1.76191
-1.12638	0.53379
-0.61635	0.89089
-0.00431	3.41616
0.42922	2.24281
0.09770	0.96742
-0.56534	-0.46102
1.14327	-0.28246
0.91375	0.50828
0.83725	-0.61406
-0.38683	-0.58856
0.27621	-0.46102
1.42379	0.04914
0.25071	-0.10391
0.48022	1.17148
-0.66735	0.02363
-1.63641	0.81437
-0.13181	-1.50683
0.65874	-0.79262
-0.18282	-0.20594
-0.28482	1.14597
-0.94787	0.40625
0.42922	0.89089
1.09226	1.37554
1.52579	-0.63957
0.73524	0.20219
0.48022	-0.28246
0.55673	0.12566
0.02119	-0.18043
-0.79486	0.55929
-1.55991	0.40625
0.04670	-0.25695
0.32721	-0.58856
0.88825	-0.05289
-0.56534	1.55410
-1.02437	-1.12422
0.63323	-1.71090
0.19971	-1.86394
0.40372	0.71234
1.06676	3.31413
0.63323	1.65613
-0.05531	0.17668
1.01576	2.06425
0.83725	-0.71609
-1.04987	1.22250
-1.27939	-3.77702
0.25071	-1.60887
-0.20832	-1.76191
0.83725	-0.12942
1.09226	1.47757
1.24527	2.44687
-0.74385	2.44687
-0.51434	1.50308
-0.46334	0.30422
0.42922	-3.01179
0.53123	-1.58336
-0.51434	-0.51203
0.53123	1.14597
0.88825	1.22250
0.53123	-1.25176
-1.04987	0.50828
-0.15732	1.19699
0.68424	0.76336
-0.28482	-0.71609
0.68424	0.04914
1.01576	-0.53754
1.16877	0.27871
-1.07538	0.40625
-0.36133	1.01843
-0.28482	1.98773
-0.23382	-2.83324
0.83725	-0.86914
0.42922	0.55929
-0.08081	1.17148
-0.15732	1.29902
-0.51434	-0.92016
0.58223	0.38074
0.65874	-0.48652
-0.05531	0.35523
0.09770	0.81437
0.53123	1.63062
0.37822	0.86539
0.42922	1.68163
-0.02981	0.04914
-0.74385	-3.21585
0.25071	-1.88945
0.55673	-0.53754
0.55673	-0.25695
-0.69285	0.91640
-0.33583	1.14597
-0.66735	1.22250
0.63323	0.48277
1.52579	1.01843
1.09226	-0.74160
0.02119	-0.07840
-0.08081	-0.56305
-0.02981	1.17148
-0.02981	0.25320
1.72980	-0.33348
0.42922	-0.38449
-1.30489	0.78886
-0.66735	-1.37929
-0.08081	0.78886
0.30171	-1.14973
-0.28482	1.12046
0.02119	-1.20074
-0.23382	0.35523
0.78624	0.50828
1.04126	1.75816
-0.28482	1.93671
-0.59084	0.27871
0.09770	0.83988
0.45472	-1.02219
0.48022	0.32972
-0.13181	-0.15492
0.86275	-1.96597
0.42922	-1.12422
0.76074	0.53379
-1.02437	0.35523
0.19971	1.93671
-0.56534	-0.86914
-0.69285	0.15117
0.35272	0.35523
-0.05531	-0.15492
0.12320	1.86019
-0.00431	4.28343
1.60230	-2.47613
1.95932	-2.09351
0.48022	-2.70570
-1.04987	-0.58856
-2.04444	-0.76711
-0.02981	2.34484
0.14870	2.03874
0.42922	1.09496
0.99026	0.81437
1.21977	0.71234
1.09226	-0.46102
-2.06994	0.96742
-0.59084	-0.94566
0.70974	0.53379
1.06676	-1.27726
-2.24845	0.15117
-0.00431	-0.76711
0.60773	-1.35379
0.42922	-0.58856
1.21977	0.94191
-0.59084	2.03874
0.63323	0.96742
0.60773	-0.63957
0.17421	0.12566
0.93925	-0.18043
0.68424	0.68683
0.19971	1.09496
-0.36133	0.55929
-0.84586	0.45726
-0.74385	1.32453
-0.28482	0.30422
0.53123	-5.38401
0.45472	-3.29238
0.70974	0.25320
-0.25932	2.62542
0.22521	2.29382
0.09770	4.87010
-0.02981	-0.18043
0.83725	0.04914
0.93925	-2.01699
-1.35589	-1.83844
-0.89686	0.43176
1.11776	1.27351
1.01576	0.45726
0.88825	-0.84363
0.55673	-1.53234
0.48022	0.81437
0.58223	0.66132
-1.61091	1.45206
0.37822	1.19699
-0.56534	-0.69059
-0.23382	-1.09871
0.99026	-0.38449
-0.13181	1.06945
0.78624	0.32972
0.68424	0.66132
-1.71292	0.10015
-0.28482	-1.27726
0.63323	-0.07840
1.27078	0.91640
0.83725	0.61031
-0.05531	1.80917
0.32721	-0.79262
0.32721	-0.92016
0.42922	1.01843
0.02119	0.81437
-0.15732	-0.48652
-0.08081	-1.63437
-0.41233	-1.09871
-0.48884	0.58480
0.30171	1.70714
0.17421	1.93671
0.42922	1.35003
0.58223	1.78367
1.01576	0.58480
-0.79486	-0.02739
0.12320	-2.52714
0.32721	-2.73121
0.55673	-2.32308
-1.10088	-0.92016
-0.64185	1.73265
0.83725	2.01323
0.09770	0.99292
-0.23382	0.94191
1.52579	0.96742
1.83181	0.73785
0.88825	0.61031
0.27621	-0.10391
0.55673	-0.46102
-0.41233	2.59991
-1.12638	-1.76191
-1.71292	-2.70570
0.12320	-3.24136
0.14870	0.02363
0.50573	1.88570
-0.18282	2.39585
-1.53441	1.50308
0.99026	0.73785
0.73524	0.86539
0.91375	0.12566
1.16877	-0.51203
0.02119	-1.48133
0.14870	-0.07840
0.40372	0.86539
-0.05531	0.50828
-0.46334	1.19699
0.04670	-0.51203
0.32721	-1.12422
0.27621	-1.73640
-0.28482	0.02363
0.37822	0.35523
-0.18282	1.19699
0.02119	0.50828
0.63323	1.01843
0.91375	2.01323
0.32721	1.01843
-0.15732	1.88570
0.25071	0.04914
-0.05531	-4.77183
-1.68742	-4.03210
-0.51434	-1.65988
0.91375	2.75296
0.32721	2.52339
0.50573	2.01323
0.58223	1.45206
-0.20832	0.17668
0.04670	-0.71609
0.19971	-0.56305
0.65874	0.07465
1.04126	-0.23145
0.60773	-0.63957
-0.36133	1.47757
0.60773	0.22769
0.17421	-0.15492
-1.55991	-2.32308
-0.41233	0.07465
0.22521	0.27871
-0.31033	0.81437
0.22521	0.71234
-0.25932	0.22769
0.68424	0.81437
0.60773	0.22769
0.86275	0.76336
0.42922	0.35523
-0.23382	-0.15492
0.55673	0.83988
0.65874	0.10015
0.12320	0.55929
-0.84586	0.73785
-0.28482	-1.27726
0.27621	-0.86914
0.58223	-3.36890
0.88825	-1.07320
0.35272	1.83468
0.14870	2.59991
-1.02437	0.04914
-0.74385	-1.07320
-0.05531	-2.04250
0.37822	2.08976
0.30171	1.47757
-0.10631	1.14597
0.53123	1.35003
1.29628	0.20219
1.11776	0.17668
-0.48884	-0.35899
0.07220	-0.28246
0.96476	-1.63437
0.53123	-0.33348
-0.13181	0.38074
-2.55447	0.22769
-0.53984	-0.53754
-0.36133	0.02363
0.93925	-0.43551
0.81175	-0.84363
1.44929	0.81437
0.09770	1.45206
0.27621	2.26831
1.75531	1.27351
0.37822	-0.56305
-1.20288	-1.83844
-0.76936	-0.63957
-0.18282	0.20219
0.17421	2.16628
0.78624	0.81437
0.04670	1.27351
-0.51434	-2.37410
0.35272	-0.33348
0.53123	-1.37929
0.32721	-1.07320
0.48022	2.26831
-0.33583	-0.35899
0.02119	-0.63957
0.25071	0.50828
0.70974	2.03874
0.32721	1.50308
1.29628	2.29382
0.70974	-1.17523
-1.10088	-1.09871
-0.82036	-1.04770
-0.97337	-2.70570
-0.20832	0.04914
0.93925	1.47757
0.70974	2.98253
1.34728	0.68683
0.58223	0.43176
-0.31033	-0.76711
-1.20288	-0.76711
-1.10088	0.20219
0.42922	-0.05289
1.70430	-0.18043
1.04126	0.15117
-0.59084	0.58480
-0.28482	0.81437
0.53123	-0.02739
-0.25932	-0.23145
-0.59084	-0.46102
0.88825	-0.53754
0.45472	0.25320
0.09770	0.96742
-0.59084	1.32453
0.04670	-0.25695
0.88825	-0.25695
-0.41233	-0.35899
0.42922	0.81437
0.65874	-0.20594
1.09226	-0.10391
0.09770	0.81437
-0.82036	-1.73640
-0.46334	-1.96597
0.12320	-0.61406
0.17421	1.35003
-0.08081	3.26312
-0.15732	3.36515
-0.00431	-0.58856
0.35272	-1.35379
0.63323	-0.46102
1.01576	-0.30797
-0.66735	-1.35379
-0.59084	-1.63437
0.40372	1.09496
0.50573	1.68163
1.24527	1.29902
0.99026	0.89089
0.27621	0.66132
-1.55991	-0.43551
0.58223	0.07465
2.46935	-1.20074
0.42922	-0.76711
-1.76392	-0.38449
-1.68742	0.12566
-0.08081	0.53379
1.09226	0.86539
-0.08081	0.73785
-0.08081	0.55929
0.32721	0.68683
0.40372	-0.18043
0.12320	-0.41000
0.58223	0.45726
0.83725	-0.10391
1.01576	-0.23145
0.50573	1.83468
-0.18282	-1.40480
0.07220	-1.96597
0.19971	-0.61406
-0.28482	1.29902
-1.94243	0.66132
-0.20832	1.75816
0.02119	0.25320
-0.15732	-0.30797
1.65330	0.68683
1.39828	1.14597
0.32721	0.91640
-1.78942	-0.63957
-2.04444	-3.44542
0.93925	-1.12422
0.63323	-0.63957
1.65330	1.63062
1.32178	2.26831
0.70974	1.52859
0.27621	0.22769
0.32721	-1.22625
0.12320	1.09496
-0.56534	0.55929
-0.92237	-0.41000
-0.46334	-0.76711
0.35272	-2.52714
-0.05531	-0.10391
0.17421	0.71234
-0.69285	1.70714
0.83725	1.37554
-0.56534	0.38074
0.22521	-0.00188
-0.31033	-0.25695
1.78081	-0.30797
0.19971	-0.56305
0.09770	0.89089
-0.56534	0.15117
0.45472	0.76336
1.06676	-0.35899
0.17421	0.63582
0.45472	-0.02739
0.17421	-0.02739
-0.31033	0.30422
-0.69285	-0.18043
-0.53984	-0.25695
-0.71835	-0.89465
0.48022	-0.07840
1.27078	1.98773
1.27078	1.52859
-0.48884	1.45206
-0.82036	0.22769
-0.31033	-0.28246
0.12320	-0.79262
0.91375	-1.53234
0.83725	-1.40480
0.42922	1.35003
0.35272	0.32972
0.14870	0.61031
-0.08081	-0.02739
-1.20288	1.17148
-0.56534	-0.00188
0.60773	-1.53234
1.04126	-0.71609
0.35272	1.42656
-0.61635	0.83988
-0.71835	-0.12942
-0.13181	-0.20594
1.67880	-0.05289
0.32721	0.73785
0.40372	2.06425
0.55673	0.10015
0.17421	-1.43031
0.55673	-1.60887
0.42922	0.02363
-0.64185	0.66132
0.93925	0.43176
-0.74385	0.94191
-0.53984	-0.63957
0.30171	0.58480
0.25071	0.43176
-0.18282	0.32972
0.09770	-0.15492
0.19971	-0.51203
-0.20832	0.58480
0.86275	0.66132
0.68424	1.63062
0.50573	-1.27726
0.04670	-0.46102
-0.64185	1.29902
0.68424	-0.38449
1.11776	0.15117
-0.61635	0.17668
-0.64185	-1.20074
0.91375	-0.43551
-0.25932	-2.09351
-0.10631	1.70714
0.27621	2.67644
-0.13181	1.52859
-0.20832	-0.18043
0.07220	0.86539
1.55129	0.17668
1.34728	-1.22625
-0.82036	-0.63957
-0.59084	0.22769
0.45472	1.12046
-0.99887	-0.43551
1.04126	-1.43031
0.50573	-0.61406
0.68424	1.29902
-0.28482	0.99292
-0.71835	0.94191
-1.71292	-0.07840
0.09770	0.04914
0.09770	0.76336
1.29628	-0.61406
1.78081	-0.46102
0.32721	-0.35899
-0.13181	0.96742
0.63323	-0.10391
-0.28482	0.50828
-0.97337	-0.15492
-0.00431	-0.99668
-0.66735	0.48277
0.70974	1.75816
0.25071	-0.12942
0.63323	0.25320
0.19971	-0.00188
0.35272	0.96742
0.22521	0.15117
0.07220	-0.86914
0.07220	-0.07840
-0.08081	-0.12942
0.45472	1.22250
0.88825	0.55929
-0.41233	1.22250
-0.53984	-0.46102
-0.38683	-2.39961
-0.69285	-1.17523
0.40372	-0.25695
0.70974	1.29902
-0.31033	1.12046
0.93925	0.83988
-0.15732	0.58480
1.37278	0.78886
1.72980	-0.66508
1.21977	0.02363
-1.55991	-0.99668
-1.68742	-0.43551
-0.92237	0.27871
0.50573	0.71234
0.86275	1.06945
1.01576	0.76336
0.30171	0.55929
-0.43783	-0.18043
-0.15732	-0.12942
-0.05531	0.45726
0.48022	0.20219
0.63323	0.22769
-1.12638	-0.53754
-0.84586	-0.33348
0.30171	-0.28246
0.73524	-0.28246
0.81175	-0.35899
0.83725	0.91640
0.50573	0.91640
0.22521	0.66132
-0.15732	0.94191
-0.15732	-0.51203
-0.28482	-1.17523
0.73524	0.22769
-0.20832	0.07465
-0.10631	0.99292
-0.76936	1.17148
0.19971	-0.43551
-0.23382	-0.07840
0.63323	1.32453
0.42922	0.43176
-0.00431	-0.86914
0.42922	-0.63957
1.72980	-0.79262
-0.31033	0.83988
-0.79486	0.68683
-1.84042	0.38074
1.32178	-0.61406
0.88825	-1.12422
0.07220	0.71234
0.48022	1.40105
0.65874	1.40105
0.63323	0.04914
-0.10631	-0.02739
-0.31033	-0.97117
0.48022	0.22769
0.02119	0.53379
-0.87136	-0.25695
1.21977	0.50828
0.53123	0.02363
-1.40690	1.93671
-1.30489	-1.30277
0.37822	-0.71609
0.86275	0.15117
1.27078	0.66132
0.25071	-0.10391
-0.13181	-0.00188
0.27621	-0.43551
0.96476	0.48277
0.14870	0.20219
-0.08081	0.55929
0.09770	0.30422
-0.08081	1.37554
0.22521	-0.25695
0.65874	0.04914
-0.48884	0.45726
-0.43783	-0.71609
-0.05531	-0.92016
0.07220	0.12566
1.27078	0.15117
-0.20832	0.32972
0.02119	0.50828
-0.23382	-0.97117
0.25071	0.40625
0.63323	0.83988
0.14870	0.96742
-0.20832	0.04914
0.53123	-0.00188
0.76074	0.40625
0.32721	0.45726
-0.41233	0.04914
-1.20288	-1.40480
0.76074	-1.35379
0.37822	0.12566
0.07220	0.50828
0.53123	0.71234
0.30171	1.06945
0.25071	-0.20594
-0.79486	-0.33348
-0.05531	0.45726
1.34728	1.29902
-0.84586	0.20219
-1.27939	0.30422
-0.08081	-0.51203
0.60773	0.73785
0.96476	-0.20594
0.78624	0.35523
0.63323	0.76336
-0.61635	0.55929
0.25071	-0.84363
0.53123	-0.43551
-0.36133	-0.63957
-0.05531	-0.02739
-0.08081	-0.20594
0.25071	-0.41000
0.42922	0.40625
0.02119	0.38074
-0.31033	1.12046
0.02119	0.10015
0.76074	0.91640
0.12320	0.12566
-0.20832	-0.33348
0.32721	-1.65988
0.53123	0.66132
0.07220	0.25320
0.68424	1.32453
-0.25932	1.14597
-0.59084	1.17148
0.55673	-0.23145
0.83725	-1.48133
-0.79486	-0.84363
-0.15732	-0.51203
0.32721	0.86539
1.16877	0.10015
0.70974	-0.30797
0.73524	-0.38449
-1.53441	0.66132
-0.13181	1.12046
0.68424	1.06945
0.63323	0.63582
-0.53984	-0.71609
-0.69285	-0.99668
-0.41233	-0.51203
1.78081	0.32972
1.95932	1.12046
0.53123	0.91640
-0.94787	0.04914
-0.13181	-0.33348
-0.53984	-0.18043
1.06676	0.45726
-0.38683	0.96742
0.09770	-1.17523
0.02119	1.40105
-0.05531	-0.86914
0.04670	0.45726
0.35272	0.30422
0.07220	-0.00188
0.19971	0.55929
0.19971	-0.71609
0.40372	-0.92016
0.63323	-0.18043
-0.18282	2.16628
-0.46334	1.09496
0.42922	0.55929
0.45472	-0.81812
0.19971	-1.81293
-0.53984	-1.68539
-0.89686	1.01843
1.01576	1.70714
1.21977	1.45206
1.27078	1.35003
0.17421	1.37554
-0.69285	0.96742
0.37822	-1.14973
2.23984	-2.52714
-0.61635	-1.99148
-2.52897	0.45726
-0.10631	1.14597
-1.43240	0.61031
0.12320	0.22769
1.24527	0.48277
0.09770	0.53379
-0.15732	0.32972
1.19427	-0.35899
0.25071	0.12566
1.01576	0.07465
0.48022	-0.46102
0.07220	-0.66508
0.42922	0.25320
0.25071	1.35003
-0.46334	0.22769
-0.61635	0.07465
-0.18282	-0.05289
-0.25932	1.47757
0.07220	-0.56305
0.48022	1.57960
0.19971	-0.41000
-0.69285	0.86539
0.12320	-1.20074
1.06676	-0.69059
0.83725	0.53379
0.09770	-0.43551
-0.38683	0.32972
0.55673	0.38074
-0.00431	1.09496
0.04670	0.83988
0.27621	-0.07840
0.91375	-0.38449
0.02119	-0.15492
-1.17738	-1.07320
0.65874	-0.35899
-0.51434	0.02363
0.65874	-0.48652
-0.46334	0.58480
0.35272	0.48277
2.29084	1.70714
1.11776	0.63582
-1.73842	0.91640
-1.81492	-0.15492
1.09226	-0.56305
1.11776	0.32972
-0.92237	-0.48652
0.76074	-0.46102
-0.15732	-0.23145
0.27621	-0.05289
0.50573	0.32972
0.04670	0.10015
0.04670	0.63582
-0.43783	0.78886
0.07220	0.63582
-0.15732	0.12566
0.19971	1.14597
0.09770	-0.12942
-0.02981	-1.30277
0.25071	-2.93527
0.48022	0.68683
0.27621	1.52859
0.45472	2.19179
0.42922	-0.63957
0.42922	-0.33348
-0.41233	0.78886
-0.71835	1.83468
0.17421	0.73785
0.99026	-1.04770
0.40372	-1.53234
0.27621	0.10015
0.65874	0.94191
-1.50890	1.06945
-0.31033	-0.43551
0.32721	0.27871
0.48022	0.35523
0.58223	-0.28246
0.22521	0.25320
1.42379	-0.79262
0.22521	-0.58856
-0.15732	-1.43031
0.73524	1.29902
-1.12638	2.14077
-0.05531	0.30422
0.09770	-0.76711
1.11776	0.48277
-0.25932	0.12566
0.25071	-0.02739
-3.34502	0.61031
0.42922	0.50828
2.77537	0.38074
0.81175	-0.35899
0.27621	0.15117
0.63323	0.20219
0.42922	0.35523
0.27621	0.71234
-0.10631	0.17668
-0.31033	-0.66508
0.04670	-1.02219
-0.28482	-1.27726
-0.20832	-0.02739
-0.02981	1.65613
-0.00431	0.78886
-0.02981	1.52859
0.04670	0.63582
0.42922	-0.76711
0.25071	-1.53234
1.14327	0.48277
0.63323	1.01843
-0.43783	1.24800
-1.50890	1.37554
0.42922	0.73785
0.53123	-2.62918
1.39828	-2.55265
1.39828	-0.79262
-0.99887	1.12046
-0.36133	1.78367
-0.89686	1.24800
0.40372	0.58480
1.06676	1.86019
-0.13181	1.01843
0.58223	-0.25695
0.60773	-0.63957
-0.23382	-0.61406
-0.53984	-0.69059
0.37822	-0.94566
-0.08081	-0.41000
-0.64185	0.83988
-0.59084	1.22250
1.06676	-0.35899
-0.36133	-0.61406
0.55673	-0.07840
0.68424	0.99292
-0.18282	0.48277
-0.02981	0.32972
1.21977	-0.46102
0.25071	-0.00188
-0.10631	1.57960
0.09770	0.61031
-0.02981	0.66132
0.02119	-0.74160
-0.00431	-0.48652
0.12320	-0.76711
-0.00431	-0.69059
-0.10631	0.91640
0.27621	-0.10391
0.17421	0.30422
0.27621	0.53379
0.78624	0.83988
-0.25932	0.30422
-0.64185	0.83988
-0.08081	-0.15492
0.48022	0.10015
0.63323	-0.61406
0.17421	-1.02219
-0.05531	-0.86914
1.04126	-0.00188
-1.22839	-0.58856
0.68424	-0.18043
0.17421	1.68163
0.32721	1.88570
0.37822	1.17148
0.30171	0.53379
0.50573	0.27871
-0.38683	0.25320
-0.46334	-0.81812
-0.15732	-0.43551
-0.53984	-0.15492
-0.15732	0.04914
0.45472	-0.23145
1.32178	0.12566
0.60773	0.25320
-0.89686	0.15117
0.63323	-0.94566
0.48022	-0.07840
0.45472	0.15117
0.07220	0.35523
-0.10631	-0.25695
-0.48884	0.55929
0.02119	0.53379
-0.05531	0.78886
0.17421	0.53379
0.27621	0.55929
0.27621	0.73785
0.22521	0.48277
0.25071	0.66132
0.73524	0.12566
-0.08081	-0.53754
0.50573	-1.25176
0.45472	0.38074
0.45472	-0.63957
-1.22839	-0.74160
-0.64185	-1.02219
0.04670	0.32972
1.16877	1.55410
-0.13181	1.96222
-0.36133	0.22769
1.24527	-0.33348
1.16877	0.15117
1.01576	0.38074
0.63323	1.01843
0.68424	-0.81812
-0.59084	-0.35899
-0.46334	-0.46102
-1.73842	-0.28246
-0.56534	0.38074
0.48022	0.12566
0.73524	0.76336
0.73524	1.04394
0.35272	1.98773
-0.66735	-0.84363
0.32721	-0.63957
-0.48884	-1.91496
0.12320	0.68683
0.93925	0.02363
0.76074	0.78886
0.40372	0.76336
0.42922	0.55929
0.07220	0.22769
0.04670	1.83468
-0.02981	-1.22625
0.25071	-1.14973
-0.08081	-0.84363
-0.20832	0.86539
-0.02981	0.25320
0.02119	-1.27726
0.58223	1.09496
0.63323	1.75816
0.14870	0.20219
-0.89686	-0.41000
-0.38683	0.30422
0.78624	-0.46102
0.73524	1.04394
1.14327	-1.04770
0.88825	0.10015
0.37822	-0.46102
-0.00431	1.40105
-0.89686	0.55929
-1.04987	-0.63957
-0.08081	-0.25695
0.02119	0.96742
-0.18282	-0.15492
1.34728	-0.38449
1.34728	-0.10391
0.37822	-0.02739
-1.30489	0.73785
0.07220	0.63582
0.76074	0.22769
-0.31033	0.10015
0.12320	0.27871
0.09770	0.61031
0.45472	0.15117
0.07220	0.20219
-0.97337	-0.94566
-0.41233	-0.10391
0.45472	-0.05289
0.53123	0.20219
0.58223	-0.28246
0.27621	0.22769
0.30171	0.78886
0.35272	1.50308
0.04670	0.48277
-0.31033	-0.12942
-0.23382	-2.32308
0.22521	0.55929
0.40372	-1.17523
0.30171	0.55929
1.42379	1.04394
-0.05531	1.01843
-1.12638	1.45206
-0.05531	-0.02739
0.04670	0.58480
0.19971	-1.14973
0.42922	-0.15492
0.65874	-0.35899
0.73524	0.20219
0.53123	0.61031
0.09770	0.30422
0.22521	0.04914
-0.71835	-0.02739
-0.56534	-0.63957
-0.74385	-0.48652
-0.08081	0.45726
0.40372	0.32972
0.76074	0.43176
0.86275	0.30422
-0.02981	0.22769
0.40372	0.22769
-0.18282	0.22769
0.35272	0.22769
0.70974	0.48277
0.27621	0.45726
-0.18282	0.32972
-0.13181	0.45726
-0.82036	-1.04770
-0.15732	-0.38449
-0.38683	-0.33348
0.25071	1.01843
0.48022	0.50828
1.11776	-0.07840
2.26534	-0.48652
0.27621	0.10015
-0.48884	1.40105
0.09770	0.91640
0.63323	0.58480
-0.18282	0.10015
-0.41233	0.15117
-0.76936	-0.05289
-0.94787	-1.63437
0.45472	-0.35899
0.53123	1.55410
0.73524	0.89089
0.93925	-0.46102
-0.51434	-0.76711
0.19971	-0.18043
0.35272	-0.00188
-0.41233	0.81437
-0.41233	0.48277
0.76074	1.14597
0.86275	0.91640
0.45472	-1.86394
0.32721	-0.81812
-0.97337	0.71234
-1.86593	0.45726
0.88825	0.35523
0.96476	0.86539
0.65874	0.02363
0.58223	-0.20594
0.53123	-1.27726
0.30171	0.25320
-0.08081	0.02363
0.02119	0.25320
-0.33583	0.32972
-1.17738	0.99292
-0.48884	0.81437
0.91375	0.17668
1.27078	0.48277
-0.08081	0.48277
0.27621	0.04914
0.70974	-0.46102
0.02119	-0.92016
-0.28482	-1.07320
-0.02981	0.48277
0.27621	0.30422
0.55673	0.96742
0.42922	0.27871
-0.31033	2.39585
-0.13181	0.25320
0.73524	-0.23145
0.22521	-2.45062
-1.15188	-1.71090
-0.08081	-0.56305
0.70974	1.80917
0.12320	1.86019
0.04670	1.27351
0.40372	0.66132
0.53123	0.61031
0.40372	-0.79262
0.58223	-0.10391
0.30171	-0.48652
0.14870	-0.07840
-0.79486	-0.61406
-0.36133	0.04914
0.12320	0.78886
0.25071	-0.97117
0.65874	0.68683
-0.05531	-0.07840
-0.05531	0.55929
-0.41233	0.45726
0.35272	0.38074
0.78624	0.07465
-0.36133	0.32972
-0.05531	0.63582
0.53123	0.58480
-0.13181	0.25320
0.17421	-0.02739
0.30171	-0.48652
-0.08081	-1.58336
-0.71835	1.29902
-0.08081	0.66132
0.83725	-0.20594
0.32721	-0.79262
-0.76936	0.25320
-0.08081	0.78886
0.76074	0.32972
0.96476	0.07465
0.83725	1.32453
0.60773	-0.10391
-0.08081	0.25320
-0.25932	-0.38449
-0.20832	-0.99668
-0.18282	-0.76711
-0.23382	0.58480
-0.48884	0.58480
-0.05531	1.12046
0.22521	0.20219
0.58223	-0.61406
-0.41233	-0.02739
-0.38683	0.22769
0.91375	0.73785
0.04670	0.10015
-0.46334	0.78886
0.02119	0.86539
0.93925	-0.05289
0.53123	-0.38449
0.68424	-2.39961
0.93925	-0.84363
0.99026	0.96742
0.37822	1.12046
0.04670	1.14597
-0.20832	0.66132
-0.94787	0.17668
-0.46334	0.71234
-0.25932	0.10015
-0.23382	0.07465
0.32721	-0.63957
0.14870	-0.66508
0.07220	-0.56305
0.19971	0.43176
0.35272	0.89089
-0.74385	0.43176
-0.00431	0.50828
1.37278	-0.00188
0.88825	-0.07840
-0.02981	-0.20594
-0.31033	-0.84363
0.50573	0.15117
0.30171	0.04914
0.22521	0.38074
0.73524	0.43176
-0.31033	0.86539
-0.43783	0.15117
-0.08081	0.96742
0.09770	0.66132
0.19971	0.30422
0.48022	0.12566
0.68424	-0.10391
0.30171	0.07465
-0.46334	-0.33348
0.22521	-0.97117
0.14870	-1.78742
-0.02981	0.30422
-1.35589	0.53379
0.25071	0.12566
1.37278	0.30422
1.16877	0.96742
0.30171	0.22769
-0.46334	0.32972
-0.10631	0.45726
0.68424	0.63582
0.45472	0.27871
-0.41233	0.22769
0.02119	0.12566
0.17421	-0.10391
-0.38683	-0.84363
0.30171	0.30422
0.14870	0.27871
0.63323	0.10015
1.01576	0.12566
-0.56534	-0.05289
-0.71835	0.61031
-0.25932	-0.23145
0.42922	0.07465
0.12320	-0.43551
0.37822	0.35523
0.22521	1.06945
1.14327	0.68683
0.91375	-0.20594
0.14870	-0.10391
-0.13181	0.99292
-0.82036	-0.71609
-0.53984	-0.94566
-0.18282	-0.05289
0.30171	1.47757
0.32721	0.89089
0.30171	1.75816
0.09770	-0.84363
-0.41233	-0.63957
0.50573	-1.02219
1.01576	-0.74160
0.22521	0.45726
0.04670	0.45726
0.12320	0.94191
0.45472	-0.38449
0.04670	-0.66508
-0.28482	-0.81812
-1.17738	0.94191
0.32721	1.42656
1.06676	0.83988
0.73524	0.58480
0.96476	0.12566
0.14870	-0.05289
-0.87136	-0.00188
-0.74385	0.68683
0.83725	-0.15492
0.04670	-0.46102
0.30171	-0.89465
1.09226	-0.89465
-0.71835	0.32972
-0.46334	0.15117
0.53123	0.48277
0.32721	0.55929
0.30171	-0.05289
0.17421	0.17668
0.25071	-0.12942
-0.25932	0.78886
0.02119	0.73785
0.19971	0.86539
0.73524	0.40625
-0.10631	-1.02219
0.42922	0.02363
0.30171	-0.02739
-0.20832	0.32972
0.35272	0.04914
0.04670	0.63582
-0.13181	-0.56305
0.60773	-0.53754
0.07220	0.27871
-0.64185	0.55929
0.12320	0.32972
0.42922	-0.05289
0.40372	1.04394
0.50573	0.83988
0.48022	0.83988
0.45472	-0.10391
0.09770	-1.55785
-0.08081	-2.14453
-0.10631	0.12566
-0.18282	0.35523
-0.36133	1.04394
-0.53984	1.17148
-0.00431	0.83988
1.09226	0.07465
-0.02981	0.02363
0.19971	0.35523
0.68424	0.04914
1.55129	0.10015
0.73524	-0.25695
0.12320	-0.56305
-0.82036	0.15117
-1.33039	0.22769
-1.30489	-0.23145
1.01576	0.30422
0.68424	-0.23145
0.81175	0.63582
0.27621	0.30422
0.07220	0.43176
0.22521	0.32972
-0.00431	0.76336
0.14870	1.40105
-0.20832	-0.53754
-0.71835	-1.53234
0.14870	-1.53234
0.55673	-0.20594
0.25071	1.22250
-0.02981	2.16628
-0.38683	0.53379
0.45472	-0.15492
0.30171	-1.20074
0.25071	-0.43551
0.14870	1.27351
0.45472	1.01843
0.37822	0.32972
0.78624	0.58480
0.42922	-0.28246
0.12320	0.02363
-0.05531	-0.66508
-0.76936	-0.02739
-0.33583	-0.46102
-0.38683	-0.66508
0.19971	0.04914
-0.31033	0.40625
0.91375	0.89089
0.76074	1.01843
1.24527	0.25320
0.53123	-0.12942
-0.71835	-0.43551
0.65874	0.22769
0.99026	0.45726
0.04670	0.35523
-0.82036	0.22769
-1.20288	0.43176
-0.41233	0.27871
-0.38683	-0.28246
0.86275	-0.63957
0.99026	-0.41000
-0.59084	-0.23145
-0.53984	0.35523
-0.13181	0.76336
1.19427	0.40625
0.30171	-0.28246
0.58223	-0.23145
0.40372	0.83988
0.35272	1.35003
0.14870	-0.12942
-0.00431	-0.35899
-0.28482	0.32972
0.25071	0.45726
0.17421	0.17668
-0.15732	1.22250
-0.59084	-0.02739
-0.87136	1.14597
0.73524	-0.97117
1.11776	-1.09871
0.48022	-2.22105
0.09770	-1.27726
-0.66735	0.96742
-0.61635	2.72745
-0.23382	1.06945
0.42922	-0.46102
0.58223	0.02363
1.65330	0.48277
1.04126	0.40625
-0.15732	0.35523
0.02119	-0.23145
-0.00431	0.89089
0.22521	0.40625
0.27621	-0.20594
-0.92237	-0.48652
-0.82036	-0.53754
0.09770	-0.25695
0.02119	0.40625
0.73524	0.78886
-0.48884	-0.28246
0.02119	-0.71609
0.37822	-0.38449
0.32721	1.35003
0.42922	1.17148
0.27621	0.27871
0.22521	0.58480
0.42922	0.38074
0.50573	0.38074
0.27621	0.25320
0.27621	-0.00188
-0.23382	-0.46102
-0.20832	-0.97117
0.37822	-0.12942
-0.38683	0.76336
-0.36133	0.89089
-0.79486	0.12566
0.65874	0.45726
0.65874	-0.69059
0.40372	-0.66508
0.42922	-0.99668
0.63323	-0.79262
0.58223	1.24800
-0.48884	1.29902
-0.51434	1.12046
0.42922	1.63062
0.14870	0.78886
0.25071	-0.02739
-0.51434	-0.25695
0.83725	0.17668
-0.61635	0.04914
-0.02981	-0.61406
-0.64185	-1.20074
0.83725	-1.55785
0.48022	0.07465
1.01576	0.99292
0.14870	0.78886
0.96476	0.50828
-0.08081	0.22769
-0.64185	1.17148
-0.94787	0.94191
0.32721	-0.69059
0.63323	-2.06800
0.19971	-0.25695
0.37822	0.66132
0.30171	1.57960
-0.20832	0.68683
-0.23382	0.58480
-0.53984	-0.10391
0.19971	-0.02739
0.55673	-0.46102
0.32721	-0.15492
0.48022	0.43176
0.58223	-0.61406
-0.71835	-0.69059
-0.08081	0.66132
0.30171	1.01843
0.30171	-0.25695
0.22521	-0.92016
0.19971	0.35523
0.32721	2.06425
-0.20832	0.94191
0.45472	0.40625
0.63323	-0.41000
-0.25932	0.50828
-1.63641	-0.81812
0.22521	-0.18043
0.27621	-1.32828
0.04670	-0.46102
1.60230	0.17668
0.42922	0.10015
-0.02981	1.12046
-0.15732	0.55929
0.40372	0.81437
0.53123	0.50828
-0.20832	-0.02739
0.35272	-0.10391
-0.79486	0.15117
-0.74385	-0.00188
0.37822	0.55929
-0.05531	-0.35899
0.60773	-1.27726
0.04670	-0.35899
0.53123	0.96742
0.30171	0.50828
0.07220	0.73785
0.27621	0.94191
0.25071	0.32972
0.14870	-0.61406
0.12320	0.40625
0.25071	-0.76711
0.45472	-0.23145
-0.51434	0.48277
-0.00431	1.12046
-0.00431	-0.07840
0.27621	-0.02739
0.32721	-1.37929
0.14870	0.89089
0.14870	0.48277
-0.43783	0.02363
0.53123	0.96742
0.73524	0.76336
-0.13181	-0.35899
-0.15732	-0.02739
-0.82036	0.73785
0.07220	0.50828
1.04126	-0.92016
1.06676	-0.30797
0.12320	-0.99668
-0.76936	-0.15492
-0.18282	0.55929
-0.28482	0.73785
0.27621	0.53379
0.81175	0.22769
0.22521	0.76336
0.86275	-0.92016
1.11776	-0.35899
-0.53984	0.38074
-0.38683	0.35523
-1.35589	0.35523
-0.20832	-0.05289
0.83725	0.71234
0.22521	0.35523
0.42922	0.50828
0.02119	1.12046
0.07220	0.73785
-0.38683	-0.61406
0.30171	-0.92016
-0.13181	-0.15492
0.14870	0.04914
0.35272	-0.00188
0.04670	0.35523
0.63323	-0.41000
-0.18282	-0.76711
0.70974	0.27871
0.53123	0.10015
0.04670	1.12046
0.17421	0.43176
0.25071	0.38074
0.02119	1.45206
-0.13181	-0.63957
0.19971	0.02363
0.07220	-1.60887
-0.05531	0.66132
-0.02981	0.66132
0.02119	0.73785
-0.25932	-0.23145
-0.13181	0.07465
0.30171	-0.02739
0.50573	0.35523
-0.18282	0.73785
0.02119	0.58480
0.68424	0.15117
0.04670	-2.06800
1.06676	0.15117
-0.28482	-0.10391
0.35272	-0.35899
-0.97337	-0.07840
0.17421	0.12566
0.91375	0.76336
1.39828	1.19699
-0.15732	1.22250
-0.36133	0.58480
0.70974	0.12566
-0.23382	0.15117
-0.48884	-0.10391
-0.61635	-0.43551
0.42922	-0.63957
0.63323	-0.28246
-0.00431	0.17668
0.32721	0.38074
0.58223	0.55929
-0.08081	0.04914
-0.15732	0.04914
-0.08081	0.43176
0.17421	-0.48652
0.17421	-0.28246
0.30171	0.04914
0.32721	0.10015
0.32721	0.86539
-0.10631	0.99292
0.35272	0.45726
0.09770	-0.33348
0.14870	0.10015
0.07220	0.02363
0.37822	0.17668
0.12320	-0.15492
0.09770	0.20219
-0.38683	0.10015
-0.10631	0.20219
0.48022	0.17668
0.93925	-0.35899
0.17421	0.94191
0.19971	-0.79262
-0.53984	-0.10391
0.30171	0.58480
0.70974	0.22769
-0.36133	0.27871
-0.74385	0.45726
-0.08081	0.55929
0.53123	-0.76711
0.81175	-0.28246
0.76074	0.35523
0.60773	0.99292
0.73524	0.45726
-0.48884	0.12566
-0.18282	-1.17523
-0.74385	-0.43551
-0.28482	0.53379
0.12320	0.48277
-0.05531	0.20219
0.48022	0.10015
0.17421	-0.02739
-0.20832	0.99292
-0.20832	-0.10391
0.48022	-0.02739
0.09770	-0.33348
0.35272	-0.05289
0.40372	-1.09871
-0.13181	0.04914
0.02119	0.43176
0.27621	0.61031
0.40372	1.29902
0.30171	0.91640
-0.10631	0.35523
0.37822	-1.04770
0.30171	-0.58856
0.14870	-0.79262
-0.13181	0.86539
0.04670	0.71234
-0.71835	1.57960
-0.18282	-0.20594
0.68424	-0.23145
0.07220	-0.79262
-0.43783	-0.05289
0.22521	0.17668
-0.28482	-0.56305
1.50029	0.66132
0.88825	0.07465
-0.48884	0.22769
1.37278	0.55929
0.73524	1.14597
0.12320	1.04394
-0.18282	-0.10391
-0.79486	-0.99668
-1.02437	-0.81812
-0.89686	-0.10391
0.35272	0.38074
0.32721	0.40625
0.40372	0.91640
0.73524	0.83988
1.27078	0.68683
0.22521	-0.89465
-0.61635	-1.32828
-0.15732	0.43176
0.58223	-0.35899
0.17421	0.76336
0.14870	0.89089
0.35272	0.15117
0.37822	0.94191
-0.08081	0.15117
-0.20832	-0.30797
0.58223	-0.30797
-0.13181	0.27871
0.50573	0.43176
0.27621	0.76336
-0.28482	0.25320
-0.08081	-0.58856
-0.08081	-0.35899
-0.18282	-0.05289
1.27078	-0.12942
0.73524	-0.56305
0.14870	-0.00188
-1.17738	-0.38449
-0.82036	0.91640
0.27621	-0.10391
0.76074	1.09496
0.37822	0.40625
0.53123	0.17668
0.40372	0.32972
0.27621	0.71234
0.48022	0.27871
-0.08081	0.40625
-0.15732	0.35523
0.19971	-0.74160
0.42922	-0.25695
-0.59084	-0.51203
-0.31033	0.68683
-0.36133	0.38074
0.02119	0.25320
1.01576	0.10015
1.14327	-0.07840
-0.13181	0.38074
-1.02437	-0.18043
-0.18282	-0.30797
0.58223	-0.97117
0.60773	0.76336
0.04670	1.42656
0.58223	1.06945
0.99026	0.12566
-0.38683	-0.53754
-0.05531	-0.58856
0.07220	0.30422
-0.08081	0.30422
-0.20832	-0.51203
-0.02981	0.02363
0.45472	0.43176
-0.13181	1.06945
-0.20832	1.17148
0.02119	0.22769
0.78624	0.12566
0.30171	-0.58856
-0.08081	-0.51203
0.35272	-0.05289
0.73524	-0.30797
-0.18282	0.38074
0.53123	0.30422
0.19971	-0.46102
-0.18282	0.20219
-0.46334	0.35523
-0.76936	0.89089
-0.02981	0.73785
0.32721	-0.10391
0.48022	-0.07840
0.78624	-0.63957
0.22521	0.22769
0.22521	-0.05289
-0.66735	-0.15492
0.48022	0.55929
1.93382	0.07465
0.14870	0.81437
-0.13181	0.40625
-0.53984	1.45206
0.65874	-0.25695
0.22521	0.02363
-0.92237	-1.91496
-0.99887	-0.63957
-1.02437	0.22769
0.35272	0.63582
0.30171	0.73785
0.42922	0.53379
1.24527	0.83988
1.11776	0.45726
0.30171	-0.07840
-0.31033	0.20219
-0.20832	0.15117
0.17421	0.15117
0.48022	0.48277
0.50573	-0.66508
0.30171	-1.07320
-0.02981	-0.38449
-0.38683	0.58480
-0.48884	0.89089
-0.74385	0.12566
0.19971	-0.74160
0.14870	0.17668
0.60773	0.63582
0.73524	0.94191
-0.08081	0.73785
0.37822	0.48277
-0.00431	-0.30797
0.50573	0.25320
0.58223	0.12566
0.02119	-0.02739
-0.15732	0.35523
-0.13181	-0.46102
0.40372	0.22769
0.37822	-0.20594
0.32721	-0.20594
0.22521	-0.35899
-0.00431	0.86539
0.25071	0.07465
-0.79486	0.07465
0.07220	0.55929
1.29628	0.17668
-0.08081	1.06945
-1.63641	0.38074
-1.12638	-0.51203
1.37278	-0.94566
1.19427	-1.40480
1.09226	0.73785
0.42922	0.45726
0.83725	1.06945
0.14870	1.35003
-0.00431	0.99292
-0.25932	0.32972
-0.15732	-0.35899
-0.02981	-0.05289
-0.20832	0.22769
-0.10631	-0.20594
0.09770	-0.89465
0.19971	-1.30277
0.22521	-0.02739
-0.05531	1.17148
0.42922	1.14597
0.63323	-0.15492
0.14870	-0.35899
0.07220	-0.56305
-0.43783	0.20219
-0.76936	0.04914
0.14870	0.53379
0.30171	0.48277
1.09226	1.29902
1.47479	1.57960
0.53123	0.71234
0.17421	-0.25695
0.76074	-0.74160
-0.28482	-0.86914
-0.74385	-0.07840
-0.48884	0.86539
0.37822	0.17668
0.55673	-0.20594
0.30171	0.43176
-1.53441	-0.53754
-0.84586	-0.46102
-0.00431	-0.35899
-1.04987	-0.20594
1.14327	0.50828
1.21977	-0.10391
1.62780	0.30422
0.70974	0.61031
-0.38683	0.45726
0.45472	0.07465
0.32721	1.24800
-0.23382	0.83988
0.09770	0.68683
0.07220	-0.02739
-0.02981	-0.97117
-0.00431	-1.37929
0.02119	0.63582
-0.41233	0.07465
0.19971	0.78886
0.12320	0.78886
0.25071	0.12566
0.17421	-0.51203
0.50573	0.55929
0.09770	-0.38449
-1.15188	-1.65988
0.27621	-0.38449
0.50573	1.12046
-0.08081	0.45726
0.50573	1.09496
0.35272	0.17668
-0.20832	-0.69059
0.78624	-0.18043
0.91375	0.27871
0.40372	0.96742
0.32721	1.22250
-0.59084	0.55929
0.42922	0.35523
-0.02981	-0.05289
0.14870	-0.74160
-0.64185	-0.25695
-0.79486	-0.35899
-0.69285	-0.48652
0.42922	-0.30797
0.88825	0.48277
0.88825	0.63582
0.22521	1.01843
0.19971	0.22769
-0.38683	0.66132
0.40372	-1.73640
-0.74385	-0.61406
0.93925	0.48277
0.32721	0.66132
0.53123	0.76336
-0.10631	0.66132
0.30171	1.17148
0.09770	0.32972
0.37822	-0.15492
0.22521	-0.35899
-0.02981	-0.15492
-0.18282	0.10015
-0.74385	0.04914
-0.20832	0.53379
0.30171	-0.18043
0.30171	-0.12942
0.45472	-0.61406
0.50573	-0.61406
0.50573	0.22769
0.09770	1.42656
-0.10631	0.48277
0.63323	1.63062
-0.25932	-1.09871
-0.18282	-1.30277
-0.25932	-1.12422
0.42922	0.94191
0.53123	0.94191
-0.02981	1.52859
0.25071	-0.00188
-0.25932	0.63582
0.02119	0.66132
-0.08081	-0.46102
0.02119	-0.81812
0.76074	-1.17523
0.55673	-0.25695
0.93925	0.66132
-0.02981	0.50828
-0.25932	0.68683
0.07220	0.22769
0.30171	0.30422
-0.41233	0.10015
-0.28482	0.22769
-0.41233	-0.20594
0.91375	0.15117
0.19971	0.12566
0.19971	-0.20594
0.25071	-0.61406
-0.51434	-0.10391
-0.20832	0.30422
0.30171	0.30422
0.88825	0.40625
0.63323	0.68683
0.42922	0.86539
0.50573	0.27871
-0.20832	0.25320
-0.15732	-0.25695
0.25071	1.22250
0.04670	-0.63957
-0.38683	-0.00188
-0.64185	-2.22105
-0.92237	-0.35899
0.58223	1.37554
0.70974	0.63582
0.65874	0.71234
0.73524	0.94191
0.68424	0.58480
0.17421	0.30422
-0.23382	0.20219
0.09770	-0.15492
0.14870	-0.86914
-0.00431	-0.30797
0.25071	-0.18043
-0.08081	0.27871
-0.10631	1.45206
0.42922	-0.25695
0.60773	-1.91496
-0.46334	-0.38449
-0.46334	0.58480
-0.43783	0.96742
0.88825	0.76336
0.14870	0.07465
0.42922	0.15117
0.12320	1.12046
-0.08081	0.81437
0.45472	-0.05289
0.27621	-0.15492
0.86275	-0.23145
-0.36133	-0.02739
0.04670	-0.00188
0.07220	0.22769
1.27078	0.27871
0.53123	0.15117
-0.28482	-0.02739
-0.53984	-0.02739
-1.04987	0.22769
0.07220	1.50308
0.50573	-0.94566
-0.08081	-1.63437
-0.61635	-1.22625
-0.53984	1.06945
1.14327	1.98773
1.04126	0.99292
0.42922	0.58480
0.50573	-0.15492
0.12320	-0.07840
0.19971	-0.46102
0.42922	-0.02739
-0.15732	0.27871
-0.43783	-0.15492
0.07220	-0.10391
0.14870	0.02363
0.25071	1.50308
0.09770	0.35523
0.37822	-0.48652
0.02119	-0.38449
-0.64185	0.17668
-0.08081	0.66132
0.53123	0.07465
0.40372	0.10015
0.50573	0.04914
0.22521	0.02363
-0.05531	1.12046
-0.08081	-0.35899
0.19971	-0.46102
1.24527	-0.53754
0.48022	-0.43551
-0.10631	-1.20074
-1.53441	1.22250
-0.64185	1.27351
0.40372	0.86539
0.25071	0.25320
0.93925	0.02363
0.50573	-0.15492
0.42922	-0.18043
0.86275	0.45726
-0.36133	0.35523
0.07220	-0.00188
-0.18282	0.43176
-0.23382	-0.15492
-0.43783	0.25320
-0.25932	-0.35899
0.12320	-0.53754
-0.23382	0.15117
0.17421	0.55929
0.78624	1.55410
0.76074	0.61031
0.40372	-0.20594
0.07220	-1.20074
-0.15732	-0.69059
0.12320	0.45726
-0.28482	0.10015
0.07220	-0.69059
0.22521	-0.05289
0.60773	1.19699
0.50573	1.68163
0.68424	0.48277
0.48022	-0.15492
-0.61635	-0.46102
-0.10631	-0.94566
-0.38683	-1.12422
0.22521	0.68683
0.07220	0.71234
0.17421	1.01843
0.32721	0.40625
0.48022	-0.61406
0.30171	-0.07840
-0.18282	0.12566
-0.92237	0.76336
-0.82036	0.02363
1.01576	1.04394
1.42379	0.17668
0.65874	-0.12942
0.53123	-0.69059
-0.13181	-1.20074
-0.31033	-0.05289
0.30171	0.25320
-0.13181	0.76336
-0.33583	0.48277
0.27621	0.55929
0.07220	0.58480
-0.25932	0.22769
1.14327	1.01843
0.53123	-0.25695
-1.20288	-0.76711
-1.40690	-0.25695
0.19971	0.30422
0.55673	-0.10391
1.01576	-0.35899
0.42922	0.27871
0.27621	1.27351
0.48022	0.45726
0.42922	0.35523
-0.23382	0.40625
-0.02981	0.15117
0.27621	-0.66508
0.53123	-0.51203
-0.20832	-0.18043
-0.13181	0.86539
0.02119	0.55929
0.27621	0.17668
0.04670	0.27871
-0.08081	-1.17523
-0.00431	-0.33348
0.22521	0.61031
0.53123	0.66132
0.12320	0.66132
0.37822	0.32972
-0.05531	0.02363
0.83725	0.30422
0.04670	-0.07840
-0.89686	-0.02739
-0.53984	-0.00188
1.04126	1.12046
0.86275	0.17668
0.04670	-0.41000
0.37822	-0.84363
0.53123	0.17668
0.32721	0.43176
0.07220	0.07465
-0.53984	-0.15492
-0.10631	-0.05289
-0.08081	0.35523
0.09770	0.71234
-0.13181	0.10015
-0.18282	0.17668
0.93925	0.53379
0.63323	-0.25695
0.09770	0.30422
-0.20832	-0.07840
-0.84586	0.15117
0.35272	-0.07840
0.27621	0.15117
0.35272	-0.25695
0.30171	0.32972
0.73524	-0.53754
0.30171	-0.51203
0.07220	0.58480
0.09770	0.86539
0.07220	0.78886
-0.48884	1.12046
-0.13181	0.12566
0.25071	-0.56305
0.40372	-0.61406
0.40372	0.12566
0.70974	0.53379
0.32721	0.17668
-0.76936	0.45726
-0.13181	0.45726
0.55673	-0.92016
0.35272	-0.51203
-0.00431	-0.10391
0.42922	0.17668
0.32721	0.61031
-0.53984	0.22769
-1.20288	-0.28246
0.37822	0.55929
0.93925	0.45726
0.32721	0.45726
0.78624	0.35523
0.86275	0.27871
0.19971	0.15117
-0.79486	-0.12942
0.58223	0.58480
-0.46334	-0.25695
-0.28482	-0.18043
-0.28482	-0.12942
-0.94787	0.10015
0.68424	-0.48652
0.68424	-0.10391
0.27621	0.02363
0.73524	0.89089
0.68424	0.30422
0.17421	-0.05289
-0.18282	0.61031
-0.31033	0.58480
0.09770	1.70714
0.32721	-1.71090
-0.02981	-0.74160
0.09770	-0.84363
0.14870	0.94191
0.19971	0.83988
-0.25932	-0.00188
0.12320	0.53379
-0.10631	0.04914
0.40372	0.25320
0.37822	-0.18043
0.58223	-0.12942
0.02119	-0.74160
-0.00431	-0.43551
0.12320	0.99292
0.42922	0.96742
0.96476	0.63582
-0.46334	-0.10391
-0.18282	0.25320
-1.38139	0.25320
-1.58541	-0.18043
1.19427	-0.05289
1.34728	-0.10391
0.91375	0.04914
0.70974	0.32972
0.70974	0.17668
1.01576	0.35523
0.53123	0.43176
-0.56534	0.20219
-0.84586	-0.43551
-1.17738	-0.20594
-0.41233	-0.46102
0.09770	-0.05289
0.68424	0.27871
0.53123	0.50828
0.45472	0.48277
0.09770	0.61031
0.48022	0.22769
0.42922	0.25320
0.25071	1.22250
-0.13181	0.25320
-0.18282	-0.86914
0.14870	-0.12942
0.32721	0.71234
-0.46334	0.55929
0.22521	-1.96597
0.37822	-1.94047
0.09770	-0.53754
0.19971	2.39585
0.35272	3.26312
0.27621	0.15117
0.12320	-0.12942
0.48022	-0.33348
0.02119	0.32972
0.19971	-0.00188
0.32721	0.07465
0.22521	-0.02739
0.19971	-0.74160
0.19971	-0.10391
-0.25932	0.25320
-1.61091	0.38074
-0.74385	-0.10391
0.07220	0.15117
0.60773	0.20219
1.04126	0.25320
1.75531	0.30422
1.65330	-0.18043
0.63323	0.04914
0.19971	0.20219
-0.84586	0.45726
0.27621	0.48277
-1.58541	0.30422
-1.12638	0.45726
0.30171	0.66132
0.02119	-0.25695
0.48022	-0.20594
0.78624	0.25320
0.88825	0.38074
0.40372	-1.17523
-0.38683	0.30422
-0.25932	0.20219
0.17421	0.38074
0.14870	-1.22625
0.09770	0.83988
0.25071	1.70714
0.25071	0.63582
0.30171	-0.58856
0.17421	-0.46102
0.19971	0.91640
0.12320	0.86539
0.25071	0.45726
0.09770	0.22769
0.17421	-0.15492
-0.25932	-0.48652
0.09770	-0.02739
0.30171	-0.66508
0.70974	0.30422
0.19971	-0.28246
-0.15732	0.04914
-0.28482	-0.84363
-1.78942	0.58480
0.04670	-1.12422
1.50029	0.58480
0.83725	1.17148
0.09770	1.45206
0.65874	0.04914
0.60773	0.38074
0.35272	0.76336
0.17421	0.35523
-0.51434	0.04914
-0.02981	0.02363
0.22521	-0.33348
-0.15732	-0.51203
1.09226	-0.33348
-0.28482	0.83988
-0.59084	0.43176
-0.41233	-0.74160
-0.08081	-1.17523
0.07220	0.12566
0.27621	0.76336
0.83725	0.58480
0.68424	0.78886
0.22521	-0.00188
0.55673	-0.38449
-0.23382	-0.20594
-0.53984	0.35523
0.30171	0.58480
0.86275	0.91640
0.30171	2.06425
0.17421	-0.33348
0.50573	-1.30277
-0.43783	-1.43031
-0.08081	0.63582
-0.51434	1.14597
0.14870	0.32972
-0.08081	-0.25695
-0.23382	-0.05289
0.04670	0.50828
0.42922	-0.35899
0.86275	-0.00188
0.42922	-0.20594
0.65874	0.38074
0.32721	0.35523
-0.18282	0.55929
-0.36133	0.66132
0.81175	0.83988
-0.00431	-0.51203
0.12320	-0.86914
-0.08081	-1.78742
-1.40690	-0.02739
-0.23382	1.12046
0.73524	0.94191
0.14870	0.61031
0.12320	0.32972
0.81175	0.38074
0.86275	0.30422
0.07220	0.35523
