0.14870	0.20219
0.17421	0.02363
0.25071	0.20219
0.07220	0.17668
0.19971	0.22769
0.04670	0.27871
0.22521	0.07465
0.07220	0.25320
0.14870	0.15117
0.12320	0.12566
0.14870	0.17668
0.14870	0.07465
0.09770	0.27871
0.22521	0.04914
0.07220	0.02363
0.09770	0.04914
0.12320	0.10015
0.12320	0.22769
0.17421	0.17668
0.09770	0.35523
0.14870	0.20219
0.14870	0.10015
0.12320	-0.00188
0.14870	-0.05289
0.12320	-0.02739
0.09770	0.20219
0.19971	0.32972
0.04670	0.35523
0.14870	0.32972
0.19971	0.20219
0.09770	0.04914
0.22521	0.04914
0.14870	0.04914
0.07220	0.10015
0.19971	0.07465
0.17421	0.17668
0.04670	0.17668
0.19971	0.25320
0.09770	0.12566
0.12320	0.15117
0.25071	0.25320
0.22521	0.10015
0.07220	0.12566
0.14870	0.12566
0.17421	0.07465
0.04670	0.12566
0.14870	0.17668
0.09770	0.20219
0.09770	0.15117
0.25071	0.22769
0.17421	0.10015
0.09770	0.15117
0.19971	0.15117
0.19971	0.07465
0.17421	0.17668
0.22521	0.25320
-0.00431	0.20219
0.17421	0.20219
0.27621	0.20219
0.09770	0.07465
0.07220	0.15117
0.19971	0.12566
0.14870	-0.07840
0.17421	0.02363
0.14870	0.10015
0.09770	0.25320
0.12320	0.35523
0.09770	0.17668
0.04670	0.20219
0.14870	0.15117
0.14870	0.15117
0.09770	0.25320
0.09770	-0.05289
0.12320	-0.07840
0.12320	0.15117
0.19971	-0.00188
0.04670	0.15117
0.19971	0.15117
0.09770	0.17668
0.14870	0.22769
0.09770	0.22769
0.14870	0.32972
0.25071	0.15117
0.25071	0.17668
0.17421	0.12566
0.04670	0.07465
0.07220	0.12566
0.14870	0.12566
0.25071	0.12566
0.04670	0.07465
0.09770	0.07465
0.02119	0.15117
0.19971	0.17668
0.30171	0.04914
0.02119	0.15117
0.12320	0.15117
0.22521	0.17668
0.07220	0.17668
0.12320	0.17668
0.07220	0.04914
0.04670	0.17668
0.22521	0.04914
0.09770	0.15117
0.22521	0.10015
0.17421	0.22769
0.14870	0.27871
0.22521	0.15117
0.09770	0.15117
0.14870	0.10015
0.19971	0.15117
0.09770	0.12566
0.14870	0.07465
0.17421	0.20219
0.02119	0.22769
0.22521	-0.02739
0.17421	0.35523
0.19971	0.12566
0.12320	0.04914
-0.15732	-0.00188
0.02119	-0.43551
0.25071	0.17668
0.19971	0.43176
0.14870	0.61031
0.25071	0.35523
0.12320	0.30422
0.12320	0.17668
0.09770	0.10015
0.09770	0.04914
0.12320	0.10015
0.09770	-0.05289
0.19971	0.10015
0.04670	0.04914
0.22521	0.12566
0.12320	0.10015
0.22521	0.02363
0.09770	0.17668
0.22521	0.17668
0.09770	0.25320
0.14870	0.12566
0.12320	0.27871
0.09770	0.15117
0.22521	0.30422
0.09770	0.12566
0.22521	0.27871
0.12320	0.12566
0.12320	-0.00188
0.17421	-0.07840
0.12320	-0.10391
0.12320	0.17668
0.14870	0.10015
0.04670	0.40625
0.14870	0.30422
0.40372	0.40625
0.02119	0.20219
0.14870	0.10015
0.09770	-0.02739
0.22521	-0.12942
0.07220	0.17668
-0.00431	0.27871
0.14870	0.15117
0.12320	0.10015
0.22521	0.12566
0.14870	0.07465
0.22521	0.10015
0.14870	0.12566
0.17421	0.15117
0.07220	0.10015
0.09770	0.17668
0.12320	0.25320
0.09770	0.17668
0.17421	0.12566
0.14870	0.12566
0.22521	0.17668
0.09770	0.15117
0.17421	0.20219
-0.00431	0.15117
0.27621	0.27871
0.04670	0.12566
0.17421	0.12566
0.07220	0.25320
0.14870	0.22769
0.14870	0.02363
0.30171	0.10015
0.02119	-0.33348
0.04670	-0.20594
0.17421	0.38074
0.14870	0.40625
0.17421	0.58480
0.25071	0.66132
0.17421	0.27871
0.17421	-0.02739
0.25071	-0.10391
0.14870	-0.46102
0.12320	-0.10391
0.17421	0.22769
0.07220	0.45726
0.17421	0.35523
0.12320	0.27871
0.09770	0.15117
0.14870	-0.07840
0.09770	-0.10391
0.22521	-0.07840
0.12320	0.35523
0.22521	0.40625
0.12320	0.12566
0.09770	0.15117
0.14870	-0.10391
0.09770	-0.05289
0.17421	0.10015
0.17421	-0.05289
0.04670	-0.05289
0.25071	0.30422
0.12320	0.45726
0.17421	0.45726
0.25071	0.55929
0.09770	0.53379
0.12320	0.20219
0.07220	-0.15492
0.14870	-0.35899
0.14870	-0.12942
0.14870	-0.23145
0.14870	-0.15492
0.14870	0.25320
0.14870	0.55929
0.22521	0.40625
0.09770	0.40625
0.09770	0.30422
0.14870	0.07465
0.07220	-0.02739
0.17421	0.07465
0.14870	0.02363
0.07220	0.15117
0.22521	0.22769
0.14870	0.07465
0.12320	0.17668
0.19971	-0.15492
0.07220	-0.35899
0.14870	0.07465
0.14870	0.22769
0.07220	0.53379
0.22521	0.40625
0.17421	0.25320
0.17421	0.32972
0.22521	0.04914
0.09770	0.20219
0.14870	0.22769
0.04670	-0.30797
0.04670	-0.41000
0.09770	-0.53754
0.14870	0.78886
0.07220	0.96742
0.22521	0.27871
0.17421	0.17668
0.14870	-0.23145
0.19971	0.04914
0.12320	0.35523
0.12320	-0.02739
0.12320	-0.05289
0.07220	0.15117
0.22521	0.43176
0.09770	0.55929
0.25071	0.45726
0.25071	0.15117
0.04670	0.12566
0.09770	-0.02739
0.07220	-0.20594
-0.10631	-0.02739
0.25071	-0.05289
0.12320	-0.00188
0.25071	0.10015
0.25071	-0.02739
0.14870	0.04914
0.30171	0.25320
0.22521	0.20219
0.02119	0.30422
0.19971	0.17668
0.09770	0.07465
0.07220	0.15117
0.19971	0.27871
0.14870	0.25320
0.22521	0.22769
0.12320	0.17668
0.17421	0.22769
0.09770	0.20219
0.12320	0.10015
0.14870	0.12566
0.17421	0.04914
0.04670	0.07465
0.12320	0.17668
0.12320	0.25320
0.19971	0.10015
0.22521	0.10015
0.07220	0.10015
0.22521	0.07465
0.17421	0.27871
0.19971	0.10015
0.02119	0.12566
0.17421	-0.02739
0.14870	0.32972
0.14870	0.63582
0.17421	0.15117
0.07220	0.17668
0.14870	-0.00188
0.14870	0.17668
0.17421	-0.02739
0.27621	-0.20594
-0.02981	-0.25695
0.14870	-0.66508
0.17421	0.43176
0.17421	0.66132
0.42922	0.55929
0.17421	0.38074
-0.10631	0.27871
-0.53984	0.17668
-1.17738	0.20219
0.37822	0.22769
0.73524	0.25320
0.70974	-0.00188
0.63323	-0.12942
0.50573	0.27871
0.53123	0.22769
0.25071	0.12566
-0.13181	-0.35899
0.12320	-0.56305
-0.10631	0.07465
0.17421	0.45726
-0.23382	0.94191
-1.07538	0.32972
-0.08081	0.07465
0.40372	-0.23145
0.42922	-0.89465
0.58223	0.55929
0.42922	0.94191
0.25071	-0.12942
0.32721	-0.07840
0.17421	-0.35899
0.19971	0.25320
0.14870	1.55410
0.53123	0.50828
-0.15732	0.10015
-0.82036	0.43176
-0.05531	-0.25695
0.04670	-0.46102
0.04670	0.20219
0.17421	0.04914
0.32721	0.17668
0.58223	0.17668
0.27621	0.07465
0.32721	-0.33348
0.42922	-0.15492
0.32721	0.55929
0.42922	0.73785
0.12320	0.55929
-0.10631	-0.05289
-0.13181	0.17668
0.07220	0.45726
-0.00431	-0.12942
0.09770	0.07465
-0.02981	-0.53754
0.17421	-0.43551
-0.00431	-0.69059
0.25071	-0.23145
0.17421	0.73785
0.27621	0.43176
0.32721	1.04394
0.25071	0.55929
0.17421	0.53379
-0.36133	0.61031
-0.43783	0.43176
0.25071	-0.18043
0.86275	-0.18043
-0.00431	-0.76711
0.42922	-0.66508
0.19971	0.58480
-0.59084	0.48277
-0.33583	-0.35899
0.07220	-0.12942
0.73524	-0.69059
0.60773	0.76336
0.32721	1.32453
0.07220	1.06945
0.22521	-0.15492
0.63323	0.96742
0.07220	-0.89465
-0.38683	-0.81812
-0.18282	-1.40480
0.14870	-0.05289
0.25071	0.43176
0.37822	0.81437
-0.82036	1.37554
-0.18282	0.50828
0.32721	0.02363
0.09770	0.61031
0.55673	0.04914
0.04670	-1.09871
0.48022	0.48277
0.78624	0.48277
0.02119	1.42656
-0.51434	0.40625
-0.71835	0.10015
0.35272	-0.51203
0.58223	-2.04250
0.70974	0.10015
0.65874	-2.09351
0.42922	0.58480
0.42922	-0.02739
0.40372	0.73785
0.55673	1.24800
0.14870	1.91120
-1.02437	1.27351
-1.50890	1.06945
-0.87136	-0.63957
-0.15732	-0.28246
0.25071	-0.33348
1.16877	0.55929
0.78624	0.58480
0.58223	-1.45582
0.50573	-2.42511
0.19971	-1.27726
-0.46334	1.75816
0.22521	1.04394
0.73524	0.63582
0.96476	0.94191
0.73524	-0.15492
-0.41233	0.10015
-0.61635	0.04914
-0.08081	0.17668
-0.66735	-1.07320
0.25071	0.07465
0.32721	0.27871
0.22521	0.99292
0.14870	4.25792
0.68424	0.35523
-0.23382	-1.22625
-0.87136	-0.86914
0.19971	-1.71090
0.27621	-0.74160
0.35272	-0.53754
-0.08081	1.24800
0.65874	0.22769
1.32178	1.17148
0.30171	0.20219
-0.00431	0.38074
0.27621	0.32972
-0.25932	-0.53754
-0.15732	0.86539
0.32721	-0.66508
1.42379	-0.71609
-0.61635	0.12566
-0.38683	0.58480
0.17421	1.98773
-0.02981	0.40625
-0.46334	-1.60887
0.68424	-1.53234
-0.02981	0.66132
0.09770	-0.35899
0.32721	-0.00188
-0.69285	1.86019
0.60773	1.35003
0.81175	0.48277
-0.71835	0.17668
-0.41233	-0.94566
0.17421	-0.25695
1.32178	0.50828
0.02119	-1.07320
0.96476	-0.63957
1.75531	-0.58856
-2.35046	0.73785
0.09770	1.17148
0.68424	1.09496
0.96476	-0.15492
0.70974	0.96742
0.17421	0.20219
-0.05531	0.86539
-0.08081	-1.40480
-0.43783	-0.38449
-0.59084	0.71234
0.14870	0.38074
-0.25932	0.71234
-0.82036	-2.62918
0.27621	-0.76711
-0.41233	1.09496
0.63323	-0.12942
0.04670	2.08976
-0.59084	0.91640
1.24527	-0.10391
0.83725	-0.51203
0.42922	-0.12942
0.02119	2.62542
0.81175	-0.81812
-0.46334	-0.56305
0.91375	-0.05289
-0.10631	0.50828
-0.38683	0.22769
-1.04987	0.00000
0.37822	0.00000
1.57679	0.00000
0.60773	0.00000
0.53123	0.00000
-0.94787	0.00000
-0.41233	0.17668
0.48022	0.02363
-0.00431	-0.07840
0.60773	0.35523
0.73524	-0.61406
0.12320	-0.10391
0.27621	1.29902
0.14870	0.83988
-0.18282	1.22250
-0.76936	-1.71090
-0.66735	-0.69059
0.37822	-2.09351
-0.46334	0.45726
0.37822	1.68163
0.37822	1.29902
0.93925	0.07465
0.78624	0.86539
0.32721	-0.66508
-0.33583	2.24281
0.37822	0.25320
0.32721	1.75816
0.09770	-0.15492
0.30171	-1.71090
0.07220	-2.14453
0.42922	-0.15492
-0.31033	0.71234
-0.36133	0.02363
0.70974	0.50828
-1.04987	-0.23145
-0.48884	1.52859
-0.00431	1.19699
0.17421	-0.69059
1.44929	0.27871
1.32178	-0.20594
0.45472	-0.07840
-1.45790	0.68683
-1.91693	-0.35899
0.48022	-0.23145
1.50029	-0.66508
0.30171	-0.61406
1.24527	0.22769
0.88825	1.68163
0.30171	0.71234
0.12320	0.25320
-0.18282	-0.69059
-0.18282	0.78886
-0.33583	0.68683
-0.64185	0.76336
-0.20832	-2.11902
-0.02981	-1.35379
-0.05531	-0.51203
0.53123	0.63582
0.32721	1.52859
-0.05531	1.42656
0.42922	0.73785
-0.15732	0.17668
0.70974	1.17148
0.53123	1.93671
0.83725	-0.97117
0.76074	-3.06281
-0.87136	-4.33819
-0.02981	1.17148
0.02119	2.21730
-0.31033	1.55410
-0.28482	-0.25695
-0.05531	1.17148
-0.18282	0.78886
0.88825	0.71234
-0.05531	-2.06800
0.86275	-0.05289
0.55673	0.25320
1.11776	-0.00188
0.65874	0.73785
0.12320	0.10015
1.39828	1.45206
-0.56534	-0.12942
-1.81492	0.40625
-1.40690	-1.30277
-1.84042	-0.71609
-1.66191	-0.41000
0.88825	0.63582
2.39285	1.75816
3.25990	-0.05289
0.70974	0.38074
0.30171	-0.48652
0.63323	0.22769
-0.66735	-0.61406
-1.07538	-0.02739
-0.13181	1.17148
0.30171	1.27351
0.17421	0.22769
-0.59084	1.78367
0.50573	-2.29757
0.81175	0.76336
-0.33583	-3.21585
-0.41233	-1.27726
-0.53984	-1.22625
-1.33039	2.16628
0.78624	2.44687
1.34728	2.24281
1.24527	0.91640
0.96476	1.37554
0.76074	1.83468
0.42922	-1.88945
0.65874	-3.49644
0.07220	-4.46573
-0.99887	1.09496
-0.94787	1.73265
-0.76936	0.73785
-1.48340	1.22250
0.73524	1.32453
1.29628	2.70194
0.07220	-0.43551
-0.84586	-2.39961
-0.00431	-4.49124
0.45472	0.45726
0.93925	1.98773
1.62780	1.55410
0.93925	1.24800
0.19971	0.76336
0.78624	0.99292
0.30171	0.15117
-0.13181	-0.86914
-2.09544	-0.20594
-2.42696	-0.94566
-0.08081	-0.05289
1.01576	0.15117
1.04126	0.27871
0.91375	0.58480
0.83725	1.06945
0.42922	0.20219
0.04670	0.10015
-0.18282	-0.10391
-0.02981	0.81437
-0.08081	-1.48133
0.19971	-1.02219
0.22521	-0.79262
0.19971	1.42656
-0.76936	1.70714
-0.36133	1.24800
0.55673	0.53379
-0.23382	2.16628
0.81175	0.91640
0.91375	1.78367
1.06676	-4.84835
0.12320	-2.11902
0.50573	-2.39961
-1.04987	1.09496
-1.10088	2.06425
-1.53441	1.88570
1.90832	1.42656
2.03582	0.55929
0.04670	-0.41000
0.22521	0.02363
0.30171	-0.35899
0.53123	-0.51203
-0.38683	-0.15492
0.09770	0.45726
0.78624	-0.23145
-0.48884	-0.07840
-0.38683	0.15117
-0.89686	0.38074
0.48022	0.73785
0.19971	0.50828
-0.41233	-0.28246
0.37822	-0.56305
0.45472	-0.43551
0.27621	0.25320
1.04126	0.53379
-0.20832	0.66132
0.02119	1.86019
0.37822	-0.58856
0.93925	0.30422
0.40372	-0.43551
-0.13181	-0.05289
-0.08081	-1.78742
-0.31033	-0.48652
0.22521	0.99292
-1.91693	1.93671
0.17421	2.06425
1.24527	1.09496
0.25071	-1.37929
1.57679	-0.23145
1.44929	0.15117
0.02119	-0.35899
-0.48884	-2.98628
-0.46334	-1.17523
0.40372	0.73785
0.32721	2.29382
1.01576	1.63062
-0.71835	-0.07840
-0.76936	0.04914
0.93925	1.01843
-0.31033	0.22769
-0.31033	0.10015
-1.27939	-0.51203
0.12320	-0.86914
1.55129	-0.33348
1.52579	0.58480
0.83725	0.96742
-0.94787	-0.30797
0.22521	0.27871
0.96476	-1.55785
0.78624	-0.10391
-0.56534	-0.10391
-0.20832	0.58480
-0.69285	1.12046
0.32721	0.83988
-0.18282	0.55929
-0.53984	0.55929
0.63323	0.76336
1.90832	0.48277
0.17421	-0.79262
-0.28482	-0.89465
-0.61635	0.71234
0.02119	0.32972
0.27621	0.35523
0.48022	-0.30797
0.60773	0.78886
0.17421	-0.07840
-1.48340	-1.50683
0.32721	-0.86914
0.37822	-0.58856
1.27078	0.83988
-0.10631	1.75816
-1.35589	1.14597
0.53123	1.12046
-1.17738	0.25320
1.65330	0.30422
1.80631	0.10015
0.37822	0.04914
-2.22295	-0.53754
-0.69285	-3.93007
1.09226	-0.23145
1.19427	-0.10391
0.37822	1.65613
0.53123	1.78367
0.48022	1.24800
-0.38683	0.89089
-0.18282	-0.25695
-0.25932	-0.18043
0.17421	0.38074
-0.66735	0.20219
-0.84586	-0.48652
0.09770	0.48277
1.42379	-0.20594
-0.28482	-0.38449
0.17421	0.50828
0.68424	-0.30797
-0.20832	0.12566
0.22521	-0.71609
0.63323	0.99292
0.14870	0.04914
0.63323	1.42656
-0.18282	-1.58336
0.35272	-0.76711
-0.41233	1.01843
-0.92237	1.45206
0.25071	1.19699
0.32721	-0.48652
0.86275	-1.32828
0.65874	-0.07840
0.70974	1.75816
-0.31033	0.15117
-0.89686	0.99292
-0.48884	0.35523
1.06676	0.55929
1.06676	-0.89465
-0.23382	-0.23145
-0.84586	0.07465
0.70974	0.53379
1.39828	-0.18043
1.14327	-1.48133
0.27621	-1.32828
-0.82036	-1.53234
-0.84586	1.04394
0.09770	1.09496
0.91375	1.68163
-0.92237	1.06945
-0.48884	1.88570
-0.56534	0.12566
0.83725	0.10015
0.86275	-0.71609
-0.15732	0.07465
-0.15732	0.63582
0.83725	-0.28246
0.42922	-0.05289
0.32721	-0.86914
-0.02981	0.61031
0.48022	0.94191
-0.15732	-0.25695
-0.15732	-1.48133
-0.13181	-1.27726
0.22521	1.63062
0.12320	1.01843
0.78624	2.08976
0.30171	-1.68539
-0.66735	0.94191
-1.68742	0.43176
-0.59084	-0.38449
1.34728	0.12566
1.65330	1.04394
1.67880	0.63582
-0.00431	0.45726
-0.10631	0.27871
-0.76936	-0.92016
-0.61635	-2.04250
0.86275	-0.43551
0.45472	2.77847
-0.15732	-0.15492
0.02119	-0.66508
0.32721	-0.66508
0.19971	0.45726
1.01576	0.45726
0.35272	0.68683
-0.53984	0.50828
-1.15188	0.55929
-0.94787	-0.12942
1.01576	0.30422
1.24527	-0.71609
0.65874	0.02363
-0.51434	-0.99668
0.02119	0.32972
0.99026	0.78886
0.02119	1.40105
-0.31033	1.01843
0.68424	0.30422
0.81175	-0.00188
-0.53984	0.22769
-0.66735	-0.12942
-0.64185	0.94191
0.53123	-1.02219
0.55673	-0.89465
0.53123	-2.29757
0.60773	0.04914
0.25071	1.98773
0.73524	1.78367
-1.91693	1.06945
-0.25932	0.25320
0.68424	-0.81812
0.53123	-0.58856
1.39828	0.99292
1.34728	0.68683
-0.41233	-0.18043
-1.50890	0.48277
-1.84042	-0.71609
-1.30489	0.32972
2.31634	-0.58856
3.79544	-0.92016
2.06133	-0.74160
-2.32496	0.94191
-0.97337	-0.00188
0.12320	1.01843
0.45472	-0.25695
0.04670	1.19699
1.06676	1.22250
0.91375	0.55929
-0.38683	0.25320
0.14870	-0.07840
-1.12638	0.22769
0.42922	0.55929
-0.46334	-0.25695
0.99026	-0.81812
-1.99343	-0.89465
-0.71835	0.45726
0.78624	0.40625
0.53123	0.04914
0.88825	0.22769
1.16877	-0.10391
1.04126	0.25320
0.12320	1.19699
0.88825	-0.89465
-0.10631	-0.63957
-0.87136	-0.46102
0.96476	1.22250
-0.20832	0.78886
-0.89686	1.73265
-0.28482	0.32972
0.53123	0.12566
0.27621	-1.43031
0.35272	-1.12422
0.02119	0.68683
-0.31033	0.10015
-0.15732	1.70714
0.37822	0.38074
0.07220	-0.05289
0.60773	-1.88945
-0.51434	-1.65988
-0.25932	-0.48652
1.29628	1.06945
0.73524	1.68163
1.34728	1.04394
-0.23382	0.48277
0.25071	-0.23145
0.53123	-0.30797
0.09770	0.30422
-1.12638	0.43176
0.70974	0.83988
-0.82036	0.07465
-0.00431	-1.02219
-0.46334	-0.76711
-0.38683	-0.43551
0.50573	0.17668
1.11776	1.45206
0.25071	0.04914
0.50573	0.38074
0.32721	0.20219
-0.71835	0.89089
0.63323	-0.05289
0.60773	0.35523
-0.59084	3.13558
0.22521	-1.04770
0.22521	-0.97117
0.25071	-2.80773
0.02119	-0.84363
0.32721	0.30422
0.53123	1.73265
-0.38683	0.58480
-0.33583	0.27871
0.53123	0.12566
-1.12638	1.96222
0.73524	0.76336
1.70430	-0.69059
0.04670	-1.55785
-1.22839	-0.30797
-1.17738	-0.25695
1.21977	0.15117
1.27078	-0.15492
-0.53984	0.76336
-0.48884	0.71234
1.16877	-0.25695
-0.08081	0.40625
0.70974	0.48277
0.55673	0.73785
0.30171	0.94191
0.73524	-0.41000
-0.36133	-0.76711
0.68424	-0.76711
0.30171	0.83988
-2.55447	1.27351
-1.50890	-0.30797
-0.25932	-0.05289
1.62780	-1.25176
0.93925	0.22769
0.12320	0.30422
0.22521	0.68683
0.78624	0.55929
-0.23382	0.53379
0.22521	0.50828
0.58223	0.66132
-0.66735	-0.94566
0.32721	-1.88945
0.17421	-1.32828
-0.05531	1.32453
0.88825	2.95702
1.06676	0.43176
0.04670	0.02363
0.19971	0.15117
-1.61091	-0.25695
-0.28482	-0.53754
1.57679	-1.83844
0.93925	0.94191
0.35272	1.01843
-1.35589	1.19699
1.78081	-1.50683
0.04670	0.22769
-3.77855	-0.10391
0.60773	0.10015
1.90832	-0.63957
0.32721	1.45206
0.81175	1.27351
0.73524	-0.18043
-0.53984	0.15117
1.06676	0.78886
-0.48884	0.10015
-0.46334	-0.12942
-0.94787	-0.41000
0.48022	-0.23145
0.73524	0.38074
0.63323	-0.00188
0.70974	1.86019
-1.71292	-0.92016
-0.08081	-0.63957
0.48022	-2.27207
-0.20832	0.04914
0.93925	1.47757
0.73524	1.75816
0.30171	0.73785
-0.05531	0.30422
-0.48884	-1.43031
0.19971	0.66132
0.40372	0.45726
0.58223	0.53379
0.35272	-0.41000
0.32721	-1.07320
-0.36133	-0.69059
-0.00431	1.17148
0.40372	1.75816
-0.33583	0.94191
-0.92237	0.99292
-1.63641	-1.20074
1.29628	0.02363
1.72980	0.55929
0.86275	0.04914
-0.05531	-1.09871
-0.99887	-1.78742
1.24527	-0.28246
0.88825	1.14597
0.14870	1.12046
0.25071	0.40625
0.83725	0.89089
0.07220	0.17668
0.12320	0.30422
-0.92237	-0.02739
-3.90606	0.15117
1.19427	-0.02739
1.16877	-0.25695
-0.46334	-0.99668
1.21977	-0.92016
0.93925	1.22250
1.09226	0.94191
0.37822	1.12046
0.68424	-0.58856
-1.48340	0.35523
-0.53984	-0.12942
-0.23382	0.48277
0.53123	-0.28246
0.27621	-0.71609
0.04670	-0.35899
0.40372	1.04394
0.30171	1.37554
0.78624	-0.43551
0.73524	0.04914
-0.10631	0.15117
-0.05531	0.61031
0.27621	1.55410
0.32721	-0.43551
-1.48340	-0.53754
-1.27939	-1.88945
0.91375	-0.38449
1.85731	2.44687
0.30171	0.99292
0.19971	-0.66508
-2.37596	-0.99668
0.12320	-0.66508
1.27078	0.99292
1.60230	1.37554
-0.18282	0.55929
-0.94787	0.32972
0.42922	-0.84363
1.44929	0.32972
1.11776	0.58480
0.91375	0.45726
-1.48340	-0.84363
-1.04987	-0.43551
-0.28482	-1.30277
0.09770	0.55929
0.53123	0.91640
0.42922	0.76336
-0.25932	0.45726
0.60773	2.03874
-0.43783	0.22769
0.37822	0.55929
0.12320	-1.83844
0.48022	-1.43031
0.35272	-0.30797
0.93925	1.86019
-1.71292	-0.58856
-0.53984	-0.00188
1.27078	0.63582
0.70974	0.35523
-0.13181	-0.12942
0.65874	-0.05289
-0.20832	1.06945
-0.59084	1.01843
0.19971	1.47757
0.19971	-0.43551
1.14327	-1.94047
0.37822	-1.40480
-0.84586	0.48277
-0.69285	0.73785
0.42922	1.17148
0.50573	0.15117
0.63323	0.76336
2.18883	-1.04770
-0.64185	0.20219
-0.71835	-0.56305
-1.45790	0.86539
-1.27939	0.30422
0.45472	0.91640
0.91375	0.89089
0.12320	-0.56305
0.02119	-0.46102
0.70974	-0.20594
0.50573	0.76336
1.06676	0.17668
1.11776	-0.30797
-1.10088	-0.69059
-1.20288	1.22250
-0.08081	0.15117
1.14327	0.55929
1.11776	-1.91496
-0.38683	-0.53754
0.17421	-0.00188
0.14870	1.88570
-0.33583	1.14597
-0.02981	0.55929
0.14870	0.76336
0.14870	0.04914
0.73524	-0.10391
-0.84586	0.71234
0.45472	1.35003
-0.46334	-0.28246
-1.38139	-2.32308
0.25071	-2.37410
1.16877	-0.33348
0.60773	0.20219
0.40372	1.37554
0.88825	1.22250
0.58223	0.17668
0.40372	1.57960
0.40372	1.17148
-0.89686	0.55929
0.12320	-0.43551
-0.33583	-0.69059
-1.50890	-1.02219
-0.53984	0.35523
-0.99887	0.61031
1.65330	-0.12942
1.95932	-0.43551
1.21977	0.38074
0.53123	0.50828
-1.15188	0.55929
0.17421	0.81437
0.63323	0.22769
-0.08081	-0.63957
-0.18282	0.12566
0.86275	0.32972
-0.23382	0.50828
-0.66735	0.20219
-0.61635	0.48277
-0.36133	-1.17523
-0.38683	-0.25695
0.68424	-1.07320
-0.69285	-0.18043
1.21977	0.81437
1.11776	1.60511
0.73524	-0.41000
0.63323	0.53379
0.02119	0.32972
-0.36133	0.35523
-0.00431	0.17668
0.27621	-0.69059
0.17421	1.98773
0.32721	0.63582
-1.20288	0.89089
-0.36133	-2.27207
0.02119	-1.40480
-0.28482	-0.86914
0.40372	0.58480
1.34728	1.27351
1.14327	0.04914
-2.09544	1.88570
0.02119	0.35523
1.50029	-0.02739
0.37822	-1.30277
-0.00431	0.17668
1.19427	0.61031
1.14327	0.35523
0.27621	0.66132
0.42922	0.71234
-0.51434	-0.20594
-2.29945	-0.51203
-1.43240	-1.02219
-0.20832	-0.20594
-0.05531	0.58480
0.65874	0.45726
1.42379	-0.30797
1.55129	-0.10391
0.12320	0.45726
0.17421	0.89089
0.27621	1.04394
-0.23382	-0.46102
-0.31033	0.17668
0.83725	0.50828
-0.31033	0.02363
0.17421	0.76336
0.37822	-0.84363
0.35272	-0.07840
-0.79486	-0.07840
-1.33039	0.78886
0.53123	-0.15492
0.40372	-0.92016
0.73524	-1.02219
0.53123	-0.07840
-0.51434	0.68683
-0.38683	1.73265
1.16877	0.35523
1.72980	-0.56305
-0.25932	-1.12422
-0.56534	1.73265
-0.82036	1.63062
0.78624	1.42656
0.02119	-0.25695
0.50573	-0.35899
1.01576	-1.88945
0.22521	-1.60887
0.09770	0.58480
-1.33039	-0.05289
-0.15732	1.22250
-0.84586	0.32972
0.76074	0.73785
0.96476	0.15117
0.27621	0.40625
0.35272	0.15117
-0.33583	-0.48652
0.93925	-0.38449
-0.43783	-0.41000
-0.08081	0.76336
0.12320	1.04394
0.73524	1.04394
-0.28482	0.40625
-0.61635	-1.32828
-0.28482	-1.02219
1.55129	-1.22625
0.65874	1.29902
1.01576	2.47238
0.53123	0.78886
-0.08081	-1.53234
-1.53441	-0.00188
-0.56534	0.61031
0.48022	-0.46102
0.50573	0.17668
0.73524	0.94191
-0.48884	0.96742
0.70974	-0.53754
-0.53984	-1.58336
0.02119	-0.23145
0.65874	0.63582
1.04126	0.43176
0.86275	0.91640
-1.27939	0.15117
-1.66191	-0.35899
-0.18282	-0.76711
1.04126	0.48277
1.37278	0.86539
1.09226	0.17668
1.14327	0.73785
-2.09544	-0.53754
0.53123	-0.94566
2.23984	-1.53234
0.19971	1.19699
-1.10088	0.61031
-0.64185	1.32453
0.53123	1.09496
0.42922	1.01843
-0.99887	-0.51203
-0.18282	-1.48133
0.63323	-0.18043
1.14327	0.55929
0.30171	0.38074
-1.50890	-0.20594
0.32721	-0.30797
0.86275	-0.10391
0.35272	0.58480
0.73524	0.50828
0.53123	0.58480
-0.71835	-0.12942
1.11776	0.12566
-1.20288	0.25320
-0.74385	-0.46102
-1.12638	0.17668
0.99026	-0.20594
0.70974	-0.38449
0.99026	0.40625
0.02119	0.86539
0.35272	0.02363
0.02119	1.40105
1.14327	0.73785
0.25071	-0.84363
-1.45790	1.45206
-0.74385	-0.94566
0.25071	0.20219
0.42922	-1.17523
1.72980	-1.02219
0.73524	0.25320
0.32721	0.50828
0.70974	0.25320
1.37278	0.43176
-1.61091	1.47757
-2.80949	0.68683
-1.35589	0.15117
1.70430	-1.09871
0.53123	-0.07840
0.22521	0.53379
-1.15188	0.22769
0.91375	-0.20594
1.62780	0.04914
-0.38683	0.25320
-0.18282	0.15117
1.67880	0.96742
0.76074	-0.05289
0.25071	-0.66508
1.04126	-0.61406
0.32721	0.15117
-0.76936	0.02363
-0.53984	0.25320
-0.33583	0.04914
-0.46334	1.17148
-0.23382	-0.79262
0.17421	0.63582
0.12320	0.15117
0.14870	-0.12942
0.27621	0.48277
0.42922	0.55929
0.25071	0.43176
0.55673	-1.04770
1.14327	0.91640
0.17421	0.25320
-0.94787	0.71234
0.27621	-2.17003
-1.07538	0.12566
-0.05531	1.29902
0.37822	0.61031
0.55673	0.55929
1.60230	-0.23145
0.60773	-0.79262
-0.53984	-0.30797
-0.13181	0.25320
1.70430	0.94191
-0.87136	0.61031
-0.94787	0.04914
0.68424	-0.38449
1.01576	0.22769
0.81175	0.50828
-2.73298	-0.00188
-1.33039	-0.74160
0.22521	-0.99668
-0.38683	0.73785
1.27078	1.29902
1.62780	0.25320
1.19427	0.20219
0.81175	0.73785
0.12320	0.17668
0.42922	0.30422
0.19971	0.15117
-1.43240	-0.30797
-0.87136	-1.35379
-0.59084	0.71234
-0.71835	0.53379
0.88825	1.47757
1.29628	0.43176
1.09226	0.17668
0.73524	-1.68539
-0.10631	-1.04770
0.04670	0.35523
0.83725	0.50828
-1.15188	0.55929
-1.73842	0.89089
0.53123	1.01843
0.96476	0.12566
0.91375	0.76336
0.12320	-0.66508
0.42922	-0.84363
0.73524	-0.10391
0.58223	-0.10391
-0.33583	0.58480
-0.41233	-1.17523
-0.76936	0.40625
0.25071	-0.15492
-0.69285	0.89089
-0.23382	1.50308
1.88281	0.76336
1.95932	0.10015
1.04126	-0.05289
-3.29402	0.20219
-0.48884	0.15117
1.39828	-0.25695
1.34728	0.04914
1.24527	-0.33348
1.34728	0.15117
0.81175	0.20219
-0.84586	0.25320
-2.01894	-0.43551
-0.89686	0.32972
-0.48884	0.22769
-0.20832	0.40625
0.86275	-0.97117
0.81175	-0.53754
-0.89686	0.81437
0.17421	0.99292
0.96476	0.96742
0.58223	-0.00188
0.32721	-0.74160
0.55673	1.63062
0.76074	-1.17523
0.17421	0.83988
-0.46334	-0.15492
-0.20832	0.81437
-0.13181	-0.66508
0.32721	-0.61406
0.42922	-0.46102
0.48022	0.68683
0.65874	1.27351
-0.36133	0.76336
-2.17195	0.83988
0.22521	-0.66508
1.62780	-0.25695
0.32721	-0.25695
0.48022	-0.05289
-0.25932	0.71234
0.12320	0.25320
0.63323	-0.12942
1.52579	-0.07840
0.12320	-0.07840
-1.30489	0.15117
-0.28482	-0.05289
-0.05531	-0.05289
0.30171	0.12566
0.12320	0.30422
0.09770	0.25320
0.12320	1.06945
0.73524	0.66132
0.22521	1.01843
0.88825	-0.76711
-0.92237	-0.58856
-0.23382	-0.61406
0.48022	-0.66508
0.40372	0.53379
0.53123	1.35003
0.70974	0.61031
0.22521	0.15117
-1.15188	-0.00188
-0.53984	0.78886
0.22521	-0.89465
0.55673	-0.30797
0.60773	-0.51203
0.53123	0.58480
0.02119	0.73785
0.60773	-0.10391
0.30171	0.30422
-0.36133	0.50828
-0.33583	-0.38449
0.45472	0.32972
1.14327	-0.35899
-0.25932	0.50828
-0.76936	-0.79262
0.27621	0.10015
0.63323	0.53379
0.35272	0.71234
0.86275	1.06945
-0.18282	0.73785
0.60773	0.68683
-0.76936	-0.43551
-2.98800	-0.69059
1.55129	-0.35899
0.83725	-0.43551
1.19427	0.32972
0.40372	-0.35899
-0.02981	0.22769
-0.10631	0.53379
1.42379	0.63582
0.40372	0.15117
-1.73842	0.07465
-2.09544	0.20219
-0.33583	0.48277
1.27078	0.12566
1.44929	0.25320
0.99026	0.04914
-0.48884	0.07465
-0.76936	-0.28246
0.27621	0.04914
0.63323	0.78886
0.81175	-0.38449
0.70974	-0.35899
-0.33583	0.55929
-0.38683	0.48277
0.32721	-0.12942
0.22521	0.22769
-0.46334	0.07465
0.32721	-0.20594
0.63323	0.55929
-1.86593	-0.92016
-0.51434	1.24800
0.78624	0.96742
0.60773	0.58480
1.01576	-0.20594
0.55673	-0.48652
1.04126	-0.41000
-0.00431	-0.35899
-1.10088	0.66132
0.07220	1.37554
1.16877	0.45726
-0.36133	-0.58856
0.42922	-0.69059
0.12320	-0.97117
0.45472	0.38074
-0.56534	0.63582
-1.35589	0.50828
0.73524	0.45726
1.19427	0.25320
1.24527	0.10015
-1.76392	-0.00188
-2.01894	0.10015
1.83181	0.02363
1.14327	0.15117
0.93925	0.25320
1.01576	0.40625
-1.02437	0.12566
0.58223	0.35523
0.04670	0.15117
-0.00431	-0.97117
-0.25932	-0.30797
-0.41233	0.22769
0.30171	0.43176
0.17421	0.86539
-0.02981	-0.38449
-0.25932	0.40625
0.22521	1.32453
0.32721	1.29902
0.25071	-0.76711
0.19971	-0.66508
0.63323	0.58480
-0.10631	0.58480
-0.97337	-0.25695
-0.48884	0.07465
1.27078	-0.86914
0.76074	0.83988
1.39828	-0.33348
-0.08081	-0.71609
0.48022	0.96742
0.37822	-0.00188
-0.05531	0.71234
-1.22839	-0.07840
0.40372	0.15117
-1.17738	0.78886
-0.23382	0.17668
0.48022	0.27871
0.73524	0.45726
2.01032	0.50828
0.53123	-0.23145
0.02119	-0.12942
-0.46334	0.45726
-1.12638	-0.94566
-2.86049	-0.38449
-0.38683	-0.23145
1.65330	0.99292
1.62780	0.40625
1.78081	-0.05289
0.76074	0.38074
0.86275	0.71234
0.53123	0.02363
-1.43240	0.63582
-0.79486	0.25320
-0.38683	0.66132
-0.10631	-0.61406
0.63323	-0.58856
0.70974	-0.20594
0.02119	0.53379
0.40372	0.55929
0.12320	-0.46102
0.19971	-0.15492
0.09770	1.29902
0.22521	-0.07840
-0.08081	-0.46102
-0.18282	0.35523
0.19971	0.50828
0.55673	0.48277
0.30171	-0.20594
0.02119	-0.10391
-3.01350	-0.05289
0.70974	0.68683
1.67880	-0.02739
0.68424	0.35523
0.78624	-0.71609
0.02119	-0.81812
-0.38683	0.55929
-0.87136	-0.20594
0.88825	1.29902
-0.15732	0.10015
0.99026	0.02363
0.70974	-0.18043
0.37822	0.22769
-1.17738	1.50308
0.35272	0.61031
0.09770	0.45726
-0.28482	-0.81812
0.22521	-0.56305
1.04126	0.10015
0.25071	0.10015
-0.79486	0.35523
-0.38683	0.35523
0.53123	0.12566
0.81175	-0.02739
-0.64185	-0.38449
0.12320	1.01843
0.19971	-0.07840
-0.46334	-0.66508
-0.38683	-1.43031
0.37822	0.89089
0.83725	0.91640
0.93925	1.17148
0.55673	0.71234
0.27621	0.48277
0.04670	0.38074
0.04670	-0.53754
0.78624	-0.05289
-0.10631	-1.14973
-0.28482	-0.35899
-0.59084	-0.07840
-0.64185	0.45726
-0.97337	0.73785
1.14327	0.81437
1.09226	0.12566
-0.05531	-0.25695
0.25071	0.20219
-0.38683	0.43176
-1.20288	-0.35899
0.63323	-0.07840
1.39828	-0.84363
0.63323	-0.00188
0.09770	1.01843
0.09770	0.78886
0.02119	-0.02739
1.60230	0.61031
0.40372	-0.30797
-0.20832	0.07465
-1.38139	0.12566
-1.35589	-0.00188
-0.00431	0.04914
1.09226	-0.00188
0.07220	0.15117
0.55673	0.43176
0.48022	0.22769
-0.23382	0.89089
0.12320	0.22769
0.32721	0.45726
-0.33583	-1.25176
0.22521	0.35523
0.86275	-0.76711
0.96476	0.35523
-0.18282	-0.41000
-1.07538	0.48277
0.07220	0.86539
-0.18282	1.55410
0.76074	0.71234
-0.02981	0.35523
0.32721	-0.25695
0.22521	-0.69059
0.53123	-0.53754
1.04126	-0.63957
0.86275	0.04914
-0.69285	0.61031
-2.04444	1.09496
-0.20832	0.81437
0.60773	-1.04770
1.04126	-0.41000
-0.05531	0.22769
0.42922	0.53379
0.53123	0.12566
0.73524	-0.15492
0.14870	0.55929
0.12320	0.83988
-0.74385	1.01843
0.35272	-0.18043
-0.36133	-0.20594
-0.28482	0.20219
1.06676	-0.41000
1.24527	-0.46102
0.14870	-0.35899
-0.48884	1.27351
-0.00431	-0.00188
0.02119	-0.25695
-0.82036	-0.07840
0.07220	0.30422
0.76074	0.20219
0.68424	0.10015
0.70974	-0.33348
-0.38683	-0.20594
-0.25932	0.45726
-0.20832	1.47757
0.35272	-0.89465
0.42922	-0.48652
0.12320	0.40625
-1.50890	1.47757
0.53123	1.93671
1.11776	1.24800
1.06676	0.25320
0.58223	-0.56305
-0.00431	-2.01699
0.45472	-0.86914
-1.10088	-0.58856
0.19971	-0.94566
-1.89143	0.53379
0.09770	1.12046
1.78081	1.17148
0.42922	0.83988
0.17421	0.68683
0.68424	0.99292
-0.92237	-0.02739
-0.25932	-1.37929
0.83725	-0.61406
1.16877	0.45726
1.70430	0.15117
0.55673	0.32972
-2.27395	0.32972
-1.86593	0.15117
0.76074	-0.00188
1.04126	0.30422
-0.41233	0.76336
-0.00431	-0.07840
0.48022	-1.25176
1.04126	-0.46102
0.45472	0.22769
0.07220	0.61031
0.73524	0.89089
-0.20832	0.83988
-0.97337	0.20219
1.01576	-0.15492
0.27621	0.32972
0.02119	2.01323
0.35272	-0.15492
-0.23382	-0.66508
-0.05531	-2.19554
0.40372	0.66132
1.11776	0.07465
-0.18282	0.66132
-1.94243	-0.81812
-0.46334	0.32972
0.73524	-0.92016
0.93925	0.38074
0.55673	1.78367
1.62780	0.99292
0.81175	-0.66508
2.52035	-0.20594
-0.94787	0.04914
-5.38515	0.81437
-0.59084	1.47757
1.34728	0.15117
1.47479	-0.23145
0.19971	-0.43551
0.63323	-0.12942
1.65330	-0.23145
0.88825	0.35523
-1.07538	0.12566
-1.63641	-0.18043
0.58223	-0.05289
1.16877	-0.05289
0.58223	-0.05289
-1.45790	0.30422
-3.14101	0.17668
1.44929	0.50828
1.50029	0.96742
1.83181	0.25320
-1.84042	-0.35899
0.02119	-0.07840
0.37822	-0.00188
1.01576	0.94191
0.63323	0.55929
0.42922	0.10015
0.45472	1.17148
0.02119	-0.41000
-1.20288	-1.50683
-0.59084	-0.79262
0.37822	-0.61406
0.45472	1.91120
0.02119	0.25320
-0.25932	-0.00188
0.42922	-1.25176
-0.61635	0.58480
-0.46334	1.27351
0.83725	1.93671
1.47479	-0.30797
0.58223	0.15117
-0.25932	-0.56305
0.48022	0.45726
-0.23382	0.78886
0.58223	0.48277
0.02119	-0.35899
0.81175	-1.37929
0.07220	-0.86914
-1.30489	0.02363
0.32721	1.06945
0.60773	-0.10391
-0.89686	-0.56305
0.40372	0.35523
-0.20832	0.86539
0.60773	0.91640
1.65330	0.81437
-0.31033	0.76336
0.58223	-0.15492
-1.89143	-0.33348
0.40372	-0.00188
0.58223	0.10015
0.25071	-0.18043
0.37822	-0.18043
1.39828	-0.00188
0.32721	0.02363
-0.36133	-0.10391
-0.46334	0.83988
-0.00431	0.86539
0.50573	-0.05289
0.04670	-0.63957
0.25071	1.42656
-0.20832	-0.48652
-0.18282	-0.84363
0.07220	-2.09351
-0.23382	1.60511
-0.18282	2.24281
-1.30489	1.37554
0.88825	0.40625
1.24527	-0.46102
1.16877	-0.56305
0.53123	0.20219
1.09226	0.25320
-0.13181	-0.02739
-1.02437	-0.07840
-0.31033	-0.25695
-0.51434	-0.30797
0.27621	-0.81812
0.02119	0.15117
0.27621	0.30422
1.14327	1.17148
1.42379	0.27871
0.45472	0.91640
0.55673	-0.81812
-0.38683	0.83988
-2.37596	0.40625
-0.10631	0.55929
1.24527	-0.20594
0.02119	-0.20594
-0.43783	0.04914
0.17421	-0.20594
0.88825	-0.20594
-0.10631	0.66132
0.53123	1.04394
0.27621	-0.23145
0.25071	-0.35899
0.30171	-0.12942
-0.13181	1.24800
0.17421	0.50828
0.07220	-1.07320
0.35272	-0.81812
-0.05531	-0.66508
-0.15732	0.30422
-0.02981	1.65613
0.37822	0.99292
-0.28482	0.81437
0.40372	0.15117
-0.23382	-0.25695
0.58223	-0.33348
0.53123	0.15117
0.53123	0.38074
0.14870	0.10015
0.50573	1.01843
-0.15732	0.73785
0.63323	-0.51203
-0.79486	-2.27207
-0.48884	-2.11902
-0.53984	0.53379
-2.04444	0.94191
0.45472	2.08976
2.16333	1.14597
2.59686	0.22769
1.78081	0.12566
-0.94787	-0.30797
0.40372	0.04914
0.45472	-0.28246
-1.07538	-0.23145
-1.40690	0.68683
0.58223	0.38074
1.50029	0.10015
-0.43783	-0.15492
-0.89686	-0.48652
-1.02437	-0.07840
-1.43240	0.35523
0.93925	0.12566
1.44929	0.17668
0.65874	1.06945
0.50573	0.61031
-0.43783	-0.46102
0.42922	-0.99668
0.09770	-0.18043
0.48022	0.07465
0.32721	0.78886
0.42922	0.99292
0.17421	0.45726
-0.18282	-0.84363
0.02119	-0.12942
0.04670	-0.28246
0.27621	1.27351
-0.05531	0.76336
-0.23382	1.78367
-0.31033	-0.35899
0.55673	-0.46102
0.30171	-0.81812
0.70974	0.12566
-0.31033	0.27871
-0.53984	-0.02739
0.58223	-0.28246
-1.43240	-0.74160
-0.13181	-0.63957
0.91375	0.12566
1.24527	1.42656
0.42922	1.09496
2.80087	0.15117
0.37822	-0.12942
-3.54903	0.55929
-0.05531	0.43176
1.06676	0.38074
0.02119	-0.05289
0.78624	-0.25695
1.24527	-0.15492
-1.04987	-0.07840
-0.48884	0.02363
0.30171	0.12566
-0.13181	0.32972
0.12320	-0.02739
-0.56534	-0.00188
0.07220	0.43176
-0.31033	-0.15492
0.86275	0.20219
0.09770	-0.05289
0.76074	0.15117
-0.05531	1.35003
0.53123	0.15117
0.14870	-0.89465
-0.38683	-1.12422
0.30171	0.27871
0.42922	0.81437
0.09770	0.89089
0.02119	0.68683
0.12320	0.27871
0.12320	0.02363
0.17421	0.61031
0.09770	0.25320
0.83725	-0.86914
-1.02437	-0.86914
-0.84586	-0.69059
0.40372	0.81437
0.25071	-0.00188
0.53123	-0.00188
0.86275	-0.23145
-0.87136	0.83988
0.68424	0.99292
-0.92237	0.73785
0.99026	0.40625
0.70974	-0.10391
0.73524	0.40625
1.47479	-0.84363
0.58223	0.12566
-0.66735	-0.07840
-1.10088	-0.07840
-0.20832	0.17668
0.73524	1.06945
-0.36133	-0.07840
-0.69285	0.10015
-1.48340	-0.48652
-0.82036	-0.35899
0.83725	0.15117
1.09226	0.63582
1.29628	-0.18043
1.04126	0.99292
0.45472	-0.15492
-1.07538	0.30422
0.48022	-0.25695
1.11776	0.71234
0.07220	0.58480
0.25071	0.17668
-0.18282	-0.84363
-0.18282	-0.10391
0.32721	0.50828
0.42922	0.15117
-0.48884	0.78886
0.17421	-0.00188
-0.13181	-0.86914
0.07220	0.02363
-0.92237	-0.30797
1.27078	0.91640
0.58223	-0.15492
-0.28482	-0.15492
-2.22295	0.45726
1.44929	0.96742
1.34728	0.78886
0.42922	0.38074
0.45472	0.17668
0.25071	0.35523
0.50573	0.20219
1.06676	-0.00188
0.09770	0.04914
0.07220	-0.86914
0.09770	-0.30797
-1.73842	-0.35899
-0.48884	0.38074
0.93925	0.25320
0.83725	0.25320
-0.51434	0.27871
-0.51434	0.07465
-0.51434	0.15117
-0.05531	-0.23145
0.91375	1.14597
0.88825	-0.00188
0.53123	0.27871
0.70974	0.27871
0.45472	0.76336
-0.00431	0.66132
0.04670	0.76336
0.55673	-0.81812
0.76074	-0.28246
0.65874	-0.69059
-1.45790	1.17148
-2.37596	0.02363
0.25071	-0.02739
0.93925	0.35523
1.57679	-0.18043
0.58223	-0.58856
-1.89143	-0.66508
-0.10631	0.45726
1.04126	0.63582
0.68424	1.27351
1.42379	0.35523
-0.13181	0.22769
-0.74385	-1.99148
1.01576	0.22769
0.09770	0.02363
0.25071	0.91640
0.42922	0.86539
-1.63641	0.27871
-2.19745	0.40625
0.88825	0.32972
1.42379	0.20219
1.11776	0.02363
0.30171	0.10015
0.09770	-0.05289
0.30171	-0.12942
-0.43783	-0.41000
0.45472	0.68683
0.09770	-0.00188
-0.15732	0.07465
-0.05531	-1.14973
-0.38683	-0.35899
0.22521	-0.71609
0.42922	0.71234
-0.00431	1.09496
0.78624	1.27351
0.09770	0.50828
-0.15732	0.55929
0.35272	0.32972
0.35272	0.50828
0.37822	0.07465
0.48022	0.53379
0.17421	0.45726
0.19971	-0.61406
0.73524	-0.33348
-0.76936	-1.35379
-2.50347	-1.32828
-0.10631	-0.97117
0.93925	0.38074
2.21434	1.29902
-0.84586	1.80917
0.42922	1.17148
-0.02981	0.20219
0.07220	0.10015
0.93925	-0.46102
-0.51434	0.07465
-0.56534	0.86539
1.60230	-0.56305
2.06133	-0.12942
-0.66735	-0.30797
-1.07538	0.17668
0.68424	-0.05289
-1.02437	-0.18043
0.37822	0.07465
0.73524	0.68683
-0.25932	1.27351
-1.68742	0.48277
1.44929	-0.02739
1.11776	-0.15492
0.30171	-1.25176
0.22521	0.66132
0.32721	0.43176
0.02119	-0.18043
-0.36133	-0.35899
0.22521	1.04394
-0.25932	0.86539
-0.31033	0.04914
0.09770	0.17668
0.68424	0.22769
0.68424	1.45206
0.35272	-1.27726
0.22521	-1.60887
-0.02981	-1.55785
0.22521	1.04394
0.53123	1.27351
0.88825	0.94191
-0.89686	1.32453
-1.40690	0.35523
-0.08081	-0.23145
-0.15732	-1.55785
1.50029	0.04914
-0.13181	-0.00188
-1.10088	0.73785
0.58223	0.40625
0.48022	0.78886
0.65874	0.35523
0.63323	-0.18043
1.75531	-0.02739
1.04126	0.45726
-0.20832	0.04914
-1.96793	0.25320
-2.12094	-0.35899
1.44929	-0.10391
0.40372	-0.10391
-0.33583	0.10015
-0.31033	-0.66508
0.35272	0.22769
0.58223	0.91640
0.35272	0.73785
0.55673	0.55929
0.53123	0.43176
-0.28482	1.73265
-0.18282	-0.02739
1.04126	-1.68539
0.14870	-0.51203
-0.38683	-1.09871
0.37822	0.43176
-0.00431	0.86539
0.19971	-0.10391
0.12320	0.55929
0.09770	1.68163
0.27621	1.78367
0.37822	0.25320
-0.23382	-2.04250
0.17421	-1.48133
0.37822	0.35523
0.53123	1.42656
0.27621	0.96742
-1.48340	-0.43551
0.12320	0.38074
-0.46334	-0.43551
0.96476	-0.51203
0.07220	-0.94566
-0.15732	0.73785
1.24527	0.53379
-0.05531	0.68683
1.42379	-0.23145
1.55129	0.76336
-0.82036	0.17668
-1.17738	-0.02739
-0.08081	0.22769
0.48022	0.12566
0.70974	-0.02739
-0.15732	0.04914
-0.38683	0.45726
-1.10088	0.12566
-1.02437	-0.28246
0.58223	0.10015
0.63323	-0.12942
0.53123	0.63582
0.55673	-0.05289
0.45472	-0.10391
0.40372	-0.12942
0.14870	0.10015
-0.28482	0.38074
0.09770	1.45206
0.09770	-0.28246
0.14870	0.38074
0.37822	-1.17523
0.04670	-0.35899
0.02119	0.89089
-0.23382	1.55410
0.25071	1.27351
0.02119	-0.07840
-0.59084	-0.79262
0.42922	-0.58856
1.04126	-0.58856
1.27078	1.19699
0.09770	-0.41000
0.04670	-0.74160
-1.91693	-0.79262
-1.73842	0.58480
1.06676	0.94191
1.50029	1.06945
1.55129	0.91640
0.17421	0.02363
1.11776	0.10015
0.50573	-0.18043
0.58223	-0.20594
-1.76392	-0.69059
-1.76392	-0.12942
0.07220	0.45726
0.99026	0.40625
1.24527	0.50828
0.70974	0.94191
-0.76936	0.02363
-1.35589	-0.30797
-0.41233	0.25320
1.06676	-0.51203
1.24527	0.04914
0.22521	0.35523
0.99026	0.25320
0.27621	-0.25695
-0.02981	0.61031
-0.43783	0.81437
0.09770	-0.05289
0.35272	-0.33348
-0.08081	-0.86914
-0.00431	-0.05289
0.81175	0.30422
-0.00431	0.63582
-0.33583	0.73785
-0.10631	0.66132
0.35272	1.32453
0.60773	-0.30797
1.01576	-0.25695
-0.00431	-0.66508
-1.25389	-0.23145
-0.46334	0.20219
0.55673	0.25320
-0.64185	0.55929
0.60773	-0.46102
-0.89686	-0.02739
1.34728	-1.40480
0.83725	-0.20594
1.47479	0.76336
1.44929	1.04394
0.12320	0.25320
0.19971	0.45726
-0.61635	1.47757
-1.30489	0.86539
-1.20288	0.04914
0.42922	-0.41000
-0.66735	-0.84363
0.12320	0.07465
2.11233	0.43176
-0.28482	-0.30797
-0.13181	0.20219
0.32721	-0.53754
-0.05531	-0.05289
0.55673	0.45726
0.53123	0.50828
-0.28482	-0.02739
-0.74385	0.71234
0.45472	0.86539
0.65874	-0.35899
0.53123	-1.63437
0.32721	0.40625
-0.25932	1.42656
0.17421	2.14077
-0.18282	-0.05289
0.19971	-0.18043
0.73524	-1.07320
-0.20832	0.04914
-1.02437	0.63582
0.17421	-0.00188
0.83725	0.78886
0.78624	0.22769
-1.04987	-0.41000
0.99026	-0.02739
0.19971	-0.81812
-0.66735	0.20219
1.11776	0.10015
1.44929	0.68683
0.78624	0.25320
-1.66191	-0.05289
-1.40690	-0.25695
-0.46334	0.30422
0.42922	0.45726
1.37278	0.86539
0.63323	0.91640
1.21977	0.17668
-0.41233	-0.18043
-0.69285	-0.05289
-1.27939	-0.05289
-1.40690	-0.48652
0.68424	0.27871
1.32178	0.10015
0.93925	-0.02739
1.32178	0.20219
0.40372	0.04914
-0.43783	-0.18043
-0.64185	0.22769
0.37822	-0.48652
0.32721	0.91640
-0.08081	1.06945
-0.08081	0.10015
0.09770	0.55929
-0.08081	-0.81812
-0.02981	0.63582
0.93925	0.40625
0.02119	0.20219
-0.84586	-0.46102
-0.28482	-0.05289
-0.59084	-0.07840
0.93925	0.15117
0.93925	0.73785
0.02119	-0.41000
-0.00431	1.37554
1.34728	-1.50683
-0.56534	-0.61406
-1.04987	-0.10391
-0.02981	1.60511
0.04670	0.81437
0.93925	0.15117
0.99026	0.71234
0.32721	0.12566
0.40372	-0.25695
-0.38683	1.04394
-0.10631	-0.89465
0.32721	-0.97117
-1.02437	-0.74160
-0.31033	0.38074
-1.66191	0.71234
0.65874	1.09496
0.83725	0.73785
0.93925	-0.46102
0.37822	0.17668
0.99026	-0.41000
0.45472	0.50828
0.09770	-0.12942
0.88825	0.27871
0.65874	1.01843
-0.36133	-0.71609
-1.27939	-0.99668
-0.05531	-1.04770
-0.08081	1.65613
0.12320	0.61031
0.19971	0.91640
0.27621	0.25320
0.37822	0.07465
0.37822	0.20219
1.09226	2.01323
-0.28482	-1.27726
-0.74385	-0.86914
-0.48884	-1.78742
-0.66735	1.14597
0.93925	1.37554
0.68424	1.17148
-0.97337	0.07465
0.19971	-0.63957
1.85731	-0.71609
1.34728	0.12566
0.25071	0.86539
-0.69285	0.63582
1.11776	0.30422
0.25071	0.02363
-0.18282	-0.10391
0.35272	0.15117
-0.82036	-0.66508
-1.10088	-0.05289
-0.43783	-0.12942
0.37822	1.17148
0.63323	0.76336
0.27621	-0.41000
-0.23382	-0.07840
-0.05531	-0.56305
-0.59084	0.04914
-0.33583	0.22769
1.34728	0.38074
0.68424	0.27871
0.96476	0.83988
1.14327	2.47238
0.73524	-2.42511
0.32721	-0.61406
0.22521	-1.04770
-1.73842	1.68163
-0.05531	1.01843
0.02119	0.53379
0.25071	-0.02739
0.73524	0.20219
0.96476	0.07465
-1.17738	0.71234
-1.20288	0.78886
-0.08081	0.20219
0.42922	-1.65988
0.35272	-1.68539
0.83725	-0.05289
0.25071	0.17668
1.24527	1.14597
-0.00431	0.20219
-1.53441	0.63582
0.88825	0.71234
0.73524	0.04914
0.30171	0.32972
0.12320	0.12566
0.63323	0.55929
-0.51434	0.25320
-0.10631	-0.25695
0.35272	-0.41000
1.21977	-0.25695
-0.89686	0.45726
-2.01894	-0.00188
0.07220	0.22769
0.76074	-0.97117
0.88825	0.38074
0.91375	0.94191
0.60773	1.45206
-0.18282	1.06945
-0.69285	0.12566
0.35272	-0.30797
0.53123	-0.33348
0.58223	0.02363
0.12320	-0.43551
0.12320	-1.71090
-0.18282	0.61031
0.09770	1.09496
0.22521	0.55929
-0.99887	0.35523
-0.99887	0.32972
0.88825	0.10015
0.96476	0.35523
1.72980	0.32972
0.88825	-0.41000
-0.41233	-0.38449
-0.41233	0.45726
-0.59084	0.38074
0.45472	0.38074
1.55129	-0.30797
-3.47253	-0.20594
-0.28482	0.17668
2.06133	0.10015
1.21977	0.43176
1.70430	0.12566
0.22521	0.25320
-0.71835	0.63582
-0.41233	0.04914
0.81175	0.04914
-1.84042	0.30422
-0.20832	-1.07320
0.63323	0.68683
0.60773	-0.94566
0.93925	1.04394
0.37822	-0.25695
0.50573	-0.12942
-0.51434	0.63582
0.07220	1.68163
0.09770	-0.05289
-0.66735	0.50828
-0.28482	-0.07840
0.42922	0.15117
0.53123	0.17668
0.73524	0.10015
0.25071	0.91640
0.14870	-0.07840
0.63323	-1.86394
-0.48884	-2.29757
-0.10631	1.22250
-0.94787	0.43176
0.50573	0.35523
0.60773	0.55929
1.19427	0.20219
1.16877	0.83988
-0.08081	1.22250
-0.61635	0.17668
-1.33039	0.35523
0.78624	-0.76711
1.78081	-0.18043
-0.10631	0.20219
0.93925	0.32972
0.32721	0.04914
-1.22839	0.50828
-0.28482	0.15117
0.30171	-0.00188
0.02119	0.07465
0.17421	-0.25695
-0.15732	0.04914
0.55673	0.38074
0.58223	-0.35899
-0.69285	-0.20594
0.19971	0.27871
0.48022	0.94191
0.58223	-0.00188
0.27621	-0.15492
0.53123	0.50828
0.53123	0.66132
-0.69285	0.63582
0.02119	0.50828
0.09770	-1.22625
0.17421	-0.28246
0.32721	-1.27726
0.19971	0.58480
0.58223	1.09496
0.12320	1.01843
-0.33583	0.58480
0.45472	0.68683
0.32721	0.22769
-0.61635	0.32972
-1.02437	-0.15492
0.73524	-1.04770
0.63323	-0.25695
1.42379	0.45726
0.68424	-0.35899
-0.48884	0.96742
-2.60547	-0.23145
0.68424	0.04914
1.24527	-0.28246
1.09226	-0.18043
0.50573	0.35523
1.14327	0.61031
0.09770	0.45726
-0.08081	0.68683
-0.46334	-0.02739
-0.69285	0.40625
-0.97337	-0.02739
0.27621	0.15117
0.14870	0.43176
1.19427	0.17668
1.55129	-0.05289
-0.71835	-0.20594
-1.53441	-0.20594
-0.10631	0.30422
0.07220	-0.05289
-1.63641	-0.00188
0.83725	-0.46102
1.09226	0.48277
1.44929	0.12566
1.42379	-0.30797
0.76074	-0.56305
0.40372	0.22769
-0.43783	1.45206
0.17421	0.10015
-0.25932	0.22769
-0.28482	0.66132
-1.20288	0.91640
0.02119	0.25320
0.02119	0.55929
0.83725	0.76336
0.27621	-0.02739
-0.56534	-1.20074
0.12320	-1.53234
0.81175	-1.27726
0.76074	0.91640
0.50573	0.58480
-0.71835	1.09496
-0.59084	-0.97117
0.83725	-0.58856
0.17421	-0.02739
0.50573	1.06945
0.22521	1.52859
-1.76392	1.04394
1.37278	0.63582
0.63323	0.35523
0.58223	-0.18043
0.37822	-0.48652
0.25071	-0.23145
0.88825	0.50828
-0.18282	-0.05289
-0.10631	-0.05289
0.19971	-0.15492
-0.08081	0.83988
-0.18282	-0.28246
0.07220	-0.86914
-1.40690	-0.15492
-1.43240	-0.05289
0.53123	0.27871
0.96476	0.68683
0.88825	0.76336
0.19971	0.94191
0.42922	0.43176
0.76074	-0.12942
0.83725	0.50828
0.60773	-1.78742
-0.13181	-0.74160
-1.10088	0.63582
-0.00431	0.78886
0.42922	1.40105
0.73524	0.63582
0.42922	0.35523
-1.27939	-0.20594
0.19971	0.15117
0.48022	-0.28246
1.14327	0.50828
0.60773	-0.00188
-0.10631	-0.41000
-0.94787	-1.43031
-0.61635	-0.23145
-0.41233	0.76336
-1.35589	0.45726
1.34728	0.40625
1.37278	0.55929
2.06133	0.45726
0.68424	-0.05289
-0.94787	-0.18043
-1.38139	0.27871
-0.25932	0.32972
1.01576	0.04914
0.32721	0.04914
-0.31033	0.10015
-0.02981	0.53379
0.40372	0.27871
0.19971	0.30422
0.35272	0.04914
0.32721	0.07465
-0.33583	-0.02739
-0.87136	-0.05289
-0.28482	0.43176
-0.05531	0.35523
0.78624	-0.25695
0.73524	0.25320
0.88825	-0.76711
0.60773	0.15117
-0.20832	0.86539
-0.41233	0.53379
0.17421	0.86539
0.04670	-0.10391
0.45472	-0.99668
-0.76936	-0.10391
-0.18282	0.45726
1.01576	1.55410
0.91375	0.48277
0.40372	-0.79262
0.73524	0.50828
-1.45790	0.43176
-0.84586	0.10015
-0.84586	-1.09871
0.50573	-1.09871
0.68424	0.48277
1.47479	1.12046
1.19427	0.81437
0.42922	0.76336
-0.92237	0.66132
-0.74385	-0.35899
0.78624	0.81437
-0.15732	-1.81293
0.55673	-0.30797
-0.10631	-0.76711
1.72980	0.68683
-0.08081	0.91640
-3.03900	0.63582
-1.40690	0.53379
0.65874	0.35523
1.06676	0.30422
0.78624	-0.20594
0.40372	0.66132
0.91375	-0.35899
0.35272	-0.05289
0.70974	0.32972
0.14870	-0.10391
0.22521	0.76336
-0.51434	0.55929
-0.51434	-0.12942
0.35272	-0.46102
0.04670	-0.97117
0.42922	0.15117
-0.38683	-0.12942
-0.10631	1.06945
-0.23382	2.67644
-0.08081	-0.41000
0.60773	-0.86914
0.63323	-2.24656
0.55673	0.73785
1.34728	1.65613
0.37822	1.19699
-1.30489	0.50828
-0.69285	-0.07840
0.30171	-0.56305
0.99026	0.15117
1.27078	0.53379
-0.41233	-0.71609
-1.07538	-0.18043
1.09226	-0.71609
0.99026	0.30422
-0.31033	-0.20594
-0.76936	0.30422
-1.40690	0.35523
1.04126	0.78886
1.29628	0.45726
2.16333	0.48277
-0.25932	0.45726
-0.28482	0.15117
-0.18282	0.22769
-0.00431	-0.35899
-0.64185	0.53379
-0.43783	-0.25695
0.30171	-0.46102
0.27621	0.15117
-0.08081	0.71234
-1.33039	0.86539
0.81175	0.50828
0.86275	-0.63957
0.81175	-1.32828
0.50573	-0.23145
0.99026	0.55929
1.09226	0.53379
-0.94787	1.24800
-0.43783	0.83988
-0.76936	0.48277
0.70974	-1.17523
-0.28482	-0.46102
0.02119	-0.00188
0.09770	0.38074
0.70974	0.45726
1.39828	0.76336
0.86275	-0.02739
0.17421	-0.25695
-1.04987	0.86539
-0.15732	-0.23145
0.17421	-1.50683
-0.15732	0.30422
0.60773	0.35523
0.04670	0.61031
0.78624	0.45726
0.70974	0.35523
-2.04444	0.35523
-0.99887	0.04914
0.58223	0.15117
0.60773	-0.10391
0.86275	-0.15492
-0.64185	-0.41000
0.40372	0.25320
2.26534	-0.02739
0.27621	0.40625
-1.68742	0.73785
-0.13181	0.40625
0.83725	0.32972
-0.00431	0.30422
-0.08081	0.04914
1.09226	-0.00188
0.58223	-0.07840
0.70974	-0.07840
-0.25932	0.07465
-0.05531	0.22769
-0.36133	0.17668
-1.30489	0.20219
-1.30489	0.43176
-0.38683	-0.00188
1.44929	-0.81812
0.25071	0.68683
0.99026	0.27871
1.19427	0.20219
-0.33583	0.32972
-0.38683	-0.18043
0.48022	0.63582
0.42922	-1.60887
1.09226	0.22769
0.02119	1.06945
-1.25389	0.96742
-0.31033	-0.53754
-0.00431	-0.38449
0.99026	-0.05289
0.50573	0.17668
-0.15732	0.68683
0.19971	1.19699
0.30171	1.47757
-0.05531	-0.97117
0.25071	-0.66508
-0.08081	-1.27726
0.40372	-0.15492
0.78624	0.78886
-0.02981	0.78886
-0.38683	0.20219
-1.10088	0.04914
0.65874	0.32972
0.53123	0.20219
-0.25932	-0.10391
0.65874	-0.02739
0.70974	0.53379
-0.25932	-0.74160
-0.38683	-0.07840
0.76074	0.27871
1.90832	0.45726
1.19427	0.66132
0.53123	0.25320
-1.81492	0.17668
-1.84042	-0.12942
-1.17738	0.12566
0.12320	0.25320
0.40372	-0.43551
1.04126	-0.00188
1.60230	0.27871
0.42922	0.07465
-0.18282	0.50828
0.02119	0.12566
0.30171	-0.28246
0.53123	0.50828
0.37822	0.76336
-0.18282	0.25320
0.09770	-0.35899
0.07220	0.53379
-0.25932	-0.53754
-0.38683	-0.99668
-0.02981	-0.84363
0.48022	1.17148
0.37822	0.73785
0.02119	0.53379
-0.08081	0.35523
0.42922	0.32972
0.04670	0.91640
-0.05531	0.55929
0.86275	-0.84363
0.40372	-0.15492
0.17421	-0.02739
-0.97337	0.25320
1.67880	1.12046
0.48022	0.50828
-2.27395	-0.35899
-1.04987	-2.09351
0.81175	-1.25176
1.88281	0.86539
1.16877	1.12046
0.14870	0.89089
-0.56534	0.71234
-0.38683	0.68683
0.68424	-0.51203
-0.23382	-0.12942
-0.20832	-0.15492
0.37822	0.35523
0.02119	0.66132
0.02119	-0.15492
-0.23382	-0.41000
0.27621	-0.53754
0.40372	0.78886
-0.00431	0.50828
0.70974	0.25320
0.70974	-0.28246
0.22521	0.17668
-0.59084	0.45726
-0.18282	-0.28246
0.40372	0.10015
0.48022	0.48277
0.60773	-0.38449
-0.10631	0.22769
-0.71835	0.10015
-0.64185	0.25320
0.50573	0.73785
0.48022	0.30422
0.93925	0.02363
0.86275	0.02363
-1.27939	-0.71609
-0.79486	0.04914
0.63323	0.48277
0.70974	0.10015
0.07220	-0.12942
0.19971	1.22250
0.63323	0.22769
0.27621	-0.66508
-0.69285	-0.43551
-1.25389	0.30422
0.81175	0.17668
1.09226	1.06945
0.76074	0.66132
-0.00431	-0.69059
0.12320	-0.05289
-0.66735	-0.05289
-0.15732	0.12566
0.27621	0.17668
0.19971	0.25320
0.63323	0.15117
0.30171	0.12566
0.53123	0.20219
0.55673	0.32972
-0.43783	0.38074
-0.05531	0.17668
-0.28482	0.27871
0.09770	-0.56305
0.14870	0.40625
0.07220	-0.51203
0.32721	1.37554
0.35272	-0.56305
0.02119	0.73785
0.19971	1.32453
0.12320	-1.25176
0.42922	-1.02219
0.19971	-0.74160
0.09770	1.01843
0.09770	1.04394
0.14870	0.61031
-0.48884	-0.23145
0.48022	-0.05289
0.63323	0.20219
0.58223	0.40625
-0.02981	0.27871
-0.99887	0.32972
-0.41233	0.73785
0.63323	0.12566
0.35272	-0.02739
0.25071	-0.30797
0.35272	-0.25695
0.70974	-0.00188
0.25071	0.17668
-0.15732	0.17668
-0.33583	0.40625
0.45472	-0.15492
0.91375	-0.30797
-0.59084	0.25320
0.12320	-0.07840
0.25071	0.15117
0.37822	0.68683
0.27621	1.12046
0.27621	0.17668
-0.36133	-0.20594
-0.25932	0.35523
0.02119	-0.35899
-0.82036	-0.18043
0.60773	-0.00188
0.73524	0.45726
0.27621	0.89089
0.32721	-0.05289
0.53123	0.38074
0.40372	-0.12942
0.12320	-0.25695
0.02119	0.15117
-0.10631	0.25320
-0.61635	0.17668
0.27621	0.27871
0.55673	-0.38449
0.42922	-0.43551
-0.46334	0.50828
0.19971	0.53379
-0.00431	0.25320
-0.08081	0.86539
0.14870	-0.07840
0.19971	-0.18043
1.14327	-0.69059
0.17421	-0.35899
-0.89686	0.48277
0.65874	1.01843
-0.38683	1.24800
-0.46334	0.50828
1.04126	-0.25695
0.60773	-0.15492
0.02119	-0.00188
-1.20288	0.25320
0.68424	-0.48652
0.12320	-0.92016
0.83725	-0.33348
0.58223	0.48277
0.70974	0.91640
-0.25932	0.76336
-0.20832	0.04914
-0.05531	-0.05289
0.60773	0.22769
-0.82036	0.10015
-0.69285	0.32972
-0.08081	0.15117
0.22521	0.04914
0.40372	0.43176
0.63323	-0.10391
-0.18282	-0.35899
0.42922	-0.48652
1.14327	1.17148
0.14870	0.73785
-0.51434	0.04914
-0.99887	-0.41000
0.22521	-0.35899
0.78624	-0.00188
0.68424	0.30422
0.93925	0.35523
0.73524	0.15117
-0.00431	0.94191
-0.59084	0.89089
0.63323	-0.28246
0.02119	-0.63957
-1.17738	-1.02219
-2.17195	0.04914
0.42922	0.83988
0.88825	0.96742
1.72980	1.24800
1.19427	0.45726
-0.10631	-0.23145
0.40372	-0.69059
-0.66735	-0.30797
0.65874	0.27871
-0.13181	-0.25695
-0.74385	0.07465
0.25071	0.30422
0.81175	0.71234
0.04670	0.66132
-1.17738	1.12046
0.09770	-0.15492
0.09770	-1.99148
0.50573	-0.56305
0.14870	0.04914
-0.15732	0.76336
0.73524	0.61031
0.50573	0.68683
0.73524	0.25320
0.45472	0.30422
1.11776	0.15117
-1.02437	0.50828
-0.74385	0.22769
-0.89686	0.15117
0.88825	-0.66508
1.21977	-0.43551
0.76074	0.20219
-0.53984	0.32972
-0.15732	0.07465
-0.20832	0.12566
0.12320	0.38074
0.93925	-0.02739
0.73524	0.07465
-2.22295	0.66132
-1.07538	1.12046
0.07220	-0.28246
0.48022	-0.05289
1.44929	-0.79262
1.83181	-0.38449
-0.20832	-0.20594
-0.15732	0.89089
-0.66735	1.12046
