0.12320	0.35523
0.12320	0.25320
0.19971	0.25320
0.19971	0.07465
0.02119	-0.02739
0.12320	0.22769
0.17421	-0.05289
0.07220	-0.25695
0.14870	-0.07840
0.19971	-0.15492
0.09770	0.22769
0.19971	0.43176
0.14870	0.38074
0.14870	0.25320
0.17421	0.22769
0.04670	0.04914
0.12320	0.10015
0.12320	0.10015
0.02119	0.07465
0.22521	0.17668
0.09770	0.07465
0.17421	0.15117
0.22521	0.15117
0.22521	0.25320
0.17421	0.15117
0.12320	0.15117
0.12320	0.20219
0.17421	0.12566
0.19971	0.17668
0.17421	0.15117
0.12320	0.02363
0.22521	0.15117
0.17421	0.15117
0.02119	0.02363
0.07220	0.17668
0.22521	0.30422
0.17421	0.15117
0.09770	0.04914
0.09770	-0.00188
0.14870	0.04914
0.17421	0.20219
0.19971	0.35523
0.12320	0.32972
0.09770	0.07465
0.12320	0.10015
0.09770	-0.12942
0.07220	-0.18043
0.14870	0.22769
0.22521	0.40625
0.27621	0.27871
0.22521	0.20219
0.02119	0.20219
0.12320	0.17668
0.17421	0.12566
0.12320	0.15117
0.07220	0.15117
0.14870	0.07465
0.12320	-0.18043
0.09770	-0.07840
0.17421	0.17668
0.19971	0.30422
0.09770	0.27871
0.14870	0.20219
0.25071	0.40625
0.17421	0.22769
0.02119	-0.00188
0.09770	0.07465
0.17421	0.17668
0.25071	0.20219
0.14870	0.12566
0.07220	0.07465
0.12320	0.12566
0.27621	0.04914
0.17421	-0.05289
-0.00431	0.12566
0.22521	0.35523
0.22521	0.25320
0.07220	0.27871
0.14870	0.25320
0.19971	0.10015
-0.10631	0.12566
0.19971	0.22769
0.14870	0.04914
0.14870	0.10015
0.09770	0.15117
0.19971	0.15117
0.17421	0.02363
0.17421	0.27871
0.14870	0.25320
0.12320	0.12566
0.17421	0.25320
-0.00431	-0.12942
0.22521	0.04914
0.04670	-0.12942
0.19971	0.12566
0.09770	0.32972
0.02119	0.38074
0.12320	0.35523
0.17421	0.30422
0.17421	0.32972
0.12320	0.15117
0.14870	-0.15492
0.19971	0.07465
0.12320	0.12566
0.19971	0.15117
0.09770	0.07465
0.02119	-0.10391
0.12320	0.22769
0.14870	0.27871
0.12320	0.22769
0.09770	0.12566
0.17421	0.27871
0.22521	0.27871
0.07220	0.07465
-0.00431	0.15117
-0.02981	-0.05289
0.76074	0.07465
-0.00431	0.22769
0.07220	0.45726
-0.00431	0.27871
0.04670	-0.10391
0.27621	0.17668
0.40372	-0.25695
-0.08081	0.02363
-0.10631	0.43176
0.53123	0.12566
0.53123	0.12566
0.02119	0.27871
-0.00431	0.15117
0.02119	0.50828
0.04670	0.63582
0.02119	0.27871
0.22521	0.38074
0.30171	-0.05289
0.12320	-0.25695
0.14870	-0.28246
0.12320	-0.61406
0.22521	0.40625
0.17421	0.78886
0.17421	0.61031
0.07220	-0.12942
0.14870	-0.46102
0.25071	-0.48652
0.17421	-0.05289
0.04670	0.40625
-0.00431	0.35523
0.14870	0.45726
0.25071	0.68683
0.07220	0.55929
0.07220	0.22769
0.17421	0.02363
0.25071	0.35523
0.14870	0.12566
0.12320	-0.43551
0.14870	-0.63957
0.17421	-0.20594
0.12320	-0.25695
0.09770	0.40625
0.09770	0.53379
0.25071	0.45726
0.22521	0.43176
0.04670	0.32972
0.12320	0.45726
0.30171	0.12566
0.07220	-0.48652
-0.10631	-0.18043
0.53123	0.22769
-0.00431	0.38074
0.27621	0.30422
0.19971	0.30422
0.25071	0.27871
0.02119	0.10015
0.27621	0.04914
0.09770	0.04914
-0.00431	0.15117
0.19971	0.04914
0.09770	0.20219
0.04670	0.04914
0.19971	0.10015
0.22521	-0.10391
0.27621	-0.07840
0.17421	0.40625
0.09770	0.50828
0.12320	0.32972
0.19971	0.04914
0.12320	0.22769
0.04670	0.02363
0.12320	0.04914
0.22521	-0.25695
0.12320	-0.23145
0.17421	-0.02739
0.22521	0.76336
0.14870	0.94191
0.04670	0.45726
0.12320	0.25320
0.14870	0.38074
0.12320	-0.15492
0.09770	-0.00188
0.19971	0.17668
0.19971	-0.30797
0.19971	-0.07840
0.12320	-0.56305
0.17421	-0.00188
0.22521	0.45726
0.09770	0.20219
0.02119	0.30422
0.14870	0.81437
0.09770	0.61031
0.14870	0.55929
0.14870	0.04914
0.19971	-0.35899
0.02119	-0.48652
0.14870	-0.02739
0.25071	0.35523
0.17421	0.17668
0.09770	0.22769
0.27621	0.20219
0.07220	0.04914
-0.00431	0.25320
0.09770	0.15117
0.58223	0.07465
0.02119	0.04914
0.07220	0.10015
0.07220	0.17668
0.04670	-0.00188
0.09770	0.15117
0.09770	0.20219
-0.13181	0.15117
0.30171	0.07465
0.14870	0.20219
0.12320	0.35523
0.09770	0.27871
0.14870	0.17668
0.22521	0.15117
0.12320	0.02363
0.14870	0.07465
0.09770	0.20219
0.04670	0.25320
0.12320	0.10015
0.17421	0.27871
0.22521	0.15117
0.22521	0.20219
0.12320	0.20219
0.09770	-0.00188
-0.02981	0.17668
0.17421	-0.00188
0.19971	0.10015
0.35272	0.12566
0.12320	0.35523
-0.08081	0.22769
-0.05531	-0.23145
0.17421	-0.30797
0.12320	-0.05289
0.22521	0.30422
0.25071	0.10015
0.12320	0.17668
0.12320	0.40625
-0.02981	0.48277
0.27621	0.50828
0.19971	0.48277
0.17421	0.76336
0.17421	-0.10391
0.12320	-0.02739
0.32721	-1.07320
0.22521	-0.81812
0.17421	0.07465
0.04670	-0.51203
-0.02981	0.81437
-0.02981	0.99292
-0.10631	0.78886
-0.02981	0.55929
0.35272	0.45726
0.30171	0.12566
0.42922	0.04914
0.12320	-0.10391
0.27621	0.02363
0.27621	-0.10391
0.07220	-0.43551
-0.02981	-0.10391
-0.05531	-0.00188
0.12320	0.22769
0.19971	0.25320
0.09770	0.02363
0.32721	0.17668
0.14870	0.40625
0.32721	0.76336
-0.10631	0.55929
0.19971	0.02363
0.32721	-0.25695
-0.00431	0.10015
0.25071	-1.30277
0.19971	0.02363
-0.46334	-0.05289
-0.41233	0.38074
0.68424	2.06425
0.91375	2.31933
0.81175	1.09496
-0.99887	-0.79262
-2.01894	-0.48652
0.70974	-1.88945
-0.28482	0.07465
0.91375	0.27871
1.55129	-0.30797
1.72980	-0.86914
1.44929	0.20219
0.76074	1.32453
-0.08081	1.45206
-0.56534	0.68683
-0.84586	-0.02739
-0.61635	1.40105
-0.61635	0.55929
-0.28482	-1.68539
-0.13181	-4.05761
0.14870	-3.31788
0.27621	0.22769
-0.00431	3.44167
0.09770	3.16108
0.09770	2.57441
0.48022	0.91640
0.45472	0.30422
0.55673	-0.02739
0.12320	-0.28246
0.30171	-0.53754
0.12320	-0.25695
0.35272	-0.25695
0.09770	-1.55785
0.19971	-0.20594
0.14870	-0.20594
0.76074	0.63582
0.17421	-0.38449
-0.18282	0.12566
-0.36133	-0.99668
-0.13181	0.04914
0.02119	1.83468
-0.02981	0.91640
0.22521	0.76336
0.40372	1.17148
0.37822	-1.58336
-0.33583	0.32972
0.12320	-1.07320
0.02119	1.63062
0.30171	0.66132
0.53123	0.43176
0.45472	-0.61406
-0.20832	0.15117
0.12320	0.73785
0.02119	0.27871
-0.79486	0.61031
0.45472	-0.12942
1.14327	-0.05289
0.37822	0.45726
-0.02981	-2.70570
0.07220	-2.22105
0.37822	-2.29757
0.53123	1.42656
-0.87136	2.11527
-0.28482	2.39585
-0.23382	0.38074
-0.61635	0.35523
0.65874	0.17668
1.09226	2.11527
0.76074	-0.02739
0.55673	-1.58336
0.14870	1.09496
-0.18282	-0.76711
-0.00431	-0.15492
-0.20832	-2.52714
0.19971	1.01843
0.19971	-0.23145
-0.28482	1.96222
-0.02981	0.86539
-0.08081	0.99292
0.76074	-0.05289
0.83725	0.78886
0.70974	-1.73640
-0.02981	-0.18043
-1.22839	-0.79262
-1.71292	0.99292
-0.61635	0.96742
1.70430	0.96742
1.39828	0.45726
0.68424	0.53379
0.50573	-0.53754
0.25071	-0.07840
0.27621	-0.38449
-0.38683	-1.17523
-0.08081	-0.28246
0.93925	-0.66508
0.37822	0.22769
0.19971	0.17668
-0.64185	0.04914
-0.28482	0.94191
0.22521	1.93671
-0.46334	2.06425
0.09770	0.81437
0.32721	-1.02219
0.22521	-1.86394
-0.23382	-0.51203
0.04670	0.40625
0.53123	2.42136
0.30171	-1.86394
0.48022	1.45206
0.53123	-1.65988
0.35272	-1.07320
0.04670	0.30422
0.27621	1.63062
0.04670	2.90601
-0.02981	-0.15492
-0.48884	-1.99148
-0.25932	-3.93007
-0.38683	0.55929
0.63323	3.62022
0.65874	1.19699
0.50573	0.94191
-0.43783	-0.76711
-0.61635	-0.41000
1.29628	0.94191
1.19427	-2.45062
0.25071	0.76336
-0.23382	-0.61406
-1.15188	-0.69059
0.53123	0.86539
0.27621	1.17148
1.01576	0.68683
0.65874	0.76336
0.27621	1.01843
-0.53984	-1.30277
-0.25932	-0.28246
-0.20832	-0.66508
0.27621	0.15117
-0.18282	-0.84363
0.02119	0.66132
-0.33583	1.70714
0.58223	0.61031
0.73524	0.81437
1.04126	0.40625
0.35272	0.27871
-0.79486	-1.65988
-0.82036	-2.32308
-0.20832	-0.79262
0.86275	1.42656
1.04126	1.55410
0.12320	3.03355
-0.43783	-1.71090
-0.13181	-0.63957
0.02119	-1.83844
0.60773	2.14077
0.09770	2.21730
0.07220	2.19179
0.07220	0.35523
0.19971	-2.80773
0.04670	-3.82804
0.78624	-1.71090
0.70974	3.41616
-1.15188	1.17148
-0.59084	-0.00188
0.19971	0.89089
-0.20832	-0.74160
-0.43783	0.53379
0.25071	0.45726
1.65330	0.96742
1.55129	0.55929
0.53123	0.02363
-0.69285	-0.38449
-1.10088	-0.79262
-1.38139	0.35523
1.14327	0.32972
0.58223	0.71234
0.37822	-0.61406
0.48022	-0.28246
0.40372	-0.33348
0.65874	0.40625
0.32721	1.24800
-1.15188	0.38074
-0.33583	0.38074
-0.05531	-0.23145
0.63323	2.93151
0.37822	-1.99148
0.25071	1.32453
-0.38683	-3.47093
-0.61635	0.63582
-0.59084	-1.45582
0.81175	2.54890
0.68424	2.39585
0.58223	0.76336
0.60773	1.80917
0.65874	-2.78222
0.02119	-0.69059
0.37822	-1.30277
-0.69285	0.12566
0.07220	2.06425
-0.13181	0.35523
0.19971	0.91640
0.63323	-0.89465
-0.74385	-2.65468
-0.89686	-2.80773
1.14327	0.55929
0.76074	2.80397
0.02119	2.59991
-0.92237	1.37554
0.78624	0.58480
0.04670	0.53379
0.48022	-0.99668
0.68424	-0.84363
1.42379	-1.48133
-0.97337	-0.46102
-0.33583	0.15117
0.19971	0.38074
0.40372	1.14597
0.60773	0.89089
0.12320	-1.25176
-0.64185	-1.17523
-0.18282	-0.46102
0.27621	1.96222
0.17421	1.75816
0.02119	0.30422
-0.61635	0.76336
0.14870	-0.51203
0.25071	0.66132
0.40372	0.55929
0.22521	-0.25695
0.35272	-1.71090
0.86275	-0.79262
0.78624	1.73265
-0.99887	-0.89465
-0.79486	0.58480
-1.17738	-2.17003
0.86275	0.32972
1.04126	1.52859
0.65874	1.86019
0.42922	0.61031
0.55673	1.09496
1.32178	0.12566
0.09770	-0.33348
-0.53984	-1.07320
-0.20832	0.10015
0.07220	-0.53754
-0.25932	0.61031
0.73524	0.48277
0.50573	-0.12942
-1.04987	0.30422
-0.59084	-1.32828
0.35272	-0.76711
0.02119	-0.86914
0.14870	1.70714
-0.38683	0.68683
0.93925	-0.58856
-1.40690	0.22769
0.70974	1.37554
1.50029	1.22250
1.34728	1.12046
-0.43783	0.58480
0.27621	-0.18043
1.24527	0.25320
0.76074	-0.51203
-1.10088	-0.84363
-0.08081	-0.46102
-0.00431	-0.38449
0.02119	0.38074
-0.36133	-0.18043
-0.33583	0.86539
0.30171	-1.86394
0.02119	1.01843
0.17421	0.89089
0.12320	2.49788
-0.15732	-1.68539
0.27621	-2.24656
0.68424	0.35523
0.99026	1.42656
0.32721	3.13558
0.04670	1.14597
0.53123	3.33964
0.22521	-2.80773
-0.61635	-2.68019
-1.48340	-3.34339
0.09770	1.40105
0.86275	2.21730
0.68424	1.47757
-0.28482	0.71234
0.04670	0.53379
0.81175	-0.48652
0.99026	0.30422
0.63323	-0.30797
0.09770	1.75816
-0.46334	0.53379
-0.05531	-3.08831
-1.15188	-4.61878
0.32721	-0.28246
0.58223	2.62542
0.93925	1.98773
-0.38683	1.52859
0.30171	0.83988
0.27621	0.48277
-0.41233	1.06945
-0.38683	-0.28246
-0.00431	-1.09871
-0.28482	-1.25176
1.37278	0.17668
0.83725	0.96742
0.60773	0.58480
0.25071	0.38074
-0.20832	-0.25695
0.35272	0.17668
-0.25932	0.43176
0.09770	3.08456
-0.10631	-1.65988
-0.13181	-0.66508
0.60773	-2.62918
-0.23382	1.24800
-0.20832	1.37554
-0.69285	1.52859
-0.31033	0.83988
0.58223	-0.89465
0.53123	-0.71609
0.48022	-1.09871
0.63323	1.06945
1.06676	-0.74160
1.24527	-0.97117
-0.61635	0.35523
-1.58541	1.35003
-0.66735	1.14597
-0.13181	0.91640
0.91375	1.65613
0.96476	1.63062
0.42922	-1.40480
0.04670	-0.56305
-1.10088	-2.73121
2.03582	0.35523
-1.86593	-1.53234
-1.38139	2.08976
0.78624	1.78367
0.40372	0.50828
1.34728	0.61031
1.90832	0.38074
1.19427	2.24281
-0.20832	-2.39961
-0.48884	-1.04770
-0.97337	-2.75671
-0.66735	1.88570
-0.36133	1.47757
0.35272	1.24800
0.70974	0.73785
0.42922	-0.05289
0.76074	0.15117
-0.41233	1.06945
-0.28482	0.45726
0.14870	-0.46102
0.09770	-0.35899
0.50573	-2.39961
0.70974	-2.06800
0.02119	0.66132
-0.25932	1.37554
-0.00431	2.59991
-0.74385	0.50828
0.63323	2.06425
0.02119	-0.15492
0.60773	-1.17523
0.12320	-0.18043
0.02119	-0.25695
0.48022	-0.58856
0.09770	0.12566
0.14870	-0.56305
-0.76936	0.45726
-0.28482	1.52859
0.70974	0.61031
1.52579	-1.48133
-1.27939	-0.66508
0.48022	0.76336
0.68424	1.57960
1.09226	1.52859
1.34728	2.14077
-0.02981	-1.32828
-1.76392	-2.60367
-1.71292	-2.17003
-0.43783	-0.58856
1.11776	2.16628
0.91375	0.15117
0.91375	1.19699
0.83725	0.89089
-0.18282	-0.07840
-0.56534	0.12566
-0.28482	0.12566
-0.20832	-0.00188
0.83725	-1.27726
0.12320	0.22769
0.22521	0.43176
0.09770	0.91640
0.14870	-0.23145
0.02119	0.04914
0.25071	-2.14453
0.14870	-0.25695
-0.02981	-0.00188
-0.08081	1.78367
-0.00431	1.14597
0.30171	2.95702
0.37822	0.02363
0.25071	-0.84363
0.76074	-0.51203
0.73524	0.38074
0.02119	-0.30797
-0.46334	-0.69059
0.07220	-0.76711
-1.38139	0.30422
-1.02437	1.17148
1.67880	0.91640
1.19427	1.06945
-0.15732	-1.94047
-0.41233	-1.35379
-0.18282	-2.01699
0.91375	0.61031
0.78624	1.50308
0.45472	1.47757
-0.15732	1.27351
1.16877	0.30422
0.58223	0.17668
-0.31033	0.02363
-2.27395	0.04914
-1.33039	-0.41000
-0.48884	-0.00188
0.07220	-0.00188
1.06676	0.07465
1.11776	0.20219
0.07220	-0.66508
-0.89686	-0.25695
0.73524	0.38074
1.11776	0.63582
1.06676	0.04914
0.14870	0.53379
-1.12638	-0.25695
0.68424	0.07465
0.04670	-1.78742
0.37822	0.07465
0.32721	1.60511
0.14870	2.26831
-0.02981	1.19699
-0.46334	0.17668
-0.46334	-1.20074
0.53123	-0.41000
0.45472	-0.10391
0.58223	-0.92016
0.30171	-0.89465
0.40372	-1.02219
0.25071	0.91640
-0.20832	1.52859
-1.55991	0.89089
0.12320	0.12566
0.70974	-0.15492
1.09226	1.93671
0.86275	0.20219
0.45472	-1.48133
-1.35589	-2.83324
0.35272	0.25320
0.50573	0.78886
0.14870	0.99292
0.32721	2.11527
-0.43783	0.83988
-0.79486	-0.15492
-0.05531	-2.52714
0.27621	-0.05289
0.83725	0.63582
1.29628	1.01843
0.65874	0.96742
-1.25389	0.96742
-0.02981	-0.02739
-0.05531	-0.61406
0.60773	-0.43551
0.42922	-0.12942
-0.28482	1.09496
0.40372	-0.35899
0.07220	-0.86914
-0.31033	-0.51203
0.48022	-0.79262
0.53123	1.75816
0.55673	1.32453
0.42922	-0.05289
-0.53984	0.38074
-0.61635	0.99292
-0.00431	-0.66508
0.19971	-0.46102
1.14327	0.55929
-0.76936	0.94191
-0.13181	-1.04770
0.02119	0.12566
0.83725	0.27871
1.67880	-0.94566
0.73524	-0.46102
0.22521	0.86539
-0.15732	1.40105
-1.10088	1.17148
-0.97337	0.43176
-0.02981	0.02363
-0.18282	0.04914
1.37278	-0.12942
0.37822	0.25320
-0.00431	-0.35899
-0.28482	0.91640
0.27621	-0.25695
1.14327	0.50828
-0.23382	-2.90976
-0.36133	-0.66508
-1.27939	0.22769
0.48022	0.94191
1.55129	1.57960
0.45472	1.50308
-0.31033	2.67644
-0.48884	-0.25695
-0.38683	-3.11382
0.45472	-2.45062
0.12320	0.91640
0.42922	1.60511
0.70974	1.29902
0.09770	0.99292
0.60773	0.38074
-0.25932	0.86539
0.19971	-0.66508
0.17421	-0.15492
-0.38683	-2.09351
-0.23382	-0.58856
0.04670	-0.15492
0.17421	1.91120
-0.18282	0.07465
0.14870	-0.53754
0.55673	-0.23145
0.53123	0.83988
0.02119	0.48277
0.35272	0.81437
-0.08081	1.19699
-0.43783	0.40625
-0.15732	-0.86914
1.57679	-2.39961
-0.08081	-0.23145
0.70974	1.50308
-0.97337	0.76336
0.93925	0.55929
0.91375	0.02363
0.88825	0.63582
-0.48884	0.32972
-0.69285	0.63582
-0.38683	0.10015
0.35272	0.48277
1.47479	-1.30277
-0.08081	-0.33348
0.02119	-0.05289
-0.74385	0.10015
-0.87136	0.40625
0.53123	0.91640
0.83725	0.17668
0.45472	-0.20594
0.02119	-2.11902
-0.28482	-0.20594
0.32721	-0.05289
0.25071	1.80917
0.53123	0.61031
0.55673	0.48277
0.27621	0.30422
0.17421	0.73785
-0.64185	0.71234
-0.10631	0.63582
0.22521	0.78886
-0.08081	-1.60887
0.27621	0.30422
0.40372	-0.18043
0.50573	-1.07320
0.17421	-1.43031
0.02119	-0.76711
0.32721	1.68163
0.32721	1.80917
-0.28482	1.09496
-1.76392	0.89089
-1.07538	-0.97117
0.53123	0.32972
1.06676	0.78886
1.55129	-0.69059
1.67880	-0.23145
0.76074	-1.58336
-0.05531	-0.53754
-0.15732	0.45726
-1.30489	1.01843
0.32721	0.86539
0.12320	0.61031
0.42922	0.63582
0.19971	0.81437
-0.53984	-0.46102
-0.51434	0.96742
-0.53984	-1.32828
0.17421	-0.74160
0.65874	-1.96597
1.37278	0.81437
1.01576	1.42656
0.32721	0.63582
0.53123	-0.10391
0.32721	0.53379
-0.18282	-0.76711
0.04670	0.32972
-0.51434	0.66132
-0.46334	1.01843
-0.10631	0.73785
0.45472	0.22769
0.12320	-0.46102
-0.38683	-0.86914
0.04670	-2.42511
0.12320	-0.74160
0.83725	2.08976
0.35272	1.83468
0.81175	1.50308
-0.05531	1.06945
-0.53984	-0.33348
0.76074	-0.63957
-1.12638	-0.89465
0.27621	-0.25695
0.40372	0.66132
1.47479	0.76336
1.65330	1.04394
-0.84586	-0.69059
-1.35589	-1.53234
-0.00431	-0.76711
0.12320	0.04914
0.53123	0.53379
1.01576	0.86539
0.58223	0.43176
-0.08081	1.01843
-0.18282	0.48277
0.14870	0.27871
-0.99887	0.27871
-0.05531	0.22769
0.42922	-0.23145
0.07220	0.32972
-0.56534	-0.30797
-0.31033	-0.25695
0.45472	-0.12942
0.63323	0.04914
0.63323	0.76336
0.45472	0.07465
0.07220	0.38074
-0.82036	-1.04770
0.19971	-0.35899
0.60773	-0.53754
0.96476	1.19699
-0.23382	0.99292
-0.15732	0.30422
-0.28482	0.32972
0.70974	1.27351
0.12320	0.66132
-0.36133	-0.25695
-0.43783	-0.33348
0.78624	-1.35379
0.73524	0.58480
0.02119	-0.10391
1.24527	-0.51203
0.88825	-0.46102
-0.20832	-1.40480
-2.50347	2.49788
0.32721	0.73785
0.35272	1.40105
-1.38139	-1.07320
-0.33583	0.45726
2.54586	0.48277
1.85731	0.15117
1.47479	-0.10391
0.25071	0.25320
-0.76936	0.12566
0.73524	-0.71609
-0.08081	-1.02219
-0.25932	-1.27726
-0.84586	-0.76711
-0.92237	1.06945
-0.33583	1.01843
0.17421	1.93671
0.35272	0.71234
0.25071	0.99292
0.12320	0.48277
0.09770	0.73785
0.83725	0.45726
0.42922	-1.09871
0.93925	-0.53754
0.17421	-0.99668
-1.33039	-1.68539
-0.08081	-0.69059
0.32721	-0.28246
1.21977	1.19699
0.55673	0.50828
-0.66735	1.29902
0.12320	2.03874
1.06676	0.27871
0.58223	0.71234
0.12320	-1.55785
-0.99887	-0.30797
-0.33583	-0.46102
-0.00431	1.37554
0.35272	1.06945
0.32721	0.35523
0.30171	-0.35899
0.40372	1.01843
0.14870	-0.23145
0.14870	-1.27726
-0.59084	-0.76711
-0.56534	-0.25695
0.12320	0.71234
-0.05531	0.89089
-0.25932	0.35523
0.17421	-0.12942
0.55673	0.10015
1.11776	1.42656
1.19427	0.35523
0.88825	0.04914
0.12320	-1.09871
0.40372	1.09496
-0.33583	-1.02219
0.53123	0.91640
-0.23382	-0.46102
-1.40690	0.40625
-0.64185	1.17148
0.02119	0.04914
0.40372	0.89089
0.60773	-0.86914
0.55673	0.71234
0.53123	0.55929
0.58223	-0.30797
0.22521	0.53379
-0.38683	1.57960
-0.97337	-1.25176
-0.79486	-1.12422
0.96476	-1.53234
1.52579	-0.56305
0.83725	0.61031
1.01576	1.37554
-1.99343	0.27871
-1.15188	1.63062
0.76074	-0.81812
-0.48884	-0.48652
1.24527	-1.30277
1.27078	1.24800
0.86275	1.35003
0.09770	1.09496
-0.20832	0.20219
-0.69285	0.40625
-0.38683	-0.12942
0.19971	-0.10391
0.27621	0.10015
0.40372	-0.46102
0.42922	0.15117
-0.74385	-0.15492
-0.61635	-0.38449
-1.10088	-0.02739
0.65874	0.38074
1.29628	0.07465
0.83725	-0.61406
0.73524	-0.02739
0.63323	0.61031
0.07220	2.16628
-0.46334	0.94191
-0.64185	-0.07840
0.02119	-1.20074
0.48022	-0.58856
-0.20832	0.66132
0.25071	-0.81812
0.35272	0.20219
0.50573	-0.10391
0.02119	1.37554
-0.08081	1.32453
-0.10631	0.91640
0.12320	0.66132
0.04670	-0.23145
0.04670	-0.94566
1.14327	-2.39961
0.83725	0.48277
-0.43783	0.48277
-1.04987	0.10015
-1.15188	-0.15492
0.55673	0.02363
0.07220	0.63582
0.12320	1.06945
2.29084	0.83988
1.47479	0.68683
0.22521	0.02363
-0.05531	-0.63957
-0.33583	-0.84363
0.14870	-0.43551
-1.04987	0.10015
-1.68742	0.35523
-0.33583	0.71234
0.42922	0.38074
1.42379	0.02363
0.63323	-0.07840
0.32721	-0.28246
-0.89686	0.61031
0.07220	0.55929
0.83725	0.30422
0.58223	0.07465
0.48022	-0.63957
0.35272	1.63062
0.04670	0.25320
-0.05531	0.12566
-0.00431	1.27351
0.12320	-0.38449
0.07220	-0.53754
-0.84586	-3.24136
0.02119	-0.33348
0.07220	1.78367
0.60773	2.16628
0.63323	1.73265
0.63323	0.17668
0.12320	-0.63957
0.04670	-0.02739
-0.20832	-0.23145
-1.33039	-0.05289
-1.40690	-0.25695
0.93925	-0.86914
1.65330	-0.43551
1.57679	0.83988
1.24527	0.96742
-0.33583	0.07465
-0.31033	0.25320
0.22521	0.68683
0.25071	0.76336
-1.30489	0.61031
-0.20832	-0.76711
0.99026	-1.14973
0.53123	0.02363
-0.36133	0.22769
-0.92237	0.12566
-0.31033	0.81437
1.06676	0.30422
0.83725	0.12566
0.42922	-0.20594
0.42922	1.40105
-0.66735	1.01843
-0.08081	-0.38449
0.55673	-1.17523
0.19971	0.30422
0.32721	-1.55785
0.40372	0.66132
-0.28482	1.14597
0.17421	0.12566
0.07220	0.55929
0.04670	-1.37929
0.19971	0.04914
-0.53984	1.78367
0.09770	1.78367
0.58223	1.27351
0.14870	0.55929
0.48022	-0.61406
0.78624	-0.43551
0.55673	-1.09871
-0.61635	-0.18043
0.02119	0.40625
0.63323	-0.15492
-0.79486	0.15117
-0.10631	0.89089
-0.00431	-0.07840
-0.10631	0.76336
-0.36133	-0.63957
-0.43783	-1.37929
1.50029	-1.25176
0.58223	0.07465
0.86275	1.83468
0.07220	1.63062
1.16877	1.06945
0.88825	0.73785
0.83725	0.27871
-1.38139	-0.23145
-1.73842	-0.74160
-0.79486	0.25320
1.24527	0.22769
-0.02981	-0.00188
0.25071	0.89089
0.25071	-0.71609
0.22521	-0.46102
-0.36133	-0.35899
-0.38683	0.38074
0.78624	1.14597
0.70974	-0.76711
0.45472	0.15117
0.76074	-0.12942
0.60773	0.61031
-0.31033	0.91640
-0.48884	-0.02739
-0.53984	0.02363
-0.00431	1.68163
0.60773	-0.30797
0.73524	0.17668
-0.15732	-1.96597
-0.92237	0.02363
-0.71835	1.47757
0.37822	-0.71609
0.70974	1.22250
0.68424	0.15117
1.14327	-0.15492
0.48022	0.71234
0.55673	-0.05289
-0.74385	-0.02739
-1.27939	0.15117
1.21977	0.15117
0.02119	0.22769
-0.05531	-0.25695
0.37822	-1.07320
0.22521	0.20219
0.17421	0.91640
0.50573	0.78886
-0.25932	-0.46102
0.50573	-0.56305
-0.56534	0.27871
-1.12638	1.19699
0.88825	0.45726
-0.13181	0.02363
0.65874	-0.25695
0.63323	-0.05289
0.65874	0.45726
-0.59084	-0.63957
-0.05531	0.71234
-0.71835	0.78886
0.22521	0.32972
0.78624	0.50828
0.45472	-0.05289
0.45472	1.22250
0.53123	-1.35379
0.60773	-0.79262
0.02119	-0.58856
-0.48884	-0.76711
-0.46334	1.29902
0.25071	0.68683
0.32721	0.32972
0.76074	-0.71609
0.40372	0.45726
-0.28482	0.53379
-1.58541	0.12566
0.04670	0.53379
0.50573	0.99292
0.70974	0.86539
0.50573	0.53379
0.42922	-0.02739
0.19971	-2.34859
0.76074	-1.60887
-0.20832	0.25320
0.83725	0.89089
0.35272	0.94191
-0.41233	0.91640
-0.10631	0.35523
-0.08081	-0.28246
-0.51434	0.30422
0.14870	0.17668
0.60773	0.38074
0.91375	0.55929
0.73524	0.04914
-0.00431	-0.76711
-0.00431	-0.02739
-1.76392	0.55929
-0.00431	-0.25695
0.40372	1.06945
0.81175	-0.25695
0.60773	0.27871
0.40372	0.15117
-0.28482	0.22769
-0.08081	0.10015
-0.02981	0.55929
0.30171	-0.43551
0.42922	-0.66508
0.27621	-0.74160
0.04670	0.66132
0.19971	1.17148
0.32721	0.61031
0.30171	1.06945
-0.28482	0.25320
0.40372	0.48277
0.07220	-1.81293
-0.59084	1.17148
-0.25932	-0.38449
-0.89686	-0.99668
0.99026	0.17668
0.70974	0.55929
0.99026	0.50828
0.96476	0.71234
-0.13181	0.45726
-0.51434	0.30422
0.50573	-0.07840
-0.38683	-0.02739
-0.64185	-0.18043
0.30171	0.55929
0.55673	0.25320
-0.08081	-0.10391
0.25071	-0.61406
-0.00431	-0.02739
0.09770	0.27871
-0.00431	0.71234
-0.38683	0.40625
0.55673	-0.97117
0.42922	-0.12942
0.30171	0.30422
-0.00431	0.96742
0.45472	1.12046
-0.05531	1.40105
0.12320	-1.43031
0.07220	-0.97117
0.12320	-0.23145
-0.13181	0.58480
-0.10631	1.12046
0.73524	1.17148
0.81175	-0.58856
-0.05531	1.19699
-0.89686	-1.27726
-0.56534	-1.58336
0.78624	-1.32828
1.14327	1.09496
0.32721	3.51819
-0.00431	-0.20594
0.14870	-0.43551
-0.76936	-2.73121
0.42922	0.35523
-0.05531	1.22250
0.17421	0.78886
1.21977	1.50308
0.35272	0.78886
-0.38683	-0.02739
0.42922	-0.92016
-0.99887	-1.76191
-0.00431	-0.20594
0.96476	0.86539
1.19427	1.01843
0.42922	0.10015
0.30171	0.02363
-0.13181	0.50828
-0.64185	-0.18043
-1.50890	0.35523
-0.31033	0.07465
0.96476	-0.10391
1.04126	0.15117
0.70974	0.12566
0.12320	0.15117
-0.08081	0.45726
0.30171	0.30422
0.50573	0.58480
0.30171	-1.17523
-0.02981	0.07465
0.04670	-0.46102
-0.20832	0.53379
0.14870	0.15117
0.07220	0.30422
0.09770	0.48277
0.12320	0.99292
0.32721	1.06945
0.04670	0.35523
-0.00431	-1.07320
0.04670	-0.15492
0.50573	-0.00188
0.78624	-0.10391
-0.02981	-0.18043
0.35272	0.12566
-0.53984	0.68683
-1.27939	0.10015
0.60773	1.78367
1.04126	-1.14973
-0.41233	-0.79262
0.48022	-2.29757
0.27621	0.68683
0.45472	1.35003
1.04126	1.93671
0.04670	1.40105
-0.25932	0.20219
-0.05531	-0.41000
1.24527	-0.53754
0.14870	0.17668
0.02119	-0.00188
-0.25932	0.20219
-0.05531	0.32972
-1.10088	0.94191
-1.02437	-1.88945
-0.84586	-0.71609
0.70974	-1.73640
1.16877	1.04394
1.01576	1.78367
0.83725	1.01843
0.50573	0.89089
0.40372	1.06945
0.37822	0.10015
0.12320	-0.48652
-0.31033	-1.91496
-0.23382	-0.48652
-0.20832	-1.45582
-0.10631	1.17148
0.22521	0.76336
0.53123	1.88570
0.45472	0.76336
0.19971	0.45726
1.14327	0.53379
0.09770	1.50308
-1.22839	-0.79262
-1.48340	-3.24136
0.25071	-2.85874
1.19427	-1.78742
0.73524	1.78367
0.81175	1.88570
1.37278	1.88570
1.27078	1.29902
-0.94787	0.63582
-1.12638	0.12566
-1.02437	-0.15492
0.55673	0.27871
0.86275	-0.00188
1.06676	-0.25695
0.42922	-0.23145
0.27621	-0.35899
-0.00431	-0.28246
-0.02981	0.02363
-0.33583	-0.05289
-0.41233	-0.05289
-0.51434	0.45726
-0.33583	0.40625
0.55673	0.99292
0.65874	0.61031
0.25071	0.66132
-0.33583	-0.12942
-0.02981	-0.76711
0.86275	0.35523
1.42379	0.04914
0.19971	0.27871
-0.36133	0.04914
-2.12094	0.10015
0.50573	-0.00188
1.16877	-0.97117
1.11776	-0.20594
1.29628	-0.58856
-0.69285	2.90601
-1.50890	1.35003
0.25071	-0.84363
0.22521	-1.88945
0.65874	0.71234
0.30171	0.91640
0.48022	2.01323
0.63323	-0.10391
0.32721	-0.12942
-0.48884	-2.39961
-0.84586	-0.15492
-2.42696	-0.76711
0.60773	0.91640
1.06676	0.86539
0.86275	0.22769
1.65330	-0.25695
0.73524	0.30422
-0.59084	0.17668
0.99026	0.61031
0.19971	0.20219
-0.99887	0.10015
-0.31033	0.43176
1.50029	-0.07840
-0.25932	0.32972
-0.18282	-0.71609
0.32721	0.30422
0.17421	0.43176
-0.18282	0.32972
-0.99887	0.17668
-0.18282	0.99292
0.60773	0.86539
0.73524	-0.58856
0.22521	-1.25176
0.78624	-1.09871
0.12320	-0.05289
-0.23382	1.17148
0.22521	1.32453
0.53123	0.32972
0.22521	0.53379
0.68424	1.09496
-0.02981	1.45206
-0.25932	-0.97117
0.02119	-1.55785
0.12320	-0.63957
-0.15732	-1.04770
0.14870	0.68683
0.55673	1.75816
-0.51434	0.63582
-0.71835	-0.05289
0.37822	0.04914
0.04670	-0.15492
0.93925	0.48277
1.01576	0.27871
-0.25932	-0.12942
-0.43783	0.63582
0.32721	-0.20594
-0.28482	-0.63957
-1.68742	-0.33348
1.32178	0.53379
1.78081	0.91640
0.96476	0.40625
0.81175	0.04914
0.68424	0.07465
-0.48884	0.71234
-0.59084	0.02363
-0.08081	-0.02739
0.14870	-0.63957
-0.36133	-0.58856
-0.53984	0.02363
-0.66735	0.43176
-0.61635	0.50828
0.58223	0.38074
0.63323	0.32972
0.42922	0.50828
0.53123	-0.02739
0.99026	0.43176
-0.05531	-0.05289
0.48022	0.58480
0.14870	1.47757
-0.10631	-1.43031
-0.56534	-0.48652
0.22521	-0.94566
0.07220	-0.35899
0.25071	-0.81812
0.45472	0.61031
0.22521	1.04394
0.19971	1.88570
-0.02981	-0.20594
0.22521	1.09496
0.35272	-1.22625
0.48022	0.15117
-0.08081	0.86539
-0.41233	0.17668
-0.87136	0.45726
-1.25389	-0.71609
0.42922	0.12566
1.85731	-0.69059
0.93925	-0.33348
0.83725	0.15117
-0.56534	0.38074
-0.20832	0.22769
0.22521	0.71234
-0.59084	0.30422
0.73524	0.07465
1.44929	0.32972
-0.18282	0.04914
0.37822	0.04914
0.17421	0.10015
0.22521	-0.00188
-0.82036	0.43176
-0.99887	0.32972
0.68424	-0.66508
1.09226	-0.38449
-0.25932	-0.05289
0.09770	1.40105
0.14870	0.27871
-0.08081	-0.10391
-1.10088	0.22769
0.68424	0.73785
1.11776	0.04914
0.25071	-0.25695
0.53123	-1.20074
0.32721	0.53379
0.22521	1.22250
0.04670	-0.30797
0.02119	0.07465
0.17421	0.40625
0.19971	-0.23145
-0.05531	0.43176
0.09770	0.04914
0.42922	-0.35899
0.07220	0.22769
-0.02981	-0.86914
-1.10088	0.89089
-0.48884	1.24800
1.06676	0.43176
0.60773	-0.07840
-0.00431	-0.10391
0.45472	2.19179
0.68424	0.45726
0.86275	-0.12942
0.53123	-1.04770
-0.02981	-2.93527
-0.43783	-0.25695
0.04670	0.86539
-0.28482	1.17148
-0.18282	0.73785
-0.69285	0.53379
-0.31033	0.25320
0.91375	0.27871
0.70974	0.15117
0.65874	0.02363
1.09226	0.15117
-0.84586	-0.05289
-0.74385	0.15117
-0.00431	-0.00188
0.09770	-0.07840
0.12320	0.17668
0.07220	0.48277
0.60773	0.32972
1.52579	0.22769
0.04670	0.32972
-0.15732	-0.00188
-0.02981	0.30422
-0.00431	0.38074
-0.00431	0.04914
-0.20832	-0.63957
0.40372	0.04914
0.53123	-0.38449
-0.08081	-0.56305
-0.15732	0.12566
0.60773	1.68163
0.22521	1.32453
-0.28482	0.66132
-0.18282	-0.00188
0.27621	0.04914
0.55673	-0.23145
0.96476	-0.43551
-0.20832	-0.12942
-0.43783	-0.33348
0.27621	1.14597
-0.18282	0.66132
0.65874	-0.41000
0.58223	-0.35899
-0.18282	-1.04770
0.40372	0.40625
-0.82036	0.78886
-0.33583	-0.05289
0.70974	0.10015
0.81175	0.76336
0.48022	0.61031
0.68424	0.12566
0.02119	0.20219
-0.25932	-0.10391
-0.08081	-0.02739
-0.41233	-0.05289
-0.28482	0.12566
0.60773	0.10015
-0.02981	-0.05289
-0.38683	-0.15492
0.60773	0.43176
0.48022	0.20219
0.53123	0.66132
0.17421	0.45726
0.09770	0.17668
0.02119	-0.51203
0.53123	-0.41000
0.07220	0.96742
-0.38683	-1.27726
-0.33583	-0.15492
0.81175	0.76336
0.37822	0.04914
0.02119	1.06945
0.42922	0.25320
0.09770	0.81437
-0.38683	-0.48652
-0.51434	-0.20594
-0.10631	0.20219
0.37822	0.76336
0.81175	-0.12942
0.99026	0.12566
0.76074	-1.02219
-0.08081	-0.05289
-0.23382	0.35523
-0.64185	0.63582
0.45472	0.58480
0.40372	-0.00188
0.55673	-0.76711
-0.48884	-0.12942
-0.56534	0.32972
-0.69285	1.01843
0.63323	0.43176
0.53123	0.35523
-0.15732	-0.86914
-0.28482	0.25320
0.32721	0.43176
0.50573	0.48277
0.83725	0.10015
0.37822	0.04914
0.22521	-0.05289
0.22521	0.25320
0.58223	-0.25695
-0.41233	0.35523
-0.33583	0.35523
0.17421	-0.97117
-0.31033	-1.22625
0.09770	-0.51203
0.40372	1.55410
0.02119	0.71234
0.45472	0.58480
0.22521	0.81437
0.02119	1.22250
0.27621	0.38074
0.22521	-0.07840
0.17421	-0.43551
0.70974	-0.38449
0.02119	-0.53754
-0.46334	-0.10391
-0.41233	-0.05289
-0.59084	0.76336
-0.10631	0.35523
0.68424	0.35523
0.78624	-1.12422
1.06676	-0.79262
0.76074	-0.15492
0.68424	0.61031
-0.33583	1.27351
-1.84042	1.01843
-1.17738	0.71234
1.34728	-0.10391
1.65330	0.17668
0.04670	0.38074
0.09770	0.12566
-0.33583	-0.41000
-0.28482	0.22769
-0.00431	-1.99148
-0.28482	-0.66508
0.81175	0.81437
0.73524	0.81437
0.30171	1.17148
0.09770	0.58480
-0.23382	-0.10391
0.22521	0.10015
0.07220	0.68683
-0.59084	0.25320
-0.13181	0.15117
0.50573	-0.48652
0.73524	-0.81812
-0.15732	-0.76711
-0.76936	-0.23145
0.76074	0.30422
0.68424	1.45206
0.32721	1.24800
0.45472	0.02363
0.50573	0.25320
0.25071	-0.18043
-0.00431	-0.02739
-0.20832	0.35523
0.48022	-0.92016
0.02119	-0.35899
-0.25932	-0.71609
-1.10088	0.30422
-0.53984	0.07465
0.60773	1.40105
1.14327	2.06425
-0.28482	0.45726
0.22521	-0.05289
0.65874	-0.89465
-0.25932	0.76336
0.19971	0.35523
0.42922	0.22769
0.27621	-0.05289
0.70974	-0.30797
0.73524	-0.35899
0.04670	0.10015
-0.43783	0.04914
-0.05531	0.22769
0.04670	-0.58856
-0.28482	-0.18043
1.37278	-0.35899
-0.46334	-0.33348
-1.43240	0.04914
-0.59084	0.32972
1.14327	1.68163
1.06676	1.06945
0.86275	0.61031
0.76074	0.43176
-0.36133	0.10015
-0.08081	0.04914
0.14870	0.55929
-0.05531	-0.41000
-0.15732	-1.04770
0.04670	-0.48652
0.35272	-0.86914
0.12320	0.63582
-0.61635	0.02363
0.30171	0.22769
0.35272	0.35523
0.04670	0.89089
0.35272	0.78886
0.07220	0.91640
0.25071	0.30422
0.60773	-0.10391
-0.23382	0.22769
-0.33583	-0.63957
-0.28482	-0.23145
1.19427	-0.71609
-0.02981	0.32972
-0.10631	0.32972
0.19971	0.38074
0.76074	-0.18043
-0.08081	0.30422
0.14870	0.68683
-0.02981	0.58480
0.32721	0.04914
0.37822	0.12566
0.35272	-0.05289
-0.41233	0.25320
-0.94787	0.04914
0.45472	-0.66508
1.21977	-0.48652
0.70974	0.55929
-1.17738	0.50828
-1.71292	0.40625
0.53123	1.37554
1.29628	-0.10391
0.83725	-0.74160
-0.05531	-1.02219
0.55673	-0.20594
0.32721	0.55929
0.50573	0.96742
-0.08081	0.66132
0.02119	0.15117
0.17421	-0.56305
-0.15732	-0.20594
0.07220	0.61031
-0.18282	0.22769
-0.02981	-1.22625
0.37822	0.73785
-0.10631	0.48277
0.55673	0.76336
0.07220	0.96742
-0.48884	-0.25695
0.50573	-0.97117
0.53123	-0.23145
-0.08081	0.25320
0.50573	-0.30797
0.32721	-0.43551
0.25071	0.15117
-0.38683	0.66132
1.24527	0.76336
0.48022	0.66132
0.09770	0.81437
0.53123	0.78886
-0.20832	-1.07320
-0.31033	-1.45582
-0.74385	-0.71609
0.48022	0.66132
0.25071	0.81437
-0.02981	0.76336
-0.05531	-0.18043
-0.00431	0.10015
0.22521	0.63582
0.12320	0.27871
0.48022	-0.25695
0.40372	0.12566
0.40372	-0.76711
0.02119	-0.05289
-0.48884	-0.23145
-0.59084	-0.10391
-0.13181	0.86539
0.63323	0.15117
0.73524	1.04394
0.50573	0.48277
0.27621	0.86539
0.58223	-0.48652
0.22521	-0.12942
-0.18282	-0.07840
-0.08081	-0.38449
-0.36133	-0.20594
-0.48884	0.15117
-0.28482	0.48277
1.32178	0.63582
0.58223	0.53379
-0.99887	0.27871
-1.22839	-0.23145
0.30171	-0.00188
1.32178	-0.20594
0.70974	0.94191
0.37822	-0.38449
0.12320	-0.25695
-0.28482	0.76336
1.06676	-0.18043
0.53123	0.10015
0.02119	-0.28246
-0.79486	-0.86914
-0.51434	-0.58856
0.91375	0.78886
0.48022	1.63062
-0.87136	0.58480
0.53123	0.40625
-0.10631	0.53379
0.09770	0.35523
0.53123	0.63582
0.22521	-1.12422
0.37822	-0.92016
-0.23382	-0.56305
0.07220	1.09496
0.32721	0.04914
-0.05531	-0.63957
-0.28482	-0.30797
-0.02981	0.50828
0.48022	0.55929
0.93925	1.57960
0.73524	0.76336
-0.25932	-0.12942
-0.74385	-0.71609
-0.41233	-0.30797
-0.15732	0.32972
-0.20832	0.07465
1.60230	0.04914
0.88825	0.71234
0.99026	-0.10391
-0.66735	-0.25695
-0.02981	-0.51203
-0.20832	-0.10391
-0.10631	1.52859
0.35272	0.10015
0.50573	-0.10391
-0.33583	-1.48133
0.73524	0.48277
0.70974	0.61031
-0.51434	0.91640
-1.12638	0.25320
-0.05531	0.30422
0.22521	0.45726
0.32721	0.30422
0.17421	-0.25695
0.35272	-0.05289
0.22521	0.25320
0.86275	0.25320
-0.08081	0.04914
0.14870	-1.53234
-0.33583	-0.18043
0.58223	0.20219
-0.00431	0.53379
0.76074	1.04394
0.19971	1.09496
0.35272	-0.15492
0.09770	-0.05289
-0.10631	0.20219
-0.61635	0.63582
-0.43783	-0.35899
0.40372	0.25320
0.78624	0.20219
-0.08081	0.43176
0.19971	-1.09871
0.14870	-0.41000
0.22521	-0.63957
-0.23382	0.89089
0.45472	1.19699
0.09770	0.68683
0.88825	0.45726
-0.33583	0.12566
-0.48884	-0.05289
0.63323	0.86539
0.07220	-0.74160
0.50573	-1.02219
1.21977	-1.27726
0.32721	0.63582
-0.71835	0.81437
0.42922	0.83988
-0.00431	0.43176
-0.31033	0.94191
0.09770	0.02363
0.30171	-0.18043
-0.20832	-0.15492
0.53123	0.17668
0.58223	0.02363
-0.23382	-0.28246
-0.48884	0.15117
0.02119	-0.00188
0.91375	-0.02739
0.14870	0.68683
-0.08081	-0.05289
-0.61635	-0.25695
-0.05531	-0.02739
0.81175	0.73785
-0.33583	0.10015
0.53123	0.17668
0.73524	0.10015
0.76074	0.58480
0.70974	-0.05289
0.19971	0.25320
-0.31033	0.55929
-0.20832	0.78886
0.12320	0.12566
-0.25932	0.04914
-0.28482	-0.89465
0.09770	-1.50683
-0.87136	-0.81812
-0.10631	1.12046
1.06676	1.35003
0.65874	1.14597
0.09770	-0.66508
-0.20832	-0.76711
0.27621	0.04914
0.14870	0.68683
0.55673	0.86539
0.14870	0.15117
-0.10631	-0.05289
-0.15732	0.10015
-0.41233	0.32972
0.70974	0.50828
-0.08081	0.15117
0.53123	0.35523
0.81175	0.30422
-0.23382	-1.14973
0.35272	-0.56305
0.09770	0.10015
0.19971	0.76336
-0.41233	0.55929
-0.23382	0.48277
0.32721	0.55929
0.68424	0.27871
0.37822	-0.18043
-0.82036	0.35523
-0.48884	-0.12942
0.12320	0.15117
0.50573	-1.48133
0.91375	-0.38449
0.65874	0.63582
0.50573	0.53379
-0.25932	0.66132
-0.00431	0.02363
-0.15732	0.58480
0.42922	1.35003
0.50573	1.37554
-0.28482	1.55410
-0.28482	-1.37929
-0.41233	-1.35379
0.68424	-0.97117
0.73524	0.30422
0.12320	0.35523
0.55673	0.15117
0.50573	0.10015
0.04670	0.25320
-0.20832	0.12566
-0.53984	0.61031
-0.33583	0.15117
-0.10631	0.61031
0.30171	0.55929
0.68424	-0.05289
1.19427	-0.33348
0.42922	0.48277
-0.13181	-0.07840
0.17421	-0.10391
0.48022	0.63582
0.45472	-0.23145
-1.45790	0.04914
-0.99887	0.32972
-0.05531	0.48277
0.76074	-0.05289
1.01576	0.07465
0.55673	-0.07840
-0.08081	0.61031
-0.18282	-0.76711
-0.02981	-0.07840
0.25071	0.02363
-0.82036	0.99292
0.50573	0.12566
0.42922	0.17668
0.14870	0.22769
0.83725	1.06945
0.42922	1.40105
0.55673	-1.32828
0.42922	-0.53754
-0.25932	-0.76711
-0.33583	0.68683
0.17421	0.30422
0.17421	0.55929
0.12320	-0.15492
-0.89686	0.55929
0.60773	0.55929
-0.25932	-0.18043
-0.23382	0.15117
-0.10631	0.30422
0.19971	0.30422
1.01576	0.22769
0.88825	0.35523
0.53123	-0.18043
-0.71835	-0.43551
0.60773	-0.89465
-0.99887	0.32972
-0.74385	0.45726
0.27621	0.48277
1.60230	0.99292
0.99026	0.55929
0.53123	-0.05289
-0.25932	-0.53754
-0.48884	-0.43551
0.07220	0.45726
0.30171	0.32972
0.22521	0.15117
-0.13181	0.04914
-0.13181	0.38074
-0.25932	0.22769
0.19971	0.20219
-0.28482	0.35523
0.32721	0.22769
1.14327	0.45726
0.53123	-0.07840
-0.28482	-0.51203
-0.31033	-0.84363
-0.13181	0.53379
0.14870	0.61031
0.07220	-0.02739
0.14870	-0.07840
0.93925	2.08976
-0.36133	-0.79262
0.27621	-0.18043
0.04670	-0.79262
0.19971	0.55929
0.25071	0.71234
0.27621	0.32972
1.01576	0.86539
-0.13181	0.17668
-0.31033	1.09496
-0.15732	-0.05289
0.09770	-0.35899
0.40372	-1.48133
-0.00431	0.12566
-0.31033	-0.10391
0.04670	0.91640
-0.08081	0.40625
0.14870	0.15117
0.22521	-0.05289
0.02119	0.45726
0.53123	0.53379
0.32721	-0.18043
-0.31033	-0.23145
0.32721	-0.10391
0.93925	0.35523
0.45472	0.55929
-0.76936	-0.12942
-0.23382	0.02363
1.75531	0.22769
-0.38683	0.20219
0.14870	0.58480
-0.10631	-0.15492
0.07220	0.15117
0.09770	-0.18043
0.27621	0.17668
0.12320	0.32972
0.07220	0.45726
-0.33583	0.25320
-0.00431	0.61031
0.93925	-0.18043
-0.38683	-0.41000
0.09770	0.38074
0.09770	-0.48652
-0.18282	0.07465
-0.28482	-0.51203
0.86275	0.61031
0.58223	0.40625
0.73524	0.99292
0.17421	-0.38449
-0.82036	-0.38449
-0.23382	0.30422
-0.28482	0.63582
0.30171	0.63582
0.91375	0.50828
0.53123	0.04914
0.27621	-0.25695
0.45472	0.04914
0.14870	-1.02219
-0.64185	-1.48133
0.55673	0.17668
-0.99887	0.61031
-0.79486	1.14597
0.32721	1.04394
1.04126	0.76336
0.48022	0.53379
0.14870	0.66132
0.83725	0.32972
-0.08081	-0.81812
-0.08081	-0.46102
-0.05531	-0.05289
0.22521	0.12566
0.53123	-0.10391
-0.66735	0.04914
-0.10631	0.10015
0.09770	0.04914
0.78624	0.20219
0.40372	0.22769
-0.05531	0.71234
-0.05531	0.61031
0.63323	0.30422
0.27621	-0.25695
-0.53984	-1.02219
-1.17738	-0.46102
0.37822	0.73785
0.55673	1.04394
0.40372	0.96742
0.53123	0.50828
0.60773	0.30422
0.42922	0.10015
-0.51434	0.02363
-0.05531	-0.38449
0.45472	-0.43551
0.27621	-0.23145
0.30171	0.83988
0.14870	0.76336
0.19971	-0.35899
-0.08081	-0.33348
-0.31033	-0.71609
-0.31033	0.27871
0.22521	0.55929
-0.02981	0.32972
0.50573	0.25320
0.99026	0.15117
0.14870	0.63582
-1.50890	-0.28246
0.93925	0.04914
0.73524	1.32453
-0.00431	0.61031
0.73524	-0.56305
0.32721	-0.20594
0.02119	-0.20594
0.04670	0.10015
-0.31033	0.27871
0.12320	0.68683
-0.36133	0.22769
-0.82036	0.22769
0.19971	0.15117
1.32178	-0.23145
0.27621	0.32972
-0.38683	0.25320
-0.20832	-0.30797
0.12320	-0.71609
0.27621	0.17668
0.65874	0.50828
0.60773	0.48277
0.45472	0.68683
0.60773	0.50828
0.30171	0.12566
-0.08081	0.22769
-0.13181	0.35523
-0.13181	0.07465
-0.00431	0.12566
-0.28482	-0.38449
0.07220	0.02363
0.02119	-0.33348
0.19971	0.38074
0.12320	-0.38449
0.27621	0.91640
-0.20832	1.01843
0.25071	-0.35899
0.04670	-0.81812
-0.33583	-2.06800
-0.89686	0.83988
0.96476	0.78886
0.99026	1.12046
0.53123	1.29902
0.88825	0.30422
0.27621	0.15117
-0.51434	-0.18043
0.14870	0.20219
0.22521	0.04914
0.32721	0.68683
0.30171	-0.58856
0.42922	0.07465
-0.64185	0.53379
-0.33583	-1.48133
-0.53984	-0.46102
-0.20832	-0.38449
0.40372	1.29902
-0.25932	-0.56305
-0.69285	-0.43551
0.48022	0.73785
1.09226	1.45206
1.01576	1.57960
0.63323	1.09496
0.45472	0.22769
0.19971	-0.10391
0.02119	-0.30797
0.22521	-0.33348
-0.23382	-0.30797
0.02119	-0.07840
-0.10631	0.30422
0.07220	-0.46102
0.09770	0.43176
0.35272	-0.02739
0.22521	0.25320
-0.43783	-0.58856
-0.25932	0.35523
0.48022	-0.12942
-0.53984	1.45206
0.27621	0.25320
0.07220	-0.07840
-0.36133	-0.23145
0.04670	-0.07840
1.16877	0.94191
0.76074	0.45726
0.99026	0.38074
0.88825	0.10015
0.42922	0.17668
-0.13181	0.27871
-0.10631	-0.12942
-0.43783	-0.30797
-0.38683	-0.10391
-0.28482	-0.69059
-0.10631	0.55929
0.12320	-0.53754
-0.28482	0.58480
-0.28482	0.43176
0.04670	-0.30797
1.01576	0.32972
0.45472	0.53379
-0.43783	0.04914
0.14870	0.38074
-0.64185	0.50828
-0.10631	0.45726
0.86275	0.12566
1.37278	-0.12942
1.75531	-0.35899
0.37822	0.76336
-0.33583	0.53379
-0.59084	-0.05289
0.30171	0.61031
-0.08081	-0.25695
-0.18282	-0.43551
-0.36133	-0.15492
0.02119	-0.12942
0.37822	0.30422
0.17421	-0.38449
-0.28482	-0.38449
-0.23382	-0.05289
-0.25932	0.50828
0.73524	0.76336
0.12320	0.73785
0.04670	0.76336
0.60773	0.35523
0.63323	-0.00188
-0.08081	0.10015
-0.33583	0.61031
-0.69285	0.20219
0.25071	-0.53754
0.78624	-0.86914
0.63323	-0.35899
0.40372	0.22769
0.53123	0.40625
0.07220	0.43176
-0.08081	0.89089
-0.20832	-0.05289
-0.28482	0.32972
0.25071	-0.10391
0.12320	0.32972
-0.28482	0.83988
0.32721	0.58480
-0.02981	-0.05289
0.19971	-1.20074
0.32721	-1.48133
0.53123	0.45726
-0.08081	0.20219
0.14870	0.04914
0.27621	0.20219
-0.18282	0.86539
-0.38683	1.45206
0.96476	1.29902
1.01576	0.38074
0.02119	0.86539
0.02119	-0.05289
0.22521	0.02363
-0.02981	-1.76191
0.19971	-0.94566
0.12320	-0.48652
-0.43783	0.22769
0.65874	0.45726
0.17421	0.89089
-0.28482	0.12566
-0.43783	0.81437
-0.76936	0.20219
0.55673	-0.43551
1.01576	-0.18043
0.78624	0.15117
0.30171	0.76336
-0.74385	0.96742
0.04670	-0.46102
0.42922	-0.30797
0.48022	0.15117
-0.38683	0.07465
-0.18282	0.25320
0.27621	0.43176
0.02119	-0.05289
0.86275	0.30422
0.30171	0.27871
0.19971	0.07465
0.19971	0.99292
0.07220	-0.61406
0.48022	0.35523
0.45472	-1.07320
-0.36133	-0.05289
-0.28482	0.76336
-0.69285	0.66132
-0.02981	0.91640
-1.04987	-0.23145
1.60230	-0.18043
0.78624	-0.97117
0.53123	-0.35899
0.70974	0.99292
0.19971	1.12046
0.40372	0.53379
-0.64185	-0.18043
-0.48884	-0.23145
0.09770	0.20219
0.58223	0.04914
0.30171	-0.00188
0.30171	-0.18043
-0.25932	0.25320
-0.08081	-0.18043
0.22521	-0.12942
0.35272	0.45726
-0.25932	0.86539
0.22521	0.25320
0.19971	0.66132
-0.28482	-0.71609
-0.05531	-0.28246
0.60773	-0.41000
0.07220	0.55929
0.07220	0.53379
0.17421	1.06945
0.58223	0.86539
-0.00431	-0.53754
0.12320	-0.48652
0.19971	-0.56305
0.17421	-0.10391
0.19971	0.25320
0.25071	0.25320
0.53123	0.45726
0.17421	1.24800
0.07220	0.63582
-0.89686	0.86539
-0.64185	-0.48652
-0.61635	-1.04770
-1.10088	-0.66508
0.78624	-0.05289
1.47479	0.94191
1.14327	0.32972
1.44929	0.12566
0.78624	0.15117
-0.08081	0.07465
-0.31033	0.22769
-0.53984	0.10015
0.17421	0.61031
0.14870	0.04914
-0.05531	0.04914
-0.59084	-0.35899
0.65874	-0.25695
0.50573	0.15117
-0.41233	0.07465
0.30171	-0.00188
-0.43783	-0.00188
-0.59084	0.45726
0.83725	0.83988
0.42922	0.94191
0.02119	-0.23145
0.12320	0.20219
0.40372	-0.25695
0.58223	0.35523
0.12320	0.04914
0.32721	0.04914
0.27621	-0.35899
-0.00431	-0.20594
0.30171	0.35523
0.22521	-0.00188
-0.00431	0.83988
-0.20832	0.96742
-0.41233	0.32972
0.22521	-0.89465
-0.05531	-0.56305
-0.05531	0.66132
0.30171	0.89089
0.48022	0.78886
0.53123	0.15117
-0.23382	-0.12942
0.19971	-0.61406
-0.41233	-0.74160
0.02119	0.50828
-0.00431	-0.38449
0.96476	-0.20594
1.29628	0.61031
-0.79486	0.68683
-0.87136	0.38074
0.58223	0.04914
0.81175	0.25320
0.96476	0.66132
1.27078	0.94191
0.09770	-0.28246
-1.04987	-0.43551
-0.79486	-0.12942
-0.18282	-0.20594
0.50573	0.17668
1.24527	0.17668
0.14870	0.15117
-0.69285	0.55929
-0.69285	0.27871
-0.00431	-0.00188
0.12320	-0.02739
0.50573	-0.30797
0.35272	-0.30797
0.65874	0.43176
0.70974	0.76336
0.17421	0.73785
0.22521	-0.12942
0.25071	-0.43551
-0.13181	0.66132
-0.61635	-0.38449
0.40372	0.38074
0.50573	0.35523
-0.36133	0.20219
-0.10631	0.04914
0.27621	0.22769
-0.08081	0.02363
0.65874	0.22769
0.99026	0.04914
-0.64185	-0.97117
0.12320	-0.10391
0.19971	-0.00188
-0.61635	0.89089
0.02119	0.50828
-0.10631	0.89089
0.17421	0.04914
0.50573	0.04914
0.68424	0.45726
0.70974	0.22769
0.73524	-0.23145
0.42922	-0.48652
-0.51434	-0.07840
-1.63641	0.58480
-0.43783	-0.48652
0.68424	0.02363
0.78624	-0.20594
0.04670	0.53379
0.42922	0.45726
0.09770	0.50828
0.35272	0.30422
0.68424	0.38074
-0.28482	0.07465
0.12320	0.15117
-0.02981	-0.07840
-0.10631	-0.28246
0.04670	0.43176
-0.00431	-0.18043
0.14870	0.15117
1.29628	0.12566
0.42922	0.22769
0.02119	0.66132
0.04670	0.63582
-0.38683	-0.53754
0.07220	-0.41000
-0.46334	-0.18043
-0.53984	1.12046
0.42922	-0.02739
0.55673	-0.38449
0.27621	0.32972
0.37822	0.45726
0.88825	0.02363
0.58223	-0.12942
-0.05531	-0.12942
0.65874	0.76336
-0.08081	0.17668
-0.46334	0.25320
-0.74385	0.50828
0.40372	0.04914
0.04670	-0.30797
0.22521	0.02363
0.19971	0.58480
0.02119	-0.15492
0.76074	-0.07840
0.86275	-0.48652
0.45472	0.48277
-0.02981	0.66132
-0.31033	0.71234
-0.69285	-0.00188
-0.38683	-0.15492
0.48022	-0.25695
0.35272	-0.48652
0.40372	0.17668
-0.13181	0.04914
-0.18282	0.48277
0.48022	0.27871
0.96476	0.35523
0.78624	0.66132
-0.02981	0.32972
-0.18282	-0.05289
-0.31033	-0.02739
0.32721	0.10015
-0.31033	0.66132
0.12320	0.17668
-0.48884	-0.07840
0.35272	-0.81812
0.83725	-0.69059
0.37822	0.55929
0.25071	0.81437
-0.08081	0.40625
-0.25932	-0.02739
0.30171	0.20219
0.27621	0.30422
-0.10631	0.71234
0.02119	0.81437
0.22521	0.15117
0.12320	0.04914
0.35272	-0.51203
-0.23382	-0.38449
-0.31033	-0.10391
0.48022	0.71234
-0.00431	0.22769
0.27621	-0.02739
1.19427	-0.33348
-0.02981	0.38074
-0.69285	0.17668
-0.15732	0.48277
0.35272	-0.86914
-0.05531	0.76336
0.30171	0.07465
0.50573	0.32972
0.02119	0.61031
0.02119	0.15117
-0.10631	0.76336
-0.15732	0.45726
0.27621	0.71234
-0.20832	-0.23145
0.63323	-0.84363
0.65874	-0.58856
0.35272	0.66132
0.19971	0.35523
0.09770	0.10015
0.55673	-0.07840
0.17421	0.04914
-1.07538	-0.43551
-1.27939	0.38074
0.32721	0.73785
0.73524	0.63582
0.88825	0.07465
0.60773	-0.02739
0.09770	0.17668
-0.02981	0.48277
0.14870	0.17668
0.14870	-0.23145
0.25071	-0.46102
0.09770	0.30422
-0.10631	-0.46102
0.02119	0.38074
0.40372	0.35523
-0.00431	0.86539
0.07220	0.12566
-0.02981	0.76336
0.09770	-0.51203
0.02119	-0.00188
0.17421	-0.05289
0.14870	0.17668
-0.00431	0.15117
0.02119	-0.43551
0.81175	0.45726
-0.00431	0.99292
0.55673	0.50828
0.42922	-0.10391
0.32721	-0.33348
0.60773	0.76336
-0.82036	-0.00188
-0.43783	-0.12942
0.60773	-1.63437
0.40372	-0.07840
0.22521	-0.25695
0.07220	0.76336
0.25071	1.09496
-0.43783	0.83988
-0.33583	0.53379
0.04670	0.22769
0.35272	0.07465
-0.05531	0.15117
0.19971	0.02363
0.09770	0.02363
0.83725	-0.23145
0.53123	0.04914
-0.08081	-0.07840
0.02119	0.04914
0.22521	0.22769
0.14870	0.04914
-0.13181	-0.18043
0.04670	0.07465
0.12320	0.53379
0.09770	0.66132
0.02119	0.25320
0.37822	0.30422
0.09770	0.20219
-0.38683	-0.07840
0.48022	-0.48652
0.19971	-0.63957
0.14870	0.25320
-0.23382	0.15117
0.88825	0.94191
0.25071	0.81437
-1.20288	0.78886
0.96476	-0.30797
1.52579	-0.61406
-0.51434	-0.79262
0.09770	0.40625
0.93925	0.48277
-0.41233	0.04914
-0.84586	0.66132
-1.27939	0.30422
1.09226	0.30422
1.04126	1.06945
0.63323	-0.35899
0.60773	-0.61406
0.83725	-0.74160
-0.31033	0.32972
-0.66735	0.43176
-0.43783	0.40625
0.12320	0.35523
-0.13181	0.30422
-0.02981	0.25320
0.78624	0.25320
-0.43783	-0.12942
-0.00431	0.10015
0.35272	-0.48652
0.48022	0.61031
0.35272	0.30422
0.27621	-0.33348
0.50573	0.35523
0.22521	0.58480
0.55673	0.40625
-0.56534	0.32972
-0.46334	-0.41000
-0.10631	-0.56305
0.42922	-0.18043
0.30171	0.32972
0.65874	1.19699
0.27621	0.10015
-0.15732	0.25320
0.86275	0.32972
0.65874	-0.10391
-0.25932	-0.00188
-0.56534	-0.56305
-0.84586	0.35523
0.17421	0.43176
0.78624	-0.05289
0.83725	-0.20594
0.27621	0.38074
0.22521	0.58480
-0.61635	0.43176
-0.18282	0.43176
0.65874	-0.05289
0.12320	-0.07840
0.19971	0.10015
-0.33583	-0.05289
-0.48884	-0.30797
1.06676	-0.18043
1.44929	0.53379
-0.59084	0.55929
-1.02437	0.40625
-0.15732	0.30422
0.48022	-0.41000
-0.36133	0.10015
0.37822	-0.48652
0.76074	-0.00188
0.53123	0.30422
0.07220	0.53379
0.14870	0.20219
0.60773	0.50828
-0.25932	0.58480
-0.10631	0.10015
0.09770	0.10015
0.12320	0.35523
-0.02981	0.32972
0.37822	-1.60887
0.60773	0.32972
-0.31033	-0.35899
-0.33583	0.15117
0.04670	0.25320
-0.02981	0.32972
0.30171	0.86539
-0.41233	0.55929
1.14327	0.68683
1.11776	0.81437
0.78624	0.32972
-0.87136	0.25320
-0.08081	-1.35379
0.09770	-0.99668
-0.02981	-0.69059
0.25071	0.15117
-0.25932	0.73785
0.88825	0.91640
0.37822	0.55929
-0.56534	0.20219
-0.10631	-0.20594
-0.05531	-0.05289
0.19971	0.12566
0.42922	0.38074
0.32721	0.38074
0.32721	0.38074
0.53123	0.12566
0.07220	0.63582
-0.43783	-0.12942
-0.20832	-0.18043
-0.28482	-0.46102
-0.99887	0.35523
1.16877	0.12566
1.06676	-0.18043
0.55673	0.20219
0.22521	0.40625
0.09770	0.07465
0.12320	0.71234
0.04670	0.50828
0.12320	0.27871
0.12320	-0.46102
0.19971	-0.28246
0.19971	-0.07840
-0.08081	0.76336
-0.20832	0.45726
0.09770	-0.02739
-0.10631	-0.07840
0.17421	0.04914
0.27621	-0.33348
0.45472	0.30422
-0.66735	0.50828
0.12320	-0.05289
0.48022	-0.28246
1.37278	-1.04770
-0.51434	0.81437
0.22521	1.01843
0.63323	0.94191
0.63323	0.45726
-0.33583	0.35523
-0.31033	0.30422
-0.53984	-0.25695
0.22521	0.35523
0.93925	0.02363
-0.31033	-0.58856
-0.20832	-0.38449
0.53123	-0.30797
0.04670	0.22769
0.12320	-0.35899
0.19971	-0.23145
-0.18282	0.35523
-0.51434	0.53379
1.44929	0.94191
-0.79486	0.15117
-0.89686	-0.00188
-0.31033	0.50828
0.73524	0.55929
0.81175	0.40625
0.86275	-0.23145
0.14870	-0.05289
0.19971	-0.00188
0.32721	0.15117
0.04670	1.19699
-0.08081	-0.71609
0.45472	-1.07320
-0.00431	-0.71609
0.12320	0.61031
-0.15732	1.12046
-0.33583	0.35523
0.19971	-0.07840
0.14870	0.25320
0.17421	0.61031
-0.05531	0.45726
0.04670	-0.41000
0.32721	-0.56305
0.22521	-0.56305
0.37822	0.50828
0.19971	0.38074
0.04670	0.45726
0.93925	0.43176
0.65874	0.40625
-0.87136	0.10015
-0.69285	0.07465
-1.53441	0.96742
-0.33583	-1.20074
2.16333	-0.23145
1.85731	-0.00188
0.40372	0.53379
0.04670	0.53379
-0.02981	0.15117
-0.43783	-0.12942
0.07220	0.07465
-0.31033	0.17668
0.78624	0.22769
-0.38683	0.45726
0.35272	-0.12942
-0.53984	0.02363
-1.55991	-0.43551
-0.20832	0.43176
0.30171	0.43176
0.78624	0.43176
0.81175	0.32972
0.78624	1.01843
0.70974	-0.07840
0.25071	-0.86914
-0.08081	-0.84363
-0.31033	-0.28246
0.32721	0.63582
0.22521	0.66132
0.04670	0.99292
-0.13181	-0.18043
0.17421	0.68683
0.32721	0.04914
-0.08081	0.30422
-0.05531	-0.46102
-0.02981	0.20219
0.17421	-0.00188
0.14870	-0.99668
0.32721	-0.12942
0.42922	0.53379
0.55673	0.32972
1.21977	0.66132
-0.41233	1.83468
-1.55991	0.02363
-0.82036	0.25320
0.76074	-2.75671
0.68424	0.10015
0.78624	0.27871
0.78624	1.57960
0.12320	0.38074
0.73524	0.15117
1.34728	0.32972
-0.56534	0.04914
-0.59084	0.15117
0.09770	-0.20594
-0.25932	-0.07840
-1.10088	-0.25695
0.32721	0.20219
0.32721	0.30422
1.21977	0.35523
0.48022	0.10015
-0.18282	0.04914
0.07220	0.15117
0.19971	0.17668
0.60773	0.35523
-0.05531	0.17668
-0.08081	0.27871
-0.02981	0.38074
-0.48884	0.17668
-0.25932	0.30422
0.27621	-0.18043
0.25071	-0.58856
0.50573	0.66132
0.68424	0.55929
0.30171	0.02363
0.12320	-0.58856
0.12320	0.86539
0.60773	0.43176
0.32721	-0.20594
-0.20832	-0.25695
0.07220	0.55929
-0.10631	-0.30797
0.14870	0.30422
0.22521	0.32972
0.55673	0.22769
-0.48884	-0.10391
-1.25389	0.25320
-0.61635	0.20219
0.50573	0.20219
0.50573	0.17668
0.99026	-0.20594
0.91375	0.48277
0.55673	-0.30797
0.30171	-0.07840
0.27621	0.63582
0.02119	0.45726
-0.38683	0.25320
0.55673	0.17668
0.40372	0.12566
-0.84586	-0.05289
0.22521	-0.02739
-0.23382	-0.12942
0.14870	0.38074
-0.82036	-0.05289
-0.46334	0.02363
0.96476	-0.35899
0.45472	0.45726
0.63323	0.10015
0.68424	0.27871
0.45472	0.20219
-0.13181	0.30422
0.09770	0.43176
0.27621	0.40625
0.17421	-0.05289
0.12320	-0.48652
-0.10631	-0.12942
0.02119	0.12566
0.19971	0.66132
-0.13181	0.63582
-0.00431	0.12566
0.07220	-0.30797
0.12320	0.04914
0.19971	0.02363
0.30171	0.40625
0.14870	0.40625
0.37822	0.25320
0.83725	0.17668
-0.59084	0.15117
0.68424	-0.69059
0.12320	-0.97117
-0.13181	0.12566
-0.08081	0.94191
-0.33583	0.83988
0.35272	1.14597
-0.69285	0.04914
0.81175	-0.84363
0.14870	-0.25695
0.19971	0.68683
0.73524	0.55929
-0.15732	0.12566
0.32721	-0.00188
0.58223	0.04914
0.22521	0.12566
-0.66735	0.20219
-0.15732	0.15117
0.12320	0.15117
0.35272	-0.61406
-0.23382	-0.02739
0.32721	0.43176
0.55673	0.48277
0.58223	0.32972
-0.84586	0.35523
-0.18282	-0.15492
0.65874	0.12566
0.60773	0.12566
-0.23382	-0.12942
-0.23382	0.61031
0.27621	0.50828
0.17421	0.38074
0.45472	0.55929
0.40372	-0.69059
0.32721	-0.33348
-0.00431	-1.71090
