0.07220	0.25320
0.17421	0.15117
0.19971	0.02363
0.14870	0.07465
0.09770	0.15117
0.12320	-0.00188
0.14870	0.20219
0.09770	0.17668
0.12320	-0.00188
0.14870	0.12566
0.12320	0.22769
0.17421	0.25320
0.09770	0.17668
0.22521	0.10015
0.14870	0.25320
0.12320	0.30422
0.19971	0.02363
0.17421	-0.18043
0.12320	-0.15492
0.07220	0.07465
0.12320	0.32972
0.22521	0.35523
0.14870	0.32972
0.07220	0.20219
0.25071	-0.07840
0.12320	0.10015
0.04670	0.30422
0.12320	0.20219
0.22521	0.12566
0.12320	0.12566
0.07220	0.15117
0.14870	0.04914
0.12320	0.10015
0.09770	0.15117
0.17421	0.04914
0.22521	0.17668
0.09770	0.10015
0.12320	0.10015
0.12320	0.12566
0.02119	0.20219
0.12320	0.17668
0.19971	0.12566
0.14870	0.20219
0.09770	0.25320
0.17421	0.25320
0.22521	0.07465
0.14870	0.17668
0.07220	0.12566
0.09770	0.10015
0.07220	0.15117
0.14870	0.17668
0.22521	0.10015
0.14870	-0.02739
0.12320	0.10015
0.22521	0.17668
0.12320	0.27871
0.09770	0.25320
0.12320	-0.02739
0.12320	0.04914
0.04670	0.02363
0.19971	0.12566
0.14870	0.25320
0.14870	0.12566
0.22521	0.20219
0.14870	0.12566
0.04670	0.12566
0.14870	0.17668
0.12320	0.35523
0.07220	0.25320
0.12320	0.12566
0.14870	0.07465
0.12320	-0.15492
0.14870	0.07465
0.17421	0.30422
0.14870	0.17668
0.22521	0.17668
0.14870	0.07465
0.14870	0.07465
0.17421	0.17668
0.02119	0.17668
0.14870	0.12566
0.22521	0.15117
0.14870	0.15117
0.14870	0.07465
0.22521	0.15117
0.17421	0.22769
0.12320	0.10015
0.19971	0.12566
0.12320	0.22769
0.07220	0.12566
0.14870	0.12566
0.19971	0.15117
0.04670	0.07465
0.22521	0.07465
0.14870	0.10015
0.14870	0.20219
0.22521	0.17668
0.09770	0.17668
0.14870	0.02363
0.19971	-0.02739
0.07220	0.25320
0.09770	0.27871
0.14870	0.17668
0.22521	0.30422
0.09770	0.15117
0.12320	0.35523
0.12320	0.04914
0.14870	0.04914
0.12320	-0.05289
0.09770	-0.07840
0.19971	0.35523
0.12320	0.30422
0.14870	0.27871
0.22521	0.17668
0.12320	-0.00188
0.17421	0.25320
0.17421	0.15117
0.17421	-0.00188
0.19971	0.04914
0.04670	0.04914
0.12320	0.17668
0.19971	0.17668
0.12320	0.40625
0.17421	0.38074
0.22521	0.12566
0.14870	0.12566
0.09770	-0.12942
0.14870	0.02363
0.17421	0.17668
0.12320	0.20219
0.12320	0.30422
0.07220	0.12566
0.14870	0.10015
0.22521	0.17668
0.17421	0.25320
0.09770	0.10015
0.22521	0.10015
0.17421	0.15117
0.02119	0.20219
0.19971	0.02363
0.14870	0.22769
0.07220	0.10015
0.22521	0.12566
0.17421	0.25320
0.14870	0.04914
0.22521	0.17668
0.12320	0.20219
0.14870	0.15117
0.09770	0.10015
0.09770	0.20219
0.14870	0.10015
0.25071	0.12566
0.14870	0.15117
0.14870	0.17668
0.22521	0.07465
0.17421	0.12566
0.04670	0.22769
0.17421	0.04914
0.09770	0.07465
0.07220	0.15117
0.07220	0.17668
0.19971	0.17668
0.19971	0.22769
0.09770	0.25320
0.17421	0.17668
0.27621	-0.02739
0.12320	0.02363
0.07220	0.07465
0.09770	0.07465
0.19971	0.30422
0.14870	0.10015
0.14870	0.20219
0.17421	0.04914
0.19971	-0.20594
0.19971	0.17668
0.12320	0.45726
0.09770	0.15117
0.14870	0.10015
0.19971	0.12566
0.12320	0.07465
0.09770	0.17668
0.14870	0.27871
0.19971	0.25320
0.12320	0.15117
0.09770	0.12566
0.19971	0.04914
0.14870	-0.00188
0.17421	0.12566
0.12320	0.22769
0.04670	0.15117
0.12320	0.07465
0.19971	0.15117
0.12320	0.17668
0.14870	0.07465
0.22521	0.20219
0.14870	0.25320
0.14870	0.15117
0.22521	0.20219
0.09770	0.12566
0.04670	0.04914
0.19971	0.20219
0.07220	0.15117
0.17421	0.07465
0.27621	0.22769
0.04670	0.10015
0.12320	0.15117
0.17421	0.15117
0.12320	0.12566
0.14870	0.04914
0.12320	0.25320
0.04670	0.15117
0.12320	0.12566
0.17421	0.22769
0.14870	0.35523
0.32721	0.15117
0.19971	0.02363
0.04670	-0.10391
0.14870	-0.15492
0.07220	0.25320
0.02119	0.15117
0.19971	0.12566
0.17421	0.12566
0.12320	0.40625
0.22521	0.27871
0.17421	0.35523
0.14870	0.25320
0.09770	0.10015
0.09770	-0.00188
0.17421	-0.10391
0.12320	-0.05289
0.09770	0.15117
0.25071	0.22769
0.14870	0.15117
0.12320	0.17668
0.09770	0.17668
0.19971	0.15117
0.12320	0.15117
0.04670	0.04914
0.19971	0.22769
0.09770	0.10015
0.12320	0.20219
0.27621	0.22769
0.07220	0.12566
-0.02981	0.12566
0.14870	0.20219
0.14870	0.15117
0.19971	0.12566
0.12320	0.25320
0.09770	0.02363
0.25071	0.20219
0.12320	0.17668
0.09770	0.10015
0.19971	0.20219
0.09770	0.02363
0.17421	-0.00188
0.12320	0.10015
0.04670	0.17668
0.19971	0.35523
0.07220	0.25320
0.19971	0.17668
0.14870	0.12566
0.14870	-0.02739
0.22521	0.20219
0.12320	0.12566
0.14870	0.15117
0.17421	0.10015
0.09770	-0.00188
0.22521	0.17668
0.17421	0.10015
0.14870	0.10015
0.14870	0.17668
0.04670	0.20219
0.17421	0.12566
0.14870	0.10015
0.09770	-0.00188
0.12320	0.02363
0.22521	0.17668
0.12320	0.25320
0.07220	0.22769
0.12320	0.25320
0.14870	0.30422
0.07220	0.25320
0.14870	0.12566
0.09770	-0.02739
0.09770	0.10015
0.14870	0.20219
0.17421	0.02363
0.09770	0.04914
0.02119	0.02363
0.12320	-0.15492
0.22521	0.15117
0.12320	0.40625
0.19971	0.35523
0.17421	0.17668
-0.15732	0.22769
0.14870	0.04914
0.22521	0.02363
0.07220	0.12566
0.14870	-0.02739
0.14870	0.20219
0.09770	0.25320
0.22521	0.15117
0.04670	0.20219
0.17421	0.04914
0.32721	-0.07840
0.04670	0.15117
0.12320	0.27871
0.09770	0.35523
0.04670	0.35523
0.14870	0.17668
0.12320	0.15117
0.17421	-0.10391
0.14870	-0.05289
0.07220	0.20219
0.25071	0.32972
0.14870	0.40625
0.17421	0.25320
0.19971	0.10015
0.04670	-0.15492
0.17421	-0.35899
0.12320	0.07465
0.12320	0.35523
0.19971	0.48277
0.17421	0.25320
0.12320	0.22769
0.19971	0.10015
0.19971	0.12566
0.07220	0.04914
0.09770	0.12566
0.09770	0.10015
0.12320	0.20219
0.14870	0.10015
0.19971	0.25320
0.12320	0.17668
0.14870	-0.07840
0.14870	0.12566
0.17421	0.04914
0.17421	0.22769
0.09770	0.10015
0.09770	-0.30797
0.12320	0.20219
0.02119	0.27871
0.14870	0.50828
0.25071	0.58480
0.09770	0.58480
0.14870	0.32972
0.30171	0.12566
-0.00431	-0.00188
0.02119	-0.00188
0.22521	-0.00188
0.09770	-0.15492
0.19971	0.07465
0.22521	0.02363
0.12320	0.10015
0.22521	0.35523
0.19971	0.30422
0.12320	0.25320
0.07220	0.04914
0.12320	-0.05289
0.14870	-0.07840
0.07220	0.15117
0.22521	0.71234
0.19971	0.58480
0.12320	0.20219
0.17421	-0.07840
0.17421	-0.00188
0.14870	0.45726
0.09770	0.12566
0.14870	-0.18043
0.04670	-0.35899
0.14870	-0.48652
0.25071	0.02363
0.17421	0.63582
0.14870	0.55929
0.19971	0.71234
0.07220	0.53379
0.09770	0.10015
0.12320	0.20219
0.07220	-0.25695
0.22521	-0.61406
0.14870	-0.10391
0.14870	-0.41000
0.12320	0.10015
0.02119	0.86539
0.22521	0.68683
0.12320	0.48277
-0.00431	0.22769
0.22521	0.20219
0.07220	-0.05289
0.12320	0.20219
0.09770	0.15117
0.19971	-0.10391
0.27621	-0.15492
0.12320	-0.18043
0.25071	-0.05289
0.04670	-0.20594
0.02119	0.35523
0.12320	0.66132
0.40372	0.55929
0.02119	0.30422
0.04670	-0.53754
0.14870	-0.97117
0.19971	-0.20594
0.19971	0.50828
0.09770	1.04394
0.14870	0.78886
0.02119	0.58480
0.32721	0.40625
0.14870	0.22769
-0.05531	-0.02739
0.53123	0.04914
0.22521	-0.02739
0.14870	-0.05289
0.07220	-0.07840
-0.08081	-0.05289
0.04670	0.02363
0.30171	0.07465
0.25071	0.07465
0.07220	-0.63957
0.22521	-0.46102
-0.02981	0.43176
-0.08081	0.81437
0.19971	0.55929
0.32721	0.76336
-0.02981	0.71234
0.40372	0.27871
0.42922	-0.18043
0.35272	0.04914
0.14870	0.10015
0.19971	-0.02739
0.09770	-0.25695
0.02119	-0.46102
0.04670	0.38074
-0.05531	0.38074
0.02119	0.12566
0.04670	0.25320
-0.02981	0.45726
0.17421	0.76336
-0.02981	0.30422
0.12320	-0.79262
0.22521	-0.71609
0.12320	-0.86914
0.32721	0.55929
0.12320	0.78886
0.22521	0.17668
0.25071	0.61031
0.12320	0.78886
0.19971	0.38074
0.19971	0.40625
-0.13181	0.12566
0.32721	-0.15492
0.09770	0.20219
0.02119	-0.02739
0.17421	0.17668
0.22521	-0.10391
0.60773	-0.28246
0.14870	-0.43551
0.02119	-0.56305
0.70974	0.15117
0.37822	1.09496
-0.28482	0.83988
-1.02437	-0.61406
-0.94787	0.35523
-0.48884	0.17668
0.50573	-0.20594
0.76074	0.25320
1.14327	1.78367
0.88825	0.02363
-0.28482	-0.35899
-0.79486	-2.29757
0.78624	-0.23145
0.78624	1.52859
0.83725	3.03355
0.63323	-0.30797
0.27621	0.32972
0.25071	-1.83844
-0.00431	0.55929
-0.18282	-0.41000
-0.08081	0.43176
-0.61635	0.48277
-0.18282	-0.05289
-0.05531	-1.55785
-0.59084	0.30422
-0.18282	0.99292
-0.05531	1.52859
0.19971	0.32972
0.45472	-1.09871
0.42922	-0.61406
-0.51434	-0.56305
-0.08081	-0.10391
0.37822	1.09496
0.53123	1.37554
1.55129	1.09496
0.88825	-0.89465
1.21977	-0.15492
0.96476	-0.79262
0.42922	-0.69059
-1.53441	-1.32828
-1.55991	0.00000
-0.02981	0.00000
0.09770	-0.71609
0.60773	1.42656
0.30171	2.01323
0.09770	1.88570
0.19971	0.81437
0.40372	1.47757
-0.33583	0.53379
-0.56534	-0.66508
-0.28482	-0.86914
0.65874	0.17668
0.91375	-3.29238
0.86275	-3.72601
0.02119	-0.89465
-0.66735	2.67644
0.63323	2.03874
1.19427	1.78367
0.12320	0.89089
-0.41233	0.78886
-1.30489	-0.58856
-0.89686	0.55929
-0.31033	-0.20594
0.76074	0.55929
0.07220	-0.69059
2.08683	-1.22625
-0.23382	0.81437
0.83725	-0.07840
0.99026	-1.45582
-0.43783	-2.68019
-0.02981	-0.12942
-0.94787	1.68163
0.02119	1.96222
1.04126	2.44687
0.42922	0.02363
0.22521	-0.30797
0.42922	0.50828
0.40372	0.02363
-0.94787	0.53379
-1.07538	-0.05289
-0.15732	3.56921
-0.00431	-1.45582
-0.00431	-1.22625
-0.10631	-3.01179
0.58223	-0.74160
1.29628	1.14597
1.65330	0.30422
0.88825	2.37034
-0.92237	1.04394
-2.12094	0.07465
-1.22839	-0.48652
0.96476	0.35523
1.32178	0.55929
1.39828	0.32972
0.86275	0.25320
0.53123	1.17148
-0.33583	-2.17003
0.30171	-0.25695
0.17421	-3.82804
0.19971	1.37554
-1.04987	-1.78742
-1.33039	0.76336
-0.92237	2.44687
0.81175	2.06425
1.11776	2.39585
1.11776	1.63062
0.25071	0.25320
-0.71835	0.20219
-1.10088	-1.09871
1.34728	-0.10391
0.83725	-0.63957
-0.28482	-1.91496
1.27078	-1.96597
-0.02981	-2.04250
-0.64185	1.14597
0.48022	2.08976
1.06676	1.57960
0.73524	3.00804
0.22521	-0.71609
-0.56534	-1.09871
-1.07538	-0.74160
-0.13181	0.76336
0.65874	1.93671
0.32721	-0.51203
-0.23382	0.50828
-0.79486	-0.23145
0.12320	0.04914
0.42922	-1.60887
0.07220	-1.12422
0.55673	-0.84363
0.53123	2.29382
0.60773	3.36515
0.60773	0.66132
0.68424	1.88570
0.02119	-1.17523
-0.66735	-1.45582
-0.56534	-1.63437
-0.82036	-1.40480
0.30171	-0.28246
0.60773	1.01843
-0.64185	1.17148
0.58223	1.57960
0.60773	0.25320
0.65874	0.22769
0.07220	-0.41000
0.32721	-0.05289
0.91375	-0.51203
0.60773	1.01843
1.11776	-0.25695
0.53123	-0.79262
-0.43783	-0.33348
-2.57997	0.96742
0.53123	0.45726
0.04670	-0.53754
-0.64185	-0.02739
-0.00431	1.17148
0.04670	-0.28246
0.19971	-0.43551
1.19427	0.61031
0.55673	0.73785
0.17421	-0.53754
0.88825	0.40625
0.48022	-0.10391
0.07220	2.37034
0.04670	-1.07320
-0.18282	-0.25695
0.17421	0.07465
-0.00431	1.40105
-0.36133	-0.92016
0.09770	-1.20074
0.14870	-0.05289
-0.05531	-0.28246
-0.41233	-0.71609
0.07220	-3.36890
1.11776	0.86539
-0.56534	2.52339
-0.41233	2.95702
0.22521	1.73265
0.17421	4.51299
0.78624	-2.11902
0.91375	-2.11902
1.16877	-3.29238
0.02119	-0.02739
-0.79486	2.06425
-1.02437	0.04914
0.63323	-0.61406
0.68424	-0.53754
0.88825	0.58480
-0.33583	0.94191
0.09770	1.04394
-1.07538	0.15117
0.42922	0.32972
0.42922	-0.92016
0.42922	-0.30797
1.14327	-0.05289
0.17421	0.81437
-1.10088	1.01843
-0.66735	1.68163
0.09770	-1.14973
-0.97337	-1.71090
1.16877	-0.41000
1.19427	-0.76711
-0.13181	1.78367
-0.59084	0.83988
0.63323	1.52859
0.70974	0.76336
0.76074	0.53379
0.58223	2.06425
-1.33039	-0.51203
-0.64185	-1.76191
0.14870	-4.21066
0.83725	-1.09871
-0.53984	1.52859
-0.92237	1.86019
1.04126	1.86019
1.32178	1.57960
1.72980	1.37554
0.68424	-0.69059
-0.66735	3.95182
0.22521	-3.34339
0.42922	-4.03210
-1.91693	-5.71561
-2.17195	0.99292
-0.46334	3.54370
1.11776	2.90601
1.52579	1.50308
0.48022	0.96742
1.50029	0.30422
0.45472	0.10015
-0.15732	-0.12942
0.07220	-0.51203
0.12320	-0.46102
-0.18282	-0.43551
-0.59084	-0.38449
0.37822	0.20219
0.27621	1.17148
0.02119	1.27351
-0.02981	-1.81293
0.45472	-2.68019
0.30171	-1.60887
-0.10631	0.45726
-0.46334	1.40105
0.14870	2.62542
-0.15732	1.93671
-0.36133	1.86019
0.70974	0.55929
1.70430	1.14597
1.83181	3.00804
1.01576	-1.68539
-1.84042	-3.77702
-3.72755	-3.77702
0.35272	0.07465
1.39828	0.35523
2.29084	0.27871
0.22521	1.88570
-0.94787	1.63062
0.88825	1.70714
0.12320	0.15117
0.07220	0.89089
-0.69285	-0.23145
0.42922	-0.28246
1.09226	-1.32828
0.45472	-0.38449
0.25071	-1.25176
0.30171	0.27871
-0.28482	0.35523
-0.59084	-0.58856
0.25071	0.02363
0.40372	1.37554
-0.48884	1.42656
-0.51434	1.22250
-0.41233	-1.09871
-0.48884	2.85499
0.53123	-0.38449
0.73524	-0.12942
0.83725	-2.78222
0.60773	-0.25695
0.32721	0.94191
-0.10631	2.59991
-0.08081	-1.76191
-0.41233	-1.71090
0.63323	-0.10391
0.40372	1.35003
-0.05531	1.01843
0.22521	0.53379
0.42922	0.63582
0.93925	1.78367
0.45472	-0.53754
0.19971	-0.28246
-2.29945	-1.68539
-0.64185	1.06945
-2.29945	-0.46102
1.60230	-0.38449
1.09226	-1.94047
0.12320	0.07465
0.40372	1.40105
1.50029	1.22250
1.29628	0.78886
1.21977	1.32453
-0.33583	0.45726
-1.02437	-0.76711
-0.48884	-0.94566
-0.08081	0.58480
-0.53984	-0.10391
-0.64185	0.35523
0.37822	-1.20074
-0.74385	-0.25695
0.83725	-1.25176
0.60773	1.32453
0.55673	1.45206
0.48022	0.25320
0.88825	-0.63957
-0.69285	1.22250
0.02119	1.63062
0.91375	1.09496
0.53123	-0.33348
0.58223	-1.73640
0.14870	-0.99668
0.48022	-0.81812
-0.18282	1.73265
-0.25932	0.50828
-0.18282	-0.99668
0.30171	-0.35899
-0.31033	0.86539
-0.33583	1.19699
-0.51434	0.53379
-0.25932	1.14597
-0.15732	0.73785
1.27078	-0.41000
1.16877	-0.46102
1.19427	-0.43551
-0.28482	-0.00188
-0.64185	-0.28246
-1.50890	-0.46102
-0.53984	0.02363
1.50029	0.22769
1.62780	0.45726
1.11776	-0.00188
0.32721	0.76336
-0.28482	1.06945
0.70974	-0.30797
-0.84586	0.02363
-0.76936	-0.74160
-0.13181	-0.15492
0.53123	-1.43031
-0.38683	1.98773
0.58223	1.29902
0.40372	1.24800
0.60773	0.53379
-0.23382	-0.58856
-0.87136	0.96742
-0.43783	-0.71609
0.70974	-1.60887
0.25071	-3.11382
0.58223	-0.53754
0.83725	1.96222
-0.08081	2.11527
-0.08081	0.45726
0.04670	1.60511
0.55673	-0.76711
-0.51434	-0.00188
-0.25932	0.81437
0.30171	-1.22625
0.22521	-1.37929
0.35272	-1.27726
0.12320	0.99292
-0.00431	1.12046
1.04126	1.37554
0.12320	-0.15492
-0.92237	0.25320
0.63323	-0.15492
0.53123	-0.10391
-0.36133	0.45726
0.37822	-0.56305
0.63323	-0.30797
-0.23382	-0.07840
-0.25932	1.17148
-0.41233	0.96742
-0.28482	0.55929
-0.02981	0.20219
0.35272	0.78886
0.04670	-0.00188
0.55673	-0.46102
1.39828	-0.66508
1.16877	-0.33348
0.02119	2.21730
-0.69285	-0.43551
-1.12638	-1.07320
-1.30489	-3.31788
0.99026	1.86019
1.21977	1.86019
0.53123	1.52859
0.14870	1.40105
0.53123	0.48277
0.50573	0.48277
0.04670	-0.23145
-0.59084	-0.89465
-2.32496	-1.17523
0.73524	-0.66508
0.81175	0.58480
0.50573	0.73785
1.09226	1.57960
0.83725	0.66132
0.30171	0.38074
-0.02981	1.09496
0.09770	-3.95558
-0.43783	-1.73640
-0.33583	-1.32828
0.55673	2.14077
0.07220	2.37034
-0.59084	2.26831
-0.59084	0.27871
-0.94787	-0.02739
0.27621	-0.12942
0.91375	0.10015
1.47479	-0.05289
0.12320	-0.28246
-0.10631	0.04914
0.55673	-0.02739
0.53123	-0.25695
0.12320	0.89089
-0.08081	-0.71609
0.19971	-0.05289
0.63323	-0.53754
-0.33583	-0.38449
-0.18282	-1.14973
-0.20832	-0.02739
0.45472	1.88570
0.12320	1.57960
-0.92237	1.01843
0.12320	0.25320
-0.28482	0.22769
-0.13181	0.07465
0.55673	0.15117
0.65874	-0.48652
1.06676	0.73785
0.73524	-1.37929
0.70974	0.53379
0.60773	-0.53754
-0.53984	-0.79262
0.19971	-0.61406
-0.08081	-0.63957
0.27621	0.96742
-0.97337	1.68163
-1.07538	1.27351
-1.43240	0.86539
0.88825	0.12566
0.65874	0.35523
1.09226	-0.41000
0.58223	-1.81293
0.99026	-1.27726
-0.05531	0.48277
0.32721	0.86539
0.37822	1.22250
0.60773	0.61031
0.78624	1.37554
-0.33583	-0.71609
-1.38139	-0.30797
0.25071	-0.63957
0.09770	-0.94566
-0.33583	-0.23145
-2.35046	0.35523
-0.23382	0.91640
1.55129	0.91640
1.62780	0.96742
0.93925	-0.10391
0.73524	0.35523
0.40372	1.42656
-0.18282	1.06945
0.14870	0.30422
-0.71835	-3.41992
-0.28482	-2.32308
-0.05531	-1.12422
0.73524	2.24281
0.07220	2.19179
-0.15732	2.21730
0.19971	1.19699
0.83725	0.76336
0.63323	-0.61406
1.01576	-3.19035
-1.20288	-0.46102
-1.78942	0.66132
0.37822	1.32453
1.09226	1.37554
0.48022	-0.43551
0.27621	0.15117
0.99026	-1.12422
0.35272	0.27871
-0.89686	-0.71609
-0.51434	-0.05289
0.91375	0.73785
0.53123	1.14597
-0.76936	0.73785
1.09226	-0.07840
-0.00431	-0.10391
-0.41233	0.78886
0.40372	-0.61406
0.32721	1.83468
-0.43783	-0.35899
-0.18282	-2.17003
-0.82036	-2.70570
0.09770	-1.22625
0.50573	2.34484
0.60773	1.86019
0.68424	1.22250
0.12320	0.78886
-0.28482	0.86539
0.37822	0.32972
0.25071	0.30422
0.63323	-2.04250
-0.00431	-0.02739
-0.31033	-0.07840
-0.15732	0.12566
-0.15732	-1.25176
0.63323	0.94191
0.73524	1.98773
0.04670	0.30422
-1.02437	-0.23145
-0.05531	0.32972
0.63323	-0.43551
-0.31033	-0.97117
0.37822	-2.65468
0.81175	0.81437
0.40372	2.08976
0.19971	1.40105
0.88825	0.96742
-0.08081	0.63582
-1.04987	0.25320
-0.76936	-0.18043
0.50573	0.22769
1.09226	-0.38449
0.02119	0.02363
-0.13181	-1.48133
0.32721	-1.27726
0.37822	0.30422
0.76074	0.17668
0.73524	1.24800
0.73524	1.24800
-0.56534	0.91640
-0.69285	0.45726
0.02119	0.55929
0.17421	-0.66508
-0.08081	-0.38449
-0.05531	-0.94566
0.14870	0.25320
0.32721	0.07465
0.42922	1.04394
0.35272	3.08456
0.12320	-2.85874
-0.15732	-0.86914
-0.64185	-2.04250
0.53123	1.65613
-0.43783	1.27351
0.22521	1.35003
0.19971	0.99292
0.58223	1.12046
0.60773	-0.28246
0.48022	-0.35899
0.50573	0.73785
0.60773	1.37554
0.81175	-1.58336
0.17421	-0.15492
-0.99887	-2.27207
-1.25389	-0.15492
0.45472	-0.74160
-0.59084	1.22250
0.70974	1.22250
0.42922	1.45206
0.93925	1.24800
-0.43783	0.12566
-0.76936	-0.71609
0.50573	0.38074
0.27621	-0.35899
0.22521	0.07465
-0.13181	0.63582
-0.76936	-0.33348
1.34728	0.25320
1.44929	0.30422
1.83181	-0.69059
-0.79486	-0.84363
-2.09544	-1.88945
-0.28482	0.66132
0.91375	1.88570
0.78624	1.50308
0.22521	1.19699
1.01576	0.07465
-0.23382	-0.07840
-1.33039	0.35523
-0.74385	-0.66508
-0.15732	-0.25695
0.30171	2.90601
1.14327	-0.18043
0.58223	-2.09351
0.48022	-2.52714
0.50573	-0.15492
0.32721	1.52859
-0.51434	1.14597
-0.64185	0.78886
0.53123	0.71234
0.55673	0.58480
0.17421	0.71234
-1.20288	-0.20594
-0.69285	-1.43031
1.14327	-0.92016
1.01576	-0.61406
0.70974	0.91640
0.53123	2.03874
-0.08081	0.58480
0.12320	-0.38449
-0.08081	0.78886
-1.50890	-0.76711
-0.76936	-0.05289
0.96476	-0.66508
1.75531	0.50828
1.04126	0.68683
-0.31033	0.17668
-1.33039	0.86539
0.04670	0.78886
0.04670	0.53379
1.32178	-1.09871
0.19971	-1.09871
0.32721	0.66132
0.50573	-0.28246
-1.45790	-0.97117
0.12320	-0.12942
1.01576	1.06945
0.02119	0.96742
-0.15732	0.66132
-0.31033	-0.07840
0.09770	1.37554
0.55673	-0.07840
0.42922	0.38074
0.14870	-1.76191
0.09770	-1.27726
0.09770	1.27351
0.19971	-0.15492
0.40372	1.42656
0.50573	-0.51203
0.17421	0.30422
-0.23382	-1.32828
-0.56534	1.17148
0.35272	2.77847
0.02119	0.99292
-0.43783	-1.73640
0.09770	-1.78742
0.35272	-0.48652
1.27078	0.68683
1.11776	-0.18043
-0.05531	1.32453
-0.71835	0.91640
-0.48884	0.55929
-0.99887	-0.53754
0.55673	0.83988
1.04126	0.25320
1.52579	-0.89465
0.32721	-1.83844
-0.38683	-0.51203
-1.17738	0.32972
-1.76392	1.09496
1.11776	1.17148
0.96476	0.20219
0.73524	-0.07840
0.30171	-0.15492
-0.00431	-0.10391
-0.48884	0.50828
0.45472	0.63582
-0.02981	1.06945
0.63323	-0.84363
0.42922	-0.61406
-0.00431	-1.30277
-0.23382	1.27351
-0.18282	0.89089
0.02119	0.83988
0.37822	-0.20594
0.19971	0.07465
-0.10631	2.19179
-0.02981	-1.22625
0.42922	-0.74160
0.60773	-1.99148
0.53123	0.68683
0.40372	0.22769
-0.46334	1.57960
0.32721	1.78367
-1.10088	-0.15492
-1.10088	1.01843
0.27621	-1.76191
1.55129	-0.10391
1.09226	0.58480
0.60773	1.04394
0.73524	0.10015
-1.86593	-1.55785
0.02119	-0.76711
0.83725	-0.46102
1.06676	0.91640
0.25071	0.73785
-0.10631	0.50828
-0.31033	0.53379
-0.71835	0.86539
-0.92237	-0.51203
0.22521	0.12566
0.55673	0.17668
0.78624	0.02363
-0.64185	0.55929
0.14870	0.27871
0.37822	-0.86914
0.63323	-0.58856
1.50029	0.81437
0.30171	1.14597
0.45472	-0.84363
-0.41233	-0.51203
-1.04987	-0.97117
-0.33583	1.65613
0.17421	1.60511
0.22521	1.47757
0.42922	-0.25695
0.12320	-1.22625
0.25071	-0.58856
0.58223	0.55929
0.32721	0.30422
-0.13181	0.43176
-0.53984	0.50828
-0.28482	-0.76711
0.73524	-0.38449
0.55673	-0.71609
-0.13181	-0.58856
0.19971	0.02363
-1.10088	1.68163
-0.23382	1.52859
0.76074	-0.00188
0.19971	0.86539
0.73524	-0.23145
1.27078	-0.33348
0.12320	-1.37929
0.50573	1.22250
0.27621	1.17148
-0.38683	0.58480
-1.02437	-2.01699
-0.28482	-1.58336
0.88825	-0.41000
-0.28482	1.65613
-0.05531	1.14597
-0.38683	1.29902
0.30171	0.86539
1.06676	-0.02739
0.19971	-0.74160
0.19971	-0.18043
-0.36133	0.12566
-0.53984	0.25320
-0.08081	-0.48652
-0.00431	-0.69059
1.04126	0.38074
0.53123	0.73785
0.22521	0.61031
-0.59084	0.71234
-0.18282	-0.86914
0.32721	-1.53234
0.53123	-0.79262
0.81175	0.81437
0.63323	0.73785
-0.20832	0.53379
0.02119	0.45726
-0.20832	1.78367
-0.76936	1.42656
-0.31033	-0.28246
0.19971	0.96742
0.76074	-0.92016
0.73524	-1.27726
0.78624	-1.25176
1.29628	1.32453
-0.08081	0.27871
-0.05531	-1.94047
-1.96793	0.02363
-1.04987	0.45726
0.02119	1.86019
-0.46334	-0.43551
0.50573	0.83988
-0.56534	0.10015
1.62780	0.86539
2.36734	0.10015
2.62236	-0.00188
0.73524	0.12566
-0.92237	-0.15492
-2.32496	-0.56305
-0.92237	-0.35899
0.12320	0.32972
0.55673	1.14597
0.68424	0.50828
0.63323	-1.20074
0.07220	-1.58336
0.27621	-0.05289
-0.84586	0.61031
-0.20832	1.01843
0.32721	0.83988
0.04670	0.96742
-0.53984	0.76336
0.45472	0.81437
1.04126	0.43176
0.63323	-0.63957
0.42922	-1.55785
-0.00431	-0.02739
0.22521	0.91640
0.40372	1.01843
0.09770	1.17148
0.04670	-1.65988
0.32721	-1.55785
0.35272	-1.30277
-1.25389	1.42656
-1.30489	0.43176
-0.08081	1.29902
0.48022	0.61031
1.44929	0.07465
-0.18282	0.22769
1.14327	1.29902
0.86275	0.43176
0.04670	-0.07840
0.02119	-2.19554
-0.43783	-0.30797
0.14870	0.58480
0.45472	-0.00188
0.58223	0.63582
0.93925	0.35523
0.30171	0.66132
-0.48884	-0.02739
-0.94787	-0.43551
-0.53984	0.55929
0.19971	1.35003
0.37822	-0.33348
0.04670	-0.15492
0.32721	-0.23145
0.50573	0.25320
0.42922	-0.05289
-0.10631	0.40625
0.19971	-0.28246
-0.00431	1.52859
0.32721	0.73785
0.42922	0.15117
0.14870	-1.40480
-0.18282	-1.14973
-0.71835	-0.35899
0.60773	0.55929
0.93925	1.37554
1.19427	1.19699
-2.01894	0.17668
-1.12638	0.15117
0.02119	-1.12422
1.21977	-0.23145
1.39828	0.66132
1.24527	-0.18043
0.73524	0.38074
-0.10631	0.30422
-0.31033	0.30422
-0.33583	0.66132
-0.05531	0.15117
0.02119	-0.15492
-0.53984	0.48277
-0.38683	-0.58856
0.76074	-0.86914
-0.69285	-0.05289
0.45472	0.15117
0.42922	1.01843
0.04670	0.50828
0.93925	0.35523
0.45472	0.55929
0.91375	1.17148
0.42922	0.86539
0.14870	-1.04770
-0.13181	-1.14973
-0.79486	-0.20594
-0.33583	-0.41000
0.14870	-0.05289
0.55673	0.81437
-0.02981	1.75816
-0.61635	0.43176
0.02119	0.02363
0.40372	-0.07840
-0.25932	0.17668
0.22521	0.68683
0.88825	0.45726
0.63323	-0.30797
0.99026	0.15117
0.48022	-0.28246
-0.41233	-1.12422
-1.96793	-1.22625
-0.56534	-0.48652
0.60773	2.95702
0.91375	1.04394
1.44929	-0.71609
0.07220	-1.91496
0.70974	0.94191
-0.02981	1.57960
0.04670	0.58480
-0.69285	-0.02739
-0.20832	0.04914
0.86275	0.96742
0.32721	-0.00188
-0.51434	-0.07840
0.53123	0.07465
-1.78942	-0.58856
-2.19745	-0.30797
-0.48884	-0.25695
1.19427	-0.07840
2.01032	0.35523
1.50029	0.04914
1.29628	0.35523
0.73524	0.63582
-0.08081	0.53379
-0.38683	0.48277
-0.61635	-0.12942
0.91375	0.32972
-0.00431	0.68683
-0.79486	-0.79262
-0.61635	-2.04250
-0.02981	-0.58856
0.22521	1.29902
0.12320	1.32453
0.42922	1.17148
0.70974	1.04394
0.37822	0.43176
0.70974	0.50828
-0.25932	1.78367
-0.15732	-0.69059
0.25071	-1.68539
-0.23382	-2.32308
0.42922	0.71234
0.55673	0.40625
0.37822	0.40625
0.02119	0.04914
0.25071	0.15117
0.25071	0.15117
-0.10631	1.09496
-0.66735	0.32972
-1.40690	-0.30797
0.48022	0.15117
0.81175	1.60511
1.27078	-0.33348
1.04126	-1.25176
0.70974	0.02363
0.07220	1.17148
0.65874	0.45726
-0.59084	0.38074
-0.46334	-1.27726
-1.91693	0.78886
0.12320	-0.15492
0.19971	0.25320
1.90832	0.58480
0.63323	0.40625
-0.48884	0.32972
0.81175	-0.12942
0.12320	-0.18043
-0.31033	0.55929
-0.59084	0.07465
-0.15732	-0.28246
0.02119	-0.23145
0.17421	1.32453
0.42922	-0.15492
0.55673	-1.07320
0.30171	-1.09871
0.04670	0.43176
0.09770	0.91640
0.53123	0.25320
-0.38683	1.17148
-0.48884	-0.48652
-0.46334	0.96742
-0.10631	1.24800
1.11776	-0.15492
1.16877	0.55929
0.73524	-0.00188
0.19971	-0.74160
-0.08081	-0.00188
-0.99887	-1.96597
0.09770	-0.66508
0.86275	1.24800
-0.82036	0.04914
-0.13181	1.22250
0.99026	-0.00188
-0.00431	0.86539
-0.13181	0.40625
0.93925	1.47757
0.22521	-0.74160
0.73524	-0.28246
0.07220	-0.99668
-0.33583	0.45726
-0.87136	0.35523
-0.94787	1.09496
1.57679	-0.02739
1.44929	0.15117
0.09770	-0.94566
-0.20832	0.20219
-0.43783	0.50828
-0.20832	0.20219
0.55673	-0.05289
-0.33583	0.15117
0.07220	0.40625
0.25071	0.53379
0.22521	0.76336
0.93925	-0.23145
0.09770	0.12566
-0.02981	0.71234
-0.46334	-1.88945
0.42922	0.04914
0.48022	0.96742
0.22521	0.53379
0.68424	-0.46102
0.91375	1.12046
-0.41233	-0.92016
-0.18282	-0.53754
-0.43783	0.68683
-0.69285	1.14597
0.53123	0.71234
0.83725	-0.48652
0.37822	0.50828
-0.28482	1.04394
-0.28482	0.12566
0.96476	-0.74160
0.86275	-1.20074
0.63323	-1.27726
-0.56534	0.71234
-2.14644	1.04394
-0.66735	0.55929
0.17421	0.10015
1.21977	0.94191
0.99026	0.20219
0.78624	-0.38449
1.16877	-0.74160
-0.23382	0.15117
0.32721	0.48277
-0.38683	1.68163
-0.84586	-0.10391
-0.08081	-0.94566
-0.02981	-1.27726
-0.02981	-0.56305
0.27621	0.48277
0.58223	0.81437
0.50573	1.14597
0.73524	0.45726
0.40372	0.17668
-0.23382	-0.00188
-0.89686	0.07465
-0.08081	2.26831
-0.05531	-0.10391
0.78624	-0.05289
-0.41233	-2.47613
0.14870	0.50828
0.17421	0.27871
0.78624	0.71234
1.11776	1.37554
0.35272	0.12566
-0.13181	0.10015
-0.51434	-1.43031
0.04670	-0.92016
0.55673	-0.53754
0.04670	0.10015
0.09770	1.01843
0.53123	2.03874
-0.05531	0.86539
-0.89686	0.43176
-0.64185	-0.28246
0.32721	0.22769
1.01576	-0.00188
0.32721	-1.02219
0.07220	0.12566
0.37822	0.04914
-0.61635	-0.28246
0.91375	0.38074
0.04670	0.10015
0.53123	-0.05289
0.09770	-0.51203
0.58223	1.01843
0.40372	-0.07840
-0.79486	0.81437
-0.48884	0.50828
0.12320	0.48277
0.32721	0.50828
0.73524	0.15117
-0.38683	-0.30797
-1.07538	-0.10391
-0.05531	0.81437
0.70974	0.35523
0.48022	-1.35379
0.78624	-1.55785
0.48022	0.45726
-0.28482	0.81437
0.02119	0.73785
0.14870	-0.66508
0.14870	1.27351
0.65874	0.68683
0.48022	-0.12942
0.17421	-0.48652
-1.17738	-0.38449
-0.31033	1.04394
-0.28482	0.35523
0.30171	0.76336
0.14870	0.32972
1.32178	-0.41000
0.48022	-0.51203
0.73524	0.25320
-0.08081	0.71234
-0.13181	0.20219
-0.66735	-0.33348
0.12320	-0.66508
-0.00431	-0.23145
0.88825	0.71234
0.35272	-0.12942
0.83725	1.06945
0.30171	0.96742
0.60773	0.12566
-0.48884	0.45726
0.17421	-0.61406
0.09770	-0.46102
-1.58541	-0.46102
-1.81492	-0.56305
-0.69285	0.40625
1.72980	1.14597
1.27078	0.71234
1.44929	1.27351
0.65874	0.10015
0.27621	-0.53754
0.65874	-1.20074
0.19971	0.71234
-0.51434	-0.35899
0.22521	0.27871
-0.59084	0.15117
-0.23382	1.12046
0.30171	0.63582
0.04670	0.04914
0.22521	0.12566
0.25071	-0.20594
-0.25932	2.08976
-0.64185	-0.74160
0.32721	-1.07320
0.09770	-2.57816
1.21977	-0.79262
0.55673	1.37554
0.14870	1.75816
-0.99887	1.35003
-0.00431	0.50828
0.55673	-0.25695
0.96476	0.27871
0.48022	-0.02739
0.14870	0.73785
0.99026	-1.60887
0.14870	-0.18043
-0.38683	-0.05289
0.14870	0.27871
0.35272	1.04394
-0.23382	0.30422
-0.46334	0.25320
0.19971	-0.46102
-0.05531	0.20219
0.68424	0.55929
-0.10631	-0.25695
-0.05531	0.89089
-1.10088	-0.79262
-1.43240	0.02363
0.55673	-0.30797
1.11776	0.76336
1.01576	0.04914
1.42379	0.43176
0.63323	-0.12942
0.63323	0.89089
0.37822	1.06945
-0.18282	0.07465
0.19971	0.25320
-0.18282	-0.35899
-0.28482	-0.76711
-1.02437	-0.71609
0.35272	-0.15492
0.42922	1.32453
0.25071	0.53379
-0.25932	1.12046
0.37822	-0.02739
0.60773	0.66132
0.12320	0.71234
-0.18282	0.17668
-0.02981	-1.99148
0.32721	-1.58336
-0.38683	-0.30797
0.09770	1.93671
0.50573	1.57960
1.24527	0.45726
0.45472	0.35523
-0.79486	-0.38449
0.35272	-0.38449
0.30171	-0.20594
-0.66735	0.81437
0.14870	-1.07320
0.48022	0.35523
0.63323	-0.30797
0.50573	0.76336
-0.76936	1.04394
0.27621	0.55929
-0.25932	0.02363
-0.38683	-0.35899
-0.59084	-0.12942
0.07220	0.04914
0.86275	-0.30797
-0.18282	0.38074
0.22521	0.63582
1.42379	0.12566
1.01576	0.04914
0.68424	-0.30797
-0.05531	0.17668
-1.02437	-0.38449
-1.04987	-0.18043
0.78624	0.32972
-0.00431	0.81437
-0.48884	0.78886
0.25071	0.15117
0.40372	-0.35899
0.60773	0.35523
0.30171	-0.51203
-0.15732	0.68683
0.12320	1.27351
-0.28482	-0.56305
0.02119	-0.12942
0.68424	-1.32828
0.68424	-0.25695
1.24527	0.40625
0.65874	-0.02739
-0.31033	0.50828
-2.57997	0.96742
-1.78942	1.65613
0.02119	0.40625
1.34728	-0.48652
1.88281	-0.66508
1.47479	-0.38449
0.32721	-0.18043
-0.97337	-0.33348
-0.15732	0.66132
0.91375	0.53379
0.91375	0.94191
-0.89686	0.30422
0.07220	-0.05289
0.65874	0.30422
0.12320	-0.05289
0.53123	-0.43551
-0.38683	-1.27726
-2.01894	0.55929
-0.61635	-0.02739
0.65874	-0.18043
0.88825	0.61031
0.96476	0.45726
0.53123	0.68683
-0.41233	1.17148
0.32721	0.45726
0.14870	-0.58856
0.32721	0.22769
0.37822	-0.46102
0.42922	0.15117
0.53123	-0.81812
0.32721	0.43176
-0.31033	0.43176
-2.52897	1.35003
0.17421	-0.86914
0.99026	-0.92016
0.96476	0.63582
0.91375	1.24800
-0.08081	0.89089
0.04670	-0.41000
0.12320	-0.41000
-0.53984	-0.25695
-0.69285	-0.56305
0.12320	0.15117
0.76074	1.06945
0.63323	0.61031
-0.28482	-0.58856
0.19971	0.25320
-0.20832	1.24800
1.09226	-0.46102
0.55673	0.22769
0.37822	0.15117
-0.10631	0.07465
-0.25932	0.27871
-0.08081	0.15117
0.37822	0.25320
-0.94787	0.20219
-0.41233	0.10015
0.09770	-0.15492
0.55673	-0.10391
0.04670	-0.66508
-0.20832	-0.12942
0.58223	0.43176
0.63323	1.17148
0.25071	0.76336
0.55673	0.71234
-0.00431	-0.69059
-0.02981	-0.02739
-0.36133	-0.43551
0.42922	0.02363
0.37822	-0.12942
0.17421	0.20219
0.27621	0.83988
0.25071	0.04914
0.07220	0.66132
-0.46334	-0.05289
0.12320	1.12046
0.27621	-1.14973
-0.43783	-0.05289
0.48022	0.32972
0.27621	0.40625
1.09226	0.63582
0.63323	-0.53754
-2.57997	0.02363
-1.89143	-0.05289
1.29628	-0.63957
1.75531	0.55929
1.19427	1.14597
0.53123	0.63582
-0.25932	0.32972
-0.48884	0.25320
-0.05531	-0.02739
1.34728	-0.02739
0.48022	0.12566
-0.31033	0.10015
0.04670	0.22769
-0.38683	-0.23145
-0.36133	-0.38449
-0.31033	-0.30797
0.09770	0.22769
0.58223	1.19699
0.65874	-0.56305
-0.05531	-0.15492
0.55673	-0.56305
-0.79486	0.63582
-0.59084	1.06945
0.07220	1.04394
0.68424	0.30422
0.81175	0.83988
0.70974	-0.43551
0.25071	-0.51203
0.35272	0.76336
-0.18282	-0.46102
-0.36133	-0.25695
0.07220	-0.15492
-0.48884	-0.07840
0.22521	0.58480
0.68424	0.48277
-0.23382	0.35523
-0.28482	-0.28246
0.14870	0.40625
0.25071	-0.25695
0.60773	-0.00188
0.22521	-0.10391
0.45472	-0.25695
0.19971	0.96742
0.22521	0.53379
-0.79486	-0.46102
0.42922	-0.46102
0.53123	0.40625
0.30171	0.25320
-0.25932	0.66132
-0.13181	0.45726
-0.92237	-0.15492
0.42922	0.10015
1.04126	0.50828
-0.13181	-0.05289
-0.28482	0.35523
0.22521	-0.28246
0.78624	-0.23145
0.40372	0.25320
-0.36133	-0.53754
-0.38683	-0.51203
0.32721	0.68683
0.25071	0.76336
-0.02981	0.35523
0.35272	0.07465
0.04670	0.96742
0.63323	0.30422
-0.00431	0.10015
-0.69285	-0.30797
-0.13181	0.07465
0.42922	-0.69059
0.35272	0.10015
0.53123	0.15117
0.07220	0.71234
0.65874	1.24800
0.37822	0.48277
-0.08081	-1.07320
0.55673	-1.50683
0.22521	-0.63957
-0.36133	0.78886
-0.51434	0.61031
-0.48884	1.42656
-0.94787	1.32453
0.27621	0.68683
1.24527	-0.48652
1.14327	-0.97117
0.35272	0.43176
0.96476	0.66132
-0.79486	0.04914
-0.41233	0.20219
-1.33039	0.35523
0.86275	-0.38449
1.21977	-1.53234
0.68424	-0.15492
-0.15732	0.38074
-0.48884	0.91640
-0.38683	0.55929
-0.15732	0.81437
0.07220	0.20219
0.27621	-0.53754
-0.20832	-0.02739
0.04670	-0.10391
0.68424	0.53379
0.04670	0.10015
0.60773	0.10015
0.17421	0.91640
0.22521	0.45726
0.22521	0.15117
0.40372	0.45726
0.02119	-0.12942
-0.51434	-0.56305
-0.02981	-0.41000
0.22521	-0.30797
0.63323	0.22769
0.25071	1.40105
-0.38683	0.15117
-0.59084	-0.92016
0.27621	-0.81812
0.63323	0.83988
0.83725	0.89089
1.04126	0.61031
-0.18282	0.53379
-1.61091	-0.10391
-0.51434	0.25320
0.50573	0.22769
1.21977	0.02363
0.93925	-0.05289
0.53123	-0.66508
-0.33583	-0.05289
-0.13181	0.15117
0.35272	0.10015
0.68424	-0.10391
0.32721	0.71234
-0.69285	0.61031
-0.08081	-0.25695
0.12320	0.02363
-0.69285	0.91640
0.27621	0.40625
0.53123	0.50828
0.09770	-0.18043
0.30171	0.30422
0.17421	-1.02219
-0.36133	-0.58856
0.70974	0.04914
0.76074	0.55929
0.58223	0.27871
0.30171	0.22769
-0.05531	0.68683
-0.18282	0.20219
-0.28482	-0.38449
-0.00431	-0.05289
0.19971	0.15117
0.12320	-0.00188
0.04670	0.10015
0.22521	0.66132
0.22521	0.35523
-0.10631	0.66132
0.19971	0.55929
0.63323	0.66132
0.32721	-0.69059
-0.25932	-1.02219
0.22521	-1.07320
-0.08081	0.91640
-0.38683	0.89089
0.48022	0.40625
0.58223	0.55929
0.48022	-0.89465
0.37822	-0.79262
0.12320	-0.23145
-0.89686	0.66132
0.22521	1.22250
0.58223	0.86539
0.14870	0.83988
-0.41233	0.20219
0.83725	0.55929
-0.28482	-0.92016
0.40372	-0.35899
0.81175	-0.05289
0.37822	-0.51203
0.40372	0.73785
0.37822	0.78886
-1.33039	-0.38449
-1.10088	-1.07320
-0.18282	-1.45582
-0.02981	0.22769
1.19427	2.11527
1.06676	1.19699
0.60773	0.32972
0.55673	0.27871
0.07220	0.43176
-0.59084	0.27871
-0.13181	-0.02739
0.42922	-0.33348
0.25071	0.04914
0.65874	-0.30797
0.40372	0.50828
-0.18282	-0.79262
-1.38139	-0.51203
-0.61635	1.06945
-0.00431	0.58480
0.48022	0.35523
0.78624	-0.66508
0.99026	-0.02739
1.14327	0.71234
0.83725	0.32972
-0.28482	0.61031
-0.99887	-0.46102
0.07220	-0.97117
-0.10631	0.43176
0.27621	0.81437
0.37822	1.06945
0.50573	-0.10391
-0.51434	-0.05289
-0.97337	-0.48652
0.53123	-0.15492
1.01576	0.40625
0.55673	0.20219
-0.10631	0.76336
-0.84586	0.55929
0.68424	0.71234
0.40372	-0.20594
0.60773	-0.71609
0.55673	-0.97117
-0.05531	-0.41000
-0.64185	0.50828
0.53123	0.68683
0.25071	0.78886
0.30171	1.12046
-0.10631	0.71234
-0.48884	-0.38449
-0.48884	-1.48133
-0.56534	-1.09871
0.04670	0.63582
0.32721	0.94191
0.58223	0.32972
0.48022	1.80917
0.73524	-0.12942
0.70974	-0.84363
0.99026	-1.35379
0.12320	0.78886
-0.33583	-0.00188
-0.10631	0.17668
0.30171	-0.10391
-1.17738	1.01843
-0.79486	0.94191
0.63323	-0.15492
0.81175	-0.02739
0.45472	-0.00188
0.35272	0.07465
-0.05531	0.25320
1.16877	0.45726
0.32721	-0.05289
0.22521	-0.61406
-0.25932	0.35523
-1.04987	0.63582
-0.74385	0.78886
0.22521	-0.15492
1.44929	-0.20594
0.04670	-0.71609
-0.15732	0.04914
0.22521	-0.33348
0.37822	1.47757
0.45472	0.48277
0.42922	-0.28246
0.09770	-0.38449
0.40372	0.76336
-0.10631	0.96742
-1.38139	0.25320
0.12320	-0.18043
-0.00431	0.25320
0.91375	-0.25695
0.73524	-0.71609
0.40372	0.22769
0.32721	0.15117
0.17421	0.22769
0.12320	0.81437
-1.02437	0.61031
-1.20288	0.71234
0.37822	-1.43031
0.50573	-0.61406
0.48022	-0.48652
0.68424	0.38074
0.58223	0.96742
0.68424	0.50828
-0.82036	0.43176
0.02119	0.07465
0.93925	0.02363
0.07220	0.30422
0.30171	0.15117
-0.08081	0.20219
-0.38683	-0.33348
-0.46334	0.10015
0.55673	0.20219
-0.33583	-0.12942
-0.10631	0.22769
0.50573	-0.74160
1.11776	-0.18043
-0.71835	-0.33348
0.30171	0.73785
0.32721	1.17148
0.27621	1.14597
0.53123	0.48277
0.25071	-1.55785
-0.23382	0.07465
0.02119	-0.07840
-0.18282	1.22250
-0.51434	0.55929
-0.05531	0.10015
1.24527	-0.30797
0.63323	-0.07840
0.27621	0.45726
-0.02981	0.61031
-0.15732	-0.25695
0.12320	0.04914
-0.36133	-2.32308
0.40372	0.86539
-0.02981	0.45726
-0.28482	0.32972
-0.43783	1.42656
-0.15732	-0.00188
0.70974	-0.20594
1.04126	0.15117
0.70974	-0.07840
0.81175	0.53379
0.25071	0.45726
0.07220	0.04914
-0.10631	0.22769
0.04670	-0.10391
0.14870	0.40625
-0.05531	-0.66508
-0.48884	-0.15492
-0.38683	0.32972
0.86275	0.32972
-0.69285	0.32972
0.09770	0.45726
0.40372	0.17668
0.14870	-0.51203
0.27621	-0.00188
1.04126	0.45726
0.55673	0.58480
0.58223	0.20219
0.25071	0.25320
-0.20832	-0.00188
0.19971	1.01843
-0.08081	-0.20594
-0.43783	0.27871
-0.10631	0.02363
0.02119	-0.25695
-0.05531	-0.61406
-0.99887	0.10015
0.02119	0.78886
0.70974	0.43176
0.70974	-0.20594
0.63323	0.50828
0.58223	0.30422
0.19971	0.17668
0.22521	-0.25695
0.02119	0.40625
-0.00431	0.55929
-0.51434	-0.41000
-0.02981	-0.92016
0.25071	-0.15492
0.07220	1.01843
0.99026	0.73785
0.32721	0.61031
-0.61635	-0.25695
-0.31033	0.32972
0.17421	-0.07840
0.40372	-0.66508
-0.48884	0.30422
0.63323	0.55929
1.78081	0.86539
0.32721	0.50828
-0.38683	-0.66508
0.02119	0.27871
-0.87136	-0.66508
0.63323	0.15117
-0.36133	0.50828
0.07220	0.40625
0.88825	0.66132
0.50573	-0.46102
-0.46334	-0.48652
-0.02981	0.76336
0.12320	0.71234
-0.10631	-0.18043
0.17421	0.07465
0.37822	0.53379
0.45472	-0.10391
-0.10631	-0.58856
0.17421	-0.56305
0.53123	0.55929
0.60773	0.48277
-0.71835	1.14597
-0.79486	0.22769
0.78624	1.01843
0.68424	0.50828
0.65874	-0.00188
-0.20832	-1.43031
0.02119	0.12566
-0.08081	-1.30277
-0.48884	-0.18043
0.40372	0.83988
0.14870	1.27351
-0.13181	1.27351
0.17421	-0.41000
0.55673	-0.28246
1.19427	-1.58336
0.50573	-0.15492
-0.08081	1.29902
-0.18282	1.93671
-0.33583	0.63582
-0.87136	-0.79262
0.02119	-1.04770
-0.00431	-0.48652
1.01576	0.45726
0.50573	0.50828
-0.00431	0.58480
0.60773	0.43176
1.04126	0.35523
-0.05531	-0.15492
-0.79486	-0.28246
-0.74385	0.15117
-0.43783	-0.05289
-0.15732	0.07465
0.81175	-0.15492
0.78624	0.48277
0.73524	0.35523
0.14870	0.43176
-0.89686	-0.33348
0.35272	-0.25695
0.42922	-0.38449
0.27621	0.38074
0.48022	0.76336
0.32721	0.78886
0.17421	0.71234
-0.13181	0.48277
-0.38683	-0.28246
-0.02981	-0.46102
0.53123	-0.25695
0.02119	-0.69059
0.07220	0.48277
-0.10631	0.32972
-0.69285	0.58480
0.04670	-0.00188
0.99026	0.48277
0.12320	0.20219
0.42922	0.71234
1.09226	0.35523
0.53123	-0.12942
0.22521	-0.35899
-0.23382	-1.37929
-0.41233	-0.76711
-0.02981	0.89089
0.27621	0.96742
0.30171	0.50828
-0.51434	0.15117
-0.13181	0.76336
0.48022	0.12566
0.65874	-0.05289
-0.87136	0.99292
-1.04987	-0.05289
0.50573	-0.92016
0.93925	0.15117
0.55673	0.50828
0.86275	0.50828
0.65874	0.73785
-0.00431	-0.99668
-0.84586	-1.30277
-0.56534	0.30422
0.76074	0.89089
0.50573	0.91640
0.12320	0.40625
0.07220	-0.00188
0.42922	0.15117
-0.53984	-0.15492
-0.23382	0.32972
0.35272	0.04914
-0.41233	-0.10391
-0.46334	-0.51203
-0.51434	0.61031
1.24527	-0.30797
0.93925	0.15117
0.76074	0.10015
0.50573	0.32972
0.12320	1.45206
0.14870	0.66132
0.04670	-0.51203
-0.00431	-1.58336
0.19971	-0.79262
-0.33583	0.89089
-0.38683	0.68683
-0.08081	0.61031
0.02119	0.63582
0.25071	0.45726
0.32721	-0.58856
0.60773	0.15117
0.88825	0.58480
-0.20832	0.07465
-0.64185	-0.56305
-0.53984	0.78886
0.37822	-0.18043
0.55673	-1.40480
-0.94787	-0.23145
1.52579	-0.56305
1.32178	1.35003
0.68424	1.96222
-0.28482	0.55929
-0.18282	-0.28246
-0.05531	-0.05289
-0.02981	-0.71609
0.14870	0.66132
0.40372	0.89089
0.02119	0.02363
-0.02981	-0.69059
0.32721	0.32972
-0.82036	0.55929
-0.23382	0.32972
0.32721	0.02363
0.83725	0.25320
0.32721	0.35523
-0.28482	-0.43551
0.50573	-0.66508
0.55673	-0.25695
-0.13181	0.20219
-0.61635	0.32972
0.60773	0.32972
0.78624	0.25320
0.60773	0.68683
-0.18282	1.50308
-0.36133	-0.89465
0.32721	-0.66508
0.27621	-0.53754
0.53123	0.35523
0.22521	0.83988
0.09770	1.75816
-0.25932	0.38074
-1.02437	-0.00188
0.73524	-0.25695
-0.15732	-0.07840
0.22521	-0.69059
0.76074	-0.10391
-0.08081	-0.99668
-0.08081	0.63582
0.30171	0.96742
1.19427	0.50828
0.83725	0.50828
-0.59084	0.07465
-0.99887	-0.86914
-0.89686	0.48277
0.68424	0.17668
0.73524	0.55929
0.73524	0.66132
0.83725	-0.10391
0.35272	-0.35899
-0.69285	0.10015
0.02119	0.25320
0.02119	0.15117
-0.64185	-0.00188
-0.28482	-0.28246
0.60773	0.43176
-0.05531	0.45726
-0.05531	0.17668
0.42922	0.15117
-0.00431	-1.02219
0.58223	0.20219
0.37822	0.63582
-0.00431	0.66132
0.02119	0.25320
0.32721	0.17668
0.48022	-0.00188
0.45472	0.17668
-0.41233	0.27871
-0.38683	0.32972
0.19971	0.20219
-0.31033	0.30422
0.63323	0.15117
0.45472	-0.12942
-0.51434	-0.28246
0.30171	-0.18043
1.01576	-0.53754
0.50573	-0.07840
0.86275	1.22250
-0.00431	0.50828
-2.01894	0.63582
0.58223	0.15117
0.22521	0.02363
0.12320	-1.20074
0.30171	0.66132
0.42922	0.76336
-0.13181	0.55929
0.14870	0.32972
0.07220	-0.41000
0.07220	-0.15492
0.35272	0.20219
-0.46334	0.22769
-0.05531	0.48277
0.27621	0.66132
0.02119	0.58480
-0.10631	-0.84363
1.14327	-0.69059
-0.10631	-0.20594
0.25071	0.22769
0.35272	0.25320
-0.02981	0.83988
0.04670	0.02363
0.73524	0.61031
0.22521	0.81437
0.19971	-0.23145
0.81175	0.38074
0.04670	-0.10391
-1.10088	-0.18043
-0.41233	-0.07840
-0.15732	0.35523
0.19971	-0.35899
-0.05531	0.50828
0.81175	1.24800
-0.15732	0.04914
0.68424	-0.10391
0.55673	0.61031
0.37822	0.38074
-0.05531	-0.48652
0.25071	-1.14973
0.09770	-0.07840
0.32721	0.66132
0.48022	0.30422
0.27621	0.66132
-0.51434	-0.00188
-0.71835	0.48277
0.02119	0.12566
0.48022	0.10015
0.63323	0.40625
0.22521	-0.43551
0.53123	-0.41000
0.32721	0.20219
0.30171	0.17668
-0.61635	0.89089
-0.87136	-0.00188
-0.66735	0.38074
0.40372	0.73785
1.19427	0.15117
0.99026	-0.28246
0.30171	0.25320
0.55673	0.25320
-0.38683	0.25320
-0.41233	0.22769
0.19971	0.10015
0.78624	-0.38449
0.40372	-0.12942
-0.76936	0.63582
-0.56534	-0.46102
0.19971	0.10015
0.96476	-0.51203
0.40372	0.04914
-0.15732	0.27871
-0.61635	0.81437
-0.13181	0.81437
0.63323	0.38074
0.55673	-0.10391
-0.02981	0.35523
-0.28482	-0.02739
-0.33583	-0.10391
0.78624	0.50828
0.63323	-0.10391
0.50573	0.35523
0.50573	0.30422
0.30171	0.12566
-0.51434	0.07465
-0.71835	-0.20594
-0.00431	-0.07840
0.32721	-0.35899
0.02119	-0.10391
-0.18282	0.55929
0.53123	0.78886
0.63323	0.48277
-0.00431	-0.53754
-0.00431	-0.74160
0.60773	0.17668
0.60773	1.75816
0.40372	0.40625
-1.22839	-1.09871
-0.71835	-0.25695
0.12320	0.76336
0.83725	0.68683
1.19427	0.68683
0.73524	0.02363
-0.02981	0.48277
-0.48884	0.68683
0.32721	-0.05289
0.02119	-0.84363
-0.05531	-0.89465
-0.48884	-0.58856
-0.08081	0.35523
1.11776	0.83988
0.48022	0.86539
-0.33583	0.45726
0.14870	0.17668
-0.18282	-0.48652
-0.36133	0.38074
0.45472	0.10015
0.68424	0.38074
0.50573	-0.15492
0.12320	0.35523
0.09770	0.15117
0.17421	0.20219
0.14870	0.30422
0.32721	-0.05289
0.37822	0.40625
-0.15732	-0.00188
0.37822	-0.56305
-0.92237	-0.10391
-0.33583	0.40625
-0.13181	-0.00188
0.17421	0.04914
0.91375	0.38074
1.01576	1.12046
0.73524	0.83988
0.35272	-0.56305
-0.20832	-0.25695
-1.81492	0.66132
0.12320	-0.41000
-0.13181	0.22769
1.21977	0.22769
1.37278	0.45726
0.73524	0.99292
0.17421	-0.53754
-0.13181	-1.45582
-0.15732	-1.22625
0.02119	0.99292
-0.20832	0.48277
0.48022	0.76336
0.07220	0.68683
-0.23382	0.73785
0.17421	1.19699
-1.35589	-0.10391
0.07220	-0.20594
0.35272	-0.56305
0.27621	-0.48652
0.73524	0.04914
-0.08081	0.02363
0.83725	0.38074
0.86275	0.07465
0.83725	-0.07840
0.88825	0.22769
-0.23382	0.78886
-0.97337	-0.05289
-0.23382	-0.00188
-0.02981	0.02363
-0.15732	0.73785
0.09770	0.45726
-0.48884	-0.18043
0.45472	-0.20594
0.86275	0.86539
0.40372	0.15117
0.27621	-0.23145
-0.38683	-0.69059
-0.08081	0.10015
0.35272	0.68683
0.60773	0.07465
-0.00431	1.06945
0.42922	1.52859
0.07220	-1.14973
-0.31033	-1.73640
-0.51434	-0.61406
0.27621	0.91640
0.70974	0.91640
0.73524	1.27351
-0.13181	0.55929
0.09770	-0.66508
0.68424	-1.53234
-0.28482	-1.20074
-0.28482	-0.15492
0.45472	1.52859
0.70974	1.63062
0.02119	1.06945
-0.59084	-0.15492
-0.02981	0.10015
-0.13181	-0.84363
-0.69285	-0.07840
0.65874	0.38074
0.86275	0.38074
0.42922	-0.02739
0.17421	-0.00188
0.02119	0.61031
0.12320	-0.56305
0.04670	0.22769
0.37822	0.22769
0.32721	-0.10391
0.12320	0.61031
-0.18282	0.35523
-0.61635	-0.48652
-0.53984	-0.81812
0.07220	-0.05289
-0.20832	1.09496
0.25071	0.40625
0.91375	0.45726
0.83725	0.43176
0.70974	0.78886
0.30171	0.15117
0.25071	-0.00188
-0.46334	-0.56305
0.04670	0.10015
-0.36133	-0.02739
-0.08081	0.20219
0.30171	0.02363
0.76074	0.58480
0.73524	-0.51203
0.02119	-0.71609
0.48022	1.14597
-0.48884	-0.00188
-0.61635	0.35523
0.07220	-0.74160
0.48022	-0.56305
-0.05531	0.81437
0.12320	1.27351
0.17421	1.04394
0.12320	-0.05289
0.45472	-0.25695
0.04670	-0.10391
0.58223	0.76336
0.27621	-0.23145
-0.15732	-0.71609
0.07220	-0.35899
-0.10631	0.81437
0.55673	0.61031
-0.13181	0.22769
0.09770	-0.20594
0.02119	0.20219
-0.23382	-0.35899
0.48022	-0.00188
0.32721	-0.12942
-0.15732	0.58480
0.81175	0.38074
1.16877	0.76336
0.17421	-0.41000
-0.05531	0.81437
-0.64185	1.06945
-1.61091	-0.53754
-0.33583	-0.12942
1.21977	-1.17523
0.86275	-0.48652
0.37822	-0.05289
0.27621	1.04394
-0.18282	0.66132
0.27621	0.27871
1.14327	0.58480
-0.76936	0.20219
-0.38683	1.22250
0.35272	-0.12942
0.22521	-0.12942
0.22521	-0.99668
-0.08081	-0.46102
0.68424	0.40625
0.42922	0.61031
-0.15732	0.22769
-0.69285	0.61031
0.22521	-0.10391
0.53123	0.12566
0.35272	0.02363
0.22521	-0.23145
-0.79486	-0.89465
-0.53984	0.73785
0.25071	0.63582
0.40372	0.83988
0.91375	0.58480
1.29628	0.02363
0.37822	-0.99668
-0.00431	-0.30797
-0.64185	0.12566
-0.92237	1.17148
-0.20832	0.73785
0.42922	0.25320
0.65874	0.50828
0.32721	-0.30797
0.60773	0.35523
-0.10631	0.15117
-0.43783	0.86539
-0.53984	-0.58856
0.48022	-0.48652
0.73524	-0.56305
0.27621	-0.38449
0.37822	-0.07840
0.22521	0.30422
0.17421	1.32453
-0.20832	0.66132
0.02119	0.20219
0.96476	0.02363
0.12320	0.02363
-0.53984	-0.10391
-0.31033	0.35523
0.09770	0.15117
-0.18282	-0.10391
-0.10631	0.86539
0.70974	0.25320
0.81175	0.02363
0.70974	-0.92016
0.02119	-1.25176
-0.25932	-0.56305
0.42922	0.10015
0.73524	2.14077
0.09770	1.83468
-1.73842	0.89089
0.45472	0.86539
0.73524	-0.30797
0.37822	0.20219
-0.64185	-1.12422
0.22521	0.30422
0.19971	-0.38449
0.37822	-1.35379
1.04126	-0.86914
0.65874	-1.17523
0.32721	1.32453
-0.08081	1.93671
-0.31033	1.12046
-0.53984	0.43176
0.65874	0.43176
0.07220	0.25320
0.19971	-0.81812
-0.46334	-0.05289
-0.18282	-0.15492
-0.36133	0.02363
0.02119	0.17668
0.02119	-0.00188
0.37822	0.22769
0.81175	-0.02739
0.58223	0.22769
0.50573	0.15117
0.86275	0.35523
0.50573	0.66132
-0.20832	-0.48652
-0.20832	0.12566
-0.05531	-0.69059
0.12320	0.68683
0.58223	0.58480
-0.33583	1.52859
-0.43783	-0.02739
-0.28482	-0.30797
0.04670	-0.43551
0.37822	-0.30797
0.53123	0.45726
0.35272	0.07465
0.32721	0.53379
-1.10088	0.25320
-0.18282	0.04914
0.22521	-0.02739
0.93925	-1.60887
0.02119	0.15117
0.73524	0.45726
0.02119	0.86539
0.83725	0.63582
0.73524	-0.43551
-0.00431	0.58480
-0.33583	-0.25695
-0.08081	0.27871
-0.41233	0.81437
-0.38683	0.45726
0.25071	0.32972
0.32721	-0.61406
0.37822	0.20219
0.45472	-0.23145
-0.08081	-0.35899
0.30171	0.10015
0.22521	0.48277
-0.15732	0.55929
-0.71835	0.12566
0.09770	-0.38449
0.60773	0.22769
0.55673	0.40625
0.30171	0.40625
0.02119	0.20219
0.99026	0.20219
1.04126	0.68683
-0.59084	-0.18043
-0.97337	-0.66508
-0.71835	0.07465
0.04670	0.48277
0.50573	0.17668
0.63323	0.30422
0.40372	0.45726
0.88825	0.48277
0.48022	0.38074
-0.36133	0.04914
0.45472	0.17668
-0.05531	-0.07840
-0.48884	-0.41000
-0.59084	0.17668
0.25071	-0.33348
0.30171	0.45726
0.42922	-0.74160
0.58223	-0.00188
-0.00431	0.07465
-0.02981	0.20219
-0.08081	0.12566
0.22521	0.91640
0.02119	1.27351
0.42922	1.93671
0.27621	-0.20594
0.40372	-1.50683
-0.28482	-1.09871
-0.33583	-0.10391
0.09770	1.22250
0.22521	1.50308
0.32721	0.04914
0.17421	-0.43551
0.70974	-0.92016
0.63323	0.99292
0.22521	-0.71609
-0.08081	-0.41000
-0.10631	-1.04770
-1.27939	0.58480
-0.41233	0.86539
0.81175	0.76336
1.09226	1.01843
0.63323	0.73785
0.42922	0.30422
-0.79486	0.32972
-0.18282	-0.43551
-0.82036	-0.18043
1.55129	-0.30797
0.32721	-0.66508
0.02119	0.35523
0.22521	0.45726
0.68424	0.15117
-0.18282	0.20219
-0.02981	0.32972
-0.05531	0.04914
-0.36133	-0.38449
0.27621	0.22769
0.02119	0.12566
0.45472	0.61031
0.19971	0.76336
0.14870	-0.18043
-0.08081	0.76336
-0.05531	-0.10391
0.45472	-0.20594
0.12320	-1.25176
0.30171	0.07465
0.27621	0.61031
0.25071	-0.15492
-0.05531	0.38074
-0.33583	0.73785
0.27621	0.94191
0.40372	0.25320
0.35272	-0.23145
0.37822	0.35523
0.37822	0.07465
0.35272	0.30422
-0.23382	-0.38449
0.40372	-0.74160
0.19971	-0.46102
-0.13181	-0.02739
-1.25389	0.53379
-1.50890	0.17668
0.76074	0.25320
1.32178	0.20219
1.14327	0.61031
0.12320	0.48277
0.32721	0.35523
0.65874	0.22769
0.17421	0.04914
-0.20832	-0.02739
0.07220	-0.05289
-0.10631	0.15117
0.35272	0.38074
0.04670	-0.25695
-0.20832	0.12566
-0.56534	-0.81812
0.02119	0.02363
0.27621	0.50828
0.60773	0.40625
0.86275	0.71234
0.30171	1.27351
-0.43783	0.78886
-0.41233	-0.51203
0.63323	-0.86914
0.53123	0.02363
0.14870	0.35523
-0.13181	-0.25695
0.40372	-0.69059
0.68424	-0.18043
-0.13181	0.86539
-0.33583	0.53379
-0.02981	1.01843
0.25071	0.15117
0.19971	-0.05289
0.40372	0.02363
-0.02981	-0.05289
-0.28482	0.68683
0.12320	-0.10391
0.09770	-0.00188
0.32721	-0.46102
0.73524	-0.38449
0.73524	-0.20594
0.76074	0.15117
0.09770	0.15117
-0.56534	0.91640
-0.71835	0.55929
-0.18282	0.20219
0.12320	0.66132
0.68424	1.06945
0.88825	0.22769
0.81175	-0.07840
0.12320	-0.56305
-0.76936	-0.41000
-0.82036	-0.25695
0.14870	-0.94566
0.48022	0.12566
0.55673	0.43176
-0.15732	0.58480
0.27621	0.71234
0.83725	0.07465
0.53123	0.76336
-0.33583	0.10015
0.17421	-0.07840
-0.59084	-0.66508
0.04670	0.04914
0.91375	0.50828
0.17421	0.04914
0.14870	0.17668
-0.20832	0.61031
0.12320	-0.05289
0.45472	0.30422
0.35272	-0.48652
-0.33583	0.02363
-0.59084	-0.12942
0.63323	0.81437
0.45472	0.30422
-0.02981	0.20219
0.19971	-0.28246
0.37822	0.25320
0.14870	0.07465
-0.05531	0.25320
0.32721	-1.20074
-0.05531	-0.23145
0.42922	0.68683
-0.38683	1.04394
-1.10088	0.15117
0.19971	0.02363
0.50573	0.50828
0.07220	1.06945
0.50573	0.38074
0.68424	-0.28246
0.83725	-0.15492
0.55673	0.38074
-0.25932	0.50828
0.02119	0.12566
-0.08081	0.17668
0.35272	-0.33348
-0.00431	-0.23145
-0.59084	-1.12422
-0.23382	-0.10391
0.02119	0.32972
0.37822	0.63582
0.12320	0.45726
0.22521	0.61031
0.48022	0.12566
0.53123	0.53379
0.02119	-0.41000
-0.05531	0.22769
0.09770	0.15117
0.37822	-0.05289
0.12320	0.30422
0.12320	0.71234
-0.02981	-0.15492
0.22521	0.12566
0.17421	-0.15492
-1.07538	0.61031
-0.00431	0.20219
0.40372	0.96742
0.48022	0.66132
0.45472	-0.81812
0.30171	-0.41000
0.63323	-0.05289
0.32721	0.15117
0.40372	0.27871
0.68424	0.86539
-0.64185	-0.43551
-0.10631	-0.38449
-0.94787	-0.41000
-1.10088	1.68163
0.14870	-0.43551
0.78624	-0.12942
1.50029	-0.51203
0.50573	0.91640
1.19427	1.32453
-0.33583	0.38074
-0.84586	0.17668
0.07220	-0.48652
0.25071	-0.25695
0.19971	0.53379
0.40372	0.25320
0.02119	-0.18043
-0.28482	0.02363
0.14870	0.15117
0.19971	0.10015
-0.18282	0.04914
0.04670	0.45726
0.40372	0.10015
0.22521	-0.05289
0.40372	0.15117
0.12320	0.25320
0.09770	0.10015
-0.00431	0.04914
0.04670	-0.07840
0.07220	1.63062
0.27621	-0.20594
0.25071	-0.56305
0.32721	-0.76711
0.32721	-0.35899
0.30171	0.73785
0.07220	0.73785
0.02119	1.01843
0.02119	1.06945
0.12320	-0.12942
0.19971	-0.99668
0.14870	-0.25695
0.07220	0.25320
0.22521	-0.00188
0.14870	0.32972
0.22521	0.22769
0.22521	0.66132
0.12320	0.04914
-0.10631	0.48277
-0.00431	-0.81812
-0.36133	0.45726
0.55673	0.50828
0.91375	0.15117
-0.28482	-1.02219
-0.53984	-0.81812
-1.02437	-0.89465
0.35272	0.76336
1.24527	0.96742
1.16877	0.89089
0.27621	0.99292
0.81175	0.43176
0.12320	0.32972
-0.79486	0.50828
-0.38683	-0.61406
0.02119	-0.10391
0.02119	-0.23145
-0.31033	0.32972
0.37822	-0.15492
