-0.05531	0.45726
0.22521	0.32972
-0.13181	0.15117
0.35272	-0.05289
0.63323	-0.46102
0.19971	-0.46102
0.17421	0.32972
0.17421	0.61031
0.02119	0.63582
0.17421	0.48277
0.07220	0.25320
0.14870	0.12566
0.04670	0.02363
0.25071	-0.07840
0.07220	0.32972
0.14870	0.07465
0.17421	-0.02739
0.14870	-0.15492
0.14870	0.25320
0.12320	0.25320
0.14870	0.15117
0.12320	0.20219
0.12320	0.04914
0.12320	0.22769
0.19971	0.20219
0.09770	0.20219
0.19971	0.04914
0.35272	0.07465
0.14870	0.10015
0.30171	0.17668
-0.08081	0.15117
0.02119	-0.05289
0.09770	0.20219
0.09770	0.40625
0.17421	0.35523
0.14870	0.35523
0.27621	0.10015
0.09770	-0.15492
0.19971	-0.23145
0.12320	0.17668
0.12320	0.17668
0.04670	0.25320
0.07220	0.32972
0.25071	0.25320
0.19971	0.12566
0.04670	0.10015
0.12320	-0.02739
-0.02981	0.10015
0.17421	0.12566
1.01576	0.12566
-0.00431	0.15117
0.02119	0.07465
-0.08081	0.15117
-0.28482	0.02363
0.22521	0.22769
0.83725	0.10015
0.02119	0.07465
-0.05531	0.27871
0.04670	0.15117
0.07220	0.40625
0.07220	0.38074
0.09770	-0.00188
-0.00431	-0.12942
0.22521	-0.25695
0.27621	0.32972
0.12320	0.27871
0.25071	-0.02739
0.09770	0.02363
0.12320	0.12566
0.17421	0.35523
0.12320	0.43176
0.12320	0.55929
0.04670	0.53379
0.19971	0.10015
0.17421	-0.02739
0.14870	0.04914
0.12320	-0.02739
0.19971	0.15117
0.19971	-0.12942
0.07220	-0.02739
0.17421	0.04914
0.22521	0.10015
0.09770	0.15117
0.27621	0.25320
0.14870	0.12566
-0.46334	0.02363
0.32721	0.22769
0.25071	0.30422
0.22521	0.38074
0.25071	0.20219
0.14870	0.04914
0.09770	-0.07840
0.19971	0.02363
0.07220	0.20219
0.17421	0.04914
0.14870	-0.33348
0.07220	0.07465
0.22521	0.78886
0.09770	0.76336
0.14870	0.48277
0.07220	0.27871
0.09770	0.25320
0.17421	-0.00188
0.09770	-0.00188
0.19971	-0.35899
0.07220	-0.46102
0.17421	-0.05289
0.12320	0.15117
0.04670	0.35523
0.17421	0.20219
0.17421	0.22769
-0.05531	0.17668
0.19971	0.25320
0.42922	0.30422
0.12320	0.15117
0.07220	0.17668
0.12320	-0.07840
0.17421	0.10015
0.07220	0.30422
0.14870	0.22769
0.12320	0.15117
0.17421	0.02363
0.12320	0.45726
0.22521	-0.00188
0.07220	-0.07840
0.19971	-0.66508
0.22521	0.15117
0.09770	0.53379
0.19971	0.50828
0.07220	-0.00188
0.14870	0.12566
0.02119	0.50828
0.19971	0.38074
0.02119	0.48277
0.17421	0.12566
0.17421	0.10015
0.14870	0.10015
0.17421	-0.07840
0.12320	-0.05289
0.14870	-0.15492
-0.15732	-0.07840
0.30171	-0.02739
0.25071	0.12566
0.40372	0.20219
-0.08081	0.25320
-0.13181	0.25320
0.53123	0.07465
0.07220	0.15117
0.07220	0.25320
0.17421	-0.07840
0.12320	0.02363
0.09770	0.07465
0.19971	0.35523
0.12320	0.20219
0.14870	0.61031
0.22521	0.38074
0.09770	-0.05289
0.17421	0.15117
0.22521	0.35523
0.12320	0.04914
0.14870	0.02363
0.22521	-0.10391
-0.00431	0.17668
0.14870	0.27871
0.14870	0.04914
0.04670	-0.02739
0.25071	0.02363
0.12320	0.32972
0.14870	0.25320
0.17421	-0.10391
0.04670	-0.20594
0.19971	-0.07840
0.14870	0.12566
0.07220	0.55929
0.22521	0.45726
0.14870	0.22769
0.14870	0.40625
0.19971	0.02363
0.09770	-0.07840
0.09770	-0.15492
0.09770	-0.33348
0.02119	-0.61406
0.14870	-0.12942
0.09770	0.15117
0.27621	1.29902
0.19971	1.32453
0.12320	0.96742
0.12320	0.81437
0.19971	-0.10391
0.17421	-0.30797
0.02119	-0.15492
0.22521	-0.10391
0.09770	-0.10391
0.22521	-0.43551
0.14870	-0.30797
0.09770	-0.23145
0.27621	0.07465
0.07220	0.10015
0.14870	0.15117
0.04670	0.40625
0.30171	0.32972
-0.00431	0.45726
0.07220	0.38074
0.02119	0.10015
0.12320	0.17668
0.12320	0.12566
0.32721	0.12566
0.88825	0.27871
-0.02981	0.32972
-0.18282	0.17668
0.19971	0.07465
-0.08081	-0.05289
-0.05531	0.10015
0.17421	0.15117
0.19971	-0.02739
0.12320	0.12566
0.25071	-0.05289
0.09770	0.32972
0.19971	0.48277
0.12320	-0.23145
0.09770	-0.53754
0.17421	-0.23145
0.04670	-0.48652
0.09770	0.71234
0.22521	1.17148
0.14870	0.99292
0.12320	1.12046
0.14870	0.55929
0.14870	-0.43551
0.07220	-0.99668
0.12320	-0.18043
0.09770	-0.05289
0.09770	-0.00188
0.19971	0.35523
0.22521	0.48277
0.14870	0.43176
0.17421	0.22769
0.19971	-0.15492
0.12320	-0.23145
0.17421	0.20219
0.09770	0.32972
-0.02981	0.22769
0.42922	0.22769
0.07220	0.10015
-0.00431	-0.00188
0.25071	0.07465
0.22521	0.04914
0.09770	0.02363
0.27621	0.10015
0.07220	0.10015
-0.71835	0.94191
0.50573	0.30422
0.27621	0.07465
0.58223	-0.53754
0.19971	-1.55785
0.27621	-0.18043
0.09770	0.30422
0.12320	1.29902
0.12320	1.17148
-0.08081	0.81437
-0.15732	0.55929
-0.15732	0.30422
-0.08081	0.02363
0.25071	-0.25695
0.42922	-0.25695
0.27621	-0.15492
0.35272	-0.20594
0.83725	0.15117
0.42922	-0.10391
0.07220	-0.00188
-0.02981	0.02363
0.02119	0.02363
-0.10631	0.30422
0.12320	0.25320
-0.08081	0.27871
-0.02981	0.43176
0.12320	0.45726
0.12320	0.32972
0.14870	0.04914
0.12320	0.35523
0.17421	-0.18043
0.32721	0.04914
0.19971	-0.23145
0.32721	-0.07840
0.07220	0.50828
0.17421	1.19699
-0.02981	0.76336
-0.28482	0.15117
0.19971	-0.63957
0.35272	-1.17523
0.35272	-0.30797
0.12320	0.83988
0.22521	1.24800
0.93925	1.29902
0.58223	-0.07840
-0.18282	0.07465
-1.02437	-1.48133
-0.97337	-0.15492
-0.76936	3.33964
0.45472	-0.38449
1.04126	-4.41472
1.21977	-1.55785
1.27078	0.40625
1.24527	4.13038
0.45472	2.49788
-0.13181	1.52859
-0.97337	-0.07840
-2.57997	-2.85874
-0.38683	-1.40480
0.65874	-0.02739
0.45472	0.58480
1.19427	-0.58856
0.86275	-0.02739
0.70974	2.19179
0.81175	0.96742
0.48022	0.15117
-0.92237	-1.68539
-1.25389	0.78886
-1.02437	2.06425
0.22521	0.63582
0.42922	0.63582
0.55673	-0.15492
0.63323	-0.33348
0.70974	-1.04770
0.40372	-0.46102
-0.05531	-0.56305
0.22521	-1.04770
0.12320	0.04914
-0.08081	0.99292
-0.18282	0.58480
-0.08081	1.09496
0.02119	0.45726
0.12320	-2.93527
0.22521	-1.07320
0.22521	-1.37929
0.32721	1.52859
0.09770	2.03874
0.12320	0.71234
-0.00431	1.52859
0.63323	0.76336
0.37822	1.27351
-0.46334	0.12566
-0.76936	3.41616
-0.15732	-1.14973
0.60773	-0.84363
1.24527	-3.67499
0.63323	-2.17003
0.73524	0.66132
-0.00431	1.83468
-1.33039	2.29382
-0.28482	-0.84363
-0.41233	-0.23145
0.25071	-0.97117
0.58223	0.99292
0.45472	-2.19554
1.16877	0.43176
0.86275	2.24281
0.09770	0.53379
-0.18282	-1.27726
-0.28482	0.81437
-0.25932	1.96222
-0.94787	-0.66508
-0.33583	-0.46102
0.42922	-0.97117
0.76074	1.80917
0.76074	1.73265
0.14870	0.53379
0.07220	-1.32828
-0.10631	-0.18043
0.19971	-0.38449
0.12320	0.02363
-0.08081	-0.38449
-0.10631	0.25320
-0.28482	-1.27726
0.19971	0.35523
0.50573	2.39585
0.60773	-2.14453
0.14870	-0.38449
0.02119	-0.25695
-0.05531	1.40105
-0.33583	1.01843
0.27621	1.45206
-0.38683	2.14077
0.40372	0.30422
0.07220	-0.76711
-0.69285	-0.89465
0.45472	-0.61406
-0.00431	-0.81812
1.29628	0.61031
1.62780	-0.58856
0.99026	-0.43551
-0.76936	-1.58336
-0.66735	1.57960
1.29628	1.86019
0.42922	1.73265
-0.94787	0.35523
-1.63641	-0.66508
-1.20288	-1.88945
0.48022	-0.61406
0.76074	-1.27726
1.01576	4.13038
-0.10631	0.83988
0.09770	0.17668
0.22521	-0.74160
0.40372	1.52859
0.96476	-0.15492
0.50573	-0.76711
-0.02981	-0.69059
-0.87136	0.25320
-0.10631	0.07465
0.68424	-1.12422
0.37822	-0.30797
0.48022	2.24281
0.22521	0.83988
-0.02981	-0.66508
0.09770	-1.71090
-0.33583	0.83988
-0.08081	1.40105
0.58223	0.27871
0.30171	0.40625
-0.28482	0.76336
-0.61635	-0.18043
0.42922	-1.07320
0.07220	-1.86394
-0.69285	-1.09871
-0.00431	2.08976
2.11233	0.20219
1.27078	-0.28246
-0.53984	2.24281
-0.28482	-0.74160
-0.13181	1.24800
-0.15732	-0.76711
0.73524	0.17668
0.81175	-0.51203
-0.08081	0.78886
-1.43240	2.93151
-0.31033	-1.07320
0.53123	0.30422
0.93925	-0.61406
-0.08081	3.36515
0.81175	-2.19554
0.09770	-1.22625
-0.53984	0.53379
-0.61635	1.63062
-0.87136	1.29902
0.81175	-0.23145
0.32721	-2.52714
0.73524	-3.75152
0.65874	0.02363
0.53123	0.30422
0.09770	1.09496
-0.48884	1.19699
0.02119	3.64573
0.32721	1.65613
0.02119	0.61031
-0.02981	-3.06281
0.14870	-1.32828
0.53123	-0.46102
0.91375	1.96222
-0.05531	1.52859
-0.69285	0.73785
-0.76936	-0.02739
-1.25389	-0.71609
0.37822	-0.86914
1.50029	-1.09871
0.93925	-0.25695
0.53123	0.55929
1.09226	1.01843
1.39828	-0.38449
-0.38683	0.15117
-0.53984	0.48277
-1.61091	0.32972
0.53123	0.89089
0.53123	0.81437
-0.23382	-0.94566
0.83725	0.81437
0.73524	1.75816
0.63323	-1.12422
0.42922	-1.91496
-0.46334	-3.47093
-0.79486	1.98773
-1.07538	2.37034
-0.71835	2.01323
-0.15732	1.24800
1.11776	4.13038
0.96476	-1.91496
0.37822	-3.13933
-0.00431	-6.12374
0.22521	0.50828
0.32721	1.42656
0.73524	3.82429
0.53123	-0.99668
0.63323	1.80917
-0.89686	1.88570
-0.69285	0.00000
0.12320	0.00000
0.60773	0.00000
0.32721	0.00000
-0.13181	0.00000
0.02119	0.00000
-0.33583	0.81437
0.07220	0.25320
0.91375	-1.12422
0.30171	-0.94566
-0.28482	-1.14973
0.68424	-1.94047
-1.10088	2.37034
1.04126	-0.38449
0.78624	0.45726
-0.59084	-1.99148
0.58223	0.55929
-0.05531	0.40625
0.09770	1.27351
-0.20832	1.57960
-0.87136	1.42656
-0.23382	-0.51203
2.41835	0.96742
1.27078	-0.35899
-0.05531	-0.92016
-1.04987	-0.15492
-0.31033	-1.91496
0.70974	-1.04770
0.22521	1.73265
0.40372	0.99292
-0.15732	0.12566
0.25071	0.35523
0.12320	1.75816
-0.43783	-0.41000
-0.20832	-1.73640
-0.05531	-0.79262
-0.08081	3.03355
-0.05531	1.47757
0.42922	0.50828
-0.05531	-1.81293
0.42922	-0.61406
0.40372	-2.47613
0.65874	0.12566
-0.08081	0.25320
0.25071	1.65613
0.45472	1.70714
0.91375	2.54890
0.63323	0.71234
-0.59084	-1.91496
-0.61635	-2.93527
0.27621	-4.23616
0.63323	0.91640
-0.53984	3.11007
-0.87136	2.06425
-1.76392	2.03874
1.21977	0.91640
0.83725	-0.10391
1.47479	1.09496
1.44929	-1.35379
-0.31033	-1.12422
0.45472	0.99292
0.07220	-0.58856
0.30171	-1.22625
0.12320	-1.81293
0.17421	0.43176
0.32721	2.11527
-0.08081	1.78367
-0.23382	-0.25695
-0.82036	-3.19035
-1.20288	-0.61406
0.32721	2.62542
0.19971	2.29382
0.35272	1.27351
0.91375	0.30422
0.53123	2.77847
0.53123	-1.71090
0.55673	-0.56305
0.78624	-4.23616
0.42922	-2.09351
0.17421	-0.33348
0.50573	3.08456
-0.89686	0.32972
-1.20288	-0.02739
-0.84586	1.91120
0.30171	2.67644
-0.89686	1.06945
0.55673	-1.09871
0.93925	-0.71609
1.34728	-0.38449
0.55673	0.35523
0.42922	0.22769
0.02119	-1.91496
0.19971	-0.58856
0.17421	-0.15492
-0.74385	1.22250
-0.64185	0.35523
-0.53984	-0.10391
1.16877	0.61031
0.73524	0.58480
0.50573	0.43176
0.50573	0.43176
-0.69285	0.45726
-0.69285	-0.12942
0.17421	-0.61406
0.53123	-0.07840
0.27621	0.22769
0.50573	1.37554
-0.25932	-0.18043
0.02119	-0.35899
-0.25932	-0.99668
1.32178	-1.12422
1.47479	0.89089
0.73524	0.22769
-0.56534	0.61031
0.99026	2.01323
-1.55991	-0.81812
-1.25389	-0.79262
-0.53984	-1.96597
0.93925	1.96222
0.93925	3.56921
0.86275	-0.33348
0.48022	-1.50683
0.04670	-2.04250
-0.02981	1.40105
0.07220	1.22250
0.07220	2.16628
-0.05531	-1.55785
-0.31033	-1.71090
-0.00431	-0.74160
0.68424	-0.05289
0.30171	3.79878
-0.13181	0.83988
-0.51434	-1.30277
0.07220	-3.62398
0.32721	1.86019
0.30171	1.73265
0.14870	0.86539
0.02119	-0.05289
0.58223	0.61031
0.30171	-0.53754
0.48022	1.17148
-0.13181	0.35523
0.30171	-2.65468
-0.08081	-1.58336
0.83725	-0.99668
0.96476	1.60511
0.40372	1.68163
0.37822	1.35003
-0.08081	0.55929
-1.35589	1.50308
-1.10088	0.89089
1.37278	-1.27726
-0.05531	-1.88945
-0.48884	-2.17003
-0.08081	0.89089
0.12320	0.32972
1.01576	1.86019
0.14870	1.86019
-0.23382	1.19699
-0.64185	0.86539
0.02119	-2.27207
0.81175	-1.07320
0.63323	-0.51203
0.37822	1.68163
0.78624	-3.03730
0.81175	-1.37929
-0.64185	0.02363
-0.31033	2.75296
-0.18282	4.43647
-0.84586	0.22769
0.35272	-0.86914
0.25071	-2.11902
0.68424	0.89089
0.99026	1.24800
0.83725	0.43176
0.78624	2.08976
-1.91693	-2.55265
-2.73298	0.32972
0.17421	-0.99668
2.01032	-1.53234
1.95932	-0.84363
0.14870	0.81437
0.19971	1.01843
0.02119	0.81437
0.04670	0.83988
-1.76392	0.58480
0.50573	0.43176
0.58223	0.04914
-0.28482	-0.51203
0.91375	-0.30797
0.42922	-0.15492
-0.02981	1.12046
0.04670	-0.86914
-1.02437	-0.12942
-0.23382	-0.84363
1.78081	0.48277
1.34728	1.04394
-0.00431	2.16628
0.22521	0.15117
-0.48884	1.27351
-0.66735	-3.11382
-0.28482	-0.63957
0.73524	-2.52714
0.04670	0.96742
-0.66735	3.13558
-0.20832	1.24800
0.50573	0.04914
-0.38683	3.31413
-0.33583	1.73265
-0.48884	-2.47613
1.27078	-2.29757
1.52579	-3.44542
1.34728	0.76336
1.16877	1.57960
-0.46334	0.45726
-0.99887	2.01323
-0.18282	-0.63957
-0.08081	0.38074
1.01576	1.14597
0.40372	3.11007
-1.20288	-3.54745
-0.66735	-2.22105
0.37822	-0.51203
1.16877	2.06425
-0.08081	1.83468
-0.61635	0.71234
0.07220	0.15117
-0.18282	0.20219
0.02119	0.15117
-0.05531	-0.38449
1.83181	-0.25695
1.24527	-0.30797
0.14870	-0.43551
0.12320	-0.00188
0.12320	0.22769
-0.08081	1.45206
-0.51434	-0.89465
-0.53984	0.45726
-0.10631	-1.96597
-0.05531	0.55929
-0.79486	0.63582
0.40372	1.29902
0.19971	1.42656
0.19971	-0.07840
0.73524	-1.71090
1.65330	0.27871
-0.25932	-1.50683
-0.43783	0.48277
-0.43783	1.57960
0.78624	2.11527
-0.08081	0.25320
0.02119	0.48277
-0.00431	-0.02739
0.32721	0.50828
-0.25932	-2.17003
-0.15732	0.15117
0.30171	-3.01179
1.11776	0.89089
0.04670	0.48277
0.04670	1.57960
0.42922	1.06945
0.83725	0.27871
-0.43783	-0.92016
0.70974	1.47757
-0.13181	1.24800
-0.56534	-0.05289
-1.96793	-0.79262
-1.71292	-1.04770
-0.76936	0.55929
1.50029	0.76336
1.06676	0.53379
1.29628	1.32453
0.68424	-0.25695
0.04670	-1.68539
0.88825	-0.81812
0.70974	1.37554
-0.20832	1.14597
-0.18282	-0.97117
0.65874	0.76336
-0.05531	-0.35899
-0.28482	-0.71609
-0.23382	-1.45582
-0.28482	2.85499
-0.00431	2.42136
0.09770	-0.69059
0.78624	0.10015
-0.28482	0.12566
0.12320	0.53379
-0.92237	1.19699
0.09770	-0.41000
0.96476	-1.32828
0.60773	-1.22625
1.44929	0.04914
1.01576	1.96222
0.35272	2.08976
-1.91693	-0.99668
-1.07538	-0.56305
-0.20832	-1.22625
0.73524	-0.53754
0.93925	-1.78742
0.91375	0.58480
0.14870	2.14077
-0.38683	2.08976
0.12320	0.91640
0.86275	0.25320
0.63323	0.20219
0.14870	-0.30797
-1.07538	0.15117
-0.13181	-0.35899
-0.05531	0.25320
0.93925	-1.48133
0.25071	0.07465
-0.31033	0.20219
-0.10631	0.61031
-0.28482	-0.48652
0.40372	-0.41000
0.25071	0.55929
0.22521	1.42656
-0.05531	0.83988
-0.28482	1.57960
0.48022	0.20219
0.27621	-1.22625
0.53123	-0.48652
0.17421	-1.88945
0.04670	-0.61406
-0.25932	-0.35899
0.32721	2.47238
0.27621	3.00804
0.45472	0.86539
-0.33583	-0.58856
0.88825	0.94191
0.76074	0.76336
-0.28482	-2.90976
-0.48884	-2.70570
-1.22839	-1.20074
0.04670	1.50308
0.63323	1.80917
1.47479	2.08976
-0.38683	-0.05289
-0.18282	-0.02739
0.55673	-0.76711
0.93925	0.12566
0.65874	0.27871
0.37822	0.43176
-0.38683	-0.20594
0.14870	0.04914
0.32721	1.27351
-0.28482	0.50828
-1.53441	-1.94047
-0.46334	-3.21585
0.50573	-0.20594
0.58223	2.24281
0.25071	1.70714
0.09770	1.88570
0.53123	1.09496
0.65874	0.40625
0.32721	-0.63957
0.53123	1.17148
0.93925	-0.61406
0.42922	1.40105
-0.18282	-2.52714
-1.10088	-1.27726
-1.12638	-2.39961
0.02119	1.50308
0.27621	1.78367
0.76074	-0.33348
0.63323	1.65613
0.68424	0.76336
0.45472	0.20219
0.42922	2.21730
0.65874	-0.56305
1.11776	1.70714
-0.64185	-4.38921
-2.88599	-1.81293
-1.12638	-2.17003
0.60773	1.57960
0.12320	1.93671
-0.05531	1.75816
0.65874	1.55410
2.11233	0.55929
1.47479	0.25320
0.73524	0.45726
0.27621	-0.56305
-1.12638	-0.53754
-2.12094	-0.05289
-0.43783	-0.66508
0.22521	-0.76711
0.07220	0.32972
0.99026	0.53379
-0.02981	0.02363
0.22521	0.32972
-0.13181	-0.23145
0.60773	-0.33348
0.73524	0.55929
0.02119	1.04394
0.37822	1.47757
0.70974	-0.35899
0.12320	-1.48133
-0.71835	0.66132
-0.13181	-0.61406
-0.20832	0.83988
0.42922	0.30422
0.17421	1.17148
-0.15732	-0.12942
-0.02981	0.58480
0.32721	1.09496
0.14870	-0.56305
0.45472	-0.76711
0.22521	-2.60367
0.55673	-0.41000
0.45472	0.45726
0.50573	1.42656
0.19971	2.24281
-1.38139	-0.12942
-0.64185	-1.86394
-0.20832	-0.86914
0.58223	0.35523
-0.33583	0.89089
-0.38683	0.12566
1.34728	0.45726
2.18883	0.27871
0.93925	0.66132
0.76074	0.53379
-0.02981	0.22769
-0.05531	-0.02739
0.27621	0.61031
-1.27939	-0.66508
-1.33039	-0.71609
-0.56534	-1.45582
-0.08081	0.17668
-0.20832	0.58480
0.83725	1.12046
1.01576	-0.07840
0.76074	-0.02739
-0.23382	0.66132
-0.08081	0.76336
0.22521	1.98773
0.42922	-2.60367
-0.28482	-0.23145
-0.53984	1.96222
0.37822	-0.35899
0.35272	0.32972
0.25071	-0.56305
0.42922	2.06425
0.53123	-0.63957
0.22521	-0.25695
0.81175	1.14597
0.02119	0.07465
-0.43783	-1.07320
-0.28482	0.17668
0.02119	0.43176
-0.48884	1.19699
0.37822	0.76336
0.30171	1.09496
-0.43783	-2.01699
-0.31033	-1.25176
1.34728	0.10015
0.68424	0.07465
-0.31033	0.15117
0.81175	0.50828
0.27621	-0.28246
-0.23382	-0.41000
0.91375	-0.10391
1.14327	0.66132
-1.10088	0.35523
0.12320	0.68683
-1.27939	0.50828
-1.33039	0.25320
-0.08081	0.35523
1.93382	0.32972
0.68424	0.38074
-0.08081	0.02363
0.09770	-0.23145
0.02119	2.19179
0.09770	-0.74160
-0.00431	0.07465
0.22521	-1.86394
-0.08081	-1.55785
0.07220	0.53379
0.02119	0.20219
0.48022	2.16628
0.88825	1.60511
-0.08081	0.07465
-0.02981	1.35003
-0.10631	-0.48652
0.07220	-1.94047
0.19971	-4.26167
0.42922	0.04914
0.81175	1.91120
0.32721	2.14077
0.02119	1.78367
-2.17195	2.34484
-0.87136	1.55410
0.91375	-2.57816
1.19427	-3.01179
1.34728	-0.43551
-0.31033	0.99292
-0.38683	0.73785
0.02119	0.76336
0.37822	2.49788
0.83725	0.55929
0.53123	-1.94047
0.22521	-1.78742
0.22521	-0.05289
-0.41233	0.63582
-0.41233	0.53379
0.09770	0.17668
-0.48884	0.07465
-0.18282	0.20219
0.96476	1.27351
-0.46334	-0.07840
0.22521	-0.25695
0.48022	0.04914
0.68424	0.07465
0.17421	0.86539
0.12320	0.27871
-0.25932	0.71234
0.14870	-0.63957
0.22521	0.04914
0.04670	1.80917
-0.02981	-1.78742
0.60773	-1.50683
-0.00431	-2.27207
0.12320	1.12046
-0.08081	2.47238
0.50573	2.37034
0.22521	0.17668
-0.00431	-0.61406
-0.61635	-3.01179
0.63323	0.20219
0.27621	1.57960
-0.05531	1.73265
0.93925	0.96742
0.37822	-0.94566
-0.99887	-0.97117
-1.20288	-2.14453
2.39285	-0.10391
1.70430	0.45726
-0.23382	1.55410
-0.79486	1.17148
-0.18282	0.48277
0.02119	0.45726
0.48022	1.52859
0.65874	-0.66508
-0.48884	-1.50683
0.99026	-1.58336
0.09770	-0.66508
0.07220	0.68683
0.19971	0.61031
-0.31033	1.24800
0.09770	0.35523
0.04670	-0.00188
0.19971	0.58480
0.14870	0.96742
0.07220	0.81437
0.09770	0.96742
0.19971	0.27871
0.83725	-1.43031
0.37822	-4.03210
0.02119	-3.67499
-1.17738	0.91640
-0.74385	3.82429
0.17421	2.80397
0.76074	1.32453
1.09226	0.94191
0.76074	-0.41000
0.91375	0.96742
-0.43783	-0.48652
-0.74385	-0.84363
0.22521	-2.39961
-0.15732	-2.19554
0.14870	0.25320
0.02119	0.71234
0.37822	1.42656
1.24527	1.35003
1.19427	0.78886
0.09770	1.60511
-1.30489	0.94191
-0.92237	-2.29757
0.27621	-1.43031
0.48022	0.15117
0.32721	0.73785
-0.31033	0.27871
0.14870	0.20219
0.22521	0.12566
-0.66735	0.91640
0.78624	-0.25695
0.73524	0.66132
0.02119	-1.78742
0.58223	-0.53754
-0.00431	-0.56305
0.76074	1.40105
0.73524	1.78367
0.14870	0.89089
-0.59084	0.50828
-0.51434	0.25320
0.32721	0.55929
-0.25932	1.29902
-0.18282	-1.68539
0.09770	-1.73640
-0.18282	-2.22105
0.30171	0.30422
0.53123	2.49788
0.02119	1.73265
1.14327	-0.18043
-1.48340	-2.65468
-0.48884	0.38074
0.30171	0.68683
0.83725	1.01843
0.27621	0.40625
1.24527	1.80917
1.14327	-1.09871
-0.08081	-0.07840
0.02119	-1.22625
-0.02981	0.22769
0.53123	0.25320
0.12320	0.35523
-0.59084	0.76336
-0.66735	0.71234
-0.00431	0.48277
-0.33583	0.20219
0.12320	-0.92016
-0.15732	-0.35899
-0.43783	-0.23145
0.65874	0.35523
1.16877	0.22769
0.04670	0.30422
0.50573	0.83988
-0.28482	-0.28246
1.24527	2.39585
-0.53984	-0.86914
-0.38683	-3.01179
0.73524	-4.41472
0.30171	1.88570
0.32721	2.93151
0.70974	2.16628
-0.00431	1.09496
-0.05531	0.48277
0.48022	0.15117
-0.51434	-0.05289
0.55673	0.76336
0.27621	-0.30797
-0.56534	0.38074
-0.56534	-1.14973
-1.96793	-1.14973
-0.00431	-1.09871
1.19427	-0.25695
1.24527	-0.12942
0.86275	0.81437
1.01576	1.40105
0.27621	2.31933
0.86275	0.89089
-0.48884	-0.20594
-1.15188	-1.68539
0.17421	-1.94047
0.88825	1.09496
-0.05531	1.60511
0.22521	0.94191
0.58223	0.66132
0.32721	0.63582
-0.59084	1.86019
-1.07538	-0.20594
-0.13181	-1.99148
0.88825	-1.71090
0.04670	-1.07320
0.14870	1.12046
0.27621	1.09496
-1.96793	0.27871
0.19971	1.24800
0.68424	-0.05289
1.62780	0.22769
1.16877	-0.41000
-0.51434	0.48277
-0.18282	-3.11382
0.40372	1.06945
0.63323	-0.30797
0.12320	-0.51203
0.17421	1.93671
0.32721	2.24281
-0.25932	0.55929
0.07220	-2.65468
-0.76936	1.40105
-0.02981	1.47757
-0.05531	0.17668
0.17421	-0.58856
-0.25932	0.27871
0.22521	-0.05289
0.42922	-0.66508
0.76074	-1.25176
0.50573	0.10015
-0.53984	0.76336
-0.10631	1.06945
1.14327	0.10015
1.04126	-1.14973
-0.76936	-1.02219
-0.10631	0.53379
0.58223	0.50828
-0.20832	0.15117
-0.20832	0.25320
-0.25932	0.76336
0.70974	0.71234
0.17421	0.35523
0.45472	0.04914
1.42379	0.53379
0.25071	0.35523
-0.38683	-0.84363
-0.69285	-1.22625
-0.51434	-0.35899
0.48022	0.45726
0.73524	1.09496
-0.53984	1.27351
-1.02437	0.58480
-0.94787	1.17148
-0.31033	-0.86914
0.78624	-0.15492
0.81175	-0.89465
1.09226	0.25320
0.60773	-0.02739
0.42922	-1.07320
0.02119	-0.48652
0.35272	1.27351
0.42922	1.01843
-0.28482	0.38074
0.02119	0.50828
-0.48884	3.56921
0.04670	0.22769
-0.08081	-2.52714
-0.15732	-3.13933
0.37822	0.32972
0.63323	1.68163
-0.20832	1.14597
0.02119	0.32972
0.45472	1.55410
0.35272	0.27871
0.45472	0.53379
1.52579	-1.40480
-0.31033	-0.25695
0.09770	-0.92016
-0.38683	-0.38449
0.42922	0.15117
-0.20832	0.73785
-0.33583	0.63582
-0.25932	0.91640
0.58223	-0.89465
0.17421	0.04914
0.58223	-0.25695
0.68424	1.17148
-0.05531	0.73785
0.14870	0.73785
0.27621	0.02363
-0.20832	-0.66508
-0.02981	0.53379
0.30171	1.01843
0.22521	-0.25695
-0.02981	-0.86914
-0.25932	-1.88945
-0.08081	0.20219
0.09770	1.57960
0.40372	0.35523
0.02119	-0.07840
0.53123	0.55929
0.53123	0.20219
0.22521	0.61031
-0.10631	0.04914
-0.20832	0.20219
0.35272	1.19699
-0.28482	-1.30277
-1.07538	-0.99668
-0.05531	-0.92016
0.53123	0.63582
0.73524	1.04394
1.57679	-0.07840
1.50029	1.14597
1.01576	0.78886
0.22521	0.32972
-1.81492	-0.35899
-1.35589	-0.48652
-0.61635	0.58480
0.37822	-0.71609
0.83725	0.73785
-0.18282	0.76336
-0.51434	0.35523
0.73524	-0.25695
0.48022	-1.83844
-0.00431	-1.07320
1.11776	1.17148
0.42922	1.80917
0.04670	0.94191
-0.61635	0.45726
0.35272	0.43176
0.30171	1.01843
-0.51434	-0.02739
-0.56534	1.24800
0.07220	-1.99148
0.55673	-1.14973
0.45472	-1.73640
0.25071	0.30422
0.04670	0.53379
0.22521	1.35003
0.19971	1.68163
0.40372	1.37554
-0.43783	-0.05289
0.76074	-1.12422
0.60773	-0.15492
0.58223	0.78886
-1.02437	-0.51203
-1.81492	0.15117
-0.43783	-1.22625
1.75531	1.55410
1.16877	0.02363
1.14327	-0.00188
-0.66735	-1.14973
0.09770	0.25320
0.55673	1.14597
0.17421	1.14597
-0.05531	1.01843
0.14870	0.40625
0.02119	0.27871
0.19971	-1.07320
-0.02981	0.15117
-0.02981	-0.12942
0.70974	0.02363
-0.84586	-0.94566
0.04670	-0.05289
-0.28482	0.53379
0.12320	0.61031
0.50573	0.94191
0.14870	1.27351
0.19971	0.04914
0.45472	1.37554
0.50573	-1.58336
-0.05531	-2.09351
0.88825	-0.71609
0.68424	0.96742
0.68424	1.27351
-0.02981	2.19179
-0.38683	1.37554
-0.31033	-0.51203
-0.02981	-1.27726
-0.20832	-0.48652
0.04670	0.10015
1.01576	1.24800
-0.46334	-0.07840
-0.10631	-0.28246
-0.69285	-0.48652
-0.51434	-0.38449
0.37822	1.01843
0.27621	0.55929
0.07220	0.15117
0.53123	0.48277
1.24527	0.35523
0.88825	-0.20594
0.73524	-0.07840
1.75531	0.10015
-0.53984	-0.05289
-1.40690	-0.84363
-1.61091	-0.35899
-0.10631	0.45726
0.76074	1.14597
0.63323	1.24800
-0.33583	0.50828
0.88825	0.02363
1.88281	-1.71090
-1.40690	-0.25695
-0.82036	-1.04770
-0.38683	1.04394
-0.31033	1.35003
0.81175	1.60511
1.09226	0.43176
0.58223	0.20219
-0.18282	-1.81293
-0.10631	0.40625
0.25071	-0.46102
0.45472	1.32453
0.27621	1.17148
0.48022	-0.92016
0.42922	-2.85874
-0.48884	-1.65988
-0.18282	2.01323
-0.31033	1.37554
0.45472	1.80917
-0.15732	0.94191
-0.36133	0.38074
0.48022	0.40625
0.86275	-0.20594
0.45472	-0.99668
-1.27939	-1.94047
-0.18282	-1.09871
0.58223	0.53379
1.14327	0.61031
0.42922	0.63582
0.17421	1.55410
-0.74385	0.35523
0.22521	0.81437
1.65330	0.76336
-0.53984	0.15117
-0.38683	-0.35899
0.73524	-0.28246
-0.20832	-0.74160
-0.28482	-0.18043
-0.61635	0.32972
0.42922	0.04914
0.04670	0.25320
0.27621	0.40625
0.40372	0.12566
0.68424	1.12046
0.58223	-1.68539
-0.31033	-0.28246
-0.20832	1.22250
0.04670	0.50828
0.12320	1.78367
0.42922	0.40625
0.32721	-0.51203
0.63323	-1.50683
0.07220	0.27871
0.30171	0.68683
-0.84586	1.45206
-0.36133	-0.00188
0.09770	1.06945
-0.31033	-0.46102
1.62780	0.04914
1.34728	-0.58856
-0.31033	-0.92016
-0.33583	0.25320
-0.23382	0.15117
0.42922	-0.74160
0.09770	-1.53234
-0.64185	-0.41000
-0.56534	1.83468
0.88825	1.60511
0.53123	1.04394
-0.08081	0.63582
0.83725	0.32972
0.45472	0.48277
-0.38683	0.61031
-0.25932	-0.56305
0.76074	-0.53754
0.09770	-0.81812
-0.23382	-0.43551
0.70974	0.22769
-0.15732	0.32972
-0.84586	0.20219
-0.46334	0.22769
0.58223	-0.00188
0.48022	0.48277
-0.97337	0.12566
0.27621	0.10015
0.76074	0.22769
0.22521	-0.20594
0.83725	0.12566
1.75531	1.73265
0.55673	1.24800
-0.53984	-0.86914
-0.92237	-1.17523
0.45472	-1.37929
-0.18282	0.32972
-0.13181	1.29902
0.45472	1.70714
0.37822	0.86539
0.45472	0.50828
0.02119	1.88570
0.09770	-0.63957
0.12320	-2.11902
-0.20832	-3.39441
-0.94787	1.86019
-0.05531	-0.46102
0.40372	-0.07840
0.93925	-0.33348
1.14327	1.17148
-0.02981	1.45206
-1.53441	1.60511
0.17421	0.32972
0.25071	0.66132
0.12320	-0.84363
0.53123	0.38074
1.55129	-0.33348
1.11776	-0.51203
0.17421	-1.37929
0.30171	1.68163
-0.64185	-0.10391
-0.05531	-0.28246
-0.10631	-1.63437
0.48022	1.29902
-0.38683	1.37554
-0.51434	0.78886
-0.41233	0.43176
0.37822	0.12566
0.19971	0.10015
0.81175	0.22769
-0.00431	0.83988
-0.69285	-0.38449
-0.84586	-0.86914
0.63323	-0.58856
1.06676	0.07465
0.73524	0.61031
1.01576	-0.66508
0.78624	0.07465
0.07220	0.63582
-0.48884	1.55410
-0.28482	0.04914
-0.94787	0.78886
-0.20832	-1.22625
0.83725	0.58480
0.42922	0.22769
0.17421	0.48277
0.22521	0.30422
0.09770	0.61031
0.70974	0.25320
0.25071	-0.38449
-0.48884	-1.53234
-1.40690	-0.30797
-0.69285	-0.02739
0.22521	-0.35899
0.30171	1.29902
1.39828	1.40105
1.57679	0.10015
0.63323	-0.18043
-0.28482	-0.69059
-0.48884	0.38074
0.48022	0.02363
0.65874	0.55929
-0.33583	0.86539
0.19971	0.43176
-0.38683	1.06945
-0.00431	-1.12422
0.42922	-1.25176
0.02119	-1.12422
-1.48340	1.06945
0.09770	1.01843
0.17421	0.12566
0.93925	0.20219
1.16877	-0.35899
0.55673	0.30422
0.22521	0.91640
0.14870	0.68683
0.17421	1.22250
-0.46334	-0.05289
-0.05531	-0.02739
0.32721	-0.58856
-0.76936	-0.46102
-0.36133	-0.97117
-0.13181	-0.38449
0.73524	0.04914
1.14327	0.96742
1.11776	2.90601
0.65874	0.32972
-0.51434	-0.74160
-0.74385	-1.76191
-1.76392	1.17148
-0.48884	0.17668
1.32178	0.07465
1.16877	-0.66508
1.24527	1.17148
0.48022	1.14597
-0.23382	0.04914
-0.23382	0.04914
0.07220	-0.10391
0.22521	0.45726
0.53123	-1.02219
-0.43783	-0.51203
-0.15732	0.99292
0.19971	0.89089
0.37822	0.45726
-0.05531	0.30422
-0.18282	-0.89465
-0.64185	-1.58336
-0.02981	0.02363
0.83725	1.50308
-0.59084	0.55929
1.06676	-0.20594
1.11776	-0.35899
0.45472	0.48277
-0.00431	1.24800
0.02119	0.89089
0.45472	-0.56305
-0.10631	0.27871
0.73524	-0.33348
-0.43783	0.81437
-0.51434	-0.76711
-1.04987	-0.41000
0.30171	-0.38449
-0.05531	1.14597
0.07220	1.19699
-0.71835	-1.40480
0.81175	-0.58856
1.98482	-0.00188
0.65874	0.89089
0.30171	0.83988
0.09770	0.58480
-0.13181	0.27871
-0.46334	1.37554
-0.59084	-0.84363
0.93925	-0.12942
0.09770	-1.73640
-0.13181	-0.35899
0.04670	1.06945
-0.69285	1.12046
0.83725	0.30422
0.48022	-0.51203
0.22521	-0.56305
0.17421	0.63582
-0.10631	0.61031
-0.18282	0.15117
0.68424	0.40625
0.91375	0.55929
0.14870	0.04914
-0.56534	0.25320
-0.66735	-0.56305
-0.15732	0.45726
-0.64185	-0.05289
-1.07538	-0.25695
0.60773	-0.00188
1.75531	0.12566
1.21977	0.48277
0.32721	0.53379
0.12320	0.38074
0.50573	0.32972
0.04670	0.53379
0.35272	0.66132
0.22521	-0.02739
-0.48884	0.89089
-0.89686	-1.55785
0.42922	-0.58856
0.30171	-2.52714
-0.48884	0.89089
0.22521	1.65613
0.07220	1.14597
-0.15732	0.78886
-0.00431	0.99292
-0.05531	0.96742
0.58223	-0.33348
0.73524	-0.10391
0.09770	0.25320
0.55673	-0.43551
-0.33583	-0.12942
0.60773	-3.01179
0.60773	0.15117
0.73524	2.01323
0.22521	0.10015
-0.15732	0.25320
0.12320	0.71234
0.07220	0.81437
-0.28482	0.71234
0.25071	0.22769
0.09770	-0.02739
0.02119	0.35523
0.37822	-0.10391
-0.69285	-1.35379
-0.46334	-1.32828
-0.10631	-1.27726
1.09226	0.43176
0.99026	1.70714
0.19971	1.75816
-0.89686	1.35003
0.91375	0.40625
0.63323	-0.07840
0.19971	-0.51203
0.12320	-0.25695
0.25071	0.22769
-0.10631	0.40625
0.45472	-0.58856
0.19971	0.48277
-0.18282	-1.22625
-0.41233	-0.58856
-0.28482	0.15117
0.19971	0.83988
0.40372	1.06945
0.27621	0.22769
-0.08081	0.35523
0.07220	1.73265
-0.25932	0.66132
0.86275	1.52859
0.17421	-2.14453
0.63323	-0.38449
0.88825	-2.11902
-0.25932	-0.18043
-0.15732	-1.20074
-1.50890	1.52859
0.07220	2.67644
1.04126	0.25320
0.42922	0.12566
0.19971	-0.92016
0.07220	0.40625
0.37822	0.66132
0.12320	0.38074
0.04670	-0.18043
0.68424	-0.10391
0.37822	0.53379
0.07220	0.12566
0.45472	-0.41000
0.12320	-0.20594
0.25071	0.48277
0.58223	0.63582
-0.66735	0.43176
-0.66735	-0.94566
-0.56534	0.17668
-0.66735	-0.41000
-0.25932	0.17668
1.14327	0.25320
0.58223	0.48277
1.01576	0.66132
0.88825	0.27871
0.45472	0.68683
0.22521	0.71234
0.27621	0.30422
-0.05531	-0.20594
-0.20832	-0.41000
-0.59084	-0.48652
-0.10631	-1.27726
0.19971	-0.46102
0.14870	0.55929
0.27621	1.45206
0.12320	0.48277
0.42922	1.12046
0.04670	0.17668
-0.20832	1.14597
-0.08081	-0.99668
0.88825	-0.58856
0.19971	-0.69059
0.09770	0.22769
0.58223	0.78886
0.65874	-0.07840
-0.48884	0.32972
-1.30489	0.35523
0.60773	0.15117
0.45472	-0.10391
0.35272	0.58480
0.93925	0.50828
0.07220	0.48277
1.01576	-0.35899
0.07220	0.12566
-0.33583	-0.41000
-0.41233	0.45726
0.04670	0.48277
0.40372	-0.12942
-1.25389	-0.28246
-0.71835	-0.25695
0.83725	0.76336
-0.25932	0.32972
0.73524	0.30422
0.96476	0.30422
0.70974	1.57960
0.70974	-0.35899
-0.43783	-0.43551
0.37822	-2.62918
-0.15732	0.45726
-0.02981	0.45726
0.17421	1.52859
0.27621	0.81437
0.30171	-0.05289
0.19971	0.27871
-0.08081	0.53379
-0.18282	0.15117
0.04670	-0.10391
0.12320	-0.20594
0.22521	-0.35899
0.12320	0.94191
0.09770	-0.28246
-0.08081	-0.74160
0.22521	-0.02739
0.32721	0.53379
0.12320	-0.18043
0.19971	0.17668
1.11776	-0.33348
0.32721	1.27351
-0.53984	0.45726
0.04670	0.12566
-0.84586	0.15117
-0.20832	0.48277
0.19971	-0.02739
1.11776	0.58480
0.93925	-0.05289
1.04126	-0.15492
0.86275	0.68683
-0.46334	0.17668
-0.25932	0.30422
-0.31033	-0.53754
-1.02437	-0.92016
-0.64185	-0.71609
1.14327	0.66132
0.37822	0.02363
-0.00431	0.35523
-0.00431	-0.23145
0.22521	1.04394
0.45472	0.89089
0.53123	-0.20594
0.42922	0.76336
0.17421	-0.10391
-0.08081	-0.15492
-0.10631	-0.63957
-0.00431	1.35003
-0.02981	1.06945
-0.02981	0.40625
-0.00431	-1.14973
0.12320	0.15117
0.14870	0.30422
0.09770	-0.84363
0.25071	0.45726
0.12320	0.07465
-0.00431	-0.97117
0.45472	-0.61406
0.32721	0.15117
-0.02981	0.99292
0.76074	1.37554
0.32721	1.09496
-0.59084	-0.05289
-0.10631	0.12566
0.35272	0.61031
0.14870	-0.07840
0.27621	-0.86914
-0.31033	-1.22625
0.12320	-0.56305
0.42922	0.22769
-0.02981	0.71234
0.70974	0.96742
1.16877	0.81437
0.37822	0.04914
1.39828	-0.28246
0.35272	0.17668
-1.30489	-0.12942
-0.99887	-0.05289
-1.61091	0.96742
-1.07538	0.48277
1.04126	-0.38449
1.24527	0.10015
0.14870	0.25320
0.60773	0.02363
0.40372	1.68163
0.04670	-1.07320
0.37822	-0.02739
0.19971	-0.53754
0.22521	0.83988
0.02119	-0.79262
0.12320	-0.10391
-0.00431	1.29902
0.04670	-0.48652
0.42922	-0.05289
-0.10631	0.38074
-0.08081	1.06945
-0.20832	0.83988
0.19971	0.40625
0.50573	1.17148
0.55673	0.25320
-0.33583	-0.63957
0.88825	-1.27726
0.09770	-0.86914
0.02119	0.04914
-1.45790	1.45206
0.02119	-0.10391
0.27621	-0.30797
0.65874	-0.66508
1.44929	-0.25695
0.70974	0.66132
0.76074	0.73785
0.32721	0.86539
-0.84586	0.32972
0.50573	0.68683
-0.28482	0.38074
-0.38683	0.07465
-0.13181	-0.00188
-0.05531	-0.00188
-0.33583	-0.30797
0.07220	-0.61406
0.17421	0.04914
0.37822	0.50828
0.53123	-0.53754
0.42922	0.15117
-0.20832	0.63582
0.37822	0.25320
0.40372	-0.23145
0.19971	-0.69059
0.53123	-0.84363
0.09770	-0.38449
0.19971	0.91640
0.02119	1.14597
-0.08081	0.94191
0.19971	1.09496
-0.51434	1.04394
0.32721	0.22769
0.22521	0.10015
-0.28482	0.04914
0.35272	-0.02739
0.42922	0.07465
0.14870	-2.09351
0.58223	-0.43551
0.19971	-1.32828
0.73524	0.81437
-0.00431	1.19699
-0.00431	0.55929
-0.05531	-0.46102
0.37822	-0.07840
-0.18282	1.04394
0.19971	-0.00188
0.42922	-0.76711
-1.25389	-0.18043
-0.76936	1.09496
1.16877	0.63582
0.60773	0.63582
0.81175	0.35523
-0.61635	0.43176
0.07220	-0.00188
0.73524	-0.48652
0.02119	-0.30797
0.76074	0.50828
0.12320	0.17668
-0.31033	0.83988
-0.56534	-1.83844
-0.02981	-0.02739
0.12320	0.66132
0.35272	0.30422
0.12320	0.17668
0.17421	1.42656
0.55673	0.73785
0.04670	0.55929
0.12320	-1.45582
0.12320	-1.27726
-0.18282	-0.66508
0.12320	1.06945
0.12320	0.78886
0.58223	1.24800
0.32721	0.81437
-0.05531	-0.00188
0.12320	-0.48652
0.07220	-0.56305
0.53123	-0.00188
-0.25932	-0.02739
0.14870	1.27351
0.19971	-0.30797
0.14870	-0.20594
-2.37596	-0.58856
-0.18282	0.73785
1.06676	1.32453
1.37278	0.17668
1.29628	-0.46102
0.68424	-1.20074
0.40372	-0.97117
-0.23382	0.76336
-0.66735	1.06945
0.07220	0.32972
0.35272	0.17668
0.40372	0.91640
0.02119	0.07465
-0.05531	0.15117
-0.13181	-1.71090
-0.92237	0.48277
-0.61635	0.53379
-0.18282	0.48277
0.99026	0.76336
1.14327	-0.07840
0.50573	-0.25695
0.78624	-0.46102
-0.36133	0.32972
-0.41233	0.63582
0.37822	-0.30797
0.55673	-0.38449
0.48022	0.94191
0.22521	0.38074
-0.05531	-0.15492
-0.02981	0.73785
0.07220	-0.66508
0.04670	-0.46102
-0.02981	0.15117
-0.05531	0.99292
-0.08081	0.61031
0.42922	1.27351
0.02119	-1.27726
-0.13181	-0.58856
0.14870	-0.30797
0.22521	0.73785
-0.08081	1.35003
0.12320	0.20219
0.93925	-0.02739
0.48022	-0.99668
-1.02437	-1.07320
0.07220	0.50828
0.53123	1.04394
1.01576	1.12046
0.86275	0.17668
0.30171	-0.23145
-0.64185	-0.58856
-0.00431	0.50828
0.12320	0.68683
0.19971	0.10015
0.19971	-0.05289
0.02119	-0.35899
0.27621	0.50828
0.02119	1.29902
-0.41233	-0.12942
-0.64185	-0.41000
-0.05531	-1.43031
0.27621	-0.33348
-0.31033	0.04914
0.83725	0.45726
0.68424	0.66132
0.88825	0.94191
0.60773	-0.20594
0.17421	0.76336
-0.20832	-0.10391
0.12320	0.15117
0.17421	0.07465
0.37822	1.57960
-0.20832	-0.00188
0.14870	0.15117
-0.25932	-0.38449
0.27621	0.07465
-0.51434	0.22769
-0.66735	0.81437
-0.02981	-0.69059
0.07220	-1.48133
0.73524	-0.15492
0.78624	0.63582
0.73524	0.81437
0.63323	0.45726
0.30171	0.73785
0.30171	0.35523
-0.28482	-0.28246
-0.20832	-0.46102
0.35272	0.45726
0.09770	0.07465
-0.53984	0.04914
-1.10088	-0.12942
0.02119	0.32972
1.01576	0.30422
0.07220	0.25320
0.93925	0.17668
0.60773	0.53379
-0.10631	-0.12942
-0.61635	0.81437
-0.59084	0.22769
-0.25932	0.45726
0.22521	-2.83324
0.45472	-0.25695
1.04126	0.55929
0.63323	1.29902
0.35272	0.86539
0.22521	0.48277
0.22521	0.61031
0.09770	0.27871
-0.00431	-0.56305
-0.46334	-0.07840
-0.15732	-0.23145
0.04670	0.73785
-0.18282	0.71234
0.25071	0.40625
0.35272	-1.55785
0.45472	-1.53234
0.55673	-0.12942
0.17421	1.27351
-1.17738	1.47757
0.25071	0.91640
-0.05531	0.40625
-1.48340	-0.02739
0.99026	0.12566
1.62780	-0.10391
1.01576	-0.56305
0.93925	-0.02739
0.76074	0.27871
-0.28482	0.73785
0.32721	-0.30797
0.12320	-0.12942
-0.79486	0.25320
-0.79486	-0.41000
-1.89143	-0.43551
0.30171	0.22769
0.40372	0.63582
1.27078	1.06945
-0.18282	0.50828
0.50573	-0.15492
0.60773	0.91640
0.73524	0.15117
0.07220	0.15117
-0.13181	-1.27726
0.19971	0.07465
0.14870	-0.20594
-0.23382	0.35523
-0.20832	0.45726
-0.00431	0.83988
0.12320	0.53379
0.22521	-1.09871
-0.00431	0.68683
0.48022	-0.25695
0.42922	0.96742
0.37822	0.38074
0.09770	0.76336
-0.02981	0.10015
-0.15732	0.22769
0.27621	1.37554
0.53123	-1.63437
0.76074	-1.43031
-0.20832	-1.58336
-0.76936	1.12046
-1.40690	1.68163
0.73524	1.06945
0.42922	0.20219
0.37822	0.22769
0.53123	-0.69059
0.63323	-0.28246
1.09226	0.58480
1.62780	1.04394
-0.33583	-0.20594
-0.82036	-0.48652
-1.61091	-0.48652
0.12320	0.81437
0.55673	0.99292
0.93925	0.63582
-0.25932	-0.48652
-0.76936	-0.33348
0.37822	-0.02739
0.32721	0.30422
0.50573	-0.10391
0.17421	0.15117
0.32721	0.30422
0.30171	0.30422
-0.00431	0.07465
-0.18282	1.83468
0.04670	-0.63957
-0.00431	0.17668
0.12320	-1.07320
0.14870	-0.51203
0.37822	-0.69059
0.14870	0.43176
0.02119	0.81437
0.07220	0.27871
0.42922	1.17148
0.37822	0.35523
-0.00431	0.27871
0.12320	0.94191
0.55673	-0.38449
0.27621	-1.58336
0.17421	0.17668
-0.23382	0.61031
-0.28482	0.78886
-0.59084	0.25320
0.58223	-1.37929
-0.28482	-0.25695
-0.51434	1.06945
-0.18282	0.53379
1.32178	0.27871
1.09226	0.53379
0.53123	-0.00188
0.93925	0.32972
0.78624	-0.58856
0.27621	-0.07840
-0.18282	1.98773
-1.02437	-1.02219
-1.76392	-0.61406
-0.38683	-0.81812
0.22521	0.45726
0.19971	1.19699
0.55673	0.66132
1.24527	0.10015
0.42922	-0.41000
-0.08081	0.63582
0.04670	0.45726
0.02119	-0.00188
-0.00431	0.27871
0.19971	0.50828
0.48022	-0.15492
0.37822	0.45726
0.04670	-0.63957
-0.08081	-0.76711
0.25071	-1.12422
0.07220	0.55929
0.09770	0.81437
0.12320	1.19699
0.35272	1.63062
0.63323	0.04914
0.07220	-0.56305
-0.61635	-0.56305
-0.41233	-0.56305
0.48022	0.35523
-0.18282	-0.15492
0.63323	0.68683
0.25071	0.63582
0.93925	-0.35899
0.04670	-0.12942
-1.48340	-0.18043
0.12320	0.15117
1.19427	0.30422
0.83725	0.53379
0.68424	0.45726
0.22521	0.17668
0.27621	-0.53754
-0.02981	0.17668
-0.31033	0.66132
-0.89686	1.42656
-0.02981	-0.84363
-0.02981	-0.58856
0.70974	-1.55785
0.48022	1.12046
-0.23382	1.83468
0.19971	0.86539
0.17421	0.02363
0.48022	0.10015
0.22521	0.07465
0.32721	-0.43551
-0.02981	-0.00188
0.19971	-0.02739
-0.61635	-0.63957
0.32721	0.30422
0.55673	0.55929
-0.02981	0.73785
0.55673	-0.02739
-0.02981	-0.33348
-0.02981	-0.46102
0.12320	0.71234
-0.51434	0.12566
0.45472	0.55929
0.63323	-0.00188
0.45472	0.73785
0.81175	0.76336
0.22521	-0.51203
0.58223	-0.02739
-0.38683	-0.41000
-0.79486	0.35523
-0.20832	0.35523
-0.56534	0.25320
0.12320	0.04914
0.32721	0.25320
0.50573	0.25320
0.32721	0.15117
0.65874	0.55929
1.09226	-0.12942
-0.15732	0.20219
-1.22839	-0.46102
-1.61091	-0.00188
-0.13181	-0.94566
1.19427	0.22769
1.50029	0.96742
0.88825	0.86539
0.81175	0.48277
0.12320	0.55929
0.04670	0.50828
-0.10631	0.35523
-0.53984	-0.84363
-0.38683	-0.43551
0.32721	-0.41000
0.04670	0.55929
-0.08081	0.55929
0.22521	-0.07840
0.30171	-0.02739
0.12320	0.38074
0.17421	-0.61406
0.27621	0.10015
-0.20832	0.48277
-0.02981	0.55929
0.73524	0.17668
0.14870	0.68683
0.53123	1.04394
0.22521	-0.41000
-0.94787	-0.84363
0.04670	-0.38449
0.65874	-0.25695
0.25071	0.53379
0.53123	1.32453
0.27621	0.25320
0.12320	-0.20594
0.42922	-0.25695
0.12320	-0.15492
0.37822	0.45726
0.02119	0.38074
-0.28482	0.10015
-1.20288	-0.46102
0.02119	0.73785
0.65874	-0.51203
0.27621	-0.46102
0.12320	0.17668
0.37822	1.09496
0.30171	0.81437
0.32721	0.12566
-0.53984	0.78886
-0.15732	-0.86914
0.48022	-0.79262
0.60773	-0.74160
0.04670	0.15117
-0.10631	0.66132
-0.20832	1.83468
0.04670	0.68683
0.19971	0.66132
0.27621	-1.58336
-0.02981	-0.12942
0.65874	-0.25695
0.50573	0.35523
0.30171	0.61031
0.40372	0.71234
0.42922	0.43176
-0.25932	-0.07840
-0.08081	0.20219
0.14870	0.02363
-0.84586	-0.18043
-0.48884	-0.02739
0.02119	0.45726
0.22521	1.09496
0.58223	-1.27726
0.48022	-0.89465
0.22521	-1.48133
0.09770	1.01843
-0.89686	1.63062
0.63323	1.06945
0.70974	0.38074
0.35272	0.20219
0.65874	0.58480
0.30171	-0.30797
-0.13181	0.10015
-0.71835	-0.33348
-0.18282	0.99292
0.55673	-0.79262
0.53123	0.20219
0.91375	-0.66508
0.55673	-0.35899
-0.25932	0.50828
-0.15732	0.02363
-0.10631	1.17148
-0.46334	1.12046
-0.97337	0.07465
-0.53984	-0.94566
0.68424	-1.07320
0.70974	0.30422
0.76074	0.58480
0.04670	0.71234
0.04670	0.61031
0.45472	0.25320
0.04670	0.53379
-0.23382	-0.02739
-0.36133	-0.30797
-0.18282	-0.84363
0.27621	0.63582
0.81175	0.35523
0.55673	-0.00188
0.25071	-0.18043
0.40372	-0.86914
0.50573	0.96742
0.14870	0.32972
-0.23382	-0.18043
-0.43783	-0.35899
-0.41233	0.40625
0.19971	1.12046
-0.13181	0.48277
0.35272	0.17668
0.45472	0.22769
0.04670	0.15117
0.35272	0.20219
0.65874	-0.35899
-0.43783	-0.25695
-0.08081	0.17668
-0.10631	-0.33348
0.70974	0.43176
0.78624	0.40625
0.53123	0.04914
-0.05531	0.04914
-0.05531	-0.02739
-0.61635	1.06945
0.40372	-0.35899
-0.02981	0.10015
-0.36133	-0.48652
0.25071	2.01323
0.09770	-0.51203
0.55673	-0.38449
0.19971	-0.94566
0.17421	0.78886
0.35272	0.55929
0.09770	0.58480
0.32721	0.30422
0.19971	0.32972
0.53123	0.40625
0.12320	0.25320
-0.46334	-0.15492
-0.97337	0.10015
-0.02981	-0.00188
0.40372	-0.94566
0.19971	-0.48652
0.12320	-0.66508
0.17421	0.20219
0.07220	1.65613
0.86275	0.12566
0.58223	0.78886
0.27621	-0.35899
0.25071	0.89089
0.12320	0.25320
-0.13181	-0.07840
-0.02981	0.15117
-0.18282	0.38074
-0.00431	0.68683
-0.05531	0.48277
-0.05531	-0.43551
0.12320	-0.38449
0.93925	1.37554
0.42922	-1.07320
-0.02981	-1.02219
0.45472	-0.74160
-0.64185	0.45726
-0.00431	0.73785
0.45472	0.71234
0.83725	0.55929
0.60773	0.40625
-0.59084	0.55929
-1.30489	0.50828
-0.18282	-0.30797
0.27621	0.15117
0.88825	-0.81812
0.78624	-0.00188
0.45472	0.78886
0.30171	0.45726
0.78624	0.22769
0.09770	0.20219
-0.18282	-0.56305
-0.74385	0.30422
-0.15732	-0.43551
-0.31033	0.17668
0.14870	0.22769
0.25071	0.68683
0.12320	0.48277
0.25071	0.76336
-0.20832	-0.25695
0.53123	-0.10391
0.17421	0.25320
0.35272	0.17668
0.22521	-0.10391
0.42922	0.53379
-0.00431	-0.33348
0.30171	-0.23145
0.14870	0.76336
-0.15732	0.10015
-0.38683	-0.74160
0.48022	-0.35899
-0.38683	-0.25695
0.45472	0.30422
0.65874	0.86539
-0.28482	0.45726
0.83725	0.86539
0.12320	0.17668
-0.08081	-0.51203
-0.36133	0.35523
-0.79486	0.12566
0.53123	0.15117
0.91375	0.50828
0.73524	0.20219
-0.13181	0.35523
-0.87136	-0.25695
-0.08081	-0.63957
0.45472	-0.25695
0.30171	0.86539
0.27621	0.50828
0.09770	-0.12942
0.12320	-0.53754
0.25071	-0.07840
0.35272	-0.33348
-0.13181	0.66132
0.07220	0.53379
-0.53984	0.25320
0.58223	0.50828
0.55673	0.94191
-0.41233	-0.20594
0.02119	-0.00188
0.09770	-0.35899
0.93925	-0.51203
0.60773	0.15117
-0.02981	0.53379
0.22521	0.40625
0.45472	-0.05289
0.32721	0.48277
-0.59084	0.04914
-0.61635	-0.48652
0.30171	-0.53754
0.48022	0.10015
0.50573	1.35003
-0.13181	1.01843
0.42922	0.58480
0.14870	-0.25695
-0.05531	-1.07320
0.12320	0.15117
0.27621	1.09496
0.27621	0.91640
0.17421	0.66132
-0.10631	-0.33348
0.02119	-0.86914
-0.13181	-0.38449
0.48022	0.63582
0.53123	-0.02739
0.22521	0.76336
-0.20832	-1.76191
-0.46334	-0.81812
-0.00431	-0.10391
0.50573	1.70714
0.70974	1.14597
0.96476	0.73785
0.30171	0.53379
-0.36133	0.22769
-0.53984	0.10015
0.07220	-0.02739
0.30171	0.17668
-0.08081	0.55929
0.02119	-0.66508
0.35272	-0.92016
0.70974	-0.15492
-0.20832	0.10015
0.27621	0.35523
0.32721	0.45726
-0.08081	0.32972
0.30171	0.30422
0.25071	0.17668
0.48022	0.25320
0.25071	0.71234
0.48022	0.22769
-0.23382	-0.15492
-0.82036	0.32972
0.07220	0.02363
0.04670	0.68683
0.30171	0.53379
0.07220	-1.20074
0.70974	-1.25176
0.58223	-1.07320
-0.08081	2.77847
-0.20832	0.25320
0.65874	-0.43551
-0.00431	0.55929
0.25071	0.78886
0.17421	0.40625
0.22521	-0.69059
0.19971	0.50828
0.17421	-0.00188
-0.33583	0.40625
-0.36133	0.20219
-0.28482	-0.28246
-0.05531	-0.23145
0.55673	-0.20594
0.81175	0.38074
0.65874	0.32972
-0.15732	1.24800
0.42922	-0.48652
0.04670	-0.12942
-0.18282	-0.10391
-0.08081	0.78886
-0.23382	0.22769
-0.33583	0.20219
0.58223	0.43176
1.09226	-0.20594
0.30171	-0.18043
0.63323	-0.20594
0.42922	0.58480
-0.43783	-0.69059
-0.31033	-0.35899
-0.08081	0.50828
-0.51434	0.86539
-0.28482	0.63582
0.22521	0.40625
0.60773	0.22769
0.86275	0.43176
0.25071	-0.15492
-0.08081	0.04914
0.32721	0.35523
0.19971	0.15117
-0.23382	-0.53754
0.19971	-0.00188
0.02119	-0.33348
0.07220	-0.74160
0.55673	0.25320
-0.20832	0.22769
-0.41233	0.86539
-0.23382	0.76336
0.55673	1.45206
0.58223	-0.20594
0.25071	-0.66508
0.42922	0.04914
0.53123	0.12566
0.40372	0.32972
-0.41233	0.32972
0.17421	0.32972
0.30171	-0.56305
0.65874	0.17668
-0.13181	-0.66508
-1.22839	0.35523
-0.36133	-0.81812
0.14870	0.55929
0.93925	0.86539
0.53123	1.01843
0.63323	0.45726
0.45472	0.55929
0.07220	0.38074
0.04670	0.15117
-1.02437	0.07465
-0.33583	-0.79262
0.63323	-1.07320
0.60773	-0.07840
0.68424	0.22769
0.83725	0.50828
-0.05531	0.63582
-0.64185	0.30422
-0.08081	-0.07840
0.53123	0.25320
0.30171	0.50828
-0.36133	0.27871
-0.05531	-0.53754
0.25071	-0.20594
0.04670	0.20219
0.68424	0.27871
0.25071	0.25320
0.35272	0.32972
0.22521	0.94191
0.22521	-0.10391
0.02119	0.32972
-0.20832	-0.00188
0.09770	0.20219
0.09770	0.30422
0.17421	0.86539
-0.00431	0.04914
0.09770	-0.84363
-0.41233	-1.37929
0.27621	-1.17523
0.42922	0.50828
0.53123	1.55410
0.42922	0.86539
0.48022	0.66132
0.27621	0.71234
0.40372	0.30422
-0.48884	-0.35899
-0.48884	-0.10391
-0.13181	-0.51203
0.02119	-0.58856
0.50573	0.30422
0.70974	0.50828
0.27621	0.55929
-0.38683	-0.20594
0.48022	0.15117
0.58223	0.48277
0.27621	0.63582
-0.02981	0.71234
-0.59084	0.71234
-0.05531	-0.20594
0.48022	-0.71609
0.86275	-0.23145
-0.08081	0.02363
-0.15732	0.27871
0.09770	-0.20594
-0.10631	0.22769
0.30171	-0.25695
0.02119	0.35523
0.12320	0.10015
-0.05531	0.48277
0.86275	0.25320
-0.13181	1.86019
-0.87136	-0.23145
-0.15732	-0.79262
0.50573	-0.61406
0.68424	0.76336
0.65874	0.40625
0.48022	0.22769
0.30171	-0.00188
-0.20832	0.22769
-0.38683	0.83988
0.09770	-0.48652
0.32721	-0.10391
0.07220	-0.10391
-0.20832	0.07465
0.45472	-0.05289
-0.02981	-0.15492
-0.08081	0.45726
0.60773	0.76336
0.45472	-0.00188
0.02119	-0.25695
-0.61635	-0.15492
0.12320	-0.25695
0.53123	0.96742
0.07220	0.89089
-0.82036	0.48277
0.32721	-0.41000
0.70974	-0.00188
0.93925	0.30422
0.32721	-0.20594
-0.43783	0.20219
-0.08081	0.22769
0.48022	0.02363
0.40372	-0.25695
-0.13181	-0.76711
-0.99887	0.04914
-1.04987	0.61031
0.48022	1.01843
0.86275	0.58480
0.88825	0.35523
0.45472	0.22769
0.50573	-0.05289
0.09770	-0.25695
-0.08081	0.35523
-0.56534	0.04914
0.58223	0.30422
0.37822	0.15117
-0.25932	-0.92016
-0.28482	-0.48652
0.53123	-0.41000
0.30171	1.37554
-0.08081	0.48277
-0.08081	0.40625
0.53123	0.53379
0.04670	0.45726
-0.33583	0.30422
-0.20832	0.15117
0.32721	-0.05289
0.55673	0.12566
0.78624	-0.07840
0.40372	-0.35899
-0.46334	-0.05289
0.09770	-0.18043
0.40372	-0.25695
-0.10631	0.53379
-0.46334	-0.02739
-0.59084	0.04914
0.04670	0.53379
0.40372	0.38074
0.91375	0.71234
0.93925	-0.61406
0.22521	0.55929
-0.00431	0.73785
-0.18282	-0.00188
-0.23382	-0.15492
0.65874	0.02363
0.17421	0.40625
-0.43783	0.17668
-0.56534	-0.05289
-0.43783	-0.53754
0.37822	-0.56305
0.93925	1.22250
0.88825	0.40625
0.53123	0.30422
0.04670	0.27871
0.27621	-0.10391
-0.28482	0.25320
-1.33039	-0.43551
-0.18282	0.25320
1.19427	1.04394
0.86275	-0.35899
0.07220	-0.63957
-0.08081	-0.66508
-0.13181	0.04914
-0.10631	-0.12942
0.96476	0.96742
0.19971	0.99292
-0.02981	-0.33348
-0.10631	0.45726
0.55673	0.35523
-0.00431	0.50828
-0.00431	0.17668
0.02119	-0.25695
-0.33583	0.22769
-0.36133	0.17668
0.35272	-0.76711
0.53123	0.04914
0.35272	-0.46102
0.48022	0.48277
0.37822	0.04914
-0.08081	0.76336
-0.28482	0.61031
-0.61635	0.22769
0.09770	0.45726
0.76074	0.22769
0.63323	0.04914
0.07220	-0.56305
0.19971	-0.23145
-0.38683	0.35523
-0.41233	0.27871
1.16877	-0.00188
1.11776	0.53379
-0.18282	0.50828
0.37822	0.27871
0.04670	-0.12942
0.04670	-0.48652
-0.18282	-0.12942
-0.13181	0.40625
0.02119	0.10015
-0.02981	-0.28246
-0.36133	0.91640
-0.02981	0.45726
0.40372	0.02363
0.68424	-0.30797
0.07220	-0.12942
-0.46334	0.81437
0.53123	1.06945
0.65874	0.32972
0.73524	-0.76711
0.68424	-0.56305
0.35272	-0.76711
-0.31033	0.71234
-0.59084	0.15117
-0.05531	0.53379
0.48022	0.55929
0.25071	-0.20594
0.07220	-0.10391
-0.38683	0.27871
-0.10631	0.50828
0.65874	-0.00188
0.68424	0.27871
0.68424	-0.18043
-0.05531	0.25320
0.09770	0.20219
0.68424	0.55929
0.25071	0.04914
-1.20288	-0.25695
-0.64185	0.17668
-0.10631	0.25320
0.45472	0.43176
0.60773	-0.71609
0.48022	-0.30797
0.27621	-0.69059
0.27621	0.22769
0.17421	0.63582
-0.18282	0.73785
0.07220	0.63582
0.17421	0.25320
0.32721	0.17668
0.09770	0.12566
0.12320	0.25320
0.25071	0.15117
0.48022	-0.00188
0.25071	0.12566
-0.43783	0.22769
-0.69285	0.66132
-0.02981	0.07465
0.40372	-1.27726
0.40372	-1.50683
0.88825	-0.20594
0.42922	1.32453
0.02119	1.19699
-0.23382	1.06945
-0.69285	0.78886
0.32721	0.22769
0.60773	1.19699
0.40372	-0.74160
-0.00431	-0.81812
-0.82036	-1.48133
-0.23382	-0.38449
0.93925	0.99292
0.91375	0.86539
0.35272	1.06945
0.02119	0.07465
1.32178	-0.25695
-0.79486	-0.33348
-1.33039	-0.05289
0.37822	-0.25695
0.32721	0.50828
0.40372	0.81437
0.32721	0.40625
0.02119	0.48277
-0.18282	-0.46102
0.14870	-0.33348
0.37822	-0.71609
0.19971	0.30422
0.04670	0.17668
0.07220	0.81437
0.30171	0.63582
0.27621	0.22769
0.50573	0.35523
0.37822	-0.20594
0.30171	-0.43551
0.17421	0.32972
0.07220	0.83988
0.07220	0.32972
0.14870	-0.51203
-0.25932	-0.05289
-0.56534	-0.20594
-0.08081	-0.46102
-0.10631	-0.23145
0.04670	0.32972
0.91375	1.04394
0.53123	0.45726
0.22521	0.35523
0.73524	0.10015
0.60773	0.22769
-0.31033	0.15117
-0.28482	0.25320
0.02119	0.68683
0.50573	-0.56305
-0.00431	-0.71609
0.27621	-0.48652
-0.25932	0.35523
-0.10631	0.76336
-0.10631	0.73785
-0.48884	0.43176
0.09770	-0.05289
0.35272	0.22769
0.73524	-0.07840
0.83725	0.10015
0.53123	0.38074
0.22521	0.83988
-0.02981	-0.02739
-0.89686	-0.58856
-0.08081	-1.45582
0.53123	0.20219
0.76074	-0.92016
0.09770	1.04394
-0.13181	0.94191
0.02119	1.27351
0.19971	0.86539
-0.10631	0.53379
-0.31033	-0.33348
1.24527	-0.38449
0.09770	-0.30797
0.48022	0.48277
-0.00431	0.27871
-0.48884	0.43176
-0.51434	-0.86914
0.37822	0.02363
0.42922	-1.45582
0.42922	0.43176
0.48022	1.68163
-0.25932	1.50308
-0.25932	-0.12942
0.22521	-0.66508
-0.66735	-0.63957
-0.00431	-0.07840
0.35272	0.50828
1.14327	0.27871
0.86275	0.43176
0.55673	1.06945
0.22521	0.71234
-0.33583	-0.35899
0.02119	-0.02739
-0.10631	-0.28246
-0.33583	-0.25695
-0.25932	0.48277
-0.05531	-0.12942
0.17421	-0.05289
0.09770	0.07465
0.73524	-0.00188
0.22521	-0.46102
0.14870	0.07465
-0.31033	0.17668
0.40372	1.68163
0.14870	0.35523
0.09770	0.10015
0.65874	-2.50164
0.81175	0.89089
-0.10631	0.50828
-0.71835	0.73785
-0.18282	0.35523
0.32721	1.19699
-0.08081	0.99292
0.17421	-0.00188
0.40372	-1.07320
0.58223	-0.41000
1.24527	-0.18043
0.27621	0.04914
-0.15732	0.25320
-0.13181	0.17668
-0.20832	0.02363
-0.36133	0.86539
-0.28482	-0.35899
0.32721	0.71234
0.48022	-0.56305
0.32721	-0.48652
0.30171	0.30422
0.58223	0.55929
-0.13181	0.68683
-0.51434	0.91640
-0.00431	-0.10391
0.32721	-0.20594
0.42922	0.48277
0.48022	0.58480
-0.20832	0.61031
0.12320	-0.43551
0.60773	-0.61406
0.27621	0.12566
0.22521	0.22769
-0.05531	-0.86914
-0.10631	-0.30797
-0.15732	0.25320
0.09770	0.66132
0.19971	-0.07840
0.25071	0.43176
0.22521	0.63582
-0.25932	0.94191
-0.25932	1.01843
0.35272	0.20219
0.04670	0.61031
0.40372	-1.30277
0.53123	-0.92016
0.53123	-0.46102
-0.15732	0.15117
0.07220	0.45726
0.35272	0.32972
-0.28482	0.66132
0.63323	0.35523
0.25071	0.32972
-0.18282	-0.05289
-0.00431	-0.10391
-0.13181	-0.07840
0.50573	-0.05289
0.48022	0.53379
0.32721	0.04914
-0.08081	-0.10391
0.48022	0.35523
0.45472	0.20219
-0.79486	-0.30797
0.22521	-0.48652
-0.08081	0.53379
-0.61635	0.96742
-1.17738	0.17668
0.42922	-0.15492
0.70974	-0.00188
1.34728	0.40625
0.81175	0.45726
0.76074	0.96742
0.32721	0.32972
0.14870	-0.15492
0.02119	-1.17523
-0.51434	-0.56305
-0.20832	-0.92016
-0.31033	1.14597
