0.12320	-0.28246
0.14870	-0.25695
0.12320	0.43176
0.19971	0.63582
0.22521	0.50828
0.07220	0.25320
0.12320	0.27871
0.12320	0.22769
0.09770	0.10015
0.25071	0.07465
0.17421	0.02363
0.12320	-0.05289
0.09770	-0.00188
0.04670	0.07465
0.17421	0.04914
0.09770	-0.02739
0.12320	0.20219
0.19971	0.25320
0.14870	0.20219
0.04670	0.12566
0.17421	0.12566
0.30171	0.30422
0.12320	0.27871
0.07220	0.15117
0.17421	0.20219
0.12320	0.22769
0.09770	0.15117
0.12320	0.02363
0.22521	0.15117
0.25071	0.07465
0.02119	0.10015
0.12320	0.07465
0.17421	0.20219
0.07220	0.12566
0.22521	0.12566
0.17421	-0.00188
0.12320	-0.10391
0.12320	0.12566
0.25071	0.32972
0.17421	0.45726
0.17421	0.45726
0.25071	0.30422
0.14870	-0.02739
0.12320	-0.07840
0.17421	0.15117
0.14870	0.12566
0.12320	0.15117
0.17421	0.25320
0.17421	0.30422
0.12320	0.04914
0.22521	0.15117
0.17421	0.10015
0.14870	0.15117
0.19971	0.30422
-0.00431	0.02363
0.17421	0.20219
0.14870	0.04914
0.07220	-0.05289
0.17421	0.17668
0.14870	0.12566
0.07220	0.15117
0.12320	0.15117
0.17421	0.20219
0.04670	0.04914
0.12320	0.10015
0.12320	0.15117
0.12320	0.25320
0.25071	0.20219
0.07220	0.22769
0.22521	0.15117
0.19971	0.17668
0.07220	0.02363
0.12320	-0.00188
0.12320	0.22769
0.14870	0.10015
0.14870	0.15117
0.09770	0.17668
0.12320	0.22769
0.22521	0.22769
0.17421	0.17668
0.17421	0.04914
0.22521	0.22769
0.07220	0.17668
0.17421	0.04914
0.14870	0.15117
0.12320	0.07465
0.07220	0.07465
0.02119	0.22769
0.19971	0.35523
0.04670	0.30422
0.27621	0.25320
0.30171	0.04914
0.09770	-0.12942
0.12320	0.02363
0.02119	0.20219
0.14870	0.25320
0.19971	0.32972
0.09770	0.17668
0.12320	0.22769
0.12320	0.10015
0.07220	0.04914
0.27621	0.12566
0.17421	-0.02739
0.12320	-0.02739
0.22521	0.15117
0.07220	0.22769
0.07220	0.15117
0.19971	0.20219
0.12320	0.15117
0.25071	0.12566
0.17421	0.04914
0.12320	0.07465
0.19971	0.27871
0.14870	0.22769
0.12320	0.22769
0.12320	0.35523
0.17421	0.04914
0.22521	-0.02739
0.14870	0.02363
0.14870	-0.07840
0.17421	0.38074
0.17421	0.15117
0.14870	0.22769
0.04670	0.12566
0.22521	0.20219
0.07220	0.15117
0.09770	0.15117
0.09770	0.12566
0.07220	0.04914
0.22521	0.12566
0.12320	0.04914
0.14870	0.22769
0.19971	0.15117
0.12320	0.15117
0.14870	0.20219
0.12320	-0.05289
0.12320	0.20219
0.17421	0.12566
0.17421	0.27871
0.14870	0.22769
0.19971	0.27871
0.19971	0.17668
0.14870	0.04914
0.09770	0.10015
0.12320	0.17668
0.09770	0.12566
0.17421	0.10015
0.14870	0.12566
0.09770	0.12566
0.19971	0.17668
0.17421	0.15117
0.12320	0.20219
0.19971	0.30422
0.09770	0.17668
0.07220	0.15117
0.22521	0.12566
0.04670	-0.23145
0.19971	0.02363
0.22521	-0.05289
0.19971	0.25320
0.12320	0.48277
0.19971	0.50828
0.07220	0.20219
0.09770	0.25320
0.19971	0.17668
0.04670	-0.00188
0.19971	0.22769
0.12320	0.12566
0.14870	0.04914
0.25071	0.12566
0.09770	-0.05289
0.09770	0.10015
0.14870	0.22769
0.04670	0.04914
0.17421	0.17668
0.14870	0.27871
0.04670	0.17668
0.22521	0.25320
0.19971	0.12566
0.09770	0.10015
0.14870	0.12566
0.19971	0.04914
0.04670	0.02363
0.17421	0.25320
0.12320	0.27871
0.14870	0.40625
0.14870	0.30422
0.07220	0.02363
0.12320	-0.05289
0.22521	0.22769
0.09770	0.10015
0.14870	0.10015
0.22521	-0.00188
0.09770	-0.07840
0.12320	0.12566
0.17421	0.07465
0.07220	0.40625
0.17421	0.25320
0.22521	0.17668
0.19971	0.30422
0.07220	0.10015
0.22521	0.17668
0.19971	0.15117
0.07220	0.02363
0.12320	0.07465
0.19971	0.25320
0.02119	0.12566
0.12320	0.10015
0.12320	0.17668
0.22521	0.15117
0.30171	0.20219
0.09770	0.04914
0.12320	0.12566
0.19971	0.07465
0.07220	0.12566
0.12320	0.27871
0.14870	0.17668
0.09770	0.12566
0.07220	0.25320
0.09770	0.25320
0.42922	0.27871
0.14870	0.20219
0.07220	0.04914
0.07220	0.17668
0.09770	-0.00188
0.14870	0.10015
0.09770	0.20219
0.17421	0.12566
0.14870	0.02363
0.27621	-0.23145
0.12320	-0.15492
0.14870	0.27871
0.17421	0.32972
0.12320	0.55929
0.22521	0.40625
0.07220	0.25320
0.14870	0.30422
0.04670	0.12566
0.19971	0.12566
0.22521	-0.07840
0.12320	-0.10391
0.30171	0.12566
0.14870	0.10015
0.14870	0.15117
0.14870	0.25320
-0.10631	0.02363
0.09770	0.12566
0.19971	0.15117
0.17421	0.12566
0.19971	0.20219
0.09770	0.17668
0.30171	0.38074
0.09770	0.22769
0.22521	0.02363
0.07220	-0.05289
0.14870	-0.15492
0.09770	-0.18043
0.12320	0.07465
0.09770	0.22769
0.04670	0.58480
0.22521	0.58480
0.22521	0.35523
0.22521	0.43176
0.07220	0.38074
0.22521	0.10015
0.09770	-0.20594
0.25071	-0.18043
0.09770	0.10015
0.09770	0.20219
0.12320	-0.35899
-0.00431	-0.25695
-0.00431	-0.07840
0.02119	0.35523
0.25071	0.55929
0.12320	0.35523
0.30171	0.38074
0.27621	0.48277
0.14870	0.35523
0.17421	0.27871
0.12320	-0.76711
0.09770	-0.56305
0.22521	-0.10391
0.09770	-0.18043
-0.00431	0.30422
0.09770	0.53379
0.19971	0.55929
-0.00431	0.35523
0.19971	0.45726
0.12320	0.50828
0.14870	0.25320
0.30171	0.04914
0.19971	0.15117
0.09770	0.15117
0.17421	-0.10391
0.07220	-0.07840
-0.10631	0.17668
0.14870	-0.12942
0.09770	-0.41000
0.25071	-1.07320
0.37822	-0.35899
0.32721	0.48277
0.22521	0.66132
0.32721	1.14597
-0.05531	0.76336
-0.18282	0.66132
0.02119	0.89089
0.25071	-0.41000
0.07220	-0.15492
0.22521	-0.12942
0.14870	-0.76711
0.17421	-0.43551
0.30171	0.73785
-0.02981	0.99292
0.02119	0.15117
0.02119	-0.00188
0.32721	-0.15492
0.30171	0.10015
0.17421	0.50828
-0.28482	0.35523
0.09770	0.17668
0.37822	0.04914
-0.28482	0.38074
0.27621	0.15117
0.32721	0.43176
0.42922	-0.84363
0.14870	-0.25695
0.30171	-0.58856
0.22521	-0.02739
0.19971	0.68683
0.09770	0.17668
0.14870	0.35523
0.12320	0.99292
0.17421	0.83988
0.12320	0.22769
-0.00431	-0.38449
0.12320	-0.46102
0.07220	0.43176
-0.00431	-0.53754
-0.28482	0.17668
-0.02981	0.15117
0.12320	0.45726
0.32721	0.45726
0.45472	0.32972
0.48022	0.02363
-0.02981	-0.00188
0.07220	-0.23145
0.12320	-0.00188
0.35272	0.25320
0.55673	-0.10391
0.22521	0.27871
0.02119	0.20219
0.14870	-0.35899
-0.08081	0.83988
-0.18282	0.53379
0.22521	0.35523
0.30171	1.35003
-0.00431	0.12566
0.07220	-1.53234
0.19971	-1.09871
0.30171	0.04914
0.12320	1.06945
0.07220	0.89089
0.12320	0.43176
0.30171	0.10015
0.14870	-0.00188
0.19971	0.32972
0.27621	-0.25695
0.07220	-0.74160
-0.87136	-0.28246
-0.79486	-0.35899
-0.28482	-0.02739
0.83725	1.29902
1.27078	0.63582
1.52579	0.63582
-0.28482	0.27871
-0.48884	-0.41000
0.55673	-0.81812
0.04670	-0.05289
-0.02981	0.38074
0.42922	1.01843
0.30171	0.55929
0.53123	0.30422
0.53123	-0.20594
-0.20832	-0.05289
-0.13181	-0.51203
-0.84586	-0.23145
-0.97337	-0.25695
-0.02981	0.83988
0.25071	0.22769
0.78624	0.40625
0.09770	0.66132
0.50573	-0.74160
-0.18282	0.10015
0.50573	0.20219
0.60773	0.25320
0.42922	0.94191
0.17421	0.86539
0.86275	0.61031
0.22521	1.22250
-0.13181	-1.45582
0.32721	-3.13933
-0.64185	-0.61406
-1.17738	2.19179
-0.33583	2.47238
-0.00431	-1.45582
0.70974	-1.88945
0.60773	0.12566
0.12320	1.65613
0.70974	1.52859
0.93925	0.02363
1.24527	-0.46102
0.86275	1.27351
-0.08081	2.06425
-0.69285	0.63582
-2.17195	-0.33348
-0.36133	-1.50683
1.04126	-0.18043
0.55673	-1.12422
0.32721	-2.70570
0.14870	-2.50164
0.68424	1.50308
-0.56534	3.36515
-2.63097	2.31933
-0.28482	1.80917
1.55129	-1.48133
2.87738	-0.56305
-0.18282	-2.14453
-0.53984	-0.10391
-0.87136	2.14077
0.42922	0.55929
0.86275	-0.38449
0.76074	-0.97117
-0.76936	0.61031
0.93925	0.94191
1.04126	0.55929
0.53123	1.04394
0.53123	1.17148
0.25071	-2.57816
-0.53984	-1.30277
-2.12094	-1.48133
-1.71292	0.43176
-1.71292	-0.15492
1.47479	0.61031
2.01032	2.70194
1.11776	1.55410
1.55129	-0.97117
1.01576	-1.48133
-0.05531	-0.41000
-1.33039	1.88570
-1.71292	2.44687
0.60773	-0.63957
0.70974	-2.01699
0.83725	-0.02739
0.14870	0.35523
0.04670	-0.07840
-1.53441	-0.66508
-0.43783	0.45726
0.76074	-0.05289
1.75531	1.17148
0.27621	0.04914
-0.79486	-0.28246
-0.36133	-0.56305
0.40372	0.96742
0.96476	1.27351
1.14327	0.86539
0.60773	-0.66508
-0.71835	-1.65988
0.14870	-0.69059
-0.51434	-0.46102
0.02119	-0.69059
0.27621	1.65613
1.16877	1.27351
-0.00431	0.58480
-0.43783	1.32453
0.65874	-0.43551
-3.24301	0.55929
-0.87136	0.07465
0.83725	1.14597
0.58223	-0.20594
2.06133	-1.22625
2.82638	-0.71609
1.52579	-1.04770
-0.36133	-0.38449
-0.71835	-0.20594
-2.22295	1.75816
0.81175	1.24800
1.16877	1.17148
1.09226	0.53379
0.09770	0.15117
-1.55991	-0.81812
-1.25389	2.14077
0.22521	-2.90976
0.88825	-1.45582
0.30171	-2.75671
-0.08081	1.45206
-0.28482	1.70714
0.27621	1.50308
0.42922	1.68163
0.78624	2.57441
0.88825	0.50828
-0.48884	-1.86394
-0.23382	-1.76191
0.12320	-0.10391
0.09770	-0.23145
0.83725	1.37554
1.01576	-0.51203
-0.56534	-0.53754
-1.20288	0.58480
-0.02981	-0.58856
-0.05531	0.66132
2.08683	3.31413
0.99026	-1.76191
-0.33583	-1.68539
-2.73298	-2.14453
-1.53441	2.77847
1.47479	1.27351
1.27078	0.25320
-1.50890	0.25320
1.27078	1.19699
1.75531	0.50828
3.03039	0.99292
0.81175	-0.18043
-1.17738	-1.94047
-1.17738	-2.45062
-0.84586	-1.32828
-0.46334	0.81437
-0.31033	1.27351
0.48022	1.60511
0.37822	0.35523
0.35272	0.91640
-0.51434	-0.02739
-0.05531	-0.07840
0.12320	-1.25176
1.21977	0.68683
0.35272	0.04914
0.22521	1.37554
0.19971	0.30422
-0.89686	2.08976
-0.59084	-1.20074
0.73524	-1.22625
1.21977	-0.81812
0.53123	1.50308
-0.48884	-0.51203
0.32721	0.20219
-0.23382	-0.71609
-0.31033	1.60511
0.53123	-0.53754
0.40372	1.96222
1.72980	1.22250
0.07220	-0.94566
-0.20832	-2.29757
-1.53441	0.12566
-0.51434	1.83468
1.42379	1.35003
-0.18282	-1.40480
0.07220	-0.94566
0.60773	1.14597
1.01576	0.89089
-0.10631	-0.56305
0.14870	-0.33348
-0.87136	-0.10391
0.68424	0.68683
1.65330	0.15117
0.68424	0.61031
-0.61635	-0.25695
-0.18282	-0.89465
1.21977	0.15117
0.19971	-0.28246
-0.94787	1.68163
-0.92237	1.06945
-0.08081	0.40625
0.09770	0.25320
0.27621	1.09496
0.19971	0.94191
0.58223	-2.29757
0.22521	-2.06800
0.22521	-1.27726
-0.69285	-0.00188
0.53123	1.60511
1.01576	2.57441
1.19427	-1.14973
-0.92237	-1.58336
-1.50890	0.91640
-0.48884	2.21730
-0.08081	0.73785
0.91375	0.66132
0.91375	0.81437
0.60773	-2.27207
-0.94787	-1.32828
2.34184	0.02363
1.27078	0.81437
-1.15188	0.66132
1.29628	-0.18043
1.14327	0.68683
1.44929	-0.63957
-2.75848	1.06945
-1.73842	0.66132
-1.86593	-0.74160
-1.20288	-2.09351
0.30171	0.53379
1.37278	1.37554
1.93382	1.57960
0.53123	0.40625
1.34728	-0.15492
-0.20832	-0.79262
0.63323	-0.23145
-0.82036	-0.18043
0.19971	0.45726
0.12320	1.01843
0.14870	3.03355
-2.91149	0.07465
0.60773	-2.27207
0.83725	-4.38921
1.24527	-0.81812
0.65874	1.24800
0.22521	1.57960
0.63323	2.14077
0.55673	2.80397
0.78624	0.71234
-0.08081	1.55410
-1.68742	-3.08831
-0.69285	-3.16484
0.48022	-0.76711
1.55129	2.39585
1.09226	0.02363
0.02119	0.53379
-0.33583	1.83468
-2.22295	1.78367
-0.79486	0.86539
1.70430	-0.74160
1.90832	-1.32828
0.93925	-1.02219
0.04670	-0.56305
-2.14644	0.04914
0.35272	-0.30797
0.30171	0.45726
1.80631	0.22769
0.78624	1.83468
-0.08081	0.17668
-0.28482	-0.30797
-0.02981	-2.60367
-0.76936	-0.79262
-0.43783	1.27351
1.06676	2.21730
-0.02981	1.65613
-0.89686	1.09496
-0.31033	0.73785
0.37822	-1.37929
0.78624	-0.63957
1.44929	1.14597
0.07220	1.42656
-0.89686	-1.32828
-0.28482	-1.30277
-0.23382	-1.37929
0.60773	0.07465
-0.46334	0.45726
1.62780	-0.18043
1.32178	-0.05289
1.29628	1.78367
-0.18282	0.81437
-1.76392	0.61031
-1.53441	2.59991
0.70974	-0.84363
1.62780	-2.83324
0.04670	-2.62918
1.29628	0.76336
0.12320	2.39585
0.14870	2.34484
0.42922	0.63582
-0.84586	-0.86914
-2.04444	-1.68539
-2.22295	-0.05289
1.65330	0.83988
1.65330	0.30422
1.47479	0.35523
1.27078	0.07465
0.40372	-0.25695
-0.74385	-0.35899
-1.04987	1.83468
0.07220	0.12566
0.25071	-1.45582
0.48022	-3.54745
0.53123	2.88050
-0.92237	1.55410
0.78624	0.30422
0.83725	-1.76191
0.53123	1.57960
0.27621	1.73265
0.07220	0.94191
-0.28482	1.78367
-0.02981	-0.69059
-0.08081	-2.70570
-0.79486	-4.13413
-0.64185	1.75816
1.01576	1.50308
0.48022	0.76336
1.06676	-0.15492
0.76074	0.89089
-1.55991	-0.07840
-1.27939	2.72745
1.21977	0.35523
0.68424	-0.23145
1.50029	-0.25695
-1.33039	-1.04770
1.42379	-3.11382
-0.43783	-1.37929
0.60773	1.06945
1.47479	1.65613
0.65874	1.63062
0.07220	0.50828
-1.50890	0.71234
-2.80949	0.38074
0.30171	0.02363
0.76074	0.35523
0.32721	0.40625
1.75531	-0.02739
1.55129	-0.35899
0.40372	-0.71609
-1.45790	0.76336
0.30171	0.10015
-0.48884	-0.51203
-0.31033	-2.47613
0.50573	0.61031
0.07220	-0.69059
0.50573	1.65613
-0.05531	2.70194
0.50573	1.57960
-0.18282	0.35523
-0.64185	-2.52714
-0.02981	-1.73640
1.21977	0.35523
0.19971	2.24281
0.96476	1.96222
-0.36133	0.02363
0.09770	-1.68539
0.07220	-0.35899
0.63323	-1.81293
-0.61635	0.83988
0.30171	1.27351
1.37278	0.89089
0.58223	0.35523
-0.23382	0.86539
-0.89686	-0.84363
-1.12638	-1.50683
0.96476	-1.73640
1.09226	0.45726
-0.41233	1.29902
-1.02437	1.60511
-0.59084	0.50828
0.02119	0.66132
1.62780	0.15117
0.65874	0.15117
0.40372	0.55929
-0.20832	-0.89465
0.35272	-1.50683
0.48022	0.02363
1.19427	1.50308
-1.12638	0.12566
-1.55991	1.01843
-0.08081	-0.25695
1.90832	-0.15492
0.73524	-1.63437
-0.61635	1.73265
-0.23382	0.07465
0.40372	0.40625
0.27621	-0.81812
0.42922	1.12046
0.37822	-0.18043
0.55673	0.17668
0.73524	0.78886
-0.89686	-0.05289
-0.18282	0.58480
-2.09544	0.53379
0.60773	-0.12942
0.83725	-2.52714
1.60230	-1.88945
0.22521	0.27871
-1.04987	0.91640
-1.45790	2.31933
0.86275	1.14597
3.08139	1.37554
1.11776	0.35523
-3.06450	-1.63437
0.83725	-0.79262
0.30171	0.04914
0.99026	0.96742
1.04126	0.58480
-1.91693	0.15117
-0.76936	0.22769
0.27621	0.15117
1.72980	-0.35899
1.47479	-0.35899
-1.27939	0.10015
-0.99887	1.09496
-0.28482	-0.66508
-1.63641	-0.56305
1.50029	-1.58336
0.78624	0.58480
1.39828	0.48277
0.12320	0.86539
0.32721	1.17148
0.63323	2.19179
0.19971	0.63582
0.73524	0.15117
-0.41233	0.86539
-0.59084	0.27871
-0.61635	-0.99668
0.27621	-2.90976
0.40372	-1.68539
0.40372	0.50828
0.17421	1.55410
-0.74385	0.55929
0.02119	-1.27726
0.09770	0.86539
-0.05531	0.32972
-0.48884	0.17668
0.45472	1.40105
0.55673	-0.20594
0.02119	-0.48652
1.72980	1.32453
-0.13181	1.37554
1.14327	-0.43551
2.44385	-0.79262
-0.46334	-0.74160
-0.41233	0.27871
-2.06994	-0.25695
-0.43783	0.22769
-1.58541	0.96742
1.44929	0.55929
0.42922	0.45726
0.09770	0.43176
0.55673	0.04914
1.78081	0.15117
1.14327	-0.18043
-0.59084	-0.56305
-3.34502	-0.35899
0.12320	0.66132
1.24527	-0.07840
1.34728	-0.86914
1.01576	-0.38449
0.30171	1.42656
-0.00431	1.17148
0.25071	0.63582
0.02119	-1.48133
-1.27939	-0.07840
-0.41233	-0.07840
0.09770	0.63582
0.35272	0.78886
0.35272	1.47757
0.83725	0.86539
0.73524	0.02363
0.50573	-0.10391
-0.48884	0.96742
0.22521	0.15117
-0.02981	-1.35379
-1.48340	-5.53706
0.35272	-3.44542
-0.08081	2.11527
1.29628	2.80397
0.48022	2.34484
-0.10631	2.16628
0.65874	2.29382
0.07220	1.52859
0.91375	-0.23145
0.58223	-2.78222
-0.05531	-3.54745
1.01576	0.12566
-0.61635	1.04394
-0.28482	1.68163
-0.89686	0.66132
-2.19745	0.07465
-1.66191	-0.28246
1.44929	0.07465
1.65330	0.15117
1.19427	0.10015
0.48022	0.10015
1.62780	0.15117
-1.68742	0.43176
0.63323	0.35523
0.27621	-0.51203
0.53123	-0.51203
0.70974	0.68683
-0.08081	0.35523
-0.05531	-1.27726
-0.51434	-0.51203
-0.74385	0.55929
-0.92237	1.09496
0.12320	1.42656
0.53123	0.66132
0.83725	0.04914
0.40372	0.86539
1.04126	0.40625
0.96476	-0.69059
-0.66735	-1.12422
-2.75848	0.15117
0.99026	-0.41000
1.72980	-1.07320
-0.13181	-0.69059
1.09226	2.88050
-0.46334	1.17148
0.76074	-0.63957
-0.56534	-1.07320
0.70974	-0.56305
0.63323	0.15117
0.63323	0.04914
0.27621	1.57960
1.16877	1.22250
-0.08081	0.63582
-2.40146	-1.58336
-1.53441	-1.30277
-0.59084	0.71234
0.30171	0.91640
-1.94243	0.89089
-0.97337	0.40625
2.08683	0.32972
2.69887	0.07465
1.44929	0.20219
0.78624	-0.28246
1.50029	-0.07840
0.70974	-0.25695
-0.23382	-0.33348
0.14870	-0.12942
0.27621	0.25320
-0.79486	-0.05289
-0.84586	0.17668
-0.66735	1.27351
-0.48884	0.63582
0.17421	-0.74160
-0.43783	-2.50164
-0.13181	0.25320
0.19971	2.24281
0.63323	2.16628
0.96476	1.93671
1.14327	0.10015
-0.15732	-0.71609
-1.50890	-0.51203
0.86275	-2.88425
1.65330	1.24800
0.48022	1.83468
-1.25389	0.86539
-1.07538	-0.56305
0.58223	-2.57816
2.36734	-0.66508
1.32178	1.57960
0.19971	0.20219
-0.10631	0.25320
0.83725	0.35523
-1.27939	0.81437
-1.71292	0.35523
0.53123	1.14597
0.09770	0.32972
0.91375	0.20219
-2.40146	-0.81812
0.19971	-0.02739
1.55129	0.63582
0.60773	0.45726
1.34728	0.48277
-0.33583	-1.04770
-0.23382	-1.32828
-0.38683	0.38074
0.73524	0.96742
0.83725	0.71234
0.37822	0.02363
-0.31033	0.86539
0.45472	0.25320
-0.05531	-0.43551
-0.41233	-0.61406
-0.89686	1.04394
-0.43783	0.83988
0.58223	0.25320
0.22521	-0.28246
-1.40690	-1.83844
0.50573	-1.14973
1.19427	0.43176
1.37278	2.24281
1.21977	1.52859
-0.13181	1.32453
1.06676	-1.40480
0.30171	-1.60887
-1.45790	-0.41000
-0.59084	0.27871
-0.38683	1.22250
0.86275	0.94191
0.27621	2.49788
0.17421	-1.37929
1.60230	-3.11382
-0.20832	-1.55785
-0.97337	1.37554
-1.17738	1.52859
0.50573	0.66132
0.30171	0.43176
-0.46334	1.04394
0.48022	1.37554
1.44929	-1.12422
-1.22839	-1.04770
0.12320	-0.18043
1.78081	-0.05289
0.42922	-0.10391
0.99026	-0.07840
1.29628	0.76336
-1.10088	0.55929
-0.48884	0.61031
0.09770	0.83988
-0.82036	-0.23145
0.40372	0.10015
0.55673	-0.05289
-0.28482	0.20219
0.12320	-0.20594
0.27621	0.43176
0.12320	-0.15492
0.12320	-0.35899
0.12320	-0.10391
-0.05531	-0.00188
-0.48884	1.24800
0.88825	0.22769
0.25071	0.61031
0.35272	0.94191
0.17421	-0.58856
0.14870	-0.07840
1.27078	0.22769
1.09226	-0.23145
1.04126	-0.35899
-2.17195	-0.00188
-6.58373	-0.61406
0.91375	0.04914
1.98482	0.78886
3.05589	0.58480
0.88825	0.20219
0.55673	0.30422
-1.04987	0.55929
0.96476	0.71234
0.48022	0.02363
1.06676	0.30422
-0.20832	1.09496
-0.13181	0.35523
-0.56534	-1.50683
-0.43783	-1.86394
-1.58541	-1.02219
-0.74385	1.12046
1.11776	1.09496
1.14327	0.86539
-2.01894	1.09496
0.81175	-0.18043
0.81175	-1.09871
2.13783	0.30422
-1.58541	0.20219
0.50573	0.12566
0.45472	0.45726
0.73524	0.99292
0.73524	0.68683
0.42922	-0.56305
1.01576	0.68683
-1.99343	-0.89465
0.76074	-0.43551
-0.48884	-1.32828
-0.69285	0.89089
0.78624	0.66132
-0.20832	0.50828
-1.17738	0.45726
0.70974	0.71234
0.88825	-0.02739
0.76074	0.12566
0.70974	0.63582
-0.41233	0.76336
0.42922	-0.18043
0.12320	-0.02739
0.07220	0.66132
0.42922	0.07465
0.12320	-2.62918
-1.84042	-3.21585
-0.05531	-1.09871
0.83725	2.29382
1.57679	1.78367
1.19427	1.75816
-0.31033	0.68683
0.37822	0.43176
-0.51434	0.40625
-0.51434	0.32972
-0.94787	0.07465
0.93925	0.27871
1.57679	0.40625
-2.63097	0.30422
-0.36133	0.07465
1.55129	-1.50683
1.37278	-0.92016
1.04126	-0.69059
-1.30489	0.25320
-0.33583	0.40625
0.78624	0.45726
0.65874	0.55929
-0.74385	-0.35899
-0.10631	0.99292
0.27621	0.86539
0.42922	0.45726
0.86275	0.32972
0.09770	1.35003
0.07220	0.30422
-0.10631	0.10015
0.07220	-0.61406
0.60773	0.81437
-1.27939	-0.02739
0.32721	-1.60887
-0.38683	-2.50164
-0.87136	0.04914
-1.38139	0.32972
1.21977	0.27871
1.55129	2.06425
1.75531	1.14597
1.14327	1.22250
0.04670	-0.00188
0.02119	0.63582
-1.55991	-0.56305
-0.36133	-0.12942
-0.66735	-0.56305
0.22521	0.20219
0.60773	-0.43551
0.76074	-0.10391
0.91375	-0.48652
-0.23382	0.73785
0.09770	0.35523
0.30171	0.35523
0.25071	0.43176
-0.64185	0.89089
0.73524	0.17668
0.86275	-0.10391
-1.22839	-0.33348
-1.22839	0.55929
-0.48884	-0.56305
-0.43783	-1.53234
1.67880	0.10015
2.13783	1.01843
1.85731	1.04394
-1.02437	0.83988
0.60773	0.30422
0.91375	-0.12942
-0.74385	-0.43551
-0.25932	0.81437
-0.00431	-0.61406
0.27621	-0.51203
-0.36133	-2.19554
-0.33583	1.93671
0.32721	1.55410
-0.18282	0.89089
-0.25932	-0.18043
0.63323	1.22250
0.60773	1.06945
0.27621	-1.83844
0.40372	-2.88425
1.21977	-1.58336
-0.20832	0.76336
-1.40690	1.65613
-0.05531	1.22250
0.45472	0.45726
0.14870	0.86539
0.12320	0.12566
1.34728	2.01323
1.09226	0.71234
-0.53984	-1.02219
0.04670	-3.39441
-2.01894	-0.51203
-0.18282	0.68683
1.19427	0.86539
0.35272	0.58480
-0.28482	-1.07320
1.44929	-0.69059
-0.46334	0.25320
0.68424	1.06945
0.25071	0.04914
0.63323	0.48277
1.14327	0.81437
0.27621	1.86019
-1.35589	0.53379
-1.89143	-0.43551
-0.76936	-0.99668
0.93925	0.10015
1.50029	0.40625
1.32178	0.22769
0.07220	-0.46102
-1.22839	0.04914
0.45472	0.38074
-1.22839	0.61031
-1.25389	-0.79262
1.34728	-0.25695
1.50029	-0.30797
1.50029	0.61031
0.83725	0.99292
0.02119	0.63582
-0.66735	0.12566
0.32721	0.22769
-0.23382	0.12566
-0.31033	-0.12942
-0.02981	0.07465
0.76074	-0.18043
0.07220	-0.38449
-0.64185	0.78886
0.50573	0.02363
1.95932	-0.15492
-1.40690	0.91640
-1.55991	0.25320
-1.71292	-1.35379
-0.92237	-1.55785
2.16333	0.81437
1.93382	0.55929
1.21977	0.96742
1.21977	0.35523
-0.05531	0.48277
-0.02981	1.01843
0.07220	0.32972
-0.46334	-0.25695
-0.74385	0.15117
0.76074	0.20219
1.14327	-0.15492
-0.84586	-0.15492
-0.92237	-0.33348
0.14870	-0.53754
-1.43240	-0.20594
0.53123	-0.66508
0.55673	0.91640
0.02119	-1.30277
1.21977	1.40105
0.91375	1.09496
0.58223	0.07465
0.37822	0.43176
0.04670	0.73785
-0.48884	-0.15492
-0.13181	0.96742
0.09770	0.15117
0.14870	1.22250
0.35272	0.50828
0.78624	-1.07320
-0.61635	-1.78742
0.73524	-0.05289
0.30171	0.68683
-1.66191	1.04394
-0.05531	-0.18043
0.02119	-1.40480
-0.48884	-1.27726
0.17421	-0.18043
1.39828	0.86539
0.88825	2.03874
2.29084	1.32453
0.70974	1.19699
-0.87136	1.40105
-1.43240	-0.66508
-0.89686	-1.04770
-0.31033	-0.74160
0.25071	0.35523
2.11233	0.30422
1.19427	-0.00188
-0.69285	-0.25695
-0.36133	-0.43551
0.09770	-0.92016
0.07220	0.38074
0.19971	1.17148
-0.48884	0.07465
0.25071	0.25320
-0.28482	0.48277
-0.28482	-0.18043
1.01576	-0.30797
0.30171	0.02363
-3.11551	1.27351
1.93382	1.88570
1.72980	0.04914
0.76074	-1.53234
-0.51434	-0.30797
0.22521	0.48277
-0.08081	0.32972
-0.41233	0.53379
-0.28482	0.61031
0.73524	0.15117
0.42922	-0.46102
0.55673	-1.25176
0.40372	0.63582
0.60773	-0.05289
0.86275	-0.28246
-1.35589	-0.00188
-0.25932	0.25320
-0.08081	1.09496
-0.25932	0.73785
0.45472	0.76336
-1.22839	-0.12942
0.76074	0.04914
-0.71835	0.22769
-0.56534	0.45726
0.35272	0.07465
1.11776	-0.46102
0.32721	-0.20594
0.07220	0.45726
2.11233	0.15117
1.75531	0.17668
0.76074	0.35523
0.68424	-0.05289
-2.55447	0.02363
0.37822	-0.18043
-0.05531	0.58480
-0.84586	0.20219
0.07220	0.66132
0.35272	-0.74160
0.35272	-0.79262
-1.22839	-0.38449
0.09770	0.43176
0.12320	0.55929
0.32721	1.01843
0.63323	0.15117
0.60773	0.55929
0.17421	0.40625
0.17421	0.50828
0.58223	-0.00188
0.07220	-0.28246
0.02119	0.45726
-1.40690	-1.27726
-0.66735	-0.56305
0.91375	-0.02739
0.73524	0.07465
0.45472	0.12566
0.32721	0.61031
1.14327	0.73785
0.78624	1.04394
0.35272	0.02363
-0.28482	0.10015
-1.15188	0.76336
0.32721	1.17148
-0.28482	-0.41000
0.07220	0.15117
-1.40690	-0.25695
-0.00431	-0.48652
0.86275	-0.76711
1.29628	-0.23145
-0.46334	0.45726
-0.64185	0.04914
0.76074	-0.30797
0.83725	0.17668
-1.30489	0.91640
2.21434	0.43176
1.21977	0.40625
-0.89686	0.07465
0.04670	-0.18043
0.27621	0.15117
0.53123	-0.33348
-0.10631	-0.33348
0.17421	1.29902
-0.89686	1.70714
-0.23382	0.45726
-0.18282	-0.71609
0.60773	0.45726
-0.59084	-0.33348
0.04670	0.20219
0.78624	-0.48652
0.68424	0.53379
0.70974	-0.76711
0.22521	0.27871
0.48022	-1.07320
-0.10631	0.10015
-0.53984	0.32972
-0.15732	0.83988
1.21977	0.73785
-0.94787	-0.07840
1.04126	0.25320
0.02119	0.66132
-0.48884	0.71234
0.60773	1.01843
-0.02981	0.32972
-0.56534	-0.97117
0.88825	-1.88945
0.73524	0.22769
0.58223	0.68683
0.40372	0.76336
0.37822	-0.18043
-0.82036	0.43176
1.14327	-0.15492
-0.66735	0.07465
-0.71835	0.45726
0.04670	0.55929
-0.18282	0.55929
0.40372	-0.12942
0.93925	-0.86914
0.83725	0.35523
0.02119	0.04914
-0.36133	0.17668
-0.02981	0.30422
0.09770	0.27871
0.22521	0.22769
0.27621	0.50828
0.17421	0.50828
-0.02981	0.86539
-0.41233	-0.86914
0.58223	-0.71609
0.14870	-0.10391
-0.05531	0.94191
0.88825	0.22769
-0.15732	0.58480
-0.38683	-0.58856
0.37822	-1.40480
0.02119	0.35523
-0.87136	0.81437
-0.51434	1.01843
0.07220	0.45726
1.06676	-0.48652
1.83181	-0.18043
1.72980	0.07465
0.19971	0.43176
-0.38683	-0.41000
-0.51434	0.66132
0.02119	0.40625
-1.68742	-0.02739
-2.22295	-0.15492
1.72980	0.10015
2.01032	0.07465
-0.69285	0.02363
-0.00431	0.27871
0.76074	0.35523
1.14327	0.27871
0.65874	-0.69059
-0.25932	0.15117
-0.08081	0.17668
-0.94787	0.32972
-0.69285	0.81437
0.42922	0.12566
0.58223	0.38074
0.27621	-0.15492
0.68424	-0.53754
-0.02981	0.63582
0.53123	0.04914
0.50573	-0.89465
-1.04987	-0.00188
0.55673	0.73785
0.60773	-0.69059
0.35272	0.81437
-0.74385	-0.00188
-0.41233	0.68683
-0.18282	0.71234
0.30171	0.38074
1.78081	-0.07840
1.47479	1.60511
-0.51434	0.55929
-2.12094	0.27871
1.21977	-0.89465
0.99026	-1.45582
-1.10088	-1.60887
0.83725	-0.25695
2.36734	0.68683
-0.64185	0.91640
-1.76392	0.81437
0.22521	1.17148
-1.38139	-0.07840
0.42922	-0.18043
1.67880	0.20219
1.27078	0.35523
0.02119	0.02363
-0.31033	-0.58856
0.14870	-0.43551
-0.71835	-0.15492
0.12320	1.14597
-1.02437	0.55929
1.19427	0.25320
-0.31033	1.27351
-0.08081	0.81437
0.37822	-0.89465
0.53123	-0.30797
0.55673	-0.92016
0.55673	0.15117
-0.10631	0.45726
0.22521	-0.05289
0.04670	0.22769
0.58223	0.58480
0.60773	0.94191
0.32721	-0.12942
-1.30489	-0.94566
-2.32496	-0.02739
-0.02981	-0.00188
1.80631	0.25320
0.27621	0.86539
0.76074	0.91640
1.19427	0.25320
1.65330	-0.05289
-0.66735	0.30422
1.11776	0.61031
-0.51434	0.02363
-1.61091	-0.02739
-0.97337	0.32972
0.68424	0.63582
0.02119	-0.33348
1.14327	-0.53754
0.63323	-0.48652
-0.89686	-0.48652
0.50573	-0.48652
0.60773	0.43176
-0.89686	0.96742
-1.40690	0.91640
0.83725	-0.58856
0.58223	0.30422
0.60773	0.22769
0.40372	0.48277
0.45472	0.17668
-0.76936	0.20219
0.42922	0.17668
0.14870	-0.05289
0.27621	0.86539
-0.05531	0.55929
0.19971	0.27871
0.19971	0.40625
0.68424	0.12566
0.91375	-0.58856
0.07220	-0.48652
-1.48340	0.20219
-0.23382	0.30422
-1.68742	-0.12942
0.09770	-0.99668
1.57679	-0.07840
1.44929	-0.76711
0.96476	1.17148
0.58223	0.35523
0.58223	1.50308
1.44929	0.40625
-0.66735	0.15117
-0.28482	-0.00188
-0.89686	0.32972
-1.89143	0.15117
-0.02981	-0.05289
1.11776	-0.15492
1.70430	-0.02739
0.45472	0.04914
-0.43783	-0.76711
-0.61635	0.15117
-0.28482	-0.15492
-0.33583	0.73785
0.93925	0.83988
1.06676	-0.15492
0.76074	-0.89465
0.88825	0.61031
-0.23382	0.25320
-0.38683	0.61031
-0.08081	-0.38449
0.32721	-0.33348
-0.15732	0.55929
-0.25932	0.66132
0.12320	0.63582
-1.91693	0.10015
0.53123	-0.48652
0.73524	0.63582
1.34728	0.76336
0.14870	-0.02739
0.58223	0.15117
0.68424	0.76336
0.17421	-0.46102
-0.48884	-0.81812
-0.05531	-0.05289
0.27621	-1.50683
-0.00431	-0.30797
-0.84586	0.22769
0.07220	1.55410
0.68424	0.86539
0.27621	0.20219
0.50573	0.15117
-0.48884	0.71234
0.76074	0.35523
-1.12638	-0.10391
0.07220	0.15117
0.37822	0.20219
1.72980	0.17668
0.02119	0.15117
0.45472	0.15117
1.14327	-0.05289
-0.25932	-0.18043
-1.50890	-0.66508
-0.46334	-0.10391
0.50573	-0.51203
-0.41233	-0.66508
0.04670	1.06945
1.37278	1.63062
0.86275	1.12046
0.53123	-0.05289
0.45472	0.20219
0.02119	-0.76711
-0.08081	0.15117
-0.48884	0.30422
-0.66735	0.94191
-0.05531	-0.10391
0.58223	0.04914
-0.59084	-0.07840
0.37822	0.10015
0.48022	0.07465
0.30171	0.17668
0.25071	0.25320
-0.99887	-0.28246
0.42922	0.02363
0.70974	0.25320
-0.08081	0.53379
0.42922	0.27871
1.11776	-0.18043
0.32721	0.04914
0.07220	-0.05289
-1.43240	-0.79262
-0.64185	0.50828
1.14327	1.37554
1.29628	1.12046
1.52579	0.17668
0.76074	0.45726
-1.86593	-0.76711
0.12320	-0.69059
-1.12638	-0.74160
0.40372	1.24800
0.48022	0.68683
0.63323	0.02363
-0.25932	0.83988
0.30171	0.48277
0.81175	-0.66508
0.53123	-0.33348
0.04670	-0.30797
0.65874	-0.07840
0.27621	0.04914
-0.61635	0.61031
-1.12638	1.40105
-0.13181	0.58480
0.17421	-0.69059
0.35272	-0.02739
0.27621	0.17668
-0.71835	0.35523
0.63323	0.30422
0.50573	0.04914
1.24527	-0.92016
0.02119	-0.18043
0.14870	0.04914
0.40372	0.78886
-0.48884	-0.61406
-1.25389	0.68683
0.53123	0.50828
-0.13181	0.50828
0.65874	0.50828
0.12320	0.76336
0.37822	0.25320
-0.02981	0.10015
1.01576	-1.07320
0.37822	0.45726
-0.25932	0.55929
0.19971	-0.69059
1.27078	-0.84363
0.04670	-0.10391
0.32721	0.35523
-2.35046	-0.25695
-2.27395	0.27871
0.58223	0.83988
1.32178	0.35523
0.65874	-0.43551
-0.00431	0.96742
0.55673	0.94191
0.19971	0.45726
0.27621	0.35523
0.83725	0.32972
0.86275	-0.30797
-0.31033	0.02363
-0.13181	-0.25695
-0.10631	0.22769
0.22521	0.04914
-0.28482	-0.00188
0.12320	0.61031
0.45472	-0.48652
0.37822	-0.58856
0.63323	-1.07320
0.63323	0.58480
0.22521	0.04914
0.48022	0.81437
0.81175	0.55929
-1.66191	1.04394
-0.89686	1.12046
-0.41233	0.22769
0.99026	-0.12942
0.63323	-0.79262
0.48022	-0.10391
-0.10631	0.63582
0.40372	0.38074
-0.00431	0.45726
0.65874	0.15117
-0.74385	-0.81812
0.91375	-0.66508
0.07220	0.12566
-0.99887	0.27871
1.55129	-0.61406
0.42922	0.10015
1.39828	0.30422
0.02119	-0.05289
-0.69285	1.32453
-0.10631	0.94191
-0.00431	0.30422
0.09770	-0.23145
0.25071	-0.61406
-0.41233	-0.35899
0.40372	0.25320
-0.76936	0.40625
0.19971	1.32453
0.48022	1.32453
-0.20832	-0.58856
0.55673	-1.58336
0.14870	0.15117
0.83725	0.43176
0.73524	-0.71609
0.50573	-0.99668
0.17421	1.32453
-0.23382	0.86539
0.60773	0.32972
-0.10631	-0.38449
-0.56534	0.66132
-0.18282	0.45726
0.60773	0.15117
-0.48884	0.27871
-0.71835	0.66132
0.86275	-0.15492
-0.99887	-0.86914
-0.08081	0.40625
0.32721	0.45726
0.83725	0.63582
1.62780	-2.78222
1.32178	-0.71609
0.12320	0.17668
0.32721	1.55410
-0.00431	1.70714
0.09770	0.89089
-0.76936	0.50828
-0.46334	-0.38449
0.22521	0.45726
0.32721	0.38074
-1.50890	0.04914
-0.53984	0.17668
0.70974	-0.43551
0.86275	0.35523
-0.33583	0.30422
-0.25932	-0.28246
1.52579	-0.84363
0.96476	-0.05289
-0.66735	0.40625
0.93925	0.73785
-0.15732	-0.66508
0.27621	0.10015
-0.53984	-0.00188
0.42922	0.30422
0.04670	0.50828
-0.28482	0.25320
-0.46334	0.73785
0.04670	1.63062
0.32721	0.83988
0.99026	-0.33348
1.11776	-0.33348
0.32721	-0.56305
-1.84042	0.15117
-2.01894	-0.02739
0.60773	-0.07840
1.19427	-0.05289
1.42379	0.45726
1.32178	0.68683
-0.15732	-0.18043
0.32721	-0.71609
0.48022	0.68683
-2.24845	1.06945
0.83725	0.94191
0.40372	-0.74160
0.19971	-0.43551
0.14870	-0.51203
0.35272	0.25320
0.96476	-0.46102
-0.53984	1.04394
-1.33039	0.76336
-1.12638	0.66132
-0.48884	0.20219
1.70430	0.55929
1.42379	0.73785
1.95932	-0.38449
-0.33583	-0.97117
-1.89143	-0.25695
-0.76936	0.07465
0.93925	0.30422
1.29628	-0.20594
1.70430	-0.12942
0.04670	0.04914
-1.55991	0.10015
-0.51434	0.25320
0.22521	0.38074
0.27621	0.53379
0.40372	0.15117
0.53123	1.14597
0.48022	0.12566
-0.56534	-0.33348
-0.02981	-1.30277
-0.13181	0.45726
0.68424	0.45726
0.19971	1.14597
-0.15732	0.76336
0.55673	0.15117
0.55673	-0.41000
-0.13181	0.27871
0.30171	0.25320
-0.08081	0.53379
-0.20832	-0.12942
-0.18282	-0.35899
0.55673	-0.99668
1.21977	-0.48652
-0.15732	-0.05289
-0.02981	0.63582
-0.71835	-0.05289
0.14870	0.58480
-0.38683	0.20219
0.37822	0.02363
0.99026	0.40625
1.11776	0.50828
0.30171	0.63582
0.27621	0.55929
-0.33583	0.43176
0.07220	-0.25695
0.32721	-0.18043
-1.96793	-0.00188
-0.97337	-0.05289
0.17421	-0.28246
1.19427	0.25320
0.53123	0.17668
0.25071	0.12566
1.29628	0.10015
0.09770	0.07465
0.19971	0.55929
0.14870	0.12566
0.19971	0.07465
-0.02981	-0.76711
-0.36133	1.37554
0.55673	0.48277
-0.08081	-0.15492
-0.38683	-1.20074
-1.61091	0.66132
0.09770	0.20219
0.93925	0.55929
0.91375	0.73785
0.30171	0.81437
0.96476	0.50828
-0.18282	-0.97117
0.12320	0.15117
0.53123	0.78886
0.45472	0.12566
-0.41233	-0.07840
-0.43783	0.66132
0.19971	-0.66508
0.02119	-0.28246
-0.18282	0.63582
0.93925	-0.48652
-1.30489	-1.48133
-0.46334	-1.76191
2.29084	1.14597
0.25071	1.70714
-0.43783	0.78886
0.12320	0.55929
0.07220	0.76336
0.53123	0.50828
1.32178	-0.46102
-1.02437	-0.89465
-1.15188	-0.33348
-1.12638	0.32972
0.93925	0.83988
0.09770	0.71234
1.34728	0.66132
-0.00431	-0.51203
0.58223	-0.76711
0.27621	-0.69059
-0.25932	-0.18043
0.04670	0.58480
0.22521	1.01843
0.37822	0.73785
0.22521	0.25320
0.14870	0.58480
-0.33583	0.27871
-1.17738	-0.69059
-0.00431	0.35523
-0.25932	0.55929
0.60773	-0.74160
1.21977	-1.48133
-0.08081	-1.30277
0.27621	1.32453
0.50573	1.45206
0.07220	1.32453
0.27621	1.12046
0.37822	-0.20594
0.50573	-0.41000
1.37278	0.50828
-0.15732	-0.25695
-0.41233	-0.58856
0.27621	-1.30277
-2.27395	0.53379
-0.02981	0.61031
1.88281	1.37554
0.22521	1.35003
-0.48884	-0.15492
-0.25932	-0.79262
-0.48884	-1.32828
0.73524	0.12566
1.42379	0.45726
0.32721	0.43176
-2.01894	0.35523
0.60773	-0.18043
1.62780	0.04914
0.81175	0.63582
0.12320	0.53379
-0.43783	0.35523
-0.08081	0.32972
0.55673	1.37554
-0.15732	-0.35899
-0.36133	-0.99668
0.22521	-0.18043
-0.08081	0.27871
0.53123	-0.18043
0.12320	0.30422
-1.20288	0.35523
0.70974	0.02363
0.27621	0.07465
1.11776	-0.28246
-0.48884	-0.12942
0.78624	0.94191
1.42379	0.10015
-0.08081	0.17668
-0.69285	-0.61406
-1.07538	0.91640
0.40372	0.96742
0.93925	-0.05289
-0.51434	-0.00188
0.02119	0.22769
-2.06994	0.10015
0.42922	0.22769
2.16333	-0.20594
1.14327	-1.07320
0.76074	-0.66508
1.44929	0.04914
-0.71835	1.45206
-0.97337	1.17148
-1.07538	-0.18043
-0.02981	0.17668
0.96476	0.15117
-0.05531	-0.05289
-0.51434	-0.05289
0.93925	1.04394
1.06676	-0.07840
0.19971	-0.33348
-0.59084	-0.66508
-0.66735	-0.25695
0.50573	-0.10391
-0.13181	-0.05289
0.42922	0.73785
0.02119	2.42136
0.58223	1.45206
0.88825	0.17668
0.35272	-1.17523
0.17421	-1.09871
-0.28482	0.20219
-1.22839	-0.12942
-0.10631	0.22769
0.14870	0.43176
0.60773	-0.25695
0.70974	0.04914
0.32721	0.58480
0.32721	0.71234
0.37822	0.12566
1.34728	-0.51203
-0.51434	0.20219
-1.99343	0.38074
0.73524	0.22769
-0.87136	0.02363
0.42922	-0.84363
1.11776	-0.30797
1.44929	0.17668
-1.15188	0.76336
0.40372	0.89089
0.76074	0.99292
-1.07538	0.53379
0.25071	0.10015
0.17421	-0.10391
0.55673	0.04914
-1.20288	-0.18043
-0.41233	0.30422
0.93925	-0.43551
1.55129	0.43176
0.70974	-0.35899
0.42922	-0.18043
0.86275	-0.61406
-1.04987	0.17668
-0.23382	0.73785
0.37822	0.78886
0.12320	0.99292
0.32721	-0.23145
-0.18282	-0.25695
-0.82036	0.45726
-0.20832	-0.18043
-0.43783	0.50828
-0.08081	0.45726
1.21977	0.12566
0.37822	-0.46102
-0.64185	-0.18043
-0.08081	0.04914
1.24527	-0.25695
1.11776	0.48277
0.32721	0.63582
-0.18282	0.94191
0.50573	0.15117
0.86275	-0.74160
-0.97337	-0.81812
0.42922	0.63582
-0.71835	0.89089
0.53123	0.63582
0.86275	0.43176
0.32721	-0.33348
0.02119	-0.58856
-0.10631	-0.25695
-0.84586	0.15117
-0.08081	1.60511
0.17421	0.48277
-0.25932	-0.76711
-0.05531	-0.69059
1.37278	0.02363
-0.20832	0.02363
1.01576	1.17148
0.81175	0.22769
0.22521	0.04914
-0.02981	-0.63957
-0.20832	0.63582
0.30171	1.14597
-0.00431	0.40625
0.14870	-0.86914
0.12320	0.02363
-1.04987	-0.02739
-0.31033	0.32972
0.58223	0.78886
1.21977	-0.10391
0.14870	-0.28246
0.42922	-0.12942
0.40372	0.58480
-0.23382	0.68683
-0.10631	-0.10391
-0.79486	0.12566
1.04126	0.15117
0.63323	0.35523
0.86275	-0.35899
0.37822	0.30422
-1.12638	0.81437
-0.15732	-0.28246
-0.36133	0.04914
0.37822	0.15117
0.45472	-0.15492
0.81175	0.04914
-1.17738	0.50828
0.40372	0.07465
1.24527	0.15117
-0.08081	0.50828
-0.59084	0.45726
0.27621	-0.48652
1.06676	-0.43551
0.32721	-0.07840
0.07220	0.45726
-1.12638	0.66132
-0.61635	-0.05289
0.32721	0.32972
1.09226	0.83988
0.22521	0.25320
0.19971	-0.30797
-0.59084	-0.25695
0.48022	-0.28246
0.53123	-0.28246
0.65874	0.45726
0.40372	0.07465
-1.22839	0.45726
-0.00431	0.53379
0.27621	0.15117
0.19971	0.40625
0.09770	0.58480
-0.05531	-0.25695
0.12320	-1.50683
0.12320	0.02363
0.22521	0.76336
0.53123	1.14597
0.42922	-0.12942
-0.38683	0.55929
0.60773	0.96742
0.91375	0.50828
-0.08081	-0.10391
-0.23382	0.12566
-0.33583	-0.00188
-0.38683	-0.25695
-0.28482	-0.76711
-0.38683	0.45726
-0.08081	-0.43551
1.75531	-0.84363
1.34728	-0.38449
-1.68742	0.63582
1.67880	0.15117
0.58223	0.22769
1.24527	0.73785
-0.10631	1.19699
-1.04987	0.99292
-0.56534	0.30422
-0.36133	0.45726
0.25071	0.48277
0.78624	-0.25695
0.02119	0.10015
-0.18282	-1.17523
-0.92237	-1.14973
-0.94787	-0.58856
0.60773	0.17668
0.70974	1.01843
0.50573	0.89089
0.48022	0.96742
0.86275	-0.10391
0.78624	-0.66508
-0.43783	0.22769
0.17421	-0.05289
0.09770	-0.41000
-1.30489	1.19699
0.65874	0.61031
-0.05531	0.94191
0.99026	0.02363
1.01576	-0.18043
-0.23382	0.35523
-1.22839	0.12566
0.73524	-0.12942
0.86275	-0.46102
0.76074	-0.66508
0.96476	0.15117
0.83725	0.55929
-1.99343	0.73785
-1.58541	-0.51203
-0.89686	0.32972
0.35272	-0.05289
0.32721	-0.23145
0.70974	1.22250
1.78081	0.96742
1.32178	0.55929
0.68424	0.48277
-1.40690	-1.17523
0.30171	0.10015
1.01576	-0.84363
-4.16107	-0.25695
-0.36133	-0.66508
1.21977	1.50308
0.91375	0.58480
0.93925	-0.02739
0.02119	-0.25695
-0.28482	0.66132
0.35272	0.38074
1.21977	0.25320
0.42922	-0.02739
0.40372	0.20219
0.19971	0.99292
-0.84586	0.12566
-0.74385	-0.35899
-0.13181	-0.48652
0.48022	0.20219
0.09770	0.20219
0.25071	0.58480
-0.00431	-0.74160
0.27621	0.07465
0.78624	0.89089
0.40372	-0.07840
-0.38683	-0.33348
-0.46334	-0.20594
-0.13181	0.83988
0.42922	0.78886
1.32178	0.04914
-0.33583	-0.05289
0.76074	1.09496
0.81175	1.04394
0.37822	-1.17523
-1.58541	-1.50683
0.27621	-0.33348
0.93925	1.09496
0.04670	1.14597
0.35272	-0.18043
-0.53984	-0.23145
-0.13181	-0.30797
-0.13181	0.66132
0.48022	1.04394
0.93925	0.43176
-0.08081	-0.02739
0.35272	-0.07840
0.14870	0.04914
-0.15732	-0.61406
-0.64185	0.15117
-0.20832	-0.15492
0.48022	-0.79262
0.53123	0.68683
0.50573	0.78886
0.63323	0.83988
0.30171	0.17668
-0.15732	0.43176
0.14870	0.32972
0.37822	-0.12942
-0.13181	0.66132
-0.02981	-0.10391
1.14327	-0.15492
-1.61091	-0.66508
-0.51434	0.20219
0.86275	0.43176
0.37822	0.12566
-0.31033	0.20219
-0.89686	0.48277
-0.15732	0.68683
0.30171	-0.15492
1.55129	0.02363
0.73524	-0.48652
0.48022	0.55929
0.88825	1.01843
-0.33583	0.43176
0.37822	-0.76711
0.25071	-1.58336
-1.12638	-0.86914
-0.36133	1.06945
0.45472	0.55929
1.01576	0.83988
-0.18282	0.12566
-0.76936	0.32972
-1.07538	0.20219
0.32721	0.58480
-0.31033	0.40625
0.93925	0.27871
0.83725	-0.02739
0.86275	-1.22625
0.04670	-0.00188
-0.23382	0.71234
0.78624	0.73785
0.76074	-0.48652
0.63323	-0.20594
-1.35589	-0.41000
-1.33039	0.71234
1.16877	0.10015
-0.48884	0.20219
1.44929	0.43176
0.96476	0.17668
-0.56534	-0.23145
-1.53441	-0.07840
-0.36133	0.83988
1.80631	0.91640
0.96476	0.48277
0.07220	0.83988
-0.89686	-0.41000
0.35272	0.07465
1.29628	-0.35899
0.17421	-1.48133
-0.48884	-0.63957
0.27621	0.43176
0.53123	0.50828
0.25071	1.40105
-0.00431	0.04914
0.25071	-0.46102
0.17421	-0.35899
-0.69285	1.01843
-1.76392	0.22769
-0.87136	-0.30797
0.35272	0.83988
1.57679	0.22769
1.65330	0.04914
0.83725	-0.38449
0.55673	0.86539
0.04670	-0.15492
0.07220	-0.63957
0.19971	-0.81812
0.27621	-0.10391
-0.43783	0.32972
-0.23382	0.86539
0.42922	1.45206
-0.46334	0.71234
-0.79486	-0.07840
0.76074	-0.18043
0.35272	0.25320
0.78624	-0.07840
0.86275	-0.10391
1.04126	0.17668
-2.04444	-0.23145
-0.33583	-0.86914
1.04126	0.73785
0.88825	0.63582
-3.19201	0.91640
-0.18282	0.15117
1.98482	-0.43551
1.32178	-0.81812
1.04126	0.04914
0.45472	0.32972
0.19971	0.43176
0.30171	0.20219
-0.28482	0.30422
-0.59084	0.58480
-0.76936	0.35523
-0.59084	-0.43551
0.96476	-0.63957
0.30171	-0.00188
0.19971	1.12046
-0.02981	0.53379
-0.05531	0.25320
0.02119	0.04914
-0.64185	-0.41000
0.48022	0.81437
0.76074	0.68683
-0.43783	0.78886
0.14870	-0.35899
1.19427	-0.66508
-0.46334	-2.22105
-0.08081	-0.69059
0.70974	0.89089
0.40372	1.32453
0.63323	1.37554
0.65874	1.14597
0.50573	-0.23145
0.27621	-0.46102
-0.33583	-0.53754
-0.97337	0.53379
0.60773	0.61031
1.21977	1.32453
-0.28482	0.81437
-3.39602	-1.37929
-2.75848	-1.07320
1.70430	-0.30797
2.21434	0.38074
1.09226	-0.18043
1.47479	-0.51203
1.04126	0.02363
0.32721	1.06945
1.29628	0.96742
0.14870	0.53379
-0.28482	0.66132
-1.48340	0.53379
-0.46334	0.04914
0.04670	0.50828
0.40372	-0.30797
-0.84586	-0.61406
-0.56534	-0.05289
0.02119	0.73785
-0.00431	-0.61406
0.65874	-1.78742
0.07220	0.32972
0.12320	-0.05289
1.42379	0.96742
1.16877	1.09496
0.83725	0.68683
1.16877	0.35523
0.73524	0.10015
-0.59084	0.45726
-1.10088	0.71234
-2.06994	0.48277
-0.25932	-1.09871
0.73524	-0.92016
0.86275	0.15117
0.91375	0.81437
0.27621	0.71234
0.25071	-0.35899
0.02119	-0.00188
-0.79486	-0.12942
0.42922	0.02363
-0.46334	0.43176
-0.36133	0.45726
0.27621	0.68683
1.01576	0.58480
0.30171	-0.33348
-0.08081	-0.51203
-0.25932	-0.00188
0.35272	0.35523
1.32178	0.30422
0.27621	0.07465
0.12320	0.04914
0.53123	-0.28246
-0.31033	0.76336
0.02119	-0.25695
-0.56534	0.02363
1.01576	-0.05289
-0.05531	0.10015
0.32721	1.86019
-0.28482	0.30422
-0.13181	-0.79262
-2.42696	-1.27726
-0.94787	-0.00188
0.78624	0.66132
2.29084	1.47757
0.96476	0.35523
0.88825	0.45726
0.45472	0.30422
0.53123	0.15117
0.45472	-0.00188
0.14870	-0.23145
-0.13181	-1.48133
-1.04987	-0.30797
-1.78942	0.12566
0.60773	1.19699
-1.12638	0.25320
0.65874	0.25320
1.44929	-0.48652
0.81175	0.50828
0.55673	0.68683
-0.48884	0.61031
0.09770	-0.81812
-0.08081	0.63582
0.45472	0.63582
0.19971	0.61031
0.22521	-0.74160
1.11776	-1.22625
-0.41233	-0.20594
-0.94787	0.66132
0.02119	0.83988
-0.53984	0.86539
1.95932	0.58480
-0.10631	0.25320
0.58223	0.10015
0.65874	-0.00188
0.25071	0.02363
-0.15732	-0.35899
-0.74385	0.15117
-1.30489	-0.20594
-0.89686	-0.30797
1.55129	0.43176
1.27078	-0.46102
0.83725	0.45726
0.35272	0.38074
0.17421	0.55929
-0.00431	0.12566
-0.18282	-0.15492
-0.23382	-0.05289
1.06676	0.45726
-1.63641	-0.05289
0.40372	0.30422
-0.48884	-0.33348
-0.08081	0.04914
0.32721	0.32972
1.11776	1.04394
0.12320	1.47757
-0.79486	0.63582
1.04126	0.12566
0.99026	-1.09871
0.68424	0.07465
-0.41233	0.45726
0.65874	-0.33348
0.04670	-0.23145
-2.14644	0.10015
-0.05531	-0.07840
1.24527	-0.38449
1.37278	-0.10391
0.91375	0.12566
-0.92237	0.45726
-1.38139	0.43176
1.62780	0.04914
-0.41233	-0.18043
-0.05531	-0.46102
-0.43783	1.17148
-0.31033	1.40105
0.27621	-0.07840
0.45472	-0.71609
1.21977	-0.48652
1.16877	0.66132
-0.02981	0.63582
-0.00431	0.45726
0.32721	-0.25695
-0.13181	-0.99668
-0.18282	-0.41000
0.02119	0.68683
-0.23382	0.55929
-1.91693	1.04394
0.81175	0.30422
-0.02981	0.04914
0.58223	-0.30797
0.73524	-0.12942
1.32178	0.32972
-0.87136	-0.12942
0.83725	0.35523
-0.00431	-0.23145
-2.57997	0.45726
-0.71835	-0.76711
1.75531	-0.92016
1.32178	-1.43031
0.48022	1.12046
-0.61635	0.89089
-0.79486	0.63582
1.65330	0.68683
0.76074	1.09496
0.76074	1.32453
-0.59084	0.15117
0.09770	-0.71609
1.52579	-0.23145
-3.44703	0.30422
0.22521	0.32972
0.55673	-0.41000
0.42922	-0.41000
-1.12638	-0.58856
-0.53984	-0.28246
0.96476	0.40625
1.14327	0.38074
0.83725	-0.05289
0.53123	0.04914
0.04670	0.58480
-1.02437	0.96742
0.63323	-0.00188
0.30171	-0.10391
0.53123	0.15117
-0.25932	0.32972
0.02119	0.10015
-0.33583	0.96742
-0.02981	-0.79262
0.50573	0.02363
-0.00431	0.20219
0.37822	0.32972
0.37822	0.27871
0.58223	-0.51203
0.53123	0.25320
-2.01894	0.27871
-2.83499	0.73785
1.29628	0.45726
1.42379	0.07465
1.62780	-0.28246
1.19427	-0.35899
0.42922	1.24800
0.68424	-0.74160
0.45472	-1.22625
-1.50890	-1.81293
0.02119	0.66132
-0.02981	0.25320
0.09770	2.21730
-0.23382	1.12046
0.07220	-0.15492
0.37822	0.15117
0.73524	0.89089
1.11776	0.25320
0.68424	-0.02739
-0.23382	-0.05289
-2.42696	0.10015
-1.12638	0.02363
-1.48340	-0.38449
1.78081	-0.18043
1.93382	-0.02739
1.01576	-0.05289
1.06676	-0.05289
1.44929	0.12566
0.19971	0.04914
-1.45790	0.32972
-0.64185	0.02363
0.09770	0.20219
-0.02981	0.25320
-0.02981	0.78886
0.45472	0.78886
-0.02981	-0.46102
0.35272	-1.58336
-0.97337	-0.38449
-0.25932	1.78367
0.48022	1.35003
0.50573	0.94191
0.45472	0.04914
0.45472	-0.35899
-0.00431	-0.89465
-0.43783	-0.41000
1.72980	0.32972
-0.02981	0.43176
-0.89686	-0.00188
-0.71835	-0.00188
0.93925	0.10015
0.78624	0.17668
-0.36133	0.04914
-1.25389	-0.97117
0.63323	0.66132
0.58223	1.06945
1.75531	0.25320
0.55673	-0.25695
-0.94787	-0.30797
-0.38683	0.17668
1.21977	0.91640
0.96476	0.32972
-0.61635	0.10015
-2.40146	-0.07840
-0.61635	-0.05289
0.65874	0.25320
1.47479	0.04914
1.11776	0.78886
0.37822	0.86539
0.35272	-0.02739
-0.36133	-0.97117
0.02119	-0.69059
0.14870	0.55929
0.14870	-0.41000
0.04670	-0.05289
-0.41233	0.10015
0.04670	1.04394
0.96476	0.96742
0.14870	0.55929
-0.18282	-0.63957
0.09770	-1.25176
0.37822	-0.94566
0.42922	0.45726
0.30171	1.35003
-0.66735	1.37554
0.19971	0.81437
0.83725	0.45726
0.42922	0.68683
0.55673	1.06945
0.12320	-1.04770
-0.05531	-1.12422
-0.69285	0.07465
-1.17738	0.32972
0.37822	-0.23145
-0.28482	-0.15492
1.75531	0.32972
-0.74385	-0.48652
1.09226	0.02363
-0.56534	-0.07840
1.44929	0.30422
0.14870	0.68683
0.48022	-0.20594
0.96476	0.68683
-0.46334	0.48277
-0.64185	0.81437
-0.41233	1.06945
-2.01894	-0.05289
0.76074	-0.41000
0.53123	-0.61406
-0.76936	-0.43551
1.19427	0.07465
1.60230	0.15117
0.68424	0.43176
0.86275	0.71234
0.53123	0.35523
0.22521	0.48277
-2.06994	-0.46102
-1.43240	-0.58856
0.68424	-0.30797
0.53123	0.76336
0.83725	0.15117
-0.97337	-0.92016
0.30171	0.07465
0.27621	0.35523
0.88825	0.50828
0.86275	1.09496
0.73524	1.29902
1.09226	-0.33348
0.19971	-0.66508
-1.68742	0.02363
-0.02981	0.32972
0.35272	0.22769
-0.41233	-0.20594
1.29628	0.30422
-0.97337	0.66132
-0.56534	-0.05289
0.32721	0.02363
0.93925	-0.00188
-0.99887	0.17668
0.42922	0.32972
0.55673	0.15117
1.32178	-0.89465
1.39828	-1.17523
-0.61635	-0.99668
-0.15732	2.08976
0.48022	0.86539
-1.02437	0.83988
0.63323	-0.63957
-0.87136	0.17668
-0.00431	-0.53754
0.60773	-0.05289
-0.33583	1.12046
-0.00431	0.96742
1.14327	0.61031
0.96476	0.30422
1.04126	0.73785
0.07220	0.94191
-1.61091	-0.25695
0.09770	-1.02219
0.27621	-2.29757
-0.13181	-1.53234
0.14870	-0.07840
0.37822	1.04394
0.37822	1.14597
-0.18282	0.83988
0.73524	0.55929
0.73524	0.55929
-1.10088	0.45726
0.09770	0.17668
0.27621	0.02363
0.42922	-0.15492
-0.20832	-0.30797
0.70974	-0.38449
0.40372	0.07465
-0.05531	0.15117
0.22521	0.58480
-1.53441	0.66132
-1.38139	0.53379
0.78624	-0.53754
1.11776	-1.17523
1.16877	-0.92016
0.78624	1.12046
0.96476	1.70714
-1.25389	0.38074
1.01576	0.55929
0.17421	-0.46102
0.53123	0.43176
-0.51434	0.02363
-0.76936	0.15117
-1.58541	-0.41000
0.22521	0.25320
0.81175	0.17668
0.93925	0.30422
1.14327	0.35523
0.04670	0.27871
-0.56534	-0.46102
-1.71292	-0.58856
-0.33583	0.10015
0.91375	0.61031
1.70430	0.43176
0.55673	0.04914
0.53123	0.20219
0.04670	0.71234
-0.02981	-0.25695
0.27621	-0.66508
0.63323	-0.41000
-0.08081	0.94191
-0.36133	-0.46102
-0.64185	0.66132
-0.51434	0.76336
0.12320	0.48277
0.81175	0.71234
0.96476	0.43176
-0.25932	0.27871
-1.20288	-0.30797
-0.31033	0.15117
1.34728	0.22769
0.35272	-0.15492
0.22521	-0.97117
0.58223	-0.89465
-0.05531	-0.25695
0.55673	0.04914
0.25071	0.43176
0.09770	1.37554
0.32721	0.86539
0.88825	0.45726
0.83725	0.17668
-0.53984	0.04914
-1.48340	0.02363
-0.33583	0.02363
0.45472	-0.07840
0.99026	0.48277
0.09770	0.50828
-0.94787	-0.20594
-1.04987	-0.56305
0.53123	-0.02739
0.73524	0.27871
1.29628	-0.33348
0.25071	-0.15492
0.19971	0.25320
-0.15732	1.04394
0.53123	1.14597
0.02119	1.01843
-0.38683	-0.33348
0.14870	-0.18043
0.32721	-1.04770
0.53123	-0.48652
0.09770	-0.46102
-0.13181	1.04394
-0.18282	1.12046
0.07220	0.12566
0.50573	-0.53754
0.37822	0.15117
-0.41233	0.07465
0.09770	0.50828
-0.00431	0.96742
0.91375	0.83988
0.70974	-0.46102
-1.68742	-1.02219
-0.56534	-0.84363
0.22521	0.78886
1.50029	0.40625
0.22521	0.50828
-0.05531	-0.58856
-0.23382	-0.58856
0.78624	-0.02739
0.22521	0.91640
0.68424	1.22250
0.07220	0.71234
0.17421	0.30422
0.19971	0.20219
-0.10631	-0.20594
-1.07538	-0.10391
-0.05531	0.02363
0.50573	-0.10391
-0.28482	-0.07840
0.58223	0.55929
0.53123	0.50828
0.65874	-0.18043
-0.18282	-1.71090
0.40372	0.10015
0.48022	0.50828
-0.05531	0.58480
0.55673	1.06945
-0.13181	1.01843
0.17421	0.15117
0.07220	-0.92016
-0.48884	-0.92016
-0.66735	-0.43551
0.25071	0.96742
0.22521	0.63582
0.55673	0.20219
0.40372	0.86539
0.45472	0.83988
-0.05531	0.12566
-0.08081	-0.18043
0.40372	0.32972
1.57679	0.99292
0.42922	-0.43551
-0.89686	-1.63437
-0.33583	-1.50683
-0.28482	0.17668
0.02119	0.50828
0.50573	0.99292
0.42922	0.61031
-0.18282	0.38074
-0.08081	0.30422
-0.38683	0.50828
0.37822	0.27871
0.73524	0.35523
0.42922	0.20219
0.48022	-0.84363
0.76074	0.17668
-1.10088	0.22769
-0.82036	0.17668
-0.10631	-0.05289
0.78624	0.96742
1.29628	0.63582
0.91375	-0.97117
1.21977	0.12566
-0.64185	-0.30797
-0.31033	0.27871
-0.25932	0.63582
0.70974	-0.25695
-0.64185	-0.12942
-1.91693	0.30422
-0.25932	0.86539
1.06676	0.61031
1.16877	0.22769
0.96476	0.25320
0.96476	-0.15492
1.24527	0.04914
-0.10631	0.30422
-1.76392	0.10015
-0.13181	-0.00188
0.58223	-0.10391
0.93925	-0.15492
-0.36133	-0.10391
0.53123	-0.02739
0.50573	0.32972
-1.20288	0.71234
0.63323	0.20219
-0.71835	0.22769
-0.13181	-0.43551
-0.48884	0.25320
1.06676	1.04394
0.91375	-0.15492
1.11776	-0.79262
0.78624	-1.40480
0.09770	0.66132
-0.25932	1.17148
-0.69285	2.42136
-0.08081	1.24800
0.55673	-0.89465
0.73524	-1.96597
0.07220	0.22769
-1.15188	0.66132
-0.71835	0.38074
0.35272	0.27871
-1.17738	0.15117
1.52579	-0.15492
-0.38683	0.12566
0.40372	-0.25695
0.73524	-0.74160
0.53123	-0.15492
0.45472	0.66132
0.50573	0.45726
0.45472	0.61031
-0.31033	0.43176
-0.66735	-0.23145
0.32721	0.22769
-0.33583	0.71234
0.50573	-0.30797
-0.33583	-0.43551
0.25071	0.04914
0.96476	0.76336
0.30171	0.86539
0.07220	-0.25695
0.14870	-0.66508
0.02119	-0.51203
-0.25932	0.68683
-0.51434	0.48277
0.17421	0.40625
-0.38683	0.20219
0.22521	0.35523
0.78624	-0.56305
0.73524	-0.79262
0.04670	-0.48652
0.50573	0.63582
0.70974	1.06945
0.35272	0.50828
0.25071	-0.12942
0.07220	-0.23145
-0.13181	0.15117
-0.33583	-0.23145
-0.25932	0.71234
-0.08081	0.94191
0.30171	0.30422
0.09770	0.35523
0.14870	0.04914
0.45472	-0.07840
-0.64185	0.91640
0.86275	-0.33348
-0.25932	-0.61406
0.17421	-1.81293
0.19971	0.58480
0.50573	-0.12942
0.07220	0.48277
0.73524	0.07465
-0.13181	0.45726
-0.28482	0.45726
0.73524	0.66132
0.09770	1.14597
1.11776	0.58480
-0.23382	-0.23145
0.12320	-0.28246
0.35272	-0.07840
0.70974	-0.02739
0.12320	-0.23145
-1.66191	0.58480
-0.56534	1.04394
0.12320	-0.05289
0.40372	0.04914
0.09770	-0.15492
0.17421	-0.05289
1.16877	-0.46102
0.27621	-0.07840
0.63323	0.07465
-0.00431	0.12566
-0.64185	0.71234
-0.64185	0.96742
0.32721	-0.18043
0.63323	0.02363
0.73524	-0.71609
0.17421	0.66132
-0.08081	0.22769
0.09770	0.83988
0.83725	-0.46102
0.02119	0.12566
-0.08081	-0.07840
-0.20832	0.10015
-0.25932	0.86539
0.76074	0.66132
0.76074	0.10015
-0.20832	0.32972
0.50573	0.96742
0.02119	-0.12942
-0.53984	-1.17523
0.09770	-2.17003
-0.53984	-1.12422
-0.89686	0.12566
-1.40690	1.57960
0.88825	1.65613
2.03582	1.04394
0.68424	0.17668
0.73524	0.40625
0.93925	0.10015
0.53123	-0.05289
-0.00431	-0.66508
-0.02981	-0.00188
-0.64185	0.32972
0.53123	0.02363
0.22521	0.32972
-0.84586	0.71234
-0.53984	-0.05289
-1.66191	-1.02219
0.30171	-0.07840
0.32721	0.20219
0.42922	0.58480
1.44929	0.96742
0.60773	0.50828
0.32721	0.32972
0.19971	0.04914
0.83725	-0.07840
0.55673	-0.12942
1.01576	-0.25695
-1.89143	0.53379
-1.84042	-0.00188
0.42922	0.04914
0.22521	-0.15492
0.63323	0.76336
0.55673	0.83988
1.14327	-0.46102
0.37822	-0.71609
0.17421	-0.69059
0.32721	0.53379
-0.28482	1.09496
0.22521	0.30422
-0.48884	0.61031
-1.30489	-0.35899
0.53123	-0.51203
-0.87136	-0.20594
0.53123	0.96742
1.06676	0.73785
1.29628	0.30422
0.96476	0.32972
-0.51434	0.20219
0.50573	-0.38449
-0.08081	-0.25695
-0.53984	-0.28246
0.02119	0.17668
0.12320	0.12566
0.27621	0.68683
-0.10631	0.04914
