0.04670	0.27871
0.19971	0.15117
0.42922	0.12566
0.09770	0.22769
0.02119	0.15117
0.14870	0.15117
0.09770	0.15117
0.07220	0.15117
0.12320	0.12566
0.14870	-0.07840
0.09770	-0.10391
0.25071	0.07465
0.07220	0.43176
0.22521	0.40625
0.12320	0.30422
0.02119	0.22769
0.12320	0.10015
0.17421	0.17668
0.12320	0.20219
0.14870	-0.00188
0.14870	-0.00188
0.12320	-0.05289
0.19971	0.04914
0.12320	0.12566
0.04670	0.15117
0.12320	-0.00188
0.09770	0.17668
0.09770	0.15117
0.19971	0.12566
0.22521	0.25320
0.19971	0.17668
0.17421	0.17668
0.07220	0.22769
0.22521	0.22769
0.19971	0.22769
0.12320	-0.05289
0.07220	0.04914
0.07220	-0.00188
0.17421	0.15117
0.12320	0.32972
0.19971	0.32972
0.22521	0.15117
0.17421	0.22769
0.22521	0.10015
0.22521	0.07465
-0.10631	0.10015
0.12320	-0.05289
0.22521	0.07465
0.07220	0.12566
0.14870	0.20219
0.14870	0.35523
0.22521	0.20219
0.27621	-0.05289
0.02119	0.04914
0.07220	-0.10391
0.22521	0.25320
0.04670	0.40625
0.12320	0.27871
0.17421	0.25320
0.14870	-0.02739
0.14870	0.12566
0.14870	0.12566
0.19971	0.17668
0.09770	0.25320
0.12320	0.17668
0.14870	0.15117
0.17421	-0.05289
0.14870	0.10015
0.09770	-0.05289
0.22521	0.25320
0.12320	0.30422
0.12320	0.27871
0.07220	0.04914
0.22521	0.15117
0.04670	0.12566
0.19971	0.04914
0.12320	0.12566
0.14870	0.25320
0.17421	0.17668
0.19971	0.17668
0.22521	0.10015
0.09770	0.12566
0.17421	0.12566
0.07220	0.12566
0.19971	0.25320
0.04670	0.10015
0.12320	0.22769
0.12320	0.04914
0.14870	0.20219
0.14870	0.04914
0.17421	0.20219
0.14870	0.07465
0.22521	0.22769
0.12320	0.20219
0.14870	0.22769
0.19971	-0.07840
0.12320	-0.07840
0.14870	-0.10391
0.12320	0.17668
0.22521	0.38074
0.14870	0.38074
0.17421	0.17668
0.14870	0.30422
0.17421	0.17668
0.12320	0.27871
0.09770	0.02363
0.17421	0.04914
0.04670	-0.02739
0.25071	0.07465
0.19971	0.15117
0.17421	0.07465
0.25071	0.15117
0.09770	0.20219
0.14870	0.07465
0.14870	0.15117
0.02119	0.17668
0.22521	0.15117
0.09770	0.15117
0.19971	0.15117
0.07220	0.17668
0.14870	0.17668
0.17421	0.25320
0.17421	0.30422
0.19971	0.15117
0.09770	0.07465
0.17421	-0.18043
0.09770	-0.18043
0.12320	0.22769
0.22521	0.22769
0.07220	0.40625
0.22521	0.32972
0.17421	0.22769
0.07220	0.22769
0.19971	0.15117
0.14870	0.10015
0.17421	0.02363
0.17421	0.04914
0.07220	0.15117
0.22521	0.15117
0.14870	0.12566
0.14870	0.04914
0.22521	0.02363
0.14870	0.22769
0.07220	0.25320
0.14870	-0.00188
0.14870	-0.07840
0.07220	0.12566
0.19971	0.30422
0.07220	0.35523
0.17421	0.22769
0.14870	0.15117
0.07220	0.15117
0.22521	0.07465
0.07220	0.17668
0.12320	0.10015
0.14870	0.10015
0.07220	0.07465
0.14870	0.04914
0.14870	0.22769
0.12320	0.15117
0.14870	0.07465
0.09770	0.07465
0.14870	0.20219
0.22521	0.07465
0.12320	0.15117
0.07220	0.25320
0.12320	0.17668
0.17421	0.22769
0.09770	0.15117
0.14870	-0.00188
0.12320	0.02363
0.09770	0.04914
0.17421	0.27871
0.14870	0.20219
0.14870	0.27871
0.12320	0.12566
0.12320	-0.07840
0.12320	0.15117
0.09770	0.15117
0.19971	0.15117
0.19971	0.30422
0.19971	0.20219
0.25071	0.04914
-0.00431	0.07465
0.17421	0.17668
0.19971	0.15117
0.17421	0.12566
0.07220	0.04914
0.25071	-0.07840
0.19971	0.04914
0.07220	0.27871
0.14870	0.15117
0.17421	0.30422
0.07220	0.12566
0.14870	0.22769
0.07220	0.20219
0.14870	0.25320
0.22521	0.12566
0.09770	0.15117
0.17421	-0.05289
0.14870	0.20219
0.12320	0.15117
0.19971	0.15117
0.14870	-0.00188
0.14870	0.12566
0.07220	0.07465
0.17421	0.43176
0.07220	0.17668
0.17421	-0.00188
0.04670	-0.41000
0.19971	-0.38449
0.09770	0.04914
0.22521	0.38074
0.07220	0.53379
0.12320	0.58480
0.14870	0.27871
0.07220	0.32972
0.09770	0.43176
0.14870	0.15117
0.17421	0.12566
0.19971	-0.02739
0.22521	0.02363
0.12320	-0.02739
0.14870	-0.10391
0.12320	0.10015
0.07220	0.04914
0.17421	0.12566
0.09770	0.17668
0.14870	0.10015
0.30171	0.30422
0.07220	0.22769
0.14870	0.15117
0.12320	0.22769
0.02119	0.15117
0.22521	0.17668
0.17421	0.15117
0.30171	0.10015
0.32721	0.22769
0.02119	0.27871
0.04670	0.20219
-0.00431	0.15117
0.19971	0.02363
0.14870	0.17668
0.12320	-0.05289
0.12320	0.17668
0.04670	0.17668
0.09770	0.04914
0.22521	0.04914
0.17421	0.02363
0.27621	0.35523
0.19971	0.43176
0.19971	-0.02739
0.22521	0.04914
0.09770	-0.00188
0.19971	0.32972
0.07220	0.27871
0.14870	0.15117
-0.00431	-0.00188
0.22521	-0.15492
0.09770	0.12566
0.22521	0.48277
0.09770	0.43176
0.17421	0.35523
0.09770	0.15117
0.25071	0.02363
0.07220	-0.05289
0.12320	-0.05289
0.04670	-0.30797
0.19971	0.07465
0.04670	0.15117
0.19971	0.35523
0.09770	0.27871
0.27621	0.15117
0.07220	0.10015
0.14870	0.15117
0.14870	0.15117
0.14870	0.27871
0.17421	0.30422
0.19971	0.12566
0.12320	0.25320
0.17421	-0.05289
0.22521	0.04914
0.09770	-0.00188
0.17421	0.07465
0.07220	0.20219
0.17421	0.12566
0.04670	0.15117
0.22521	0.17668
0.07220	0.15117
0.12320	0.15117
0.17421	0.27871
0.12320	0.02363
0.22521	0.22769
0.09770	0.68683
0.07220	0.20219
0.14870	-0.46102
0.17421	-0.71609
0.07220	-0.46102
0.17421	0.07465
0.12320	0.55929
0.12320	0.68683
0.35272	0.50828
0.22521	0.63582
0.02119	0.48277
0.25071	0.32972
0.19971	0.38074
0.12320	-0.12942
0.19971	-0.18043
0.12320	-0.20594
0.14870	-0.33348
0.17421	-0.86914
0.07220	-0.30797
0.14870	0.61031
0.27621	0.68683
0.12320	0.35523
-0.00431	0.35523
0.09770	0.38074
0.14870	0.45726
0.02119	0.40625
0.14870	0.55929
0.45472	0.07465
0.40372	-0.35899
-0.51434	-0.66508
0.48022	-0.81812
0.27621	0.15117
-0.94787	0.27871
0.37822	0.32972
0.83725	0.58480
0.60773	0.45726
0.32721	0.22769
0.14870	0.53379
-0.36133	0.12566
0.19971	0.50828
0.50573	0.73785
0.35272	-0.18043
0.02119	0.32972
-0.10631	-1.37929
-0.28482	-0.05289
-0.36133	-1.17523
0.14870	-0.69059
0.32721	0.86539
0.37822	1.22250
0.19971	0.83988
0.27621	0.81437
0.07220	0.71234
0.22521	0.78886
0.14870	-0.05289
0.07220	-0.56305
0.02119	-0.53754
0.25071	-0.66508
0.30171	0.76336
0.22521	-0.92016
-0.00431	-0.86914
0.14870	-1.20074
0.14870	1.01843
-0.08081	1.04394
0.07220	1.37554
-0.10631	1.17148
0.32721	0.71234
0.53123	-0.41000
0.70974	0.94191
0.35272	-0.58856
0.19971	0.63582
-0.43783	-1.14973
-0.48884	-0.92016
-0.94787	-0.25695
-0.36133	0.66132
0.78624	0.94191
1.34728	1.19699
1.04126	0.10015
-0.20832	0.15117
0.07220	-0.86914
0.12320	0.12566
0.04670	0.15117
0.40372	-0.61406
0.14870	-0.46102
-0.31033	0.10015
0.02119	1.68163
0.50573	1.57960
1.01576	0.32972
-0.25932	0.40625
-1.71292	-1.09871
-0.23382	-1.25176
0.25071	-1.68539
0.37822	0.25320
1.06676	0.83988
0.55673	1.47757
-0.02981	0.86539
1.06676	0.48277
1.14327	2.11527
-0.56534	1.14597
-0.08081	0.07465
-1.38139	-5.00139
-0.53984	-2.29757
-0.20832	-0.53754
0.63323	2.47238
0.55673	2.95702
0.60773	0.58480
-0.38683	0.63582
0.04670	0.48277
1.50029	-0.15492
2.64786	0.04914
0.25071	-1.81293
-1.22839	0.10015
-1.81492	1.04394
-0.61635	3.56921
0.70974	-1.53234
0.93925	-2.47613
-0.51434	-3.34339
0.35272	-0.76711
0.58223	0.66132
0.30171	1.88570
0.55673	2.16628
0.42922	3.13558
0.19971	0.22769
0.73524	-1.17523
-1.02437	-0.92016
-1.66191	-0.81812
-0.20832	2.26831
-1.12638	-0.99668
1.39828	-1.14973
3.00489	0.61031
2.13783	2.26831
-2.78398	0.43176
-2.73298	-0.61406
0.04670	-1.30277
0.68424	0.43176
0.93925	0.58480
-0.08081	-0.84363
1.67880	-0.63957
2.16333	1.27351
1.67880	-0.05289
0.76074	-0.33348
0.68424	0.99292
-0.43783	1.19699
-1.63641	1.32453
-0.66735	-1.78742
-2.01894	0.68683
-1.53441	-0.18043
1.21977	-1.17523
0.76074	-1.58336
-1.35589	0.96742
0.25071	1.19699
1.34728	0.32972
1.60230	0.35523
0.96476	1.19699
0.70974	0.58480
1.06676	-1.65988
0.17421	-1.25176
-2.17195	-1.12422
-1.12638	1.42656
-2.22295	1.75816
-0.05531	2.19179
0.93925	0.78886
2.59686	0.96742
1.60230	0.27871
1.85731	-0.48652
-0.74385	-1.83844
-1.27939	-1.20074
0.42922	-1.02219
-0.89686	-0.35899
0.63323	1.12046
-0.33583	1.01843
0.88825	0.83988
0.93925	-0.46102
0.40372	-0.05289
0.42922	-0.74160
-1.10088	0.99292
-1.73842	0.99292
-0.02981	0.73785
0.91375	-0.35899
1.06676	0.40625
0.68424	-0.46102
-0.53984	1.40105
-2.52897	-0.99668
1.01576	-2.14453
0.32721	-0.53754
-1.73842	0.76336
0.42922	2.65093
2.85188	1.04394
3.59142	0.83988
-0.18282	0.66132
0.04670	-0.81812
1.14327	-0.25695
-1.02437	-1.27726
-1.07538	-1.94047
-0.02981	0.22769
0.09770	0.07465
0.32721	2.37034
0.02119	1.98773
0.12320	1.78367
0.17421	0.15117
-0.36133	-0.84363
-0.05531	-0.33348
-1.35589	-0.48652
-2.37596	-0.46102
0.96476	-0.61406
1.39828	0.61031
1.67880	0.00000
0.25071	0.00000
1.14327	-0.35899
1.57679	-0.51203
0.19971	-1.32828
-0.10631	0.27871
0.42922	-0.69059
-1.43240	1.14597
-0.10631	1.88570
-0.18282	1.73265
0.25071	1.42656
0.19971	0.45726
-1.58541	-0.43551
0.19971	-0.86914
0.96476	-0.89465
0.19971	-0.18043
-0.28482	-0.15492
0.12320	1.50308
-0.89686	-0.23145
0.50573	-0.35899
1.32178	-0.20594
1.65330	0.81437
0.60773	0.45726
-0.31033	0.07465
-0.05531	-1.65988
-0.10631	-1.63437
-0.18282	-1.58336
0.17421	1.93671
0.32721	1.42656
0.42922	2.49788
0.96476	0.02363
-2.22295	-0.20594
-0.61635	-0.51203
-0.13181	2.26831
0.93925	0.89089
0.32721	-0.66508
0.63323	-1.99148
0.02119	-0.07840
0.48022	0.04914
0.09770	0.86539
0.78624	-0.25695
0.50573	-0.53754
0.12320	0.48277
-0.99887	1.57960
-0.69285	1.17148
-0.36133	-0.53754
1.50029	-1.86394
-1.43240	-0.92016
0.04670	1.17148
0.53123	1.06945
1.19427	0.50828
0.76074	0.32972
0.37822	-0.07840
1.65330	0.20219
0.60773	0.15117
-0.28482	0.53379
-0.82036	0.12566
-1.73842	-0.63957
-0.05531	-0.07840
0.17421	0.17668
-0.84586	-0.76711
0.19971	-1.09871
-0.28482	-0.76711
0.81175	2.44687
0.42922	1.78367
-1.15188	0.73785
0.88825	2.44687
1.34728	0.76336
0.40372	-4.82284
0.25071	-3.24136
1.16877	1.88570
0.25071	2.21730
-0.48884	2.80397
-0.36133	0.73785
-0.97337	-1.99148
0.30171	-2.39961
0.70974	0.81437
0.07220	0.76336
-0.23382	1.24800
-1.04987	0.15117
-0.69285	-0.15492
0.22521	-0.28246
1.44929	-0.10391
0.68424	0.50828
0.58223	0.96742
-1.27939	0.58480
1.11776	-0.86914
1.67880	-1.83844
0.48022	-0.18043
-1.15188	0.32972
-0.10631	1.63062
0.83725	0.35523
-0.82036	0.50828
0.45472	0.38074
-0.00431	0.35523
-0.89686	-0.79262
-0.38683	-0.20594
0.81175	0.10015
1.50029	1.17148
0.37822	0.48277
0.48022	-0.86914
-2.27395	-0.33348
-0.20832	1.27351
1.04126	0.58480
-0.00431	0.12566
-1.02437	0.27871
0.50573	-0.02739
1.50029	0.04914
0.35272	-0.86914
0.22521	-0.25695
-0.10631	-0.48652
-0.69285	0.27871
-0.08081	-0.25695
-0.08081	0.25320
1.01576	1.19699
1.39828	1.22250
0.45472	1.17148
-0.20832	0.96742
-2.24845	-0.33348
-1.43240	-0.41000
0.68424	0.12566
1.04126	-0.23145
1.01576	-0.76711
0.91375	-0.10391
0.60773	-0.76711
-0.79486	0.40625
-0.13181	0.89089
0.60773	0.32972
0.91375	-0.10391
-0.41233	-0.41000
-0.31033	1.24800
0.81175	-0.33348
-2.42696	0.10015
0.07220	-0.43551
1.55129	1.75816
1.93382	0.73785
-0.25932	0.10015
-0.46334	-1.30277
0.93925	0.38074
-1.02437	0.50828
-1.33039	0.35523
1.44929	0.58480
1.39828	0.78886
1.75531	-0.81812
0.83725	-0.30797
-1.94243	-1.55785
-0.66735	-0.66508
0.63323	0.45726
0.19971	1.24800
0.45472	1.04394
-0.56534	0.99292
-0.82036	0.12566
-0.28482	-0.69059
0.40372	-0.33348
0.63323	-0.74160
0.70974	0.86539
0.58223	0.27871
1.19427	0.58480
0.48022	1.73265
-0.87136	-0.10391
-2.32496	-0.71609
1.09226	-2.47613
1.09226	-1.35379
0.81175	1.29902
0.22521	2.14077
-0.20832	0.68683
0.32721	-0.43551
0.42922	-0.10391
0.48022	1.60511
-1.48340	1.50308
-1.43240	0.91640
-0.79486	-2.78222
0.53123	-1.02219
1.75531	0.55929
1.44929	0.50828
0.55673	0.35523
0.30171	0.76336
-1.35589	-0.10391
-0.87136	-0.35899
0.91375	-1.68539
1.16877	0.83988
1.42379	0.68683
-0.51434	1.09496
-2.19745	0.63582
0.58223	0.55929
0.50573	-0.51203
1.06676	0.15117
0.32721	-0.71609
-1.68742	-0.10391
0.27621	-0.23145
1.04126	0.10015
0.53123	0.15117
0.25071	1.27351
0.58223	1.40105
-0.46334	0.22769
-0.46334	-1.30277
-0.05531	-0.71609
0.32721	-0.05289
0.45472	1.09496
0.25071	2.14077
0.37822	0.91640
0.14870	-1.65988
-0.08081	-3.24136
0.19971	0.73785
0.07220	1.06945
0.32721	1.80917
0.93925	1.04394
-2.55447	0.30422
-0.76936	-1.04770
0.83725	-1.04770
0.19971	-0.81812
0.48022	1.12046
1.50029	0.12566
2.77537	2.39585
1.60230	-1.07320
-0.59084	-0.63957
-1.22839	-1.76191
0.12320	1.45206
-0.92237	1.14597
-1.78942	0.53379
1.44929	0.68683
-0.18282	0.43176
0.09770	0.07465
0.81175	0.10015
0.40372	0.04914
1.21977	-0.74160
-0.08081	-0.71609
-1.71292	-0.30797
-1.22839	0.94191
0.12320	1.22250
0.35272	-0.48652
1.29628	-0.97117
1.37278	0.94191
0.17421	-0.18043
-0.38683	-0.43551
-0.20832	0.48277
0.58223	1.98773
-0.36133	1.63062
-0.53984	0.91640
0.70974	-0.58856
0.48022	-1.71090
0.19971	-0.46102
0.96476	0.12566
0.53123	0.45726
-0.20832	0.22769
-0.82036	0.63582
1.24527	1.35003
-0.48884	-0.28246
0.04670	-0.35899
0.96476	-0.46102
-0.71835	-1.07320
1.32178	0.83988
-0.13181	-0.38449
-1.02437	-0.00188
0.07220	0.38074
0.17421	1.17148
-0.41233	1.04394
-2.17195	0.45726
1.75531	0.04914
1.55129	0.02363
0.65874	0.38074
-0.94787	-0.18043
-0.33583	0.10015
1.67880	-0.33348
1.19427	-0.41000
0.22521	-0.86914
-0.28482	-0.41000
-0.46334	0.96742
-0.66735	0.76336
0.40372	0.61031
0.04670	-0.33348
-1.27939	0.10015
0.65874	-0.53754
1.11776	1.06945
-0.38683	1.68163
0.22521	0.55929
-0.28482	0.20219
0.02119	-0.28246
0.09770	-1.40480
0.86275	-2.29757
0.37822	1.17148
-0.41233	1.06945
0.07220	0.86539
0.88825	0.53379
0.70974	1.04394
0.63323	0.40625
0.96476	-0.25695
-0.79486	-1.32828
-1.50890	0.32972
0.19971	0.58480
-0.28482	-0.20594
1.21977	-1.07320
-0.28482	-0.25695
0.12320	0.99292
0.63323	1.37554
-2.73298	0.25320
1.47479	-0.33348
1.44929	-1.37929
1.44929	0.22769
0.63323	1.19699
1.11776	0.58480
-0.61635	0.50828
-0.48884	0.07465
-0.56534	0.15117
-0.89686	0.43176
-0.00431	-0.05289
0.07220	-0.07840
1.24527	-0.33348
0.86275	0.63582
-2.57997	-1.14973
-1.22839	-0.23145
1.04126	0.20219
1.29628	0.96742
0.83725	0.50828
1.04126	0.27871
0.17421	0.17668
0.45472	-0.35899
0.25071	0.35523
0.02119	0.45726
-0.23382	1.24800
-0.31033	-0.23145
-0.56534	-0.43551
0.40372	-0.10391
1.62780	-0.07840
-2.47797	0.48277
-0.53984	0.53379
0.70974	0.76336
0.96476	-1.04770
-0.71835	-0.66508
-0.08081	-1.60887
1.65330	0.89089
0.73524	0.71234
1.83181	0.81437
1.29628	1.12046
0.76074	1.40105
-0.41233	-0.74160
-2.52897	-0.53754
0.12320	-0.74160
0.30171	1.12046
-0.53984	0.66132
-0.48884	0.30422
0.40372	-0.74160
0.32721	0.40625
0.19971	0.73785
0.55673	0.15117
0.30171	-1.50683
-0.89686	-1.94047
0.45472	-0.20594
1.75531	1.19699
-1.22839	1.98773
0.37822	1.45206
1.11776	0.78886
0.35272	0.53379
-0.64185	-0.53754
-0.31033	0.10015
-1.15188	-1.32828
0.55673	0.76336
1.52579	0.10015
0.19971	-0.25695
0.88825	0.30422
-0.00431	0.76336
-0.25932	0.27871
0.45472	0.81437
0.78624	-0.15492
-0.76936	-0.15492
-0.13181	-1.58336
-0.00431	-0.05289
1.34728	0.20219
0.86275	0.73785
-2.65648	0.55929
-0.87136	0.48277
0.78624	0.04914
2.03582	0.30422
-0.20832	0.30422
0.81175	0.27871
-0.61635	0.48277
-0.08081	-0.66508
0.73524	0.76336
1.39828	1.04394
0.50573	-0.92016
0.40372	-1.76191
-1.12638	-0.56305
-1.22839	1.14597
-0.33583	0.63582
0.50573	0.35523
0.83725	1.22250
0.68424	1.04394
0.09770	-0.33348
-0.74385	-0.51203
-0.08081	-0.25695
-0.08081	0.25320
0.17421	-0.15492
1.47479	1.42656
0.65874	-0.46102
0.07220	-1.12422
0.32721	-0.69059
-0.38683	0.96742
-0.31033	-0.33348
-0.08081	0.96742
1.29628	1.86019
-0.51434	-0.00188
-0.87136	-0.35899
1.44929	-1.55785
-0.18282	0.38074
-0.31033	0.81437
1.47479	0.53379
0.40372	0.45726
-0.48884	0.50828
-2.65648	-0.38449
-0.69285	-0.05289
0.99026	-0.05289
1.57679	0.45726
1.55129	-0.05289
0.78624	-0.43551
0.63323	-0.66508
0.32721	0.04914
-0.31033	0.81437
-0.10631	0.76336
-1.30489	0.25320
0.70974	-0.23145
0.88825	-0.61406
-1.27939	0.32972
0.12320	1.12046
-0.25932	0.48277
0.12320	-0.38449
0.63323	-0.63957
-0.66735	0.12566
0.99026	1.52859
0.27621	0.76336
0.35272	0.35523
1.27078	-1.20074
-0.33583	-1.17523
-0.46334	-0.30797
-0.92237	0.89089
0.50573	0.63582
0.76074	0.66132
0.68424	0.12566
0.55673	0.73785
-0.05531	-0.30797
0.25071	-0.46102
-0.61635	-0.05289
-0.05531	0.86539
-0.08081	-0.28246
-0.02981	0.30422
-1.81492	0.66132
1.50029	0.43176
0.63323	-1.50683
0.12320	-1.32828
-0.79486	0.30422
0.78624	1.57960
0.81175	0.83988
-0.08081	0.50828
1.06676	0.02363
0.63323	-0.18043
-0.28482	0.25320
-0.02981	0.27871
0.19971	0.12566
-0.00431	0.35523
-1.10088	0.55929
-0.87136	-0.02739
0.35272	-0.63957
0.02119	-1.07320
0.02119	-0.43551
0.55673	1.06945
0.50573	0.91640
0.73524	-0.46102
0.37822	-0.79262
0.70974	1.22250
1.34728	0.81437
-1.15188	1.40105
-0.76936	-0.07840
-0.71835	-0.05289
0.35272	0.27871
0.37822	-0.07840
0.60773	-0.46102
0.60773	-1.22625
1.14327	0.20219
0.17421	-0.07840
-0.97337	0.71234
-0.89686	-0.69059
-1.91693	1.04394
1.70430	1.32453
0.53123	-0.48652
2.39285	0.10015
-0.38683	0.73785
0.30171	0.38074
1.21977	0.55929
0.73524	-0.18043
-0.66735	0.25320
-0.92237	0.30422
-1.10088	-0.02739
-0.94787	-1.43031
0.07220	-0.41000
1.04126	0.45726
0.22521	-0.07840
-0.13181	0.35523
0.02119	0.86539
0.86275	0.76336
0.50573	0.83988
0.55673	0.02363
0.35272	-0.53754
-0.08081	-0.25695
-0.99887	0.04914
-0.41233	-0.05289
0.65874	-0.30797
0.45472	0.81437
1.19427	1.68163
-1.02437	0.83988
-0.33583	-1.09871
1.16877	-1.71090
0.78624	0.04914
0.42922	1.52859
-0.33583	1.57960
0.40372	1.98773
-0.38683	-0.25695
-0.48884	-0.94566
0.25071	-2.45062
0.88825	-1.12422
0.63323	1.19699
-0.13181	1.04394
0.27621	0.78886
0.22521	-0.02739
0.04670	0.50828
-0.51434	0.17668
0.37822	0.07465
-0.02981	-1.40480
-1.10088	0.43176
-1.58541	0.02363
1.34728	0.40625
1.27078	0.58480
0.53123	0.81437
0.70974	-0.02739
0.88825	-0.10391
0.12320	0.35523
-0.08081	0.35523
0.25071	-0.02739
-0.94787	-0.23145
0.93925	0.53379
1.29628	-0.25695
-2.78398	-0.02739
0.42922	0.32972
-0.08081	0.35523
0.88825	-0.30797
1.60230	-0.30797
0.12320	-0.30797
-1.30489	0.63582
-0.23382	0.66132
1.01576	0.94191
-0.31033	0.45726
-0.18282	0.53379
0.60773	0.66132
0.81175	-0.69059
0.55673	-0.02739
0.27621	-0.10391
0.25071	-0.48652
-0.08081	0.27871
-0.08081	0.35523
0.04670	-0.79262
0.30171	-1.30277
0.50573	0.40625
-0.08081	1.55410
-1.43240	2.14077
0.91375	0.66132
-1.15188	-0.02739
-0.38683	-0.81812
0.02119	-0.05289
0.37822	-0.20594
1.16877	0.07465
1.27078	-0.05289
1.21977	0.30422
0.93925	0.10015
1.14327	0.12566
-1.55991	-0.12942
-1.15188	0.10015
0.04670	-0.10391
0.76074	0.83988
0.27621	0.55929
0.45472	0.27871
-1.04987	-0.18043
-0.69285	0.55929
-0.51434	0.76336
-0.00431	-0.48652
0.42922	-1.12422
0.83725	-0.25695
0.65874	0.15117
-0.05531	0.32972
0.37822	1.06945
0.42922	0.78886
-0.18282	-0.12942
0.22521	-0.30797
0.42922	1.27351
-0.31033	-1.04770
0.42922	-0.58856
0.83725	0.20219
0.12320	0.45726
-1.71292	1.14597
0.68424	0.96742
0.88825	0.96742
0.58223	0.73785
-0.31033	0.45726
0.88825	0.20219
-1.22839	-1.02219
0.12320	-2.73121
0.55673	-0.71609
0.19971	-0.15492
0.14870	1.17148
0.81175	1.04394
0.93925	0.27871
0.37822	0.63582
-1.61091	0.53379
-1.50890	0.53379
-0.10631	0.02363
0.68424	-0.15492
1.70430	-0.23145
-0.43783	0.22769
1.50029	1.22250
0.37822	0.22769
-1.61091	0.15117
0.58223	-0.61406
0.32721	-0.94566
0.35272	-0.15492
1.29628	0.99292
0.63323	0.91640
-0.53984	0.68683
-1.55991	-0.00188
0.04670	0.20219
1.24527	-0.35899
1.06676	0.12566
0.07220	0.25320
-0.08081	0.17668
-0.41233	-1.22625
-0.71835	-1.04770
0.17421	0.10015
0.32721	2.11527
0.25071	1.47757
0.48022	-0.94566
0.53123	-0.33348
1.06676	1.65613
-0.36133	0.58480
-0.43783	-0.23145
-0.51434	-0.25695
0.53123	-0.58856
0.04670	1.09496
0.83725	-0.15492
-0.23382	-0.53754
0.02119	-0.86914
1.01576	0.71234
0.53123	-0.33348
-1.40690	-0.48652
-0.64185	0.94191
-0.13181	0.81437
-0.92237	0.78886
1.95932	0.63582
1.16877	0.15117
0.53123	-0.63957
-1.30489	-0.05289
-0.05531	-0.10391
1.67880	-0.35899
0.22521	-0.41000
0.02119	-0.05289
-2.09544	0.35523
1.98482	0.83988
0.99026	0.99292
-0.79486	0.12566
-1.22839	0.25320
0.07220	0.20219
0.68424	0.10015
-0.59084	-0.15492
-0.00431	-0.12942
1.34728	-0.00188
0.53123	0.04914
0.32721	0.35523
0.14870	-0.05289
-0.08081	0.40625
0.02119	0.25320
0.12320	-0.48652
0.02119	-0.66508
-0.10631	-0.46102
0.14870	2.26831
0.02119	1.47757
0.32721	-0.25695
0.60773	-1.43031
-0.36133	-0.81812
0.88825	0.17668
-0.66735	1.68163
0.40372	1.09496
-0.76936	-0.38449
1.19427	-0.71609
0.70974	-0.12942
-0.36133	-0.43551
-0.36133	1.04394
0.14870	-0.41000
-0.18282	-0.48652
0.48022	-0.69059
1.09226	0.17668
0.91375	1.40105
0.53123	0.89089
-0.23382	0.04914
-2.57997	-0.10391
0.45472	0.17668
0.22521	0.73785
1.01576	0.50828
0.25071	0.25320
0.14870	-0.25695
-0.41233	-0.79262
-0.41233	-0.94566
-0.10631	0.17668
-0.51434	0.43176
0.96476	0.27871
1.01576	1.27351
0.42922	0.25320
0.73524	-0.94566
0.60773	-1.86394
-0.10631	0.15117
-0.41233	1.78367
0.19971	0.89089
0.65874	0.61031
-0.43783	-0.35899
-0.64185	0.22769
-0.38683	0.20219
0.27621	0.10015
0.48022	1.14597
0.63323	1.42656
-0.23382	-0.15492
-0.36133	-2.01699
0.45472	-0.18043
0.91375	0.78886
1.32178	0.12566
-0.48884	-0.76711
-0.89686	-0.18043
0.60773	0.07465
-0.92237	-0.46102
2.23984	0.12566
0.78624	0.76336
0.19971	1.09496
-1.25389	1.12046
-0.23382	0.50828
0.55673	0.22769
0.63323	-0.61406
-0.74385	0.15117
-0.18282	0.15117
0.09770	-0.20594
0.91375	0.25320
0.19971	-0.07840
-0.25932	-0.23145
-0.94787	-0.28246
-0.53984	0.58480
1.01576	0.17668
0.14870	0.10015
0.76074	0.12566
0.32721	0.10015
0.40372	0.25320
0.45472	0.40625
0.37822	0.25320
-0.23382	-0.35899
0.14870	-0.33348
-0.71835	0.22769
0.02119	0.68683
0.40372	0.12566
0.40372	0.07465
0.96476	1.55410
-0.84586	0.66132
0.09770	0.66132
0.12320	-0.97117
0.12320	-1.76191
0.30171	-0.74160
0.22521	1.22250
0.50573	0.86539
-0.76936	-0.25695
0.19971	0.38074
-0.08081	0.22769
0.60773	0.50828
-0.23382	0.55929
0.42922	-0.25695
0.27621	-0.41000
-0.08081	0.22769
0.99026	-0.00188
0.45472	0.81437
0.60773	-0.51203
0.50573	-1.25176
0.42922	-1.68539
-1.25389	1.27351
-0.69285	1.06945
0.32721	1.27351
0.63323	0.63582
-0.69285	-0.00188
-0.36133	-0.38449
-0.61635	0.45726
0.63323	1.47757
1.14327	0.73785
-1.02437	-0.63957
0.50573	-1.07320
0.63323	-0.74160
0.60773	0.58480
0.78624	0.40625
0.68424	-0.12942
0.27621	0.12566
-0.36133	0.02363
0.19971	-1.07320
0.12320	-0.38449
0.30171	1.06945
0.14870	1.04394
-1.66191	0.58480
-2.06994	1.32453
0.12320	-0.15492
1.42379	-0.48652
0.96476	-0.79262
1.01576	0.15117
0.93925	0.20219
0.60773	0.61031
0.68424	0.25320
-0.10631	0.48277
-1.17738	-0.10391
0.07220	-0.28246
1.55129	0.81437
-0.74385	0.73785
-0.53984	-0.41000
0.04670	-0.15492
-2.42696	-0.48652
1.14327	0.12566
0.70974	-0.23145
-0.69285	0.27871
0.63323	0.04914
1.09226	0.40625
1.06676	0.55929
1.55129	1.98773
0.73524	-0.10391
0.32721	-0.18043
-1.10088	-1.63437
-0.92237	-0.15492
0.73524	-1.09871
-0.23382	0.22769
0.02119	1.68163
0.09770	1.73265
-0.71835	0.71234
0.27621	0.27871
0.48022	-0.15492
0.48022	-0.15492
-0.13181	0.22769
-0.20832	-0.94566
0.27621	-0.76711
0.76074	-0.89465
0.32721	0.15117
0.42922	1.06945
-0.23382	0.71234
-1.10088	0.12566
0.76074	0.25320
1.60230	-0.23145
-0.41233	0.10015
-0.66735	1.14597
0.88825	0.22769
0.12320	0.17668
1.75531	0.43176
1.11776	-0.46102
-1.15188	-0.61406
-2.06994	0.35523
-0.59084	0.38074
1.67880	-0.41000
-0.28482	-0.56305
-1.30489	0.35523
1.32178	1.09496
1.19427	0.45726
0.30171	0.15117
0.58223	0.71234
0.12320	0.81437
0.27621	-0.30797
0.27621	-0.79262
-0.31033	-0.71609
0.14870	-0.05289
-0.18282	0.35523
-0.02981	0.55929
0.09770	1.12046
-0.10631	0.96742
-0.02981	-0.69059
0.35272	-0.58856
0.55673	0.91640
-0.69285	0.91640
0.27621	-0.35899
0.37822	-0.58856
1.14327	-0.61406
1.04126	0.30422
-0.10631	-0.79262
-0.25932	0.45726
-0.31033	0.55929
-1.38139	0.27871
-0.41233	1.45206
0.30171	1.29902
1.09226	-0.69059
0.27621	-0.41000
1.14327	0.73785
1.09226	-0.02739
1.01576	0.15117
-0.64185	-0.51203
0.50573	0.10015
0.09770	0.32972
0.09770	-0.10391
0.02119	-0.46102
-2.14644	0.04914
-1.17738	0.25320
0.32721	0.07465
-0.02981	0.55929
0.96476	-0.28246
0.12320	0.12566
-0.10631	0.04914
1.32178	0.53379
0.91375	0.58480
0.35272	0.10015
-0.02981	-0.56305
-0.00431	0.45726
0.60773	0.61031
-0.31033	0.55929
0.12320	-0.25695
-0.18282	-0.05289
0.81175	-0.43551
-0.05531	0.45726
-0.05531	0.35523
0.02119	-0.23145
-0.00431	-0.33348
-0.08081	-0.41000
-0.23382	0.12566
0.25071	-0.12942
-0.28482	0.12566
-0.23382	0.71234
-0.23382	0.61031
1.14327	0.53379
1.34728	0.40625
0.12320	0.43176
-0.79486	0.38074
0.25071	-0.05289
-0.23382	0.30422
0.63323	0.15117
-1.12638	-0.66508
1.01576	-1.43031
1.80631	0.55929
1.85731	0.68683
-1.07538	0.12566
0.65874	0.17668
-1.43240	0.30422
-0.05531	0.55929
0.27621	0.58480
0.14870	-0.02739
0.12320	0.04914
-0.66735	-0.20594
0.19971	-0.02739
-1.15188	-0.23145
-0.64185	0.07465
0.83725	0.30422
1.32178	0.50828
1.27078	0.22769
0.55673	0.99292
-0.02981	0.25320
-0.59084	0.04914
-0.36133	-0.99668
0.68424	-0.35899
0.37822	0.12566
-0.43783	-0.10391
0.40372	1.22250
-0.00431	0.50828
0.07220	0.27871
0.14870	1.19699
0.17421	-0.10391
0.19971	0.25320
-0.08081	-0.66508
0.25071	-0.51203
-0.71835	-0.05289
0.78624	-0.28246
0.50573	0.40625
0.22521	0.04914
1.06676	-0.25695
-2.35046	-0.23145
-0.74385	0.55929
1.34728	1.57960
1.39828	0.40625
0.04670	0.38074
0.40372	0.30422
-1.25389	0.25320
0.76074	-0.41000
0.70974	-0.00188
1.47479	0.32972
1.34728	0.25320
-0.08081	0.63582
-1.35589	0.10015
-0.92237	-0.12942
-1.02437	-0.18043
-0.76936	-0.18043
1.72980	-0.46102
0.60773	-0.10391
0.09770	0.58480
-0.15732	0.58480
0.93925	0.38074
1.09226	0.10015
0.32721	-0.05289
-0.00431	-0.20594
-0.48884	0.58480
-0.28482	-0.00188
0.04670	0.25320
0.25071	0.04914
0.27621	0.53379
-0.08081	0.30422
0.27621	-0.05289
0.14870	0.63582
0.22521	-0.35899
-0.00431	-0.25695
0.68424	-0.25695
0.50573	1.29902
-0.51434	-0.23145
-0.28482	0.32972
1.34728	1.80917
-0.79486	0.15117
-0.46334	-0.23145
0.19971	-1.09871
-1.25389	0.43176
0.73524	-0.63957
1.67880	-0.46102
0.93925	-0.61406
-0.00431	0.17668
0.22521	1.42656
0.83725	1.32453
0.30171	0.04914
0.42922	0.15117
0.22521	0.25320
-0.13181	0.15117
-1.40690	0.68683
0.04670	-0.79262
-3.16651	-0.18043
0.27621	-0.23145
1.60230	-0.46102
0.58223	0.50828
0.22521	0.32972
-0.15732	0.48277
0.65874	0.20219
0.65874	0.22769
0.55673	0.45726
0.09770	-0.30797
0.25071	-0.10391
0.22521	-0.02739
0.42922	0.02363
-0.18282	0.15117
-0.69285	0.30422
0.42922	0.71234
-0.25932	0.02363
0.42922	-0.48652
0.35272	0.63582
-0.15732	0.40625
-0.13181	-0.18043
-0.38683	-0.18043
0.93925	0.78886
1.14327	0.83988
-2.24845	0.63582
-0.59084	0.58480
0.37822	-0.89465
1.67880	-1.20074
1.57679	-0.92016
0.25071	0.40625
0.22521	1.73265
-0.64185	1.04394
0.22521	-0.02739
0.22521	-0.76711
0.37822	-0.58856
-0.28482	-0.35899
-0.38683	0.91640
-0.43783	0.86539
-0.94787	0.35523
-0.36133	0.48277
1.32178	0.20219
0.53123	-0.48652
0.12320	-1.68539
-0.10631	0.30422
0.73524	0.43176
-0.43783	0.61031
1.14327	0.81437
0.78624	0.86539
0.35272	0.76336
1.04126	-0.53754
-0.79486	0.25320
-2.27395	0.53379
-0.28482	-0.02739
0.55673	-0.35899
0.48022	0.17668
0.93925	-0.12942
1.55129	-0.51203
0.93925	0.53379
-0.46334	0.20219
-0.69285	0.45726
-0.23382	-0.46102
-0.02981	-0.56305
-1.27939	-0.35899
0.91375	0.61031
1.27078	1.14597
0.07220	1.24800
-0.97337	0.27871
1.16877	-0.25695
-0.84586	-0.20594
0.48022	-0.43551
0.68424	0.53379
1.14327	0.66132
0.07220	0.78886
0.58223	0.50828
-0.25932	-1.12422
-0.43783	-1.17523
-0.28482	0.04914
0.48022	0.50828
0.22521	0.66132
-1.30489	-0.02739
-0.33583	-0.48652
1.72980	0.22769
0.96476	0.83988
1.01576	0.15117
-1.38139	0.96742
0.42922	0.07465
0.50573	0.35523
0.35272	-1.32828
-0.99887	-1.04770
-1.96793	0.73785
0.55673	0.78886
0.65874	0.17668
1.47479	0.50828
1.11776	0.66132
0.30171	0.04914
-0.00431	-0.15492
0.09770	1.78367
0.45472	-0.30797
0.48022	-0.86914
-0.53984	-0.48652
-1.43240	-0.12942
-0.00431	0.07465
0.70974	0.40625
-0.43783	0.50828
0.09770	-0.33348
0.63323	-0.05289
-0.00431	0.17668
0.68424	0.50828
1.14327	0.55929
0.30171	0.91640
-2.01894	0.61031
-1.50890	-0.12942
1.37278	-1.63437
1.88281	-0.86914
1.16877	-0.05289
0.73524	1.06945
0.48022	1.47757
-0.00431	0.83988
-1.35589	0.02363
-0.18282	0.15117
-0.59084	-0.53754
-0.02981	0.32972
0.53123	-0.07840
-0.05531	-0.07840
-0.66735	-0.66508
-0.74385	0.50828
0.55673	0.38074
0.93925	-0.05289
1.60230	0.53379
0.27621	0.22769
-0.66735	0.15117
0.70974	0.96742
0.76074	0.50828
-0.18282	-0.71609
-0.38683	-0.46102
0.02119	-0.00188
0.30171	-0.20594
0.53123	-0.28246
0.78624	0.45726
-0.13181	0.04914
0.09770	0.89089
0.17421	0.99292
-0.08081	0.68683
-0.79486	0.17668
-0.33583	-0.25695
0.60773	-0.43551
-1.96793	0.15117
1.09226	0.25320
2.08683	0.78886
0.02119	-0.38449
0.83725	0.32972
0.04670	-0.33348
1.24527	-0.61406
0.50573	-0.00188
-0.48884	0.61031
-0.25932	0.40625
-0.33583	0.20219
-0.33583	-0.35899
0.12320	-1.09871
0.32721	0.02363
0.45472	0.89089
-0.13181	1.37554
-1.15188	0.76336
-0.59084	0.25320
1.67880	0.40625
-0.87136	0.63582
0.12320	-0.71609
1.47479	-0.86914
1.47479	-0.33348
0.53123	0.48277
0.25071	0.76336
-0.64185	0.91640
-0.87136	0.66132
-0.20832	-2.24656
0.50573	-1.32828
0.42922	-0.00188
0.48022	0.83988
0.32721	1.06945
0.70974	1.04394
0.76074	0.73785
-0.41233	0.86539
-0.61635	-0.30797
-4.00806	-0.58856
-0.25932	-0.99668
1.01576	-0.46102
1.37278	0.58480
2.44385	1.52859
0.12320	0.86539
-0.08081	-0.69059
1.01576	-0.61406
0.99026	0.25320
-0.59084	0.27871
-0.69285	0.78886
0.12320	0.55929
0.40372	-0.12942
-0.59084	-0.30797
-0.94787	0.45726
0.09770	0.15117
0.14870	-0.25695
0.78624	-0.18043
0.60773	-0.53754
0.65874	0.76336
0.42922	0.76336
0.04670	0.25320
-0.08081	-0.35899
0.81175	-0.10391
-1.53441	0.20219
-0.51434	0.17668
0.50573	0.04914
0.93925	0.40625
0.91375	0.76336
0.53123	-0.15492
-0.61635	-0.05289
-0.20832	-0.38449
0.53123	-0.23145
0.04670	-0.00188
-1.61091	0.63582
1.29628	0.66132
1.34728	0.15117
2.13783	0.58480
-1.50890	0.43176
-0.48884	0.04914
-0.36133	-0.51203
-0.08081	0.71234
1.67880	0.32972
0.60773	-0.51203
-0.25932	-0.20594
-1.02437	-0.46102
-0.02981	-0.00188
0.04670	0.63582
-0.28482	1.14597
0.40372	-0.02739
1.09226	-1.12422
0.04670	-0.25695
-0.10631	0.15117
0.42922	0.48277
0.30171	-0.20594
0.53123	1.17148
-0.33583	0.73785
-1.27939	0.20219
0.48022	-0.89465
0.99026	0.68683
0.14870	0.45726
-0.02981	0.63582
0.32721	-0.12942
0.19971	-0.05289
-0.56534	-0.33348
0.86275	-0.61406
0.35272	0.07465
-0.08081	0.02363
-0.66735	0.10015
1.39828	0.22769
0.65874	0.76336
0.55673	0.40625
-0.36133	0.25320
-0.36133	0.53379
-0.10631	-0.43551
0.58223	-0.23145
-1.04987	0.45726
0.17421	0.55929
-0.23382	0.07465
1.44929	-0.28246
0.35272	0.04914
-1.33039	0.45726
-1.07538	0.10015
0.60773	0.17668
1.88281	-0.46102
1.39828	-0.10391
0.65874	0.50828
0.78624	0.83988
-0.56534	1.37554
-0.51434	-0.89465
-0.71835	-1.50683
-0.69285	-0.15492
0.65874	1.40105
0.42922	0.32972
0.53123	-0.02739
0.55673	0.20219
-0.97337	1.37554
-0.61635	0.15117
-0.10631	-0.56305
-0.08081	-0.43551
0.48022	-0.76711
1.32178	0.76336
0.86275	0.10015
0.60773	-0.51203
-0.48884	-0.12942
0.14870	1.22250
-0.36133	0.61031
0.32721	-0.30797
0.45472	-0.81812
-0.10631	0.43176
-0.94787	0.53379
-0.41233	0.99292
0.48022	0.86539
1.09226	-0.15492
1.42379	-0.30797
-0.23382	0.07465
-2.52897	-0.05289
-1.02437	0.07465
1.60230	-0.25695
0.53123	-0.02739
1.83181	0.91640
1.37278	0.48277
0.70974	-0.30797
-1.43240	-0.20594
-0.69285	-0.51203
0.19971	-0.25695
-0.71835	0.66132
-0.00431	0.43176
1.16877	0.61031
0.58223	0.73785
-0.20832	0.04914
0.30171	-0.07840
0.76074	-1.20074
0.65874	1.04394
-0.48884	1.04394
-0.89686	0.30422
-0.97337	0.38074
0.88825	-1.04770
0.86275	-0.35899
-0.00431	0.15117
-0.25932	0.58480
0.58223	0.22769
0.73524	0.25320
0.55673	0.32972
-0.38683	-0.71609
-0.10631	0.17668
-0.05531	0.12566
-1.12638	0.15117
1.11776	-0.20594
1.34728	0.73785
0.63323	0.83988
-0.43783	0.61031
-0.59084	0.61031
0.02119	-0.81812
-0.23382	0.32972
0.48022	0.38074
-0.15732	0.53379
1.70430	-1.02219
-0.56534	-1.88945
1.50029	-0.05289
0.09770	0.96742
0.37822	0.86539
-0.79486	0.40625
-1.53441	0.22769
0.14870	0.40625
0.53123	0.17668
-0.00431	0.07465
0.73524	-0.20594
0.68424	0.48277
-0.48884	0.25320
0.81175	0.30422
0.32721	-0.33348
-0.28482	-0.63957
0.22521	-0.92016
-0.13181	-0.33348
0.25071	1.42656
-0.02981	1.27351
-0.02981	1.27351
0.02119	-0.15492
0.02119	-1.45582
-0.08081	-0.58856
-0.20832	0.58480
0.48022	0.58480
0.88825	1.14597
0.30171	1.27351
0.42922	-0.10391
-0.46334	-0.69059
-0.18282	-1.48133
0.14870	-0.10391
0.48022	0.04914
-0.94787	0.22769
0.88825	0.30422
1.27078	-0.35899
0.78624	0.22769
0.91375	0.43176
0.27621	1.14597
-1.84042	0.10015
0.48022	0.15117
-0.89686	0.35523
0.63323	0.86539
1.14327	-0.10391
0.32721	-0.12942
-3.60004	0.17668
-0.79486	0.17668
-0.25932	-0.20594
0.42922	0.04914
3.10689	-0.10391
2.44385	-0.23145
0.60773	-0.07840
0.09770	0.12566
-0.28482	-0.05289
-0.51434	0.27871
-0.18282	1.19699
-0.66735	0.58480
-0.23382	-0.07840
-0.18282	-1.48133
0.02119	-0.46102
0.17421	1.35003
0.27621	1.50308
0.17421	-0.46102
0.68424	-1.04770
0.30171	-0.66508
-0.02981	1.09496
0.22521	1.73265
-0.08081	0.76336
0.09770	0.43176
0.42922	0.15117
0.68424	-0.25695
-0.53984	-0.63957
0.93925	-0.56305
-0.05531	0.48277
-0.48884	0.02363
-1.96793	-0.02739
-0.18282	-1.22625
1.93382	-1.17523
1.57679	-0.33348
1.60230	0.76336
-0.74385	2.26831
0.19971	0.55929
1.24527	0.68683
0.86275	0.38074
-1.61091	0.48277
-1.61091	-0.51203
-2.75848	-0.30797
0.35272	0.04914
1.24527	0.45726
2.01032	0.30422
1.09226	0.40625
0.37822	-0.25695
-0.25932	-0.53754
0.12320	0.50828
-0.71835	0.15117
-0.18282	-0.23145
-0.87136	-0.10391
0.65874	0.12566
0.63323	0.78886
0.63323	0.86539
-0.00431	-0.23145
0.45472	0.02363
0.25071	-0.66508
-0.13181	-0.81812
0.73524	-1.40480
-0.53984	0.48277
-0.92237	1.32453
0.35272	1.55410
0.65874	2.34484
0.93925	0.27871
-0.36133	-0.25695
-0.69285	-1.45582
0.37822	-0.46102
0.93925	0.07465
0.70974	0.48277
-0.59084	-0.05289
0.30171	-0.25695
0.60773	0.55929
0.78624	-0.25695
-1.20288	0.32972
-0.56534	-0.10391
0.40372	-0.00188
0.27621	-0.35899
0.25071	-0.33348
0.53123	0.22769
1.21977	0.99292
-0.66735	0.94191
0.27621	0.22769
-0.31033	0.32972
-0.10631	0.45726
0.35272	-0.05289
-1.35589	-0.38449
0.65874	0.30422
1.14327	-0.00188
1.52579	0.12566
-0.00431	-0.12942
-0.15732	-0.25695
-0.48884	0.04914
0.12320	0.45726
-0.10631	0.20219
0.60773	0.30422
0.14870	0.07465
-0.38683	0.50828
-0.31033	0.22769
0.09770	-0.05289
-0.00431	-0.07840
0.73524	-0.10391
0.65874	0.40625
0.22521	0.73785
-0.18282	0.68683
-0.20832	-0.33348
-0.13181	-1.43031
-0.48884	-1.81293
-0.20832	1.45206
0.63323	1.55410
1.14327	1.40105
0.09770	1.14597
-0.33583	-1.02219
0.17421	-0.97117
1.44929	-0.05289
0.93925	1.06945
-0.46334	-0.25695
1.24527	-1.48133
0.50573	1.06945
-1.30489	0.63582
-0.71835	0.71234
-0.53984	0.04914
1.11776	0.40625
-0.23382	0.76336
-0.46334	0.68683
0.48022	0.04914
0.32721	-0.25695
0.73524	-0.61406
-0.69285	-0.15492
-0.31033	0.48277
-0.05531	0.73785
0.37822	-0.41000
1.04126	-1.04770
0.53123	-0.92016
0.19971	-0.15492
0.45472	0.30422
0.73524	0.83988
0.19971	1.06945
-0.02981	0.86539
-0.25932	0.76336
-0.69285	0.61031
0.27621	0.17668
0.50573	-0.66508
0.76074	-0.41000
-1.66191	-0.25695
-0.08081	0.50828
0.09770	0.22769
0.02119	0.71234
-0.71835	0.15117
0.58223	-0.28246
0.99026	-0.05289
0.93925	-0.05289
1.32178	-0.43551
2.13783	0.32972
-1.48340	0.91640
-0.43783	-0.12942
-0.20832	0.25320
-1.58541	0.58480
0.63323	-0.12942
0.45472	-1.48133
0.32721	-0.69059
0.48022	0.32972
-0.13181	1.24800
-0.05531	1.78367
1.19427	0.45726
-0.48884	0.48277
0.53123	0.10015
0.60773	0.15117
0.32721	-1.45582
0.14870	-0.25695
-0.31033	-0.66508
0.07220	1.17148
0.02119	0.71234
-1.20288	0.55929
-0.13181	-0.53754
-0.87136	-0.05289
-0.31033	-0.48652
0.78624	-0.20594
0.91375	0.63582
0.45472	0.61031
0.40372	0.30422
1.06676	0.22769
-0.97337	-0.33348
-0.23382	0.45726
1.75531	0.50828
0.30171	0.25320
-0.87136	0.15117
0.45472	-0.18043
0.88825	-0.12942
0.09770	-0.12942
-0.10631	0.45726
-0.20832	0.76336
-0.25932	-0.89465
0.42922	-0.28246
0.50573	-0.84363
-1.22839	0.73785
-1.50890	1.29902
0.65874	0.20219
0.70974	-0.15492
1.19427	0.63582
1.55129	0.15117
1.09226	-0.25695
-1.02437	0.02363
-0.05531	0.40625
-0.20832	0.02363
-0.43783	-0.05289
0.22521	-0.48652
0.27621	1.17148
0.55673	0.99292
-0.02981	0.68683
0.22521	-1.14973
0.42922	-1.30277
0.83725	0.58480
-0.53984	0.55929
-0.82036	0.43176
0.42922	0.43176
0.68424	0.71234
1.04126	0.76336
-1.86593	-0.15492
-0.23382	-0.84363
0.73524	-0.10391
0.07220	-0.25695
0.73524	0.63582
-0.59084	-0.30797
-0.41233	0.35523
1.34728	0.20219
0.88825	0.25320
0.09770	0.66132
0.68424	-0.00188
2.06133	0.02363
-1.07538	0.32972
-1.50890	-0.10391
-1.45790	0.30422
0.30171	0.38074
1.09226	-0.02739
-0.18282	-0.15492
-0.05531	-0.23145
1.06676	0.15117
0.93925	-0.07840
0.09770	-0.02739
0.12320	1.35003
-0.18282	-0.05289
-0.97337	-0.00188
0.17421	-0.48652
0.19971	0.96742
0.30171	1.17148
0.55673	0.02363
0.12320	-0.58856
0.22521	-0.84363
0.55673	0.48277
-0.28482	-0.35899
-0.13181	0.35523
0.70974	-0.15492
1.62780	0.96742
-1.78942	1.65613
-1.91693	-0.07840
-0.69285	-0.46102
0.19971	-1.12422
2.18883	0.02363
2.11233	0.38074
-0.18282	0.43176
0.50573	0.66132
1.50029	0.02363
-0.84586	0.12566
-1.17738	-0.51203
-1.76392	-0.41000
0.50573	-0.28246
0.68424	0.43176
1.32178	0.91640
-0.53984	0.45726
0.45472	0.38074
1.60230	0.66132
0.68424	0.32972
-1.63641	0.10015
-1.07538	-0.18043
-0.10631	0.12566
-0.36133	-0.51203
0.45472	-0.51203
0.35272	0.58480
0.68424	0.81437
0.83725	-0.20594
0.32721	-0.25695
-0.00431	-0.12942
0.32721	0.43176
-0.00431	-0.00188
0.12320	0.02363
0.19971	1.04394
0.27621	0.48277
0.09770	0.32972
-1.43240	-0.48652
0.25071	0.25320
0.45472	0.86539
0.45472	-0.81812
0.78624	-0.51203
0.32721	-0.51203
-0.10631	0.96742
-0.53984	-0.23145
-0.25932	1.63062
0.48022	1.04394
-0.25932	0.25320
0.14870	0.35523
0.45472	-0.23145
0.88825	-0.92016
0.53123	-0.66508
-1.38139	0.04914
1.04126	0.63582
0.02119	-0.69059
2.03582	0.20219
1.60230	0.55929
-0.15732	0.45726
-0.13181	-0.43551
-0.74385	-0.10391
-1.15188	0.20219
-1.15188	0.66132
-0.66735	0.78886
0.78624	0.76336
0.53123	-0.02739
0.19971	0.15117
0.40372	0.38074
0.91375	0.50828
1.34728	-0.05289
-1.15188	-0.07840
-1.17738	-0.58856
0.37822	-0.15492
0.96476	-0.30797
0.63323	0.32972
0.45472	0.35523
0.02119	0.12566
0.22521	-0.38449
0.25071	-0.48652
0.04670	-0.12942
0.17421	1.04394
-0.00431	0.99292
0.14870	-0.23145
-0.56534	-0.41000
0.17421	-0.00188
0.58223	1.09496
-0.48884	-0.10391
-0.31033	0.02363
1.16877	0.17668
1.11776	-0.25695
0.37822	0.35523
-0.48884	0.58480
-0.99887	-0.89465
-1.96793	0.66132
0.14870	0.40625
0.55673	-0.15492
1.75531	-0.74160
1.11776	-0.41000
-0.23382	0.32972
-0.13181	1.17148
0.12320	0.58480
1.32178	0.15117
1.34728	0.55929
0.83725	-0.10391
-0.00431	0.25320
-1.12638	-0.12942
-0.28482	0.17668
-0.84586	0.17668
0.88825	0.22769
-0.08081	0.25320
-1.40690	-0.69059
-0.56534	-0.18043
0.12320	0.35523
-0.46334	0.12566
0.91375	0.38074
0.93925	-0.00188
1.06676	0.83988
0.12320	0.43176
0.96476	0.04914
0.60773	-0.61406
0.30171	0.02363
0.02119	0.71234
-0.23382	0.15117
0.02119	1.01843
-0.02981	0.48277
-0.10631	0.38074
-0.08081	-0.58856
-0.08081	-0.48652
0.02119	-0.61406
-0.00431	-0.02739
0.48022	0.61031
0.70974	0.35523
0.78624	0.22769
0.35272	0.71234
-3.31952	0.10015
-0.79486	0.50828
0.70974	-0.35899
0.93925	0.12566
1.42379	0.45726
2.13783	0.35523
-0.05531	0.15117
0.45472	0.10015
-0.18282	-0.46102
0.09770	0.40625
-0.08081	0.55929
-0.10631	0.15117
0.55673	-0.10391
0.48022	0.04914
-0.38683	0.12566
-0.53984	0.15117
-0.18282	0.04914
-0.59084	-0.00188
-1.15188	0.04914
0.35272	0.76336
1.34728	0.71234
0.32721	-0.41000
0.32721	-0.97117
0.73524	-0.69059
0.63323	1.06945
0.17421	0.91640
0.09770	0.76336
-0.05531	0.68683
-0.20832	0.35523
-0.05531	0.10015
0.19971	0.04914
0.02119	-0.41000
-0.28482	-0.10391
0.70974	0.02363
1.04126	0.07465
0.04670	0.02363
0.17421	-0.30797
-1.04987	-0.99668
-0.20832	-0.23145
0.27621	0.71234
0.42922	0.43176
0.50573	0.66132
0.81175	1.27351
0.81175	0.35523
-1.10088	-0.05289
-0.51434	-0.35899
-0.23382	-0.51203
0.60773	0.66132
0.63323	0.40625
0.88825	0.45726
1.62780	0.38074
-1.07538	-0.51203
-1.10088	-0.15492
-0.87136	0.35523
1.47479	-0.07840
-0.05531	0.15117
0.40372	-0.15492
0.45472	-0.12942
-0.08081	0.17668
0.04670	0.40625
1.70430	0.45726
-2.60547	0.81437
-1.10088	0.48277
-0.41233	-0.25695
0.27621	-0.84363
1.62780	0.30422
1.47479	0.30422
1.72980	0.86539
0.83725	0.25320
0.25071	-0.15492
-0.20832	0.25320
-1.73842	-0.41000
0.12320	0.45726
0.14870	-0.23145
-0.74385	-0.66508
-1.04987	-0.35899
0.83725	0.83988
-0.02981	1.19699
0.60773	-1.04770
0.86275	0.22769
0.60773	0.96742
0.19971	1.14597
-0.25932	0.12566
0.27621	-0.35899
0.65874	0.02363
0.37822	0.17668
0.27621	0.25320
-0.28482	-0.23145
-0.79486	-0.81812
-0.64185	-0.18043
0.19971	0.30422
-0.00431	-0.28246
0.60773	0.78886
-0.18282	0.38074
1.95932	0.50828
1.16877	-0.76711
0.83725	0.66132
-1.61091	1.17148
0.55673	0.48277
0.73524	0.25320
-1.53441	0.15117
-0.46334	-0.05289
0.86275	-0.33348
0.65874	0.04914
0.19971	-0.05289
-0.76936	0.04914
0.27621	-0.15492
0.02119	0.10015
-0.20832	-0.41000
0.09770	-0.00188
0.25071	-0.51203
0.53123	0.76336
0.09770	1.17148
0.53123	1.09496
0.88825	0.20219
0.17421	-0.56305
-1.30489	-0.20594
0.07220	-0.12942
0.45472	0.61031
0.50573	0.96742
0.78624	0.58480
0.12320	0.10015
0.14870	-0.15492
0.40372	-0.25695
0.78624	0.02363
1.21977	0.27871
-4.33958	-0.79262
-2.09544	-0.71609
0.73524	-0.15492
1.19427	0.81437
1.80631	0.81437
1.19427	-0.05289
1.32178	-0.76711
0.30171	0.43176
-0.84586	-0.02739
0.45472	0.58480
-0.36133	0.94191
-0.18282	0.53379
-0.48884	0.91640
0.09770	0.10015
1.27078	-0.66508
0.48022	-0.28246
-0.41233	0.76336
-0.36133	-0.81812
-0.87136	-0.46102
-1.25389	0.10015
-0.28482	0.40625
1.06676	-0.02739
0.86275	-0.10391
1.67880	0.04914
-0.15732	-0.00188
1.16877	0.58480
1.06676	0.68683
-0.53984	0.71234
-0.31033	0.50828
0.17421	0.58480
0.30171	0.35523
0.40372	0.04914
-0.23382	-1.63437
0.02119	-0.56305
-0.31033	0.63582
0.83725	0.45726
0.30171	0.58480
-0.43783	0.22769
-0.20832	0.04914
0.09770	0.12566
0.25071	-0.05289
0.07220	0.27871
-0.25932	-0.46102
-0.99887	0.40625
0.76074	0.55929
0.68424	0.48277
0.68424	0.22769
0.83725	0.25320
1.11776	-0.05289
0.53123	-0.25695
-0.71835	0.27871
-0.79486	0.30422
0.50573	0.17668
-0.64185	0.38074
0.45472	0.04914
0.55673	0.55929
0.53123	-0.69059
-0.28482	-0.56305
-0.53984	-0.33348
0.04670	0.81437
0.73524	1.12046
-1.33039	-0.18043
1.19427	0.04914
1.34728	0.50828
-0.28482	1.37554
-0.08081	0.73785
-0.51434	-0.51203
0.12320	-0.35899
0.78624	-0.38449
1.44929	-0.56305
-0.56534	-0.23145
-0.92237	0.27871
0.68424	0.73785
0.37822	1.68163
-0.15732	-0.23145
0.09770	-0.99668
0.30171	-1.63437
0.25071	0.91640
0.25071	0.71234
0.37822	0.04914
-1.17738	0.53379
0.50573	0.50828
0.22521	0.66132
1.04126	0.76336
-0.13181	0.55929
-0.18282	0.27871
0.30171	-0.86914
-0.00431	-0.69059
0.07220	-0.61406
0.12320	0.27871
0.73524	-0.20594
0.04670	-0.02739
1.32178	0.94191
0.07220	0.71234
-0.38683	0.76336
0.27621	0.10015
0.09770	0.61031
0.09770	0.07465
-0.82036	0.02363
0.14870	0.02363
-0.15732	-0.28246
-1.07538	-0.53754
0.99026	0.27871
0.55673	0.63582
0.99026	0.55929
0.58223	0.20219
-1.02437	-0.12942
1.01576	-0.46102
-0.66735	0.04914
-0.69285	1.19699
0.70974	0.83988
0.45472	-0.12942
-0.05531	-0.35899
0.76074	-0.30797
0.17421	0.04914
0.32721	-1.55785
-0.23382	-0.89465
-0.43783	1.93671
-0.36133	1.50308
0.04670	1.42656
0.53123	0.63582
0.50573	-0.56305
0.83725	0.25320
0.93925	0.32972
-0.64185	-0.63957
-4.26308	-2.14453
0.73524	0.20219
2.52035	1.40105
1.29628	1.32453
0.35272	0.30422
0.30171	-0.10391
-0.79486	-0.38449
0.83725	-0.28246
-0.10631	-0.18043
1.39828	-0.18043
0.83725	0.71234
-1.53441	0.22769
-0.92237	0.58480
-1.15188	0.40625
0.04670	0.30422
0.37822	0.12566
1.14327	0.12566
1.09226	-0.15492
0.63323	0.38074
-0.25932	0.32972
0.58223	0.02363
0.30171	-0.53754
-1.30489	-0.71609
0.02119	0.12566
0.40372	0.76336
0.22521	0.78886
0.60773	-0.18043
0.07220	-0.20594
0.32721	0.15117
1.09226	1.22250
-0.79486	0.38074
-1.17738	0.20219
0.02119	-0.84363
1.01576	0.30422
0.40372	0.10015
0.07220	0.45726
-0.48884	0.55929
0.55673	-0.18043
0.65874	-0.30797
0.68424	0.32972
-0.99887	1.01843
-0.69285	0.27871
0.42922	-1.27726
1.11776	-1.60887
0.50573	-0.15492
-0.43783	0.55929
-0.10631	0.58480
1.14327	1.17148
2.64786	1.45206
0.63323	0.78886
-1.33039	0.43176
-4.46709	-0.05289
-0.53984	-0.07840
1.60230	-0.63957
1.80631	-0.33348
0.53123	-0.15492
0.02119	-0.15492
0.07220	0.02363
0.30171	1.24800
0.17421	0.91640
0.12320	-0.58856
0.42922	-0.71609
-0.92237	-0.23145
-0.38683	0.15117
0.27621	0.68683
0.93925	0.12566
-0.08081	0.27871
0.14870	0.15117
0.04670	0.45726
0.17421	-0.20594
-0.10631	0.20219
0.65874	-0.23145
0.25071	0.66132
0.19971	0.61031
0.27621	-0.10391
-0.82036	-0.23145
1.14327	0.20219
0.35272	0.40625
0.42922	-0.23145
-0.51434	0.15117
-1.61091	0.07465
0.12320	0.45726
1.19427	0.35523
1.16877	0.20219
0.42922	-0.71609
0.32721	-0.61406
-1.50890	0.30422
0.04670	1.27351
-0.31033	0.45726
1.88281	0.25320
1.14327	-0.33348
0.88825	0.45726
-0.00431	0.27871
-1.55991	-0.05289
-0.79486	-0.25695
-0.08081	-0.12942
0.07220	0.10015
0.50573	0.43176
0.53123	0.30422
1.27078	0.38074
-0.02981	0.15117
-0.71835	-0.48652
-0.02981	0.48277
-1.15188	0.27871
0.83725	0.15117
0.81175	-0.38449
0.68424	-0.12942
0.63323	0.71234
0.63323	0.40625
-0.00431	-0.23145
0.02119	0.71234
0.35272	-0.05289
-0.20832	-0.15492
-0.33583	0.02363
-0.33583	0.35523
0.09770	0.32972
0.09770	0.48277
-0.99887	0.22769
0.55673	0.17668
0.30171	0.04914
0.93925	-0.05289
1.16877	-0.12942
-0.20832	0.50828
-0.46334	0.25320
0.45472	-0.51203
-0.10631	-1.12422
0.68424	-0.56305
-1.89143	0.50828
0.32721	0.78886
1.39828	1.17148
0.30171	0.40625
1.27078	0.17668
0.37822	-0.38449
-0.71835	0.30422
0.27621	0.30422
-0.33583	0.02363
0.22521	-0.05289
-0.28482	0.45726
-0.18282	0.35523
0.37822	0.63582
0.70974	-0.02739
0.83725	-0.10391
-0.38683	-0.15492
-1.45790	0.04914
-1.17738	0.04914
-0.82036	-0.10391
1.06676	0.32972
1.37278	0.22769
1.72980	0.02363
1.65330	-0.20594
0.40372	0.17668
0.02119	0.76336
-0.20832	0.53379
-0.33583	0.17668
-0.02981	-0.00188
0.02119	0.50828
-0.51434	0.32972
-0.38683	-0.07840
0.19971	0.25320
0.53123	-0.05289
-0.31033	-0.02739
0.42922	0.12566
0.22521	-0.66508
-0.59084	-0.20594
-0.41233	0.25320
-0.59084	0.10015
0.22521	0.53379
0.96476	0.40625
1.21977	0.78886
0.88825	0.25320
0.37822	0.22769
0.02119	0.15117
0.02119	0.43176
0.65874	0.89089
0.14870	0.43176
0.22521	-0.97117
-0.08081	-0.94566
-1.48340	0.12566
-0.82036	-0.20594
0.14870	0.27871
-1.10088	0.68683
0.93925	0.02363
1.29628	-0.12942
0.12320	0.20219
1.50029	0.53379
-0.38683	0.91640
-0.84586	0.25320
-0.15732	-0.12942
0.42922	-0.28246
0.91375	0.17668
1.32178	-0.41000
0.12320	0.30422
-0.33583	0.63582
-0.08081	0.45726
-0.31033	0.94191
-0.05531	0.35523
-0.13181	-0.53754
-1.58541	-0.38449
-0.18282	-0.02739
1.01576	0.76336
0.73524	0.68683
0.68424	0.15117
0.45472	-0.71609
0.25071	-0.15492
-0.00431	0.17668
0.45472	-0.33348
-0.38683	-0.48652
-0.56534	1.57960
-0.18282	0.76336
0.81175	0.04914
0.22521	-0.23145
-0.76936	0.07465
1.44929	0.40625
-0.48884	1.29902
-1.61091	0.35523
-0.28482	-0.74160
1.75531	-0.71609
1.34728	0.20219
1.27078	0.30422
-0.38683	0.20219
0.42922	-0.05289
0.40372	-0.12942
-0.48884	-0.30797
-1.10088	0.43176
-0.13181	0.53379
0.73524	-0.00188
0.37822	0.25320
-1.20288	0.50828
-0.56534	0.15117
0.88825	0.15117
-0.53984	0.15117
0.58223	0.22769
1.21977	0.25320
0.91375	-0.00188
0.25071	-0.41000
0.35272	-0.02739
0.45472	0.58480
0.07220	0.35523
-0.61635	-0.33348
-0.38683	-0.15492
0.04670	0.40625
0.37822	0.53379
0.65874	0.02363
-0.13181	-0.10391
0.17421	0.40625
0.32721	0.45726
-0.79486	0.27871
1.24527	-1.04770
0.32721	-0.51203
-0.56534	-0.43551
0.22521	0.99292
-0.61635	0.83988
0.93925	1.06945
0.68424	0.50828
-1.53441	0.27871
-0.71835	-0.69059
0.93925	0.20219
1.19427	-0.35899
0.60773	-0.94566
0.53123	-0.15492
0.50573	0.76336
-0.20832	0.30422
-0.56534	0.63582
0.63323	0.32972
-0.20832	0.94191
-0.10631	0.96742
0.70974	-0.58856
0.14870	-1.02219
-1.12638	-1.37929
0.76074	0.61031
-0.84586	0.53379
0.12320	0.50828
0.22521	0.50828
1.01576	0.55929
0.37822	0.89089
-0.28482	0.12566
0.17421	-1.09871
0.07220	-0.66508
0.12320	-0.05289
0.65874	0.86539
-0.18282	0.50828
0.78624	0.45726
0.53123	0.63582
-0.61635	-0.38449
-0.13181	-0.58856
0.09770	0.30422
0.42922	0.45726
-0.61635	0.25320
0.09770	-0.63957
0.17421	-0.00188
0.53123	0.58480
0.65874	0.55929
1.67880	0.45726
-1.02437	1.09496
-1.53441	-0.23145
-0.18282	-0.56305
1.29628	-0.61406
0.63323	0.12566
-0.56534	0.71234
-0.79486	0.32972
0.70974	0.76336
0.32721	-0.05289
0.99026	0.25320
0.09770	0.32972
0.30171	0.17668
0.88825	-0.43551
0.07220	0.10015
-0.38683	0.27871
-0.25932	0.81437
-1.17738	-0.28246
0.30171	-0.84363
-0.66735	-0.71609
0.73524	0.32972
0.40372	1.01843
0.02119	0.43176
0.45472	0.15117
1.19427	0.10015
0.70974	0.43176
-0.25932	1.42656
0.25071	0.50828
-1.53441	-0.15492
0.45472	-1.37929
0.70974	-0.71609
1.21977	-0.84363
-0.00431	0.04914
-3.39602	0.66132
-0.38683	1.06945
1.60230	1.06945
1.75531	1.14597
0.99026	0.63582
0.50573	0.02363
0.73524	-0.07840
-0.02981	-0.10391
-0.05531	0.04914
-0.15732	0.66132
-0.41233	-1.02219
-1.43240	-1.04770
-0.48884	-1.30277
0.19971	-0.00188
0.83725	0.78886
1.01576	0.63582
0.32721	0.94191
0.07220	1.52859
0.12320	1.24800
-0.61635	0.07465
-0.10631	-0.38449
0.65874	-0.69059
0.86275	0.17668
0.53123	0.10015
-0.36133	0.30422
-0.41233	-0.69059
1.06676	-0.20594
0.93925	0.40625
0.53123	0.76336
-0.79486	-0.05289
0.27621	0.12566
-0.28482	0.48277
-0.66735	0.43176
-0.28482	0.04914
-0.31033	0.04914
0.76074	0.15117
1.75531	0.38074
0.48022	-0.41000
-1.22839	0.17668
0.17421	-0.33348
-0.31033	-0.30797
1.09226	-0.30797
-0.66735	0.58480
0.04670	1.01843
0.86275	0.50828
0.32721	0.86539
-0.23382	0.17668
-0.05531	-0.63957
-0.18282	-0.33348
0.07220	0.25320
0.60773	-0.05289
0.27621	-0.05289
0.30171	0.15117
0.09770	-0.05289
-0.69285	-0.12942
-0.61635	0.68683
0.58223	0.15117
0.88825	0.48277
0.40372	0.32972
0.42922	0.40625
0.60773	0.30422
0.50573	0.10015
0.25071	0.30422
-0.64185	-0.12942
-0.94787	-1.27726
-0.31033	-1.20074
-1.53441	1.17148
-0.64185	1.47757
1.65330	0.17668
2.97938	-0.20594
0.93925	0.07465
-0.53984	0.17668
0.07220	0.55929
0.73524	-0.12942
0.37822	0.17668
-0.66735	0.02363
0.55673	-0.12942
-0.53984	0.04914
-1.12638	0.38074
-1.81492	0.66132
-0.28482	0.30422
0.53123	-0.35899
1.04126	-0.28246
2.57136	0.20219
0.70974	-0.79262
0.04670	0.30422
-0.08081	0.68683
-0.33583	1.06945
0.02119	0.25320
0.78624	1.04394
-0.56534	0.61031
-0.25932	0.12566
0.12320	-0.48652
0.30171	-0.76711
-0.46334	0.02363
-0.20832	0.66132
0.48022	-0.10391
0.65874	-0.20594
0.60773	0.50828
0.65874	0.73785
-2.27395	0.07465
-0.23382	-1.68539
1.67880	-0.35899
0.63323	0.35523
-0.89686	0.61031
-0.76936	0.55929
2.16333	0.53379
1.19427	0.71234
-0.76936	0.25320
0.02119	0.35523
1.06676	-0.12942
-0.69285	0.02363
-0.46334	0.15117
1.14327	0.35523
-0.08081	-0.12942
-0.92237	-0.07840
-0.84586	-0.12942
-0.18282	-0.02739
0.27621	-0.25695
0.99026	0.04914
0.73524	0.15117
0.48022	0.30422
0.55673	0.45726
0.32721	1.17148
-0.02981	0.53379
-0.05531	-0.41000
-0.05531	-0.79262
0.02119	-0.38449
-0.13181	1.40105
-0.31033	0.15117
0.22521	0.22769
0.30171	0.15117
-0.13181	-0.05289
