0.22521	0.25320
0.12320	0.17668
0.19971	0.25320
0.07220	0.20219
0.12320	0.25320
0.12320	0.22769
0.17421	0.10015
0.19971	-0.00188
0.14870	-0.02739
0.22521	0.10015
0.14870	0.15117
0.22521	0.35523
0.14870	0.12566
0.07220	0.25320
0.09770	0.07465
0.27621	0.17668
0.02119	0.10015
0.19971	0.22769
0.12320	0.04914
0.22521	0.20219
0.09770	0.04914
0.22521	0.20219
0.02119	0.04914
0.19971	0.17668
0.02119	0.12566
0.27621	0.25320
0.14870	0.15117
0.02119	0.15117
0.14870	0.12566
0.22521	0.20219
0.12320	-0.05289
0.19971	0.12566
0.02119	0.12566
0.40372	0.25320
0.04670	0.12566
0.12320	0.22769
0.02119	0.10015
0.19971	0.15117
0.07220	0.20219
0.22521	0.25320
0.12320	0.17668
0.25071	0.22769
0.09770	0.04914
0.07220	0.04914
0.07220	0.12566
0.19971	0.32972
0.07220	0.17668
0.17421	-0.20594
0.07220	-0.02739
0.14870	0.10015
0.22521	0.20219
0.17421	0.30422
0.12320	0.15117
0.09770	0.22769
0.09770	0.32972
0.12320	0.15117
0.17421	0.27871
0.12320	0.15117
0.19971	0.12566
0.25071	0.10015
0.14870	0.07465
0.25071	0.04914
0.07220	-0.05289
0.12320	0.22769
0.12320	0.12566
0.12320	0.15117
0.12320	0.02363
0.27621	0.15117
0.12320	0.10015
0.25071	0.20219
0.09770	0.22769
0.19971	0.40625
0.07220	0.15117
0.17421	0.20219
0.14870	0.04914
0.14870	0.10015
0.07220	0.10015
0.19971	0.20219
0.19971	0.25320
0.19971	0.12566
0.09770	0.02363
0.02119	0.04914
0.17421	0.22769
0.32721	0.20219
0.14870	0.15117
0.07220	0.17668
0.12320	0.07465
0.07220	-0.00188
0.22521	0.17668
0.17421	0.17668
0.25071	0.25320
0.09770	0.10015
0.12320	0.17668
0.12320	0.10015
0.04670	-0.35899
0.09770	-0.00188
0.19971	0.17668
0.14870	0.45726
0.17421	0.22769
0.14870	0.45726
0.22521	0.20219
0.27621	0.30422
0.09770	0.10015
0.12320	0.10015
0.02119	0.02363
0.22521	-0.05289
0.09770	0.02363
0.22521	0.25320
0.14870	0.12566
0.27621	0.30422
0.12320	0.12566
0.14870	0.17668
-0.00431	0.10015
0.14870	0.25320
0.04670	0.07465
0.14870	0.12566
0.14870	-0.05289
0.22521	-0.07840
0.14870	0.04914
0.19971	0.22769
0.17421	0.17668
-0.02981	0.20219
0.17421	0.30422
0.07220	0.15117
0.14870	0.27871
0.17421	0.15117
0.14870	0.12566
0.04670	-0.00188
0.14870	0.20219
0.09770	-0.02739
0.40372	0.15117
0.14870	0.27871
0.04670	0.17668
0.14870	0.22769
0.09770	0.04914
0.09770	-0.02739
0.14870	0.25320
0.19971	0.17668
0.09770	0.38074
0.25071	0.15117
0.17421	-0.12942
0.22521	0.02363
0.12320	-0.10391
0.12320	0.53379
0.02119	0.15117
0.14870	0.15117
0.12320	-0.02739
0.14870	-0.10391
0.17421	0.35523
0.19971	0.50828
0.19971	0.27871
0.19971	0.40625
0.19971	0.15117
-0.00431	0.04914
0.14870	-0.00188
0.02119	-0.10391
0.25071	0.10015
0.12320	-0.02739
0.09770	0.04914
0.07220	0.12566
0.17421	0.32972
0.09770	0.12566
0.22521	0.55929
0.09770	0.04914
0.17421	-0.07840
0.07220	-0.25695
0.22521	-0.25695
0.09770	0.25320
0.25071	0.61031
0.17421	0.32972
0.17421	0.61031
0.12320	0.40625
0.14870	0.07465
0.09770	-0.12942
0.09770	0.10015
0.22521	-0.07840
0.09770	0.02363
0.17421	0.10015
0.07220	0.30422
0.25071	0.30422
0.09770	-0.05289
0.17421	-0.05289
0.14870	0.25320
0.09770	0.22769
0.19971	0.35523
0.07220	0.07465
0.12320	-0.05289
0.14870	0.02363
0.19971	0.04914
0.30171	0.35523
0.14870	0.15117
0.02119	0.17668
0.14870	0.20219
0.04670	0.02363
0.17421	0.15117
0.14870	0.04914
0.09770	0.12566
0.17421	0.20219
0.12320	0.17668
0.40372	0.20219
0.22521	0.10015
0.09770	0.15117
0.04670	0.10015
0.02119	0.07465
0.12320	0.12566
0.12320	0.15117
0.02119	0.22769
0.22521	0.27871
0.17421	0.10015
0.32721	0.22769
0.09770	0.10015
0.02119	0.10015
0.22521	0.10015
0.04670	0.04914
0.12320	0.15117
0.14870	0.20219
0.07220	0.22769
0.25071	0.15117
0.14870	0.07465
0.04670	0.04914
0.25071	0.32972
0.12320	0.15117
0.04670	0.10015
0.19971	0.15117
0.09770	0.25320
0.02119	0.12566
0.22521	-0.23145
0.12320	-0.30797
0.12320	-0.23145
0.27621	0.35523
0.19971	0.61031
0.09770	0.55929
0.19971	0.32972
0.14870	0.07465
0.04670	0.07465
0.12320	0.17668
0.14870	0.15117
0.14870	0.22769
0.17421	0.25320
0.19971	-0.05289
0.07220	0.07465
0.12320	-0.38449
0.17421	0.04914
0.12320	0.10015
0.09770	-0.15492
0.19971	0.35523
0.14870	0.45726
-0.05531	0.40625
0.22521	0.40625
0.27621	0.55929
0.17421	0.20219
0.07220	-0.25695
0.19971	0.10015
0.09770	-0.02739
0.07220	0.02363
0.22521	-0.20594
0.09770	-0.07840
0.04670	0.35523
0.14870	0.53379
0.17421	0.25320
0.09770	0.07465
0.17421	0.20219
0.14870	0.17668
-0.00431	0.17668
0.12320	0.15117
0.04670	0.12566
0.17421	0.07465
0.27621	0.20219
0.14870	0.35523
0.22521	-0.05289
0.27621	-0.05289
0.12320	0.07465
0.17421	0.63582
0.02119	0.20219
-0.13181	-0.05289
0.12320	-0.43551
0.12320	-0.30797
0.37822	-0.02739
0.07220	0.30422
-0.05531	0.25320
0.04670	0.53379
0.27621	0.89089
0.30171	0.45726
0.40372	0.40625
0.22521	0.20219
0.19971	0.15117
0.22521	0.15117
0.04670	-0.07840
0.12320	-0.02739
-0.13181	-0.12942
0.09770	-0.10391
0.12320	-0.05289
-0.15732	-0.02739
-0.10631	-0.00188
0.25071	0.17668
0.22521	0.20219
0.12320	0.22769
0.25071	0.30422
0.37822	0.30422
0.22521	0.20219
0.12320	0.81437
0.14870	0.15117
0.09770	-0.07840
0.02119	0.04914
0.17421	-0.07840
-0.00431	0.04914
0.12320	-0.12942
0.14870	0.17668
0.14870	-0.25695
0.14870	0.76336
0.12320	0.58480
0.25071	0.50828
0.09770	0.48277
0.22521	-0.12942
0.09770	-0.10391
0.17421	0.25320
0.19971	-0.20594
0.17421	0.25320
0.14870	0.15117
0.12320	-0.12942
0.17421	0.04914
0.09770	0.10015
0.19971	0.30422
0.07220	0.22769
0.22521	0.30422
0.04670	-0.05289
0.12320	-0.10391
0.12320	-0.81812
0.14870	0.27871
0.12320	0.45726
0.07220	0.45726
0.22521	0.61031
0.09770	-0.00188
0.30171	0.58480
0.35272	-0.33348
-0.00431	-0.51203
-0.23382	-0.10391
-0.10631	0.78886
0.09770	0.96742
0.40372	0.61031
0.30171	-0.05289
0.17421	-0.20594
0.27621	-0.48652
0.37822	0.43176
0.07220	0.76336
0.07220	0.86539
0.17421	-0.66508
0.22521	-1.04770
0.37822	-1.37929
0.30171	0.27871
0.17421	0.94191
-0.28482	1.17148
-0.00431	0.20219
0.07220	0.20219
0.22521	-0.05289
0.02119	0.55929
0.09770	0.45726
0.09770	0.04914
0.32721	-0.15492
0.17421	-0.56305
0.45472	0.35523
0.42922	1.78367
0.17421	-0.15492
-0.05531	-0.84363
-0.20832	-1.12422
-0.13181	-0.35899
-0.02981	0.53379
0.45472	0.58480
0.53123	1.42656
0.19971	0.45726
0.17421	-0.30797
0.22521	-0.46102
0.19971	0.12566
0.27621	0.50828
-0.10631	1.27351
-0.25932	1.68163
-0.05531	-0.02739
-0.31033	-0.84363
0.04670	-0.94566
0.30171	-0.23145
0.09770	-0.79262
0.14870	-0.41000
0.12320	1.60511
0.37822	0.71234
0.48022	-0.69059
0.55673	-0.51203
0.02119	-0.15492
0.22521	1.68163
-0.10631	0.81437
0.30171	0.50828
0.22521	1.17148
0.27621	0.76336
0.25071	-1.55785
-0.10631	0.22769
0.07220	-0.97117
-0.20832	0.53379
-0.46334	0.20219
0.19971	-0.10391
0.35272	0.83988
0.25071	-1.07320
0.48022	-1.83844
0.58223	0.17668
-0.10631	0.35523
-0.99887	1.27351
-0.51434	1.50308
0.96476	0.66132
0.60773	0.76336
0.09770	-0.25695
0.48022	0.30422
0.35272	0.27871
0.17421	0.07465
0.81175	-0.46102
0.17421	0.04914
-0.18282	0.04914
-0.84586	-0.10391
0.32721	0.04914
0.17421	0.55929
0.22521	2.65093
0.19971	-1.27726
0.35272	-1.96597
-0.31033	-2.60367
-0.23382	-1.20074
0.27621	1.50308
0.42922	1.14597
0.58223	2.01323
0.12320	1.73265
-0.51434	1.98773
0.09770	0.45726
0.65874	-0.28246
0.35272	-0.38449
-0.18282	0.58480
-0.18282	0.55929
-0.25932	-0.81812
0.25071	-0.86914
0.19971	-0.58856
0.53123	-1.12422
0.42922	-0.97117
0.27621	-0.15492
0.35272	0.40625
-0.05531	0.40625
0.17421	0.61031
-0.18282	-0.10391
-0.56534	0.96742
0.04670	1.19699
0.63323	0.10015
0.76074	1.50308
0.35272	-0.30797
0.30171	0.71234
1.01576	2.47238
1.01576	-0.66508
-0.53984	-2.29757
-1.10088	-1.20074
-0.46334	0.50828
-0.48884	-0.07840
-0.59084	-0.46102
-0.20832	-0.28246
0.48022	1.60511
0.99026	1.73265
0.73524	0.04914
-0.08081	-0.23145
0.48022	0.89089
0.73524	1.19699
0.48022	-0.46102
0.09770	-0.25695
-0.05531	-2.14453
0.12320	-1.27726
0.12320	-0.48652
-0.18282	0.43176
0.27621	0.76336
-0.18282	1.60511
0.19971	1.04394
0.25071	1.47757
0.07220	0.61031
-0.02981	-0.20594
-0.05531	-2.19554
-0.02981	-1.50683
0.12320	0.07465
0.17421	0.40625
-0.41233	1.86019
0.48022	0.81437
1.01576	0.68683
0.09770	-0.61406
-0.74385	-1.71090
-0.00431	0.55929
0.50573	0.55929
0.91375	-0.30797
0.76074	-0.20594
0.42922	1.73265
-0.33583	1.47757
-0.82036	0.50828
0.50573	-0.33348
0.22521	-0.51203
-0.61635	-0.33348
-0.13181	0.04914
-0.20832	0.15117
0.76074	-0.30797
1.42379	-0.63957
0.48022	2.26831
0.35272	-0.12942
0.48022	-1.83844
0.02119	-1.58336
-1.55991	0.12566
-0.66735	1.19699
0.17421	1.24800
0.50573	0.99292
0.63323	0.81437
0.53123	0.94191
-0.43783	1.17148
-0.76936	-0.61406
-0.18282	-1.30277
0.58223	0.30422
0.99026	-0.23145
0.53123	0.07465
0.53123	1.37554
0.27621	-2.65468
0.19971	0.25320
-0.18282	-0.92016
-0.05531	1.29902
0.22521	0.86539
-0.18282	1.63062
-0.36133	-0.89465
0.60773	0.96742
0.83725	1.75816
-0.53984	-0.28246
-0.87136	-2.34859
0.93925	-0.53754
0.91375	1.70714
0.93925	-0.20594
-0.13181	0.38074
-0.02981	0.76336
-0.33583	-0.51203
0.14870	0.73785
-0.28482	1.37554
-0.59084	0.50828
0.53123	-1.27726
0.96476	0.81437
0.50573	-0.99668
-0.18282	-0.63957
1.01576	-1.78742
-0.38683	1.40105
0.22521	-0.10391
-0.00431	0.20219
0.14870	0.20219
0.37822	0.78886
0.25071	0.86539
0.09770	0.07465
0.14870	0.86539
-0.51434	-0.00188
-0.10631	-0.38449
1.04126	0.43176
0.02119	1.01843
-0.51434	-0.63957
0.32721	-0.86914
0.55673	-0.43551
0.14870	-0.69059
0.30171	1.12046
-0.05531	-0.07840
-0.56534	0.68683
0.12320	0.02363
0.14870	0.58480
0.65874	-0.02739
0.60773	1.32453
0.63323	3.03355
0.42922	-0.81812
-0.23382	-2.60367
-0.08081	-3.54745
-0.10631	-0.02739
0.42922	2.08976
-0.18282	1.96222
-0.05531	1.45206
0.07220	1.63062
-0.46334	-0.71609
-0.28482	-0.97117
-0.48884	-1.86394
-0.48884	-0.15492
0.86275	0.40625
0.99026	0.50828
0.60773	0.25320
0.65874	0.63582
0.70974	0.81437
-0.15732	0.07465
0.40372	0.17668
1.09226	-0.35899
-0.74385	0.68683
-2.01894	-0.33348
-0.28482	-0.84363
0.40372	-0.81812
0.73524	0.86539
0.68424	1.63062
0.32721	-0.05289
0.14870	0.43176
0.12320	-0.66508
0.17421	0.71234
0.07220	0.78886
-0.02981	-0.05289
0.07220	-0.33348
0.25071	-0.15492
-0.10631	0.55929
-0.36133	0.73785
-0.48884	-0.18043
0.30171	0.02363
0.53123	-0.56305
0.73524	0.02363
0.63323	-0.07840
0.53123	1.70714
0.17421	-0.43551
0.27621	-0.51203
1.09226	-0.69059
-0.28482	-0.61406
-1.17738	1.80917
-1.53441	-1.40480
-1.02437	0.35523
0.60773	0.20219
1.52579	1.65613
0.96476	1.17148
0.81175	0.99292
0.81175	0.25320
0.70974	-0.18043
0.60773	-0.05289
-0.48884	-0.28246
-0.71835	-0.07840
0.53123	0.07465
0.53123	-0.07840
-0.48884	0.02363
-1.15188	-0.76711
-1.40690	-0.61406
-0.38683	0.07465
0.50573	0.43176
1.14327	0.43176
1.14327	0.43176
0.45472	0.83988
0.12320	0.20219
1.14327	0.25320
0.65874	1.52859
-0.28482	0.96742
-0.69285	-1.48133
-0.33583	-2.34859
-0.64185	-2.11902
0.27621	0.99292
0.93925	1.91120
0.60773	2.21730
-0.08081	1.14597
0.22521	1.68163
0.63323	-0.28246
0.22521	-0.58856
0.53123	-0.79262
-0.10631	-1.25176
-0.74385	-0.61406
-0.13181	1.09496
-0.05531	0.20219
0.07220	-0.66508
0.07220	-0.71609
0.07220	-0.30797
0.73524	1.68163
0.76074	1.32453
0.65874	0.50828
0.99026	-0.10391
-0.28482	-0.00188
-0.87136	0.53379
-0.84586	0.10015
-0.28482	-0.48652
0.55673	-2.17003
-0.13181	-0.38449
0.12320	0.78886
0.02119	0.76336
1.06676	0.99292
0.32721	1.19699
0.70974	0.78886
1.19427	-0.33348
-0.38683	-1.09871
-0.41233	-0.58856
-0.79486	0.78886
-0.05531	0.32972
0.96476	0.45726
0.42922	0.53379
-0.08081	0.45726
-0.02981	1.06945
0.04670	-0.71609
-0.02981	-1.35379
-0.23382	-1.88945
-0.94787	0.96742
0.42922	1.70714
0.53123	1.75816
0.73524	0.68683
0.45472	-0.10391
-0.02981	-0.84363
0.58223	-2.01699
0.35272	-0.15492
0.12320	0.25320
0.19971	1.01843
-0.10631	2.03874
-0.53984	0.40625
-0.10631	0.81437
-0.00431	-2.50164
0.19971	0.22769
0.17421	0.32972
0.45472	-0.05289
0.14870	-0.18043
-0.08081	1.24800
0.65874	-0.02739
0.07220	1.24800
1.04126	-1.32828
-2.19745	0.22769
-1.35589	-0.41000
0.60773	0.20219
1.06676	0.48277
2.08683	0.86539
1.52579	0.63582
0.65874	0.48277
-0.28482	-0.15492
0.19971	0.04914
0.22521	-0.38449
-0.48884	-0.15492
-0.59084	0.02363
-0.05531	0.17668
-0.79486	0.17668
0.19971	0.04914
-0.08081	0.58480
-0.59084	0.15117
0.53123	0.22769
0.96476	0.99292
0.32721	-1.12422
0.32721	-0.79262
0.12320	-0.84363
0.60773	0.48277
0.65874	3.03355
0.60773	0.83988
-0.02981	-1.32828
-1.02437	-1.04770
-0.56534	0.25320
0.02119	0.78886
0.45472	0.04914
0.25071	0.43176
0.55673	0.83988
0.81175	-0.05289
0.02119	0.86539
-0.76936	2.42136
0.09770	-1.99148
0.86275	-2.88425
-0.18282	-1.76191
-0.71835	0.94191
-0.74385	1.73265
0.63323	1.45206
1.14327	1.35003
0.30171	0.45726
1.34728	0.48277
-0.41233	0.02363
0.40372	-0.07840
0.17421	-0.61406
-1.10088	-0.35899
0.17421	-0.18043
0.19971	0.12566
0.09770	0.25320
0.27621	-0.15492
-0.18282	-0.00188
-0.13181	0.48277
0.58223	0.15117
-0.25932	-0.18043
-0.41233	-0.10391
0.91375	0.96742
0.83725	1.42656
0.27621	1.27351
0.48022	-0.99668
0.37822	-1.12422
-0.33583	0.04914
-0.79486	0.91640
-0.51434	-0.28246
0.09770	0.15117
0.53123	0.96742
0.32721	-0.05289
0.35272	0.48277
0.04670	-0.02739
0.17421	0.58480
0.53123	0.50828
0.58223	-0.61406
0.09770	-0.38449
-0.89686	-0.38449
-0.97337	-0.23145
0.30171	-0.76711
1.04126	0.89089
0.83725	2.37034
0.58223	-0.56305
-0.18282	-1.17523
0.02119	-2.19554
-0.69285	1.45206
-0.82036	1.42656
0.32721	1.86019
0.12320	0.25320
0.50573	-0.05289
1.85731	-0.25695
1.27078	-0.15492
0.60773	0.22769
-0.13181	0.10015
0.09770	-0.18043
0.14870	0.76336
-0.31033	-0.23145
-0.79486	-0.43551
-0.99887	-0.71609
0.19971	0.96742
-0.59084	0.50828
-0.38683	0.30422
0.22521	-0.58856
0.88825	1.06945
0.40372	0.73785
0.50573	0.53379
1.88281	-0.12942
0.14870	-0.69059
-0.46334	-0.79262
0.19971	-0.05289
-0.20832	0.04914
-0.23382	1.32453
0.12320	0.20219
-0.02981	0.17668
0.04670	0.12566
0.09770	0.17668
-0.31033	-1.27726
0.50573	-0.41000
0.12320	0.12566
0.86275	0.76336
0.40372	1.01843
-0.89686	-0.56305
-0.69285	0.66132
0.40372	1.45206
0.63323	0.55929
0.68424	0.73785
0.12320	-0.53754
0.14870	0.99292
0.02119	-2.62918
0.22521	-1.53234
0.17421	-1.53234
0.17421	0.94191
0.37822	1.37554
0.99026	1.42656
1.47479	0.96742
-0.99887	0.66132
-3.06450	0.30422
-0.76936	-0.05289
-1.94243	-0.07840
1.04126	0.20219
1.83181	0.15117
1.83181	-0.30797
1.72980	-0.56305
0.02119	-0.46102
-0.46334	0.25320
0.35272	0.50828
0.07220	0.68683
-0.00431	0.25320
0.14870	0.71234
0.19971	0.20219
0.30171	0.58480
0.27621	0.66132
-0.18282	0.15117
-0.38683	-2.27207
-0.00431	-0.89465
-0.31033	-0.02739
-0.25932	1.57960
-0.08081	1.14597
0.30171	0.61031
0.19971	-1.07320
0.35272	0.43176
0.53123	0.25320
0.40372	1.40105
1.11776	-0.28246
0.73524	0.83988
-1.15188	-1.37929
-0.74385	-0.56305
0.96476	1.04394
-0.74385	0.91640
0.04670	-0.18043
0.53123	-0.53754
0.86275	0.40625
1.34728	0.15117
0.37822	-0.58856
-1.25389	-0.61406
0.07220	0.76336
-0.48884	0.55929
0.68424	0.55929
0.22521	0.55929
-0.31033	0.55929
0.27621	-0.71609
0.55673	-1.43031
0.55673	-0.35899
-0.99887	0.76336
-1.76392	0.40625
0.63323	1.22250
0.78624	0.55929
0.78624	-0.41000
0.70974	0.17668
0.81175	0.15117
-0.00431	0.27871
-0.23382	0.22769
-0.31033	0.22769
0.37822	-0.38449
0.04670	-0.46102
-0.23382	0.22769
0.02119	0.55929
0.25071	0.35523
0.32721	0.10015
0.37822	1.01843
-0.08081	-0.15492
-0.02981	0.22769
0.22521	-2.19554
0.02119	-1.04770
0.35272	0.38074
0.70974	-0.05289
0.30171	2.39585
0.99026	0.07465
-1.58541	0.89089
-0.87136	0.12566
-0.69285	1.22250
-0.13181	0.53379
0.93925	1.57960
1.16877	-1.02219
1.32178	-0.46102
1.47479	-1.68539
1.01576	-1.20074
-0.46334	-0.89465
0.83725	-0.05289
-1.02437	1.27351
-0.51434	1.14597
-1.84042	1.17148
-0.15732	0.81437
0.96476	0.66132
0.40372	-0.51203
0.22521	-0.07840
0.93925	0.15117
0.50573	0.35523
-0.43783	0.07465
-0.13181	-0.15492
0.17421	-0.07840
0.14870	0.12566
0.02119	0.32972
0.45472	0.15117
0.19971	-0.18043
0.02119	0.22769
-0.43783	-1.45582
-0.64185	-1.50683
0.25071	0.76336
0.63323	0.78886
0.70974	1.55410
1.04126	1.50308
0.53123	1.55410
-0.82036	-0.53754
-1.17738	0.17668
-0.74385	0.63582
0.12320	-0.15492
1.09226	-1.68539
2.06133	-0.20594
0.93925	-0.00188
-1.53441	-0.05289
-0.51434	0.38074
0.12320	-0.07840
1.21977	-0.15492
1.67880	0.27871
0.53123	1.40105
-1.43240	1.52859
-2.29945	-0.61406
-0.31033	-1.43031
0.93925	-1.60887
0.76074	0.61031
0.19971	1.24800
1.11776	0.78886
1.09226	0.50828
0.04670	0.25320
-0.18282	-0.05289
-0.87136	0.40625
-0.00431	0.30422
0.30171	0.48277
-0.36133	-0.38449
-0.69285	-0.86914
0.58223	-0.81812
0.12320	-0.15492
0.17421	0.68683
0.93925	1.17148
0.76074	-0.33348
0.58223	0.07465
0.25071	0.63582
-0.08081	0.76336
0.09770	-0.18043
0.30171	0.32972
-0.18282	0.66132
-0.71835	-0.25695
-0.13181	-0.92016
0.37822	-0.23145
0.60773	-0.92016
-0.20832	0.81437
0.37822	0.40625
-0.10631	1.60511
0.04670	0.81437
-0.05531	0.25320
0.99026	0.55929
-0.00431	-1.07320
-0.82036	-0.84363
0.88825	-0.69059
0.32721	1.09496
0.81175	-0.02739
0.19971	0.35523
-0.31033	0.30422
0.22521	-0.05289
0.73524	0.04914
0.17421	0.43176
0.55673	0.02363
0.32721	0.58480
-0.71835	-0.15492
-1.58541	0.15117
0.12320	-0.33348
0.91375	0.20219
1.14327	0.96742
0.25071	0.43176
-0.10631	0.45726
0.42922	-0.10391
-1.33039	-0.46102
-0.43783	0.63582
0.42922	-1.35379
0.81175	-0.53754
0.63323	0.27871
0.40372	0.53379
0.17421	0.89089
-0.28482	0.73785
0.55673	0.99292
0.83725	0.32972
0.22521	0.91640
-0.92237	-1.07320
-0.84586	-0.99668
0.45472	-0.05289
0.76074	0.10015
0.50573	0.27871
0.70974	0.91640
0.27621	0.96742
0.09770	-0.02739
-0.00431	-0.66508
-0.20832	-0.20594
0.12320	-0.30797
0.42922	0.50828
0.63323	-1.53234
-1.02437	1.01843
-1.10088	1.01843
0.27621	0.32972
1.16877	0.58480
1.11776	-0.00188
-0.33583	0.04914
-0.48884	-0.10391
0.09770	-0.02739
0.88825	0.38074
0.83725	-0.02739
-0.10631	0.86539
-0.02981	-0.41000
0.45472	-0.92016
0.35272	-0.81812
0.04670	0.07465
-0.38683	0.66132
-0.94787	0.58480
0.19971	1.22250
-0.05531	-0.30797
0.32721	0.12566
0.22521	-0.35899
0.53123	1.12046
0.30171	0.35523
0.35272	-0.97117
0.70974	-0.12942
-0.64185	0.10015
0.04670	0.45726
-0.25932	-0.56305
0.48022	1.01843
0.37822	1.14597
0.37822	0.38074
0.25071	0.71234
-0.00431	1.73265
0.40372	-1.37929
-0.10631	-0.99668
-0.97337	-2.42511
0.83725	-0.76711
1.14327	1.09496
0.55673	1.06945
-1.15188	0.63582
-0.94787	1.22250
0.58223	0.32972
1.55129	-0.12942
0.53123	-0.15492
-0.10631	-0.35899
1.27078	0.27871
0.42922	0.40625
-0.59084	0.55929
-0.38683	0.12566
-0.74385	0.38074
0.02119	0.55929
-0.38683	-0.79262
-0.20832	-1.12422
0.32721	-0.25695
1.16877	0.66132
0.81175	1.12046
0.07220	0.32972
-0.18282	0.66132
0.42922	0.35523
0.25071	-0.12942
0.12320	1.45206
-0.08081	-1.76191
-0.20832	0.96742
-0.66735	-1.96597
-0.33583	0.99292
0.73524	1.04394
0.60773	1.14597
0.73524	0.17668
0.86275	0.30422
0.73524	-0.35899
0.14870	-1.30277
-0.36133	-1.22625
-0.48884	-0.33348
-0.64185	-0.97117
-0.18282	1.91120
0.35272	2.16628
0.68424	0.81437
0.78624	0.27871
0.60773	0.81437
0.25071	0.40625
-0.79486	-0.33348
-0.46334	0.30422
0.14870	-0.86914
-0.02981	0.15117
0.68424	-0.33348
0.48022	-0.79262
0.32721	-0.23145
0.07220	0.07465
0.19971	0.86539
-0.38683	0.22769
1.50029	0.50828
0.19971	0.81437
-0.31033	0.99292
0.25071	-0.66508
0.35272	-1.37929
-0.02981	-1.32828
-0.38683	1.50308
-0.05531	1.60511
-0.28482	0.35523
-0.02981	0.12566
0.22521	0.45726
0.27621	0.76336
0.22521	-0.69059
0.37822	-0.12942
0.76074	-0.10391
0.37822	-0.18043
-0.08081	1.63062
-0.69285	-0.10391
-0.08081	-0.71609
0.70974	-0.97117
-0.13181	-0.71609
0.55673	1.01843
0.12320	1.52859
-0.13181	0.78886
1.01576	0.30422
0.02119	0.58480
-0.56534	-1.27726
0.53123	0.15117
0.63323	-1.30277
0.32721	-0.12942
0.37822	0.86539
0.27621	1.22250
-0.64185	1.35003
-0.18282	1.42656
-0.64185	-1.27726
0.02119	-0.79262
0.25071	-1.60887
-0.23382	1.06945
0.50573	0.83988
1.67880	0.45726
0.55673	0.38074
-0.41233	-0.05289
-0.69285	-0.10391
0.35272	0.20219
-0.61635	0.22769
-0.66735	-0.30797
0.14870	-0.20594
0.78624	0.30422
0.86275	0.07465
0.70974	0.25320
0.53123	1.01843
0.19971	0.73785
0.02119	0.53379
0.19971	-1.55785
-0.05531	-0.99668
-0.08081	0.20219
-0.02981	1.55410
-0.10631	-0.15492
-0.53984	0.35523
-0.33583	-0.05289
-0.13181	1.40105
-0.51434	0.43176
0.93925	-0.81812
0.91375	0.43176
-0.20832	-0.56305
0.88825	0.07465
1.55129	0.96742
0.55673	0.66132
-0.36133	-1.99148
-0.51434	-1.14973
-0.20832	-0.56305
0.42922	1.40105
-0.53984	1.52859
-0.10631	1.06945
0.22521	0.55929
1.04126	0.07465
0.25071	0.04914
-1.33039	-0.05289
-0.02981	-0.00188
0.50573	-0.05289
1.11776	1.93671
0.53123	-2.62918
-0.31033	-1.55785
0.45472	-1.50683
-0.33583	1.37554
-0.08081	1.63062
-0.08081	1.55410
0.07220	0.30422
0.50573	1.47757
0.25071	-0.25695
-0.25932	-0.35899
0.30171	-1.20074
0.68424	0.25320
-0.28482	0.50828
0.25071	0.10015
0.17421	0.81437
0.50573	0.12566
0.65874	-0.46102
0.07220	0.20219
-0.69285	0.89089
-0.20832	0.32972
0.30171	-0.35899
-0.05531	-0.18043
0.50573	-0.30797
0.14870	0.50828
-0.02981	0.25320
0.25071	0.07465
0.68424	0.12566
-0.31033	0.25320
-0.00431	0.38074
0.55673	0.10015
-0.05531	0.68683
1.24527	-0.07840
0.37822	-0.23145
-0.74385	0.53379
0.53123	0.22769
0.37822	0.43176
0.14870	0.10015
-1.71292	-1.45582
-0.08081	-0.00188
-0.23382	0.48277
0.04670	-0.07840
0.42922	-0.18043
0.83725	-0.25695
0.86275	0.43176
0.58223	2.14077
-0.10631	-0.15492
-0.51434	0.22769
0.53123	-0.00188
0.65874	0.35523
-0.13181	0.22769
-0.08081	0.12566
0.14870	0.38074
-0.10631	0.38074
-0.20832	-0.81812
0.22521	-0.86914
0.32721	-0.51203
0.17421	-0.25695
0.81175	0.63582
0.17421	1.19699
-0.89686	0.07465
-0.69285	-0.28246
-0.38683	0.30422
0.91375	0.30422
0.88825	2.14077
0.25071	-0.53754
0.50573	0.91640
0.12320	-0.76711
0.32721	-0.15492
0.14870	-0.69059
-1.20288	-0.46102
-0.18282	0.55929
0.99026	1.40105
0.58223	0.12566
0.68424	0.86539
0.70974	-1.22625
-0.13181	0.73785
-0.08081	0.04914
-0.74385	0.15117
-0.71835	0.04914
-0.23382	0.25320
0.19971	0.04914
-0.41233	0.15117
0.04670	-0.10391
1.70430	-0.00188
0.91375	-0.07840
0.96476	0.04914
-0.38683	1.24800
-1.17738	0.02363
0.09770	0.30422
0.40372	0.04914
0.30171	0.61031
0.35272	-0.38449
0.22521	-0.25695
0.09770	0.04914
0.19971	1.17148
-0.02981	1.06945
0.37822	1.57960
-0.10631	-0.97117
-0.66735	-1.68539
-0.31033	-2.01699
0.35272	1.29902
0.96476	-0.02739
0.83725	1.32453
-0.18282	1.83468
-0.28482	-0.25695
-1.12638	-0.00188
0.32721	-0.18043
0.78624	0.30422
0.53123	0.76336
0.65874	0.15117
-0.41233	-0.35899
0.81175	-0.18043
0.55673	-0.66508
-0.00431	-0.76711
0.60773	0.07465
0.45472	0.50828
-0.08081	1.17148
-0.08081	0.58480
-0.99887	0.91640
-0.33583	-0.35899
-0.94787	-0.89465
0.60773	-0.30797
1.11776	0.48277
0.35272	1.29902
-0.33583	-0.28246
-0.38683	0.32972
0.88825	-0.84363
0.60773	-0.05289
0.32721	1.06945
0.22521	-0.38449
0.25071	0.04914
0.30171	-0.35899
-0.05531	0.53379
-0.08081	0.58480
0.19971	1.42656
-0.05531	-0.15492
-0.53984	-1.53234
-0.64185	-0.25695
0.07220	0.94191
0.35272	0.22769
0.60773	-0.05289
0.42922	-0.30797
0.50573	1.22250
0.35272	1.60511
0.63323	-0.23145
0.78624	-1.50683
-0.74385	-2.32308
-0.69285	0.58480
-0.00431	0.66132
0.27621	0.53379
0.14870	0.78886
-0.61635	1.68163
-0.59084	-0.25695
-0.43783	0.30422
1.80631	-0.33348
1.47479	0.94191
1.39828	-0.43551
1.16877	-0.48652
-1.10088	0.25320
-1.17738	0.10015
0.78624	-0.07840
0.42922	0.55929
-0.38683	0.35523
-0.51434	-0.07840
-0.71835	0.71234
0.02119	-0.07840
0.19971	0.22769
0.19971	-1.86394
0.63323	-1.94047
0.17421	0.61031
0.63323	1.27351
0.22521	1.52859
0.58223	0.86539
-0.08081	0.96742
-0.84586	0.27871
0.32721	0.02363
0.25071	-0.15492
0.32721	-0.02739
0.19971	-0.23145
0.12320	0.17668
0.45472	0.25320
-0.00431	0.30422
0.04670	0.12566
0.30171	-1.32828
0.07220	-1.91496
0.45472	-0.71609
1.06676	1.27351
-0.10631	1.60511
-0.31033	1.68163
-1.15188	0.76336
-1.78942	0.35523
0.30171	0.20219
1.55129	0.89089
0.65874	-0.33348
-0.71835	-0.66508
0.96476	-0.71609
1.39828	0.43176
0.60773	0.15117
0.58223	-0.18043
0.68424	-1.07320
-0.02981	0.02363
-0.59084	0.68683
-0.36133	0.68683
-0.97337	1.01843
-0.56534	0.17668
-0.02981	-0.02739
-0.10631	-0.81812
1.11776	0.71234
0.93925	-0.00188
-0.08081	0.02363
-0.61635	0.40625
-0.18282	0.58480
0.12320	0.48277
0.93925	0.40625
1.29628	-0.41000
0.40372	1.65613
-0.13181	-1.14973
-0.02981	-0.46102
-0.43783	-2.80773
-0.08081	0.04914
0.48022	0.45726
-0.31033	1.60511
-0.08081	1.09496
0.12320	0.68683
0.42922	0.91640
0.19971	0.89089
0.50573	-0.28246
0.30171	-0.20594
-0.25932	-0.71609
-0.69285	0.15117
-1.33039	-0.18043
-0.02981	0.76336
1.62780	-0.69059
1.21977	-0.46102
0.27621	-1.04770
0.04670	0.66132
-0.23382	1.24800
1.09226	0.12566
0.63323	0.38074
-0.18282	0.40625
-0.36133	0.48277
0.22521	0.66132
-0.02981	-0.23145
-0.38683	-0.12942
0.25071	0.22769
0.30171	0.15117
-0.89686	0.15117
-0.87136	0.22769
-0.05531	-0.41000
0.68424	0.40625
0.76074	-0.43551
0.76074	-0.18043
0.99026	0.55929
0.25071	0.40625
0.04670	-0.28246
-0.10631	1.14597
-0.08081	-0.81812
0.35272	0.20219
-0.02981	-0.00188
0.07220	0.86539
0.07220	0.50828
-0.13181	0.07465
-0.05531	0.32972
0.19971	0.83988
0.45472	0.04914
0.22521	-0.41000
-0.13181	0.04914
-0.23382	0.30422
0.50573	-0.43551
-0.20832	-0.84363
-0.08081	-0.38449
0.12320	0.71234
0.63323	1.37554
1.14327	0.43176
0.73524	0.15117
-0.33583	0.55929
-1.61091	0.25320
-0.64185	-0.46102
0.93925	-0.69059
1.50029	-0.23145
0.55673	-0.43551
0.32721	1.06945
0.70974	1.12046
-0.76936	0.22769
-0.00431	-0.61406
0.40372	-0.02739
-1.12638	0.25320
-0.79486	-0.30797
-0.05531	0.30422
0.12320	0.30422
0.99026	0.83988
1.09226	0.22769
0.50573	-0.10391
0.42922	0.50828
-0.02981	-0.05289
-0.10631	0.12566
0.35272	-0.35899
-0.46334	0.22769
-0.13181	-0.05289
-0.10631	-0.76711
0.19971	-0.94566
-0.13181	0.35523
-0.23382	1.55410
0.30171	2.62542
1.34728	-1.30277
0.70974	-0.00188
0.22521	-1.32828
-1.48340	1.01843
0.02119	0.71234
0.42922	0.94191
0.83725	0.68683
0.60773	-0.38449
0.27621	1.22250
0.63323	-0.58856
0.37822	-0.71609
-0.41233	-1.50683
-0.38683	0.50828
0.14870	1.68163
0.09770	-0.02739
-1.02437	-0.66508
-0.08081	-0.00188
0.50573	0.27871
0.12320	0.32972
0.96476	0.40625
0.83725	1.04394
0.07220	-0.28246
-0.69285	0.50828
0.04670	-0.02739
0.73524	-0.41000
0.35272	0.12566
0.25071	0.55929
0.91375	0.30422
0.30171	0.43176
-0.79486	0.32972
-0.56534	0.55929
0.07220	-1.20074
0.53123	0.10015
0.19971	0.20219
-0.18282	1.17148
0.30171	0.20219
0.22521	-0.79262
0.42922	-1.20074
0.63323	0.30422
0.27621	0.32972
0.12320	0.61031
-0.00431	1.09496
0.09770	0.27871
-0.28482	-0.00188
-0.08081	0.68683
0.14870	0.10015
-0.31033	0.50828
0.17421	0.35523
0.42922	-1.30277
0.68424	-1.58336
0.22521	0.55929
0.07220	0.86539
0.48022	0.96742
0.48022	1.80917
-0.59084	0.55929
-0.28482	-1.48133
0.58223	0.07465
0.99026	0.38074
-1.78942	0.20219
-0.97337	-0.25695
0.25071	-1.71090
1.47479	0.32972
1.88281	0.40625
0.58223	0.04914
0.45472	1.04394
-0.13181	0.96742
-0.43783	-0.18043
0.30171	0.07465
-0.71835	0.12566
1.16877	0.55929
0.45472	0.81437
-0.43783	0.35523
-1.07538	-0.81812
-1.33039	-0.10391
0.02119	-0.30797
0.70974	0.35523
0.96476	0.53379
1.27078	0.27871
0.68424	0.58480
0.40372	-0.48652
-0.02981	-0.10391
-0.15732	0.32972
-0.13181	0.55929
-0.18282	-0.43551
0.12320	0.86539
-0.10631	-0.43551
0.07220	-1.17523
0.42922	-0.15492
0.17421	1.17148
0.30171	1.01843
-0.05531	0.15117
0.35272	1.04394
0.30171	0.53379
0.35272	0.61031
0.27621	-1.09871
0.12320	-1.76191
0.09770	1.98773
-1.12638	0.32972
-0.66735	-0.66508
2.16333	-1.43031
0.53123	1.27351
-1.58541	0.83988
-1.04987	1.01843
0.70974	0.45726
1.78081	0.45726
0.73524	0.50828
1.50029	-0.33348
1.44929	-0.84363
-0.71835	-0.92016
-1.04987	0.15117
-1.63641	0.17668
0.32721	-0.02739
0.81175	-0.43551
-0.08081	0.53379
0.40372	0.61031
-0.08081	1.06945
-0.25932	0.40625
0.14870	0.12566
-0.48884	0.12566
-0.00431	0.48277
0.32721	0.02363
0.22521	-0.61406
0.68424	0.15117
0.60773	0.66132
0.37822	0.63582
0.27621	0.10015
-0.08081	-0.46102
0.07220	-0.76711
0.17421	0.12566
0.02119	1.47757
-0.18282	0.40625
0.65874	-0.41000
0.37822	-0.05289
-0.56534	-0.35899
-0.31033	1.42656
-0.56534	-1.32828
-0.76936	-1.04770
0.76074	-1.65988
1.24527	1.35003
1.01576	2.19179
0.45472	1.63062
-0.02981	0.83988
-1.45790	0.30422
0.02119	0.27871
0.48022	-0.38449
0.86275	0.53379
1.09226	-1.17523
0.91375	-1.22625
0.04670	-0.63957
-0.69285	-0.41000
-0.51434	0.58480
-0.79486	0.71234
-0.36133	0.32972
1.32178	0.12566
0.60773	-0.02739
0.22521	0.86539
-0.20832	0.12566
0.25071	-0.23145
-0.10631	-0.51203
-0.31033	0.71234
0.22521	0.43176
0.68424	-0.30797
0.58223	0.45726
0.17421	0.83988
0.32721	0.48277
0.37822	-0.20594
0.09770	-0.56305
-0.28482	0.32972
0.02119	1.40105
-0.08081	-0.53754
0.27621	-0.99668
0.40372	-0.46102
-0.05531	1.04394
-0.33583	0.12566
-0.82036	0.20219
0.32721	0.35523
-0.05531	-0.20594
-0.10631	0.25320
0.93925	0.12566
1.37278	0.68683
0.60773	0.30422
-0.00431	-0.07840
-0.08081	0.02363
0.02119	-0.94566
0.58223	0.89089
-0.92237	-0.20594
0.12320	0.86539
-0.02981	0.66132
0.50573	-0.02739
1.60230	-0.41000
-0.08081	-0.53754
-1.50890	0.04914
-1.50890	0.91640
0.60773	0.78886
1.04126	0.81437
0.40372	-0.35899
-0.82036	-0.74160
0.70974	-1.22625
0.37822	0.20219
0.60773	1.09496
0.25071	0.58480
0.78624	0.27871
0.25071	0.32972
-0.13181	0.22769
-0.23382	0.38074
-0.23382	-0.10391
-0.64185	-0.15492
-0.15732	-1.07320
0.42922	-0.46102
0.37822	0.61031
0.42922	1.14597
0.14870	0.25320
0.22521	0.48277
0.19971	0.50828
0.14870	-0.25695
0.19971	0.63582
-0.00431	0.15117
0.22521	0.48277
0.37822	-1.43031
0.48022	-0.51203
-1.15188	0.10015
-0.38683	0.17668
1.14327	0.91640
0.78624	-0.46102
-0.61635	0.53379
-0.20832	0.07465
-0.94787	-0.07840
0.17421	0.43176
1.06676	-0.07840
1.24527	0.55929
1.57679	-0.61406
0.68424	0.61031
-0.76936	0.76336
-0.59084	0.71234
0.48022	-0.05289
0.48022	0.66132
-1.02437	-0.84363
-0.05531	-1.02219
-0.10631	0.22769
-0.51434	0.58480
-0.48884	0.22769
0.14870	-0.46102
1.19427	0.22769
0.70974	0.50828
0.42922	0.58480
0.53123	0.53379
0.07220	0.66132
-0.00431	0.04914
0.12320	-0.00188
-0.23382	-0.46102
0.17421	-0.43551
-0.28482	0.78886
0.07220	-0.38449
0.32721	-0.15492
0.32721	-0.56305
0.04670	0.63582
-0.02981	1.42656
0.27621	1.12046
0.12320	0.63582
0.42922	0.27871
0.07220	0.17668
-0.36133	-0.05289
0.04670	-1.17523
0.58223	-0.15492
1.37278	-0.56305
0.22521	0.17668
-0.38683	-0.00188
-0.43783	-0.07840
0.22521	1.32453
0.88825	0.10015
0.76074	-0.33348
0.60773	-0.56305
0.50573	0.43176
-1.71292	-0.53754
-2.19745	0.61031
-0.08081	1.29902
1.16877	0.78886
0.73524	1.09496
0.70974	0.12566
0.30171	-0.41000
0.73524	-0.89465
0.65874	0.04914
-0.41233	0.32972
0.22521	0.83988
-0.66735	0.32972
-0.23382	-0.61406
0.60773	-0.43551
-0.02981	-1.58336
0.14870	0.86539
-0.48884	1.06945
0.07220	0.32972
0.22521	0.30422
0.45472	0.22769
0.86275	0.22769
1.14327	0.35523
0.22521	0.32972
-0.43783	0.15117
-0.53984	-0.15492
0.17421	-0.35899
-0.23382	1.14597
0.19971	0.17668
0.12320	-0.66508
0.65874	-0.53754
0.32721	-0.76711
0.17421	0.45726
-0.28482	0.15117
0.50573	0.94191
0.58223	-0.43551
-0.48884	0.58480
0.04670	0.86539
0.40372	1.55410
0.55673	-0.79262
-0.59084	-0.33348
-0.23382	0.10015
0.12320	0.38074
0.93925	0.66132
0.73524	0.35523
-1.96793	0.22769
0.65874	-0.20594
0.70974	-0.74160
0.27621	-0.92016
0.93925	0.25320
0.17421	-0.23145
-0.20832	0.63582
-0.43783	0.10015
0.09770	0.43176
0.37822	1.06945
0.40372	0.27871
0.45472	-0.23145
-0.00431	-0.02739
-0.00431	0.22769
-0.10631	0.78886
-0.15732	1.32453
-0.10631	0.48277
0.19971	-1.43031
0.45472	-1.17523
0.07220	-1.37929
-0.79486	0.35523
0.02119	0.55929
1.32178	1.50308
0.04670	0.91640
0.22521	1.42656
0.45472	-0.05289
0.02119	1.17148
-0.64185	-1.55785
-0.18282	-1.76191
0.30171	-0.61406
0.60773	-0.33348
0.63323	1.09496
1.32178	0.78886
0.07220	0.63582
0.55673	0.53379
0.07220	0.55929
0.22521	-0.02739
-0.00431	-0.02739
-1.48340	0.15117
-1.15188	0.02363
0.45472	-0.05289
0.53123	-0.38449
-0.18282	-0.10391
-0.00431	0.04914
0.81175	0.76336
0.40372	0.32972
0.45472	-0.23145
-0.36133	-0.53754
0.19971	-0.07840
0.50573	0.55929
0.42922	0.48277
0.65874	0.15117
0.76074	1.19699
0.09770	0.86539
-0.28482	0.53379
-0.20832	-0.92016
-0.48884	0.15117
-0.00431	-0.35899
-0.08081	-0.46102
0.30171	-1.40480
0.63323	0.83988
0.22521	1.98773
0.42922	0.58480
0.27621	0.32972
0.42922	-0.12942
-0.87136	0.83988
-0.56534	-0.00188
0.55673	-0.20594
0.48022	-1.37929
-0.71835	-0.63957
0.48022	0.76336
1.19427	0.50828
0.04670	0.35523
0.63323	0.40625
0.48022	0.30422
-0.71835	-0.15492
-0.10631	-0.18043
0.07220	-0.00188
1.44929	0.30422
1.27078	0.35523
-0.76936	1.27351
-1.12638	-0.15492
-0.76936	-0.07840
-0.79486	-1.07320
0.35272	0.38074
1.19427	0.58480
0.91375	0.22769
1.11776	0.86539
0.70974	0.17668
-0.51434	0.07465
-0.71835	-0.58856
-0.08081	-0.66508
-0.25932	0.40625
-0.18282	0.55929
0.45472	0.17668
0.19971	0.27871
0.53123	0.40625
0.48022	0.10015
0.32721	0.66132
0.02119	0.12566
-0.10631	0.10015
-0.66735	0.50828
0.37822	-0.10391
0.76074	-0.63957
0.27621	-0.97117
-0.00431	-0.66508
-0.28482	0.17668
0.07220	0.58480
0.27621	1.68163
0.70974	0.83988
-0.02981	0.63582
-0.15732	-0.58856
-0.05531	0.55929
-0.59084	0.45726
0.91375	-1.02219
0.91375	-0.53754
1.09226	0.04914
-0.43783	0.25320
-1.33039	-0.79262
0.42922	0.53379
0.40372	0.63582
0.04670	0.45726
-0.41233	0.78886
-0.00431	-0.84363
0.48022	-0.20594
1.24527	0.15117
0.81175	0.22769
0.53123	0.76336
-0.61635	0.48277
-1.50890	0.27871
-0.08081	0.12566
-0.08081	-1.27726
0.45472	0.04914
-0.48884	0.58480
0.91375	1.09496
1.16877	0.50828
0.30171	0.76336
-0.23382	-0.58856
-0.02981	-0.05289
0.04670	-0.05289
-0.23382	0.04914
0.19971	-0.97117
0.48022	-0.18043
0.22521	0.25320
-0.46334	0.86539
0.19971	0.83988
0.07220	0.27871
0.25071	-0.05289
0.30171	0.27871
0.25071	-0.25695
0.02119	0.55929
0.42922	0.30422
0.22521	0.15117
0.07220	-0.05289
0.19971	-0.74160
-1.20288	0.20219
0.04670	0.55929
0.70974	0.53379
0.68424	-0.18043
-0.36133	0.22769
-0.10631	0.32972
0.04670	0.35523
1.04126	0.04914
0.73524	-0.76711
0.22521	0.38074
-0.18282	0.35523
0.81175	0.20219
-0.08081	-0.05289
-0.43783	-0.15492
0.02119	0.17668
0.37822	0.32972
0.60773	0.55929
-0.99887	0.25320
-0.84586	-0.00188
-0.02981	0.81437
0.22521	0.71234
-0.18282	-1.30277
0.78624	-0.92016
1.32178	0.55929
0.63323	0.76336
0.07220	-0.35899
0.22521	0.73785
-0.23382	0.48277
-0.02981	0.43176
-0.00431	-0.33348
0.22521	-0.10391
0.35272	-0.71609
-0.25932	0.32972
-0.28482	0.53379
0.73524	0.10015
-0.33583	0.76336
0.12320	0.10015
-0.05531	0.07465
0.30171	-0.05289
0.42922	0.15117
0.48022	0.71234
0.70974	0.04914
0.45472	0.04914
-0.61635	-0.28246
-1.22839	0.91640
-0.69285	-0.30797
-0.08081	-0.25695
1.27078	0.30422
1.72980	-0.23145
1.34728	0.10015
-1.10088	-0.46102
0.48022	0.58480
-0.31033	0.38074
-0.23382	0.45726
0.78624	0.35523
0.48022	0.25320
-0.79486	0.96742
0.45472	0.45726
1.11776	-0.35899
0.04670	-1.37929
-0.84586	0.17668
-1.40690	0.27871
-0.53984	0.43176
0.55673	1.17148
0.99026	-0.33348
1.19427	0.96742
0.17421	-0.86914
-0.28482	-0.15492
-0.69285	0.35523
0.83725	0.45726
0.22521	0.02363
0.07220	0.55929
0.40372	-0.00188
0.60773	-0.56305
0.22521	-0.43551
0.12320	-0.05289
0.58223	0.50828
0.12320	0.83988
-0.74385	0.35523
-0.25932	-0.33348
-1.02437	-0.15492
-0.02981	0.66132
0.70974	1.01843
0.73524	1.01843
0.83725	0.45726
-0.66735	-0.81812
-0.28482	-0.41000
0.50573	0.02363
0.81175	0.71234
0.40372	-0.10391
0.35272	-1.30277
0.65874	-0.89465
0.37822	0.40625
0.70974	0.86539
-0.41233	0.58480
-0.38683	-0.00188
-0.23382	0.20219
0.32721	0.50828
-0.48884	0.32972
0.14870	-0.05289
0.04670	0.30422
0.65874	0.35523
0.68424	0.35523
-0.56534	-0.05289
-1.02437	-0.43551
0.58223	-0.28246
1.16877	-0.35899
1.04126	-0.00188
0.58223	0.38074
-0.15732	0.66132
0.04670	0.38074
0.02119	-0.28246
0.02119	1.37554
0.17421	-0.74160
-0.02981	0.02363
-0.13181	0.25320
-0.00431	0.71234
-0.08081	1.19699
-0.18282	-0.07840
0.55673	-0.76711
0.55673	-0.25695
-0.28482	0.07465
0.04670	0.43176
0.53123	-0.02739
0.42922	0.35523
0.73524	-0.12942
-0.43783	-0.48652
-0.31033	0.45726
0.02119	0.53379
0.70974	0.25320
0.78624	1.01843
-1.38139	-0.92016
-0.84586	-0.46102
0.93925	-1.60887
1.50029	0.89089
-0.18282	0.99292
-0.48884	0.68683
-0.15732	0.55929
0.53123	0.53379
0.81175	1.14597
1.19427	-0.25695
0.48022	-0.05289
-0.61635	-0.94566
-1.17738	0.17668
-0.38683	0.55929
0.17421	-0.41000
0.60773	-0.15492
0.60773	0.04914
-0.46334	0.40625
0.48022	0.45726
0.63323	0.35523
0.30171	0.55929
-0.53984	0.43176
-0.23382	-0.00188
0.83725	0.07465
0.40372	-0.58856
-0.02981	0.25320
-0.05531	0.12566
0.12320	-0.63957
0.58223	-0.56305
0.22521	0.71234
-0.23382	0.78886
-0.23382	0.48277
0.02119	0.43176
0.25071	0.73785
-0.38683	-0.28246
0.93925	-0.69059
1.01576	0.45726
-0.31033	0.12566
0.14870	-0.61406
-0.23382	0.32972
-0.51434	-0.43551
-0.66735	0.73785
0.09770	0.71234
1.52579	-0.20594
0.70974	0.35523
0.86275	-0.07840
0.02119	-0.35899
-0.25932	0.22769
0.27621	0.38074
0.73524	0.40625
-0.10631	0.61031
-0.28482	0.22769
-0.13181	-0.20594
-0.69285	-0.76711
0.19971	0.12566
0.42922	0.38074
0.09770	0.48277
0.02119	-0.15492
-0.38683	0.45726
-0.05531	-0.28246
0.88825	-0.66508
0.40372	-0.05289
0.35272	0.76336
0.48022	0.76336
0.12320	-0.02739
0.32721	0.48277
0.37822	0.38074
-0.05531	0.04914
-0.18282	0.35523
0.25071	0.25320
-0.08081	-0.41000
0.09770	-0.43551
0.14870	0.50828
-0.18282	-0.12942
-0.18282	-0.00188
-0.76936	-0.23145
0.30171	0.53379
0.48022	0.30422
1.04126	-0.30797
0.99026	-0.66508
1.32178	0.71234
0.09770	1.19699
-0.71835	0.99292
-1.84042	0.20219
-0.61635	-0.23145
0.50573	0.61031
1.50029	1.17148
1.44929	-0.92016
0.81175	-1.27726
0.86275	-1.22625
-0.53984	0.73785
-1.17738	0.40625
-0.61635	0.17668
-0.13181	0.17668
0.42922	0.66132
0.45472	0.22769
0.22521	0.30422
0.12320	0.20219
0.12320	0.20219
-0.13181	0.30422
0.60773	-0.30797
0.42922	-0.18043
-1.12638	-1.09871
-1.73842	0.10015
1.29628	0.61031
1.21977	0.71234
0.91375	1.09496
0.81175	0.68683
1.04126	-0.46102
0.04670	-0.07840
-0.33583	0.63582
-0.94787	-0.51203
-0.92237	-0.20594
0.12320	-0.15492
0.30171	0.83988
0.58223	0.02363
0.53123	0.53379
0.12320	-0.20594
-0.41233	0.17668
1.11776	0.38074
-0.00431	0.58480
-0.71835	-0.35899
-0.28482	-0.56305
-0.76936	-0.20594
0.86275	-0.15492
1.16877	0.30422
-0.08081	0.76336
0.22521	1.19699
0.40372	0.32972
1.04126	0.32972
0.19971	-0.84363
-0.66735	-0.71609
-0.23382	-0.51203
0.12320	-0.18043
1.39828	1.04394
-0.15732	0.04914
-0.02981	0.66132
0.40372	0.27871
-0.56534	0.68683
-1.73842	0.40625
-1.35589	0.27871
1.62780	0.15117
1.70430	-0.23145
1.06676	-0.43551
0.50573	0.20219
0.70974	0.02363
1.01576	0.22769
-0.87136	-0.28246
-1.84042	0.48277
-0.43783	0.68683
0.68424	0.32972
0.93925	-0.81812
0.50573	-0.07840
0.32721	0.20219
-0.00431	0.38074
0.09770	-0.10391
0.02119	0.55929
0.04670	0.32972
0.37822	0.61031
-0.05531	0.66132
-0.23382	0.68683
0.14870	-0.84363
-0.43783	-0.63957
0.14870	-0.76711
0.70974	1.37554
1.04126	-0.10391
0.55673	-0.00188
-0.08081	-0.74160
-0.23382	1.24800
-0.33583	1.37554
0.30171	0.27871
0.19971	0.15117
0.76074	-0.35899
0.65874	-0.99668
-0.00431	-0.10391
0.19971	-0.02739
-0.87136	0.35523
-0.38683	0.22769
1.14327	0.58480
0.53123	-0.38449
-0.08081	0.55929
-0.74385	-0.20594
0.30171	0.55929
-0.76936	0.43176
0.32721	0.68683
1.14327	-0.63957
1.14327	-0.20594
-0.18282	0.07465
-0.08081	0.81437
0.17421	0.76336
0.32721	0.50828
0.81175	-0.46102
-1.55991	-0.48652
-0.28482	-0.02739
0.07220	0.10015
0.22521	0.63582
0.48022	0.40625
0.50573	0.32972
0.93925	0.27871
0.78624	-0.30797
0.25071	-0.38449
-0.28482	0.10015
-0.41233	0.25320
0.19971	-0.41000
-0.25932	0.53379
0.02119	0.04914
0.48022	0.07465
0.42922	1.19699
-0.64185	-0.53754
-0.20832	-0.35899
-0.87136	-0.35899
1.01576	1.37554
1.16877	1.14597
0.07220	0.30422
0.12320	-0.23145
-0.10631	0.48277
0.32721	-0.53754
0.42922	0.10015
0.58223	-0.76711
0.04670	0.38074
0.17421	-0.02739
-0.69285	-0.33348
0.32721	0.45726
0.30171	-0.25695
0.22521	0.78886
0.12320	0.43176
-0.02981	0.45726
-0.05531	0.22769
0.27621	0.38074
0.53123	-0.25695
-1.25389	-0.05289
0.25071	1.04394
0.76074	-0.81812
0.55673	-1.04770
-0.43783	-0.28246
0.42922	0.12566
0.27621	0.78886
-0.10631	0.61031
0.40372	0.73785
0.40372	0.86539
0.22521	0.15117
0.55673	0.35523
-0.69285	-0.71609
0.53123	-0.20594
0.40372	0.35523
0.48022	0.35523
0.30171	0.43176
-0.61635	-0.25695
-0.89686	-0.43551
0.02119	-0.33348
0.22521	0.27871
0.37822	0.66132
0.45472	0.81437
-0.00431	0.22769
0.17421	-0.07840
0.50573	0.25320
0.32721	-0.41000
0.02119	0.25320
0.02119	-1.45582
0.25071	1.01843
-0.05531	1.17148
0.07220	0.55929
0.22521	1.12046
0.53123	-0.92016
0.32721	0.20219
0.35272	0.17668
0.22521	-0.61406
0.60773	0.17668
-0.76936	-0.05289
-0.36133	0.78886
-0.13181	0.53379
-0.51434	0.78886
-0.38683	0.55929
0.63323	0.43176
1.75531	-0.18043
1.52579	-0.63957
-0.08081	-0.86914
-0.33583	-0.10391
-0.08081	-0.12942
-0.10631	0.22769
-0.08081	1.22250
0.09770	0.04914
0.32721	-0.46102
0.81175	-0.48652
0.70974	0.45726
-0.31033	1.42656
-0.89686	0.78886
-0.94787	0.30422
-0.69285	-0.28246
0.25071	-0.12942
1.60230	0.22769
1.70430	0.35523
0.22521	0.30422
0.02119	0.45726
-0.31033	-0.56305
-0.36133	-0.66508
0.12320	-0.74160
-0.64185	0.53379
0.32721	0.30422
-0.51434	0.58480
0.88825	-0.20594
0.99026	-0.86914
0.81175	0.15117
0.50573	0.25320
0.37822	0.63582
-0.08081	1.24800
-0.38683	1.06945
-0.13181	1.14597
0.30171	0.48277
-0.08081	-0.97117
-0.18282	-1.58336
-0.59084	-0.53754
-0.10631	0.17668
0.32721	0.43176
1.24527	0.40625
0.78624	0.66132
-0.53984	-0.35899
0.14870	-0.30797
0.02119	0.35523
-0.97337	0.25320
0.12320	-0.02739
1.29628	0.66132
0.60773	-0.10391
1.06676	-0.05289
0.76074	0.43176
-0.61635	0.45726
-0.18282	0.43176
-0.38683	0.12566
-0.36133	0.17668
-0.38683	0.15117
-0.00431	0.02363
0.83725	-0.30797
-0.10631	-0.02739
0.32721	0.25320
1.70430	0.66132
0.25071	0.20219
-0.64185	-0.33348
-0.36133	0.50828
-0.08081	0.02363
0.12320	-0.20594
0.42922	0.48277
0.32721	0.35523
0.02119	1.14597
0.22521	-0.69059
0.35272	-1.55785
0.09770	-1.60887
0.14870	1.01843
0.04670	2.03874
-0.25932	0.22769
-0.31033	0.53379
0.35272	0.61031
0.19971	0.20219
-0.31033	0.02363
-0.61635	0.22769
0.88825	0.89089
0.81175	0.35523
0.70974	-1.09871
0.42922	-1.04770
0.30171	-0.33348
0.12320	0.27871
0.07220	0.35523
-1.20288	0.25320
-0.46334	0.32972
0.73524	1.14597
0.96476	-0.25695
0.25071	-0.07840
0.63323	0.15117
0.07220	-0.00188
-0.46334	-0.48652
0.14870	0.27871
0.09770	0.20219
0.70974	0.66132
0.70974	0.78886
-0.89686	0.40625
0.09770	0.27871
0.19971	0.35523
-0.64185	0.22769
-0.28482	-0.69059
0.65874	0.04914
1.06676	-1.17523
0.53123	0.78886
-0.64185	0.61031
0.17421	-0.10391
0.58223	0.32972
-0.18282	0.61031
0.19971	0.04914
0.50573	-0.46102
0.32721	-0.56305
0.12320	0.83988
0.27621	0.96742
-0.13181	-0.41000
0.17421	0.15117
0.07220	-0.35899
0.09770	0.15117
-0.46334	0.83988
-0.92237	0.48277
0.53123	0.02363
1.19427	0.40625
0.70974	-0.66508
1.06676	0.10015
-0.18282	0.12566
-1.43240	0.78886
-2.27395	0.43176
-0.38683	-0.38449
1.62780	0.04914
1.39828	0.15117
1.39828	0.25320
1.42379	0.45726
-0.08081	-0.25695
-0.33583	0.02363
-0.61635	-0.02739
-0.59084	0.40625
0.53123	0.35523
-0.23382	-0.28246
-0.33583	-1.22625
0.96476	0.35523
0.22521	0.89089
-0.08081	0.53379
-0.51434	0.07465
-0.46334	0.55929
0.32721	0.61031
0.78624	0.25320
0.60773	0.07465
0.27621	0.02363
0.09770	-0.02739
-0.46334	0.55929
0.19971	0.20219
-0.00431	-0.97117
-0.99887	-0.41000
1.44929	0.20219
0.63323	-0.12942
0.53123	0.32972
0.14870	0.25320
0.32721	0.25320
0.37822	0.63582
-0.99887	0.30422
-0.31033	0.61031
0.40372	0.55929
0.12320	0.15117
-0.08081	-0.00188
0.68424	0.66132
0.27621	-0.33348
-0.05531	-0.20594
0.37822	-0.81812
0.07220	0.15117
-0.18282	-0.05289
-0.25932	1.01843
-0.23382	-0.51203
0.04670	-0.05289
0.40372	0.12566
0.93925	0.83988
0.81175	0.30422
-0.48884	0.12566
-0.23382	0.50828
-0.51434	0.15117
-0.38683	0.50828
0.40372	-0.35899
0.81175	-0.05289
0.45472	0.12566
0.40372	0.32972
0.30171	0.04914
0.04670	-0.00188
-0.13181	-0.07840
0.04670	0.73785
0.22521	0.43176
0.25071	-0.18043
-0.08081	-0.58856
-0.15732	-0.28246
-0.02981	0.45726
0.37822	0.45726
0.73524	0.40625
-1.40690	0.55929
-0.92237	-0.33348
0.83725	0.25320
1.47479	-0.00188
0.12320	0.40625
0.04670	0.22769
-0.00431	0.17668
-0.00431	0.27871
0.22521	0.15117
0.42922	-0.46102
0.37822	0.58480
0.37822	-0.02739
0.32721	0.17668
-0.20832	0.73785
-0.05531	0.30422
0.12320	0.50828
-0.18282	-0.23145
-0.05531	-0.00188
-0.43783	-0.35899
-0.23382	0.12566
0.22521	0.22769
0.40372	0.12566
0.53123	0.48277
0.65874	-0.00188
0.30171	0.20219
-0.61635	0.07465
-0.23382	0.04914
0.25071	0.15117
0.73524	-0.20594
0.73524	0.71234
0.42922	-0.30797
-0.25932	0.12566
0.45472	0.55929
0.42922	0.45726
0.76074	0.45726
-0.61635	1.09496
-0.46334	-0.02739
0.19971	-0.43551
-0.10631	-1.65988
-1.38139	-0.07840
-0.10631	0.43176
0.14870	0.32972
1.11776	0.66132
1.14327	0.96742
1.42379	0.96742
0.65874	0.27871
-0.79486	-0.48652
-0.38683	-0.05289
0.35272	0.02363
0.37822	0.38074
0.09770	0.15117
0.76074	0.15117
0.17421	-0.33348
-0.56534	-0.05289
-0.36133	-0.28246
0.02119	-0.48652
0.25071	0.66132
0.27621	0.63582
-0.08081	0.22769
-0.15732	0.48277
0.09770	-0.07840
0.22521	-0.56305
0.32721	0.04914
0.19971	0.73785
0.68424	0.86539
0.14870	-0.07840
0.73524	0.30422
0.17421	0.04914
-0.79486	-0.07840
-0.15732	-0.00188
-0.64185	-0.02739
0.70974	0.83988
0.70974	0.25320
0.60773	0.22769
0.60773	-0.35899
0.91375	-0.25695
-0.53984	0.68683
-0.89686	-0.18043
-1.15188	-0.58856
0.32721	-0.92016
1.14327	-0.07840
-0.13181	1.12046
0.12320	0.76336
0.91375	0.76336
0.25071	0.55929
-0.00431	0.63582
-0.25932	0.04914
0.32721	-0.41000
1.04126	-0.30797
-1.61091	-0.15492
-0.82036	0.15117
0.65874	-0.05289
0.91375	0.15117
0.83725	0.17668
0.53123	0.04914
0.88825	0.07465
0.45472	1.06945
-0.74385	0.38074
-1.35589	0.32972
-0.59084	-0.10391
-0.48884	-1.09871
0.50573	-0.28246
1.14327	0.32972
1.19427	0.22769
0.37822	0.40625
0.40372	0.25320
0.22521	0.78886
-0.08081	1.01843
-0.00431	0.04914
-0.10631	-0.28246
-0.23382	0.12566
-0.18282	-0.15492
-0.31033	0.04914
-0.18282	-0.69059
0.42922	-0.10391
0.73524	-0.35899
0.45472	0.15117
-0.08081	0.96742
-0.18282	1.32453
0.19971	0.45726
0.50573	-0.05289
-0.00431	0.02363
0.32721	-0.05289
0.68424	-0.63957
0.19971	-0.56305
-0.66735	0.40625
-0.00431	0.25320
-0.38683	0.04914
-0.38683	0.15117
0.91375	0.71234
1.27078	0.58480
1.01576	0.99292
-0.15732	-0.12942
-0.64185	0.02363
-0.20832	-0.05289
-0.08081	-0.10391
-0.13181	-0.00188
-0.08081	-0.25695
0.22521	-0.00188
0.96476	0.81437
0.93925	-0.12942
0.37822	-0.35899
-0.28482	-0.33348
-0.51434	0.63582
-0.05531	0.43176
1.24527	0.22769
0.17421	-0.02739
-0.20832	0.15117
-0.28482	-0.05289
-0.46334	0.32972
-0.13181	0.76336
0.50573	1.06945
-0.46334	-0.53754
0.22521	-0.81812
0.22521	-0.10391
0.19971	-0.18043
0.32721	0.55929
0.14870	0.40625
0.09770	-0.23145
0.65874	0.43176
0.22521	-0.35899
0.42922	0.61031
0.42922	-0.00188
0.22521	1.88570
-0.10631	1.12046
-0.36133	-0.97117
-0.25932	-1.55785
0.30171	-1.17523
-0.33583	0.76336
-0.53984	0.30422
-0.05531	0.04914
-0.10631	0.50828
1.55129	1.27351
1.04126	0.99292
0.30171	-0.43551
-0.53984	-0.23145
-0.61635	0.22769
0.32721	0.30422
-0.61635	0.17668
0.60773	-0.25695
-0.18282	0.02363
1.62780	-0.33348
1.44929	-0.58856
-0.28482	-0.46102
-0.89686	1.45206
-0.23382	0.20219
-0.08081	0.58480
0.55673	0.15117
-0.15732	-0.41000
-0.38683	-0.07840
-0.25932	0.58480
0.35272	0.30422
0.12320	1.37554
0.63323	-1.78742
0.37822	-0.35899
-0.18282	0.02363
0.35272	0.40625
0.19971	0.78886
-0.08081	-1.04770
0.09770	0.55929
0.58223	1.12046
0.78624	0.94191
-0.00431	0.71234
-1.33039	0.78886
0.09770	0.20219
0.76074	1.06945
0.22521	-0.18043
0.37822	-0.86914
0.86275	-0.20594
0.53123	-2.39961
-0.48884	-0.51203
-0.18282	-1.17523
0.14870	0.32972
-0.08081	0.86539
0.09770	1.40105
0.37822	0.96742
-0.36133	0.81437
0.22521	0.35523
-0.28482	0.71234
-0.18282	0.32972
0.12320	-0.35899
0.22521	-0.63957
0.19971	-0.35899
0.78624	0.30422
0.42922	0.30422
0.17421	0.55929
-0.25932	0.15117
0.22521	0.12566
0.91375	-0.25695
-0.18282	-0.07840
0.14870	0.50828
-0.84586	-0.10391
0.40372	-0.02739
1.11776	-0.46102
0.30171	0.35523
-0.25932	0.55929
0.48022	1.12046
0.65874	-0.35899
-0.46334	-0.10391
0.27621	0.43176
-0.10631	0.86539
0.42922	-0.74160
-0.87136	0.04914
-1.27939	-0.38449
0.50573	0.48277
0.22521	0.96742
0.32721	0.04914
1.01576	-0.05289
1.06676	-0.46102
0.19971	0.35523
0.12320	0.22769
-0.46334	0.10015
0.22521	-0.28246
0.76074	0.15117
0.27621	0.73785
-0.20832	-0.23145
0.07220	1.40105
-0.15732	-0.61406
0.14870	-0.25695
-0.08081	-1.43031
-0.38683	0.50828
-0.36133	0.89089
0.17421	0.91640
0.22521	0.66132
0.55673	0.38074
0.48022	-0.00188
0.27621	0.25320
-0.20832	-0.15492
-0.08081	-0.46102
0.09770	0.15117
1.55129	0.22769
1.09226	-0.02739
-0.71835	-0.18043
-1.10088	-0.07840
-0.99887	-0.71609
0.88825	0.40625
0.91375	1.17148
0.65874	0.55929
0.63323	0.17668
-0.02981	0.07465
-0.18282	0.25320
-0.20832	-0.23145
0.14870	-0.15492
-0.08081	0.22769
0.30171	0.10015
0.17421	-0.53754
0.27621	0.12566
-0.38683	0.58480
-0.08081	0.86539
0.53123	-0.23145
-0.15732	0.15117
-0.76936	-1.04770
0.48022	0.04914
0.02119	0.91640
0.58223	0.71234
0.68424	0.73785
0.68424	-1.50683
-0.23382	0.25320
0.42922	0.96742
0.63323	0.86539
0.02119	0.25320
0.09770	0.17668
0.37822	-0.48652
-0.08081	0.27871
-0.28482	0.30422
-0.53984	-0.51203
0.07220	-0.46102
0.40372	0.12566
-0.02981	0.78886
0.27621	-0.02739
-0.08081	-0.05289
0.12320	-0.12942
1.11776	0.68683
0.30171	0.71234
-0.74385	-0.43551
-1.27939	0.25320
0.91375	0.07465
0.76074	0.27871
1.52579	0.38074
0.96476	0.35523
-0.02981	0.35523
-0.08081	0.55929
-0.13181	0.15117
-0.08081	-0.02739
-0.28482	-0.97117
-0.08081	0.10015
0.22521	0.40625
-0.13181	0.76336
0.07220	-0.43551
-0.23382	-0.38449
-0.28482	0.15117
0.42922	0.53379
0.37822	0.07465
0.37822	0.32972
0.30171	0.35523
0.35272	-0.23145
0.14870	0.10015
0.04670	0.73785
0.48022	0.66132
0.27621	0.50828
0.09770	0.10015
0.37822	-0.35899
0.22521	-0.30797
-0.00431	-0.02739
-0.28482	-0.07840
-1.15188	-0.61406
-0.92237	-1.07320
0.73524	0.04914
0.48022	0.96742
0.63323	0.89089
0.93925	0.50828
1.50029	0.45726
0.63323	1.04394
-0.74385	0.22769
-1.27939	-0.18043
0.04670	-0.12942
0.12320	-0.05289
0.14870	-0.23145
0.17421	-0.53754
0.48022	0.38074
0.81175	0.68683
0.02119	-0.23145
-1.63641	-0.38449
-0.43783	0.07465
0.14870	0.02363
0.91375	0.32972
0.73524	1.29902
0.35272	0.58480
0.19971	-0.51203
0.14870	-0.56305
0.42922	0.35523
0.09770	0.81437
-0.08081	0.15117
0.53123	0.25320
-0.15732	0.15117
-0.53984	0.10015
0.14870	-0.25695
-0.05531	-0.28246
1.14327	1.32453
0.55673	-0.28246
-0.99887	-0.63957
-1.33039	-0.97117
-0.05531	0.12566
0.53123	0.43176
0.76074	1.01843
1.57679	1.32453
0.50573	0.22769
-0.66735	0.22769
-0.76936	-1.02219
0.19971	0.10015
0.50573	-0.25695
0.68424	0.68683
0.55673	0.81437
-0.25932	0.12566
0.12320	0.07465
0.12320	0.02363
-0.64185	0.20219
-0.13181	-0.41000
0.12320	0.02363
0.45472	0.35523
0.37822	0.04914
0.50573	0.07465
0.09770	0.43176
0.32721	0.35523
0.40372	-0.02739
-0.41233	0.27871
-0.59084	-0.05289
-0.76936	0.10015
0.53123	-0.07840
0.76074	0.15117
0.81175	0.58480
0.88825	0.04914
0.35272	0.48277
-0.38683	-0.18043
0.09770	-0.10391
0.07220	-0.02739
