0.09770	0.20219
-0.00431	0.12566
0.14870	0.12566
0.14870	0.10015
0.17421	0.02363
0.19971	0.25320
0.17421	0.07465
0.12320	0.07465
0.12320	0.22769
0.12320	0.07465
0.02119	0.12566
0.22521	0.10015
0.09770	0.07465
0.19971	0.30422
0.19971	0.20219
0.09770	0.20219
0.12320	0.25320
0.14870	0.25320
0.12320	0.07465
0.02119	-0.33348
0.17421	-0.07840
0.12320	0.15117
0.14870	0.15117
0.12320	0.40625
0.25071	0.35523
0.22521	0.30422
0.17421	0.07465
0.07220	0.12566
0.17421	0.12566
0.17421	0.12566
0.17421	0.15117
0.12320	-0.15492
0.14870	-0.07840
0.09770	0.02363
0.14870	0.17668
0.25071	0.32972
0.12320	0.27871
0.14870	0.22769
0.09770	0.10015
0.14870	0.20219
0.14870	0.15117
0.07220	0.10015
0.17421	0.17668
0.19971	0.17668
0.17421	0.10015
0.09770	0.07465
0.14870	0.17668
0.22521	0.10015
0.12320	0.15117
0.07220	0.10015
0.02119	0.12566
0.12320	0.22769
0.25071	0.15117
0.17421	0.07465
0.09770	0.10015
0.14870	0.10015
0.12320	0.20219
0.27621	0.20219
0.48022	0.10015
-0.00431	0.04914
0.02119	0.04914
0.14870	0.17668
0.12320	0.17668
0.04670	0.12566
0.02119	0.02363
0.14870	0.15117
0.22521	0.20219
0.17421	0.20219
0.19971	0.12566
0.14870	0.15117
0.09770	0.04914
0.09770	0.15117
0.14870	0.30422
0.17421	0.15117
0.17421	-0.20594
0.14870	0.04914
0.12320	-0.10391
0.14870	0.25320
0.22521	0.50828
0.17421	0.30422
0.12320	0.25320
0.09770	0.35523
0.12320	0.17668
0.17421	0.04914
0.14870	-0.05289
0.17421	-0.05289
0.14870	0.02363
0.22521	0.20219
0.17421	0.25320
0.14870	0.07465
0.07220	-0.02739
0.12320	0.20219
0.14870	0.15117
0.22521	0.27871
0.17421	0.17668
0.09770	0.15117
0.12320	0.10015
0.25071	0.17668
0.14870	0.20219
0.02119	0.10015
0.12320	0.15117
0.19971	0.22769
0.19971	0.04914
0.12320	0.07465
0.09770	0.20219
0.22521	0.22769
0.14870	0.15117
0.12320	0.10015
0.12320	0.12566
0.09770	0.10015
0.12320	0.15117
0.12320	0.04914
0.12320	0.04914
0.17421	0.22769
0.22521	0.20219
0.12320	0.20219
0.12320	0.15117
0.09770	0.12566
0.22521	0.12566
0.19971	0.17668
0.09770	0.12566
0.07220	0.25320
0.19971	0.20219
0.17421	-0.05289
0.17421	-0.10391
0.12320	0.02363
0.22521	0.27871
0.12320	0.12566
0.09770	0.12566
0.12320	0.20219
0.19971	0.30422
0.09770	0.22769
0.07220	0.22769
0.14870	0.25320
0.22521	0.15117
0.09770	0.12566
0.17421	-0.00188
0.17421	-0.15492
0.12320	0.17668
0.17421	0.27871
0.02119	0.12566
0.14870	0.17668
0.02119	0.02363
0.19971	0.20219
0.07220	0.12566
0.14870	0.17668
0.17421	0.12566
0.14870	0.20219
0.14870	0.15117
0.04670	0.15117
0.22521	0.15117
0.04670	0.15117
0.17421	0.22769
0.12320	0.04914
0.25071	0.22769
0.12320	0.07465
0.12320	0.15117
0.07220	0.07465
0.19971	0.17668
0.17421	0.12566
0.14870	0.12566
0.19971	0.22769
0.09770	0.07465
0.14870	0.12566
0.14870	0.15117
0.32721	0.17668
0.07220	0.15117
0.09770	0.04914
0.17421	0.20219
-0.00431	-0.00188
0.12320	0.17668
0.14870	0.22769
0.17421	0.17668
0.22521	0.20219
0.12320	0.04914
0.17421	0.10015
0.14870	0.15117
0.04670	0.12566
0.14870	0.30422
0.17421	0.10015
0.04670	0.15117
0.17421	0.10015
0.12320	-0.00188
0.09770	0.20219
0.19971	0.40625
0.17421	0.15117
0.07220	0.10015
0.19971	-0.05289
0.12320	-0.20594
0.19971	0.12566
0.14870	0.27871
0.12320	0.25320
0.09770	0.22769
0.22521	0.15117
0.14870	0.20219
0.17421	0.10015
0.17421	0.12566
0.07220	0.12566
0.09770	0.20219
0.09770	0.10015
0.04670	0.17668
0.22521	0.25320
0.14870	0.10015
0.09770	0.15117
0.27621	0.27871
0.17421	0.02363
0.04670	0.04914
0.27621	0.30422
0.12320	0.20219
0.12320	0.10015
0.19971	0.12566
0.07220	0.10015
0.14870	0.22769
0.14870	0.22769
0.04670	0.04914
0.27621	0.25320
0.04670	0.04914
0.12320	-0.05289
0.12320	0.04914
0.04670	0.12566
0.17421	0.43176
0.17421	0.25320
0.17421	0.40625
0.22521	0.15117
0.17421	0.22769
0.17421	0.17668
0.12320	-0.07840
0.09770	0.12566
0.19971	0.12566
0.14870	0.15117
-0.05531	0.17668
0.14870	0.20219
0.32721	0.15117
0.17421	0.07465
-0.00431	0.07465
0.09770	0.25320
0.45472	0.15117
0.14870	0.10015
0.04670	0.15117
0.12320	0.15117
0.07220	0.15117
0.04670	0.12566
0.14870	0.25320
0.17421	-0.00188
0.14870	0.15117
0.22521	0.22769
0.22521	0.22769
0.09770	0.10015
0.17421	0.15117
0.14870	0.15117
0.07220	0.04914
0.12320	0.17668
0.17421	0.20219
0.12320	0.20219
0.25071	0.22769
0.14870	0.12566
0.14870	0.10015
-0.10631	0.04914
0.12320	-0.05289
0.19971	-0.00188
0.12320	0.12566
0.07220	0.15117
0.19971	0.40625
0.17421	0.17668
0.07220	-0.02739
0.12320	-0.15492
0.22521	-0.33348
0.09770	0.27871
0.12320	0.25320
0.19971	0.25320
0.02119	0.30422
0.12320	0.48277
0.30171	0.43176
0.04670	0.30422
0.19971	0.17668
0.37822	0.15117
0.12320	0.04914
0.02119	-0.00188
0.07220	-0.00188
0.19971	-0.12942
0.04670	-0.10391
0.14870	0.12566
0.09770	0.04914
0.14870	0.15117
0.14870	0.25320
0.17421	0.32972
0.12320	0.10015
0.12320	0.17668
0.17421	0.22769
0.02119	0.17668
-0.28482	0.12566
0.32721	0.17668
0.73524	0.17668
0.07220	0.12566
-0.00431	0.17668
0.14870	0.50828
-0.00431	0.43176
0.12320	0.35523
0.14870	0.04914
0.12320	-0.58856
0.07220	-0.66508
0.22521	-0.05289
0.12320	0.50828
0.02119	0.53379
0.09770	0.68683
0.14870	0.53379
0.63323	0.40625
0.14870	0.10015
0.09770	0.15117
0.14870	-0.02739
0.02119	-0.35899
0.07220	-0.02739
0.09770	0.15117
-0.02981	0.27871
0.19971	0.25320
0.19971	0.22769
0.07220	0.15117
0.14870	0.25320
0.04670	0.35523
0.12320	0.53379
0.19971	-0.05289
0.07220	-0.48652
0.19971	-0.18043
0.27621	-0.46102
0.19971	0.22769
0.04670	0.43176
0.17421	0.50828
0.19971	0.53379
0.07220	0.86539
0.07220	0.30422
0.17421	-0.41000
-0.00431	-0.20594
-0.08081	-0.07840
0.04670	0.25320
0.25071	0.53379
0.32721	0.55929
0.09770	0.38074
0.09770	-0.02739
0.12320	-0.05289
0.14870	0.02363
0.12320	-0.12942
0.19971	-0.12942
0.04670	0.12566
-0.10631	0.07465
0.42922	0.04914
0.12320	0.15117
-0.10631	0.25320
0.19971	0.30422
0.45472	0.07465
0.09770	0.20219
0.17421	0.20219
0.02119	0.20219
0.32721	0.27871
0.02119	0.35523
-0.02981	0.45726
-0.05531	0.22769
0.12320	-0.15492
0.30171	-0.23145
0.22521	-0.66508
0.17421	-0.10391
0.22521	0.78886
0.22521	0.91640
0.12320	0.53379
0.09770	0.40625
0.12320	0.48277
0.22521	0.50828
0.17421	-0.15492
0.12320	-0.35899
0.14870	-0.61406
0.17421	-0.71609
0.17421	-0.30797
0.17421	0.17668
0.02119	0.63582
0.07220	0.86539
0.17421	0.50828
0.07220	0.30422
0.14870	0.25320
0.25071	0.20219
0.14870	0.17668
0.09770	0.17668
0.14870	0.02363
0.19971	0.04914
0.17421	-0.10391
0.07220	0.15117
0.04670	-0.12942
0.14870	-0.07840
0.22521	0.02363
0.19971	-0.07840
0.07220	0.07465
0.14870	0.53379
0.14870	0.35523
0.14870	0.10015
0.25071	-0.07840
0.22521	0.48277
0.14870	0.76336
0.14870	0.45726
0.32721	0.22769
0.14870	0.15117
0.07220	0.02363
0.32721	-0.20594
0.27621	-0.07840
-0.02981	0.04914
-0.31033	0.10015
-0.02981	0.25320
0.14870	0.10015
0.60773	-0.15492
-0.18282	0.02363
0.99026	0.15117
0.81175	0.25320
-0.33583	0.07465
-0.20832	0.07465
-0.15732	0.12566
-0.05531	0.27871
0.02119	0.20219
0.09770	0.25320
0.25071	0.25320
0.37822	0.35523
0.07220	0.10015
0.02119	0.10015
0.40372	0.02363
0.14870	-0.00188
0.14870	0.12566
0.30171	0.27871
0.14870	0.15117
0.17421	0.07465
0.17421	-0.05289
0.09770	-0.18043
0.32721	1.04394
0.22521	-0.07840
0.14870	-0.30797
0.04670	0.02363
-0.02981	-0.33348
-0.13181	0.04914
0.07220	0.38074
-0.18282	0.76336
0.22521	0.07465
0.50573	0.58480
0.55673	0.76336
0.42922	0.38074
0.27621	-0.18043
-0.10631	-0.30797
-0.18282	-0.23145
0.02119	-0.30797
0.22521	-0.20594
0.32721	-0.00188
0.12320	0.07465
0.19971	0.17668
0.17421	0.30422
0.09770	0.20219
0.09770	0.35523
0.09770	0.22769
0.14870	0.27871
0.27621	0.27871
0.12320	0.20219
-0.08081	-0.05289
0.04670	0.30422
0.04670	0.25320
0.12320	-0.00188
0.22521	0.17668
0.04670	0.25320
0.42922	0.35523
0.55673	0.10015
0.12320	-0.15492
-0.05531	-0.20594
0.07220	-0.00188
-0.02981	0.71234
0.12320	0.32972
0.27621	-0.25695
0.09770	-0.71609
0.12320	-0.38449
0.09770	0.99292
0.12320	0.58480
0.25071	0.12566
0.19971	0.12566
0.12320	0.15117
0.09770	0.20219
0.27621	-0.05289
0.02119	0.81437
0.12320	0.15117
0.27621	1.40105
0.45472	-0.58856
0.42922	-0.56305
0.02119	-1.30277
-1.04987	0.15117
-1.12638	1.17148
0.17421	-0.81812
0.73524	-0.25695
1.14327	0.61031
1.01576	0.45726
0.96476	0.73785
0.07220	1.19699
-0.38683	1.09496
-0.51434	-0.20594
-0.36133	-1.35379
0.32721	-0.99668
0.48022	-0.61406
0.30171	1.09496
0.02119	0.94191
-0.38683	0.53379
-0.38683	0.43176
-0.23382	0.17668
0.42922	0.68683
0.68424	0.53379
0.55673	-0.41000
0.30171	-1.71090
0.02119	-0.43551
0.32721	-0.15492
0.12320	0.99292
0.12320	-1.78742
0.12320	1.19699
0.17421	0.55929
0.25071	1.22250
-0.10631	1.35003
-0.23382	0.45726
0.19971	0.22769
-0.31033	-1.14973
-0.18282	-1.07320
-0.76936	0.40625
0.35272	1.98773
1.44929	2.31933
1.16877	1.09496
1.09226	-0.58856
0.68424	-0.76711
0.19971	-2.04250
-0.46334	-0.79262
-0.69285	0.35523
-0.89686	0.81437
0.45472	-0.02739
0.22521	-0.28246
-0.48884	0.58480
0.22521	0.35523
0.83725	0.45726
0.30171	0.32972
0.81175	0.63582
0.50573	0.25320
0.12320	0.40625
-0.89686	-0.30797
-1.40690	-2.29757
0.27621	-1.32828
0.32721	-0.43551
-0.53984	1.22250
1.16877	2.67644
1.32178	2.26831
1.34728	1.01843
0.42922	-0.02739
-1.12638	-0.56305
-0.74385	0.27871
0.60773	-0.61406
0.37822	-1.37929
0.30171	-3.24136
-0.15732	0.50828
-0.23382	2.06425
0.17421	1.24800
0.42922	-0.00188
0.48022	0.25320
0.19971	1.22250
-0.53984	2.85499
-0.69285	-2.93527
0.19971	-2.01699
-0.82036	-2.50164
-0.43783	1.96222
1.19427	2.06425
1.14327	1.78367
1.06676	-0.61406
0.42922	-1.04770
0.09770	-0.43551
0.83725	1.29902
0.17421	0.55929
-0.87136	-0.23145
-1.02437	-0.43551
-0.46334	0.53379
-0.05531	0.58480
1.75531	0.04914
1.19427	-0.71609
-0.89686	1.47757
-0.97337	-0.41000
-0.08081	-0.41000
-0.66735	0.53379
0.81175	-1.60887
0.60773	0.58480
1.24527	-1.43031
1.75531	1.32453
0.91375	2.70194
0.48022	0.83988
-0.89686	1.06945
-3.06450	1.88570
-0.79486	-1.25176
0.07220	-0.86914
-0.89686	-1.37929
1.29628	-1.99148
1.47479	0.91640
1.19427	0.15117
1.14327	-0.35899
0.78624	0.83988
-0.53984	0.32972
-0.94787	1.17148
-0.43783	-2.09351
0.25071	0.45726
-0.64185	0.35523
0.25071	-0.51203
1.04126	0.96742
0.93925	1.88570
0.07220	0.35523
-0.79486	-2.11902
-1.43240	-0.71609
-1.15188	0.76336
-0.23382	1.65613
0.76074	1.60511
1.01576	-0.18043
1.65330	-0.74160
1.72980	-0.12942
0.73524	-0.56305
-0.05531	-0.69059
-0.43783	0.15117
-0.53984	0.04914
0.14870	0.15117
0.32721	0.35523
-0.61635	0.04914
-0.69285	0.53379
-0.08081	0.17668
0.12320	0.55929
1.39828	0.76336
0.27621	0.15117
-0.59084	0.55929
-1.02437	0.78886
1.01576	1.50308
-0.23382	-2.68019
-0.15732	-0.99668
0.25071	-1.73640
0.99026	1.75816
-0.33583	1.88570
-0.02981	0.25320
0.86275	0.81437
1.29628	-0.20594
0.58223	1.45206
0.19971	0.10015
0.27621	-1.94047
0.04670	-0.35899
-0.33583	0.55929
-0.23382	0.10015
-1.27939	0.81437
-1.12638	-0.41000
1.19427	1.09496
0.32721	-0.94566
-0.61635	0.66132
0.30171	0.32972
0.35272	0.83988
-0.08081	0.73785
0.73524	0.27871
-0.18282	0.86539
0.91375	-1.94047
1.11776	0.02363
0.30171	-1.35379
-0.59084	0.45726
-0.15732	-0.05289
0.68424	0.50828
0.78624	0.91640
-2.04444	1.65613
-0.48884	-0.56305
0.81175	0.48277
1.39828	-0.66508
0.04670	0.15117
-1.40690	-0.12942
-1.48340	1.19699
-0.61635	-1.76191
2.21434	-0.33348
0.86275	-0.46102
1.04126	1.12046
1.62780	1.73265
0.60773	0.25320
0.07220	0.17668
-0.02981	1.22250
-0.99887	-0.71609
-1.17738	-0.86914
-0.36133	-1.22625
-0.33583	0.40625
0.17421	1.47757
0.83725	0.58480
-0.25932	0.27871
0.53123	-0.33348
0.50573	-0.86914
-0.18282	-0.79262
0.40372	0.35523
-0.79486	0.63582
-0.64185	0.38074
1.16877	1.12046
2.01032	0.76336
0.45472	0.53379
-0.13181	-0.63957
-1.63641	1.14597
0.42922	-1.27726
1.47479	0.30422
0.93925	-1.45582
0.25071	0.96742
0.45472	0.96742
-0.31033	1.45206
0.37822	-1.04770
-0.20832	-0.74160
-1.94243	-1.09871
0.12320	0.40625
-0.92237	0.32972
-1.53441	0.66132
2.54586	0.35523
1.14327	0.73785
-0.48884	0.02363
-1.58541	0.27871
1.11776	-1.02219
2.31634	0.55929
0.81175	1.09496
0.73524	-0.41000
0.12320	-0.10391
-0.97337	-0.30797
-0.51434	0.30422
1.04126	0.78886
0.50573	1.63062
-1.12638	-1.09871
-1.35589	-1.12422
-0.08081	-1.86394
0.32721	1.29902
-0.00431	0.94191
0.78624	1.57960
1.09226	1.27351
1.39828	2.29382
-0.89686	-0.76711
-0.74385	-1.40480
-1.63641	-1.04770
0.07220	-2.68019
-0.10631	-0.05289
1.55129	0.40625
1.75531	1.75816
1.34728	1.83468
0.81175	1.24800
0.86275	0.07465
-0.18282	-0.25695
-2.57997	0.38074
-0.66735	1.35003
0.70974	-1.78742
0.91375	-2.11902
-0.20832	-2.24656
0.63323	-0.46102
0.12320	1.70714
0.32721	1.80917
-0.89686	0.71234
-2.50347	0.20219
-1.81492	0.07465
1.04126	0.63582
2.44385	0.40625
0.93925	-0.30797
1.19427	-0.35899
1.21977	0.20219
0.27621	0.73785
-0.08081	-0.30797
-1.30489	-1.20074
0.65874	-1.02219
1.14327	-0.05289
-0.23382	-0.00188
-0.46334	0.53379
-0.05531	1.78367
0.25071	1.63062
-0.66735	0.63582
-0.28482	-0.46102
0.58223	-2.50164
-0.59084	1.68163
-0.74385	-0.43551
-0.59084	0.86539
0.22521	1.04394
0.78624	0.66132
1.50029	1.42656
1.75531	0.35523
1.19427	-0.35899
0.68424	-0.18043
-0.15732	-3.03730
-0.74385	-0.00188
0.12320	-0.76711
0.55673	1.17148
-0.31033	2.08976
0.07220	0.99292
-0.43783	-0.99668
-2.78398	-2.01699
-0.59084	-0.20594
1.44929	0.94191
2.39285	1.22250
1.37278	1.78367
-0.99887	0.83988
-2.32496	-0.20594
-0.20832	-0.79262
1.16877	-0.30797
1.80631	1.63062
1.21977	-0.33348
-0.18282	-2.37410
0.70974	-2.27207
-0.36133	0.63582
0.25071	1.57960
0.04670	1.50308
0.86275	1.37554
-0.51434	0.35523
-1.20288	0.50828
0.48022	0.10015
-3.42153	-0.35899
-0.31033	-0.99668
0.70974	0.17668
1.85731	0.02363
2.41835	2.85499
1.19427	-1.30277
0.19971	-1.40480
-1.43240	-0.07840
0.40372	-0.51203
-0.48884	0.10015
0.45472	-0.43551
0.93925	0.73785
0.78624	2.39585
-0.08081	1.12046
-0.31033	1.55410
-0.61635	-1.65988
0.04670	-1.14973
0.19971	-0.99668
-0.25932	0.73785
-0.38683	1.57960
-0.10631	-0.25695
0.53123	1.60511
0.37822	-1.25176
-1.94243	0.40625
-0.23382	-1.60887
2.01032	2.75296
1.42379	-0.15492
-0.08081	-0.46102
-0.92237	-0.38449
-0.15732	1.14597
1.42379	-0.51203
1.88281	-0.97117
0.65874	-0.84363
0.32721	0.50828
-0.23382	0.55929
-0.59084	0.38074
-0.28482	1.04394
0.60773	0.96742
-0.79486	0.86539
-1.66191	-0.94566
-0.69285	-0.81812
0.30171	0.30422
-1.17738	0.61031
0.48022	0.04914
1.44929	1.14597
1.83181	0.50828
0.60773	-1.07320
0.48022	-2.09351
1.24527	1.19699
0.63323	0.68683
-1.07538	0.27871
-0.41233	0.66132
-0.46334	0.66132
-0.13181	0.07465
-0.13181	-3.01179
0.58223	0.22769
0.48022	1.22250
-0.02981	0.73785
0.19971	0.78886
-0.10631	0.61031
-0.41233	-0.18043
1.11776	-0.41000
-0.33583	0.04914
0.50573	0.35523
-0.02981	0.02363
-0.05531	0.12566
0.30171	0.86539
0.96476	0.43176
0.88825	0.22769
-0.05531	-0.43551
-0.33583	0.17668
-2.63097	-0.38449
0.40372	-0.20594
0.99026	0.17668
1.47479	0.35523
-0.43783	0.20219
-0.61635	0.12566
0.88825	0.94191
1.52579	0.35523
0.63323	0.73785
-1.12638	-1.07320
-2.35046	-1.65988
-2.70748	0.07465
2.57136	1.24800
2.74987	0.83988
0.68424	0.91640
0.22521	0.55929
0.81175	0.89089
0.96476	0.30422
0.22521	0.27871
-1.48340	-0.00188
-2.01894	-0.46102
-0.13181	-0.28246
-1.02437	0.15117
0.45472	-0.74160
1.60230	-0.33348
2.29084	-0.20594
0.22521	-0.76711
-0.87136	0.04914
-2.04444	-0.92016
0.09770	-0.05289
1.34728	0.38074
1.16877	1.91120
0.60773	1.09496
0.78624	2.67644
-0.33583	0.76336
-0.51434	-0.38449
-0.59084	-3.11382
-0.46334	-1.65988
0.63323	1.37554
0.14870	1.32453
-0.18282	1.09496
0.83725	-0.46102
1.85731	-0.02739
0.73524	0.15117
-1.10088	0.02363
-0.69285	0.04914
0.32721	0.40625
0.14870	-0.02739
0.37822	-0.46102
0.45472	0.17668
0.42922	0.20219
-0.53984	0.35523
-0.64185	0.38074
1.14327	0.58480
1.52579	-0.97117
-1.20288	-1.25176
-1.61091	-0.53754
0.91375	0.55929
0.53123	1.19699
0.70974	1.14597
0.17421	0.91640
0.35272	-0.07840
0.25071	-0.12942
0.07220	0.43176
0.30171	1.35003
-0.02981	-1.02219
0.27621	-0.46102
0.12320	-0.94566
0.09770	0.17668
0.30171	0.38074
-0.84586	0.17668
0.70974	0.71234
-0.61635	-0.18043
-2.65648	-0.30797
1.70430	1.52859
1.16877	-0.10391
0.88825	-1.48133
0.37822	-0.99668
0.63323	0.55929
1.14327	1.40105
-0.13181	1.01843
-0.00431	0.22769
0.12320	0.38074
-0.38683	1.04394
0.88825	-0.41000
0.04670	-0.33348
-0.10631	-0.02739
0.42922	0.35523
-1.04987	-0.35899
-1.17738	-0.84363
-1.71292	-0.07840
0.48022	0.48277
1.50029	1.22250
1.29628	0.27871
0.50573	-0.10391
0.30171	0.07465
1.32178	-0.25695
2.18883	0.50828
1.24527	-0.20594
-0.87136	0.61031
-2.63097	-0.12942
-0.82036	-0.66508
0.99026	0.89089
0.22521	0.76336
-0.79486	-0.12942
-0.74385	-0.41000
1.67880	1.19699
1.32178	-0.20594
0.65874	-0.20594
-1.73842	-1.60887
-2.60547	-0.07840
1.11776	0.63582
1.62780	1.19699
1.88281	1.14597
1.60230	1.50308
0.76074	0.68683
-0.41233	0.32972
-0.31033	-2.09351
-0.31033	-0.86914
-1.27939	-0.81812
-0.94787	0.50828
0.68424	0.17668
0.09770	0.15117
0.35272	0.55929
0.02119	0.94191
0.73524	1.12046
-1.33039	0.58480
-0.82036	-1.17523
0.07220	-0.43551
2.01032	1.37554
1.39828	0.32972
0.12320	0.66132
1.14327	0.10015
0.42922	-0.18043
-1.17738	-0.46102
1.98482	0.48277
0.37822	-0.05289
-0.10631	-0.94566
-1.20288	-0.97117
-2.24845	0.10015
-0.66735	0.53379
0.22521	0.48277
0.73524	-0.00188
0.58223	0.40625
1.44929	0.76336
0.83725	1.55410
-0.48884	1.22250
-0.20832	-0.71609
-0.08081	-0.35899
0.76074	-0.71609
0.88825	0.73785
-0.28482	-0.05289
0.09770	-0.07840
-0.74385	-0.48652
0.12320	1.06945
1.19427	0.38074
-0.48884	-0.66508
0.22521	-1.22625
0.45472	0.20219
0.12320	0.73785
0.04670	2.08976
-0.08081	-0.69059
0.27621	1.35003
0.12320	-0.79262
-0.08081	-0.00188
-0.33583	-1.04770
-0.53984	0.45726
-0.94787	0.76336
0.19971	0.89089
0.88825	-0.48652
2.03582	0.35523
0.93925	-0.71609
-0.94787	0.66132
-0.74385	0.10015
0.42922	0.12566
0.02119	0.38074
0.12320	-0.00188
1.34728	0.50828
0.37822	0.12566
-0.33583	0.76336
0.22521	0.25320
1.01576	-0.48652
0.53123	-0.15492
-2.01894	-0.30797
-1.50890	-0.18043
-0.74385	-1.86394
0.88825	1.24800
1.52579	1.75816
0.58223	1.14597
1.27078	0.48277
0.48022	0.25320
-1.25389	0.71234
-0.13181	0.25320
-1.15188	-0.48652
1.27078	-1.07320
1.37278	-1.40480
0.78624	0.66132
-0.13181	0.38074
-0.41233	1.14597
0.81175	-0.81812
-0.66735	-0.25695
-1.71292	-0.38449
-1.12638	2.16628
0.53123	0.20219
1.90832	0.32972
1.52579	-0.05289
0.48022	0.83988
-0.56534	0.27871
-1.40690	-0.38449
0.40372	0.10015
0.19971	0.32972
0.83725	0.07465
0.07220	-1.53234
0.22521	-0.48652
0.04670	0.89089
0.58223	2.06425
-0.02981	0.35523
-0.94787	-0.71609
-0.79486	-0.63957
0.30171	-0.25695
1.21977	-0.07840
0.50573	0.30422
0.68424	1.40105
-0.25932	1.27351
0.17421	-0.25695
-0.87136	-0.28246
0.58223	-0.53754
-0.56534	-0.51203
-1.10088	0.89089
1.16877	1.24800
1.24527	0.81437
0.70974	-0.30797
0.48022	-0.66508
0.42922	-0.46102
0.48022	-0.00188
-0.18282	0.83988
-1.02437	0.35523
-1.04987	-0.05289
-1.61091	-0.30797
1.44929	-0.46102
0.14870	0.10015
0.37822	0.76336
0.99026	0.43176
0.99026	0.35523
0.99026	0.02363
-0.36133	-0.07840
-0.92237	-1.17523
-0.23382	0.35523
-0.00431	0.07465
0.88825	0.50828
0.37822	-0.61406
0.40372	0.45726
-0.08081	0.78886
-0.64185	0.78886
-0.71835	0.66132
1.06676	0.63582
0.32721	-0.05289
-1.02437	-0.46102
-0.25932	-1.48133
0.19971	0.15117
0.37822	1.19699
1.27078	0.66132
-0.02981	1.68163
0.14870	-0.46102
0.25071	-1.50683
0.99026	-2.70570
-0.15732	-1.65988
-0.25932	1.68163
0.73524	1.93671
0.78624	1.32453
-0.92237	0.71234
-0.46334	0.94191
1.37278	0.12566
1.72980	0.71234
0.09770	1.19699
-2.65648	-0.71609
-2.22295	-3.03730
-0.33583	-2.06800
1.19427	0.53379
0.42922	1.37554
0.83725	0.96742
2.36734	1.01843
0.58223	1.32453
-0.00431	0.30422
1.29628	-0.46102
-0.18282	-0.51203
-2.73298	0.17668
0.12320	0.07465
0.50573	0.96742
0.73524	-0.05289
0.68424	-0.15492
-0.13181	-0.18043
0.14870	0.35523
-0.25932	0.38074
0.12320	0.48277
1.19427	-1.04770
1.24527	-0.25695
-2.24845	0.96742
-2.06994	-0.86914
-0.71835	0.43176
1.11776	0.02363
0.48022	1.17148
1.34728	0.76336
1.01576	0.43176
1.44929	-0.02739
1.04126	0.53379
-0.25932	0.43176
0.07220	0.50828
0.12320	-0.00188
-1.38139	0.02363
-1.10088	-0.92016
-0.31033	-1.53234
0.14870	-0.43551
-0.66735	-0.51203
0.25071	1.37554
0.70974	0.76336
1.19427	0.61031
0.63323	0.81437
0.60773	0.40625
0.55673	-0.15492
-1.17738	-0.25695
-0.71835	-0.10391
1.19427	-0.02739
0.14870	0.45726
-1.10088	0.04914
-0.10631	-0.18043
2.29084	0.35523
0.12320	0.40625
-0.38683	0.58480
-1.38139	-0.84363
-0.89686	-0.97117
1.24527	0.83988
1.32178	1.27351
0.48022	0.61031
-0.25932	-0.38449
-0.76936	-1.37929
0.07220	1.01843
-0.79486	0.66132
0.19971	0.53379
0.96476	0.40625
1.06676	0.50828
1.52579	0.04914
-0.13181	-1.35379
-0.74385	-0.71609
-1.63641	0.15117
-0.08081	0.78886
1.06676	0.76336
0.86275	0.53379
0.86275	0.40625
0.27621	0.38074
-0.41233	-0.51203
-0.46334	-0.28246
-1.15188	0.07465
0.42922	0.81437
0.37822	-0.02739
0.25071	-0.00188
1.39828	0.53379
-0.08081	-0.51203
-1.50890	0.43176
0.12320	0.04914
1.09226	-0.33348
1.09226	-0.38449
-1.20288	0.40625
0.40372	0.58480
-0.05531	0.58480
0.27621	1.45206
0.48022	-0.05289
0.42922	-0.12942
-0.08081	-1.40480
-0.18282	1.65613
-0.38683	0.91640
-1.04987	-0.30797
-1.04987	0.15117
0.86275	0.48277
0.73524	-0.46102
0.68424	-0.92016
0.50573	-0.71609
0.22521	0.78886
0.35272	-0.25695
0.14870	-0.86914
0.45472	0.66132
0.25071	0.86539
-1.12638	-0.05289
-0.13181	1.75816
1.44929	1.45206
0.02119	0.22769
1.01576	0.35523
0.40372	-0.92016
0.32721	-1.25176
-1.40690	-0.74160
-2.29945	0.50828
1.06676	0.25320
1.72980	0.86539
1.62780	0.25320
0.02119	0.43176
-1.33039	-0.05289
0.96476	-0.41000
1.85731	-0.48652
1.09226	0.55929
-1.89143	0.45726
-2.50347	0.17668
-0.08081	-0.46102
0.32721	0.22769
0.68424	0.43176
0.09770	0.68683
0.65874	1.47757
2.16333	0.04914
1.09226	-0.05289
0.53123	-0.56305
-0.99887	-1.60887
-2.37596	0.12566
0.40372	1.04394
0.04670	0.86539
0.86275	1.75816
0.50573	-0.33348
-0.02981	0.43176
-0.71835	-2.01699
0.76074	-0.33348
0.78624	0.17668
0.32721	1.04394
0.73524	0.99292
0.25071	-0.46102
-0.25932	0.04914
-1.12638	-0.28246
0.27621	0.71234
0.81175	0.61031
0.17421	0.50828
0.37822	0.86539
-0.66735	0.15117
1.14327	-0.48652
-0.84586	0.04914
0.14870	-0.63957
-0.38683	-1.12422
-1.76392	0.55929
1.06676	0.73785
1.32178	0.35523
1.50029	0.40625
0.96476	0.55929
0.50573	-0.63957
-0.48884	-0.02739
-0.43783	0.27871
-0.97337	0.15117
0.99026	0.35523
-0.69285	0.58480
-0.48884	0.66132
0.02119	0.15117
0.48022	0.61031
0.91375	0.22769
0.17421	0.30422
-0.10631	-0.33348
-0.33583	-1.25176
-0.38683	-1.45582
0.93925	2.19179
0.50573	-0.61406
1.14327	1.50308
0.12320	-1.45582
-1.12638	-0.30797
-0.38683	0.68683
0.32721	1.17148
0.76074	2.21730
0.37822	0.45726
-0.71835	-0.97117
-0.41233	-0.79262
0.58223	0.04914
0.78624	0.63582
1.37278	-0.25695
0.78624	-0.20594
-1.04987	0.91640
-0.64185	0.61031
-0.41233	0.35523
0.78624	0.35523
0.48022	-0.35899
-0.82036	-0.76711
0.65874	0.53379
-0.15732	-0.35899
-1.07538	-1.02219
0.60773	-1.20074
1.95932	0.68683
-1.12638	1.17148
0.65874	1.12046
1.04126	1.01843
0.60773	0.30422
0.68424	-0.12942
0.32721	-0.05289
-0.74385	-0.05289
-0.31033	0.50828
-0.56534	-0.46102
-0.64185	-0.48652
-0.48884	-0.30797
0.17421	0.40625
0.91375	0.12566
0.86275	1.17148
-0.00431	0.38074
0.22521	-1.02219
0.37822	-0.25695
0.19971	0.30422
0.50573	0.96742
0.19971	0.17668
-0.31033	-0.58856
-0.51434	-0.43551
0.81175	-0.66508
0.22521	0.94191
-0.82036	0.71234
-0.08081	0.86539
-0.48884	1.09496
0.96476	-0.05289
0.22521	-0.25695
0.86275	-1.09871
0.93925	0.20219
-0.84586	0.96742
0.91375	0.04914
-0.23382	-0.30797
-0.25932	-0.41000
0.22521	1.06945
0.68424	-0.56305
0.19971	-0.33348
0.04670	0.25320
0.32721	1.12046
-0.28482	0.61031
-0.25932	0.50828
0.37822	0.48277
-0.28482	0.07465
0.60773	-0.35899
1.04126	-0.00188
-0.18282	0.22769
-1.10088	-0.25695
0.83725	-0.15492
0.02119	0.25320
-0.53984	0.25320
0.60773	0.68683
0.73524	0.04914
0.76074	0.76336
-0.64185	0.07465
0.91375	-1.32828
0.63323	-2.29757
-0.69285	0.15117
-0.79486	1.86019
-1.33039	1.24800
0.53123	0.89089
0.83725	0.66132
0.35272	0.61031
0.42922	0.15117
0.88825	-0.20594
0.63323	0.38074
0.12320	0.45726
-0.00431	-0.02739
-0.18282	-1.58336
-0.33583	-2.24656
-0.31033	-1.30277
-1.12638	0.86539
-0.84586	1.24800
1.24527	1.29902
0.93925	1.35003
1.09226	1.04394
1.04126	1.65613
-0.36133	-0.23145
-1.04987	-0.76711
0.27621	-0.58856
0.07220	0.43176
0.73524	-0.07840
1.55129	0.12566
-1.02437	-0.81812
-0.08081	0.07465
-0.48884	0.04914
1.47479	0.83988
1.62780	-0.05289
-1.55991	-0.00188
-0.59084	-0.71609
-1.61091	0.02363
0.02119	0.61031
0.91375	1.27351
1.11776	0.32972
0.83725	0.83988
0.40372	0.04914
0.12320	-0.00188
0.70974	0.17668
-0.08081	-0.12942
0.02119	-0.43551
-0.61635	0.10015
0.27621	0.89089
0.30171	0.43176
0.19971	-1.27726
0.32721	-0.46102
0.04670	0.10015
0.22521	0.91640
-0.05531	0.15117
0.58223	0.25320
-1.40690	0.50828
-0.51434	-0.12942
0.12320	0.04914
0.27621	-0.53754
0.30171	1.19699
1.34728	-0.38449
1.93382	0.94191
0.53123	1.04394
-0.97337	0.22769
-0.84586	-0.20594
-0.92237	-1.22625
0.50573	-0.18043
1.90832	-0.23145
0.93925	-0.28246
0.37822	0.48277
0.07220	0.30422
-0.08081	0.35523
-0.71835	0.15117
-1.30489	-0.18043
-0.69285	0.45726
1.32178	1.09496
0.73524	0.48277
0.12320	-0.15492
-0.53984	-0.35899
0.78624	-0.05289
0.07220	0.50828
-0.82036	0.22769
0.35272	0.25320
-0.15732	-0.00188
0.76074	-0.05289
0.50573	-0.10391
0.40372	0.02363
0.93925	0.76336
0.73524	1.01843
-0.38683	-0.74160
0.30171	-0.81812
-0.18282	0.27871
-0.00431	1.68163
-0.38683	-0.86914
0.07220	-0.05289
0.58223	-0.33348
0.14870	0.71234
-0.28482	1.88570
-1.33039	0.53379
-0.74385	-0.43551
1.70430	-1.73640
0.63323	-0.46102
-0.00431	0.55929
0.42922	0.81437
0.60773	0.68683
0.50573	0.58480
0.55673	0.12566
-0.08081	-0.18043
-1.30489	-0.05289
-0.08081	0.40625
0.17421	0.04914
0.37822	-0.33348
1.16877	0.25320
-0.25932	0.22769
0.96476	-0.33348
0.25071	0.30422
-0.46334	-0.00188
-0.56534	-0.15492
-1.22839	0.10015
-0.87136	0.63582
-0.69285	-0.25695
0.70974	0.25320
2.57136	0.20219
2.41835	0.15117
2.36734	0.55929
-0.33583	0.63582
-1.10088	0.02363
-1.22839	-0.05289
-1.20288	0.12566
-0.02981	-0.15492
0.86275	1.42656
0.81175	-0.71609
-1.30489	-0.51203
-0.38683	-1.83844
-0.51434	0.38074
0.40372	0.86539
0.86275	0.76336
1.11776	0.55929
0.81175	0.83988
0.83725	0.63582
0.30171	-0.30797
-0.08081	-1.60887
-0.15732	-0.61406
-1.35589	-0.53754
-0.59084	0.43176
0.09770	1.14597
0.65874	0.94191
0.37822	0.81437
0.93925	0.63582
0.58223	-0.20594
0.02119	0.04914
-0.43783	0.07465
-1.58541	0.40625
0.42922	-0.02739
1.72980	-0.12942
1.19427	-0.10391
0.27621	-0.48652
-0.38683	-0.86914
-1.22839	-0.20594
0.86275	0.91640
1.39828	1.04394
0.58223	0.40625
0.53123	0.04914
-0.89686	0.20219
0.22521	-0.41000
-0.43783	0.45726
-0.79486	0.35523
-0.51434	0.43176
-0.79486	0.43176
0.63323	0.32972
1.24527	0.02363
1.24527	-0.48652
0.55673	-0.61406
0.53123	0.27871
0.48022	0.53379
-0.23382	0.40625
-0.13181	-0.10391
0.25071	0.25320
-0.25932	0.25320
-0.18282	0.76336
0.02119	-0.02739
-0.02981	-0.38449
0.09770	-0.94566
0.02119	0.20219
0.25071	-0.18043
0.22521	0.17668
0.25071	1.04394
0.12320	0.94191
-0.02981	-0.23145
0.42922	-0.86914
0.42922	-0.07840
0.35272	0.35523
0.50573	1.27351
0.81175	0.15117
-0.59084	2.01323
0.40372	-0.25695
-1.71292	-0.28246
-2.01894	-1.27726
-0.10631	-0.00188
1.60230	0.30422
1.21977	0.25320
1.44929	0.43176
0.58223	0.04914
1.34728	0.50828
0.70974	0.27871
-0.08081	0.04914
-1.38139	0.50828
-0.69285	-1.27726
-1.81492	-0.99668
-0.33583	0.43176
0.12320	0.94191
1.16877	0.61031
0.86275	0.58480
0.76074	0.61031
0.48022	0.27871
0.65874	0.76336
-0.13181	-0.00188
-0.94787	-0.20594
-0.46334	-1.27726
-0.20832	0.02363
0.42922	0.58480
0.60773	0.27871
0.53123	0.40625
0.88825	0.04914
0.76074	-0.46102
-0.00431	-0.51203
0.02119	0.96742
-1.33039	1.06945
-0.59084	0.20219
0.76074	1.01843
0.40372	0.07465
0.37822	-0.51203
0.76074	0.45726
1.16877	0.73785
-0.00431	-0.69059
-1.40690	-2.29757
-0.79486	-1.22625
-0.84586	0.32972
0.73524	1.40105
1.95932	1.14597
1.29628	1.01843
-0.66735	0.86539
-1.58541	0.76336
1.70430	-0.35899
0.63323	-0.30797
0.50573	-0.25695
-0.87136	0.22769
-0.05531	0.22769
0.25071	0.10015
0.83725	0.10015
0.09770	-0.28246
0.19971	0.22769
-0.18282	0.63582
-0.97337	-0.43551
0.32721	-0.05289
0.40372	-1.02219
0.50573	0.58480
0.17421	1.22250
-0.74385	0.66132
0.88825	0.50828
0.22521	0.17668
0.50573	0.04914
-0.00431	1.01843
0.25071	-0.05289
-0.08081	-0.28246
-1.10088	-0.30797
0.83725	0.12566
0.96476	0.15117
0.50573	-0.38449
-0.97337	-0.66508
0.27621	0.53379
-0.23382	-0.05289
1.29628	0.58480
0.78624	0.32972
-0.69285	0.58480
0.42922	-0.71609
0.63323	-0.97117
0.83725	-0.66508
0.12320	1.55410
-1.22839	0.43176
-0.43783	1.24800
0.35272	1.32453
-0.51434	0.17668
-1.89143	-0.15492
0.88825	-0.30797
0.93925	-0.20594
1.21977	0.53379
0.99026	-0.00188
1.21977	-0.25695
0.12320	-0.41000
-2.35046	-0.89465
0.96476	-0.12942
0.60773	0.53379
-0.82036	0.63582
0.19971	0.50828
1.14327	0.58480
0.09770	0.27871
0.42922	-0.02739
-0.25932	-0.43551
-0.25932	-0.07840
-0.41233	1.57960
0.27621	0.48277
0.19971	-0.30797
0.12320	0.58480
0.25071	-0.10391
0.40372	-0.23145
1.24527	0.07465
-0.48884	-0.97117
-1.30489	0.53379
-0.61635	1.29902
0.30171	0.91640
1.09226	-0.10391
0.99026	-1.60887
1.29628	-0.76711
-0.00431	0.48277
-0.64185	1.27351
0.17421	0.40625
-0.46334	0.10015
-0.08081	-0.05289
0.45472	0.10015
1.27078	0.86539
0.53123	-0.38449
0.76074	0.58480
-2.50347	-0.41000
-1.91693	-0.23145
0.50573	-0.56305
1.01576	0.48277
1.34728	0.58480
1.19427	0.25320
-0.10631	0.32972
-0.41233	0.04914
0.22521	-0.23145
0.58223	0.30422
0.02119	0.04914
-0.08081	0.48277
0.12320	-0.23145
-0.87136	0.40625
-0.59084	-0.69059
-0.43783	-0.10391
0.30171	-0.43551
1.42379	0.89089
1.16877	1.75816
0.63323	1.14597
0.22521	-0.56305
0.12320	-0.51203
-0.36133	0.45726
-0.76936	0.63582
0.48022	-0.05289
0.60773	-0.12942
0.70974	0.55929
-0.28482	0.27871
-0.31033	-0.84363
-0.43783	-2.04250
0.19971	-0.58856
-0.18282	0.99292
0.63323	1.17148
1.14327	0.78886
-0.36133	0.53379
-0.89686	0.61031
-0.00431	0.55929
0.86275	-0.15492
1.65330	-0.66508
0.86275	-0.05289
0.37822	0.12566
-2.91149	0.07465
0.68424	0.25320
0.48022	0.48277
0.65874	0.20219
0.35272	0.07465
0.04670	0.25320
0.99026	-0.02739
0.22521	0.07465
-0.31033	-0.10391
-1.45790	0.48277
-1.04987	0.07465
-0.13181	-0.18043
0.32721	-0.63957
0.83725	0.02363
1.29628	0.53379
0.60773	0.48277
0.86275	0.76336
0.42922	-0.15492
-0.13181	0.48277
-0.31033	0.81437
0.53123	-0.15492
0.30171	-0.53754
-0.53984	0.15117
-0.69285	-0.41000
-0.43783	0.15117
0.09770	-0.48652
0.53123	1.35003
0.73524	-0.05289
0.02119	-0.00188
0.70974	0.38074
0.48022	0.86539
0.32721	0.43176
0.73524	0.35523
0.73524	-0.02739
0.45472	-0.46102
-2.01894	-0.28246
-0.99887	0.25320
0.27621	0.15117
-0.23382	-0.15492
-0.43783	0.30422
1.32178	0.45726
2.80087	0.15117
0.50573	0.30422
-0.38683	0.07465
-0.89686	-0.12942
0.40372	0.22769
0.09770	-0.48652
0.27621	0.25320
0.93925	0.30422
0.02119	0.55929
0.07220	1.09496
-0.00431	0.96742
-0.18282	-0.56305
-1.15188	-0.84363
-0.64185	-1.07320
-0.94787	0.58480
-0.18282	0.63582
1.04126	0.50828
0.63323	0.32972
2.06133	0.15117
1.06676	0.07465
0.42922	0.25320
0.22521	0.10015
0.42922	0.15117
-1.63641	-0.48652
-0.41233	-0.66508
0.70974	0.38074
0.14870	0.20219
0.12320	0.25320
0.60773	-0.23145
0.83725	0.86539
-1.10088	0.73785
-1.40690	0.25320
-0.31033	-0.02739
0.12320	-0.81812
-0.46334	0.32972
1.16877	0.30422
1.32178	0.15117
1.16877	0.94191
0.50573	0.45726
-0.99887	0.07465
0.04670	0.10015
0.27621	-0.41000
0.60773	0.15117
-0.18282	-0.07840
-0.05531	0.35523
1.78081	-0.46102
-0.59084	0.07465
-0.38683	0.32972
0.09770	0.45726
-0.28482	-0.00188
-0.69285	-0.15492
-0.41233	0.25320
0.70974	1.09496
-0.84586	0.68683
-0.38683	-0.97117
-0.15732	-1.20074
0.14870	-0.61406
1.75531	1.14597
2.52035	1.63062
0.81175	0.61031
-0.00431	0.12566
-1.12638	-0.20594
1.01576	-1.04770
0.63323	-0.05289
-1.25389	0.73785
0.35272	1.06945
1.29628	-0.05289
-1.04987	0.10015
-1.45790	-0.00188
0.04670	0.22769
-1.20288	0.15117
0.09770	-0.30797
0.22521	-0.25695
0.99026	0.63582
1.24527	-0.46102
0.96476	-0.00188
-0.46334	-0.05289
0.25071	0.61031
0.93925	0.58480
0.35272	0.86539
-0.53984	0.73785
-0.46334	-0.79262
-0.18282	-0.84363
-0.00431	-0.02739
0.48022	0.55929
0.93925	0.20219
0.55673	-0.07840
0.22521	0.45726
0.60773	1.47757
-0.10631	0.91640
-0.15732	-0.38449
-1.40690	-0.89465
-1.48340	-0.63957
0.32721	-0.00188
0.68424	0.12566
1.14327	0.25320
0.68424	0.55929
-0.38683	0.53379
0.78624	0.02363
1.06676	-0.41000
0.14870	0.30422
0.12320	-0.25695
-0.46334	0.40625
-0.36133	0.81437
0.35272	0.66132
-0.13181	0.02363
-0.48884	-0.05289
-1.30489	-0.12942
0.88825	-0.05289
1.09226	0.10015
0.65874	0.12566
0.42922	-0.02739
-0.79486	0.12566
-0.10631	-0.48652
0.55673	0.38074
-0.13181	0.27871
0.19971	0.53379
0.60773	-0.07840
0.50573	0.48277
0.45472	0.58480
0.32721	0.71234
-0.13181	0.20219
0.22521	-0.63957
0.58223	0.07465
-0.53984	-0.69059
-1.02437	0.30422
0.02119	0.30422
0.45472	0.43176
0.17421	1.27351
0.60773	0.66132
0.17421	0.10015
-0.15732	-0.86914
-0.31033	-0.53754
0.25071	1.04394
0.40372	-0.20594
0.58223	0.68683
-0.94787	-0.20594
-0.15732	-0.20594
0.60773	0.50828
0.76074	0.27871
2.01032	0.15117
1.34728	-0.28246
0.37822	-0.25695
-0.25932	0.15117
-0.74385	0.38074
-0.18282	0.58480
-0.66735	-0.53754
-0.61635	-0.23145
1.24527	0.53379
-0.28482	0.68683
-0.53984	0.66132
-0.23382	0.20219
0.25071	-0.30797
0.02119	-0.25695
-0.02981	-0.69059
0.35272	0.32972
0.45472	0.66132
0.55673	0.27871
0.93925	0.27871
0.14870	-0.10391
-0.18282	0.25320
-1.15188	-0.12942
1.27078	0.76336
0.73524	-0.15492
0.37822	-0.07840
0.09770	0.10015
-0.25932	-0.18043
0.32721	0.35523
1.01576	-0.76711
0.02119	0.20219
-2.68198	0.43176
-0.51434	1.04394
0.99026	0.61031
0.12320	0.86539
-0.46334	-0.02739
0.81175	-0.15492
0.65874	-0.10391
0.37822	-0.53754
0.96476	-0.43551
0.30171	-0.35899
-0.28482	1.09496
-0.48884	-0.53754
0.60773	0.50828
0.17421	0.15117
-1.30489	-0.12942
-0.33583	-0.28246
1.32178	0.76336
0.22521	0.78886
0.50573	1.24800
0.83725	0.04914
0.02119	-0.46102
-0.33583	-0.15492
0.42922	0.10015
0.37822	0.20219
-0.64185	0.53379
-0.38683	0.10015
-1.45790	-0.51203
-0.25932	-0.56305
1.75531	0.35523
1.55129	0.76336
0.32721	0.48277
0.30171	-0.30797
0.22521	0.35523
0.14870	0.15117
-0.59084	0.04914
-0.18282	-0.58856
0.42922	-0.05289
0.58223	0.86539
-0.23382	0.71234
0.07220	0.22769
-0.66735	-0.35899
0.17421	0.20219
0.30171	-0.05289
0.88825	-0.12942
-0.66735	-0.02739
-1.02437	1.06945
0.30171	-0.28246
1.21977	0.81437
1.11776	0.02363
0.88825	-0.10391
-0.25932	-0.05289
0.02119	0.17668
-0.23382	-0.02739
-0.41233	0.55929
0.50573	0.10015
0.48022	-0.20594
-0.20832	-0.12942
-0.10631	0.15117
-0.69285	0.25320
0.68424	0.73785
0.78624	0.20219
0.35272	-0.07840
0.19971	-0.05289
-0.18282	0.32972
-0.59084	0.15117
0.12320	0.35523
0.37822	0.02363
0.42922	0.17668
0.65874	0.20219
0.68424	-0.07840
0.12320	-0.00188
0.19971	-0.00188
0.12320	0.10015
-2.01894	0.40625
0.32721	-0.07840
0.48022	0.22769
1.06676	-0.35899
-0.61635	-0.15492
0.42922	0.04914
0.68424	0.35523
0.37822	0.68683
0.22521	1.17148
-0.15732	0.94191
-0.20832	-0.15492
0.93925	0.53379
0.73524	-0.48652
-0.18282	-0.99668
-1.27939	-1.30277
-0.36133	0.43176
0.07220	0.96742
0.68424	1.09496
0.58223	0.45726
-0.15732	0.02363
0.04670	-0.18043
0.88825	0.61031
0.53123	-0.00188
-0.33583	-0.35899
-0.53984	-0.46102
-0.92237	0.10015
1.04126	0.66132
1.24527	-0.48652
-0.00431	0.81437
0.32721	0.45726
0.32721	0.17668
0.09770	0.10015
0.22521	0.32972
0.53123	0.55929
-0.00431	-0.53754
-0.64185	-0.97117
-0.00431	-0.71609
0.25071	0.45726
0.02119	0.96742
-1.61091	1.17148
-0.66735	0.53379
1.70430	-0.00188
1.72980	0.20219
1.55129	0.38074
0.53123	0.53379
-0.51434	0.15117
-0.66735	-0.12942
-0.28482	-0.38449
0.25071	-0.00188
-0.53984	0.10015
1.27078	0.12566
0.60773	-0.63957
-0.48884	0.81437
-0.05531	-0.00188
0.42922	-0.07840
-0.33583	0.10015
0.12320	-0.00188
0.14870	0.55929
0.22521	0.76336
0.27621	0.86539
-0.00431	0.66132
0.09770	0.10015
0.53123	-0.12942
0.65874	-1.48133
-0.51434	-0.69059
-1.38139	-0.00188
-0.13181	1.04394
1.65330	1.52859
0.35272	1.32453
-0.08081	-0.25695
0.91375	0.07465
0.27621	-0.56305
-0.56534	-0.10391
0.99026	1.14597
0.22521	0.30422
0.02119	-0.30797
-0.79486	-1.02219
-0.59084	-1.25176
-0.71835	0.15117
1.24527	0.73785
0.91375	0.55929
0.25071	0.58480
0.42922	0.48277
0.53123	0.83988
0.04670	0.22769
-0.66735	0.04914
-0.79486	-1.50683
-0.08081	0.25320
1.24527	0.76336
0.42922	0.38074
-0.02981	0.35523
-0.23382	0.20219
-0.10631	-0.12942
0.60773	0.10015
0.88825	-0.00188
0.50573	0.17668
0.09770	0.35523
-0.92237	-0.18043
-0.76936	0.48277
0.32721	0.32972
0.70974	0.48277
0.30171	0.07465
-0.10631	-0.86914
1.67880	-0.94566
0.99026	-0.20594
0.22521	0.94191
-0.38683	0.94191
-0.84586	0.48277
0.14870	0.66132
-0.51434	0.25320
0.07220	-0.20594
0.22521	-0.66508
0.04670	0.94191
0.04670	1.09496
0.83725	-0.86914
0.48022	-0.56305
0.32721	-0.15492
0.02119	0.35523
0.17421	0.45726
0.53123	0.22769
0.02119	0.50828
-0.18282	0.35523
0.48022	-0.92016
-0.18282	-1.04770
-0.23382	0.78886
-0.64185	0.68683
-0.43783	0.68683
0.53123	0.25320
0.73524	0.04914
0.55673	0.10015
0.55673	0.35523
0.63323	0.38074
0.02119	-0.07840
-0.64185	0.25320
-0.71835	-0.18043
-1.25389	0.15117
1.01576	0.20219
1.90832	-0.07840
0.91375	0.07465
0.35272	0.22769
-0.36133	-0.10391
-0.08081	0.22769
-0.05531	-0.10391
0.60773	0.30422
0.25071	0.83988
-0.20832	0.50828
-0.92237	0.55929
-0.61635	-0.38449
0.78624	-0.33348
0.27621	0.66132
0.53123	-0.69059
-0.61635	-0.38449
-0.38683	0.04914
0.83725	0.66132
0.70974	0.53379
0.12320	0.43176
0.04670	-0.15492
0.42922	-0.33348
1.04126	0.22769
0.53123	1.29902
-0.38683	0.30422
-0.76936	-0.18043
0.12320	0.20219
0.58223	0.04914
0.48022	0.27871
0.58223	-0.48652
-0.28482	-0.30797
-0.43783	-0.18043
-1.27939	-0.15492
0.07220	0.48277
0.37822	1.24800
0.58223	0.66132
1.29628	-0.00188
0.40372	0.12566
-1.07538	-0.38449
-0.31033	-0.25695
1.24527	0.66132
0.37822	0.25320
-0.48884	0.02363
0.81175	-0.00188
0.12320	0.63582
-0.48884	-0.18043
0.53123	0.12566
0.78624	-0.30797
0.22521	0.91640
-0.43783	0.40625
-0.25932	0.30422
0.45472	-0.63957
0.50573	-0.18043
-1.86593	-0.23145
-0.08081	-0.41000
1.16877	0.53379
1.24527	0.81437
0.83725	1.22250
0.27621	0.07465
0.42922	0.15117
-0.10631	-1.09871
-1.02437	0.25320
-0.25932	0.66132
0.32721	0.30422
-0.08081	-0.35899
-0.79486	0.20219
0.19971	0.25320
0.86275	0.32972
0.81175	-0.61406
0.63323	1.91120
0.70974	0.10015
0.83725	-0.30797
-0.13181	-0.86914
-0.43783	-0.35899
-2.09544	0.04914
-1.04987	0.35523
0.81175	0.63582
1.06676	0.76336
0.96476	0.63582
0.83725	-0.46102
0.76074	-0.00188
0.58223	0.27871
0.53123	0.27871
0.09770	0.32972
-1.33039	-0.66508
-2.12094	-0.07840
0.07220	0.15117
0.30171	0.22769
1.72980	0.10015
1.55129	0.35523
0.45472	0.53379
-0.71835	0.35523
-0.69285	0.71234
0.78624	0.25320
0.19971	-0.35899
0.12320	-0.46102
-0.28482	-0.35899
0.37822	0.20219
1.50029	0.38074
0.45472	0.20219
-0.41233	-0.05289
-0.87136	0.04914
-0.48884	0.83988
0.32721	0.02363
0.37822	0.17668
0.42922	0.22769
0.19971	0.02363
0.02119	0.02363
0.22521	0.12566
0.53123	0.58480
0.70974	-0.12942
0.22521	0.07465
-0.31033	0.04914
0.37822	-0.18043
0.09770	0.45726
0.30171	0.40625
0.07220	-0.48652
-0.43783	0.50828
-1.30489	0.27871
0.27621	0.61031
0.86275	0.38074
0.83725	0.27871
0.50573	-0.15492
0.65874	0.35523
0.32721	-0.35899
0.58223	-0.15492
0.37822	0.40625
-0.76936	-0.61406
-0.84586	0.07465
-1.04987	0.20219
-0.28482	0.66132
0.04670	0.50828
0.42922	0.25320
2.34184	0.15117
1.24527	-0.25695
-0.36133	0.27871
-0.46334	0.35523
0.14870	0.50828
0.22521	0.83988
0.22521	-0.12942
-0.10631	-0.41000
-0.79486	-0.41000
0.58223	-0.18043
-0.59084	-0.02739
0.25071	0.15117
0.78624	-0.25695
0.88825	0.35523
0.68424	0.35523
0.48022	0.04914
0.09770	0.58480
-0.56534	0.53379
-0.82036	0.55929
0.65874	0.35523
1.09226	0.38074
-0.02981	-0.53754
-0.38683	-0.25695
-0.87136	0.32972
-0.08081	0.27871
0.07220	-0.02739
1.37278	0.15117
0.70974	-0.07840
-0.48884	0.40625
1.42379	-0.10391
0.25071	0.17668
-0.41233	0.32972
-1.63641	-0.05289
-0.38683	0.12566
0.81175	-0.12942
0.76074	0.55929
0.83725	0.45726
0.48022	-0.35899
0.53123	0.32972
1.06676	0.22769
0.40372	-0.35899
-1.53441	0.10015
-0.43783	1.04394
-0.46334	0.81437
-1.20288	-0.05289
-0.02981	-0.33348
1.06676	0.68683
1.06676	-0.25695
0.81175	0.35523
0.30171	-0.86914
0.32721	0.02363
0.63323	-0.63957
-1.04987	0.20219
-0.38683	0.81437
-0.31033	0.66132
-0.18282	0.50828
0.70974	0.32972
0.50573	0.45726
0.27621	-0.12942
0.53123	-0.69059
0.68424	-0.20594
0.35272	0.63582
0.12320	0.15117
-0.18282	-0.23145
-0.59084	-0.20594
0.04670	0.20219
-0.08081	0.10015
-0.99887	0.76336
0.19971	0.45726
0.22521	-0.18043
1.34728	0.25320
0.93925	-0.48652
0.70974	0.25320
0.02119	0.96742
-0.38683	-0.61406
-0.28482	-0.02739
-0.13181	0.30422
0.27621	0.73785
0.40372	-0.10391
0.12320	-0.05289
0.14870	0.40625
0.04670	0.10015
0.07220	0.35523
0.30171	-0.10391
0.42922	0.40625
-0.08081	-0.30797
0.09770	-0.48652
-0.92237	-0.41000
-0.82036	1.14597
0.68424	0.15117
0.76074	-0.00188
0.42922	-0.20594
0.53123	0.25320
0.63323	1.22250
0.32721	0.27871
0.78624	0.30422
0.12320	-0.20594
-1.12638	-0.00188
0.76074	-0.12942
1.27078	-0.28246
-0.92237	0.35523
-0.89686	0.55929
-0.33583	0.27871
0.37822	0.96742
-0.00431	-0.30797
0.27621	-0.23145
0.93925	-0.86914
-0.69285	-0.18043
0.17421	-0.05289
-0.66735	0.73785
0.14870	0.17668
0.35272	0.43176
0.65874	0.35523
0.91375	0.10015
2.01032	-0.15492
0.88825	-0.05289
-0.59084	0.48277
-0.46334	0.10015
-1.50890	0.30422
-0.18282	0.66132
0.37822	0.94191
0.60773	0.30422
-0.48884	-0.12942
-0.25932	-1.09871
0.65874	0.07465
0.09770	0.04914
0.68424	-0.05289
0.30171	0.81437
0.42922	0.61031
0.40372	0.53379
0.25071	-0.30797
-0.53984	0.15117
-0.38683	-0.15492
-0.33583	0.17668
0.73524	0.48277
1.52579	0.22769
-0.20832	0.20219
-1.38139	-0.53754
-0.18282	-0.41000
0.48022	-0.46102
0.60773	0.25320
-0.38683	0.48277
-0.08081	0.86539
0.58223	0.55929
0.78624	0.48277
1.29628	0.32972
0.45472	0.38074
0.42922	0.22769
-0.20832	-0.15492
-0.92237	0.04914
0.04670	0.07465
0.48022	-0.41000
-0.10631	-0.43551
0.14870	-0.05289
0.12320	0.50828
-0.18282	-0.12942
-0.25932	0.32972
0.04670	0.35523
0.53123	0.35523
0.73524	-0.33348
0.50573	0.12566
0.14870	0.83988
0.12320	0.50828
-0.74385	0.43176
0.07220	-0.61406
-0.15732	0.04914
0.93925	-0.28246
-0.02981	0.76336
0.30171	-0.48652
0.60773	0.73785
0.48022	-0.25695
0.14870	0.12566
-0.41233	0.22769
0.19971	0.38074
0.65874	0.32972
-0.48884	-0.12942
-0.41233	0.55929
-2.04444	-0.23145
0.45472	-0.05289
1.04126	0.04914
0.88825	0.02363
0.88825	0.71234
0.68424	0.76336
0.63323	0.22769
0.14870	-0.66508
-0.18282	-0.15492
-1.38139	-0.02739
0.30171	0.25320
0.60773	0.25320
0.35272	0.50828
-0.51434	-0.28246
-0.23382	-0.15492
-0.10631	-0.71609
-0.89686	0.45726
-0.02981	0.91640
1.29628	0.96742
0.99026	0.53379
0.37822	0.22769
-0.05531	0.04914
0.58223	-0.00188
1.21977	1.04394
0.32721	-0.33348
-0.13181	-0.58856
-0.99887	-1.91496
-0.59084	0.48277
1.47479	1.35003
-0.33583	0.91640
-0.56534	-0.10391
0.19971	0.12566
0.30171	0.40625
0.25071	-0.07840
0.65874	0.02363
0.02119	0.55929
-0.02981	0.63582
0.68424	-0.56305
-0.00431	-0.18043
0.14870	0.10015
0.02119	0.35523
-0.31033	0.25320
0.55673	0.20219
-0.18282	0.02363
-0.00431	-0.05289
0.04670	0.02363
0.22521	-0.20594
0.32721	0.02363
0.12320	0.89089
1.70430	0.58480
0.55673	-0.00188
-0.94787	-1.04770
0.55673	0.12566
0.35272	0.30422
-0.56534	0.66132
0.14870	0.45726
-0.00431	0.38074
0.04670	0.83988
0.22521	0.38074
-0.08081	-0.25695
-0.02981	-0.89465
0.07220	-0.18043
-0.94787	0.43176
-0.36133	-0.33348
0.88825	-0.05289
0.96476	0.22769
0.83725	0.12566
0.02119	0.17668
0.17421	0.43176
0.17421	0.43176
-0.18282	0.45726
0.12320	1.42656
0.53123	-0.76711
-0.00431	-1.55785
-0.25932	-1.12422
-0.25932	1.19699
0.19971	1.14597
0.09770	0.71234
-0.69285	0.61031
0.91375	0.15117
1.34728	-0.84363
0.32721	-0.63957
0.27621	0.17668
-0.28482	0.58480
-0.79486	0.38074
0.12320	0.58480
0.53123	0.22769
-0.36133	-0.20594
-0.10631	-1.07320
0.42922	0.50828
1.06676	0.68683
0.93925	0.48277
-0.15732	0.17668
-0.53984	0.30422
0.02119	0.40625
-0.15732	0.10015
0.76074	-0.38449
0.07220	0.35523
-0.08081	-1.30277
-0.25932	-0.12942
0.50573	-0.10391
-0.23382	0.96742
0.73524	0.96742
0.81175	1.09496
0.19971	0.22769
0.40372	-0.23145
0.12320	-0.05289
-0.97337	0.63582
-0.10631	0.12566
0.70974	-0.51203
0.14870	0.10015
-0.05531	-0.69059
0.22521	-0.46102
0.07220	0.55929
1.11776	0.86539
-0.28482	0.53379
-0.15732	0.10015
0.40372	0.17668
0.09770	0.40625
-0.36133	-0.12942
0.09770	-0.84363
0.68424	-0.10391
0.99026	0.55929
-0.53984	0.43176
-0.10631	0.12566
-0.51434	0.12566
0.81175	0.25320
0.07220	0.25320
0.27621	0.40625
0.35272	0.12566
0.30171	-0.18043
0.86275	-0.10391
0.45472	-0.38449
0.22521	0.12566
-1.50890	0.94191
-0.82036	0.86539
0.19971	0.40625
0.76074	-0.63957
0.83725	-0.53754
0.09770	-0.63957
0.48022	0.76336
0.48022	0.94191
0.50573	0.89089
-0.18282	0.22769
-0.79486	-0.25695
-0.51434	-0.51203
-0.64185	-0.53754
0.55673	0.07465
0.88825	0.07465
0.58223	0.45726
0.68424	0.22769
0.78624	0.50828
0.55673	0.38074
0.32721	0.66132
-1.02437	0.07465
-0.43783	-0.28246
-0.28482	-1.22625
-0.41233	0.15117
0.32721	0.15117
0.50573	0.99292
0.73524	0.76336
0.65874	-0.23145
0.63323	0.38074
0.48022	0.17668
-0.28482	-0.35899
-0.56534	-0.35899
-0.41233	-0.20594
0.32721	0.50828
-0.05531	0.22769
0.09770	0.68683
0.35272	0.58480
0.27621	0.07465
0.65874	-0.35899
-0.08081	0.07465
0.09770	0.22769
0.48022	-0.02739
0.22521	0.17668
0.83725	0.81437
-0.59084	-0.38449
0.35272	-0.63957
0.48022	-0.35899
-2.12094	0.22769
-0.23382	0.86539
1.04126	0.12566
0.76074	0.15117
0.19971	-0.30797
0.53123	0.04914
0.68424	0.86539
0.37822	0.38074
-0.31033	0.15117
-0.28482	-0.12942
0.07220	0.12566
-0.53984	0.30422
0.37822	0.35523
0.32721	0.15117
0.88825	-0.76711
0.53123	-1.27726
0.02119	-0.66508
-1.48340	0.45726
-0.41233	1.55410
0.37822	0.86539
0.63323	0.58480
0.70974	0.83988
0.86275	0.45726
0.73524	0.10015
0.35272	-0.43551
-0.92237	0.07465
-0.00431	-0.10391
0.42922	0.12566
0.02119	-0.48652
-0.15732	-0.02739
-0.08081	-0.46102
-0.00431	0.48277
0.04670	0.17668
0.32721	0.22769
0.30171	0.55929
0.48022	0.63582
0.19971	0.81437
0.53123	-0.51203
-0.43783	-0.66508
-1.35589	0.53379
-0.00431	0.96742
0.58223	-0.15492
1.29628	-0.51203
1.47479	0.12566
-0.59084	0.38074
-0.51434	0.25320
0.63323	0.22769
-1.07538	-0.05289
0.65874	0.43176
0.81175	0.15117
0.50573	0.43176
-0.51434	-0.00188
0.12320	-0.25695
0.91375	-0.56305
0.27621	0.40625
-0.87136	0.04914
0.30171	0.07465
-1.04987	0.30422
-0.61635	0.81437
0.32721	0.76336
0.45472	0.17668
0.35272	-0.58856
0.42922	-0.53754
0.25071	0.22769
-0.23382	0.43176
0.48022	0.32972
0.58223	0.12566
0.65874	0.55929
0.58223	-0.23145
-0.41233	-0.43551
-0.87136	-0.69059
0.42922	0.20219
-0.56534	2.19179
-0.02981	-0.02739
0.25071	-0.76711
1.57679	-0.46102
0.93925	0.63582
-0.13181	0.63582
-0.99887	0.30422
-0.53984	-0.00188
0.19971	0.07465
0.42922	0.25320
0.32721	0.53379
0.32721	0.35523
-0.41233	-0.33348
0.30171	-0.48652
0.83725	-0.69059
0.30171	0.40625
-0.13181	0.83988
-0.48884	0.45726
-0.43783	0.30422
0.02119	-0.41000
0.88825	0.25320
0.48022	0.27871
-0.43783	0.78886
0.42922	-0.25695
0.32721	0.10015
-0.18282	0.04914
0.17421	-0.66508
0.55673	-0.18043
0.09770	0.89089
-0.69285	0.71234
0.27621	-0.56305
1.16877	-0.94566
-0.20832	0.12566
-0.20832	0.73785
-1.33039	0.96742
0.14870	0.40625
2.03582	0.02363
-0.02981	0.38074
0.48022	0.53379
-0.02981	0.45726
-0.53984	-0.48652
0.45472	0.10015
0.27621	-0.25695
-0.02981	-0.00188
-0.66735	-0.05289
-0.53984	0.38074
0.60773	0.10015
0.68424	0.71234
0.35272	-0.05289
0.30171	-0.35899
0.30171	-0.79262
0.30171	0.12566
0.48022	1.22250
-0.08081	0.63582
-0.13181	0.15117
-0.43783	0.15117
0.14870	0.07465
-0.53984	-0.15492
-0.56534	0.40625
0.91375	0.22769
0.91375	0.43176
0.32721	0.04914
0.17421	0.40625
0.32721	-0.05289
0.37822	-0.35899
0.35272	-1.37929
0.25071	0.12566
0.30171	0.96742
-0.94787	0.96742
-1.12638	0.25320
0.17421	-0.18043
1.14327	-0.00188
0.60773	0.27871
0.14870	0.25320
0.35272	0.07465
0.19971	-0.20594
0.45472	-0.05289
-0.69285	0.40625
-0.66735	0.66132
0.78624	-0.25695
0.83725	-0.12942
0.17421	0.45726
-0.43783	0.02363
-1.71292	0.10015
0.70974	0.12566
0.40372	0.58480
0.73524	-0.30797
1.60230	-0.07840
0.93925	0.35523
-0.36133	0.35523
-0.59084	0.55929
-0.20832	-0.25695
-0.20832	-0.48652
0.27621	0.07465
0.27621	0.12566
0.12320	0.22769
0.32721	0.40625
0.14870	0.86539
-0.10631	-0.05289
0.19971	-0.35899
0.55673	-0.12942
-0.05531	0.15117
0.12320	0.35523
0.02119	0.17668
0.14870	0.78886
0.30171	0.30422
-0.41233	-0.02739
0.14870	0.45726
0.19971	-0.48652
0.40372	0.78886
0.68424	-0.81812
0.32721	-0.20594
0.27621	0.15117
-0.61635	0.17668
-0.25932	0.35523
0.63323	-0.00188
-0.00431	0.32972
-0.31033	0.78886
-0.74385	0.89089
1.09226	-0.18043
0.50573	-0.18043
-0.36133	-0.38449
0.12320	0.45726
1.55129	0.10015
-0.48884	0.40625
-0.15732	0.10015
1.75531	-0.46102
0.45472	-0.28246
-0.02981	0.20219
-0.46334	0.71234
-0.69285	0.66132
0.12320	0.45726
-0.13181	-0.18043
0.02119	0.22769
-0.59084	0.02363
-0.13181	0.12566
0.65874	-0.00188
0.60773	0.04914
0.17421	0.02363
0.09770	-0.12942
0.17421	0.22769
0.30171	0.27871
0.45472	0.20219
0.27621	0.96742
-0.08081	-0.41000
-0.08081	0.35523
0.25071	-0.38449
0.07220	-0.15492
-0.25932	-0.23145
0.22521	0.17668
0.22521	0.04914
0.53123	0.43176
0.45472	0.66132
0.09770	0.76336
-0.36133	0.30422
-0.33583	0.68683
0.42922	-0.15492
0.50573	0.15117
0.02119	-0.46102
0.02119	-1.04770
0.25071	-0.48652
0.48022	0.35523
0.63323	0.53379
0.78624	0.61031
-0.05531	0.25320
-0.20832	-0.02739
0.50573	-0.35899
-0.69285	-0.00188
-0.84586	-0.51203
-0.99887	0.58480
-0.64185	0.73785
1.21977	0.66132
1.55129	0.20219
0.83725	0.22769
0.65874	0.53379
-0.59084	0.30422
-0.28482	0.12566
-0.23382	-0.30797
-0.13181	-0.12942
0.42922	0.15117
0.73524	0.20219
0.37822	0.04914
0.12320	-0.23145
0.35272	0.20219
0.37822	0.53379
-0.18282	-0.25695
-0.25932	-0.00188
0.02119	-0.53754
0.17421	-0.25695
-0.08081	0.15117
0.17421	0.86539
0.02119	0.53379
-0.61635	0.73785
0.09770	0.89089
0.78624	0.45726
0.50573	-0.00188
0.30171	-0.86914
0.19971	-0.51203
0.27621	-0.07840
0.07220	-0.25695
-0.79486	0.45726
0.30171	-0.00188
0.93925	-0.25695
0.83725	0.76336
0.45472	1.88570
-0.92237	-0.02739
0.22521	-0.76711
0.53123	-1.40480
-0.18282	-0.15492
0.40372	0.76336
0.30171	0.66132
-0.10631	0.32972
0.14870	0.04914
-0.10631	0.20219
0.02119	0.43176
-0.56534	0.83988
-0.02981	-0.10391
0.93925	-0.07840
0.12320	-0.43551
0.37822	-0.05289
-0.10631	0.17668
0.09770	0.25320
-0.08081	0.66132
0.55673	0.27871
0.30171	0.30422
0.19971	0.48277
0.76074	0.58480
-0.15732	-0.81812
-0.33583	-1.17523
-0.46334	0.10015
0.68424	0.66132
0.30171	-0.02739
-0.25932	0.22769
-0.08081	0.20219
0.35272	0.73785
0.83725	0.53379
-0.89686	0.58480
-0.15732	0.02363
0.30171	0.12566
0.40372	0.27871
0.60773	-0.00188
0.65874	-0.53754
0.25071	-0.20594
-0.31033	0.10015
-0.61635	0.12566
-0.08081	0.45726
0.32721	0.61031
0.37822	0.12566
0.81175	-0.12942
0.63323	-0.56305
0.07220	0.40625
-0.23382	0.35523
