0.12320	0.32972
0.09770	-0.05289
0.17421	0.04914
0.17421	0.10015
0.12320	-0.02739
0.22521	0.22769
0.07220	0.15117
0.09770	0.35523
0.12320	0.38074
0.14870	0.10015
0.12320	0.07465
0.07220	-0.00188
0.19971	-0.05289
0.14870	0.10015
0.02119	0.15117
0.17421	0.12566
0.22521	0.30422
0.04670	0.12566
0.17421	0.20219
0.07220	0.04914
0.12320	0.12566
0.25071	0.35523
0.12320	0.17668
0.09770	0.17668
0.12320	-0.00188
0.09770	-0.02739
0.19971	-0.02739
0.17421	-0.02739
-0.13181	0.04914
0.17421	0.04914
0.17421	0.53379
0.14870	0.53379
0.17421	0.32972
0.17421	0.15117
0.22521	0.04914
0.07220	0.07465
0.14870	-0.05289
0.14870	0.17668
-0.00431	0.10015
0.09770	0.07465
0.50573	0.12566
0.07220	0.04914
0.12320	0.20219
0.09770	0.20219
0.12320	0.10015
0.25071	0.07465
0.22521	0.15117
-0.08081	0.15117
0.42922	0.27871
0.14870	0.22769
0.25071	0.15117
0.19971	0.15117
0.04670	0.10015
0.14870	0.17668
0.12320	0.07465
0.14870	0.15117
0.19971	0.15117
0.12320	0.10015
0.09770	0.20219
0.19971	0.12566
0.09770	0.17668
0.25071	0.15117
0.07220	0.04914
0.14870	0.07465
-0.00431	0.02363
0.32721	0.10015
0.17421	0.30422
0.12320	0.07465
0.07220	0.20219
0.19971	0.30422
0.09770	0.17668
0.17421	0.10015
-0.00431	-0.10391
0.22521	-0.30797
0.27621	-0.05289
0.07220	0.35523
0.22521	0.27871
0.17421	0.30422
0.14870	0.40625
0.17421	0.40625
0.07220	0.22769
0.14870	0.20219
0.07220	-0.07840
0.19971	0.20219
0.17421	0.15117
0.12320	0.12566
0.37822	0.10015
0.02119	0.07465
0.12320	0.04914
0.25071	-0.07840
-0.08081	0.17668
0.12320	0.15117
0.19971	0.04914
0.19971	0.20219
0.22521	0.12566
0.19971	0.15117
0.19971	0.32972
-0.05531	0.20219
0.22521	0.22769
0.12320	0.15117
0.04670	0.12566
0.12320	0.22769
0.17421	0.07465
0.12320	0.07465
0.19971	0.20219
0.04670	0.04914
0.04670	0.12566
0.14870	0.07465
0.07220	0.07465
0.19971	0.15117
0.14870	0.20219
-0.28482	0.12566
0.30171	0.12566
0.58223	0.04914
0.30171	0.04914
-0.02981	0.07465
0.04670	0.30422
0.14870	0.15117
-0.25932	0.07465
0.12320	0.07465
0.07220	-0.05289
0.07220	0.20219
0.32721	0.32972
0.09770	0.35523
0.27621	0.27871
0.19971	-0.05289
0.17421	0.22769
0.14870	0.12566
0.09770	0.07465
0.07220	0.10015
0.07220	0.12566
0.12320	0.04914
0.22521	-0.00188
0.07220	0.07465
0.17421	0.12566
0.32721	0.22769
-0.38683	0.32972
0.22521	0.15117
0.25071	0.15117
0.12320	0.25320
0.09770	0.07465
0.32721	0.15117
0.09770	0.07465
0.14870	0.02363
0.22521	0.22769
0.07220	0.30422
0.14870	-0.00188
0.25071	-0.00188
0.04670	0.12566
0.14870	0.02363
0.07220	0.45726
0.09770	0.25320
0.17421	0.17668
0.17421	0.25320
0.27621	0.12566
-0.08081	0.04914
0.32721	0.12566
0.02119	0.10015
0.07220	0.07465
0.25071	0.02363
-0.10631	0.02363
0.19971	0.20219
0.17421	0.10015
0.02119	0.22769
0.17421	0.07465
0.35272	0.04914
0.14870	0.25320
0.07220	0.30422
0.09770	0.40625
0.09770	0.07465
0.04670	0.10015
0.22521	0.10015
0.12320	0.12566
0.17421	0.15117
0.14870	-0.18043
0.09770	0.07465
0.14870	0.32972
0.12320	0.38074
0.12320	0.25320
0.12320	0.07465
0.12320	0.04914
0.17421	-0.00188
0.12320	0.15117
0.19971	0.07465
0.12320	0.15117
0.17421	0.17668
0.12320	0.12566
0.14870	0.17668
0.12320	0.35523
0.07220	0.15117
0.22521	0.07465
0.04670	-0.02739
0.22521	-0.15492
0.17421	-0.48652
0.12320	0.45726
0.12320	0.55929
0.04670	0.66132
0.17421	0.43176
0.07220	0.07465
0.25071	-0.05289
0.12320	-0.12942
0.25071	0.10015
0.19971	-0.00188
0.07220	0.40625
0.19971	0.15117
0.12320	0.04914
0.17421	0.07465
0.04670	0.22769
0.30171	0.27871
0.02119	0.22769
-0.28482	0.17668
0.12320	0.02363
0.32721	0.17668
0.60773	-0.05289
0.14870	0.02363
-0.18282	0.02363
0.09770	0.27871
0.17421	0.25320
0.04670	0.20219
0.17421	0.22769
0.07220	0.10015
0.17421	0.07465
0.19971	-0.05289
0.14870	0.15117
0.14870	0.07465
0.17421	0.17668
0.22521	0.22769
0.02119	0.32972
0.17421	0.48277
0.07220	0.25320
0.07220	0.12566
0.14870	-0.00188
0.09770	-0.02739
0.17421	-0.25695
0.07220	0.02363
0.14870	0.38074
0.09770	0.40625
0.17421	0.38074
0.17421	0.22769
-0.00431	-0.05289
0.45472	-0.20594
0.27621	-0.12942
0.09770	-0.25695
0.07220	0.07465
0.07220	0.02363
0.12320	0.35523
0.12320	0.83988
0.12320	0.50828
0.12320	0.45726
0.19971	0.40625
0.14870	0.22769
0.19971	0.04914
0.09770	0.15117
0.22521	-0.35899
0.14870	-0.35899
0.17421	-0.56305
0.14870	-0.81812
0.12320	0.12566
0.12320	0.81437
0.07220	0.76336
0.07220	0.63582
0.25071	0.35523
0.07220	0.43176
0.12320	0.35523
0.14870	0.04914
0.12320	0.35523
0.25071	-0.18043
0.14870	-0.66508
-0.08081	-0.41000
0.19971	-0.84363
0.14870	-0.18043
0.17421	1.04394
0.19971	1.17148
0.12320	0.83988
0.22521	0.48277
0.22521	0.12566
0.09770	0.10015
0.32721	0.22769
-0.31033	-0.46102
0.25071	-0.15492
0.04670	-0.15492
0.17421	-0.30797
0.25071	0.15117
0.14870	0.30422
0.25071	0.45726
0.14870	0.35523
0.19971	0.27871
0.14870	0.25320
0.12320	0.15117
0.22521	0.35523
0.04670	0.53379
0.19971	-0.28246
0.07220	-0.56305
0.22521	-0.66508
0.07220	0.55929
0.27621	0.63582
0.09770	0.53379
0.04670	0.35523
-0.02981	0.15117
0.12320	0.25320
-0.02981	0.27871
0.30171	0.10015
0.35272	-0.38449
0.27621	-0.33348
0.30171	-0.00188
0.07220	0.45726
0.27621	0.50828
0.07220	0.45726
-0.08081	0.43176
-0.05531	0.12566
0.19971	0.10015
0.07220	-0.02739
0.19971	0.20219
0.30171	-0.10391
0.19971	-0.02739
0.14870	-0.12942
0.22521	0.12566
0.53123	0.15117
-0.02981	-0.53754
-0.33583	-0.18043
-0.28482	0.63582
-0.23382	0.63582
0.32721	0.25320
0.42922	0.35523
0.32721	0.35523
0.37822	0.63582
0.35272	0.61031
0.19971	0.63582
0.02119	0.73785
0.17421	-1.78742
0.25071	-0.74160
-0.05531	0.53379
-0.00431	-0.86914
0.14870	0.25320
0.02119	1.73265
0.14870	0.94191
0.40372	-0.00188
0.32721	-0.30797
0.19971	-2.06800
-0.41233	-0.76711
-0.82036	0.50828
-0.38683	0.96742
0.53123	0.89089
0.60773	0.73785
0.27621	0.38074
0.83725	0.25320
0.83725	0.83988
0.32721	0.15117
0.12320	0.30422
0.22521	0.45726
-0.23382	-1.50683
-1.30489	-0.97117
-0.23382	-0.46102
0.50573	0.55929
0.53123	0.66132
0.53123	-0.81812
0.63323	-0.15492
0.45472	1.55410
-0.13181	0.94191
-0.15732	1.01843
0.19971	1.22250
0.12320	0.86539
0.04670	0.45726
0.04670	0.27871
0.07220	-1.68539
0.04670	-0.05289
0.09770	-1.37929
0.07220	-0.89465
0.19971	-1.76191
0.19971	-1.78742
0.12320	0.83988
0.17421	1.35003
-0.15732	2.59991
0.27621	2.24281
0.17421	1.60511
0.48022	0.10015
0.37822	0.48277
0.22521	-0.56305
0.22521	-0.46102
-0.08081	-0.07840
0.19971	-1.30277
0.32721	0.45726
-0.05531	0.38074
-0.69285	-1.76191
-0.02981	-1.53234
-0.31033	-0.86914
-0.31033	0.96742
0.81175	1.83468
0.68424	2.29382
0.32721	0.96742
0.45472	0.30422
0.25071	0.04914
0.58223	1.32453
0.09770	-0.28246
-0.18282	-0.35899
0.40372	-0.76711
-0.18282	-0.00188
-0.28482	-1.60887
-0.56534	-0.35899
0.37822	0.20219
0.14870	0.78886
1.27078	1.73265
-0.23382	-0.15492
-1.96793	1.06945
0.42922	-2.04250
0.68424	-1.07320
0.88825	-2.27207
0.50573	2.08976
0.25071	3.39065
0.07220	2.93151
-0.02981	0.20219
0.14870	-1.99148
-0.18282	-3.72601
0.07220	0.66132
0.63323	2.26831
-0.13181	2.06425
0.02119	1.55410
-0.43783	0.17668
-0.28482	0.35523
0.73524	-1.68539
0.73524	-3.77702
0.32721	-3.57296
0.45472	0.63582
0.07220	2.59991
0.07220	1.96222
-0.28482	1.68163
-1.17738	0.86539
-0.18282	0.68683
0.60773	1.06945
0.86275	-0.84363
0.81175	-0.86914
0.76074	-1.81293
0.27621	0.15117
0.35272	0.25320
-0.05531	-0.02739
-0.36133	1.01843
-0.69285	0.66132
-1.45790	0.27871
0.12320	0.40625
0.96476	1.01843
1.21977	1.32453
0.76074	-0.25695
1.34728	-3.41992
-0.56534	-0.84363
-1.10088	-0.23145
0.88825	0.63582
0.45472	1.50308
-0.66735	0.68683
-0.74385	1.09496
0.32721	0.81437
0.27621	2.31933
0.25071	0.02363
0.68424	0.71234
0.99026	2.44687
0.17421	-1.78742
-0.64185	-3.13933
-0.38683	-6.35331
-0.36133	-0.92016
1.27078	0.10015
0.88825	1.75816
0.22521	2.52339
-1.02437	2.39585
-1.40690	2.01323
-0.59084	2.37034
0.96476	-1.02219
1.39828	-1.43031
0.37822	-1.04770
0.76074	0.17668
0.76074	0.27871
0.07220	0.35523
0.22521	0.38074
0.02119	1.96222
-0.20832	-0.61406
-0.48884	-1.86394
-0.20832	-1.40480
0.12320	0.91640
0.91375	0.83988
-0.92237	-0.63957
-0.51434	-1.25176
-0.82036	-0.10391
-0.38683	3.44167
-0.38683	4.43647
1.98482	-0.97117
2.39285	-3.36890
1.01576	-2.85874
-0.66735	0.73785
-0.61635	1.75816
-1.45790	0.99292
0.19971	0.38074
0.45472	1.04394
1.50029	0.22769
1.32178	-0.05289
0.81175	-1.32828
-0.76936	-2.11902
-0.38683	-1.09871
0.35272	0.00000
-0.20832	0.00000
-0.84586	0.00000
-0.89686	0.00000
-0.92237	0.00000
1.16877	2.90601
0.76074	2.06425
0.60773	-0.38449
0.19971	0.76336
0.04670	-2.29757
0.17421	1.96222
0.12320	-1.78742
0.25071	-0.63957
0.73524	1.17148
-0.23382	4.07936
-0.59084	0.12566
-0.61635	-4.79733
0.42922	-3.54745
0.81175	0.32972
0.12320	3.31413
0.07220	3.00804
-0.64185	1.96222
0.42922	0.83988
0.48022	0.66132
1.09226	1.83468
0.50573	-1.09871
1.75531	-3.08831
1.85731	-1.65988
-1.35589	-0.20594
-2.27395	0.43176
-0.33583	0.32972
-0.53984	0.86539
-0.43783	-0.35899
1.37278	1.37554
0.12320	-0.00188
0.76074	0.17668
-0.00431	-0.53754
-1.04987	0.83988
0.04670	2.08976
1.01576	-0.84363
0.37822	-0.63957
0.32721	-2.60367
0.09770	0.27871
0.14870	1.22250
0.09770	1.96222
0.22521	1.70714
0.09770	0.25320
0.17421	0.71234
-0.02981	-1.07320
0.12320	-0.20594
-0.00431	-0.20594
0.27621	-1.73640
0.19971	-0.10391
-0.36133	-1.04770
0.27621	1.24800
-0.02981	0.76336
-0.61635	1.12046
0.83725	1.17148
0.88825	0.43176
-0.20832	0.17668
-0.10631	-0.51203
0.09770	-0.35899
0.93925	0.45726
0.02119	-0.23145
0.55673	1.06945
-0.61635	-0.81812
0.09770	-0.23145
-0.43783	-1.63437
0.37822	0.20219
0.30171	1.27351
0.27621	0.96742
-0.08081	0.66132
0.25071	0.35523
0.42922	0.12566
1.01576	0.68683
0.55673	-0.23145
-0.23382	2.90601
-1.17738	-3.82804
-1.43240	-0.02739
-0.61635	-4.64429
0.86275	0.66132
0.37822	2.14077
0.37822	2.59991
0.83725	1.80917
1.09226	1.12046
1.01576	0.66132
0.40372	-1.17523
0.07220	-1.27726
-1.25389	-0.20594
-0.61635	0.99292
0.60773	-0.35899
0.40372	-0.35899
0.07220	-0.20594
-0.08081	0.35523
0.27621	1.86019
0.35272	1.52859
0.02119	-3.67499
0.22521	-4.54226
-0.48884	-0.89465
0.63323	2.88050
0.14870	1.27351
0.19971	1.75816
0.99026	2.52339
0.53123	3.00804
-0.84586	-0.69059
-0.56534	-1.50683
0.70974	-2.50164
1.50029	0.66132
0.86275	0.45726
-2.17195	0.35523
-1.55991	0.53379
0.70974	0.32972
1.06676	0.45726
2.69887	-0.07840
0.14870	-2.65468
-0.59084	-1.94047
-0.43783	-0.12942
-0.92237	1.93671
0.04670	1.65613
0.65874	1.35003
1.14327	0.99292
-0.10631	0.94191
0.02119	0.99292
0.60773	-2.09351
-0.46334	-1.09871
-0.28482	-2.65468
0.30171	0.76336
0.35272	1.47757
0.07220	1.04394
-0.36133	0.32972
0.17421	1.01843
0.63323	0.83988
0.27621	-0.23145
0.37822	0.17668
-0.10631	-0.12942
-0.23382	-1.14973
0.73524	-1.68539
0.32721	-2.45062
0.09770	1.32453
0.27621	2.49788
-0.00431	2.70194
0.04670	2.19179
0.25071	-0.79262
0.02119	-1.96597
-0.51434	-2.60367
-0.51434	0.40625
1.06676	0.73785
1.39828	0.40625
1.19427	0.81437
-0.97337	1.70714
-0.82036	-0.86914
-1.66191	-0.86914
1.01576	-0.97117
1.50029	0.81437
-0.20832	0.66132
-0.79486	0.86539
1.78081	0.10015
0.81175	-0.28246
2.18883	0.86539
-0.18282	1.12046
-1.22839	0.02363
-1.58541	-1.55785
-0.97337	-2.78222
0.63323	0.63582
-0.00431	1.06945
1.72980	1.04394
0.58223	-0.02739
0.32721	1.37554
0.04670	1.06945
-0.43783	0.94191
-0.23382	0.50828
-0.23382	-1.30277
-0.08081	-1.22625
0.35272	1.12046
0.32721	1.57960
-0.08081	0.55929
0.48022	-3.39441
0.76074	-3.08831
0.30171	-0.46102
0.37822	2.29382
-0.05531	2.34484
-0.15732	2.29382
1.19427	1.35003
-0.48884	-0.46102
-0.31033	-1.58336
-0.84586	-0.99668
-0.59084	-0.02739
1.04126	0.53379
0.58223	0.43176
0.48022	0.91640
1.09226	-0.00188
-1.02437	-0.97117
-0.97337	-1.58336
0.91375	1.65613
1.39828	1.27351
0.58223	0.40625
1.14327	0.50828
-0.31033	0.38074
-0.61635	0.32972
-0.43783	0.94191
0.19971	-0.84363
0.53123	-0.63957
-1.20288	-1.76191
-0.38683	-1.27726
-0.69285	0.27871
0.50573	1.27351
1.80631	1.57960
1.11776	1.55410
0.53123	1.22250
0.70974	0.20219
-0.41233	-0.76711
-1.86593	-0.99668
-0.41233	-0.56305
0.81175	1.50308
0.22521	-0.18043
0.07220	-0.07840
0.40372	-1.53234
0.53123	-0.33348
0.09770	0.12566
0.17421	0.55929
0.09770	1.32453
0.19971	1.37554
0.55673	0.78886
0.58223	-0.46102
0.07220	0.55929
1.04126	0.76336
-0.48884	0.32972
-2.12094	-3.01179
-1.66191	-3.31788
-0.23382	-0.12942
1.52579	2.54890
1.90832	2.08976
2.11233	0.96742
1.44929	0.86539
-0.48884	0.81437
-0.02981	-0.00188
0.25071	0.04914
0.60773	-0.56305
-0.69285	-0.28246
-0.38683	0.10015
-1.10088	0.12566
-0.69285	1.09496
-1.63641	-0.92016
-1.04987	-0.81812
2.03582	-0.53754
0.25071	0.53379
1.01576	0.12566
1.57679	0.40625
-0.51434	0.89089
1.09226	1.27351
1.83181	2.06425
-0.56534	0.10015
-0.43783	-1.30277
-0.18282	-1.63437
-0.59084	0.61031
-0.08081	1.12046
0.14870	0.27871
-0.13181	-1.63437
-0.31033	0.17668
0.17421	-2.01699
0.42922	1.65613
0.40372	1.80917
-0.36133	1.06945
0.04670	0.96742
0.22521	-0.25695
1.01576	-0.86914
1.29628	1.04394
0.14870	0.40625
-0.76936	-1.35379
-0.25932	-2.37410
-0.64185	-1.40480
0.50573	0.12566
-2.17195	1.70714
1.44929	1.37554
0.83725	0.96742
1.39828	-0.05289
2.31634	0.48277
1.16877	1.47757
-0.89686	0.61031
-1.40690	0.15117
-0.15732	-0.76711
-0.08081	-0.46102
-0.84586	-0.38449
-0.64185	-0.66508
-0.76936	-0.23145
1.32178	1.22250
1.24527	2.08976
0.50573	-1.27726
-1.20288	-1.40480
-1.10088	-1.50683
1.29628	0.76336
0.86275	2.06425
0.76074	-0.33348
-0.61635	1.12046
0.35272	0.25320
0.65874	1.86019
-0.18282	0.50828
0.14870	-0.69059
-0.05531	-0.38449
0.07220	1.12046
0.35272	0.63582
-0.20832	-1.78742
0.55673	-2.29757
0.35272	-0.69059
-0.05531	-0.76711
-0.79486	0.86539
0.12320	1.37554
0.02119	1.93671
0.48022	2.57441
0.63323	0.35523
0.27621	0.07465
0.73524	-0.99668
-0.48884	-0.94566
-1.10088	-0.74160
-0.41233	-0.05289
0.99026	0.53379
0.37822	0.99292
1.21977	-0.05289
1.11776	-0.00188
1.34728	-0.56305
0.25071	0.32972
-0.25932	-0.07840
-0.56534	1.22250
-1.66191	0.71234
-0.64185	-1.30277
-0.89686	-1.20074
-0.08081	-0.61406
1.70430	0.66132
0.76074	1.01843
-0.38683	1.27351
2.57136	0.89089
0.99026	1.09496
-0.18282	-1.17523
-0.18282	0.45726
-0.69285	0.86539
-0.71835	0.07465
-0.48884	-0.02739
-0.33583	-1.27726
-0.02981	-0.84363
0.45472	-0.94566
-0.64185	-0.63957
0.48022	0.78886
0.78624	1.14597
0.19971	2.24281
0.30171	0.99292
0.48022	0.35523
0.42922	0.07465
0.55673	-2.39961
0.02119	-1.07320
0.07220	-0.61406
-0.41233	1.32453
0.12320	2.34484
-0.13181	0.73785
-0.20832	0.40625
1.29628	-0.05289
0.76074	0.61031
0.12320	-1.99148
-0.43783	-0.79262
0.02119	-0.51203
1.39828	1.42656
0.53123	0.94191
-0.41233	-0.48652
-0.79486	-0.89465
-0.10631	0.22769
-0.00431	1.88570
-0.02981	0.68683
-1.10088	-0.41000
-0.51434	-0.84363
0.12320	0.43176
0.32721	0.50828
1.29628	-0.25695
1.29628	0.76336
0.32721	0.66132
0.30171	-0.89465
0.27621	-0.84363
0.12320	0.12566
0.04670	0.76336
-0.18282	0.78886
-0.36133	2.26831
-0.13181	0.94191
-0.28482	-1.12422
-0.31033	-2.75671
0.42922	-2.22105
0.32721	0.61031
0.81175	1.98773
0.63323	2.03874
0.27621	1.22250
-1.38139	0.38074
-1.40690	-0.20594
-1.04987	-1.07320
1.72980	-1.43031
0.07220	-1.27726
1.11776	0.30422
1.01576	1.29902
1.42379	1.17148
0.96476	0.73785
0.76074	1.06945
-0.13181	-0.63957
-0.64185	-0.48652
-0.84586	-0.02739
-0.61635	1.06945
-0.28482	-0.10391
-0.18282	-1.81293
0.32721	0.15117
0.42922	0.83988
0.19971	0.73785
-1.48340	0.73785
-0.79486	0.68683
0.76074	-0.25695
1.04126	-0.23145
0.99026	-0.15492
1.01576	0.15117
0.73524	0.04914
0.12320	-0.41000
0.68424	0.89089
0.50573	-0.12942
-0.41233	0.40625
-0.20832	0.30422
-0.41233	-0.46102
-0.46334	0.66132
0.12320	0.55929
0.22521	0.86539
-0.18282	-0.51203
0.12320	1.60511
0.35272	-0.79262
0.68424	-2.57816
-0.46334	-1.32828
0.32721	1.37554
-0.28482	0.91640
-0.46334	-0.48652
-0.43783	1.35003
1.37278	1.27351
1.09226	1.06945
-0.13181	0.45726
0.42922	-0.20594
-0.79486	0.04914
0.60773	0.58480
0.76074	0.53379
0.73524	0.66132
0.88825	-2.14453
-0.25932	-1.81293
-1.38139	-2.73121
-0.76936	0.50828
0.19971	1.68163
0.35272	1.57960
-0.20832	1.35003
1.11776	0.73785
0.27621	0.43176
0.58223	0.76336
0.73524	1.06945
-0.15732	-0.35899
-1.27939	-1.17523
-0.38683	-1.22625
-0.43783	0.43176
0.63323	0.15117
1.34728	0.25320
1.65330	-0.05289
-0.33583	0.35523
0.65874	0.76336
-0.84586	0.81437
-0.48884	-0.18043
1.11776	-0.76711
0.40372	-0.99668
-0.20832	-0.15492
0.04670	0.50828
0.02119	1.12046
0.04670	1.40105
-0.25932	1.65613
0.07220	1.78367
0.09770	-0.61406
-1.02437	-2.34859
-0.51434	-2.42511
0.99026	1.01843
1.14327	0.76336
1.42379	0.66132
0.73524	-0.28246
-0.71835	0.22769
-0.76936	0.04914
-0.41233	0.15117
0.48022	0.66132
1.04126	0.40625
0.96476	0.81437
-0.25932	0.43176
-0.25932	0.30422
-0.41233	-0.28246
1.16877	-0.07840
1.44929	-0.46102
0.14870	0.25320
-0.76936	-0.02739
-1.43240	0.04914
-0.99887	0.15117
1.34728	0.02363
0.70974	0.15117
-0.23382	0.32972
0.02119	0.38074
0.35272	0.99292
-0.05531	-0.00188
0.02119	-0.33348
1.21977	0.81437
-0.48884	-0.69059
0.73524	-0.41000
0.42922	-0.41000
0.19971	0.99292
0.12320	0.61031
-0.20832	0.71234
-0.23382	0.35523
0.30171	0.17668
0.37822	0.53379
0.30171	0.27871
-0.02981	-0.25695
0.02119	-0.38449
0.27621	-0.63957
-0.87136	0.20219
-0.38683	-0.15492
0.45472	0.20219
1.04126	0.12566
0.48022	0.07465
0.88825	1.19699
-0.53984	-1.09871
-2.37596	-0.05289
-0.13181	0.04914
1.21977	1.65613
1.50029	0.55929
1.44929	0.83988
0.86275	-0.25695
-0.13181	-0.10391
-0.59084	-0.61406
-1.02437	-0.53754
-0.59084	0.40625
0.73524	0.10015
-0.08081	0.71234
-0.36133	0.35523
0.14870	0.22769
0.42922	-0.05289
-0.25932	-0.12942
-0.15732	-0.23145
0.32721	-0.66508
0.37822	-0.10391
0.14870	0.61031
0.30171	0.81437
0.37822	0.15117
0.12320	-0.56305
0.02119	0.38074
0.14870	-0.35899
0.17421	0.63582
0.22521	0.73785
0.19971	0.81437
0.12320	-1.07320
-0.33583	-1.73640
-0.05531	-0.43551
0.12320	1.06945
0.19971	1.91120
0.14870	2.47238
-0.38683	-1.27726
0.22521	-0.46102
-0.33583	-1.63437
0.99026	1.29902
0.53123	1.96222
-0.48884	-0.02739
0.55673	-0.53754
0.50573	-0.86914
0.53123	-0.46102
0.07220	-0.12942
-1.02437	0.17668
-0.10631	0.15117
0.73524	0.15117
0.02119	0.45726
1.24527	0.50828
-0.53984	1.12046
-0.89686	-0.02739
0.40372	-0.18043
0.37822	-0.51203
0.07220	0.22769
0.22521	0.55929
0.81175	0.17668
0.55673	0.04914
0.42922	0.48277
-0.25932	-0.25695
-0.41233	0.63582
-0.25932	-0.12942
0.78624	-0.97117
0.07220	-0.97117
-0.10631	0.45726
0.14870	1.45206
-0.02981	0.89089
0.09770	-0.05289
0.30171	0.76336
0.19971	0.86539
0.17421	0.76336
0.40372	-0.10391
0.30171	-1.94047
0.35272	-2.14453
0.42922	0.61031
0.48022	1.35003
0.32721	0.94191
-0.41233	0.40625
-1.71292	0.10015
-0.10631	-0.48652
0.60773	0.22769
1.34728	0.78886
0.50573	0.58480
-0.20832	-0.41000
-0.99887	-0.71609
-0.33583	0.63582
2.03582	-0.23145
1.47479	0.25320
0.68424	0.53379
-0.56534	0.66132
-2.06994	-0.30797
0.58223	0.04914
1.21977	1.27351
0.83725	0.25320
-0.97337	-0.35899
-0.61635	-1.68539
-0.51434	-0.25695
-0.99887	1.24800
1.27078	1.04394
0.73524	0.48277
0.30171	-0.30797
0.48022	0.07465
0.17421	0.40625
-0.02981	0.10015
0.68424	-0.02739
0.27621	-1.37929
-0.48884	-0.81812
-0.56534	1.19699
-0.51434	1.98773
0.40372	0.81437
0.50573	-0.48652
0.53123	-0.74160
0.07220	-0.43551
0.45472	-1.07320
0.48022	1.19699
0.53123	0.53379
-0.13181	0.78886
-0.89686	0.71234
-0.59084	-0.84363
0.17421	0.10015
0.76074	0.10015
0.73524	0.66132
0.53123	0.89089
0.17421	-0.46102
0.37822	-0.38449
0.27621	0.07465
-1.30489	0.66132
-0.00431	0.61031
1.37278	0.17668
0.22521	-0.05289
-0.36133	-0.18043
-0.33583	-0.43551
-0.33583	-0.43551
-0.43783	0.25320
1.29628	0.38074
1.21977	0.04914
-0.08081	-0.63957
0.65874	0.86539
-0.38683	0.61031
-1.20288	0.66132
-0.18282	0.25320
0.91375	-0.15492
0.88825	0.96742
0.63323	0.68683
0.37822	0.17668
-1.07538	-0.46102
-0.02981	-1.45582
0.12320	-0.94566
0.32721	0.43176
0.14870	-0.02739
0.25071	0.55929
0.14870	1.78367
0.02119	1.45206
-0.08081	-0.15492
0.53123	-1.48133
0.07220	-0.51203
-0.15732	0.32972
0.12320	0.35523
0.53123	0.86539
0.91375	-0.18043
0.07220	0.07465
-0.46334	-0.38449
-0.10631	-0.38449
0.07220	-1.17523
0.70974	1.12046
0.58223	0.96742
-0.89686	0.73785
0.02119	2.08976
-0.89686	1.06945
-0.51434	-2.52714
0.70974	-2.60367
1.04126	0.04914
0.86275	0.71234
0.22521	0.91640
0.68424	1.40105
0.17421	0.63582
0.68424	0.32972
0.50573	0.22769
-0.05531	0.07465
0.14870	-0.02739
-0.94787	-0.51203
-2.06994	-0.66508
0.22521	-0.00188
1.09226	0.38074
0.19971	-0.18043
-0.28482	0.63582
0.63323	-0.63957
1.42379	0.38074
0.25071	0.45726
0.22521	0.50828
-0.18282	0.58480
-0.00431	0.58480
-0.10631	0.55929
0.53123	-0.63957
-0.02981	-0.86914
-0.66735	1.42656
0.42922	1.01843
0.42922	-1.35379
0.40372	-0.79262
-0.31033	0.22769
-0.79486	0.63582
1.16877	1.50308
0.83725	-0.38449
0.58223	-1.12422
-0.13181	-0.41000
-0.25932	1.04394
-0.02981	0.53379
-1.10088	-0.18043
0.17421	0.32972
0.88825	0.15117
0.60773	0.30422
0.42922	0.32972
0.53123	0.43176
0.65874	-0.12942
-0.53984	-0.05289
-0.31033	-0.00188
-0.41233	0.35523
-0.08081	0.50828
1.60230	0.45726
1.16877	-0.02739
-0.13181	-0.41000
-1.12638	-0.86914
-0.99887	-0.69059
0.60773	0.61031
-0.13181	0.50828
0.68424	0.68683
0.19971	1.47757
0.37822	-0.25695
0.32721	-0.15492
0.65874	-0.56305
0.55673	0.91640
-0.00431	0.38074
0.07220	0.35523
0.02119	0.12566
-0.48884	-0.02739
-0.02981	0.22769
-0.20832	-0.02739
-0.18282	-0.23145
0.73524	2.14077
0.12320	0.53379
0.14870	-2.32308
0.14870	-2.11902
0.42922	0.48277
0.12320	1.40105
0.32721	0.89089
0.73524	0.12566
-0.08081	0.22769
-0.38683	0.96742
-1.02437	1.14597
0.55673	-0.81812
0.40372	0.58480
-1.30489	-0.63957
1.70430	-0.56305
0.86275	-0.86914
0.12320	0.66132
-0.36133	1.06945
-0.48884	0.50828
1.01576	0.58480
0.53123	0.38074
0.25071	0.32972
0.40372	0.12566
-0.05531	-0.41000
-0.00431	-0.25695
-0.13181	0.04914
0.14870	-0.02739
0.30171	-0.46102
-1.04987	0.22769
-0.64185	1.12046
-0.64185	0.32972
-0.05531	-0.15492
1.01576	-0.23145
0.42922	0.25320
2.80087	0.35523
1.83181	1.14597
-0.69285	-0.07840
-0.48884	-0.38449
0.02119	-0.86914
-0.20832	0.73785
0.09770	0.76336
0.02119	-0.15492
-0.23382	-0.15492
0.25071	-0.61406
0.17421	0.55929
0.04670	0.55929
0.35272	0.35523
0.12320	1.14597
0.12320	0.32972
0.07220	2.49788
0.32721	-1.45582
1.04126	-1.25176
-0.18282	-1.96597
-0.79486	0.91640
-0.56534	0.91640
-0.10631	0.35523
0.73524	0.25320
0.70974	-0.00188
0.02119	0.10015
0.14870	1.01843
0.73524	0.71234
0.83725	-0.25695
0.27621	-1.30277
-1.20288	-0.25695
-0.56534	0.04914
-0.51434	0.76336
-0.89686	0.83988
1.32178	0.81437
1.19427	0.43176
0.81175	0.25320
0.53123	-0.07840
-0.89686	0.45726
0.09770	-0.00188
1.01576	-0.66508
0.14870	-0.15492
0.14870	-1.04770
-0.43783	-0.10391
-0.64185	-0.20594
-0.33583	0.76336
-0.28482	0.66132
0.02119	0.53379
0.25071	0.53379
0.55673	0.66132
0.76074	0.32972
0.40372	-0.35899
0.27621	0.58480
0.32721	0.15117
0.37822	-1.27726
0.32721	-1.45582
0.27621	0.53379
-0.02981	1.27351
0.07220	2.21730
-0.28482	-0.02739
-0.05531	-0.53754
0.07220	-0.71609
0.32721	1.01843
-0.28482	-0.58856
0.02119	-0.81812
-0.41233	-0.46102
0.37822	1.65613
0.93925	0.55929
0.58223	-0.18043
0.40372	-0.58856
0.78624	0.99292
0.32721	0.96742
-1.73842	0.96742
-0.66735	-1.09871
-0.28482	-0.81812
0.17421	-0.05289
0.83725	0.30422
0.99026	0.58480
0.78624	0.35523
0.81175	0.25320
-0.71835	0.20219
-1.50890	0.25320
-0.28482	0.02363
1.93382	-0.18043
0.50573	-0.46102
-0.00431	-0.51203
0.40372	0.78886
0.25071	0.91640
-0.13181	0.83988
0.07220	-0.07840
-0.18282	-0.41000
-0.13181	-1.14973
0.04670	0.25320
-0.10631	1.60511
-0.13181	0.53379
0.78624	0.43176
0.60773	0.32972
-0.53984	0.04914
0.17421	0.48277
0.04670	-0.84363
0.99026	-0.35899
0.65874	-0.92016
0.17421	0.99292
0.32721	-0.10391
-0.33583	-0.35899
0.07220	0.17668
-0.36133	0.99292
-0.15732	0.83988
-0.38683	0.76336
0.45472	-0.46102
0.45472	0.12566
-0.00431	0.38074
0.63323	1.06945
0.99026	-0.07840
-0.59084	-0.97117
-1.02437	-0.99668
0.78624	-0.38449
1.57679	-0.58856
0.42922	0.30422
-0.53984	0.78886
-1.48340	0.71234
-0.28482	0.35523
1.14327	0.61031
0.58223	0.22769
0.63323	0.55929
-0.13181	1.01843
-0.79486	-0.43551
0.53123	-1.12422
-1.02437	-0.89465
1.52579	0.40625
0.12320	0.91640
0.60773	0.38074
-0.41233	0.48277
-0.33583	-0.00188
0.50573	-0.56305
0.30171	-0.69059
0.48022	0.94191
0.55673	0.50828
0.07220	-0.48652
-0.15732	0.35523
-0.20832	0.66132
-0.41233	0.58480
0.04670	-0.23145
0.27621	-0.63957
0.45472	-0.41000
0.19971	0.96742
0.63323	0.25320
0.42922	0.63582
-0.08081	0.20219
-0.20832	0.15117
0.35272	0.35523
0.19971	0.73785
-0.28482	-0.56305
-0.43783	-0.07840
0.35272	-2.06800
1.19427	-0.35899
0.32721	0.50828
-0.89686	1.47757
0.65874	0.76336
2.52035	1.12046
-0.51434	0.58480
-1.45790	-0.15492
-0.94787	-0.07840
0.37822	0.15117
0.60773	-0.18043
0.14870	-0.28246
0.14870	-0.10391
0.58223	-0.25695
1.24527	0.27871
0.37822	0.55929
-0.76936	0.35523
0.02119	-0.30797
0.12320	0.12566
-0.69285	0.17668
-0.10631	0.94191
0.14870	1.63062
0.37822	-0.30797
0.42922	-0.86914
0.42922	-1.71090
-0.00431	0.15117
0.37822	0.78886
0.30171	1.47757
0.55673	0.02363
0.42922	-0.15492
-0.02981	-0.23145
-0.36133	0.15117
-0.28482	0.45726
-0.00431	0.20219
0.93925	1.27351
0.12320	0.66132
-0.69285	-0.43551
-0.51434	-2.32308
-0.59084	-1.40480
0.55673	0.58480
0.25071	0.94191
1.52579	1.14597
1.09226	0.66132
0.42922	0.76336
-0.61635	-0.07840
-0.15732	-0.02739
-0.08081	0.15117
0.19971	-0.15492
-0.25932	-0.10391
0.48022	0.22769
-0.15732	-0.81812
-0.53984	0.53379
-0.23382	0.63582
0.27621	-0.07840
1.09226	-0.99668
0.86275	0.15117
0.53123	1.01843
-0.05531	0.55929
0.30171	-0.18043
0.25071	-0.86914
-1.15188	-0.18043
-1.25389	0.20219
0.96476	2.19179
0.83725	0.12566
0.04670	0.27871
0.17421	-0.92016
0.42922	0.45726
0.70974	0.04914
-0.28482	0.22769
0.19971	0.55929
-0.15732	0.45726
-0.05531	0.02363
-0.25932	0.83988
0.60773	0.25320
0.04670	-0.28246
-0.02981	-0.35899
0.07220	-0.53754
-0.08081	-0.38449
0.25071	-0.02739
0.58223	-0.66508
-0.13181	-0.23145
0.83725	-0.12942
-0.61635	1.17148
0.22521	2.39585
0.99026	0.43176
0.70974	0.12566
0.14870	-0.23145
0.40372	0.48277
0.04670	1.17148
-0.15732	0.32972
-0.59084	-0.94566
-0.84586	-1.32828
-0.23382	-0.58856
-0.02981	0.43176
1.19427	0.50828
0.02119	0.30422
-0.02981	0.30422
0.76074	0.22769
0.68424	-0.23145
0.30171	0.61031
0.40372	0.15117
-0.89686	-0.07840
-0.46334	0.89089
-0.38683	0.04914
0.48022	-0.76711
0.88825	-0.18043
0.48022	0.12566
1.27078	-0.05289
0.35272	-0.07840
-0.05531	0.25320
0.12320	0.25320
0.07220	1.45206
-0.36133	1.63062
-0.53984	-0.41000
-0.25932	-1.25176
0.37822	-0.99668
0.22521	0.50828
0.22521	0.48277
0.86275	0.58480
0.60773	0.53379
-0.59084	0.38074
-4.05907	-1.30277
-0.43783	0.43176
1.98482	0.07465
1.90832	-0.25695
1.62780	0.35523
0.42922	1.06945
1.01576	0.15117
0.32721	-0.48652
-1.40690	-1.27726
-0.31033	0.10015
-0.38683	0.53379
-0.02981	0.63582
-0.00431	0.96742
0.19971	1.14597
0.30171	0.35523
0.30171	0.02363
0.12320	-0.15492
0.35272	-0.92016
0.55673	0.58480
0.40372	0.32972
-0.23382	-0.61406
-1.02437	-1.60887
-0.00431	-0.86914
-0.38683	0.83988
0.96476	1.14597
0.96476	0.76336
0.99026	0.61031
0.27621	0.45726
-0.18282	0.45726
-0.25932	0.50828
-0.13181	0.73785
0.32721	-1.22625
0.50573	-0.30797
0.09770	-1.30277
-0.33583	1.29902
-0.08081	0.12566
0.73524	0.15117
0.09770	0.81437
0.22521	0.35523
0.07220	0.17668
-0.76936	0.48277
0.42922	0.55929
0.45472	-0.46102
0.14870	0.10015
0.58223	-0.10391
0.09770	-1.48133
0.37822	-0.61406
0.32721	0.71234
0.07220	1.22250
-0.48884	0.58480
-0.23382	0.40625
0.78624	0.10015
-0.08081	0.12566
-0.56534	0.45726
-0.48884	-0.07840
1.29628	0.81437
0.42922	0.35523
0.07220	-0.18043
0.17421	-0.41000
0.27621	-0.23145
0.27621	-0.12942
-0.36133	-0.25695
0.73524	0.22769
0.07220	0.48277
-0.28482	0.81437
-0.08081	0.53379
0.53123	-0.76711
-0.15732	-0.25695
0.32721	-0.12942
0.04670	0.45726
0.12320	1.12046
-0.00431	0.63582
0.09770	-0.41000
0.48022	0.71234
0.37822	-1.14973
0.30171	0.04914
0.02119	0.30422
0.63323	1.14597
0.04670	0.71234
-0.10631	0.27871
-0.08081	0.86539
-0.10631	-0.18043
-0.28482	-1.48133
-0.28482	-0.69059
0.37822	-0.15492
0.30171	0.45726
-0.94787	-0.25695
0.91375	-1.14973
0.48022	0.30422
-0.00431	1.32453
0.35272	1.78367
0.55673	0.32972
1.75531	0.10015
0.09770	0.17668
0.25071	0.17668
-0.25932	0.48277
-0.61635	0.15117
0.55673	-0.10391
-0.38683	-1.14973
-0.82036	-0.15492
-0.08081	0.27871
0.55673	-0.41000
0.12320	0.30422
-0.25932	0.40625
0.40372	0.78886
-0.46334	0.43176
0.76074	-0.38449
0.22521	-0.15492
0.32721	0.73785
0.22521	0.50828
-0.02981	0.55929
0.50573	-0.99668
0.35272	-0.05289
0.25071	-0.71609
-0.10631	0.81437
0.17421	1.22250
-0.28482	0.15117
-0.18282	0.17668
-0.00431	-0.30797
0.25071	-0.41000
0.60773	0.45726
0.68424	1.17148
0.40372	0.89089
-0.56534	-0.38449
-0.23382	0.66132
-0.36133	-0.28246
0.42922	-0.86914
0.73524	-0.61406
0.55673	-0.41000
-0.23382	-0.38449
-1.50890	0.22769
0.53123	0.94191
0.99026	0.96742
0.63323	0.61031
-0.41233	-0.07840
0.22521	-0.74160
0.32721	0.17668
1.06676	0.94191
0.88825	1.22250
-0.18282	0.17668
0.14870	-0.33348
-0.79486	-0.61406
-0.33583	-0.10391
-0.15732	-0.51203
-0.18282	-0.20594
-0.20832	0.12566
0.37822	0.68683
0.55673	-0.23145
0.40372	0.81437
0.14870	0.35523
-0.20832	0.50828
0.37822	-0.12942
-0.36133	0.63582
0.55673	0.86539
0.04670	-0.18043
0.37822	0.61031
0.76074	-0.69059
0.96476	-1.17523
-0.33583	-2.01699
-0.33583	0.94191
-0.69285	0.89089
-0.59084	0.78886
0.35272	1.32453
0.81175	0.48277
0.35272	0.10015
0.83725	-0.69059
0.19971	-0.41000
0.27621	0.48277
-0.02981	0.30422
-0.74385	-0.05289
-0.66735	-0.18043
-0.51434	0.35523
0.40372	-0.89465
0.65874	0.86539
1.06676	0.76336
0.48022	0.71234
-0.53984	-0.07840
1.09226	-0.25695
0.04670	-0.15492
-0.02981	-0.15492
-1.33039	0.22769
-0.59084	0.66132
1.80631	0.43176
0.65874	0.04914
0.53123	-0.28246
0.25071	-0.28246
0.25071	-0.25695
0.02119	0.27871
0.04670	0.48277
-1.38139	0.17668
-0.71835	1.42656
0.50573	-0.12942
0.40372	-0.63957
0.50573	-0.51203
0.63323	0.71234
0.60773	0.10015
1.14327	0.15117
0.30171	-0.02739
-0.89686	-0.20594
-0.18282	0.40625
-0.23382	0.17668
0.37822	1.04394
0.42922	0.94191
0.58223	0.25320
0.17421	0.27871
0.68424	-0.28246
0.25071	-1.20074
-0.41233	-0.89465
-0.64185	-0.74160
-1.04987	1.40105
-0.51434	0.66132
1.34728	0.40625
1.11776	0.27871
0.32721	0.40625
0.09770	-0.10391
0.04670	0.81437
0.55673	-0.05289
0.07220	-0.25695
-0.23382	0.45726
0.30171	0.27871
-0.23382	0.40625
-0.51434	0.02363
-0.08081	-0.99668
1.37278	-0.48652
0.73524	0.94191
-0.18282	0.35523
-0.56534	-0.20594
0.19971	-0.07840
-0.08081	0.91640
0.14870	0.45726
1.42379	0.32972
-0.76936	0.07465
-0.69285	-0.38449
0.73524	-0.12942
0.63323	0.61031
-0.00431	0.38074
0.17421	0.58480
-0.08081	-0.33348
-0.05531	-0.71609
0.17421	-0.00188
0.53123	0.76336
-0.13181	1.27351
-0.08081	-0.10391
-0.08081	0.27871
0.12320	-0.61406
0.22521	0.86539
0.25071	-0.28246
0.55673	0.30422
0.09770	-0.94566
-0.08081	-0.81812
0.02119	-0.05289
-0.00431	0.40625
-0.38683	1.17148
0.45472	0.27871
-0.56534	0.81437
0.78624	0.17668
1.24527	-0.18043
-0.00431	0.07465
0.42922	0.45726
-0.61635	-0.30797
0.04670	0.25320
-0.08081	0.55929
0.14870	0.32972
-0.28482	-0.56305
1.09226	-0.71609
0.63323	0.66132
-0.10631	0.35523
0.27621	0.17668
-0.15732	0.10015
-0.08081	0.25320
1.01576	-0.10391
0.27621	-0.56305
-0.48884	-0.20594
0.53123	0.58480
-1.04987	0.86539
-0.31033	0.76336
0.17421	-1.37929
0.48022	-0.43551
0.42922	0.04914
0.63323	1.73265
0.68424	1.04394
0.55673	0.76336
0.22521	0.10015
0.14870	-0.33348
-0.00431	-0.30797
0.07220	-0.20594
0.19971	-0.56305
-0.48884	0.04914
-0.33583	0.38074
-0.10631	0.55929
0.48022	1.27351
0.25071	0.40625
0.42922	-0.92016
-0.46334	-1.73640
0.14870	-0.53754
0.53123	1.32453
0.68424	1.42656
0.32721	0.22769
0.70974	0.27871
0.63323	-0.05289
-0.71835	-0.51203
0.17421	-0.38449
0.14870	0.40625
-1.02437	1.32453
-0.46334	0.40625
0.96476	-0.56305
0.83725	0.50828
-0.15732	0.50828
0.50573	0.35523
0.09770	-0.07840
-0.08081	-0.30797
-0.36133	-0.15492
0.48022	-0.10391
0.40372	-0.66508
0.68424	0.15117
0.27621	0.35523
-0.13181	0.07465
-0.87136	-0.58856
-0.61635	0.35523
0.68424	0.91640
0.07220	0.63582
0.60773	0.20219
0.12320	0.71234
0.04670	0.78886
0.30171	-0.10391
0.37822	-0.12942
0.50573	-0.02739
0.09770	0.45726
0.04670	0.86539
-0.18282	0.17668
0.12320	-2.19554
-0.08081	-3.06281
0.48022	-0.66508
-0.00431	1.09496
-0.18282	1.29902
0.55673	1.78367
0.55673	2.08976
0.09770	0.89089
0.02119	0.55929
-0.56534	-0.33348
0.07220	-0.92016
0.65874	-0.56305
0.68424	0.10015
0.48022	0.40625
-0.87136	-0.25695
-0.74385	0.27871
0.42922	0.55929
0.68424	-0.84363
0.65874	-0.51203
1.01576	-0.38449
0.07220	0.94191
-0.97337	0.86539
0.60773	0.43176
0.40372	-0.00188
-0.71835	0.17668
-0.25932	0.50828
0.14870	0.86539
0.58223	0.81437
0.63323	0.25320
0.27621	-1.78742
0.22521	-0.81812
0.12320	-0.23145
-0.18282	1.12046
-1.12638	0.50828
-0.25932	0.81437
0.96476	-0.02739
-0.25932	0.45726
0.48022	0.55929
0.81175	-0.30797
0.22521	-0.18043
0.32721	-0.56305
0.60773	-0.12942
0.17421	0.68683
-0.00431	0.04914
0.35272	0.63582
-0.33583	0.25320
-0.10631	0.66132
-0.20832	-0.86914
-0.33583	-0.48652
-0.00431	0.38074
0.32721	0.96742
0.58223	0.50828
0.04670	0.02363
-0.23382	0.22769
-0.05531	-0.38449
0.86275	0.07465
0.88825	-0.46102
-0.23382	0.53379
-0.28482	0.17668
0.35272	0.61031
0.12320	0.61031
0.17421	0.32972
0.78624	-0.30797
-0.31033	-0.41000
-1.58541	0.02363
0.63323	-0.30797
0.73524	0.25320
1.19427	0.66132
1.09226	0.04914
-0.20832	0.20219
-0.31033	0.43176
-0.08081	0.12566
-0.36133	-0.25695
0.58223	0.12566
-0.31033	-0.30797
-0.13181	0.35523
0.17421	-0.46102
-0.08081	0.81437
-0.69285	0.76336
0.22521	0.66132
0.63323	0.22769
0.73524	0.15117
0.78624	-0.86914
0.27621	0.32972
0.09770	0.78886
0.30171	1.57960
0.07220	-1.68539
-0.10631	-1.32828
0.02119	-1.02219
0.40372	-0.15492
0.07220	0.73785
-0.20832	1.75816
0.02119	1.29902
-0.41233	0.32972
-0.38683	1.24800
0.32721	0.35523
0.48022	-0.48652
0.91375	-1.17523
1.14327	-0.23145
0.17421	-0.02739
-1.12638	0.81437
-0.59084	-0.20594
0.76074	0.61031
0.83725	-0.00188
0.19971	-0.00188
-0.33583	-0.51203
0.76074	0.07465
0.32721	0.38074
-0.41233	0.30422
0.50573	0.32972
0.02119	0.32972
-0.33583	0.43176
-0.18282	-0.05289
0.22521	0.50828
0.12320	-0.18043
0.30171	-0.10391
0.12320	0.22769
-0.33583	0.10015
-0.05531	0.04914
0.55673	0.30422
0.55673	0.86539
0.40372	-0.51203
0.17421	-0.10391
0.07220	0.10015
0.70974	-0.12942
-0.15732	-0.00188
-0.64185	0.76336
0.04670	0.78886
0.30171	-0.18043
-0.13181	0.20219
0.81175	-0.56305
0.70974	0.38074
0.17421	0.38074
0.48022	1.17148
0.63323	-0.15492
-1.02437	-0.81812
-2.42696	-0.84363
0.19971	0.81437
0.93925	-0.07840
0.40372	0.66132
0.70974	0.30422
1.19427	-0.20594
0.32721	0.32972
0.68424	0.55929
0.58223	0.73785
-1.02437	-0.92016
-0.99887	-0.76711
-0.51434	0.53379
-0.20832	0.63582
0.40372	0.63582
0.35272	0.43176
0.25071	0.10015
1.06676	0.20219
0.78624	-0.18043
0.35272	-0.38449
0.22521	-0.63957
0.27621	0.83988
-0.61635	1.17148
-0.51434	0.30422
-0.20832	-0.38449
0.50573	-0.43551
0.91375	0.50828
0.35272	-0.00188
-0.61635	-0.15492
-1.17738	0.45726
-0.51434	0.20219
1.16877	-0.15492
1.11776	0.20219
0.25071	0.15117
-0.79486	0.40625
-0.10631	0.96742
0.60773	0.78886
1.01576	0.78886
1.24527	-1.35379
0.73524	0.50828
-0.59084	1.75816
-0.46334	-1.22625
-0.18282	-0.94566
0.22521	-1.71090
-0.02981	0.02363
0.19971	0.76336
0.07220	0.17668
0.37822	1.09496
0.17421	1.29902
-0.10631	1.14597
-0.51434	0.63582
-0.10631	0.04914
0.58223	-0.86914
0.68424	-0.46102
-0.51434	-0.94566
-0.82036	-0.63957
1.34728	-0.02739
-0.10631	0.71234
0.63323	0.99292
0.73524	0.68683
0.22521	0.45726
0.32721	0.25320
-0.25932	-0.00188
0.30171	0.30422
0.32721	-0.18043
-0.82036	0.10015
-0.10631	-0.35899
-0.13181	-0.28246
0.42922	1.09496
0.73524	0.48277
0.12320	-0.20594
-0.28482	-1.63437
-0.00431	-0.10391
0.32721	-0.38449
0.35272	0.94191
0.27621	1.70714
0.25071	0.94191
-0.46334	1.22250
-0.23382	-0.23145
-0.08081	-0.07840
0.40372	-0.28246
0.58223	-0.56305
0.48022	-0.51203
0.12320	-1.07320
0.14870	0.61031
0.30171	1.29902
0.55673	1.52859
0.27621	-1.63437
-0.87136	-0.56305
-1.10088	-1.04770
0.27621	1.01843
1.14327	1.35003
0.63323	0.78886
0.22521	0.83988
0.02119	0.50828
-0.08081	-0.00188
0.17421	-0.15492
0.19971	-0.43551
0.55673	-0.30797
0.76074	-0.05289
-0.05531	0.38074
-0.28482	0.15117
-0.46334	-0.23145
0.25071	0.30422
0.35272	0.12566
1.21977	0.22769
-0.59084	-0.07840
-0.89686	0.10015
-0.82036	0.22769
0.63323	0.35523
0.86275	1.27351
0.04670	1.01843
0.50573	-1.55785
0.40372	-1.99148
-0.89686	-0.25695
0.86275	1.78367
1.93382	1.40105
-0.10631	0.76336
-0.74385	0.04914
0.17421	0.12566
-0.10631	0.10015
0.09770	-0.12942
-0.08081	-0.05289
-0.25932	-0.07840
0.04670	-0.00188
0.30171	0.40625
0.07220	-0.69059
-0.82036	0.04914
-0.28482	-0.30797
0.48022	-0.15492
1.27078	-0.46102
1.21977	0.32972
0.73524	1.35003
0.14870	1.40105
-0.38683	0.68683
-0.15732	-0.18043
-0.84586	-0.46102
0.40372	0.48277
0.32721	0.20219
-0.13181	0.66132
0.14870	0.07465
0.58223	-0.41000
0.50573	-0.43551
0.63323	0.25320
-0.02981	0.48277
-1.63641	-0.69059
-0.66735	-0.46102
0.76074	0.45726
1.55129	0.99292
0.99026	0.45726
-0.79486	0.12566
-1.50890	-0.00188
-0.59084	-0.53754
0.35272	-0.15492
1.52579	-0.10391
1.52579	0.71234
1.72980	0.71234
0.07220	0.73785
-0.92237	-0.20594
-0.41233	-0.25695
0.07220	-0.00188
-0.64185	0.07465
0.14870	1.09496
0.04670	0.66132
-0.18282	-0.84363
0.27621	-0.46102
0.53123	0.73785
0.73524	1.19699
0.14870	0.25320
-0.20832	-0.71609
-0.00431	-0.41000
-0.02981	-0.25695
0.42922	-0.12942
0.42922	0.91640
0.27621	0.53379
0.50573	-0.86914
0.48022	-0.74160
-0.28482	0.48277
-0.61635	1.12046
-0.08081	0.58480
0.35272	0.22769
0.22521	0.35523
0.14870	0.07465
0.45472	0.63582
1.52579	1.27351
-0.23382	0.76336
-2.24845	-0.92016
-0.76936	-1.07320
-0.08081	0.15117
1.47479	-0.25695
1.50029	-0.02739
1.72980	-0.58856
-0.64185	-0.07840
-1.61091	0.40625
-0.15732	0.63582
1.01576	0.43176
0.30171	0.27871
0.32721	0.35523
0.40372	0.22769
-0.05531	0.15117
1.24527	0.07465
-1.35589	0.96742
-0.61635	0.40625
0.12320	-0.07840
-0.25932	-0.81812
-0.28482	-0.05289
0.60773	0.04914
0.12320	0.50828
0.04670	-0.05289
0.86275	0.07465
1.06676	0.53379
0.42922	0.45726
0.40372	0.58480
0.12320	1.01843
-0.31033	-0.33348
-0.76936	-0.84363
0.19971	0.02363
-0.02981	-1.02219
0.17421	-0.33348
0.25071	0.04914
0.50573	0.94191
0.37822	1.52859
-0.53984	1.40105
-0.05531	-0.12942
-0.31033	-0.23145
-0.18282	0.02363
0.53123	-0.20594
0.53123	0.17668
0.12320	-0.07840
1.24527	0.15117
0.60773	0.43176
0.22521	0.40625
-0.71835	0.25320
-1.68742	-0.07840
0.07220	-0.92016
0.83725	-0.23145
1.72980	-0.33348
0.63323	0.83988
0.32721	1.17148
-0.46334	0.43176
-0.71835	-0.12942
-0.20832	-0.18043
-0.18282	0.15117
0.19971	0.32972
-0.43783	0.15117
0.02119	0.30422
0.32721	0.43176
1.50029	-0.71609
0.70974	-0.15492
-0.15732	0.02363
-0.13181	0.10015
0.25071	0.27871
-0.13181	0.38074
-0.33583	0.17668
0.09770	0.48277
0.37822	-0.00188
0.22521	1.12046
0.17421	0.96742
0.27621	-0.18043
0.30171	-0.41000
0.27621	0.10015
-0.69285	0.17668
-0.51434	-0.63957
0.09770	-1.20074
0.76074	-0.48652
0.78624	0.71234
0.76074	0.91640
0.63323	0.40625
0.14870	0.12566
0.17421	0.43176
0.35272	0.25320
-0.48884	0.04914
-0.43783	1.14597
-0.89686	-0.41000
-0.48884	0.45726
0.02119	-1.68539
0.32721	0.04914
-0.10631	0.15117
1.75531	1.09496
0.27621	0.99292
0.19971	0.50828
0.50573	-0.00188
0.93925	0.02363
0.19971	-0.05289
-0.87136	0.27871
0.63323	-0.10391
0.09770	-0.30797
0.12320	0.17668
0.02119	-0.05289
-0.66735	-0.33348
-0.64185	-0.33348
1.70430	0.04914
-0.64185	0.10015
-0.69285	0.27871
0.02119	0.20219
-0.41233	0.86539
0.70974	0.40625
1.57679	0.30422
1.39828	0.66132
0.53123	0.20219
-0.28482	0.20219
0.12320	0.40625
-0.64185	0.58480
0.02119	-0.30797
0.02119	-0.12942
0.04670	-0.61406
-0.46334	-0.61406
-0.41233	0.10015
0.73524	0.35523
0.09770	-0.48652
0.27621	0.63582
0.48022	0.76336
0.32721	1.04394
-0.00431	-0.66508
-0.25932	-0.20594
-0.25932	-0.28246
0.60773	0.20219
0.09770	0.02363
-0.15732	0.27871
0.27621	1.04394
0.78624	1.35003
1.19427	-0.25695
0.78624	0.30422
0.25071	-0.30797
-0.25932	-0.05289
-0.74385	-0.12942
-0.31033	0.22769
0.09770	0.35523
0.60773	0.02363
0.02119	-0.20594
0.48022	-0.30797
0.53123	0.17668
0.02119	0.07465
-0.64185	-0.48652
-0.61635	-0.18043
-1.30489	0.45726
-0.18282	0.81437
0.96476	0.43176
0.68424	0.43176
0.88825	0.12566
-0.10631	0.10015
1.62780	0.12566
0.83725	0.40625
0.12320	-0.02739
-0.94787	0.27871
-0.08081	-0.02739
0.12320	-0.35899
-0.43783	-0.66508
0.37822	1.24800
0.48022	0.96742
-0.46334	-0.15492
0.22521	-0.00188
0.76074	0.61031
-0.53984	-0.10391
0.14870	-0.63957
-0.38683	-0.41000
0.35272	0.91640
0.70974	0.35523
0.53123	0.81437
0.07220	0.20219
-0.28482	-2.17003
0.32721	-1.58336
0.35272	0.02363
-0.18282	1.55410
0.12320	1.80917
-1.30489	1.17148
0.83725	0.17668
0.63323	0.35523
1.09226	0.10015
0.37822	0.30422
0.09770	0.40625
1.04126	0.10015
0.12320	-1.37929
-1.40690	-1.02219
-0.38683	-0.30797
-0.05531	-0.12942
-0.46334	-0.00188
1.27078	0.61031
0.70974	0.63582
-0.15732	0.66132
-0.64185	0.35523
0.22521	0.73785
0.40372	0.48277
-0.00431	-0.15492
0.63323	-0.35899
0.48022	0.66132
0.30171	0.15117
-0.05531	0.02363
0.17421	0.38074
0.09770	0.35523
0.53123	-0.41000
-0.20832	-0.28246
-0.53984	-0.28246
0.32721	0.07465
0.09770	-0.07840
-0.13181	0.48277
0.32721	0.53379
0.48022	0.66132
0.12320	0.76336
-0.33583	0.20219
-0.23382	-0.05289
0.58223	-0.12942
0.91375	0.07465
0.50573	0.25320
0.35272	0.07465
-1.10088	-0.99668
-1.91693	-1.20074
0.02119	-0.28246
0.73524	1.47757
1.24527	1.63062
1.21977	0.38074
-0.13181	-0.02739
0.45472	0.15117
0.42922	-0.53754
-0.02981	0.55929
0.07220	0.22769
-0.13181	-0.02739
-0.61635	-0.20594
-0.08081	-0.92016
0.58223	-0.18043
-0.43783	0.83988
-0.00431	0.78886
-0.10631	0.35523
0.37822	0.53379
0.09770	-0.00188
-0.25932	0.10015
-0.08081	0.22769
-0.43783	-0.23145
0.96476	-0.18043
1.75531	0.32972
1.04126	0.02363
0.45472	0.27871
-0.05531	-1.25176
-0.25932	0.25320
-0.53984	0.71234
-0.56534	0.53379
-0.00431	0.32972
0.76074	0.45726
0.04670	0.99292
-0.43783	-0.02739
0.30171	0.15117
0.19971	-1.02219
0.88825	-0.46102
-0.31033	0.68683
-0.31033	0.48277
-0.48884	-0.10391
0.76074	-0.61406
0.63323	-0.38449
-0.10631	0.20219
-0.53984	0.17668
0.30171	1.37554
0.63323	1.24800
0.96476	0.71234
0.68424	0.10015
-0.15732	-0.58856
-0.20832	0.22769
-0.08081	-0.00188
0.32721	-0.92016
0.45472	-0.33348
-0.51434	-0.43551
-0.41233	0.45726
0.65874	0.20219
0.58223	0.27871
0.37822	-0.00188
-0.10631	0.78886
-0.08081	0.81437
0.32721	0.78886
-0.18282	0.63582
0.17421	0.15117
0.35272	-1.09871
0.37822	-0.81812
-0.00431	0.22769
-0.13181	0.27871
-0.20832	0.27871
0.55673	0.32972
0.53123	-0.10391
0.32721	-0.33348
0.09770	1.19699
-0.33583	0.50828
-0.31033	0.38074
-0.53984	-0.05289
0.58223	-0.12942
0.19971	-0.25695
1.39828	0.40625
0.50573	0.25320
0.12320	0.22769
-0.13181	0.38074
0.12320	0.27871
0.09770	0.48277
-0.53984	0.22769
0.32721	-0.28246
-0.41233	-1.50683
-0.41233	-0.71609
0.45472	-0.33348
-0.02981	0.02363
0.22521	0.63582
-0.53984	1.63062
0.09770	0.89089
1.24527	0.30422
1.50029	0.12566
0.48022	0.07465
0.07220	0.12566
-0.13181	0.27871
0.07220	0.35523
-0.08081	-0.07840
0.91375	0.15117
-0.43783	-0.56305
-0.05531	-0.30797
-1.10088	-0.23145
-0.71835	0.07465
-0.05531	0.02363
0.37822	1.12046
0.17421	0.10015
0.60773	-0.66508
1.04126	-0.94566
0.14870	0.02363
-0.79486	0.48277
0.58223	0.86539
0.91375	1.17148
0.55673	0.32972
0.83725	0.04914
-0.02981	-0.33348
-0.38683	1.12046
-0.33583	-0.00188
-0.74385	-0.30797
-0.25932	-0.00188
1.57679	0.27871
0.09770	0.63582
-0.51434	0.04914
-0.00431	0.12566
-0.99887	-0.35899
0.35272	-0.53754
0.58223	0.38074
1.04126	-0.66508
0.88825	-0.12942
-0.10631	0.89089
-0.28482	0.53379
-0.51434	0.27871
0.60773	0.38074
0.53123	-0.05289
-0.10631	0.38074
0.93925	0.04914
-0.15732	0.45726
-0.43783	-0.66508
0.12320	0.12566
0.32721	0.38074
0.60773	0.55929
0.09770	0.43176
0.40372	0.04914
-1.10088	-0.05289
-0.74385	0.53379
0.12320	-0.30797
0.55673	0.53379
0.60773	0.50828
0.32721	-0.20594
0.93925	-0.30797
0.45472	-0.56305
-0.79486	-0.20594
0.63323	0.32972
0.22521	0.38074
0.60773	0.55929
-0.05531	0.45726
0.25071	0.12566
0.02119	0.96742
-0.38683	0.40625
-0.28482	-0.41000
-0.79486	-0.53754
-0.18282	-0.48652
0.02119	-0.41000
1.21977	-0.10391
0.53123	0.83988
-0.38683	2.31933
-0.25932	0.58480
0.22521	-0.43551
1.09226	-0.35899
0.70974	-0.74160
-0.31033	-0.23145
-0.31033	1.09496
-0.02981	0.58480
-1.35589	-0.46102
0.22521	-0.92016
1.57679	-0.05289
0.58223	0.61031
0.12320	1.17148
0.09770	0.86539
0.07220	-0.61406
0.19971	-0.56305
-0.15732	-0.33348
-0.13181	0.66132
0.50573	0.66132
0.32721	0.89089
-0.23382	0.22769
-0.76936	-0.79262
-0.51434	-1.02219
-0.36133	-0.25695
0.27621	0.50828
1.60230	0.94191
1.11776	-0.07840
0.73524	-0.46102
-0.33583	0.68683
-0.82036	0.35523
-0.05531	-0.25695
0.83725	0.04914
-0.41233	-0.18043
0.53123	0.78886
0.63323	1.88570
0.45472	0.96742
-0.23382	-0.05289
-0.41233	-0.28246
-0.74385	-1.07320
0.37822	-0.97117
0.88825	-0.25695
0.70974	0.73785
0.45472	0.71234
-0.31033	0.04914
-0.97337	-0.33348
0.17421	-0.53754
0.53123	0.32972
0.25071	0.68683
0.25071	0.76336
0.19971	1.09496
0.48022	0.02363
0.48022	-0.71609
0.35272	-0.05289
0.27621	-0.10391
0.55673	0.20219
-0.00431	0.71234
-1.17738	0.99292
-0.79486	-0.18043
-0.20832	-0.66508
0.53123	-1.35379
0.55673	-0.66508
0.22521	-0.05289
0.81175	1.01843
0.12320	1.57960
0.07220	1.42656
0.22521	0.76336
0.63323	-0.05289
0.50573	-0.53754
0.40372	-0.23145
-0.05531	-0.07840
-0.02981	-0.23145
0.37822	-0.33348
-0.10631	-0.07840
-0.15732	0.32972
0.19971	0.15117
-0.61635	0.15117
-0.28482	0.27871
-0.10631	0.04914
0.04670	-0.35899
0.81175	-0.38449
0.53123	0.32972
0.68424	0.81437
0.32721	2.11527
0.40372	0.30422
-0.51434	-0.79262
-0.69285	-0.61406
0.73524	-0.53754
0.19971	0.55929
0.27621	0.30422
0.88825	0.55929
-0.13181	0.12566
-0.61635	0.38074
0.17421	-0.12942
-0.00431	0.07465
0.37822	0.81437
0.17421	1.35003
-0.18282	0.12566
0.58223	0.32972
0.19971	-1.07320
0.60773	-0.84363
-0.84586	-0.33348
-0.43783	-1.27726
0.68424	-0.94566
-0.15732	0.83988
0.09770	1.19699
0.12320	1.22250
0.70974	1.12046
0.32721	0.40625
0.60773	0.12566
0.22521	-0.00188
0.50573	-0.28246
-0.71835	-0.30797
0.07220	0.25320
0.22521	-0.05289
0.42922	-0.00188
-0.48884	0.17668
-0.23382	0.66132
0.48022	0.78886
-0.13181	-0.02739
0.32721	-0.43551
0.25071	-0.56305
0.17421	-0.46102
0.37822	0.32972
-0.00431	0.25320
0.19971	0.30422
0.88825	-0.05289
-0.23382	-0.05289
0.07220	1.01843
-0.56534	2.62542
0.04670	-0.97117
0.60773	-1.48133
0.48022	-2.52714
-0.10631	0.71234
-0.38683	1.35003
0.53123	1.68163
0.58223	1.35003
0.02119	0.10015
0.42922	0.07465
0.55673	-0.25695
0.60773	-0.18043
-0.08081	0.71234
-0.46334	-0.84363
-0.02981	-0.23145
0.27621	-1.20074
0.07220	1.47757
-0.28482	0.10015
-0.69285	-0.25695
0.02119	-0.38449
0.12320	0.53379
0.04670	0.38074
-0.05531	0.66132
0.53123	0.68683
1.01576	0.02363
0.35272	0.15117
0.53123	0.35523
0.09770	0.35523
0.25071	0.07465
0.14870	-0.69059
-0.28482	0.04914
-0.87136	-0.02739
0.78624	0.50828
0.78624	0.32972
0.40372	0.15117
0.30171	-0.41000
0.68424	0.27871
-0.08081	0.40625
-0.28482	0.15117
-0.66735	-0.05289
-0.87136	0.12566
0.12320	0.40625
-0.08081	0.48277
0.58223	-0.58856
1.01576	0.20219
0.70974	-0.35899
0.12320	0.32972
-0.59084	-0.10391
0.09770	0.81437
0.53123	0.61031
0.55673	0.66132
-0.48884	0.78886
-0.79486	-0.61406
0.17421	0.35523
0.53123	0.07465
0.63323	-0.56305
0.12320	-0.99668
0.42922	-0.00188
-0.00431	1.32453
-0.46334	-0.02739
-0.08081	0.15117
0.40372	-0.66508
0.76074	0.38074
0.83725	0.83988
0.63323	1.37554
0.27621	0.55929
-0.84586	-0.15492
-0.89686	-0.53754
0.04670	-0.25695
-0.87136	-0.28246
-0.02981	0.45726
1.01576	0.30422
1.06676	-0.25695
-0.38683	-0.12942
0.32721	0.17668
0.37822	0.32972
0.45472	0.10015
0.70974	0.30422
-0.10631	0.07465
-0.48884	0.27871
-0.02981	0.38074
0.02119	0.50828
-0.46334	0.12566
0.30171	-0.00188
0.40372	-0.30797
0.09770	0.17668
0.02119	0.63582
0.02119	0.66132
0.83725	0.10015
-0.33583	-0.46102
0.48022	-0.46102
0.50573	-1.14973
0.09770	0.50828
0.55673	0.63582
0.37822	0.71234
0.14870	0.27871
-1.22839	0.15117
-0.66735	0.78886
0.19971	0.04914
0.68424	0.12566
0.91375	0.15117
0.55673	0.35523
-0.05531	-1.02219
0.48022	-0.58856
0.30171	0.02363
-0.41233	0.66132
0.22521	0.58480
0.25071	1.01843
-0.71835	0.22769
-0.71835	0.38074
0.55673	0.35523
1.06676	-0.18043
0.45472	-0.38449
0.91375	-0.48652
-0.51434	-0.46102
-0.13181	-0.00188
0.14870	0.71234
-0.69285	0.43176
-0.33583	0.07465
0.42922	0.55929
1.52579	0.45726
0.99026	0.27871
-0.13181	-0.51203
-0.41233	0.07465
0.35272	-0.99668
0.76074	0.40625
-1.55991	1.24800
-0.94787	1.14597
0.58223	0.35523
0.58223	-0.28246
0.63323	-0.69059
0.50573	-0.28246
0.17421	-0.02739
0.12320	1.22250
0.17421	0.66132
-0.10631	0.55929
0.12320	-1.20074
0.22521	-0.33348
0.40372	-0.10391
0.12320	0.20219
-0.51434	0.53379
-0.64185	0.86539
0.63323	0.81437
0.63323	-0.97117
0.65874	-0.71609
0.73524	-0.63957
-0.23382	0.50828
0.40372	0.32972
0.04670	0.66132
-0.10631	0.35523
-0.59084	0.43176
1.06676	0.20219
0.60773	0.50828
0.22521	0.20219
-0.28482	1.19699
-0.20832	-0.38449
0.40372	-0.61406
-0.08081	-0.63957
-0.84586	-0.18043
-0.20832	0.12566
0.73524	0.66132
1.04126	0.53379
0.27621	-0.15492
-0.48884	-0.46102
-0.64185	-0.56305
-0.18282	1.06945
0.76074	0.02363
0.65874	0.38074
1.06676	0.07465
1.24527	-0.20594
-0.25932	0.53379
-0.84586	0.02363
-0.79486	0.35523
-0.43783	0.73785
0.14870	0.04914
0.42922	0.04914
0.30171	-0.05289
0.27621	0.35523
-0.02981	0.32972
0.25071	0.45726
0.40372	-0.02739
0.22521	-0.48652
0.30171	-0.30797
-0.02981	-0.00188
0.02119	0.99292
0.02119	0.10015
0.37822	-0.30797
0.17421	-1.27726
-0.02981	-0.15492
0.30171	0.71234
0.02119	1.17148
0.42922	1.09496
-0.10631	0.45726
-0.66735	0.48277
-0.10631	0.27871
0.55673	0.02363
0.35272	0.76336
0.32721	-0.35899
0.04670	-1.91496
1.19427	-0.97117
1.06676	0.61031
0.55673	0.71234
-0.18282	0.17668
-0.84586	0.48277
-0.59084	0.32972
0.14870	-0.25695
-0.74385	0.15117
-0.02981	0.71234
0.53123	0.76336
0.55673	0.07465
0.63323	-0.35899
0.35272	-0.15492
-0.05531	0.07465
-0.20832	0.40625
-0.74385	0.15117
0.40372	-0.15492
0.60773	-0.02739
0.32721	-0.12942
0.19971	-0.20594
0.09770	0.32972
0.07220	0.48277
0.09770	0.32972
0.07220	0.15117
0.19971	0.71234
0.32721	1.88570
0.78624	0.71234
-0.23382	-1.20074
-1.22839	-1.17523
-1.02437	-0.10391
-0.41233	0.02363
0.25071	-0.48652
1.42379	0.25320
1.16877	-0.23145
0.30171	0.81437
0.96476	1.29902
0.48022	0.35523
-0.51434	-0.61406
0.02119	-0.20594
0.12320	0.25320
-0.38683	0.53379
-0.51434	1.27351
-0.05531	0.22769
0.53123	-0.33348
0.30171	-0.25695
0.12320	-0.53754
-0.13181	0.89089
0.27621	0.07465
0.12320	-0.28246
0.30171	-0.74160
0.17421	0.04914
0.17421	0.63582
-0.08081	0.68683
0.19971	-0.12942
0.48022	0.07465
-0.18282	-0.51203
-0.08081	0.32972
-0.08081	-0.28246
-0.71835	0.68683
1.21977	1.27351
0.99026	0.50828
0.50573	0.38074
-0.28482	0.55929
0.12320	-0.35899
0.42922	0.04914
0.12320	0.35523
0.45472	-0.41000
0.55673	-0.48652
-0.20832	-0.10391
-0.76936	-0.63957
-0.00431	-0.02739
-0.66735	0.15117
-0.02981	0.45726
0.37822	0.53379
0.40372	0.30422
0.63323	0.32972
0.35272	0.45726
0.17421	0.32972
