0.07220	0.25320
0.19971	0.17668
0.07220	0.25320
0.22521	0.10015
0.12320	0.15117
0.22521	-0.07840
0.09770	0.20219
0.17421	0.15117
0.07220	0.20219
0.07220	0.22769
0.09770	0.07465
0.17421	0.22769
0.07220	0.17668
0.09770	0.15117
0.12320	0.10015
0.14870	0.07465
0.12320	0.12566
0.12320	0.10015
0.14870	0.17668
0.17421	0.10015
0.04670	0.10015
0.12320	0.10015
0.12320	0.25320
0.17421	0.17668
0.17421	0.12566
0.14870	0.02363
0.14870	-0.00188
0.14870	0.22769
0.09770	0.25320
0.22521	0.17668
0.07220	0.25320
0.17421	0.15117
0.04670	0.22769
0.17421	-0.00188
0.17421	0.20219
0.04670	0.10015
0.25071	0.12566
0.17421	0.10015
0.07220	0.07465
-0.02981	0.10015
0.12320	0.17668
0.25071	0.25320
0.30171	0.07465
0.02119	0.20219
-0.10631	0.15117
0.30171	0.20219
0.27621	0.10015
0.12320	0.07465
0.09770	0.10015
0.17421	0.12566
0.04670	0.20219
0.19971	0.15117
0.09770	0.22769
0.19971	0.12566
0.14870	0.25320
0.14870	0.07465
0.14870	0.02363
0.12320	0.10015
0.14870	0.04914
0.07220	0.22769
0.09770	0.25320
0.04670	0.15117
0.22521	0.02363
0.09770	0.12566
0.22521	-0.07840
0.09770	0.35523
0.22521	0.32972
0.09770	0.35523
0.19971	0.07465
0.04670	0.02363
0.17421	0.04914
0.14870	-0.00188
0.09770	0.30422
0.17421	0.17668
0.09770	0.15117
0.22521	0.17668
0.09770	0.17668
0.19971	0.10015
0.17421	0.15117
0.12320	0.04914
0.09770	-0.07840
0.12320	0.20219
0.09770	0.20219
0.09770	0.22769
0.22521	0.20219
0.12320	0.10015
0.19971	0.22769
0.22521	0.04914
0.14870	0.17668
0.12320	0.22769
0.02119	-0.00188
0.02119	0.12566
0.48022	0.15117
0.09770	0.10015
0.07220	0.22769
0.14870	0.12566
0.19971	0.17668
0.09770	0.22769
0.17421	0.15117
0.07220	0.07465
-0.05531	0.22769
0.53123	0.12566
0.30171	0.15117
0.19971	0.15117
0.09770	0.07465
0.12320	0.17668
0.12320	-0.02739
0.07220	0.07465
0.14870	0.15117
0.12320	0.20219
0.09770	0.30422
0.25071	0.20219
0.09770	0.25320
0.12320	0.40625
0.17421	0.12566
0.09770	-0.05289
0.14870	-0.25695
0.22521	-0.15492
0.07220	0.35523
0.17421	0.43176
0.12320	0.27871
0.14870	0.20219
0.14870	0.07465
0.14870	0.25320
0.27621	0.04914
0.12320	0.10015
0.19971	0.10015
0.12320	0.02363
0.12320	0.07465
0.32721	0.07465
0.04670	0.20219
0.07220	0.17668
0.14870	0.17668
0.12320	0.12566
0.14870	0.17668
0.17421	0.12566
0.12320	0.10015
0.17421	0.10015
0.14870	0.17668
0.09770	0.30422
0.12320	0.22769
0.07220	0.32972
0.25071	-0.20594
0.09770	0.07465
0.22521	0.30422
0.09770	0.07465
0.12320	0.22769
0.12320	0.04914
0.12320	0.15117
0.17421	0.10015
0.09770	0.25320
0.07220	0.20219
-0.08081	0.15117
0.22521	0.12566
0.35272	0.04914
0.32721	0.17668
-0.41233	0.04914
0.09770	0.15117
0.07220	0.04914
0.17421	0.15117
0.19971	0.12566
0.09770	0.30422
0.19971	0.15117
0.19971	0.20219
0.19971	0.22769
0.07220	0.15117
0.12320	0.20219
0.14870	0.07465
0.09770	0.04914
0.12320	0.30422
0.09770	0.38074
0.17421	0.12566
0.30171	0.10015
0.17421	0.10015
0.14870	0.10015
0.09770	0.12566
0.12320	0.15117
0.09770	0.25320
0.19971	-0.05289
0.09770	0.32972
0.22521	0.17668
0.04670	0.15117
0.25071	-0.07840
0.09770	-0.20594
0.17421	-0.00188
0.17421	0.38074
0.19971	0.50828
0.14870	0.22769
0.12320	0.04914
0.12320	-0.10391
0.07220	0.30422
0.17421	0.25320
0.07220	-0.00188
0.22521	-0.07840
0.09770	0.48277
0.22521	0.38074
0.09770	0.35523
0.17421	0.20219
0.12320	0.32972
0.12320	-0.15492
0.12320	0.15117
0.19971	-0.00188
0.04670	-0.18043
0.25071	-0.15492
0.09770	-0.07840
0.22521	0.12566
0.12320	0.25320
0.17421	0.25320
0.12320	0.30422
0.14870	0.30422
0.07220	0.25320
0.12320	0.20219
0.12320	0.38074
0.12320	0.20219
0.12320	-0.15492
0.19971	-0.25695
0.17421	-0.05289
0.14870	0.27871
0.07220	0.66132
0.14870	0.43176
-0.00431	0.50828
0.25071	0.17668
0.19971	0.17668
0.22521	-0.10391
0.07220	-0.07840
0.17421	-0.18043
0.09770	0.10015
0.19971	0.17668
0.19971	-0.02739
0.07220	-0.25695
0.25071	-0.66508
0.14870	0.10015
0.07220	0.55929
0.22521	0.63582
0.19971	0.66132
0.14870	0.45726
0.12320	0.25320
0.14870	-0.05289
0.09770	0.32972
0.17421	0.25320
0.04670	0.58480
0.19971	0.07465
0.02119	-0.86914
0.25071	-0.58856
0.09770	0.10015
0.22521	0.30422
0.07220	0.43176
0.19971	0.35523
0.12320	0.76336
0.19971	0.50828
0.12320	-0.07840
0.09770	-0.28246
0.12320	-0.66508
0.12320	-0.12942
0.22521	0.40625
0.07220	0.55929
0.22521	0.76336
0.19971	0.58480
0.07220	0.38074
0.12320	0.35523
0.07220	-0.10391
0.02119	-0.15492
0.19971	0.02363
0.19971	-0.02739
0.14870	0.20219
0.22521	0.04914
0.09770	-0.02739
0.19971	0.10015
0.14870	0.02363
0.04670	0.02363
0.12320	0.17668
0.09770	0.12566
0.02119	-0.02739
0.14870	0.55929
0.17421	0.50828
0.14870	0.40625
0.27621	0.04914
0.14870	-0.30797
0.12320	-0.15492
0.19971	0.10015
0.12320	0.35523
0.30171	0.25320
0.09770	0.38074
-0.08081	0.15117
0.30171	0.15117
0.09770	0.17668
0.02119	0.02363
0.19971	0.22769
0.22521	-0.25695
0.22521	-0.41000
0.22521	0.12566
0.09770	0.48277
0.12320	0.48277
0.14870	0.45726
0.12320	0.30422
0.07220	0.27871
0.04670	0.17668
0.07220	0.20219
0.45472	0.73785
0.37822	-0.35899
0.32721	-0.56305
0.02119	-0.30797
-0.53984	-0.69059
-0.84586	-0.23145
0.09770	0.66132
0.22521	0.96742
0.32721	0.86539
0.55673	0.83988
0.73524	0.66132
0.76074	0.32972
0.53123	-0.10391
0.09770	-0.63957
0.17421	-0.35899
0.04670	0.04914
-0.08081	-0.12942
-0.10631	0.10015
0.04670	0.20219
0.04670	0.55929
0.09770	0.43176
0.02119	0.27871
0.02119	0.12566
-0.08081	0.32972
-0.00431	0.32972
0.09770	-0.07840
0.19971	0.55929
0.25071	0.83988
-0.02981	-0.76711
0.27621	-0.89465
0.55673	-1.17523
0.48022	0.71234
0.07220	0.86539
-0.20832	1.06945
-0.08081	0.40625
0.32721	-0.20594
0.12320	0.02363
-0.56534	0.32972
0.63323	0.17668
0.53123	0.32972
0.78624	-0.07840
0.42922	0.02363
0.02119	-0.23145
-0.46334	0.07465
-0.00431	-0.41000
-0.05531	0.94191
0.19971	0.50828
0.12320	0.61031
0.22521	0.43176
0.07220	0.27871
0.22521	-0.28246
0.04670	0.10015
0.04670	-0.48652
0.32721	-0.23145
-0.20832	-0.02739
-0.33583	0.25320
-0.43783	1.63062
-0.23382	0.61031
0.27621	-1.07320
0.76074	-2.83324
0.58223	-0.38449
0.91375	1.47757
0.42922	1.73265
0.27621	0.40625
0.02119	0.02363
-0.02981	-0.30797
-0.43783	0.89089
0.07220	1.45206
0.19971	0.45726
-0.00431	0.12566
-0.13181	-0.30797
0.19971	-0.30797
0.60773	-0.12942
0.40372	-0.66508
-0.36133	-0.18043
-0.48884	-1.40480
-0.33583	-0.53754
0.53123	0.45726
0.53123	1.40105
0.50573	1.47757
0.48022	-0.25695
0.42922	-1.71090
0.12320	0.02363
-0.28482	1.70714
-0.87136	1.57960
-0.28482	1.73265
0.83725	0.73785
1.27078	-0.48652
0.65874	-1.04770
-0.64185	-0.12942
-0.59084	0.07465
-0.23382	-0.79262
-0.00431	-0.66508
0.58223	-0.38449
0.04670	-0.18043
0.19971	1.75816
0.70974	0.53379
0.55673	-0.71609
0.32721	-1.12422
-0.08081	0.71234
0.19971	2.08976
0.55673	0.40625
0.27621	-0.20594
-0.05531	-0.05289
0.02119	0.43176
-0.31033	0.71234
-0.20832	0.20219
-1.38139	0.20219
-0.61635	-0.58856
0.96476	-0.10391
1.37278	-0.33348
0.40372	-0.23145
-0.66735	-0.07840
-0.79486	0.20219
0.45472	-0.10391
0.83725	0.22769
1.14327	1.60511
0.86275	-0.12942
0.19971	-1.14973
1.09226	-0.10391
0.30171	1.04394
-0.43783	1.12046
-0.31033	1.09496
-0.18282	0.07465
-0.00431	-0.81812
-0.20832	-0.38449
-0.53984	-0.05289
0.19971	-0.07840
-0.15732	0.12566
-0.48884	1.09496
-0.13181	0.27871
0.42922	-0.74160
1.37278	-0.99668
0.53123	0.12566
1.09226	0.17668
0.09770	1.50308
-0.41233	0.99292
0.22521	-0.18043
0.73524	1.37554
1.01576	0.83988
0.42922	-0.53754
-0.59084	0.32972
-1.81492	-0.41000
-0.10631	-1.17523
0.99026	-0.69059
0.30171	-0.58856
-1.73842	1.14597
-1.58541	1.63062
1.34728	-0.43551
1.50029	-1.35379
1.09226	0.99292
0.68424	0.12566
-0.43783	2.29382
0.68424	0.04914
0.73524	-0.69059
0.55673	-0.58856
0.17421	0.55929
-1.30489	-0.02739
-0.36133	0.76336
-0.25932	1.29902
-0.02981	0.61031
-0.10631	-1.58336
0.45472	-1.22625
0.58223	-1.09871
0.27621	1.55410
0.22521	1.14597
0.07220	0.63582
0.42922	-0.58856
0.12320	0.71234
-0.08081	0.15117
0.76074	-0.02739
-0.33583	0.12566
-0.51434	-0.23145
-0.51434	0.61031
-0.69285	0.25320
0.76074	0.20219
1.50029	-0.48652
0.32721	0.73785
0.81175	0.45726
0.58223	0.91640
1.11776	0.25320
0.70974	-1.30277
-0.51434	-1.91496
-0.20832	-0.66508
-0.74385	1.24800
-0.15732	1.65613
-0.18282	2.59991
0.19971	-0.15492
0.63323	-0.41000
-0.71835	-0.20594
-0.51434	1.14597
0.40372	-0.84363
-0.31033	-2.45062
-0.18282	-2.11902
0.35272	0.99292
0.32721	3.13558
0.88825	-0.15492
1.01576	1.12046
0.63323	-2.17003
0.86275	0.00000
0.65874	0.00000
-0.08081	0.00000
-0.25932	0.73785
0.09770	1.78367
-0.51434	0.63582
-1.04987	1.09496
-0.13181	0.17668
0.27621	-0.12942
0.73524	-0.74160
0.40372	0.63582
0.32721	1.32453
0.25071	-2.29757
0.40372	-1.60887
-0.33583	-2.19554
-0.89686	1.47757
-0.05531	1.09496
0.07220	1.17148
0.70974	0.55929
0.70974	0.68683
-0.92237	-0.25695
-0.20832	0.32972
1.09226	0.43176
1.62780	-0.00188
0.65874	-0.38449
-0.15732	-0.15492
-0.20832	0.25320
0.25071	0.71234
0.04670	0.81437
-0.08081	-0.48652
0.48022	-0.81812
-0.20832	-0.00188
-0.10631	0.76336
-0.41233	-0.51203
-0.38683	0.02363
0.12320	0.81437
-0.18282	-0.00188
0.40372	1.24800
0.99026	1.12046
0.58223	-1.40480
0.07220	-1.55785
-0.13181	-0.05289
0.73524	2.03874
0.32721	1.63062
-0.89686	0.89089
0.14870	0.83988
0.02119	0.20219
0.73524	-0.84363
0.35272	-2.06800
0.91375	-1.14973
0.78624	-0.18043
0.12320	-0.15492
-0.53984	-0.79262
0.17421	0.83988
-0.51434	2.88050
-1.12638	1.96222
0.32721	0.63582
0.50573	-0.76711
0.83725	-0.86914
0.12320	-0.10391
0.19971	-0.30797
0.35272	0.02363
0.17421	-0.56305
0.19971	0.48277
0.19971	0.53379
-0.53984	0.15117
-0.25932	0.38074
-0.20832	-0.12942
-0.13181	0.40625
1.44929	0.43176
1.14327	0.40625
-0.33583	-0.56305
-0.99887	-0.51203
-0.48884	1.14597
1.34728	-0.07840
1.27078	0.81437
0.30171	-0.66508
-0.69285	-0.58856
-0.59084	0.76336
0.09770	-0.63957
0.32721	-0.05289
-0.23382	1.14597
-0.10631	1.14597
0.68424	0.73785
0.60773	-0.23145
0.63323	0.76336
0.17421	-0.38449
-0.20832	1.93671
0.09770	-0.71609
-0.00431	-1.91496
-0.02981	-3.19035
-0.33583	-0.51203
0.02119	1.75816
-0.36133	1.19699
-0.99887	0.86539
1.01576	1.27351
1.09226	0.91640
0.68424	0.96742
0.48022	0.58480
0.27621	-0.63957
-0.74385	-0.33348
0.30171	-0.94566
0.96476	-1.12422
0.12320	0.20219
0.35272	0.15117
-0.08081	0.27871
0.32721	-0.02739
-0.69285	0.99292
-0.28482	0.43176
0.45472	0.02363
-0.38683	-0.28246
0.27621	0.66132
0.83725	1.06945
-0.20832	0.55929
0.12320	-0.48652
0.02119	-0.81812
0.09770	-0.56305
0.42922	-0.79262
0.32721	1.45206
0.12320	0.81437
-0.02981	1.32453
-0.00431	0.45726
-0.20832	-0.12942
0.17421	0.25320
0.88825	-1.99148
0.78624	-0.18043
0.27621	0.10015
-0.71835	-0.10391
0.25071	0.99292
-0.08081	0.78886
0.07220	0.17668
0.50573	0.04914
0.17421	0.12566
0.50573	1.57960
0.12320	-2.45062
-0.99887	-1.45582
-0.02981	-0.56305
0.37822	1.88570
0.07220	1.65613
0.63323	1.09496
0.40372	0.99292
-0.15732	0.63582
0.60773	-0.28246
0.14870	-0.79262
0.58223	-0.28246
0.27621	-0.61406
-0.28482	0.15117
0.32721	-0.43551
0.27621	0.15117
0.09770	-0.38449
-0.31033	0.15117
-1.38139	-0.25695
-0.79486	0.55929
0.48022	1.06945
1.01576	1.29902
1.32178	-0.18043
0.30171	-0.53754
-0.02981	-1.14973
0.25071	0.61031
0.22521	1.04394
0.22521	0.25320
-0.05531	-0.25695
0.02119	-0.07840
-0.97337	0.63582
-0.08081	1.55410
0.88825	-3.01179
0.55673	-1.22625
0.27621	-0.94566
0.02119	1.75816
0.27621	2.54890
0.58223	0.71234
-0.10631	1.27351
-0.23382	-0.46102
-0.13181	-0.79262
0.60773	-0.23145
0.27621	-0.92016
-0.13181	-0.46102
-1.35589	-0.25695
-1.02437	0.48277
-0.82036	1.17148
2.08683	0.35523
1.95932	-0.74160
0.88825	-0.48652
0.70974	0.58480
0.19971	0.73785
-0.33583	0.66132
-0.53984	0.38074
0.32721	-0.18043
-0.08081	-0.63957
-0.02981	0.61031
-0.13181	0.12566
0.04670	-0.10391
0.27621	0.38074
0.12320	0.53379
-1.02437	0.53379
-0.38683	0.58480
0.32721	-0.18043
0.83725	-0.76711
0.40372	-0.53754
0.68424	0.55929
0.50573	0.73785
-0.28482	0.86539
0.12320	0.86539
-0.48884	-0.84363
0.68424	-0.97117
0.93925	-0.53754
0.27621	0.50828
0.32721	0.15117
0.02119	0.96742
-0.69285	0.73785
-0.08081	0.04914
0.30171	-0.15492
0.30171	0.12566
-0.31033	-0.63957
0.25071	-0.79262
0.40372	-0.15492
0.58223	2.44687
-0.18282	0.61031
-0.20832	-0.35899
0.12320	-0.05289
0.48022	0.04914
0.50573	0.50828
0.35272	0.30422
-0.38683	0.04914
0.55673	0.10015
0.37822	-0.61406
-1.30489	0.61031
0.07220	-0.10391
0.07220	-0.86914
-0.23382	0.10015
-0.05531	-0.05289
1.24527	1.32453
0.42922	-1.17523
0.32721	-0.76711
0.27621	-0.07840
-0.84586	-0.20594
-0.23382	1.01843
1.27078	2.16628
-0.02981	1.60511
1.04126	0.55929
0.58223	-0.66508
-0.10631	-0.28246
-0.56534	0.73785
-0.79486	0.17668
-0.02981	-1.83844
0.12320	-2.11902
0.30171	-0.28246
0.60773	2.47238
0.99026	0.83988
-0.59084	-0.05289
-0.71835	0.35523
-0.33583	0.68683
-0.48884	0.38074
1.16877	-1.07320
1.62780	0.40625
0.78624	0.40625
0.27621	0.17668
-0.00431	0.35523
-0.02981	0.89089
0.45472	-0.30797
-0.33583	-0.97117
-1.07538	-1.02219
-0.18282	-0.28246
-0.23382	0.04914
-0.00431	1.40105
0.53123	1.32453
0.86275	0.91640
1.24527	0.12566
-0.05531	-0.97117
-0.97337	0.63582
-0.76936	0.61031
0.70974	0.22769
1.11776	-1.30277
-0.89686	0.68683
0.07220	0.55929
1.32178	-0.00188
0.68424	0.27871
-0.33583	-0.07840
0.40372	-0.76711
-0.00431	-0.74160
-0.36133	0.43176
-0.08081	1.06945
0.22521	1.27351
0.45472	1.04394
0.60773	-0.48652
-0.31033	-0.30797
-0.10631	-0.07840
-0.02981	0.22769
-0.02981	0.86539
0.32721	0.66132
0.60773	-0.20594
0.63323	-0.18043
-0.10631	0.71234
-0.15732	-1.78742
0.50573	-1.65988
-0.43783	-1.32828
-0.59084	1.04394
0.58223	2.34484
0.50573	1.40105
-0.13181	0.50828
-0.69285	1.24800
1.21977	1.27351
1.19427	-0.30797
-0.36133	-1.65988
-0.43783	-0.38449
-0.20832	0.32972
0.30171	-0.56305
0.86275	1.45206
0.14870	-0.89465
1.04126	0.12566
0.37822	-0.10391
-0.20832	1.75816
-0.56534	-0.30797
-1.02437	-0.61406
-0.13181	0.20219
0.53123	0.32972
0.48022	0.22769
-0.43783	0.22769
0.32721	-0.89465
-0.08081	-0.43551
-0.15732	0.96742
0.88825	1.68163
0.63323	0.71234
0.45472	0.04914
0.12320	0.30422
0.50573	0.10015
0.12320	-0.46102
0.42922	-0.02739
0.09770	-0.05289
-0.08081	-0.56305
-0.41233	-0.53754
-0.33583	0.63582
0.35272	0.78886
0.09770	0.04914
-0.28482	-0.23145
0.30171	-0.56305
-0.13181	-0.23145
0.25071	0.10015
0.53123	-0.48652
0.76074	1.14597
1.06676	1.78367
-0.76936	0.45726
-0.74385	0.25320
0.19971	0.96742
-0.23382	-0.56305
-0.31033	-1.07320
0.22521	-0.76711
1.14327	0.99292
0.96476	-0.46102
-1.10088	0.04914
0.17421	0.55929
0.93925	-0.18043
1.19427	0.35523
1.55129	0.55929
-0.13181	-0.15492
-0.38683	0.53379
-1.17738	-0.02739
-0.61635	0.50828
-0.89686	-0.79262
-0.51434	0.43176
1.95932	0.63582
0.48022	0.32972
-0.13181	0.04914
-0.18282	-0.05289
0.17421	0.35523
0.25071	0.27871
0.14870	-0.43551
0.17421	0.20219
0.17421	0.45726
0.07220	0.83988
0.22521	-0.12942
0.14870	-1.53234
-0.02981	0.35523
0.40372	0.43176
0.30171	-0.10391
0.22521	0.43176
0.45472	1.09496
-0.08081	0.86539
0.12320	2.67644
-0.20832	-1.48133
0.12320	-2.39961
0.22521	-3.52195
0.63323	0.86539
-0.08081	2.82948
0.19971	3.03355
-0.84586	1.27351
0.02119	-0.58856
0.27621	-0.63957
0.40372	-0.86914
0.88825	0.27871
1.01576	0.15117
0.12320	-0.23145
-0.76936	-0.56305
0.58223	0.17668
0.12320	-0.05289
0.48022	-0.56305
0.17421	0.78886
0.42922	0.81437
0.50573	1.04394
-0.71835	0.20219
-1.12638	-1.22625
-1.25389	-0.02739
-0.59084	0.20219
0.88825	0.48277
1.44929	0.63582
-0.10631	-0.00188
0.22521	0.55929
-0.41233	0.58480
0.17421	0.38074
1.52579	0.73785
0.65874	-0.25695
0.55673	-1.71090
0.22521	-1.25176
0.02119	0.02363
-0.89686	1.40105
0.45472	-0.18043
0.22521	-0.86914
-0.64185	0.66132
-0.20832	1.19699
0.48022	0.66132
0.17421	1.14597
0.78624	0.22769
0.22521	-0.05289
0.07220	0.10015
0.63323	-0.35899
-0.02981	0.25320
-0.87136	-0.86914
-1.22839	0.63582
-0.28482	-1.04770
0.09770	0.50828
0.25071	-1.22625
1.50029	-0.33348
0.91375	-0.46102
0.14870	1.06945
1.14327	1.55410
0.83725	1.65613
0.12320	0.89089
-0.20832	0.20219
-0.66735	-0.18043
-1.48340	1.01843
0.14870	0.76336
-0.05531	-0.12942
0.68424	-2.80773
1.19427	-0.97117
-0.66735	-0.66508
-0.71835	0.53379
0.37822	0.50828
0.63323	1.06945
0.40372	2.29382
0.19971	0.15117
-0.76936	-0.58856
0.63323	-2.24656
0.73524	-0.00188
0.35272	0.55929
-0.00431	1.96222
-0.00431	1.35003
0.45472	0.81437
-0.13181	-0.38449
-0.20832	-0.18043
-0.38683	-0.46102
-0.28482	-0.46102
0.14870	-0.35899
0.22521	-0.74160
-0.15732	0.25320
0.68424	1.57960
0.78624	0.55929
0.14870	-1.09871
-0.59084	-0.69059
-0.66735	-0.38449
0.68424	1.42656
0.99026	1.32453
0.86275	1.32453
0.48022	-0.00188
-0.71835	0.81437
-0.74385	-0.97117
-0.92237	-0.46102
1.01576	-1.48133
0.93925	-0.35899
0.14870	0.83988
0.27621	0.63582
0.14870	0.61031
0.25071	0.78886
0.45472	0.91640
0.76074	-0.56305
-1.43240	-0.28246
-0.82036	-0.00188
0.37822	0.07465
0.12320	-0.00188
0.17421	0.15117
1.75531	0.32972
0.19971	0.04914
-0.13181	0.48277
-0.41233	-0.18043
-0.25932	0.61031
0.35272	-0.35899
-0.08081	0.07465
-0.36133	-1.02219
0.30171	-0.63957
0.55673	0.22769
1.29628	1.91120
0.42922	1.68163
-0.00431	0.55929
0.37822	-0.76711
0.19971	-0.35899
-0.10631	-0.76711
-0.48884	1.12046
-0.71835	-0.10391
0.27621	0.12566
0.17421	0.07465
0.27621	-0.43551
0.55673	0.27871
0.53123	1.27351
-0.15732	0.20219
0.07220	0.22769
-0.18282	-2.96078
0.32721	-0.74160
-0.61635	-1.45582
-1.30489	1.93671
-0.20832	2.21730
1.90832	1.27351
2.16333	0.73785
1.19427	0.58480
-0.02981	0.78886
-0.43783	-0.43551
-0.33583	-0.79262
-0.61635	-0.74160
0.40372	-0.07840
-0.31033	0.07465
-0.38683	-0.20594
0.17421	-0.18043
0.09770	0.17668
0.40372	0.78886
-0.20832	0.91640
0.42922	-0.25695
-0.46334	0.20219
0.14870	-0.56305
-0.10631	-1.25176
0.30171	-0.05289
1.06676	1.06945
0.42922	0.99292
0.12320	1.17148
-0.18282	0.68683
0.55673	0.20219
0.40372	-0.43551
0.32721	-0.00188
-0.15732	0.96742
-0.08081	0.81437
-0.02981	0.02363
-0.08081	-1.94047
-0.10631	-0.63957
-0.84586	-0.35899
0.17421	0.25320
0.17421	0.10015
0.88825	0.07465
0.73524	0.30422
0.12320	2.19179
-0.41233	0.61031
0.32721	-0.58856
0.40372	-0.10391
0.07220	-0.53754
0.73524	0.22769
0.17421	0.35523
0.22521	0.96742
-1.63641	0.76336
0.27621	0.15117
1.29628	0.15117
0.70974	-0.05289
0.45472	-0.18043
0.14870	0.35523
-0.76936	0.12566
0.40372	-0.46102
-1.10088	-1.30277
-0.15732	-1.73640
0.96476	-0.05289
0.88825	1.06945
0.02119	1.32453
-0.05531	1.19699
0.55673	0.30422
-0.15732	0.86539
0.12320	0.25320
0.58223	0.38074
0.60773	-0.07840
0.12320	0.38074
-0.18282	0.43176
-0.46334	-0.35899
-0.23382	-2.24656
0.22521	-1.50683
0.32721	0.02363
0.42922	1.14597
0.02119	1.78367
-0.08081	2.14077
0.58223	0.91640
1.11776	-1.58336
0.42922	-0.86914
-0.36133	0.58480
-1.25389	0.73785
-0.02981	-0.56305
0.09770	-0.94566
0.25071	0.02363
0.12320	-0.76711
0.35272	0.99292
0.73524	1.27351
1.04126	0.91640
0.60773	1.42656
1.09226	-0.07840
0.17421	-0.63957
-0.89686	0.15117
-0.84586	-0.41000
-0.53984	-0.35899
-0.18282	-0.46102
0.50573	0.40625
0.45472	0.38074
0.19971	0.20219
-0.08081	0.04914
-0.33583	0.22769
-0.10631	0.50828
0.22521	0.48277
0.19971	0.04914
1.19427	-0.20594
0.60773	0.78886
0.78624	-0.12942
0.14870	-0.25695
-0.71835	-0.63957
-0.33583	-0.71609
0.48022	0.53379
-0.61635	0.89089
-0.20832	0.35523
-0.31033	0.48277
0.60773	0.86539
0.99026	0.58480
0.68424	-0.07840
0.42922	-0.38449
0.76074	0.25320
0.17421	1.04394
-0.00431	-0.38449
-0.48884	-0.99668
-0.28482	0.07465
0.12320	0.27871
0.22521	0.43176
-0.18282	0.17668
-0.08081	0.15117
0.17421	-0.56305
-0.00431	0.35523
0.25071	-0.12942
-0.46334	0.38074
0.53123	0.91640
0.37822	0.71234
0.99026	-0.18043
1.24527	0.02363
-1.22839	-0.02739
-1.12638	-0.33348
-1.07538	0.53379
1.06676	1.98773
1.11776	-0.79262
1.09226	-1.09871
0.63323	-1.07320
0.17421	0.61031
0.32721	0.43176
0.96476	0.73785
0.25071	0.66132
-0.31033	0.89089
-1.48340	-0.92016
-0.51434	-0.35899
0.53123	0.30422
0.19971	0.96742
-1.25389	0.25320
-0.66735	-0.58856
0.58223	0.53379
1.29628	0.27871
2.57136	0.32972
1.21977	-0.23145
-0.18282	1.17148
-0.59084	-0.86914
-0.33583	-0.38449
-0.51434	-0.63957
-0.51434	0.58480
0.02119	0.63582
0.07220	0.35523
-0.08081	0.91640
0.73524	0.61031
0.30171	-0.89465
0.45472	-1.04770
0.50573	1.27351
-0.36133	0.91640
-0.08081	0.07465
-0.43783	-0.66508
0.12320	-0.20594
0.76074	-1.22625
0.76074	0.27871
-0.28482	0.91640
-0.51434	0.86539
0.02119	0.50828
0.53123	1.57960
-0.82036	0.45726
0.88825	-1.83844
1.44929	-1.43031
0.53123	0.22769
-1.48340	1.14597
-0.99887	-0.28246
0.35272	-0.56305
1.39828	1.52859
0.58223	1.17148
-0.59084	0.25320
0.48022	-0.02739
0.22521	-0.48652
-0.20832	0.02363
-0.25932	1.27351
0.07220	-0.66508
-0.18282	-1.07320
0.55673	-0.56305
0.78624	0.66132
0.27621	0.12566
-0.20832	0.12566
-0.87136	0.66132
0.25071	0.81437
0.35272	0.40625
0.22521	0.22769
0.35272	0.22769
0.76074	-0.35899
0.53123	0.02363
-0.00431	-0.05289
-0.15732	-0.25695
-0.59084	0.15117
-0.20832	1.35003
0.02119	1.12046
0.70974	-0.46102
0.35272	-0.33348
0.30171	-1.40480
0.19971	0.43176
-0.38683	1.06945
0.12320	0.45726
-0.99887	0.35523
1.39828	-0.33348
1.80631	0.15117
0.22521	-0.02739
0.40372	1.37554
-0.33583	0.04914
-0.10631	-0.15492
-0.20832	-0.79262
0.22521	0.35523
0.19971	1.14597
-0.66735	-0.79262
-0.20832	-0.97117
-0.36133	-0.28246
0.12320	1.09496
0.35272	1.24800
0.65874	0.68683
-0.10631	0.35523
1.09226	-0.00188
0.58223	0.07465
0.22521	0.04914
0.40372	0.02363
-1.40690	-0.10391
-0.25932	-0.46102
0.65874	-0.30797
0.09770	0.15117
0.76074	0.30422
0.76074	0.22769
0.09770	0.15117
0.04670	0.43176
0.02119	-0.07840
-0.66735	0.63582
-0.46334	0.40625
0.58223	0.66132
0.27621	0.61031
0.12320	-0.20594
0.58223	0.40625
1.11776	-0.56305
0.27621	-1.32828
-0.74385	0.25320
0.07220	1.06945
-0.33583	0.35523
0.32721	0.55929
0.63323	0.53379
-0.59084	0.30422
0.27621	0.32972
0.14870	-0.05289
0.78624	-0.43551
0.19971	-1.02219
-0.05531	0.02363
-0.48884	1.14597
0.37822	0.40625
0.68424	-0.15492
0.19971	-0.07840
0.12320	0.71234
-0.18282	0.48277
0.76074	0.96742
-0.23382	-0.05289
-0.18282	0.12566
0.22521	0.20219
0.53123	-0.69059
0.02119	0.15117
-0.71835	-0.05289
0.65874	0.45726
0.96476	-0.20594
-0.46334	-0.38449
0.17421	0.76336
-0.10631	0.22769
-0.43783	0.66132
0.22521	-0.28246
0.78624	-0.30797
0.53123	0.27871
-0.59084	0.10015
-0.48884	-0.18043
0.58223	-0.25695
0.45472	0.68683
0.58223	0.55929
0.19971	0.63582
0.12320	0.15117
0.30171	-0.00188
0.30171	1.12046
-0.20832	0.86539
-0.43783	-0.48652
0.48022	0.53379
0.63323	-0.10391
-0.23382	-1.27726
-0.36133	-1.22625
-0.31033	-0.48652
-0.23382	0.07465
0.73524	0.25320
0.32721	0.96742
0.35272	2.19179
0.93925	0.83988
0.93925	-1.02219
-0.18282	-0.05289
-0.08081	-0.43551
-0.18282	0.45726
-0.28482	0.96742
-0.69285	0.30422
0.22521	-0.74160
1.14327	0.27871
1.24527	0.38074
-0.28482	0.02363
-0.43783	-0.41000
-0.38683	0.22769
0.35272	0.15117
-0.74385	-0.92016
-1.02437	0.04914
1.34728	0.10015
0.76074	1.09496
0.45472	0.66132
0.48022	0.99292
0.53123	0.07465
0.14870	-0.76711
0.27621	-0.12942
-0.08081	0.86539
-0.20832	0.53379
-0.02981	0.38074
-0.46334	-0.71609
-0.31033	-0.28246
0.42922	0.35523
0.27621	-0.15492
0.30171	-1.35379
0.50573	-0.92016
-0.28482	0.38074
-0.05531	1.65613
-0.69285	1.57960
0.02119	0.35523
0.65874	0.12566
0.93925	0.25320
0.68424	0.48277
1.24527	0.38074
1.27078	-0.25695
-0.08081	-0.81812
-1.17738	0.04914
0.09770	0.58480
-0.10631	-0.25695
-0.31033	0.66132
-0.33583	-0.43551
-0.15732	-0.23145
0.19971	-0.81812
0.27621	-0.76711
0.02119	0.45726
0.27621	0.71234
-0.51434	1.24800
0.02119	0.55929
0.30171	-0.05289
0.17421	0.10015
0.50573	0.43176
0.53123	1.01843
0.81175	2.34484
0.53123	-0.05289
0.19971	-2.42511
0.42922	-2.17003
-0.64185	2.03874
0.22521	0.30422
-0.23382	-0.25695
-0.56534	-1.22625
0.25071	0.76336
0.30171	1.24800
0.78624	0.99292
0.02119	0.15117
-0.05531	-0.10391
0.32721	-0.15492
0.96476	0.83988
-0.74385	0.38074
0.32721	-0.84363
0.55673	-0.30797
-0.48884	-0.38449
-0.20832	0.32972
0.70974	0.38074
0.32721	-0.15492
-0.10631	0.40625
0.02119	0.35523
0.58223	0.50828
0.22521	0.43176
-0.33583	0.07465
0.50573	0.20219
0.58223	-0.00188
0.37822	-0.63957
-0.05531	-0.20594
-0.02981	1.17148
-0.23382	0.12566
0.17421	0.55929
-0.38683	-0.20594
-0.48884	0.12566
0.09770	-0.66508
0.30171	0.27871
0.65874	-0.76711
1.06676	-0.23145
0.17421	0.32972
0.02119	1.27351
0.30171	0.22769
0.12320	0.63582
0.04670	0.32972
-0.48884	0.04914
0.78624	0.83988
0.14870	-0.41000
-0.51434	-0.86914
-0.13181	-0.99668
-0.41233	0.15117
0.27621	0.32972
0.68424	-0.23145
1.04126	0.50828
0.12320	0.58480
-0.56534	1.70714
0.07220	1.19699
-0.13181	-1.48133
0.12320	-0.51203
0.78624	-1.12422
0.48022	0.12566
-0.10631	1.01843
-0.36133	0.20219
0.58223	0.68683
0.22521	0.12566
-0.56534	0.22769
0.76074	0.10015
1.32178	0.10015
-0.10631	0.12566
-0.99887	-0.20594
-0.13181	0.12566
-0.08081	-0.23145
-0.18282	0.27871
0.17421	0.22769
0.91375	0.15117
0.53123	0.32972
-0.38683	0.45726
-0.23382	0.66132
0.86275	0.61031
0.22521	0.25320
-0.48884	-0.94566
-0.38683	-0.38449
-0.08081	0.15117
0.76074	0.35523
0.40372	-0.23145
0.70974	0.07465
0.83725	0.45726
0.37822	1.04394
0.32721	1.45206
-0.13181	-0.35899
-1.02437	-0.30797
-0.71835	0.61031
-0.28482	0.66132
0.12320	-0.63957
1.27078	-0.10391
0.48022	-1.50683
-0.08081	-0.38449
-0.05531	0.40625
0.96476	0.66132
-0.02981	0.25320
-0.31033	1.42656
-0.89686	0.61031
0.73524	0.12566
1.34728	-0.18043
0.86275	0.04914
-1.48340	-0.35899
-1.40690	-0.71609
0.63323	-0.63957
0.99026	0.66132
0.32721	0.02363
1.06676	0.02363
1.01576	0.20219
-0.00431	0.91640
-0.28482	1.35003
-0.05531	0.91640
-0.61635	-0.99668
-0.59084	-0.92016
-0.43783	0.35523
-0.10631	0.61031
-0.53984	-0.10391
0.30171	0.73785
0.93925	0.32972
0.88825	-0.18043
1.04126	-0.48652
0.42922	0.12566
0.04670	0.58480
-0.02981	0.43176
0.50573	0.02363
0.22521	-0.05289
-0.18282	0.12566
-0.61635	-1.58336
0.58223	-0.05289
-0.13181	-0.43551
0.65874	1.37554
-0.28482	1.01843
-1.02437	1.17148
-0.18282	0.91640
0.45472	1.29902
0.88825	-0.94566
0.42922	-1.68539
-0.36133	-0.74160
1.29628	0.48277
1.16877	0.63582
0.02119	-0.76711
-0.41233	-0.74160
0.09770	-0.02739
-0.36133	0.50828
-0.38683	0.96742
0.17421	1.06945
0.40372	0.15117
0.58223	-0.10391
-0.08081	0.10015
0.50573	0.10015
0.70974	-0.18043
0.02119	0.40625
-0.79486	0.61031
-0.82036	-0.00188
-0.38683	-0.63957
0.63323	0.76336
1.11776	0.91640
0.60773	-0.28246
0.63323	-1.48133
-0.13181	-0.74160
0.37822	-0.41000
-0.10631	1.19699
-0.10631	0.99292
0.14870	0.76336
0.55673	0.17668
0.60773	0.55929
-0.99887	-0.23145
-1.07538	-0.20594
-0.51434	-0.53754
1.27078	0.78886
0.88825	0.43176
0.40372	0.07465
0.30171	0.22769
-0.51434	0.40625
0.68424	0.38074
0.88825	-0.10391
0.50573	-0.33348
1.04126	-0.41000
-1.22839	0.20219
-1.84042	0.04914
0.32721	0.78886
0.37822	-0.69059
0.96476	-0.35899
-0.02981	-0.35899
-0.10631	0.73785
0.22521	0.38074
0.60773	1.14597
0.53123	0.10015
0.22521	-0.51203
0.17421	0.32972
-0.23382	0.91640
-0.48884	0.20219
0.07220	1.17148
-0.31033	-1.32828
-0.00431	-0.58856
0.19971	-0.35899
0.70974	0.66132
1.04126	-0.15492
-0.08081	0.10015
-0.74385	-0.00188
0.42922	0.40625
1.50029	0.38074
-0.66735	0.94191
-1.33039	-0.00188
0.45472	0.50828
0.17421	0.10015
0.45472	0.12566
0.68424	-0.76711
1.04126	0.35523
0.48022	-0.79262
-0.59084	0.07465
-0.36133	-0.05289
1.37278	0.83988
0.07220	1.01843
-0.08081	0.50828
-0.08081	0.61031
-1.73842	-0.12942
-0.79486	-0.58856
0.81175	-0.20594
0.81175	0.32972
0.35272	0.40625
0.07220	-0.76711
0.32721	-0.51203
0.45472	0.71234
0.32721	0.96742
0.53123	0.66132
-0.08081	-0.56305
0.30171	-0.05289
-0.31033	0.38074
0.48022	-0.43551
-0.25932	0.12566
-0.05531	-0.02739
0.30171	0.66132
0.53123	0.73785
0.50573	-0.00188
-0.25932	0.68683
-0.46334	-0.07840
0.22521	0.35523
0.14870	0.61031
0.53123	0.30422
0.35272	0.32972
-0.53984	-0.81812
-0.74385	0.91640
-0.20832	0.40625
1.09226	-0.63957
0.93925	-2.14453
-0.82036	-0.81812
0.40372	-0.30797
0.65874	1.14597
0.76074	1.45206
0.42922	1.52859
0.45472	1.14597
0.25071	0.63582
-0.61635	0.07465
-0.66735	0.32972
-0.84586	-0.41000
-0.31033	-0.86914
0.32721	-0.48652
0.40372	-0.05289
0.86275	0.48277
0.42922	-0.02739
0.48022	-0.20594
0.58223	-0.38449
0.42922	0.83988
0.09770	0.35523
0.27621	0.07465
0.12320	1.04394
-0.15732	0.76336
0.07220	0.30422
0.12320	-0.99668
-0.69285	-0.00188
-0.31033	0.04914
-0.23382	-0.84363
0.22521	0.66132
0.60773	0.78886
0.91375	0.35523
0.25071	-0.18043
0.88825	0.78886
-0.18282	0.15117
-0.23382	0.43176
-0.00431	0.27871
0.04670	0.10015
-0.13181	-0.00188
0.14870	0.30422
0.53123	-0.63957
0.55673	-1.37929
0.81175	-0.71609
0.45472	0.38074
-0.76936	1.24800
-0.23382	1.06945
0.73524	0.66132
0.37822	-0.12942
-0.56534	0.73785
-1.20288	-0.28246
-0.36133	-0.53754
1.29628	-0.56305
0.68424	-0.18043
0.17421	0.89089
1.11776	0.40625
0.42922	0.61031
-0.31033	-0.00188
0.04670	-0.12942
-0.59084	0.76336
0.12320	0.53379
0.25071	-0.28246
0.50573	-1.04770
1.11776	-0.23145
-0.00431	-0.15492
-1.02437	0.20219
-0.46334	0.27871
-0.69285	0.81437
0.93925	1.22250
0.60773	0.15117
0.02119	-0.63957
0.14870	-0.66508
1.34728	0.45726
0.27621	0.45726
0.22521	0.58480
-0.05531	-0.18043
-0.33583	-0.15492
0.17421	0.15117
-0.31033	-0.00188
-0.28482	-0.18043
-0.05531	0.53379
-0.10631	0.63582
0.45472	-0.05289
0.40372	-0.25695
0.68424	-0.30797
0.14870	0.96742
0.12320	1.68163
-0.15732	-1.20074
-0.41233	-1.20074
0.37822	-0.48652
0.42922	1.04394
0.63323	0.89089
0.37822	1.06945
0.53123	-0.18043
0.12320	-1.04770
-0.36133	-0.30797
0.27621	0.32972
-0.18282	0.48277
-0.59084	-0.12942
-0.02981	-0.35899
0.12320	0.76336
0.81175	0.63582
0.68424	0.45726
0.27621	-0.20594
0.32721	0.71234
0.37822	0.35523
-0.74385	0.04914
-0.46334	-0.46102
-0.41233	-0.28246
-0.15732	-0.28246
0.37822	0.12566
0.37822	0.25320
1.42379	0.43176
1.67880	0.15117
-0.23382	-0.41000
-1.58541	0.30422
-1.10088	0.10015
0.19971	0.15117
0.63323	0.81437
0.32721	-0.63957
0.76074	0.17668
1.65330	-0.05289
1.42379	0.81437
-0.41233	0.32972
-0.53984	0.91640
-2.06994	-0.15492
-1.20288	-0.20594
0.32721	0.55929
0.27621	0.83988
0.32721	-0.81812
0.53123	-0.58856
1.19427	-0.79262
1.44929	0.30422
0.17421	0.35523
-0.20832	0.86539
-0.10631	-0.15492
0.42922	-0.18043
-0.28482	-0.66508
-0.02981	0.50828
-0.25932	1.29902
-0.08081	0.71234
-0.00431	0.40625
0.12320	-0.05289
0.30171	-0.25695
0.09770	-0.43551
0.14870	-0.10391
-0.00431	0.83988
0.32721	0.35523
0.30171	0.96742
0.12320	0.22769
0.25071	-0.69059
0.04670	-1.35379
0.48022	-1.09871
0.50573	-0.35899
-0.08081	1.17148
-0.33583	1.24800
-0.23382	0.86539
0.14870	0.43176
0.30171	0.27871
-0.02981	-0.02739
-0.36133	-0.25695
0.81175	-0.18043
0.83725	-0.35899
0.55673	-0.30797
0.12320	0.27871
0.70974	0.63582
-0.51434	0.32972
0.17421	0.78886
0.50573	-0.35899
-0.66735	-0.46102
-0.48884	0.15117
0.09770	0.89089
0.19971	0.53379
-0.76936	-0.63957
0.14870	-0.38449
0.25071	0.32972
0.83725	-0.51203
0.73524	-0.43551
0.07220	1.29902
0.35272	2.29382
0.48022	0.55929
0.35272	-0.99668
-0.20832	-1.25176
0.02119	-0.51203
0.17421	0.17668
0.27621	0.94191
-0.10631	1.22250
-0.38683	1.22250
0.30171	0.35523
0.32721	-0.07840
-0.08081	-1.48133
0.02119	-0.71609
0.32721	-0.71609
0.99026	0.43176
0.32721	0.53379
-0.23382	0.12566
-0.43783	0.86539
0.50573	0.66132
-0.48884	0.63582
0.78624	0.50828
0.42922	0.07465
-0.10631	-0.10391
0.14870	-0.46102
0.22521	-0.30797
0.50573	0.76336
0.32721	-0.28246
0.60773	-0.63957
0.45472	-1.35379
-0.08081	0.61031
-0.38683	1.68163
-0.69285	0.63582
-0.15732	-0.02739
0.09770	-0.69059
-0.20832	0.76336
-0.10631	0.89089
0.68424	0.07465
0.93925	0.32972
-0.02981	0.35523
0.12320	0.27871
0.14870	-0.15492
0.25071	-0.07840
0.25071	-0.53754
0.02119	-1.07320
-0.02981	-0.15492
0.12320	0.40625
-0.08081	1.42656
0.30171	0.89089
0.12320	-0.05289
0.32721	-0.05289
0.17421	0.12566
0.09770	-1.02219
0.32721	1.06945
0.70974	1.52859
0.32721	0.73785
-0.79486	-1.30277
-1.45790	0.02363
0.63323	-0.58856
1.04126	0.89089
0.40372	-0.56305
0.09770	0.73785
-0.74385	-0.23145
-0.15732	0.61031
0.99026	0.27871
1.44929	-0.18043
0.76074	0.32972
0.09770	0.15117
-0.36133	0.12566
-0.64185	0.27871
0.14870	0.58480
1.65330	-0.05289
0.02119	-0.43551
-0.25932	0.04914
-0.59084	-0.10391
-1.30489	0.35523
-1.04987	-0.94566
-1.43240	0.50828
0.83725	0.76336
0.86275	0.38074
1.42379	0.45726
1.19427	0.94191
0.96476	0.30422
0.58223	-0.15492
0.48022	-0.58856
-0.08081	0.17668
-0.18282	-0.38449
-0.05531	-0.25695
-0.20832	-0.61406
-0.10631	0.45726
-0.23382	1.06945
0.02119	0.71234
-0.15732	0.48277
0.17421	0.48277
0.45472	0.71234
0.27621	-0.63957
-0.20832	-0.23145
0.12320	0.89089
0.04670	0.76336
0.53123	-1.22625
0.22521	-2.24656
0.70974	-2.14453
-0.82036	1.32453
-0.23382	1.50308
0.42922	0.94191
0.91375	0.94191
0.58223	0.86539
-0.23382	1.09496
0.45472	-0.48652
0.99026	-0.69059
0.65874	0.04914
0.02119	0.45726
-1.10088	-0.28246
-0.25932	-0.05289
-0.48884	0.43176
-0.20832	0.32972
-0.15732	-0.18043
0.35272	0.02363
0.22521	-0.18043
0.70974	-0.28246
0.76074	0.35523
0.17421	1.55410
-0.05531	-0.02739
0.07220	0.04914
-0.89686	-1.53234
-0.48884	-0.10391
0.27621	1.52859
0.88825	0.50828
0.91375	-0.00188
0.63323	-0.58856
0.58223	0.81437
0.37822	0.15117
-0.20832	0.30422
-0.33583	0.38074
0.17421	-0.12942
-0.05531	1.60511
-0.13181	-0.00188
-0.41233	-0.81812
-0.08081	-2.24656
0.22521	0.53379
0.68424	0.38074
0.55673	0.20219
0.22521	0.35523
-0.31033	0.86539
0.32721	1.37554
0.78624	0.15117
-0.02981	-0.56305
0.07220	-0.46102
-0.31033	0.43176
0.12320	0.40625
0.07220	-0.23145
-0.10631	-0.46102
0.17421	0.04914
-0.08081	0.83988
2.11233	0.45726
1.37278	0.10015
0.14870	-0.05289
-1.10088	0.25320
-0.15732	-0.10391
-0.51434	-1.02219
0.37822	0.45726
0.22521	0.10015
-0.38683	0.58480
0.40372	0.48277
0.25071	0.96742
0.45472	0.35523
0.30171	0.45726
-0.20832	-0.07840
-0.31033	-0.20594
-0.23382	0.86539
0.22521	0.04914
0.30171	-0.81812
0.40372	-0.86914
0.45472	0.27871
0.65874	0.35523
0.99026	0.45726
0.02119	-0.38449
-1.02437	0.30422
-1.33039	-0.94566
-0.79486	-0.18043
0.58223	2.16628
1.50029	0.71234
1.65330	1.01843
-0.02981	-0.99668
1.01576	-0.15492
0.53123	1.42656
-0.25932	0.22769
-0.71835	-0.00188
-1.61091	-0.61406
-0.05531	-0.33348
-0.41233	-0.89465
0.19971	-0.07840
0.55673	1.09496
0.88825	0.86539
0.83725	0.10015
0.88825	0.58480
0.73524	-0.10391
0.22521	-0.43551
0.12320	-0.25695
-0.38683	0.15117
-0.31033	0.86539
0.27621	-0.10391
-1.15188	-0.05289
-0.76936	-0.48652
-1.22839	0.04914
-0.53984	-0.25695
1.37278	0.10015
1.32178	0.04914
1.55129	0.12566
1.60230	1.12046
0.86275	1.17148
0.09770	1.50308
-0.18282	-0.25695
-0.84586	-0.43551
-0.64185	-0.43551
0.12320	-0.25695
0.04670	0.71234
0.07220	0.73785
0.17421	-0.23145
0.25071	-0.43551
0.12320	-1.17523
-0.48884	-0.28246
0.09770	0.50828
0.35272	0.71234
0.76074	0.48277
0.65874	0.68683
1.21977	0.35523
-1.15188	-0.05289
-1.17738	0.45726
-1.04987	-0.18043
-0.64185	-0.07840
0.53123	0.32972
1.39828	0.04914
2.08683	0.20219
0.81175	-0.23145
0.25071	0.04914
0.02119	0.78886
0.60773	-1.09871
0.93925	-0.25695
-0.84586	0.50828
-1.10088	0.81437
-0.97337	0.55929
-0.28482	0.35523
1.14327	0.78886
0.60773	-0.30797
-1.20288	-1.07320
-0.33583	-0.86914
0.53123	0.43176
0.22521	1.12046
0.53123	1.19699
0.73524	0.55929
0.68424	-0.07840
0.30171	0.48277
0.04670	-0.58856
-0.18282	-0.07840
0.12320	0.35523
-0.05531	0.15117
0.22521	-0.05289
0.12320	0.35523
0.42922	-0.63957
0.12320	0.12566
0.04670	-1.17523
-0.20832	0.20219
-0.79486	0.25320
0.17421	1.22250
-0.38683	1.22250
1.16877	0.61031
0.76074	0.22769
0.32721	0.10015
0.22521	-0.38449
-0.38683	-0.20594
0.96476	-0.41000
0.19971	0.66132
0.02119	0.27871
0.19971	0.12566
-0.25932	-0.53754
-1.50890	0.20219
-0.02981	-0.38449
1.01576	0.68683
0.19971	0.61031
0.04670	0.35523
0.37822	-0.56305
1.01576	0.02363
0.65874	0.73785
0.27621	0.17668
-0.05531	1.27351
-0.20832	-0.38449
0.09770	-0.66508
0.12320	-0.28246
-0.36133	1.06945
-0.20832	0.76336
0.27621	0.73785
0.09770	-0.07840
-0.08081	-0.41000
-0.23382	0.04914
-0.13181	-0.12942
-0.08081	-0.35899
0.25071	-1.81293
1.01576	-0.58856
0.58223	0.15117
0.60773	2.14077
-0.36133	0.96742
-0.08081	1.52859
0.40372	0.45726
0.63323	0.27871
0.12320	-0.99668
-0.87136	0.38074
-0.10631	0.07465
0.99026	0.07465
0.48022	-0.92016
-0.28482	-0.71609
0.09770	0.25320
0.58223	1.17148
0.76074	0.76336
-0.15732	0.07465
0.12320	0.27871
-0.23382	-0.00188
-0.59084	-0.23145
0.37822	-0.05289
-0.56534	-0.51203
-0.87136	0.04914
0.40372	0.45726
1.37278	0.71234
0.99026	0.55929
-0.18282	0.53379
-0.15732	-0.41000
0.70974	0.32972
-0.08081	-0.12942
-0.13181	0.40625
0.02119	0.10015
-0.20832	0.50828
-0.15732	-0.99668
0.22521	0.38074
0.07220	-0.86914
0.35272	0.50828
0.14870	1.37554
0.37822	1.17148
-0.10631	-0.02739
0.63323	0.12566
0.19971	-0.25695
-0.33583	-0.12942
0.30171	0.04914
-1.30489	-0.28246
0.50573	0.50828
1.11776	1.24800
0.88825	-0.41000
-0.23382	0.04914
0.14870	-0.07840
0.63323	-0.33348
0.37822	0.25320
0.14870	1.29902
-0.38683	-1.32828
-0.23382	-0.35899
-0.74385	0.35523
-0.61635	0.83988
0.09770	0.63582
0.93925	0.86539
1.78081	-0.10391
0.93925	-0.35899
-0.15732	-0.33348
-1.07538	0.12566
-0.69285	0.17668
0.04670	1.06945
-0.28482	0.78886
-1.04987	-1.53234
-0.23382	-0.69059
0.93925	-0.74160
1.78081	0.63582
1.16877	1.19699
0.81175	0.94191
-0.20832	0.07465
-0.20832	0.32972
-0.08081	0.25320
-0.02981	0.10015
-0.20832	0.40625
-0.38683	-1.32828
-0.28482	-1.27726
0.14870	0.15117
0.04670	0.96742
-0.00431	1.09496
0.07220	0.50828
0.14870	0.10015
0.88825	0.63582
0.58223	-0.35899
-0.10631	0.15117
0.32721	-0.10391
-0.20832	-0.30797
0.58223	0.22769
0.32721	0.35523
-0.18282	0.22769
-0.48884	-0.10391
-0.82036	-0.48652
0.40372	-1.35379
-0.10631	0.07465
0.88825	1.04394
1.75531	1.12046
0.48022	0.38074
-0.20832	0.86539
0.65874	1.47757
0.73524	0.15117
0.63323	-1.40480
-0.79486	-0.76711
-2.37596	0.27871
-0.74385	0.17668
0.04670	-0.00188
1.60230	0.25320
1.57679	0.38074
-0.00431	0.10015
-0.46334	-0.43551
0.76074	0.27871
0.02119	0.68683
-0.46334	0.02363
-0.41233	-0.15492
0.19971	0.68683
0.53123	-0.05289
0.40372	-0.05289
0.42922	0.22769
0.27621	0.53379
0.22521	0.27871
0.09770	0.12566
0.07220	-0.23145
-0.08081	1.14597
-0.10631	-0.76711
-0.10631	-0.63957
0.25071	-1.73640
0.53123	0.61031
0.14870	1.45206
-0.28482	1.19699
0.19971	0.61031
1.14327	0.89089
-0.66735	0.35523
-1.40690	-1.07320
-0.00431	-1.07320
1.70430	1.04394
0.73524	-0.84363
0.93925	0.91640
-0.59084	-1.30277
-1.40690	0.61031
-0.79486	0.45726
0.45472	0.04914
0.17421	-0.69059
0.88825	0.61031
0.19971	0.55929
1.04126	0.94191
1.06676	0.35523
0.25071	0.20219
-1.17738	0.38074
-0.10631	0.12566
0.12320	-0.05289
0.32721	0.53379
-0.28482	0.22769
-0.28482	0.27871
0.53123	-0.63957
0.45472	-0.10391
-0.53984	-0.48652
-0.41233	0.10015
-0.00431	-0.00188
0.40372	-0.18043
0.76074	1.12046
0.65874	0.40625
0.45472	0.38074
0.48022	-0.66508
0.14870	-0.35899
0.09770	0.76336
-0.18282	1.37554
-0.36133	1.14597
0.14870	0.20219
0.19971	-0.56305
-0.02981	-0.05289
-0.13181	-0.05289
0.22521	-0.46102
0.25071	-0.76711
0.68424	0.58480
0.14870	0.94191
-0.41233	0.91640
-0.36133	-0.71609
0.35272	-0.58856
-0.59084	-0.05289
-0.00431	-0.46102
0.35272	0.20219
1.14327	0.50828
0.07220	0.71234
1.14327	0.68683
1.14327	0.10015
1.14327	0.35523
-0.18282	0.15117
-0.94787	0.04914
-1.12638	-0.23145
-0.08081	0.45726
0.17421	-0.12942
1.19427	0.32972
-0.41233	-0.23145
-1.55991	-0.18043
-0.56534	0.35523
0.40372	0.55929
0.88825	0.02363
0.53123	-0.33348
0.93925	-0.00188
0.96476	-0.25695
0.42922	0.76336
-0.69285	0.22769
-0.59084	0.30422
0.53123	0.15117
0.48022	1.63062
0.32721	0.32972
0.30171	-1.02219
0.09770	-1.14973
0.14870	-0.12942
-0.66735	0.94191
0.53123	0.07465
0.09770	0.30422
-0.20832	0.61031
0.42922	0.66132
0.04670	-0.23145
-0.10631	-0.10391
0.12320	-0.23145
0.63323	-0.69059
-0.08081	0.45726
-0.13181	-0.28246
0.42922	-0.18043
0.50573	0.17668
0.58223	1.78367
0.63323	1.12046
0.48022	0.30422
-0.69285	-0.53754
-1.35589	-0.56305
0.07220	-0.05289
0.60773	0.68683
0.63323	-0.46102
0.70974	-0.63957
1.19427	-0.51203
0.04670	0.81437
-0.69285	0.83988
-0.23382	0.20219
0.37822	0.50828
-0.10631	0.81437
-0.41233	0.38074
-0.23382	-0.10391
-0.33583	-0.23145
0.60773	-0.48652
0.76074	0.20219
0.50573	0.55929
-0.02981	0.17668
-0.13181	-0.76711
-0.05531	-0.81812
0.48022	0.27871
0.53123	1.04394
0.76074	0.63582
0.30171	0.73785
-0.53984	-1.09871
-0.08081	-0.48652
-0.25932	0.86539
0.02119	1.22250
0.25071	0.22769
1.06676	0.22769
0.22521	0.04914
0.14870	-0.00188
-0.28482	-0.18043
-1.15188	-0.07840
0.42922	-0.02739
1.21977	-0.76711
0.40372	0.07465
0.09770	0.50828
-0.64185	1.19699
-0.10631	0.96742
0.53123	-0.07840
0.53123	-0.84363
0.07220	-0.30797
-0.23382	0.15117
-0.71835	-0.23145
0.55673	0.07465
0.68424	0.07465
0.93925	1.04394
0.81175	1.47757
0.37822	0.73785
0.02119	0.40625
-0.38683	-0.38449
-0.82036	-0.43551
-0.64185	-0.81812
0.76074	-0.92016
-0.05531	0.35523
-0.48884	0.61031
-0.13181	0.91640
0.09770	0.40625
0.81175	-0.30797
0.73524	-0.33348
0.83725	-1.07320
-0.25932	0.76336
0.07220	1.14597
0.09770	1.01843
0.60773	0.58480
0.30171	-0.00188
0.07220	-0.66508
0.48022	0.17668
-0.38683	-0.35899
-0.31033	0.58480
-0.53984	0.02363
-0.38683	0.48277
0.45472	0.15117
0.76074	-0.58856
0.50573	-1.35379
-0.10631	0.40625
-0.38683	1.09496
1.14327	0.81437
0.32721	0.55929
-0.36133	-0.23145
-0.92237	0.71234
0.07220	0.02363
1.24527	-0.76711
0.99026	-0.43551
0.12320	0.20219
-0.43783	0.45726
-0.51434	0.43176
-1.27939	0.30422
0.04670	0.10015
1.39828	0.35523
0.86275	0.15117
0.81175	-0.71609
0.60773	0.15117
0.30171	0.25320
-0.31033	0.22769
-0.61635	-0.12942
-0.66735	0.10015
-0.28482	0.45726
0.09770	0.94191
0.58223	1.19699
0.83725	0.81437
0.30171	-0.35899
-0.08081	-0.12942
-0.08081	-0.53754
0.35272	0.73785
0.02119	-0.12942
0.60773	-0.35899
0.12320	-1.50683
-0.13181	-1.30277
-0.00431	1.06945
-0.28482	1.17148
0.07220	0.78886
0.07220	1.01843
1.27078	0.45726
0.22521	-0.07840
0.42922	-0.23145
0.42922	0.17668
-1.07538	0.15117
-0.41233	-0.10391
0.25071	0.76336
0.19971	-0.71609
0.93925	-0.12942
0.04670	-0.28246
0.32721	0.30422
-0.20832	0.15117
0.27621	0.63582
0.09770	0.04914
0.07220	0.94191
0.65874	0.43176
0.55673	-0.35899
0.14870	-1.12422
-1.61091	0.02363
-0.38683	1.14597
0.25071	0.30422
0.32721	-0.76711
0.42922	0.10015
0.48022	0.76336
0.45472	1.19699
0.65874	0.55929
0.45472	-0.00188
-0.15732	-0.07840
-0.69285	-0.25695
-0.02981	-0.05289
0.40372	-1.07320
0.25071	0.43176
0.60773	0.78886
0.19971	-0.43551
0.40372	-0.58856
-0.56534	0.25320
0.09770	0.86539
-0.38683	0.25320
-0.25932	0.76336
0.48022	-0.23145
1.27078	0.63582
0.60773	-0.38449
-0.31033	0.30422
-0.08081	0.02363
-0.00431	-0.15492
-0.18282	1.40105
0.42922	0.66132
-0.00431	-0.48652
0.45472	-1.20074
0.50573	-0.66508
0.53123	0.20219
0.07220	0.76336
-0.05531	0.53379
-0.02981	0.27871
-0.36133	0.61031
0.17421	0.45726
0.35272	-0.02739
0.25071	-0.35899
-0.46334	-0.05289
-0.76936	0.35523
0.19971	-0.05289
0.58223	-0.33348
0.32721	1.14597
0.27621	0.63582
0.93925	-1.35379
0.09770	0.02363
-0.28482	0.32972
0.07220	0.68683
-0.02981	0.78886
0.32721	0.50828
0.76074	-0.25695
0.53123	-0.20594
-0.51434	-0.33348
-0.18282	1.04394
0.35272	-0.25695
-0.20832	-0.51203
0.17421	-0.43551
0.14870	0.17668
0.40372	1.80917
-0.23382	0.86539
-0.46334	0.04914
0.07220	-0.69059
-0.08081	-0.63957
0.37822	-0.02739
-0.48884	0.76336
0.86275	-0.18043
0.35272	0.07465
1.04126	-0.10391
0.04670	0.17668
0.32721	1.14597
0.88825	0.94191
0.14870	0.78886
-0.43783	-0.79262
-0.79486	-1.76191
0.07220	-0.28246
0.50573	0.78886
-0.08081	0.50828
0.35272	0.17668
0.53123	0.40625
0.37822	0.66132
-0.31033	0.66132
-0.87136	0.25320
-0.02981	-0.15492
-1.02437	-1.37929
0.14870	-1.04770
0.91375	-0.05289
0.73524	0.89089
0.88825	1.01843
0.76074	1.14597
0.53123	0.63582
0.12320	-0.20594
-0.08081	-0.38449
-1.07538	-0.33348
0.02119	0.25320
0.27621	0.38074
-0.08081	0.02363
0.50573	0.15117
0.65874	0.35523
0.70974	0.55929
-0.00431	0.02363
-0.59084	-0.18043
-1.20288	0.30422
-0.08081	0.15117
0.88825	-0.23145
-0.10631	-0.20594
0.55673	-0.15492
0.30171	-0.20594
0.99026	0.50828
0.55673	0.71234
0.58223	1.24800
0.53123	0.04914
-0.08081	-0.02739
-1.50890	-0.69059
-0.13181	0.66132
0.32721	0.66132
0.04670	-0.02739
0.12320	0.35523
-0.00431	-0.43551
0.02119	0.32972
0.48022	1.01843
0.07220	-0.48652
-0.43783	-0.53754
0.25071	-0.15492
0.22521	0.48277
0.58223	0.86539
-0.23382	0.40625
-0.46334	-0.86914
0.53123	-0.15492
1.11776	0.40625
0.65874	0.38074
0.37822	1.17148
0.70974	0.02363
0.17421	-0.35899
-0.20832	-0.35899
-0.25932	0.43176
-0.28482	0.66132
-1.20288	0.83988
-0.02981	0.17668
0.76074	-0.00188
-0.08081	-0.05289
-0.20832	-0.05289
0.40372	0.63582
1.01576	0.02363
1.09226	-0.05289
0.63323	-0.15492
-0.28482	0.04914
-0.25932	-0.28246
0.27621	-0.20594
-0.18282	0.32972
0.04670	0.58480
-0.00431	0.20219
-0.10631	0.20219
-0.36133	0.55929
0.78624	0.40625
0.42922	0.38074
-0.33583	0.04914
-0.48884	-0.56305
-0.89686	-0.25695
0.07220	0.48277
0.93925	0.91640
0.83725	-0.30797
1.14327	0.53379
0.73524	0.32972
0.30171	0.20219
0.35272	0.10015
-0.20832	-0.66508
-0.64185	0.10015
-0.15732	-0.66508
1.14327	0.38074
-0.56534	1.09496
-0.64185	0.81437
-0.36133	-0.23145
-0.33583	-0.18043
0.19971	0.48277
-0.38683	0.53379
0.42922	0.04914
0.70974	0.04914
0.70974	-0.12942
1.09226	-0.25695
0.81175	0.45726
0.50573	0.07465
-0.56534	0.55929
-0.18282	-0.79262
0.12320	-0.05289
-0.08081	-0.23145
0.35272	0.55929
-0.69285	-0.23145
-0.94787	-0.38449
0.42922	0.61031
0.27621	0.94191
0.63323	0.83988
0.55673	0.55929
0.60773	0.22769
-0.25932	0.15117
-0.99887	-0.30797
-0.48884	0.22769
0.68424	-0.20594
1.09226	-0.92016
0.25071	-0.56305
0.78624	0.43176
1.37278	0.15117
-0.20832	0.66132
0.12320	0.94191
-0.89686	0.20219
-0.46334	-0.69059
-0.05531	0.86539
-0.56534	0.12566
-0.13181	0.17668
0.65874	-0.15492
0.45472	0.66132
0.68424	0.22769
0.63323	0.12566
0.50573	0.22769
0.27621	-0.38449
0.14870	0.25320
-0.18282	0.22769
-0.61635	-0.53754
0.32721	-0.48652
0.09770	0.25320
0.09770	0.78886
-0.31033	-0.15492
-0.13181	-0.00188
-0.23382	-0.53754
0.07220	1.29902
0.45472	0.81437
0.40372	1.19699
0.37822	-0.15492
1.06676	0.22769
0.22521	-0.63957
-0.20832	0.02363
-0.69285	-0.51203
0.32721	-0.18043
0.81175	0.53379
-0.33583	0.61031
-1.40690	0.22769
-0.84586	0.04914
0.93925	0.10015
1.47479	0.15117
1.21977	-0.18043
0.48022	-0.00188
0.83725	0.40625
0.45472	0.63582
-0.18282	0.04914
0.22521	-0.18043
-0.76936	0.17668
-1.58541	0.38074
-0.38683	0.83988
0.19971	0.32972
0.68424	-0.76711
0.58223	0.15117
-0.02981	-0.02739
-0.84586	-0.02739
-0.43783	0.48277
0.55673	-0.20594
1.16877	0.30422
1.55129	0.71234
1.01576	0.94191
-0.13181	0.71234
-0.53984	-0.23145
0.63323	-1.12422
0.40372	-0.35899
-0.48884	0.27871
-0.20832	0.15117
-0.13181	0.63582
-0.08081	1.06945
0.17421	0.17668
0.02119	-0.71609
-0.08081	0.25320
0.14870	-0.05289
0.09770	0.58480
0.27621	0.40625
0.35272	-0.46102
0.30171	-1.50683
0.17421	0.43176
0.19971	1.17148
0.55673	1.06945
0.19971	0.30422
-0.02981	0.30422
-0.25932	0.27871
-0.87136	0.10015
0.12320	-0.18043
0.25071	-0.15492
0.68424	0.04914
0.55673	0.07465
0.19971	-0.15492
-0.48884	-0.07840
0.50573	-0.05289
-0.13181	-0.15492
-0.02981	-0.05289
0.45472	0.25320
0.88825	0.76336
0.02119	0.61031
0.45472	0.27871
-0.02981	0.10015
0.17421	0.43176
-0.43783	0.61031
-1.02437	0.17668
-0.15732	0.10015
0.50573	-0.30797
0.60773	-0.41000
0.50573	-0.02739
0.42922	-0.00188
0.07220	1.86019
-0.05531	0.66132
-0.08081	-1.91496
0.55673	-1.68539
0.14870	0.15117
0.02119	0.99292
0.17421	1.22250
-0.02981	0.76336
-0.33583	1.12046
0.50573	0.71234
0.58223	0.32972
0.27621	-0.74160
0.14870	-0.53754
0.48022	0.04914
0.19971	0.73785
-0.00431	0.12566
0.48022	-0.61406
-0.36133	-0.97117
-0.36133	-0.89465
-0.71835	0.63582
0.42922	0.66132
-0.02981	0.81437
-0.20832	0.66132
1.06676	0.55929
1.37278	0.38074
0.53123	0.27871
0.09770	0.12566
-0.13181	0.10015
-0.48884	0.07465
0.12320	-0.15492
-0.08081	0.07465
0.30171	-0.07840
0.42922	-0.63957
0.12320	0.20219
-0.41233	0.40625
-1.12638	1.04394
-0.48884	-0.66508
0.76074	-0.41000
0.53123	-0.25695
0.48022	0.15117
0.32721	0.73785
0.50573	0.27871
0.19971	0.96742
-0.18282	0.45726
0.50573	0.55929
0.40372	0.45726
0.35272	-0.84363
0.07220	-0.28246
-0.18282	-0.79262
-0.23382	0.25320
-0.05531	1.22250
-1.61091	-1.04770
-0.25932	-0.89465
1.01576	-0.10391
1.19427	0.40625
1.09226	0.99292
0.60773	1.17148
-0.18282	0.50828
-0.20832	0.20219
-0.59084	0.15117
0.12320	-0.00188
0.07220	-0.46102
0.76074	-0.48652
0.88825	0.10015
0.53123	0.63582
-0.48884	0.38074
-0.41233	-0.69059
-0.53984	-0.07840
-0.99887	0.50828
0.19971	0.43176
1.09226	0.35523
0.73524	0.17668
0.91375	0.25320
0.25071	0.07465
0.14870	0.07465
-0.05531	0.17668
-0.15732	0.22769
-0.10631	0.78886
-0.18282	-0.38449
0.09770	-0.48652
0.40372	-0.46102
0.68424	0.32972
0.25071	0.73785
0.14870	0.61031
0.12320	0.30422
0.22521	0.22769
0.17421	0.78886
-0.05531	-0.15492
-0.84586	-0.28246
-0.15732	-0.43551
0.68424	0.43176
0.93925	0.58480
0.68424	0.96742
0.58223	-1.60887
-0.59084	-0.43551
-0.53984	-0.18043
0.02119	0.81437
-0.10631	0.86539
0.30171	0.63582
0.55673	0.55929
0.60773	0.53379
-0.05531	0.53379
0.12320	-0.20594
-0.00431	-0.20594
0.35272	-0.38449
0.25071	-0.43551
0.73524	-0.61406
0.30171	-0.07840
-1.53441	0.66132
-0.69285	0.07465
0.53123	0.89089
0.35272	0.12566
0.78624	0.40625
0.42922	-0.05289
-0.08081	-0.15492
-0.56534	0.07465
-0.10631	0.55929
0.99026	0.66132
0.63323	0.30422
0.58223	0.32972
0.02119	0.07465
-0.61635	-0.02739
-0.71835	-0.30797
-0.31033	-0.15492
0.48022	0.68683
0.78624	-0.25695
0.45472	1.04394
0.32721	-0.66508
-0.66735	-0.76711
-0.18282	-0.38449
0.25071	0.38074
0.30171	0.02363
-0.08081	0.73785
0.22521	0.48277
-0.02981	-0.23145
-0.15732	0.43176
0.58223	0.30422
0.83725	0.43176
0.83725	0.91640
-0.10631	0.38074
-0.69285	-0.66508
-0.28482	-1.02219
0.14870	0.50828
0.35272	0.43176
0.58223	0.53379
-0.02981	-0.30797
-0.48884	-0.05289
0.30171	0.15117
0.22521	1.78367
-0.15732	-1.12422
-0.13181	-0.86914
0.91375	-0.81812
0.70974	1.27351
0.70974	0.81437
0.42922	0.40625
-0.36133	0.71234
-0.51434	0.66132
-0.28482	0.10015
0.45472	-0.38449
0.12320	-0.15492
0.09770	0.30422
0.88825	0.20219
0.32721	-0.46102
-0.46334	-0.20594
-1.15188	0.50828
-0.59084	0.12566
0.86275	-0.41000
1.19427	-0.10391
0.55673	0.99292
0.09770	0.10015
-0.05531	0.45726
-0.13181	-0.76711
0.04670	0.53379
0.68424	1.47757
0.91375	-0.51203
-0.66735	-0.56305
0.32721	0.71234
0.42922	0.96742
0.45472	-0.66508
-0.51434	0.32972
-0.05531	-0.10391
0.35272	0.66132
0.32721	0.10015
-0.23382	-0.28246
-0.20832	-0.35899
-0.36133	1.27351
0.19971	0.71234
0.30171	-0.07840
0.53123	0.20219
0.25071	0.07465
0.86275	-0.46102
0.55673	-1.32828
0.04670	-0.33348
-0.56534	1.17148
0.07220	0.30422
0.70974	0.45726
-0.84586	0.63582
-0.43783	-0.05289
-0.43783	-0.18043
0.07220	-0.20594
0.88825	-0.05289
1.04126	0.38074
0.58223	0.35523
-0.23382	0.50828
0.27621	0.22769
0.30171	0.27871
-0.00431	0.38074
0.27621	0.15117
-0.15732	0.12566
-0.23382	0.07465
-0.28482	-0.02739
0.14870	0.55929
0.30171	-0.33348
0.35272	-0.58856
-0.18282	-0.20594
-0.13181	0.17668
0.58223	-0.05289
0.12320	0.50828
-0.10631	1.80917
0.35272	0.12566
0.63323	-0.61406
0.27621	-0.66508
-0.08081	0.71234
-0.31033	0.35523
0.14870	-0.15492
0.37822	-0.10391
-0.28482	0.53379
0.35272	0.25320
0.73524	0.61031
0.40372	0.10015
-0.02981	-0.63957
0.35272	-0.51203
-0.10631	1.01843
0.81175	0.58480
0.02119	-0.33348
-1.02437	-0.48652
-0.69285	0.25320
0.53123	0.15117
