-0.08081	0.25320
0.17421	0.07465
0.19971	0.25320
0.22521	0.15117
0.22521	0.22769
0.12320	0.22769
0.12320	0.04914
0.09770	-0.00188
0.04670	0.20219
0.12320	0.10015
0.19971	0.15117
0.12320	0.12566
0.14870	0.25320
0.09770	0.10015
0.12320	0.07465
0.12320	0.25320
0.14870	0.10015
0.22521	0.27871
0.07220	0.17668
0.14870	0.04914
0.22521	0.15117
0.07220	0.15117
0.17421	0.10015
0.19971	0.10015
0.09770	-0.00188
0.17421	0.04914
0.17421	0.22769
0.04670	0.20219
0.12320	0.12566
0.14870	0.27871
0.09770	0.12566
0.22521	0.15117
0.17421	-0.00188
0.09770	-0.07840
0.14870	0.07465
0.12320	0.32972
0.09770	0.25320
0.17421	0.25320
0.12320	0.22769
0.19971	0.15117
0.22521	0.20219
0.02119	0.15117
0.14870	0.04914
0.17421	0.20219
0.04670	0.12566
0.22521	-0.00188
0.19971	0.02363
-0.05531	0.12566
0.07220	0.10015
0.42922	0.10015
0.07220	0.20219
0.22521	0.10015
0.12320	0.22769
-0.08081	0.25320
0.22521	0.17668
0.30171	0.17668
0.14870	0.12566
0.04670	-0.05289
-0.48884	0.10015
0.68424	0.04914
0.30171	0.27871
0.09770	0.30422
0.02119	0.15117
0.27621	0.22769
0.09770	0.20219
-0.08081	0.20219
0.22521	0.17668
0.12320	-0.00188
0.22521	0.04914
0.12320	0.02363
0.27621	0.12566
0.14870	0.25320
0.04670	0.04914
0.17421	0.12566
0.12320	0.07465
0.09770	0.22769
0.12320	0.17668
0.07220	0.20219
0.22521	0.22769
0.09770	0.07465
0.25071	0.10015
0.07220	0.07465
0.17421	0.32972
0.14870	-0.05289
0.14870	-0.02739
0.14870	0.27871
0.09770	0.20219
0.12320	0.30422
0.07220	0.22769
0.22521	0.32972
0.19971	0.07465
0.14870	0.20219
0.14870	0.20219
0.12320	-0.07840
0.09770	-0.02739
-0.08081	-0.12942
0.09770	0.07465
0.19971	0.27871
0.09770	0.27871
-0.31033	0.32972
0.22521	0.12566
0.30171	0.02363
0.27621	0.15117
0.14870	-0.05289
0.25071	0.15117
0.19971	0.30422
0.17421	0.17668
0.14870	0.25320
-0.00431	0.17668
0.09770	-0.05289
0.17421	0.02363
0.04670	-0.07840
0.14870	-0.10391
0.14870	0.30422
0.09770	0.07465
0.22521	-0.00188
0.17421	0.43176
0.09770	0.43176
0.14870	0.32972
0.14870	0.27871
0.14870	0.12566
0.25071	0.15117
0.07220	0.10015
0.17421	-0.02739
0.22521	0.15117
0.12320	0.04914
0.09770	-0.00188
0.22521	0.07465
0.04670	0.07465
0.22521	-0.20594
0.02119	0.22769
0.12320	0.15117
0.48022	0.35523
0.09770	0.35523
0.12320	0.10015
0.17421	0.20219
0.02119	0.30422
0.07220	0.04914
0.19971	-0.02739
0.12320	-0.05289
0.25071	0.27871
0.12320	0.55929
0.19971	0.27871
0.22521	0.02363
0.07220	-0.10391
0.14870	-0.12942
0.22521	0.07465
0.02119	0.22769
0.14870	0.53379
0.14870	0.55929
0.02119	0.17668
0.12320	-0.00188
0.14870	-0.07840
0.12320	-0.18043
0.12320	0.10015
0.12320	0.20219
0.07220	-0.05289
0.22521	-0.12942
0.12320	0.04914
0.12320	0.35523
0.14870	0.35523
0.22521	0.43176
0.17421	0.35523
0.25071	0.12566
-0.02981	0.22769
0.02119	0.15117
0.25071	0.02363
0.14870	0.07465
0.19971	0.02363
0.17421	-0.02739
0.14870	-0.05289
0.14870	-0.07840
0.19971	0.12566
-0.00431	0.27871
0.14870	0.30422
0.19971	0.45726
0.12320	0.71234
-0.05531	0.32972
0.22521	0.15117
0.14870	-0.46102
0.27621	-0.46102
0.17421	-0.05289
0.09770	0.35523
0.14870	0.38074
0.07220	0.25320
0.09770	0.35523
0.12320	0.50828
0.09770	0.25320
0.14870	0.12566
0.12320	0.25320
0.19971	-0.15492
0.14870	-0.41000
0.12320	-0.35899
0.14870	-0.05289
0.17421	0.35523
0.07220	0.12566
0.19971	0.22769
-0.00431	0.45726
0.22521	0.43176
0.14870	0.40625
0.17421	0.07465
0.14870	0.30422
0.17421	0.35523
0.14870	0.17668
0.17421	-0.02739
0.14870	-0.58856
0.14870	-0.25695
0.22521	-0.02739
0.09770	0.04914
0.17421	0.38074
0.07220	0.50828
0.19971	0.58480
0.09770	0.25320
0.19971	0.12566
0.09770	-0.00188
0.19971	0.20219
0.07220	0.15117
0.14870	0.22769
0.14870	0.32972
0.17421	-0.00188
0.22521	-0.05289
0.07220	-0.28246
0.25071	0.04914
0.14870	0.07465
-0.33583	0.17668
0.04670	0.25320
0.58223	0.35523
0.09770	0.17668
0.09770	0.22769
-0.00431	0.20219
0.19971	0.15117
0.14870	0.22769
0.12320	0.12566
-0.08081	0.04914
0.45472	0.17668
0.22521	0.12566
-0.53984	0.43176
0.40372	0.35523
0.30171	-0.00188
0.04670	-0.12942
0.07220	-0.86914
0.14870	-0.10391
0.04670	0.50828
0.22521	0.38074
0.14870	0.66132
0.07220	0.63582
0.25071	0.43176
0.12320	0.25320
0.14870	0.04914
0.19971	0.61031
0.09770	0.17668
0.14870	-0.58856
0.12320	-0.53754
0.04670	-1.04770
0.22521	0.40625
0.12320	0.45726
0.19971	0.12566
0.07220	0.43176
0.14870	0.66132
0.07220	0.53379
0.17421	0.45726
0.04670	0.22769
0.27621	0.20219
0.14870	0.12566
0.12320	-0.48652
0.14870	-0.51203
0.07220	-0.15492
0.09770	0.32972
0.04670	0.53379
0.30171	0.45726
0.14870	0.30422
0.27621	0.17668
0.12320	0.12566
0.22521	0.25320
0.07220	0.04914
0.12320	0.15117
0.09770	0.07465
0.14870	-0.02739
0.19971	0.15117
-0.13181	0.10015
0.22521	-0.23145
0.32721	0.27871
0.12320	0.15117
0.25071	0.27871
0.19971	0.30422
0.22521	-0.46102
0.65874	0.22769
0.12320	0.61031
-0.08081	0.02363
-0.25932	0.04914
-1.12638	0.07465
-0.89686	0.04914
0.30171	0.04914
0.65874	0.43176
0.93925	0.20219
1.09226	-0.20594
0.83725	-0.23145
0.68424	-0.10391
0.27621	0.35523
0.09770	0.48277
-0.05531	-0.00188
-0.20832	0.22769
-0.20832	0.35523
-0.20832	0.10015
-0.13181	0.12566
-0.08081	-0.18043
-0.28482	0.50828
-0.38683	0.48277
0.37822	0.38074
0.22521	0.22769
0.81175	0.07465
0.25071	-0.00188
0.02119	-0.25695
-0.00431	-0.23145
0.14870	0.02363
0.27621	-0.05289
0.27621	-0.28246
0.14870	-0.30797
0.22521	0.35523
0.12320	0.58480
0.22521	0.99292
0.12320	0.40625
0.22521	0.61031
0.27621	0.81437
0.07220	0.04914
-0.08081	-0.61406
0.12320	-0.71609
0.14870	-0.25695
0.14870	-0.25695
-0.00431	-0.00188
0.22521	0.22769
0.22521	0.32972
0.14870	0.55929
0.02119	0.73785
0.35272	0.30422
0.22521	0.35523
0.32721	-0.10391
0.35272	0.04914
0.02119	-0.71609
-0.23382	0.02363
0.04670	0.71234
-0.15732	0.27871
0.32721	0.45726
0.40372	0.35523
0.25071	0.04914
0.30171	0.15117
0.25071	0.40625
0.12320	-0.23145
0.04670	-0.00188
0.07220	-0.41000
0.12320	-0.41000
0.32721	-0.46102
0.50573	-0.20594
-0.10631	0.45726
-0.61635	0.73785
-0.41233	0.61031
0.19971	1.35003
0.27621	0.83988
0.73524	-0.10391
0.76074	-0.66508
0.58223	-0.97117
0.37822	-0.81812
0.30171	-0.10391
-0.05531	0.10015
0.07220	-1.20074
-0.31033	-0.25695
-0.25932	0.99292
0.27621	2.72745
0.50573	2.01323
-0.59084	1.06945
-0.59084	1.06945
-0.46334	-0.41000
-0.53984	-1.30277
0.68424	-1.60887
1.27078	-0.00188
1.06676	0.27871
0.37822	0.22769
0.27621	-1.43031
0.76074	-0.92016
-0.69285	0.02363
-0.08081	0.76336
0.68424	-0.02739
0.40372	2.19179
0.07220	0.32972
-0.43783	-0.79262
-0.56534	0.55929
-0.23382	1.68163
-0.53984	-0.28246
-0.02981	1.47757
0.55673	0.17668
0.91375	-1.02219
0.63323	0.15117
0.32721	-1.04770
-0.10631	-0.89465
0.32721	0.10015
1.01576	0.71234
0.32721	0.81437
-0.02981	1.73265
-0.28482	1.35003
0.02119	1.83468
-0.56534	-0.33348
-1.38139	0.10015
-0.94787	-3.85355
-0.10631	-2.85874
0.32721	-3.19035
1.75531	3.21210
1.90832	2.29382
1.55129	1.45206
0.48022	0.30422
0.63323	0.78886
0.32721	0.35523
-0.87136	1.83468
-1.40690	-1.09871
-0.99887	2.80397
0.30171	-4.23616
1.52579	-0.10391
0.91375	-0.92016
-0.89686	0.27871
-0.36133	0.43176
-0.87136	1.01843
-0.33583	1.75816
0.42922	0.91640
1.83181	-0.05289
0.81175	-0.99668
0.30171	0.22769
-0.38683	-0.74160
0.53123	-0.05289
0.70974	0.91640
-0.33583	0.76336
-0.69285	-0.71609
0.35272	1.70714
0.35272	-1.63437
-0.20832	-0.86914
0.55673	1.19699
0.12320	0.15117
0.40372	1.22250
0.35272	1.14597
-0.43783	1.45206
-0.56534	-1.81293
0.22521	-1.73640
0.93925	-1.04770
-0.64185	0.91640
-0.05531	1.75816
0.30171	0.40625
-0.02981	0.22769
0.65874	-1.02219
0.73524	1.32453
-0.25932	-1.09871
0.09770	0.45726
0.45472	-0.94566
0.63323	0.32972
0.12320	1.98773
0.02119	1.06945
-0.13181	-0.28246
0.53123	-3.41992
0.30171	-1.78742
0.58223	2.11527
0.65874	1.98773
-0.05531	1.55410
-0.28482	0.63582
-0.64185	-0.79262
-0.33583	-1.14973
0.35272	-0.25695
-0.94787	0.53379
-0.02981	1.96222
0.22521	-0.43551
0.32721	0.63582
-0.02981	-0.28246
-0.20832	-0.81812
1.09226	-0.84363
1.01576	-0.99668
1.39828	2.42136
0.88825	1.47757
-0.61635	-1.04770
-0.89686	0.48277
0.35272	0.61031
0.65874	0.27871
0.83725	-0.46102
1.24527	-0.23145
0.14870	1.04394
-1.30489	-1.12422
-1.43240	-0.41000
-1.10088	0.86539
0.22521	0.50828
0.99026	1.91120
0.53123	-0.05289
0.78624	-0.53754
0.53123	-2.17003
0.37822	-0.94566
0.53123	0.58480
-0.64185	1.63062
-1.02437	-0.02739
-0.53984	0.99292
0.32721	-0.20594
0.42922	1.45206
0.88825	-1.58336
1.55129	2.44687
1.24527	-0.41000
0.40372	0.00000
-0.25932	0.00000
-0.05531	-0.48652
-1.35589	-1.83844
-1.04987	-1.04770
0.02119	0.66132
0.70974	2.37034
0.37822	2.01323
-0.31033	0.35523
-1.02437	0.30422
0.25071	-0.99668
0.88825	-0.86914
1.47479	-1.14973
1.57679	-0.84363
1.11776	1.37554
0.40372	0.81437
0.09770	0.32972
0.17421	-0.58856
-0.38683	0.50828
-0.92237	0.35523
-0.56534	1.17148
-0.87136	-0.89465
-0.79486	-0.20594
-0.18282	0.25320
0.40372	0.58480
0.60773	0.53379
0.60773	0.15117
0.12320	0.53379
0.55673	1.04394
0.73524	-0.41000
0.19971	-0.30797
-0.38683	-0.56305
0.30171	-0.58856
0.93925	1.04394
0.55673	0.50828
-0.25932	3.72225
-0.05531	-4.05761
-1.07538	-1.40480
0.30171	-2.70570
0.91375	2.98253
-0.08081	2.11527
0.25071	1.57960
-0.00431	0.17668
-0.15732	0.02363
0.60773	1.37554
0.37822	-0.74160
-0.31033	-1.40480
1.09226	-2.42511
0.30171	0.66132
-0.51434	0.78886
-0.76936	0.71234
0.22521	0.81437
0.22521	0.25320
0.40372	0.02363
0.09770	-0.71609
0.27621	-0.56305
0.22521	0.66132
-0.23382	-0.15492
0.48022	1.32453
0.78624	1.47757
0.63323	2.03874
-0.02981	-2.93527
0.32721	-0.63957
-0.38683	-1.07320
0.09770	0.15117
0.17421	0.99292
0.35272	-0.18043
-0.59084	0.30422
-1.61091	1.57960
-0.05531	1.86019
0.96476	2.54890
0.99026	0.78886
0.96476	-1.50683
0.96476	-1.99148
0.68424	-1.96597
-0.94787	0.32972
-0.99887	-1.37929
-0.13181	-0.86914
-0.74385	0.43176
0.53123	2.08976
0.60773	2.65093
1.21977	0.27871
1.52579	0.45726
-0.84586	-0.43551
-0.64185	-1.32828
-0.97337	0.53379
-1.40690	0.17668
0.50573	0.55929
3.59142	0.76336
0.48022	0.73785
0.22521	-1.68539
-0.25932	-3.08831
0.27621	0.53379
-0.69285	1.19699
0.48022	0.73785
-0.59084	2.39585
-0.74385	1.12046
-0.10631	1.04394
-0.08081	-2.93527
0.04670	-1.02219
0.81175	0.02363
0.50573	2.77847
0.02119	2.93151
0.04670	-3.01179
0.02119	-0.12942
0.19971	-0.66508
0.60773	0.30422
0.76074	-1.73640
0.60773	0.25320
-0.99887	2.16628
0.45472	1.96222
0.70974	1.83468
-1.02437	2.39585
-0.59084	-1.09871
0.91375	0.63582
0.78624	-2.80773
0.78624	-1.25176
0.22521	-3.13933
-0.76936	-1.65988
-0.97337	-1.04770
0.53123	1.27351
1.34728	2.47238
0.63323	1.93671
0.42922	2.16628
-0.97337	1.22250
-0.43783	0.76336
0.53123	0.02363
0.70974	-0.25695
0.37822	-0.94566
1.34728	-0.58856
0.93925	-0.10391
-1.07538	0.35523
-1.55991	0.35523
-1.58541	-3.19035
-0.82036	-3.54745
0.86275	-0.15492
1.01576	2.16628
1.14327	2.95702
1.01576	1.93671
0.55673	1.06945
0.35272	3.00804
0.27621	-0.35899
0.02119	-0.51203
-0.00431	-3.95558
-0.08081	-1.20074
-0.00431	0.17668
-0.23382	1.27351
0.07220	1.17148
0.02119	1.04394
-0.31033	1.91120
0.96476	0.81437
-0.13181	0.25320
-0.59084	-1.17523
-0.28482	-1.91496
0.53123	-2.01699
0.99026	-0.43551
0.48022	-0.41000
0.63323	0.94191
0.37822	4.74256
-0.46334	-0.23145
-0.41233	-1.65988
0.27621	-1.48133
0.12320	1.45206
-0.59084	0.66132
0.73524	0.76336
0.83725	1.52859
-0.36133	0.91640
0.63323	-0.86914
-0.84586	-1.58336
-0.51434	-1.58336
0.78624	0.20219
0.81175	1.50308
-0.00431	0.78886
-0.25932	2.37034
0.35272	-1.63437
0.45472	-0.86914
0.76074	-1.02219
0.45472	0.86539
-0.23382	0.78886
0.09770	1.04394
-0.64185	1.88570
-0.25932	0.96742
0.14870	-1.48133
0.25071	-2.68019
0.65874	0.48277
0.22521	0.55929
-0.31033	0.66132
-0.05531	0.66132
0.53123	0.12566
0.35272	0.35523
0.04670	-0.20594
0.25071	-0.48652
0.53123	0.55929
0.35272	1.63062
0.22521	-0.94566
-0.38683	-1.27726
-0.02981	-1.43031
-0.20832	0.91640
0.88825	1.57960
0.48022	0.91640
-0.92237	-0.97117
-1.10088	-0.33348
-1.40690	0.99292
2.03582	0.58480
2.29084	1.17148
0.68424	0.89089
0.88825	-0.48652
0.32721	-0.28246
-1.27939	0.40625
-0.20832	0.35523
0.58223	-2.19554
-0.02981	-0.94566
-1.76392	-0.71609
-0.18282	0.61031
0.86275	1.35003
1.11776	2.03874
0.04670	0.38074
-0.20832	0.48277
0.04670	-1.50683
0.55673	-0.51203
0.19971	-0.10391
0.19971	0.43176
0.09770	1.75816
0.14870	0.86539
0.53123	-0.18043
0.30171	-0.99668
-0.02981	0.07465
0.32721	0.43176
-0.79486	1.29902
-0.64185	-1.35379
0.02119	-2.83324
1.06676	-0.41000
0.53123	1.32453
0.30171	2.01323
0.14870	1.57960
-0.66735	0.68683
0.60773	-0.51203
0.09770	0.10015
0.40372	-0.41000
0.93925	-0.41000
0.53123	-0.97117
0.22521	0.86539
-0.13181	0.40625
0.07220	0.02363
0.02119	0.38074
0.73524	-0.86914
0.19971	-0.66508
-1.68742	0.10015
-0.53984	0.81437
-1.66191	0.15117
-1.35589	0.45726
1.16877	0.66132
2.08683	-0.07840
1.27078	1.22250
1.85731	0.25320
0.73524	0.61031
-0.43783	-1.48133
-1.04987	-0.48652
-0.28482	-0.58856
0.14870	2.49788
0.19971	-0.07840
0.32721	-1.78742
-0.05531	-1.65988
0.07220	1.12046
0.09770	5.83940
-0.02981	-1.43031
-0.36133	-1.68539
-0.25932	-4.92487
0.40372	1.27351
0.09770	2.16628
-0.00431	2.54890
-0.08081	1.24800
1.06676	-0.18043
1.09226	0.30422
0.91375	-0.23145
-0.89686	-0.89465
-0.08081	-0.23145
-0.61635	0.76336
0.19971	-0.81812
0.25071	-2.47613
0.81175	-0.02739
-0.38683	1.24800
0.40372	1.14597
1.83181	1.12046
0.37822	1.04394
-0.15732	0.38074
0.22521	0.86539
-0.08081	0.53379
-0.76936	-1.68539
0.73524	-0.41000
0.30171	-1.63437
-0.38683	0.68683
0.19971	0.22769
-0.64185	0.68683
-0.36133	0.94191
-0.13181	1.37554
0.32721	-0.79262
0.50573	-0.38449
0.99026	0.30422
0.73524	3.87530
0.60773	-2.34859
0.37822	-0.58856
0.17421	-4.82284
-0.00431	1.98773
-0.02981	2.44687
-0.10631	3.00804
0.02119	-0.41000
0.02119	-1.63437
0.12320	-1.50683
0.37822	0.83988
-0.74385	1.93671
-0.71835	-0.18043
-0.82036	0.78886
0.48022	2.70194
1.14327	-2.52714
0.96476	-2.60367
-0.02981	-1.94047
0.42922	1.65613
1.14327	0.27871
0.99026	0.07465
0.32721	1.12046
-1.89143	1.32453
-1.22839	0.91640
0.42922	0.61031
-0.23382	0.17668
1.50029	0.17668
1.16877	0.02363
0.45472	-0.25695
-0.82036	-1.30277
-0.56534	-1.12422
1.14327	0.83988
0.30171	0.96742
-0.05531	-0.28246
0.04670	-2.32308
-0.08081	-0.86914
0.17421	1.17148
0.04670	2.11527
-0.02981	1.47757
-0.38683	2.65093
0.19971	0.35523
0.17421	0.27871
0.37822	0.78886
0.68424	-3.08831
0.40372	-2.52714
0.09770	-2.90976
-0.13181	3.36515
0.27621	3.46718
0.63323	2.21730
0.37822	-0.69059
-0.69285	0.91640
0.68424	-3.57296
0.12320	0.22769
0.45472	-0.30797
-1.10088	1.52859
-0.18282	1.22250
-0.89686	0.55929
0.60773	0.35523
1.88281	-0.33348
0.91375	0.07465
-0.00431	-0.48652
-1.30489	-0.63957
0.22521	-0.46102
0.83725	0.45726
0.96476	0.40625
0.83725	0.73785
-1.07538	0.68683
-0.46334	0.10015
-0.92237	-1.60887
0.12320	-0.61406
-0.43783	0.22769
0.63323	0.76336
0.55673	1.75816
1.01576	0.63582
1.04126	-0.05289
0.27621	-0.05289
-0.02981	0.55929
-0.31033	0.02363
0.22521	0.86539
-0.08081	-0.43551
-0.08081	-0.48652
-0.23382	-1.02219
-0.13181	0.30422
0.12320	0.07465
0.37822	-0.56305
0.32721	-0.46102
-0.02981	-0.05289
0.30171	1.06945
0.27621	1.27351
0.35272	1.06945
-0.08081	-0.18043
0.40372	-0.15492
-0.79486	0.55929
0.68424	0.48277
0.63323	-1.94047
0.48022	-2.04250
-0.74385	-0.43551
-0.23382	1.65613
0.42922	1.80917
0.58223	0.04914
0.86275	1.55410
0.93925	-0.48652
-0.48884	-0.41000
-1.02437	-0.84363
-0.13181	0.73785
0.37822	0.71234
0.37822	0.71234
0.86275	0.20219
0.17421	-0.07840
-0.00431	-0.18043
0.32721	-0.97117
-1.12638	-0.51203
0.25071	0.10015
0.14870	1.09496
0.22521	0.50828
-0.10631	0.04914
0.83725	0.30422
0.58223	0.27871
0.25071	-0.61406
0.19971	-0.00188
0.25071	0.20219
-0.43783	0.27871
-0.15732	0.48277
0.35272	0.61031
0.42922	-0.10391
0.04670	2.29382
0.19971	-1.43031
0.07220	0.76336
0.17421	-2.42511
-0.18282	-0.66508
0.09770	0.22769
0.68424	2.26831
0.99026	0.71234
-0.20832	-0.86914
-0.69285	-1.35379
-1.78942	1.06945
-0.89686	0.63582
2.49485	1.12046
1.39828	0.40625
0.22521	-0.07840
0.91375	-0.61406
0.12320	-0.10391
-0.25932	-0.84363
-0.10631	-0.71609
-0.53984	0.30422
-0.36133	1.80917
-0.08081	0.22769
0.53123	0.20219
0.48022	0.61031
-0.23382	-0.10391
-0.00431	-0.69059
0.65874	0.35523
0.19971	1.14597
-0.33583	-0.86914
-0.51434	-0.43551
0.42922	-1.53234
0.55673	1.57960
-0.48884	0.86539
0.58223	0.89089
0.96476	0.86539
0.70974	2.72745
0.42922	-1.22625
0.19971	0.38074
-0.08081	-2.52714
-0.02981	-1.86394
0.02119	-0.25695
-0.20832	1.50308
-0.33583	1.70714
-0.13181	0.17668
0.45472	0.96742
0.32721	-1.07320
-0.13181	-0.00188
-0.08081	0.86539
-0.82036	0.55929
0.99026	0.68683
0.68424	0.32972
-0.08081	-0.25695
1.42379	-0.97117
0.86275	-0.84363
-1.20288	-0.99668
0.19971	-0.18043
0.12320	1.75816
0.35272	1.40105
-0.02981	0.45726
-0.46334	-0.30797
0.09770	-0.02739
0.83725	0.63582
0.63323	0.27871
0.53123	0.94191
-0.31033	-0.23145
-1.10088	-0.30797
-0.64185	-0.58856
0.76074	0.27871
0.37822	1.27351
0.04670	-0.53754
0.35272	-0.71609
0.35272	-1.22625
0.30171	0.94191
-0.05531	1.35003
-0.46334	0.38074
0.09770	0.50828
-0.08081	-0.23145
-0.51434	-0.66508
0.58223	0.71234
0.55673	0.81437
0.42922	0.20219
0.32721	0.40625
0.25071	-0.18043
0.30171	-0.25695
0.09770	-0.23145
0.04670	0.73785
0.07220	0.20219
0.12320	-0.07840
0.12320	0.55929
-0.20832	0.35523
-0.05531	-1.73640
0.55673	-0.89465
0.17421	-0.35899
-0.33583	1.17148
-0.13181	0.66132
0.19971	1.50308
0.58223	1.73265
-0.48884	0.94191
-0.31033	0.07465
0.78624	-1.99148
1.09226	-0.43551
0.30171	0.12566
0.14870	0.43176
0.53123	0.27871
0.30171	-0.00188
0.22521	-0.10391
0.53123	-0.12942
-0.23382	0.20219
-0.08081	1.06945
-0.18282	0.27871
-0.61635	-0.15492
-1.20288	-0.51203
-0.08081	0.15117
0.40372	0.25320
0.48022	0.12566
0.91375	0.55929
0.58223	0.12566
0.48022	2.93151
0.14870	-0.41000
0.22521	-1.58336
0.07220	-3.31788
0.12320	1.29902
0.09770	1.50308
0.02119	0.94191
0.14870	0.55929
0.17421	-1.76191
0.14870	0.17668
0.68424	0.63582
0.22521	0.83988
-0.74385	1.06945
-0.25932	0.04914
-0.59084	0.38074
0.50573	-1.27726
1.24527	-1.88945
0.35272	-0.94566
-0.92237	0.63582
-0.48884	1.50308
0.63323	1.27351
0.76074	1.42656
0.50573	0.55929
1.21977	-0.30797
0.42922	-2.62918
0.14870	-0.94566
-0.59084	0.68683
-0.15732	1.06945
0.12320	0.81437
0.09770	0.38074
0.55673	0.50828
0.22521	0.43176
0.22521	0.22769
-1.10088	0.25320
-1.17738	-1.81293
-0.33583	-1.12422
0.17421	0.38074
0.27621	1.37554
0.96476	0.76336
1.04126	-0.10391
0.86275	-0.48652
0.53123	0.86539
0.30171	1.37554
0.17421	0.66132
0.02119	0.73785
-0.15732	-2.14453
-0.02981	-0.25695
-0.20832	-1.60887
0.07220	1.29902
0.02119	0.83988
0.07220	0.63582
0.07220	-0.41000
0.35272	0.12566
0.09770	0.86539
-0.18282	0.96742
0.09770	0.99292
0.32721	-0.97117
-0.36133	0.20219
0.07220	-0.07840
0.09770	0.35523
0.93925	-0.46102
0.42922	-1.12422
0.32721	-0.35899
-0.99887	0.83988
-0.28482	0.55929
2.16333	1.68163
1.14327	-0.33348
0.45472	0.43176
-0.46334	-1.60887
0.02119	0.43176
-0.87136	0.94191
-0.41233	0.35523
0.07220	0.48277
0.02119	0.55929
0.55673	0.91640
-0.10631	-0.86914
-1.20288	-0.05289
-0.61635	0.17668
1.32178	0.40625
1.21977	0.02363
0.40372	-0.61406
0.12320	-0.25695
0.48022	0.48277
0.14870	-0.56305
-0.00431	-0.18043
-0.05531	-0.07840
0.12320	1.86019
-0.00431	1.12046
-0.05531	0.43176
-0.13181	-0.02739
-0.02981	-0.53754
0.50573	-0.41000
0.09770	-0.05289
-0.02981	-0.56305
0.45472	0.50828
0.19971	0.94191
-0.48884	0.73785
0.48022	0.38074
-0.05531	-0.20594
-0.94787	-0.58856
-0.20832	0.10015
1.44929	0.45726
1.04126	0.07465
0.55673	0.43176
-0.43783	0.27871
0.07220	0.76336
0.76074	-0.05289
0.60773	-1.76191
0.42922	-1.55785
-0.64185	0.17668
-0.61635	0.94191
-0.02981	1.86019
-0.25932	1.14597
-0.33583	-0.35899
0.19971	-0.51203
0.27621	1.17148
0.32721	0.43176
0.50573	-0.48652
0.42922	-1.14973
0.50573	-0.43551
-0.02981	0.27871
-0.20832	1.91120
-0.08081	1.22250
0.30171	0.35523
0.40372	-2.29757
0.32721	-1.17523
-0.00431	0.55929
0.02119	0.68683
0.04670	0.55929
-0.02981	1.01843
0.04670	0.53379
0.35272	0.27871
0.04670	0.15117
0.25071	0.22769
0.25071	0.94191
0.30171	-0.48652
0.32721	-2.45062
0.27621	-2.14453
-0.23382	0.20219
-0.79486	2.26831
-0.08081	1.80917
-1.89143	0.07465
0.27621	-0.28246
2.36734	-0.20594
1.88281	1.29902
1.14327	1.22250
1.19427	-0.25695
-0.28482	-0.43551
0.65874	-0.86914
-0.76936	0.38074
-1.91693	0.30422
-0.51434	0.20219
-0.36133	0.91640
0.48022	-0.00188
0.48022	-0.23145
0.58223	-0.12942
0.14870	-0.05289
-0.20832	0.20219
0.32721	0.04914
0.17421	0.04914
0.55673	0.99292
0.81175	-0.10391
-0.02981	-0.58856
0.25071	-0.00188
0.25071	1.57960
0.19971	0.20219
-0.36133	0.17668
0.07220	-0.18043
0.86275	0.35523
-0.02981	-0.46102
-0.10631	-0.38449
-1.04987	-0.41000
-0.31033	0.83988
0.17421	0.96742
0.19971	0.94191
1.55129	0.94191
0.35272	-0.15492
0.32721	-0.10391
0.30171	0.22769
0.19971	-0.41000
-0.46334	-0.33348
0.55673	-0.48652
0.32721	0.12566
-0.41233	0.50828
-0.20832	0.17668
0.09770	-0.07840
-0.31033	-0.05289
-0.08081	0.45726
1.16877	0.53379
0.48022	0.07465
0.27621	0.38074
-0.51434	-0.00188
-1.12638	-0.92016
0.60773	0.22769
0.22521	0.53379
0.27621	-0.20594
0.65874	0.48277
0.83725	0.48277
0.35272	0.83988
0.27621	1.37554
-0.13181	1.04394
0.14870	-0.33348
-0.02981	-1.37929
-0.10631	-1.14973
-0.18282	-0.28246
0.40372	1.52859
-0.41233	-0.05289
-0.08081	-0.56305
0.04670	-0.69059
-0.05531	0.78886
0.25071	1.37554
0.60773	1.47757
0.83725	0.53379
0.99026	0.45726
-0.02981	0.07465
-0.23382	-0.69059
0.17421	-1.63437
-0.61635	-0.53754
-1.17738	-0.53754
1.01576	1.40105
0.58223	1.40105
0.02119	0.40625
0.63323	0.10015
0.60773	1.19699
-0.20832	-1.04770
-0.05531	-0.15492
-0.36133	-0.94566
0.40372	0.45726
0.40372	0.48277
0.12320	0.89089
0.12320	0.68683
-0.31033	0.68683
0.73524	-0.18043
-0.02981	-0.51203
-0.15732	0.17668
-0.46334	-0.05289
0.17421	-0.53754
0.93925	0.12566
0.50573	0.27871
0.32721	-0.25695
0.14870	0.38074
-0.33583	0.94191
0.50573	-0.05289
0.30171	0.32972
-0.23382	1.45206
0.02119	-0.46102
-0.43783	-1.43031
-0.36133	-0.53754
0.53123	0.04914
0.63323	0.35523
0.55673	0.91640
0.35272	1.42656
-0.20832	1.06945
-0.43783	0.04914
0.09770	-0.35899
0.32721	0.12566
0.40372	-0.12942
0.12320	-0.69059
0.12320	0.22769
0.48022	0.12566
0.19971	0.30422
0.45472	-1.78742
-0.18282	-0.02739
-1.20288	0.96742
-0.10631	0.78886
0.68424	-0.30797
0.35272	0.45726
-0.13181	0.22769
0.99026	0.68683
1.01576	0.22769
0.63323	0.25320
-0.46334	-0.23145
-1.15188	-0.02739
-0.18282	0.40625
0.04670	0.55929
0.35272	-0.38449
0.50573	-0.58856
0.37822	1.06945
0.60773	-0.00188
1.83181	0.45726
-0.15732	-0.76711
-0.64185	-0.53754
-1.81492	0.63582
-0.64185	1.09496
0.99026	0.58480
0.53123	-0.43551
0.55673	-0.30797
0.42922	-0.05289
0.19971	-0.41000
0.12320	0.35523
0.19971	-0.20594
0.12320	0.91640
0.14870	0.78886
0.07220	0.27871
0.25071	0.12566
0.32721	-0.25695
-0.10631	-0.02739
-0.33583	0.86539
0.14870	0.58480
-0.28482	-0.18043
0.48022	-0.48652
-0.31033	1.17148
0.53123	-1.30277
0.14870	-0.76711
0.63323	-2.68019
0.81175	1.24800
0.32721	1.88570
0.58223	0.91640
0.02119	0.15117
-0.69285	0.20219
-0.08081	0.43176
-0.02981	0.40625
0.09770	0.38074
1.93382	-0.02739
-0.94787	-0.25695
-0.36133	0.25320
0.32721	-0.05289
0.22521	0.38074
0.02119	0.43176
-0.48884	-0.58856
0.22521	0.17668
0.83725	-0.25695
0.07220	0.15117
-0.10631	-0.92016
-0.18282	-0.58856
0.35272	2.24281
0.22521	0.78886
0.07220	-0.53754
0.37822	0.12566
0.27621	-0.35899
0.19971	0.73785
0.19971	0.63582
0.27621	0.27871
0.22521	0.22769
0.14870	1.45206
0.17421	-0.48652
0.81175	-0.53754
0.35272	-1.73640
-1.25389	0.66132
-0.92237	0.27871
-0.82036	0.40625
0.50573	1.19699
1.37278	0.32972
0.65874	-0.63957
0.17421	-0.10391
0.37822	-0.23145
0.14870	0.15117
1.09226	0.04914
0.48022	0.43176
0.02119	0.15117
-0.48884	0.27871
-0.38683	-0.05289
-0.31033	0.66132
0.32721	0.50828
-0.23382	-0.07840
0.32721	0.15117
0.07220	0.25320
0.02119	0.02363
-0.51434	0.07465
0.30171	-0.18043
0.30171	-0.74160
0.63323	-0.66508
0.48022	-0.46102
0.40372	1.75816
0.12320	1.55410
-0.43783	0.53379
0.42922	-0.86914
-0.13181	-0.66508
0.32721	-1.02219
0.25071	-0.51203
-0.00431	1.86019
-0.05531	1.50308
0.50573	1.80917
-0.13181	0.43176
0.09770	-0.89465
0.09770	-0.30797
0.30171	0.20219
-0.38683	-0.30797
0.78624	-0.56305
0.22521	-0.15492
-0.08081	0.17668
-0.18282	-0.25695
0.45472	-0.18043
0.50573	0.50828
-0.94787	0.30422
0.02119	0.22769
0.60773	0.71234
1.32178	0.94191
0.88825	-0.15492
-0.33583	-0.58856
-0.15732	-0.05289
-0.20832	0.66132
-0.13181	0.55929
-0.13181	-0.10391
-0.13181	-0.43551
0.81175	0.66132
0.78624	-0.20594
-1.38139	0.02363
-0.08081	0.02363
0.42922	0.63582
0.73524	1.04394
0.70974	-1.45582
-0.20832	0.32972
0.30171	0.78886
0.40372	0.71234
0.12320	1.27351
-0.08081	-0.79262
-0.15732	-1.35379
0.12320	-0.33348
0.35272	0.55929
0.12320	0.86539
-0.71835	0.27871
0.14870	-0.05289
0.22521	-0.92016
0.35272	-0.05289
0.63323	1.29902
0.58223	0.99292
-0.25932	1.86019
0.12320	-1.12422
-0.05531	-1.09871
0.07220	-2.60367
-0.84586	0.76336
0.17421	1.17148
0.58223	1.35003
0.73524	1.37554
1.11776	-0.02739
0.50573	0.17668
0.42922	-1.20074
0.02119	0.71234
-0.25932	0.66132
0.04670	-0.05289
0.04670	-0.05289
-0.23382	0.07465
-0.69285	-0.00188
-0.64185	-0.00188
-0.53984	0.20219
0.53123	0.15117
0.53123	0.04914
1.21977	0.10015
0.70974	-0.02739
0.09770	-0.18043
0.19971	0.25320
-0.53984	0.55929
-0.51434	0.15117
1.37278	0.25320
0.99026	0.50828
-0.20832	0.66132
-0.64185	-0.51203
-0.15732	-1.09871
0.14870	0.15117
0.32721	0.96742
0.22521	0.32972
0.12320	0.55929
0.35272	-0.33348
-0.00431	0.76336
0.32721	1.17148
0.09770	-1.43031
-0.02981	-0.94566
0.58223	-0.28246
-0.25932	1.57960
0.12320	0.76336
0.19971	0.58480
0.53123	-0.07840
0.22521	0.17668
0.88825	-0.00188
-0.08081	-0.58856
0.09770	0.48277
-0.76936	-0.69059
-0.18282	0.58480
0.22521	-2.27207
-0.38683	1.27351
0.60773	1.40105
0.96476	1.04394
0.12320	0.63582
1.04126	0.22769
0.55673	-0.02739
-0.33583	-0.10391
-1.15188	-0.28246
-0.28482	-0.05289
-0.02981	0.07465
1.06676	0.55929
0.60773	-0.12942
0.40372	-0.51203
-0.46334	0.22769
-0.59084	-0.79262
0.02119	-0.07840
0.09770	0.61031
0.02119	0.25320
0.55673	0.63582
0.63323	0.96742
0.63323	0.63582
0.78624	0.53379
-0.61635	1.14597
-0.87136	-0.53754
-0.31033	-1.17523
1.24527	-0.92016
0.25071	0.96742
0.09770	0.63582
-0.02981	-1.43031
0.27621	1.17148
0.58223	-0.23145
-0.08081	0.55929
-0.33583	-1.09871
-0.28482	-0.38449
0.40372	1.12046
0.58223	0.78886
0.45472	0.17668
0.27621	-0.33348
-0.28482	0.83988
0.09770	0.96742
0.04670	-0.02739
0.02119	-1.40480
0.09770	-0.30797
0.02119	0.45726
0.02119	1.01843
0.42922	0.48277
0.37822	0.66132
-0.18282	-0.69059
0.14870	0.02363
0.40372	0.04914
0.19971	-0.10391
0.12320	-0.25695
-0.74385	-0.02739
-0.38683	0.58480
2.57136	0.71234
0.96476	0.53379
-1.68742	0.07465
-0.76936	0.63582
-0.46334	-0.00188
1.39828	-0.28246
1.01576	-0.89465
0.65874	0.61031
-0.05531	0.45726
-0.08081	0.25320
-0.20832	-0.33348
0.14870	0.91640
0.14870	-0.15492
-0.13181	0.10015
-0.08081	-0.69059
-0.43783	0.89089
0.42922	0.94191
0.32721	0.48277
-0.18282	-0.84363
0.04670	-0.15492
0.22521	0.22769
0.37822	0.53379
0.86275	0.32972
0.45472	-0.20594
0.22521	0.04914
-0.15732	0.10015
0.25071	1.68163
-0.13181	0.48277
-0.46334	-0.86914
0.07220	-1.37929
0.22521	0.50828
1.06676	0.71234
-0.18282	0.38074
0.04670	0.86539
0.60773	0.73785
-0.02981	-1.02219
0.45472	-0.46102
0.04670	-0.20594
-0.48884	0.73785
0.09770	0.40625
-0.23382	0.38074
0.63323	-0.02739
0.96476	-0.25695
-0.36133	0.25320
-0.31033	0.61031
-0.41233	-1.17523
-0.13181	-0.25695
0.12320	0.55929
0.78624	0.68683
0.60773	0.15117
0.17421	-0.23145
0.17421	0.68683
0.88825	0.99292
0.63323	0.94191
-0.38683	-0.35899
-0.74385	-1.68539
-1.04987	-2.11902
-0.08081	0.76336
0.70974	1.04394
0.35272	1.75816
0.12320	0.38074
1.11776	-0.48652
0.65874	-0.63957
0.30171	0.78886
-0.25932	0.96742
0.02119	0.25320
0.09770	-0.02739
-0.10631	-0.25695
-0.02981	0.10015
0.30171	-1.07320
0.27621	0.12566
-0.10631	-0.15492
-0.23382	-1.09871
0.32721	0.86539
0.53123	0.86539
0.73524	1.45206
-0.10631	-0.05289
0.42922	0.43176
0.19971	0.04914
-0.53984	0.66132
0.60773	0.10015
0.70974	0.35523
-0.25932	0.04914
-0.48884	-0.12942
-0.18282	-0.28246
0.12320	0.50828
-0.20832	0.32972
0.68424	0.04914
1.29628	-0.30797
0.32721	-0.58856
0.19971	-0.66508
0.14870	0.30422
-0.00431	1.70714
-0.38683	-0.61406
-0.25932	0.35523
-0.02981	0.22769
0.42922	-0.30797
0.07220	-0.28246
0.07220	1.63062
-0.28482	-0.35899
-0.05531	0.27871
0.07220	-0.46102
0.48022	1.04394
0.88825	1.52859
0.53123	0.63582
0.32721	-0.05289
-0.33583	-0.18043
-0.31033	-0.86914
0.37822	-0.69059
0.50573	-1.22625
-0.05531	0.53379
-0.20832	0.94191
0.32721	-0.33348
-0.00431	0.43176
0.32721	0.99292
0.65874	-0.25695
0.42922	1.27351
0.27621	-0.53754
-0.38683	-0.15492
-0.48884	-0.58856
0.35272	0.76336
-0.08081	0.20219
-0.15732	0.73785
-0.23382	0.78886
0.27621	-0.58856
0.73524	-0.56305
0.35272	0.86539
-0.20832	-0.35899
0.86275	-0.05289
0.58223	-0.05289
-0.33583	-0.25695
-0.66735	0.53379
-0.10631	1.19699
0.25071	0.63582
0.37822	-0.12942
0.22521	-0.48652
0.35272	-0.12942
0.19971	0.86539
-0.02981	-0.25695
0.04670	-0.05289
0.30171	-0.58856
0.09770	-1.30277
-0.31033	0.91640
0.48022	1.35003
0.09770	0.76336
0.32721	0.58480
0.02119	-0.23145
-0.02981	0.81437
-0.10631	0.55929
1.27078	-0.84363
-0.41233	-0.28246
-1.50890	-0.07840
0.32721	0.71234
0.53123	0.40625
0.68424	-0.05289
0.58223	-0.02739
0.22521	0.22769
-0.08081	0.15117
0.53123	0.10015
0.76074	0.04914
-0.28482	0.02363
-0.23382	-0.02739
-0.33583	0.73785
0.53123	-0.35899
0.53123	-1.32828
0.07220	-0.00188
-0.66735	1.06945
-0.33583	0.15117
-0.33583	0.15117
0.22521	0.50828
0.65874	0.66132
0.73524	0.94191
0.63323	-0.02739
0.22521	0.38074
0.22521	-0.00188
0.07220	-0.51203
-0.00431	0.12566
0.12320	1.29902
0.07220	-0.05289
0.12320	-1.63437
-0.13181	-1.14973
-0.20832	-0.02739
0.09770	0.63582
0.40372	0.66132
0.48022	0.81437
0.17421	0.63582
-0.71835	1.12046
0.88825	0.91640
-0.00431	-0.51203
-0.69285	-0.74160
-0.23382	0.10015
0.88825	-0.02739
1.04126	0.68683
0.37822	0.15117
1.29628	-0.20594
-0.36133	0.04914
0.65874	0.32972
0.58223	0.30422
-0.71835	-0.58856
0.02119	1.04394
-0.59084	-0.74160
-0.48884	0.07465
-0.38683	0.07465
-0.23382	0.35523
0.07220	1.35003
0.53123	0.50828
0.55673	-0.25695
0.37822	-0.10391
0.32721	0.15117
0.35272	-0.25695
0.32721	0.10015
0.27621	0.35523
-0.00431	0.48277
-0.02981	-0.10391
0.17421	0.25320
-0.00431	0.35523
-0.13181	1.06945
0.02119	-0.12942
0.17421	-1.78742
0.09770	-1.40480
0.02119	0.99292
0.19971	1.19699
0.58223	0.43176
0.63323	-0.23145
0.60773	0.55929
-0.61635	1.40105
-1.02437	0.40625
-0.48884	0.02363
1.37278	-0.05289
0.68424	-0.41000
-0.23382	-0.38449
-0.00431	0.17668
-0.59084	0.76336
1.14327	-0.76711
1.11776	-0.30797
0.17421	-0.33348
0.70974	0.55929
0.42922	0.76336
-1.17738	0.73785
0.25071	0.27871
0.35272	-0.05289
0.32721	0.20219
-0.18282	0.99292
-0.82036	-0.23145
-0.02981	-0.33348
0.42922	0.53379
0.07220	-1.04770
0.17421	-0.33348
0.14870	-0.35899
0.02119	0.73785
0.19971	1.06945
0.35272	1.50308
0.17421	0.38074
0.19971	-0.58856
0.22521	-0.48652
0.12320	0.35523
0.12320	-0.25695
0.07220	0.35523
0.27621	0.17668
0.17421	-0.46102
0.25071	-0.18043
0.45472	0.91640
0.25071	0.35523
-0.02981	0.58480
-0.36133	0.15117
-0.20832	-0.10391
-0.25932	0.91640
-0.89686	-0.89465
0.02119	0.20219
1.27078	-0.89465
1.19427	0.20219
0.96476	0.76336
0.37822	0.45726
-0.08081	1.24800
-0.87136	0.10015
0.04670	-0.86914
-0.05531	-0.76711
0.35272	0.22769
0.22521	0.43176
-0.02981	0.63582
-0.31033	0.12566
0.02119	0.45726
0.50573	0.15117
0.35272	-0.30797
-0.13181	-0.28246
0.19971	0.63582
0.14870	0.61031
0.32721	-0.10391
0.37822	-0.02739
-0.33583	0.45726
0.37822	0.02363
0.25071	-0.00188
-0.05531	0.43176
0.22521	-0.97117
0.17421	-0.56305
-0.31033	-0.15492
-0.79486	1.29902
0.37822	1.14597
0.60773	1.42656
0.70974	0.38074
0.42922	-0.38449
-0.02981	0.12566
0.65874	-0.94566
0.07220	0.10015
-1.12638	-0.30797
-0.02981	0.81437
0.88825	0.86539
1.21977	-0.38449
-0.13181	-0.66508
-0.31033	0.04914
-0.13181	0.63582
-0.43783	0.30422
-0.20832	-0.41000
0.02119	0.45726
0.53123	0.02363
0.60773	0.20219
0.81175	0.07465
0.45472	0.27871
0.42922	0.12566
0.27621	0.25320
-0.74385	0.15117
-0.79486	0.30422
0.27621	0.71234
0.04670	0.02363
-0.02981	-0.12942
0.17421	-0.66508
0.35272	-0.43551
0.02119	0.53379
0.04670	0.83988
0.35272	1.24800
0.48022	-0.43551
0.96476	-0.20594
0.58223	-0.10391
-0.23382	1.06945
-0.64185	-1.40480
-0.69285	-1.02219
-0.61635	-0.58856
0.32721	1.73265
0.81175	1.65613
0.78624	1.19699
1.55129	0.38074
0.76074	-0.38449
-0.43783	-0.00188
-0.76936	-1.07320
-0.71835	0.02363
0.22521	-0.07840
0.35272	0.04914
0.25071	0.22769
0.53123	0.12566
0.70974	-0.28246
-0.33583	-0.02739
-0.23382	-0.12942
0.07220	0.91640
-0.02981	1.32453
-0.69285	0.91640
0.42922	-0.51203
-0.28482	-0.46102
0.37822	-0.00188
0.93925	0.02363
0.65874	0.20219
-0.02981	-0.05289
-0.56534	0.12566
0.55673	0.50828
0.37822	0.48277
0.19971	0.30422
0.25071	-0.84363
0.40372	0.25320
0.02119	0.71234
-0.18282	0.10015
-0.08081	1.14597
-0.36133	0.20219
-0.28482	0.43176
-0.08081	-0.23145
0.40372	-0.66508
0.35272	-1.32828
0.27621	-0.00188
0.50573	0.66132
-0.13181	0.35523
0.32721	-0.05289
-0.13181	-0.18043
-0.00431	0.73785
0.68424	1.68163
1.27078	0.61031
0.91375	1.42656
-0.66735	0.53379
-0.71835	-0.41000
-1.20288	-1.58336
-0.99887	-1.37929
0.91375	-0.48652
1.32178	1.06945
0.42922	1.45206
-0.28482	0.50828
0.96476	-0.92016
0.42922	-0.71609
1.19427	0.55929
0.17421	1.29902
-0.59084	0.20219
-0.69285	-0.79262
-0.92237	0.50828
-0.08081	1.42656
0.32721	0.43176
0.09770	-0.66508
-0.10631	-0.43551
0.35272	0.30422
0.25071	-0.23145
0.40372	-0.46102
0.42922	-0.43551
0.40372	-0.05289
0.65874	1.29902
0.42922	1.12046
0.30171	0.45726
-0.48884	-0.99668
-0.20832	0.45726
-0.79486	0.43176
0.19971	-0.05289
-0.10631	0.53379
-0.28482	-0.25695
0.30171	-0.00188
0.63323	-0.35899
0.81175	0.76336
0.83725	-0.38449
0.60773	0.22769
0.17421	-0.74160
0.32721	2.11527
0.12320	1.01843
0.04670	-0.94566
-0.46334	-1.27726
-0.28482	-1.45582
0.32721	1.29902
-0.20832	2.70194
-0.20832	0.71234
-0.43783	-0.58856
-0.59084	-1.48133
0.45472	0.96742
0.30171	0.22769
0.65874	0.27871
0.14870	0.61031
0.45472	0.04914
0.22521	-0.05289
0.02119	-0.12942
0.32721	0.02363
0.40372	-0.12942
0.27621	0.10015
0.12320	0.53379
0.58223	0.50828
-0.18282	-0.43551
-0.38683	-0.12942
-0.08081	-0.56305
0.04670	0.50828
0.55673	0.66132
0.60773	0.86539
-0.36133	-0.18043
-0.38683	0.53379
0.12320	-0.00188
0.25071	0.43176
0.22521	-0.41000
-0.66735	-1.35379
-0.13181	-0.00188
-0.23382	-0.00188
-0.36133	0.86539
1.52579	0.81437
0.63323	1.24800
0.50573	0.96742
0.48022	0.15117
0.63323	-0.07840
-0.28482	-0.30797
0.12320	-0.35899
0.25071	-1.30277
0.32721	-0.07840
-0.08081	-0.46102
-0.25932	-0.38449
-0.38683	0.40625
-0.43783	1.32453
0.07220	0.89089
0.35272	-0.51203
0.19971	-0.30797
0.48022	0.40625
0.81175	1.06945
0.40372	1.17148
-0.15732	-0.79262
0.25071	1.04394
-0.66735	-0.38449
-0.36133	-0.00188
0.22521	0.04914
1.01576	0.12566
0.12320	-0.05289
-0.82036	-0.12942
0.48022	-0.48652
0.45472	0.04914
0.73524	-0.10391
0.09770	-0.30797
0.22521	0.25320
0.14870	0.45726
0.68424	0.71234
0.35272	0.15117
-0.25932	0.43176
-0.79486	0.15117
-0.20832	0.38074
-0.00431	-0.07840
0.32721	0.86539
0.81175	0.40625
0.17421	0.10015
-0.05531	-0.15492
0.12320	-0.66508
-0.28482	1.19699
0.45472	-0.28246
-0.25932	0.86539
-0.15732	-1.50683
0.55673	-0.46102
0.32721	-0.33348
0.53123	1.47757
0.45472	0.89089
0.22521	2.11527
0.14870	-0.46102
-0.05531	-0.97117
-0.15732	-0.41000
0.22521	-0.20594
0.25071	0.73785
-0.05531	-0.35899
0.02119	1.27351
-0.08081	-0.28246
0.17421	0.25320
0.17421	-0.02739
0.48022	-0.10391
-0.13181	-0.43551
-0.08081	0.63582
-0.20832	0.94191
-0.05531	0.15117
1.04126	0.07465
0.53123	-0.51203
0.12320	-0.25695
0.17421	0.43176
0.27621	0.43176
0.83725	0.30422
-1.10088	0.40625
-0.05531	-0.33348
0.88825	-0.66508
-0.00431	-0.10391
0.30171	0.35523
0.50573	1.68163
-0.51434	0.15117
-0.87136	-0.92016
0.04670	-1.43031
0.42922	0.20219
-0.00431	1.32453
-0.46334	1.24800
-0.18282	0.40625
0.58223	-0.02739
0.78624	-0.33348
0.42922	-0.38449
0.63323	0.53379
0.02119	0.25320
0.32721	1.09496
0.27621	-0.46102
0.25071	-0.86914
0.19971	-0.05289
0.02119	0.53379
0.22521	0.71234
-0.08081	-1.88945
0.40372	0.40625
-0.20832	-0.74160
-0.82036	1.68163
-0.61635	0.91640
0.17421	0.83988
0.58223	0.66132
0.45472	0.32972
0.91375	0.15117
-0.28482	-0.56305
0.32721	-0.25695
-0.05531	-0.23145
-0.41233	-0.41000
0.07220	0.22769
0.32721	0.40625
0.86275	0.35523
0.32721	-0.12942
-0.00431	-0.18043
-0.02981	-0.43551
0.58223	-0.05289
0.12320	0.99292
0.27621	1.37554
0.63323	1.29902
-0.13181	-0.41000
-0.59084	-0.92016
-0.97337	-0.18043
0.35272	0.81437
0.40372	0.10015
0.40372	0.15117
0.09770	0.66132
0.40372	-0.00188
0.19971	-0.30797
0.27621	-0.07840
0.25071	0.15117
0.22521	0.71234
0.14870	0.32972
0.04670	-0.46102
0.35272	-1.02219
-0.53984	-0.38449
-0.94787	0.53379
0.07220	1.96222
0.40372	0.78886
1.21977	0.53379
0.78624	-0.12942
0.50573	-1.20074
0.45472	0.96742
-0.20832	-0.89465
0.19971	-0.28246
0.07220	-0.38449
-0.28482	0.96742
-1.04987	0.35523
-0.15732	0.27871
0.60773	0.83988
1.72980	0.17668
0.30171	0.68683
-1.27939	-0.25695
-0.23382	-0.71609
-0.00431	-0.23145
-0.23382	0.35523
0.50573	0.12566
0.93925	0.55929
1.37278	-0.25695
0.17421	-0.38449
-0.61635	-0.12942
0.02119	0.22769
0.27621	1.27351
0.17421	0.15117
-0.00431	-0.10391
-0.05531	-0.25695
0.65874	0.78886
0.09770	-0.07840
0.14870	-0.66508
0.27621	0.35523
0.09770	0.76336
-0.99887	0.38074
0.02119	-1.02219
0.32721	0.48277
0.30171	1.47757
0.35272	-0.28246
-0.05531	-1.09871
0.48022	-0.63957
0.53123	1.37554
0.09770	0.78886
0.04670	0.86539
0.37822	0.94191
0.25071	0.17668
-0.76936	-0.99668
-0.13181	-0.51203
0.07220	-0.35899
0.83725	0.17668
0.86275	0.22769
-0.00431	-0.79262
0.14870	1.14597
-0.20832	0.35523
-0.79486	0.17668
-0.46334	0.38074
0.93925	0.89089
0.30171	0.04914
0.45472	0.63582
0.50573	-0.92016
0.32721	-0.71609
0.27621	0.53379
-0.02981	0.50828
0.12320	0.78886
-0.28482	-0.30797
-0.05531	-0.05289
0.83725	0.48277
0.22521	0.32972
-0.64185	0.35523
-0.28482	0.55929
-0.28482	-0.20594
0.07220	-0.33348
0.30171	0.17668
0.65874	-0.05289
0.60773	0.30422
1.01576	0.25320
0.32721	-0.35899
-0.33583	-0.20594
-0.92237	0.91640
0.17421	0.07465
0.07220	0.83988
0.32721	0.45726
0.25071	-0.43551
0.73524	-1.09871
0.04670	1.32453
-0.25932	1.68163
0.30171	-0.79262
-0.08081	-1.17523
-0.76936	-1.50683
0.68424	1.06945
0.14870	1.04394
0.58223	1.27351
0.17421	0.22769
-0.33583	-0.15492
-0.02981	0.50828
0.78624	0.55929
0.32721	-0.02739
-0.05531	0.02363
-0.20832	-1.04770
1.11776	0.48277
0.25071	-0.51203
-0.33583	-0.46102
-0.56534	-0.66508
0.02119	-0.30797
0.63323	1.57960
-0.31033	0.61031
-0.18282	0.10015
0.76074	-0.28246
0.35272	0.30422
-1.10088	0.76336
0.35272	0.73785
0.63323	1.06945
0.99026	0.22769
1.09226	0.02363
0.81175	-0.35899
-0.48884	-0.69059
0.02119	-0.10391
0.09770	0.10015
-0.33583	0.12566
0.12320	-0.30797
-0.20832	0.12566
-0.36133	1.98773
-0.18282	-1.17523
-0.25932	-1.94047
-0.28482	-0.41000
0.37822	1.27351
0.45472	1.60511
0.55673	-0.07840
0.68424	0.27871
0.93925	-0.05289
0.09770	1.17148
-0.43783	1.24800
-0.23382	0.53379
-0.36133	-0.66508
0.53123	-0.48652
0.73524	1.57960
0.42922	-0.92016
-0.13181	-1.50683
0.12320	-1.37929
-0.15732	0.40625
-0.28482	0.22769
0.27621	0.83988
-0.18282	1.01843
-0.00431	1.24800
0.53123	0.38074
0.93925	-0.84363
0.30171	-0.89465
-1.02437	-0.66508
-0.28482	0.81437
-0.20832	1.83468
-0.66735	0.10015
1.42379	0.35523
0.78624	-0.10391
0.60773	-0.05289
-0.15732	-0.43551
0.32721	0.35523
0.68424	0.12566
0.91375	-0.18043
0.14870	-0.02739
-0.02981	0.55929
-0.33583	0.96742
-1.35589	-0.46102
-0.82036	-0.48652
0.53123	-0.15492
0.07220	0.73785
0.19971	0.68683
0.27621	0.91640
0.35272	0.81437
0.53123	-0.23145
0.45472	-0.63957
0.73524	-0.20594
0.07220	0.63582
0.07220	-0.61406
-0.08081	-1.32828
0.14870	-1.02219
0.32721	0.86539
0.25071	1.01843
-1.35589	0.61031
-0.71835	-0.30797
0.93925	0.38074
1.09226	0.96742
0.63323	1.96222
0.45472	0.61031
0.42922	0.40625
-0.38683	-0.69059
0.55673	-0.76711
-0.28482	-0.63957
-0.33583	-0.76711
0.78624	-0.41000
-0.23382	0.91640
-0.41233	0.71234
-0.74385	0.89089
0.30171	-0.02739
0.73524	0.25320
1.21977	-0.15492
0.14870	0.55929
-0.64185	-0.15492
-0.66735	0.10015
0.25071	-0.00188
0.78624	0.15117
0.30171	2.19179
1.14327	-1.88945
0.63323	-0.69059
0.14870	0.15117
-0.94787	0.55929
-1.17738	0.43176
0.25071	0.04914
0.22521	0.25320
0.60773	0.63582
0.48022	0.55929
0.27621	0.10015
0.53123	0.40625
0.17421	0.40625
-0.51434	-0.12942
0.07220	0.12566
0.19971	-0.25695
-0.20832	0.61031
0.12320	-0.20594
0.58223	-0.05289
0.30171	-0.35899
0.70974	0.78886
0.53123	0.45726
-0.61635	-0.35899
-0.10631	-0.84363
0.37822	0.50828
-0.00431	0.53379
-0.00431	0.45726
0.70974	-0.10391
-0.10631	0.17668
0.27621	0.27871
-0.08081	0.27871
-0.43783	0.66132
0.35272	-0.00188
0.04670	-0.02739
0.40372	-0.05289
0.42922	0.15117
0.12320	0.04914
0.14870	-0.05289
-0.15732	-0.05289
-0.56534	0.45726
-0.05531	0.12566
1.50029	0.86539
0.88825	-0.05289
-0.64185	-0.28246
-0.18282	-1.17523
0.27621	-0.30797
0.22521	0.91640
-0.23382	0.50828
-0.20832	0.43176
-0.00431	0.10015
0.07220	0.50828
0.27621	0.30422
0.45472	-0.25695
0.27621	-0.00188
-0.31033	-0.25695
0.25071	0.89089
0.86275	0.20219
0.58223	0.22769
0.09770	0.30422
0.35272	0.10015
0.04670	0.20219
-0.51434	-0.66508
-2.35046	0.20219
-0.10631	-0.05289
0.76074	0.30422
1.11776	0.53379
0.93925	0.63582
1.34728	0.15117
1.09226	-0.02739
-0.00431	0.30422
-0.02981	0.15117
-0.61635	-0.00188
-0.97337	-0.23145
0.12320	0.35523
-0.48884	0.40625
-0.25932	-0.18043
0.09770	-0.15492
0.22521	-0.05289
-0.10631	0.15117
0.19971	0.25320
-0.18282	0.38074
0.91375	0.71234
0.73524	-0.51203
0.50573	-0.35899
0.55673	1.22250
0.73524	0.81437
0.22521	-0.71609
-0.38683	-0.10391
-0.64185	0.07465
0.53123	-0.28246
0.19971	0.38074
0.27621	0.53379
-0.84586	1.17148
-0.02981	0.55929
0.78624	1.09496
0.07220	0.55929
0.09770	-0.61406
0.30171	-0.10391
0.99026	-1.37929
-0.97337	-2.22105
-1.07538	-0.48652
0.07220	0.78886
0.78624	1.42656
0.02119	1.06945
0.45472	0.45726
0.68424	0.96742
0.60773	-0.23145
0.14870	-0.28246
0.17421	-0.23145
0.04670	0.20219
-0.41233	0.07465
0.86275	-0.18043
0.09770	0.38074
-0.36133	0.17668
-0.46334	0.15117
0.50573	-0.20594
0.12320	-0.05289
0.22521	0.40625
-1.02437	0.32972
-0.89686	-0.15492
1.16877	0.30422
1.19427	0.10015
0.35272	0.15117
-0.59084	-0.05289
0.70974	0.30422
0.73524	1.47757
-0.05531	0.17668
0.19971	-0.63957
0.07220	-1.58336
-0.18282	-0.41000
-0.08081	1.73265
0.07220	0.53379
0.14870	0.15117
0.19971	0.48277
0.02119	-0.38449
-0.15732	0.68683
0.22521	0.04914
0.02119	0.48277
0.42922	0.15117
1.65330	-1.17523
-0.48884	0.22769
-1.17738	0.76336
-0.15732	-0.58856
-0.31033	-0.43551
-0.28482	-0.00188
0.65874	1.35003
0.22521	1.12046
1.29628	0.38074
0.60773	1.45206
0.99026	0.25320
0.70974	-1.12422
-0.05531	-1.43031
0.19971	-0.25695
-1.04987	-0.15492
-1.73842	0.07465
0.14870	0.10015
0.32721	0.04914
0.73524	0.63582
-0.15732	0.68683
-0.00431	0.61031
0.68424	0.43176
0.12320	0.32972
0.48022	0.07465
0.12320	-0.00188
-0.00431	-0.33348
0.07220	-0.20594
0.07220	0.32972
0.07220	0.35523
0.02119	-0.05289
0.02119	0.40625
0.40372	0.68683
0.25071	-0.18043
0.07220	-1.12422
0.42922	0.35523
0.14870	0.71234
-0.08081	0.71234
0.04670	-0.76711
0.32721	-1.04770
0.70974	0.53379
0.04670	0.25320
-0.13181	0.89089
-0.43783	1.57960
-0.56534	0.43176
0.42922	-0.53754
1.44929	-0.35899
0.53123	-0.46102
-1.22839	0.61031
-1.50890	0.25320
0.63323	0.04914
1.57679	-0.28246
1.42379	-0.48652
0.40372	0.27871
0.32721	0.35523
0.25071	0.15117
0.45472	0.58480
-0.46334	-0.07840
-1.40690	0.45726
-0.38683	0.48277
0.25071	0.15117
0.12320	-0.56305
-0.10631	0.22769
-0.23382	0.73785
1.11776	-0.23145
-0.02981	-0.00188
0.81175	0.38074
0.81175	0.58480
0.30171	-0.12942
-0.13181	0.10015
-0.00431	-0.05289
0.09770	-0.15492
0.50573	0.61031
-0.02981	-0.00188
0.02119	0.12566
-0.13181	0.20219
-0.05531	0.30422
0.27621	-0.43551
-0.18282	0.27871
0.32721	0.48277
0.09770	0.15117
0.12320	0.27871
-0.38683	0.17668
0.53123	1.60511
0.40372	-0.48652
-0.61635	-0.10391
0.78624	-1.32828
0.83725	-0.05289
0.60773	0.61031
-1.35589	-0.10391
0.17421	-0.15492
1.01576	0.83988
0.96476	0.55929
-0.82036	0.40625
-0.51434	-0.20594
0.55673	-0.12942
0.35272	0.12566
0.17421	0.45726
-0.28482	0.55929
-0.02981	-0.48652
0.81175	0.38074
-0.15732	-0.02739
-0.25932	0.02363
0.12320	-0.15492
0.25071	-0.99668
0.53123	1.01843
0.25071	0.58480
-0.48884	1.19699
0.22521	0.48277
0.17421	-0.46102
0.14870	-0.84363
0.09770	-0.20594
-0.28482	0.38074
0.25071	0.86539
0.32721	1.47757
0.76074	-0.76711
0.17421	-0.53754
0.53123	-1.88945
0.55673	0.94191
-0.33583	1.09496
-0.48884	0.17668
0.32721	0.61031
0.22521	-0.18043
0.19971	0.10015
-0.02981	0.25320
0.25071	0.07465
-0.53984	0.43176
0.07220	0.50828
0.63323	0.35523
0.35272	-0.23145
0.45472	-0.25695
0.40372	-0.97117
0.63323	0.45726
0.91375	0.40625
0.53123	0.15117
-0.43783	0.27871
-0.69285	0.38074
-0.05531	0.38074
0.30171	0.53379
-0.18282	-0.00188
-0.92237	-0.51203
0.32721	-0.00188
0.22521	0.55929
0.27621	0.55929
0.40372	-0.00188
0.50573	0.38074
-0.15732	-0.94566
-0.00431	1.19699
0.32721	-0.07840
0.37822	-0.48652
0.19971	-0.07840
0.32721	-0.18043
0.37822	0.99292
-0.33583	0.30422
-0.25932	0.61031
1.11776	0.48277
0.48022	0.55929
-0.33583	-0.28246
0.40372	-0.46102
-0.94787	0.66132
-0.41233	-0.23145
0.50573	-0.76711
0.55673	-0.38449
0.68424	0.04914
0.32721	0.30422
0.12320	0.35523
0.04670	0.89089
0.09770	0.40625
0.55673	0.53379
-0.61635	0.35523
-1.02437	-0.15492
0.35272	-0.61406
-0.18282	-0.05289
0.76074	0.32972
0.53123	0.30422
0.50573	0.73785
0.22521	-0.58856
0.93925	-0.84363
0.35272	0.32972
0.25071	0.78886
-0.15732	0.71234
-0.18282	0.58480
0.02119	0.15117
-0.18282	0.53379
-0.00431	-0.10391
0.42922	0.76336
-0.08081	-0.89465
-0.48884	-1.04770
0.14870	-1.40480
0.17421	-0.02739
0.02119	1.29902
-0.13181	1.60511
0.17421	1.24800
0.78624	0.15117
0.58223	0.50828
1.04126	0.10015
0.45472	-0.46102
-0.08081	-0.41000
-1.53441	-0.74160
0.04670	0.78886
0.32721	1.14597
0.22521	-0.07840
0.50573	-1.09871
0.48022	0.91640
-0.18282	-0.41000
0.35272	-0.00188
-0.10631	-0.18043
-0.20832	0.20219
0.19971	0.71234
0.53123	1.14597
0.30171	-0.07840
0.12320	-0.79262
-1.02437	-0.05289
-0.71835	0.58480
0.55673	0.45726
0.42922	0.48277
1.01576	0.50828
0.96476	0.48277
0.65874	-0.12942
-0.15732	-0.71609
-0.36133	0.04914
0.55673	0.22769
-0.20832	0.78886
-0.89686	0.12566
0.14870	-0.84363
0.48022	-1.53234
0.68424	-1.02219
0.19971	0.30422
0.42922	1.22250
0.09770	1.50308
-0.51434	0.58480
0.09770	1.50308
0.22521	0.76336
0.04670	0.04914
0.25071	-0.33348
-0.02981	0.45726
0.68424	0.68683
0.60773	-1.04770
-0.33583	-0.15492
-0.20832	-0.71609
0.02119	0.15117
-0.08081	-0.00188
0.35272	-0.51203
0.60773	0.58480
0.45472	0.76336
0.83725	0.43176
0.70974	0.30422
-0.10631	0.20219
-0.79486	-0.07840
-1.22839	-0.05289
0.30171	0.43176
0.09770	0.04914
0.63323	0.12566
1.27078	0.71234
0.63323	0.22769
-0.25932	-0.10391
0.12320	-0.35899
0.09770	0.20219
0.09770	0.27871
-0.41233	0.38074
-0.66735	0.15117
-0.02981	0.43176
0.35272	0.25320
0.40372	-0.35899
0.32721	-0.56305
0.35272	-0.66508
0.35272	0.91640
-0.23382	-0.61406
0.30171	-0.99668
0.48022	-0.56305
0.07220	2.57441
-0.18282	1.96222
0.30171	1.42656
-0.00431	-0.63957
0.19971	0.25320
0.42922	0.76336
-0.25932	-0.10391
-0.33583	0.35523
0.17421	-0.86914
0.68424	-1.22625
0.22521	-0.86914
-0.10631	-0.48652
0.35272	0.22769
0.68424	0.68683
0.70974	0.55929
-0.43783	0.22769
1.44929	0.12566
-0.25932	0.78886
-0.69285	0.76336
-0.28482	-0.12942
0.25071	0.15117
0.45472	0.32972
0.09770	-0.05289
-0.41233	-0.41000
-0.43783	0.12566
-0.00431	0.66132
0.55673	0.58480
1.06676	0.35523
0.32721	0.35523
0.27621	-0.20594
-0.38683	0.30422
-0.08081	-0.99668
0.58223	-0.20594
0.83725	0.04914
0.02119	1.14597
-0.46334	1.22250
-0.74385	-0.28246
0.37822	0.02363
0.22521	-1.73640
0.22521	-0.05289
0.42922	-0.33348
0.37822	0.96742
0.25071	1.78367
0.30171	0.25320
0.12320	0.63582
-0.05531	-0.15492
-0.00431	-0.30797
0.12320	0.50828
0.09770	0.17668
-0.23382	-0.53754
0.07220	-0.97117
0.42922	0.07465
-0.87136	0.55929
0.19971	0.50828
-0.00431	0.35523
-0.31033	0.20219
0.99026	0.10015
1.55129	0.12566
0.55673	-0.00188
-0.10631	-0.05289
0.42922	0.22769
0.58223	-0.05289
0.12320	0.12566
-0.99887	0.38074
-0.74385	0.71234
0.70974	0.27871
0.14870	0.04914
0.19971	-0.35899
0.22521	0.35523
-0.33583	0.07465
-0.28482	0.04914
-0.38683	-0.35899
0.48022	0.55929
0.63323	2.37034
0.60773	-0.84363
0.93925	-1.37929
-0.10631	-1.22625
-0.00431	0.02363
-0.20832	1.35003
-0.13181	0.86539
0.07220	0.40625
0.42922	0.96742
0.32721	0.20219
0.17421	-0.02739
0.04670	0.45726
-0.33583	-0.33348
-0.10631	-0.51203
0.30171	-0.23145
0.50573	0.45726
0.68424	-0.15492
0.35272	-0.58856
0.12320	-0.43551
0.02119	0.04914
0.27621	0.63582
-0.43783	0.45726
0.12320	0.35523
0.35272	0.38074
0.55673	0.25320
0.02119	0.63582
-0.36133	0.45726
-0.76936	-0.07840
-0.25932	-0.35899
-0.53984	0.20219
1.01576	0.63582
1.93382	0.07465
0.60773	-0.10391
-0.20832	-0.25695
0.50573	0.30422
-0.28482	0.02363
-0.23382	0.12566
-0.00431	0.07465
-0.15732	1.32453
0.02119	-0.00188
0.42922	-0.23145
0.12320	-0.58856
-0.18282	0.40625
-0.31033	-1.04770
0.04670	0.17668
0.22521	-0.23145
-0.33583	1.22250
0.35272	1.12046
0.27621	-0.07840
0.40372	-0.02739
0.83725	0.10015
0.55673	0.53379
0.17421	-0.05289
0.32721	-0.38449
-0.02981	0.45726
-0.36133	-0.18043
-0.08081	-0.00188
0.25071	0.66132
0.53123	0.02363
0.35272	0.12566
-0.38683	-0.58856
-0.25932	0.25320
-0.05531	0.89089
0.40372	-0.05289
-0.00431	-0.69059
0.96476	-0.07840
0.40372	0.32972
-0.25932	1.63062
0.19971	0.81437
-0.05531	-0.94566
0.30171	-0.97117
0.02119	-0.35899
-0.38683	0.35523
-0.02981	0.61031
0.35272	1.06945
0.50573	0.58480
0.73524	0.35523
0.12320	-0.38449
0.37822	0.04914
0.25071	0.15117
-0.08081	-0.07840
-0.10631	-0.15492
-0.00431	-0.12942
-0.28482	0.07465
-0.02981	-0.00188
0.12320	0.22769
-0.08081	0.68683
0.27621	0.25320
0.48022	0.07465
0.19971	-0.28246
0.12320	0.10015
0.12320	0.38074
0.48022	1.19699
-0.08081	-1.40480
0.37822	-0.51203
0.22521	-0.51203
-0.00431	0.78886
0.19971	0.38074
0.76074	0.04914
0.30171	0.55929
0.12320	0.83988
-0.23382	0.71234
-0.28482	0.53379
-0.56534	-0.10391
0.25071	-0.30797
-0.48884	-0.12942
-0.28482	-0.05289
1.01576	0.02363
0.99026	0.35523
0.02119	0.04914
0.25071	-0.38449
0.73524	-0.05289
0.12320	-0.00188
0.09770	-0.05289
-0.08081	0.20219
-0.13181	0.40625
0.12320	0.22769
-0.25932	0.43176
-0.18282	0.32972
0.50573	0.43176
0.32721	0.68683
-0.36133	-0.05289
0.37822	-0.12942
0.55673	-0.74160
0.70974	1.06945
-0.36133	-0.05289
-0.38683	-0.43551
0.09770	-0.66508
0.42922	0.27871
0.25071	0.81437
0.30171	0.66132
0.17421	0.68683
0.19971	0.32972
0.48022	1.47757
0.14870	-0.76711
-0.33583	-1.12422
-0.46334	-1.88945
0.19971	-0.07840
-0.28482	0.76336
-0.71835	1.06945
0.50573	0.48277
1.16877	1.32453
0.93925	0.40625
0.63323	-0.00188
0.45472	-0.46102
-0.23382	-0.71609
-0.25932	-0.56305
0.12320	-0.12942
0.09770	0.20219
-1.10088	0.55929
0.04670	0.76336
1.19427	0.53379
0.19971	0.55929
0.22521	0.17668
0.04670	0.07465
-0.20832	0.53379
-0.25932	-0.20594
-0.05531	-0.28246
