0.19971	0.22769
0.07220	0.12566
0.09770	0.17668
0.09770	0.10015
0.12320	0.02363
0.19971	0.15117
0.09770	0.17668
0.32721	0.32972
0.07220	0.43176
0.12320	0.25320
0.12320	-0.05289
0.09770	-0.07840
0.12320	-0.05289
0.04670	0.27871
0.22521	0.35523
0.12320	0.12566
0.17421	0.25320
0.19971	0.04914
0.12320	0.17668
0.14870	0.07465
0.14870	0.25320
0.12320	0.04914
0.12320	-0.05289
0.14870	-0.18043
0.07220	-0.15492
0.19971	0.20219
0.09770	0.30422
0.25071	0.25320
0.04670	0.30422
0.17421	0.22769
0.07220	0.15117
0.19971	0.12566
0.04670	0.22769
0.17421	0.27871
0.12320	0.12566
0.22521	0.25320
0.07220	0.04914
0.12320	0.15117
0.19971	0.10015
0.17421	0.02363
0.14870	0.10015
0.14870	0.25320
0.17421	0.27871
0.04670	0.12566
0.19971	-0.00188
0.09770	-0.00188
0.14870	0.17668
0.09770	0.15117
0.17421	0.25320
0.17421	-0.00188
0.14870	0.22769
0.12320	0.32972
0.07220	0.27871
0.17421	0.10015
0.07220	0.12566
0.09770	-0.00188
0.09770	0.20219
0.32721	0.12566
0.09770	0.20219
0.14870	0.04914
0.12320	0.22769
0.12320	0.07465
0.14870	0.17668
0.09770	-0.07840
0.14870	0.25320
0.17421	0.12566
0.12320	0.07465
0.22521	0.12566
0.09770	0.17668
0.14870	0.22769
0.09770	0.20219
0.17421	0.32972
0.14870	0.17668
0.12320	-0.02739
0.12320	-0.02739
0.14870	-0.00188
0.14870	0.15117
0.04670	0.22769
0.22521	0.10015
0.19971	0.20219
0.22521	0.25320
0.12320	0.17668
0.07220	0.25320
0.09770	0.12566
0.12320	0.04914
0.14870	0.15117
0.17421	0.04914
0.19971	0.04914
0.12320	0.12566
0.19971	0.07465
0.14870	0.07465
0.09770	0.15117
0.19971	0.07465
0.07220	0.30422
0.14870	0.10015
0.19971	0.22769
0.07220	0.17668
0.22521	0.15117
0.17421	0.15117
0.07220	0.17668
0.12320	0.12566
0.14870	0.10015
0.14870	0.22769
0.12320	0.04914
-0.05531	0.32972
0.37822	0.17668
0.09770	0.04914
0.17421	-0.12942
0.09770	-0.18043
0.12320	0.25320
0.12320	0.32972
0.12320	0.50828
0.14870	0.25320
0.12320	0.20219
0.25071	0.04914
0.17421	-0.02739
0.17421	-0.00188
0.09770	0.17668
0.19971	0.30422
0.14870	0.15117
0.14870	0.25320
0.14870	0.12566
0.12320	0.10015
0.14870	0.15117
0.09770	0.07465
0.19971	0.07465
0.14870	0.10015
0.12320	0.25320
0.22521	0.07465
0.19971	0.22769
0.30171	0.17668
0.04670	-0.00188
0.17421	0.17668
0.04670	0.30422
0.12320	0.25320
0.04670	0.20219
0.25071	0.02363
0.09770	0.22769
0.25071	0.04914
0.07220	0.20219
0.22521	0.07465
0.07220	0.25320
0.14870	0.17668
-0.08081	0.04914
0.32721	-0.10391
0.14870	-0.23145
0.07220	0.25320
0.14870	0.22769
0.12320	0.40625
0.17421	0.27871
0.17421	0.35523
0.22521	0.25320
0.02119	0.15117
0.22521	0.07465
0.07220	0.07465
0.22521	-0.00188
0.12320	0.15117
0.14870	0.02363
0.12320	0.07465
0.17421	0.22769
0.12320	0.10015
0.19971	0.35523
0.40372	0.12566
0.04670	0.12566
0.07220	-0.10391
0.22521	-0.00188
0.22521	0.32972
0.07220	0.32972
0.22521	0.32972
0.09770	0.17668
0.14870	0.10015
0.17421	0.04914
0.12320	0.12566
0.12320	0.20219
0.14870	0.12566
0.12320	0.12566
0.14870	0.10015
0.14870	0.20219
0.14870	0.25320
0.12320	0.12566
0.12320	-0.00188
0.12320	0.02363
0.14870	-0.02739
0.12320	0.25320
0.12320	0.20219
0.09770	0.20219
0.19971	0.25320
0.12320	0.12566
0.17421	0.27871
0.19971	0.04914
0.04670	0.10015
0.12320	0.07465
0.09770	0.12566
0.27621	0.22769
0.04670	0.04914
0.14870	0.04914
0.17421	0.07465
0.14870	0.27871
0.14870	0.22769
0.12320	0.30422
0.12320	0.27871
0.14870	0.12566
0.12320	-0.02739
0.14870	0.04914
0.22521	0.10015
0.09770	0.10015
0.19971	0.04914
0.04670	0.17668
0.32721	0.12566
0.14870	0.27871
0.04670	0.20219
0.07220	0.15117
-0.02981	-0.00188
0.19971	0.04914
0.40372	0.04914
0.02119	0.40625
0.02119	0.25320
0.17421	0.15117
0.09770	0.04914
0.22521	0.17668
0.09770	0.10015
0.12320	0.20219
0.14870	0.12566
0.07220	0.20219
0.19971	0.04914
0.12320	0.04914
0.14870	0.15117
0.14870	-0.02739
0.14870	0.30422
0.14870	0.35523
0.09770	0.20219
0.14870	0.15117
0.12320	0.12566
0.14870	0.10015
0.22521	0.12566
0.27621	0.15117
-0.23382	0.10015
-0.05531	0.25320
0.60773	-0.00188
0.25071	-0.00188
0.12320	0.17668
-0.00431	0.27871
0.09770	0.20219
0.02119	0.12566
0.12320	0.22769
0.12320	0.04914
0.07220	0.10015
0.22521	0.17668
0.12320	0.25320
0.17421	-0.00188
0.07220	0.07465
0.19971	0.15117
0.07220	-0.15492
0.12320	0.15117
0.07220	0.20219
0.14870	0.22769
0.25071	0.30422
0.07220	0.17668
0.22521	0.17668
0.04670	0.17668
0.17421	0.22769
0.17421	0.12566
0.12320	0.15117
0.14870	-0.15492
0.12320	-0.02739
0.19971	-0.02739
0.07220	0.20219
0.25071	0.25320
0.17421	0.20219
0.12320	0.38074
0.14870	0.20219
0.09770	0.20219
0.19971	-0.02739
0.07220	-0.05289
0.14870	0.04914
0.09770	0.15117
0.22521	0.35523
0.07220	0.17668
0.22521	0.15117
0.12320	0.04914
0.17421	-0.05289
0.09770	0.25320
0.12320	0.32972
0.14870	0.20219
0.17421	0.32972
0.09770	0.07465
0.17421	-0.15492
0.17421	0.07465
0.14870	0.04914
0.09770	0.35523
0.22521	0.17668
0.22521	-0.02739
0.17421	0.22769
-0.00431	0.45726
0.17421	0.27871
0.12320	0.22769
0.14870	-0.12942
0.12320	-0.12942
0.02119	0.07465
0.22521	0.22769
0.19971	0.30422
0.14870	0.12566
0.19971	0.15117
-0.05531	0.10015
0.12320	-0.02739
0.27621	0.20219
0.17421	-0.00188
0.14870	0.22769
0.02119	0.20219
0.22521	0.07465
0.07220	0.17668
0.14870	0.15117
0.19971	0.17668
0.02119	0.17668
0.19971	0.20219
0.22521	0.15117
-0.00431	0.10015
0.22521	0.25320
0.32721	0.32972
0.12320	-0.05289
0.19971	0.02363
0.07220	0.12566
0.12320	0.25320
0.19971	0.25320
0.02119	0.07465
0.17421	0.45726
0.12320	0.07465
0.17421	-0.30797
0.14870	-0.25695
0.09770	-0.10391
0.22521	0.53379
0.12320	0.38074
0.12320	0.35523
0.14870	0.15117
0.07220	0.15117
0.25071	0.30422
0.09770	0.20219
0.22521	-0.00188
0.17421	-0.18043
0.12320	-0.28246
0.04670	0.17668
0.14870	0.40625
0.17421	0.32972
0.09770	0.27871
0.14870	0.15117
0.09770	0.07465
0.22521	0.04914
0.07220	0.32972
0.17421	0.10015
0.12320	-0.02739
0.12320	0.07465
0.17421	0.20219
-0.00431	0.12566
0.27621	-0.10391
0.04670	0.12566
0.07220	0.25320
0.14870	0.43176
0.12320	0.20219
0.14870	0.04914
0.12320	0.22769
0.12320	0.07465
0.25071	-0.05289
0.07220	0.10015
0.19971	0.22769
0.22521	0.15117
0.12320	0.35523
0.09770	0.40625
0.19971	-0.05289
0.09770	-0.23145
0.14870	0.27871
0.12320	0.27871
0.12320	0.10015
0.17421	-0.66508
0.12320	-0.79262
0.25071	0.38074
0.04670	0.73785
0.09770	0.89089
0.17421	0.58480
0.19971	0.50828
0.25071	0.22769
0.12320	0.17668
0.30171	0.07465
-0.00431	-0.35899
-0.20832	-0.48652
0.32721	-0.12942
0.19971	0.30422
0.17421	0.15117
0.04670	0.04914
0.09770	0.22769
0.14870	0.10015
0.12320	0.35523
0.09770	0.20219
0.09770	0.38074
0.12320	0.12566
0.14870	0.15117
0.19971	0.22769
0.12320	0.10015
-0.00431	0.04914
0.22521	0.07465
0.53123	0.12566
-0.02981	0.17668
0.07220	0.17668
-0.00431	0.17668
0.14870	0.43176
0.04670	-0.18043
0.22521	-0.53754
0.14870	-0.43551
0.17421	0.48277
0.22521	0.86539
0.14870	0.58480
0.14870	0.53379
0.09770	0.15117
0.12320	-0.10391
0.09770	0.30422
0.22521	-0.66508
0.14870	0.02363
0.14870	0.25320
0.14870	-0.10391
0.12320	0.40625
0.12320	0.35523
0.12320	0.43176
0.22521	0.22769
0.07220	0.38074
0.12320	-0.10391
0.12320	-0.23145
0.09770	-0.15492
0.12320	0.15117
0.27621	0.27871
0.07220	0.10015
0.30171	0.17668
0.17421	0.20219
0.12320	0.40625
0.12320	0.20219
0.09770	-0.00188
0.09770	-0.63957
0.14870	-0.05289
0.25071	-0.35899
0.17421	0.73785
0.14870	0.94191
0.02119	0.76336
-0.00431	0.04914
0.04670	0.12566
0.07220	0.15117
0.25071	-0.05289
0.37822	-0.15492
0.14870	0.04914
0.04670	0.32972
0.19971	0.35523
0.17421	-0.07840
0.25071	-0.35899
0.12320	0.12566
0.09770	1.45206
0.12320	0.35523
0.09770	-0.66508
0.09770	-0.05289
0.12320	0.17668
0.19971	-0.10391
0.17421	-0.33348
0.40372	0.02363
0.37822	0.30422
0.17421	0.96742
-0.38683	0.76336
-0.74385	0.40625
-0.08081	-0.20594
0.22521	-0.99668
0.50573	-0.43551
0.50573	0.96742
0.35272	-0.10391
0.32721	0.55929
0.35272	0.12566
0.35272	-0.33348
0.35272	0.10015
0.17421	0.63582
-0.13181	0.61031
-0.18282	1.40105
-0.23382	0.81437
-0.13181	0.04914
-0.53984	-0.15492
-0.18282	-0.00188
-0.08081	-0.89465
-0.02981	0.32972
0.99026	-2.32308
1.01576	-0.81812
0.42922	-1.86394
0.32721	0.55929
0.12320	1.37554
0.09770	1.75816
-0.02981	1.29902
-0.02981	0.96742
0.04670	-0.00188
0.04670	0.50828
0.12320	0.43176
-0.00431	0.35523
-0.00431	0.00000
0.19971	0.00000
0.17421	0.00000
-0.00431	0.00000
0.22521	0.00000
0.09770	0.00000
0.12320	0.00000
0.17421	1.42656
0.58223	-0.84363
0.09770	-1.35379
-0.13181	-2.27207
0.07220	-1.07320
0.37822	0.63582
0.32721	1.24800
-0.05531	1.45206
-0.79486	1.37554
1.01576	-0.07840
0.35272	-0.61406
-0.74385	0.91640
-1.04987	0.10015
0.63323	-0.30797
1.21977	-0.76711
0.81175	0.38074
0.60773	0.45726
0.17421	0.68683
-0.38683	1.37554
-0.10631	1.29902
0.12320	1.01843
0.07220	-1.71090
0.12320	0.61031
-0.02981	-2.52714
-0.33583	-0.99668
-0.10631	-0.94566
-0.08081	-1.53234
0.50573	1.68163
0.35272	1.37554
0.27621	1.96222
0.07220	1.83468
0.40372	3.87530
0.32721	-0.48652
-0.18282	-0.35899
-0.23382	-4.10862
-0.18282	1.73265
0.76074	-1.12422
0.42922	-1.27726
-0.15732	-0.02739
0.83725	0.66132
0.42922	0.99292
0.53123	0.61031
0.30171	0.30422
-0.48884	0.12566
0.45472	0.45726
-0.05531	0.45726
-0.08081	-0.05289
-1.35589	-0.84363
-1.50890	0.15117
0.88825	0.66132
0.78624	-0.58856
0.30171	0.66132
0.70974	-0.33348
-0.33583	-0.07840
0.50573	-1.04770
0.86275	1.35003
-0.02981	0.35523
0.17421	-0.30797
0.55673	-2.06800
0.60773	-0.30797
-0.56534	1.73265
0.02119	1.88570
-0.99887	2.14077
-0.18282	0.38074
-0.05531	-1.50683
0.83725	-0.05289
1.24527	0.78886
0.99026	-0.94566
-0.69285	0.61031
-0.92237	-1.35379
0.53123	0.58480
-0.31033	1.86019
-0.28482	-1.48133
0.50573	-0.99668
1.24527	-1.50683
0.63323	0.40625
-0.28482	1.78367
0.58223	3.67124
0.50573	-1.58336
-0.41233	-1.30277
-0.69285	0.12566
0.58223	0.78886
-0.84586	0.12566
-0.64185	0.99292
-0.20832	0.83988
0.73524	-1.58336
0.19971	1.14597
0.73524	4.56401
0.96476	-2.96078
0.14870	-2.19554
-0.74385	-3.36890
0.12320	0.55929
-0.18282	2.44687
0.50573	2.57441
0.93925	2.49788
-0.08081	1.22250
0.81175	-0.89465
0.12320	-1.14973
-0.18282	-1.17523
-0.51434	-0.56305
-0.05531	1.19699
1.14327	-0.18043
-0.33583	-1.37929
-1.58541	-1.37929
-0.18282	-0.94566
0.76074	1.14597
0.83725	2.93151
0.09770	1.88570
0.17421	0.53379
0.88825	-1.14973
0.83725	0.61031
-0.00431	-0.69059
-0.08081	-0.76711
0.27621	-0.43551
-0.05531	-1.17523
-0.46334	0.35523
0.17421	1.60511
0.30171	2.85499
-0.33583	-0.66508
0.48022	3.90081
0.25071	-5.86866
-0.23382	-1.88945
-0.28482	-1.94047
-0.66735	1.78367
-0.10631	4.97213
0.25071	0.40625
1.21977	0.17668
1.14327	-1.14973
0.27621	3.51819
-0.56534	-1.88945
-0.53984	-0.99668
0.70974	-1.43031
0.17421	0.45726
-0.00431	-0.02739
-0.46334	-0.12942
-0.15732	0.71234
-0.25932	1.78367
1.50029	1.40105
1.01576	2.16628
0.40372	-1.07320
-0.05531	-1.55785
0.30171	-1.94047
0.30171	-1.22625
-0.13181	0.94191
0.45472	1.93671
-1.20288	0.89089
0.42922	-0.71609
-0.33583	0.15117
-1.27939	0.94191
1.85731	-1.45582
0.37822	1.29902
0.17421	-2.80773
0.35272	-0.56305
0.35272	0.55929
-0.00431	2.31933
0.19971	2.42136
0.09770	0.61031
0.17421	0.43176
0.12320	-1.48133
0.02119	0.04914
0.45472	-0.33348
0.83725	1.04394
0.02119	-0.05289
-1.02437	-2.27207
-1.25389	-1.27726
0.32721	0.02363
0.63323	1.75816
1.37278	1.17148
0.30171	1.37554
-0.08081	-0.02739
1.01576	2.52339
0.73524	-1.81293
-1.71292	-1.94047
-0.18282	-4.23616
0.76074	0.96742
-0.08081	2.72745
0.42922	2.11527
-0.10631	1.04394
-0.02981	-0.43551
0.88825	-0.05289
-0.15732	-0.05289
0.81175	0.27871
0.65874	1.29902
0.48022	-0.38449
-0.00431	-1.20074
0.65874	1.32453
-0.89686	-0.07840
-0.36133	-1.20074
-0.10631	-1.43031
-0.20832	-3.11382
0.68424	1.70714
0.48022	1.65613
0.53123	1.86019
-0.64185	2.06425
0.96476	1.40105
0.58223	-1.73640
-0.13181	-0.86914
-0.46334	0.17668
-0.08081	1.47757
-0.53984	0.53379
-0.10631	-2.65468
0.12320	-1.71090
0.70974	0.15117
0.96476	0.81437
0.40372	1.14597
0.70974	2.03874
-0.02981	3.39065
-0.36133	-2.37410
-0.25932	-4.23616
-0.15732	-2.55265
0.40372	2.70194
0.14870	2.29382
0.55673	1.50308
-1.68742	2.75296
0.70974	-0.86914
1.04126	-1.09871
1.16877	-3.87905
-1.10088	-0.33348
-1.84042	1.78367
1.34728	0.32972
1.34728	0.38074
1.24527	0.55929
0.70974	-0.15492
-0.56534	0.96742
1.14327	2.57441
-0.66735	-2.22105
-1.15188	-1.99148
0.78624	-2.55265
0.02119	1.65613
0.25071	1.96222
0.25071	1.17148
0.04670	1.40105
-0.20832	0.81437
0.53123	0.30422
0.53123	0.45726
-1.30489	-1.45582
-0.33583	-1.71090
0.93925	-0.33348
0.40372	0.10015
0.40372	0.99292
0.37822	1.75816
0.65874	1.29902
0.32721	-0.10391
-0.41233	0.30422
-0.71835	-0.69059
0.27621	-2.50164
1.75531	-0.02739
-0.02981	-2.27207
-0.38683	1.42656
-1.84042	-0.76711
0.40372	1.86019
1.32178	1.50308
1.29628	1.88570
0.32721	1.68163
-0.02981	0.30422
0.35272	-0.48652
0.91375	1.22250
-0.64185	-0.71609
-0.99887	-0.81812
-0.13181	-2.34859
0.27621	-0.76711
-0.38683	-0.94566
-1.17738	0.35523
-0.20832	1.04394
1.88281	1.57960
1.37278	1.35003
-0.18282	0.15117
-0.51434	-3.06281
0.35272	-0.89465
0.53123	1.93671
0.04670	1.91120
0.30171	1.50308
-0.31033	1.52859
0.53123	0.40625
0.55673	-0.18043
-0.08081	-0.81812
-1.02437	-1.37929
-0.36133	-0.99668
0.22521	-0.18043
0.37822	1.22250
0.53123	1.80917
0.78624	-1.09871
0.45472	-0.35899
0.65874	0.76336
0.63323	0.94191
-0.82036	-0.02739
-0.71835	-1.40480
-0.66735	0.99292
-0.20832	0.50828
0.83725	0.38074
1.01576	-0.23145
1.32178	0.20219
0.83725	1.75816
-0.28482	-1.20074
-0.74385	-0.05289
-0.33583	-1.71090
-0.56534	0.55929
0.32721	1.50308
0.30171	1.09496
0.83725	1.73265
0.93925	-0.38449
1.04126	-1.68539
-0.18282	0.35523
-0.51434	0.96742
-0.28482	-0.61406
-0.56534	-1.45582
-1.15188	-0.28246
0.07220	-1.12422
-0.99887	0.55929
-0.08081	1.04394
1.39828	1.22250
2.31634	0.71234
0.78624	0.58480
0.35272	-0.00188
0.30171	0.27871
-0.13181	-0.38449
-0.61635	-0.35899
-0.00431	0.55929
-0.31033	0.15117
0.02119	2.34484
-0.18282	-3.01179
-0.05531	-1.53234
0.12320	0.17668
0.22521	0.86539
0.22521	0.71234
-0.41233	0.96742
0.12320	0.89089
-0.02981	1.22250
1.06676	0.61031
0.99026	-0.23145
1.06676	0.17668
0.53123	0.27871
-0.89686	-0.58856
0.09770	2.57441
1.39828	-4.54226
-0.20832	-0.53754
-0.23382	-2.11902
-0.79486	-0.48652
-1.78942	1.91120
-0.36133	1.29902
0.45472	1.22250
2.08683	1.98773
0.70974	1.52859
1.42379	0.45726
0.42922	-0.56305
-0.74385	-0.02739
0.04670	0.12566
0.09770	-0.18043
-0.23382	0.25320
-0.25932	-0.99668
-1.04987	-0.76711
1.60230	-0.92016
0.12320	0.25320
-0.15732	0.32972
-0.25932	0.83988
-0.82036	0.61031
0.70974	0.94191
-0.64185	-0.05289
0.12320	-0.43551
0.93925	-0.58856
1.34728	1.40105
0.88825	0.17668
-0.18282	-0.28246
0.78624	-1.73640
-0.82036	-1.09871
-0.05531	2.37034
-0.02981	2.19179
-0.08081	-0.20594
0.76074	1.32453
0.09770	0.30422
0.09770	-0.18043
-0.28482	-3.36890
0.48022	-1.07320
0.32721	0.22769
-0.18282	0.96742
-0.31033	1.52859
0.50573	-0.15492
0.96476	1.37554
-0.25932	-1.58336
-0.61635	-1.53234
-1.02437	-2.19554
-1.45790	-0.07840
0.25071	1.91120
1.65330	2.26831
1.39828	1.93671
1.11776	1.04394
1.32178	0.38074
0.04670	0.71234
0.45472	-0.25695
0.25071	-1.88945
-1.10088	-2.50164
-1.76392	-1.48133
-0.94787	1.06945
-0.56534	0.63582
0.55673	0.30422
0.37822	1.29902
1.19427	1.80917
1.39828	0.81437
0.32721	-1.04770
-0.08081	-1.48133
-0.36133	-0.74160
-0.71835	0.17668
-0.33583	0.63582
0.55673	2.06425
0.58223	0.15117
-0.08081	0.83988
0.53123	-2.80773
0.60773	-0.33348
0.60773	1.09496
-0.05531	1.88570
-0.61635	2.57441
-0.48884	-1.65988
0.12320	-1.14973
0.22521	-1.58336
0.58223	0.99292
1.21977	0.91640
0.68424	-0.35899
-0.92237	0.99292
0.14870	-1.22625
-0.46334	0.04914
0.22521	-0.89465
-0.64185	1.52859
-0.53984	-0.38449
1.39828	-0.30797
0.60773	1.40105
2.16333	1.91120
0.09770	1.35003
-0.43783	-0.99668
-0.08081	0.66132
0.40372	-2.90976
0.14870	0.02363
-0.74385	0.10015
-0.36133	0.89089
0.91375	0.81437
-0.10631	-0.05289
0.42922	-0.10391
-0.46334	0.04914
0.27621	0.17668
0.04670	0.81437
0.78624	0.63582
1.14327	-0.76711
-0.41233	-0.74160
-0.48884	-0.00188
-0.74385	0.35523
0.30171	1.45206
0.93925	0.53379
1.50029	-0.43551
0.88825	-0.58856
-0.79486	-0.41000
-0.97337	0.94191
0.22521	1.42656
0.42922	-0.86914
0.63323	-0.51203
0.22521	-0.07840
-0.53984	1.50308
-0.28482	0.76336
0.45472	-0.43551
-0.13181	-0.51203
0.22521	1.50308
-0.08081	-1.27726
-0.48884	0.50828
0.70974	-1.88945
1.34728	1.12046
1.32178	-1.25176
-0.05531	0.63582
-1.58541	1.68163
0.68424	1.14597
0.25071	-0.00188
0.14870	0.22769
0.99026	0.12566
0.12320	0.53379
-0.41233	-0.43551
-0.53984	-0.23145
-0.51434	0.10015
-0.56534	-0.18043
0.12320	0.83988
1.34728	-0.10391
-0.61635	-1.14973
-0.18282	0.68683
1.04126	0.20219
0.58223	-0.35899
0.37822	-1.68539
1.72980	2.34484
0.22521	0.61031
-0.33583	1.04394
-0.13181	0.91640
-0.76936	1.57960
-0.18282	-1.12422
-0.00431	-1.25176
0.22521	-0.18043
1.01576	0.89089
0.14870	0.43176
0.09770	0.10015
-0.10631	0.53379
-0.51434	-0.74160
0.42922	0.22769
0.68424	-0.97117
-0.08081	-0.33348
0.30171	-0.25695
1.52579	1.32453
-0.76936	0.30422
-1.48340	0.83988
0.14870	0.94191
0.58223	1.19699
0.27621	-0.74160
0.53123	-2.37410
1.24527	0.02363
0.09770	0.83988
-0.05531	0.78886
0.12320	-0.12942
-1.38139	-0.38449
-0.43783	1.40105
1.21977	0.12566
-0.05531	-0.05289
-1.10088	-1.22625
0.04670	0.27871
0.22521	0.02363
0.93925	1.19699
0.60773	1.50308
0.37822	0.83988
0.02119	-0.43551
0.58223	-0.10391
0.22521	0.76336
-0.64185	-0.41000
-0.02981	-0.86914
0.48022	-1.40480
0.02119	0.55929
0.48022	1.40105
0.04670	0.68683
-0.74385	-0.46102
-0.23382	0.35523
0.76074	3.31413
0.81175	0.17668
1.04126	-1.71090
-0.02981	-2.50164
-1.53441	0.20219
0.14870	0.83988
0.02119	2.08976
-0.69285	-0.23145
0.42922	-0.25695
1.21977	-1.04770
1.27078	1.47757
0.35272	0.76336
-0.79486	-0.05289
0.07220	-0.63957
0.22521	0.63582
0.53123	0.22769
-0.48884	-0.38449
0.42922	-0.28246
1.32178	-0.00188
-1.58541	0.48277
-1.96793	0.20219
-1.02437	0.38074
0.81175	0.63582
0.40372	-1.02219
0.73524	-0.76711
1.24527	0.17668
0.55673	-1.09871
0.32721	1.06945
0.40372	1.37554
0.53123	2.80397
-0.25932	-0.10391
-0.61635	-0.43551
0.12320	-0.18043
0.55673	-0.63957
-1.20288	-0.48652
0.22521	-0.74160
0.73524	0.76336
0.68424	2.65093
0.12320	0.35523
0.19971	-1.17523
-0.51434	-3.34339
-0.99887	0.38074
0.91375	2.37034
0.58223	0.35523
0.48022	0.27871
0.27621	-1.71090
-0.00431	-0.12942
1.24527	1.09496
-0.25932	1.37554
0.12320	0.35523
0.12320	-0.05289
0.91375	0.25320
0.45472	0.15117
-0.05531	0.10015
-0.00431	-0.61406
0.81175	-0.28246
-0.25932	-0.12942
-0.23382	0.40625
-1.63641	0.27871
-1.02437	0.20219
0.55673	1.04394
0.60773	-0.53754
0.60773	0.15117
0.96476	-2.19554
0.73524	0.91640
1.09226	1.60511
-0.48884	0.40625
0.22521	1.29902
-0.25932	0.61031
-0.23382	-0.30797
0.35272	0.04914
-0.18282	-1.96597
0.12320	1.01843
0.27621	-1.35379
0.55673	0.61031
-0.10631	1.37554
0.07220	0.43176
-0.71835	-0.63957
0.53123	0.32972
-0.02981	2.52339
1.24527	-0.02739
-0.28482	-0.23145
-0.05531	-0.86914
0.73524	2.49788
0.14870	-0.10391
0.99026	-0.00188
-0.84586	-3.93007
0.76074	-1.37929
-0.59084	-0.07840
0.50573	2.06425
0.60773	2.08976
1.67880	1.04394
-0.84586	0.43176
-1.04987	-0.35899
-0.23382	0.10015
-0.69285	0.40625
-0.10631	0.71234
0.48022	-1.09871
0.48022	-0.74160
0.99026	-1.88945
0.88825	0.45726
0.93925	0.63582
1.34728	1.17148
0.37822	0.40625
-0.56534	1.14597
-1.35589	0.20219
-0.99887	-0.79262
0.58223	-0.94566
-0.87136	-0.20594
0.83725	1.50308
0.12320	1.78367
0.19971	1.06945
-0.69285	-1.22625
0.93925	-0.46102
1.14327	0.45726
0.14870	-1.37929
0.09770	-0.92016
-0.41233	0.45726
0.42922	1.83468
-0.23382	1.27351
0.73524	0.27871
0.48022	-0.25695
-0.15732	-0.66508
-0.64185	-0.53754
0.45472	0.22769
0.83725	0.68683
0.63323	0.96742
-0.36133	1.29902
-0.74385	0.10015
-1.20288	0.76336
1.55129	-1.14973
0.96476	-2.17003
-0.31033	-1.50683
-1.20288	1.12046
0.93925	0.63582
1.55129	1.29902
0.55673	1.32453
-0.53984	-0.10391
-2.17195	-0.56305
1.32178	-0.53754
1.04126	1.01843
1.11776	1.09496
0.42922	0.81437
-0.33583	0.35523
-0.23382	0.02363
-0.36133	-1.30277
-0.02981	-0.86914
0.48022	0.66132
0.02119	1.42656
-0.48884	-0.02739
0.07220	-2.50164
0.02119	-1.25176
0.53123	0.58480
-0.08081	0.99292
0.42922	1.57960
0.78624	1.29902
0.78624	1.52859
-0.15732	1.78367
-1.10088	-1.14973
0.25071	-0.20594
0.76074	-2.93527
0.22521	0.12566
0.70974	0.63582
1.01576	0.50828
0.37822	0.68683
-2.57997	0.66132
-1.38139	1.19699
0.14870	-0.61406
0.96476	-3.19035
1.39828	-1.30277
0.37822	1.04394
-0.13181	1.12046
1.11776	1.24800
0.93925	1.27351
0.83725	1.17148
-1.84042	0.91640
-2.14644	0.35523
1.65330	-0.79262
0.53123	-1.88945
-0.25932	-0.99668
-0.33583	0.43176
0.25071	0.68683
0.76074	0.43176
0.09770	0.27871
0.32721	0.32972
0.42922	-0.10391
0.81175	3.00804
-0.02981	-1.07320
-0.15732	0.91640
-0.31033	-3.87905
-0.56534	-0.23145
0.53123	0.55929
0.76074	2.59991
0.07220	2.03874
0.27621	0.76336
0.25071	-0.66508
-0.10631	0.71234
-0.41233	-0.33348
-0.64185	0.86539
0.96476	-1.99148
0.12320	-0.69059
-0.20832	0.25320
1.24527	0.50828
0.60773	0.10015
-0.05531	0.04914
0.35272	0.83988
0.58223	1.14597
0.35272	-1.17523
-0.64185	-0.74160
-0.59084	-1.71090
1.21977	0.66132
-0.48884	1.57960
0.19971	1.80917
-0.69285	0.04914
-0.00431	-0.18043
0.60773	0.10015
0.73524	0.04914
1.52579	0.43176
0.17421	-0.81812
-0.33583	-0.61406
-0.02981	0.73785
-0.92237	1.01843
-0.89686	-1.99148
1.14327	-0.41000
1.06676	-0.02739
0.37822	0.50828
0.86275	1.73265
-0.00431	0.45726
-0.71835	0.20219
0.12320	0.04914
-0.08081	1.60511
-0.43783	0.45726
0.58223	-0.02739
0.53123	-1.76191
0.37822	-0.18043
0.35272	0.43176
-0.02981	1.19699
0.37822	1.35003
0.17421	0.07465
-0.05531	0.02363
-0.00431	-2.04250
0.12320	-0.76711
0.37822	-0.89465
-0.46334	1.06945
-0.08081	0.45726
-0.20832	0.78886
-0.25932	0.35523
1.78081	1.35003
0.35272	0.91640
0.14870	0.25320
1.09226	0.55929
0.70974	-0.35899
0.09770	-0.43551
-0.20832	-0.20594
-1.58541	-0.79262
-1.33039	0.22769
0.93925	-0.12942
1.11776	0.04914
0.17421	0.40625
-0.20832	0.55929
0.81175	0.55929
-0.13181	-0.30797
0.35272	-0.25695
-0.89686	-1.14973
-0.46334	0.15117
0.60773	0.32972
0.93925	0.96742
0.73524	0.81437
0.32721	0.86539
0.22521	0.78886
-0.00431	0.55929
0.45472	-3.01179
0.09770	-0.05289
-0.43783	0.30422
-1.02437	0.96742
-0.97337	-0.97117
0.12320	0.96742
0.63323	1.68163
0.73524	0.96742
0.99026	1.50308
1.11776	1.12046
0.88825	-0.41000
0.17421	-1.60887
-1.50890	-3.77702
-0.99887	-1.27726
0.55673	-0.10391
0.19971	1.22250
0.86275	1.80917
0.91375	1.78367
0.09770	1.17148
-1.30489	0.86539
-0.13181	0.30422
0.42922	-1.20074
0.65874	-0.92016
0.96476	-1.25176
0.25071	0.12566
0.40372	0.83988
0.40372	0.50828
-0.46334	0.10015
-1.30489	-0.00188
0.14870	0.91640
0.40372	0.10015
-0.13181	0.22769
0.53123	-0.94566
0.50573	0.40625
0.53123	-1.04770
-0.41233	0.66132
-0.61635	0.66132
0.07220	0.50828
0.60773	1.06945
0.99026	1.06945
0.37822	-0.23145
0.65874	-0.58856
0.37822	-1.04770
-0.48884	0.27871
-0.28482	1.22250
-0.59084	-1.40480
-0.10631	1.29902
0.48022	-2.27207
0.22521	0.53379
0.22521	-0.41000
0.81175	1.78367
1.04126	0.78886
-0.79486	2.24281
-0.59084	0.81437
0.60773	-1.02219
0.81175	-0.89465
-0.69285	0.50828
0.17421	1.14597
0.17421	-1.32828
-0.46334	-2.06800
1.24527	-1.68539
-0.31033	1.27351
-0.38683	2.06425
0.78624	1.32453
1.04126	0.89089
0.65874	0.32972
0.09770	-0.15492
-1.30489	-0.41000
-0.38683	-0.25695
0.45472	-0.66508
0.58223	0.15117
-0.38683	0.10015
0.25071	0.17668
-0.15732	0.04914
1.01576	-0.10391
0.99026	0.50828
0.07220	0.81437
0.09770	0.30422
0.30171	0.43176
-0.20832	0.55929
-0.92237	0.02363
-0.43783	-0.69059
-0.69285	0.15117
0.70974	-0.35899
0.60773	0.76336
0.88825	0.43176
0.58223	-0.05289
0.53123	0.38074
0.93925	0.20219
0.09770	1.98773
-0.53984	0.63582
0.14870	0.38074
0.04670	-2.24656
-0.59084	0.25320
-1.53441	-0.74160
0.40372	-0.66508
0.78624	0.32972
0.50573	1.52859
0.32721	0.25320
-0.43783	0.55929
-0.48884	0.91640
-0.05531	1.04394
1.16877	0.40625
1.80631	-1.55785
1.34728	-2.80773
0.68424	-1.02219
-1.20288	1.27351
-0.64185	1.68163
-0.41233	1.19699
-0.25932	0.50828
-1.50890	0.61031
-0.10631	0.66132
0.81175	-0.12942
0.60773	-0.28246
0.32721	-0.33348
0.35272	0.04914
1.24527	0.71234
0.63323	-0.61406
-0.71835	-0.18043
0.07220	-0.05289
-0.25932	0.10015
0.50573	0.86539
0.50573	-0.00188
0.25071	1.06945
0.14870	-0.43551
0.09770	-0.38449
0.19971	0.43176
-0.00431	0.96742
-0.64185	0.43176
0.09770	-0.76711
0.22521	0.12566
-0.05531	0.07465
0.48022	0.02363
0.78624	0.12566
0.88825	1.55410
-0.25932	0.15117
-1.78942	-0.30797
-0.64185	-0.46102
1.55129	0.58480
0.42922	0.17668
-0.08081	-1.53234
0.63323	-0.56305
0.99026	1.93671
0.45472	1.06945
0.73524	1.86019
-0.61635	-0.48652
0.78624	0.12566
-0.71835	-2.85874
-0.05531	1.19699
0.55673	0.40625
-0.51434	0.45726
0.60773	-0.35899
-0.41233	-0.18043
-0.25932	0.66132
0.02119	0.63582
-0.13181	0.32972
0.19971	0.68683
0.42922	0.10015
0.04670	-0.79262
0.30171	-0.23145
0.91375	0.07465
0.17421	0.43176
0.50573	0.35523
-0.48884	0.12566
0.42922	0.27871
-0.15732	-0.12942
0.91375	0.12566
0.42922	0.96742
-0.38683	-0.02739
-0.18282	-0.25695
0.25071	0.43176
0.09770	-0.46102
-0.00431	0.53379
-0.18282	-0.66508
-0.20832	0.15117
0.53123	-1.02219
0.40372	1.40105
0.14870	1.40105
0.53123	0.83988
0.99026	0.83988
-0.41233	-0.15492
-0.36133	0.45726
-0.28482	-1.12422
-0.53984	-2.42511
0.25071	-0.63957
0.73524	1.24800
0.76074	0.96742
0.32721	0.58480
-0.10631	0.48277
0.07220	0.61031
0.50573	0.38074
0.32721	0.30422
-0.25932	-0.30797
-0.18282	-0.23145
-0.33583	-0.23145
0.32721	-0.56305
0.02119	0.12566
0.32721	0.38074
0.09770	0.22769
0.07220	0.15117
0.58223	0.20219
-0.28482	0.20219
-0.59084	0.17668
0.32721	0.35523
1.21977	0.48277
0.48022	-0.02739
-0.69285	0.02363
-0.87136	0.22769
0.68424	0.22769
0.83725	-0.02739
0.32721	0.58480
0.30171	1.86019
0.58223	-0.23145
-0.02981	-2.93527
-0.31033	-2.42511
-0.15732	0.55929
-0.05531	2.08976
-0.10631	2.82948
0.37822	1.60511
0.50573	0.89089
0.48022	-1.17523
-1.63641	-1.91496
-0.82036	-2.39961
1.09226	1.50308
0.99026	1.91120
1.21977	1.01843
-0.20832	0.45726
-0.08081	-0.79262
-0.18282	-0.38449
0.48022	-1.58336
0.32721	-0.10391
-0.64185	0.83988
1.01576	0.94191
0.73524	0.43176
0.83725	0.30422
0.27621	0.55929
-0.25932	0.50828
-0.41233	-0.15492
-0.99887	-0.74160
-0.43783	0.02363
0.22521	0.35523
-0.00431	-0.15492
0.91375	0.32972
1.14327	0.91640
0.91375	0.48277
-0.66735	-0.61406
-0.97337	-0.76711
-0.00431	0.30422
0.68424	0.86539
0.45472	1.14597
0.55673	0.30422
0.17421	-0.00188
0.07220	-0.66508
0.17421	0.43176
-0.08081	-0.38449
-0.74385	-0.35899
0.81175	-0.43551
-0.10631	0.81437
-0.05531	1.45206
0.30171	-0.00188
0.60773	0.96742
0.17421	-0.46102
0.14870	-0.58856
-0.89686	0.86539
-0.10631	-0.10391
0.53123	0.22769
1.09226	-0.10391
0.40372	0.35523
0.35272	-0.89465
0.93925	-1.25176
-1.02437	0.66132
0.27621	0.81437
0.09770	0.45726
0.48022	1.01843
0.58223	0.53379
-0.89686	0.15117
-0.59084	-0.46102
-0.74385	0.15117
0.17421	0.55929
1.60230	-0.10391
1.34728	-0.07840
0.76074	-0.10391
-0.25932	-0.35899
-0.97337	0.32972
0.60773	0.58480
-0.08081	0.55929
-0.41233	0.55929
0.30171	1.32453
-0.02981	-1.02219
0.12320	0.38074
0.63323	-1.99148
0.37822	-0.02739
0.14870	-0.05289
0.27621	1.09496
0.58223	1.06945
-0.28482	0.55929
-0.00431	-0.02739
-0.66735	1.12046
-0.43783	0.63582
0.60773	-0.94566
0.32721	-1.02219
0.19971	-0.07840
0.60773	1.27351
0.07220	-0.00188
1.01576	0.32972
0.32721	-1.17523
-0.51434	-0.12942
-0.64185	1.47757
0.63323	0.25320
0.35272	0.27871
-1.20288	-0.35899
0.50573	0.55929
0.76074	-1.14973
0.14870	0.43176
0.45472	0.58480
0.02119	1.09496
-0.46334	-0.07840
0.53123	0.61031
0.73524	-0.02739
0.78624	-0.00188
0.32721	0.27871
-0.38683	-0.07840
-0.46334	-0.25695
-0.38683	0.07465
0.65874	0.76336
0.07220	-0.20594
0.22521	-0.89465
0.27621	-0.15492
0.53123	0.35523
-0.08081	0.45726
-0.02981	0.55929
0.50573	1.37554
0.25071	-0.00188
-0.10631	-0.12942
-0.18282	-0.86914
-0.28482	-0.15492
0.45472	1.01843
0.37822	0.12566
0.19971	-0.61406
0.32721	0.43176
-1.27939	0.66132
-0.89686	1.86019
1.14327	0.86539
0.25071	-0.30797
0.68424	-0.69059
0.09770	-0.28246
0.35272	-1.40480
0.02119	-1.78742
0.17421	-0.07840
0.53123	1.09496
0.27621	1.24800
0.83725	1.12046
0.32721	1.37554
-0.18282	1.27351
-0.43783	-0.97117
-0.20832	-1.65988
0.07220	-0.84363
-0.64185	-0.43551
-0.99887	0.94191
0.68424	0.94191
0.63323	0.96742
1.14327	0.58480
0.99026	0.02363
0.42922	0.20219
0.19971	-0.51203
0.12320	-0.76711
-0.23382	-1.30277
-1.94243	-0.33348
0.58223	2.03874
0.93925	1.14597
0.22521	0.15117
0.53123	-0.10391
0.45472	-0.00188
0.12320	0.43176
0.76074	0.30422
-0.05531	-0.02739
-0.13181	0.10015
-0.25932	-0.46102
-0.69285	-0.28246
-0.10631	1.45206
0.42922	0.91640
1.09226	-0.38449
0.60773	-0.07840
0.60773	-0.38449
-0.08081	-0.30797
-0.79486	0.73785
0.14870	1.17148
-0.43783	-1.40480
0.25071	-1.17523
0.48022	-0.84363
0.09770	0.45726
0.09770	1.40105
0.60773	1.91120
0.81175	1.01843
0.32721	0.10015
-0.08081	0.73785
-0.76936	0.81437
-0.61635	-1.12422
0.37822	-0.89465
-0.18282	-2.34859
0.81175	0.17668
0.35272	1.32453
0.53123	1.63062
-0.18282	1.01843
-0.02981	0.04914
0.50573	-0.46102
0.63323	-0.20594
-0.10631	0.04914
0.32721	-0.56305
-0.41233	-0.63957
-0.79486	-0.00188
0.09770	0.71234
0.78624	0.50828
0.45472	0.48277
0.02119	0.32972
0.30171	0.61031
0.02119	-0.18043
0.73524	0.30422
0.73524	0.45726
-0.41233	-0.46102
0.02119	0.27871
0.02119	-0.41000
-0.56534	0.12566
0.93925	0.17668
0.22521	0.58480
-0.46334	0.76336
0.17421	-0.05289
1.14327	-0.97117
-0.13181	-0.25695
-0.92237	0.91640
0.02119	1.35003
0.63323	0.68683
0.22521	-0.35899
0.65874	-0.00188
0.17421	-0.00188
-0.13181	0.17668
-0.64185	-0.02739
-1.35589	-1.63437
0.68424	-0.43551
1.57679	0.55929
1.06676	1.22250
0.22521	1.52859
0.19971	0.43176
0.22521	0.94191
0.30171	0.35523
-0.23382	-0.41000
-1.30489	-0.63957
-0.94787	-0.05289
0.35272	-0.20594
0.93925	1.01843
0.53123	0.12566
0.42922	-0.63957
-0.43783	-0.69059
0.32721	0.61031
-0.46334	0.02363
1.04126	0.43176
0.09770	-0.66508
0.42922	0.45726
-0.36133	1.04394
0.55673	0.63582
0.22521	0.12566
0.25071	-0.05289
0.17421	0.43176
0.09770	1.12046
-0.05531	0.78886
-0.05531	-0.12942
0.09770	-1.25176
0.40372	-1.81293
0.04670	-0.25695
-0.00431	0.63582
-0.33583	0.83988
0.55673	0.78886
0.48022	0.68683
0.58223	0.76336
0.63323	0.12566
-1.30489	0.22769
0.17421	-0.33348
-0.02981	-0.89465
0.55673	0.35523
-0.18282	-0.12942
0.25071	0.35523
0.53123	0.10015
1.04126	0.43176
0.04670	0.53379
-0.61635	0.07465
-0.38683	0.40625
-0.05531	0.25320
0.65874	0.04914
0.70974	-0.25695
0.88825	0.32972
0.58223	0.73785
0.19971	0.20219
-0.15732	0.10015
-1.27939	-0.92016
-2.57997	-0.30797
-0.76936	-0.10391
1.21977	-0.30797
0.93925	0.89089
1.01576	0.73785
1.24527	0.66132
0.53123	0.02363
-0.46334	0.02363
-0.05531	-1.20074
0.73524	0.48277
0.12320	0.83988
-0.00431	0.86539
-0.13181	0.45726
-0.33583	0.66132
0.22521	-1.25176
0.32721	0.17668
0.48022	0.99292
0.25071	-1.14973
0.02119	-0.10391
-0.25932	0.10015
-0.15732	0.12566
0.60773	0.48277
0.96476	0.02363
0.32721	0.71234
-0.97337	0.76336
-0.89686	1.37554
-1.25389	-0.56305
0.48022	-0.18043
2.59686	-0.81812
1.75531	-0.30797
0.45472	0.55929
-0.46334	0.04914
-0.66735	0.38074
0.17421	-0.07840
0.35272	-0.28246
-0.69285	0.50828
0.81175	0.76336
0.32721	0.40625
-1.25389	-0.28246
-0.28482	-0.56305
0.30171	0.32972
0.68424	0.43176
0.83725	0.43176
0.40372	0.22769
0.37822	-0.18043
0.45472	0.17668
-1.38139	0.55929
-0.00431	0.35523
0.48022	-0.28246
0.27621	-0.28246
0.09770	-0.00188
-0.00431	0.96742
0.83725	0.76336
0.12320	-1.37929
-0.25932	-1.27726
-0.08081	-0.66508
0.12320	0.94191
0.63323	1.60511
0.09770	0.76336
0.25071	0.86539
-0.38683	1.12046
-0.05531	0.45726
0.91375	-0.35899
0.70974	-0.51203
-0.92237	-1.17523
0.02119	0.04914
0.40372	0.96742
0.42922	0.58480
0.37822	-0.00188
-0.56534	-1.07320
0.55673	0.25320
1.16877	-0.38449
-0.48884	0.07465
-0.08081	0.12566
0.83725	0.17668
0.37822	1.47757
-1.68742	0.66132
-1.20288	0.55929
0.83725	0.12566
0.76074	-0.00188
0.12320	-0.23145
-0.28482	-0.25695
-0.13181	0.63582
0.60773	-0.28246
0.53123	0.78886
0.68424	-1.07320
0.50573	-0.25695
-0.18282	0.43176
-0.36133	0.81437
-0.02981	1.57960
0.14870	-0.94566
0.19971	-0.43551
-0.05531	-1.27726
0.30171	0.94191
-0.05531	0.20219
-0.02981	1.01843
-0.33583	0.86539
-0.02981	0.61031
0.27621	-0.05289
0.42922	1.01843
0.35272	-0.97117
0.30171	-0.46102
0.73524	-0.25695
0.25071	0.61031
-0.51434	-0.07840
-0.46334	1.01843
1.19427	-0.35899
-0.13181	-0.43551
-0.97337	0.04914
1.57679	-0.10391
-0.69285	0.76336
0.27621	0.66132
1.37278	0.63582
0.48022	0.35523
-0.74385	-0.46102
-0.69285	0.17668
0.04670	-0.20594
0.76074	0.30422
0.22521	0.38074
-0.08081	0.96742
-0.08081	0.45726
0.35272	-1.09871
-0.59084	-0.46102
-0.38683	-0.48652
1.24527	0.48277
0.14870	0.86539
1.01576	0.10015
0.14870	0.45726
-0.51434	0.81437
0.19971	-0.61406
0.14870	0.07465
0.27621	0.20219
0.04670	0.38074
-0.61635	0.48277
0.55673	-0.66508
0.37822	-0.41000
-0.23382	0.15117
0.04670	0.78886
0.22521	0.20219
0.42922	-0.99668
0.19971	0.66132
0.30171	1.17148
-0.36133	1.24800
0.17421	0.45726
0.02119	0.10015
-0.56534	0.27871
0.22521	-1.40480
0.73524	-0.38449
0.42922	-0.18043
0.30171	-0.02739
0.12320	0.38074
0.27621	0.83988
0.83725	0.66132
-0.41233	0.50828
0.32721	-0.05289
-0.08081	0.43176
-0.64185	-0.10391
0.30171	-1.14973
0.32721	0.66132
0.60773	0.15117
0.27621	-0.10391
-0.94787	-0.30797
-0.15732	0.71234
0.78624	-0.00188
-0.31033	0.61031
1.32178	-0.07840
0.48022	1.09496
0.02119	0.58480
-0.51434	0.58480
0.55673	-0.51203
-0.10631	-0.41000
-0.69285	-0.61406
-0.00431	0.45726
0.32721	0.38074
0.40372	0.71234
-0.13181	0.76336
0.32721	0.10015
0.63323	-1.14973
0.30171	-1.71090
0.37822	-0.35899
-0.05531	1.37554
0.25071	1.70714
-0.33583	0.71234
-0.23382	0.45726
0.63323	-0.18043
0.07220	-0.81812
-0.38683	0.12566
0.17421	0.71234
-0.23382	1.45206
0.73524	-0.53754
1.72980	-0.89465
0.50573	-0.76711
-0.10631	-0.48652
-1.10088	0.86539
-1.35589	0.43176
0.30171	-0.00188
0.91375	0.25320
0.37822	0.02363
1.04126	0.48277
0.86275	0.58480
-0.02981	0.32972
-0.51434	-0.18043
-0.87136	0.22769
0.73524	0.17668
0.55673	-0.05289
-0.00431	0.61031
-0.56534	0.17668
-0.31033	0.27871
-0.97337	-0.63957
0.02119	-0.58856
1.24527	-0.20594
0.70974	0.30422
0.37822	1.17148
0.40372	0.35523
-0.08081	0.83988
0.50573	-0.18043
0.68424	0.20219
0.25071	-1.78742
-0.38683	-0.05289
-0.61635	1.35003
-0.20832	0.83988
0.25071	0.96742
0.76074	0.81437
-0.18282	0.20219
-0.79486	-0.81812
0.50573	-0.92016
0.76074	-0.61406
0.63323	0.30422
-0.10631	0.58480
0.12320	0.43176
0.42922	0.07465
-0.36133	0.15117
0.32721	-0.33348
-0.00431	0.12566
0.65874	-0.33348
0.50573	0.76336
-0.33583	0.68683
-0.43783	0.66132
-0.56534	-0.23145
0.19971	0.55929
-0.00431	0.45726
0.09770	-0.05289
1.09226	0.38074
1.14327	0.22769
0.17421	-0.15492
-0.25932	-0.48652
-0.28482	0.12566
0.60773	0.30422
0.17421	0.96742
0.04670	0.25320
-0.33583	-0.25695
-0.28482	-0.94566
-0.20832	-0.92016
0.07220	-0.63957
1.01576	0.61031
0.42922	1.01843
-0.08081	1.29902
0.02119	1.14597
0.70974	0.83988
-0.23382	1.17148
-0.28482	-0.25695
-0.00431	-0.30797
0.68424	-0.33348
0.73524	-0.94566
-0.23382	-0.58856
-0.43783	-1.17523
0.02119	0.22769
0.25071	0.35523
1.01576	0.63582
0.76074	1.12046
-1.15188	1.27351
-0.05531	0.04914
1.11776	-0.00188
0.12320	-0.10391
-0.28482	0.25320
0.19971	0.35523
0.40372	-0.38449
-0.10631	-1.48133
-0.89686	-0.43551
-0.76936	0.66132
0.81175	1.12046
1.24527	0.76336
0.55673	0.30422
0.37822	0.15117
0.12320	-0.58856
-0.59084	0.73785
-0.18282	-0.25695
0.48022	-0.25695
0.40372	-0.81812
0.50573	0.55929
0.22521	0.45726
0.02119	0.43176
-0.23382	0.99292
-0.18282	0.15117
-0.00431	0.25320
0.53123	0.27871
-0.36133	-0.10391
0.76074	0.02363
-0.15732	0.27871
-0.71835	0.55929
-0.05531	-0.46102
0.70974	-0.41000
0.78624	-0.30797
0.73524	0.61031
0.07220	0.66132
0.19971	-0.51203
1.29628	-0.30797
-0.79486	-0.02739
-0.36133	0.53379
-1.71292	0.50828
-0.79486	0.50828
0.96476	0.55929
0.93925	0.30422
1.29628	0.25320
0.45472	-0.15492
-0.13181	-0.05289
0.60773	0.02363
-0.28482	-0.48652
-0.10631	-0.43551
-0.38683	0.76336
0.32721	0.20219
0.32721	-0.02739
0.02119	-0.05289
-0.10631	-0.12942
0.27621	0.81437
0.60773	0.35523
0.12320	0.99292
0.40372	-0.38449
-0.23382	-0.30797
-0.38683	-0.71609
0.14870	1.06945
0.19971	0.96742
0.42922	1.01843
0.81175	-0.53754
0.02119	-0.38449
-0.08081	-0.12942
-0.02981	0.20219
0.42922	0.17668
-0.79486	-0.23145
0.83725	-0.18043
0.42922	1.70714
-0.13181	1.47757
-0.02981	-1.40480
0.02119	-2.55265
0.65874	-1.63437
-0.23382	1.50308
-0.59084	2.03874
0.58223	1.12046
0.83725	0.96742
0.70974	0.15117
0.83725	-0.15492
-0.51434	-0.05289
-0.76936	-0.38449
0.14870	-0.15492
-0.33583	0.04914
-0.18282	-0.05289
0.14870	0.12566
-0.43783	0.10015
-0.05531	0.45726
0.65874	-0.35899
0.40372	-0.15492
0.73524	-0.15492
0.73524	0.86539
-0.10631	0.27871
-0.31033	0.40625
0.40372	1.24800
0.02119	0.32972
-0.28482	-0.28246
0.04670	-0.43551
0.53123	0.30422
0.65874	-0.28246
0.37822	-1.88945
0.02119	-1.20074
-0.38683	0.55929
-0.46334	2.08976
-0.79486	1.93671
0.14870	1.78367
0.48022	-0.53754
0.60773	-0.25695
0.30171	0.15117
0.65874	0.12566
0.65874	-0.30797
0.93925	0.22769
0.58223	-0.58856
-0.61635	-1.20074
-0.20832	0.55929
-0.38683	0.38074
-0.25932	0.04914
0.40372	0.04914
0.22521	0.35523
0.14870	0.17668
0.19971	0.76336
0.50573	0.71234
-0.08081	0.15117
-0.71835	-1.07320
-0.43783	0.02363
0.27621	-0.05289
0.83725	0.96742
0.70974	0.96742
0.53123	-0.15492
0.63323	-0.00188
-0.43783	0.07465
0.35272	0.20219
-0.28482	0.71234
0.27621	0.45726
-0.46334	-1.09871
0.02119	-0.66508
0.32721	0.27871
0.48022	0.50828
-0.28482	0.25320
-0.59084	0.40625
0.09770	0.38074
0.19971	0.99292
0.40372	0.10015
0.12320	-0.35899
0.55673	1.12046
0.22521	-0.41000
-0.46334	-0.94566
0.63323	-2.93527
0.42922	1.01843
0.25071	1.19699
-0.20832	0.53379
0.55673	0.86539
0.09770	0.89089
-0.10631	0.20219
0.25071	-0.00188
0.04670	0.50828
-0.00431	-0.33348
-0.05531	-0.28246
0.30171	0.61031
0.45472	-1.04770
-0.43783	-0.69059
-0.36133	0.55929
-0.64185	0.35523
-0.00431	0.15117
0.83725	0.02363
0.48022	0.40625
0.32721	0.22769
0.73524	0.53379
1.42379	0.30422
-0.31033	0.71234
-0.38683	0.58480
-0.18282	0.10015
-0.00431	0.35523
0.53123	-0.20594
0.35272	-0.20594
0.02119	-0.05289
-0.13181	0.48277
0.04670	-0.20594
0.14870	0.02363
-0.43783	-1.20074
-0.31033	0.15117
-0.46334	0.61031
0.42922	0.86539
0.88825	0.91640
1.04126	0.86539
0.37822	0.10015
-1.04987	0.61031
0.09770	-1.14973
0.35272	0.07465
0.40372	-1.63437
0.04670	0.35523
0.60773	0.96742
0.55673	1.24800
0.30171	1.83468
-0.38683	-0.15492
-0.31033	-0.46102
-0.10631	-1.48133
-0.15732	0.30422
0.88825	-0.02739
1.37278	0.61031
-0.02981	0.30422
-0.56534	0.89089
-0.25932	-1.25176
0.07220	0.10015
0.19971	0.04914
-1.53441	0.58480
0.22521	0.73785
1.78081	0.76336
0.12320	-0.02739
-0.31033	-0.02739
1.29628	-0.61406
-0.00431	0.17668
0.19971	-0.76711
-0.48884	0.38074
0.42922	0.04914
-0.08081	0.61031
0.22521	0.07465
-0.08081	0.22769
0.19971	0.61031
0.35272	0.12566
0.09770	0.45726
0.19971	0.73785
-0.13181	-0.05289
-0.43783	-0.94566
0.99026	-1.20074
0.12320	0.02363
-0.43783	1.12046
0.37822	0.53379
0.09770	0.48277
0.27621	0.99292
0.68424	0.89089
0.91375	0.27871
-0.13181	-0.51203
-1.40690	-0.18043
-0.08081	-0.74160
0.37822	-0.48652
0.78624	0.04914
0.60773	0.07465
0.88825	-0.07840
-0.51434	0.10015
-0.53984	0.20219
0.30171	0.76336
-0.20832	1.06945
0.65874	1.22250
0.63323	-0.05289
-0.13181	-1.14973
-0.08081	-1.09871
0.68424	-0.69059
0.40372	0.04914
-0.56534	1.06945
-0.82036	1.17148
-0.46334	0.35523
0.42922	0.38074
0.50573	0.02363
0.81175	-0.10391
0.32721	0.15117
0.55673	0.15117
-0.08081	0.10015
0.25071	0.02363
0.60773	-0.28246
-0.38683	-0.61406
-0.15732	-0.25695
-0.31033	0.32972
-0.43783	0.76336
0.63323	0.53379
0.40372	0.17668
0.25071	0.76336
0.32721	0.81437
0.53123	-0.43551
0.07220	-0.89465
0.07220	-0.71609
-0.10631	0.15117
-0.38683	1.01843
0.27621	0.43176
0.45472	0.07465
0.37822	0.50828
0.07220	0.48277
0.14870	-0.00188
0.40372	-0.02739
-0.28482	0.07465
0.09770	0.17668
-0.23382	0.15117
-0.05531	0.20219
0.40372	0.04914
0.63323	-0.18043
0.25071	-0.25695
0.02119	-0.46102
0.02119	0.99292
0.78624	-0.81812
0.37822	0.78886
-1.10088	-1.68539
-0.00431	0.89089
0.14870	0.81437
0.96476	1.37554
0.58223	0.73785
0.35272	0.66132
0.32721	0.40625
-1.04987	0.32972
-0.36133	0.04914
0.42922	-0.74160
-0.43783	-0.92016
0.25071	-0.76711
0.12320	0.17668
1.65330	1.14597
0.76074	-0.56305
0.07220	0.55929
-0.08081	-0.48652
-0.10631	-0.53754
0.42922	1.14597
0.12320	0.38074
-0.61635	0.58480
0.35272	0.07465
-0.02981	0.22769
0.07220	0.71234
-0.51434	0.07465
0.70974	-0.25695
0.86275	0.53379
0.83725	0.02363
-0.31033	0.63582
-0.66735	0.55929
-0.10631	0.63582
0.63323	-0.15492
0.55673	-1.58336
0.07220	-0.74160
-0.10631	0.27871
0.58223	0.43176
0.86275	0.63582
0.42922	1.17148
0.53123	1.09496
-0.28482	-1.14973
-0.71835	-0.86914
0.45472	-0.35899
-0.28482	0.10015
0.07220	0.38074
-0.53984	0.58480
0.50573	0.22769
0.42922	0.61031
-1.27939	0.35523
-0.31033	0.48277
-0.48884	0.68683
0.99026	-0.41000
0.65874	0.15117
1.19427	-0.18043
1.24527	0.32972
1.24527	-0.74160
0.19971	-0.35899
-0.31033	-0.38449
-0.33583	0.30422
-0.31033	0.58480
0.14870	2.31933
-0.05531	-0.25695
-0.33583	0.02363
-0.18282	-0.58856
-0.05531	0.48277
0.50573	-0.28246
0.27621	0.15117
-0.61635	0.55929
-0.38683	-0.25695
0.17421	-0.35899
0.42922	1.42656
0.50573	-0.10391
0.81175	-0.56305
1.16877	-1.27726
0.78624	1.17148
0.02119	0.45726
-0.89686	-0.25695
-0.13181	0.32972
-0.18282	0.30422
0.35272	1.04394
0.12320	0.30422
0.32721	0.15117
0.19971	-0.23145
0.68424	0.12566
0.04670	-0.05289
0.02119	0.55929
-1.94243	0.12566
-1.04987	-0.63957
-0.13181	-0.30797
1.52579	-0.46102
0.63323	0.04914
0.22521	0.86539
1.24527	0.71234
1.14327	0.43176
0.17421	0.04914
0.27621	0.73785
-0.79486	-0.10391
-0.48884	-0.51203
0.63323	-0.35899
0.07220	0.45726
0.25071	0.35523
0.32721	-0.12942
0.25071	0.73785
-0.00431	0.61031
-0.08081	-0.20594
-0.66735	-1.09871
0.19971	0.91640
0.32721	0.15117
0.40372	-0.20594
0.40372	-0.10391
0.32721	1.24800
0.07220	1.37554
0.02119	0.22769
0.09770	-0.43551
0.32721	-0.18043
-0.05531	-0.10391
0.27621	-0.10391
0.65874	-0.20594
1.09226	0.55929
-0.51434	-0.92016
-0.69285	-0.94566
0.04670	0.40625
-0.48884	0.91640
1.11776	1.63062
0.53123	0.53379
-0.33583	-0.25695
0.50573	-0.18043
-0.08081	0.71234
-0.15732	-0.86914
0.42922	0.30422
0.53123	-0.33348
0.50573	0.71234
-0.53984	0.25320
-0.28482	0.53379
0.12320	0.55929
0.02119	0.15117
1.32178	-0.23145
0.42922	-0.74160
-1.40690	-0.35899
-1.27939	0.27871
-0.20832	0.71234
1.19427	0.96742
1.52579	-0.23145
0.63323	-0.66508
0.60773	-0.97117
0.53123	1.06945
-0.48884	1.73265
-0.89686	-0.30797
-0.33583	-0.66508
0.53123	0.15117
0.55673	0.53379
-0.51434	0.73785
0.45472	0.96742
0.12320	-1.07320
0.25071	-0.99668
0.04670	-0.46102
0.32721	1.37554
0.02119	0.45726
-0.51434	-0.41000
-0.13181	0.32972
1.16877	1.06945
0.73524	0.17668
-0.46334	-0.51203
-0.82036	-0.46102
-0.23382	-0.25695
0.63323	0.76336
-0.15732	0.66132
0.83725	0.32972
0.60773	0.07465
1.04126	0.40625
1.19427	0.30422
-0.28482	-0.20594
-0.64185	-0.33348
-0.36133	-0.71609
-0.15732	0.12566
-0.36133	0.55929
-0.82036	1.17148
0.88825	0.50828
1.32178	0.43176
0.42922	-0.25695
-0.20832	0.02363
0.30171	0.17668
-0.15732	-0.07840
0.02119	0.35523
-0.05531	-0.43551
-0.08081	0.10015
0.02119	-0.05289
0.17421	-0.33348
0.04670	1.01843
0.27621	0.17668
0.45472	0.89089
0.45472	0.15117
0.53123	0.12566
0.07220	-0.05289
-0.28482	-0.00188
-0.08081	0.20219
0.32721	-0.20594
0.63323	0.63582
-0.18282	0.58480
-0.61635	0.45726
-0.20832	-1.17523
1.01576	-0.58856
0.48022	0.15117
0.19971	1.17148
-0.25932	0.43176
0.07220	0.35523
0.73524	-0.00188
-0.64185	0.10015
0.02119	0.40625
-0.38683	-0.66508
0.12320	-1.09871
0.53123	-0.97117
0.53123	1.29902
0.88825	1.63062
-0.51434	0.35523
-0.33583	-0.02739
0.42922	-0.10391
0.70974	0.58480
0.27621	0.43176
-0.05531	0.30422
0.42922	-0.41000
-0.00431	0.10015
-0.00431	0.43176
-0.20832	0.15117
-0.74385	0.15117
-0.31033	-0.28246
0.17421	-0.25695
0.30171	0.02363
1.14327	0.15117
0.19971	0.17668
-0.28482	0.61031
-0.31033	-0.02739
-0.28482	-0.20594
0.81175	0.38074
1.04126	0.32972
0.42922	0.86539
0.48022	0.35523
0.04670	-0.35899
0.60773	-0.66508
0.55673	0.43176
0.17421	0.20219
-1.07538	0.45726
-0.64185	0.61031
-0.28482	-0.15492
-0.48884	0.25320
0.96476	0.32972
1.11776	0.04914
0.48022	-0.05289
0.35272	0.22769
0.30171	0.02363
0.09770	-0.25695
-0.76936	-0.71609
-0.51434	-1.20074
-0.20832	0.38074
1.09226	0.89089
0.45472	1.42656
0.55673	0.61031
0.17421	0.66132
0.42922	0.20219
-0.02981	-0.15492
-0.51434	0.02363
-0.51434	-0.10391
0.02119	-0.00188
0.27621	0.15117
0.35272	-0.46102
-0.08081	0.40625
0.91375	0.04914
0.14870	-0.71609
0.12320	0.12566
-0.08081	0.32972
-0.05531	0.76336
0.27621	0.55929
-0.13181	0.10015
-0.05531	0.25320
0.37822	0.17668
0.19971	0.50828
0.35272	1.06945
0.35272	0.12566
0.37822	-0.79262
-0.28482	-1.40480
-0.08081	0.48277
-0.28482	-0.10391
-0.76936	-0.20594
0.35272	-0.56305
0.58223	0.66132
0.70974	0.27871
1.44929	1.37554
-0.00431	1.27351
-0.10631	1.12046
-1.20288	0.58480
0.53123	-0.15492
-0.53984	0.04914
0.73524	-0.81812
0.68424	-1.09871
1.01576	-1.65988
0.19971	-0.46102
-0.61635	1.68163
-0.89686	1.04394
-0.33583	0.45726
0.42922	0.40625
-0.59084	0.99292
0.58223	0.27871
0.14870	0.20219
1.88281	-0.00188
0.70974	-0.25695
-0.36133	-0.58856
0.42922	-0.41000
0.02119	0.27871
-0.92237	1.35003
-0.38683	0.81437
-0.20832	-1.02219
0.86275	-0.15492
0.22521	0.73785
0.22521	0.50828
-0.13181	0.17668
-0.25932	-1.14973
0.70974	-0.53754
0.40372	0.78886
-0.10631	0.45726
0.14870	0.89089
0.14870	0.15117
0.32721	-0.51203
0.32721	0.55929
0.65874	0.15117
0.25071	0.61031
-0.02981	0.96742
-0.97337	-0.07840
-0.41233	-0.23145
0.86275	-0.35899
1.06676	0.58480
0.53123	-0.05289
0.68424	0.04914
-0.43783	-0.20594
-2.50347	-0.18043
0.17421	-0.79262
0.96476	-1.17523
1.01576	0.71234
0.70974	1.17148
0.35272	1.01843
0.70974	0.91640
0.42922	0.68683
-1.25389	0.04914
-2.01894	-0.46102
0.02119	0.07465
0.60773	-0.20594
1.11776	0.40625
1.32178	0.50828
0.53123	0.02363
-0.43783	-0.97117
0.12320	-0.76711
0.58223	0.32972
-0.15732	0.53379
0.19971	0.22769
-0.25932	0.04914
-0.13181	0.86539
0.65874	0.81437
0.09770	-0.05289
0.02119	0.15117
0.37822	-0.66508
-0.23382	-0.38449
0.45472	0.63582
-0.13181	0.71234
-0.41233	-0.10391
0.12320	1.06945
0.22521	-0.48652
0.65874	0.22769
0.48022	-0.20594
-0.15732	0.91640
-0.08081	0.55929
0.53123	-0.81812
-0.74385	-0.97117
0.88825	0.25320
0.27621	-0.00188
0.32721	0.71234
-0.00431	0.38074
0.02119	0.22769
-0.13181	-0.25695
0.68424	-0.38449
1.04126	0.32972
-1.33039	0.45726
-1.38139	0.66132
0.27621	0.68683
0.60773	-0.00188
0.35272	0.04914
0.32721	0.68683
0.88825	-0.00188
1.01576	-0.18043
-0.15732	0.55929
-0.20832	-0.43551
-0.33583	-0.20594
-0.66735	-0.71609
0.35272	0.58480
0.09770	0.35523
0.58223	1.83468
0.45472	-1.02219
0.60773	-0.18043
0.02119	-0.56305
-0.38683	0.83988
0.12320	1.12046
-0.00431	0.55929
0.25071	-1.07320
0.63323	-0.25695
0.09770	0.30422
0.09770	0.94191
0.25071	0.71234
0.27621	0.30422
-0.38683	0.15117
-0.48884	0.07465
0.50573	0.20219
0.53123	-1.14973
0.37822	-0.41000
0.42922	0.17668
-0.99887	0.02363
0.65874	0.12566
0.65874	0.63582
-0.00431	2.03874
-0.33583	-0.81812
-0.25932	-0.63957
0.45472	-0.97117
1.32178	0.58480
0.25071	0.91640
-0.76936	0.35523
-0.46334	0.32972
0.65874	0.81437
0.68424	-0.28246
-0.08081	-0.28246
-0.89686	0.30422
-0.02981	0.17668
0.65874	-0.07840
0.48022	-0.53754
0.19971	0.15117
0.12320	0.04914
0.07220	1.12046
0.19971	0.48277
0.27621	0.63582
-0.18282	0.10015
0.32721	-0.97117
-0.02981	-0.81812
0.22521	0.43176
-0.33583	0.73785
0.09770	0.53379
0.53123	0.17668
0.50573	0.10015
0.73524	0.40625
0.55673	0.71234
0.63323	0.48277
-1.15188	-0.25695
-1.55991	-0.58856
-0.74385	-0.48652
0.83725	-0.07840
1.44929	0.45726
0.93925	0.96742
-0.28482	-0.35899
0.32721	-0.25695
0.07220	0.43176
0.73524	0.71234
-0.53984	0.86539
-0.33583	-0.63957
0.53123	-1.07320
0.12320	-0.20594
-0.82036	0.43176
0.40372	0.81437
0.35272	1.01843
0.40372	0.68683
0.27621	-0.20594
-0.02981	0.10015
0.48022	-0.61406
0.53123	-0.61406
-0.25932	-0.15492
-0.87136	1.06945
-0.43783	-0.05289
0.68424	0.71234
0.88825	0.40625
0.58223	0.25320
0.25071	-0.00188
-0.36133	-0.00188
-0.48884	-0.43551
0.04670	-0.79262
0.58223	0.48277
0.30171	1.93671
0.27621	-0.61406
0.53123	-0.74160
0.37822	-1.17523
-0.36133	0.91640
0.60773	1.70714
-0.74385	0.22769
-0.41233	0.76336
0.27621	-0.35899
0.27621	0.02363
0.27621	0.10015
0.70974	0.25320
0.78624	-0.07840
0.55673	-0.66508
-0.41233	0.27871
-0.43783	0.71234
0.35272	0.38074
0.25071	0.04914
0.17421	-0.07840
0.19971	-0.12942
-0.15732	0.30422
0.27621	0.12566
-0.18282	0.20219
0.45472	0.78886
0.22521	-0.53754
-0.43783	-0.15492
-0.20832	-0.81812
0.48022	-0.02739
0.48022	0.96742
0.12320	0.96742
0.60773	0.30422
0.91375	0.10015
0.88825	0.27871
0.02119	0.20219
-0.15732	0.86539
-0.56534	0.17668
-0.87136	-0.43551
0.19971	-0.58856
0.37822	-0.41000
0.25071	0.30422
0.04670	-0.23145
0.53123	-0.20594
0.30171	0.35523
0.14870	0.66132
0.02119	0.30422
0.40372	-0.51203
0.04670	0.17668
-0.25932	0.45726
0.27621	0.53379
-0.05531	0.25320
-0.10631	-0.99668
0.22521	0.25320
1.39828	0.73785
0.40372	1.17148
-1.07538	1.09496
-0.10631	-0.05289
0.48022	-0.15492
0.70974	-0.35899
-0.97337	-0.07840
0.14870	0.15117
1.06676	-0.23145
0.35272	0.43176
-0.05531	-0.71609
0.83725	-0.12942
-0.02981	-0.25695
0.12320	0.71234
-0.08081	0.86539
0.53123	0.38074
0.02119	0.10015
0.04670	0.07465
0.22521	0.20219
-0.87136	0.20219
0.17421	0.27871
0.30171	-0.10391
0.14870	-0.07840
-0.87136	0.12566
0.17421	-0.28246
0.19971	-0.41000
0.88825	0.15117
0.50573	0.99292
0.70974	0.58480
0.68424	0.50828
-0.53984	0.10015
0.32721	0.15117
-0.02981	-0.76711
-0.31033	-0.30797
0.02119	0.32972
-0.61635	1.01843
0.22521	0.50828
0.42922	0.07465
0.58223	-0.15492
0.40372	-0.53754
0.12320	-0.00188
0.42922	0.35523
0.12320	0.66132
-0.69285	-0.33348
-0.61635	-0.35899
0.81175	-0.00188
-0.00431	0.25320
-0.25932	-0.00188
-0.10631	0.91640
0.68424	0.55929
0.19971	0.38074
-0.10631	-0.38449
0.63323	0.17668
0.40372	0.30422
0.02119	0.15117
0.53123	0.40625
0.17421	-0.33348
-0.61635	-0.53754
0.40372	-0.28246
-0.18282	0.66132
-0.28482	1.06945
0.02119	0.32972
0.12320	0.04914
0.58223	0.40625
0.50573	-0.05289
0.19971	0.10015
-0.02981	-0.58856
0.07220	0.04914
0.30171	0.30422
0.09770	0.20219
-1.04987	-0.48652
-0.08081	0.45726
0.35272	0.07465
0.60773	-0.05289
0.83725	0.50828
0.63323	-0.74160
0.30171	0.38074
-0.02981	-0.12942
-0.28482	1.37554
0.32721	1.35003
-0.00431	-0.18043
-0.25932	-1.04770
-0.20832	0.12566
0.25071	0.61031
0.63323	0.55929
0.53123	-0.10391
-0.74385	-0.61406
-0.61635	0.27871
0.35272	-0.74160
-0.10631	0.71234
0.63323	0.45726
1.11776	0.40625
1.32178	0.15117
0.07220	-0.58856
0.37822	-0.23145
0.22521	0.50828
-0.08081	0.17668
-1.27939	0.12566
-0.15732	0.55929
-0.00431	0.27871
0.17421	0.02363
0.55673	-0.25695
0.48022	0.30422
0.83725	-0.12942
-1.78942	0.17668
-1.22839	0.04914
1.14327	0.40625
1.50029	0.10015
0.55673	0.66132
-0.13181	-0.38449
0.22521	-0.25695
0.07220	-1.27726
0.12320	0.32972
