0.27621	0.25320
0.07220	0.10015
0.14870	0.22769
0.07220	0.15117
0.25071	0.15117
0.09770	0.10015
0.12320	0.15117
-0.02981	0.02363
0.12320	0.12566
0.12320	0.12566
0.25071	0.25320
0.07220	0.22769
0.17421	0.22769
-0.00431	0.12566
0.19971	-0.05289
0.42922	0.22769
0.19971	-0.05289
0.02119	0.10015
0.12320	0.30422
0.12320	0.27871
0.12320	0.15117
0.12320	0.12566
0.19971	0.07465
0.17421	0.15117
0.17421	0.20219
0.07220	0.10015
0.17421	0.10015
0.19971	0.10015
0.04670	0.04914
-0.05531	0.17668
0.25071	0.17668
0.14870	0.17668
0.19971	0.17668
0.17421	0.04914
0.14870	-0.00188
0.22521	0.53379
0.22521	0.15117
0.09770	0.10015
0.04670	0.07465
0.22521	0.12566
0.12320	0.17668
0.09770	0.10015
-0.25932	0.10015
0.30171	0.17668
0.27621	0.10015
0.12320	0.20219
0.12320	0.15117
0.07220	0.12566
0.14870	0.22769
0.12320	0.15117
0.25071	0.10015
0.12320	0.25320
0.14870	0.07465
0.22521	0.22769
0.04670	0.10015
0.19971	0.10015
0.14870	0.25320
0.14870	0.10015
0.17421	0.27871
0.07220	0.07465
0.19971	0.12566
0.09770	0.22769
0.12320	0.17668
0.12320	0.15117
0.35272	0.12566
0.14870	0.20219
0.12320	0.15117
0.09770	0.27871
0.19971	-0.02739
0.04670	0.12566
0.30171	0.22769
0.17421	0.04914
-0.20832	0.25320
0.19971	0.20219
0.22521	0.10015
0.17421	0.30422
0.32721	0.15117
0.27621	0.02363
0.12320	0.17668
0.17421	0.07465
0.17421	0.02363
-0.00431	0.12566
0.12320	0.25320
0.14870	0.30422
0.14870	0.20219
0.07220	0.15117
0.19971	0.25320
0.12320	0.22769
0.14870	0.04914
0.12320	0.02363
0.12320	0.04914
0.19971	0.15117
0.12320	0.07465
0.14870	0.20219
0.14870	0.20219
0.19971	0.10015
-0.02981	0.02363
0.09770	0.22769
0.32721	0.12566
0.04670	0.10015
-0.10631	0.20219
0.12320	0.17668
0.22521	0.12566
0.27621	0.10015
-0.00431	0.32972
0.12320	0.02363
0.12320	-0.12942
0.09770	0.10015
0.19971	0.10015
0.14870	0.10015
0.09770	0.30422
0.12320	0.30422
0.22521	0.12566
0.17421	0.17668
0.19971	0.17668
0.14870	0.17668
0.07220	0.10015
0.14870	0.22769
0.32721	0.10015
-0.13181	-0.00188
0.32721	0.15117
0.19971	0.15117
0.22521	0.15117
0.17421	0.07465
0.17421	0.20219
0.37822	0.27871
0.09770	0.04914
0.02119	-0.02739
0.04670	0.07465
0.07220	-0.07840
-0.02981	0.22769
0.12320	0.38074
0.27621	0.27871
0.12320	0.20219
0.12320	0.22769
0.19971	0.25320
0.12320	0.04914
0.19971	0.22769
0.35272	0.15117
0.09770	0.02363
0.02119	0.02363
0.14870	0.12566
0.12320	0.04914
0.17421	0.10015
0.12320	0.15117
0.02119	0.12566
0.14870	0.27871
0.30171	0.25320
0.09770	0.22769
0.12320	0.10015
0.07220	0.15117
0.19971	-0.07840
0.14870	-0.02739
0.09770	0.32972
0.12320	0.38074
0.17421	0.15117
0.27621	0.04914
0.09770	0.22769
0.09770	0.04914
0.02119	0.12566
0.12320	0.12566
0.22521	0.15117
0.30171	0.15117
0.04670	0.27871
0.19971	0.12566
0.17421	0.07465
0.07220	0.15117
0.58223	0.25320
-0.05531	0.04914
-0.18282	0.15117
-0.00431	0.17668
0.25071	0.17668
0.55673	0.25320
0.12320	0.04914
0.35272	0.10015
-0.15732	0.17668
0.17421	0.10015
0.09770	0.15117
0.09770	0.15117
0.22521	0.02363
-0.10631	0.20219
0.07220	0.27871
0.35272	0.12566
0.14870	0.22769
0.14870	0.20219
0.12320	-0.12942
0.02119	0.10015
0.19971	0.27871
0.27621	0.10015
-0.00431	0.30422
0.14870	0.22769
0.14870	0.27871
0.04670	0.04914
0.25071	0.02363
0.17421	0.04914
0.09770	-0.02739
0.02119	0.27871
0.07220	0.27871
0.25071	0.30422
0.25071	0.02363
0.12320	0.20219
0.14870	0.30422
0.27621	0.10015
0.25071	-0.02739
-0.00431	-0.02739
-0.02981	-0.25695
-0.20832	0.04914
0.27621	0.22769
0.25071	0.32972
-0.00431	0.32972
0.30171	0.27871
0.22521	0.22769
0.25071	0.04914
0.22521	0.12566
0.07220	0.12566
0.07220	0.12566
0.19971	0.15117
0.07220	0.10015
0.02119	0.20219
0.04670	0.07465
0.30171	-0.05289
0.22521	0.04914
0.19971	0.22769
0.22521	0.12566
-0.13181	0.10015
-0.08081	0.27871
0.35272	0.35523
0.17421	-0.00188
-0.00431	0.17668
0.35272	0.27871
0.22521	0.17668
0.19971	0.17668
-0.13181	0.15117
0.14870	0.02363
0.17421	0.10015
0.17421	0.22769
0.04670	-0.05289
0.22521	0.10015
0.32721	0.17668
0.12320	0.04914
-0.10631	0.15117
0.32721	0.04914
0.19971	0.30422
0.07220	0.12566
0.04670	0.20219
0.09770	0.20219
0.22521	0.07465
0.12320	0.10015
0.07220	0.20219
0.17421	0.12566
0.22521	0.07465
0.14870	0.04914
0.07220	-0.00188
0.17421	0.20219
0.07220	0.15117
0.17421	0.25320
0.22521	0.25320
0.30171	0.17668
0.04670	0.02363
0.14870	0.07465
0.07220	0.15117
-0.08081	-0.00188
0.14870	0.17668
0.35272	0.38074
0.42922	0.25320
0.42922	0.12566
-0.23382	0.20219
-0.10631	0.12566
-0.36133	-0.10391
-0.53984	0.25320
0.25071	0.38074
0.60773	0.10015
0.58223	-0.05289
0.63323	0.20219
0.40372	0.04914
0.32721	-0.05289
-0.13181	0.15117
-0.05531	0.15117
-0.18282	0.22769
-0.00431	0.30422
0.04670	0.35523
0.22521	0.25320
0.17421	0.02363
0.12320	0.07465
-0.05531	-0.10391
0.19971	-0.18043
0.19971	0.02363
0.14870	0.45726
0.22521	0.53379
0.04670	0.20219
0.14870	0.02363
0.27621	-0.15492
0.32721	0.15117
0.04670	0.32972
-0.00431	0.38074
0.35272	0.27871
0.14870	0.25320
0.02119	0.02363
0.19971	0.04914
0.04670	0.15117
0.17421	0.17668
0.04670	0.15117
0.09770	-0.30797
0.22521	-0.07840
0.25071	-0.18043
0.14870	0.15117
0.22521	0.50828
0.14870	0.30422
-0.20832	0.15117
0.14870	0.17668
0.27621	0.45726
0.73524	0.22769
0.19971	-0.00188
-0.08081	0.10015
-0.48884	0.10015
-0.05531	0.25320
0.09770	0.20219
-0.02981	0.20219
0.48022	0.35523
0.27621	-0.02739
0.22521	0.30422
0.19971	0.22769
0.19971	-0.48652
0.27621	-0.33348
0.42922	0.35523
0.22521	0.53379
-0.38683	0.20219
-0.28482	0.17668
0.14870	-0.38449
-0.13181	0.10015
0.07220	0.76336
0.30171	0.68683
0.55673	-0.89465
0.45472	-0.63957
0.42922	-0.63957
0.07220	0.15117
-0.28482	0.99292
-0.15732	0.81437
0.07220	0.76336
0.12320	0.71234
-0.08081	0.83988
-0.00431	-0.07840
0.48022	-0.86914
0.22521	0.32972
0.35272	0.22769
0.55673	-0.41000
1.09226	0.66132
0.81175	0.17668
-0.53984	-0.35899
-1.53441	-0.10391
-0.94787	-0.58856
-0.38683	-0.18043
0.76074	0.40625
0.42922	0.15117
0.81175	-0.30797
0.88825	-0.05289
0.45472	1.04394
0.30171	0.68683
-0.00431	1.01843
-0.41233	0.10015
0.04670	-0.25695
-0.10631	0.81437
-0.08081	1.17148
0.12320	-0.10391
0.91375	-0.89465
0.96476	0.27871
-0.64185	-0.18043
-1.38139	-0.25695
-1.12638	-0.15492
1.04126	-0.99668
-0.28482	0.76336
0.73524	1.17148
0.88825	-0.76711
0.76074	-0.89465
0.93925	0.32972
0.73524	-0.10391
1.32178	1.12046
0.53123	0.55929
-0.66735	0.55929
-1.07538	0.86539
-0.89686	0.35523
-0.79486	0.86539
0.40372	-0.30797
0.91375	1.04394
0.19971	-0.41000
-0.20832	-2.50164
0.40372	0.30422
0.32721	-1.25176
0.42922	-0.43551
1.04126	1.19699
-0.61635	1.88570
-1.07538	0.32972
0.22521	0.22769
0.45472	0.55929
1.75531	2.54890
0.70974	0.02363
-0.23382	-1.09871
0.25071	-1.53234
0.09770	-1.50683
-0.00431	0.61031
0.12320	0.81437
1.04126	0.71234
-0.99887	0.35523
-2.01894	0.25320
0.04670	-0.30797
0.17421	0.35523
1.16877	-0.15492
0.27621	-0.02739
0.30171	0.73785
0.93925	0.61031
1.55129	-0.33348
0.22521	-0.41000
-2.75848	-0.35899
-0.38683	0.94191
1.01576	0.12566
1.75531	0.32972
1.52579	-0.07840
-1.48340	0.07465
-2.42696	0.83988
0.73524	-0.10391
0.81175	-0.66508
1.80631	-0.41000
0.58223	0.89089
-0.10631	1.32453
0.09770	2.06425
-0.38683	0.04914
0.02119	-0.86914
1.57679	0.30422
0.40372	-2.65468
-1.96793	-0.43551
-1.78942	1.17148
-0.05531	0.94191
0.25071	0.50828
1.09226	0.07465
-0.15732	-0.15492
0.86275	0.94191
2.77537	0.40625
0.12320	1.22250
-2.09544	-0.81812
-0.56534	-1.14973
0.42922	-2.57816
1.04126	-2.32308
-0.84586	1.60511
1.06676	3.03355
0.73524	2.11527
-0.13181	0.63582
-0.02981	0.35523
1.32178	0.10015
0.27621	-0.23145
-0.00431	-0.38449
-1.50890	-0.12942
0.07220	0.04914
-0.89686	-0.35899
-3.82955	-0.46102
0.55673	-0.89465
3.28540	0.66132
4.73900	0.43176
-0.82036	0.20219
0.37822	0.86539
3.03039	0.35523
-2.78398	-0.10391
-4.28858	0.32972
1.44929	0.86539
0.65874	-0.23145
1.09226	0.22769
1.21977	0.89089
1.29628	0.38074
-0.97337	-1.63437
0.68424	0.22769
2.34184	-2.04250
-1.91693	1.06945
-3.54903	0.55929
0.30171	0.17668
-3.54903	0.63582
1.14327	1.63062
1.39828	0.83988
1.11776	-0.84363
1.34728	-1.76191
1.06676	-0.20594
2.34184	-1.32828
1.04126	1.91120
-1.20288	0.63582
-0.61635	0.20219
-1.53441	0.96742
-0.59084	1.06945
-0.05531	-0.15492
0.88825	0.10015
-1.10088	-0.15492
0.63323	0.17668
1.39828	0.25320
-0.00431	1.29902
1.75531	1.17148
1.55129	-2.04250
1.90832	-1.88945
0.53123	-1.30277
-2.63097	1.04394
-1.50890	0.00000
3.38741	0.00000
0.07220	0.00000
-5.48716	0.00000
-1.53441	2.75296
-0.28482	0.66132
3.54042	-0.41000
2.18883	-0.15492
-0.53984	0.17668
2.59686	0.43176
0.40372	0.96742
-3.52353	1.47757
1.27078	-0.35899
3.43841	-1.48133
2.18883	-0.94566
-5.79318	-0.99668
0.04670	1.17148
0.55673	1.78367
-3.39602	0.94191
0.58223	0.22769
2.77537	-0.74160
1.67880	-0.18043
1.42379	0.12566
1.75531	0.94191
-0.99887	0.10015
-0.61635	0.94191
2.80087	0.66132
0.76074	-0.97117
-7.14476	-1.50683
-0.79486	-1.45582
1.44929	1.52859
0.93925	1.37554
1.19427	2.11527
0.83725	0.66132
1.01576	1.04394
1.16877	-0.33348
-0.66735	-0.56305
0.42922	-0.86914
0.37822	-1.07320
1.09226	-0.92016
2.69887	-0.89465
-5.53816	0.10015
-1.71292	1.04394
-1.58541	1.70714
1.21977	1.86019
2.13783	0.38074
0.96476	0.07465
1.29628	0.73785
-0.25932	-0.05289
1.72980	-0.46102
-2.22295	-1.07320
-2.04444	1.45206
1.11776	-1.09871
-1.55991	-0.25695
1.62780	-0.99668
1.85731	-1.12422
-1.15188	0.10015
1.47479	1.12046
1.09226	1.88570
0.25071	1.96222
0.53123	2.54890
-0.61635	-0.41000
-1.55991	-2.01699
4.30547	-0.63957
2.69887	-2.01699
-6.83875	1.35003
-3.67654	-0.02739
0.76074	1.22250
1.50029	1.68163
-0.28482	0.50828
3.59142	-0.28246
-0.28482	-2.85874
1.24527	-0.48652
1.24527	0.68683
-0.71835	0.81437
1.21977	2.34484
0.19971	-0.74160
-2.86049	-0.30797
1.72980	0.17668
-0.61635	-0.46102
0.42922	-0.43551
0.65874	0.83988
2.16333	1.01843
0.96476	0.45726
-6.86425	0.73785
0.22521	-1.30277
0.53123	-0.81812
2.26534	-1.27726
2.26534	0.53379
2.80087	1.93671
-0.74385	1.35003
0.32721	-0.51203
0.07220	-0.12942
-3.29402	1.96222
0.68424	-0.94566
2.18883	-2.50164
1.62780	-1.17523
-0.79486	0.25320
-0.71835	2.67644
3.61693	0.50828
-3.88056	0.04914
-5.58916	0.48277
1.19427	-0.71609
2.67337	0.45726
1.01576	0.10015
1.42379	0.55929
0.93925	-0.43551
2.34184	0.63582
-1.81492	-0.74160
-2.19745	1.19699
0.86275	-2.29757
-0.13181	-0.74160
1.16877	0.61031
-0.28482	1.27351
0.27621	1.45206
-0.18282	0.61031
0.83725	0.50828
0.70974	0.10015
-0.00431	0.35523
-1.12638	-0.23145
-3.80405	-0.20594
-1.07538	-1.63437
1.06676	0.17668
2.01032	1.17148
1.42379	0.53379
0.83725	0.53379
1.11776	0.10015
-0.87136	-0.41000
1.09226	0.81437
-0.02981	-0.58856
-1.50890	-0.92016
1.50029	0.02363
0.63323	0.86539
-0.56534	0.45726
-3.52353	-0.10391
0.93925	0.99292
1.93382	-0.15492
4.35647	0.81437
-9.05739	0.91640
0.99026	0.81437
0.37822	-1.22625
1.11776	-3.29238
2.80087	-0.20594
1.55129	1.32453
0.63323	1.47757
0.83725	1.22250
1.62780	0.96742
-1.30489	0.25320
-5.30865	0.43176
-0.20832	-0.38449
1.83181	-0.18043
1.42379	-0.89465
1.57679	-0.30797
-0.38683	0.76336
-0.08081	0.20219
0.42922	0.48277
1.04126	0.27871
-1.02437	0.07465
-0.87136	0.40625
0.27621	0.40625
-0.89686	0.17668
0.14870	-1.04770
0.96476	-0.58856
0.55673	-0.05289
4.71350	0.32972
2.13783	1.37554
-10.99551	-1.22625
-0.48884	0.25320
2.44385	0.61031
2.18883	0.96742
2.36734	0.61031
0.91375	0.81437
0.17421	0.76336
-0.33583	0.61031
1.42379	-0.35899
2.57136	0.04914
-6.55823	-1.91496
1.39828	-2.29757
-0.71835	-0.61406
-1.48340	0.45726
1.24527	1.78367
1.09226	1.27351
0.93925	1.06945
2.08683	0.73785
1.62780	-0.12942
-2.88599	0.35523
-0.38683	-0.71609
0.35272	0.50828
0.70974	-0.35899
0.14870	-1.25176
0.63323	0.22769
0.04670	-0.05289
1.62780	0.89089
1.24527	0.53379
-0.84586	0.45726
-0.08081	0.73785
-1.15188	-0.51203
0.35272	0.91640
-1.61091	-0.99668
1.72980	-0.56305
0.86275	-1.43031
0.27621	0.55929
-0.08081	1.42656
-0.05531	1.17148
0.68424	1.32453
1.34728	0.86539
-0.18282	-1.07320
-3.16651	0.81437
-1.45790	-1.20074
-0.94787	-0.81812
1.88281	0.15117
1.29628	0.40625
1.06676	-0.51203
0.88825	0.04914
1.21977	1.17148
2.11233	1.17148
-1.48340	-0.23145
-3.60004	-0.66508
-1.20288	-0.48652
1.78081	-0.35899
1.06676	0.86539
0.68424	1.19699
0.48022	1.01843
0.32721	0.55929
0.02119	0.12566
1.39828	0.02363
1.42379	0.94191
-0.41233	-0.89465
-5.02813	-1.37929
0.42922	-0.20594
0.93925	-0.28246
1.06676	0.02363
0.81175	0.35523
0.48022	0.17668
0.48022	1.14597
0.93925	1.06945
0.25071	0.81437
-0.38683	-0.51203
1.78081	-1.58336
-1.81492	-0.15492
-1.17738	1.88570
0.27621	1.78367
0.48022	-0.43551
0.63323	-1.35379
0.58223	-0.99668
0.55673	-0.58856
0.17421	0.71234
0.04670	0.91640
2.44385	1.24800
1.32178	0.73785
-6.76224	-0.30797
0.65874	-0.18043
2.26534	-1.94047
0.73524	-0.51203
-0.79486	1.24800
1.16877	1.09496
0.76074	1.04394
0.93925	0.73785
-0.02981	0.86539
2.16333	0.89089
2.31634	-0.84363
-3.01350	-0.07840
-6.35421	-3.62398
0.91375	-0.53754
1.70430	1.01843
1.42379	0.76336
1.32178	1.17148
0.81175	0.81437
0.93925	0.27871
0.76074	-0.00188
-0.18282	0.15117
-2.01894	-0.05289
0.32721	-0.18043
0.68424	0.43176
0.42922	0.07465
0.86275	-0.28246
0.81175	0.02363
-0.59084	0.35523
-0.71835	0.45726
-0.05531	0.04914
0.45472	-0.18043
0.12320	-0.15492
1.04126	-1.07320
-0.46334	-0.12942
-0.74385	0.20219
0.70974	1.09496
-0.08081	0.99292
1.50029	0.38074
0.32721	1.73265
-1.50890	0.30422
1.75531	0.43176
-0.82036	-0.48652
-0.69285	-0.69059
2.13783	-0.10391
-0.23382	0.12566
1.34728	-1.53234
0.37822	-0.43551
-3.49803	-1.63437
-0.99887	0.83988
1.14327	1.70714
1.80631	0.71234
1.09226	0.61031
-0.25932	0.58480
-1.17738	0.43176
1.50029	0.15117
0.86275	-0.43551
-0.82036	0.04914
-0.23382	0.32972
-0.43783	0.81437
-0.61635	-0.00188
2.01032	0.96742
-2.01894	-1.27726
1.44929	-0.86914
0.22521	-0.02739
-0.79486	-0.84363
0.70974	1.37554
1.27078	1.78367
1.93382	-0.51203
0.19971	0.17668
-2.73298	0.17668
-0.33583	-0.00188
1.65330	1.01843
2.06133	-1.65988
-1.91693	-1.20074
0.35272	1.22250
0.19971	1.42656
-0.64185	1.24800
0.50573	-0.23145
0.65874	-0.15492
1.95932	-0.20594
-3.47253	-0.12942
1.21977	-0.92016
0.58223	-2.68019
2.11233	0.73785
0.09770	0.10015
-1.50890	0.96742
0.88825	1.24800
0.07220	1.22250
0.81175	0.86539
1.32178	0.30422
-5.07913	-0.48652
0.48022	0.38074
2.06133	0.17668
1.01576	0.43176
0.12320	-1.27726
0.25071	-0.51203
0.50573	1.35003
2.11233	0.76336
0.37822	0.38074
-1.50890	-0.76711
-0.76936	-2.39961
1.32178	0.25320
0.02119	0.96742
0.09770	0.86539
0.09770	0.07465
-0.36133	1.04394
-0.23382	0.91640
-1.17738	0.35523
1.09226	-0.15492
1.95932	-0.61406
-1.68742	-0.35899
1.62780	-0.12942
0.70974	0.76336
0.40372	0.02363
0.19971	-0.15492
-1.68742	1.78367
0.63323	-0.18043
0.22521	-0.33348
-0.48884	-0.30797
0.04670	-0.56305
0.17421	0.63582
-0.18282	0.32972
0.70974	1.04394
1.14327	-0.33348
2.77537	0.15117
-4.08457	0.15117
-3.09000	0.20219
0.35272	-0.51203
2.06133	-0.18043
1.83181	0.17668
1.52579	0.86539
1.65330	0.96742
1.50029	0.76336
-1.89143	-0.28246
-2.37596	-0.15492
0.55673	-1.68539
0.42922	-0.25695
0.32721	1.01843
0.40372	1.17148
0.09770	0.53379
-0.89686	0.50828
0.40372	-0.38449
2.46935	-0.53754
-3.65104	0.32972
-1.27939	0.17668
1.42379	0.15117
0.42922	0.12566
0.91375	1.42656
1.04126	0.22769
0.68424	-0.56305
0.50573	-0.66508
0.48022	-1.09871
-0.08081	-0.00188
0.50573	1.35003
1.21977	0.17668
-3.09000	1.14597
-3.16651	-0.38449
0.19971	0.71234
2.23984	-0.66508
1.72980	-0.00188
2.01032	0.89089
-3.14101	0.04914
0.25071	0.55929
0.14870	-0.07840
0.99026	0.12566
1.24527	0.55929
0.40372	-0.18043
-0.28482	-0.58856
-1.02437	-0.48652
-0.05531	-0.46102
0.27621	0.32972
1.34728	0.15117
-0.74385	1.01843
-1.43240	0.30422
0.76074	-0.23145
0.91375	0.81437
-0.23382	0.73785
0.88825	0.38074
0.99026	0.32972
0.50573	-0.41000
-0.46334	-0.69059
0.09770	0.22769
0.37822	0.22769
-1.12638	0.30422
0.07220	-0.33348
0.17421	0.58480
0.68424	0.40625
0.25071	0.04914
0.25071	1.14597
-2.55447	-0.81812
1.06676	-0.61406
0.17421	1.06945
0.83725	0.15117
1.21977	-0.38449
-0.20832	-0.20594
-2.83499	-0.30797
1.98482	0.12566
1.65330	1.01843
-1.35589	0.63582
-0.71835	-0.94566
1.27078	-1.12422
0.76074	-0.30797
-0.74385	0.73785
-0.48884	1.35003
0.27621	0.71234
0.50573	0.25320
0.78624	0.35523
-0.92237	0.81437
0.70974	0.63582
-1.25389	0.53379
0.14870	-0.63957
1.32178	-0.48652
1.70430	-0.43551
-2.06994	-0.35899
0.50573	0.27871
-0.69285	-0.97117
-2.19745	0.12566
1.29628	0.50828
1.04126	0.71234
0.81175	0.78886
0.91375	0.73785
0.50573	-0.18043
0.30171	-0.25695
-0.74385	-0.35899
-0.13181	-0.12942
-0.31033	0.66132
0.07220	1.27351
1.34728	0.10015
-2.35046	0.40625
0.73524	-2.75671
0.76074	-0.61406
-0.02981	1.47757
0.27621	1.57960
0.25071	1.19699
0.42922	0.45726
0.48022	0.25320
-1.22839	0.30422
0.19971	0.38074
1.04126	-0.61406
-0.20832	-1.22625
-0.20832	0.63582
0.60773	0.04914
0.88825	0.12566
0.17421	-1.40480
-2.78398	-1.78742
-0.02981	0.25320
0.63323	1.47757
0.93925	1.24800
1.06676	1.27351
-0.08081	0.07465
2.29084	-0.43551
-0.51434	0.40625
-1.15188	-0.10391
-0.20832	0.20219
0.30171	0.89089
0.14870	0.83988
0.93925	0.25320
-0.18282	-0.15492
-0.66735	-0.30797
-0.74385	-0.18043
-0.33583	0.04914
0.27621	-0.51203
0.58223	-0.00188
0.04670	-0.20594
1.11776	0.83988
0.91375	0.35523
1.44929	-1.22625
-0.20832	0.25320
-0.00431	0.63582
-0.23382	1.06945
0.32721	0.50828
0.04670	1.80917
0.27621	-0.46102
-2.80949	0.32972
1.01576	-1.17523
0.68424	-0.99668
1.01576	-0.12942
0.27621	0.07465
-0.05531	0.38074
0.12320	1.52859
0.02119	0.15117
0.12320	-0.25695
-0.10631	-0.74160
0.53123	0.83988
1.09226	0.81437
-0.61635	0.25320
-1.53441	0.20219
0.53123	0.15117
-0.41233	-0.05289
0.88825	0.22769
1.11776	-0.46102
1.16877	-0.89465
-0.53984	0.27871
-1.15188	0.40625
0.04670	0.61031
1.44929	0.32972
-0.79486	0.07465
0.91375	0.17668
0.50573	-0.07840
-0.69285	0.15117
2.34184	0.25320
-1.68742	0.68683
-3.37052	0.22769
0.55673	0.10015
0.76074	-0.48652
1.60230	-0.30797
0.60773	0.12566
0.37822	-0.05289
0.42922	-0.56305
0.37822	0.73785
-0.56534	1.47757
0.48022	0.53379
1.65330	0.15117
-0.92237	0.20219
-0.59084	0.30422
-0.74385	0.22769
-0.79486	-2.42511
0.42922	-0.18043
1.01576	0.66132
0.04670	0.55929
0.45472	0.15117
0.09770	-0.05289
0.09770	0.53379
1.83181	1.63062
0.53123	-0.15492
-2.42696	-0.00188
-1.20288	-0.63957
0.37822	-0.69059
0.35272	-0.18043
0.68424	0.81437
0.88825	0.76336
1.01576	1.01843
0.37822	0.38074
0.12320	1.14597
-0.48884	0.02363
0.76074	0.48277
0.86275	-1.55785
-1.76392	-2.14453
-1.58541	-0.53754
0.58223	0.07465
0.12320	1.12046
0.53123	1.12046
1.39828	0.96742
0.53123	0.45726
0.25071	0.15117
-2.09544	0.30422
-0.43783	0.73785
1.44929	0.30422
1.04126	-0.25695
0.22521	-0.10391
0.04670	-0.48652
0.50573	-0.05289
0.19971	-0.33348
0.22521	-0.35899
-0.41233	0.83988
-0.15732	0.61031
0.81175	0.66132
0.25071	-0.92016
-0.94787	-0.92016
-0.71835	-0.18043
0.32721	1.86019
0.93925	2.11527
1.24527	0.81437
-0.36133	-1.45582
-1.78942	-0.71609
0.73524	-1.37929
1.24527	-0.05289
0.40372	0.30422
-0.33583	1.17148
0.40372	0.86539
0.19971	0.43176
-0.13181	0.40625
-0.36133	-0.02739
0.32721	0.10015
1.42379	0.63582
-0.99887	0.61031
-0.43783	-1.45582
0.53123	-0.20594
0.88825	-1.20074
-0.79486	-0.86914
-1.12638	0.50828
1.06676	0.86539
0.07220	0.83988
1.11776	0.58480
-0.82036	0.32972
0.65874	0.66132
0.45472	-0.00188
1.29628	0.45726
0.04670	1.27351
-1.02437	-0.63957
-1.86593	-1.25176
-0.79486	-0.84363
0.88825	-0.48652
0.81175	0.94191
0.19971	1.52859
0.93925	1.17148
0.14870	-0.07840
0.58223	0.10015
0.91375	-0.00188
-1.71292	0.53379
0.42922	-0.51203
0.45472	0.43176
0.91375	-0.94566
-0.25932	-0.69059
-0.05531	0.12566
0.12320	0.58480
0.04670	0.20219
-0.38683	0.73785
0.37822	-0.53754
0.50573	-1.07320
0.17421	0.55929
0.86275	1.83468
0.07220	1.37554
-0.84586	0.17668
-0.00431	-0.23145
-0.28482	-0.07840
-0.25932	-0.79262
0.19971	-0.12942
2.69887	-0.28246
-1.27939	-0.15492
-2.14644	0.76336
0.02119	0.81437
2.49485	-0.23145
0.76074	0.17668
1.34728	-1.35379
0.17421	0.53379
-1.02437	0.99292
1.01576	0.91640
0.02119	-0.30797
-0.33583	-0.07840
-0.00431	0.45726
-0.23382	0.40625
-0.18282	-0.12942
0.09770	0.10015
0.93925	0.12566
0.04670	0.43176
-2.93700	0.12566
-1.91693	-1.32828
1.65330	-0.51203
0.25071	0.22769
1.29628	-0.20594
1.29628	0.55929
0.04670	1.27351
0.58223	0.35523
0.63323	-0.02739
-0.56534	-0.84363
-0.10631	0.73785
0.50573	1.73265
0.12320	0.81437
0.42922	-0.18043
0.07220	-0.48652
-0.69285	-0.99668
0.55673	0.76336
0.83725	0.76336
-0.82036	-0.20594
-1.35589	-0.20594
1.34728	0.25320
0.50573	0.30422
0.35272	-0.30797
-0.05531	-0.18043
0.53123	-0.20594
-0.79486	-0.30797
-2.19745	0.55929
1.83181	0.58480
1.55129	0.17668
0.12320	0.30422
0.22521	-0.05289
1.09226	0.04914
0.45472	0.66132
-0.89686	0.07465
-0.66735	-0.28246
-0.87136	-0.38449
0.93925	0.83988
0.70974	1.63062
-0.66735	0.53379
0.48022	-0.63957
0.76074	-0.81812
-1.38139	-0.63957
0.19971	0.04914
-0.00431	0.04914
0.73524	0.78886
0.40372	0.35523
-0.36133	0.61031
0.70974	0.68683
0.70974	0.96742
1.16877	-0.25695
-0.18282	-0.86914
-0.15732	-0.38449
-0.71835	-1.50683
-0.61635	-0.07840
-0.18282	1.29902
0.78624	1.37554
0.37822	0.63582
1.06676	-0.02739
0.30171	-0.89465
-0.79486	-0.02739
0.40372	0.55929
0.22521	1.01843
-0.48884	-0.30797
-1.30489	-0.35899
0.68424	-0.74160
1.27078	0.50828
-0.51434	0.55929
0.60773	0.43176
0.04670	0.35523
0.86275	0.63582
0.48022	0.15117
-0.28482	-0.00188
-0.23382	0.10015
0.07220	-0.28246
1.14327	-0.18043
-0.66735	-0.20594
-0.79486	-0.41000
0.58223	0.17668
0.58223	0.45726
-0.59084	0.10015
1.55129	0.22769
-0.69285	1.37554
0.83725	0.30422
0.32721	0.30422
0.40372	-1.04770
-1.35589	-1.27726
-0.28482	0.71234
0.09770	0.71234
-0.71835	0.55929
1.32178	0.25320
2.21434	1.04394
-0.99887	0.20219
-1.91693	0.20219
-0.87136	-0.76711
0.55673	-0.23145
1.34728	0.32972
1.55129	0.15117
-0.28482	-0.05289
-0.23382	-0.20594
0.70974	-0.10391
1.83181	0.15117
1.60230	0.12566
-2.22295	0.61031
-2.17195	0.96742
-3.77855	0.07465
-0.13181	-0.07840
1.14327	0.68683
2.80087	0.48277
3.43841	-0.43551
3.00489	-0.20594
-5.53816	-0.48652
-1.50890	0.22769
1.09226	0.10015
0.50573	0.30422
1.95932	0.73785
1.55129	0.07465
-3.11551	0.15117
0.50573	-0.23145
1.62780	-0.12942
1.21977	-0.46102
-1.33039	0.25320
-0.61635	0.45726
0.88825	1.57960
1.47479	0.53379
-1.40690	-0.48652
-0.13181	-0.86914
1.52579	-0.28246
-1.02437	-0.30797
-1.71292	0.76336
0.07220	1.22250
0.55673	1.01843
0.73524	0.66132
1.29628	-0.05289
0.81175	-1.17523
0.86275	-0.43551
0.73524	-0.10391
-1.12638	-0.00188
0.17421	-0.38449
-0.64185	-0.07840
-0.02981	0.35523
1.50029	0.58480
-0.84586	1.45206
-0.74385	0.86539
-0.00431	0.25320
-1.48340	-1.32828
1.01576	-1.07320
0.68424	0.07465
0.53123	1.52859
1.06676	0.68683
0.60773	-0.38449
0.22521	-0.94566
1.16877	-0.15492
-1.15188	-0.12942
-0.69285	1.04394
0.55673	0.96742
0.83725	-0.00188
-1.10088	0.27871
-0.99887	-0.38449
0.25071	-0.30797
1.24527	0.40625
-1.43240	0.48277
0.96476	0.76336
3.38741	0.71234
-0.33583	-0.20594
-2.52897	-0.23145
1.04126	0.32972
-0.13181	-0.48652
0.40372	-1.02219
0.07220	-0.15492
1.60230	0.15117
0.04670	0.48277
0.09770	0.91640
-0.20832	0.71234
-1.38139	0.07465
-0.18282	0.07465
0.19971	0.48277
-0.20832	-0.10391
2.85188	-0.05289
0.22521	0.10015
-1.40690	1.42656
-2.24845	-0.15492
-0.38683	-1.37929
1.32178	-0.46102
1.29628	-1.22625
1.47479	0.63582
0.19971	0.89089
-0.08081	0.94191
-0.61635	1.17148
0.02119	0.45726
-0.74385	-0.35899
0.53123	0.35523
0.14870	-0.25695
0.30171	0.04914
0.42922	0.02363
0.22521	0.02363
1.14327	-0.18043
-1.15188	-0.35899
-3.19201	0.76336
0.25071	0.43176
1.75531	0.96742
0.27621	-1.12422
0.40372	-0.05289
1.55129	0.53379
0.35272	0.43176
-0.23382	0.73785
1.01576	0.55929
-0.59084	-0.28246
-1.61091	-0.58856
0.48022	0.58480
-0.10631	0.04914
0.37822	-0.23145
0.48022	0.04914
0.99026	-0.25695
-0.20832	0.38074
0.45472	0.99292
-0.02981	0.38074
0.70974	0.53379
-1.91693	-0.30797
-0.00431	-0.35899
-0.59084	0.20219
0.78624	0.35523
1.24527	0.15117
1.04126	0.35523
-0.76936	0.55929
-0.08081	-0.05289
0.40372	-0.07840
0.68424	-0.20594
1.55129	-0.12942
-0.41233	0.22769
-0.66735	-0.38449
-0.23382	-0.15492
0.07220	0.55929
0.19971	0.61031
0.40372	0.17668
0.37822	0.35523
-0.97337	0.38074
-0.00431	0.10015
0.55673	0.04914
-0.00431	-0.33348
0.48022	-0.20594
0.86275	0.45726
1.57679	0.63582
-0.41233	1.01843
-3.54903	0.53379
1.60230	-0.15492
1.32178	-0.79262
0.48022	-0.89465
0.58223	0.30422
0.32721	0.48277
0.73524	0.71234
-0.36133	0.27871
-0.51434	0.30422
-0.28482	0.15117
1.09226	0.38074
0.42922	0.48277
-1.02437	-0.02739
-0.36133	-0.51203
1.75531	-0.97117
-0.99887	0.55929
-1.33039	-0.30797
0.73524	0.07465
1.19427	0.66132
0.73524	0.71234
0.40372	0.66132
-0.00431	0.63582
-0.02981	0.22769
1.06676	0.07465
0.42922	0.10015
-0.02981	0.86539
-1.45790	-0.33348
-0.51434	-0.30797
-0.13181	-0.56305
-0.10631	-0.92016
0.99026	0.27871
0.78624	-0.43551
0.45472	0.61031
0.50573	1.09496
0.17421	1.09496
1.01576	0.02363
0.19971	0.55929
-2.40146	0.25320
-0.08081	0.15117
1.09226	0.27871
0.35272	-0.69059
0.42922	-0.07840
0.42922	-0.61406
0.14870	0.02363
0.76074	-0.05289
0.17421	0.20219
-0.59084	0.89089
-1.68742	0.58480
0.25071	-0.25695
1.14327	0.12566
0.58223	-0.18043
0.70974	0.63582
-0.41233	0.68683
0.22521	-0.18043
-0.92237	0.45726
0.93925	0.27871
0.58223	0.15117
0.93925	-1.20074
-0.82036	-0.00188
-0.38683	-0.00188
0.60773	0.40625
0.76074	0.15117
-0.00431	-0.02739
-0.92237	0.10015
-0.59084	0.45726
0.63323	0.66132
1.06676	0.45726
0.68424	0.12566
2.36734	0.63582
-0.79486	0.27871
-6.55823	-0.05289
1.09226	-0.25695
1.01576	-0.33348
2.11233	0.20219
1.67880	0.12566
-0.10631	-0.05289
0.42922	-0.58856
0.48022	0.40625
-0.18282	0.83988
-0.00431	0.83988
-0.33583	-0.56305
-0.28482	0.30422
-0.05531	0.32972
0.40372	0.25320
-0.02981	-0.46102
-0.08081	-0.28246
-0.36133	-0.10391
0.25071	0.99292
0.40372	0.48277
0.12320	0.15117
0.14870	0.45726
0.17421	0.48277
1.09226	0.10015
1.06676	-0.92016
-0.82036	-0.30797
-1.35589	0.78886
-0.15732	0.40625
1.11776	0.40625
1.24527	-0.69059
0.27621	0.50828
0.58223	0.73785
-2.63097	0.20219
0.73524	0.58480
1.50029	-0.20594
0.68424	-0.63957
1.21977	-0.81812
-0.59084	-0.63957
0.68424	0.81437
-0.15732	0.94191
-1.07538	0.68683
-0.82036	0.76336
0.81175	0.38074
0.04670	0.17668
0.53123	-0.15492
0.70974	-0.43551
0.42922	-0.18043
-0.25932	0.04914
0.73524	0.32972
0.50573	0.27871
-1.15188	0.22769
1.57679	0.22769
-1.68742	-0.07840
-1.48340	0.10015
0.37822	0.27871
1.57679	0.53379
1.57679	0.86539
0.50573	-0.71609
-0.02981	-0.20594
0.19971	-1.99148
0.02119	-0.18043
0.07220	0.91640
-0.28482	1.32453
0.42922	1.32453
-0.59084	1.78367
-0.18282	0.04914
-0.71835	-0.51203
1.85731	-1.22625
-0.38683	-2.29757
-1.63641	0.50828
0.93925	0.96742
1.42379	0.96742
-2.75848	0.27871
0.93925	0.04914
-0.20832	0.53379
-0.18282	0.30422
2.34184	0.12566
1.70430	-0.23145
0.99026	0.10015
0.04670	0.10015
0.32721	-0.07840
-2.12094	0.07465
-0.74385	-0.61406
0.04670	0.15117
1.37278	0.02363
-1.61091	0.71234
-0.18282	1.29902
1.47479	1.06945
-0.08081	-0.33348
0.78624	-0.46102
1.29628	0.12566
-1.30489	0.30422
-0.87136	-0.05289
1.80631	-0.56305
0.78624	0.15117
0.09770	0.25320
-0.10631	0.20219
-0.13181	0.25320
0.09770	0.48277
-0.48884	-0.53754
-0.71835	0.53379
0.07220	0.20219
0.14870	0.15117
0.83725	0.45726
-0.00431	0.35523
-0.53984	0.43176
0.78624	0.12566
0.63323	-0.25695
-0.41233	-0.25695
-0.15732	-1.02219
0.02119	-0.33348
0.65874	0.38074
0.83725	0.94191
1.24527	0.61031
-1.17738	0.27871
-0.48884	0.43176
0.22521	0.20219
1.44929	0.15117
-0.10631	-0.30797
-1.61091	-0.25695
-0.71835	-0.05289
1.04126	0.55929
0.73524	0.73785
0.53123	-0.25695
-0.05531	-1.07320
0.53123	0.15117
-0.33583	0.61031
0.22521	0.55929
0.88825	0.40625
0.81175	-0.61406
0.02119	0.12566
-1.43240	-0.07840
-0.48884	-0.00188
0.83725	0.55929
-0.66735	0.40625
1.88281	0.30422
0.09770	0.45726
-2.47797	0.76336
1.14327	0.73785
0.83725	-0.10391
0.88825	-0.23145
0.22521	-0.76711
-0.31033	0.48277
0.83725	0.40625
1.29628	0.38074
-0.79486	0.73785
0.25071	-0.46102
-0.87136	-0.28246
-0.18282	-0.66508
-0.51434	0.35523
0.45472	0.48277
0.78624	0.61031
-0.36133	0.50828
-1.02437	-0.33348
0.60773	-0.41000
0.30171	-0.71609
0.40372	1.19699
1.42379	0.96742
-0.02981	0.58480
-0.31033	-0.10391
0.40372	-0.23145
0.40372	0.48277
0.07220	-0.00188
0.22521	0.15117
-0.10631	-0.07840
-0.05531	-0.00188
0.27621	-0.00188
0.22521	-0.05289
0.09770	0.17668
-0.18282	0.22769
-1.33039	0.04914
0.81175	0.40625
0.76074	0.22769
-0.08081	-0.05289
0.50573	0.02363
-0.00431	0.45726
0.42922	0.15117
-0.15732	0.07465
0.76074	0.25320
0.12320	-0.18043
1.14327	0.35523
0.25071	0.43176
-3.26852	1.06945
-1.53441	-0.25695
1.14327	-0.30797
1.32178	-0.07840
0.40372	-0.94566
0.30171	-0.35899
0.45472	0.66132
0.27621	0.96742
-0.00431	0.43176
0.73524	0.45726
0.60773	0.04914
-1.76392	-1.02219
0.02119	0.25320
0.42922	0.99292
-0.87136	-0.33348
0.42922	0.20219
0.45472	0.50828
0.65874	-0.23145
0.30171	0.17668
0.45472	-0.00188
0.25071	0.48277
-0.51434	-0.05289
1.21977	0.12566
0.76074	-0.63957
-0.59084	-0.30797
-0.20832	0.38074
-0.89686	0.53379
-0.23382	-0.10391
0.22521	0.32972
0.78624	0.10015
1.21977	0.61031
0.48022	0.27871
0.09770	0.02363
-0.13181	0.40625
0.27621	0.30422
-0.51434	0.02363
-0.28482	0.27871
0.27621	0.10015
0.76074	0.86539
-1.20288	-0.28246
0.30171	-0.76711
1.04126	-0.56305
0.04670	-0.30797
-0.02981	0.76336
0.22521	0.76336
0.27621	0.55929
0.68424	0.12566
0.58223	0.12566
0.02119	-0.28246
-0.20832	-0.69059
-0.33583	0.32972
1.32178	0.55929
-3.03900	0.66132
0.09770	0.40625
1.34728	0.35523
0.93925	0.38074
0.48022	-0.00188
1.21977	0.12566
0.55673	0.15117
-0.94787	-0.66508
0.04670	-0.28246
1.09226	0.45726
1.19427	-0.05289
-2.45246	-0.15492
-0.94787	-0.15492
0.04670	-0.05289
0.73524	0.43176
0.58223	0.91640
0.37822	0.68683
0.42922	0.63582
0.48022	0.48277
1.11776	0.20219
-0.89686	-0.23145
-1.55991	-0.25695
0.02119	-0.00188
0.91375	-0.02739
0.93925	0.15117
0.81175	0.20219
0.73524	-0.38449
-0.53984	-0.18043
-1.50890	-0.15492
1.11776	0.45726
0.48022	0.30422
0.07220	0.63582
-0.10631	0.45726
0.19971	0.32972
0.09770	-0.12942
0.02119	0.02363
0.42922	-0.10391
0.27621	-0.30797
-0.28482	0.25320
-0.02981	-0.63957
-0.10631	0.12566
0.53123	0.53379
0.30171	1.12046
1.04126	0.27871
0.19971	-0.15492
-0.08081	0.68683
0.68424	-0.00188
-1.25389	0.12566
0.14870	0.35523
0.42922	0.27871
0.37822	-0.81812
0.76074	-0.58856
0.37822	0.07465
1.29628	0.07465
-0.82036	0.10015
-1.81492	0.22769
0.42922	0.58480
0.81175	0.61031
0.78624	0.10015
0.09770	-0.23145
-0.46334	-0.20594
-0.25932	-0.46102
0.53123	0.15117
0.70974	1.06945
-1.04987	0.76336
-0.69285	0.38074
0.70974	0.25320
0.60773	-1.58336
0.30171	0.04914
0.04670	0.81437
1.27078	0.61031
-0.28482	0.45726
-1.33039	-0.20594
1.75531	0.10015
1.16877	0.40625
-0.59084	-0.23145
-0.28482	-0.28246
-1.45790	-0.10391
0.60773	0.55929
1.32178	0.35523
0.60773	0.27871
0.22521	0.35523
-0.02981	0.12566
0.17421	0.17668
0.45472	0.10015
0.04670	-0.56305
-0.38683	-0.63957
-0.25932	0.38074
1.06676	0.17668
0.99026	-0.02739
-1.89143	0.68683
-0.79486	0.73785
0.50573	0.61031
1.44929	0.12566
0.12320	0.10015
0.12320	0.17668
1.04126	0.48277
0.30171	-0.33348
0.55673	-0.41000
0.45472	-0.46102
0.88825	-0.12942
-1.12638	0.58480
-1.66191	0.40625
-0.05531	-0.02739
0.53123	0.22769
0.50573	0.71234
0.07220	0.15117
1.78081	-0.46102
0.19971	-0.10391
-0.64185	-1.20074
-0.28482	0.71234
-1.71292	0.89089
0.78624	1.04394
-0.31033	0.76336
0.78624	0.32972
0.42922	-0.05289
0.99026	-0.25695
0.22521	-0.33348
-0.99887	0.15117
-0.53984	0.35523
0.81175	0.15117
1.01576	0.04914
2.01032	-0.53754
-2.98800	-0.86914
-1.45790	0.04914
1.09226	0.78886
1.90832	0.50828
1.29628	0.78886
-0.18282	0.30422
-0.25932	-0.28246
-1.17738	0.12566
0.40372	-0.12942
0.55673	0.53379
0.35272	0.25320
-0.00431	0.40625
-0.20832	0.27871
0.73524	0.25320
1.60230	-0.56305
-1.84042	0.04914
-1.04987	-1.07320
1.62780	0.07465
-0.97337	0.71234
0.73524	0.66132
0.55673	0.58480
0.60773	-0.10391
0.73524	-0.02739
-0.10631	0.32972
0.58223	0.45726
0.70974	0.04914
-0.51434	0.02363
-1.66191	-0.00188
-1.10088	0.27871
0.09770	0.45726
1.19427	-0.12942
-0.28482	-0.18043
0.37822	0.48277
0.65874	0.73785
-0.46334	-0.28246
2.08683	0.45726
-1.04987	-0.92016
-0.84586	-0.12942
0.09770	0.55929
-0.31033	0.71234
1.04126	0.71234
0.42922	0.10015
-0.18282	0.07465
0.78624	0.10015
-1.22839	-0.25695
-0.59084	-0.25695
0.78624	0.07465
0.48022	0.10015
0.91375	0.35523
0.27621	0.07465
-0.71835	-0.10391
-0.08081	0.10015
1.32178	0.40625
-0.66735	0.22769
-2.04444	0.55929
0.91375	-0.89465
-0.20832	0.30422
0.96476	0.40625
0.99026	0.99292
0.70974	-0.53754
-0.08081	0.15117
-0.00431	0.38074
0.35272	0.38074
0.25071	0.40625
-1.35589	0.20219
0.42922	-0.20594
0.53123	-0.15492
1.50029	0.25320
-0.66735	0.35523
-2.19745	-0.41000
-0.10631	0.25320
1.34728	-0.15492
0.91375	-0.20594
0.65874	0.45726
1.60230	0.66132
0.53123	0.76336
-1.73842	-0.05289
-0.51434	-0.30797
-0.18282	-0.07840
0.22521	-0.61406
1.60230	-0.00188
-0.13181	0.86539
-0.48884	1.01843
0.60773	-0.15492
0.22521	-0.12942
-0.48884	0.50828
-0.33583	0.02363
0.83725	0.02363
0.02119	0.35523
0.02119	-0.07840
0.17421	0.20219
0.53123	0.20219
0.04670	0.38074
0.83725	-0.46102
0.53123	-0.28246
-1.10088	0.20219
-1.40690	0.61031
0.60773	-0.05289
0.68424	0.25320
0.78624	0.12566
0.81175	-0.00188
0.22521	0.20219
-0.02981	0.17668
0.22521	0.30422
0.17421	0.32972
0.04670	-0.38449
0.70974	0.35523
-0.92237	-0.05289
-2.14644	0.12566
-0.23382	0.35523
0.76074	0.45726
0.40372	0.27871
1.24527	0.04914
0.04670	0.20219
0.50573	0.10015
0.60773	-0.20594
0.76074	-0.15492
-0.33583	0.10015
-0.94787	0.58480
0.25071	0.66132
1.09226	0.22769
0.25071	0.15117
0.07220	-0.28246
0.27621	0.10015
-0.23382	0.15117
-0.23382	0.15117
-0.92237	0.17668
0.30171	0.40625
0.40372	0.38074
0.78624	-0.25695
0.42922	-0.20594
0.48022	-0.10391
0.22521	0.22769
-0.99887	0.66132
1.01576	0.68683
1.65330	0.50828
-1.22839	-0.46102
-1.55991	-0.25695
0.45472	0.48277
1.39828	0.35523
0.25071	-0.18043
1.11776	-0.28246
-0.38683	-0.02739
-0.82036	0.48277
0.04670	0.55929
0.17421	0.12566
0.42922	0.45726
-0.20832	-0.18043
0.17421	-0.18043
0.30171	-0.07840
0.27621	0.25320
0.27621	0.17668
0.73524	0.45726
-2.19745	-0.23145
2.67337	0.55929
-0.48884	0.07465
-2.55447	0.61031
0.81175	-0.23145
0.40372	-0.69059
0.99026	0.50828
0.68424	0.25320
0.63323	0.15117
1.37278	0.10015
-1.02437	0.10015
-1.73842	-0.15492
0.30171	0.02363
0.27621	0.30422
0.65874	0.83988
0.73524	-0.12942
0.02119	0.10015
-0.76936	0.30422
0.42922	-0.15492
0.40372	0.12566
0.27621	-0.35899
0.35272	0.04914
-0.18282	0.68683
-0.18282	0.43176
0.35272	-0.15492
0.19971	0.32972
0.40372	0.25320
1.27078	0.40625
-0.41233	0.22769
-1.27939	-0.05289
0.12320	0.10015
0.65874	0.10015
1.85731	0.40625
-0.71835	0.10015
-1.35589	-0.25695
0.65874	-0.79262
-0.13181	-0.46102
1.37278	0.25320
0.25071	-0.20594
0.37822	0.76336
0.32721	1.04394
0.12320	1.12046
0.07220	0.32972
0.58223	0.30422
0.65874	0.20219
-1.04987	-0.25695
-0.59084	-0.05289
-0.10631	-0.48652
0.30171	-0.25695
0.27621	-0.12942
0.27621	0.50828
0.17421	0.32972
0.30171	0.35523
0.55673	-0.48652
0.19971	0.22769
-0.69285	0.55929
1.04126	0.66132
-0.36133	-0.33348
-0.64185	-0.02739
0.93925	0.50828
0.17421	0.17668
0.70974	-0.20594
0.48022	-0.53754
-1.12638	-0.15492
1.75531	0.71234
0.22521	0.86539
-2.86049	0.53379
0.88825	-0.25695
0.53123	0.10015
0.22521	0.02363
1.27078	-0.35899
1.01576	-0.12942
0.35272	0.53379
-0.10631	0.73785
-0.31033	0.61031
-0.10631	0.30422
0.32721	0.30422
-0.79486	-0.02739
-0.48884	-0.23145
0.40372	-0.12942
0.53123	0.10015
0.50573	-0.15492
1.85731	0.15117
-2.14644	0.04914
-1.25389	0.02363
1.29628	0.12566
-0.38683	0.30422
0.50573	0.35523
1.24527	0.20219
0.27621	0.20219
-0.02981	0.58480
0.42922	-0.00188
0.07220	0.10015
0.02119	-0.23145
0.48022	-0.30797
0.45472	-0.23145
-0.69285	-0.38449
0.04670	0.76336
-0.38683	0.61031
0.53123	1.14597
-0.15732	1.19699
0.58223	0.32972
0.50573	-0.10391
0.12320	-0.61406
0.09770	-0.35899
-0.05531	0.40625
-0.05531	-0.35899
-0.25932	-0.20594
0.83725	-0.05289
0.68424	-0.76711
-0.74385	0.30422
-0.56534	0.45726
1.04126	0.48277
0.40372	0.48277
-0.38683	0.20219
-0.31033	0.53379
-0.20832	0.53379
2.13783	-0.05289
-0.00431	-0.30797
-0.94787	-0.63957
0.78624	-0.07840
0.58223	0.50828
0.48022	0.55929
0.35272	0.63582
-0.20832	0.38074
0.02119	-0.00188
-0.08081	0.04914
-0.66735	-0.02739
0.12320	-0.05289
0.42922	0.15117
-0.10631	-0.15492
0.99026	-0.30797
-3.01350	0.35523
0.45472	0.61031
1.29628	0.02363
0.42922	-0.48652
0.48022	0.12566
0.76074	0.07465
0.37822	0.27871
-0.02981	0.61031
0.30171	0.76336
-0.59084	0.45726
0.25071	0.25320
0.81175	-0.48652
-0.84586	0.10015
-0.76936	0.17668
0.27621	0.35523
0.81175	-0.12942
0.25071	-0.35899
-0.48884	0.22769
-0.08081	-0.05289
0.76074	0.07465
0.83725	1.04394
-0.05531	0.35523
0.83725	-0.20594
-1.20288	-0.38449
0.48022	-0.69059
0.93925	-0.07840
-3.03900	0.12566
1.47479	0.71234
1.01576	1.01843
0.63323	0.40625
0.42922	0.25320
-0.18282	0.32972
0.12320	0.32972
-0.51434	-0.10391
0.12320	-0.00188
-0.08081	-0.00188
0.07220	0.15117
-0.51434	-0.02739
0.12320	-0.12942
1.01576	0.20219
0.48022	-0.07840
0.07220	0.43176
1.75531	0.35523
-0.61635	-0.20594
-2.78398	-0.00188
0.32721	0.07465
0.93925	0.58480
0.73524	0.58480
0.65874	0.68683
1.55129	-0.18043
-0.08081	-0.20594
-0.69285	0.02363
-0.56534	-0.23145
0.25071	0.10015
0.40372	0.45726
0.42922	0.27871
0.81175	0.35523
0.02119	0.10015
-1.02437	0.10015
-0.31033	0.20219
0.58223	-0.30797
-0.18282	-0.28246
-0.05531	-0.05289
0.14870	0.91640
0.42922	0.61031
0.40372	0.89089
0.02119	-1.04770
0.27621	-0.51203
0.14870	-0.97117
-0.05531	0.15117
-0.02981	0.73785
0.32721	1.09496
1.57679	0.76336
-1.40690	0.25320
-1.76392	0.10015
0.91375	0.07465
0.19971	0.15117
0.81175	0.32972
0.40372	-0.05289
1.09226	-0.00188
-0.23382	0.15117
0.04670	-0.05289
0.27621	-0.07840
0.17421	-0.00188
0.02119	0.15117
-0.02981	0.25320
0.53123	0.45726
-0.13181	-0.05289
0.19971	-0.30797
0.42922	0.02363
0.42922	1.24800
-0.18282	0.96742
-0.41233	0.04914
-0.38683	-0.56305
0.40372	-0.63957
1.16877	0.20219
1.75531	0.45726
-1.73842	0.32972
-1.89143	0.55929
1.06676	-0.00188
0.99026	0.15117
1.42379	-1.04770
-0.51434	0.02363
-0.28482	1.04394
0.48022	0.73785
0.91375	0.17668
-0.38683	-0.61406
-0.33583	-0.30797
0.73524	0.55929
0.12320	0.58480
-0.08081	0.55929
0.42922	-0.02739
-0.66735	-0.20594
-0.48884	-0.18043
0.40372	0.15117
0.22521	-0.48652
0.04670	-0.07840
0.73524	-0.18043
0.63323	0.15117
0.07220	0.58480
-0.76936	0.81437
0.78624	1.24800
0.60773	1.17148
-0.51434	-0.35899
-0.10631	-0.51203
0.88825	-0.56305
0.02119	-0.20594
-0.87136	0.12566
0.32721	-0.10391
1.52579	0.45726
-0.53984	0.50828
-2.52897	0.25320
0.63323	-0.00188
1.75531	0.02363
0.70974	-0.18043
0.09770	0.15117
0.70974	0.25320
0.27621	0.45726
-0.08081	-0.07840
1.29628	0.25320
-1.02437	-0.25695
-2.14644	-0.35899
0.65874	0.55929
0.14870	0.76336
0.19971	0.35523
0.30171	0.55929
0.83725	0.27871
-1.02437	-0.25695
-0.38683	0.02363
1.01576	-0.00188
0.81175	-0.02739
0.32721	0.10015
-0.56534	0.17668
-0.82036	-0.02739
0.86275	-0.07840
0.12320	0.32972
-0.56534	0.53379
1.52579	-0.02739
0.81175	-0.25695
1.21977	0.43176
-0.15732	0.10015
0.91375	0.07465
-1.45790	0.17668
-0.20832	0.53379
-0.25932	0.45726
-0.38683	0.04914
1.09226	0.17668
0.17421	-0.00188
0.07220	0.02363
-0.69285	0.25320
-1.38139	-0.33348
-0.59084	-0.43551
2.29084	0.53379
0.88825	0.48277
0.88825	0.48277
0.32721	0.25320
0.02119	0.15117
-0.05531	-0.25695
0.78624	0.10015
-0.53984	0.07465
-0.25932	0.07465
-1.25389	0.25320
-1.25389	0.22769
0.70974	0.38074
0.68424	-0.02739
0.93925	-0.10391
1.16877	0.20219
0.42922	0.32972
-0.66735	-0.35899
1.52579	0.73785
-0.66735	0.30422
-0.41233	-0.07840
-0.59084	0.02363
0.78624	0.20219
-0.25932	0.81437
0.22521	-0.02739
0.88825	-0.86914
0.22521	-0.84363
1.14327	-0.15492
0.17421	0.96742
-0.79486	0.96742
-1.66191	0.76336
0.83725	-0.00188
1.67880	-0.07840
-2.29945	-0.38449
-0.82036	-0.12942
1.04126	0.73785
1.06676	0.50828
1.06676	0.15117
0.76074	-0.30797
-0.20832	0.55929
-0.05531	0.25320
0.17421	-0.35899
-0.05531	-0.12942
0.19971	-0.94566
0.27621	0.66132
-0.56534	0.73785
-1.33039	0.50828
0.32721	0.25320
0.37822	0.20219
0.53123	-0.05289
1.29628	0.15117
0.17421	-0.12942
-1.89143	0.40625
0.04670	0.43176
0.12320	0.04914
1.60230	-0.18043
-0.51434	-0.25695
-0.89686	-0.48652
1.21977	0.02363
0.91375	0.68683
0.37822	0.38074
-1.35589	0.27871
0.99026	0.45726
0.65874	0.35523
-0.74385	0.25320
-0.31033	-0.00188
0.81175	0.15117
1.19427	0.10015
-0.69285	0.38074
-0.56534	-0.05289
0.42922	-0.30797
-0.05531	-0.69059
0.81175	-0.43551
0.63323	-0.02739
-0.82036	0.78886
-0.48884	1.45206
0.22521	0.58480
-0.84586	-0.25695
1.47479	-0.79262
-0.51434	0.35523
-0.08081	1.04394
0.93925	0.07465
1.47479	-0.07840
0.45472	-0.61406
0.45472	0.38074
-0.64185	0.53379
-0.53984	0.35523
0.88825	-0.48652
-0.00431	-0.30797
-0.61635	0.43176
-0.48884	0.35523
0.50573	0.04914
0.65874	0.43176
0.32721	0.10015
0.48022	-0.18043
-0.74385	0.40625
-0.48884	-0.05289
-0.15732	-0.10391
1.47479	0.40625
2.85188	0.40625
-3.11551	0.30422
-1.48340	-0.20594
1.44929	-0.23145
1.39828	0.48277
1.04126	0.86539
-0.87136	0.35523
-0.33583	0.04914
0.83725	0.04914
0.42922	-0.23145
-0.08081	0.55929
-0.00431	-0.46102
-0.28482	-0.43551
0.02119	0.10015
0.07220	-0.71609
0.93925	0.55929
1.11776	0.55929
-0.94787	1.01843
-0.89686	-0.48652
-0.15732	0.35523
0.42922	0.55929
0.48022	0.66132
-0.18282	0.15117
-0.36133	0.20219
0.70974	0.58480
0.48022	-0.00188
0.93925	-1.96597
0.50573	-1.12422
0.53123	-0.41000
0.02119	1.04394
0.09770	2.06425
0.02119	1.06945
0.02119	0.55929
-0.10631	-0.28246
-0.02981	0.30422
0.25071	1.12046
-0.23382	-0.66508
-0.41233	-0.28246
0.27621	-0.76711
0.60773	-0.56305
0.73524	-0.10391
0.04670	0.22769
-0.00431	0.68683
-0.05531	0.53379
0.60773	0.73785
0.22521	-0.48652
-2.01894	0.20219
0.78624	0.58480
0.93925	0.45726
0.12320	0.40625
0.27621	0.15117
0.65874	0.07465
0.42922	-0.15492
1.06676	-0.10391
-0.48884	0.25320
-1.76392	-0.15492
0.78624	-0.00188
-1.02437	-0.25695
-1.43240	0.20219
1.14327	0.40625
1.16877	0.04914
0.78624	-0.10391
0.35272	0.10015
0.58223	0.73785
0.76074	0.30422
-0.20832	-0.07840
0.45472	0.30422
-0.36133	-0.61406
-0.64185	0.63582
-0.08081	0.81437
0.35272	0.15117
0.42922	-0.12942
-0.64185	0.25320
0.58223	0.25320
0.42922	0.22769
0.50573	0.58480
-1.17738	-0.53754
-0.59084	0.35523
0.35272	-1.02219
1.32178	-1.07320
1.29628	0.04914
0.63323	0.63582
0.63323	1.19699
0.04670	1.32453
0.17421	0.76336
0.53123	0.12566
-0.71835	0.30422
-1.30489	-0.28246
0.27621	-0.89465
-0.53984	-0.25695
-0.53984	-0.53754
1.62780	0.91640
0.60773	-0.92016
0.19971	-0.97117
0.68424	0.58480
0.09770	0.78886
-0.20832	0.63582
-0.31033	0.35523
0.53123	0.63582
0.50573	0.66132
-2.14644	0.15117
-0.48884	0.04914
0.70974	0.71234
0.58223	0.30422
1.14327	0.20219
0.19971	-0.66508
-1.81492	-0.00188
1.70430	-0.56305
1.14327	-0.23145
0.55673	0.22769
-0.46334	0.17668
-1.10088	0.38074
0.35272	1.01843
0.60773	0.45726
0.30171	0.43176
0.19971	-0.25695
0.12320	-0.71609
-0.05531	-0.71609
-0.71835	0.10015
0.02119	0.32972
0.30171	0.73785
0.12320	0.58480
0.25071	0.76336
0.27621	0.66132
-0.10631	0.04914
0.09770	-0.25695
0.32721	0.73785
0.42922	-0.18043
1.44929	-0.35899
0.58223	-0.92016
-1.73842	0.04914
-0.31033	-0.05289
0.45472	0.71234
2.44385	-0.15492
-0.28482	-0.28246
-2.75848	-0.15492
0.91375	0.53379
1.42379	0.94191
1.21977	0.86539
-0.69285	0.71234
0.22521	-0.23145
-0.08081	-0.05289
0.37822	-0.02739
0.27621	0.17668
1.65330	0.76336
-0.79486	-0.25695
-2.52897	-0.18043
0.32721	-1.17523
0.70974	-0.05289
0.83725	0.15117
0.45472	0.45726
0.12320	0.15117
0.12320	0.07465
0.35272	0.73785
0.35272	0.86539
-0.08081	0.07465
-0.00431	-0.00188
-0.05531	0.30422
0.22521	0.04914
0.12320	0.25320
0.14870	0.27871
1.60230	0.12566
-0.31033	-0.10391
-1.91693	0.94191
-0.28482	-2.01699
0.53123	-0.76711
0.53123	-0.10391
0.32721	-0.10391
1.29628	0.78886
1.11776	1.32453
-1.63641	1.40105
0.68424	1.22250
-0.00431	0.53379
-0.84586	0.27871
0.30171	-0.23145
0.48022	-1.55785
0.32721	-0.89465
-0.56534	-0.35899
1.34728	0.17668
0.27621	-0.05289
-1.02437	0.55929
0.42922	1.01843
0.81175	0.73785
-0.02981	0.22769
0.27621	-0.28246
0.35272	-0.30797
-0.71835	0.12566
0.96476	0.04914
-1.71292	0.22769
0.32721	0.04914
1.42379	0.61031
-0.69285	0.35523
-0.10631	0.07465
0.17421	0.20219
0.50573	0.15117
0.91375	0.10015
0.50573	-0.15492
-0.51434	-0.15492
0.37822	0.45726
0.17421	0.32972
0.17421	0.20219
-0.28482	-0.18043
0.81175	0.99292
-0.94787	-0.28246
-0.89686	0.12566
0.04670	-0.56305
0.78624	-0.99668
0.81175	0.73785
0.30171	0.86539
0.12320	0.71234
0.22521	0.38074
0.35272	0.12566
-0.25932	-0.20594
1.01576	0.53379
-0.84586	-0.43551
-0.48884	-0.20594
0.53123	0.22769
0.30171	-0.15492
0.70974	0.17668
-0.05531	0.20219
-0.53984	0.40625
0.81175	0.53379
0.58223	0.10015
-0.79486	0.15117
-0.10631	-0.28246
-0.18282	-0.66508
0.60773	0.04914
0.45472	0.20219
1.29628	0.66132
0.22521	0.48277
-0.38683	0.20219
-0.02981	0.38074
0.68424	0.17668
-0.76936	-0.20594
-0.94787	-0.33348
0.27621	0.35523
0.42922	0.50828
0.86275	0.30422
0.53123	0.30422
0.96476	0.25320
0.19971	0.38074
-0.94787	-0.18043
-0.74385	-0.20594
2.29084	-0.23145
1.16877	0.25320
-3.80405	0.10015
-0.59084	0.17668
1.06676	-0.15492
0.91375	-0.12942
0.78624	-0.28246
0.42922	0.66132
0.27621	1.09496
0.19971	0.50828
-0.13181	0.30422
-0.02981	-0.00188
-0.05531	0.35523
-0.25932	0.43176
0.91375	0.04914
-0.10631	0.07465
0.02119	-0.74160
0.14870	-0.38449
-0.00431	-0.43551
0.48022	-0.07840
0.02119	0.55929
0.22521	0.48277
0.14870	0.07465
0.02119	0.17668
-0.08081	-0.48652
0.65874	0.68683
0.17421	0.55929
0.07220	0.45726
0.60773	0.12566
-1.73842	-0.05289
-0.08081	0.30422
0.02119	0.15117
0.63323	0.10015
1.14327	0.40625
0.32721	0.15117
0.02119	0.15117
1.01576	0.68683
-0.38683	0.02363
-1.04987	-0.63957
0.27621	-0.12942
0.63323	0.20219
0.19971	0.17668
1.01576	-0.30797
0.14870	-0.33348
-0.41233	0.71234
-1.22839	-0.15492
-0.00431	0.43176
1.01576	0.07465
-0.13181	-0.63957
-0.36133	1.04394
0.53123	0.40625
0.27621	0.15117
0.88825	0.86539
0.19971	-0.20594
-0.64185	0.38074
0.22521	0.02363
0.53123	-0.56305
0.73524	-0.05289
-0.02981	0.27871
-0.56534	0.71234
0.45472	0.55929
-0.23382	0.66132
-0.53984	-0.20594
1.34728	-0.23145
0.42922	-1.22625
0.09770	-0.66508
0.25071	-0.15492
1.09226	0.30422
-0.94787	1.37554
-0.92237	0.63582
1.09226	0.32972
1.57679	0.91640
-0.48884	-0.35899
-1.10088	0.20219
-1.78942	0.50828
0.48022	-0.20594
0.93925	-0.46102
1.42379	-0.97117
0.91375	-0.30797
-0.76936	0.76336
-0.02981	1.96222
0.27621	0.22769
0.14870	0.10015
0.35272	-0.35899
0.19971	-0.69059
0.42922	-0.05289
-0.56534	0.20219
-1.20288	0.45726
-0.00431	0.17668
0.60773	0.45726
0.78624	-0.07840
0.81175	0.27871
-1.33039	0.17668
0.48022	-0.10391
0.99026	0.55929
0.35272	-0.63957
-0.28482	0.15117
-0.18282	0.76336
0.32721	0.55929
0.22521	0.35523
-0.43783	0.04914
-0.10631	-0.18043
0.32721	-0.05289
0.96476	-0.05289
0.73524	0.07465
-1.04987	0.40625
-0.64185	0.45726
1.09226	0.07465
-0.46334	0.32972
-0.69285	0.15117
0.65874	-0.02739
1.04126	-0.18043
0.81175	-0.71609
-0.05531	-0.05289
0.04670	0.45726
-0.00431	0.43176
0.25071	0.63582
0.09770	0.43176
0.22521	0.38074
-1.25389	0.27871
0.27621	0.45726
0.30171	-0.12942
-0.05531	-0.23145
0.17421	-0.25695
0.73524	-0.41000
0.76074	-0.00188
-0.82036	0.96742
-0.15732	-0.43551
0.78624	0.27871
0.91375	0.48277
-0.13181	0.71234
0.32721	0.04914
-0.79486	-0.69059
0.68424	-0.15492
-0.05531	0.02363
0.58223	0.38074
0.22521	0.83988
0.53123	0.25320
0.93925	0.22769
-1.55991	0.55929
0.27621	0.43176
-0.15732	-0.18043
-0.20832	0.12566
0.35272	-0.38449
1.70430	-0.30797
0.14870	0.15117
-0.53984	0.10015
0.48022	0.27871
-0.08081	0.38074
-0.97337	0.12566
0.14870	0.30422
0.53123	0.35523
0.86275	0.53379
-0.08081	-0.38449
-0.36133	0.15117
-0.33583	-0.30797
0.50573	-0.15492
1.39828	-0.20594
1.09226	0.04914
0.81175	0.55929
-2.22295	0.55929
-2.42696	0.35523
0.48022	0.27871
0.58223	0.89089
1.06676	0.35523
-0.28482	-0.07840
0.09770	-0.38449
0.78624	-0.15492
0.25071	-0.74160
1.14327	0.04914
0.14870	0.50828
-0.48884	0.43176
0.04670	0.12566
0.48022	-0.02739
0.30171	0.27871
-0.20832	0.86539
0.42922	0.43176
-0.33583	0.27871
-0.69285	-0.15492
0.32721	-0.23145
1.95932	0.20219
0.55673	0.04914
-2.86049	-0.10391
0.04670	0.35523
0.70974	0.45726
0.09770	-0.43551
1.19427	-0.05289
1.04126	-0.89465
0.27621	0.61031
-0.97337	1.29902
0.40372	0.99292
0.12320	0.71234
0.22521	-0.18043
-0.02981	-0.15492
1.09226	-0.30797
-0.41233	-0.00188
-0.97337	0.38074
0.50573	-0.10391
-0.02981	0.15117
0.14870	-0.84363
0.60773	0.02363
0.17421	0.48277
0.45472	0.40625
0.48022	0.12566
0.12320	0.32972
0.48022	-0.07840
-0.69285	0.35523
0.12320	-0.07840
-0.66735	0.27871
0.17421	0.53379
0.86275	0.35523
0.35272	-0.35899
-1.73842	-0.61406
1.65330	0.10015
-0.13181	0.58480
0.96476	0.55929
0.17421	0.43176
-0.99887	0.48277
0.55673	0.48277
0.48022	0.30422
0.45472	-0.25695
0.68424	-0.12942
0.30171	-0.07840
-1.30489	0.04914
-0.23382	0.07465
0.63323	-0.02739
0.32721	-0.28246
-0.18282	0.27871
0.25071	0.55929
0.60773	-0.28246
0.25071	0.25320
-0.15732	0.30422
0.14870	0.12566
-0.64185	0.61031
0.42922	-0.05289
1.01576	0.30422
0.12320	0.25320
-0.48884	0.04914
0.35272	0.35523
0.12320	-0.20594
0.48022	-0.12942
0.78624	0.30422
-0.36133	0.71234
0.81175	0.68683
1.47479	0.30422
-2.17195	-0.79262
-1.22839	-0.71609
0.55673	0.20219
0.25071	0.27871
0.53123	0.20219
1.14327	0.38074
0.12320	0.20219
0.07220	0.30422
0.42922	-0.46102
-0.87136	-0.25695
0.09770	0.38074
-0.59084	0.04914
0.02119	0.27871
0.86275	0.66132
0.53123	-0.05289
0.40372	0.53379
0.55673	0.76336
-0.92237	0.20219
-0.33583	-0.15492
-0.71835	0.17668
0.63323	-0.15492
0.60773	-0.05289
0.88825	0.22769
0.68424	-0.00188
0.17421	-0.12942
0.14870	0.20219
0.25071	-0.48652
-0.25932	-0.61406
-1.27939	-0.12942
0.04670	0.58480
0.40372	0.58480
0.35272	1.12046
0.30171	0.91640
1.04126	0.45726
0.83725	-0.38449
-1.22839	-0.48652
-0.10631	-0.23145
0.35272	0.50828
0.76074	0.35523
0.86275	-0.02739
-1.50890	-0.07840
0.45472	-0.02739
-0.15732	0.53379
0.22521	0.22769
0.27621	0.12566
0.17421	-0.15492
0.09770	-0.35899
0.93925	-0.61406
-0.51434	-0.05289
0.55673	1.19699
0.37822	0.89089
-0.10631	0.53379
0.40372	0.12566
0.73524	0.30422
0.09770	0.66132
0.22521	-0.35899
0.35272	-0.28246
-1.20288	-0.33348
-0.05531	-0.74160
-0.36133	0.43176
0.63323	0.96742
0.65874	0.55929
0.19971	0.04914
0.91375	-0.05289
-0.28482	-0.05289
-0.02981	-0.02739
0.19971	0.45726
-0.56534	0.15117
0.42922	0.12566
-0.38683	-0.00188
-0.02981	-0.00188
1.11776	-0.10391
1.70430	-0.18043
-0.94787	-0.15492
0.27621	0.07465
0.96476	0.76336
-1.71292	0.53379
-0.48884	0.61031
0.42922	0.86539
1.39828	0.53379
0.27621	0.40625
0.50573	-0.38449
0.45472	-0.25695
-0.13181	0.04914
-0.18282	0.20219
0.02119	-0.58856
-0.28482	-0.58856
0.32721	0.04914
-0.05531	0.40625
0.02119	0.17668
0.27621	0.20219
0.63323	0.89089
0.76074	0.38074
-1.58541	0.10015
-0.71835	0.04914
1.01576	-1.02219
1.32178	-0.28246
1.11776	0.27871
-1.43240	0.68683
0.42922	0.96742
-0.08081	0.66132
0.60773	0.38074
0.63323	0.25320
-0.02981	-0.23145
-0.00431	-0.25695
0.02119	-0.05289
