0.12320	0.20219
0.22521	0.17668
0.07220	0.04914
0.04670	0.25320
0.19971	0.15117
0.14870	0.15117
0.07220	0.17668
0.17421	0.15117
0.22521	0.12566
0.04670	0.20219
0.09770	0.15117
0.22521	0.17668
0.19971	0.22769
0.17421	0.15117
0.09770	0.07465
0.07220	0.20219
0.30171	0.15117
-0.02981	0.15117
0.25071	0.15117
0.25071	0.25320
0.17421	0.15117
0.04670	0.17668
0.14870	0.12566
0.09770	0.10015
0.09770	0.20219
0.12320	0.15117
0.22521	0.17668
0.02119	0.20219
0.12320	0.12566
0.09770	0.20219
0.07220	0.22769
0.12320	0.12566
0.22521	0.20219
0.02119	0.12566
0.22521	0.12566
0.22521	0.10015
0.12320	0.15117
0.22521	0.12566
0.09770	0.15117
0.19971	0.20219
0.04670	0.12566
0.14870	0.12566
0.12320	0.20219
0.12320	0.12566
0.12320	0.12566
0.19971	0.17668
0.22521	0.07465
0.09770	0.20219
0.25071	0.04914
0.07220	0.15117
0.14870	0.15117
0.09770	0.15117
-0.00431	0.20219
0.09770	0.04914
0.22521	0.22769
0.12320	0.12566
0.12320	0.04914
0.14870	0.15117
0.14870	0.07465
0.22521	0.15117
0.04670	0.15117
0.27621	0.15117
0.09770	0.15117
0.14870	0.02363
0.14870	0.20219
0.17421	0.12566
0.22521	0.07465
0.14870	0.15117
0.22521	0.15117
0.02119	0.04914
0.12320	0.25320
0.07220	0.12566
0.22521	0.25320
0.19971	0.07465
-0.02981	0.15117
0.22521	0.07465
0.12320	0.04914
0.17421	0.15117
0.12320	0.04914
0.19971	0.15117
0.12320	0.12566
0.19971	0.25320
0.09770	0.20219
0.04670	0.12566
0.19971	0.12566
0.04670	0.15117
0.25071	0.17668
0.14870	0.17668
0.19971	0.04914
0.19971	0.12566
0.07220	0.25320
0.17421	0.10015
0.25071	0.15117
0.12320	0.20219
0.17421	0.04914
0.09770	0.12566
-0.18282	0.12566
0.30171	0.04914
0.12320	0.10015
0.19971	0.12566
0.22521	0.10015
-0.00431	0.30422
0.12320	0.12566
0.14870	0.17668
0.09770	0.20219
0.25071	-0.02739
0.14870	0.17668
0.07220	0.25320
0.30171	0.15117
0.09770	0.12566
0.14870	0.17668
0.17421	0.15117
0.09770	0.12566
0.07220	0.25320
0.17421	0.10015
0.09770	-0.00188
0.22521	0.04914
0.25071	0.17668
0.12320	0.12566
0.12320	0.25320
0.19971	0.22769
0.09770	0.07465
0.09770	-0.10391
0.17421	0.07465
0.09770	0.35523
0.17421	0.22769
0.30171	0.22769
0.19971	0.20219
0.04670	0.10015
-0.46334	0.07465
0.09770	0.17668
0.42922	0.04914
0.30171	0.15117
0.25071	0.12566
0.25071	-0.00188
0.09770	0.12566
0.14870	0.17668
0.22521	0.12566
0.12320	0.10015
0.14870	0.17668
0.12320	0.15117
0.09770	0.15117
0.12320	0.07465
0.09770	0.20219
0.27621	0.12566
-0.05531	0.12566
-0.08081	0.22769
0.42922	0.07465
0.27621	0.15117
0.50573	0.15117
0.32721	0.12566
-0.02981	0.15117
-0.38683	0.22769
-0.23382	0.15117
0.22521	0.25320
0.35272	0.02363
0.32721	0.22769
0.25071	0.15117
0.45472	0.12566
0.30171	0.20219
0.07220	0.30422
-0.20832	-0.05289
-0.23382	-0.00188
0.37822	0.07465
0.19971	0.20219
0.14870	0.40625
0.25071	0.15117
0.09770	0.07465
0.17421	-0.05289
0.17421	-0.12942
0.19971	0.07465
0.35272	0.35523
-0.02981	0.40625
-0.36133	0.27871
-0.18282	0.25320
-0.05531	0.04914
0.07220	0.07465
0.53123	0.17668
0.55673	0.10015
0.53123	0.07465
0.22521	0.15117
0.19971	0.02363
0.02119	0.12566
-0.10631	0.22769
0.12320	0.10015
-0.02981	0.12566
-0.00431	0.20219
0.17421	0.10015
0.19971	0.12566
0.04670	0.22769
0.22521	0.15117
0.12320	0.30422
0.09770	0.22769
0.22521	-0.00188
0.09770	0.12566
0.17421	0.02363
0.40372	0.25320
0.37822	0.20219
0.50573	0.15117
0.02119	0.07465
-0.48884	0.10015
-0.33583	0.10015
0.32721	-0.02739
0.22521	0.17668
0.45472	0.04914
0.37822	0.25320
0.55673	0.15117
0.55673	0.22769
0.02119	0.17668
-0.00431	0.20219
-0.28482	0.12566
-0.28482	0.07465
-0.13181	0.17668
0.17421	0.27871
0.25071	0.07465
0.32721	0.15117
0.35272	0.07465
0.25071	0.17668
0.09770	0.27871
0.17421	-0.05289
0.35272	0.04914
0.04670	0.25320
-0.20832	0.15117
-0.20832	0.25320
0.53123	0.20219
0.60773	0.17668
0.17421	0.15117
-0.59084	0.02363
-0.20832	0.20219
0.32721	0.10015
0.35272	0.17668
0.40372	0.17668
0.50573	0.22769
0.12320	0.20219
-0.15732	0.07465
-0.08081	0.15117
0.12320	0.04914
-0.51434	0.02363
-0.15732	0.20219
0.37822	0.25320
0.78624	0.12566
0.37822	0.25320
0.30171	0.10015
0.07220	0.32972
-0.08081	0.12566
0.22521	0.04914
0.37822	0.02363
0.07220	-0.10391
0.07220	0.53379
-0.33583	0.15117
-0.08081	0.04914
0.07220	0.32972
0.17421	0.17668
0.04670	0.22769
0.14870	0.07465
0.30171	-0.00188
0.53123	0.17668
0.30171	0.30422
-0.23382	-0.00188
0.02119	0.07465
0.93925	0.12566
0.81175	-0.00188
-1.15188	0.30422
-1.10088	0.10015
0.55673	0.10015
0.70974	0.22769
0.76074	0.20219
0.45472	0.07465
0.07220	0.22769
0.19971	0.30422
-0.05531	0.07465
-0.02981	0.15117
-0.00431	0.15117
-0.00431	0.02363
-0.08081	0.15117
0.09770	0.17668
0.17421	0.07465
0.09770	-0.00188
0.12320	0.15117
0.14870	0.35523
0.07220	0.22769
0.25071	0.15117
0.22521	0.04914
0.19971	0.04914
-0.00431	0.12566
0.27621	0.07465
0.30171	0.12566
-0.08081	0.17668
0.27621	0.35523
0.48022	0.50828
-0.08081	0.15117
0.22521	0.02363
0.04670	0.25320
-0.15732	-0.00188
-0.05531	0.10015
0.04670	-0.15492
0.42922	0.10015
0.35272	-0.28246
0.12320	0.78886
0.07220	0.53379
0.48022	-0.00188
0.63323	0.30422
-0.46334	-0.20594
-0.20832	0.25320
0.07220	0.20219
0.35272	0.22769
0.53123	0.10015
0.70974	0.12566
0.42922	-0.10391
-0.51434	-0.25695
-0.13181	0.17668
-0.64185	0.22769
-0.79486	0.55929
0.60773	0.48277
0.99026	0.40625
0.37822	0.20219
-0.48884	-0.20594
0.12320	-0.51203
0.73524	-0.12942
0.81175	0.30422
0.48022	0.38074
0.17421	0.22769
0.25071	0.27871
-0.28482	-0.00188
-0.18282	0.53379
-0.31033	0.10015
-0.20832	-0.28246
-0.08081	-0.05289
0.22521	-0.23145
0.17421	0.38074
0.17421	0.58480
0.35272	0.17668
0.78624	0.32972
0.32721	0.10015
-0.84586	0.25320
-0.48884	0.25320
0.73524	0.15117
2.18883	0.25320
-1.50890	-0.05289
-1.99343	-0.41000
-0.00431	-0.18043
1.01576	-0.25695
1.39828	0.45726
1.11776	-0.02739
1.50029	0.61031
0.02119	0.38074
-0.64185	0.50828
-0.33583	0.38074
-0.33583	-0.28246
0.25071	0.04914
0.12320	-0.28246
0.17421	0.22769
-0.56534	0.30422
-0.08081	-0.10391
-0.02981	0.04914
0.07220	-0.23145
0.37822	-0.15492
0.22521	-0.07840
0.27621	0.68683
2.57136	1.19699
0.09770	0.61031
-2.45246	0.35523
-0.64185	-0.23145
-0.20832	-0.05289
1.01576	0.15117
0.81175	0.63582
0.45472	-0.43551
0.19971	-0.20594
0.40372	-0.00188
0.65874	-0.35899
0.53123	0.30422
-1.45790	0.63582
-0.02981	-0.10391
0.12320	-0.10391
0.73524	0.17668
0.30171	-0.23145
-0.51434	0.55929
-0.00431	2.24281
0.32721	0.22769
0.17421	-1.45582
0.22521	-0.99668
0.32721	-0.35899
0.65874	0.86539
-1.33039	1.91120
-0.59084	0.61031
0.83725	-0.02739
1.95932	-0.53754
-0.99887	-0.79262
-1.07538	0.07465
0.19971	0.78886
0.09770	0.12566
0.86275	0.83988
0.09770	0.45726
0.19971	0.04914
0.53123	-0.41000
1.11776	-1.86394
-0.43783	-0.12942
-0.02981	0.45726
-0.08081	1.60511
0.73524	0.83988
-0.05531	-0.38449
-1.61091	0.50828
-0.48884	-0.92016
0.86275	0.32972
-0.05531	1.24800
0.27621	0.17668
0.73524	0.22769
0.12320	-1.07320
0.09770	-0.10391
0.19971	-0.02739
0.30171	0.53379
-0.20832	0.78886
0.27621	0.25320
0.45472	-0.58856
0.04670	-0.20594
0.50573	0.15117
0.63323	0.22769
-0.71835	0.45726
-1.27939	0.58480
-0.08081	0.40625
-0.38683	0.76336
0.30171	-0.02739
2.77537	0.02363
-0.10631	-0.20594
-0.87136	-1.94047
1.85731	0.10015
0.37822	0.20219
-1.25389	2.08976
-2.04444	-0.05289
-0.02981	-0.56305
2.08683	-0.53754
1.14327	0.89089
0.83725	1.47757
-0.15732	0.91640
0.04670	1.24800
0.12320	-1.43031
-0.48884	-1.53234
-0.08081	-0.66508
0.42922	-1.09871
-0.36133	1.60511
0.19971	1.14597
0.07220	1.68163
2.54586	1.17148
0.91375	0.15117
-5.05363	-1.07320
-2.65648	-1.04770
1.52579	-0.61406
1.39828	0.12566
1.75531	1.29902
0.76074	-0.25695
0.91375	-1.58336
0.60773	0.07465
1.32178	-0.43551
-0.28482	0.94191
-2.75848	0.17668
-0.02981	1.32453
1.14327	0.81437
2.39285	2.75296
-0.92237	-0.56305
-3.77855	-0.18043
2.82638	-2.19554
-0.97337	-0.79262
-0.10631	0.61031
0.99026	1.57960
0.19971	0.25320
-0.38683	-0.41000
0.63323	-0.46102
-0.89686	0.66132
0.35272	1.45206
-0.61635	0.81437
0.22521	-0.94566
0.63323	-1.22625
0.88825	-2.19554
-0.51434	0.45726
-0.53984	0.63582
0.40372	0.55929
2.06133	0.76336
2.11233	0.83988
0.81175	0.20219
-5.43616	0.02363
-0.87136	-0.28246
1.24527	-0.02739
2.16333	0.91640
0.07220	1.19699
-0.66735	-0.02739
1.06676	-0.18043
-2.27395	-0.89465
-0.87136	-0.69059
1.78081	-0.12942
-0.59084	0.73785
-0.23382	0.66132
2.74987	2.65093
-0.31033	-0.46102
-1.40690	0.00000
-0.08081	0.00000
1.34728	0.00000
1.95932	0.00000
2.11233	0.00000
0.17421	0.00000
-4.62010	0.00000
-1.30489	-0.10391
1.19427	-1.09871
0.91375	-0.58856
1.78081	0.22769
0.78624	0.10015
-1.10088	0.89089
0.32721	0.25320
-0.00431	1.17148
-0.02981	-2.22105
-1.30489	1.06945
0.50573	-0.33348
-0.25932	0.94191
1.62780	0.61031
2.44385	0.66132
1.47479	0.35523
-1.78942	0.04914
-4.26308	-0.74160
-0.64185	0.04914
0.88825	-0.23145
2.90288	-0.66508
1.34728	0.78886
-1.10088	0.81437
-1.20288	0.22769
0.32721	-0.35899
2.82638	-1.25176
-0.53984	-0.74160
-1.71292	1.27351
0.88825	2.26831
-0.05531	0.32972
1.19427	0.68683
-0.00431	0.15117
-1.89143	-0.07840
-0.79486	0.15117
-0.69285	0.58480
3.48942	0.04914
-1.48340	-0.92016
-0.00431	-0.94566
1.90832	0.10015
-0.08081	-0.10391
3.00489	0.96742
-1.58541	0.71234
-0.25932	-0.15492
-1.10088	-1.58336
0.35272	-0.38449
0.60773	0.76336
0.22521	2.29382
0.50573	1.88570
-1.30489	-0.25695
0.76074	-0.84363
-0.99887	-0.15492
-1.38139	-0.51203
1.67880	-0.33348
5.17253	0.38074
0.19971	0.55929
-5.53816	0.66132
0.25071	0.12566
3.08139	1.14597
-0.05531	0.07465
1.16877	-0.30797
0.60773	-1.94047
-1.04987	-0.30797
2.52035	1.06945
-2.04444	1.29902
-4.67111	0.04914
1.67880	-0.23145
1.44929	0.48277
0.45472	-0.51203
1.32178	0.12566
1.95932	-0.23145
2.31634	1.32453
-5.35965	-0.35899
-6.83875	-1.25176
2.74987	-0.71609
2.57136	1.50308
1.39828	1.50308
0.76074	0.78886
0.35272	0.10015
0.55673	-0.35899
0.27621	0.66132
-0.87136	0.38074
0.55673	-1.53234
0.09770	-1.02219
0.86275	-0.51203
-2.06994	0.55929
-1.17738	1.73265
1.52579	0.30422
2.87738	0.32972
-0.82036	0.10015
-2.86049	-1.14973
4.40748	0.30422
-1.02437	1.22250
-2.01894	0.04914
0.14870	0.53379
-0.05531	-0.05289
0.81175	-0.66508
0.93925	-0.05289
0.78624	0.50828
0.63323	0.55929
-0.25932	-0.02739
1.83181	0.22769
-0.61635	0.04914
-2.55447	0.35523
0.09770	0.78886
-0.89686	-1.73640
0.55673	0.17668
0.55673	1.04394
0.50573	0.66132
0.53123	0.17668
1.06676	0.55929
0.86275	-0.61406
-0.15732	-0.10391
-3.19201	-0.18043
-0.33583	0.48277
0.73524	0.43176
0.40372	0.48277
-1.12638	0.81437
2.21434	-1.63437
1.04126	-0.71609
-1.48340	0.22769
-1.73842	0.15117
1.85731	0.25320
0.55673	-0.10391
0.55673	0.86539
0.45472	1.24800
-0.15732	0.76336
-0.28482	0.61031
-0.13181	0.04914
0.78624	-0.25695
-0.10631	-1.58336
0.81175	1.22250
-3.70204	0.10015
1.19427	0.30422
1.19427	-1.20074
-1.10088	-0.89465
1.75531	0.38074
-0.08081	0.68683
0.27621	0.50828
1.75531	0.63582
1.14327	0.38074
-1.96793	-0.18043
0.04670	0.40625
-0.74385	0.02363
0.07220	-0.38449
1.32178	0.53379
-0.33583	1.14597
2.11233	0.43176
-1.91693	-0.79262
-1.53441	-1.30277
1.04126	-0.18043
0.73524	0.83988
0.40372	0.91640
2.34184	0.66132
1.50029	0.30422
-3.65104	0.22769
-1.48340	0.45726
0.91375	0.20219
1.85731	-0.46102
-0.13181	-0.58856
-0.69285	-0.07840
0.65874	0.40625
3.00489	0.35523
-0.79486	0.63582
-2.65648	-0.35899
-0.00431	-0.84363
0.53123	-1.02219
1.65330	-0.63957
0.40372	1.55410
-0.61635	0.96742
0.91375	1.06945
0.42922	0.58480
-0.05531	-0.18043
-0.25932	0.96742
-0.69285	0.15117
1.75531	0.48277
0.48022	-2.34859
0.32721	0.07465
-1.07538	0.83988
0.14870	0.40625
1.90832	0.10015
-1.71292	0.35523
-1.61091	-0.15492
1.60230	-0.23145
0.14870	0.58480
-0.71835	0.40625
0.30171	-0.00188
2.64786	0.40625
-1.27939	-0.15492
-0.99887	0.45726
0.58223	0.07465
0.73524	0.35523
1.52579	-0.43551
-0.43783	-0.46102
-0.28482	0.91640
-0.66735	0.07465
0.63323	-0.35899
1.01576	-0.07840
-0.28482	0.83988
-0.10631	0.35523
2.59686	0.30422
1.21977	0.04914
-3.85505	0.17668
-2.57997	0.17668
0.83725	0.61031
1.65330	0.63582
1.50029	0.02363
-0.43783	0.45726
1.29628	0.50828
1.78081	-0.35899
-2.75848	-1.48133
-2.50347	-2.39961
1.65330	-1.55785
0.32721	1.19699
1.21977	2.19179
0.81175	1.45206
0.40372	1.27351
0.73524	0.58480
1.47479	1.17148
-0.89686	-1.48133
-1.35589	-0.48652
-0.02981	0.40625
0.32721	0.53379
0.50573	0.27871
0.70974	-0.25695
-0.89686	-0.35899
0.02119	0.22769
-1.25389	-0.25695
1.24527	0.12566
0.45472	0.45726
0.73524	-0.28246
1.75531	0.02363
-0.74385	0.38074
-1.81492	0.30422
-1.68742	0.04914
1.62780	0.68683
0.78624	0.35523
-0.10631	0.68683
0.50573	-0.76711
0.32721	0.15117
1.90832	0.48277
0.09770	0.35523
-1.27939	0.53379
0.35272	-0.28246
1.85731	0.17668
0.17421	0.53379
-2.42696	0.04914
-0.48884	-0.76711
0.22521	-0.33348
-0.08081	0.81437
-0.61635	0.48277
1.65330	-0.05289
-2.93700	0.04914
0.40372	-0.35899
1.29628	0.55929
1.14327	0.07465
1.52579	0.61031
0.02119	0.53379
0.30171	0.32972
1.29628	0.35523
0.40372	0.68683
-1.76392	0.71234
-0.71835	-0.15492
0.68424	-0.58856
-1.68742	-1.04770
0.14870	-0.23145
0.35272	0.10015
0.14870	0.78886
0.25071	0.50828
0.96476	-0.05289
0.22521	-0.41000
-0.02981	-0.30797
-0.33583	-0.10391
0.37822	0.63582
0.73524	1.47757
-0.84586	0.78886
0.25071	0.61031
1.16877	-0.18043
-0.18282	-0.33348
-1.68742	-0.33348
1.09226	0.66132
0.78624	1.14597
1.19427	0.40625
-0.41233	-1.17523
-0.46334	-1.43031
0.55673	-1.48133
1.21977	0.81437
0.76074	0.76336
-1.43240	0.81437
-0.33583	1.86019
-0.79486	-0.15492
-1.45790	0.32972
1.50029	-1.53234
0.40372	-0.35899
0.91375	1.04394
1.14327	0.58480
0.32721	0.45726
0.50573	0.10015
0.45472	0.27871
-1.89143	-0.25695
-1.68742	0.35523
-0.38683	0.63582
0.86275	0.53379
1.57679	-0.81812
0.53123	-0.69059
-0.15732	-0.02739
0.48022	0.66132
0.22521	0.76336
-0.05531	0.30422
0.78624	-0.12942
1.04126	-0.66508
-1.73842	-0.63957
0.07220	0.96742
-0.13181	0.35523
-0.15732	0.55929
0.86275	0.43176
0.58223	0.66132
-0.79486	0.30422
0.35272	0.20219
-0.00431	0.58480
0.83725	-0.74160
0.45472	-0.46102
1.24527	-0.25695
1.09226	0.10015
-3.93156	-0.07840
-0.05531	0.48277
1.32178	0.66132
0.86275	1.09496
0.81175	-0.41000
1.04126	-0.53754
-1.68742	-0.33348
0.50573	0.17668
1.37278	0.02363
0.32721	0.66132
-0.23382	0.48277
-0.10631	0.50828
1.34728	0.40625
2.72437	0.25320
-3.70204	0.68683
-7.09376	-0.69059
0.37822	0.58480
1.42379	-0.66508
2.82638	-0.66508
1.42379	-0.35899
1.27078	0.50828
1.32178	0.43176
1.83181	0.04914
1.70430	0.50828
0.58223	0.38074
-5.10463	0.83988
-5.56366	-0.02739
2.23984	-0.28246
2.26534	-0.92016
1.60230	-0.07840
-2.55447	0.73785
1.85731	0.63582
2.03582	0.30422
0.27621	0.10015
-4.03357	0.50828
0.32721	0.22769
0.60773	0.17668
2.77537	-0.89465
0.81175	-0.38449
-2.35046	0.58480
0.86275	0.12566
-0.59084	0.25320
1.19427	0.50828
-0.48884	0.48277
1.11776	0.02363
-2.19745	0.53379
-1.73842	-0.48652
1.16877	1.35003
0.78624	-1.27726
1.14327	-0.81812
1.55129	0.22769
0.48022	0.73785
1.14327	0.63582
1.93382	0.63582
-5.10463	0.86539
-1.86593	-0.07840
0.83725	0.07465
1.06676	0.07465
2.26534	-0.07840
-0.46334	0.12566
0.53123	-0.10391
1.93382	-0.05289
-0.84586	-0.18043
1.37278	-0.18043
-0.56534	0.02363
-0.61635	0.50828
0.42922	0.35523
-0.08081	0.38074
0.53123	0.58480
-0.08081	0.50828
-0.79486	0.45726
0.32721	-0.35899
0.19971	-0.76711
1.16877	-0.02739
1.42379	0.48277
-3.21751	1.04394
-2.24845	-0.10391
1.85731	0.17668
1.47479	-0.05289
0.07220	0.10015
0.83725	-0.53754
0.96476	0.22769
0.45472	1.22250
0.99026	0.96742
-1.22839	-0.51203
-1.04987	-0.46102
0.40372	-1.48133
0.07220	0.10015
0.60773	0.89089
0.96476	0.63582
-0.20832	0.55929
-0.43783	0.10015
0.45472	0.30422
0.25071	0.66132
-0.10631	0.48277
0.53123	0.10015
1.72980	-0.25695
-0.53984	-0.12942
-3.44703	-0.61406
0.60773	-0.15492
0.88825	0.66132
0.76074	0.35523
0.81175	0.27871
0.65874	0.27871
-0.31033	0.50828
0.53123	-0.30797
0.65874	-0.00188
-0.23382	-0.51203
-0.36133	-0.76711
-0.66735	0.45726
-0.76936	1.24800
1.57679	1.19699
-0.23382	0.30422
0.12320	0.12566
0.07220	0.02363
0.32721	-0.12942
1.01576	0.02363
0.27621	-0.07840
-1.12638	0.27871
0.65874	0.38074
0.83725	-0.58856
-0.25932	-0.35899
-0.61635	-1.43031
-0.87136	0.63582
0.25071	1.12046
1.09226	0.50828
0.02119	0.45726
-0.38683	0.63582
1.47479	0.32972
-0.08081	0.89089
-0.51434	-1.02219
0.55673	0.04914
-0.87136	-0.10391
0.17421	0.30422
0.30171	-0.18043
-0.00431	0.07465
0.25071	-0.28246
0.30171	-0.00188
0.48022	0.86539
0.53123	0.35523
0.25071	0.12566
-0.69285	0.25320
-0.79486	-0.05289
0.32721	0.63582
0.68424	-0.58856
1.09226	0.15117
-0.25932	1.04394
2.06133	0.27871
-1.84042	-0.56305
-0.53984	-0.51203
-1.04987	0.15117
0.96476	0.17668
0.83725	0.35523
0.53123	0.17668
0.73524	0.15117
0.68424	0.25320
0.78624	0.07465
1.16877	0.38074
0.73524	0.12566
-4.31408	0.63582
-0.20832	0.48277
0.58223	-0.58856
1.72980	0.12566
1.32178	0.25320
-0.76936	-0.71609
-0.61635	-0.51203
0.60773	0.07465
0.83725	0.83988
0.48022	0.71234
-0.99887	0.10015
-2.17195	0.07465
1.29628	-0.35899
0.96476	0.53379
0.83725	0.17668
0.53123	0.50828
0.19971	0.32972
0.04670	-0.02739
0.19971	0.43176
-0.08081	-0.07840
0.14870	1.17148
1.21977	-1.17523
-0.48884	-0.63957
-2.27395	0.04914
1.16877	0.45726
0.53123	0.27871
-0.28482	0.89089
-0.43783	0.10015
-1.81492	0.15117
0.96476	-0.66508
1.75531	0.66132
1.14327	0.10015
1.16877	-0.23145
0.55673	0.25320
0.02119	0.35523
0.63323	0.48277
0.55673	-0.28246
-3.24301	0.22769
0.73524	0.15117
-0.08081	0.15117
0.53123	0.25320
0.96476	-0.15492
-3.24301	0.20219
0.50573	0.48277
0.96476	0.40625
1.42379	0.30422
1.44929	-0.07840
0.09770	0.38074
1.04126	-0.38449
0.88825	0.32972
-2.35046	-0.12942
-1.58541	0.15117
0.55673	-0.00188
-1.27939	-0.25695
0.63323	0.71234
1.01576	-0.61406
0.81175	0.38074
0.37822	0.27871
0.22521	0.45726
0.02119	0.58480
-0.02981	0.50828
-0.02981	0.48277
-0.08081	0.02363
-0.02981	-0.18043
0.02119	-0.10391
0.14870	0.07465
0.19971	-0.15492
0.02119	-0.18043
0.40372	-0.07840
0.70974	0.76336
0.32721	0.15117
-0.38683	0.10015
1.98482	-0.30797
-2.75848	-0.18043
-1.50890	0.48277
1.27078	0.61031
0.88825	-0.05289
1.27078	0.35523
0.93925	0.96742
-0.69285	0.27871
0.73524	-0.28246
0.99026	0.25320
-0.38683	0.48277
-1.02437	-0.20594
0.19971	-0.43551
0.07220	-0.61406
0.14870	-0.51203
0.86275	0.25320
-0.05531	0.71234
-0.48884	0.45726
-1.91693	0.55929
0.25071	0.04914
0.37822	0.35523
1.06676	-0.35899
0.99026	0.55929
-0.97337	-0.28246
1.42379	0.55929
0.02119	0.63582
-0.48884	-0.53754
0.93925	0.27871
0.48022	-0.10391
-0.08081	-0.15492
0.22521	0.25320
0.88825	0.12566
-0.53984	0.20219
-0.66735	0.48277
0.86275	-0.20594
0.63323	0.10015
-3.21751	0.38074
1.27078	0.07465
0.09770	0.50828
-1.58541	-0.41000
1.21977	0.99292
1.52579	-0.15492
1.16877	-0.23145
0.45472	-0.86914
0.02119	-0.00188
0.14870	0.76336
-0.10631	0.50828
-0.08081	0.61031
-0.15732	0.81437
0.17421	0.30422
-0.28482	-0.48652
-0.05531	-1.20074
-0.36133	0.17668
-0.28482	0.91640
0.45472	0.76336
0.83725	-0.02739
0.17421	-0.00188
0.58223	0.02363
0.35272	-0.30797
0.27621	0.63582
-0.18282	0.27871
0.81175	0.30422
1.32178	-0.20594
-3.21751	-0.86914
-0.31033	0.32972
1.24527	1.35003
0.86275	0.76336
-0.51434	-1.14973
1.01576	0.12566
0.91375	0.53379
-0.79486	0.10015
-0.74385	0.20219
0.12320	0.17668
1.11776	-0.07840
1.32178	-0.15492
-0.23382	0.48277
-0.23382	0.15117
-0.43783	0.30422
-1.15188	0.40625
0.58223	-0.05289
0.42922	-0.05289
-0.56534	-0.00188
-0.33583	0.04914
0.35272	0.32972
1.06676	-0.51203
1.09226	0.15117
0.07220	0.63582
0.30171	0.76336
0.45472	0.02363
0.07220	-0.15492
0.07220	-0.30797
-0.61635	0.12566
0.45472	0.63582
0.07220	0.35523
-0.82036	0.17668
-0.43783	-0.35899
1.32178	0.99292
1.44929	0.10015
-0.59084	0.25320
-0.92237	-0.74160
-1.22839	-0.28246
0.99026	0.58480
1.16877	-0.12942
1.14327	0.35523
0.63323	0.35523
0.02119	0.30422
0.32721	0.17668
0.50573	0.22769
-0.02981	0.25320
-0.56534	0.04914
0.63323	-0.07840
-0.00431	0.38074
-0.48884	-0.12942
0.93925	1.01843
2.41835	0.27871
-2.70748	-0.33348
-2.50347	-0.30797
0.91375	-0.56305
-0.08081	-0.00188
1.27078	-0.05289
1.14327	0.55929
0.30171	0.73785
1.75531	0.20219
-0.23382	0.22769
-1.63641	0.27871
0.50573	0.40625
0.27621	0.35523
0.14870	-0.00188
0.07220	-0.02739
0.02119	-0.10391
-0.13181	-0.35899
0.37822	0.35523
0.25071	0.02363
0.22521	0.45726
0.17421	0.35523
0.09770	0.15117
-0.08081	-0.18043
0.02119	0.12566
0.17421	0.04914
0.32721	0.20219
0.30171	0.38074
0.63323	0.20219
1.29628	0.35523
-0.64185	-0.63957
-1.45790	-0.20594
-1.22839	-0.18043
1.21977	-0.18043
1.55129	0.81437
-0.08081	1.27351
0.35272	0.30422
0.55673	0.07465
0.12320	-0.43551
0.76074	-0.25695
-0.53984	0.32972
2.46935	0.50828
0.22521	0.32972
-3.80405	-0.38449
-0.20832	-0.35899
-0.15732	0.15117
0.35272	0.25320
1.24527	0.76336
1.57679	0.50828
0.42922	0.20219
0.12320	0.07465
-1.53441	0.55929
0.73524	0.81437
0.14870	-0.51203
1.11776	-0.69059
0.09770	-0.43551
0.25071	0.07465
-0.15732	0.40625
0.02119	0.02363
0.12320	0.20219
-0.10631	0.07465
0.19971	-0.02739
0.32721	0.83988
0.04670	0.35523
-0.41233	0.22769
0.22521	-0.10391
-0.02981	-0.15492
-0.00431	0.27871
0.25071	-0.02739
0.35272	0.15117
1.14327	0.71234
-0.36133	0.20219
-0.53984	-0.05289
0.42922	-0.99668
1.06676	0.35523
0.12320	0.32972
-0.92237	0.32972
0.40372	-0.15492
0.37822	0.12566
0.63323	0.22769
0.04670	0.15117
0.70974	0.76336
-0.48884	0.55929
-1.38139	0.66132
2.13783	-0.30797
0.78624	-0.38449
-4.05907	-0.53754
0.09770	0.10015
0.88825	0.50828
1.37278	1.35003
0.58223	0.10015
0.35272	0.15117
0.42922	-0.86914
0.65874	-0.79262
-0.31033	0.27871
-0.79486	0.50828
0.35272	0.76336
0.37822	0.20219
0.17421	-0.00188
0.09770	0.07465
0.32721	0.22769
-0.02981	-0.23145
-0.97337	-0.12942
-0.08081	0.45726
1.06676	0.20219
0.14870	1.06945
-0.48884	0.45726
0.53123	-1.43031
0.50573	-0.00188
-0.02981	0.10015
0.42922	0.38074
1.04126	0.38074
0.25071	0.63582
0.32721	0.53379
-0.64185	-0.51203
-1.22839	-0.28246
0.32721	0.04914
1.39828	0.12566
0.42922	0.30422
-1.30489	0.30422
0.58223	0.20219
0.42922	0.32972
0.86275	0.25320
-0.71835	0.27871
0.65874	0.30422
-0.31033	0.17668
0.27621	-0.25695
-0.33583	-0.00188
0.42922	-0.28246
0.45472	-0.05289
-0.23382	0.48277
0.63323	0.20219
-0.18282	0.35523
-0.31033	0.07465
0.12320	0.22769
-0.18282	0.04914
0.45472	0.73785
1.09226	0.15117
-0.02981	-0.20594
-0.10631	-0.07840
-0.02981	-0.20594
0.22521	0.43176
0.55673	-0.23145
0.91375	0.22769
-0.79486	0.43176
0.22521	0.35523
0.35272	-0.15492
0.02119	-0.63957
0.45472	0.40625
0.22521	0.38074
0.12320	0.76336
-0.53984	-0.23145
-0.02981	0.10015
0.50573	0.27871
-0.05531	0.35523
-0.25932	0.27871
0.27621	-0.20594
0.55673	-0.30797
0.68424	-0.38449
-0.41233	0.83988
0.35272	0.76336
0.07220	0.38074
-0.28482	-0.12942
-0.61635	0.27871
-0.84586	-0.76711
0.48022	-0.10391
1.57679	-0.15492
0.65874	0.63582
-0.59084	0.73785
0.02119	0.27871
1.72980	0.15117
0.25071	0.02363
-0.13181	0.02363
0.27621	0.12566
-0.02981	0.30422
-1.50890	-0.20594
0.70974	0.27871
0.76074	0.10015
-0.46334	0.35523
-1.10088	-0.35899
0.96476	-0.02739
0.32721	0.17668
-0.15732	0.50828
0.27621	0.53379
0.07220	0.35523
0.86275	0.02363
-0.33583	0.78886
-0.20832	-1.30277
0.12320	-0.97117
0.73524	0.32972
0.50573	0.83988
0.99026	1.04394
0.76074	0.30422
-2.70748	0.53379
-0.41233	0.32972
0.48022	-0.07840
0.04670	0.15117
1.32178	-0.10391
1.32178	0.53379
0.09770	-1.88945
0.99026	-0.76711
-0.20832	0.48277
-0.76936	0.99292
-0.51434	-0.02739
-0.13181	0.38074
0.17421	0.15117
0.40372	0.73785
0.93925	0.40625
-0.31033	0.07465
-0.48884	0.71234
-1.76392	-0.15492
0.76074	0.38074
0.81175	0.04914
0.73524	-0.00188
0.55673	0.07465
0.12320	0.04914
0.81175	0.12566
0.60773	0.27871
-1.30489	0.12566
0.93925	0.10015
0.12320	0.22769
-1.45790	-0.05289
0.50573	0.02363
0.53123	-0.71609
-0.43783	0.27871
0.22521	0.55929
0.70974	0.66132
0.93925	0.91640
0.42922	0.45726
-0.08081	0.55929
1.52579	-0.63957
-1.63641	0.86539
-1.53441	-0.81812
1.47479	-0.35899
0.37822	0.22769
-1.40690	-0.05289
0.09770	-0.23145
0.68424	0.71234
2.26534	0.40625
-0.05531	0.25320
-0.38683	0.32972
0.88825	0.53379
-0.82036	-0.61406
0.09770	-0.48652
0.27621	-0.79262
-0.18282	0.55929
-0.28482	0.89089
0.09770	0.45726
0.40372	0.22769
1.19427	0.20219
0.88825	0.10015
-1.10088	0.07465
0.68424	-0.12942
-1.38139	0.35523
0.19971	0.66132
0.78624	0.50828
0.30171	0.43176
-0.08081	-0.05289
-0.10631	-0.41000
1.70430	-0.38449
0.17421	-0.46102
-0.23382	-0.28246
-0.76936	0.40625
-1.15188	0.58480
0.37822	0.83988
-0.48884	0.53379
1.52579	0.89089
0.83725	-0.12942
-0.15732	-0.71609
0.22521	-0.35899
-0.08081	-0.28246
-0.00431	0.38074
0.17421	0.71234
-0.13181	0.25320
0.17421	0.73785
0.48022	-1.55785
0.09770	-1.12422
-0.31033	0.63582
0.02119	1.19699
0.27621	0.78886
0.76074	0.35523
-1.10088	0.35523
-1.55991	-0.66508
-0.05531	-0.20594
0.91375	0.73785
1.32178	0.15117
0.88825	0.35523
0.81175	-0.53754
0.14870	0.68683
0.02119	0.76336
0.17421	0.50828
-1.53441	-0.41000
-0.76936	-0.97117
1.52579	-0.58856
0.35272	0.25320
-0.53984	0.66132
0.48022	0.71234
0.25071	0.55929
0.30171	0.07465
0.68424	0.02363
-0.02981	0.12566
-0.00431	-0.10391
-0.10631	-0.10391
-0.33583	0.17668
0.22521	0.04914
0.32721	0.12566
-0.74385	0.20219
0.27621	-0.02739
1.34728	0.58480
0.68424	-0.38449
-0.25932	0.35523
-1.91693	0.55929
-0.33583	0.12566
1.16877	0.38074
0.73524	-0.23145
1.80631	-0.35899
-0.00431	0.27871
-1.96793	-0.07840
0.32721	0.27871
0.12320	0.55929
0.96476	1.01843
0.86275	0.53379
-1.04987	-0.53754
0.42922	-0.46102
-0.20832	0.25320
-1.43240	-0.74160
1.70430	0.12566
0.35272	0.22769
-0.48884	0.43176
0.55673	0.22769
-0.46334	0.45726
0.53123	0.50828
0.78624	0.30422
-0.28482	0.04914
1.11776	-0.23145
0.09770	0.38074
-0.38683	0.20219
0.40372	-0.05289
-0.00431	-0.35899
-0.51434	-0.38449
0.27621	0.50828
0.63323	0.50828
0.07220	0.38074
-0.41233	-0.05289
1.62780	0.22769
0.70974	0.22769
-2.63097	0.27871
-1.17738	0.22769
0.45472	0.10015
1.19427	0.30422
0.99026	0.02363
1.75531	-0.15492
0.42922	-0.15492
-1.10088	0.02363
0.14870	0.25320
0.25071	0.30422
-0.89686	0.10015
0.63323	0.30422
0.19971	-0.18043
-0.25932	-0.25695
-0.05531	1.04394
0.37822	1.17148
0.12320	0.55929
0.53123	-0.20594
0.35272	-0.74160
0.73524	-0.10391
-0.33583	-0.15492
0.32721	0.66132
-0.56534	0.94191
-0.94787	-0.05289
-0.99887	-0.63957
0.93925	-0.12942
0.91375	0.02363
0.63323	0.12566
0.42922	0.35523
0.22521	0.76336
1.27078	0.45726
0.81175	0.04914
-1.58541	-0.12942
-2.12094	-0.33348
0.02119	-0.02739
1.32178	0.22769
0.86275	0.30422
1.34728	0.55929
0.81175	0.48277
-1.76392	0.58480
0.09770	-0.07840
-0.02981	-0.46102
-0.38683	-0.02739
0.60773	-0.05289
0.32721	0.10015
0.32721	0.25320
0.88825	0.45726
0.14870	0.10015
-1.17738	0.40625
0.60773	-0.18043
-0.99887	0.25320
0.14870	0.10015
-0.13181	0.73785
0.55673	0.30422
0.65874	0.22769
0.73524	-0.63957
0.63323	-0.23145
0.50573	-0.10391
-0.66735	0.40625
0.42922	-0.07840
0.42922	0.58480
-1.40690	0.81437
-0.53984	-0.02739
-0.08081	0.22769
0.40372	0.35523
1.04126	0.04914
0.07220	0.02363
1.04126	-0.15492
0.73524	0.55929
-1.66191	-0.43551
-0.13181	0.32972
0.40372	0.38074
0.99026	0.53379
0.60773	-0.00188
-0.38683	-0.02739
-0.00431	-0.33348
1.27078	0.20219
-0.74385	0.55929
-1.73842	0.35523
1.65330	-0.18043
0.76074	-0.25695
-0.99887	-0.07840
0.14870	0.04914
0.78624	0.43176
-0.08081	0.61031
0.19971	0.53379
1.42379	0.61031
0.83725	-0.15492
-1.33039	-0.05289
-0.82036	0.32972
-0.28482	-0.30797
0.55673	0.04914
-0.41233	-0.25695
0.73524	0.27871
1.16877	0.68683
2.44385	0.32972
-0.31033	0.20219
-3.24301	-0.12942
0.60773	0.04914
0.07220	-0.02739
2.18883	-0.30797
-0.23382	-0.07840
-2.06994	0.07465
0.60773	0.53379
0.53123	0.66132
0.12320	0.25320
0.40372	0.12566
0.93925	0.04914
0.40372	0.12566
-0.66735	0.38074
0.60773	-0.10391
0.48022	-0.00188
-0.79486	0.17668
-1.10088	-0.02739
0.60773	0.45726
0.60773	0.17668
0.45472	0.63582
0.37822	-0.18043
0.37822	0.10015
-0.28482	-0.66508
1.16877	-0.81812
1.29628	0.27871
-3.60004	0.76336
-0.82036	1.37554
0.45472	0.55929
2.06133	-0.35899
0.25071	-0.23145
0.32721	0.10015
0.48022	0.20219
0.25071	0.15117
0.14870	-0.00188
0.78624	0.07465
0.30171	0.10015
-0.84586	0.22769
0.32721	0.40625
0.63323	-0.05289
0.09770	0.68683
-1.33039	-0.15492
0.14870	0.10015
-0.02981	-0.18043
0.50573	0.02363
0.58223	0.07465
0.07220	0.40625
0.42922	-0.15492
0.83725	0.04914
0.37822	0.30422
-0.43783	0.32972
-1.35589	0.35523
0.07220	0.10015
-0.23382	0.15117
0.63323	0.07465
0.86275	0.17668
1.29628	-0.00188
0.73524	-0.05289
-0.48884	0.27871
-0.48884	0.10015
0.65874	0.20219
0.48022	0.43176
-0.43783	0.02363
0.30171	-0.30797
0.27621	0.10015
0.30171	0.15117
1.44929	0.22769
-2.52897	0.12566
-2.45246	0.20219
0.53123	0.02363
1.19427	0.10015
1.39828	0.71234
1.72980	0.40625
-0.79486	-0.56305
0.02119	0.17668
0.27621	0.17668
0.88825	0.15117
-0.20832	0.27871
-0.23382	-0.07840
0.70974	-0.23145
-1.40690	0.55929
-0.99887	0.10015
0.88825	0.35523
1.37278	0.38074
0.76074	0.53379
0.48022	0.15117
0.63323	-0.41000
-1.20288	-0.18043
-1.35589	0.25320
0.65874	0.22769
0.50573	0.17668
0.53123	0.15117
0.35272	0.10015
-0.08081	0.07465
0.27621	0.12566
0.30171	0.22769
-0.08081	-0.00188
1.24527	0.43176
0.19971	0.20219
-2.57997	0.55929
0.35272	-0.00188
0.22521	-0.12942
1.57679	0.38074
0.07220	0.10015
-0.18282	-0.20594
0.58223	-0.46102
0.12320	-0.35899
-0.79486	0.22769
1.27078	0.10015
-0.02981	0.32972
-1.10088	1.24800
0.45472	0.55929
1.14327	0.48277
-0.61635	0.12566
0.37822	0.04914
-0.28482	-0.25695
0.48022	-0.15492
0.32721	-0.12942
-0.00431	-0.30797
-0.18282	0.15117
0.32721	0.50828
-0.02981	-0.18043
0.07220	0.04914
0.09770	0.27871
0.09770	0.12566
0.42922	0.40625
-0.20832	0.30422
-0.59084	-0.15492
0.65874	0.12566
0.30171	0.45726
-0.28482	1.01843
0.65874	0.02363
1.32178	-0.20594
0.37822	-0.46102
-1.50890	0.12566
-1.25389	0.04914
-0.41233	0.22769
1.16877	0.17668
1.11776	0.22769
0.60773	0.04914
-0.25932	0.07465
0.07220	0.07465
0.25071	0.25320
0.22521	0.27871
-0.05531	0.15117
1.09226	-0.30797
-0.66735	-0.23145
-0.89686	0.22769
-1.20288	0.17668
0.50573	0.43176
0.63323	0.94191
0.07220	0.38074
1.42379	0.32972
0.09770	-0.00188
-0.13181	-0.33348
1.52579	-0.33348
0.19971	-0.92016
-1.20288	0.32972
0.68424	0.50828
1.11776	0.40625
-1.02437	0.35523
0.48022	-0.10391
-0.13181	-0.51203
-0.66735	0.50828
-0.28482	0.94191
-0.31033	0.86539
1.34728	-0.33348
0.27621	0.35523
-0.66735	-0.58856
1.62780	0.07465
0.32721	0.25320
-1.20288	0.17668
0.14870	-0.07840
0.50573	-0.25695
0.88825	0.76336
1.55129	0.73785
-0.82036	-0.41000
-1.07538	-0.23145
0.60773	-0.18043
0.48022	0.68683
-0.38683	-0.10391
1.50029	0.50828
0.40372	0.45726
-0.89686	-0.86914
0.35272	-0.30797
-0.61635	0.91640
1.47479	0.61031
-0.08081	0.40625
-1.91693	0.55929
1.09226	0.22769
1.27078	0.12566
-1.45790	-0.41000
-0.02981	-0.23145
0.12320	-0.15492
0.22521	0.25320
-0.25932	0.12566
1.42379	-0.51203
0.93925	0.45726
-0.10631	0.86539
1.32178	0.38074
0.48022	0.07465
-0.13181	-0.18043
0.37822	0.22769
-0.18282	0.27871
-0.15732	0.17668
-1.25389	0.12566
-0.79486	-0.00188
0.60773	1.06945
-0.05531	0.45726
1.04126	-0.33348
-0.00431	-0.48652
0.53123	0.15117
0.73524	-0.58856
0.58223	0.12566
-1.35589	-0.28246
0.73524	0.07465
0.99026	0.68683
-1.91693	0.22769
0.45472	0.63582
0.55673	-0.05289
0.58223	0.76336
0.86275	0.78886
0.32721	0.17668
-0.28482	-0.28246
-0.41233	-0.25695
-1.07538	-0.12942
0.07220	0.04914
0.58223	0.35523
0.93925	-0.15492
-0.05531	0.22769
-0.08081	0.17668
-0.36133	0.27871
1.34728	0.48277
0.04670	-0.00188
-1.20288	-0.07840
0.32721	0.17668
-0.87136	0.35523
-0.08081	-0.15492
0.93925	0.40625
0.70974	0.10015
0.96476	-0.02739
1.04126	-0.05289
0.73524	-0.35899
-1.91693	0.27871
-0.13181	0.91640
-0.13181	-0.30797
-0.41233	-0.10391
0.60773	0.22769
1.14327	0.99292
1.14327	0.27871
-1.12638	0.17668
-0.00431	-0.10391
-0.33583	-0.35899
-0.46334	0.10015
0.45472	-0.05289
0.42922	0.20219
-0.02981	-0.20594
1.14327	0.04914
-0.43783	0.25320
-0.71835	0.40625
0.32721	0.22769
0.32721	0.10015
0.58223	0.10015
0.73524	-0.25695
-0.13181	0.53379
-1.40690	0.76336
0.14870	0.10015
0.45472	-0.15492
0.93925	0.15117
0.81175	-0.15492
-0.02981	-0.33348
0.35272	0.38074
-1.55991	0.66132
-0.28482	-0.25695
-0.38683	0.61031
1.04126	0.02363
1.44929	0.17668
1.24527	0.04914
0.55673	0.10015
-0.36133	-0.33348
0.22521	0.32972
-0.46334	0.25320
-0.89686	0.55929
-1.07538	0.22769
0.22521	-0.12942
1.60230	0.12566
-0.41233	-0.12942
-1.55991	-0.25695
1.32178	-0.30797
0.93925	0.43176
0.73524	0.83988
0.02119	0.02363
1.37278	0.35523
-1.17738	0.15117
-1.10088	0.32972
0.96476	-0.18043
0.42922	-0.15492
0.04670	0.20219
-0.23382	-0.02739
-1.25389	0.25320
0.68424	0.91640
0.96476	0.25320
0.58223	-0.07840
0.32721	0.07465
0.73524	0.22769
-0.02981	-0.20594
-0.38683	-0.61406
0.02119	-0.18043
0.02119	0.20219
0.19971	0.63582
-0.00431	0.35523
0.48022	0.07465
-0.51434	0.07465
-0.69285	-0.20594
-0.00431	0.12566
0.76074	0.68683
1.11776	0.55929
-0.23382	0.76336
0.09770	-0.28246
0.76074	-0.56305
0.22521	-0.63957
-0.13181	0.17668
1.24527	0.71234
1.19427	1.06945
-2.47797	0.38074
-0.31033	-0.46102
0.63323	-0.25695
-0.69285	-0.23145
0.25071	0.30422
1.11776	0.25320
0.27621	-0.07840
0.45472	-0.33348
0.35272	1.22250
0.14870	0.58480
-0.02981	-0.07840
0.25071	-0.35899
-1.02437	-0.15492
-0.69285	0.32972
0.58223	0.38074
-0.66735	-0.10391
0.60773	0.20219
0.91375	0.40625
0.60773	0.83988
-0.84586	0.17668
0.07220	-0.38449
0.73524	-0.33348
1.14327	0.38074
-0.02981	-0.05289
-1.53441	0.66132
1.39828	-0.61406
-0.84586	-0.25695
-1.63641	0.58480
1.24527	0.43176
2.11233	-0.12942
1.55129	-0.51203
-0.36133	0.55929
-1.40690	0.55929
0.40372	0.83988
-1.55991	0.61031
0.45472	0.07465
0.70974	-0.23145
1.29628	-0.48652
-0.36133	-0.15492
0.99026	0.43176
0.22521	0.53379
-0.51434	-0.02739
-0.43783	0.04914
0.68424	-0.25695
0.12320	-0.00188
-0.28482	0.25320
0.19971	-0.43551
0.53123	0.30422
0.07220	1.27351
-0.31033	1.40105
1.21977	-0.46102
0.42922	-0.71609
-0.89686	-0.66508
-0.66735	0.40625
0.37822	0.25320
1.04126	0.35523
0.78624	-0.25695
0.25071	-0.07840
-0.31033	0.15117
-0.08081	0.45726
-0.02981	1.01843
1.88281	0.04914
0.22521	-0.18043
-3.72755	-0.15492
-0.76936	-0.23145
1.14327	0.53379
2.11233	0.15117
1.21977	-0.12942
-0.69285	0.55929
0.22521	0.30422
-0.28482	-0.35899
-0.02981	-0.00188
0.53123	-0.23145
0.63323	-0.02739
0.42922	0.10015
-0.33583	0.53379
0.55673	0.55929
-1.50890	0.02363
0.60773	-0.00188
0.88825	0.17668
-0.46334	0.45726
0.14870	0.17668
0.12320	0.30422
-0.46334	-0.66508
0.86275	0.17668
0.50573	0.30422
0.09770	0.22769
-0.48884	0.07465
0.32721	0.17668
0.53123	0.53379
0.35272	-0.02739
-0.15732	-0.46102
0.50573	0.10015
0.07220	0.94191
-0.28482	0.22769
-0.41233	0.22769
0.22521	-0.74160
0.65874	0.04914
0.40372	0.63582
0.27621	0.27871
-0.74385	-0.35899
0.22521	-0.51203
0.17421	0.73785
0.83725	0.53379
-0.00431	0.17668
-0.38683	0.04914
0.68424	-0.05289
0.70974	0.27871
1.04126	-0.02739
0.30171	-0.05289
-0.43783	-0.25695
0.02119	0.91640
0.50573	0.27871
-0.69285	-0.10391
-0.20832	-0.20594
-0.48884	0.32972
0.50573	0.81437
0.30171	0.55929
0.02119	0.10015
0.17421	-0.02739
0.35272	-0.12942
1.06676	0.04914
0.55673	0.07465
0.07220	-0.38449
-1.04987	0.15117
0.07220	0.25320
0.96476	0.27871
-1.48340	0.32972
0.40372	0.20219
1.37278	0.04914
0.83725	-0.07840
-1.55991	0.30422
-0.36133	0.73785
1.55129	0.45726
0.22521	-0.00188
0.58223	-0.18043
0.09770	-0.38449
0.76074	-0.15492
1.47479	0.55929
-0.71835	0.81437
-2.35046	0.15117
-0.71835	-0.10391
1.98482	-0.46102
0.27621	-0.15492
-0.56534	0.30422
0.02119	0.50828
0.76074	0.43176
1.60230	0.66132
-0.13181	-0.33348
-0.79486	-0.23145
0.02119	-0.35899
0.35272	0.76336
-0.64185	0.86539
0.68424	0.22769
0.42922	-0.48652
-0.15732	-0.15492
0.53123	-0.05289
0.40372	0.07465
1.34728	-0.10391
0.12320	0.15117
-1.73842	0.66132
0.37822	0.48277
-1.04987	0.15117
-0.79486	0.15117
1.09226	0.91640
0.81175	-0.18043
0.63323	0.10015
0.42922	0.02363
0.32721	0.04914
1.34728	0.20219
-0.48884	0.15117
-0.66735	-0.12942
0.07220	-0.12942
-0.41233	-0.00188
-2.01894	0.17668
0.53123	0.30422
1.39828	0.17668
0.09770	0.20219
0.58223	0.17668
0.53123	-0.15492
1.70430	0.63582
0.14870	0.63582
-1.66191	-0.41000
-1.07538	-0.10391
0.78624	-0.89465
0.70974	0.71234
0.25071	0.55929
0.50573	0.71234
0.40372	-0.28246
-0.38683	0.45726
-0.02981	0.45726
0.65874	0.58480
0.12320	-0.23145
0.19971	-0.43551
-0.43783	-0.07840
-1.43240	0.27871
0.25071	0.35523
1.11776	0.02363
0.88825	-0.20594
0.32721	-0.30797
-0.05531	0.02363
-0.64185	0.12566
0.50573	0.55929
0.88825	1.93671
0.25071	0.15117
-0.53984	-0.38449
0.32721	-0.07840
0.19971	-0.58856
0.37822	0.38074
-0.05531	-0.46102
0.25071	0.12566
-0.43783	0.38074
-0.41233	0.25320
-0.28482	0.32972
-0.00431	0.02363
0.70974	0.35523
0.55673	0.35523
0.83725	0.48277
-0.82036	-0.30797
-2.57997	0.17668
1.62780	0.22769
0.40372	0.66132
1.57679	0.02363
1.39828	0.12566
0.76074	-0.18043
-0.99887	-0.66508
-0.00431	-0.18043
-0.00431	0.10015
-0.41233	0.40625
-0.13181	0.22769
0.65874	0.15117
0.81175	0.35523
0.78624	-0.33348
-1.53441	1.55410
-1.53441	0.55929
-0.71835	0.07465
1.32178	-0.86914
1.27078	0.38074
1.39828	-0.33348
0.96476	0.35523
-0.59084	0.45726
1.01576	0.38074
0.32721	0.63582
-0.74385	0.20219
0.12320	0.27871
-0.61635	-0.23145
1.04126	-0.23145
0.88825	-0.53754
-0.33583	0.30422
1.90832	0.61031
-2.01894	0.04914
-2.55447	0.07465
1.95932	0.25320
1.52579	-0.51203
-1.71292	0.43176
-0.53984	0.50828
2.01032	0.71234
1.14327	0.07465
-0.00431	0.10015
1.83181	0.35523
-0.13181	0.45726
-3.85505	0.10015
1.44929	0.04914
1.47479	-0.12942
0.91375	-0.15492
-0.97337	-0.07840
-0.36133	0.20219
0.78624	0.27871
0.42922	0.63582
0.02119	0.04914
0.12320	0.17668
0.93925	-0.43551
-0.46334	-0.12942
-1.10088	0.20219
0.14870	0.38074
1.04126	0.66132
0.17421	0.32972
1.14327	0.40625
-1.55991	-0.30797
-0.23382	-0.28246
0.99026	-0.15492
-0.28482	0.22769
-0.13181	0.25320
0.53123	0.55929
0.09770	0.02363
0.91375	0.61031
0.73524	0.53379
-0.10631	-0.51203
-0.53984	-0.66508
-0.10631	0.10015
0.04670	0.91640
0.48022	-0.35899
-1.02437	-0.07840
1.14327	-0.15492
0.45472	0.27871
-1.12638	0.71234
0.17421	0.45726
0.96476	0.30422
0.35272	0.25320
0.93925	0.15117
0.32721	0.07465
0.04670	-0.05289
0.78624	0.30422
-1.53441	-0.07840
-1.17738	-0.58856
-0.25932	0.17668
0.50573	0.45726
1.65330	0.32972
1.80631	0.10015
1.42379	0.15117
-4.97713	0.04914
-1.04987	0.02363
1.29628	0.38074
1.55129	0.71234
1.72980	0.27871
-0.08081	-0.10391
0.17421	-0.00188
0.76074	-0.46102
0.27621	-0.23145
-0.41233	-0.02739
0.96476	0.83988
-1.58541	0.48277
0.70974	-0.02739
-0.59084	-0.33348
-1.38139	0.12566
-0.13181	0.15117
1.04126	0.10015
1.21977	0.22769
-1.15188	0.32972
0.48022	0.63582
0.81175	-0.56305
0.09770	0.12566
0.63323	0.66132
-0.05531	0.25320
-1.25389	0.91640
0.93925	0.53379
0.02119	-0.48652
1.14327	-0.56305
0.27621	-0.30797
0.14870	-0.05289
0.53123	0.30422
-0.38683	0.25320
-0.33583	0.22769
-0.23382	0.10015
0.17421	0.35523
0.02119	-0.00188
-0.13181	0.15117
0.37822	0.25320
0.12320	0.50828
0.42922	0.27871
0.17421	0.07465
0.19971	0.04914
-0.23382	-0.10391
-0.82036	0.30422
0.09770	0.27871
0.37822	-0.12942
0.17421	0.20219
2.06133	0.10015
-0.99887	0.32972
-0.92237	-0.07840
0.02119	-0.18043
0.96476	0.38074
0.42922	0.35523
0.63323	0.20219
-0.20832	0.22769
0.48022	0.25320
0.40372	0.48277
-0.28482	-0.71609
0.04670	-0.00188
1.16877	0.66132
-2.09544	0.55929
-1.55991	0.07465
0.83725	-0.28246
0.93925	-0.74160
0.63323	0.25320
1.11776	0.48277
1.29628	-0.00188
-1.55991	0.07465
-1.40690	0.10015
-0.02981	0.45726
0.30171	1.04394
0.65874	0.48277
1.67880	-0.05289
-0.25932	-0.00188
0.83725	0.15117
0.86275	0.02363
1.14327	0.40625
-2.09544	-0.25695
-1.07538	0.04914
1.34728	0.15117
1.04126	-0.15492
-0.51434	-0.18043
-0.64185	0.04914
0.22521	0.53379
-0.18282	-0.07840
0.27621	0.66132
1.14327	0.27871
0.12320	-0.23145
-0.18282	0.55929
0.32721	0.17668
0.40372	-0.05289
-0.00431	0.07465
0.32721	0.04914
-0.64185	0.04914
-0.46334	0.12566
0.60773	0.45726
0.55673	0.04914
-0.43783	0.45726
0.27621	-0.02739
0.88825	0.15117
0.19971	0.02363
-0.36133	-0.02739
0.42922	0.73785
0.17421	-0.18043
0.32721	-0.05289
1.95932	-0.00188
-1.40690	-0.15492
-0.28482	0.50828
-0.18282	0.81437
-1.73842	0.83988
0.45472	0.35523
1.88281	-0.66508
1.47479	-0.25695
-0.23382	-0.20594
-0.05531	0.17668
-0.02981	0.48277
0.12320	0.48277
-0.00431	0.45726
0.58223	-0.10391
0.27621	-0.41000
0.58223	-0.66508
-1.58541	0.27871
-0.69285	0.50828
0.27621	0.38074
1.11776	0.50828
-0.38683	-0.02739
-1.10088	0.27871
1.29628	0.25320
0.93925	0.48277
-0.36133	0.17668
-1.02437	-0.10391
1.06676	-0.05289
0.88825	-0.25695
0.22521	0.07465
0.83725	0.48277
-0.66735	0.32972
-0.66735	0.12566
0.30171	0.04914
0.09770	-0.35899
0.32721	0.17668
0.45472	0.15117
-0.20832	0.30422
0.22521	0.25320
0.17421	0.43176
0.37822	0.25320
0.22521	-0.28246
-0.08081	-0.38449
-0.13181	0.30422
0.07220	0.81437
0.27621	0.86539
-0.18282	-0.05289
0.25071	-0.48652
0.04670	-0.25695
-0.05531	-0.28246
0.93925	-0.20594
0.37822	0.76336
0.22521	0.45726
-0.28482	0.30422
-0.23382	0.25320
0.45472	0.30422
0.40372	-0.43551
0.86275	-0.23145
1.72980	-0.25695
-1.55991	0.20219
-2.50347	0.38074
0.86275	0.45726
1.21977	0.83988
0.81175	0.20219
0.27621	0.02363
0.53123	0.07465
0.55673	0.30422
-0.18282	-0.30797
-0.13181	-0.33348
-0.33583	0.07465
-0.79486	0.38074
0.35272	0.22769
-0.64185	0.02363
-1.10088	0.27871
0.58223	0.17668
1.27078	0.22769
1.16877	-0.05289
-0.00431	0.12566
-0.51434	0.15117
0.19971	0.45726
0.27621	0.53379
0.50573	0.20219
0.42922	0.12566
0.25071	-0.15492
0.07220	0.12566
-0.46334	0.55929
0.04670	0.71234
0.12320	-0.00188
0.17421	-0.43551
0.22521	-1.20074
-0.92237	-0.35899
-0.02981	0.50828
0.48022	0.55929
0.99026	0.22769
0.48022	0.35523
0.25071	0.45726
0.09770	0.48277
0.48022	-0.02739
0.78624	0.12566
-0.53984	-0.20594
-1.33039	0.12566
1.24527	0.53379
-0.53984	0.73785
-1.27939	-0.18043
0.55673	-0.28246
0.88825	0.07465
0.76074	0.30422
0.53123	0.07465
0.42922	0.15117
0.22521	0.15117
0.04670	0.15117
0.14870	0.20219
0.17421	0.38074
-0.08081	0.30422
0.96476	-0.05289
-0.02981	0.22769
-0.89686	0.02363
0.91375	-0.15492
-2.12094	-0.05289
-2.14644	0.22769
1.29628	0.71234
1.39828	-0.28246
1.75531	0.15117
0.30171	0.15117
-0.15732	0.20219
-0.02981	-0.05289
-0.05531	0.15117
0.65874	0.02363
-0.43783	0.10015
-0.18282	1.01843
0.32721	-0.56305
-0.28482	0.30422
0.35272	0.17668
-1.15188	0.22769
0.12320	0.02363
1.16877	0.25320
1.01576	0.66132
-0.71835	0.10015
0.09770	-0.10391
0.02119	-0.12942
0.99026	0.10015
2.06133	-0.05289
-1.35589	-0.20594
-2.06994	-0.12942
1.75531	0.30422
0.12320	1.14597
-0.33583	0.63582
0.91375	0.30422
0.30171	0.30422
0.70974	-0.46102
0.83725	-0.41000
-0.41233	-0.25695
-0.87136	-0.30797
0.19971	0.45726
0.73524	0.83988
-0.71835	0.40625
-0.00431	-0.41000
-0.02981	0.04914
0.55673	0.32972
0.83725	0.20219
0.25071	-0.00188
-0.00431	0.04914
-0.38683	-0.30797
0.32721	0.20219
0.32721	0.10015
0.19971	0.43176
0.83725	0.53379
0.63323	0.45726
-0.53984	0.10015
-1.58541	-0.02739
-0.56534	-0.12942
0.53123	-0.15492
0.53123	0.73785
1.01576	0.32972
0.88825	0.25320
-0.18282	0.12566
-0.53984	0.10015
1.72980	0.20219
0.91375	-0.41000
-2.04444	-0.38449
-0.94787	-0.15492
0.68424	0.22769
0.86275	0.58480
0.60773	0.17668
0.02119	-0.05289
0.68424	0.15117
-0.23382	0.99292
-0.15732	-0.05289
-0.82036	-0.00188
0.42922	-0.10391
0.50573	0.94191
0.88825	-0.28246
0.65874	-0.35899
-1.04987	-0.05289
-0.05531	0.30422
0.48022	0.40625
0.09770	-0.25695
0.88825	0.55929
0.27621	0.43176
-0.59084	0.48277
0.27621	0.17668
0.40372	0.10015
0.22521	-0.05289
-0.56534	0.02363
0.12320	0.07465
0.17421	0.02363
-0.15732	0.15117
0.86275	0.02363
0.68424	0.04914
-0.99887	0.25320
0.12320	0.22769
0.86275	0.17668
0.70974	-0.12942
0.42922	-0.23145
-0.56534	0.25320
-0.33583	0.30422
-0.76936	0.35523
1.21977	0.10015
-0.13181	0.07465
-0.13181	0.17668
0.50573	0.27871
0.68424	0.27871
0.53123	0.10015
0.22521	0.04914
0.07220	0.02363
-0.08081	0.83988
-0.69285	-0.23145
1.14327	-0.05289
-0.87136	0.43176
-0.89686	0.30422
0.81175	0.17668
0.86275	0.22769
0.40372	-0.63957
-0.74385	-0.41000
0.50573	0.07465
0.53123	0.43176
0.45472	1.09496
0.93925	-0.25695
0.58223	-0.10391
-2.50347	0.12566
0.09770	0.35523
1.21977	0.35523
-0.23382	0.04914
-0.38683	0.43176
0.25071	0.32972
1.32178	-0.00188
1.01576	-0.12942
-0.61635	-0.05289
0.83725	0.15117
-0.13181	0.17668
-1.15188	0.38074
-0.71835	-0.02739
0.73524	-0.02739
0.78624	0.25320
0.60773	-0.07840
0.45472	0.02363
0.19971	0.66132
0.32721	0.32972
-0.00431	0.10015
-1.38139	-0.33348
-0.20832	-0.00188
1.11776	0.66132
-0.25932	0.17668
-0.18282	0.45726
0.45472	0.30422
-0.00431	-0.05289
0.37822	-0.20594
0.76074	-0.30797
0.63323	-0.28246
-1.50890	0.43176
0.32721	1.57960
0.12320	0.61031
1.95932	-0.43551
-0.18282	-0.58856
0.14870	-0.28246
-0.53984	0.55929
-0.59084	0.25320
1.14327	-0.33348
-0.20832	-0.66508
-0.18282	0.55929
0.48022	0.43176
0.53123	0.76336
0.91375	0.25320
-0.20832	-0.05289
-0.33583	0.02363
-0.53984	-0.18043
0.14870	0.10015
0.09770	0.35523
0.60773	0.27871
0.14870	0.45726
0.32721	0.27871
0.04670	-0.00188
0.78624	0.04914
-0.13181	-0.28246
-1.61091	0.25320
0.65874	0.32972
0.50573	0.45726
0.63323	0.15117
0.53123	-0.05289
0.48022	0.55929
0.30171	0.10015
-1.78942	0.15117
-0.69285	-0.12942
1.32178	-0.28246
0.09770	0.48277
-0.18282	-0.38449
0.93925	0.10015
0.68424	0.07465
0.40372	0.50828
-0.31033	0.20219
-1.07538	-0.10391
0.63323	-0.20594
-0.43783	0.15117
-0.25932	1.55410
0.83725	0.96742
0.58223	0.04914
1.04126	-0.79262
-0.43783	-0.41000
0.76074	0.04914
1.14327	0.22769
-2.63097	-0.07840
-0.05531	0.04914
1.57679	0.22769
0.83725	0.32972
-0.82036	0.45726
0.09770	0.48277
0.27621	0.30422
0.50573	-0.12942
0.42922	0.10015
0.30171	0.20219
0.12320	0.10015
0.17421	-0.00188
-0.36133	-0.18043
-0.02981	-0.28246
0.60773	0.71234
0.58223	0.02363
-0.66735	0.35523
-0.15732	0.40625
-0.41233	0.38074
1.01576	-0.00188
1.19427	0.20219
-0.69285	-0.28246
-0.84586	0.40625
0.53123	0.07465
0.78624	0.02363
0.53123	-0.10391
0.65874	0.68683
-0.89686	0.27871
-0.92237	0.30422
-0.23382	-0.15492
1.11776	-0.28246
0.04670	-0.12942
0.27621	-0.05289
0.68424	0.10015
0.12320	0.25320
0.30171	0.58480
-0.18282	-0.15492
-0.02981	0.45726
0.02119	0.22769
0.22521	0.25320
0.19971	0.30422
0.02119	0.45726
-0.84586	0.20219
0.07220	0.12566
0.37822	-0.07840
0.91375	-0.15492
-0.05531	0.20219
-0.18282	0.15117
-0.20832	-0.02739
1.04126	0.22769
0.25071	-0.00188
-0.46334	0.22769
0.32721	0.10015
-0.33583	0.35523
0.30171	0.27871
0.42922	0.53379
0.07220	-0.18043
0.30171	0.04914
1.21977	-0.02739
-0.48884	-0.05289
-1.07538	0.12566
0.12320	0.22769
0.88825	0.32972
-0.20832	0.53379
-0.08081	0.10015
0.37822	-0.05289
0.32721	0.10015
0.12320	-0.18043
0.19971	-0.07840
0.37822	-0.10391
-0.08081	0.48277
0.17421	0.53379
0.12320	0.15117
0.53123	-0.02739
-0.05531	0.30422
0.37822	-0.02739
-0.51434	0.12566
-1.86593	0.02363
-0.15732	-0.66508
0.81175	0.66132
1.11776	1.09496
1.21977	0.22769
1.55129	0.20219
0.50573	-0.30797
-0.61635	-0.10391
-0.66735	-0.02739
-0.02981	0.20219
-0.08081	0.40625
0.37822	0.15117
0.45472	0.04914
-0.25932	0.32972
0.70974	0.12566
-0.94787	-0.00188
0.02119	0.15117
0.32721	0.38074
1.04126	0.35523
-0.15732	0.22769
-0.87136	-0.74160
-0.13181	-0.30797
2.62236	0.27871
-0.20832	0.20219
-3.19201	0.32972
0.88825	0.43176
1.39828	0.73785
1.09226	0.48277
0.88825	0.32972
0.96476	-0.00188
-0.05531	-0.43551
-0.18282	-0.10391
0.07220	-0.02739
0.12320	0.12566
0.12320	0.27871
-0.87136	0.10015
-0.43783	0.10015
-0.08081	0.35523
0.17421	0.45726
0.42922	0.15117
-0.02981	-0.02739
0.30171	-0.05289
0.93925	-0.25695
-0.74385	-0.05289
-0.02981	0.20219
0.60773	0.04914
0.73524	0.12566
0.76074	1.27351
-0.02981	0.45726
-0.33583	0.17668
-0.02981	-0.48652
-0.23382	-0.66508
0.35272	0.30422
1.14327	0.63582
-0.43783	0.17668
-0.94787	0.04914
0.40372	-0.07840
0.22521	-0.35899
0.53123	0.10015
-0.28482	0.53379
0.19971	0.53379
0.60773	0.30422
-0.10631	0.04914
0.30171	0.10015
0.17421	0.32972
-0.33583	-0.02739
0.78624	0.15117
1.34728	0.35523
-1.61091	0.04914
-0.94787	0.22769
-1.04987	-0.07840
0.27621	0.10015
1.62780	0.02363
0.93925	0.35523
1.04126	-0.00188
0.19971	0.40625
0.32721	0.30422
-0.20832	0.48277
-0.48884	0.20219
0.17421	-0.33348
0.27621	-0.15492
-0.82036	0.02363
0.19971	-0.00188
0.02119	0.12566
0.22521	0.04914
0.50573	0.55929
0.22521	0.55929
-0.02981	0.40625
0.45472	0.45726
-0.08081	-0.10391
0.02119	-0.74160
0.40372	-0.23145
0.83725	0.04914
-0.02981	0.30422
-0.36133	0.30422
0.35272	0.58480
0.86275	-0.05289
-0.05531	1.12046
-1.35589	0.15117
-0.53984	-0.15492
0.48022	-0.46102
0.83725	-0.66508
0.65874	0.10015
0.81175	0.61031
0.04670	0.81437
0.07220	0.15117
0.02119	0.02363
0.07220	-0.18043
0.96476	0.04914
0.63323	0.02363
-2.83499	0.25320
-0.38683	0.35523
1.24527	0.10015
0.37822	0.15117
0.19971	0.15117
0.83725	0.53379
-0.08081	-0.20594
-0.13181	0.20219
0.02119	0.27871
1.24527	-0.02739
0.32721	0.04914
-2.42696	0.04914
0.58223	0.15117
1.11776	-0.07840
0.76074	0.32972
0.27621	0.04914
-0.99887	-0.05289
0.09770	0.17668
0.30171	0.30422
0.25071	0.48277
0.19971	0.78886
0.04670	0.04914
0.09770	-0.33348
0.81175	0.32972
0.07220	0.27871
-0.53984	0.07465
0.93925	-0.30797
-0.08081	-0.05289
-1.40690	0.63582
0.42922	0.17668
0.32721	-0.33348
0.58223	-0.35899
0.12320	0.73785
0.32721	0.55929
0.17421	0.15117
0.32721	0.12566
0.17421	-0.07840
0.22521	-0.30797
0.27621	-0.33348
0.12320	0.20219
0.14870	0.50828
-0.25932	0.27871
-0.13181	0.55929
-0.74385	-0.05289
0.27621	0.22769
1.01576	0.78886
1.34728	0.27871
0.50573	-0.15492
-1.73842	-0.33348
-0.38683	-0.43551
0.25071	-0.15492
1.24527	0.30422
0.88825	0.30422
0.12320	0.22769
0.09770	0.27871
0.32721	0.15117
-0.31033	0.25320
-0.15732	0.25320
0.45472	0.04914
-0.02981	0.10015
-0.94787	-0.05289
-0.71835	0.15117
0.17421	0.27871
0.76074	0.55929
0.40372	-0.15492
0.55673	0.10015
0.27621	0.25320
0.53123	0.04914
0.27621	0.15117
0.22521	0.07465
-0.08081	0.22769
0.17421	0.55929
0.22521	0.20219
0.37822	0.32972
0.37822	-0.02739
-0.20832	-0.25695
-1.43240	-0.69059
0.12320	0.02363
0.35272	0.35523
0.50573	0.76336
0.73524	0.35523
0.19971	0.07465
-0.13181	0.76336
0.83725	0.32972
-0.15732	-0.10391
-0.87136	-0.30797
1.16877	-0.23145
0.93925	-0.02739
0.35272	0.04914
-0.20832	0.22769
-1.55991	0.30422
-0.23382	0.53379
1.24527	0.32972
0.32721	0.32972
-2.06994	0.61031
0.78624	-0.58856
1.09226	-0.30797
1.55129	0.27871
0.65874	0.02363
-1.48340	-0.18043
0.07220	0.04914
0.32721	-0.23145
0.55673	0.58480
0.53123	0.50828
0.50573	0.83988
-0.38683	0.43176
-0.38683	-0.10391
0.12320	-0.07840
0.73524	-0.00188
-0.87136	-0.00188
-0.28482	0.25320
0.35272	-0.07840
0.81175	0.12566
-0.08081	0.12566
-0.66735	0.22769
1.47479	0.12566
0.45472	0.07465
-1.10088	0.43176
0.40372	0.17668
0.19971	-0.07840
0.53123	0.30422
0.70974	0.35523
0.12320	0.10015
-0.64185	0.10015
-0.13181	0.07465
0.12320	-0.25695
0.53123	0.30422
0.45472	-0.05289
0.09770	0.30422
0.27621	0.55929
0.25071	0.35523
-0.18282	0.35523
-0.41233	-0.28246
-0.08081	-0.23145
0.53123	-0.10391
-0.02981	0.25320
-0.76936	-0.02739
0.81175	0.50828
0.35272	0.12566
-1.04987	0.63582
2.18883	0.17668
1.04126	0.02363
-2.09544	-0.07840
-0.76936	0.04914
0.07220	0.04914
0.58223	0.12566
1.93382	0.22769
