0.12320	0.30422
0.27621	-0.00188
0.07220	0.22769
0.14870	0.10015
0.12320	0.22769
0.14870	0.10015
0.12320	0.15117
0.12320	0.04914
0.09770	0.15117
0.14870	0.10015
0.22521	0.17668
0.12320	0.07465
0.19971	0.22769
0.14870	0.07465
0.14870	0.20219
0.19971	0.02363
0.04670	0.25320
0.19971	0.04914
0.04670	0.25320
0.22521	0.02363
0.09770	0.20219
0.27621	0.10015
0.19971	0.22769
-0.00431	0.15117
0.19971	0.12566
0.19971	0.10015
-0.05531	0.07465
0.14870	0.20219
0.22521	0.15117
0.35272	0.17668
0.17421	0.20219
0.09770	0.15117
0.12320	0.25320
0.12320	0.12566
-0.00431	0.04914
0.17421	-0.02739
0.12320	0.27871
0.25071	0.12566
0.12320	0.15117
0.02119	0.20219
0.27621	0.10015
0.07220	0.22769
0.22521	0.04914
0.17421	0.12566
0.12320	0.15117
0.19971	0.17668
0.14870	-0.05289
0.09770	0.17668
0.07220	0.10015
0.35272	0.22769
0.14870	0.40625
0.17421	0.25320
0.12320	0.10015
0.02119	0.20219
0.09770	0.04914
0.09770	0.12566
0.02119	0.17668
0.12320	-0.00188
0.17421	0.22769
0.07220	0.15117
0.19971	0.10015
0.02119	0.15117
0.37822	-0.07840
0.25071	-0.00188
-0.28482	-0.05289
0.30171	0.22769
0.09770	0.53379
0.32721	0.22769
0.12320	0.15117
0.14870	0.30422
0.25071	0.10015
0.14870	0.17668
-0.00431	0.20219
0.17421	-0.02739
0.09770	0.15117
0.25071	-0.07840
0.09770	0.17668
0.12320	-0.02739
0.09770	0.25320
0.12320	0.04914
0.22521	0.17668
0.07220	0.15117
0.25071	0.27871
0.14870	0.25320
0.14870	0.02363
0.02119	0.35523
0.25071	0.04914
0.04670	0.12566
0.02119	0.30422
0.32721	-0.05289
0.07220	0.27871
0.25071	-0.05289
0.17421	0.35523
0.12320	-0.00188
0.12320	0.22769
0.25071	0.07465
0.09770	0.04914
0.07220	0.20219
0.09770	0.04914
0.04670	0.22769
0.32721	0.27871
0.22521	0.35523
0.19971	-0.02739
0.02119	0.15117
0.12320	-0.12942
0.25071	0.10015
0.17421	0.35523
0.17421	0.48277
0.22521	0.22769
0.19971	0.15117
0.17421	-0.18043
0.02119	0.63582
0.32721	0.22769
0.19971	-0.23145
0.07220	-0.15492
0.07220	-0.79262
0.14870	0.30422
0.35272	0.58480
0.07220	0.55929
0.30171	0.32972
-0.18282	0.38074
-0.08081	0.20219
-0.15732	0.07465
0.09770	0.17668
0.48022	0.22769
0.42922	-0.25695
0.32721	-0.07840
-0.10631	0.20219
0.37822	0.10015
0.42922	0.17668
0.14870	0.17668
-0.05531	0.15117
0.27621	0.20219
-0.71835	0.20219
-0.41233	0.25320
0.48022	0.04914
0.27621	0.25320
0.60773	0.02363
0.50573	0.30422
0.45472	0.15117
0.09770	0.20219
0.12320	0.02363
-0.10631	0.25320
0.09770	0.22769
-0.15732	-0.05289
-0.02981	0.12566
0.27621	0.15117
0.17421	0.35523
0.25071	-0.10391
-0.00431	0.38074
0.22521	0.20219
-0.05531	0.27871
0.40372	0.20219
0.17421	0.07465
0.60773	-0.00188
0.40372	0.25320
-0.02981	0.35523
-0.10631	0.30422
-0.02981	0.15117
-0.08081	-0.38449
-0.41233	0.12566
0.58223	0.04914
0.55673	-0.15492
0.14870	0.07465
-1.55991	0.66132
0.22521	-0.15492
0.81175	0.78886
0.99026	0.53379
0.53123	0.15117
0.40372	-0.02739
0.02119	0.25320
0.27621	0.04914
0.04670	-0.07840
0.30171	-0.15492
-0.87136	-0.07840
-0.13181	0.20219
0.09770	0.50828
0.17421	0.04914
0.12320	-0.25695
-0.05531	-0.18043
0.07220	0.35523
0.65874	0.30422
0.19971	0.58480
0.30171	0.45726
0.40372	0.15117
1.57679	0.15117
0.19971	-0.18043
-2.27395	0.15117
-0.92237	0.12566
0.81175	0.10015
0.78624	0.45726
0.68424	-0.30797
0.58223	0.22769
0.40372	0.10015
0.45472	0.22769
0.37822	0.35523
-0.00431	0.27871
-0.23382	-0.12942
-1.40690	-0.12942
-0.53984	-0.61406
0.30171	-0.00188
0.78624	0.48277
0.50573	0.55929
0.35272	0.66132
0.19971	0.71234
0.27621	0.45726
0.25071	0.12566
-0.00431	-0.38449
0.25071	0.20219
0.73524	-0.12942
0.02119	-0.05289
-0.51434	-0.12942
-0.74385	-0.15492
-0.10631	0.15117
0.50573	0.10015
0.48022	0.66132
0.48022	0.02363
0.32721	0.07465
0.35272	0.94191
0.35272	0.48277
0.45472	0.12566
0.09770	-0.28246
0.27621	-0.48652
-0.18282	0.25320
-0.43783	0.50828
-0.10631	0.22769
0.14870	0.12566
-0.28482	-0.51203
0.60773	0.30422
0.22521	-0.12942
-0.38683	0.53379
1.50029	0.45726
-0.00431	0.07465
-0.23382	0.45726
-0.71835	-0.25695
-0.36133	0.45726
0.45472	-0.53754
0.58223	-0.58856
0.60773	-0.46102
0.50573	0.40625
0.30171	1.04394
0.27621	0.86539
-0.00431	0.63582
-0.08081	0.45726
0.14870	0.45726
0.58223	0.22769
-0.18282	-0.28246
-0.84586	-0.10391
0.78624	-0.00188
-0.76936	0.04914
-0.59084	-0.43551
0.32721	-0.07840
0.83725	-0.25695
0.73524	0.22769
0.53123	0.38074
0.35272	-0.76711
0.50573	0.45726
-0.02981	0.63582
-0.33583	-0.20594
-0.15732	0.43176
0.12320	0.35523
0.30171	0.71234
0.60773	0.38074
0.45472	0.27871
-0.66735	0.50828
-0.31033	0.40625
0.32721	0.04914
0.50573	0.20219
0.12320	-0.15492
-0.05531	-0.15492
0.19971	-0.05289
0.27621	0.20219
0.68424	0.07465
0.40372	-0.02739
-1.12638	-0.00188
-0.74385	0.07465
-0.36133	0.22769
0.40372	-0.12942
1.11776	0.17668
0.63323	0.35523
-0.08081	0.43176
0.55673	0.07465
0.19971	0.35523
0.12320	0.66132
-0.08081	0.15117
0.58223	0.04914
0.50573	-0.28246
-0.66735	-0.58856
-0.13181	0.35523
0.07220	-0.23145
0.02119	0.61031
0.37822	0.55929
0.35272	0.71234
0.35272	0.27871
-0.97337	0.20219
0.04670	-0.58856
0.68424	0.63582
0.50573	-0.00188
-0.02981	0.38074
1.04126	-0.38449
0.53123	0.02363
-0.94787	-0.61406
-1.91693	0.20219
0.19971	0.83988
1.83181	-0.10391
1.67880	-0.18043
-0.23382	0.43176
-0.92237	0.25320
-0.05531	0.02363
1.60230	0.30422
1.29628	0.86539
-1.71292	0.17668
-1.38139	-0.18043
1.44929	0.17668
0.78624	-1.07320
-1.43240	0.40625
0.35272	0.78886
0.40372	0.99292
0.53123	-0.23145
0.27621	-0.20594
-0.08081	-0.89465
0.78624	0.61031
-0.02981	-0.33348
-1.27939	0.40625
0.25071	0.32972
0.93925	0.76336
0.78624	0.35523
0.55673	-0.10391
-0.99887	0.17668
-2.27395	0.40625
1.85731	-1.35379
0.40372	-0.25695
1.24527	1.17148
1.27078	0.76336
-0.08081	0.78886
-0.41233	0.73785
0.68424	0.50828
0.02119	-1.04770
1.34728	-1.02219
-0.59084	0.86539
-1.33039	-0.86914
-0.43783	0.50828
-0.23382	0.71234
1.19427	-0.33348
-0.71835	-0.28246
0.32721	0.07465
1.50029	1.57960
1.80631	0.94191
-1.43240	0.63582
0.14870	-0.38449
-0.66735	-0.63957
-0.87136	-1.22625
-1.20288	0.91640
1.90832	-0.43551
1.75531	0.32972
-0.66735	1.83468
-2.01894	-0.79262
0.83725	1.19699
1.83181	-0.53754
4.48398	0.78886
-1.53441	-0.61406
-2.98800	-0.05289
-0.71835	-0.79262
-2.75848	-0.71609
1.09226	0.10015
1.95932	0.63582
0.86275	0.94191
2.26534	0.63582
-1.50890	0.55929
-2.04444	-0.28246
3.79544	-0.15492
0.04670	-2.11902
-0.28482	0.71234
2.21434	0.30422
-0.94787	1.57960
-0.99887	0.25320
1.04126	1.09496
-1.12638	0.43176
-0.05531	0.27871
1.93382	-0.28246
-3.06450	-0.61406
0.50573	1.35003
-0.46334	-0.97117
-0.84586	0.99292
0.53123	-3.21585
1.90832	-1.50683
2.29084	0.02363
0.83725	2.24281
0.17421	1.70714
-0.36133	1.70714
0.42922	-0.12942
2.18883	0.53379
-2.52897	1.09496
-0.08081	0.15117
-4.28858	-2.19554
1.21977	-0.94566
2.29084	-0.76711
-1.07538	1.09496
0.32721	0.94191
0.30171	-0.35899
1.19427	0.81437
-0.38683	2.14077
1.16877	-1.09871
2.80087	0.96742
0.09770	-1.58336
-2.93700	0.48277
-2.45246	-0.79262
-0.59084	1.68163
1.98482	0.53379
2.34184	-0.79262
1.85731	0.35523
0.09770	1.98773
0.25071	-0.43551
0.93925	-1.25176
0.37822	-2.39961
-0.10631	0.73785
-0.10631	1.42656
-1.76392	0.78886
-5.15564	0.53379
1.57679	-0.35899
0.09770	1.06945
1.75531	1.01843
3.36191	0.50828
0.42922	-2.68019
1.70430	-1.58336
-1.50890	-0.99668
0.17421	1.35003
0.73524	3.59471
-2.24845	0.38074
-1.25389	-0.12942
1.47479	-2.04250
0.68424	-0.33348
1.98482	1.91120
2.06133	-0.56305
2.46935	-0.35899
-6.50722	-1.50683
-3.09000	1.12046
1.21977	1.47757
2.52035	0.94191
1.14327	1.93671
0.81175	0.96742
1.39828	-0.23145
-4.46709	-0.33348
1.44929	-2.85874
0.83725	-1.78742
-0.28482	-3.26687
2.77537	2.19179
-1.96793	2.06425
2.77537	1.68163
-1.25389	0.58480
-2.42696	0.22769
0.32721	-0.56305
1.62780	0.45726
1.42379	0.73785
1.37278	0.35523
1.60230	-0.25695
-3.60004	-1.14973
-3.77855	-1.12422
2.26534	0.61031
0.91375	0.50828
0.60773	1.22250
1.24527	1.60511
1.01576	-0.79262
-0.87136	-0.92016
2.67337	-1.43031
-4.56910	0.38074
2.03582	2.37034
-0.18282	0.76336
-1.84042	0.30422
1.39828	0.76336
-1.02437	1.63062
2.06133	-1.81293
0.12320	-2.39961
5.78456	-2.80773
-2.65648	-1.68539
-2.55447	2.11527
0.50573	3.21210
2.23984	2.77847
-2.55447	-0.86914
0.48022	0.45726
-0.08081	-0.53754
2.36734	-0.69059
0.93925	1.57960
0.12320	0.61031
-0.46334	-1.43031
0.93925	0.35523
-0.92237	0.81437
2.11233	0.12566
-1.07538	-0.00188
0.55673	-0.58856
-8.67486	1.37554
4.12696	-0.07840
0.88825	-0.58856
0.02119	-0.86914
1.27078	-0.38449
1.75531	0.25320
0.70974	1.63062
0.37822	1.24800
1.42379	1.50308
-0.23382	0.00000
-6.55823	-0.84363
2.52035	-1.76191
3.08139	-0.15492
-1.73842	-0.20594
3.00489	0.15117
-1.43240	1.27351
-1.15188	0.71234
1.44929	0.76336
0.60773	-0.07840
0.70974	-0.07840
-0.84586	-0.05289
0.12320	0.35523
1.42379	0.99292
1.11776	-0.46102
0.99026	0.53379
0.93925	-0.76711
-0.99887	-0.94566
-4.05907	-0.53754
-0.66735	1.22250
0.70974	0.20219
1.11776	-0.48652
2.26534	1.04394
0.60773	1.47757
1.42379	1.37554
-2.83499	-0.20594
0.19971	0.12566
2.26534	-0.92016
-0.00431	-1.94047
0.07220	-2.24656
1.01576	0.94191
0.40372	3.21210
-0.18282	0.76336
3.25990	1.45206
-2.57997	-3.21585
-1.07538	-0.28246
-2.19745	1.45206
1.34728	1.91120
1.29628	-0.02739
1.47479	0.45726
0.81175	0.61031
0.42922	-0.41000
0.50573	-0.30797
2.67337	-1.02219
-5.02813	-0.76711
-1.73842	-1.27726
1.98482	0.61031
0.35272	0.96742
1.09226	1.68163
0.27621	1.27351
2.01032	0.15117
1.42379	0.71234
-4.56910	-0.86914
-2.45246	-0.00188
1.75531	0.55929
1.14327	-0.84363
1.21977	-1.04770
1.47479	-1.35379
0.48022	0.17668
0.42922	1.73265
5.93757	1.80917
-0.89686	0.22769
-13.44367	0.89089
2.92838	-2.75671
1.60230	0.94191
0.19971	1.27351
1.47479	0.27871
1.11776	0.15117
-0.53984	1.27351
-0.02981	1.22250
3.23440	0.63582
-3.42153	-1.37929
-3.31952	-2.70570
3.76993	-2.19554
0.65874	1.73265
-0.31033	0.25320
1.88281	1.09496
1.98482	0.61031
-3.39602	1.80917
0.88825	0.40625
1.34728	-0.94566
-0.87136	-0.15492
0.37822	0.53379
0.96476	-0.20594
3.25990	-0.25695
-2.42696	-0.25695
-5.25764	0.91640
1.37278	-0.28246
0.99026	0.40625
2.18883	0.83988
3.18340	0.12566
-1.17738	0.48277
-1.81492	-1.48133
-0.10631	0.02363
1.29628	0.45726
-2.47797	0.53379
1.98482	0.83988
0.48022	-0.18043
-0.43783	-0.20594
1.09226	0.10015
-0.00431	1.29902
1.34728	0.81437
-0.15732	-0.51203
-0.66735	0.32972
-0.10631	0.02363
1.39828	0.94191
0.91375	-2.19554
-3.39602	-1.22625
1.90832	0.73785
-1.27939	1.91120
2.11233	0.45726
0.96476	-0.76711
-3.31952	0.48277
1.32178	0.40625
1.44929	0.15117
0.22521	-1.17523
0.58223	-1.32828
0.60773	1.06945
0.48022	0.91640
0.37822	1.24800
1.24527	1.68163
-2.60547	-0.25695
-1.17738	-0.35899
-0.64185	-0.76711
2.08683	0.30422
0.30171	0.76336
-0.08081	0.48277
-2.32496	-0.25695
1.55129	0.20219
1.88281	0.53379
0.32721	0.22769
-1.30489	-0.51203
0.55673	-1.17523
2.18883	-1.07320
-0.46334	0.68683
0.22521	0.94191
-0.18282	0.99292
-1.02437	-0.46102
0.30171	0.53379
1.27078	0.10015
3.28540	1.52859
-4.69661	-0.41000
-2.52897	-0.33348
1.44929	0.89089
2.41835	-0.99668
1.11776	-0.38449
0.55673	0.40625
1.55129	0.63582
0.88825	0.04914
0.25071	0.76336
-1.33039	-0.35899
-1.81492	0.22769
0.02119	0.15117
-0.36133	0.43176
0.63323	0.12566
1.16877	0.45726
-0.00431	0.48277
-0.69285	-0.71609
0.73524	-1.45582
0.25071	0.10015
1.19427	1.17148
-0.64185	1.42656
0.12320	0.35523
0.32721	-0.05289
0.27621	0.43176
0.73524	-0.02739
1.32178	-0.05289
-2.27395	-0.05289
-0.41233	-0.53754
-0.23382	-0.69059
0.17421	-0.38449
0.58223	1.17148
1.57679	0.27871
2.82638	1.86019
-1.61091	-0.79262
-0.89686	0.17668
0.02119	-1.20074
0.68424	0.86539
1.34728	1.04394
-0.38683	0.78886
0.53123	-0.15492
1.21977	0.20219
-0.97337	-0.48652
-0.51434	1.68163
-0.43783	-1.45582
0.14870	0.66132
-1.35589	-2.52714
1.42379	0.53379
-0.18282	-0.41000
-0.74385	1.14597
0.68424	1.40105
0.70974	0.76336
0.73524	0.50828
0.93925	1.60511
0.76074	0.25320
-1.07538	-0.33348
-0.64185	-1.99148
0.96476	-1.50683
0.45472	1.14597
-1.20288	1.09496
-0.25932	0.38074
1.60230	0.48277
1.52579	0.38074
-0.69285	-0.00188
-1.50890	-0.76711
1.60230	0.32972
0.96476	0.04914
-2.78398	0.50828
-1.86593	0.02363
3.13239	0.32972
0.37822	-0.28246
0.76074	-0.15492
0.83725	1.29902
2.44385	-0.35899
-1.40690	-0.61406
-1.91693	-1.65988
0.32721	-0.23145
0.14870	1.12046
-0.28482	1.65613
0.40372	1.40105
-1.15188	0.48277
0.35272	0.40625
0.37822	-0.05289
2.29084	0.45726
2.18883	-0.10391
-7.90981	-0.43551
0.73524	-0.53754
-2.04444	-0.25695
2.59686	0.53379
2.06133	-0.69059
1.04126	-0.46102
1.83181	0.86539
-0.18282	0.22769
-1.38139	1.19699
-0.13181	-1.78742
0.02119	0.22769
0.50573	0.66132
0.27621	1.14597
0.27621	0.40625
0.17421	0.35523
-0.08081	0.15117
-0.66735	-0.07840
0.99026	0.78886
3.10689	0.71234
-4.41609	-0.33348
-0.38683	-1.50683
2.13783	-1.20074
1.47479	1.32453
-3.77855	-0.61406
1.21977	1.37554
1.21977	-1.99148
0.93925	-0.00188
0.78624	1.45206
1.29628	0.78886
0.78624	0.66132
-1.38139	0.58480
-0.84586	0.38074
1.11776	0.02363
0.09770	-0.30797
-0.05531	-0.48652
0.60773	0.32972
0.17421	0.66132
-1.99343	0.58480
1.29628	-0.00188
0.17421	-0.76711
-1.84042	-0.97117
0.17421	-0.10391
0.55673	0.76336
0.42922	0.86539
1.34728	0.91640
1.19427	1.60511
1.67880	-1.37929
0.27621	0.02363
-2.52897	-0.20594
-0.38683	0.45726
-0.05531	-0.07840
1.44929	0.78886
3.46392	0.04914
-2.57997	0.07465
-3.72755	0.20219
0.12320	-0.05289
0.83725	-0.00188
1.90832	-0.00188
1.67880	-0.46102
-1.25389	0.04914
-0.56534	0.22769
1.39828	0.07465
0.25071	0.35523
0.22521	0.73785
-0.02981	-0.10391
0.09770	1.45206
0.02119	1.40105
1.44929	-0.46102
0.53123	-0.46102
-1.22839	-2.09351
-2.22295	0.91640
0.32721	0.81437
0.58223	0.35523
0.50573	-0.81812
0.12320	0.45726
0.12320	0.55929
0.73524	0.35523
-0.41233	1.24800
2.06133	0.10015
-0.25932	0.73785
-1.66191	-1.78742
0.32721	-0.43551
0.63323	-0.33348
0.50573	0.32972
-0.71835	0.66132
0.93925	0.45726
0.58223	0.55929
0.42922	0.17668
2.01032	0.32972
0.50573	0.35523
-3.90606	0.76336
0.35272	-0.48652
-1.55991	-0.76711
2.13783	-1.73640
0.40372	0.35523
-0.08081	0.91640
-0.18282	0.91640
0.37822	0.81437
1.32178	1.06945
-1.22839	0.15117
-0.00431	-1.02219
0.73524	-0.53754
-0.64185	-0.00188
0.68424	0.40625
0.42922	0.45726
0.60773	0.25320
0.19971	0.58480
0.14870	0.50828
0.42922	0.53379
0.42922	-1.09871
2.44385	0.07465
-2.78398	0.94191
-1.25389	0.30422
0.25071	-0.51203
-0.28482	-0.46102
1.80631	0.27871
0.83725	0.86539
-0.92237	-0.81812
0.70974	0.45726
0.37822	-1.17523
0.07220	0.48277
0.48022	1.29902
0.02119	1.45206
0.32721	0.38074
0.17421	0.32972
-1.76392	-0.20594
0.99026	-0.46102
0.40372	-0.92016
2.29084	0.61031
-1.30489	-0.05289
-3.16651	0.10015
-0.61635	0.50828
-1.02437	0.55929
2.52035	-0.38449
0.91375	0.45726
1.06676	0.10015
1.06676	0.07465
1.06676	0.35523
0.83725	0.10015
-1.71292	0.12566
0.04670	0.50828
0.91375	1.17148
-2.17195	-1.25176
-0.89686	-1.43031
0.58223	-1.81293
0.58223	1.09496
0.60773	1.19699
0.42922	1.37554
0.32721	1.06945
0.55673	0.20219
-0.02981	-0.23145
0.32721	0.81437
0.17421	0.15117
-0.48884	0.04914
0.19971	-1.58336
0.07220	-0.33348
0.73524	0.53379
-0.76936	-0.25695
-0.05531	-0.28246
0.04670	0.66132
0.55673	0.89089
0.60773	0.02363
0.78624	-0.25695
-0.51434	0.89089
2.29084	0.35523
0.76074	-0.20594
-4.44159	0.55929
0.76074	-0.12942
-1.12638	-0.35899
1.29628	-0.92016
2.03582	0.78886
0.81175	0.96742
0.48022	0.63582
-2.70748	0.02363
2.57136	0.45726
2.39285	0.04914
-5.33415	0.07465
0.09770	-0.86914
0.88825	0.15117
1.60230	-0.33348
1.44929	0.48277
1.14327	0.30422
-0.79486	0.40625
-1.99343	0.53379
1.65330	1.32453
-0.59084	-0.86914
0.30171	0.30422
0.76074	-1.22625
0.22521	0.20219
-0.61635	0.10015
1.19427	0.25320
-0.36133	0.43176
-0.66735	1.09496
-0.00431	-0.05289
0.91375	0.35523
0.25071	0.25320
-0.25932	0.07465
0.35272	-0.38449
0.70974	0.10015
-0.38683	-0.10391
-0.10631	0.71234
0.14870	0.53379
0.63323	-0.20594
1.04126	-0.33348
0.42922	-0.30797
0.45472	0.38074
0.40372	0.61031
-0.00431	0.45726
-3.29402	-0.38449
0.42922	-0.30797
3.28540	1.19699
-0.59084	-0.02739
0.25071	0.30422
-0.56534	0.35523
-0.69285	-0.46102
1.01576	0.76336
1.19427	0.07465
0.65874	-0.05289
1.11776	0.45726
0.93925	0.07465
-2.75848	0.12566
-0.99887	-0.35899
-0.00431	-1.07320
-0.59084	-0.18043
1.32178	0.58480
1.44929	1.24800
1.21977	0.35523
0.25071	0.45726
-0.59084	-0.12942
-0.13181	0.68683
0.30171	0.81437
1.11776	-0.66508
0.22521	-0.56305
0.37822	0.10015
0.02119	1.83468
-2.60547	-0.66508
-0.13181	-0.99668
0.81175	-0.94566
0.27621	-0.23145
0.35272	0.63582
0.22521	0.76336
0.09770	0.66132
0.09770	0.20219
0.07220	0.40625
0.37822	0.10015
0.37822	0.02363
0.40372	0.38074
0.78624	0.17668
-1.58541	0.43176
1.44929	0.68683
-0.79486	0.58480
-1.07538	-1.07320
2.06133	-1.12422
-0.82036	0.04914
-1.53441	0.30422
0.73524	0.35523
2.26534	0.32972
1.60230	0.45726
1.32178	0.45726
-0.76936	0.02363
-0.94787	-0.35899
0.50573	0.10015
-1.35589	0.50828
-0.89686	0.38074
-0.02981	0.17668
0.65874	-0.02739
0.70974	0.35523
0.50573	0.78886
-1.07538	-0.05289
-0.05531	-0.07840
0.30171	-0.43551
1.01576	-1.04770
0.63323	0.32972
-0.15732	0.58480
2.74987	0.66132
-1.17738	0.07465
-3.19201	0.55929
1.06676	0.91640
2.01032	1.19699
-0.25932	-0.86914
-1.58541	-0.61406
1.11776	-0.23145
0.65874	-0.41000
0.17421	0.35523
0.27621	0.43176
0.12320	0.66132
1.14327	0.45726
-1.38139	0.50828
-1.45790	-0.07840
1.21977	-0.23145
0.93925	0.48277
0.83725	-0.35899
-1.45790	-0.12942
0.73524	0.76336
0.93925	0.30422
-0.51434	-0.18043
1.60230	0.50828
-1.40690	0.35523
-4.31408	-0.71609
0.19971	0.45726
0.32721	-0.43551
2.72437	0.43176
1.24527	0.48277
1.90832	0.38074
0.02119	0.17668
-1.22839	0.17668
0.65874	0.38074
-0.43783	0.50828
0.12320	0.10015
0.60773	-1.65988
-0.18282	-0.86914
-0.87136	1.73265
0.35272	0.71234
0.45472	0.04914
-0.08081	0.27871
1.19427	0.73785
0.07220	0.55929
-1.07538	-0.28246
0.22521	-0.51203
-0.61635	0.17668
0.32721	-0.12942
0.83725	0.04914
0.58223	0.20219
0.30171	0.66132
0.30171	0.02363
-1.25389	0.22769
1.75531	-0.56305
-0.61635	0.43176
0.07220	0.22769
1.27078	0.91640
-0.89686	0.32972
-0.89686	0.25320
1.04126	0.50828
0.86275	-0.20594
0.83725	-0.53754
0.65874	-0.41000
0.55673	0.10015
-0.71835	0.48277
0.42922	0.71234
-0.56534	-0.63957
0.65874	-0.05289
-0.00431	0.58480
-2.83499	0.81437
0.35272	0.63582
1.21977	-0.25695
0.50573	0.17668
2.72437	0.30422
0.30171	0.30422
-0.31033	-0.25695
1.01576	-0.35899
1.32178	-0.46102
-1.30489	0.02363
-0.76936	0.86539
-0.20832	0.91640
-0.28482	-0.35899
0.50573	0.61031
0.40372	0.10015
0.68424	-0.99668
0.27621	-0.10391
-0.76936	0.38074
-0.46334	1.45206
0.02119	0.53379
0.48022	0.07465
0.88825	-0.15492
2.03582	-0.05289
-0.66735	-0.51203
-2.50347	-0.07840
0.60773	-0.23145
0.99026	1.22250
0.73524	0.50828
1.47479	0.22769
-1.25389	-0.66508
0.30171	-0.81812
0.37822	-0.30797
0.53123	1.22250
0.53123	0.48277
-1.76392	0.58480
-0.08081	-0.76711
0.81175	0.43176
-0.51434	0.76336
0.37822	0.48277
0.50573	0.10015
0.14870	0.30422
2.54586	-0.20594
-3.70204	-0.43551
-0.08081	-0.81812
1.75531	-0.20594
1.47479	0.96742
3.00489	0.83988
0.14870	0.38074
-2.88599	0.66132
0.60773	-0.12942
0.91375	0.27871
0.04670	-0.20594
-1.63641	0.15117
0.35272	0.12566
0.53123	0.10015
0.32721	0.15117
0.30171	-0.02739
0.12320	0.55929
-0.13181	-0.79262
0.02119	-0.30797
0.17421	0.53379
0.48022	0.61031
0.27621	1.01843
-0.18282	-0.18043
0.04670	0.12566
0.37822	0.35523
0.17421	0.40625
0.14870	1.17148
0.60773	0.96742
0.30171	-1.17523
-0.82036	-0.51203
1.60230	-0.25695
-0.10631	0.58480
-2.83499	-0.58856
0.86275	-1.22625
2.06133	0.50828
0.63323	1.12046
-0.74385	0.94191
-0.23382	1.29902
1.16877	0.50828
0.35272	-0.15492
1.21977	0.30422
1.70430	-0.46102
-3.42153	0.30422
-0.87136	-1.78742
0.40372	-0.00188
0.93925	0.63582
0.70974	0.55929
1.44929	0.22769
-0.69285	-0.07840
-0.74385	0.32972
0.42922	0.50828
0.50573	0.20219
0.14870	0.02363
-0.13181	0.68683
0.37822	0.07465
-0.02981	-0.18043
0.76074	-0.84363
0.09770	0.45726
-0.05531	0.61031
0.12320	0.10015
-0.10631	0.10015
0.19971	0.68683
-0.15732	0.15117
0.14870	0.43176
0.81175	0.40625
-0.46334	0.12566
0.22521	0.25320
0.30171	-0.38449
0.12320	-0.61406
0.07220	-0.20594
0.63323	0.20219
1.21977	-0.23145
-1.02437	0.07465
0.12320	1.24800
0.37822	0.76336
0.42922	0.55929
-0.92237	-0.69059
-1.12638	-0.00188
2.13783	0.27871
0.58223	-0.23145
-0.25932	0.35523
1.16877	0.48277
-1.30489	-0.00188
-0.02981	-0.38449
2.21434	0.45726
0.22521	1.09496
-2.29945	-0.18043
1.62780	-0.43551
-0.18282	-1.09871
0.04670	0.22769
0.19971	0.27871
-1.66191	-0.10391
0.93925	0.73785
1.21977	1.06945
0.73524	0.81437
0.70974	0.30422
-0.00431	-0.05289
-0.64185	0.04914
-0.13181	-1.07320
0.17421	-0.76711
0.07220	0.68683
0.53123	0.76336
0.12320	0.94191
-0.13181	0.20219
0.02119	-0.28246
0.02119	-0.66508
0.22521	0.22769
1.60230	0.40625
-0.69285	0.30422
-1.50890	-0.12942
0.17421	-0.58856
0.50573	-0.46102
0.09770	0.50828
1.55129	0.78886
1.60230	0.71234
-2.55447	0.55929
0.12320	0.12566
0.93925	0.45726
0.63323	0.12566
-0.08081	0.17668
0.12320	-0.30797
0.99026	0.38074
-0.18282	-0.38449
-0.25932	-0.53754
-0.38683	-1.09871
-0.43783	0.76336
0.32721	0.53379
0.12320	0.45726
0.63323	0.45726
-0.33583	0.30422
-1.22839	0.68683
-1.12638	-0.10391
-0.08081	0.15117
1.32178	-0.43551
0.91375	-0.28246
1.34728	0.22769
1.95932	0.45726
0.30171	0.55929
0.22521	0.15117
0.27621	-0.02739
-0.79486	0.10015
-0.46334	0.45726
0.42922	0.35523
1.88281	-0.18043
-2.01894	-0.66508
-1.02437	-0.53754
0.25071	0.68683
0.25071	0.53379
0.04670	0.27871
-0.20832	-0.07840
0.53123	-0.12942
0.99026	1.22250
0.04670	0.02363
-0.00431	0.22769
0.30171	-0.56305
0.45472	-0.05289
0.73524	0.32972
0.63323	0.15117
-0.23382	0.02363
-0.84586	0.50828
0.19971	0.53379
-0.46334	-0.41000
0.91375	0.20219
0.35272	-0.61406
0.17421	-0.02739
0.40372	0.40625
0.40372	0.50828
0.55673	0.71234
-0.97337	0.04914
-0.02981	0.02363
-1.04987	-0.33348
0.27621	0.43176
1.29628	0.94191
1.39828	-0.12942
-0.10631	-0.00188
-0.18282	-1.17523
0.32721	-0.30797
-1.81492	0.32972
0.22521	0.76336
1.04126	0.71234
0.65874	0.66132
0.48022	0.40625
0.55673	0.15117
0.27621	0.12566
-0.23382	-0.20594
0.02119	0.04914
-0.64185	0.25320
0.32721	0.02363
0.12320	0.53379
-0.00431	-0.69059
0.25071	-0.05289
0.02119	-0.63957
-0.10631	0.25320
0.27621	0.66132
0.37822	0.78886
0.91375	0.96742
-0.48884	0.43176
1.44929	0.68683
-1.20288	-1.02219
-0.69285	0.07465
0.73524	-0.43551
-0.82036	0.45726
0.68424	0.15117
0.91375	0.10015
1.01576	0.17668
0.12320	0.25320
-1.15188	0.66132
-0.23382	-0.12942
-0.41233	-0.41000
0.76074	-0.51203
1.60230	0.15117
0.42922	0.76336
-1.17738	0.61031
1.19427	0.53379
0.73524	0.15117
-0.25932	0.02363
-0.79486	0.07465
-2.29945	0.32972
2.18883	-0.71609
1.04126	0.55929
-2.57997	-0.15492
0.58223	0.12566
-0.10631	0.38074
1.19427	-0.46102
0.53123	-0.12942
0.65874	0.61031
0.22521	0.38074
0.70974	0.50828
1.62780	-0.18043
-1.15188	0.12566
-0.33583	0.35523
-0.15732	0.45726
-0.99887	0.32972
1.09226	-0.71609
0.07220	-0.79262
0.53123	0.63582
0.25071	0.58480
0.12320	0.15117
0.19971	0.66132
0.04670	-0.66508
0.07220	0.40625
-0.46334	1.12046
0.58223	0.20219
0.04670	-0.25695
0.40372	-0.71609
1.55129	0.27871
-2.37596	0.81437
-0.84586	0.32972
-0.53984	0.61031
0.55673	-0.61406
1.57679	0.10015
2.41835	-0.33348
-0.76936	0.10015
-1.22839	0.76336
1.24527	0.27871
2.74987	-0.05289
-3.75305	-0.12942
-2.55447	-0.15492
1.62780	0.20219
2.26534	0.40625
0.19971	0.63582
-0.31033	0.63582
-0.23382	0.86539
0.12320	-0.63957
0.96476	-1.07320
1.11776	-0.35899
-0.87136	0.30422
-0.38683	0.45726
-0.10631	0.15117
0.45472	0.61031
0.48022	0.73785
-0.05531	0.71234
-0.79486	-0.05289
0.12320	0.04914
-0.28482	-0.12942
0.88825	0.10015
1.47479	0.61031
0.32721	-0.18043
-0.59084	-0.20594
0.17421	0.15117
-1.38139	-0.02739
1.09226	0.27871
0.17421	0.20219
0.60773	-0.51203
-0.46334	0.12566
-0.82036	0.22769
0.32721	0.66132
0.63323	-0.43551
0.60773	-0.02739
1.55129	1.06945
1.06676	0.94191
-2.37596	-0.20594
-1.07538	0.66132
2.26534	0.10015
1.37278	-0.35899
-1.55991	-0.69059
-2.86049	-0.61406
0.65874	-0.89465
1.95932	0.86539
1.04126	1.32453
-0.92237	0.38074
-0.00431	-0.28246
-0.31033	-0.28246
1.88281	0.30422
0.76074	0.15117
-1.89143	0.38074
-0.61635	0.15117
2.16333	0.02363
-0.64185	0.55929
0.42922	0.02363
2.31634	0.22769
-1.45790	-0.43551
-0.31033	0.86539
-0.46334	-0.25695
0.09770	-0.05289
0.25071	-2.01699
0.63323	0.63582
0.09770	0.68683
2.11233	0.91640
-1.30489	0.55929
-3.01350	-0.10391
1.04126	0.50828
0.88825	0.30422
0.53123	0.25320
0.88825	0.40625
0.37822	-1.45582
0.53123	0.48277
0.25071	0.02363
-0.13181	0.30422
0.07220	0.22769
-1.20288	-0.25695
-0.13181	-0.46102
0.22521	0.22769
0.53123	0.86539
-0.10631	0.43176
1.62780	0.25320
0.19971	-0.10391
-2.52897	0.27871
0.17421	0.86539
0.63323	0.38074
1.80631	0.15117
-0.71835	-0.10391
-1.48340	-0.15492
1.60230	-0.28246
1.09226	-1.09871
-0.48884	-1.02219
0.58223	0.86539
0.22521	1.01843
0.14870	0.81437
0.09770	0.96742
0.17421	0.71234
1.47479	0.04914
-1.02437	-0.07840
-0.61635	-0.18043
-0.41233	-0.07840
0.17421	-0.74160
0.99026	-0.23145
-0.13181	0.76336
0.22521	0.32972
0.07220	0.55929
-0.28482	0.50828
-0.41233	-0.35899
0.50573	-0.25695
0.32721	-0.63957
0.91375	0.22769
0.22521	0.81437
-1.27939	0.66132
-0.13181	0.17668
-0.33583	-0.35899
1.27078	0.02363
0.17421	-0.43551
0.93925	0.45726
0.42922	0.45726
-0.66735	0.40625
0.02119	-0.46102
0.35272	0.55929
0.58223	0.63582
1.01576	0.45726
-1.78942	0.17668
-1.40690	-0.07840
0.86275	-0.12942
2.06133	0.61031
-0.92237	-0.30797
-2.04444	-0.53754
1.62780	-0.69059
0.63323	0.15117
1.32178	0.55929
1.14327	0.48277
-0.05531	0.50828
-2.22295	0.43176
0.70974	0.07465
1.52579	-0.15492
-1.81492	0.30422
0.40372	0.35523
0.73524	-0.02739
0.63323	-0.35899
0.40372	0.40625
-0.74385	0.17668
0.55673	0.22769
0.30171	0.25320
0.42922	0.10015
-0.05531	0.10015
-0.71835	-0.20594
0.58223	1.04394
0.70974	0.12566
0.93925	-0.74160
-1.02437	-0.61406
-0.59084	0.17668
-0.46334	0.78886
0.83725	1.32453
0.35272	-0.23145
0.17421	-0.23145
0.81175	0.63582
0.42922	0.12566
-0.41233	0.25320
-0.08081	0.27871
-0.08081	0.22769
2.13783	-0.12942
-3.11551	-1.07320
-0.59084	-0.76711
1.19427	0.76336
2.64786	0.76336
-0.15732	0.43176
-2.68198	0.40625
1.52579	0.55929
1.47479	0.48277
-0.36133	-0.05289
1.24527	-0.05289
0.22521	-0.00188
-2.29945	-0.46102
1.55129	0.10015
-1.20288	0.10015
-0.76936	0.17668
-0.10631	-0.10391
0.76074	0.40625
-0.38683	0.04914
-0.10631	0.73785
1.06676	0.04914
-0.33583	1.57960
-1.17738	-0.58856
1.55129	-0.15492
0.19971	-1.30277
0.73524	-0.35899
0.37822	0.66132
0.35272	0.89089
0.12320	0.50828
0.19971	0.48277
-0.08081	0.73785
-0.25932	-0.20594
-0.05531	-0.07840
0.32721	0.10015
0.27621	0.27871
0.09770	-0.25695
-0.18282	-0.81812
0.25071	0.02363
0.70974	0.83988
-1.76392	-0.35899
-0.25932	0.50828
0.37822	0.40625
1.50029	0.45726
0.55673	0.58480
-0.89686	-0.05289
-0.97337	0.53379
2.46935	0.07465
0.14870	0.04914
1.04126	-0.56305
0.02119	-1.12422
-0.53984	0.81437
0.53123	0.58480
1.01576	0.55929
0.09770	0.12566
-0.89686	0.38074
-0.28482	0.38074
-0.99887	0.10015
0.12320	0.12566
0.22521	0.10015
0.83725	-0.05289
0.83725	-0.05289
-0.33583	-0.35899
2.01032	0.32972
1.06676	-0.10391
-6.27771	0.38074
0.55673	0.63582
0.04670	0.27871
1.37278	0.04914
1.67880	0.32972
0.55673	0.10015
-0.23382	-0.25695
1.06676	0.96742
0.09770	0.63582
-0.00431	-0.23145
0.02119	-0.30797
-0.13181	-0.69059
-0.23382	0.17668
-0.25932	0.35523
-0.08081	0.35523
-0.20832	0.20219
-0.02981	0.15117
1.19427	0.35523
0.93925	0.12566
-2.12094	0.50828
-0.64185	0.20219
-0.08081	-0.20594
1.70430	-0.28246
1.34728	0.78886
1.80631	0.32972
-0.43783	0.61031
-1.40690	-0.86914
-0.51434	0.04914
1.60230	0.45726
0.04670	0.35523
0.35272	0.32972
0.30171	0.17668
-0.36133	-0.07840
-0.82036	-0.30797
0.58223	0.15117
0.35272	0.38074
0.25071	0.35523
4.56049	0.55929
-3.62554	0.04914
-6.30321	0.40625
2.31634	-0.15492
1.72980	-0.43551
0.45472	0.40625
1.14327	-0.66508
0.91375	0.35523
0.55673	0.83988
-0.08081	0.40625
0.27621	0.40625
0.22521	0.32972
-0.43783	0.02363
0.22521	0.32972
-0.48884	0.30422
-1.10088	-0.33348
-0.61635	0.17668
1.42379	-0.61406
0.73524	-0.15492
0.25071	0.38074
0.35272	0.73785
0.27621	0.45726
0.07220	0.22769
0.27621	0.12566
0.42922	-0.07840
-0.74385	0.10015
-0.08081	0.17668
1.27078	-0.02739
-0.10631	0.91640
-2.01894	0.12566
-0.02981	0.10015
1.42379	-0.79262
0.96476	-0.10391
1.24527	0.43176
-0.18282	0.55929
-1.33039	0.30422
0.93925	0.30422
0.27621	0.12566
1.01576	0.12566
-0.64185	0.66132
-0.82036	-0.38449
1.19427	-0.97117
-0.38683	-0.97117
-0.99887	0.96742
0.32721	1.24800
0.88825	0.30422
0.88825	-0.00188
0.55673	0.40625
0.07220	0.20219
-0.36133	0.10015
0.04670	0.10015
0.91375	0.22769
1.21977	0.30422
-0.51434	-0.23145
-1.07538	-0.41000
0.14870	-1.07320
0.55673	0.02363
0.14870	0.50828
0.25071	0.83988
0.04670	0.55929
0.32721	0.38074
0.32721	0.27871
0.25071	0.20219
-0.51434	-0.35899
-0.08081	-0.30797
0.45472	0.07465
0.32721	0.83988
-0.00431	0.71234
0.22521	-0.12942
0.42922	-0.20594
0.63323	-0.18043
0.02119	-0.10391
-0.94787	0.55929
-0.00431	0.61031
-0.41233	0.07465
0.19971	-0.07840
0.78624	-0.28246
2.13783	0.07465
-1.07538	0.45726
-0.59084	0.20219
0.81175	0.43176
-1.81492	0.17668
2.01032	-0.15492
0.22521	-0.10391
-0.28482	0.35523
-0.33583	0.76336
-0.28482	0.25320
1.39828	0.04914
1.32178	-0.35899
-1.84042	-0.10391
0.04670	0.45726
0.12320	0.73785
0.68424	0.32972
-0.00431	-0.41000
-0.38683	-0.05289
0.55673	-0.18043
-1.78942	0.43176
0.48022	0.66132
0.50573	0.10015
0.48022	-0.00188
-0.08081	0.04914
0.53123	0.04914
0.14870	0.07465
0.50573	0.04914
0.50573	0.45726
0.32721	0.50828
1.62780	-0.00188
-1.04987	-0.58856
-2.14644	0.63582
0.35272	-0.05289
0.48022	0.48277
0.50573	0.10015
0.22521	-0.58856
0.48022	0.30422
0.22521	0.55929
0.09770	0.48277
0.12320	0.30422
0.04670	0.10015
0.04670	0.53379
-0.08081	0.04914
0.76074	-0.02739
0.12320	-0.51203
-0.82036	-0.33348
0.35272	-0.41000
0.73524	0.83988
0.99026	0.35523
1.01576	0.17668
-0.31033	0.07465
-2.68198	0.32972
-0.10631	0.15117
0.50573	0.35523
-0.00431	0.12566
1.11776	0.12566
0.83725	-0.05289
0.17421	0.43176
0.09770	-0.00188
0.37822	-0.05289
0.37822	-0.66508
0.12320	-0.05289
-0.05531	0.50828
-0.10631	0.55929
-0.08081	0.66132
0.19971	0.35523
0.91375	0.27871
-1.22839	-0.02739
-0.61635	-0.05289
-0.41233	-0.10391
-0.66735	-0.28246
1.04126	0.27871
1.09226	0.55929
0.60773	0.78886
0.14870	0.15117
0.45472	0.76336
0.76074	-0.33348
-1.02437	0.38074
-0.76936	-2.22105
0.32721	-0.35899
1.04126	0.63582
0.25071	0.96742
-0.25932	1.12046
0.32721	0.96742
0.78624	-0.05289
-1.10088	-0.05289
2.62236	-0.79262
-0.51434	0.12566
-1.40690	0.25320
-1.17738	0.53379
-0.10631	0.20219
1.01576	0.22769
0.07220	0.22769
0.78624	0.20219
0.35272	-0.15492
0.40372	0.12566
0.17421	-0.18043
0.25071	0.12566
0.09770	0.40625
-0.13181	0.07465
0.17421	0.43176
0.30171	0.04914
0.37822	0.10015
-0.89686	0.35523
0.25071	0.35523
-0.38683	0.20219
0.83725	-0.02739
-0.13181	-0.20594
0.70974	-0.10391
0.70974	0.76336
-0.28482	-0.00188
-0.10631	0.30422
0.45472	-0.56305
0.42922	0.10015
0.32721	0.63582
-0.53984	0.32972
0.30171	0.22769
-0.38683	0.04914
0.37822	0.50828
0.83725	-0.02739
-0.00431	-0.05289
-1.02437	-0.51203
0.76074	0.17668
1.83181	0.43176
-3.06450	0.48277
-2.37596	0.35523
1.98482	0.58480
1.78081	-0.15492
0.93925	-0.23145
0.86275	0.48277
0.27621	0.25320
0.12320	0.04914
0.32721	0.17668
-0.97337	-0.41000
1.37278	-0.28246
-2.14644	-0.20594
-2.14644	-0.00188
2.06133	0.94191
-0.64185	0.38074
-0.46334	0.50828
0.81175	0.63582
0.88825	-0.05289
2.64786	0.22769
1.78081	0.63582
-1.86593	-0.00188
-2.73298	-0.25695
0.50573	-0.46102
1.29628	-0.28246
0.78624	0.50828
-0.13181	0.17668
0.12320	0.32972
0.35272	0.20219
-0.02981	0.25320
0.30171	0.15117
0.09770	0.10015
0.14870	0.15117
0.07220	-0.05289
-0.71835	0.17668
0.07220	0.32972
-0.20832	0.40625
0.30171	0.30422
0.30171	-0.35899
0.55673	-0.07840
0.14870	0.17668
0.12320	0.22769
-0.05531	-0.07840
0.12320	0.25320
0.63323	0.22769
0.30171	1.06945
-0.02981	0.43176
-0.66735	0.63582
-0.38683	-0.43551
-0.13181	-0.25695
1.83181	0.73785
0.27621	-0.66508
-0.74385	0.43176
1.14327	-1.20074
0.42922	0.02363
0.70974	0.55929
-0.20832	0.45726
-1.25389	0.50828
1.70430	0.53379
-2.01894	0.50828
-0.69285	-0.05289
0.60773	-0.18043
1.06676	-0.18043
0.93925	0.04914
-0.00431	0.40625
0.76074	0.02363
0.22521	0.04914
-0.05531	0.04914
-0.15732	0.22769
-0.13181	0.25320
-0.08081	0.20219
0.14870	0.40625
0.07220	0.10015
-0.36133	-0.10391
0.32721	0.04914
0.19971	0.04914
-0.36133	0.66132
0.40372	0.45726
0.32721	-0.38449
0.60773	-0.12942
0.25071	-1.27726
0.17421	0.73785
0.32721	0.81437
-0.05531	0.76336
-0.00431	0.55929
0.07220	-0.15492
-0.10631	0.48277
0.32721	-0.56305
0.42922	0.35523
-0.46334	0.32972
0.04670	0.45726
-0.33583	-0.18043
0.32721	-0.18043
2.06133	0.15117
-0.94787	0.55929
-1.38139	-0.43551
-1.84042	0.22769
0.12320	-1.12422
1.95932	0.30422
2.69887	0.94191
0.40372	0.63582
-0.05531	0.20219
2.36734	0.58480
-0.43783	0.53379
-3.34502	0.15117
-0.13181	-0.15492
0.53123	-0.30797
1.52579	0.12566
0.58223	0.12566
-2.52897	0.20219
0.04670	0.30422
1.11776	0.32972
0.32721	-0.28246
0.35272	-0.12942
0.53123	-0.89465
-0.28482	0.45726
0.93925	0.76336
0.73524	0.78886
-0.56534	0.25320
0.22521	0.25320
0.17421	-0.25695
-0.00431	0.07465
-0.05531	0.38074
-0.00431	0.40625
0.63323	-0.20594
-1.02437	0.02363
-0.82036	0.30422
0.50573	-0.15492
0.55673	-0.18043
0.73524	-0.00188
0.58223	0.55929
0.83725	0.17668
0.30171	-0.02739
-1.48340	0.43176
0.76074	-0.07840
-0.25932	0.12566
0.25071	0.12566
1.21977	-0.00188
0.63323	-0.00188
-2.78398	0.12566
-0.38683	0.02363
1.44929	0.50828
0.45472	0.58480
-0.61635	0.25320
-0.05531	0.20219
0.68424	-0.43551
0.86275	-0.61406
0.83725	0.25320
0.42922	0.45726
0.12320	0.45726
-0.00431	0.38074
-0.10631	0.25320
-1.71292	0.15117
-0.18282	-0.05289
2.54586	0.07465
-1.96793	0.58480
-0.53984	-0.00188
0.76074	0.53379
-0.05531	-1.07320
1.04126	-0.02739
0.99026	0.53379
0.55673	0.10015
0.45472	-0.25695
0.60773	0.12566
0.42922	0.27871
-0.02981	0.76336
-1.78942	0.43176
0.32721	0.35523
0.70974	-0.18043
-0.18282	0.35523
0.35272	-0.25695
0.42922	0.10015
0.02119	-0.10391
0.22521	0.61031
0.04670	0.48277
0.12320	0.15117
0.14870	-0.07840
0.12320	0.04914
0.19971	0.45726
1.83181	0.07465
-1.17738	-0.33348
-1.81492	-0.74160
1.34728	-0.71609
-0.53984	0.45726
0.25071	0.91640
0.58223	0.94191
1.24527	0.53379
-0.08081	0.43176
0.58223	0.30422
0.58223	0.25320
0.02119	-0.07840
-0.05531	-0.10391
0.76074	0.15117
1.50029	0.12566
-2.83499	-0.20594
-1.25389	-0.00188
-0.36133	0.02363
0.55673	0.10015
1.39828	-0.05289
0.40372	0.32972
1.09226	0.50828
-0.18282	-0.02739
-0.53984	0.32972
0.40372	-0.02739
0.99026	-0.20594
0.48022	0.66132
0.12320	0.15117
-0.20832	0.15117
0.19971	0.15117
-0.13181	-0.41000
0.19971	-0.05289
0.04670	0.53379
0.07220	0.66132
0.27621	0.45726
-0.08081	0.30422
0.07220	0.04914
0.22521	0.10015
0.17421	-0.28246
0.27621	-0.00188
0.22521	0.35523
0.19971	-0.38449
0.37822	0.45726
0.09770	-0.25695
0.53123	-0.00188
0.14870	0.66132
-0.71835	0.50828
-0.05531	0.43176
1.04126	-0.30797
0.53123	-0.51203
-2.55447	0.30422
-0.92237	0.22769
1.14327	0.66132
2.06133	0.20219
0.42922	0.07465
0.73524	0.15117
-0.71835	0.07465
-0.82036	0.10015
0.88825	-0.18043
0.45472	0.30422
0.27621	0.15117
-0.05531	-0.00188
0.32721	0.15117
0.37822	-0.15492
-1.04987	0.35523
0.42922	0.76336
0.25071	0.25320
-1.45790	0.10015
0.32721	-0.00188
-0.74385	-0.05289
0.63323	-0.00188
1.85731	0.22769
0.73524	0.22769
0.50573	0.50828
-0.05531	0.22769
0.02119	0.40625
0.07220	0.10015
0.27621	-0.25695
-0.08081	-0.15492
-0.20832	0.04914
-0.08081	0.35523
0.58223	0.04914
-1.76392	0.81437
0.45472	-0.05289
1.14327	0.32972
0.07220	-0.81812
-0.56534	0.15117
0.63323	0.04914
0.53123	0.58480
0.45472	0.61031
0.32721	0.53379
0.17421	0.30422
1.06676	-0.02739
-0.46334	0.15117
-1.89143	-0.25695
0.50573	0.20219
1.01576	0.17668
1.57679	0.22769
-1.94243	-0.20594
0.02119	0.35523
0.35272	0.17668
0.78624	0.43176
0.04670	-0.23145
0.17421	0.32972
0.04670	0.35523
0.73524	0.20219
0.76074	0.07465
-0.53984	-0.00188
0.35272	0.25320
1.06676	0.07465
-2.96250	-0.25695
0.30171	-0.07840
0.91375	0.55929
1.65330	-0.00188
-0.15732	0.38074
-0.71835	0.35523
0.63323	0.25320
1.67880	-0.00188
0.55673	0.10015
-1.73842	-0.28246
1.65330	0.58480
-0.13181	0.07465
-0.87136	0.55929
0.22521	0.04914
-0.51434	-0.10391
0.65874	-0.02739
0.30171	-0.07840
0.48022	0.04914
0.12320	-0.23145
0.27621	0.10015
0.25071	0.55929
0.22521	0.50828
-0.18282	0.04914
-0.79486	0.20219
0.25071	0.35523
1.01576	0.10015
-0.25932	-0.00188
0.12320	-0.02739
0.07220	0.43176
0.02119	0.35523
0.42922	-0.20594
2.23984	0.10015
-1.58541	-0.84363
-1.33039	0.68683
0.37822	0.58480
0.83725	0.27871
1.24527	0.12566
-0.05531	0.12566
-0.05531	-0.10391
1.06676	0.04914
0.73524	0.35523
-2.32496	0.07465
-0.18282	0.22769
0.58223	-0.05289
0.25071	-0.00188
0.40372	0.30422
0.53123	0.17668
0.25071	-0.41000
0.42922	-0.30797
0.53123	0.43176
0.32721	0.99292
-0.71835	0.89089
-1.22839	0.02363
-0.02981	-0.66508
0.63323	-0.76711
0.48022	0.04914
0.91375	0.76336
0.37822	0.76336
-0.66735	0.55929
-0.15732	0.27871
0.32721	0.04914
0.86275	-0.07840
0.55673	0.04914
0.35272	-0.05289
-0.43783	-0.05289
0.17421	0.32972
-0.18282	0.27871
-0.41233	-0.43551
0.53123	0.15117
-1.89143	0.30422
0.12320	0.25320
1.09226	0.35523
1.75531	0.35523
0.42922	0.04914
-0.99887	0.07465
0.76074	0.38074
0.40372	0.10015
-0.31033	0.27871
-0.53984	-0.18043
1.44929	0.10015
-0.82036	-0.07840
-1.25389	-0.15492
0.73524	0.30422
0.19971	0.30422
0.30171	0.22769
0.58223	0.40625
0.17421	0.22769
-0.02981	-0.05289
-0.00431	0.04914
0.55673	-0.15492
-0.74385	0.22769
-0.48884	0.17668
0.17421	0.40625
0.70974	0.17668
0.45472	0.25320
0.27621	0.30422
0.88825	0.15117
-1.04987	0.20219
-0.28482	0.15117
0.58223	-0.12942
0.81175	-0.28246
0.22521	0.04914
0.17421	0.15117
0.68424	0.25320
0.32721	0.15117
-0.36133	0.40625
-1.20288	0.22769
0.65874	-0.15492
0.63323	0.15117
0.83725	0.35523
0.12320	0.15117
-0.20832	0.04914
0.12320	0.38074
-1.81492	0.25320
0.81175	-0.38449
1.04126	-0.20594
-0.05531	-0.00188
0.78624	0.35523
1.06676	1.06945
1.01576	0.45726
-0.71835	-0.35899
-1.27939	-0.35899
-0.15732	0.02363
0.63323	0.61031
0.40372	0.25320
0.65874	0.30422
0.50573	0.12566
-0.97337	-0.00188
0.58223	-0.30797
0.58223	0.20219
-0.56534	0.35523
0.70974	0.35523
0.27621	0.04914
-1.07538	0.30422
0.04670	0.10015
0.45472	0.02363
0.12320	0.10015
0.65874	0.53379
0.76074	-0.20594
-0.08081	-0.05289
-0.13181	0.15117
0.09770	-0.20594
-0.00431	0.32972
0.25071	-0.00188
0.40372	0.48277
0.14870	0.04914
0.22521	0.22769
0.22521	0.15117
-0.10631	0.27871
-0.46334	0.35523
-0.15732	-0.46102
0.22521	0.17668
0.19971	0.25320
0.32721	0.17668
0.81175	0.25320
-0.43783	0.02363
-0.79486	0.15117
0.93925	-0.20594
1.93382	0.15117
0.93925	0.02363
-2.63097	0.07465
-1.10088	-0.00188
0.32721	0.12566
1.39828	0.66132
1.06676	0.35523
1.14327	0.20219
-0.31033	0.04914
-0.02981	0.07465
-0.53984	-0.02739
-0.10631	-0.43551
0.60773	0.45726
-0.18282	0.63582
-0.76936	0.25320
0.70974	0.43176
0.91375	0.12566
-1.02437	-0.23145
0.12320	-0.41000
0.27621	-0.56305
0.48022	1.06945
0.22521	0.43176
-0.08081	0.20219
-1.04987	0.30422
0.60773	0.17668
0.53123	0.15117
0.14870	0.10015
0.17421	0.15117
2.11233	0.35523
-0.48884	0.15117
-1.38139	-0.02739
0.37822	-0.61406
0.02119	0.07465
0.45472	0.38074
0.17421	-0.07840
0.40372	-0.23145
-0.02981	0.15117
0.25071	0.94191
0.14870	0.35523
0.19971	0.30422
0.04670	0.35523
0.19971	0.63582
0.73524	0.15117
-0.94787	-0.41000
0.04670	-0.30797
0.73524	-0.18043
0.07220	0.04914
-0.18282	0.20219
0.63323	-0.00188
-1.45790	0.25320
0.27621	0.22769
0.88825	0.25320
1.04126	0.48277
0.07220	0.27871
0.73524	0.53379
-0.13181	0.04914
0.07220	0.10015
-0.31033	-0.12942
0.22521	-0.28246
-0.23382	0.07465
0.65874	0.63582
0.55673	0.35523
-0.69285	0.22769
-0.97337	-0.92016
-0.05531	-0.20594
0.73524	0.50828
0.48022	0.38074
0.14870	0.38074
0.25071	0.27871
-0.08081	0.35523
0.07220	0.17668
0.45472	0.04914
0.42922	0.15117
0.88825	0.43176
0.02119	0.86539
-1.66191	-0.00188
0.32721	-0.02739
-0.05531	-1.99148
0.02119	-0.10391
0.96476	0.43176
0.83725	0.96742
0.07220	0.53379
0.17421	0.17668
0.19971	0.22769
0.07220	0.45726
0.30171	0.17668
0.17421	-0.07840
-0.28482	-0.23145
-0.76936	-0.20594
0.35272	0.20219
-0.61635	0.76336
0.14870	0.96742
1.57679	0.04914
0.42922	0.22769
0.40372	-0.71609
0.83725	0.25320
-2.27395	0.15117
-0.99887	0.04914
0.42922	0.27871
1.42379	0.02363
0.17421	0.32972
0.99026	0.25320
1.34728	-0.00188
-0.05531	0.12566
-0.97337	-0.07840
0.04670	-0.02739
0.19971	0.10015
0.12320	0.04914
0.48022	0.50828
-0.69285	0.35523
-0.43783	0.12566
0.55673	0.30422
0.60773	-0.10391
0.09770	0.10015
0.53123	-0.30797
-0.18282	-0.02739
-0.10631	0.25320
0.27621	0.50828
0.53123	-0.00188
0.93925	0.17668
-1.94243	0.15117
-0.36133	0.22769
0.35272	0.32972
-0.18282	-0.35899
0.25071	0.07465
1.14327	0.35523
0.07220	0.43176
0.07220	0.12566
1.09226	0.53379
0.37822	-0.25695
0.70974	-0.20594
0.50573	-0.07840
-1.81492	0.15117
-0.36133	0.45726
0.83725	0.73785
0.09770	-0.35899
-2.57997	-0.25695
0.93925	-1.04770
0.99026	0.32972
0.99026	1.22250
0.58223	0.48277
-0.23382	0.66132
0.32721	0.07465
0.27621	0.12566
0.78624	-0.48652
0.55673	-0.28246
-2.32496	0.17668
-0.31033	0.53379
0.12320	0.55929
0.50573	-0.30797
1.44929	0.15117
0.25071	0.07465
0.09770	0.04914
-0.64185	0.20219
-0.97337	-0.15492
0.68424	-0.35899
0.73524	0.66132
0.07220	-0.00188
0.63323	0.22769
0.45472	0.20219
0.42922	0.02363
-0.41233	0.20219
0.17421	0.27871
0.30171	0.25320
0.40372	0.86539
0.48022	0.07465
0.42922	-0.10391
-1.45790	0.04914
0.37822	0.02363
-0.10631	-0.05289
0.07220	0.30422
0.70974	-0.28246
0.35272	0.22769
0.02119	0.22769
0.48022	0.12566
0.14870	0.12566
-0.43783	-0.02739
0.70974	0.15117
-1.15188	0.58480
0.17421	0.38074
1.67880	0.38074
-0.38683	-0.15492
0.65874	0.15117
-0.61635	-0.20594
0.45472	-0.00188
-0.59084	-0.25695
0.37822	0.15117
0.73524	0.45726
0.19971	0.38074
0.14870	0.15117
0.07220	0.17668
0.04670	0.17668
0.22521	0.17668
-0.25932	0.04914
0.04670	-0.02739
0.30171	0.25320
0.02119	0.30422
-0.08081	0.04914
0.14870	-0.38449
-0.82036	0.12566
0.35272	0.38074
1.80631	0.55929
-0.69285	0.12566
-1.58541	-0.23145
0.65874	-0.12942
0.63323	0.55929
0.50573	-0.41000
1.24527	0.55929
0.19971	0.10015
0.07220	0.04914
0.63323	0.15117
-0.79486	0.35523
-1.48340	0.40625
0.25071	-0.12942
0.55673	0.04914
0.37822	0.10015
0.65874	0.45726
0.09770	0.17668
0.14870	0.07465
0.12320	0.15117
0.07220	0.30422
0.14870	0.10015
-0.00431	0.10015
0.30171	0.12566
-0.05531	-0.05289
0.09770	-0.00188
0.17421	0.30422
0.19971	0.22769
0.83725	0.17668
0.50573	0.20219
-1.53441	0.10015
-0.28482	0.22769
0.76074	-0.23145
0.55673	-0.18043
0.63323	0.20219
0.96476	0.15117
-0.28482	0.22769
-1.30489	0.15117
-0.10631	0.71234
0.68424	0.20219
0.42922	0.43176
0.35272	0.20219
0.19971	0.32972
0.04670	-0.15492
-0.00431	0.30422
0.55673	-0.33348
0.73524	-0.07840
-0.64185	0.15117
-0.36133	0.66132
0.27621	-0.71609
-1.53441	0.07465
0.48022	-0.10391
0.76074	0.43176
0.40372	0.76336
0.55673	0.58480
0.45472	0.10015
0.68424	0.10015
0.50573	0.04914
0.53123	0.35523
-0.28482	-0.15492
-0.89686	-0.48652
-0.71835	-0.12942
0.02119	-0.07840
0.19971	0.94191
0.55673	0.48277
0.40372	0.25320
0.27621	-0.05289
0.32721	0.22769
1.24527	0.25320
-0.13181	0.02363
-1.48340	0.07465
0.19971	0.02363
0.22521	0.20219
0.48022	0.10015
0.76074	0.04914
0.27621	0.27871
-0.92237	0.43176
1.21977	0.55929
-1.17738	-0.12942
-0.18282	-0.46102
0.48022	-0.99668
0.50573	0.48277
0.45472	0.83988
0.58223	0.66132
0.25071	0.50828
-0.38683	0.25320
-0.08081	0.32972
0.35272	-0.28246
-0.41233	0.10015
0.30171	-0.63957
-0.10631	-0.20594
0.53123	0.25320
-1.38139	0.55929
1.27078	0.61031
1.39828	1.17148
-1.04987	-0.18043
-0.66735	-0.02739
0.55673	-1.32828
0.91375	-0.46102
0.83725	0.68683
0.68424	0.78886
0.12320	0.55929
0.07220	0.30422
0.88825	0.30422
-0.82036	0.04914
-0.89686	0.32972
0.32721	0.04914
0.37822	0.02363
-0.13181	0.02363
-0.23382	-0.35899
0.40372	0.04914
0.65874	0.02363
0.45472	0.17668
1.75531	0.20219
0.48022	0.35523
-3.49803	0.50828
-1.73842	0.10015
1.01576	-0.05289
1.24527	0.40625
0.68424	0.43176
1.19427	-0.10391
0.48022	0.32972
0.63323	-0.30797
1.06676	-0.35899
-0.89686	-0.28246
-2.17195	-0.23145
0.37822	0.40625
1.52579	0.81437
0.14870	0.78886
-0.10631	0.66132
0.19971	0.48277
0.19971	-0.18043
0.17421	-0.07840
-0.82036	-0.56305
0.93925	-0.10391
1.09226	0.48277
-0.02981	0.15117
-0.08081	0.02363
0.27621	0.15117
0.70974	0.32972
-0.28482	0.27871
-1.81492	-0.15492
0.58223	-0.07840
1.14327	-0.81812
0.27621	0.22769
0.50573	0.78886
0.93925	0.66132
-0.28482	0.30422
-1.10088	-0.00188
-0.76936	-0.15492
0.81175	-0.10391
0.96476	0.53379
-0.10631	0.32972
0.60773	0.25320
1.29628	0.48277
0.48022	-0.56305
-0.31033	0.10015
-0.23382	0.04914
-0.82036	0.15117
-0.28482	-0.20594
0.35272	-0.02739
0.55673	0.30422
0.42922	0.66132
-0.08081	0.30422
0.02119	0.25320
0.30171	0.04914
0.07220	0.02363
-0.02981	0.30422
0.42922	-0.15492
-0.38683	0.30422
-0.18282	0.15117
0.37822	-0.15492
1.80631	-0.07840
-0.02981	-0.33348
-1.15188	-0.05289
-0.00431	0.61031
0.32721	0.68683
0.12320	0.40625
0.45472	0.30422
1.50029	0.50828
-0.48884	0.22769
-1.07538	-0.28246
0.45472	-0.12942
1.06676	-0.02739
-0.61635	0.02363
1.29628	0.63582
-0.59084	-0.15492
-2.50347	-0.00188
1.78081	-1.27726
0.42922	-0.00188
0.22521	0.76336
0.60773	1.24800
0.48022	0.63582
0.09770	0.53379
0.19971	0.38074
0.04670	0.22769
0.25071	0.22769
0.14870	-0.48652
0.50573	-0.48652
-1.38139	-0.51203
0.12320	0.45726
0.17421	0.53379
0.50573	0.53379
0.40372	0.20219
0.25071	-0.02739
0.17421	0.04914
0.32721	-0.07840
0.12320	0.02363
0.12320	0.25320
0.09770	0.30422
0.35272	0.76336
0.27621	0.17668
-0.15732	-0.99668
0.70974	-0.63957
-0.10631	-0.35899
-1.15188	0.96742
-0.59084	0.89089
0.63323	0.66132
0.63323	0.40625
0.70974	0.27871
0.70974	-0.02739
0.22521	-0.00188
-0.10631	-0.12942
0.76074	0.20219
-0.51434	-0.00188
-0.79486	-0.05289
0.81175	-0.02739
0.17421	-0.12942
0.68424	0.35523
0.14870	0.38074
-0.89686	-0.33348
-0.46334	0.07465
-0.43783	0.45726
0.91375	0.76336
0.93925	0.27871
-0.33583	0.40625
-0.71835	0.12566
0.78624	0.17668
0.81175	0.12566
0.73524	-0.43551
1.39828	0.15117
0.55673	-0.28246
-0.66735	0.45726
1.16877	-0.30797
-1.12638	0.20219
-1.45790	0.53379
0.09770	0.35523
0.09770	0.04914
0.60773	0.04914
0.35272	0.02363
0.40372	0.27871
0.37822	0.22769
-0.05531	0.10015
0.09770	0.30422
0.35272	0.50828
-0.71835	-0.30797
0.81175	0.15117
0.53123	-0.15492
-0.89686	-0.12942
0.45472	-0.46102
0.35272	0.35523
0.48022	0.63582
0.53123	0.45726
0.70974	0.30422
0.30171	0.07465
-1.38139	0.15117
-0.00431	-0.35899
0.27621	0.20219
0.70974	0.17668
0.09770	0.43176
0.22521	0.38074
1.75531	0.10015
-0.79486	0.20219
-2.09544	-0.05289
0.09770	-0.07840
0.86275	0.07465
0.99026	-0.05289
0.09770	0.32972
0.04670	0.27871
0.37822	0.17668
-0.13181	0.53379
0.50573	0.30422
0.09770	0.07465
0.42922	-0.25695
0.58223	0.10015
-0.84586	0.15117
-1.15188	0.30422
0.22521	0.35523
0.45472	-0.07840
0.63323	-0.10391
0.32721	0.27871
0.81175	0.04914
0.35272	-0.15492
-0.00431	0.20219
-0.02981	0.20219
-0.28482	0.12566
-0.05531	0.45726
0.17421	0.10015
0.96476	0.20219
0.02119	0.17668
-0.94787	0.25320
0.65874	0.20219
1.52579	0.53379
-0.41233	-0.43551
-0.25932	-0.20594
-0.74385	-0.86914
-0.08081	0.20219
0.12320	0.71234
0.60773	0.66132
1.14327	0.43176
-0.00431	0.20219
-0.25932	0.10015
0.91375	-0.07840
-0.33583	-0.07840
-0.05531	0.10015
0.42922	0.07465
0.32721	0.20219
0.14870	0.15117
0.02119	0.20219
0.45472	0.02363
-0.23382	0.22769
-0.99887	0.15117
0.40372	-0.00188
0.02119	0.10015
0.27621	0.17668
0.32721	0.07465
-0.94787	0.43176
0.07220	0.15117
0.09770	0.35523
0.53123	0.10015
1.06676	-0.18043
0.07220	0.15117
0.27621	0.02363
0.76074	-0.02739
-0.41233	0.15117
-1.04987	0.22769
0.42922	-0.48652
0.40372	0.27871
0.12320	0.61031
-0.08081	-0.05289
1.19427	0.71234
0.40372	0.53379
0.78624	0.17668
-0.13181	0.02363
-0.82036	-0.20594
-0.20832	-0.02739
0.12320	0.22769
0.40372	0.12566
0.37822	-0.18043
-0.02981	-0.00188
-0.15732	0.40625
-0.20832	0.53379
0.12320	0.32972
0.91375	0.27871
0.88825	-0.15492
-0.18282	-0.07840
0.12320	0.40625
-0.53984	-0.00188
0.83725	0.22769
0.40372	-0.71609
0.78624	-0.12942
-0.18282	0.61031
-0.18282	0.76336
0.17421	0.55929
0.07220	0.50828
0.35272	0.55929
0.48022	-0.20594
-0.13181	0.02363
-0.38683	0.32972
-0.46334	-0.23145
0.04670	-0.18043
0.42922	-0.07840
0.60773	0.02363
1.55129	0.15117
0.86275	0.30422
-1.63641	0.30422
0.22521	-0.00188
0.76074	-0.23145
-1.84042	-0.00188
0.02119	-0.10391
0.63323	0.53379
0.99026	0.68683
1.37278	0.63582
0.96476	0.96742
-0.15732	-0.12942
-1.89143	-0.30797
0.35272	-0.79262
0.70974	0.32972
-1.07538	0.40625
0.30171	0.58480
0.17421	0.04914
0.50573	0.25320
0.32721	-0.15492
0.17421	0.10015
0.45472	-0.00188
0.09770	0.15117
0.12320	0.07465
0.09770	0.04914
0.37822	0.07465
-0.25932	-0.15492
0.02119	0.58480
0.09770	0.20219
0.91375	0.30422
0.04670	0.30422
1.16877	0.48277
-0.56534	-0.25695
-0.89686	-0.25695
-0.46334	-0.23145
0.63323	0.20219
1.04126	0.68683
0.73524	0.71234
0.17421	0.25320
1.42379	0.07465
0.81175	-0.35899
-2.83499	-0.20594
-0.28482	0.35523
0.17421	0.32972
0.25071	-0.51203
0.81175	0.12566
0.55673	0.22769
0.70974	0.45726
0.12320	0.20219
-0.02981	0.17668
0.22521	0.07465
0.12320	0.30422
-0.76936	0.12566
-0.20832	-0.02739
0.50573	-0.18043
0.88825	0.30422
-0.59084	0.61031
0.04670	0.35523
-0.66735	0.20219
0.83725	0.02363
0.50573	-0.30797
0.22521	-0.02739
0.91375	0.27871
0.04670	0.68683
-0.43783	0.83988
0.55673	0.61031
0.68424	-1.09871
0.27621	-0.20594
-0.41233	-0.00188
0.14870	-0.00188
0.93925	0.20219
-0.25932	0.10015
-0.20832	0.63582
-2.37596	0.38074
1.47479	0.02363
-0.36133	0.32972
0.07220	0.17668
1.37278	-0.12942
1.52579	0.25320
-1.91693	-0.00188
0.50573	0.43176
0.45472	0.17668
1.09226	0.22769
2.03582	-0.00188
-0.33583	0.10015
-1.81492	0.10015
-0.43783	0.02363
-0.10631	0.07465
0.70974	0.10015
1.04126	0.02363
-0.48884	0.12566
-0.10631	0.02363
1.16877	0.50828
-0.10631	0.45726
-0.08081	0.17668
-0.48884	-0.18043
0.37822	0.17668
0.37822	0.35523
-0.25932	-0.20594
0.37822	0.20219
0.12320	0.04914
0.37822	-0.10391
0.25071	0.20219
0.32721	0.10015
0.09770	0.35523
0.17421	0.48277
0.25071	0.22769
-0.66735	-0.35899
-0.23382	0.30422
0.40372	0.32972
0.63323	0.63582
-1.50890	0.07465
0.63323	0.15117
0.99026	-0.25695
1.24527	-0.05289
-0.00431	0.02363
-1.35589	-0.56305
0.55673	0.40625
0.30171	0.76336
0.73524	0.30422
0.40372	0.12566
0.17421	-0.00188
-0.92237	-0.05289
0.42922	0.32972
-0.02981	0.43176
-0.38683	-0.25695
0.60773	0.48277
0.88825	-0.30797
-0.66735	-0.18043
0.27621	-0.30797
0.83725	0.17668
0.14870	0.61031
-0.71835	0.66132
-0.23382	0.55929
0.58223	0.20219
0.99026	-0.05289
0.02119	-0.02739
0.63323	0.15117
0.81175	0.58480
0.14870	0.55929
-0.79486	-0.28246
-0.92237	-0.12942
0.19971	-0.30797
0.40372	-0.05289
0.65874	-0.28246
0.96476	-0.10391
-0.00431	0.12566
-0.18282	0.48277
0.04670	0.25320
0.25071	1.01843
0.19971	-0.05289
0.09770	0.20219
0.45472	0.68683
-0.38683	0.30422
0.45472	-0.15492
