0.14870	0.20219
0.09770	0.10015
0.14870	0.20219
0.19971	0.20219
0.12320	0.07465
0.14870	0.17668
0.14870	0.15117
0.14870	0.15117
0.14870	0.10015
0.12320	0.07465
0.12320	0.22769
0.12320	0.10015
0.09770	0.10015
0.17421	0.20219
0.22521	0.15117
0.09770	0.15117
0.19971	0.15117
0.14870	0.07465
0.17421	0.22769
0.12320	0.02363
0.04670	0.22769
0.22521	0.22769
0.04670	0.02363
0.19971	0.07465
0.17421	0.02363
0.12320	-0.10391
0.14870	0.30422
0.07220	0.35523
0.19971	0.27871
0.09770	0.25320
0.09770	0.22769
0.09770	-0.00188
0.09770	0.15117
0.17421	0.20219
0.25071	0.12566
0.09770	0.15117
0.19971	0.20219
0.17421	0.07465
0.07220	-0.00188
0.12320	0.12566
0.14870	0.15117
0.07220	0.07465
0.19971	0.20219
0.17421	0.12566
0.07220	0.12566
0.09770	0.22769
0.27621	0.10015
0.09770	0.04914
0.12320	0.30422
0.07220	0.12566
0.12320	0.17668
0.19971	0.20219
-0.10631	-0.05289
0.19971	0.12566
0.19971	0.22769
0.19971	0.17668
0.12320	0.20219
0.12320	0.22769
0.22521	0.22769
0.07220	0.12566
0.04670	0.15117
0.22521	0.10015
0.12320	0.17668
0.09770	-0.02739
0.17421	0.04914
0.17421	-0.12942
0.30171	0.15117
0.14870	0.10015
-0.08081	0.20219
-0.05531	0.32972
0.19971	0.22769
0.27621	0.27871
0.02119	0.10015
0.27621	0.12566
0.22521	0.07465
0.19971	0.12566
0.14870	0.15117
0.19971	0.10015
0.14870	0.12566
0.07220	0.15117
0.09770	0.10015
0.09770	0.20219
0.04670	0.12566
0.22521	0.15117
0.25071	0.12566
0.07220	0.20219
0.09770	0.07465
0.30171	0.15117
0.09770	0.20219
0.09770	0.15117
0.04670	0.10015
0.25071	0.20219
0.19971	0.17668
0.27621	0.27871
0.12320	0.07465
0.12320	0.07465
0.19971	0.04914
0.17421	0.22769
0.14870	0.17668
0.14870	0.17668
-0.00431	0.04914
0.02119	0.10015
0.02119	0.20219
0.19971	0.04914
0.12320	0.25320
0.19971	0.27871
0.22521	0.04914
0.12320	0.04914
0.09770	0.02363
0.19971	-0.02739
0.09770	0.27871
0.07220	0.25320
0.27621	0.35523
0.07220	-0.07840
0.17421	0.35523
0.14870	0.10015
0.09770	0.32972
0.09770	0.07465
0.17421	0.27871
0.17421	0.12566
0.12320	0.10015
0.07220	-0.05289
0.12320	0.12566
0.17421	0.10015
0.27621	0.12566
0.17421	0.10015
-0.05531	0.20219
-0.00431	0.12566
0.12320	0.20219
0.27621	-0.00188
0.17421	0.25320
0.22521	0.20219
0.02119	0.30422
-0.00431	0.15117
0.32721	0.27871
0.12320	-0.00188
0.27621	0.07465
0.19971	0.04914
0.42922	0.15117
-0.02981	0.17668
-0.56534	0.22769
-0.79486	0.10015
0.42922	0.27871
0.58223	0.02363
0.58223	0.10015
0.45472	0.10015
0.19971	0.22769
0.09770	0.15117
0.07220	-0.05289
0.09770	0.25320
-0.13181	0.02363
0.25071	0.25320
-0.00431	0.25320
0.22521	0.17668
0.12320	0.15117
0.12320	0.15117
0.07220	0.10015
0.12320	-0.10391
0.14870	0.12566
0.14870	0.04914
0.12320	0.22769
0.19971	0.15117
0.19971	0.30422
0.27621	0.25320
0.14870	0.25320
0.19971	0.45726
0.07220	0.10015
0.12320	-0.05289
0.09770	-0.10391
0.48022	0.12566
0.09770	0.07465
-0.33583	0.22769
-0.05531	0.22769
0.19971	0.22769
0.45472	0.27871
0.09770	0.02363
0.27621	0.04914
0.32721	0.20219
0.07220	0.04914
-0.13181	0.17668
0.07220	0.02363
0.32721	0.17668
0.19971	-0.02739
0.22521	0.02363
0.27621	0.22769
0.27621	0.25320
-0.02981	-0.02739
0.04670	0.15117
0.12320	0.12566
0.07220	0.38074
-0.00431	0.17668
0.12320	0.25320
0.17421	0.04914
0.25071	0.12566
0.27621	0.30422
0.07220	0.20219
-0.02981	-0.05289
0.19971	0.02363
0.68424	-0.00188
0.19971	-0.23145
-0.48884	0.27871
-0.48884	0.35523
-0.31033	0.15117
0.45472	0.25320
0.70974	0.17668
0.50573	0.20219
0.32721	0.20219
0.32721	0.22769
0.12320	0.02363
0.04670	-0.00188
-0.02981	-0.15492
-0.05531	-0.07840
-0.13181	-0.07840
-0.36133	0.35523
0.53123	0.45726
0.22521	0.35523
0.19971	0.32972
0.30171	0.15117
-0.08081	0.02363
0.22521	0.20219
0.30171	0.10015
0.12320	-0.12942
0.17421	-0.00188
0.12320	0.32972
-0.10631	0.30422
0.09770	-0.07840
0.12320	-0.05289
0.35272	0.10015
0.14870	0.48277
0.04670	0.10015
0.09770	0.35523
-0.02981	-0.02739
0.37822	0.07465
0.91375	0.22769
1.06676	0.07465
-0.41233	0.22769
-1.30489	0.04914
-1.25389	0.22769
1.21977	0.40625
1.39828	0.15117
0.45472	-0.10391
-0.41233	-0.05289
-0.00431	-0.07840
0.73524	0.45726
0.50573	0.10015
0.55673	0.17668
0.09770	0.12566
-1.04987	0.20219
-0.53984	0.07465
0.58223	0.15117
0.58223	-0.12942
0.09770	0.25320
-1.53441	0.02363
-0.25932	-0.20594
-0.69285	0.25320
0.70974	0.58480
2.16333	0.30422
0.63323	0.07465
-0.31033	0.10015
0.68424	-0.00188
0.93925	0.40625
0.09770	-0.07840
-2.40146	0.25320
0.30171	0.07465
1.42379	0.35523
1.62780	0.35523
-0.74385	-0.07840
-1.22839	0.02363
-0.97337	-0.23145
0.04670	-0.30797
0.70974	0.10015
0.58223	0.27871
0.76074	0.86539
0.32721	0.50828
0.30171	-0.12942
0.55673	-0.33348
-0.53984	-0.02739
0.68424	-0.23145
-0.23382	0.55929
-1.55991	0.45726
-0.66735	0.22769
0.45472	0.17668
0.50573	0.63582
0.73524	-0.00188
0.91375	-0.30797
0.27621	0.32972
-0.05531	0.78886
1.34728	0.27871
0.70974	-0.46102
-0.51434	-0.35899
-0.18282	-0.46102
0.02119	-0.18043
0.04670	0.25320
0.88825	0.55929
-0.18282	-0.05289
-0.25932	0.15117
1.93382	1.04394
-1.33039	0.38074
-4.00806	0.20219
-0.56534	-0.05289
1.85731	-0.02739
2.06133	-0.30797
1.85731	0.20219
0.48022	0.73785
-0.33583	0.22769
-0.10631	-0.46102
0.45472	0.25320
0.02119	-0.12942
-0.28482	-0.53754
0.60773	0.12566
-0.20832	0.04914
-0.36133	0.83988
-0.10631	0.15117
0.19971	0.17668
-0.20832	0.12566
0.73524	0.45726
0.37822	-0.41000
-1.15188	0.12566
-0.53984	1.65613
0.35272	0.61031
-2.12094	-0.10391
0.68424	-0.99668
1.85731	-0.56305
1.24527	-0.86914
1.01576	-0.61406
0.73524	0.45726
0.45472	1.06945
-0.05531	0.99292
0.17421	0.89089
0.81175	0.25320
-1.10088	-0.58856
-2.35046	-0.61406
-0.61635	0.63582
0.50573	0.25320
0.81175	0.32972
0.70974	-0.02739
0.37822	-0.05289
0.12320	0.07465
0.22521	-0.28246
0.60773	0.35523
0.63323	0.22769
0.04670	-0.25695
-0.15732	-0.25695
-0.23382	0.27871
0.37822	0.55929
0.50573	0.43176
-0.00431	0.25320
-0.87136	0.71234
0.50573	0.12566
0.73524	0.04914
-0.87136	0.02363
0.09770	-0.35899
0.48022	-0.46102
0.70974	-0.18043
0.30171	-0.99668
0.81175	0.35523
0.45472	0.76336
-0.51434	0.22769
0.14870	1.50308
-0.08081	0.66132
-0.08081	0.35523
0.27621	0.04914
0.17421	0.07465
0.19971	-0.10391
-0.08081	-0.25695
0.12320	-0.15492
0.22521	-0.23145
0.12320	0.35523
-0.15732	-0.71609
0.86275	0.61031
0.88825	0.53379
-0.20832	0.10015
-0.05531	-0.38449
-0.33583	0.10015
0.14870	0.66132
0.76074	0.45726
0.07220	0.27871
-0.25932	-0.02739
0.22521	0.04914
-0.20832	0.12566
-0.13181	0.12566
0.09770	0.04914
-0.05531	0.25320
0.25071	0.07465
1.24527	0.58480
0.17421	0.15117
0.09770	-0.38449
0.22521	0.30422
-1.07538	-0.23145
0.63323	0.15117
0.78624	0.25320
-0.64185	-0.23145
-0.08081	0.53379
-0.00431	0.81437
0.68424	1.37554
0.78624	0.15117
-0.13181	-2.52714
-0.18282	-0.69059
-0.33583	-0.10391
0.35272	0.73785
0.70974	1.29902
0.88825	0.66132
0.55673	0.30422
1.55129	0.48277
-0.66735	-0.02739
-2.35046	-0.30797
-1.89143	-0.79262
0.55673	-0.33348
2.01032	0.17668
0.63323	0.32972
-0.20832	0.71234
1.47479	0.71234
0.22521	0.45726
-0.13181	0.04914
-0.15732	-0.02739
0.42922	-0.43551
-0.08081	-0.20594
0.22521	0.22769
-0.13181	0.48277
0.19971	0.04914
1.32178	0.86539
-1.38139	0.04914
-1.15188	-0.81812
1.62780	-0.10391
0.58223	-0.07840
-0.18282	1.17148
0.12320	2.01323
-0.28482	-0.30797
-0.82036	-0.15492
0.37822	-1.50683
1.06676	-0.74160
1.01576	0.89089
0.63323	0.66132
-0.69285	0.17668
0.96476	0.27871
0.48022	0.12566
0.12320	0.15117
1.42379	0.02363
-0.36133	-0.38449
-4.51810	-0.12942
-0.56534	-0.07840
3.10689	0.50828
1.01576	0.02363
1.04126	0.48277
0.42922	0.89089
-0.31033	0.15117
0.40372	0.15117
1.70430	0.53379
-1.55991	-0.66508
-2.52897	-1.43031
0.99026	-0.74160
0.78624	0.86539
1.27078	1.12046
0.73524	0.89089
-1.71292	0.40625
0.12320	0.50828
0.70974	0.73785
-0.51434	0.43176
-1.25389	-0.00188
3.25990	0.20219
0.76074	-0.53754
-0.38683	0.02363
0.42922	-1.96597
-1.63641	-1.12422
-0.79486	0.58480
0.70974	2.06425
0.12320	1.04394
0.78624	1.06945
1.85731	0.27871
0.81175	0.27871
-0.97337	-0.38449
-1.02437	-0.76711
0.65874	0.96742
0.48022	-0.35899
-2.93700	-0.66508
-0.38683	-0.99668
1.55129	-0.97117
0.68424	0.71234
1.50029	1.37554
0.14870	0.89089
0.30171	0.40625
-0.66735	0.61031
1.11776	0.50828
-0.76936	-0.18043
-0.28482	0.22769
-0.00431	-0.25695
-2.19745	0.04914
-0.99887	1.14597
1.11776	1.09496
2.29084	-0.71609
1.55129	-0.99668
2.44385	-1.40480
0.86275	-0.86914
-1.40690	-0.15492
-3.90606	0.17668
-0.69285	0.04914
1.72980	1.80917
1.09226	1.32453
-0.23382	1.75816
2.08683	1.75816
2.85188	0.94191
-5.76768	-2.04250
-2.17195	-1.65988
-1.84042	-0.23145
2.13783	0.45726
3.69343	0.96742
3.94845	1.47757
-1.61091	-0.25695
-2.75848	-1.30277
0.42922	-0.23145
1.57679	-0.53754
2.18883	0.35523
-4.33958	-0.23145
-3.93156	-0.86914
1.57679	1.57960
2.54586	0.96742
3.03039	0.45726
0.76074	-0.25695
0.96476	0.73785
-0.28482	0.83988
-2.75848	0.35523
-1.20288	0.04914
-0.64185	-0.05289
2.26534	-0.35899
0.25071	-1.27726
-2.12094	-0.58856
0.07220	0.71234
0.91375	0.71234
2.06133	0.76336
0.14870	1.12046
0.42922	-0.38449
0.83725	-0.99668
1.01576	-0.30797
-0.56534	-0.33348
-1.38139	-0.15492
1.95932	0.32972
-2.04444	-0.05289
-1.76392	0.55929
0.96476	1.24800
0.81175	0.35523
0.96476	1.57960
0.93925	1.04394
2.54586	0.04914
-3.19201	-0.76711
-3.67654	-1.14973
0.91375	0.45726
1.75531	-0.07840
1.19427	0.40625
0.50573	0.27871
1.21977	0.25320
-0.02981	0.15117
-2.60547	0.27871
0.86275	-1.22625
0.12320	-1.99148
2.44385	-0.02739
0.81175	1.27351
-0.87136	2.70194
-1.25389	1.68163
0.17421	-0.41000
1.34728	0.45726
-0.53984	0.07465
-0.13181	-0.51203
-0.56534	-0.66508
0.68424	-0.43551
0.09770	0.38074
0.42922	0.07465
1.93382	0.43176
-1.43240	0.61031
-0.13181	0.22769
0.45472	-1.25176
0.73524	-0.46102
0.22521	-0.12942
2.29084	-0.23145
-1.27939	0.38074
-0.99887	1.09496
0.22521	1.86019
1.83181	2.16628
-0.25932	0.40625
-3.37052	1.52859
-0.02981	-0.30797
-1.96793	-2.83324
0.88825	-1.81293
1.78081	-0.05289
0.19971	0.81437
1.24527	0.86539
0.93925	0.22769
0.48022	-0.41000
0.42922	-0.56305
-0.82036	0.07465
0.86275	0.25320
0.50573	0.25320
-0.23382	0.55929
0.68424	0.78886
-0.69285	0.96742
-2.88599	-0.07840
-0.82036	-0.05289
0.48022	-0.81812
1.39828	-1.22625
0.68424	0.32972
0.17421	1.63062
0.35272	0.43176
0.76074	-0.23145
-1.20288	0.61031
-0.25932	0.15117
1.78081	0.89089
1.01576	-0.56305
0.99026	-0.38449
-0.97337	-0.63957
-1.25389	-2.06800
0.07220	-0.76711
0.48022	0.81437
0.27621	1.83468
1.52579	1.40105
2.26534	1.01843
-1.43240	0.73785
-4.41609	0.40625
-2.17195	0.61031
1.44929	1.14597
2.90288	-0.94566
1.50029	-0.92016
1.06676	-1.83844
-1.66191	-2.42511
0.30171	-0.51203
0.37822	0.89089
1.75531	1.50308
0.53123	0.35523
-2.70748	1.63062
-0.05531	0.83988
0.09770	0.55929
0.14870	0.63582
0.63323	-0.20594
0.83725	-0.94566
2.18883	-0.30797
-1.63641	-0.61406
-2.65648	0.04914
1.55129	0.76336
0.14870	0.61031
1.44929	0.55929
0.48022	0.04914
-1.96793	-0.05289
-0.10631	-0.05289
0.63323	0.55929
1.55129	0.10015
1.95932	0.07465
-0.23382	-1.04770
-2.19745	0.04914
-3.57454	0.38074
1.62780	-0.25695
0.27621	0.81437
0.78624	0.83988
2.36734	0.40625
0.30171	1.27351
-2.32496	0.30422
-1.30489	-0.10391
2.13783	-1.32828
-1.30489	-1.86394
0.50573	-0.51203
0.81175	0.91640
0.35272	1.40105
0.88825	0.83988
-0.13181	0.89089
0.09770	0.38074
2.23984	-0.10391
-0.38683	-0.25695
-2.40146	0.04914
1.24527	-0.12942
-0.79486	-0.02739
-2.17195	0.45726
1.06676	-0.07840
1.24527	-0.10391
1.21977	-0.15492
1.32178	0.04914
0.70974	0.58480
0.37822	0.76336
-1.12638	-0.30797
0.65874	1.29902
0.78624	-1.12422
-0.79486	-0.92016
0.17421	-0.15492
0.14870	0.04914
-0.92237	0.45726
0.07220	1.06945
0.65874	2.21730
0.55673	-0.05289
2.03582	0.22769
-3.09000	-1.37929
0.91375	-1.43031
1.55129	1.06945
-1.27939	0.81437
1.14327	0.50828
0.42922	0.25320
0.32721	0.40625
-0.20832	0.81437
-2.14644	-0.56305
0.50573	-0.71609
1.14327	-1.27726
0.76074	-0.23145
0.70974	0.30422
0.88825	0.94191
0.58223	0.58480
0.40372	0.17668
-1.22839	0.38074
0.53123	0.71234
0.76074	0.27871
-2.45246	0.04914
0.12320	-0.51203
0.88825	-0.86914
0.37822	-0.18043
0.12320	0.50828
0.60773	1.27351
0.53123	0.96742
2.21434	0.35523
-0.99887	-0.15492
-4.28858	-0.23145
0.78624	-0.12942
1.29628	-0.53754
1.24527	0.38074
0.04670	0.38074
0.22521	0.94191
0.40372	0.50828
0.50573	0.15117
-0.10631	-1.09871
0.07220	-0.84363
0.93925	-0.28246
1.55129	0.58480
-2.98800	2.37034
-1.91693	0.76336
1.37278	0.35523
0.73524	-1.60887
-0.38683	-0.25695
1.65330	-0.18043
-0.53984	0.45726
-1.27939	1.12046
1.65330	-0.33348
1.09226	0.15117
0.96476	-0.81812
0.30171	-0.51203
-0.20832	0.86539
-0.08081	0.96742
-0.59084	0.96742
0.09770	0.55929
-0.02981	0.63582
0.42922	0.04914
0.04670	-0.20594
-0.74385	-0.25695
0.53123	-0.07840
0.40372	-0.35899
0.70974	-0.05289
0.22521	0.12566
0.19971	0.10015
0.19971	0.12566
0.30171	0.17668
0.07220	-0.05289
-0.08081	0.50828
0.42922	0.17668
-0.15732	0.50828
-0.71835	0.12566
0.25071	-0.25695
0.45472	-0.53754
0.53123	-0.28246
0.04670	0.35523
0.50573	1.09496
0.73524	1.19699
0.83725	1.42656
-1.48340	0.10015
-0.43783	-0.99668
0.32721	-0.63957
1.06676	-0.30797
0.65874	-0.00188
0.93925	-0.10391
0.22521	0.99292
-2.14644	0.96742
0.02119	0.86539
0.53123	-0.07840
1.42379	0.61031
1.34728	-0.48652
-2.96250	-0.79262
0.42922	-1.17523
2.11233	0.68683
-0.15732	0.40625
0.76074	-0.51203
-0.33583	0.73785
0.12320	0.86539
0.17421	0.53379
0.55673	0.50828
0.17421	0.66132
0.12320	0.25320
1.93382	-0.71609
-0.28482	-0.76711
-2.29945	-1.25176
-0.43783	0.71234
0.19971	0.83988
0.88825	0.71234
0.93925	0.38074
0.14870	0.25320
1.21977	0.20219
0.83725	-0.00188
-3.09000	0.04914
-0.25932	0.10015
1.19427	-0.25695
-0.08081	-0.51203
0.35272	-0.46102
0.55673	0.50828
0.04670	0.63582
-0.20832	0.83988
1.83181	-0.25695
-0.31033	-0.23145
-0.69285	-0.41000
1.01576	-0.12942
-1.53441	1.14597
-1.15188	0.89089
1.01576	1.75816
1.21977	-0.43551
0.70974	-0.15492
-1.33039	-2.68019
-1.68742	0.78886
1.52579	1.35003
0.22521	-0.02739
1.37278	-0.12942
1.52579	-0.05289
-1.81492	0.35523
0.68424	0.35523
0.53123	0.12566
-0.33583	-0.02739
0.99026	-1.48133
-0.46334	0.38074
-1.17738	0.94191
0.78624	0.76336
-0.00431	0.07465
0.83725	0.78886
0.04670	-0.25695
-0.48884	0.10015
1.60230	-0.30797
0.02119	0.02363
-3.19201	0.22769
-1.45790	0.07465
1.72980	-0.12942
-0.41233	0.02363
1.27078	-0.25695
0.93925	0.66132
0.42922	0.94191
0.22521	0.35523
-0.10631	0.15117
0.14870	-0.05289
0.25071	0.25320
-0.05531	0.43176
-0.38683	0.10015
0.32721	-0.56305
0.09770	0.02363
0.88825	-0.76711
-0.00431	0.43176
-0.43783	-0.25695
-1.22839	1.27351
-1.07538	-0.35899
2.11233	0.55929
-0.15732	0.78886
0.09770	0.50828
0.73524	0.04914
1.01576	0.30422
0.78624	-0.18043
-0.82036	-0.74160
0.09770	-0.05289
-0.31033	0.76336
0.02119	0.12566
1.52579	-0.18043
1.11776	1.35003
-1.07538	-1.14973
-2.52897	-0.58856
-2.06994	-0.74160
0.83725	-0.07840
1.93382	1.52859
1.14327	1.47757
-0.18282	1.04394
0.68424	0.27871
0.30171	0.45726
0.25071	-0.12942
-0.56534	-0.46102
-0.15732	-0.46102
0.32721	-0.51203
0.09770	-0.56305
0.25071	-0.05289
0.19971	0.25320
2.08683	-0.05289
-1.22839	0.73785
-1.22839	0.96742
0.53123	0.63582
0.04670	0.30422
0.93925	0.10015
0.73524	-0.15492
-0.20832	0.07465
0.04670	0.15117
0.04670	-0.20594
0.93925	0.25320
0.55673	-0.69059
-1.71292	0.40625
-0.56534	0.25320
0.42922	0.91640
1.47479	-0.97117
0.42922	-1.35379
-0.28482	0.71234
0.55673	1.17148
-0.48884	1.17148
-0.15732	0.86539
0.02119	0.02363
-0.02981	-0.66508
0.42922	-1.02219
0.30171	-0.25695
0.70974	-0.51203
1.32178	0.86539
1.19427	0.04914
-3.52353	1.37554
0.63323	0.40625
-0.99887	0.55929
0.14870	0.32972
1.09226	-1.27726
1.39828	0.22769
0.78624	0.25320
-0.20832	0.35523
0.78624	0.40625
0.12320	0.27871
0.25071	0.17668
0.65874	0.40625
-2.17195	-0.38449
-0.23382	-0.18043
0.35272	-0.74160
0.25071	-0.43551
-0.02981	0.53379
0.40372	0.61031
1.14327	0.81437
0.25071	-0.10391
0.76074	-0.58856
-0.71835	0.76336
0.37822	1.04394
0.32721	0.10015
-0.41233	-0.07840
0.58223	0.76336
1.06676	0.68683
-1.07538	-0.51203
-0.87136	-0.02739
1.44929	-0.10391
1.47479	-0.35899
-0.82036	-0.18043
-0.51434	-0.48652
0.19971	0.35523
0.53123	0.50828
0.27621	0.30422
0.58223	0.61031
0.35272	0.25320
0.93925	0.71234
0.70974	-0.00188
-1.58541	0.76336
1.21977	0.02363
-1.78942	0.25320
-1.48340	-0.92016
1.75531	-1.20074
-0.64185	-0.48652
0.35272	-0.33348
1.01576	0.73785
-0.64185	1.24800
0.19971	0.86539
0.60773	0.50828
0.93925	0.45726
1.01576	0.66132
-1.22839	0.15117
-0.99887	-0.46102
0.86275	-0.15492
0.96476	-0.43551
0.19971	0.12566
0.07220	0.61031
0.42922	0.15117
0.58223	0.12566
-0.66735	-0.05289
-0.69285	-0.41000
-1.33039	0.45726
1.04126	-0.51203
1.09226	0.50828
0.65874	0.71234
0.60773	0.71234
-0.94787	0.30422
0.60773	0.35523
-0.15732	0.27871
-0.33583	-0.23145
1.60230	0.07465
0.70974	-0.20594
-1.50890	0.15117
-0.92237	0.63582
0.78624	-0.18043
1.78081	-0.25695
-0.94787	-0.10391
0.30171	-0.74160
0.07220	0.71234
0.91375	0.35523
-0.18282	0.45726
-0.38683	0.40625
1.75531	0.73785
1.11776	0.10015
-2.70748	-0.02739
-1.04987	-0.35899
1.67880	0.20219
-0.82036	1.09496
0.22521	-0.15492
1.47479	0.17668
1.14327	-0.23145
0.55673	0.17668
0.22521	0.12566
0.45472	-0.41000
1.42379	-0.92016
-1.43240	0.68683
-3.67654	1.29902
0.63323	0.20219
1.80631	0.38074
-0.00431	0.50828
0.07220	-0.10391
0.37822	0.20219
0.65874	-0.00188
0.55673	0.12566
1.39828	0.10015
0.78624	0.15117
-1.94243	0.35523
0.78624	-0.25695
-0.66735	0.07465
-2.04444	-1.55785
0.63323	-0.20594
0.60773	0.68683
0.93925	0.94191
1.32178	0.20219
-0.10631	0.50828
-0.74385	0.91640
0.04670	1.12046
0.88825	-0.05289
-0.43783	-1.30277
0.86275	-0.20594
-0.15732	0.38074
-1.68742	0.53379
0.73524	0.43176
0.22521	0.25320
1.27078	-0.10391
0.83725	-0.23145
-0.08081	0.22769
-0.28482	0.45726
0.76074	0.12566
0.12320	-0.02739
-1.04987	0.12566
0.22521	0.25320
-0.15732	0.10015
-0.15732	0.66132
0.73524	0.17668
0.70974	-0.15492
0.93925	0.04914
-1.61091	0.15117
0.73524	0.17668
0.45472	0.10015
-0.25932	-0.07840
-0.36133	-0.28246
0.63323	0.02363
1.44929	0.45726
-0.20832	0.17668
-0.61635	0.58480
0.09770	0.15117
0.09770	0.48277
1.19427	0.53379
0.63323	0.48277
-0.71835	-0.48652
-0.66735	-0.25695
-0.23382	0.38074
0.55673	0.73785
0.58223	-0.05289
0.93925	-0.07840
0.45472	-0.43551
0.76074	-0.15492
0.22521	0.04914
-2.12094	0.53379
-1.91693	0.35523
1.47479	0.32972
0.70974	0.20219
0.78624	0.30422
0.60773	0.27871
0.42922	-1.65988
0.42922	-0.35899
0.17421	0.96742
0.68424	0.48277
0.27621	0.45726
-0.51434	0.22769
-0.74385	0.50828
-0.82036	0.81437
0.14870	0.02363
0.60773	-0.12942
1.11776	0.38074
-1.15188	-0.46102
-0.69285	-0.66508
0.86275	0.07465
0.91375	-0.25695
0.93925	0.32972
1.52579	0.63582
0.53123	0.66132
-2.80949	0.53379
-0.02981	0.32972
1.29628	0.07465
0.86275	0.45726
-0.20832	-0.12942
0.25071	-0.00188
-0.56534	0.22769
0.73524	-0.00188
0.12320	-0.23145
0.25071	-0.58856
-0.18282	-0.46102
0.25071	0.38074
0.53123	0.48277
-0.33583	0.68683
0.19971	0.73785
0.65874	0.45726
1.06676	0.83988
-1.48340	-0.02739
-0.13181	-0.56305
-0.94787	-0.35899
-0.87136	-0.58856
0.55673	0.63582
1.09226	0.61031
1.29628	0.66132
0.83725	0.12566
0.58223	0.86539
0.22521	0.17668
0.09770	0.25320
0.02119	-0.84363
-0.28482	-1.12422
-0.28482	-0.33348
-0.51434	0.45726
0.50573	0.53379
-0.66735	0.40625
-0.41233	0.30422
0.42922	0.66132
0.04670	0.30422
-0.18282	0.02363
0.53123	0.83988
0.76074	0.55929
0.73524	-0.23145
0.19971	-1.25176
2.62236	-0.76711
-3.77855	-0.00188
-2.47797	0.99292
1.11776	1.12046
1.01576	0.38074
1.75531	-0.05289
1.29628	0.22769
0.32721	-0.84363
0.09770	0.45726
-0.36133	0.58480
-0.28482	0.45726
0.22521	-0.66508
0.19971	-0.58856
-0.15732	-0.69059
-0.31033	0.58480
0.12320	1.29902
0.40372	0.86539
1.93382	0.48277
-1.81492	0.15117
-1.55991	-0.15492
0.55673	-0.15492
2.46935	-0.15492
-1.04987	-0.18043
0.73524	0.53379
-1.22839	0.07465
-1.07538	-0.15492
1.55129	0.10015
1.34728	0.22769
0.86275	0.38074
0.40372	0.35523
0.17421	0.27871
-0.28482	0.17668
0.35272	0.30422
-0.74385	0.07465
-1.02437	0.15117
0.14870	0.04914
0.42922	-0.33348
0.22521	-0.00188
0.35272	0.55929
-0.05531	0.43176
1.50029	0.55929
-1.10088	-0.51203
-1.27939	-0.76711
2.31634	0.30422
0.22521	1.42656
-1.27939	0.86539
0.35272	-0.05289
0.32721	-0.48652
1.16877	-0.35899
1.60230	-0.20594
0.40372	0.50828
-1.48340	0.58480
-0.00431	0.10015
0.17421	-0.53754
0.25071	-0.25695
-0.13181	0.38074
-0.15732	0.96742
1.06676	0.45726
-0.33583	0.22769
-1.66191	-0.71609
0.55673	0.10015
0.63323	0.76336
0.32721	0.04914
1.72980	-0.05289
-0.25932	0.35523
-1.04987	0.07465
-0.69285	0.04914
1.14327	0.35523
0.91375	-0.10391
-1.17738	0.38074
0.53123	0.38074
0.35272	-0.00188
-0.18282	-0.07840
0.30171	0.25320
0.32721	0.27871
0.88825	0.22769
0.96476	0.22769
-2.91149	-0.33348
0.09770	-0.30797
1.75531	-0.41000
-0.28482	0.50828
-1.27939	0.71234
2.26534	0.43176
0.32721	0.22769
-1.10088	0.71234
-0.76936	0.73785
-0.02981	0.45726
0.27621	0.58480
1.27078	-0.25695
0.12320	-0.86914
0.40372	-1.53234
1.01576	-1.37929
0.93925	0.73785
0.02119	1.52859
-0.43783	1.55410
0.53123	0.32972
-0.64185	-0.00188
-0.84586	0.55929
-0.00431	-0.20594
0.12320	-0.38449
0.91375	-0.63957
-0.05531	-1.09871
1.11776	0.38074
-0.08081	1.80917
-1.94243	1.65613
1.65330	-0.02739
0.37822	-1.35379
0.07220	-1.55785
1.11776	-0.20594
1.27078	1.12046
-0.82036	1.17148
0.07220	1.17148
-1.35589	0.40625
0.40372	-0.28246
1.04126	0.12566
0.32721	-0.00188
-0.41233	0.25320
0.09770	0.15117
0.22521	-0.28246
0.86275	0.04914
-1.35589	0.66132
-0.28482	-0.05289
0.65874	-0.38449
-0.10631	-0.71609
0.73524	0.40625
1.34728	0.55929
0.12320	0.45726
-0.76936	-0.28246
0.04670	0.22769
0.48022	0.27871
0.42922	0.66132
-0.05531	0.20219
-0.28482	-0.35899
0.53123	-0.07840
0.48022	0.53379
-1.02437	0.07465
-0.36133	0.50828
0.17421	0.15117
0.93925	-0.48652
0.50573	0.04914
1.52579	0.58480
-0.36133	0.45726
-1.30489	0.22769
0.96476	-0.10391
0.68424	0.15117
-1.12638	0.25320
-0.31033	0.20219
2.41835	0.22769
0.99026	-0.48652
-2.57997	0.02363
-0.18282	0.25320
0.50573	0.25320
1.11776	-0.20594
-0.46334	0.20219
0.76074	0.66132
1.67880	0.10015
-0.84586	0.45726
-0.89686	-0.56305
0.81175	-0.00188
0.07220	0.10015
0.02119	0.40625
0.30171	0.68683
-0.08081	0.50828
0.58223	0.55929
-0.43783	-0.10391
-0.92237	0.22769
0.78624	0.10015
-0.74385	-0.69059
0.93925	-0.61406
0.04670	-1.14973
-0.02981	-0.05289
1.29628	0.91640
0.58223	1.29902
0.12320	1.12046
0.17421	0.89089
0.04670	-0.43551
0.09770	-0.33348
-0.31033	0.25320
0.07220	0.17668
0.25071	0.25320
0.19971	0.35523
-0.71835	0.27871
-0.48884	0.02363
0.42922	-0.25695
0.42922	-0.41000
-0.05531	-0.38449
1.47479	-0.12942
0.19971	0.55929
-0.18282	0.40625
0.32721	0.91640
0.55673	-0.18043
-0.94787	0.04914
-0.76936	0.20219
1.11776	-0.10391
0.81175	0.78886
1.29628	0.61031
0.45472	-0.02739
0.32721	-0.00188
-0.25932	0.40625
0.19971	0.15117
-0.59084	-0.25695
-2.17195	-0.30797
0.37822	0.73785
1.78081	0.53379
-1.02437	0.30422
-1.12638	-0.33348
1.95932	-0.46102
0.12320	-0.18043
0.96476	0.35523
1.32178	-0.23145
-0.00431	-0.12942
-1.17738	0.32972
0.12320	0.86539
1.04126	0.55929
-0.18282	0.32972
-1.12638	0.15117
-0.33583	-0.18043
0.73524	-0.30797
0.83725	0.30422
-0.33583	-0.25695
0.78624	0.27871
0.78624	0.66132
0.96476	0.20219
-0.28482	0.66132
-1.10088	0.76336
-0.46334	-0.05289
0.25071	-0.63957
0.42922	-0.05289
0.55673	0.43176
1.75531	0.50828
1.01576	0.04914
-4.11007	-0.30797
-1.89143	-0.79262
0.63323	-0.20594
1.65330	-0.41000
1.65330	0.45726
1.29628	0.50828
0.73524	0.99292
0.32721	1.17148
-0.08081	0.78886
-1.35589	0.30422
-0.43783	-0.74160
-0.59084	-0.92016
0.68424	0.53379
-0.23382	0.35523
0.22521	-0.46102
0.68424	0.30422
0.22521	0.63582
0.09770	0.15117
0.17421	-0.18043
0.04670	-0.18043
0.88825	-0.05289
-1.33039	0.22769
-0.66735	-0.48652
0.58223	-0.05289
0.81175	0.30422
-0.71835	0.53379
1.14327	0.66132
1.27078	0.66132
-0.31033	0.15117
0.45472	0.76336
0.30171	1.12046
-0.66735	0.66132
0.07220	-0.00188
-0.53984	-1.09871
-0.28482	-1.53234
0.83725	-0.28246
1.72980	0.04914
-1.73842	0.38074
-1.10088	1.04394
1.55129	0.15117
0.55673	0.17668
-0.05531	-0.71609
-0.25932	-0.05289
-0.41233	1.42656
-0.10631	0.63582
2.39285	-0.33348
-0.00431	0.04914
-2.93700	-0.25695
1.34728	0.45726
0.30171	0.43176
-0.15732	-0.12942
1.06676	0.30422
0.37822	0.10015
0.81175	0.17668
-0.08081	-0.05289
-0.87136	0.27871
0.30171	0.43176
0.53123	0.45726
-1.58541	0.15117
0.12320	0.20219
0.42922	-0.35899
0.35272	-0.51203
0.07220	0.15117
1.01576	0.96742
0.30171	0.76336
0.22521	-0.56305
0.02119	-1.86394
0.35272	0.45726
-0.38683	1.04394
0.07220	0.71234
-0.15732	0.66132
-0.59084	0.73785
0.83725	0.43176
0.50573	-0.18043
0.17421	-0.25695
1.32178	-0.56305
-1.40690	0.55929
-0.84586	0.96742
0.55673	0.20219
0.04670	-1.48133
1.06676	-1.73640
0.93925	0.04914
-0.33583	1.42656
0.42922	0.78886
0.68424	0.20219
0.81175	0.35523
-0.89686	0.76336
-1.43240	0.25320
-0.08081	0.07465
0.91375	-0.20594
0.48022	-0.18043
-0.10631	0.25320
-0.48884	0.15117
0.19971	0.71234
1.11776	0.73785
-0.53984	-0.18043
-0.33583	-0.05289
1.83181	-0.84363
-1.71292	-0.33348
-0.48884	0.35523
0.42922	0.20219
1.24527	0.04914
0.17421	-0.00188
-0.05531	0.27871
0.76074	0.61031
0.63323	0.45726
0.73524	0.25320
0.19971	0.10015
-1.12638	0.02363
0.17421	0.22769
0.50573	0.17668
0.65874	0.38074
-0.15732	0.22769
-0.92237	-0.41000
0.12320	0.55929
-0.48884	0.25320
0.55673	-0.38449
1.04126	-0.02739
0.60773	-0.99668
-0.18282	-0.43551
-0.25932	1.35003
-1.25389	0.99292
0.02119	0.81437
1.24527	0.30422
1.32178	0.30422
0.07220	0.68683
0.32721	0.10015
0.25071	-0.15492
-0.38683	-0.56305
-0.02981	-0.46102
0.48022	-0.12942
1.29628	0.25320
0.48022	0.35523
-1.02437	-0.43551
2.01032	-0.10391
-2.42696	0.81437
-1.48340	0.71234
2.06133	0.20219
-0.41233	-0.18043
0.45472	0.20219
0.53123	0.50828
0.48022	0.30422
0.12320	-0.15492
0.07220	-0.25695
0.55673	0.81437
0.12320	0.12566
0.19971	-0.02739
0.45472	0.66132
0.14870	0.76336
0.07220	0.10015
-0.08081	0.15117
0.09770	-0.33348
0.25071	0.10015
-0.08081	0.35523
-0.05531	0.27871
0.32721	-0.97117
0.37822	-0.48652
0.37822	-0.38449
-0.33583	0.35523
-0.13181	1.14597
-0.18282	0.73785
-1.63641	0.43176
1.42379	-0.15492
0.93925	-0.15492
0.17421	-0.10391
0.14870	0.07465
0.48022	0.15117
0.27621	0.32972
0.60773	0.40625
0.88825	0.35523
-0.13181	-0.07840
-0.74385	-0.05289
-0.97337	0.04914
0.50573	0.35523
-0.31033	0.53379
-0.13181	0.25320
0.93925	0.15117
0.88825	-0.71609
0.63323	-0.46102
1.06676	0.32972
0.12320	0.63582
-1.30489	0.07465
-0.13181	0.40625
1.04126	0.20219
0.73524	-0.02739
0.07220	0.53379
-0.89686	0.04914
-0.28482	-0.25695
0.99026	0.12566
0.07220	0.02363
1.19427	0.76336
0.07220	0.76336
-0.79486	-0.05289
0.70974	-0.53754
0.32721	-0.35899
0.45472	-0.86914
-1.22839	0.55929
-0.41233	0.91640
1.01576	0.40625
0.81175	0.32972
-0.20832	0.32972
-0.05531	0.15117
0.91375	0.71234
0.19971	-0.71609
-0.10631	-0.05289
-0.48884	-0.38449
-0.64185	-0.63957
0.48022	0.10015
0.65874	1.09496
0.22521	1.01843
-0.33583	0.61031
0.78624	-0.28246
0.37822	-0.51203
-0.76936	-0.86914
-0.20832	0.96742
0.60773	0.55929
0.96476	1.24800
0.37822	0.07465
0.14870	-0.41000
-1.50890	-0.20594
-0.08081	-0.02739
1.14327	0.15117
0.76074	-0.00188
-0.28482	0.20219
-0.10631	0.43176
-0.02981	0.12566
1.80631	0.43176
0.63323	-0.05289
-2.09544	-0.15492
-0.92237	-0.58856
0.73524	-0.18043
0.96476	0.58480
-0.02981	0.83988
1.14327	0.45726
0.60773	-0.25695
0.07220	-0.28246
-0.28482	-0.15492
-0.05531	1.22250
-0.53984	1.09496
0.04670	0.10015
0.76074	0.38074
-0.15732	-0.66508
-0.36133	0.20219
0.32721	-0.74160
0.48022	-0.12942
0.19971	0.15117
-0.00431	-0.05289
0.53123	0.48277
0.58223	0.45726
0.12320	0.27871
0.17421	0.22769
1.01576	0.25320
-0.71835	-0.07840
-1.04987	0.25320
0.37822	0.73785
0.93925	-1.27726
-0.36133	-0.86914
0.42922	0.20219
1.06676	0.66132
0.09770	0.78886
-0.51434	0.40625
-0.08081	0.58480
0.32721	0.38074
0.76074	0.17668
0.88825	-0.28246
-0.23382	-0.56305
-0.15732	0.04914
-0.23382	0.17668
0.48022	-0.00188
0.12320	0.25320
-1.94243	0.10015
-0.18282	-0.12942
0.68424	0.32972
-0.02981	0.04914
0.37822	0.76336
1.37278	0.40625
-0.33583	0.17668
0.17421	-0.07840
0.50573	-0.71609
0.78624	0.07465
-0.02981	0.40625
0.22521	0.10015
0.02119	-0.10391
-0.08081	-1.02219
0.02119	-0.46102
-0.28482	0.32972
-0.02981	1.37554
0.19971	1.32453
0.35272	0.76336
-0.23382	0.58480
-0.08081	-0.46102
0.25071	0.04914
0.53123	0.02363
0.58223	-0.35899
0.60773	0.30422
-0.87136	0.35523
0.48022	-0.00188
-1.94243	-0.28246
0.68424	-0.46102
1.52579	0.10015
0.50573	-0.25695
-0.02981	-0.25695
-0.89686	0.40625
0.78624	0.86539
1.14327	1.73265
0.12320	-0.41000
0.17421	-0.53754
0.30171	0.63582
-0.46334	0.66132
-0.28482	0.20219
-0.28482	0.32972
-0.33583	-0.20594
0.53123	0.04914
0.78624	0.12566
0.35272	-0.12942
1.65330	-0.02739
-0.79486	-0.05289
-2.06994	0.22769
0.55673	0.04914
1.19427	0.22769
-0.08081	0.12566
-0.02981	0.50828
0.81175	0.35523
0.09770	0.07465
-0.08081	0.25320
0.63323	-0.00188
0.88825	-0.18043
0.48022	0.12566
0.45472	0.66132
-0.00431	0.35523
0.19971	0.43176
-0.46334	0.25320
-0.94787	-0.43551
0.02119	-0.81812
1.19427	-0.10391
0.37822	0.10015
-0.99887	0.73785
0.19971	0.40625
0.17421	0.66132
0.17421	0.78886
0.78624	-0.25695
-0.59084	-0.02739
0.02119	-0.25695
-0.08081	0.38074
0.32721	0.07465
0.96476	0.25320
1.24527	0.02363
0.83725	-0.28246
-0.56534	-0.02739
-2.04444	-0.28246
-0.51434	0.15117
1.44929	1.06945
0.65874	0.58480
-0.64185	0.25320
0.32721	-0.05289
0.50573	-0.71609
-0.36133	-0.79262
0.73524	0.02363
0.02119	1.35003
-0.87136	0.53379
-0.20832	0.45726
0.48022	-0.48652
0.35272	0.35523
0.17421	0.12566
0.12320	-0.10391
1.19427	0.50828
-0.46334	-0.12942
-0.64185	0.50828
0.73524	-0.18043
-1.20288	-0.05289
0.73524	-0.35899
0.91375	-0.35899
0.17421	0.40625
-0.43783	0.10015
1.24527	0.68683
1.19427	0.76336
-2.37596	0.45726
-0.41233	-0.07840
0.91375	-0.23145
0.76074	0.35523
0.50573	-0.66508
0.99026	0.40625
-0.00431	0.38074
-1.30489	-0.25695
1.27078	0.38074
-0.74385	0.48277
-1.30489	-0.38449
0.27621	0.04914
1.09226	-0.18043
0.65874	-0.20594
0.17421	0.35523
1.44929	0.71234
0.48022	0.86539
-1.81492	0.43176
-0.10631	0.53379
0.40372	0.02363
0.40372	-0.25695
0.17421	-0.43551
0.40372	-0.18043
0.30171	0.20219
-0.66735	0.45726
0.91375	0.50828
0.55673	-0.00188
-0.84586	-0.15492
-1.10088	-0.30797
1.06676	0.20219
0.27621	0.17668
0.73524	0.12566
0.37822	-0.00188
-0.18282	0.61031
0.32721	0.40625
1.01576	0.30422
-0.56534	-0.18043
-0.59084	-0.02739
-0.61635	-0.05289
0.48022	0.17668
0.27621	0.50828
0.53123	0.66132
0.53123	0.27871
0.55673	-0.15492
-0.08081	0.15117
-1.30489	-0.07840
0.78624	-0.23145
0.42922	0.07465
0.02119	0.02363
0.22521	0.43176
-0.05531	0.53379
-0.56534	0.07465
0.65874	-0.28246
1.42379	0.02363
-0.66735	-0.35899
-0.28482	-0.30797
-0.38683	0.35523
-0.20832	0.15117
1.04126	0.61031
0.55673	0.63582
0.12320	0.32972
0.32721	0.25320
-0.02981	-0.46102
0.02119	-0.56305
-0.13181	0.73785
0.68424	1.14597
0.25071	0.10015
-0.46334	-0.56305
0.63323	-0.56305
-0.48884	0.15117
-0.69285	0.53379
0.45472	0.25320
0.65874	0.38074
0.09770	0.35523
-0.28482	0.10015
0.40372	-0.10391
2.03582	-0.10391
-1.48340	0.35523
-1.58541	-0.18043
0.96476	0.07465
1.19427	-0.41000
1.04126	0.35523
-0.71835	0.50828
0.02119	0.02363
-0.28482	0.45726
1.06676	0.27871
0.63323	0.22769
0.45472	0.50828
-0.25932	-0.43551
-0.18282	0.10015
-0.00431	0.30422
0.27621	0.43176
0.68424	0.15117
-0.31033	-0.18043
-0.46334	-0.20594
0.88825	0.15117
0.45472	0.38074
-1.84042	0.30422
-1.02437	-0.05289
0.22521	-1.14973
0.99026	-0.61406
0.78624	0.35523
0.78624	0.96742
0.83725	1.04394
0.68424	1.04394
0.86275	0.94191
-1.71292	0.38074
-0.61635	-0.05289
0.30171	-0.61406
0.65874	-0.74160
0.27621	-0.35899
0.45472	0.10015
0.53123	0.25320
-0.92237	0.04914
0.78624	0.50828
-0.48884	0.35523
-0.59084	0.07465
0.14870	0.30422
0.35272	0.66132
0.73524	0.30422
0.12320	-0.07840
1.57679	-0.18043
0.17421	0.15117
-2.06994	-0.38449
-0.28482	0.63582
0.35272	0.30422
1.11776	-0.25695
1.11776	-0.35899
0.09770	0.15117
-0.36133	0.99292
-0.15732	0.73785
-0.31033	0.07465
-0.05531	-0.33348
0.22521	0.20219
1.04126	-0.00188
0.70974	-0.12942
0.32721	0.55929
0.50573	0.35523
-0.48884	0.20219
0.12320	-0.25695
-0.33583	-0.48652
-0.92237	-0.53754
-0.36133	0.55929
-0.00431	0.48277
0.76074	0.81437
0.73524	0.07465
0.65874	-0.00188
-0.23382	0.35523
-0.46334	-0.38449
0.93925	0.30422
0.88825	0.50828
-0.38683	0.30422
-0.46334	0.30422
1.11776	-0.20594
0.53123	-0.48652
-1.76392	0.63582
0.88825	0.48277
0.65874	0.61031
0.37822	-0.48652
0.12320	-0.63957
-0.43783	-0.15492
-0.08081	-0.05289
1.42379	0.40625
-1.12638	0.35523
-1.43240	0.32972
0.78624	0.68683
0.70974	0.66132
0.12320	0.55929
1.52579	0.07465
0.07220	0.10015
-0.56534	-0.48652
-0.08081	-0.38449
0.02119	-0.48652
0.63323	0.27871
-0.48884	0.94191
0.14870	0.50828
-0.00431	-0.28246
0.14870	-0.05289
0.35272	-0.35899
-0.51434	-0.05289
0.42922	0.38074
-0.53984	0.61031
0.27621	0.25320
0.99026	-0.15492
1.98482	-0.23145
1.37278	0.27871
-1.73842	1.12046
-1.43240	0.55929
0.27621	0.12566
0.45472	-0.35899
0.76074	-0.23145
0.32721	-0.63957
0.07220	0.04914
-0.15732	0.73785
-0.20832	0.20219
0.02119	0.12566
0.27621	0.38074
0.73524	0.35523
-0.23382	0.22769
-0.66735	-0.00188
0.14870	-0.10391
0.83725	-0.33348
1.60230	0.53379
-1.33039	0.76336
-1.15188	0.27871
0.14870	-0.15492
1.44929	-0.89465
1.04126	-0.76711
-0.66735	-0.00188
0.19971	0.55929
-0.20832	1.14597
0.19971	0.89089
1.09226	-0.15492
1.34728	-0.07840
0.53123	0.07465
-0.59084	0.61031
0.55673	0.61031
-0.82036	0.58480
-0.74385	-0.51203
-0.94787	-0.81812
0.65874	0.22769
0.70974	-0.58856
0.40372	-0.00188
0.40372	0.27871
0.58223	0.48277
-0.15732	0.61031
-0.00431	0.40625
0.53123	0.17668
-0.13181	0.35523
-0.00431	-0.07840
0.37822	-0.12942
1.67880	0.38074
-0.18282	0.32972
-1.76392	0.27871
0.07220	-0.00188
0.25071	-0.41000
0.65874	-0.10391
0.27621	0.32972
0.45472	1.01843
0.53123	0.20219
0.60773	-0.10391
-0.00431	-0.38449
-0.38683	-0.05289
0.02119	-0.25695
-0.20832	0.10015
-0.08081	0.61031
0.70974	1.17148
0.27621	0.66132
0.58223	-0.15492
0.88825	-0.02739
0.42922	-0.46102
-0.89686	-0.18043
-1.04987	0.50828
0.42922	0.15117
-0.53984	0.10015
0.22521	-0.02739
0.93925	-0.12942
0.88825	-0.18043
0.55673	1.01843
-0.20832	0.58480
0.09770	-0.00188
-0.84586	-0.12942
0.19971	-0.46102
0.22521	-0.18043
0.37822	0.45726
0.45472	0.35523
0.27621	0.35523
-0.15732	0.10015
0.04670	0.40625
0.25071	1.01843
0.17421	-0.12942
0.25071	-0.89465
-0.79486	-0.53754
0.09770	0.38074
-0.00431	0.55929
0.40372	0.30422
0.19971	-0.00188
0.53123	0.53379
0.32721	-0.00188
0.12320	0.55929
0.09770	-0.07840
0.65874	0.12566
0.19971	0.35523
-0.28482	-1.02219
0.63323	-0.69059
-0.05531	0.86539
-0.46334	0.63582
0.25071	0.68683
0.76074	0.20219
0.25071	0.32972
-0.61635	0.71234
0.07220	0.32972
0.25071	0.32972
0.65874	-0.51203
-1.25389	-0.89465
1.32178	-0.18043
0.48022	-0.86914
-0.74385	0.12566
0.45472	0.12566
0.30171	0.66132
-0.10631	1.06945
0.17421	0.83988
0.37822	0.25320
-0.00431	0.38074
0.07220	-0.05289
0.12320	0.10015
0.04670	0.20219
0.81175	0.07465
0.40372	-0.46102
-1.38139	-0.20594
0.65874	0.45726
0.09770	0.50828
-2.60547	0.27871
1.27078	-0.28246
1.14327	-1.35379
0.73524	0.02363
1.11776	-0.10391
0.50573	0.35523
0.17421	0.58480
-0.08081	0.17668
-0.46334	1.17148
-0.00431	1.24800
0.22521	1.01843
0.09770	0.15117
0.14870	0.02363
0.04670	-0.25695
0.02119	-0.00188
0.02119	0.10015
0.22521	-0.30797
0.07220	-0.56305
0.70974	-0.48652
0.12320	0.10015
-0.92237	0.02363
0.53123	0.07465
0.83725	0.12566
0.19971	0.04914
-0.15732	0.15117
0.02119	1.01843
0.14870	1.24800
0.63323	0.63582
-0.05531	0.25320
0.25071	-0.25695
0.50573	-0.61406
0.35272	-0.48652
0.68424	0.32972
-1.43240	0.07465
-1.61091	0.22769
0.96476	0.12566
0.09770	-0.61406
0.19971	0.66132
0.40372	0.63582
0.93925	0.89089
-0.41233	0.50828
0.45472	-0.38449
0.78624	-0.43551
0.48022	-0.10391
0.07220	-0.28246
0.19971	0.12566
0.02119	0.15117
-0.05531	-0.00188
-0.23382	0.25320
0.30171	0.10015
-0.66735	0.30422
-0.69285	0.38074
0.07220	0.78886
1.27078	0.25320
0.35272	0.30422
-0.61635	-0.48652
1.34728	-0.12942
0.14870	0.27871
-0.56534	0.55929
-0.00431	0.55929
0.48022	0.30422
1.06676	-0.15492
0.99026	-0.33348
-0.43783	0.17668
-0.33583	0.55929
0.25071	0.38074
0.88825	-0.10391
-0.31033	-0.97117
-2.24845	-0.30797
-0.15732	0.48277
0.37822	-0.00188
0.93925	0.40625
0.76074	0.20219
0.65874	0.58480
0.19971	0.04914
0.42922	0.58480
0.35272	0.15117
0.25071	0.17668
-0.92237	-0.46102
-0.02981	-0.58856
1.44929	0.96742
0.42922	1.22250
-1.66191	-0.00188
-0.59084	-0.10391
-0.13181	0.27871
0.48022	-0.23145
0.50573	-0.00188
0.83725	0.12566
0.93925	0.76336
0.27621	-0.02739
0.60773	-0.15492
-0.48884	-0.51203
0.07220	0.17668
-0.28482	0.10015
-0.18282	0.35523
1.04126	0.43176
0.22521	-0.07840
-0.74385	-0.10391
-0.02981	-0.18043
0.63323	0.15117
0.83725	0.38074
-0.00431	0.48277
-0.53984	0.94191
0.19971	0.48277
0.99026	0.32972
0.93925	-0.20594
-1.04987	-1.17523
0.04670	-0.56305
0.37822	1.29902
0.63323	1.06945
0.22521	0.32972
-0.46334	-0.69059
0.22521	-0.00188
0.04670	-0.02739
0.09770	-0.05289
0.35272	0.32972
0.32721	0.04914
0.22521	0.10015
0.25071	0.35523
0.02119	0.15117
-0.10631	0.04914
-0.08081	-0.15492
0.17421	-0.25695
0.07220	0.61031
0.37822	0.78886
0.07220	0.40625
0.25071	-0.18043
0.42922	-0.10391
-0.25932	0.55929
-0.36133	-0.12942
0.83725	0.07465
0.27621	0.76336
-1.63641	0.32972
0.96476	0.10015
0.83725	-0.28246
0.68424	-0.25695
-0.64185	0.04914
-0.38683	-0.33348
0.30171	0.17668
0.60773	0.89089
0.78624	0.76336
-0.00431	-0.07840
-0.41233	-0.28246
-0.20832	0.04914
0.12320	0.15117
0.04670	0.55929
0.35272	0.07465
0.14870	-0.15492
0.45472	-0.02739
0.25071	0.07465
-0.05531	0.45726
-0.28482	0.27871
0.09770	0.35523
0.14870	0.15117
0.30171	0.55929
-0.87136	0.55929
0.45472	0.55929
0.88825	-0.00188
0.12320	-0.51203
0.30171	-0.66508
1.42379	-0.20594
-0.38683	0.58480
-1.76392	-0.30797
-1.25389	0.32972
1.34728	0.61031
0.63323	-0.30797
0.70974	0.71234
0.53123	0.40625
-0.18282	1.29902
0.40372	-0.15492
0.88825	-1.27726
-0.28482	-0.18043
-0.94787	-0.12942
-0.23382	0.83988
0.22521	0.66132
0.76074	0.35523
0.35272	-0.00188
0.53123	0.10015
-0.08081	0.15117
-0.33583	-0.25695
0.02119	0.12566
0.42922	-0.00188
0.58223	0.27871
-0.56534	0.04914
0.12320	0.32972
0.70974	0.20219
0.17421	0.17668
-0.66735	-0.05289
0.27621	-0.35899
0.22521	0.20219
0.12320	0.45726
0.70974	0.04914
1.06676	0.55929
-0.74385	-0.18043
0.02119	0.32972
0.17421	0.76336
-0.15732	0.30422
0.37822	-0.15492
0.78624	0.02363
-0.33583	-0.02739
-0.89686	0.50828
0.25071	-0.15492
0.42922	-0.00188
0.91375	0.76336
0.45472	-0.25695
-0.02981	-0.69059
-0.31033	-0.56305
0.35272	-0.30797
-0.25932	1.06945
-0.20832	0.94191
0.07220	0.94191
0.22521	0.66132
0.14870	-0.86914
0.63323	-0.02739
0.88825	0.32972
-1.43240	0.07465
0.78624	-0.10391
1.29628	0.22769
-0.08081	-0.41000
-1.55991	-0.74160
0.58223	0.61031
0.81175	0.73785
-0.38683	0.38074
-0.25932	0.91640
1.21977	0.35523
0.42922	-0.38449
-0.82036	-0.69059
-0.23382	0.15117
0.42922	0.38074
0.93925	0.68683
0.09770	0.43176
-0.59084	0.22769
-0.23382	-0.05289
0.53123	-0.10391
0.78624	-0.23145
0.14870	-0.00188
-0.64185	0.17668
0.22521	0.25320
0.04670	0.25320
0.42922	0.20219
0.02119	-0.23145
-0.02981	-0.30797
0.35272	0.10015
0.17421	-0.05289
-0.13181	0.63582
-0.10631	0.55929
0.37822	0.55929
0.50573	0.35523
-0.38683	0.10015
0.70974	0.27871
1.09226	-0.20594
1.04126	0.50828
-2.04444	0.12566
-0.97337	-0.05289
0.68424	-0.41000
0.70974	0.53379
0.40372	0.48277
0.12320	-0.84363
0.65874	-0.38449
0.09770	0.12566
-0.97337	0.15117
-0.31033	-0.20594
0.32721	1.29902
0.91375	0.35523
0.55673	0.25320
-0.05531	0.15117
-0.23382	0.12566
0.30171	0.35523
0.02119	0.04914
0.86275	0.17668
-0.66735	0.50828
-1.20288	0.30422
1.32178	0.30422
-0.15732	-0.02739
0.17421	-0.25695
0.27621	-0.41000
0.86275	0.35523
0.78624	0.15117
1.21977	0.15117
1.14327	-0.30797
-2.22295	0.15117
-1.48340	0.40625
-0.28482	0.45726
0.60773	0.40625
1.11776	0.04914
0.83725	-0.00188
0.40372	0.30422
0.19971	0.15117
0.32721	0.04914
0.09770	0.07465
0.12320	0.07465
-0.43783	-0.51203
-0.87136	0.12566
-1.30489	0.12566
0.37822	0.45726
0.32721	0.07465
1.16877	0.71234
0.78624	1.14597
-0.13181	0.10015
0.32721	-0.15492
0.48022	-0.79262
0.09770	-0.38449
0.55673	0.50828
-0.05531	0.40625
-0.02981	-0.10391
-0.08081	0.40625
0.91375	1.29902
0.12320	0.45726
-1.30489	-0.69059
-0.08081	-1.58336
-0.02981	-1.17523
0.99026	0.91640
0.53123	1.01843
0.42922	0.32972
0.65874	0.25320
-0.48884	0.27871
0.02119	0.53379
-0.02981	0.35523
-0.38683	0.20219
1.93382	0.15117
-0.33583	-0.15492
-1.48340	0.27871
0.12320	-0.05289
0.45472	-0.05289
0.68424	0.12566
0.73524	0.27871
1.04126	0.35523
0.02119	0.04914
-0.61635	-0.05289
-0.08081	-0.84363
0.53123	0.02363
-0.46334	0.40625
0.58223	0.96742
0.04670	0.76336
-0.15732	0.30422
-0.08081	-0.10391
0.22521	-0.15492
0.68424	0.50828
0.48022	0.15117
-0.53984	0.20219
0.48022	0.53379
-0.00431	-0.02739
-0.61635	0.17668
0.58223	-0.28246
-0.51434	0.27871
0.42922	0.10015
0.48022	-0.00188
0.65874	0.58480
0.70974	-0.02739
0.53123	0.20219
0.42922	-0.05289
-1.10088	0.17668
-2.12094	-0.00188
0.83725	0.07465
0.55673	0.22769
1.29628	-0.48652
0.42922	0.30422
-0.13181	0.61031
0.37822	0.48277
0.32721	0.53379
-0.38683	-0.00188
0.12320	-0.20594
0.27621	0.22769
-0.41233	0.43176
0.07220	0.71234
0.45472	-0.38449
-0.84586	-0.00188
0.22521	-0.10391
0.50573	-0.30797
0.58223	-0.00188
0.65874	0.25320
0.40372	0.45726
1.09226	0.53379
-1.12638	0.27871
-1.63641	0.53379
0.60773	0.38074
0.19971	-0.43551
0.40372	-0.35899
1.01576	-0.43551
0.73524	0.25320
0.32721	0.48277
0.17421	0.61031
0.40372	0.35523
0.14870	-0.20594
-0.59084	0.04914
-0.15732	0.53379
-0.23382	0.32972
-0.13181	0.71234
-0.05531	-0.30797
0.55673	-0.58856
0.32721	-0.71609
0.12320	0.20219
0.25071	0.53379
-0.33583	0.55929
0.81175	0.40625
-0.10631	0.53379
-1.10088	-0.18043
0.83725	0.50828
-0.05531	-0.02739
0.76074	0.02363
0.58223	0.76336
0.53123	0.10015
0.48022	-0.18043
0.45472	-1.02219
0.19971	-0.02739
0.48022	0.22769
-1.02437	0.43176
-0.69285	0.22769
-0.33583	0.22769
0.19971	0.30422
-0.15732	0.53379
0.93925	0.55929
0.45472	-0.18043
-0.23382	-0.23145
0.88825	0.66132
0.30171	-0.12942
-0.28482	0.10015
-0.18282	0.12566
0.19971	0.17668
-0.02981	0.10015
0.12320	0.10015
0.30171	0.17668
0.25071	0.12566
0.37822	0.07465
0.88825	0.10015
-0.28482	0.25320
-1.50890	-0.18043
0.17421	-0.00188
0.60773	0.12566
0.09770	-0.02739
0.58223	0.15117
0.14870	0.12566
-0.02981	0.30422
0.40372	0.02363
0.48022	0.73785
0.40372	0.58480
0.60773	0.40625
-0.08081	-0.23145
0.02119	-0.15492
-0.08081	-0.02739
-0.84586	0.32972
-0.31033	0.35523
0.04670	0.22769
1.01576	-0.12942
1.72980	0.40625
1.04126	0.30422
-1.71292	-0.18043
-0.28482	-0.53754
-0.10631	-0.66508
0.60773	0.04914
0.73524	0.12566
-0.02981	0.73785
0.09770	0.78886
0.42922	0.61031
0.42922	0.32972
-1.02437	0.10015
-0.36133	-0.05289
0.32721	-0.10391
0.40372	-0.05289
-0.59084	0.32972
0.48022	0.43176
0.22521	-0.05289
0.32721	-0.48652
0.91375	-0.20594
1.09226	0.25320
-1.07538	0.10015
-1.02437	0.25320
0.91375	0.25320
0.93925	0.58480
-0.18282	0.50828
-0.00431	0.17668
0.25071	0.20219
-0.25932	-0.02739
-0.33583	0.48277
0.30171	0.22769
0.37822	-0.05289
0.48022	-0.35899
0.22521	-1.43031
0.58223	0.27871
-0.25932	0.27871
-0.53984	1.12046
0.12320	1.01843
0.42922	0.53379
0.93925	0.35523
-0.13181	0.17668
-1.22839	-0.56305
1.01576	-0.25695
-0.33583	0.30422
-0.08081	0.25320
0.07220	-0.00188
0.37822	-0.05289
0.19971	-0.53754
0.40372	0.22769
0.42922	0.30422
1.47479	0.91640
0.25071	0.81437
-0.99887	-0.18043
0.19971	-0.51203
-0.23382	-0.58856
0.65874	0.07465
0.04670	0.86539
-0.51434	0.17668
0.55673	0.32972
0.55673	0.35523
0.09770	0.61031
0.09770	-0.23145
-0.23382	-0.23145
0.02119	0.25320
0.07220	0.20219
0.25071	-0.12942
0.30171	0.15117
-0.15732	0.02363
0.91375	-0.10391
-0.25932	0.38074
-0.38683	0.53379
-0.23382	0.66132
0.09770	-0.23145
0.50573	-0.05289
0.09770	0.07465
0.35272	0.15117
-0.18282	0.43176
0.30171	0.35523
0.50573	-0.25695
-0.10631	-0.12942
0.32721	0.17668
0.17421	-0.12942
-0.84586	0.43176
0.63323	0.68683
0.32721	0.27871
0.42922	-0.18043
-0.15732	-0.51203
-0.84586	-0.25695
0.68424	0.78886
0.35272	1.01843
0.27621	0.53379
0.78624	-0.25695
-0.38683	-0.28246
-0.00431	-0.43551
-0.38683	-0.10391
-2.22295	-0.25695
1.37278	0.17668
1.11776	0.40625
0.12320	0.96742
-0.10631	0.45726
0.78624	0.20219
0.55673	-0.81812
0.53123	0.30422
-0.25932	0.53379
-0.05531	0.10015
0.25071	0.43176
-0.05531	0.22769
-0.18282	0.15117
0.42922	0.22769
0.53123	0.35523
-0.84586	-0.58856
-0.28482	-0.66508
0.37822	0.15117
0.53123	0.35523
0.30171	0.35523
0.35272	0.30422
0.32721	0.30422
0.22521	-0.00188
0.37822	0.48277
0.25071	-0.12942
-0.48884	0.17668
0.91375	0.25320
-0.41233	0.40625
-0.79486	0.12566
-0.10631	0.27871
0.88825	-0.02739
1.24527	-0.25695
0.27621	-0.02739
0.27621	0.45726
0.73524	0.20219
0.40372	0.07465
-1.84042	0.78886
-0.23382	0.22769
1.16877	-0.28246
-1.02437	-0.12942
0.12320	-0.58856
0.55673	0.43176
0.73524	1.04394
0.53123	0.25320
0.30171	-0.00188
0.27621	0.10015
0.30171	-0.25695
0.04670	0.22769
-0.31033	0.15117
0.07220	0.45726
0.55673	-0.35899
1.83181	0.02363
-1.91693	0.25320
-0.89686	0.15117
-0.23382	0.20219
0.14870	0.30422
0.78624	-0.10391
0.07220	0.07465
0.53123	-0.00188
0.53123	0.17668
0.68424	0.25320
0.70974	0.04914
0.45472	0.25320
0.30171	0.50828
0.04670	0.32972
-0.18282	0.25320
-0.89686	0.27871
-0.20832	0.04914
0.17421	-0.30797
0.27621	-0.41000
0.45472	-0.12942
-0.59084	0.25320
-0.13181	0.32972
0.81175	0.63582
0.70974	0.48277
-0.31033	0.15117
0.68424	0.07465
-0.31033	-0.25695
1.04126	0.32972
0.17421	0.20219
0.70974	0.40625
-0.18282	-0.46102
-1.30489	0.10015
0.48022	-0.20594
0.70974	0.53379
0.53123	0.50828
-0.28482	0.04914
-0.10631	0.27871
0.02119	0.22769
0.30171	-0.10391
-0.18282	-0.25695
0.17421	-0.18043
0.09770	0.35523
0.25071	0.22769
0.22521	0.32972
0.19971	-0.41000
0.25071	0.27871
0.04670	0.45726
0.63323	0.55929
0.02119	-0.46102
-0.28482	-0.23145
-1.55991	0.20219
-0.53984	0.30422
0.50573	0.07465
1.14327	0.38074
0.42922	0.35523
0.93925	0.10015
0.55673	0.22769
0.14870	0.27871
-0.31033	0.25320
0.07220	-0.02739
-0.18282	-0.56305
0.35272	-0.46102
-0.79486	-0.15492
-0.15732	0.12566
0.76074	0.55929
0.53123	0.63582
-0.59084	0.38074
-0.05531	-0.25695
0.02119	0.02363
0.60773	0.45726
0.65874	0.38074
0.40372	0.10015
-0.43783	0.02363
-0.36133	0.25320
1.42379	0.17668
-0.89686	-0.38449
-0.74385	0.27871
0.65874	0.22769
-0.02981	0.02363
0.63323	0.07465
0.70974	0.17668
0.78624	0.40625
-0.02981	0.45726
-0.71835	0.17668
0.30171	-0.33348
0.14870	-0.74160
0.25071	0.58480
0.09770	0.76336
0.32721	0.12566
-0.13181	0.17668
-0.76936	0.35523
0.40372	-0.30797
0.88825	-0.12942
-0.79486	0.25320
-0.28482	0.20219
0.40372	0.22769
1.52579	0.25320
1.06676	0.15117
-0.36133	-0.15492
0.91375	0.66132
-3.37052	0.50828
0.73524	0.76336
1.09226	0.25320
1.88281	-0.12942
-0.28482	-0.66508
-0.71835	0.20219
1.16877	-0.23145
0.48022	-0.00188
-0.25932	-0.30797
0.04670	0.50828
0.22521	0.96742
-0.05531	0.27871
-0.10631	-0.25695
-0.05531	0.07465
0.12320	0.12566
-0.23382	0.04914
0.07220	0.35523
0.25071	0.27871
1.16877	0.27871
-0.53984	0.38074
-0.48884	-0.28246
0.60773	0.10015
-0.46334	0.22769
0.68424	0.15117
0.32721	0.04914
0.81175	0.48277
-0.51434	0.17668
0.27621	0.27871
0.40372	-0.00188
0.37822	0.07465
0.17421	-0.30797
0.88825	0.22769
-0.61635	-0.07840
-1.33039	0.17668
0.12320	0.17668
0.02119	-0.05289
1.44929	0.30422
0.99026	0.10015
-0.51434	-0.18043
1.01576	0.45726
-1.48340	0.43176
0.50573	0.32972
-0.18282	0.30422
0.45472	0.04914
1.09226	-0.05289
0.73524	-0.20594
0.14870	-0.23145
-0.15732	-0.12942
0.22521	0.45726
0.53123	0.48277
-0.61635	0.30422
-0.69285	-0.15492
0.37822	0.15117
0.37822	0.07465
0.17421	1.06945
0.22521	0.10015
-0.00431	-0.05289
0.02119	-0.58856
0.12320	-0.28246
0.53123	0.10015
0.65874	0.55929
0.73524	0.63582
0.12320	0.30422
-1.07538	0.22769
0.02119	-0.18043
-0.08081	-0.23145
0.73524	0.10015
0.73524	0.04914
-0.51434	0.15117
0.63323	0.53379
1.11776	0.40625
0.14870	-0.05289
-0.61635	0.38074
0.25071	-0.15492
0.91375	-0.07840
-0.59084	0.15117
0.22521	0.10015
0.35272	0.32972
-0.84586	0.55929
-0.41233	0.22769
0.53123	0.27871
0.78624	0.38074
0.27621	-0.07840
0.55673	-0.02739
0.37822	0.25320
-0.71835	0.25320
-0.08081	-0.56305
0.53123	-0.25695
-0.13181	-0.63957
-0.15732	-0.02739
-0.20832	0.63582
0.42922	0.96742
1.01576	0.61031
1.39828	0.38074
-1.10088	0.22769
-0.51434	-0.07840
-0.36133	-0.18043
-0.23382	0.15117
1.01576	0.12566
0.53123	0.22769
-1.02437	-0.05289
0.19971	0.43176
1.21977	0.61031
-0.18282	0.35523
0.42922	0.04914
0.53123	-0.58856
-0.18282	-0.92016
0.02119	-1.25176
0.30171	0.30422
-0.13181	1.22250
0.17421	1.27351
0.35272	0.91640
-0.28482	0.50828
-0.05531	-0.05289
0.35272	0.04914
-0.99887	-0.35899
0.04670	-0.43551
0.42922	-0.33348
0.78624	0.10015
0.83725	0.17668
0.09770	0.50828
0.55673	0.15117
-0.41233	-0.12942
0.50573	0.38074
-0.02981	0.53379
-0.36133	-0.07840
-1.66191	0.30422
-0.43783	0.17668
0.86275	0.17668
1.21977	-0.07840
0.09770	-0.12942
-0.05531	0.04914
0.42922	0.27871
0.14870	-0.05289
0.42922	0.38074
1.21977	0.50828
0.76074	-0.10391
-2.42696	-0.10391
0.45472	0.25320
0.53123	0.76336
-0.82036	0.30422
-0.08081	-0.15492
0.86275	0.02363
0.68424	-0.25695
0.07220	-0.25695
-1.35589	0.04914
0.22521	0.50828
0.60773	0.35523
0.53123	0.12566
0.45472	0.53379
0.12320	-0.18043
0.53123	0.04914
0.37822	0.35523
-0.76936	0.10015
0.25071	-0.02739
0.88825	0.10015
-0.89686	-0.05289
-1.78942	-0.23145
0.04670	0.27871
1.11776	0.04914
1.55129	0.43176
0.22521	0.38074
0.27621	-0.30797
0.53123	-0.02739
0.32721	0.35523
-0.23382	0.94191
-0.15732	0.17668
-0.23382	0.22769
0.60773	0.04914
0.48022	0.22769
-0.41233	-0.25695
0.37822	-0.25695
-0.13181	0.20219
-1.10088	0.22769
0.40372	0.73785
0.48022	0.66132
0.86275	-0.25695
1.11776	-0.10391
-1.10088	-0.81812
-0.64185	0.25320
1.06676	0.45726
1.04126	0.45726
0.04670	0.45726
-0.92237	0.30422
0.83725	0.15117
0.30171	-0.07840
-0.84586	-0.20594
0.12320	0.17668
0.32721	0.30422
2.08683	0.25320
-1.66191	0.12566
-1.55991	0.15117
0.63323	0.10015
1.29628	0.04914
0.65874	0.20219
0.12320	0.25320
0.02119	0.10015
0.32721	0.04914
0.40372	0.66132
0.30171	0.40625
-0.00431	0.45726
-0.28482	-0.76711
-0.18282	-0.15492
0.17421	0.32972
-0.02981	0.15117
0.86275	0.30422
-0.71835	0.02363
-0.71835	0.27871
0.45472	0.10015
1.52579	0.25320
-0.05531	0.35523
-0.89686	0.10015
0.53123	0.17668
0.48022	0.32972
-0.18282	0.30422
1.70430	0.10015
0.42922	-0.12942
-0.94787	-0.30797
-0.25932	-0.10391
-0.13181	0.43176
1.04126	0.17668
0.70974	0.40625
-0.00431	0.38074
0.04670	-0.41000
-0.05531	-0.02739
-0.08081	0.32972
-0.36133	0.22769
0.32721	0.38074
0.73524	0.55929
-0.33583	-0.05289
-0.15732	-0.46102
0.30171	-0.18043
-0.89686	-0.05289
0.32721	0.71234
0.53123	0.38074
0.81175	0.43176
0.19971	0.50828
0.12320	-0.05289
0.35272	0.02363
0.09770	0.32972
-0.25932	0.07465
0.19971	0.17668
0.30171	-0.15492
-0.31033	0.30422
0.32721	-0.02739
0.19971	0.17668
0.58223	-0.10391
0.86275	0.04914
-2.12094	-0.25695
-0.66735	-0.05289
0.42922	0.45726
0.70974	0.15117
1.11776	0.35523
0.88825	0.45726
