0.12320	0.20219
0.12320	0.12566
0.14870	0.15117
0.19971	0.27871
0.12320	0.10015
0.09770	0.15117
0.17421	0.15117
0.07220	0.07465
0.19971	0.15117
0.09770	0.25320
0.25071	0.20219
0.14870	0.17668
0.14870	0.07465
0.17421	0.22769
0.14870	-0.25695
0.07220	0.40625
0.22521	0.04914
0.17421	0.22769
0.25071	0.15117
0.07220	0.20219
0.09770	0.04914
-0.05531	0.17668
0.19971	0.10015
0.14870	0.15117
0.12320	0.15117
0.12320	0.22769
0.14870	0.12566
0.12320	-0.00188
0.12320	0.17668
0.14870	0.25320
0.09770	0.10015
0.19971	0.20219
0.12320	0.12566
0.19971	0.07465
0.09770	-0.00188
0.14870	0.20219
0.17421	0.15117
0.12320	0.15117
0.22521	0.20219
0.09770	0.25320
0.17421	0.10015
0.04670	0.15117
0.12320	0.12566
0.07220	0.15117
0.25071	0.15117
0.09770	0.02363
0.09770	0.30422
0.17421	0.10015
0.19971	0.22769
0.04670	0.20219
-0.08081	0.17668
0.22521	0.10015
0.12320	0.17668
0.25071	0.25320
-0.02981	0.04914
0.12320	0.20219
0.42922	0.02363
0.12320	0.12566
0.17421	0.15117
0.07220	0.10015
0.12320	0.25320
0.07220	0.10015
0.22521	0.25320
0.17421	0.15117
0.17421	0.15117
0.12320	0.04914
0.12320	0.12566
0.12320	0.15117
0.17421	-0.00188
0.14870	0.27871
0.07220	0.02363
0.22521	0.12566
0.09770	0.15117
0.09770	0.17668
0.09770	0.04914
0.12320	0.12566
0.32721	0.22769
0.04670	0.12566
0.12320	0.27871
0.19971	-0.05289
0.17421	0.22769
0.04670	0.35523
0.14870	0.02363
0.22521	0.10015
0.04670	0.15117
0.22521	0.04914
0.09770	0.15117
0.12320	0.15117
0.40372	0.12566
0.09770	0.17668
-0.05531	0.17668
0.30171	0.22769
0.19971	0.20219
0.12320	0.17668
0.19971	0.10015
0.25071	0.17668
0.14870	0.10015
0.04670	0.20219
-0.02981	0.02363
0.22521	0.17668
0.19971	0.25320
0.17421	0.04914
0.17421	0.27871
0.02119	0.20219
0.17421	0.02363
0.02119	0.15117
0.17421	0.04914
0.09770	-0.10391
0.09770	0.35523
0.02119	0.20219
0.25071	0.20219
0.07220	0.22769
0.22521	0.10015
0.17421	0.04914
0.09770	0.25320
0.42922	0.12566
0.25071	0.15117
-0.23382	-0.00188
-0.33583	0.17668
-0.00431	0.07465
0.42922	0.17668
0.50573	0.12566
0.30171	0.30422
0.25071	-0.00188
0.14870	0.35523
0.14870	0.20219
0.19971	0.07465
0.04670	0.25320
0.04670	-0.05289
0.12320	0.17668
-0.02981	0.20219
0.25071	0.07465
0.12320	0.22769
0.02119	0.04914
0.14870	0.15117
0.09770	0.15117
0.19971	-0.00188
0.32721	0.27871
0.14870	0.04914
-0.13181	0.30422
0.30171	0.12566
0.25071	0.07465
0.19971	0.20219
0.07220	0.12566
0.35272	0.25320
0.04670	0.04914
-0.08081	0.22769
-0.38683	0.02363
0.22521	0.17668
0.50573	0.07465
0.27621	0.15117
0.30171	0.10015
0.09770	0.15117
0.25071	0.12566
-0.00431	0.02363
0.14870	0.22769
0.07220	0.07465
0.12320	0.04914
0.14870	0.15117
0.09770	0.25320
0.12320	0.07465
-0.00431	0.10015
0.14870	0.17668
0.09770	0.15117
0.14870	0.07465
0.14870	0.17668
0.19971	0.12566
0.14870	0.12566
0.19971	0.02363
0.12320	0.17668
0.19971	0.15117
0.09770	0.15117
0.17421	0.07465
0.07220	0.20219
0.17421	0.15117
0.19971	0.10015
0.12320	0.12566
-0.10631	0.12566
0.17421	0.22769
0.12320	-0.00188
0.19971	0.30422
0.22521	0.15117
0.12320	0.15117
0.17421	0.15117
0.09770	0.10015
0.22521	0.17668
0.04670	0.04914
0.17421	0.07465
0.07220	0.17668
0.14870	0.10015
0.30171	0.25320
0.48022	0.15117
0.19971	0.20219
-0.31033	0.20219
-0.48884	0.04914
-0.05531	0.15117
0.42922	0.12566
0.42922	-0.02739
0.42922	0.22769
0.32721	0.20219
0.35272	0.02363
0.12320	0.22769
0.09770	0.10015
0.07220	0.15117
-0.02981	0.25320
0.14870	-0.00188
0.09770	0.32972
0.12320	0.12566
0.27621	0.20219
0.07220	0.04914
0.12320	0.04914
0.17421	-0.10391
0.12320	-0.02739
0.17421	0.20219
0.04670	0.40625
0.27621	0.27871
0.22521	0.30422
0.12320	0.15117
0.17421	0.27871
0.09770	0.04914
0.22521	0.07465
0.19971	-0.20594
0.12320	0.04914
-0.02981	0.35523
0.17421	0.25320
0.27621	0.17668
0.22521	0.22769
0.09770	-0.00188
-0.10631	0.35523
0.25071	0.04914
0.35272	0.15117
0.17421	0.10015
0.27621	0.12566
0.17421	0.25320
-0.10631	0.15117
0.04670	0.02363
-0.02981	0.07465
-0.05531	0.15117
0.53123	0.20219
0.50573	0.32972
0.02119	-0.02739
-0.28482	0.22769
-0.05531	-0.23145
-0.08081	0.30422
0.30171	0.25320
0.73524	0.25320
0.78624	0.40625
0.78624	0.02363
0.70974	0.20219
-0.36133	0.17668
-1.02437	0.22769
-0.33583	0.04914
-0.00431	-0.05289
0.37822	0.10015
0.27621	-0.02739
0.32721	-0.05289
0.32721	-0.07840
0.30171	0.32972
0.14870	-0.02739
0.02119	0.35523
0.25071	0.17668
0.07220	0.04914
0.07220	0.35523
-0.10631	0.25320
0.27621	0.15117
0.12320	0.27871
0.32721	0.17668
0.17421	-0.02739
0.07220	0.20219
0.25071	0.02363
0.12320	0.02363
0.09770	0.20219
0.22521	-0.02739
0.09770	0.15117
-0.02981	0.07465
0.27621	0.30422
0.17421	-0.00188
0.19971	0.35523
0.12320	0.10015
0.07220	0.20219
0.17421	-0.12942
0.09770	0.12566
0.12320	0.12566
-0.10631	0.43176
0.25071	0.30422
0.25071	0.27871
0.25071	0.02363
0.40372	0.17668
0.07220	-0.10391
-0.20832	0.27871
-0.05531	-0.05289
0.45472	0.45726
0.27621	-0.18043
0.17421	0.02363
0.17421	0.10015
0.12320	-0.25695
0.14870	0.25320
0.09770	0.25320
0.35272	0.73785
0.04670	0.81437
0.02119	-0.07840
0.30171	-0.25695
0.27621	-0.35899
-0.08081	0.10015
-0.38683	0.38074
-0.08081	0.48277
0.32721	0.22769
0.40372	-0.10391
0.22521	-0.15492
0.48022	-0.20594
0.09770	0.40625
0.30171	0.61031
-0.00431	0.40625
0.12320	-0.00188
-0.05531	0.17668
0.35272	-0.07840
-0.00431	-0.02739
-0.38683	0.17668
-0.10631	-0.30797
0.73524	0.25320
0.30171	0.61031
0.09770	0.35523
0.76074	-0.00188
-0.36133	0.35523
-1.10088	0.10015
0.12320	0.12566
0.78624	0.10015
0.78624	0.15117
0.53123	0.15117
0.35272	-0.02739
0.30171	-0.28246
0.07220	0.32972
0.02119	-0.30797
-0.10631	0.48277
0.07220	0.48277
-0.08081	0.32972
-0.18282	-0.05289
0.02119	0.02363
0.17421	0.20219
-0.02981	0.02363
0.04670	0.22769
0.42922	0.07465
0.14870	0.22769
0.17421	0.32972
0.30171	0.10015
0.91375	-0.12942
0.55673	-0.12942
0.17421	0.15117
-0.61635	0.55929
-0.66735	0.35523
-0.51434	0.63582
0.55673	0.20219
-0.02981	-0.15492
0.45472	-0.00188
0.53123	0.53379
0.42922	0.04914
0.58223	-0.07840
1.34728	0.73785
0.70974	-0.35899
-1.50890	-0.15492
-1.15188	-0.46102
0.73524	-1.04770
-0.05531	0.22769
-0.31033	0.96742
0.93925	1.27351
0.53123	0.45726
-0.18282	0.20219
0.35272	0.02363
0.09770	0.02363
-0.36133	0.15117
-0.31033	-0.15492
0.37822	0.15117
1.04126	-0.20594
0.25071	0.38074
-0.74385	-0.51203
-0.15732	0.17668
0.40372	0.50828
0.45472	0.61031
0.48022	0.61031
0.07220	-0.05289
0.22521	0.04914
0.27621	-0.38449
0.07220	-0.53754
0.07220	0.63582
-0.10631	-0.25695
0.22521	1.32453
1.67880	0.20219
0.37822	-0.41000
-2.22295	0.32972
-1.38139	0.15117
1.42379	-0.35899
0.88825	0.43176
0.30171	0.15117
-0.41233	0.68683
-0.02981	-0.07840
1.24527	0.07465
0.96476	-0.12942
0.02119	0.02363
-0.02981	0.30422
-0.59084	-0.02739
-0.64185	0.71234
-0.18282	0.45726
0.45472	-0.23145
0.48022	-0.33348
0.83725	-0.00188
0.22521	-0.41000
-0.46334	-0.00188
-1.17738	0.45726
-0.66735	0.45726
0.60773	-0.15492
1.04126	0.07465
1.32178	0.40625
0.73524	0.58480
-0.56534	0.53379
-0.20832	0.40625
0.04670	0.20219
0.60773	-0.00188
0.22521	0.35523
0.12320	-0.56305
0.17421	-0.51203
-0.36133	0.38074
-0.76936	0.12566
0.17421	0.20219
0.99026	0.43176
0.93925	1.35003
-0.10631	1.09496
-0.23382	0.68683
-0.38683	-1.53234
0.19971	-1.04770
-0.00431	-1.55785
1.32178	-0.18043
0.32721	-1.58336
-2.12094	0.38074
-0.66735	2.62542
0.17421	2.03874
1.16877	0.83988
1.34728	0.38074
0.88825	-0.69059
0.55673	0.94191
-0.05531	0.71234
-0.28482	0.61031
0.22521	0.25320
0.63323	-0.25695
-0.33583	-1.88945
-0.71835	-2.01699
0.02119	-1.94047
1.19427	0.61031
0.50573	0.78886
-1.84042	1.50308
0.30171	1.37554
0.68424	0.94191
0.50573	0.10015
0.68424	0.66132
0.14870	0.86539
-0.41233	0.27871
1.14327	0.94191
-0.33583	-2.96078
-0.64185	-0.41000
0.96476	1.40105
0.60773	0.27871
-1.04987	-0.07840
0.86275	-0.25695
0.14870	-0.05289
-0.89686	0.35523
-0.33583	-0.46102
0.42922	0.40625
1.80631	-0.35899
2.08683	1.32453
0.81175	0.50828
-2.55447	-0.12942
-1.35589	0.15117
1.09226	0.71234
0.93925	0.07465
-0.28482	0.48277
-0.20832	0.12566
0.91375	-0.10391
0.32721	0.40625
-0.13181	-0.38449
-0.28482	0.45726
0.19971	-0.07840
-0.18282	-0.10391
1.11776	-0.76711
0.09770	-0.07840
0.40372	0.81437
-0.79486	0.68683
-0.10631	1.55410
0.83725	-0.33348
0.88825	-0.84363
1.16877	-0.43551
-0.25932	-0.86914
-0.89686	0.35523
0.14870	0.66132
0.48022	0.68683
0.48022	0.00000
0.78624	0.00000
0.45472	0.00000
-2.22295	0.00000
-2.04444	0.00000
-0.46334	0.00000
0.55673	0.00000
1.83181	1.12046
1.50029	1.14597
1.24527	1.35003
-0.20832	0.07465
0.40372	-0.66508
-0.02981	-0.84363
-0.36133	-1.53234
0.81175	-0.23145
-0.64185	0.15117
-0.20832	-0.69059
0.37822	0.73785
1.01576	0.91640
0.42922	1.40105
0.17421	0.17668
0.25071	0.27871
-4.00806	0.17668
-0.28482	-0.97117
0.96476	-0.63957
0.70974	-0.10391
0.04670	0.86539
0.76074	0.68683
0.81175	0.66132
0.02119	0.63582
0.07220	-0.10391
0.58223	-0.02739
1.42379	0.55929
-0.59084	-0.12942
-1.71292	-0.23145
1.27078	-0.28246
1.39828	-0.66508
0.12320	0.45726
-0.82036	-0.18043
-1.78942	-0.23145
0.60773	-1.14973
1.04126	1.32453
-1.48340	-0.25695
0.17421	1.22250
1.19427	1.17148
0.96476	0.96742
0.63323	0.48277
0.40372	0.50828
0.17421	0.07465
-0.13181	-0.23145
-2.22295	-1.37929
0.22521	-0.86914
0.86275	0.32972
0.81175	0.73785
0.70974	0.89089
0.35272	0.40625
-0.46334	-0.61406
-0.20832	-0.15492
0.58223	-0.18043
0.27621	1.01843
0.02119	0.94191
0.93925	0.25320
0.81175	0.81437
1.95932	-0.10391
-4.13557	0.15117
-5.25764	-0.66508
1.75531	-1.71090
2.29084	0.30422
1.47479	0.10015
1.37278	0.38074
0.86275	0.73785
0.65874	0.73785
1.47479	0.78886
0.73524	0.78886
-1.33039	-0.33348
-0.15732	-1.71090
-1.10088	-0.23145
-0.36133	1.06945
0.07220	0.45726
-1.58541	0.66132
0.17421	-0.46102
0.96476	0.22769
2.31634	-0.15492
1.50029	0.45726
-2.60547	0.10015
-0.10631	-0.94566
0.93925	-0.23145
-0.66735	1.19699
1.50029	1.24800
-1.22839	0.58480
0.60773	0.04914
1.90832	-1.20074
1.11776	-0.23145
-1.17738	-0.02739
-0.51434	0.43176
-0.31033	0.25320
0.88825	0.43176
0.02119	0.35523
-0.61635	0.27871
1.09226	-0.35899
-0.13181	-0.07840
-1.40690	0.55929
0.70974	-0.05289
0.48022	0.27871
-0.84586	0.30422
1.50029	0.81437
1.72980	0.12566
0.14870	0.55929
0.14870	-1.71090
-1.02437	-0.28246
-1.86593	0.25320
1.14327	0.78886
0.40372	0.22769
0.22521	0.71234
-0.76936	-0.07840
1.39828	-0.00188
0.30171	-0.02739
-0.71835	1.17148
0.96476	0.30422
0.58223	-0.97117
0.25071	0.22769
-0.31033	0.02363
3.31091	-0.02739
-1.91693	0.15117
-3.19201	0.04914
0.19971	0.48277
1.24527	-0.66508
1.32178	0.68683
1.34728	0.76336
1.37278	-0.30797
-0.13181	0.53379
-0.51434	0.68683
0.27621	-0.86914
0.32721	0.10015
-0.97337	1.04394
1.14327	0.81437
-0.08081	-0.53754
-0.56534	-1.04770
-0.05531	0.68683
0.25071	0.04914
0.86275	0.89089
-0.41233	0.15117
-0.43783	0.38074
0.04670	-0.76711
1.44929	0.30422
1.19427	-0.28246
-0.43783	0.32972
-2.42696	0.27871
-1.17738	0.43176
1.62780	0.27871
2.82638	0.07465
-2.22295	0.04914
-0.71835	0.40625
1.90832	-0.05289
1.16877	-0.58856
0.19971	0.45726
0.76074	-0.18043
-0.20832	0.38074
0.99026	0.32972
2.06133	1.70714
-2.73298	-0.94566
-4.05907	-0.41000
1.37278	-1.22625
0.91375	0.25320
-0.08081	1.12046
1.09226	1.17148
0.83725	0.63582
0.96476	0.20219
0.22521	-0.07840
-0.46334	0.15117
2.92838	-0.15492
-1.91693	0.02363
-3.34502	-0.43551
0.60773	1.24800
0.32721	0.17668
1.34728	0.12566
1.70430	-1.83844
0.65874	-0.30797
0.81175	0.63582
-0.13181	0.17668
-1.55991	-0.53754
0.32721	-0.58856
0.12320	1.14597
-0.00431	1.29902
-0.05531	1.01843
-0.05531	0.35523
0.09770	0.27871
0.68424	0.35523
0.91375	0.15117
-1.53441	0.68683
-1.04987	-0.81812
2.18883	-1.35379
0.83725	-1.17523
-3.03900	0.61031
0.25071	0.68683
0.91375	1.12046
1.55129	0.61031
2.23984	0.45726
-1.22839	-0.15492
-1.33039	-0.28246
1.06676	-0.86914
0.53123	0.22769
-1.43240	0.12566
0.53123	0.73785
0.35272	0.53379
0.22521	0.81437
2.01032	0.02363
1.32178	-0.05289
-2.27395	-0.89465
-2.70748	-0.43551
0.27621	-0.12942
1.34728	0.40625
0.76074	0.68683
-0.18282	0.43176
0.60773	0.55929
0.81175	0.58480
0.53123	0.02363
-1.02437	-0.00188
-0.74385	-0.18043
0.65874	-0.97117
0.45472	0.10015
0.50573	0.55929
0.76074	0.12566
-0.66735	0.15117
0.09770	0.40625
2.06133	0.94191
-0.71835	1.19699
-1.43240	-0.63957
1.21977	-1.94047
0.96476	-2.04250
-1.71292	1.50308
-0.84586	0.73785
-0.05531	0.63582
1.98482	0.53379
0.78624	0.50828
-0.36133	0.04914
0.53123	0.50828
-0.10631	-0.63957
0.55673	-0.10391
1.93382	0.45726
-0.89686	0.25320
-2.93700	0.27871
0.50573	0.22769
1.21977	0.32972
-1.15188	-0.07840
0.14870	-0.20594
0.35272	0.04914
0.83725	0.50828
0.88825	-0.20594
0.76074	-0.05289
0.78624	0.17668
0.32721	0.45726
-0.48884	0.15117
-3.72755	0.12566
0.68424	0.30422
1.98482	0.61031
1.39828	-0.30797
-0.56534	-0.48652
-1.33039	0.43176
0.27621	0.10015
-0.82036	0.35523
0.93925	-0.00188
0.68424	0.30422
0.53123	-0.02739
1.29628	0.32972
-0.23382	0.15117
-0.59084	-0.00188
0.25071	-1.02219
0.14870	-0.02739
0.25071	0.76336
0.04670	0.15117
0.50573	0.78886
-0.25932	0.45726
0.96476	0.71234
0.02119	0.04914
-0.76936	0.83988
0.53123	-0.18043
1.09226	0.76336
-0.76936	-3.01179
-1.15188	-0.33348
0.09770	0.50828
1.16877	0.43176
0.32721	0.94191
1.04126	0.63582
0.53123	0.53379
-0.74385	0.50828
0.25071	0.48277
0.50573	0.15117
0.50573	-0.05289
-2.24845	-0.35899
-0.53984	-0.00188
0.58223	0.22769
0.68424	-0.10391
0.37822	0.04914
0.81175	0.17668
0.60773	0.27871
0.25071	0.20219
-0.51434	0.02363
-0.36133	-0.02739
-0.15732	0.32972
0.17421	0.38074
-0.00431	0.45726
0.27621	-0.38449
0.30171	-0.02739
-0.18282	0.63582
0.37822	0.96742
-0.20832	-0.76711
0.73524	0.07465
0.37822	-0.23145
0.50573	0.48277
-0.28482	-0.00188
-0.08081	0.32972
-0.13181	-0.33348
0.27621	0.22769
0.04670	-0.18043
0.81175	0.27871
0.55673	0.83988
0.14870	1.12046
-0.28482	0.61031
-0.46334	-0.99668
0.40372	-0.15492
0.14870	-0.23145
1.39828	0.25320
0.12320	-0.07840
-1.68742	-0.25695
0.63323	-0.15492
0.68424	-0.07840
0.30171	0.58480
0.02119	0.38074
-0.00431	0.45726
0.60773	0.27871
2.13783	0.53379
-0.61635	0.12566
-3.62554	0.04914
0.37822	0.17668
1.34728	0.07465
0.30171	-0.12942
1.04126	0.02363
0.37822	0.22769
0.07220	-0.41000
0.22521	0.20219
0.35272	0.32972
0.60773	0.17668
0.07220	-0.10391
-0.59084	-0.05289
0.40372	0.89089
0.25071	0.96742
-0.18282	1.06945
0.68424	-0.76711
-1.20288	-1.17523
0.32721	-0.28246
0.27621	-0.43551
0.17421	0.53379
0.32721	0.50828
0.14870	0.96742
0.30171	0.94191
1.14327	1.04394
0.07220	-0.35899
-1.40690	0.17668
0.17421	-0.53754
0.83725	-1.12422
0.60773	0.25320
1.16877	0.25320
-1.10088	0.48277
0.04670	0.66132
1.19427	0.61031
0.22521	0.22769
-1.91693	-0.12942
0.22521	-0.05289
0.27621	-0.74160
-0.97337	0.17668
0.88825	0.81437
1.11776	0.20219
0.45472	0.22769
0.53123	-0.25695
0.45472	-0.05289
0.37822	0.35523
-0.41233	0.20219
0.02119	0.32972
-0.46334	0.25320
0.22521	0.22769
0.07220	-0.61406
0.35272	-0.20594
-0.20832	0.55929
-0.02981	0.27871
0.04670	0.43176
0.93925	0.27871
-0.28482	0.20219
-1.20288	0.61031
0.99026	-0.30797
0.65874	-0.53754
0.32721	0.15117
0.63323	0.30422
0.19971	0.04914
-0.05531	0.20219
-0.48884	0.61031
0.63323	0.35523
1.21977	-0.05289
-0.00431	-0.20594
-1.55991	-0.07840
-0.43783	-0.10391
-0.25932	0.55929
0.37822	0.10015
0.60773	-0.00188
0.83725	0.40625
0.35272	-0.02739
0.40372	0.27871
1.39828	0.40625
-1.04987	0.02363
-0.97337	-0.12942
-0.69285	-0.12942
-0.94787	-0.23145
0.60773	0.58480
1.24527	0.32972
0.58223	-0.02739
0.65874	0.17668
0.88825	0.53379
-0.97337	-0.10391
-0.56534	0.45726
0.65874	-0.35899
-0.41233	-0.97117
-0.25932	0.30422
0.19971	0.61031
0.63323	0.40625
0.73524	0.40625
0.27621	0.35523
0.12320	0.35523
0.02119	0.07465
0.35272	0.25320
0.55673	-0.00188
-1.22839	-0.69059
-0.48884	-1.09871
-0.38683	0.25320
0.55673	0.81437
1.88281	0.63582
0.09770	0.58480
-0.41233	0.50828
0.48022	0.15117
0.81175	0.48277
0.19971	0.43176
-0.36133	-0.89465
0.55673	-0.48652
0.58223	0.12566
-0.43783	-0.10391
-0.02981	0.55929
-1.68742	0.68683
0.99026	-0.00188
0.50573	-0.56305
-0.20832	0.25320
0.50573	0.94191
0.63323	0.99292
0.50573	0.40625
0.35272	-1.22625
0.68424	-0.53754
-1.58541	-0.46102
-1.94243	0.63582
1.39828	1.01843
1.39828	0.76336
0.45472	0.91640
1.42379	-0.46102
0.12320	0.10015
-1.76392	-0.12942
0.42922	-0.10391
0.76074	1.06945
-2.42696	0.58480
-1.43240	-0.18043
1.62780	-2.52714
1.55129	-0.56305
1.06676	0.66132
0.63323	0.73785
0.35272	0.86539
-0.05531	0.61031
-0.15732	0.17668
0.02119	0.22769
0.02119	0.25320
-0.02981	0.10015
0.27621	0.27871
-0.08081	-0.15492
-0.18282	-0.25695
0.17421	0.45726
0.22521	0.17668
-0.43783	-0.07840
0.93925	-0.07840
0.17421	0.10015
-0.53984	0.12566
0.42922	0.30422
0.58223	0.50828
0.40372	0.55929
0.53123	-0.02739
-0.38683	-0.28246
-0.10631	0.38074
0.93925	0.12566
-0.53984	0.20219
-1.94243	-0.18043
1.14327	0.25320
1.42379	-0.23145
1.67880	0.22769
-0.71835	0.30422
-0.94787	0.27871
0.42922	0.40625
0.04670	0.58480
-0.25932	-0.10391
0.88825	0.30422
-0.10631	0.81437
0.35272	0.63582
2.52035	-0.25695
-0.94787	-1.37929
-2.01894	-1.22625
-0.25932	-0.05289
0.60773	0.99292
0.63323	0.96742
1.16877	0.66132
0.12320	0.48277
-0.08081	-0.23145
-0.61635	-0.25695
-0.13181	-0.00188
0.81175	0.22769
0.42922	0.35523
0.27621	0.50828
0.12320	0.02363
-0.64185	0.07465
-0.33583	0.15117
0.02119	0.38074
0.48022	-0.07840
0.45472	-0.02739
0.58223	-0.00188
0.88825	0.43176
0.22521	0.02363
-0.64185	0.30422
-0.41233	-1.22625
0.09770	-0.81812
0.02119	0.81437
0.09770	0.96742
0.19971	0.71234
0.35272	0.25320
1.01576	0.04914
0.12320	0.35523
-1.96793	-0.02739
0.17421	-0.25695
1.32178	0.15117
0.48022	1.22250
-1.17738	0.94191
0.17421	-0.38449
0.76074	-0.38449
0.35272	-0.66508
0.73524	0.17668
0.81175	0.45726
0.83725	-0.02739
0.02119	-0.23145
-0.25932	-0.23145
-0.08081	0.35523
-0.15732	1.01843
-0.59084	0.25320
-0.00431	0.04914
0.27621	0.48277
0.17421	0.63582
-0.79486	-0.18043
-0.33583	-0.74160
0.93925	0.30422
0.96476	0.40625
0.09770	0.17668
1.01576	0.25320
0.27621	0.20219
-1.15188	0.10015
1.55129	0.43176
0.25071	0.04914
-1.63641	0.15117
-1.22839	-0.05289
0.91375	-0.30797
1.09226	0.12566
0.93925	0.27871
0.65874	0.20219
0.35272	0.25320
0.04670	0.10015
-0.15732	0.04914
-0.05531	0.40625
-0.13181	0.04914
-0.38683	0.73785
0.12320	-0.48652
0.14870	0.45726
0.25071	-1.07320
0.25071	-0.12942
-0.18282	0.32972
0.02119	0.73785
-0.08081	1.24800
0.12320	0.58480
0.65874	-0.23145
0.60773	-0.23145
0.19971	-0.28246
0.12320	-0.51203
1.14327	0.15117
0.40372	0.45726
0.35272	-0.02739
-0.25932	0.81437
-1.20288	0.25320
-1.02437	0.07465
0.48022	-0.38449
1.24527	0.15117
0.78624	-0.20594
-0.08081	0.27871
1.14327	0.45726
-0.46334	0.15117
-2.06994	0.63582
1.01576	0.02363
0.76074	0.45726
0.07220	-0.07840
0.63323	-0.12942
0.19971	0.20219
0.55673	-0.18043
0.32721	-0.00188
-0.31033	0.22769
0.40372	0.66132
0.40372	0.07465
0.12320	0.22769
-1.35589	-0.33348
-0.28482	-0.28246
0.14870	0.58480
0.30171	0.45726
0.42922	0.22769
0.53123	0.10015
0.25071	0.02363
0.12320	0.40625
0.12320	0.04914
0.32721	-0.12942
0.25071	-0.28246
0.04670	-0.20594
-0.13181	0.61031
0.53123	1.17148
0.37822	0.38074
1.06676	0.04914
-0.31033	-0.18043
-1.17738	-0.00188
0.07220	-0.61406
0.02119	0.32972
0.02119	0.32972
0.25071	0.35523
0.35272	0.12566
1.37278	0.07465
-0.71835	-0.30797
0.12320	0.68683
-0.59084	-0.20594
-0.84586	0.17668
0.70974	-0.05289
0.55673	0.58480
1.21977	0.40625
-0.05531	0.27871
-0.08081	0.30422
0.50573	0.15117
0.63323	0.20219
-0.13181	0.04914
-1.33039	-0.15492
0.86275	-0.20594
0.88825	0.07465
-1.15188	0.17668
-0.25932	0.17668
0.53123	0.10015
0.63323	0.50828
0.27621	-0.30797
0.30171	-0.07840
0.68424	-0.20594
0.12320	0.55929
0.09770	0.20219
0.19971	-0.07840
-0.74385	0.10015
0.48022	0.32972
-0.48884	0.32972
-0.20832	0.53379
0.45472	0.45726
0.17421	0.02363
0.55673	-0.28246
0.83725	-0.25695
-0.10631	0.45726
-0.36133	0.27871
0.53123	-0.07840
-0.28482	0.02363
0.22521	-0.23145
0.50573	0.04914
0.63323	0.32972
-0.23382	0.25320
-1.89143	0.40625
0.91375	-0.05289
1.34728	-0.07840
0.42922	0.61031
-0.79486	0.45726
0.65874	-0.07840
0.99026	0.68683
-0.99887	-0.41000
-0.79486	-0.38449
0.65874	0.10015
0.86275	0.45726
0.76074	0.32972
-0.28482	-0.02739
-0.33583	0.25320
-0.99887	0.48277
-0.18282	0.12566
1.72980	0.45726
0.02119	-0.97117
0.65874	0.48277
-0.25932	-0.35899
-0.36133	0.17668
1.57679	0.15117
-0.23382	0.35523
-0.64185	0.45726
-0.20832	0.30422
0.09770	0.43176
0.22521	0.12566
0.42922	0.02363
0.12320	-0.12942
0.35272	0.22769
0.37822	0.27871
0.68424	0.04914
0.27621	0.07465
-1.30489	0.20219
0.22521	0.35523
0.17421	0.02363
0.35272	-0.12942
0.83725	0.40625
1.52579	0.20219
-0.18282	-0.18043
-3.72755	0.53379
-2.04444	-0.23145
-0.36133	-0.51203
0.78624	-0.18043
2.92838	0.58480
1.04126	1.22250
0.93925	0.45726
0.83725	1.01843
-0.89686	0.15117
0.65874	0.83988
0.63323	-0.94566
-0.23382	-1.12422
-0.33583	-0.00188
0.17421	0.27871
-0.31033	0.43176
0.76074	0.35523
-0.74385	0.20219
0.53123	-0.05289
0.65874	0.17668
-1.25389	0.40625
0.48022	-0.25695
0.35272	0.04914
0.93925	0.12566
1.21977	0.17668
-0.53984	0.22769
-0.82036	0.30422
1.37278	0.35523
0.93925	0.15117
-0.10631	-0.12942
-0.97337	0.53379
0.42922	0.48277
-0.28482	0.66132
0.58223	0.07465
0.12320	-1.07320
1.16877	0.73785
1.37278	-0.63957
-0.36133	-0.66508
0.04670	0.55929
-0.79486	0.71234
-0.25932	0.45726
-0.02981	0.35523
1.16877	0.17668
-0.08081	-0.05289
-0.36133	0.45726
-0.89686	-0.12942
0.07220	-0.56305
0.93925	0.27871
1.01576	0.25320
0.78624	0.45726
0.22521	0.30422
0.25071	0.38074
0.02119	0.30422
-0.53984	-0.18043
0.14870	0.17668
0.12320	0.15117
0.83725	0.27871
-0.89686	0.12566
-1.02437	-0.48652
1.65330	-0.25695
0.70974	-0.33348
-0.74385	0.63582
1.98482	0.25320
-1.84042	0.20219
-1.33039	0.73785
0.63323	0.22769
1.47479	0.35523
1.14327	-0.12942
1.09226	-0.02739
-0.00431	0.76336
-0.53984	-0.07840
0.42922	-0.86914
0.12320	0.45726
-0.64185	0.32972
0.12320	0.35523
0.02119	0.58480
0.02119	0.10015
0.63323	0.04914
1.01576	-0.38449
-0.66735	-0.76711
-0.25932	0.45726
-0.59084	0.76336
1.06676	0.50828
-1.48340	0.22769
1.21977	0.30422
0.60773	-0.05289
0.50573	0.22769
0.63323	-0.28246
-0.05531	0.32972
0.27621	0.12566
0.37822	-0.10391
0.04670	-0.10391
0.99026	0.25320
0.37822	0.91640
-0.23382	0.55929
-0.10631	0.32972
-0.10631	-0.89465
-0.15732	0.32972
-0.20832	0.66132
0.02119	0.58480
-0.05531	-0.35899
0.27621	0.04914
0.04670	-0.15492
0.07220	-0.15492
0.22521	0.35523
1.11776	0.38074
-0.05531	0.02363
0.09770	0.20219
-1.04987	-0.15492
-0.66735	0.50828
1.32178	0.48277
0.83725	0.73785
0.12320	0.04914
1.27078	-0.18043
-0.84586	-0.02739
-0.18282	-0.33348
1.55129	-0.00188
-1.27939	0.58480
-1.55991	0.61031
1.09226	-0.23145
1.57679	-0.33348
0.60773	0.12566
-0.92237	-0.05289
-0.33583	0.32972
-0.05531	0.48277
0.07220	0.76336
-0.13181	0.02363
0.83725	0.45726
-0.18282	-0.43551
-0.08081	0.25320
-0.56534	0.12566
0.76074	-0.05289
1.06676	-0.61406
1.55129	-0.07840
-0.00431	0.53379
-1.10088	0.73785
0.12320	0.48277
0.60773	0.48277
0.40372	-0.05289
-0.28482	-0.30797
-0.10631	-0.25695
0.73524	0.22769
-0.10631	0.48277
0.48022	0.20219
-0.84586	0.30422
-2.32496	0.12566
1.19427	0.12566
0.53123	0.02363
1.29628	0.15117
0.50573	0.07465
0.22521	0.07465
-0.13181	-0.25695
1.14327	0.22769
-0.25932	0.45726
-1.27939	0.35523
0.27621	0.17668
0.22521	-0.61406
-0.20832	0.55929
-0.31033	0.61031
0.12320	-0.38449
0.78624	0.04914
0.93925	0.25320
0.60773	0.63582
-0.38683	0.71234
0.04670	0.27871
0.55673	0.17668
-0.43783	-0.25695
0.22521	-0.20594
1.29628	-0.76711
-0.94787	-0.05289
-1.22839	0.76336
1.19427	0.99292
-0.10631	-0.20594
-0.13181	0.17668
0.78624	-0.86914
-0.00431	0.35523
0.30171	0.58480
0.04670	0.10015
0.53123	0.32972
0.02119	0.27871
0.25071	0.30422
0.07220	0.20219
0.35272	0.17668
0.42922	0.20219
-0.23382	-0.35899
-0.97337	-0.33348
-0.46334	-0.02739
0.12320	0.32972
1.42379	0.61031
0.88825	-0.20594
0.07220	0.78886
-1.66191	-0.05289
0.60773	0.10015
1.11776	-0.69059
0.09770	0.58480
0.68424	0.58480
0.22521	0.73785
0.19971	0.71234
0.50573	-0.48652
-0.05531	-0.58856
0.22521	-0.02739
0.07220	0.15117
-1.50890	0.12566
-0.56534	0.25320
0.30171	0.22769
0.45472	0.32972
0.83725	0.02363
0.50573	0.43176
-0.33583	0.20219
-0.15732	-0.05289
0.91375	0.15117
0.68424	-0.38449
-1.53441	0.35523
0.17421	-0.10391
0.70974	-0.23145
1.95932	0.50828
-0.59084	-0.46102
-0.28482	0.32972
0.27621	0.22769
-0.10631	0.30422
0.42922	0.76336
0.14870	0.73785
0.58223	0.32972
0.73524	-0.63957
0.76074	-0.25695
-2.29945	0.27871
-0.51434	-0.02739
0.63323	0.32972
0.96476	-0.23145
0.17421	0.38074
0.42922	0.15117
0.50573	0.27871
-0.28482	-0.12942
-0.71835	-0.33348
0.14870	0.32972
0.68424	0.32972
0.22521	0.45726
0.99026	0.35523
0.17421	0.12566
-0.20832	0.40625
0.65874	-0.43551
0.68424	0.12566
0.27621	0.27871
-0.51434	0.25320
-0.36133	-0.02739
-0.25932	0.50828
0.53123	-0.00188
0.22521	-0.23145
1.24527	0.35523
0.22521	0.38074
-0.25932	1.04394
0.60773	-0.46102
-1.91693	-0.79262
-0.02981	0.22769
0.19971	0.17668
1.57679	0.27871
0.27621	0.43176
-1.35589	0.25320
0.63323	0.40625
0.32721	0.15117
0.88825	0.07465
0.91375	0.10015
-0.38683	0.17668
-0.33583	0.12566
0.14870	-0.10391
0.88825	0.12566
-0.13181	0.15117
-0.08081	0.20219
0.02119	0.35523
-0.38683	-0.30797
-0.08081	0.12566
0.96476	0.15117
0.93925	0.04914
0.09770	0.27871
-0.48884	0.96742
-0.53984	0.22769
0.65874	-0.28246
0.53123	-0.12942
0.04670	-0.05289
0.09770	-0.12942
0.14870	0.10015
0.65874	0.66132
-0.41233	0.27871
-0.02981	0.15117
0.14870	-0.12942
0.02119	0.17668
0.42922	0.35523
0.55673	0.40625
0.78624	0.04914
-0.13181	-0.30797
0.07220	-0.05289
-0.71835	0.68683
0.37822	0.40625
0.53123	-0.28246
0.60773	-0.25695
-0.20832	0.32972
-0.87136	0.15117
0.86275	0.43176
0.58223	-0.35899
0.02119	-0.25695
0.73524	0.58480
-0.08081	0.58480
0.07220	0.45726
-0.00431	-0.18043
0.19971	0.15117
-0.79486	-0.00188
-0.08081	0.04914
0.60773	0.30422
0.76074	0.43176
-0.76936	0.22769
0.17421	0.30422
0.53123	-0.18043
0.45472	-0.10391
-0.89686	-0.58856
0.53123	0.66132
1.75531	0.20219
0.04670	-0.05289
-1.91693	-0.46102
0.58223	0.68683
0.32721	0.40625
0.76074	0.50828
0.60773	0.35523
-1.07538	0.12566
1.09226	0.32972
0.68424	0.07465
-0.89686	0.32972
-0.56534	-0.35899
0.68424	0.04914
-0.13181	-0.00188
0.35272	0.04914
0.60773	0.02363
-0.18282	-0.10391
0.53123	0.25320
-0.46334	0.27871
1.42379	0.61031
-0.05531	-0.00188
-0.43783	0.38074
0.12320	-0.33348
0.25071	-0.53754
0.58223	-0.20594
-0.28482	0.50828
-1.55991	0.55929
0.70974	0.53379
-0.08081	0.04914
-1.10088	0.53379
1.47479	0.58480
0.50573	-0.05289
0.35272	-0.15492
-0.18282	-0.07840
-0.18282	0.45726
0.81175	0.07465
1.19427	0.30422
-0.61635	-0.15492
0.04670	-0.33348
0.37822	-0.35899
-1.33039	0.04914
0.37822	0.25320
0.76074	-0.23145
0.70974	-0.12942
0.53123	0.76336
0.19971	0.66132
-0.13181	0.58480
0.25071	0.15117
-0.76936	0.17668
0.35272	0.20219
0.76074	0.17668
-1.71292	-0.23145
-0.33583	-0.15492
0.14870	0.20219
0.40372	0.25320
0.55673	0.25320
0.76074	0.20219
0.96476	0.12566
0.88825	0.12566
0.60773	-0.18043
-0.36133	-0.38449
-0.56534	0.30422
-0.28482	0.10015
-0.00431	0.40625
0.91375	0.25320
0.30171	0.15117
-1.25389	0.07465
0.30171	0.02363
0.78624	0.22769
0.42922	0.53379
-0.87136	0.48277
-0.02981	0.63582
-0.79486	0.10015
0.07220	-0.66508
0.88825	0.17668
1.06676	0.78886
0.14870	0.35523
0.27621	-0.35899
0.04670	-0.23145
0.53123	-0.18043
-0.15732	0.25320
-0.41233	-0.48652
0.91375	0.25320
1.27078	0.10015
-0.87136	0.22769
0.53123	1.24800
-0.79486	0.30422
-0.94787	0.04914
0.60773	-0.20594
0.48022	-0.07840
-0.33583	0.15117
-0.20832	0.22769
-0.66735	0.30422
0.65874	0.20219
1.04126	0.15117
1.11776	0.30422
0.73524	0.04914
0.04670	0.10015
0.02119	0.25320
0.42922	0.43176
-0.59084	-0.41000
-0.41233	0.04914
0.37822	0.12566
-0.08081	0.02363
0.09770	0.02363
0.17421	0.04914
-0.31033	0.10015
-0.61635	0.22769
0.22521	0.45726
0.48022	0.32972
0.42922	0.17668
0.17421	-0.12942
0.53123	0.22769
0.35272	-0.12942
1.16877	0.04914
1.47479	0.32972
-0.69285	0.32972
-2.14644	-0.05289
-1.66191	-0.07840
0.35272	0.07465
1.24527	0.58480
0.78624	0.32972
1.57679	0.20219
-0.28482	0.04914
-0.43783	0.27871
0.25071	-0.02739
0.93925	-0.05289
0.86275	0.17668
-0.94787	0.07465
-1.10088	-0.05289
0.07220	0.22769
0.27621	0.53379
-0.20832	0.22769
0.35272	0.25320
-0.31033	-0.10391
1.42379	-0.00188
1.37278	0.20219
-0.02981	0.10015
-1.71292	0.27871
-1.22839	0.12566
0.40372	-0.05289
1.21977	-0.69059
0.60773	0.35523
1.11776	0.73785
1.19427	0.38074
-0.46334	0.22769
-0.71835	0.15117
-0.05531	0.02363
0.07220	0.15117
0.22521	0.15117
-0.05531	-0.00188
0.40372	0.43176
-0.13181	0.58480
-0.28482	-0.23145
0.32721	0.04914
0.27621	-0.10391
-0.15732	-0.46102
0.53123	0.02363
0.25071	0.30422
-0.08081	0.25320
0.30171	0.30422
0.25071	0.17668
0.22521	0.61031
0.25071	0.78886
0.17421	-0.15492
-0.02981	-0.02739
0.91375	0.04914
-0.08081	0.10015
-1.94243	0.20219
0.78624	0.32972
1.34728	0.07465
-2.19745	0.07465
-0.43783	0.07465
1.42379	-0.15492
1.01576	0.25320
-1.27939	0.55929
1.72980	-0.15492
0.86275	-0.12942
0.32721	-0.12942
0.14870	0.55929
-0.51434	0.71234
0.07220	-0.30797
0.22521	0.32972
-0.87136	0.04914
-0.08081	0.22769
0.19971	0.20219
0.02119	0.22769
-0.13181	0.22769
0.35272	0.15117
0.48022	-0.02739
0.32721	-0.02739
0.35272	0.32972
1.88281	0.22769
-0.28482	-0.15492
-0.20832	-0.28246
-0.71835	0.35523
-2.12094	-0.23145
1.11776	0.12566
1.50029	0.50828
1.09226	0.63582
0.40372	0.15117
0.70974	-0.51203
0.12320	-0.07840
-0.69285	0.43176
0.22521	0.53379
-0.00431	0.10015
-0.48884	0.04914
-0.15732	0.04914
-0.00431	-0.15492
0.93925	0.40625
0.48022	1.27351
-1.91693	0.91640
0.04670	-0.30797
0.88825	-0.25695
1.37278	-0.58856
-0.13181	-0.79262
0.35272	-0.05289
-0.84586	0.25320
0.25071	0.25320
1.06676	0.15117
-0.56534	0.66132
0.12320	0.55929
0.53123	0.86539
0.37822	-0.18043
0.12320	-0.23145
0.17421	0.20219
0.35272	0.40625
-0.64185	0.15117
0.27621	-0.00188
0.12320	-0.05289
0.09770	0.10015
0.12320	0.40625
-1.17738	0.27871
0.25071	0.07465
0.86275	-0.15492
0.40372	0.15117
1.09226	-0.81812
-0.48884	-0.05289
-0.46334	0.27871
0.07220	0.20219
0.17421	0.22769
0.73524	0.45726
-1.02437	0.25320
-0.00431	0.73785
0.35272	0.66132
1.34728	0.73785
0.48022	-0.43551
-0.46334	-0.30797
0.48022	-0.18043
-0.05531	-0.15492
0.09770	-0.05289
0.12320	0.43176
-0.15732	0.55929
0.04670	0.02363
0.42922	0.22769
-0.13181	0.10015
0.17421	0.04914
-0.00431	0.15117
0.12320	0.27871
0.17421	0.15117
0.25071	0.22769
-0.25932	0.04914
0.22521	-0.02739
0.40372	0.17668
0.83725	-0.00188
-0.69285	0.30422
0.53123	0.30422
-0.23382	-0.07840
-0.76936	-0.10391
0.78624	0.10015
-0.08081	0.22769
-0.76936	0.38074
0.70974	0.17668
1.44929	0.17668
0.81175	0.30422
0.35272	0.20219
-0.00431	0.10015
-0.74385	0.22769
-0.76936	-0.05289
-0.10631	-0.10391
0.83725	0.17668
-0.71835	0.04914
-0.99887	0.15117
0.81175	0.38074
1.80631	0.22769
-0.46334	0.30422
-1.84042	0.17668
0.27621	0.30422
0.70974	0.04914
1.01576	-0.10391
1.93382	0.43176
0.60773	-0.05289
-2.01894	-0.18043
-0.02981	0.07465
0.19971	0.10015
0.32721	0.45726
0.35272	0.66132
0.25071	-0.20594
1.47479	-0.15492
-0.82036	0.30422
-3.19201	-0.20594
-0.08081	0.35523
0.53123	0.35523
1.06676	-0.28246
1.50029	0.38074
0.45472	0.25320
0.25071	0.27871
0.25071	0.32972
0.76074	0.32972
0.88825	0.07465
-2.12094	0.27871
-0.43783	-0.30797
0.50573	0.20219
0.30171	-0.00188
0.78624	-0.23145
0.32721	-0.10391
-0.38683	0.27871
0.02119	0.43176
0.63323	0.17668
-0.18282	0.45726
0.22521	-0.18043
0.45472	0.07465
-0.51434	0.38074
0.30171	0.55929
0.60773	0.02363
0.37822	-0.07840
0.02119	0.04914
1.34728	0.10015
-0.79486	0.25320
-0.61635	0.20219
-0.15732	-0.05289
0.86275	0.25320
0.83725	0.10015
0.42922	0.22769
0.14870	-0.02739
-0.05531	-0.07840
0.02119	0.04914
-0.33583	0.66132
0.73524	0.50828
-0.38683	0.35523
-0.33583	-0.05289
-0.13181	-0.53754
0.63323	-0.05289
0.32721	0.15117
-0.02981	0.15117
-0.56534	0.30422
-0.43783	0.02363
1.24527	0.20219
0.83725	-0.00188
-0.15732	0.04914
-0.99887	0.10015
0.63323	0.20219
0.76074	0.68683
0.99026	0.76336
1.04126	0.32972
-0.43783	0.12566
-0.69285	0.58480
0.09770	-0.71609
-0.10631	-0.63957
0.32721	0.07465
-0.02981	-0.18043
-0.00431	0.35523
-0.23382	0.48277
0.14870	0.35523
0.55673	0.17668
0.55673	0.22769
-0.59084	0.02363
-0.08081	0.04914
0.53123	-0.25695
0.02119	-0.05289
-0.51434	-0.05289
1.04126	0.66132
1.90832	0.48277
-0.71835	0.61031
-2.93700	-0.35899
0.30171	-0.41000
0.07220	0.38074
1.34728	0.35523
0.86275	0.15117
0.68424	0.07465
0.32721	0.04914
0.73524	-0.00188
-0.51434	0.25320
-0.89686	0.04914
0.22521	0.02363
-0.41233	0.17668
-0.08081	0.20219
0.81175	0.68683
-0.00431	0.30422
-0.00431	0.02363
0.93925	-0.43551
0.30171	0.48277
-0.25932	-0.02739
-1.81492	0.12566
0.30171	0.20219
0.60773	0.66132
0.83725	0.66132
1.27078	0.22769
0.45472	-0.66508
-0.79486	-0.20594
0.35272	0.15117
0.37822	0.02363
0.35272	0.17668
-0.15732	0.15117
0.65874	0.20219
0.32721	0.07465
-2.06994	0.40625
1.32178	0.10015
0.17421	0.27871
-0.61635	0.12566
0.91375	0.17668
0.35272	-0.12942
0.27621	0.45726
0.02119	0.35523
0.68424	0.35523
0.12320	0.04914
-0.38683	-0.25695
0.02119	0.10015
0.45472	0.43176
0.27621	0.12566
0.12320	0.15117
0.17421	0.15117
0.25071	-0.10391
-0.64185	0.10015
-0.38683	0.12566
0.25071	0.17668
0.48022	0.12566
0.32721	-0.07840
0.50573	0.17668
0.25071	0.45726
0.04670	0.91640
0.53123	-0.86914
1.39828	0.10015
-1.40690	-0.28246
-2.01894	-0.18043
-1.25389	-0.07840
0.48022	0.94191
2.16333	0.63582
0.83725	0.50828
1.06676	-0.58856
0.81175	-0.07840
0.32721	0.15117
-0.69285	0.22769
-0.36133	0.48277
0.02119	0.30422
0.02119	0.22769
0.09770	0.40625
-0.05531	-0.00188
0.09770	-0.25695
0.12320	-0.25695
0.07220	0.25320
0.22521	0.17668
0.22521	-0.05289
0.14870	0.15117
0.14870	0.38074
0.58223	1.37554
0.35272	-1.07320
1.98482	-0.30797
-2.65648	-0.23145
-2.47797	-0.20594
0.58223	0.53379
1.65330	0.86539
1.01576	0.91640
-0.10631	0.20219
0.60773	-0.10391
0.63323	0.07465
0.50573	-0.05289
0.32721	0.04914
-0.10631	0.20219
-0.08081	0.15117
-0.18282	0.04914
-0.08081	0.27871
-0.18282	0.20219
-0.00431	0.17668
-0.08081	-0.38449
0.02119	-0.02739
0.12320	0.30422
0.09770	0.04914
0.30171	0.07465
0.09770	0.25320
0.30171	-0.05289
0.30171	0.22769
0.42922	0.10015
0.81175	0.53379
1.14327	0.76336
-0.43783	-0.18043
-1.63641	-0.28246
-1.02437	0.32972
0.12320	0.43176
1.01576	0.45726
0.65874	-0.07840
1.11776	0.15117
0.96476	-0.33348
0.58223	-0.33348
-0.10631	0.25320
-0.20832	0.20219
-0.08081	0.50828
-0.38683	0.27871
-0.28482	0.02363
-0.02981	-0.02739
0.60773	0.50828
0.58223	-0.02739
0.53123	-0.10391
0.17421	0.40625
-2.14644	0.22769
-0.18282	0.27871
0.09770	-0.18043
0.12320	0.20219
0.37822	0.12566
2.08683	0.68683
0.45472	0.10015
0.07220	-0.41000
0.35272	-0.00188
0.73524	0.25320
-0.36133	0.20219
-1.12638	0.15117
0.42922	0.27871
-0.23382	0.04914
-0.18282	-0.12942
0.17421	-0.12942
0.45472	0.22769
0.88825	0.12566
0.70974	0.45726
-1.73842	0.27871
-0.36133	0.66132
1.50029	-0.05289
0.14870	-0.12942
-1.22839	0.27871
0.04670	0.30422
0.48022	-0.05289
0.88825	0.17668
0.63323	-0.76711
-0.08081	-0.38449
0.48022	0.63582
0.73524	0.53379
-0.71835	0.58480
-0.69285	0.32972
-0.38683	-0.15492
0.22521	-0.23145
0.73524	0.02363
-0.18282	0.35523
0.17421	0.04914
1.78081	0.38074
-0.28482	-0.07840
-1.81492	0.02363
0.12320	0.68683
-0.43783	0.15117
-0.05531	-0.23145
1.80631	-0.07840
0.93925	0.02363
0.68424	0.20219
0.55673	0.35523
-0.94787	0.86539
-0.25932	0.32972
0.45472	-0.15492
0.32721	-0.23145
0.30171	-0.00188
-0.10631	0.25320
-0.89686	0.02363
0.35272	0.30422
0.09770	-0.28246
0.53123	-0.12942
0.58223	0.22769
0.50573	0.53379
1.75531	0.25320
-1.07538	0.20219
-1.81492	0.25320
1.39828	0.35523
-0.28482	-0.05289
0.40372	-0.28246
0.91375	0.12566
-0.13181	0.15117
0.22521	-0.41000
-0.05531	0.50828
0.65874	0.43176
0.35272	0.22769
-0.08081	0.04914
1.14327	0.02363
-0.59084	0.32972
-0.99887	0.43176
0.45472	0.07465
0.27621	0.22769
0.35272	-0.05289
0.50573	0.04914
0.42922	-0.20594
-0.51434	0.45726
0.63323	0.02363
0.48022	0.30422
-0.74385	0.10015
-0.97337	0.32972
0.78624	0.20219
1.14327	-0.05289
-0.59084	-0.15492
0.25071	-0.28246
1.06676	-0.41000
1.50029	0.15117
-1.68742	0.48277
-0.61635	0.71234
0.37822	0.83988
1.24527	0.45726
0.22521	0.27871
-0.74385	-0.33348
0.32721	-0.12942
1.14327	-0.10391
-0.36133	0.10015
-1.38139	0.04914
-0.08081	0.50828
1.16877	0.68683
-0.00431	0.55929
-0.02981	-0.43551
0.19971	-0.33348
1.19427	-0.23145
0.04670	0.20219
-0.10631	0.25320
0.19971	0.20219
0.40372	0.38074
0.30171	-0.48652
0.22521	0.20219
0.65874	0.38074
-0.97337	0.07465
-0.48884	-0.20594
0.73524	-0.00188
0.12320	0.38074
-0.25932	0.32972
0.60773	0.63582
0.48022	0.22769
0.60773	0.12566
0.30171	-0.18043
-0.13181	0.17668
-0.33583	-0.00188
0.88825	-0.10391
0.19971	0.02363
-0.64185	0.38074
0.88825	-0.05289
-1.33039	0.17668
-0.36133	-0.23145
-0.10631	0.48277
0.93925	0.38074
0.40372	0.73785
0.02119	0.07465
0.99026	-0.18043
0.63323	0.02363
-0.36133	-0.25695
0.81175	-0.00188
-0.41233	-0.07840
-0.23382	0.27871
1.04126	0.61031
0.91375	0.53379
-1.27939	0.02363
-0.59084	-0.38449
0.32721	0.07465
0.53123	0.07465
0.07220	0.32972
0.35272	0.04914
0.45472	0.12566
0.17421	0.61031
0.42922	0.35523
0.42922	-0.23145
-0.69285	0.04914
1.34728	0.07465
-0.33583	0.48277
-1.22839	-0.05289
0.17421	-0.69059
0.55673	0.45726
0.60773	0.32972
0.42922	0.20219
0.50573	0.27871
-0.02981	0.15117
0.22521	0.10015
-0.00431	-0.10391
0.07220	0.12566
0.45472	0.66132
0.02119	-0.00188
-0.48884	-0.00188
-0.08081	0.53379
-0.48884	0.58480
2.29084	0.02363
0.86275	-0.35899
-2.60547	-0.18043
-0.10631	0.38074
0.86275	0.25320
0.68424	0.32972
1.44929	0.07465
-0.08081	0.02363
0.35272	0.22769
0.12320	0.02363
-1.17738	0.38074
0.83725	-0.07840
0.12320	-0.48652
0.35272	-0.18043
0.12320	0.66132
0.09770	0.66132
0.14870	0.38074
-0.08081	0.12566
-0.02981	-0.07840
0.07220	-0.25695
-0.25932	0.02363
0.12320	0.20219
0.53123	0.45726
0.45472	0.35523
-0.66735	0.15117
0.83725	-0.02739
0.30171	0.32972
-0.74385	0.48277
-0.84586	-0.18043
0.93925	-0.00188
1.37278	-0.38449
0.73524	-0.51203
-0.31033	0.07465
0.73524	0.63582
0.07220	0.81437
-0.43783	0.38074
0.42922	0.12566
-0.36133	0.12566
-0.56534	-0.20594
0.09770	-0.05289
0.35272	-0.05289
0.35272	0.38074
0.30171	0.55929
0.22521	0.66132
-0.00431	-0.15492
-0.13181	-0.12942
0.42922	0.35523
0.78624	-0.23145
-0.66735	0.17668
-0.82036	0.50828
-1.43240	-0.23145
0.81175	-0.07840
0.60773	-0.30797
0.70974	0.35523
0.37822	0.55929
0.73524	0.38074
0.40372	0.07465
0.12320	-0.00188
0.48022	0.10015
-0.69285	0.35523
-1.73842	0.15117
0.86275	0.25320
0.07220	0.17668
0.63323	-0.05289
0.30171	0.02363
0.96476	-0.18043
-0.51434	0.07465
-0.92237	0.07465
0.45472	0.22769
0.27621	0.40625
-0.51434	0.02363
1.16877	0.38074
0.32721	0.38074
0.27621	0.55929
0.91375	-0.28246
-0.66735	-0.28246
0.25071	0.10015
0.04670	-0.05289
-0.18282	0.40625
0.86275	0.38074
0.73524	-0.05289
-0.99887	-0.00188
-1.81492	0.22769
0.09770	0.53379
0.42922	0.12566
1.62780	0.15117
0.93925	-0.18043
0.63323	-0.05289
-0.79486	0.17668
-0.28482	0.17668
1.11776	0.32972
0.42922	0.04914
-1.30489	-0.07840
-0.05531	0.27871
-0.00431	-0.00188
0.53123	0.02363
0.58223	0.20219
0.35272	0.32972
0.12320	0.27871
-0.89686	0.12566
0.22521	0.50828
0.25071	0.32972
0.32721	0.20219
0.58223	-0.28246
0.30171	0.10015
-0.10631	-0.18043
0.09770	-0.12942
0.27621	0.22769
0.02119	-0.43551
0.48022	0.48277
0.07220	1.06945
-0.38683	0.73785
1.39828	0.02363
-1.12638	-0.35899
-2.01894	-0.15492
2.06133	0.12566
-0.61635	0.38074
-0.74385	-0.38449
1.37278	-0.10391
0.86275	0.17668
1.34728	0.30422
0.02119	0.17668
-0.53984	0.27871
0.17421	0.30422
0.45472	0.40625
0.17421	0.17668
-0.02981	0.10015
-0.53984	0.02363
1.11776	-0.10391
-0.38683	-0.00188
-2.86049	0.07465
0.48022	0.12566
0.91375	0.10015
-0.71835	0.32972
0.86275	0.38074
1.21977	0.25320
1.11776	0.02363
0.68424	0.10015
0.55673	0.15117
0.32721	0.22769
-0.31033	-0.07840
-0.89686	0.30422
0.14870	0.17668
-0.05531	0.94191
0.27621	0.20219
0.02119	-0.18043
-0.18282	-0.56305
0.02119	-0.43551
0.12320	-0.25695
0.04670	0.07465
0.22521	0.50828
0.12320	0.66132
0.19971	0.45726
0.40372	0.25320
0.83725	-0.25695
0.22521	0.27871
0.32721	0.12566
-0.48884	-0.07840
-2.01894	-0.02739
0.81175	0.55929
0.96476	0.63582
0.32721	0.55929
0.73524	0.04914
1.93382	0.35523
-1.20288	-0.41000
-1.25389	-0.10391
-0.82036	-0.38449
0.68424	0.35523
0.32721	0.12566
1.24527	0.27871
0.60773	-0.10391
-0.28482	0.32972
-0.53984	0.27871
0.32721	0.27871
-0.10631	0.35523
0.78624	-0.15492
0.58223	-0.35899
-1.89143	0.17668
-0.64185	0.45726
0.68424	0.63582
1.06676	0.25320
0.35272	0.20219
0.76074	0.15117
0.22521	-0.02739
0.25071	0.02363
0.07220	-0.18043
0.14870	0.35523
0.27621	0.10015
0.37822	0.22769
-0.18282	0.12566
0.12320	-0.46102
-1.12638	0.25320
-0.10631	0.78886
1.29628	0.30422
0.30171	0.32972
-0.38683	-0.00188
1.09226	-0.23145
-1.58541	-0.10391
-0.33583	0.15117
0.91375	-0.00188
0.76074	0.32972
0.22521	0.32972
1.04126	0.35523
0.91375	-0.07840
-2.04444	-0.38449
-0.82036	0.32972
1.06676	0.61031
0.19971	0.45726
0.02119	0.35523
0.45472	0.15117
1.04126	0.40625
-0.10631	0.04914
-0.25932	-0.76711
0.53123	0.02363
1.65330	0.10015
-1.40690	0.35523
-0.71835	0.10015
-0.00431	0.30422
0.53123	0.43176
-1.33039	0.10015
1.06676	0.48277
0.83725	-0.05289
1.47479	-0.07840
0.37822	-0.46102
-0.33583	0.38074
0.32721	0.89089
0.50573	0.17668
0.07220	-0.18043
-0.36133	-0.05289
-0.23382	0.35523
0.17421	0.04914
-0.08081	0.22769
0.35272	0.25320
-0.05531	0.07465
-0.38683	-0.12942
1.21977	0.15117
0.88825	0.40625
-3.14101	-0.20594
0.63323	-0.00188
0.50573	0.40625
0.93925	0.22769
0.55673	0.55929
0.60773	-0.23145
0.17421	-0.41000
-0.23382	-0.18043
0.40372	0.27871
-0.25932	-0.05289
-0.18282	0.10015
0.53123	0.78886
0.37822	0.30422
0.53123	1.29902
-0.53984	0.35523
0.22521	-0.66508
0.42922	-0.97117
-0.28482	-0.25695
-0.08081	0.55929
-0.15732	0.32972
-0.36133	0.48277
0.88825	0.04914
0.70974	0.17668
-0.89686	0.45726
0.58223	0.86539
2.01032	-0.02739
1.04126	-0.43551
-1.27939	-0.46102
-1.10088	0.07465
-0.28482	0.40625
0.78624	0.25320
0.91375	0.02363
0.53123	0.07465
-0.89686	0.22769
-0.25932	0.40625
0.63323	0.12566
0.50573	0.02363
-0.00431	0.17668
-0.28482	-0.33348
0.83725	0.32972
0.04670	0.38074
0.02119	0.40625
1.19427	0.50828
-0.08081	0.58480
-0.18282	0.25320
0.07220	-0.41000
-0.18282	-0.07840
0.78624	-0.00188
0.19971	-0.33348
-0.28482	0.12566
0.32721	0.73785
0.22521	0.15117
-0.79486	0.17668
-0.82036	-0.41000
1.09226	0.17668
-0.00431	0.02363
0.45472	0.27871
0.09770	0.30422
0.81175	0.43176
0.96476	0.55929
0.88825	-0.02739
-0.94787	-0.18043
-0.33583	-0.28246
-0.05531	-0.35899
-0.28482	0.53379
0.35272	0.43176
0.14870	0.50828
-0.00431	0.15117
0.65874	0.35523
0.19971	0.30422
0.22521	0.04914
0.40372	-0.15492
-0.15732	0.27871
-1.02437	-0.30797
0.70974	0.48277
-0.38683	0.22769
0.50573	0.07465
0.25071	-0.12942
1.93382	-0.23145
0.07220	0.22769
-1.61091	0.35523
0.09770	0.32972
1.09226	0.22769
-0.97337	-0.07840
-0.74385	0.02363
1.27078	0.20219
0.48022	0.43176
0.99026	0.38074
0.35272	0.12566
-1.22839	0.04914
0.42922	0.17668
0.02119	0.20219
0.40372	-0.00188
0.19971	0.04914
0.12320	0.04914
0.09770	0.12566
0.04670	0.15117
0.22521	1.09496
0.37822	-0.07840
-0.05531	-0.25695
0.88825	0.27871
-0.69285	-0.15492
-0.38683	0.35523
0.19971	-0.69059
0.63323	-0.46102
0.32721	0.22769
0.76074	0.86539
-0.31033	0.53379
-1.48340	0.38074
1.39828	0.40625
1.24527	0.20219
2.13783	-0.05289
-1.33039	0.22769
-2.04444	0.45726
0.50573	-0.15492
0.25071	-0.69059
0.60773	-0.00188
0.27621	0.35523
1.09226	0.43176
-0.28482	0.35523
-1.25389	0.15117
0.12320	-0.46102
0.27621	0.32972
-0.51434	0.27871
0.55673	0.04914
0.25071	0.25320
0.09770	0.38074
0.78624	0.12566
0.07220	-0.28246
-0.28482	-0.05289
0.50573	0.40625
0.30171	0.15117
0.25071	0.30422
1.09226	0.38074
-0.02981	-0.12942
-2.88599	0.12566
0.42922	-0.12942
0.73524	0.04914
-0.82036	0.45726
0.86275	0.53379
1.19427	0.20219
0.27621	-0.12942
-0.59084	0.27871
0.83725	-0.02739
0.45472	0.40625
0.55673	-0.00188
0.17421	0.35523
-0.51434	0.45726
0.22521	-0.28246
-0.69285	-0.30797
-0.25932	0.12566
0.70974	0.40625
0.35272	0.45726
0.30171	0.61031
0.07220	0.07465
0.37822	0.07465
-0.15732	-0.05289
0.04670	0.17668
0.30171	-0.10391
0.27621	-0.02739
0.32721	0.04914
0.50573	-0.05289
-0.05531	0.61031
-0.99887	0.30422
0.45472	0.40625
-0.20832	0.40625
0.53123	0.12566
0.68424	-0.07840
0.48022	0.15117
-0.38683	-0.05289
0.45472	0.25320
0.32721	0.30422
-0.18282	0.15117
0.73524	0.02363
-0.31033	-0.12942
-0.33583	0.20219
-0.36133	-0.00188
-0.13181	0.35523
0.53123	0.15117
0.25071	0.02363
0.45472	0.15117
0.99026	0.22769
-0.33583	0.17668
-0.56534	0.61031
0.30171	0.07465
0.32721	0.22769
0.22521	-0.25695
0.45472	-0.33348
-0.10631	0.40625
0.19971	-0.18043
0.17421	0.38074
-0.48884	0.35523
-0.05531	0.27871
0.68424	0.66132
0.50573	0.15117
-0.36133	-0.02739
-0.56534	-0.25695
0.86275	-0.46102
0.42922	0.22769
1.04126	0.45726
-1.73842	0.40625
-0.89686	0.43176
1.09226	-0.25695
0.22521	0.15117
0.70974	0.15117
1.06676	-0.28246
0.73524	0.15117
0.09770	0.15117
0.12320	-0.02739
-1.22839	0.53379
-0.00431	0.55929
0.09770	0.48277
0.32721	0.17668
0.22521	-0.15492
0.81175	-0.25695
0.40372	0.17668
0.12320	0.20219
-0.46334	0.35523
-0.05531	0.30422
1.55129	0.02363
0.14870	0.48277
-0.74385	-0.33348
-0.02981	0.25320
-0.46334	0.04914
0.42922	0.43176
0.55673	-0.10391
0.12320	0.17668
0.17421	0.02363
0.55673	0.25320
-0.15732	-0.10391
-0.33583	0.38074
0.63323	0.17668
0.42922	-0.05289
-0.31033	-0.18043
0.02119	0.66132
0.32721	0.20219
0.53123	0.15117
0.02119	0.10015
-0.79486	0.27871
-0.59084	0.20219
0.45472	0.27871
0.60773	-0.20594
1.16877	-0.15492
1.01576	0.17668
-0.02981	0.30422
-0.05531	0.17668
-0.08081	0.25320
-1.07538	0.15117
-0.94787	0.20219
1.19427	0.02363
0.81175	-0.43551
1.52579	0.15117
-0.36133	0.25320
-0.15732	0.32972
0.63323	0.50828
1.21977	0.50828
-0.51434	-0.07840
-0.64185	-0.18043
-0.41233	0.15117
0.02119	0.22769
0.30171	0.17668
0.73524	0.02363
0.45472	0.15117
-0.15732	0.02363
-1.02437	0.45726
1.83181	0.68683
0.04670	0.25320
-2.55447	-0.53754
0.63323	-0.38449
1.42379	0.22769
0.27621	0.43176
0.17421	0.35523
0.53123	0.27871
0.27621	0.15117
1.09226	-0.23145
-0.15732	0.04914
-1.25389	0.50828
0.04670	0.27871
0.37822	0.17668
0.42922	0.04914
0.17421	-0.02739
0.27621	-0.02739
1.21977	0.30422
-0.56534	-0.00188
-1.43240	0.35523
-0.00431	-0.23145
0.99026	0.12566
0.40372	0.66132
0.35272	-0.15492
0.32721	-0.18043
-0.94787	0.27871
0.07220	0.22769
-0.05531	0.94191
0.88825	0.15117
0.45472	-0.15492
-0.46334	-0.15492
0.40372	-0.00188
1.24527	0.12566
0.42922	0.12566
-1.89143	0.25320
0.91375	-0.28246
-1.04987	-0.15492
-0.25932	0.32972
0.73524	0.45726
0.12320	1.01843
0.35272	-0.07840
0.58223	-0.30797
0.86275	0.02363
0.14870	0.15117
0.22521	0.50828
-0.53984	0.07465
-1.20288	0.25320
0.70974	-0.12942
0.55673	0.25320
0.17421	0.15117
0.25071	-0.07840
0.09770	-0.10391
0.04670	-0.00188
0.53123	0.53379
-0.28482	0.02363
-0.28482	0.55929
0.76074	0.40625
-0.61635	-0.00188
0.25071	-0.05289
1.09226	-0.00188
-0.20832	0.12566
-0.82036	-0.28246
0.76074	-0.02739
1.42379	0.35523
0.30171	0.27871
-2.37596	0.25320
-1.50890	0.20219
1.65330	0.17668
0.32721	0.81437
0.07220	-0.05289
1.09226	-0.48652
0.91375	-0.02739
0.25071	0.38074
0.22521	0.50828
0.02119	0.07465
0.22521	0.15117
-0.05531	-0.07840
-0.02981	-0.02739
0.96476	0.48277
-0.41233	0.22769
-1.71292	0.25320
-0.48884	-0.43551
0.50573	-0.12942
0.45472	0.40625
0.68424	0.22769
0.81175	0.12566
0.50573	0.27871
-0.20832	0.22769
0.02119	0.10015
0.73524	-0.12942
-0.53984	0.04914
-1.04987	0.12566
1.11776	0.20219
0.96476	0.63582
0.76074	0.25320
-0.33583	0.48277
0.35272	-0.48652
-0.23382	-0.38449
-0.05531	0.32972
0.68424	0.50828
-1.20288	0.30422
-0.87136	0.45726
0.09770	-0.00188
0.65874	-0.18043
0.17421	0.02363
1.16877	-0.15492
-0.08081	-0.25695
0.58223	0.12566
-0.92237	0.43176
-1.55991	0.38074
0.93925	0.35523
1.67880	0.40625
-0.13181	0.20219
-0.94787	-0.05289
0.07220	-0.00188
1.21977	0.15117
0.99026	0.12566
0.93925	-0.53754
0.19971	0.27871
-0.66735	0.30422
-1.40690	0.15117
0.12320	0.40625
0.91375	0.25320
-0.38683	0.10015
-0.02981	-0.05289
0.60773	0.30422
1.14327	-0.61406
0.27621	0.07465
-1.30489	0.32972
0.83725	0.53379
1.11776	0.55929
-2.14644	0.48277
-0.33583	0.10015
0.99026	-0.00188
0.45472	-0.15492
0.48022	0.35523
0.63323	0.45726
0.14870	0.04914
0.60773	-0.46102
0.53123	0.25320
-0.15732	0.30422
-0.25932	-0.02739
-0.25932	-0.51203
-0.18282	0.04914
0.25071	0.32972
1.52579	0.35523
-1.76392	-0.25695
-0.76936	-0.00188
0.17421	0.55929
0.81175	0.76336
1.50029	0.22769
-0.00431	0.50828
-0.56534	-0.07840
0.83725	0.55929
0.07220	-0.89465
0.55673	-0.46102
-1.02437	0.43176
-1.38139	0.15117
-0.08081	0.35523
1.70430	0.45726
0.86275	0.12566
0.58223	-0.23145
0.19971	0.04914
-0.15732	-0.07840
-0.05531	0.25320
-0.71835	0.66132
-0.64185	0.04914
-0.18282	0.38074
-0.02981	0.10015
0.70974	0.30422
0.48022	-0.18043
0.17421	-0.10391
0.55673	0.22769
-0.38683	-0.05289
-0.08081	-0.05289
1.21977	0.27871
0.42922	0.30422
-0.99887	0.20219
0.12320	-0.12942
0.07220	-0.07840
0.40372	0.83988
-1.04987	0.40625
1.14327	0.02363
0.37822	-0.23145
0.93925	-0.05289
0.40372	-0.02739
0.17421	0.30422
0.27621	0.48277
0.09770	0.15117
-0.56534	0.32972
-0.25932	0.32972
0.19971	0.81437
0.42922	-0.74160
0.42922	-0.07840
-0.28482	0.22769
0.37822	0.10015
0.09770	0.04914
0.88825	0.43176
-0.15732	-0.00188
-0.74385	0.43176
-0.69285	0.15117
0.55673	0.04914
0.55673	0.25320
0.63323	-0.02739
1.60230	-0.05289
-0.31033	0.10015
-1.66191	0.15117
0.37822	0.55929
0.27621	-0.56305
0.14870	0.32972
0.73524	0.43176
0.50573	0.30422
1.32178	0.32972
0.45472	0.40625
-2.63097	0.25320
-0.41233	0.43176
0.73524	-0.05289
0.09770	-0.12942
-0.13181	-0.15492
0.12320	-0.28246
1.19427	0.76336
1.47479	-0.20594
-0.51434	-0.28246
-0.97337	0.45726
0.42922	0.10015
0.32721	0.15117
0.07220	0.04914
-0.02981	0.32972
0.53123	0.35523
0.27621	0.38074
-0.00431	0.12566
-0.69285	0.20219
0.35272	-0.15492
0.02119	-0.20594
0.48022	0.43176
0.30171	0.50828
0.14870	0.25320
0.19971	0.32972
0.50573	-0.00188
-0.18282	-0.05289
0.42922	0.25320
0.40372	0.07465
-0.38683	0.32972
-0.74385	0.10015
-0.10631	0.20219
1.06676	-0.30797
-0.02981	-0.00188
0.25071	0.22769
0.91375	0.12566
0.88825	0.20219
-0.05531	-0.05289
-1.10088	0.32972
-1.73842	0.10015
1.34728	0.35523
0.76074	0.40625
-0.25932	-0.05289
0.86275	0.15117
0.02119	-0.12942
-0.66735	0.04914
0.88825	0.20219
0.25071	0.17668
-2.04444	0.73785
0.25071	-0.38449
1.14327	0.02363
1.19427	0.35523
0.27621	0.27871
0.40372	-0.23145
0.48022	0.02363
-0.53984	-0.41000
-0.10631	0.91640
0.35272	0.35523
-0.10631	0.17668
0.02119	0.15117
-0.08081	0.17668
-0.00431	0.32972
0.14870	0.07465
0.17421	0.20219
0.78624	0.02363
0.32721	-0.25695
-1.27939	0.30422
0.30171	-0.00188
0.63323	0.38074
0.55673	-0.07840
0.37822	0.17668
0.48022	0.27871
0.25071	0.35523
-0.08081	0.25320
0.81175	0.32972
0.09770	0.15117
-1.48340	0.04914
0.04670	0.17668
0.19971	-0.10391
0.42922	0.07465
0.73524	0.04914
0.42922	-0.07840
0.65874	0.20219
