0.07220	0.20219
0.27621	0.10015
-0.02981	0.15117
0.04670	0.22769
0.09770	0.17668
0.14870	0.07465
0.48022	0.22769
0.25071	0.15117
0.04670	0.12566
0.17421	0.04914
0.12320	0.15117
-0.02981	0.15117
0.22521	0.15117
0.09770	0.25320
0.32721	0.07465
-0.05531	0.15117
0.09770	0.17668
0.27621	0.15117
-0.02981	0.07465
0.04670	0.17668
0.27621	0.07465
0.14870	0.02363
0.17421	0.27871
0.17421	0.25320
0.04670	0.15117
0.25071	0.17668
0.27621	0.15117
0.09770	0.10015
0.19971	0.15117
0.22521	0.22769
0.09770	0.07465
0.12320	0.17668
0.19971	0.12566
0.02119	0.12566
0.09770	0.25320
0.14870	0.04914
0.02119	0.15117
0.22521	0.22769
0.14870	0.10015
0.32721	0.10015
-0.13181	0.20219
0.22521	0.10015
0.12320	0.10015
0.37822	0.12566
0.12320	0.25320
0.07220	0.20219
0.12320	0.10015
0.30171	0.17668
0.12320	0.15117
0.07220	0.20219
0.14870	0.02363
0.19971	0.12566
0.12320	0.15117
0.04670	0.12566
0.14870	0.12566
0.22521	0.15117
0.14870	0.17668
0.19971	0.07465
0.09770	0.15117
0.09770	0.17668
0.09770	0.07465
0.17421	0.17668
0.09770	0.12566
0.04670	0.07465
0.32721	0.20219
0.09770	0.15117
-0.00431	0.04914
0.19971	0.17668
0.19971	0.17668
0.07220	0.15117
0.25071	0.20219
0.12320	0.12566
0.07220	0.17668
0.17421	0.15117
0.17421	0.22769
0.19971	0.20219
0.17421	-0.05289
0.17421	0.20219
0.22521	0.12566
0.12320	0.22769
0.19971	-0.00188
0.17421	0.22769
0.02119	0.12566
-0.08081	0.22769
0.12320	0.12566
0.25071	0.10015
0.19971	0.07465
0.19971	0.04914
0.12320	0.10015
0.09770	0.04914
0.25071	0.17668
0.09770	0.38074
0.07220	0.43176
0.17421	0.12566
0.12320	0.22769
0.14870	-0.05289
0.09770	0.02363
0.25071	-0.07840
0.12320	0.20219
0.09770	0.10015
0.25071	0.04914
-0.00431	-0.02739
0.14870	0.40625
0.09770	0.35523
0.22521	0.53379
0.14870	0.04914
0.14870	0.04914
0.22521	0.27871
0.14870	0.15117
0.22521	0.07465
0.25071	-0.15492
0.17421	0.12566
-0.05531	0.10015
0.02119	0.10015
0.17421	0.15117
0.14870	0.22769
0.17421	0.20219
0.07220	0.20219
0.32721	0.07465
0.14870	0.25320
0.17421	0.17668
0.09770	0.22769
0.17421	-0.00188
0.14870	0.25320
-0.15732	0.12566
0.27621	0.22769
0.30171	0.04914
0.17421	0.27871
-0.02981	-0.02739
0.09770	0.20219
0.30171	0.17668
0.09770	0.15117
0.19971	0.20219
0.12320	0.15117
0.12320	0.15117
-0.18282	0.22769
0.02119	0.07465
0.19971	0.22769
0.30171	-0.02739
0.22521	0.20219
0.17421	0.04914
0.12320	0.22769
0.22521	0.15117
0.12320	0.30422
0.09770	0.35523
0.12320	0.02363
0.09770	0.12566
0.30171	0.20219
0.09770	0.15117
0.37822	0.04914
0.12320	-0.02739
0.12320	-0.05289
-0.48884	-0.25695
-0.53984	0.04914
0.19971	0.25320
0.55673	0.48277
0.78624	0.55929
0.58223	0.15117
-0.00431	0.45726
-0.41233	0.32972
-0.28482	0.10015
0.42922	0.15117
0.78624	0.35523
0.14870	0.17668
0.02119	-0.25695
0.22521	0.25320
0.09770	-0.10391
0.07220	0.07465
0.32721	0.10015
-0.18282	-0.28246
0.19971	-0.46102
0.42922	-0.10391
-0.02981	0.71234
0.12320	1.12046
0.17421	0.63582
0.09770	0.04914
-0.00431	0.40625
0.14870	-0.43551
0.04670	-0.20594
-0.28482	0.27871
0.22521	0.25320
0.32721	0.22769
0.30171	-0.25695
-0.18282	0.35523
-0.00431	0.45726
-0.28482	-0.00188
0.81175	0.17668
-0.79486	-0.10391
0.65874	0.25320
1.11776	0.07465
0.73524	0.43176
0.48022	0.78886
0.19971	-0.23145
-0.08081	-0.43551
0.07220	-1.07320
-0.38683	-0.23145
-0.51434	0.50828
-0.33583	0.53379
0.19971	1.01843
0.58223	0.89089
-0.25932	-0.12942
0.14870	0.55929
-0.00431	0.15117
-0.69285	-0.05289
-0.99887	-0.05289
1.14327	-0.00188
0.78624	-0.41000
0.30171	0.35523
0.68424	-0.02739
0.63323	-0.02739
1.04126	0.53379
0.30171	0.45726
0.07220	0.12566
1.04126	0.12566
0.07220	0.20219
-2.52897	-0.53754
-0.84586	0.58480
-1.17738	0.07465
-0.46334	0.17668
1.75531	0.27871
1.32178	-0.12942
1.04126	0.15117
0.58223	0.02363
0.25071	-0.00188
-0.05531	0.43176
-0.05531	0.25320
-0.02981	0.07465
0.25071	0.25320
-0.08081	-0.00188
-0.18282	0.32972
0.12320	-0.23145
0.19971	0.43176
0.07220	0.10015
-0.05531	0.27871
0.25071	0.27871
0.02119	-0.46102
0.32721	-0.99668
0.27621	-0.00188
0.32721	-0.00188
0.02119	0.99292
0.14870	0.32972
0.37822	1.47757
0.22521	0.86539
0.02119	0.32972
0.50573	-0.12942
0.09770	-0.15492
0.91375	-0.28246
-0.38683	-0.35899
-1.81492	0.12566
-0.02981	-0.10391
0.73524	-0.15492
0.93925	0.38074
0.35272	0.45726
0.35272	0.40625
0.27621	-0.10391
0.17421	0.12566
0.07220	0.22769
0.14870	-0.05289
0.32721	0.15117
-0.18282	0.02363
0.12320	0.50828
0.40372	-0.18043
0.12320	0.12566
-0.38683	0.32972
-0.69285	0.38074
0.30171	0.02363
0.70974	0.35523
0.35272	-0.10391
1.14327	0.02363
1.06676	-0.23145
-0.99887	0.22769
-1.17738	0.32972
0.30171	-0.02739
0.12320	1.06945
0.19971	-0.02739
0.55673	-0.02739
0.63323	-0.10391
0.40372	-0.12942
0.40372	0.45726
0.19971	0.45726
-0.15732	0.63582
0.14870	0.40625
0.02119	0.30422
0.42922	0.15117
-0.15732	-0.58856
-0.53984	-0.92016
0.40372	-0.61406
0.48022	-0.07840
-0.74385	0.04914
-0.08081	0.22769
0.76074	0.45726
0.63323	0.76336
-0.53984	0.76336
0.02119	0.91640
0.40372	0.71234
-0.13181	-0.02739
0.55673	-1.20074
1.21977	-0.18043
0.22521	0.25320
-0.20832	0.38074
-0.74385	0.20219
-0.97337	-0.35899
0.40372	0.40625
1.27078	0.53379
0.32721	0.17668
0.30171	-0.18043
0.81175	-0.07840
-0.31033	0.25320
0.78624	0.76336
-0.51434	0.83988
-0.71835	1.37554
-0.43783	-0.92016
0.07220	0.07465
1.44929	-2.11902
0.12320	-0.46102
-1.20288	-0.61406
-0.08081	-1.27726
0.78624	0.10015
0.32721	1.93671
0.37822	2.08976
0.30171	1.88570
0.30171	1.68163
0.42922	0.55929
1.70430	-1.50683
2.34184	-1.68539
-3.37052	0.07465
-4.00806	-0.66508
0.68424	0.38074
0.81175	0.89089
1.04126	0.48277
1.57679	-0.56305
0.93925	-0.41000
0.37822	0.91640
0.37822	-0.15492
0.45472	0.04914
-0.15732	0.89089
-1.58541	1.37554
0.50573	-0.28246
-0.02981	-0.38449
-0.20832	-0.76711
1.14327	-0.43551
0.07220	0.38074
0.63323	-0.33348
0.73524	0.45726
-2.55447	0.45726
-0.13181	0.17668
1.32178	0.55929
0.14870	0.45726
0.76074	0.35523
0.48022	0.76336
1.04126	0.53379
0.02119	0.15117
1.04126	0.35523
0.99026	0.45726
-1.10088	-0.41000
-2.42696	-0.69059
-0.94787	-1.37929
2.13783	-2.39961
-2.55447	-0.43551
-0.15732	0.55929
1.19427	1.98773
2.34184	2.52339
1.32178	1.32453
1.04126	0.68683
-0.51434	0.27871
-1.35589	-1.55785
0.25071	-0.15492
1.16877	-2.90976
-0.36133	1.40105
0.86275	0.15117
2.97938	1.75816
-4.87512	-1.37929
-2.42696	1.32453
-0.76936	1.65613
1.04126	-0.38449
2.39285	0.02363
0.25071	-1.09871
0.30171	-0.05289
1.70430	2.03874
-0.99887	-0.51203
0.14870	0.02363
0.42922	-4.61878
0.25071	-1.20074
0.60773	1.98773
1.72980	2.37034
1.85731	1.68163
-3.44703	1.09496
-5.18114	0.17668
0.63323	2.31933
-0.18282	-0.30797
2.34184	-2.11902
2.34184	-4.38921
-0.43783	0.96742
-0.46334	1.52859
0.88825	0.94191
1.70430	0.76336
0.40372	0.04914
0.19971	1.86019
-0.15732	-0.15492
1.78081	0.66132
-0.89686	-1.27726
-1.22839	0.04914
-1.04987	-2.24656
-1.33039	0.25320
0.53123	0.94191
2.06133	1.57960
1.90832	1.32453
-5.48716	-0.46102
0.60773	0.94191
-0.28482	-0.12942
0.60773	0.04914
1.98482	-0.63957
1.52579	-1.20074
0.86275	-0.63957
1.98482	1.29902
-2.17195	0.04914
0.70974	1.68163
2.16333	-1.27726
-1.43240	-0.51203
-0.56534	0.12566
0.50573	1.04394
-1.84042	1.35003
0.50573	0.27871
-1.68742	0.45726
-1.17738	-0.20594
2.67337	-0.05289
2.06133	1.45206
-2.22295	-0.92016
3.41291	-0.10391
-0.69285	-0.66508
-3.80405	-0.89465
1.93382	0.78886
-0.66735	-0.74160
-0.94787	1.12046
1.62780	0.81437
2.34184	-0.05289
1.62780	1.63062
-0.48884	-0.46102
0.19971	0.55929
0.76074	-1.40480
-1.22839	1.24800
-0.38683	-0.30797
-1.40690	0.27871
-0.13181	0.78886
-0.89686	0.43176
-0.51434	-0.00188
1.24527	0.48277
0.02119	-0.99668
0.73524	0.48277
3.15790	-2.14453
2.11233	0.17668
-7.29777	-1.94047
1.01576	1.19699
0.70974	1.47757
0.93925	1.32453
2.21434	1.04394
-1.38139	1.78367
0.88825	0.32972
0.30171	1.35003
1.44929	-2.83324
-0.53984	-2.29757
-0.18282	-0.23145
-0.82036	0.61031
-3.31952	1.27351
-0.31033	1.14597
1.24527	1.27351
1.06676	-0.92016
1.29628	-1.35379
1.62780	0.61031
-0.15732	-0.33348
1.04126	1.17148
-0.36133	0.78886
-2.24845	0.30422
-0.79486	0.27871
2.23984	0.32972
0.68424	-0.86914
-3.09000	0.07465
1.34728	0.53379
0.50573	1.22250
0.83725	-1.04770
0.02119	-0.58856
0.12320	-1.63437
0.93925	0.20219
0.19971	1.14597
-0.18282	1.01843
-1.58541	1.27351
-0.28482	0.96742
-0.23382	0.43176
0.12320	0.66132
-0.48884	0.99292
2.36734	-1.91496
2.82638	-2.37410
-2.32496	-1.17523
-2.68198	0.50828
1.34728	1.70714
0.73524	1.63062
1.55129	1.12046
0.58223	0.00000
1.06676	0.00000
-1.12638	0.00000
-0.92237	0.02363
-1.02437	0.91640
-3.29402	0.66132
2.44385	0.55929
1.65330	-1.17523
1.04126	-1.88945
0.40372	-0.07840
-0.05531	1.96222
0.88825	0.89089
-0.41233	0.76336
0.83725	-2.75671
-0.66735	-2.98628
-0.87136	0.50828
-1.40690	2.44687
0.83725	2.14077
1.16877	0.94191
-0.38683	0.04914
1.65330	0.17668
1.65330	0.22769
-6.27771	-0.58856
-2.14644	-0.48652
3.28540	-0.28246
2.29084	-0.05289
1.57679	0.45726
1.37278	0.27871
0.83725	1.01843
0.19971	0.45726
0.04670	-0.18043
0.02119	-2.75671
0.27621	-0.97117
-1.50890	1.80917
-1.10088	1.27351
-0.10631	0.81437
-0.10631	1.32453
0.09770	1.42656
0.22521	0.83988
0.63323	-1.25176
0.78624	-0.81812
-0.74385	-1.25176
1.98482	0.43176
1.29628	0.10015
-1.63641	-0.30797
-0.02981	-0.51203
-0.84586	0.63582
3.23440	2.85499
1.01576	1.01843
-2.80949	0.68683
-1.07538	-3.62398
1.09226	-0.38449
1.85731	0.66132
0.40372	1.57960
1.50029	0.96742
0.45472	0.20219
0.58223	-0.30797
2.44385	0.48277
-0.92237	0.91640
-5.15564	-0.79262
-0.00431	-2.90976
0.99026	-1.58336
1.09226	0.07465
0.55673	1.96222
1.09226	1.50308
0.93925	1.50308
-1.45790	0.86539
-2.78398	0.73785
1.37278	-1.40480
2.54586	-1.17523
-0.87136	0.48277
-0.87136	0.43176
0.96476	0.25320
0.81175	0.22769
0.32721	0.04914
0.45472	0.32972
0.53123	0.02363
0.55673	0.58480
-0.64185	-0.12942
1.62780	-0.02739
-0.43783	-0.33348
-0.13181	-1.17523
-5.38515	0.55929
0.14870	-0.76711
2.26534	0.96742
1.19427	1.55410
1.09226	1.52859
1.09226	0.32972
0.42922	0.32972
1.83181	-0.30797
-0.23382	-0.71609
-1.53441	-0.61406
2.44385	0.25320
-0.23382	1.32453
-6.30321	-0.74160
-2.01894	-1.22625
2.31634	-0.41000
2.08683	0.10015
2.11233	0.83988
0.99026	2.01323
0.45472	0.40625
0.02119	0.22769
-0.53984	-0.05289
0.88825	-0.02739
-0.56534	-0.61406
-0.28482	0.86539
-0.15732	0.17668
-1.02437	0.15117
0.27621	1.45206
1.98482	0.43176
-0.92237	-0.92016
-1.50890	-1.12422
1.39828	-2.57816
0.76074	0.76336
0.04670	1.24800
0.17421	1.12046
0.58223	1.27351
-0.15732	1.29902
1.93382	0.20219
-0.38683	0.43176
-1.25389	-2.27207
2.06133	-0.61406
-1.02437	-0.33348
-0.61635	0.66132
0.19971	0.71234
0.55673	1.80917
0.32721	-0.02739
0.88825	-0.53754
-0.08081	-0.61406
-0.69285	-0.71609
1.04126	0.61031
0.76074	0.91640
-0.59084	0.55929
1.14327	0.32972
-0.92237	0.02363
-1.30489	0.48277
1.90832	-0.23145
0.02119	-0.18043
-1.07538	-1.76191
1.75531	-0.30797
-1.91693	0.63582
0.70974	1.14597
1.27078	1.17148
0.35272	0.04914
0.22521	0.40625
0.78624	0.38074
0.30171	0.27871
-0.59084	0.32972
0.60773	-0.76711
0.96476	-0.66508
-1.30489	0.07465
-0.84586	0.35523
0.19971	1.37554
0.25071	0.20219
-0.20832	-0.46102
-1.78942	-0.43551
0.99026	-0.07840
1.06676	0.43176
0.73524	-0.69059
0.40372	0.43176
-0.20832	1.09496
0.27621	0.63582
0.70974	0.73785
2.87738	0.81437
-3.19201	1.04394
-3.90606	-1.12422
0.76074	0.66132
0.68424	-2.78222
2.16333	-1.07320
1.04126	0.45726
0.55673	1.35003
-0.46334	0.68683
0.60773	0.61031
1.42379	0.50828
-2.01894	0.43176
-1.45790	0.17668
2.97938	1.37554
-1.17738	-0.00188
-1.78942	-1.09871
-0.18282	-2.75671
1.24527	-0.33348
1.01576	0.94191
0.83725	1.27351
0.40372	1.24800
0.53123	0.55929
0.86275	0.91640
-1.12638	-0.41000
-1.81492	-0.51203
0.63323	-0.46102
0.78624	0.48277
0.60773	0.22769
1.14327	1.55410
-0.48884	-0.28246
-0.53984	-0.56305
0.58223	-1.07320
1.83181	-0.12942
0.12320	1.27351
-2.52897	0.50828
-0.43783	-0.38449
0.55673	-0.71609
1.24527	0.91640
1.37278	2.03874
0.04670	0.53379
-1.84042	-0.20594
0.42922	-0.05289
0.30171	-0.25695
0.25071	-1.07320
0.09770	-1.45582
0.37822	0.43176
-0.08081	0.83988
0.48022	0.53379
0.88825	0.50828
-0.02981	1.06945
-0.79486	-0.18043
0.81175	-0.81812
-0.20832	-0.53754
-0.84586	0.55929
1.11776	1.17148
-0.18282	0.61031
0.22521	0.50828
0.53123	0.22769
-0.15732	-0.07840
-0.08081	0.07465
-0.46334	-1.09871
0.93925	-0.92016
0.99026	-0.43551
-0.00431	0.38074
-1.10088	1.14597
0.96476	0.63582
0.86275	0.94191
0.58223	0.48277
0.40372	1.06945
-3.14101	-0.99668
0.73524	-1.14973
1.60230	-0.38449
0.53123	0.30422
-0.43783	0.38074
0.12320	0.04914
-0.05531	0.76336
-0.10631	1.01843
0.37822	0.32972
0.32721	-0.46102
0.17421	-1.07320
0.30171	-0.07840
-0.02981	0.04914
-0.48884	0.73785
0.14870	0.55929
1.29628	0.78886
-0.89686	0.02363
-2.52897	0.22769
0.73524	0.91640
3.08139	1.22250
1.19427	-1.88945
-4.18658	-1.81293
0.42922	-1.58336
1.42379	1.68163
0.22521	1.96222
-0.02981	0.66132
0.32721	0.63582
0.65874	0.25320
0.58223	-0.18043
0.32721	-0.05289
-0.05531	0.63582
0.17421	0.10015
-0.53984	-0.35899
1.01576	-1.37929
1.65330	-0.41000
0.83725	-0.48652
-2.98800	0.43176
-3.75305	0.50828
1.34728	1.06945
0.91375	0.91640
-0.87136	1.01843
0.86275	0.43176
1.21977	0.20219
0.63323	-1.07320
1.52579	-0.43551
1.19427	0.35523
-0.43783	0.55929
-0.13181	0.53379
0.09770	0.07465
-0.10631	0.17668
0.07220	0.25320
0.68424	0.30422
-0.36133	0.27871
-1.55991	-0.61406
-0.43783	-0.56305
0.22521	-0.07840
0.76074	0.61031
0.91375	0.76336
1.06676	0.45726
0.53123	0.30422
-0.36133	0.10015
0.55673	0.27871
0.76074	0.66132
1.57679	0.04914
-2.98800	-0.12942
-0.28482	-0.69059
-0.00431	0.61031
-0.15732	-0.12942
0.45472	0.48277
1.29628	0.02363
1.16877	0.07465
-1.04987	-0.81812
-0.74385	1.19699
0.68424	0.86539
1.01576	-0.05289
0.60773	0.35523
-2.50347	-0.05289
-0.36133	-0.18043
0.68424	0.22769
0.76074	0.71234
1.06676	-0.05289
0.12320	0.35523
0.96476	-0.71609
-0.66735	-0.35899
0.14870	0.27871
0.19971	-0.02739
-1.84042	0.38074
0.14870	1.14597
0.02119	1.17148
0.68424	0.40625
0.70974	-0.51203
0.09770	-0.00188
-0.36133	-0.38449
-0.79486	-0.66508
0.32721	0.25320
0.60773	-0.43551
0.22521	1.17148
0.32721	0.38074
0.17421	0.83988
0.19971	-0.28246
0.22521	-0.18043
0.19971	-0.02739
-0.15732	-0.30797
0.14870	0.20219
0.07220	0.68683
0.48022	0.30422
-1.15188	-0.07840
0.09770	0.76336
0.70974	0.07465
-0.05531	0.78886
0.35272	-0.20594
0.55673	-1.25176
0.42922	0.66132
-0.69285	1.04394
-1.40690	-0.23145
0.83725	-1.09871
0.78624	-0.43551
1.50029	0.61031
-0.15732	0.99292
-0.43783	0.50828
0.91375	0.50828
0.48022	-0.10391
0.04670	-0.00188
0.12320	-0.12942
-0.00431	0.27871
-0.15732	0.35523
0.25071	0.20219
-0.20832	-0.15492
0.86275	0.20219
0.45472	0.12566
-1.58541	0.02363
-1.53441	0.15117
0.63323	-0.76711
0.78624	0.35523
0.70974	0.50828
0.99026	0.55929
0.78624	0.61031
0.22521	0.12566
0.32721	0.04914
0.30171	0.07465
-0.13181	-0.00188
-0.20832	0.17668
0.68424	-0.02739
-1.15188	-0.00188
-0.08081	-0.84363
0.04670	1.04394
0.40372	-0.43551
0.25071	0.32972
1.98482	0.55929
-0.71835	0.71234
-0.64185	-0.10391
-0.13181	0.45726
-0.71835	-0.48652
4.10146	0.04914
-0.23382	-0.23145
-2.50347	0.35523
0.27621	0.25320
0.96476	-0.28246
0.09770	0.45726
0.81175	0.76336
0.81175	0.50828
0.58223	0.22769
-0.15732	-0.07840
-0.69285	-0.56305
-0.61635	0.10015
0.70974	0.12566
0.07220	-0.38449
-1.33039	0.53379
-0.02981	0.02363
1.34728	0.27871
0.27621	0.63582
0.68424	0.86539
0.17421	-0.18043
-0.08081	0.27871
0.78624	-1.27726
-0.94787	-0.66508
0.35272	0.40625
0.22521	1.14597
0.35272	0.68683
0.22521	0.45726
-0.51434	0.20219
0.19971	0.12566
0.09770	0.12566
0.12320	-0.05289
0.22521	0.40625
0.42922	-0.69059
0.42922	0.71234
-0.43783	-1.32828
-0.10631	0.25320
0.40372	0.30422
0.12320	0.53379
0.93925	0.32972
-0.31033	0.38074
-1.22839	0.96742
0.42922	0.07465
1.11776	0.50828
0.07220	-0.05289
0.63323	-0.63957
-0.82036	-0.53754
-0.23382	0.50828
0.96476	0.55929
0.14870	-0.02739
0.02119	-0.25695
0.65874	0.32972
0.48022	0.55929
-1.91693	0.07465
0.04670	0.02363
1.62780	-0.10391
-0.05531	0.71234
-0.31033	0.38074
0.88825	-0.10391
0.55673	-0.07840
0.14870	-0.07840
-0.08081	0.53379
0.73524	0.61031
0.17421	0.17668
0.27621	-0.48652
-0.87136	-1.02219
-0.71835	0.40625
0.32721	0.94191
0.73524	0.58480
0.12320	-0.00188
0.35272	-0.00188
-0.18282	0.91640
-0.20832	0.40625
0.81175	-0.43551
0.22521	-0.30797
-0.56534	-0.18043
0.83725	-0.07840
1.75531	-0.20594
-1.10088	0.53379
0.07220	0.45726
-0.33583	0.07465
-1.63641	0.40625
0.88825	-1.14973
0.96476	0.35523
1.01576	1.09496
0.50573	0.58480
0.58223	0.32972
0.27621	0.10015
-0.38683	-0.38449
0.12320	-0.07840
-0.38683	-0.20594
-0.61635	0.43176
-0.13181	0.17668
0.25071	0.40625
0.70974	0.20219
0.02119	-1.09871
-0.05531	0.35523
0.65874	0.38074
-0.94787	1.57960
-0.10631	-0.25695
-0.38683	-0.66508
0.32721	0.10015
1.32178	0.76336
1.44929	0.50828
0.12320	-0.28246
-0.84586	-0.38449
0.40372	0.71234
0.60773	-0.05289
1.75531	0.35523
-0.69285	0.30422
-0.82036	0.43176
-0.10631	-0.30797
-1.63641	-0.66508
0.22521	-0.20594
0.45472	-0.25695
1.27078	0.68683
0.88825	0.83988
-0.71835	1.04394
0.73524	0.43176
-0.28482	0.76336
0.30171	-0.63957
0.19971	-0.18043
0.45472	-0.56305
0.37822	0.43176
0.14870	0.30422
0.12320	0.35523
-0.00431	0.15117
-0.05531	-0.05289
0.32721	0.32972
0.91375	0.12566
-0.76936	-0.07840
-0.92237	-0.28246
-0.02981	-0.63957
0.63323	-0.18043
0.81175	0.61031
0.14870	1.17148
0.04670	1.17148
0.17421	0.25320
0.37822	-0.10391
1.11776	-0.25695
0.22521	-0.28246
-1.38139	0.25320
-0.00431	0.40625
0.35272	0.20219
1.04126	-0.25695
-1.02437	-0.51203
0.45472	-1.04770
0.14870	0.10015
0.22521	1.14597
-0.53984	0.61031
0.65874	1.22250
0.58223	-0.25695
0.40372	-0.07840
0.27621	0.45726
0.04670	0.22769
0.53123	-0.05289
1.11776	0.38074
-1.71292	0.07465
-2.14644	-0.25695
1.34728	-0.38449
0.86275	-0.76711
0.96476	0.78886
-0.28482	0.07465
-0.59084	0.45726
0.55673	0.30422
0.70974	0.27871
0.07220	0.22769
0.42922	0.40625
0.27621	-0.33348
-0.10631	-0.07840
0.27621	-0.28246
-0.10631	0.27871
0.04670	0.61031
-0.10631	0.25320
0.17421	0.10015
0.63323	-0.30797
0.53123	0.27871
-0.71835	0.35523
0.60773	0.04914
-1.61091	0.43176
0.27621	-0.00188
0.70974	0.15117
0.60773	0.30422
1.65330	0.12566
0.35272	-0.12942
-2.06994	0.10015
0.48022	0.12566
0.40372	-0.15492
1.27078	0.25320
0.50573	0.58480
-0.89686	0.10015
0.55673	0.17668
-0.43783	0.25320
-1.20288	0.32972
0.32721	0.38074
1.04126	-0.35899
0.63323	-0.20594
-0.10631	-0.15492
0.42922	0.04914
0.63323	0.94191
0.32721	0.53379
-1.38139	-0.10391
0.02119	0.10015
0.88825	0.45726
-0.25932	-0.12942
-0.59084	-0.12942
0.60773	-0.25695
0.88825	0.50828
-0.48884	-0.43551
0.50573	0.32972
-0.13181	0.25320
0.73524	0.20219
0.32721	1.04394
-0.99887	0.83988
0.02119	-0.41000
0.60773	-0.38449
0.48022	-1.63437
0.19971	0.15117
0.04670	1.22250
0.42922	1.06945
0.60773	0.53379
-0.08081	0.15117
0.12320	0.12566
-1.43240	0.10015
0.09770	-0.10391
0.32721	-0.20594
0.70974	0.04914
0.14870	-0.02739
-1.30489	-0.33348
0.65874	0.30422
0.76074	-0.84363
0.50573	0.27871
0.25071	0.45726
1.70430	0.76336
-0.69285	0.71234
-0.05531	0.61031
0.14870	0.04914
-1.66191	-0.23145
1.19427	-0.12942
0.40372	-0.10391
0.37822	0.38074
-0.28482	0.20219
0.19971	0.15117
0.53123	-0.23145
0.81175	0.68683
0.19971	0.68683
-1.10088	0.20219
-1.63641	-0.69059
0.25071	-0.48652
0.78624	0.40625
1.39828	0.32972
0.78624	0.45726
-0.38683	0.48277
-0.18282	0.30422
0.53123	0.15117
0.63323	-0.51203
-0.05531	-0.66508
-0.53984	0.68683
-0.31033	-0.12942
0.17421	0.10015
0.70974	0.55929
0.45472	0.63582
0.17421	0.55929
0.25071	0.07465
-0.33583	0.25320
0.27621	0.17668
0.81175	-0.15492
-0.25932	-0.07840
-1.89143	-1.40480
-0.71835	-0.12942
1.06676	0.91640
1.06676	0.83988
0.86275	0.53379
0.25071	0.50828
0.22521	0.73785
0.35272	-0.02739
1.04126	-0.41000
-0.48884	-0.10391
-0.97337	-0.15492
0.48022	0.35523
0.25071	0.32972
-0.46334	-0.41000
0.32721	0.25320
-0.31033	0.32972
0.45472	0.30422
0.65874	0.15117
0.32721	0.17668
0.14870	0.22769
0.32721	0.32972
-0.10631	0.07465
0.12320	-0.10391
0.27621	0.10015
-0.48884	-0.15492
-0.31033	0.61031
0.27621	0.22769
0.42922	0.12566
0.09770	-0.10391
-1.55991	0.27871
0.96476	0.63582
0.50573	-0.18043
0.78624	-0.35899
0.88825	-0.74160
0.14870	0.58480
0.04670	0.76336
0.04670	0.55929
0.27621	0.55929
-0.41233	-0.00188
-0.33583	0.35523
0.14870	-0.41000
0.12320	-0.02739
-0.13181	-0.05289
0.63323	0.12566
0.45472	0.32972
0.19971	0.55929
-0.28482	0.17668
0.45472	-0.41000
0.40372	-0.94566
-0.00431	0.45726
-1.02437	0.02363
0.37822	0.32972
0.58223	0.53379
0.78624	0.22769
-0.33583	0.48277
0.45472	0.48277
0.73524	-0.30797
0.55673	-0.15492
0.12320	-0.07840
-0.05531	0.43176
-0.13181	0.68683
0.17421	0.63582
-0.28482	0.15117
0.19971	0.20219
0.07220	0.15117
-0.89686	-0.05289
-0.15732	-0.33348
0.58223	-0.53754
-0.13181	-0.53754
0.53123	0.07465
0.45472	0.45726
1.14327	0.20219
0.53123	1.37554
-0.48884	-0.30797
-0.71835	0.25320
1.14327	-0.48652
0.53123	-0.20594
0.40372	0.76336
-0.82036	0.48277
0.02119	0.50828
0.02119	0.40625
0.22521	0.12566
0.14870	-0.07840
0.19971	0.17668
-0.25932	-0.18043
0.53123	0.45726
0.14870	0.43176
0.65874	0.40625
-0.05531	-0.66508
-1.96793	-1.35379
-0.08081	-0.15492
0.96476	0.55929
0.68424	0.86539
0.50573	0.53379
0.55673	-0.00188
0.04670	-0.58856
1.67880	0.30422
0.19971	1.88570
-0.99887	1.22250
-0.02981	0.15117
-1.61091	-1.17523
-0.43783	-1.32828
1.01576	0.43176
1.01576	0.63582
0.50573	0.30422
0.48022	0.25320
0.27621	0.43176
0.17421	0.12566
-0.76936	0.17668
-0.69285	-0.76711
0.65874	0.22769
0.30171	0.38074
-0.08081	0.04914
0.58223	0.35523
-1.22839	0.12566
-0.05531	0.25320
0.93925	0.45726
0.58223	0.02363
0.73524	-0.20594
0.45472	0.02363
0.70974	0.12566
-0.36133	0.55929
0.02119	0.27871
-0.28482	0.50828
-0.08081	-0.02739
0.02119	-0.12942
0.32721	0.12566
0.27621	0.25320
-0.36133	0.20219
-0.18282	0.55929
0.12320	-1.02219
0.37822	-0.66508
0.30171	0.40625
0.70974	1.78367
1.06676	0.50828
-0.33583	-0.63957
0.83725	0.10015
-1.48340	-0.35899
-0.94787	0.58480
-0.64185	-0.63957
1.75531	0.48277
1.09226	0.25320
-0.02981	-0.05289
0.73524	0.30422
1.19427	-0.07840
-0.28482	0.91640
-1.61091	0.55929
0.30171	-0.05289
-0.69285	-0.69059
-0.48884	0.15117
0.35272	0.15117
0.53123	0.04914
1.29628	0.10015
0.40372	0.22769
0.88825	0.61031
-1.10088	0.07465
-0.69285	-0.20594
0.63323	0.17668
0.53123	-0.20594
0.70974	0.07465
0.30171	0.04914
-0.23382	0.45726
0.25071	0.32972
0.02119	-0.05289
-0.18282	-0.15492
0.25071	0.04914
0.12320	0.40625
-0.71835	0.68683
0.70974	-0.05289
0.32721	0.12566
-1.22839	-0.00188
0.55673	0.55929
0.42922	0.17668
0.73524	-0.56305
0.17421	-0.25695
-0.28482	0.50828
0.99026	0.96742
-0.15732	0.73785
-0.31033	0.38074
0.53123	-0.00188
-0.20832	-0.53754
0.14870	-1.58336
0.30171	-0.66508
-0.28482	0.78886
-0.48884	0.96742
0.30171	0.68683
0.78624	0.30422
0.73524	0.32972
0.65874	0.15117
0.30171	0.45726
-0.41233	0.15117
0.35272	-0.63957
-0.02981	-0.63957
-0.28482	0.55929
0.22521	0.96742
-1.07538	-0.12942
0.32721	0.02363
0.17421	-0.28246
0.68424	0.04914
0.27621	0.30422
0.07220	0.45726
0.45472	0.15117
0.86275	0.35523
0.27621	0.25320
-0.02981	-0.07840
-0.28482	-0.05289
-0.48884	0.12566
-0.43783	0.45726
0.12320	0.22769
0.86275	-0.20594
0.86275	0.22769
0.70974	-0.00188
1.06676	0.07465
-1.71292	0.17668
-0.38683	0.15117
0.68424	-0.10391
-0.13181	0.35523
0.48022	0.20219
0.50573	-0.05289
0.22521	0.55929
-0.33583	-0.00188
-0.25932	0.48277
0.37822	0.25320
1.37278	-0.58856
-1.10088	-0.10391
-1.07538	0.20219
0.32721	0.63582
0.25071	0.50828
0.81175	0.45726
0.99026	-0.02739
-0.08081	-0.23145
-0.56534	-0.20594
0.40372	0.76336
0.50573	0.53379
0.68424	-0.02739
0.19971	-0.56305
0.45472	-0.53754
0.88825	0.63582
-0.76936	0.30422
-0.56534	0.10015
0.17421	0.30422
0.32721	0.04914
0.35272	0.22769
-0.36133	0.25320
-0.38683	0.40625
0.35272	0.12566
0.68424	0.02363
0.04670	0.20219
-0.10631	0.35523
0.73524	0.22769
0.55673	0.10015
-0.36133	0.30422
-0.61635	0.38074
-0.71835	-0.48652
1.04126	-0.02739
1.44929	-0.23145
-0.84586	0.48277
0.42922	0.22769
0.07220	-0.48652
0.09770	-0.20594
0.99026	0.78886
0.93925	1.04394
-1.17738	0.53379
-0.08081	0.22769
0.27621	-0.15492
-0.05531	-0.18043
0.12320	0.40625
0.22521	-0.07840
0.04670	0.02363
0.45472	0.22769
0.35272	0.35523
0.02119	-0.00188
0.81175	0.32972
-1.40690	-0.10391
-1.68742	0.04914
-0.71835	0.15117
1.16877	-0.23145
0.86275	-0.10391
0.25071	-0.56305
0.93925	0.86539
0.91375	0.53379
0.42922	0.48277
0.02119	0.15117
-0.02981	0.30422
-0.36133	0.17668
-0.15732	-0.20594
-0.28482	0.20219
0.53123	-0.00188
0.37822	0.30422
0.22521	0.12566
0.19971	0.02363
-1.38139	-0.28246
0.17421	0.35523
1.09226	0.63582
0.17421	0.58480
-0.33583	-0.20594
0.88825	-0.71609
0.02119	-0.69059
-0.48884	-0.46102
0.07220	0.76336
0.30171	0.91640
0.40372	0.91640
0.35272	0.35523
0.30171	0.30422
0.65874	0.02363
-0.18282	-0.05289
-0.79486	0.12566
-0.31033	-0.41000
0.32721	-0.12942
0.17421	0.58480
0.48022	0.53379
0.65874	0.02363
0.65874	-0.10391
0.09770	0.10015
-1.15188	-0.07840
0.14870	0.45726
0.93925	0.07465
0.63323	-0.12942
-0.05531	-0.48652
0.19971	0.02363
0.12320	0.30422
0.07220	1.09496
0.17421	0.58480
0.22521	0.48277
0.42922	-0.10391
-0.46334	0.04914
-0.64185	-0.00188
1.16877	0.02363
-0.08081	-0.02739
-1.35589	0.40625
0.76074	0.22769
0.25071	0.20219
-0.33583	-0.00188
1.50029	-0.10391
0.22521	-0.46102
-0.33583	0.04914
0.60773	0.32972
0.42922	0.17668
0.25071	0.53379
0.32721	0.22769
0.09770	0.15117
-0.66735	0.66132
-0.28482	0.25320
0.30171	-0.92016
-0.10631	0.12566
0.76074	0.38074
0.14870	0.43176
0.42922	0.20219
0.19971	-0.07840
0.04670	-0.18043
0.12320	0.83988
0.19971	0.27871
-0.18282	-0.10391
-0.41233	-0.46102
0.09770	-0.00188
0.42922	0.22769
1.09226	-0.23145
-0.61635	0.43176
-0.64185	0.66132
-0.10631	0.27871
0.37822	0.48277
0.88825	0.04914
0.83725	-0.43551
-0.46334	-0.12942
0.19971	-0.05289
0.22521	0.15117
0.40372	0.50828
0.32721	0.32972
-1.07538	0.07465
-0.71835	0.20219
0.50573	0.50828
0.70974	0.17668
0.81175	-0.10391
0.70974	-0.05289
0.19971	-0.05289
0.53123	0.35523
-0.25932	0.25320
-0.69285	-0.12942
0.42922	0.32972
0.27621	0.66132
0.81175	-0.63957
-1.50890	-0.81812
-0.76936	-0.30797
1.14327	0.48277
0.91375	1.32453
0.53123	1.12046
0.30171	0.27871
0.14870	-0.28246
0.30171	-0.18043
0.53123	-0.00188
-0.51434	0.45726
-1.48340	-0.07840
0.02119	-0.00188
0.63323	-0.15492
0.60773	-0.07840
-0.15732	0.07465
0.45472	1.06945
-0.05531	0.22769
0.30171	0.07465
0.19971	-0.25695
-0.20832	-0.20594
0.50573	-0.25695
0.25071	-0.15492
0.19971	0.53379
0.07220	0.73785
0.09770	0.68683
0.22521	0.02363
0.27621	0.15117
0.32721	0.10015
-0.46334	0.30422
-0.46334	-0.20594
0.53123	-0.05289
0.32721	-0.15492
0.42922	-0.05289
0.09770	-0.02739
0.65874	0.15117
0.53123	0.35523
-2.24845	0.35523
1.09226	0.07465
0.88825	0.76336
-0.66735	0.45726
0.30171	-0.23145
0.12320	-0.66508
0.65874	-0.69059
0.07220	0.45726
-0.38683	0.61031
0.25071	0.96742
0.17421	0.76336
0.14870	0.40625
0.37822	0.40625
0.19971	-0.07840
0.09770	0.50828
0.32721	-0.86914
0.12320	-0.63957
-0.51434	-0.05289
-0.05531	0.02363
-0.18282	0.27871
0.22521	-0.02739
0.73524	0.43176
0.99026	0.50828
-0.28482	0.12566
-0.82036	0.32972
0.27621	0.12566
0.78624	0.35523
0.09770	0.10015
0.02119	0.12566
0.30171	-0.20594
1.47479	0.25320
0.09770	0.02363
-1.63641	0.07465
-0.89686	-0.25695
-0.36133	0.30422
1.16877	0.58480
0.32721	-0.00188
0.30171	0.10015
0.22521	0.10015
0.68424	0.94191
0.22521	0.22769
0.76074	0.27871
0.32721	-0.28246
-0.18282	-0.10391
-0.02981	0.07465
-0.10631	0.17668
0.17421	0.04914
0.12320	-0.25695
-1.02437	-0.28246
0.14870	-0.41000
0.37822	0.50828
0.55673	0.55929
0.27621	0.76336
0.25071	0.66132
0.22521	-0.33348
0.37822	-0.41000
0.30171	-0.28246
-0.28482	0.35523
-0.15732	1.14597
1.72980	0.40625
-0.33583	-0.07840
-1.40690	-0.10391
0.19971	0.17668
0.55673	0.22769
0.55673	0.63582
0.42922	0.45726
0.93925	-0.23145
0.83725	-0.35899
-1.68742	0.32972
-0.31033	0.20219
0.65874	-0.33348
0.81175	-0.81812
0.58223	-0.51203
-1.61091	0.66132
0.30171	0.55929
0.42922	0.66132
0.83725	0.83988
0.60773	0.35523
0.19971	0.07465
0.02119	0.17668
-0.05531	-0.23145
-0.08081	-0.02739
0.30171	0.02363
0.22521	0.30422
-0.20832	0.50828
0.07220	-0.18043
1.83181	-0.25695
-0.05531	-0.18043
-2.14644	0.27871
-0.20832	0.48277
-1.17738	0.30422
-0.99887	0.07465
1.83181	0.12566
1.98482	0.25320
1.19427	0.02363
0.53123	0.20219
0.04670	-0.23145
-0.08081	-0.10391
0.22521	0.02363
0.35272	0.20219
-0.20832	1.14597
-0.87136	0.25320
-0.64185	0.27871
0.19971	0.04914
0.32721	0.27871
-0.33583	-0.12942
0.14870	-0.00188
0.14870	-0.43551
0.53123	0.22769
0.53123	0.27871
0.09770	-0.12942
0.30171	0.17668
0.30171	0.10015
0.48022	0.35523
-0.23382	-0.05289
-0.23382	0.17668
0.50573	0.04914
0.65874	0.50828
0.48022	0.12566
0.63323	0.27871
-0.89686	0.38074
-1.15188	0.22769
0.88825	-0.05289
1.19427	0.48277
0.27621	-0.25695
-0.79486	0.45726
0.91375	-0.25695
-0.31033	-0.15492
-0.31033	0.30422
0.55673	0.07465
0.53123	-0.15492
0.48022	-0.02739
0.17421	0.35523
0.04670	0.30422
0.22521	0.30422
0.19971	0.15117
-0.59084	0.25320
-0.10631	0.04914
-0.18282	0.04914
0.50573	-0.02739
0.88825	0.35523
0.55673	0.20219
-0.82036	0.02363
-1.04987	-0.41000
0.60773	0.48277
-0.18282	0.20219
-0.10631	0.35523
1.04126	0.02363
0.76074	0.30422
0.60773	0.12566
0.45472	0.58480
0.07220	0.15117
0.45472	0.17668
-0.43783	-0.05289
-1.55991	-0.69059
0.07220	0.15117
0.35272	1.12046
0.30171	0.25320
0.68424	-0.12942
-0.08081	-0.28246
-0.10631	-0.53754
0.48022	0.43176
0.35272	0.25320
0.04670	0.55929
0.22521	0.32972
0.07220	-0.28246
-0.10631	0.04914
0.42922	-0.35899
0.27621	0.61031
0.04670	0.63582
-0.08081	-0.51203
0.48022	0.30422
0.30171	0.63582
-1.30489	0.45726
0.48022	0.43176
-0.02981	0.25320
0.09770	-0.12942
0.25071	0.02363
0.58223	0.02363
0.45472	0.02363
1.37278	-0.07840
-0.38683	-0.23145
-0.13181	-0.18043
0.30171	0.22769
-1.73842	0.43176
0.70974	0.40625
0.93925	-0.20594
1.21977	0.25320
-0.92237	0.04914
-0.18282	0.55929
0.50573	0.96742
0.63323	-0.02739
0.45472	-0.66508
1.11776	-0.43551
-0.38683	0.04914
-0.82036	0.43176
-0.00431	0.68683
0.25071	0.50828
0.32721	0.38074
0.40372	-0.02739
0.22521	0.20219
0.07220	0.17668
0.12320	0.22769
0.07220	0.15117
0.17421	-0.05289
0.12320	-0.20594
0.14870	-0.05289
0.27621	0.20219
0.07220	0.66132
0.27621	1.09496
-0.15732	-0.15492
-0.18282	-0.97117
0.68424	-0.41000
0.63323	0.07465
-0.69285	0.25320
0.40372	0.40625
0.55673	0.76336
0.45472	0.81437
-0.99887	0.86539
-0.23382	0.07465
0.58223	-0.33348
1.16877	-0.41000
-0.76936	0.25320
0.42922	0.02363
0.12320	0.30422
-0.84586	0.17668
0.88825	0.04914
0.25071	-0.10391
0.50573	-0.81812
0.81175	0.10015
0.65874	0.71234
0.27621	0.53379
-1.43240	0.32972
-0.38683	0.30422
0.32721	0.55929
0.12320	0.38074
1.52579	-0.12942
0.07220	-0.38449
-1.22839	-0.35899
-0.53984	0.02363
0.45472	0.32972
0.35272	0.04914
0.50573	0.30422
0.53123	0.22769
0.45472	0.45726
0.09770	-0.43551
0.27621	0.04914
-0.31033	0.48277
0.09770	0.17668
0.22521	0.58480
0.17421	-0.51203
-0.25932	-0.25695
0.50573	0.27871
0.48022	0.66132
-0.53984	0.63582
-0.31033	0.02363
0.63323	0.02363
0.42922	-0.20594
0.14870	0.27871
0.27621	0.40625
0.25071	0.32972
0.45472	0.07465
0.63323	-0.07840
-0.89686	0.02363
-0.74385	-0.20594
0.25071	0.25320
0.68424	-0.48652
-0.15732	-0.66508
-0.79486	0.78886
0.60773	0.99292
0.99026	0.81437
0.42922	0.40625
0.19971	-0.15492
0.12320	-0.02739
0.63323	0.07465
0.12320	0.12566
-1.17738	-0.23145
-0.02981	-0.23145
0.93925	-0.12942
0.07220	0.55929
-0.89686	0.30422
0.09770	0.27871
0.91375	0.12566
0.99026	0.30422
-0.53984	0.35523
0.76074	0.10015
-0.64185	-0.30797
-0.28482	0.15117
0.02119	0.12566
0.35272	0.15117
0.50573	-0.00188
0.37822	-0.15492
0.32721	0.27871
0.12320	0.30422
-0.02981	0.71234
-0.46334	0.10015
-0.00431	-0.25695
0.35272	0.04914
0.50573	0.45726
0.55673	0.32972
0.25071	-0.20594
-1.15188	-0.46102
-0.28482	0.30422
0.45472	1.22250
0.35272	0.38074
0.48022	0.40625
0.42922	-0.43551
0.55673	-0.28246
0.58223	0.15117
-0.61635	0.38074
-0.43783	-0.12942
-0.00431	0.45726
0.17421	-0.07840
-0.43783	0.58480
1.01576	0.53379
0.58223	-0.18043
0.04670	-0.28246
0.12320	-0.00188
0.35272	0.53379
0.35272	0.35523
0.19971	-0.25695
0.68424	-0.35899
-0.10631	0.25320
-0.71835	0.30422
0.22521	0.38074
0.48022	0.20219
-0.20832	0.38074
0.40372	0.17668
0.25071	-0.00188
-1.10088	-0.18043
0.55673	-0.56305
0.83725	0.40625
0.25071	0.35523
-0.51434	0.20219
0.73524	0.53379
0.86275	0.96742
0.50573	0.45726
0.14870	0.15117
-0.10631	-0.41000
0.02119	-0.76711
0.14870	-0.18043
0.14870	0.02363
-0.46334	0.40625
0.14870	0.76336
0.09770	-0.05289
0.17421	-0.33348
-0.56534	0.17668
0.42922	0.35523
0.63323	0.30422
1.50029	0.43176
-0.61635	0.50828
-0.99887	0.27871
0.14870	0.30422
0.50573	-0.63957
1.06676	-0.46102
-0.87136	-0.41000
0.22521	-0.18043
1.11776	0.78886
0.88825	0.91640
0.14870	0.50828
-0.31033	0.30422
1.14327	-0.02739
0.37822	0.20219
-1.43240	-0.10391
-0.28482	0.22769
0.60773	-0.05289
0.19971	-0.07840
-1.17738	0.27871
-0.38683	0.10015
0.12320	-0.00188
1.04126	-0.46102
0.88825	0.02363
0.48022	-0.10391
0.27621	0.76336
0.30171	0.68683
0.70974	-0.10391
-0.31033	0.02363
-1.25389	0.02363
0.19971	0.15117
0.22521	0.20219
-0.59084	0.30422
-0.38683	0.17668
0.99026	-0.00188
1.04126	-0.10391
0.30171	-0.05289
-0.41233	-0.05289
0.53123	0.66132
0.19971	0.45726
0.12320	0.30422
-0.02981	-0.25695
0.99026	-0.10391
-0.41233	0.15117
-0.82036	0.35523
0.68424	0.58480
0.63323	0.20219
0.09770	-0.18043
-0.74385	-0.51203
0.04670	-0.07840
0.63323	0.02363
0.58223	0.30422
-0.41233	0.76336
0.22521	0.27871
0.70974	0.43176
-0.18282	-0.10391
-0.53984	-0.46102
0.42922	0.40625
0.40372	0.76336
0.35272	0.25320
0.32721	0.12566
0.25071	0.02363
0.60773	0.10015
0.19971	0.20219
-0.36133	0.53379
-1.40690	-0.00188
0.93925	-0.02739
0.81175	-0.56305
-1.17738	-0.07840
0.32721	0.35523
-0.46334	0.32972
0.65874	0.40625
1.04126	0.27871
1.19427	0.35523
-0.18282	0.38074
-1.71292	0.40625
0.27621	0.22769
0.02119	-0.48652
0.02119	-0.63957
1.04126	0.10015
0.50573	0.66132
0.32721	0.12566
0.53123	0.22769
-0.38683	0.17668
-0.59084	-0.25695
0.12320	0.35523
0.42922	-0.00188
0.25071	0.25320
0.07220	0.22769
-0.08081	0.22769
0.25071	0.66132
0.91375	0.66132
-0.13181	-0.15492
-0.13181	-0.20594
0.73524	-0.43551
-1.66191	0.22769
-0.31033	0.30422
0.60773	0.15117
0.63323	0.30422
0.55673	0.17668
0.35272	0.02363
0.37822	-0.02739
0.37822	0.27871
0.25071	0.30422
0.02119	0.02363
0.09770	-0.38449
0.40372	0.68683
-0.28482	0.50828
-0.99887	-0.46102
0.48022	0.15117
-0.02981	-0.76711
0.27621	0.58480
0.02119	0.71234
0.17421	0.53379
0.55673	0.48277
0.25071	0.20219
0.14870	-0.07840
0.73524	0.10015
-0.97337	0.27871
1.16877	0.30422
0.12320	-0.51203
-0.56534	-0.05289
0.96476	0.12566
-0.41233	-0.05289
-0.28482	0.22769
0.91375	0.45726
0.45472	0.04914
-0.05531	-0.07840
0.37822	-0.00188
0.37822	0.27871
0.30171	0.43176
0.48022	0.35523
-0.13181	0.27871
-0.46334	0.17668
0.25071	-0.02739
0.45472	-0.07840
-0.28482	0.27871
-0.05531	0.76336
0.30171	-0.05289
0.17421	-0.02739
0.27621	0.25320
-0.10631	0.04914
-0.33583	0.10015
0.32721	0.27871
0.55673	0.02363
0.37822	0.12566
0.19971	0.12566
0.17421	0.25320
0.19971	0.10015
1.14327	0.20219
0.58223	-0.12942
-1.22839	0.20219
-1.40690	0.22769
-0.87136	0.40625
1.09226	0.38074
1.11776	-0.10391
0.60773	0.02363
0.73524	0.07465
0.76074	0.15117
0.45472	0.04914
-0.25932	-0.00188
-0.02981	0.35523
-0.28482	0.45726
0.30171	0.35523
-0.82036	0.30422
-1.12638	-0.30797
0.35272	-0.15492
0.02119	-0.18043
0.14870	0.15117
0.73524	0.38074
0.83725	0.66132
0.65874	0.61031
0.17421	0.12566
0.25071	0.81437
0.60773	-0.51203
-0.28482	-0.43551
-0.74385	0.15117
0.22521	-0.07840
-0.02981	-0.07840
0.93925	0.27871
-0.38683	0.40625
0.17421	0.15117
0.83725	0.15117
-0.41233	-0.20594
-0.56534	-0.38449
0.25071	-0.02739
0.37822	0.12566
0.45472	0.76336
0.42922	0.48277
0.35272	0.48277
0.30171	0.45726
0.19971	-0.41000
-0.28482	-0.07840
0.09770	0.30422
0.09770	0.53379
0.50573	0.02363
-0.71835	-0.00188
-0.76936	-0.48652
1.01576	-0.10391
0.35272	0.12566
1.04126	0.45726
-0.64185	0.63582
-0.56534	0.17668
0.35272	-0.20594
-0.28482	-0.18043
0.63323	-0.02739
0.83725	0.17668
0.32721	0.48277
0.68424	0.50828
-0.10631	0.40625
0.32721	0.25320
-0.05531	0.12566
-0.08081	0.04914
-0.00431	-0.33348
-0.53984	0.12566
-0.25932	0.07465
0.37822	0.10015
0.09770	0.17668
0.25071	0.04914
0.30171	-0.07840
0.96476	-0.28246
0.60773	0.27871
-1.15188	0.50828
-0.31033	0.15117
0.22521	0.40625
0.22521	0.38074
0.22521	0.17668
0.60773	0.50828
0.68424	0.15117
0.07220	-0.10391
0.22521	0.07465
0.25071	-0.38449
0.12320	-0.07840
0.22521	0.20219
-0.41233	0.27871
-0.13181	0.25320
-0.25932	-0.18043
-0.05531	-0.00188
0.42922	0.48277
0.53123	0.50828
0.17421	0.43176
-0.02981	0.25320
0.09770	0.22769
0.37822	-0.07840
0.22521	0.07465
1.52579	0.04914
0.37822	-0.12942
-0.53984	0.25320
-0.15732	0.10015
-0.51434	0.22769
-0.87136	-0.07840
0.48022	-0.25695
0.14870	0.63582
0.12320	-0.00188
0.76074	0.20219
0.83725	0.27871
0.37822	-0.00188
0.30171	0.32972
0.25071	0.22769
0.45472	0.45726
-0.25932	0.15117
-0.43783	-0.38449
0.25071	0.04914
0.40372	0.07465
-0.99887	0.45726
-0.33583	0.45726
0.76074	-0.10391
-0.20832	0.40625
0.58223	0.45726
0.48022	0.30422
0.50573	-0.63957
0.19971	-0.23145
0.09770	0.10015
-0.00431	-0.02739
0.19971	0.25320
0.17421	0.38074
-0.00431	0.22769
0.19971	0.27871
-0.00431	-0.02739
0.22521	0.25320
0.14870	0.04914
0.37822	0.53379
0.19971	0.12566
0.78624	0.25320
0.14870	0.10015
-0.51434	0.04914
-1.02437	0.35523
-0.13181	0.20219
-0.08081	-0.12942
1.06676	-0.10391
0.63323	-0.23145
-0.28482	0.02363
-0.15732	0.30422
0.88825	0.58480
0.99026	0.43176
0.12320	0.22769
-0.20832	0.25320
0.04670	0.04914
0.45472	0.20219
-0.02981	0.15117
0.14870	0.27871
-0.36133	0.15117
-0.61635	-0.35899
0.22521	-0.07840
0.32721	-0.15492
0.70974	-0.00188
0.63323	0.07465
0.09770	0.50828
-0.13181	0.76336
0.12320	0.17668
0.17421	0.30422
0.09770	-0.02739
0.30171	0.04914
0.04670	-0.15492
0.12320	-0.10391
0.22521	0.30422
0.14870	0.55929
1.39828	-0.30797
0.35272	-0.28246
-1.89143	0.07465
-0.28482	0.27871
1.16877	0.15117
-0.23382	0.48277
0.53123	0.50828
1.32178	0.22769
0.17421	0.32972
0.17421	0.04914
-0.00431	0.07465
0.19971	-0.15492
-1.33039	-0.25695
0.40372	0.17668
0.76074	0.22769
0.60773	0.22769
0.37822	0.27871
0.09770	0.15117
0.14870	0.12566
-0.31033	0.17668
-0.15732	0.32972
0.14870	0.17668
0.14870	-0.05289
0.17421	-0.15492
0.17421	0.22769
0.07220	0.35523
0.25071	0.15117
0.19971	-0.02739
0.50573	0.55929
0.19971	0.40625
-0.56534	0.22769
0.55673	-0.48652
0.19971	-0.10391
-0.08081	-0.23145
0.58223	0.71234
0.35272	0.89089
-0.10631	0.04914
-0.48884	-0.74160
0.25071	-0.38449
0.42922	0.38074
0.96476	0.66132
0.96476	0.45726
-0.71835	0.20219
-2.14644	0.04914
-1.48340	0.30422
1.14327	0.38074
1.29628	0.04914
1.32178	-0.25695
0.45472	-0.12942
0.42922	0.17668
-0.00431	-0.05289
-0.02981	-0.02739
0.12320	0.15117
0.58223	0.35523
-0.15732	0.48277
-2.70748	0.38074
0.42922	0.10015
0.17421	-0.28246
0.22521	-0.05289
1.01576	0.25320
0.68424	0.43176
1.88281	0.71234
-0.46334	0.25320
-2.14644	0.17668
-1.12638	-0.43551
1.19427	0.12566
1.39828	0.10015
0.81175	0.20219
0.65874	0.40625
0.35272	0.04914
0.09770	-0.00188
-0.08081	0.02363
-0.43783	-0.02739
-0.48884	-0.05289
-0.00431	0.25320
0.19971	0.45726
0.17421	0.25320
-0.38683	0.04914
0.50573	0.22769
0.32721	0.04914
-0.41233	0.22769
0.40372	0.22769
0.93925	0.02363
-0.00431	0.12566
-0.31033	0.07465
0.40372	-0.05289
0.53123	-0.41000
-0.18282	0.17668
0.35272	0.43176
0.07220	0.55929
-0.56534	0.15117
-0.23382	-0.38449
-0.08081	0.38074
0.48022	0.43176
1.06676	-0.00188
0.88825	0.76336
0.53123	0.15117
-0.13181	-0.18043
-0.00431	-1.02219
-0.20832	-0.12942
-0.08081	0.48277
0.14870	0.48277
-0.61635	0.50828
0.19971	0.45726
0.42922	0.07465
-0.94787	0.02363
-0.15732	-0.15492
0.81175	0.17668
0.22521	0.35523
0.30171	0.96742
0.78624	0.22769
-0.66735	-0.18043
0.48022	-1.22625
0.88825	-0.46102
-1.02437	0.38074
-1.15188	0.63582
-0.15732	0.73785
0.88825	0.25320
1.34728	0.02363
0.42922	0.25320
-0.10631	0.17668
0.22521	0.22769
0.12320	0.15117
-0.18282	-0.05289
-0.25932	-0.02739
0.02119	-0.12942
0.17421	0.32972
0.58223	-0.25695
0.42922	0.20219
-0.10631	0.45726
-0.13181	0.27871
-0.15732	0.50828
-0.28482	-0.18043
0.22521	-0.15492
0.55673	-0.30797
0.17421	0.17668
-0.48884	0.45726
-0.28482	0.45726
0.48022	0.53379
0.50573	0.48277
0.96476	-0.07840
-0.36133	-0.30797
0.09770	-0.07840
-0.64185	0.22769
1.52579	0.20219
-0.87136	0.10015
-0.25932	0.30422
0.53123	0.30422
0.48022	-0.07840
0.65874	-0.05289
1.19427	0.04914
-0.31033	0.38074
-0.79486	0.25320
-0.64185	0.17668
0.42922	0.30422
0.12320	0.25320
0.09770	0.04914
0.65874	0.30422
0.19971	0.10015
-0.28482	-0.07840
0.17421	0.32972
0.12320	0.07465
0.12320	0.02363
0.35272	0.10015
0.19971	0.17668
0.19971	0.17668
0.32721	0.20219
-0.10631	0.15117
0.91375	0.27871
0.60773	-0.12942
-1.53441	-0.07840
-1.73842	-0.07840
0.48022	0.07465
0.83725	0.17668
1.04126	0.61031
0.68424	0.25320
0.53123	0.38074
0.32721	0.45726
0.14870	0.10015
0.02119	-0.02739
-0.10631	-0.35899
-0.23382	-0.02739
0.09770	0.48277
-1.02437	-0.23145
0.19971	0.02363
0.91375	0.17668
-0.92237	0.48277
-0.00431	0.30422
0.37822	0.04914
-0.05531	0.22769
0.19971	0.25320
0.63323	0.10015
0.73524	0.07465
0.32721	0.25320
-0.15732	-0.46102
0.27621	-0.35899
0.02119	0.10015
0.25071	0.30422
-0.38683	0.66132
0.42922	0.50828
0.60773	0.35523
-0.56534	0.12566
0.35272	-0.12942
0.14870	-0.10391
-0.23382	0.27871
-0.28482	0.15117
0.48022	-0.05289
0.48022	0.15117
0.60773	0.17668
0.09770	0.15117
0.45472	-0.07840
0.14870	0.10015
0.04670	0.22769
-0.28482	0.27871
0.07220	0.30422
0.12320	0.25320
0.27621	0.12566
0.22521	0.10015
0.37822	0.12566
0.02119	0.12566
-0.28482	0.07465
0.17421	-0.00188
0.37822	0.10015
-0.25932	0.17668
0.50573	0.50828
0.30171	-0.15492
-0.08081	-0.18043
0.30171	-0.63957
0.50573	0.27871
0.04670	0.50828
0.12320	0.66132
0.17421	0.45726
0.14870	0.61031
0.12320	0.25320
0.19971	-0.38449
0.04670	0.07465
-0.00431	-0.25695
0.37822	0.15117
0.68424	0.38074
0.93925	0.15117
-1.99343	-0.00188
-2.32496	-0.12942
1.19427	0.12566
0.68424	0.61031
1.39828	0.30422
0.63323	-0.25695
0.32721	-0.28246
0.42922	0.17668
0.27621	0.45726
0.19971	0.40625
0.19971	0.53379
0.32721	0.10015
-0.61635	0.04914
-0.53984	-0.10391
-0.13181	0.35523
0.09770	0.17668
0.27621	0.10015
0.63323	0.07465
0.45472	0.20219
-0.23382	0.32972
-0.43783	-0.07840
0.19971	-0.07840
0.27621	-0.00188
0.78624	-0.48652
0.40372	0.38074
0.02119	0.35523
0.32721	0.48277
0.53123	0.10015
-0.20832	0.22769
-0.00431	0.15117
0.63323	0.32972
0.27621	0.38074
-0.00431	0.45726
0.14870	-0.15492
0.12320	-0.25695
0.14870	0.22769
0.02119	-0.00188
-0.15732	0.04914
0.12320	0.40625
0.12320	0.25320
0.40372	0.30422
0.48022	-0.02739
-0.36133	0.07465
-0.38683	-0.07840
-0.38683	0.15117
-0.28482	0.45726
0.12320	0.30422
0.76074	0.30422
1.24527	-0.10391
0.60773	-0.71609
0.60773	0.17668
0.73524	0.61031
0.40372	0.45726
-1.86593	0.40625
-0.31033	0.30422
0.58223	0.35523
0.14870	0.10015
-0.33583	-0.48652
0.12320	-0.12942
0.19971	0.30422
-0.00431	0.25320
-0.00431	0.20219
0.48022	-0.05289
0.12320	0.07465
0.30171	0.30422
0.30171	0.17668
0.19971	0.38074
0.27621	0.35523
0.37822	-0.10391
0.09770	-0.07840
-0.43783	-0.25695
-0.23382	0.48277
0.22521	0.07465
0.02119	0.10015
0.12320	-0.05289
0.53123	0.07465
1.14327	0.32972
-0.99887	0.45726
-0.23382	0.48277
0.53123	0.15117
0.73524	-0.30797
0.86275	-0.05289
-0.51434	0.25320
-0.25932	0.58480
0.22521	0.15117
0.02119	-0.33348
0.27621	-0.43551
0.14870	0.38074
0.32721	0.32972
0.27621	0.38074
-0.13181	0.25320
-0.33583	0.32972
0.04670	0.20219
0.25071	0.20219
0.14870	-0.12942
-0.18282	-0.30797
0.65874	-0.23145
0.02119	0.20219
-0.00431	0.43176
0.12320	0.17668
0.42922	0.43176
0.22521	0.40625
0.63323	0.22769
0.04670	-0.12942
-0.48884	0.22769
0.35272	0.10015
-0.48884	-0.18043
0.45472	-0.00188
0.27621	-0.05289
0.32721	0.32972
0.81175	0.17668
0.63323	0.58480
-0.56534	0.04914
-0.89686	0.15117
0.40372	0.22769
0.50573	0.20219
0.22521	0.25320
0.27621	0.15117
0.07220	-0.05289
-0.64185	0.07465
0.48022	0.32972
0.42922	-0.10391
0.35272	0.04914
0.07220	0.10015
-0.02981	-0.02739
0.04670	0.20219
0.30171	0.53379
0.37822	-0.20594
-0.05531	-0.05289
-0.02981	0.07465
0.73524	0.30422
-0.00431	0.68683
-0.33583	0.50828
0.93925	0.30422
-1.12638	0.04914
0.07220	-0.02739
0.53123	0.04914
1.01576	0.50828
0.32721	-0.10391
0.27621	-0.63957
-0.61635	-0.38449
-0.08081	0.63582
0.40372	0.76336
-0.02981	0.50828
0.42922	0.38074
0.02119	0.04914
0.17421	0.45726
-0.08081	-0.25695
0.19971	-0.43551
0.32721	-0.28246
-0.25932	-0.07840
0.02119	0.40625
0.25071	0.17668
0.73524	0.25320
-0.53984	0.40625
-1.38139	0.45726
0.53123	0.45726
0.88825	0.22769
-0.20832	0.22769
0.02119	0.12566
0.42922	0.04914
1.85731	-0.23145
0.40372	-0.07840
-1.76392	-0.25695
-0.00431	0.22769
0.73524	0.04914
0.42922	-0.07840
0.35272	0.04914
0.48022	0.48277
-0.08081	0.20219
-0.00431	0.83988
-0.15732	0.25320
-0.41233	-0.18043
-0.43783	-0.12942
0.17421	0.02363
0.22521	0.02363
0.02119	0.10015
0.07220	-0.12942
0.32721	0.45726
1.06676	0.38074
-0.28482	0.50828
-0.08081	0.10015
0.32721	0.25320
0.07220	-0.02739
0.14870	0.04914
0.25071	0.15117
0.12320	-0.25695
0.19971	-0.33348
0.30171	0.10015
-0.18282	0.40625
0.42922	0.40625
0.53123	0.27871
-0.28482	0.27871
0.22521	-0.25695
-0.00431	0.17668
-0.38683	0.30422
0.07220	0.15117
1.21977	0.15117
0.73524	0.32972
-1.07538	-0.18043
-1.33039	0.07465
0.70974	0.04914
0.93925	0.35523
0.63323	0.20219
0.22521	0.02363
0.14870	0.15117
-0.00431	0.30422
0.04670	0.07465
0.32721	-0.05289
0.17421	0.22769
0.53123	0.20219
-0.36133	0.15117
-0.69285	0.07465
-0.10631	0.07465
-0.76936	-0.10391
0.93925	0.40625
0.25071	0.07465
-0.10631	0.35523
0.53123	0.83988
0.32721	-0.05289
0.53123	-0.10391
0.58223	0.04914
0.45472	0.22769
-0.25932	0.50828
-0.25932	0.15117
0.07220	-0.25695
0.30171	-0.10391
0.42922	-0.05289
0.04670	-0.02739
-0.08081	0.15117
0.09770	0.22769
1.47479	-0.00188
-0.82036	0.22769
-1.81492	0.02363
-0.66735	-0.00188
0.78624	0.38074
0.88825	0.73785
0.99026	0.45726
0.86275	0.07465
0.42922	-0.18043
0.07220	-0.46102
0.09770	0.22769
0.07220	0.20219
0.55673	0.10015
0.22521	0.07465
-1.15188	0.10015
-0.18282	0.45726
-0.46334	0.27871
-0.02981	0.25320
0.53123	0.38074
0.76074	-0.00188
0.60773	-0.10391
0.30171	-0.15492
-0.13181	-0.07840
0.14870	0.35523
0.25071	0.35523
0.19971	0.53379
0.02119	0.02363
-0.13181	-0.05289
0.50573	-0.15492
0.19971	0.02363
0.48022	0.27871
-0.08081	0.17668
-0.08081	0.20219
0.42922	0.10015
-0.08081	0.66132
-0.18282	0.32972
0.48022	0.04914
0.35272	0.04914
0.02119	-0.51203
-0.02981	-0.02739
0.12320	0.50828
0.14870	0.71234
0.12320	-0.07840
0.04670	0.15117
0.37822	0.07465
0.27621	0.07465
0.60773	-0.18043
0.32721	0.38074
-1.02437	0.35523
0.12320	0.20219
0.32721	0.35523
1.21977	0.43176
0.30171	0.12566
-1.33039	-0.23145
0.27621	-0.00188
-0.38683	0.10015
0.02119	0.12566
1.21977	0.15117
0.32721	-0.07840
0.25071	0.22769
0.07220	0.27871
0.07220	0.25320
0.04670	0.17668
-0.05531	0.66132
0.07220	-0.07840
0.19971	-0.10391
-0.15732	-0.10391
-0.00431	-0.56305
0.07220	0.10015
0.50573	0.07465
0.53123	0.68683
-0.00431	0.71234
-0.02981	0.94191
-0.25932	0.53379
0.76074	0.20219
0.83725	-0.07840
-0.36133	-0.35899
-0.28482	-1.02219
0.12320	-0.12942
0.40372	0.32972
0.14870	0.55929
0.53123	0.32972
0.12320	0.02363
0.12320	-0.02739
0.07220	0.10015
0.35272	0.38074
0.35272	0.71234
-0.23382	0.45726
-0.41233	-0.15492
0.42922	0.30422
0.09770	-0.66508
-0.13181	-0.18043
0.02119	-0.15492
0.83725	0.30422
0.25071	0.04914
-0.20832	0.76336
0.50573	0.45726
0.25071	0.02363
0.60773	-0.10391
0.07220	-0.02739
-0.61635	0.27871
0.14870	0.22769
0.63323	0.17668
-0.71835	0.27871
-0.36133	0.25320
0.63323	-0.00188
0.09770	0.30422
0.73524	-0.25695
0.78624	-0.02739
0.12320	0.38074
-0.05531	0.20219
0.04670	0.17668
0.32721	-0.02739
0.25071	-0.07840
-0.71835	-0.05289
0.07220	0.68683
0.27621	0.50828
0.30171	-0.15492
0.35272	0.02363
-0.18282	-0.53754
-0.18282	0.48277
0.17421	0.71234
0.12320	0.12566
0.25071	0.25320
0.07220	-0.30797
0.22521	-0.10391
0.14870	0.20219
0.22521	0.45726
0.40372	0.61031
0.12320	0.12566
0.48022	0.22769
-0.10631	-0.25695
-0.36133	0.02363
0.42922	0.32972
0.40372	0.10015
0.30171	-0.02739
-0.61635	-0.02739
-0.61635	-0.05289
0.63323	0.30422
0.45472	0.38074
-0.15732	0.35523
0.40372	0.35523
0.04670	-0.07840
0.37822	0.15117
1.09226	-0.10391
0.70974	0.30422
-1.35589	-0.05289
-0.92237	-0.07840
0.19971	0.22769
0.60773	0.22769
0.65874	0.30422
0.42922	0.32972
0.17421	0.50828
0.12320	0.30422
0.07220	0.04914
0.22521	-0.15492
-0.23382	-0.61406
0.09770	0.20219
-0.08081	0.35523
0.30171	0.15117
0.37822	0.15117
0.07220	0.04914
-0.08081	0.04914
0.04670	0.10015
0.04670	0.32972
0.19971	0.35523
0.12320	-0.00188
0.32721	0.45726
0.32721	0.53379
0.17421	-0.15492
0.30171	-0.05289
0.50573	-0.20594
-1.15188	-0.28246
0.22521	0.35523
0.32721	0.43176
0.19971	0.45726
0.45472	0.22769
0.99026	0.15117
-0.76936	-0.10391
-0.15732	-0.05289
0.50573	-0.18043
0.65874	0.22769
0.14870	-0.23145
0.35272	-0.10391
0.19971	0.30422
0.58223	0.61031
-0.05531	0.45726
-0.31033	0.35523
-0.13181	0.30422
-0.66735	0.22769
-0.08081	0.10015
0.73524	-0.15492
0.02119	0.25320
0.45472	-0.23145
0.37822	0.17668
0.22521	0.22769
0.07220	-0.07840
0.22521	0.25320
0.50573	0.20219
0.07220	-0.18043
0.14870	0.17668
0.27621	0.27871
-0.02981	0.43176
0.17421	0.53379
0.17421	0.38074
0.07220	-0.18043
-0.13181	-0.15492
-0.08081	-0.10391
-0.08081	0.15117
0.17421	0.07465
0.35272	0.50828
0.17421	0.58480
0.04670	-0.35899
0.14870	-0.02739
0.04670	0.43176
0.37822	0.32972
0.30171	-0.12942
0.19971	0.20219
0.25071	0.43176
-0.41233	0.10015
-0.31033	0.12566
-0.33583	-0.66508
0.32721	-0.00188
0.40372	0.15117
0.55673	0.30422
0.70974	0.53379
0.40372	0.30422
0.02119	0.20219
-1.10088	0.12566
0.35272	0.22769
0.12320	0.27871
0.14870	-0.05289
0.96476	-0.25695
-0.48884	-0.00188
-0.46334	0.15117
0.40372	-0.05289
1.65330	0.25320
0.12320	0.35523
-1.40690	0.17668
-0.20832	0.17668
0.81175	0.12566
0.42922	0.15117
0.40372	-0.02739
0.42922	0.27871
0.27621	0.30422
0.02119	0.22769
0.09770	0.32972
-0.13181	0.12566
0.07220	0.22769
0.37822	-0.07840
0.53123	-0.02739
-0.28482	0.43176
-0.18282	0.22769
0.12320	-0.10391
-0.02981	-0.25695
0.07220	-0.15492
0.25071	0.25320
0.42922	0.25320
0.53123	0.58480
0.58223	0.25320
0.63323	0.04914
-0.43783	0.12566
-1.25389	0.35523
0.17421	-0.02739
0.22521	-0.07840
0.35272	-0.00188
0.53123	0.63582
0.50573	0.45726
0.55673	0.53379
0.83725	0.25320
-0.25932	-0.25695
-0.61635	-0.20594
0.60773	-0.05289
-0.20832	-0.43551
-0.31033	0.15117
-0.38683	0.17668
-0.02981	0.25320
0.42922	0.25320
0.91375	0.32972
0.32721	0.20219
0.12320	0.15117
0.19971	0.12566
-1.22839	0.22769
-0.28482	0.07465
0.50573	0.38074
0.68424	0.25320
0.42922	0.02363
0.35272	-0.10391
-0.20832	-0.25695
-0.08081	-0.10391
0.42922	0.63582
0.12320	0.32972
0.07220	0.22769
0.14870	-0.18043
-0.08081	0.25320
-0.13181	0.63582
0.09770	0.10015
0.30171	-0.15492
