0.14870	0.32972
0.09770	0.12566
0.30171	0.15117
0.12320	0.04914
0.12320	0.15117
0.14870	0.12566
0.12320	0.12566
0.22521	0.10015
0.12320	0.12566
0.22521	0.15117
0.12320	0.07465
0.02119	0.10015
0.12320	0.17668
0.22521	0.22769
0.07220	0.10015
0.12320	0.15117
0.17421	0.10015
0.35272	0.30422
0.14870	0.12566
0.25071	0.25320
0.12320	0.25320
0.17421	0.10015
0.14870	0.10015
0.04670	0.10015
0.12320	0.15117
0.19971	0.04914
0.12320	0.04914
0.12320	0.17668
0.12320	0.17668
0.19971	0.15117
0.17421	0.17668
0.14870	0.17668
0.22521	0.25320
0.12320	0.17668
0.27621	0.04914
0.19971	0.04914
0.09770	0.12566
0.07220	0.12566
0.04670	0.17668
0.14870	0.12566
0.09770	0.20219
0.17421	0.15117
0.27621	0.27871
0.07220	0.04914
0.25071	0.12566
-0.05531	0.10015
0.22521	0.07465
0.12320	0.10015
0.09770	0.27871
0.14870	0.15117
0.19971	0.12566
0.27621	-0.00188
0.07220	0.20219
0.12320	0.30422
0.12320	0.07465
0.14870	0.20219
0.22521	0.07465
-0.05531	0.17668
0.12320	-0.05289
0.12320	0.20219
0.12320	0.12566
0.17421	0.20219
0.12320	0.07465
0.22521	0.30422
0.07220	0.15117
0.25071	0.20219
0.07220	-0.00188
0.04670	0.25320
0.12320	0.10015
0.22521	0.15117
0.14870	0.15117
0.22521	0.30422
0.12320	0.07465
0.17421	0.10015
0.17421	0.07465
0.04670	0.12566
0.12320	0.30422
0.02119	0.25320
0.19971	0.12566
0.09770	0.10015
0.12320	0.15117
0.22521	0.17668
0.30171	0.10015
0.12320	0.17668
0.09770	0.20219
0.09770	0.17668
0.17421	0.04914
0.07220	0.04914
0.07220	0.10015
0.12320	0.25320
0.17421	0.04914
0.12320	0.25320
0.12320	0.04914
0.22521	0.22769
0.04670	0.17668
0.25071	0.27871
-0.00431	0.15117
0.14870	0.22769
0.04670	0.25320
0.19971	-0.10391
0.19971	0.04914
0.02119	-0.02739
0.27621	0.12566
0.07220	0.15117
0.17421	0.30422
0.04670	0.10015
0.22521	0.04914
0.14870	0.25320
0.07220	0.22769
0.27621	0.22769
-0.08081	0.07465
0.22521	0.12566
0.04670	0.15117
0.25071	-0.05289
0.12320	0.40625
-0.15732	0.04914
0.42922	0.07465
0.37822	0.25320
-0.41233	0.07465
0.40372	0.17668
0.02119	0.20219
0.35272	0.04914
0.19971	0.35523
-0.00431	0.10015
0.22521	0.25320
0.07220	0.15117
0.07220	0.07465
0.22521	0.04914
0.07220	0.10015
0.19971	0.12566
0.12320	-0.05289
0.22521	0.30422
0.07220	0.07465
0.27621	0.20219
0.02119	0.04914
0.19971	0.25320
0.04670	0.15117
0.14870	0.22769
0.12320	0.10015
0.22521	0.10015
0.09770	0.07465
0.09770	0.10015
0.14870	0.12566
0.19971	0.12566
0.12320	0.17668
0.17421	0.30422
0.19971	0.12566
0.19971	0.07465
0.07220	0.25320
0.04670	0.17668
0.17421	0.30422
0.12320	0.17668
0.53123	0.22769
0.04670	0.04914
0.02119	0.02363
0.17421	0.25320
0.14870	0.10015
0.25071	-0.02739
0.19971	0.07465
0.14870	0.25320
0.17421	0.12566
0.32721	0.35523
0.02119	0.12566
0.27621	0.15117
0.02119	0.10015
0.02119	0.25320
0.19971	0.07465
0.02119	0.10015
0.14870	0.20219
-0.00431	0.25320
0.37822	0.10015
0.19971	0.02363
-0.15732	0.22769
0.32721	-0.02739
0.25071	0.07465
0.25071	0.02363
0.19971	0.17668
-0.05531	0.15117
0.12320	0.40625
0.02119	0.25320
0.17421	0.10015
0.30171	0.10015
0.12320	0.15117
-0.08081	0.15117
-0.20832	0.02363
0.30171	0.07465
-0.15732	0.15117
-0.38683	0.12566
0.45472	0.27871
0.63323	0.20219
0.40372	-0.02739
0.22521	0.12566
0.02119	0.10015
0.19971	0.15117
0.45472	0.02363
-0.10631	0.32972
-0.38683	0.10015
0.02119	0.15117
-0.02981	0.17668
0.12320	0.17668
0.19971	0.15117
0.27621	0.15117
0.19971	0.20219
0.37822	0.12566
0.17421	0.04914
0.09770	0.15117
0.32721	0.10015
0.30171	0.10015
0.09770	0.17668
-0.20832	0.15117
-0.38683	0.35523
0.17421	-0.00188
0.58223	0.15117
0.12320	0.22769
0.14870	-0.15492
0.12320	0.07465
0.19971	0.12566
0.07220	0.40625
-0.08081	0.38074
0.12320	0.30422
0.12320	0.17668
0.12320	-0.02739
0.19971	0.10015
0.25071	-0.02739
0.63323	0.15117
-0.00431	0.10015
-0.38683	0.45726
-0.38683	-0.00188
0.02119	-0.30797
0.32721	-0.05289
0.40372	-0.38449
0.37822	0.38074
0.48022	0.73785
0.32721	-0.05289
0.35272	0.17668
0.04670	0.15117
0.14870	0.68683
-0.15732	0.40625
-0.36133	0.43176
-0.36133	-0.28246
0.53123	-0.35899
0.42922	0.12566
0.37822	0.07465
-0.28482	0.25320
-0.36133	0.32972
0.22521	0.38074
0.55673	0.45726
0.32721	0.35523
0.30171	0.71234
0.27621	-1.04770
0.07220	-1.37929
-0.23382	-0.41000
0.30171	0.40625
-0.13181	0.22769
0.42922	0.35523
0.25071	1.27351
0.19971	1.32453
0.58223	0.86539
0.12320	0.25320
-0.23382	-0.25695
-0.08081	-0.25695
-0.00431	0.10015
0.12320	0.22769
0.09770	0.58480
0.55673	-0.30797
0.86275	-1.07320
0.14870	-0.97117
-0.28482	-0.12942
-0.25932	0.55929
0.17421	0.55929
-0.10631	0.22769
0.93925	0.83988
0.25071	0.30422
-0.99887	0.25320
0.17421	0.99292
0.53123	0.45726
0.19971	0.17668
0.12320	-0.35899
0.17421	-0.58856
0.73524	0.12566
0.58223	0.76336
0.25071	0.61031
0.22521	-0.30797
0.50573	-0.46102
-0.02981	-1.09871
-1.12638	-0.20594
0.07220	-1.04770
1.09226	0.27871
0.25071	0.81437
-1.30489	0.61031
-0.94787	1.22250
-0.31033	1.27351
0.81175	0.81437
1.24527	0.10015
0.81175	-1.02219
0.76074	-0.56305
-0.10631	-0.48652
-0.36133	0.53379
-0.36133	1.32453
0.78624	2.14077
0.83725	-0.69059
0.37822	-0.41000
-1.63641	-0.74160
-0.41233	-0.61406
0.35272	0.45726
0.68424	0.71234
0.88825	0.73785
1.09226	-0.10391
0.81175	-1.53234
-1.15188	-0.33348
-3.19201	-0.84363
0.14870	0.20219
0.53123	0.99292
1.21977	1.42656
0.60773	1.14597
0.53123	1.22250
0.40372	0.02363
1.21977	-0.74160
0.40372	0.22769
0.19971	-0.28246
-0.23382	0.32972
0.02119	1.06945
-0.64185	-0.05289
-1.10088	-0.25695
-0.31033	-1.37929
1.14327	-0.15492
-0.18282	-0.20594
0.22521	0.76336
-0.15732	0.96742
0.32721	0.35523
0.76074	1.42656
0.37822	-0.28246
-1.27939	-0.74160
0.22521	-0.25695
1.44929	0.40625
1.62780	0.02363
0.81175	0.20219
-0.59084	0.66132
-0.18282	0.86539
-0.10631	-0.58856
0.73524	1.14597
0.02119	-0.66508
-0.41233	-0.94566
-0.05531	0.04914
-0.23382	-0.43551
0.86275	1.22250
-0.41233	0.89089
-0.51434	1.52859
0.25071	0.30422
0.45472	-1.07320
0.88825	-0.12942
-0.15732	0.53379
0.58223	0.48277
0.86275	0.71234
-0.61635	1.04394
-0.59084	-1.71090
0.50573	-0.58856
2.44385	-3.11382
-0.48884	0.68683
-2.09544	0.94191
1.39828	1.78367
-1.58541	1.12046
-2.22295	0.66132
1.32178	0.55929
1.95932	0.45726
1.24527	-0.81812
0.32721	-0.05289
-0.15732	-1.45582
0.19971	0.38074
0.19971	-0.25695
0.70974	1.42656
0.48022	-0.10391
-0.87136	-0.10391
-0.79486	0.07465
0.35272	0.35523
0.60773	0.91640
1.14327	0.38074
-0.69285	0.02363
-0.71835	-0.56305
-0.25932	1.27351
1.75531	-0.48652
1.83181	-0.02739
-4.31408	0.32972
-1.81492	0.25320
3.13239	-0.84363
-0.00431	0.76336
0.93925	-0.35899
0.81175	-0.56305
0.04670	-0.71609
0.93925	0.53379
1.42379	0.53379
0.32721	1.63062
0.50573	0.15117
-0.97337	1.37554
-1.10088	-0.51203
-1.45790	-0.84363
0.53123	-0.02739
0.76074	0.17668
0.27621	0.63582
-0.25932	-0.30797
0.19971	0.27871
0.88825	-0.07840
-0.15732	0.38074
-0.43783	0.04914
1.11776	-0.97117
-1.12638	0.35523
-1.55991	0.55929
1.09226	1.17148
1.55129	-0.76711
-0.92237	0.02363
-1.58541	0.40625
1.50029	0.27871
1.01576	0.58480
1.44929	0.35523
0.55673	-0.05289
0.25071	1.57960
2.18883	-1.07320
1.04126	0.66132
-3.54903	0.15117
-1.40690	-1.40480
-1.17738	0.12566
0.99026	0.30422
0.07220	1.09496
1.78081	-0.46102
2.72437	-0.35899
-2.98800	0.66132
-1.48340	-0.12942
-0.87136	0.73785
1.29628	0.73785
1.72980	0.61031
0.40372	0.22769
0.73524	-0.69059
1.04126	-0.38449
0.12320	-1.25176
-0.38683	0.02363
-1.33039	0.76336
-0.00431	0.35523
0.86275	0.86539
1.06676	0.43176
-1.30489	0.30422
-2.17195	0.04914
1.88281	-0.18043
2.85188	0.25320
-0.36133	-0.46102
-2.86049	0.48277
0.30171	0.22769
2.11233	0.20219
-0.89686	0.04914
-0.33583	2.14077
1.62780	-0.38449
0.91375	-0.51203
1.50029	-0.07840
-2.45246	-1.43031
0.25071	0.32972
0.32721	0.17668
0.55673	1.14597
-0.10631	0.68683
0.09770	-0.35899
0.70974	-1.65988
1.01576	0.04914
2.29084	0.96742
-6.32871	1.22250
-6.60923	0.58480
0.83725	0.91640
2.41835	0.45726
3.28540	0.10015
2.23984	0.02363
1.16877	-0.41000
0.99026	-0.71609
-0.05531	0.15117
2.08683	-0.10391
-1.33039	0.02363
-0.48884	-0.30797
0.83725	-0.35899
-0.71835	-1.04770
-1.30489	1.37554
0.53123	1.24800
0.09770	1.04394
0.07220	-0.56305
0.76074	-0.66508
-1.76392	-0.12942
0.25071	1.96222
-0.20832	0.53379
0.48022	0.43176
-1.68742	-2.75671
1.42379	-0.00188
1.72980	0.04914
1.47479	0.61031
0.83725	0.38074
1.16877	0.12566
-0.69285	1.24800
-1.66191	0.25320
0.04670	-0.07840
1.75531	0.12566
1.50029	1.01843
-1.78942	-0.12942
-1.94243	-0.15492
0.73524	-0.30797
-0.23382	0.00000
-0.41233	0.00000
1.39828	-0.97117
0.65874	1.17148
-1.27939	0.02363
1.95932	0.25320
-2.86049	-1.27726
-1.66191	0.66132
2.36734	-0.74160
2.77537	0.83988
2.06133	0.25320
-0.15732	0.96742
1.27078	1.04394
-1.84042	1.37554
-0.43783	0.35523
0.35272	-1.48133
-0.31033	-1.48133
-1.04987	-1.91496
0.35272	1.01843
1.98482	0.66132
-0.92237	0.76336
-1.35589	0.12566
0.63323	0.45726
-0.48884	1.91120
1.06676	0.83988
0.68424	-0.58856
1.11776	0.30422
1.85731	-0.15492
-0.61635	-0.58856
-0.87136	-0.89465
1.11776	-1.02219
-2.50347	0.38074
-0.18282	0.07465
-0.84586	1.52859
-0.36133	0.99292
1.75531	-0.56305
1.39828	-0.00188
0.27621	-0.33348
0.86275	1.09496
0.48022	0.48277
0.17421	0.15117
1.57679	0.10015
-3.03900	-0.86914
-1.61091	1.47757
2.11233	-0.30797
-2.45246	0.15117
0.86275	-0.46102
1.09226	-1.04770
0.78624	-0.38449
1.29628	0.20219
0.93925	0.71234
0.27621	0.83988
-0.08081	1.12046
2.69887	0.45726
-1.40690	-0.00188
-5.02813	-1.27726
1.65330	-0.02739
-0.36133	0.61031
1.44929	0.61031
1.50029	0.99292
0.40372	-0.79262
0.81175	0.83988
0.30171	-0.46102
-0.02981	0.02363
-0.56534	-1.50683
0.35272	0.15117
1.44929	0.45726
-1.10088	0.76336
-2.19745	-1.37929
-2.09544	1.12046
0.81175	-0.10391
2.21434	0.78886
1.16877	0.30422
1.21977	-0.15492
2.49485	1.60511
-3.14101	-1.55785
-2.12094	0.15117
0.93925	0.61031
2.01032	-0.15492
3.87194	0.38074
0.19971	0.45726
-3.01350	0.20219
-3.14101	-0.56305
-0.10631	1.32453
-2.75848	0.43176
2.80087	-0.71609
1.88281	-0.79262
1.85731	-0.07840
2.01032	-0.18043
-0.05531	0.73785
-1.04987	0.73785
0.02119	1.60511
0.22521	-0.25695
-0.79486	-0.61406
0.12320	-0.92016
-0.33583	0.58480
0.76074	1.29902
-1.48340	-0.84363
0.25071	-0.23145
-0.00431	-0.76711
3.31091	1.01843
0.04670	1.68163
-5.99719	1.35003
0.88825	-0.35899
2.13783	-1.81293
1.72980	-0.07840
0.30171	0.53379
0.88825	-0.07840
0.60773	0.32972
0.60773	0.58480
0.65874	0.45726
-0.53984	0.99292
0.60773	-1.09871
-0.99887	-0.86914
-4.05907	0.43176
0.96476	-1.48133
1.37278	1.52859
0.22521	-0.61406
1.09226	0.38074
0.25071	1.45206
3.18340	1.37554
1.78081	-0.79262
-6.04819	1.65613
-2.50347	-1.35379
1.90832	-1.20074
1.78081	0.81437
1.52579	1.73265
1.55129	0.55929
0.86275	0.22769
1.04126	-0.05289
-0.10631	-0.79262
-1.81492	0.15117
0.48022	-1.14973
-3.44703	-0.25695
0.68424	0.81437
1.47479	1.55410
0.19971	0.43176
0.68424	0.07465
0.53123	-0.10391
1.88281	-0.05289
-0.41233	-0.10391
-1.61091	-1.63437
-0.89686	0.40625
-1.61091	-1.50683
2.18883	0.76336
0.70974	0.61031
-0.66735	1.88570
1.24527	1.50308
0.83725	0.48277
0.63323	1.83468
1.72980	0.07465
-0.69285	-1.25176
-2.73298	-1.63437
-0.51434	-0.51203
0.12320	-0.23145
1.55129	0.25320
0.88825	0.40625
-0.28482	1.42656
1.60230	0.78886
1.16877	0.22769
-1.81492	-0.28246
-2.24845	-0.35899
-1.55991	1.40105
1.75531	0.15117
1.88281	-1.63437
1.06676	-0.10391
0.17421	-0.10391
0.32721	0.53379
0.96476	0.38074
1.47479	1.50308
-0.84586	-0.48652
-1.48340	-1.32828
1.14327	0.66132
-3.47253	-0.86914
0.73524	1.22250
0.45472	1.40105
1.37278	0.73785
1.11776	0.22769
2.23984	0.66132
-0.18282	-0.15492
-4.23758	0.38074
-0.92237	-1.37929
1.16877	-1.30277
1.01576	0.48277
2.59686	0.50828
1.62780	-0.05289
-1.91693	0.81437
0.07220	0.66132
0.04670	0.66132
0.86275	-0.89465
0.22521	-1.63437
0.68424	0.71234
0.09770	1.47757
-2.32496	0.25320
-0.87136	0.94191
-2.06994	-0.20594
1.88281	-0.20594
0.22521	-0.02739
0.37822	1.14597
1.93382	0.50828
0.73524	-0.41000
-1.17738	-0.53754
0.63323	0.12566
0.32721	-1.07320
0.58223	2.01323
0.35272	-0.74160
0.14870	0.83988
-0.84586	-0.30797
1.01576	-1.60887
-0.20832	0.78886
0.07220	1.19699
0.65874	0.76336
-0.92237	0.94191
0.30171	0.78886
1.80631	-1.25176
0.78624	-1.04770
-1.86593	-0.10391
-0.84586	1.22250
-0.82036	0.10015
0.45472	-0.43551
-0.02981	-0.10391
2.18883	-0.84363
1.95932	-0.20594
0.50573	0.17668
0.65874	0.30422
0.27621	1.06945
-0.66735	0.83988
-0.99887	0.25320
1.01576	0.38074
-0.13181	-1.14973
-1.07538	0.35523
1.24527	0.81437
0.40372	1.50308
-3.29402	-1.65988
-2.14644	-0.23145
1.24527	-0.10391
1.21977	-0.07840
2.74987	1.12046
-0.15732	1.17148
-0.82036	-0.28246
1.04126	-0.58856
-0.28482	0.71234
1.67880	0.27871
1.14327	-0.35899
-1.20288	-0.53754
0.65874	-2.34859
0.32721	0.58480
-0.79486	0.71234
0.12320	0.89089
-0.20832	3.11007
-0.18282	0.50828
0.53123	-0.35899
0.65874	-0.76711
0.02119	-1.53234
-0.05531	-0.02739
-0.43783	0.91640
2.74987	-0.25695
-4.46709	-1.17523
-1.53441	0.30422
2.49485	1.01843
0.17421	0.78886
-0.38683	1.06945
2.13783	1.37554
1.95932	0.17668
3.56592	-0.25695
-0.25932	-0.25695
-2.17195	0.66132
0.76074	-0.66508
-0.97337	-0.28246
0.02119	-0.86914
-0.36133	-0.79262
-0.74385	1.57960
0.04670	-0.84363
0.40372	-0.51203
-0.41233	0.81437
-1.81492	0.15117
0.50573	1.96222
1.34728	2.44687
1.37278	-0.30797
-1.12638	-0.43551
-1.02437	-2.29757
0.76074	-0.20594
0.25071	1.19699
1.24527	0.20219
0.55673	-0.35899
0.73524	0.40625
0.78624	1.09496
-0.20832	1.09496
0.27621	-0.48652
-2.19745	-0.99668
-1.86593	-1.14973
1.78081	0.04914
1.90832	0.63582
0.58223	0.63582
-1.53441	0.86539
0.53123	0.07465
0.12320	-0.35899
-0.25932	-0.63957
0.55673	0.43176
-0.28482	1.22250
0.78624	0.61031
-0.36133	0.15117
0.17421	-0.41000
1.47479	0.27871
1.11776	-0.53754
-2.17195	1.68163
-0.74385	-0.18043
-0.33583	-0.53754
-0.13181	-0.07840
0.65874	-1.27726
1.47479	-0.35899
0.09770	-1.07320
0.40372	0.17668
0.76074	1.17148
-0.56534	0.48277
-1.10088	1.91120
1.04126	0.71234
-0.61635	2.06425
0.30171	1.50308
0.42922	-1.76191
1.09226	-0.63957
0.96476	-0.12942
-1.07538	-0.97117
-0.64185	-0.51203
1.70430	-0.35899
-0.61635	-0.84363
-1.84042	1.37554
-0.56534	1.40105
1.42379	-0.00188
0.65874	-0.28246
0.55673	0.22769
-0.23382	0.12566
1.75531	1.35003
0.96476	0.25320
-1.84042	0.12566
-1.61091	0.38074
0.76074	-1.27726
1.55129	-0.10391
0.96476	-0.07840
-0.28482	1.01843
0.12320	0.02363
-0.13181	0.10015
0.09770	0.66132
0.22521	0.04914
-0.20832	0.12566
0.22521	0.66132
0.53123	1.45206
1.09226	-0.10391
-1.66191	-0.97117
0.45472	0.10015
0.27621	-0.74160
0.70974	-0.15492
-0.64185	-0.25695
-2.22295	0.55929
-1.20288	-1.27726
2.26534	1.35003
1.01576	0.40625
1.39828	1.55410
1.11776	-0.12942
-1.66191	-0.10391
0.58223	-0.51203
-0.02981	0.12566
1.55129	1.19699
1.14327	0.43176
-3.37052	0.25320
-1.35589	1.35003
-0.56534	-0.00188
0.96476	-2.47613
1.70430	-0.10391
0.83725	-1.45582
0.99026	0.96742
1.44929	1.55410
1.80631	0.50828
-2.22295	-0.53754
-2.06994	-0.89465
-4.51810	0.32972
0.99026	0.91640
1.60230	0.71234
1.06676	0.68683
0.45472	0.20219
-1.66191	-0.23145
0.86275	0.76336
2.31634	0.32972
2.23984	-1.32828
0.70974	-0.56305
-1.48340	0.32972
-2.96250	-1.35379
-0.00431	1.65613
1.75531	1.47757
3.99945	0.10015
-1.76392	-0.74160
-2.93700	0.04914
-0.46334	0.99292
0.09770	0.07465
0.73524	-0.23145
1.06676	-0.25695
0.19971	0.38074
1.37278	0.71234
-0.18282	-0.00188
1.55129	-1.58336
-2.09544	-0.05289
-2.91149	0.15117
1.39828	1.75816
0.42922	0.12566
1.14327	-0.38449
0.93925	-0.07840
0.40372	0.17668
0.96476	1.06945
-0.33583	0.43176
0.22521	1.37554
-0.43783	-0.15492
-0.48884	-1.48133
-0.28482	-1.63437
-0.64185	-0.33348
1.01576	0.61031
0.02119	0.71234
0.25071	0.20219
0.19971	0.30422
0.63323	0.17668
0.40372	-0.05289
0.78624	0.15117
-1.10088	0.76336
0.40372	0.71234
0.65874	0.96742
2.36734	0.30422
-2.37596	-1.30277
-1.20288	0.73785
0.27621	-1.14973
-0.31033	-0.38449
1.50029	0.71234
0.86275	-0.35899
0.53123	0.04914
1.14327	0.27871
0.45472	0.53379
-2.86049	0.96742
1.75531	0.38074
-0.38683	1.78367
-2.42696	1.12046
1.24527	-0.69059
1.06676	-0.86914
0.55673	-1.73640
-0.48884	-0.66508
-0.10631	0.38074
0.53123	0.30422
0.27621	1.47757
2.16333	0.53379
0.76074	-0.35899
-2.45246	0.02363
-1.96793	-0.28246
-0.13181	-0.18043
0.99026	0.68683
0.02119	0.66132
1.19427	0.40625
0.63323	0.22769
0.60773	0.07465
1.57679	0.63582
0.09770	-0.71609
-2.24845	1.04394
0.02119	-2.24656
1.01576	0.32972
0.12320	0.30422
0.09770	0.48277
-0.18282	0.83988
0.60773	0.15117
0.42922	0.76336
0.32721	0.40625
1.55129	-0.79262
-2.63097	-0.18043
-2.12094	-1.53234
1.57679	-0.10391
1.34728	0.73785
0.04670	0.55929
0.91375	0.55929
0.93925	0.73785
-1.15188	0.45726
3.89744	1.17148
2.44385	-1.20074
-8.62386	0.76336
-1.04987	-1.50683
1.67880	0.15117
1.37278	0.66132
1.70430	0.55929
1.16877	0.35523
0.68424	-0.05289
-0.53984	0.10015
0.48022	-0.00188
2.01032	0.53379
-2.45246	-0.33348
-3.24301	0.20219
0.55673	-0.51203
0.78624	-1.02219
0.42922	0.63582
0.68424	0.66132
0.45472	0.83988
0.32721	0.55929
0.32721	0.63582
0.42922	-0.51203
0.48022	1.09496
0.02119	-0.10391
0.32721	-0.66508
0.09770	-0.12942
-0.38683	0.20219
-0.38683	0.45726
0.37822	0.04914
1.34728	0.10015
0.65874	0.61031
-0.28482	-0.81812
-6.30321	1.27351
1.60230	-0.00188
2.13783	-0.71609
1.90832	-0.05289
1.78081	0.30422
0.53123	0.68683
0.02119	-0.28246
2.69887	-0.02739
-3.21751	-0.99668
-2.88599	0.22769
0.81175	0.89089
0.55673	0.63582
1.04126	-0.10391
0.83725	0.55929
0.02119	0.48277
0.22521	0.30422
0.25071	0.25320
2.46935	0.86539
-1.81492	-0.81812
-4.54360	-1.07320
1.50029	0.27871
0.42922	-0.10391
0.93925	-0.00188
0.63323	0.32972
0.37822	0.32972
0.42922	0.38074
0.32721	0.43176
0.25071	0.50828
1.34728	0.81437
0.04670	-0.51203
-1.38139	-1.35379
-0.33583	1.32453
-0.25932	-0.92016
0.45472	-1.22625
0.83725	0.83988
0.35272	0.63582
0.19971	0.91640
0.32721	0.96742
0.27621	0.04914
0.09770	-0.69059
1.06676	0.35523
-1.02437	0.96742
-0.28482	0.71234
1.65330	0.02363
-2.27395	-1.76191
-0.79486	-0.79262
0.88825	0.30422
1.14327	0.76336
0.45472	1.04394
-0.64185	0.27871
2.39285	1.57960
0.14870	-0.20594
-1.76392	-0.71609
-0.18282	0.45726
-2.55447	-0.41000
1.88281	0.89089
1.47479	-0.28246
0.45472	-0.43551
0.14870	0.20219
1.06676	0.30422
1.37278	0.45726
-1.02437	1.01843
-2.32496	-0.56305
0.27621	-0.23145
0.50573	-1.40480
1.09226	0.15117
0.19971	1.12046
0.40372	0.55929
0.19971	0.76336
-0.31033	-0.05289
0.22521	0.02363
0.40372	1.47757
-2.37596	-0.07840
-0.89686	1.12046
1.14327	-0.89465
1.21977	-1.27726
0.91375	-0.94566
0.93925	-0.23145
0.50573	0.76336
0.17421	0.50828
1.44929	0.07465
0.19971	0.27871
-2.45246	0.25320
-1.81492	-0.30797
2.41835	0.35523
0.99026	-0.56305
-2.14644	-0.07840
0.09770	1.14597
0.12320	0.76336
-2.60547	0.83988
1.29628	1.19699
3.31091	0.17668
2.31634	-0.10391
0.04670	0.27871
0.40372	-0.48652
-0.69285	-0.63957
-0.71835	0.58480
1.19427	0.10015
-1.40690	0.43176
-2.19745	-1.86394
-0.53984	-1.43031
0.14870	-1.12422
0.53123	1.42656
1.14327	0.53379
0.40372	0.50828
1.16877	1.40105
1.62780	0.78886
-0.46334	1.17148
-1.66191	0.27871
-0.59084	-0.23145
-0.02981	0.63582
1.75531	0.04914
-1.07538	0.48277
0.96476	0.12566
1.34728	-0.84363
-3.75305	-0.76711
0.14870	-0.97117
1.95932	0.12566
0.73524	-0.43551
0.86275	1.83468
1.42379	0.10015
-0.33583	0.10015
0.76074	-0.84363
0.25071	0.81437
-0.31033	-0.12942
0.70974	0.86539
0.27621	0.30422
-1.25389	0.02363
-1.40690	1.04394
0.17421	0.71234
1.88281	-0.20594
-2.17195	0.76336
-0.18282	-1.63437
1.16877	-0.25695
1.72980	-0.20594
0.86275	0.35523
0.30171	0.10015
-1.12638	0.04914
0.73524	0.55929
0.27621	0.40625
0.96476	0.02363
0.45472	0.22769
-1.45790	0.38074
0.22521	0.53379
0.30171	0.02363
1.60230	0.30422
0.63323	0.40625
-2.32496	0.12566
-2.78398	0.53379
1.37278	-0.02739
-0.43783	-1.32828
0.76074	-1.35379
1.95932	0.81437
1.32178	0.55929
1.32178	0.73785
0.19971	0.32972
-2.55447	0.53379
0.55673	1.14597
-0.79486	-0.05289
-0.00431	0.61031
0.50573	-1.30277
-0.25932	-0.79262
0.32721	0.12566
0.45472	0.40625
2.72437	0.55929
-0.15732	2.16628
-6.20120	-0.86914
-0.25932	0.27871
0.30171	-1.25176
2.11233	-1.17523
1.83181	0.66132
1.44929	0.58480
0.93925	0.86539
1.72980	0.30422
2.16333	1.01843
-4.69661	0.15117
-2.88599	0.25320
1.32178	0.22769
-0.87136	-0.05289
0.58223	-1.22625
0.83725	-0.25695
1.67880	-0.51203
1.44929	0.86539
-0.15732	0.15117
0.53123	1.24800
-0.38683	-0.74160
-0.48884	-0.66508
0.70974	0.50828
1.93382	0.20219
-2.01894	0.58480
-5.00263	0.12566
1.85731	-0.15492
0.32721	-0.15492
0.09770	0.94191
1.60230	0.53379
3.20890	0.55929
-0.43783	-0.07840
-3.09000	-0.43551
1.55129	-0.00188
-0.66735	-0.53754
-0.05531	0.45726
0.86275	0.99292
0.60773	-0.07840
1.32178	0.38074
0.76074	0.27871
0.30171	0.63582
-0.41233	0.10015
-1.84042	-0.35899
-0.10631	-1.60887
0.53123	-0.58856
0.42922	-0.25695
0.63323	0.91640
1.50029	1.09496
0.17421	0.86539
-1.68742	0.81437
0.17421	1.42656
0.58223	-0.28246
0.60773	-0.10391
0.58223	-0.86914
-0.53984	0.53379
0.55673	0.61031
0.40372	0.15117
0.17421	-0.23145
0.58223	0.38074
-0.33583	0.15117
1.78081	-0.66508
-1.38139	-0.30797
-1.02437	-0.66508
-1.04987	0.76336
1.16877	0.89089
0.55673	0.50828
-1.40690	0.32972
0.25071	-0.18043
1.50029	-0.66508
1.52579	1.01843
-1.15188	-0.63957
1.06676	0.86539
-0.05531	0.27871
0.30171	-0.92016
0.17421	0.66132
-0.74385	0.17668
2.29084	0.22769
-2.88599	0.63582
-3.09000	0.40625
1.75531	0.45726
1.47479	0.61031
1.75531	-0.81812
1.83181	-1.04770
-0.15732	-0.76711
-3.09000	0.89089
-0.36133	1.17148
0.93925	-0.74160
0.99026	0.22769
1.34728	0.91640
-0.61635	0.38074
0.04670	0.73785
-0.23382	-0.28246
0.37822	-0.58856
2.13783	-0.07840
-1.25389	0.10015
-1.35589	-0.20594
0.32721	0.99292
-0.36133	0.68683
0.58223	0.02363
-0.36133	0.15117
0.88825	-0.35899
1.19427	-0.92016
1.09226	-1.02219
1.04126	1.75816
0.04670	0.45726
-1.76392	0.50828
-1.10088	0.15117
1.04126	-0.28246
-1.55991	0.22769
-0.38683	0.38074
1.21977	-0.05289
2.49485	0.89089
0.30171	-0.20594
1.85731	-0.12942
-0.10631	-0.71609
-4.00806	0.12566
-2.29945	0.15117
0.53123	0.91640
2.41835	0.43176
1.93382	0.68683
0.48022	-0.99668
1.27078	-0.61406
0.45472	0.32972
0.45472	0.89089
-1.35589	-0.12942
-1.25389	0.61031
-0.38683	0.04914
0.81175	-0.51203
0.37822	1.37554
0.63323	-0.02739
-0.15732	0.30422
-1.84042	0.12566
-0.43783	-0.02739
0.99026	-0.69059
1.85731	-0.07840
1.67880	0.27871
0.55673	0.50828
-1.27939	0.68683
-0.36133	0.25320
1.72980	-0.00188
0.55673	0.66132
-2.42696	0.63582
-1.50890	-0.61406
0.99026	-0.41000
0.63323	-0.15492
0.30171	-0.53754
0.76074	0.38074
0.73524	0.68683
1.37278	0.83988
2.74987	-0.15492
-1.84042	0.43176
-3.16651	-0.74160
0.93925	0.89089
0.19971	0.12566
0.83725	0.22769
0.22521	0.30422
0.09770	-0.86914
-0.02981	0.40625
0.48022	0.66132
0.91375	0.38074
2.21434	0.35523
-2.09544	-0.10391
-4.28858	-0.63957
1.04126	0.35523
1.04126	-0.71609
0.91375	-0.79262
0.96476	0.45726
0.37822	0.20219
0.45472	0.55929
0.12320	0.81437
0.07220	0.99292
0.60773	0.30422
-0.74385	-0.58856
-0.76936	0.58480
0.42922	-0.48652
2.16333	0.17668
0.27621	-0.28246
-2.04444	0.20219
-0.56534	0.40625
-0.28482	0.66132
0.25071	0.22769
0.60773	-0.05289
1.29628	1.40105
0.93925	-1.14973
-0.66735	0.32972
1.16877	1.22250
-0.79486	-1.07320
-1.86593	-0.20594
1.06676	-1.32828
0.12320	-0.48652
0.32721	0.66132
2.36734	0.17668
0.25071	1.73265
-0.82036	0.20219
-2.57997	0.76336
0.12320	-0.56305
1.44929	-0.35899
1.37278	1.52859
-0.89686	0.71234
0.19971	-0.10391
-0.51434	-0.18043
1.09226	-0.53754
0.25071	-0.30797
-2.09544	0.48277
0.27621	-0.94566
0.48022	-0.20594
0.73524	-0.92016
1.16877	0.96742
0.35272	1.63062
0.99026	1.04394
0.68424	0.86539
-0.33583	-0.51203
-1.63641	-0.38449
-0.51434	0.10015
0.76074	-0.25695
-0.71835	-0.20594
1.06676	0.32972
0.32721	-0.18043
-0.13181	0.63582
0.22521	0.10015
0.04670	-0.15492
0.25071	0.76336
0.37822	-0.15492
0.99026	-0.10391
0.99026	0.04914
-1.99343	0.45726
-1.84042	0.50828
0.81175	-0.20594
0.07220	0.27871
0.58223	0.91640
1.95932	-1.48133
0.65874	-0.79262
-0.31033	1.29902
-0.38683	0.76336
-0.56534	1.37554
0.45472	0.58480
0.14870	-0.89465
0.50573	-1.37929
0.48022	0.04914
0.09770	0.45726
0.70974	0.32972
-1.04987	0.78886
0.04670	0.12566
0.17421	0.91640
0.83725	-0.41000
-0.23382	0.04914
-0.18282	-0.89465
0.42922	-1.07320
0.32721	0.81437
-0.71835	0.30422
-0.41233	0.81437
-0.51434	0.81437
0.42922	0.55929
0.32721	-0.69059
0.53123	-0.43551
0.70974	0.40625
1.06676	0.07465
0.17421	0.53379
-0.69285	-0.28246
0.12320	-0.51203
0.96476	1.17148
-0.00431	1.55410
-0.59084	0.61031
1.90832	-0.10391
-1.35589	-2.17003
-1.53441	-0.69059
0.58223	0.50828
0.60773	0.94191
1.34728	0.89089
0.86275	0.35523
-0.28482	-0.46102
0.22521	-0.41000
-0.15732	-0.10391
1.44929	-0.10391
-3.21751	1.24800
-0.36133	0.86539
-0.48884	0.81437
1.75531	0.02363
-0.74385	0.15117
0.22521	-0.99668
2.03582	-1.30277
0.63323	-0.38449
0.19971	0.20219
0.65874	0.12566
0.42922	1.37554
-1.84042	0.73785
-1.25389	1.37554
0.17421	1.60511
0.73524	-0.56305
0.78624	-0.46102
0.22521	-0.63957
-0.28482	-1.12422
0.12320	0.22769
0.68424	-0.28246
0.04670	0.94191
-1.68742	1.14597
0.93925	0.66132
-0.31033	0.43176
-2.68198	-0.23145
1.11776	-0.63957
1.70430	-0.00188
2.31634	-0.07840
-0.59084	0.35523
-0.79486	0.17668
1.75531	0.45726
-0.71835	0.25320
0.07220	0.45726
1.04126	-0.02739
0.42922	-0.38449
-0.08081	0.22769
-0.02981	1.12046
-0.61635	0.02363
1.32178	-0.18043
-0.33583	-1.40480
-0.99887	0.10015
2.46935	0.78886
-2.52897	0.43176
-2.83499	0.96742
-0.74385	0.30422
1.29628	-0.12942
2.52035	0.10015
1.65330	0.22769
0.96476	-0.25695
0.22521	0.02363
-0.43783	1.35003
-0.15732	0.38074
-0.25932	-1.53234
-0.23382	0.15117
0.40372	-1.86394
0.50573	0.02363
-0.51434	1.01843
-0.13181	1.50308
1.04126	1.04394
-1.20288	0.02363
0.02119	0.20219
0.81175	0.53379
-0.71835	0.43176
-0.46334	1.27351
-0.25932	0.04914
3.51492	-2.88425
-0.82036	-1.35379
-2.65648	-1.45582
1.95932	0.02363
1.83181	1.17148
0.83725	1.47757
0.37822	0.99292
-0.43783	2.44687
0.17421	0.50828
0.09770	-0.00188
-0.10631	-1.09871
0.60773	-1.63437
-3.14101	-0.20594
0.58223	0.58480
-0.13181	0.38074
0.58223	0.63582
1.39828	0.66132
0.76074	0.96742
0.76074	0.25320
1.70430	-0.33348
-1.33039	-0.18043
-1.35589	-0.48652
-0.15732	-0.30797
0.70974	0.71234
0.91375	-0.10391
-2.06994	0.10015
0.45472	0.07465
0.50573	-1.43031
0.17421	-0.00188
0.76074	1.42656
0.45472	0.68683
-0.08081	0.10015
0.12320	0.15117
0.53123	0.32972
1.42379	-0.02739
-1.63641	-0.23145
-0.76936	-0.05289
-1.10088	0.96742
0.55673	-0.10391
0.25071	-0.15492
1.55129	-0.05289
-0.23382	-0.28246
-0.23382	0.27871
0.58223	0.35523
0.58223	0.48277
0.83725	-0.18043
1.47479	-0.05289
0.96476	-0.05289
-1.27939	-0.15492
-1.27939	0.20219
0.53123	1.17148
0.93925	-0.02739
-1.86593	0.15117
0.73524	-0.51203
0.48022	-0.30797
-0.99887	0.43176
1.14327	0.40625
0.12320	0.68683
1.67880	0.58480
0.42922	0.35523
-3.37052	0.02363
0.76074	-0.33348
1.83181	-0.23145
-0.92237	-0.48652
0.60773	-0.15492
-0.08081	-0.18043
0.68424	0.30422
0.32721	0.53379
-0.02981	0.83988
-0.38683	-0.10391
0.48022	0.38074
1.04126	0.20219
-1.02437	-0.61406
0.40372	0.43176
0.60773	1.27351
-1.35589	-0.02739
-1.33039	-0.46102
-0.33583	-0.53754
3.92294	0.25320
-0.56534	1.73265
-0.53984	0.48277
0.48022	-0.74160
0.25071	-0.46102
0.93925	-1.14973
1.27078	-0.35899
0.50573	2.29382
-1.15188	0.73785
-1.20288	-0.35899
1.19427	0.10015
0.35272	-1.91496
-2.47797	0.40625
0.02119	1.17148
0.53123	1.06945
1.34728	0.63582
0.32721	0.32972
-0.08081	-0.05289
-0.20832	-0.05289
1.42379	0.15117
0.76074	-0.79262
0.09770	-0.38449
-0.05531	0.66132
0.40372	0.63582
-0.18282	-0.35899
-1.15188	-0.07840
0.32721	0.22769
0.19971	-0.00188
-0.36133	0.12566
-0.23382	0.25320
-0.00431	0.22769
-0.56534	0.22769
1.67880	0.35523
0.55673	0.66132
0.70974	-0.20594
0.14870	-0.30797
-0.79486	0.73785
-1.73842	0.45726
0.83725	0.30422
1.44929	-0.28246
1.16877	0.12566
-0.02981	-0.38449
1.50029	0.35523
-0.33583	0.20219
0.58223	1.22250
-0.71835	0.83988
-0.36133	-0.66508
-0.89686	-1.37929
0.32721	-1.17523
1.37278	0.61031
-1.25389	1.04394
-0.53984	1.65613
-0.92237	0.91640
0.70974	0.22769
1.14327	-0.86914
1.09226	-0.79262
1.72980	0.02363
0.55673	0.38074
-1.71292	0.50828
-0.51434	0.30422
-0.38683	0.55929
1.16877	-0.28246
0.19971	-0.74160
-0.41233	-0.38449
0.76074	0.20219
0.32721	0.63582
1.80631	0.38074
-1.50890	0.45726
-1.20288	0.78886
0.96476	0.61031
2.97938	-0.07840
-3.62554	0.25320
-3.93156	-0.33348
1.24527	-0.76711
1.75531	-0.46102
1.29628	-0.02739
1.11776	1.01843
0.93925	0.63582
0.65874	1.22250
0.32721	0.32972
0.09770	-0.15492
-0.08081	-0.35899
-0.61635	-0.10391
-0.48884	0.02363
-0.31033	0.73785
-0.13181	-0.28246
-0.48884	-0.56305
-0.48884	-0.76711
1.14327	0.07465
1.65330	0.15117
-1.81492	0.12566
-0.66735	0.40625
1.29628	0.58480
1.42379	0.78886
-1.20288	1.17148
0.50573	1.06945
1.06676	-0.00188
0.91375	-0.25695
3.48942	-0.25695
-0.00431	-0.71609
-5.74217	-0.69059
0.73524	0.25320
0.96476	-0.66508
1.55129	-0.25695
-0.66735	0.35523
0.55673	1.32453
0.96476	0.86539
-0.38683	0.68683
0.81175	0.32972
-1.02437	0.30422
-0.51434	0.12566
1.04126	0.12566
-0.89686	-0.20594
-0.00431	0.25320
0.68424	-0.10391
0.60773	-0.58856
1.37278	-0.25695
0.83725	0.02363
-1.07538	0.78886
-0.43783	-0.05289
-0.18282	0.02363
-0.61635	-0.99668
0.73524	-0.10391
1.16877	0.38074
-0.15732	1.35003
0.25071	0.63582
-0.02981	0.55929
0.53123	0.02363
0.35272	-0.46102
0.32721	0.40625
-0.28482	0.58480
-0.69285	0.71234
-0.13181	0.45726
0.32721	-0.10391
0.60773	-0.25695
-0.13181	-0.15492
0.19971	-0.35899
0.42922	-0.48652
0.35272	0.07465
-1.76392	0.63582
1.60230	0.66132
-0.33583	0.61031
0.14870	-0.33348
1.01576	-0.35899
1.72980	-0.33348
-0.89686	0.12566
-4.44159	0.15117
0.07220	0.43176
2.16333	0.35523
0.76074	0.27871
0.14870	0.20219
1.14327	0.83988
1.44929	0.30422
-0.20832	-0.92016
-2.75848	-0.76711
1.85731	-0.35899
0.91375	0.30422
-1.10088	0.86539
-0.64185	0.53379
0.45472	0.61031
0.27621	0.43176
-0.08081	0.48277
0.19971	0.35523
0.09770	0.25320
-0.15732	-0.46102
0.35272	-0.35899
0.88825	-0.61406
-0.61635	-0.58856
-0.53984	0.48277
0.19971	0.15117
0.96476	0.38074
0.48022	0.61031
-0.23382	0.12566
0.83725	0.76336
-0.05531	0.73785
0.60773	-0.05289
-0.08081	0.10015
0.30171	0.96742
1.11776	-0.51203
-1.40690	-0.97117
-0.66735	-0.66508
0.32721	-0.69059
-0.51434	-0.10391
1.01576	1.09496
1.42379	0.96742
0.25071	0.83988
0.93925	0.66132
0.37822	0.73785
-0.66735	0.32972
-0.15732	-0.18043
-0.18282	-0.66508
-0.05531	-0.43551
0.91375	-1.09871
-0.41233	-0.46102
-1.30489	0.20219
0.30171	0.15117
-0.13181	0.66132
2.03582	1.22250
0.99026	0.94191
0.07220	0.73785
-0.51434	0.32972
-2.32496	-0.35899
0.32721	-1.17523
2.23984	0.02363
1.42379	0.53379
-0.08081	0.25320
0.02119	0.55929
0.30171	0.30422
0.76074	0.25320
0.35272	-0.07840
-1.02437	0.43176
-0.99887	0.83988
1.57679	-0.76711
-0.99887	0.61031
-1.02437	-0.35899
0.45472	0.10015
0.86275	0.17668
1.78081	-0.84363
-0.48884	-0.07840
0.19971	0.27871
-0.36133	0.48277
-1.22839	0.02363
0.45472	0.25320
0.17421	0.43176
-0.48884	0.73785
-0.10631	0.38074
0.88825	-0.02739
1.14327	-0.18043
0.83725	-0.74160
0.63323	1.04394
-0.33583	-0.86914
-0.38683	-0.43551
0.48022	0.71234
-0.59084	0.66132
-0.56534	0.58480
0.19971	0.32972
-0.00431	-0.10391
0.78624	-0.23145
0.37822	0.32972
-0.25932	0.30422
-1.61091	0.35523
-0.05531	-0.48652
0.42922	-0.46102
0.99026	0.40625
2.87738	1.47757
0.12320	0.40625
-2.42696	-0.33348
1.34728	-0.25695
1.24527	-0.10391
0.02119	-0.43551
-0.13181	0.12566
-0.28482	0.25320
-0.15732	0.40625
0.07220	0.07465
-0.48884	0.12566
-0.25932	0.07465
1.21977	-0.10391
0.04670	1.12046
0.37822	0.50828
-0.92237	0.25320
1.29628	-0.38449
-0.31033	-0.58856
-1.33039	0.27871
1.11776	0.63582
1.67880	0.66132
-0.08081	-0.12942
-0.18282	0.35523
0.27621	-0.51203
2.03582	0.48277
0.78624	-0.10391
-2.47797	0.10015
-1.04987	0.45726
0.86275	-0.41000
-0.05531	0.99292
1.60230	-0.35899
-0.08081	-0.00188
0.48022	-0.02739
-1.04987	-0.30797
-1.22839	0.63582
0.99026	0.73785
0.55673	1.27351
0.55673	-0.79262
0.93925	-0.99668
-1.10088	0.40625
0.27621	-0.05289
0.35272	0.81437
-0.41233	0.10015
0.27621	-0.05289
0.83725	0.30422
0.22521	-0.00188
0.04670	0.55929
0.99026	0.63582
0.42922	0.15117
-0.99887	0.17668
-0.20832	-0.00188
-0.46334	0.30422
0.45472	-0.25695
1.32178	-0.66508
0.73524	-0.66508
1.06676	-0.10391
-0.89686	0.40625
-1.73842	0.68683
-1.89143	0.96742
0.76074	0.86539
0.96476	-0.56305
1.42379	0.27871
1.39828	-0.43551
0.53123	1.35003
-1.40690	-0.94566
-0.00431	-1.32828
0.63323	0.35523
0.76074	-0.20594
0.17421	0.68683
-0.87136	2.01323
0.88825	0.48277
1.09226	2.49788
-3.80405	-1.60887
-0.84586	-1.40480
0.99026	-0.79262
1.37278	-1.20074
1.37278	0.99292
1.01576	0.99292
0.48022	1.01843
0.73524	0.96742
-0.33583	0.55929
-0.89686	-0.43551
-0.31033	-0.02739
0.48022	-0.46102
-0.94787	0.02363
1.50029	0.12566
0.17421	-0.46102
0.25071	0.10015
-0.05531	0.22769
-0.18282	-0.10391
0.17421	-0.18043
0.50573	0.04914
0.65874	0.27871
-0.43783	0.17668
0.19971	0.45726
0.73524	0.78886
-0.43783	-0.25695
0.02119	0.48277
0.78624	-0.28246
-2.70748	0.12566
0.58223	0.73785
0.93925	0.83988
0.93925	0.45726
0.65874	-0.63957
0.35272	-0.30797
0.35272	0.04914
0.76074	1.22250
0.04670	0.25320
0.35272	-1.37929
0.55673	-1.07320
-0.79486	-0.20594
-1.02437	0.73785
0.50573	0.55929
-0.56534	0.76336
-0.99887	0.89089
0.73524	0.61031
0.96476	0.50828
1.16877	-0.25695
0.27621	-0.51203
0.14870	-0.15492
-0.20832	-0.63957
-0.00431	1.19699
0.32721	0.38074
0.17421	0.53379
0.55673	-0.81812
0.42922	-1.25176
-0.48884	-0.15492
0.42922	0.48277
-0.18282	0.89089
-1.43240	0.76336
-0.15732	0.71234
-0.38683	0.63582
1.67880	1.06945
1.01576	0.20219
1.37278	-0.58856
0.25071	0.22769
-1.89143	-1.58336
0.22521	-0.15492
0.14870	0.10015
-0.23382	0.30422
-0.87136	0.43176
-0.00431	0.50828
0.32721	-0.02739
0.99026	0.25320
0.37822	0.40625
-0.15732	-0.00188
0.50573	0.10015
0.45472	0.04914
-0.23382	-0.15492
-0.00431	0.35523
0.27621	-0.35899
-0.87136	0.43176
-0.38683	0.25320
0.27621	0.53379
0.27621	0.35523
-0.48884	0.12566
1.29628	0.12566
0.58223	-0.07840
-0.05531	0.22769
-1.33039	0.30422
0.99026	0.25320
1.37278	0.40625
-0.36133	-0.07840
-1.25389	-0.18043
-0.51434	-0.20594
1.14327	0.07465
0.73524	-0.12942
0.25071	0.10015
0.96476	0.38074
-0.33583	0.61031
0.48022	0.61031
-0.31033	0.02363
-0.59084	0.02363
1.44929	0.12566
1.14327	0.15117
-0.87136	0.02363
-1.27939	0.02363
-0.36133	-0.74160
1.04126	0.02363
0.42922	0.76336
-0.13181	0.40625
1.24527	0.58480
-0.05531	0.35523
-0.31033	0.17668
0.07220	0.35523
0.45472	0.10015
0.32721	-0.15492
0.35272	-0.30797
0.37822	-0.07840
-0.13181	0.15117
0.63323	-0.07840
-0.61635	-0.00188
-0.38683	0.68683
0.91375	-0.51203
1.19427	0.38074
0.22521	0.35523
-1.27939	0.15117
-0.25932	0.02363
0.14870	0.22769
-0.92237	0.71234
0.88825	0.20219
0.35272	0.66132
1.04126	0.55929
0.50573	0.27871
0.83725	-0.12942
0.27621	-0.00188
0.30171	-0.25695
-1.66191	-1.07320
-0.23382	0.43176
0.68424	-0.12942
-0.41233	-0.28246
0.42922	1.06945
0.91375	1.29902
0.27621	0.30422
0.30171	-0.15492
0.19971	-0.02739
0.04670	-0.63957
-0.76936	0.25320
1.29628	0.35523
-0.20832	-0.23145
-0.36133	0.04914
-0.89686	0.02363
-1.35589	0.81437
1.83181	-0.41000
0.37822	-0.25695
-0.18282	0.55929
1.04126	0.63582
1.24527	0.86539
0.42922	0.12566
-0.56534	-0.10391
0.27621	0.10015
-0.08081	0.48277
0.09770	0.22769
-0.31033	-0.56305
-0.13181	-0.99668
0.50573	0.27871
0.48022	0.50828
-0.13181	0.45726
-0.10631	0.38074
0.27621	0.43176
-0.48884	0.20219
-0.25932	0.30422
0.48022	-0.02739
0.93925	-0.28246
0.25071	-0.28246
0.12320	0.35523
-0.64185	-0.69059
0.22521	0.55929
-0.36133	0.27871
-0.23382	-0.05289
0.63323	0.40625
1.11776	0.55929
0.93925	0.32972
0.27621	0.10015
-0.46334	0.55929
1.14327	-0.46102
-1.78942	-0.10391
-1.35589	1.35003
0.35272	-1.32828
0.81175	0.04914
0.58223	0.12566
0.83725	0.30422
0.19971	0.32972
-0.28482	0.22769
-0.18282	0.50828
-0.02981	0.25320
0.45472	0.20219
0.09770	-0.18043
0.35272	-0.02739
1.11776	0.12566
-0.61635	0.68683
-2.47797	-0.28246
1.14327	-0.30797
0.45472	-0.23145
0.76074	-0.18043
1.11776	0.48277
0.17421	0.38074
-0.43783	0.17668
0.40372	0.61031
0.32721	-0.18043
-0.18282	0.10015
0.99026	0.38074
-0.20832	0.10015
-0.94787	0.94191
0.12320	-0.02739
0.32721	-0.18043
0.68424	-0.00188
-0.66735	0.15117
0.37822	-0.28246
0.96476	-0.05289
0.37822	0.22769
-1.12638	0.45726
0.37822	0.35523
-0.00431	1.12046
0.37822	0.12566
0.70974	-0.99668
-0.08081	0.25320
0.32721	-0.58856
-0.28482	0.55929
-0.20832	0.10015
0.09770	0.10015
0.78624	0.15117
-0.08081	0.58480
-0.64185	0.78886
0.40372	0.25320
1.14327	-0.25695
0.37822	-0.25695
-0.33583	-0.20594
0.32721	0.30422
-0.28482	0.32972
-0.97337	0.15117
0.19971	0.96742
0.35272	0.48277
0.70974	-0.28246
0.22521	-0.30797
0.40372	-0.00188
1.32178	-0.00188
-1.45790	-0.28246
-0.71835	0.12566
1.24527	0.07465
-0.02981	0.04914
-0.36133	-0.35899
0.60773	0.27871
0.17421	0.68683
0.58223	0.63582
0.25071	0.38074
0.04670	0.45726
0.30171	0.38074
0.09770	0.22769
-0.18282	0.25320
0.48022	-0.10391
0.50573	-0.25695
0.07220	-0.12942
-1.53441	-0.30797
-0.74385	0.04914
0.65874	0.53379
0.99026	0.40625
1.04126	-0.10391
-0.02981	-0.28246
-0.10631	0.66132
0.37822	0.50828
-0.74385	-0.07840
0.83725	-0.00188
0.63323	-0.84363
-1.20288	-0.25695
0.40372	0.45726
0.14870	0.61031
0.58223	0.68683
0.42922	1.52859
-0.13181	0.96742
0.19971	-0.38449
0.83725	-1.48133
0.40372	-0.30797
0.02119	0.40625
0.25071	0.17668
-0.33583	0.32972
-0.46334	0.32972
0.45472	-0.15492
-1.20288	-0.05289
0.22521	0.30422
0.40372	-0.07840
1.44929	0.30422
1.72980	0.35523
-1.73842	0.02363
-0.79486	-0.00188
0.63323	0.15117
1.04126	0.32972
1.98482	0.32972
-0.15732	0.25320
-1.17738	0.12566
-1.55991	0.48277
0.78624	0.32972
0.99026	0.17668
0.63323	-0.25695
-0.33583	-0.43551
0.09770	-0.00188
0.73524	0.27871
0.37822	-0.25695
-0.18282	0.15117
-0.38683	0.15117
-0.00431	0.30422
-0.13181	0.43176
-0.28482	0.12566
1.11776	0.89089
1.65330	1.06945
-2.19745	0.43176
-1.55991	-0.63957
1.01576	-0.86914
-0.00431	0.30422
1.65330	-0.15492
1.29628	0.04914
0.27621	0.25320
0.12320	0.10015
0.93925	-0.07840
-0.23382	0.17668
-1.55991	0.30422
-0.13181	0.35523
-0.66735	0.40625
0.91375	0.04914
-0.05531	-0.05289
0.48022	0.40625
-0.13181	0.27871
0.19971	0.04914
0.91375	0.22769
0.14870	0.43176
0.40372	0.22769
-0.59084	-0.46102
-0.48884	0.04914
-0.13181	0.10015
1.60230	0.27871
-0.31033	0.20219
-2.63097	-0.15492
0.48022	0.55929
1.72980	0.63582
0.30171	-0.30797
-0.08081	0.02363
0.99026	-0.33348
0.19971	0.27871
-0.02981	0.22769
-0.02981	0.45726
-0.46334	0.32972
0.91375	0.30422
-0.69285	0.17668
-1.50890	0.66132
0.42922	0.04914
0.88825	-0.23145
1.75531	-0.07840
0.58223	-0.20594
-1.73842	0.15117
-2.24845	0.10015
0.48022	-0.43551
1.39828	-0.63957
0.86275	0.55929
0.55673	1.06945
1.55129	0.68683
-0.00431	0.89089
-1.07538	-0.20594
0.88825	-0.43551
0.37822	-0.20594
-1.02437	0.30422
0.04670	0.15117
0.58223	0.30422
0.30171	0.45726
-0.25932	0.04914
0.70974	0.10015
-0.31033	0.22769
-1.30489	-0.35899
0.86275	0.55929
0.17421	0.27871
0.55673	0.27871
0.53123	-0.25695
0.22521	-0.25695
-0.28482	-0.07840
0.40372	0.12566
1.01576	0.68683
0.19971	0.32972
0.09770	0.12566
-0.97337	0.02363
0.42922	-0.12942
0.58223	-0.56305
0.60773	-0.12942
-0.02981	0.53379
0.32721	0.96742
0.07220	0.32972
-0.74385	1.19699
1.83181	0.32972
-0.15732	-0.05289
-0.56534	-0.84363
-1.27939	0.04914
0.27621	-0.69059
1.16877	-0.28246
0.83725	-0.00188
0.53123	0.53379
0.32721	0.45726
0.07220	0.96742
1.01576	0.07465
0.02119	-0.12942
-0.66735	0.53379
-1.22839	-0.56305
-0.74385	-0.00188
1.24527	-0.63957
0.83725	-0.35899
-1.10088	0.68683
-0.15732	0.71234
0.09770	0.58480
0.37822	0.25320
0.63323	0.25320
0.58223	0.78886
0.76074	0.50828
0.30171	0.07465
0.07220	-0.23145
0.83725	0.07465
-0.25932	-0.28246
-0.74385	-0.56305
-0.66735	-0.05289
1.14327	0.15117
0.07220	0.20219
-0.10631	0.25320
0.96476	0.17668
-0.15732	0.61031
-0.20832	0.10015
-0.43783	0.35523
-0.25932	-0.00188
1.29628	-0.43551
0.02119	0.15117
-0.74385	0.38074
1.11776	0.35523
-0.08081	0.30422
-0.25932	0.66132
1.14327	0.04914
0.76074	0.22769
0.27621	0.94191
0.14870	0.20219
0.25071	-0.86914
-0.61635	-0.15492
-0.23382	0.38074
0.19971	0.27871
0.45472	0.22769
0.09770	-0.00188
0.30171	0.10015
0.55673	0.55929
0.37822	-1.07320
-0.02981	-1.07320
-0.41233	0.25320
-0.25932	0.32972
-0.10631	0.63582
0.32721	1.27351
0.53123	0.50828
-0.00431	0.02363
-0.00431	-0.05289
0.22521	0.32972
0.12320	-0.56305
0.50573	-0.10391
-0.28482	0.40625
0.35272	0.99292
0.45472	0.27871
0.09770	0.48277
0.04670	-0.46102
0.22521	0.02363
-0.18282	-0.15492
0.02119	-0.89465
0.17421	-0.02739
0.22521	0.66132
0.27621	0.66132
0.40372	0.83988
0.40372	0.94191
-0.25932	0.25320
1.11776	0.15117
0.19971	-0.30797
-0.84586	-0.84363
-0.25932	-0.02739
-1.10088	-0.69059
0.35272	-0.02739
0.27621	0.48277
0.37822	0.61031
0.86275	0.22769
0.96476	-0.20594
1.14327	0.45726
-0.41233	0.27871
0.30171	0.89089
-0.56534	0.25320
-0.89686	0.32972
0.02119	0.50828
0.14870	-0.48652
0.65874	0.20219
0.37822	-0.18043
0.17421	-0.48652
-0.28482	-0.41000
0.07220	-0.05289
0.09770	-0.07840
0.32721	1.12046
0.22521	0.38074
0.02119	0.10015
-0.23382	0.83988
0.14870	-0.05289
0.37822	0.32972
0.60773	-0.51203
0.02119	-0.05289
-0.51434	0.35523
2.16333	0.22769
0.65874	0.02363
-3.42153	-0.20594
-1.66191	-0.10391
0.60773	-0.02739
1.75531	1.22250
1.37278	0.15117
0.35272	-0.48652
0.76074	-0.10391
0.48022	-0.23145
0.37822	0.25320
-0.05531	0.12566
-1.15188	0.53379
0.12320	0.35523
0.04670	0.63582
-0.25932	0.17668
0.25071	0.76336
0.73524	-0.02739
0.09770	-0.00188
-0.00431	-0.86914
0.37822	-0.66508
-0.23382	0.20219
0.42922	0.66132
0.40372	1.70714
1.39828	-0.43551
-0.15732	-0.58856
-0.43783	-0.15492
0.53123	-0.33348
0.45472	0.63582
0.30171	0.48277
0.50573	0.63582
0.12320	-0.18043
0.19971	0.30422
-0.43783	-0.25695
1.01576	0.22769
-1.81492	0.63582
-1.15188	-0.10391
0.78624	-0.07840
0.55673	0.40625
0.12320	0.07465
1.04126	-0.05289
0.99026	1.32453
0.27621	0.10015
0.83725	-0.56305
-0.13181	-0.89465
-0.84586	-1.17523
-0.08081	0.68683
0.07220	0.89089
1.37278	0.63582
-0.97337	0.81437
-0.71835	0.83988
1.27078	1.06945
-0.33583	0.32972
0.40372	-1.07320
0.27621	-0.97117
0.78624	-0.15492
-0.31033	0.32972
-0.79486	0.48277
0.37822	0.50828
0.55673	-0.12942
0.42922	0.02363
-0.00431	-0.02739
0.02119	0.25320
0.27621	0.10015
0.68424	0.22769
0.55673	-0.10391
-0.28482	0.38074
-0.51434	0.02363
-0.13181	0.35523
0.02119	0.38074
0.53123	0.04914
0.86275	0.04914
0.19971	0.55929
-1.17738	0.45726
0.27621	0.35523
0.63323	0.02363
0.53123	-0.12942
0.30171	-0.18043
0.12320	-0.25695
0.09770	-0.02739
-0.00431	-0.00188
0.14870	0.43176
0.02119	0.12566
0.60773	0.12566
0.48022	0.15117
-0.15732	0.35523
0.65874	1.32453
-0.23382	-0.51203
-1.25389	-0.12942
0.02119	-0.58856
0.30171	-0.56305
0.63323	0.66132
0.63323	0.71234
0.55673	0.50828
0.40372	0.55929
0.02119	0.10015
0.30171	0.12566
-1.17738	0.02363
1.09226	0.07465
0.68424	0.27871
-0.64185	-0.07840
-1.84042	-0.30797
0.27621	-0.02739
1.06676	0.10015
0.73524	-0.15492
0.17421	-0.33348
0.40372	0.81437
0.17421	0.12566
0.27621	0.45726
0.09770	0.94191
0.02119	-0.33348
0.12320	-0.15492
-0.08081	0.20219
-0.08081	-0.00188
0.32721	-0.07840
-0.02981	0.22769
-0.69285	0.78886
1.01576	0.35523
0.37822	-0.02739
-0.02981	-0.12942
-0.43783	-0.23145
0.60773	0.25320
-0.18282	0.50828
-0.33583	0.63582
0.93925	0.10015
1.11776	-0.23145
-0.02981	-0.23145
-0.23382	-0.99668
0.07220	0.27871
0.63323	0.30422
0.88825	-0.12942
-1.45790	0.66132
-0.87136	0.55929
-0.08081	0.83988
0.83725	0.40625
0.50573	0.02363
0.50573	-0.48652
0.07220	-0.38449
1.09226	0.63582
0.68424	0.40625
-0.92237	-0.23145
-0.33583	-0.07840
0.40372	-0.00188
0.60773	-0.15492
-0.33583	0.30422
0.30171	-0.07840
-0.61635	0.40625
-1.04987	0.20219
0.60773	-0.51203
0.40372	-0.00188
1.01576	0.63582
1.16877	0.58480
0.40372	0.73785
-0.02981	0.22769
-0.02981	0.66132
-0.10631	0.10015
-0.08081	-0.05289
-0.28482	0.02363
0.02119	-0.10391
0.09770	-0.63957
0.40372	-0.61406
0.27621	0.43176
0.30171	0.10015
0.86275	-0.18043
-0.15732	0.50828
-0.28482	0.68683
1.29628	-0.25695
1.16877	-0.02739
-1.99343	0.38074
-1.50890	-0.05289
0.32721	0.61031
0.70974	0.63582
0.83725	0.38074
0.53123	0.30422
0.55673	0.30422
-0.31033	0.04914
-0.31033	-0.05289
0.27621	-0.35899
0.40372	-0.84363
0.32721	-0.25695
0.02119	0.50828
0.40372	0.58480
0.53123	0.30422
0.07220	0.25320
-0.82036	-0.10391
-0.84586	0.40625
0.73524	0.32972
0.93925	-0.07840
-0.08081	0.02363
-0.23382	0.30422
0.48022	0.15117
1.60230	0.55929
0.73524	-0.35899
-1.76392	-0.12942
0.83725	0.35523
0.27621	0.02363
-1.17738	0.27871
0.07220	-0.58856
1.01576	-0.07840
-0.46334	0.68683
-0.20832	0.83988
0.70974	0.53379
0.53123	-0.02739
0.53123	-0.25695
0.14870	-0.56305
-0.00431	0.30422
-0.00431	0.66132
-0.15732	0.07465
0.12320	-0.12942
0.40372	0.04914
0.07220	-0.20594
0.22521	0.22769
-0.18282	0.96742
0.55673	0.25320
-0.36133	0.66132
0.42922	0.17668
0.58223	-0.86914
0.32721	-0.58856
-0.36133	-0.35899
-0.23382	0.32972
0.09770	0.81437
0.32721	1.17148
0.45472	0.27871
0.04670	-0.00188
-0.15732	-0.23145
0.86275	-0.02739
0.73524	0.02363
0.09770	0.63582
-1.50890	0.89089
-1.10088	0.27871
0.70974	-0.38449
2.18883	-0.46102
0.88825	-0.25695
-1.33039	-0.02739
0.53123	0.17668
-0.18282	0.17668
0.73524	0.27871
0.73524	0.17668
0.42922	0.55929
0.04670	0.76336
-0.02981	0.38074
-0.05531	0.10015
-0.31033	-0.46102
-0.02981	-0.56305
0.19971	-0.28246
0.30171	-0.15492
0.02119	0.55929
-0.08081	0.81437
0.09770	0.71234
0.12320	0.22769
-0.00431	0.30422
0.07220	0.07465
-0.02981	-0.38449
-0.00431	0.04914
0.37822	-0.00188
0.48022	-0.07840
0.25071	-0.05289
0.37822	0.53379
-0.10631	-0.20594
0.35272	0.73785
0.40372	-0.10391
0.83725	-0.25695
0.35272	0.38074
-0.61635	0.35523
0.37822	0.63582
-1.50890	-0.02739
1.11776	-0.25695
0.37822	0.04914
-0.53984	-0.00188
-0.18282	0.27871
0.53123	0.25320
0.40372	-0.05289
0.53123	0.27871
1.34728	0.83988
0.12320	-0.23145
-0.66735	0.17668
0.86275	-1.14973
0.02119	-0.48652
-0.92237	0.94191
-0.28482	0.94191
0.07220	0.73785
0.27621	0.58480
0.30171	1.01843
0.53123	0.48277
0.40372	-0.30797
0.22521	-0.35899
-0.08081	-0.86914
0.17421	-0.46102
-0.00431	0.04914
0.30171	0.15117
0.17421	0.15117
0.14870	-0.07840
-0.15732	0.50828
0.30171	0.45726
0.60773	0.96742
-0.48884	0.20219
0.07220	-0.30797
0.25071	0.76336
-0.69285	-1.22625
0.65874	-0.00188
0.60773	0.68683
0.60773	0.55929
-1.02437	0.30422
-0.43783	0.17668
1.04126	-0.15492
0.40372	0.12566
0.25071	0.17668
0.07220	0.25320
-0.25932	-0.05289
1.29628	0.45726
0.07220	0.25320
-1.25389	-0.71609
1.14327	0.48277
0.22521	0.32972
0.32721	-0.23145
-0.97337	-0.71609
-0.69285	-0.07840
0.91375	0.17668
0.81175	0.45726
0.65874	0.83988
0.22521	0.45726
0.09770	0.27871
0.25071	0.20219
-0.13181	0.07465
-0.02981	0.73785
0.40372	-0.43551
0.53123	-0.38449
0.14870	0.07465
-0.00431	0.30422
-0.53984	0.22769
-0.43783	0.40625
-0.69285	0.12566
-0.05531	0.02363
-0.08081	0.02363
1.42379	0.02363
0.48022	0.04914
0.14870	0.45726
0.22521	0.63582
0.07220	0.04914
0.40372	0.25320
0.07220	-0.48652
0.17421	-0.07840
-0.18282	0.61031
0.14870	0.10015
0.22521	0.30422
0.22521	0.10015
0.55673	0.38074
1.19427	0.35523
-2.04444	0.22769
-1.35589	0.02363
0.40372	0.25320
0.63323	-0.30797
1.06676	-0.69059
0.73524	0.55929
0.91375	-0.15492
-0.28482	0.35523
-0.25932	0.22769
0.07220	0.50828
-0.08081	-0.25695
-0.18282	-0.07840
0.40372	0.32972
1.14327	0.66132
0.17421	0.68683
-1.30489	0.96742
0.32721	0.25320
-0.15732	-0.46102
0.40372	-0.51203
-0.02981	-0.30797
-0.08081	-0.23145
0.27621	0.53379
1.14327	0.50828
1.14327	-0.05289
-2.04444	-0.02739
-0.20832	-0.61406
0.68424	-0.25695
0.37822	0.15117
0.93925	0.45726
1.01576	0.66132
0.09770	1.24800
-0.84586	0.30422
0.17421	-0.23145
-0.89686	-0.48652
-0.15732	-0.23145
1.42379	-0.07840
0.37822	0.43176
0.19971	1.32453
0.12320	0.78886
-0.08081	-0.30797
-0.13181	-0.25695
0.17421	-0.48652
0.12320	0.38074
0.35272	0.61031
0.04670	-0.25695
-0.20832	-0.41000
0.70974	-1.07320
-0.15732	-0.66508
-0.56534	0.96742
-0.08081	0.58480
0.60773	0.48277
0.42922	0.12566
0.73524	0.32972
0.22521	0.38074
0.32721	0.35523
-0.15732	0.55929
-0.20832	0.04914
0.50573	0.53379
0.63323	-0.30797
0.14870	-0.00188
-0.74385	-0.43551
0.12320	-0.46102
0.78624	0.53379
0.37822	0.27871
0.12320	0.07465
-0.02981	0.17668
-0.08081	0.35523
0.50573	0.32972
0.73524	-0.30797
-2.24845	0.68683
0.27621	0.15117
0.70974	-0.10391
0.55673	0.15117
0.50573	-0.05289
0.32721	-0.02739
-0.00431	0.43176
0.50573	0.30422
0.19971	0.32972
0.35272	-0.07840
-0.00431	0.04914
-0.08081	-0.43551
0.02119	-0.63957
0.22521	0.35523
0.37822	0.96742
0.02119	0.63582
0.12320	0.83988
-0.10631	0.27871
0.19971	-0.10391
0.14870	-0.15492
0.12320	0.02363
0.14870	-0.28246
0.14870	0.04914
0.78624	-0.07840
0.09770	-0.15492
-1.07538	-0.00188
0.48022	0.35523
0.14870	0.45726
0.68424	0.40625
0.48022	0.04914
0.63323	0.12566
0.30171	-0.05289
-0.05531	0.15117
-0.02981	0.53379
-0.13181	0.07465
0.12320	0.02363
-0.08081	0.20219
-0.23382	-0.00188
0.35272	0.50828
0.48022	-0.30797
0.48022	0.15117
-0.89686	0.38074
0.12320	0.04914
0.37822	0.30422
0.60773	0.10015
0.48022	-0.12942
0.30171	-0.28246
-0.36133	0.45726
0.25071	0.48277
0.86275	-0.33348
0.58223	0.15117
-1.12638	0.17668
-0.71835	0.25320
0.30171	0.40625
1.06676	0.45726
-0.84586	-0.05289
0.17421	0.22769
0.63323	0.25320
-0.38683	0.32972
0.50573	0.43176
0.12320	-0.30797
-0.20832	-0.46102
0.45472	-0.46102
0.35272	0.25320
0.37822	-0.05289
0.30171	0.20219
0.42922	0.71234
-0.00431	0.12566
-0.00431	0.07465
-0.28482	0.81437
-0.28482	-0.02739
0.19971	0.07465
0.30171	0.17668
-0.38683	0.10015
0.12320	0.25320
0.42922	0.20219
-0.36133	0.32972
0.32721	0.35523
0.96476	0.22769
0.22521	-0.38449
-0.10631	0.27871
-0.23382	0.68683
0.30171	-1.32828
0.25071	-0.48652
0.27621	0.66132
0.09770	0.40625
-0.23382	0.32972
0.22521	0.48277
0.76074	0.22769
0.45472	0.53379
-1.66191	-0.02739
0.02119	0.17668
1.34728	0.12566
0.22521	-0.81812
0.12320	-0.02739
0.14870	0.32972
0.30171	0.68683
0.45472	0.86539
-0.31033	0.02363
0.30171	-0.05289
0.25071	0.07465
-0.10631	0.12566
-0.23382	-0.12942
0.53123	0.38074
0.70974	-0.33348
-0.25932	0.15117
-0.25932	-0.07840
-0.51434	0.35523
0.48022	0.25320
0.45472	-0.05289
0.30171	0.25320
0.09770	0.38074
0.45472	0.61031
-0.08081	0.22769
-0.76936	-0.10391
0.19971	0.10015
0.12320	0.04914
-0.00431	0.15117
0.42922	0.10015
0.45472	-0.05289
0.42922	0.22769
1.44929	0.27871
-0.36133	0.17668
-0.66735	0.40625
0.35272	-0.61406
0.32721	-0.05289
-0.13181	0.27871
0.35272	0.38074
-0.13181	-0.05289
-0.13181	0.30422
-0.15732	0.45726
0.40372	0.02363
0.22521	-0.00188
0.09770	0.30422
0.04670	0.32972
0.37822	0.53379
0.19971	-0.43551
0.19971	0.04914
0.14870	0.15117
0.40372	0.27871
0.02119	0.25320
0.53123	0.32972
-0.00431	-0.02739
-0.15732	-0.30797
-0.84586	0.20219
0.48022	-0.15492
0.76074	0.45726
0.63323	0.10015
0.42922	0.32972
-0.02981	0.22769
0.40372	0.27871
-0.15732	-0.00188
-0.10631	0.22769
0.63323	0.17668
0.25071	-0.05289
-0.28482	0.04914
-0.31033	0.22769
0.27621	-0.02739
0.19971	0.04914
-0.08081	0.12566
-0.25932	0.22769
0.42922	0.25320
0.30171	0.20219
0.22521	0.10015
0.48022	0.30422
0.19971	0.38074
0.32721	-0.05289
0.02119	0.15117
-0.31033	-0.00188
0.83725	-0.48652
-1.30489	-0.15492
0.63323	0.58480
0.76074	0.25320
