0.14870	0.22769
0.35272	0.17668
0.22521	0.15117
0.19971	0.15117
0.19971	0.04914
0.22521	0.17668
0.02119	0.10015
0.19971	0.20219
0.07220	0.15117
-0.08081	0.07465
0.12320	0.12566
0.22521	0.20219
0.09770	0.15117
0.14870	0.15117
0.22521	0.25320
0.14870	0.02363
0.22521	0.17668
0.07220	0.12566
0.07220	0.04914
0.17421	0.15117
0.22521	0.07465
0.02119	0.17668
0.12320	0.20219
0.02119	0.10015
0.40372	0.12566
0.07220	0.20219
-0.00431	-0.00188
0.25071	0.30422
0.14870	0.15117
0.04670	0.04914
0.35272	0.12566
0.09770	0.15117
-0.00431	0.07465
0.22521	0.15117
0.17421	0.17668
0.12320	0.15117
0.12320	0.17668
0.25071	0.17668
0.09770	0.12566
0.07220	0.15117
0.19971	0.25320
0.12320	0.10015
0.17421	0.15117
0.12320	0.17668
0.14870	0.17668
0.02119	0.15117
0.12320	0.25320
0.27621	0.17668
0.07220	0.15117
0.04670	0.25320
0.19971	0.07465
-0.00431	0.15117
0.09770	0.15117
0.22521	0.20219
0.19971	0.04914
0.19971	0.20219
0.17421	0.12566
0.04670	0.07465
0.09770	0.10015
0.19971	0.22769
0.07220	0.12566
0.12320	0.10015
0.32721	0.12566
-0.31033	0.20219
0.12320	0.07465
0.32721	0.15117
0.32721	0.17668
-0.36133	0.07465
0.40372	0.25320
-0.00431	0.10015
0.27621	0.07465
0.12320	0.17668
0.07220	0.07465
0.22521	0.22769
-0.00431	0.02363
-0.00431	0.22769
0.07220	0.22769
0.27621	0.07465
0.30171	0.10015
0.09770	0.17668
0.04670	0.02363
0.04670	0.15117
0.30171	0.30422
-0.00431	0.10015
0.09770	0.15117
0.32721	0.20219
0.17421	0.12566
0.14870	0.15117
0.14870	0.10015
0.02119	0.15117
0.17421	0.30422
0.12320	0.20219
0.07220	0.04914
0.09770	0.15117
0.07220	-0.05289
0.30171	0.35523
0.07220	0.15117
0.14870	0.15117
0.09770	0.10015
0.07220	-0.02739
0.22521	0.12566
0.14870	0.30422
0.14870	0.25320
0.14870	0.30422
0.09770	0.30422
0.19971	0.38074
0.25071	0.10015
0.12320	-0.20594
0.12320	-0.18043
0.07220	-0.07840
0.22521	0.15117
0.04670	0.17668
-0.00431	0.35523
0.35272	0.32972
0.12320	0.20219
0.27621	0.17668
0.12320	0.10015
0.07220	0.40625
0.22521	0.02363
-0.00431	-0.05289
0.07220	-0.00188
0.02119	0.22769
0.17421	0.17668
0.25071	0.15117
0.19971	0.25320
0.32721	0.15117
0.19971	0.10015
0.07220	0.04914
0.14870	0.10015
0.17421	0.15117
-0.00431	0.02363
0.07220	0.27871
0.09770	0.15117
0.14870	0.12566
0.17421	0.10015
0.22521	0.25320
0.22521	0.10015
0.07220	0.12566
0.32721	0.25320
0.12320	0.27871
0.02119	0.10015
0.17421	0.20219
0.07220	0.10015
0.14870	0.04914
0.17421	0.17668
0.25071	0.07465
-0.02981	0.17668
0.22521	-0.20594
0.42922	0.15117
-0.02981	0.22769
0.19971	0.43176
0.04670	0.30422
0.19971	0.35523
0.07220	0.22769
0.09770	0.04914
0.17421	-0.25695
0.12320	-0.28246
0.12320	-0.05289
-0.00431	0.27871
-0.10631	0.40625
0.35272	0.48277
0.25071	0.10015
0.12320	0.27871
0.14870	-0.10391
-0.02981	0.20219
-0.18282	0.04914
0.53123	0.12566
0.40372	0.25320
0.14870	-0.07840
-0.13181	-0.05289
0.09770	0.12566
0.04670	0.15117
0.27621	0.15117
0.14870	-0.05289
0.45472	0.27871
0.02119	0.17668
0.04670	0.04914
0.27621	0.20219
0.12320	-0.25695
0.14870	0.45726
0.22521	0.25320
-0.08081	0.07465
0.04670	0.27871
-0.00431	0.35523
-0.15732	-0.10391
0.40372	0.25320
0.37822	0.04914
-0.10631	-0.07840
0.04670	0.12566
0.35272	0.43176
0.42922	0.30422
0.30171	0.25320
0.25071	0.27871
0.22521	0.12566
0.35272	0.25320
0.17421	0.43176
-0.08081	-0.20594
0.07220	-0.05289
-0.02981	-0.10391
0.04670	-0.05289
0.50573	0.96742
-0.02981	0.35523
-0.61635	-0.33348
-0.00431	-0.38449
0.09770	-0.66508
0.35272	0.25320
0.93925	0.96742
0.93925	0.04914
-0.74385	-0.05289
-0.79486	0.20219
0.19971	0.71234
0.37822	0.58480
0.30171	0.76336
0.63323	0.58480
0.63323	0.35523
0.22521	-0.05289
-0.53984	-0.35899
-0.13181	-0.48652
0.35272	0.15117
-0.10631	-0.30797
0.63323	-0.81812
0.19971	-1.73640
0.27621	-1.02219
-0.71835	0.73785
-0.89686	1.65613
0.32721	1.93671
0.76074	1.45206
0.40372	0.55929
-0.05531	0.68683
-0.02981	-0.66508
0.22521	0.04914
0.40372	-0.05289
0.37822	-0.43551
0.32721	-0.71609
0.68424	0.12566
0.14870	0.10015
-0.25932	0.07465
-1.20288	-0.07840
0.17421	-0.25695
0.86275	0.20219
1.01576	0.45726
0.27621	0.83988
0.48022	0.22769
0.04670	0.12566
-0.23382	0.12566
0.07220	0.10015
0.40372	0.12566
-0.31033	0.45726
-0.84586	0.02363
-0.43783	0.48277
0.60773	0.15117
0.40372	-0.12942
0.17421	-0.18043
0.68424	0.07465
0.35272	0.25320
0.02119	0.27871
-0.15732	0.04914
-0.13181	0.02363
0.81175	0.20219
0.55673	0.27871
0.22521	0.58480
-0.53984	0.35523
-0.69285	-0.23145
0.63323	-0.30797
1.19427	-0.48652
0.25071	0.58480
-0.48884	0.71234
-0.38683	-0.05289
0.83725	-0.76711
0.37822	0.27871
-0.02981	-0.07840
-0.48884	0.66132
-0.25932	0.91640
0.48022	0.45726
0.68424	0.55929
0.50573	0.35523
0.19971	0.20219
0.04670	-0.20594
0.07220	-0.20594
-0.02981	0.17668
-0.00431	-0.38449
-0.05531	-0.28246
-0.00431	-0.33348
-0.00431	-0.20594
-0.00431	0.12566
0.09770	0.07465
0.40372	0.22769
0.07220	0.63582
-0.36133	0.32972
-0.02981	0.43176
0.50573	0.04914
0.27621	0.35523
0.37822	-0.00188
0.48022	0.17668
0.07220	0.30422
0.37822	0.04914
0.35272	-0.02739
0.91375	0.63582
-0.02981	0.15117
-1.33039	-0.76711
0.73524	-0.58856
-0.48884	-0.28246
-1.07538	0.48277
0.27621	1.06945
1.14327	1.29902
1.06676	0.76336
1.04126	-0.35899
0.07220	-0.35899
-0.36133	-0.12942
-0.00431	0.20219
-0.18282	0.45726
0.14870	0.45726
0.09770	0.02363
0.17421	-0.20594
-0.25932	0.15117
0.42922	-0.07840
0.22521	-0.25695
0.04670	-0.05289
-0.00431	-0.30797
0.25071	0.04914
0.58223	0.68683
0.40372	0.45726
-0.48884	0.32972
-1.27939	0.53379
0.93925	0.63582
0.93925	0.48277
0.83725	-0.02739
-0.92237	-0.81812
-1.04987	-0.38449
0.50573	0.04914
1.44929	0.32972
-0.08081	0.12566
0.86275	0.30422
0.53123	0.43176
0.30171	-0.12942
0.17421	0.17668
-0.18282	0.15117
-0.10631	0.38074
-0.02981	0.38074
-0.10631	0.30422
-0.05531	0.35523
-0.18282	0.04914
0.14870	0.20219
0.14870	0.04914
0.32721	-0.00188
0.27621	-0.15492
0.37822	-0.07840
0.35272	-0.10391
0.09770	-0.12942
0.35272	0.17668
0.32721	0.15117
-0.23382	0.86539
-0.20832	0.35523
0.40372	0.43176
0.22521	0.17668
0.12320	-0.84363
0.25071	-0.58856
0.19971	0.04914
-0.18282	0.32972
-0.00431	0.61031
0.42922	0.96742
0.32721	0.83988
-0.18282	-0.25695
0.09770	0.58480
0.27621	0.17668
0.07220	-0.05289
0.22521	0.25320
0.22521	0.20219
0.40372	-0.28246
-0.10631	-0.25695
-0.08081	-0.18043
-0.00431	-0.23145
0.50573	0.20219
0.09770	0.12566
-0.23382	-0.05289
0.12320	-0.25695
0.45472	0.20219
0.42922	0.68683
0.02119	0.43176
0.09770	0.32972
0.14870	0.43176
0.60773	0.02363
0.58223	0.22769
-0.38683	0.45726
-1.04987	-0.02739
0.27621	-0.30797
0.70974	-0.15492
0.50573	0.32972
0.19971	0.73785
0.58223	0.07465
0.73524	0.58480
-0.69285	-1.07320
-0.99887	-0.94566
0.04670	0.91640
0.04670	0.25320
-0.10631	0.50828
1.09226	1.78367
0.86275	1.35003
0.27621	-0.63957
0.02119	-1.02219
-0.18282	-1.45582
-0.10631	-0.30797
0.50573	1.47757
-0.20832	1.65613
-0.05531	1.06945
1.19427	-0.51203
-0.31033	-1.25176
-1.55991	-0.71609
0.53123	-1.17523
1.44929	-0.15492
0.09770	0.32972
0.83725	1.09496
-0.38683	1.19699
-1.71292	0.32972
0.93925	1.75816
2.06133	0.81437
0.35272	0.32972
-1.33039	-1.65988
-2.50347	-0.56305
-0.13181	-1.94047
1.57679	-0.43551
1.83181	1.06945
0.73524	1.32453
-0.74385	1.14597
1.39828	-0.86914
0.12320	-0.30797
-0.33583	-0.05289
-0.25932	0.83988
-0.33583	1.19699
2.03582	0.53379
-1.10088	-2.11902
-0.20832	-0.97117
-0.74385	0.27871
-1.45790	1.40105
0.73524	2.01323
0.27621	0.35523
-1.20288	-0.76711
1.95932	-0.23145
-0.51434	0.12566
1.75531	-0.30797
-0.18282	0.35523
-1.07538	-0.02739
-0.69285	-0.76711
-1.99343	-0.69059
2.97938	-1.14973
2.36734	1.29902
0.83725	1.98773
0.65874	1.32453
0.73524	1.88570
0.55673	-0.18043
2.54586	0.38074
-3.29402	-0.79262
-9.10839	-0.53754
-1.73842	-2.14453
1.78081	-1.07320
1.78081	0.32972
-1.45790	1.52859
1.62780	0.91640
1.95932	0.73785
2.29084	1.80917
1.32178	0.32972
0.81175	-0.69059
1.65330	-0.61406
-0.33583	0.55929
-0.51434	-0.63957
0.04670	0.04914
-2.19745	-0.69059
1.52579	-0.10391
-0.61635	-0.12942
-2.29945	0.99292
-0.53984	0.45726
0.50573	0.02363
2.06133	-0.15492
1.55129	-0.10391
-2.42696	-0.89465
2.21434	0.35523
1.55129	1.96222
-2.19745	1.75816
-0.87136	1.27351
0.93925	-0.05289
0.73524	-0.20594
-0.66735	-0.20594
2.44385	0.35523
1.44929	0.73785
-2.52897	-1.35379
-3.19201	-0.81812
0.73524	-2.65468
0.17421	-0.69059
1.19427	0.71234
1.52579	0.78886
2.36734	1.78367
-1.40690	0.55929
-1.10088	-0.00188
0.25071	0.22769
-0.18282	0.61031
-0.89686	0.40625
0.53123	0.07465
-1.43240	-0.15492
1.52579	0.25320
1.75531	-0.25695
-0.15732	0.81437
-0.02981	0.04914
0.83725	0.25320
-1.99343	-0.05289
-1.40690	-0.18043
0.81175	0.17668
0.12320	-0.30797
1.14327	0.20219
0.65874	-0.00188
0.14870	0.96742
0.60773	-0.30797
1.39828	0.22769
-1.61091	-0.05289
-0.48884	0.43176
0.09770	0.76336
0.30171	0.40625
1.72980	0.25320
0.12320	-0.23145
0.55673	0.04914
-3.65104	-1.02219
-2.35046	0.22769
1.83181	-0.97117
1.65330	-0.10391
1.11776	1.37554
-1.33039	0.10015
-0.05531	0.45726
1.16877	0.61031
1.04126	1.12046
1.34728	1.35003
2.06133	-0.10391
0.02119	-0.18043
-2.14644	-0.66508
0.22521	-0.10391
0.50573	-0.92016
-0.02981	-0.92016
-0.02981	0.38074
0.30171	0.55929
1.50029	0.55929
-1.78942	0.30422
-2.88599	0.04914
-0.33583	0.35523
0.81175	0.48277
1.11776	-0.07840
1.39828	-0.02739
1.32178	0.12566
2.29084	1.42656
1.37278	0.15117
-4.05907	-0.71609
-0.99887	-0.12942
3.08139	-1.20074
-3.19201	-0.05289
0.19971	0.73785
0.99026	0.22769
0.22521	0.91640
1.21977	0.58480
1.95932	0.48277
-1.84042	0.07465
-0.71835	0.07465
1.44929	-0.46102
1.32178	0.04914
-1.99343	0.40625
-0.33583	-0.56305
0.48022	0.22769
1.42379	0.83988
0.35272	-0.43551
1.04126	-0.56305
-0.84586	-0.61406
0.60773	1.14597
0.22521	-0.12942
-0.66735	0.02363
-2.27395	0.86539
1.27078	1.47757
-0.15732	-0.02739
-0.76936	-0.00188
2.46935	-0.10391
1.78081	0.53379
-3.80405	-0.46102
-0.05531	0.02363
0.73524	0.45726
0.91375	0.96742
0.40372	-0.35899
0.45472	0.68683
2.57136	-0.33348
1.39828	-0.23145
-3.75305	-0.33348
-3.39602	-2.37410
1.88281	1.01843
0.83725	0.73785
0.76074	1.42656
1.06676	1.04394
0.88825	0.38074
1.75531	0.22769
-0.84586	-0.43551
-2.55447	-0.12942
0.91375	0.10015
0.96476	0.17668
0.73524	0.63582
-0.33583	0.07465
-0.38683	0.32972
0.04670	0.63582
0.91375	0.30422
2.36734	-0.58856
-3.01350	-1.55785
-4.97713	-0.25695
2.21434	0.20219
1.32178	1.12046
1.14327	0.86539
0.86275	0.45726
0.88825	0.32972
1.21977	1.22250
-1.35589	0.61031
1.16877	0.50828
1.52579	-0.35899
-2.60547	-0.33348
0.70974	-2.32308
0.55673	-1.17523
-0.41233	0.55929
0.14870	1.06945
0.60773	0.91640
1.21977	0.96742
-1.66191	0.83988
0.32721	0.12566
1.75531	-0.35899
-1.66191	0.15117
-2.35046	0.17668
0.86275	0.20219
1.62780	-0.20594
1.39828	-0.18043
1.24527	-0.66508
0.96476	0.43176
0.19971	0.38074
-1.07538	1.27351
0.25071	-0.15492
0.17421	-0.18043
-1.53441	0.30422
1.90832	0.02363
0.32721	0.17668
-1.61091	-0.23145
0.40372	0.30422
0.04670	0.81437
1.21977	0.20219
-2.40146	-0.15492
-0.64185	-0.05289
0.40372	0.10015
0.04670	0.35523
1.39828	0.12566
1.52579	0.02363
1.06676	-0.25695
0.02119	0.58480
-0.15732	-0.07840
0.32721	0.27871
-0.84586	-1.83844
0.27621	-0.69059
-0.18282	0.99292
0.17421	1.60511
0.04670	1.29902
-0.46334	0.45726
-0.10631	-0.18043
-0.10631	-0.48652
-0.05531	-0.61406
2.11233	-0.20594
-1.40690	1.22250
-0.97337	0.63582
-0.69285	0.17668
0.96476	-1.17523
0.88825	-0.92016
0.17421	0.22769
1.21977	0.07465
0.86275	0.40625
1.32178	1.27351
-0.92237	1.17148
-1.43240	0.48277
-0.61635	-1.86394
-0.69285	-0.41000
0.58223	-0.48652
1.29628	0.63582
0.60773	1.06945
0.30171	1.40105
0.12320	0.48277
0.48022	0.12566
0.12320	-0.92016
0.40372	-0.74160
0.86275	-0.20594
-1.33039	0.10015
-1.40690	0.96742
-0.23382	0.38074
0.78624	0.35523
1.19427	0.04914
1.55129	0.40625
-1.15188	0.12566
-0.20832	-0.74160
0.93925	-0.00188
0.60773	-0.81812
0.09770	0.53379
0.14870	0.61031
1.09226	0.20219
-0.48884	0.35523
0.02119	1.17148
-0.00431	0.12566
1.65330	-0.02739
-0.43783	0.10015
-3.03900	-0.05289
0.27621	-0.00188
0.30171	0.22769
0.58223	0.27871
1.14327	1.27351
0.60773	-0.12942
2.36734	-1.25176
0.99026	-1.09871
-2.42696	0.76336
-0.41233	0.99292
-1.43240	0.15117
-1.58541	0.20219
0.78624	-0.30797
1.37278	0.68683
1.39828	-0.18043
0.91375	-0.20594
0.96476	0.20219
-0.25932	0.07465
-0.56534	0.63582
-0.08081	0.58480
0.73524	0.58480
-0.10631	0.43176
-1.40690	-0.28246
-0.05531	-0.15492
1.60230	0.12566
1.01576	0.22769
-3.16651	0.15117
-2.98800	0.22769
3.13239	-0.46102
1.39828	-0.05289
0.91375	0.04914
0.30171	0.02363
0.65874	0.27871
0.65874	0.25320
0.86275	0.99292
-0.18282	-0.23145
-0.08081	-0.07840
-0.69285	-0.23145
-0.59084	-0.61406
0.32721	-0.02739
-0.05531	0.86539
0.60773	0.76336
0.63323	0.15117
0.93925	-0.07840
-1.25389	-0.00188
-0.15732	0.83988
-0.66735	0.12566
0.02119	0.02363
0.40372	-0.05289
0.02119	-0.05289
1.32178	-0.07840
1.04126	0.61031
-0.43783	0.94191
-1.55991	-0.46102
-1.66191	-0.63957
0.99026	-1.37929
1.62780	0.68683
1.32178	1.37554
0.32721	0.40625
0.78624	0.02363
0.40372	-0.51203
-0.41233	0.61031
0.93925	0.68683
-0.82036	0.89089
-1.55991	0.68683
-0.56534	-0.48652
0.17421	-0.02739
0.86275	-0.46102
0.40372	-0.18043
-0.41233	0.07465
1.34728	0.25320
1.39828	0.50828
-1.61091	-1.07320
0.65874	-0.99668
0.48022	-0.38449
0.70974	0.89089
-1.04987	1.17148
0.19971	0.83988
1.52579	0.55929
-0.38683	0.38074
-0.28482	-0.07840
-0.23382	0.45726
0.86275	0.12566
0.93925	-0.10391
0.17421	-0.38449
0.93925	-0.28246
0.04670	0.55929
-1.15188	-0.28246
-2.60547	-0.28246
1.01576	0.12566
0.48022	0.20219
0.86275	0.38074
0.60773	0.68683
0.25071	0.55929
-0.43783	0.22769
0.37822	-0.43551
0.81175	-0.25695
1.37278	0.02363
-0.31033	0.43176
-0.13181	0.30422
-0.20832	0.20219
-0.38683	0.45726
0.07220	0.48277
0.22521	-0.28246
0.22521	0.38074
0.91375	-0.38449
0.12320	0.02363
0.25071	-0.86914
0.91375	0.22769
0.30171	0.61031
-2.52897	0.45726
-0.05531	0.10015
0.30171	0.10015
1.44929	0.10015
0.68424	0.27871
0.99026	0.35523
0.65874	0.32972
-1.45790	0.55929
0.27621	-0.00188
0.50573	0.94191
-0.97337	-0.28246
0.50573	-0.56305
0.73524	-0.63957
0.12320	-0.81812
0.14870	0.55929
-0.05531	0.71234
0.55673	1.04394
0.32721	0.66132
-0.76936	0.22769
-0.18282	0.10015
0.02119	0.10015
0.88825	-0.46102
0.09770	-0.46102
0.22521	0.27871
0.40372	0.22769
0.02119	0.17668
0.02119	0.30422
-0.18282	0.45726
-0.69285	0.38074
1.14327	0.27871
-1.61091	-0.30797
1.01576	-0.18043
0.19971	0.07465
1.37278	0.17668
0.63323	0.50828
0.93925	0.55929
-0.41233	-0.23145
-1.76392	-0.07840
1.19427	0.20219
0.30171	0.25320
-0.92237	-0.07840
0.99026	0.25320
0.96476	0.58480
-0.64185	0.50828
-1.20288	-0.02739
1.44929	-0.23145
0.58223	0.81437
-0.59084	0.35523
0.30171	-0.05289
-0.33583	-0.43551
0.14870	-0.92016
0.81175	-0.20594
0.19971	0.48277
-0.56534	0.68683
-0.05531	0.73785
1.65330	0.20219
1.34728	-0.48652
-3.95706	-0.15492
-0.41233	0.66132
2.06133	0.43176
1.32178	-0.20594
1.34728	0.35523
1.37278	0.53379
-0.84586	0.55929
-0.82036	0.15117
0.22521	0.27871
1.09226	-0.61406
-0.64185	-0.48652
-1.12638	0.27871
0.04670	0.15117
-1.12638	0.25320
-0.79486	0.83988
1.70430	0.30422
0.88825	-0.97117
0.73524	-0.23145
0.32721	0.30422
0.81175	0.48277
-0.25932	0.30422
0.32721	0.22769
0.19971	0.30422
-0.00431	0.25320
-0.08081	-0.00188
-0.23382	0.12566
-0.05531	-0.23145
-0.13181	0.30422
0.30171	0.55929
0.27621	0.43176
-0.00431	-0.05289
0.32721	0.17668
-0.28482	-0.12942
0.32721	0.71234
1.62780	0.45726
-1.71292	0.12566
0.30171	-0.10391
0.04670	-1.04770
0.55673	0.22769
0.48022	0.27871
0.91375	0.20219
0.35272	0.63582
1.72980	0.32972
-1.33039	0.63582
-2.12094	0.22769
1.67880	0.02363
0.68424	0.17668
-0.56534	-0.02739
-0.20832	-0.05289
0.55673	-0.38449
-0.08081	0.38074
0.12320	0.35523
1.16877	-0.61406
-0.61635	-0.15492
-0.56534	0.17668
-0.61635	0.55929
1.11776	0.55929
0.02119	0.61031
-0.59084	0.10015
1.04126	0.45726
0.14870	-0.23145
0.65874	-0.00188
0.27621	-0.05289
-0.38683	0.10015
0.53123	-0.07840
-0.05531	-0.05289
-0.46334	0.22769
0.65874	0.30422
0.27621	-0.00188
0.02119	-0.02739
0.17421	0.35523
0.25071	0.27871
-0.76936	0.04914
0.04670	0.12566
1.19427	0.12566
-0.51434	0.53379
0.12320	0.55929
-0.79486	0.04914
0.81175	0.22769
1.78081	0.07465
0.40372	-0.43551
-0.79486	-0.10391
-0.79486	0.32972
-0.92237	0.32972
0.99026	0.40625
0.50573	-0.38449
0.02119	-0.56305
0.42922	0.15117
1.34728	0.58480
0.70974	0.43176
-2.04444	0.32972
-1.04987	0.20219
0.70974	0.43176
0.27621	0.91640
-0.13181	0.81437
0.37822	-0.69059
1.95932	-0.99668
-0.59084	-1.02219
0.14870	-0.56305
0.81175	0.66132
-1.68742	1.09496
0.88825	0.73785
0.50573	0.12566
-1.07538	0.15117
0.42922	0.40625
0.42922	0.38074
0.65874	0.15117
0.42922	0.04914
-0.25932	0.30422
0.07220	0.32972
-0.02981	-0.07840
0.22521	-0.69059
0.48022	-0.23145
0.76074	0.20219
-1.40690	0.27871
-0.36133	0.48277
-0.71835	0.53379
0.65874	0.30422
0.81175	0.35523
0.63323	0.04914
0.76074	-0.35899
-1.40690	-0.66508
-0.56534	0.27871
0.93925	0.76336
0.73524	0.32972
0.63323	0.12566
0.96476	0.15117
0.37822	0.35523
-1.25389	0.35523
0.02119	-0.38449
-0.10631	-0.48652
0.76074	0.04914
0.32721	1.17148
0.27621	0.38074
-0.18282	-0.23145
-0.79486	0.53379
1.55129	-0.74160
-0.51434	-0.53754
-0.25932	-1.35379
0.02119	0.32972
0.37822	0.94191
0.27621	1.12046
0.32721	0.96742
1.78081	0.66132
0.04670	0.12566
-1.58541	0.07465
0.27621	-0.05289
-1.61091	0.43176
1.34728	0.02363
1.11776	0.02363
1.34728	-0.02739
0.88825	-1.07320
-0.18282	-0.56305
-0.25932	-0.05289
0.27621	0.61031
-0.13181	0.94191
0.07220	0.35523
-0.08081	-0.10391
-0.82036	0.02363
-0.51434	0.30422
0.60773	0.12566
0.07220	0.25320
-0.61635	0.20219
-1.33039	0.55929
0.70974	0.10015
1.24527	-0.02739
1.06676	0.10015
-0.05531	0.17668
0.30171	-0.20594
0.63323	0.25320
-0.89686	-0.43551
0.22521	0.17668
0.99026	0.61031
-0.69285	0.30422
0.32721	0.20219
1.75531	0.27871
1.19427	0.30422
-1.89143	0.25320
-0.74385	0.04914
0.45472	0.07465
0.17421	0.32972
-0.00431	-0.23145
2.01032	0.66132
-0.31033	-0.25695
-3.24301	-0.10391
-0.41233	-0.18043
-0.08081	-0.25695
1.34728	0.66132
1.39828	0.48277
1.90832	0.40625
0.70974	0.07465
-0.87136	0.48277
0.53123	0.12566
-1.86593	-0.10391
0.96476	-1.02219
1.11776	0.15117
-1.02437	0.50828
-2.04444	0.07465
0.63323	0.96742
0.88825	0.55929
1.09226	-0.00188
-1.55991	-0.92016
-0.61635	-0.56305
0.02119	0.71234
0.70974	0.94191
0.45472	0.38074
0.22521	0.48277
0.78624	0.25320
0.30171	-0.00188
0.17421	0.04914
0.58223	-0.15492
-0.31033	-0.07840
0.60773	-0.76711
0.76074	0.15117
-1.20288	0.12566
-0.66735	0.10015
0.27621	-0.56305
0.27621	0.50828
0.32721	1.37554
-0.46334	0.53379
0.58223	0.50828
-0.71835	-0.02739
0.09770	-0.05289
0.76074	0.38074
0.81175	0.40625
0.25071	-0.35899
0.42922	0.04914
0.48022	-0.12942
0.37822	0.35523
0.27621	0.10015
-0.56534	0.04914
-0.28482	-0.00188
-0.69285	0.04914
-1.27939	-0.07840
0.37822	0.40625
0.17421	0.20219
0.45472	0.48277
0.76074	0.30422
0.91375	0.45726
0.55673	-0.30797
-0.08081	-0.20594
0.22521	0.22769
-1.10088	0.32972
-0.51434	0.63582
0.40372	0.58480
0.93925	-0.58856
0.73524	-0.25695
0.37822	-1.17523
-0.53984	-0.05289
0.12320	1.04394
2.11233	0.83988
-0.82036	0.76336
-0.25932	0.48277
-1.35589	0.12566
0.09770	0.07465
0.63323	-0.18043
1.39828	0.17668
0.93925	0.27871
-0.31033	0.20219
-0.02981	0.04914
-0.10631	-0.02739
-0.74385	-0.07840
0.32721	0.02363
0.81175	-0.23145
0.73524	0.17668
-0.84586	0.25320
0.04670	0.17668
0.02119	0.43176
0.22521	0.32972
0.37822	0.35523
1.09226	-0.46102
0.12320	0.32972
-0.10631	0.35523
-0.48884	0.55929
-1.68742	0.20219
0.02119	0.04914
0.76074	0.43176
0.53123	0.30422
0.12320	0.15117
0.27621	0.07465
0.42922	0.35523
1.11776	0.53379
0.91375	-0.53754
1.14327	-0.79262
-0.31033	0.22769
-1.96793	-0.15492
-0.05531	0.32972
-0.10631	0.38074
-0.25932	0.30422
0.99026	0.55929
0.76074	0.55929
-2.06994	0.22769
0.17421	-0.38449
0.32721	-1.17523
0.22521	-0.41000
-0.33583	0.30422
-0.48884	1.06945
1.24527	1.01843
1.21977	0.58480
0.83725	0.27871
0.32721	-0.33348
-0.02981	-0.46102
-0.66735	-0.25695
0.40372	0.61031
0.04670	0.35523
-0.10631	-0.35899
-0.25932	0.15117
0.37822	0.50828
-0.38683	0.35523
-1.22839	0.32972
0.42922	0.07465
0.27621	-0.20594
0.35272	-0.12942
1.11776	-0.41000
-0.38683	0.53379
-0.38683	0.27871
0.45472	0.63582
0.68424	0.25320
-0.00431	-0.05289
2.26534	-0.46102
-0.51434	-0.10391
-2.09544	0.53379
0.45472	0.43176
-1.12638	0.17668
1.11776	0.55929
1.24527	0.20219
0.50573	0.55929
0.07220	0.27871
1.52579	-0.35899
-0.59084	-0.35899
0.73524	0.12566
0.55673	0.38074
-1.71292	0.20219
-0.18282	-0.12942
-1.86593	-0.15492
0.19971	0.15117
1.16877	0.99292
1.47479	0.20219
-0.00431	-0.05289
0.68424	-0.30797
-0.38683	-0.51203
-0.31033	0.20219
1.24527	0.30422
-0.51434	0.45726
-0.10631	0.76336
0.17421	0.63582
0.68424	0.30422
0.32721	0.12566
0.04670	0.20219
0.68424	0.10015
-0.43783	-0.12942
0.19971	-0.56305
0.32721	0.17668
-0.92237	-0.02739
0.25071	0.04914
0.70974	0.15117
0.25071	0.35523
-0.38683	0.55929
0.07220	-0.00188
1.04126	0.04914
-0.53984	0.10015
0.12320	0.66132
-0.64185	-0.10391
1.65330	-0.33348
-0.20832	0.15117
0.45472	0.10015
-0.25932	-0.30797
0.48022	0.76336
-0.08081	0.22769
0.48022	0.30422
-0.38683	0.27871
-0.48884	0.45726
0.37822	0.04914
0.37822	0.15117
0.04670	0.04914
1.60230	0.35523
0.12320	0.15117
-1.71292	-0.02739
0.63323	-0.12942
-0.10631	-0.18043
-0.31033	0.15117
0.58223	0.71234
-0.36133	-0.12942
1.34728	-0.12942
-0.15732	-0.61406
-0.28482	0.10015
-0.38683	0.73785
0.48022	0.68683
0.91375	0.68683
0.22521	0.50828
0.14870	0.35523
-0.08081	-0.05289
-0.61635	-0.58856
0.96476	-0.18043
0.27621	0.50828
1.39828	-0.20594
0.86275	0.38074
-1.99343	0.48277
0.07220	0.15117
0.88825	0.17668
0.37822	0.15117
-0.92237	-0.15492
1.27078	0.17668
-0.25932	0.45726
-0.71835	-0.12942
-0.18282	0.91640
1.29628	0.04914
-0.13181	-0.28246
-0.05531	-0.46102
0.45472	-0.58856
-0.02981	0.35523
0.30171	0.45726
0.73524	0.48277
0.91375	0.50828
0.30171	0.50828
-0.28482	0.55929
-1.73842	-0.46102
-0.87136	-0.20594
0.91375	0.17668
0.96476	0.40625
0.78624	-0.00188
0.96476	-0.02739
1.57679	0.20219
-1.84042	0.38074
-1.12638	0.25320
0.99026	-0.46102
0.07220	-0.38449
0.45472	-0.00188
0.37822	0.20219
0.19971	0.63582
0.60773	0.50828
-0.53984	-0.00188
-0.10631	0.07465
0.12320	-0.15492
0.02119	-0.02739
0.09770	0.35523
1.09226	0.38074
-0.36133	0.48277
-0.99887	0.40625
0.53123	0.12566
0.32721	-0.28246
0.60773	0.12566
0.73524	0.27871
1.09226	-0.12942
0.99026	-0.12942
-2.27395	-0.18043
-2.04444	0.66132
-0.10631	0.22769
1.01576	0.04914
1.37278	0.12566
0.88825	-0.02739
0.17421	0.38074
0.09770	0.53379
0.83725	0.53379
-0.05531	0.04914
-0.31033	-0.30797
0.19971	-0.15492
-0.05531	0.02363
-0.18282	0.17668
1.09226	0.55929
-0.08081	0.12566
-0.33583	0.38074
-0.41233	-0.71609
0.27621	0.15117
0.65874	0.71234
1.24527	0.17668
-0.48884	-0.10391
-0.59084	0.22769
0.48022	0.04914
-0.31033	0.55929
0.93925	0.40625
0.09770	0.35523
-0.48884	-0.18043
0.73524	-0.41000
-1.33039	-0.20594
0.55673	0.30422
1.42379	0.71234
0.09770	0.38074
0.25071	0.43176
0.63323	-0.15492
0.32721	0.20219
0.27621	0.35523
-0.08081	-0.33348
-0.38683	-0.35899
-0.00431	-0.30797
0.40372	0.40625
-0.74385	0.63582
0.19971	-0.00188
-0.31033	-0.02739
0.60773	0.22769
0.86275	-0.10391
-0.97337	0.45726
0.32721	0.32972
-0.89686	0.35523
1.21977	0.50828
0.65874	-0.00188
1.90832	-0.05289
-0.08081	-0.46102
-2.04444	0.22769
0.86275	0.15117
1.90832	0.27871
-0.13181	0.25320
-1.22839	0.32972
-0.38683	0.27871
0.12320	0.22769
0.53123	0.25320
0.48022	0.30422
0.76074	-0.02739
0.68424	-0.05289
-0.20832	-0.63957
-2.09544	-0.35899
0.86275	0.04914
0.68424	0.66132
0.63323	0.22769
0.50573	0.35523
0.25071	0.50828
0.12320	0.15117
0.32721	-0.05289
-0.15732	-0.25695
-0.18282	0.43176
0.14870	-0.25695
-0.38683	0.07465
-0.13181	-0.20594
0.68424	0.86539
0.09770	0.63582
-1.02437	0.81437
0.86275	0.63582
1.09226	-0.38449
-0.28482	-0.66508
-1.40690	-0.92016
0.81175	-0.10391
0.73524	0.55929
-0.05531	0.32972
1.04126	0.25320
0.07220	0.35523
1.11776	0.45726
-2.42696	0.15117
-0.23382	0.35523
1.62780	0.27871
0.86275	-0.51203
1.60230	0.15117
-0.00431	-0.07840
-0.99887	-0.05289
-0.36133	0.25320
0.81175	0.43176
0.14870	0.10015
0.42922	0.43176
0.30171	-0.02739
0.12320	0.66132
-1.45790	-0.41000
-0.20832	-0.05289
-0.15732	-0.28246
1.27078	0.07465
1.24527	0.48277
-0.87136	0.50828
-1.30489	0.27871
0.68424	0.07465
0.32721	0.35523
0.68424	0.45726
1.06676	0.22769
0.93925	0.12566
0.12320	-0.51203
0.19971	-0.23145
1.44929	0.32972
-1.17738	0.15117
-1.91693	0.02363
-0.15732	0.55929
0.45472	1.40105
1.11776	-0.28246
0.32721	-0.76711
0.53123	-0.58856
0.14870	0.07465
-0.31033	0.45726
0.58223	0.40625
0.14870	0.20219
-0.59084	0.15117
0.53123	0.22769
-0.84586	0.58480
-1.81492	0.02363
1.29628	0.58480
0.83725	0.45726
0.83725	0.25320
0.32721	-0.46102
1.09226	-0.20594
-0.43783	-0.63957
-0.28482	0.27871
0.73524	0.30422
-0.36133	0.35523
0.07220	-0.05289
0.81175	0.22769
0.63323	0.35523
-0.05531	0.61031
-0.71835	-0.25695
0.45472	-0.15492
0.88825	0.53379
0.30171	0.35523
-1.04987	0.02363
-0.13181	0.07465
0.27621	0.02363
1.19427	0.76336
0.32721	-0.00188
-1.73842	-0.12942
0.68424	-0.05289
0.73524	0.30422
0.22521	0.10015
0.22521	0.27871
0.86275	0.38074
-0.38683	-0.28246
0.30171	0.25320
0.17421	-0.10391
0.50573	-0.15492
0.14870	0.35523
-0.84586	0.35523
-0.31033	0.22769
0.12320	0.30422
0.68424	-0.02739
-0.20832	-0.02739
1.14327	-0.00188
-0.20832	0.22769
-1.33039	0.07465
0.86275	0.35523
-1.25389	0.04914
1.01576	0.22769
1.32178	-0.07840
-0.41233	0.55929
0.37822	0.71234
0.65874	-0.02739
0.45472	0.30422
0.40372	-0.41000
-0.08081	-0.33348
-0.20832	-0.07840
-0.18282	0.45726
0.14870	0.43176
-0.08081	0.20219
-0.51434	-0.00188
-0.10631	0.15117
0.02119	0.17668
1.19427	-0.10391
1.85731	0.25320
1.04126	-0.02739
-3.26852	-0.20594
-1.35589	0.32972
0.50573	0.45726
1.04126	0.30422
1.42379	0.20219
0.19971	0.25320
0.07220	0.17668
0.35272	0.38074
1.09226	-0.28246
1.52579	-0.07840
-1.38139	-0.15492
-1.12638	0.20219
0.09770	0.83988
0.32721	0.45726
0.19971	0.15117
0.14870	0.30422
0.32721	-0.33348
1.01576	-0.07840
0.99026	0.63582
-1.10088	-0.00188
-0.66735	-0.10391
-0.00431	-0.20594
0.32721	0.22769
-0.97337	0.32972
0.63323	0.58480
0.93925	0.27871
1.47479	0.12566
1.47479	0.25320
-1.40690	-1.12422
-1.35589	-0.00188
0.19971	0.50828
-0.20832	0.58480
-0.71835	0.55929
-0.23382	0.27871
0.96476	0.38074
1.67880	0.35523
1.65330	0.02363
-1.07538	-0.23145
-1.40690	0.68683
-0.18282	0.35523
0.02119	-0.48652
0.78624	-0.46102
0.55673	-0.30797
0.78624	0.07465
0.50573	0.12566
0.63323	0.45726
-1.99343	0.53379
-0.71835	0.20219
0.40372	0.55929
0.22521	0.17668
0.55673	0.15117
0.58223	-0.00188
0.27621	0.20219
0.27621	0.15117
0.17421	0.04914
-0.00431	-0.25695
-0.28482	0.17668
0.40372	-0.18043
1.37278	0.38074
-0.46334	0.32972
-1.84042	0.32972
0.02119	0.27871
0.40372	-0.02739
0.48022	0.76336
0.19971	0.30422
0.88825	0.71234
0.83725	-0.48652
-0.13181	-0.33348
-0.53984	0.15117
-0.31033	-0.02739
0.19971	-0.12942
1.75531	0.22769
1.11776	-0.38449
-2.24845	-0.05289
-0.53984	-0.33348
0.45472	-0.23145
0.93925	0.55929
0.45472	0.58480
-0.10631	1.12046
0.35272	0.55929
1.34728	0.17668
-0.08081	-0.00188
-1.63641	0.02363
-0.18282	0.07465
-0.08081	0.25320
0.78624	0.15117
0.65874	-0.12942
0.30171	-0.28246
0.17421	0.10015
0.42922	0.15117
0.58223	-0.00188
0.12320	0.22769
-0.25932	0.27871
-0.25932	-0.10391
-0.43783	0.25320
0.48022	0.04914
1.09226	0.27871
0.25071	0.10015
-1.02437	0.48277
-0.02981	0.66132
0.27621	0.12566
0.42922	0.12566
0.73524	-0.05289
0.60773	-0.33348
-1.02437	-0.12942
0.73524	0.02363
-0.46334	0.61031
0.25071	0.20219
-0.18282	-0.20594
0.22521	-0.10391
0.27621	0.02363
0.14870	0.68683
0.55673	0.27871
0.35272	-0.05289
-0.79486	0.30422
0.02119	0.94191
-0.31033	0.35523
0.12320	0.20219
1.01576	-0.25695
0.96476	-0.10391
0.53123	-0.43551
1.04126	-0.23145
0.09770	0.25320
-0.69285	0.43176
-0.28482	0.04914
-0.36133	0.04914
-2.19745	0.20219
1.01576	0.35523
0.68424	0.32972
1.09226	0.07465
0.02119	-0.38449
0.07220	-0.25695
0.88825	0.27871
0.09770	0.66132
-0.46334	0.40625
0.42922	0.40625
0.09770	0.20219
-0.31033	0.17668
0.55673	-0.05289
0.40372	-0.00188
0.30171	0.27871
-0.87136	0.25320
0.19971	0.12566
-0.15732	-0.76711
0.32721	-0.46102
0.30171	0.04914
0.58223	0.86539
-0.48884	0.38074
0.48022	0.32972
0.09770	0.30422
-0.02981	-0.12942
0.25071	0.15117
-0.20832	0.22769
0.19971	0.15117
0.22521	-0.25695
1.57679	-0.10391
-0.08081	0.02363
-3.42153	0.63582
-0.59084	0.20219
0.88825	-0.02739
1.06676	-0.07840
0.93925	0.10015
1.34728	0.27871
0.63323	0.50828
-0.61635	0.30422
-0.18282	0.22769
0.68424	-0.33348
-0.33583	0.04914
-0.25932	-0.10391
0.07220	0.30422
0.30171	0.27871
1.01576	0.17668
0.19971	0.66132
-0.74385	-0.12942
-0.48884	-0.10391
0.27621	-0.12942
0.37822	0.07465
-0.43783	0.10015
0.07220	0.12566
0.86275	0.20219
1.21977	-0.35899
0.91375	0.12566
-0.18282	0.40625
-1.02437	0.55929
-0.13181	0.25320
0.86275	0.58480
0.40372	0.12566
-0.53984	0.04914
-0.02981	0.25320
0.68424	-0.07840
0.53123	-0.18043
-0.74385	-0.23145
0.48022	-0.10391
-0.48884	0.15117
-0.46334	0.07465
0.30171	0.30422
0.42922	0.12566
0.48022	0.61031
0.35272	-0.20594
0.53123	0.32972
0.19971	0.50828
0.07220	0.27871
-0.00431	-0.02739
-0.31033	0.12566
-0.99887	0.32972
0.96476	0.48277
0.09770	-0.02739
-0.20832	0.25320
-1.20288	-0.71609
0.96476	0.04914
1.19427	-0.18043
0.83725	0.50828
0.58223	0.48277
-0.05531	0.22769
-0.23382	0.02363
-0.82036	0.63582
0.27621	0.04914
0.48022	-0.18043
0.60773	-0.23145
-0.25932	-0.18043
-0.59084	0.32972
0.04670	0.35523
0.17421	0.30422
-0.51434	0.43176
0.48022	0.22769
0.50573	-0.35899
0.42922	0.22769
0.45472	0.17668
0.27621	0.30422
0.14870	0.07465
0.19971	0.25320
-0.23382	0.04914
0.07220	-0.07840
0.09770	-0.28246
0.35272	0.27871
-0.13181	0.38074
0.12320	0.04914
0.88825	0.30422
-0.31033	0.27871
-1.17738	0.22769
-0.48884	0.40625
0.91375	0.45726
1.09226	0.25320
1.42379	-0.76711
0.25071	-0.30797
-0.69285	0.10015
0.12320	0.32972
-0.69285	0.38074
0.63323	0.27871
0.83725	0.66132
1.24527	0.30422
0.09770	-0.05289
-1.02437	-0.35899
-0.94787	-0.35899
0.22521	0.07465
0.25071	0.68683
0.99026	0.89089
-0.00431	0.48277
-0.61635	-0.33348
-0.38683	-0.30797
0.65874	-0.38449
0.83725	-0.12942
0.48022	0.50828
-0.08081	0.71234
0.19971	0.50828
0.53123	0.15117
0.42922	0.02363
-0.66735	-0.43551
-0.48884	-0.12942
0.37822	-0.30797
0.58223	0.89089
-0.20832	0.89089
-0.08081	0.15117
0.30171	-0.20594
0.40372	-0.38449
-0.56534	0.30422
0.45472	0.40625
0.68424	0.17668
0.70974	0.58480
0.93925	-0.18043
-0.79486	-0.05289
-0.64185	-0.48652
-0.10631	0.04914
0.83725	0.61031
1.11776	0.15117
-0.43783	0.25320
-0.94787	0.15117
0.96476	0.45726
1.06676	-0.18043
0.48022	-0.20594
-1.43240	-0.05289
-1.48340	0.10015
1.34728	0.66132
1.09226	0.86539
0.88825	0.50828
0.73524	0.12566
0.42922	-0.05289
-0.05531	-0.05289
0.58223	-0.35899
-0.23382	-0.30797
-0.82036	0.15117
-0.33583	0.25320
0.68424	0.40625
0.25071	0.40625
-0.79486	0.02363
1.65330	0.58480
-0.10631	0.35523
-1.76392	-0.05289
0.68424	-0.25695
0.60773	-0.76711
0.63323	-0.02739
0.76074	0.68683
0.73524	0.76336
-0.38683	0.22769
-0.15732	0.25320
0.07220	0.22769
-0.02981	0.45726
0.37822	-0.07840
-0.48884	-0.25695
0.65874	0.10015
0.14870	0.02363
0.14870	0.50828
0.27621	-0.02739
-0.08081	0.07465
0.70974	-0.12942
0.27621	0.53379
-0.61635	0.43176
0.35272	0.50828
-0.00431	0.12566
0.55673	-0.38449
0.40372	-0.07840
0.30171	-0.02739
0.42922	-0.02739
-2.32496	0.38074
0.70974	0.76336
-0.28482	0.63582
0.37822	0.63582
0.91375	-0.43551
0.88825	-0.46102
0.68424	-0.61406
0.30171	0.20219
1.21977	0.43176
-0.94787	0.25320
-1.30489	0.40625
0.78624	0.45726
0.19971	0.15117
-0.20832	-0.07840
0.22521	-0.25695
0.63323	0.04914
0.25071	0.15117
-0.33583	0.50828
-0.25932	0.12566
1.57679	0.22769
-0.59084	0.30422
-0.36133	0.07465
0.83725	-0.12942
0.76074	0.17668
-0.61635	0.20219
-0.13181	0.25320
0.09770	-0.10391
0.32721	-0.23145
0.76074	0.43176
0.12320	0.32972
-0.05531	0.10015
0.19971	-0.07840
0.02119	0.32972
0.12320	0.45726
0.09770	0.10015
0.53123	0.32972
0.53123	-0.23145
-1.43240	-0.00188
-0.20832	0.40625
-0.33583	0.83988
0.12320	-0.15492
1.04126	-0.43551
0.58223	-0.05289
0.48022	-0.00188
0.53123	-0.10391
0.83725	0.20219
-0.38683	0.43176
-0.38683	0.32972
-1.61091	0.07465
0.86275	0.55929
0.50573	-0.00188
-0.69285	0.07465
1.42379	0.02363
-0.25932	0.20219
-1.12638	0.76336
0.42922	-0.25695
0.25071	-0.00188
0.48022	0.38074
0.37822	0.25320
1.62780	0.12566
-0.53984	0.25320
-1.17738	0.12566
0.58223	-0.10391
-1.30489	-0.18043
0.42922	-0.23145
1.57679	0.25320
0.53123	0.17668
-0.33583	0.15117
0.14870	0.32972
0.09770	0.58480
0.02119	-0.00188
0.40372	0.15117
-0.00431	-0.10391
0.22521	0.22769
0.40372	0.27871
-0.08081	0.22769
-0.25932	-0.10391
0.22521	-0.48652
0.14870	0.12566
-0.18282	0.43176
0.32721	0.35523
0.60773	0.53379
-2.04444	0.50828
0.12320	0.22769
0.83725	0.02363
0.32721	-0.10391
0.88825	-0.35899
-0.08081	-0.28246
0.30171	0.32972
0.42922	0.30422
0.53123	1.04394
0.32721	-0.05289
0.60773	-0.41000
-0.48884	-0.07840
-0.64185	-0.02739
0.60773	0.58480
-0.61635	0.58480
-0.41233	0.27871
-0.79486	0.35523
0.12320	-0.23145
0.25071	-0.00188
1.16877	0.10015
0.91375	-0.02739
-0.15732	0.30422
0.17421	0.30422
1.11776	-0.00188
0.63323	0.43176
-1.15188	0.25320
-0.48884	0.50828
0.73524	-0.05289
-0.13181	-0.02739
-1.12638	-0.15492
0.91375	-0.00188
0.53123	0.12566
-0.15732	0.10015
0.19971	0.12566
0.40372	0.76336
0.63323	0.35523
-0.15732	0.04914
0.02119	-0.02739
0.30171	-0.35899
0.32721	0.15117
0.48022	0.63582
0.37822	0.61031
-0.66735	-0.18043
0.09770	-0.51203
-0.23382	0.25320
-0.76936	0.20219
1.11776	0.32972
1.47479	0.45726
-1.78942	0.32972
0.93925	0.50828
-0.28482	0.20219
-0.89686	-0.51203
0.55673	0.22769
0.76074	-0.00188
0.86275	0.04914
0.30171	-0.51203
0.86275	0.04914
0.53123	0.68683
-1.84042	0.76336
-0.20832	0.38074
0.37822	0.10015
-0.13181	-0.25695
0.37822	-0.61406
-0.00431	0.04914
0.42922	0.55929
0.32721	0.99292
-0.71835	0.40625
0.53123	-0.05289
0.09770	-0.33348
-1.25389	-0.12942
0.68424	0.22769
0.19971	0.20219
0.65874	0.43176
-0.28482	0.04914
0.19971	0.35523
0.86275	-0.07840
-0.51434	0.17668
-0.33583	0.20219
0.60773	-0.15492
0.76074	-0.10391
-1.10088	0.12566
0.35272	0.25320
0.42922	0.30422
0.65874	0.22769
0.55673	0.10015
0.32721	0.15117
0.37822	0.32972
0.50573	0.12566
-0.00431	-0.35899
-1.91693	0.25320
-0.41233	0.40625
0.17421	0.55929
-0.28482	0.45726
0.32721	0.45726
0.53123	-0.18043
0.53123	-0.18043
0.68424	-0.15492
-0.00431	-0.10391
0.14870	0.04914
0.07220	0.12566
-0.13181	0.35523
0.27621	0.35523
0.76074	-0.23145
1.01576	0.15117
-1.15188	-0.10391
0.68424	0.53379
0.68424	0.30422
-1.30489	0.25320
-0.28482	0.02363
0.78624	-0.10391
1.16877	0.38074
-0.25932	-0.02739
-0.46334	0.40625
0.02119	0.40625
0.73524	0.17668
0.40372	0.17668
0.25071	0.20219
0.37822	-0.33348
0.07220	-0.10391
0.04670	-0.33348
0.19971	0.30422
-0.48884	0.45726
-0.33583	0.35523
-0.02981	0.38074
0.37822	0.30422
0.40372	0.07465
-0.41233	0.27871
0.78624	0.27871
0.09770	0.10015
0.04670	-0.10391
0.30171	-0.05289
-0.00431	0.22769
0.27621	0.20219
0.32721	0.07465
-0.23382	0.12566
0.42922	0.10015
0.68424	0.25320
0.60773	0.20219
-2.17195	0.12566
0.22521	0.15117
1.42379	0.35523
-1.12638	0.38074
-0.48884	0.15117
0.63323	0.17668
0.63323	0.04914
0.78624	-0.15492
0.50573	-0.02739
0.12320	0.35523
-0.33583	0.20219
0.07220	0.07465
-0.23382	0.07465
0.27621	0.55929
-0.13181	-0.05289
-0.00431	0.55929
0.25071	0.50828
-0.25932	0.04914
0.27621	-0.35899
0.55673	-0.18043
0.40372	-0.02739
0.25071	0.15117
0.07220	0.45726
0.83725	0.32972
0.22521	0.50828
-1.15188	-0.05289
1.19427	-0.28246
-0.59084	0.25320
-0.82036	0.20219
0.35272	0.17668
-0.66735	0.27871
1.04126	-0.18043
0.63323	0.22769
1.72980	0.25320
0.04670	0.15117
-0.13181	0.45726
-0.00431	0.22769
0.30171	0.27871
-0.25932	0.22769
-0.87136	0.45726
0.88825	0.12566
-0.05531	-0.30797
-0.48884	-0.35899
0.37822	-0.30797
-0.10631	-0.35899
0.27621	0.38074
0.19971	0.66132
0.12320	0.43176
0.14870	0.35523
0.58223	0.30422
0.58223	0.25320
-0.20832	0.35523
0.40372	0.35523
-1.99343	0.04914
-0.13181	-0.56305
1.37278	-0.43551
0.83725	-0.15492
1.21977	0.15117
0.50573	0.27871
-0.33583	0.27871
0.50573	0.22769
-0.10631	0.50828
-0.02981	0.25320
0.45472	0.07465
-0.31033	0.02363
-0.51434	0.22769
-0.08081	0.32972
0.19971	0.40625
-0.05531	-0.15492
0.22521	0.15117
0.22521	0.15117
0.35272	0.32972
0.65874	0.15117
0.42922	0.17668
0.35272	0.02363
-0.18282	-0.00188
-0.05531	-0.02739
0.22521	0.25320
-0.18282	0.12566
0.07220	-0.28246
0.99026	0.12566
0.42922	0.45726
-1.10088	0.35523
-0.79486	0.27871
-0.00431	0.02363
0.50573	0.15117
0.63323	0.30422
0.65874	0.02363
0.65874	-0.48652
0.30171	-0.33348
-0.56534	0.27871
0.25071	0.76336
0.55673	0.73785
0.07220	0.76336
-0.89686	0.04914
-0.33583	-0.25695
0.14870	-0.35899
-0.05531	0.22769
1.11776	0.10015
1.04126	0.38074
-2.63097	0.07465
-1.10088	-0.07840
1.04126	-0.35899
1.04126	0.04914
0.83725	0.43176
0.42922	0.66132
0.35272	0.30422
0.07220	0.10015
-0.13181	0.10015
0.14870	0.10015
-0.02981	0.10015
0.81175	0.02363
-1.15188	0.20219
-0.59084	0.45726
1.06676	-0.20594
0.30171	-0.00188
-0.15732	-0.23145
0.53123	0.30422
0.53123	-0.07840
-1.27939	0.04914
-0.02981	0.45726
0.48022	0.71234
0.37822	0.66132
0.30171	0.10015
0.50573	0.35523
0.88825	0.40625
0.45472	0.22769
-2.01894	-0.25695
-0.56534	-0.46102
0.99026	-0.00188
1.14327	0.32972
0.76074	0.20219
-0.76936	0.07465
-0.89686	-0.25695
0.86275	-0.23145
0.88825	0.02363
0.37822	0.48277
0.17421	0.68683
1.01576	0.38074
-0.23382	0.27871
-1.30489	-0.00188
0.63323	-0.07840
0.19971	0.04914
-0.48884	0.15117
0.12320	0.10015
0.22521	0.38074
0.27621	0.35523
0.63323	0.10015
0.78624	-0.46102
-0.18282	0.10015
0.30171	-0.28246
0.09770	0.71234
0.37822	0.45726
0.19971	0.22769
0.02119	0.15117
-0.53984	0.07465
-0.53984	0.25320
0.53123	0.04914
0.40372	-0.07840
0.19971	0.15117
0.91375	0.30422
-0.33583	0.40625
-0.56534	-0.05289
0.73524	0.12566
0.02119	-0.28246
0.45472	0.04914
0.22521	0.02363
0.35272	0.07465
0.73524	0.35523
-0.71835	0.58480
0.48022	0.58480
-0.02981	0.40625
0.70974	-0.00188
-0.33583	-0.35899
-0.28482	0.02363
-0.05531	-0.07840
0.83725	0.20219
0.35272	0.35523
-0.20832	0.20219
0.22521	0.22769
0.07220	0.15117
1.55129	0.12566
0.14870	-0.02739
-2.65648	0.12566
0.14870	-0.07840
0.58223	0.25320
0.45472	0.04914
0.70974	0.32972
0.93925	0.02363
-0.18282	-0.46102
0.32721	0.35523
-0.61635	0.53379
0.07220	0.27871
0.30171	0.22769
-0.20832	0.15117
0.83725	0.25320
-0.48884	0.02363
0.68424	-0.00188
0.30171	0.17668
-0.94787	-0.00188
0.42922	0.04914
0.50573	-0.10391
0.35272	0.35523
1.34728	0.04914
-1.27939	-0.02739
-0.87136	0.53379
0.53123	0.15117
1.32178	0.20219
0.78624	-0.05289
-0.92237	0.22769
-0.10631	0.66132
0.55673	0.27871
0.37822	0.25320
-0.61635	0.15117
0.42922	-0.25695
0.60773	-0.30797
0.12320	-0.18043
-0.69285	0.15117
0.02119	0.20219
0.53123	0.22769
0.30171	0.35523
0.35272	0.15117
0.04670	0.30422
0.19971	-0.02739
0.53123	0.30422
0.12320	0.63582
-0.56534	0.32972
0.68424	-0.35899
-0.43783	-0.15492
-0.43783	-0.28246
0.17421	0.45726
0.25071	0.38074
1.67880	0.50828
0.42922	0.27871
-0.56534	0.04914
0.19971	0.10015
1.01576	0.04914
0.42922	0.30422
-0.43783	0.17668
0.12320	-0.25695
-0.87136	0.17668
0.68424	0.07465
1.83181	-0.02739
-0.59084	0.25320
-2.70748	0.35523
0.63323	0.61031
0.53123	-0.00188
0.70974	-0.46102
1.21977	-0.05289
-0.18282	0.15117
0.04670	0.10015
0.40372	0.38074
0.04670	0.58480
0.58223	0.22769
-0.82036	-0.20594
0.70974	-0.02739
0.32721	0.32972
0.19971	0.20219
0.50573	0.20219
0.37822	0.15117
-0.33583	0.12566
-0.18282	0.17668
-0.46334	-0.05289
-0.00431	0.48277
0.78624	0.02363
0.81175	0.20219
-0.02981	-0.30797
0.07220	0.17668
-0.33583	0.15117
0.12320	0.02363
0.32721	0.12566
0.32721	0.07465
-0.10631	0.30422
1.11776	0.25320
-0.74385	0.10015
-0.33583	0.27871
0.04670	0.17668
-0.89686	0.66132
1.98482	0.32972
-0.56534	-0.00188
-0.28482	-0.18043
1.55129	-0.10391
-0.56534	-0.00188
0.70974	0.04914
0.99026	0.27871
0.19971	0.40625
-0.76936	0.10015
-0.59084	0.27871
-0.00431	-0.00188
-0.79486	0.15117
-0.23382	0.12566
1.11776	-0.02739
1.01576	0.35523
0.83725	0.27871
0.07220	0.07465
-0.69285	-0.00188
-0.10631	0.02363
-0.20832	0.15117
1.29628	0.50828
0.02119	0.22769
-0.08081	-0.10391
0.42922	-0.10391
0.04670	0.43176
0.07220	0.43176
0.45472	0.32972
-0.38683	-0.05289
0.32721	-0.12942
0.81175	-0.10391
0.27621	0.02363
-1.12638	0.15117
0.22521	0.25320
0.81175	-0.02739
-0.20832	0.30422
0.02119	0.32972
0.53123	0.25320
0.40372	0.43176
-0.13181	0.58480
1.24527	0.04914
-1.15188	-0.43551
0.14870	0.17668
1.34728	0.17668
0.19971	-0.07840
0.25071	-0.58856
1.39828	0.07465
-0.00431	0.68683
-1.76392	0.53379
-0.64185	0.48277
-0.02981	0.15117
1.04126	0.17668
0.45472	-0.00188
-1.45790	-0.00188
0.68424	-0.20594
0.78624	0.35523
-0.48884	0.63582
0.68424	0.07465
0.37822	-0.25695
0.37822	0.10015
0.35272	0.15117
0.02119	0.27871
0.07220	0.22769
0.07220	0.38074
-0.13181	-0.05289
0.19971	0.15117
0.12320	-0.15492
0.17421	0.10015
0.48022	0.10015
-0.02981	0.30422
-1.12638	0.78886
-0.33583	0.15117
0.73524	-0.15492
1.47479	-0.02739
0.22521	-0.07840
-0.02981	0.12566
0.14870	0.27871
0.53123	0.20219
-0.79486	0.07465
-1.20288	0.20219
0.88825	0.17668
-0.13181	0.07465
0.91375	0.43176
0.88825	0.20219
-0.25932	-0.07840
0.35272	0.02363
0.40372	0.22769
0.07220	0.17668
-0.05531	0.27871
-0.08081	0.20219
0.07220	0.32972
0.53123	0.10015
-0.76936	0.04914
-0.59084	-0.00188
-0.33583	-0.20594
0.93925	-0.00188
-0.79486	0.17668
-0.33583	0.32972
0.96476	0.38074
1.32178	0.25320
0.55673	0.12566
-0.36133	0.20219
-0.28482	0.30422
0.22521	0.22769
0.58223	0.12566
0.30171	-0.05289
-0.15732	-0.28246
-0.05531	0.12566
0.73524	0.25320
0.12320	0.43176
-0.89686	0.50828
-0.71835	0.10015
-0.89686	-0.30797
0.63323	-0.12942
0.55673	-0.12942
0.55673	0.55929
0.40372	0.25320
0.22521	0.15117
0.40372	0.61031
0.02119	0.43176
0.42922	0.04914
0.40372	-0.00188
-0.41233	-0.18043
0.35272	0.30422
-0.13181	0.04914
0.48022	-0.15492
-0.02981	0.15117
-1.61091	-0.00188
0.73524	0.32972
1.32178	0.35523
-0.38683	-0.05289
0.09770	0.30422
2.08683	0.27871
-0.43783	0.27871
-1.78942	0.25320
1.09226	0.15117
0.55673	0.22769
1.24527	-0.35899
0.73524	0.12566
-0.87136	0.07465
-0.23382	0.55929
0.04670	0.25320
-0.00431	-0.25695
-0.08081	0.32972
-0.43783	0.02363
0.93925	-0.00188
0.37822	0.07465
-0.87136	0.22769
0.07220	0.17668
1.60230	-0.25695
0.09770	0.40625
-1.35589	0.58480
0.32721	0.27871
0.55673	0.02363
0.70974	0.07465
0.35272	0.30422
0.37822	-0.10391
0.53123	0.53379
0.60773	0.40625
-2.24845	0.04914
1.14327	-0.12942
1.04126	0.12566
-0.84586	-0.02739
0.42922	-0.07840
0.07220	-0.07840
0.09770	0.15117
0.45472	0.50828
0.35272	0.50828
0.14870	0.15117
0.25071	0.20219
0.73524	-0.02739
0.07220	-0.30797
-1.48340	0.07465
-0.08081	0.27871
0.27621	0.40625
0.30171	0.35523
0.42922	0.20219
0.40372	-0.00188
0.27621	-0.18043
0.35272	-0.05289
0.53123	-0.07840
0.09770	0.20219
-0.71835	0.71234
0.42922	0.48277
0.27621	-0.15492
-0.79486	-0.23145
0.04670	0.12566
0.45472	0.10015
0.63323	0.61031
1.01576	0.58480
1.14327	0.20219
-0.66735	0.02363
-1.22839	0.04914
0.40372	-0.00188
-0.02981	0.25320
0.58223	-0.00188
0.45472	-0.28246
0.45472	-0.20594
0.02119	0.86539
-1.04987	0.63582
0.40372	0.04914
0.48022	-0.25695
0.50573	-0.12942
0.73524	0.15117
0.55673	0.30422
-0.89686	0.17668
0.07220	0.27871
0.12320	-0.10391
0.96476	0.32972
1.50029	0.12566
-2.52897	-0.18043
-0.69285	-0.02739
0.58223	0.20219
0.60773	0.43176
0.83725	0.35523
-0.00431	0.43176
-0.48884	0.17668
0.83725	0.25320
-0.15732	0.10015
0.07220	0.20219
-0.48884	-0.00188
-0.15732	0.15117
1.11776	0.38074
-0.08081	-0.07840
-0.41233	-0.10391
0.50573	0.15117
0.32721	0.20219
0.27621	-0.07840
0.09770	-0.18043
0.32721	-0.07840
0.09770	-0.05289
-0.02981	-0.10391
0.25071	0.94191
0.07220	0.58480
-0.08081	0.35523
0.02119	0.35523
0.09770	0.02363
0.60773	-0.18043
0.78624	-0.28246
-0.87136	0.07465
0.02119	-0.00188
-1.07538	0.43176
0.35272	0.48277
0.60773	0.15117
1.11776	0.04914
1.04126	0.04914
0.27621	0.35523
0.17421	0.53379
-0.15732	0.25320
-0.76936	0.07465
0.42922	0.02363
0.58223	0.10015
0.37822	0.17668
-0.18282	-0.02739
0.02119	-0.35899
0.40372	-0.05289
-0.08081	0.17668
0.07220	0.17668
0.65874	0.25320
0.04670	0.12566
0.35272	0.30422
0.04670	0.53379
-1.07538	0.48277
0.04670	0.25320
0.42922	-0.15492
0.63323	0.15117
0.68424	-0.25695
0.27621	-0.35899
-0.38683	-0.41000
-0.66735	0.07465
0.30171	0.27871
0.60773	0.55929
1.44929	0.53379
-0.02981	0.76336
-1.71292	0.40625
0.37822	0.17668
0.58223	-0.10391
0.53123	-0.02739
1.04126	0.04914
-0.13181	0.10015
-0.25932	-0.02739
0.22521	0.20219
-0.05531	0.02363
0.17421	0.17668
0.83725	0.02363
0.09770	-0.28246
-0.38683	-0.05289
-0.69285	0.50828
-0.18282	0.73785
0.22521	0.20219
0.50573	0.07465
0.35272	0.20219
0.53123	0.12566
1.01576	0.40625
-0.48884	0.02363
-1.17738	-0.56305
-0.53984	-0.00188
0.78624	-0.12942
1.04126	0.30422
0.53123	0.55929
-0.18282	0.61031
0.19971	0.63582
-0.00431	0.15117
0.73524	-0.23145
0.68424	-0.15492
-0.59084	-0.23145
0.53123	0.12566
0.83725	0.15117
-2.35046	0.20219
-0.48884	0.32972
0.48022	-0.25695
0.88825	0.22769
0.68424	0.38074
-0.28482	0.22769
0.55673	0.22769
0.45472	0.25320
-0.05531	0.30422
0.32721	0.25320
-0.18282	-0.20594
-0.46334	-0.18043
-0.43783	0.12566
0.27621	-0.15492
0.42922	0.22769
0.68424	0.45726
0.55673	0.27871
0.88825	0.32972
0.27621	0.12566
-0.59084	0.12566
0.50573	0.30422
0.27621	0.04914
-1.07538	-0.35899
0.07220	0.04914
0.76074	-0.00188
0.02119	-0.30797
-0.64185	0.07465
0.50573	0.78886
0.04670	0.76336
0.81175	-0.02739
0.32721	-0.00188
0.32721	0.32972
0.70974	0.15117
0.53123	0.10015
-1.17738	0.15117
-0.92237	-0.05289
2.16333	0.32972
-0.18282	0.27871
-2.24845	-0.00188
0.78624	-0.07840
1.01576	-0.07840
0.93925	-0.15492
1.09226	-0.10391
0.88825	0.22769
-0.92237	0.55929
-0.38683	0.17668
1.14327	0.15117
-1.66191	-0.00188
-0.33583	0.27871
0.40372	0.63582
0.27621	0.45726
0.78624	0.17668
0.02119	0.02363
-0.51434	-0.12942
0.12320	0.10015
0.45472	-0.10391
0.63323	-0.15492
0.04670	-0.00188
0.73524	0.15117
-0.28482	0.32972
-0.41233	0.12566
-0.08081	0.38074
0.04670	0.35523
1.52579	0.35523
0.83725	0.27871
0.22521	-0.18043
-0.69285	0.04914
0.50573	0.12566
-0.82036	0.02363
0.50573	-0.00188
1.32178	0.35523
-1.68742	-0.07840
-0.02981	0.53379
0.60773	0.07465
0.63323	-0.12942
0.17421	-0.33348
0.30171	-0.00188
0.09770	0.40625
0.04670	0.89089
0.37822	0.17668
-0.28482	-0.10391
-0.23382	-0.18043
0.14870	0.22769
1.21977	0.27871
-0.41233	0.25320
-0.51434	0.02363
0.35272	0.50828
-0.25932	0.20219
0.68424	0.04914
0.42922	0.20219
0.35272	-0.15492
0.50573	0.17668
1.47479	0.15117
-0.66735	-0.33348
-0.84586	-0.10391
0.50573	0.17668
-0.25932	0.38074
-0.15732	-0.05289
1.11776	0.58480
0.19971	0.61031
-0.36133	-0.10391
0.83725	-0.00188
-0.15732	-0.12942
0.40372	0.27871
-0.87136	0.25320
0.04670	0.12566
0.14870	0.27871
-0.28482	0.10015
0.40372	0.27871
0.55673	0.04914
0.63323	0.12566
0.32721	0.17668
-0.05531	0.15117
-0.36133	0.53379
0.70974	-0.30797
0.07220	-0.46102
-1.40690	-0.02739
0.93925	0.35523
0.27621	0.48277
0.68424	0.50828
1.01576	0.22769
-0.38683	0.27871
-0.41233	-0.10391
-0.05531	0.10015
-0.13181	0.12566
0.55673	0.27871
0.42922	-0.15492
0.65874	0.04914
0.55673	0.35523
-0.20832	0.20219
0.12320	-0.02739
1.04126	-0.12942
0.12320	0.02363
-0.66735	0.27871
-0.84586	0.32972
-0.84586	0.02363
0.76074	-0.02739
1.42379	0.43176
0.91375	0.61031
0.53123	0.12566
-0.66735	-0.15492
-0.53984	-0.15492
0.55673	0.07465
0.50573	0.50828
-0.25932	0.15117
-0.08081	0.12566
0.50573	-0.02739
0.65874	-0.05289
-1.86593	-0.15492
-0.08081	0.32972
1.01576	0.10015
0.35272	0.35523
0.68424	0.30422
0.09770	0.35523
0.17421	-0.02739
-0.20832	-0.15492
0.02119	0.27871
-0.13181	-0.18043
0.45472	0.07465
1.42379	0.25320
0.45472	0.35523
-2.35046	-0.12942
1.14327	0.27871
-0.15732	0.53379
0.53123	0.30422
1.11776	0.12566
0.19971	0.35523
0.12320	0.30422
-0.00431	-0.20594
-0.41233	-0.20594
0.07220	-0.28246
0.07220	-0.10391
0.02119	0.53379
0.32721	0.35523
0.22521	0.04914
0.48022	0.10015
-0.31033	0.50828
0.14870	0.35523
-0.05531	0.50828
1.11776	0.32972
0.60773	0.02363
-1.15188	-0.00188
-0.38683	-0.84363
0.73524	0.12566
-0.89686	0.27871
0.30171	0.50828
1.11776	0.12566
0.55673	0.25320
0.19971	0.22769
0.37822	0.02363
-0.08081	0.10015
0.07220	0.12566
0.35272	0.07465
-0.31033	-0.05289
-0.25932	0.15117
0.30171	0.25320
0.19971	0.30422
-0.56534	0.40625
-0.25932	-0.02739
0.42922	0.30422
0.12320	0.40625
0.30171	-0.00188
0.60773	-0.10391
0.65874	0.17668
0.12320	0.20219
0.81175	-0.00188
0.25071	-0.20594
-0.33583	0.02363
-0.18282	0.20219
-1.61091	0.48277
0.91375	0.48277
0.68424	0.25320
1.19427	0.35523
1.01576	0.07465
-0.56534	-0.20594
0.07220	-0.43551
-0.15732	-0.02739
-0.18282	0.02363
0.78624	0.32972
-0.48884	0.43176
0.32721	0.43176
1.14327	-0.10391
-0.66735	-0.12942
-0.87136	-0.18043
-0.13181	-0.10391
0.35272	0.30422
0.37822	0.38074
0.04670	0.50828
-0.79486	0.63582
1.37278	-0.02739
1.55129	0.02363
0.07220	-0.33348
-0.53984	-0.15492
0.73524	0.17668
-0.08081	0.40625
-0.46334	0.20219
-0.02981	0.04914
-0.66735	0.15117
0.42922	0.02363
0.70974	0.10015
-0.48884	0.07465
-1.50890	0.15117
0.63323	0.20219
0.04670	-0.02739
0.42922	0.27871
0.35272	0.55929
0.88825	0.48277
0.81175	0.25320
0.50573	-0.33348
-1.04987	-0.41000
0.91375	0.10015
0.58223	0.35523
-1.63641	0.30422
0.17421	0.15117
0.17421	0.20219
-0.51434	0.30422
-0.43783	0.12566
1.09226	-0.38449
1.09226	0.27871
-0.38683	0.15117
0.14870	0.22769
0.48022	0.04914
0.53123	-0.28246
0.99026	0.15117
0.04670	0.04914
-0.92237	0.27871
-0.41233	0.73785
0.17421	0.40625
0.99026	0.04914
-0.53984	0.04914
-0.66735	-0.10391
0.32721	0.32972
0.63323	0.20219
0.50573	-0.10391
1.14327	0.27871
-0.05531	0.02363
-0.92237	0.43176
0.17421	0.35523
-0.20832	0.04914
0.73524	-0.18043
0.30171	-0.20594
-0.36133	0.02363
-1.02437	0.32972
0.27621	0.27871
0.78624	0.15117
0.99026	0.10015
0.55673	0.10015
-0.08081	-0.00188
0.07220	0.25320
0.91375	0.53379
-1.78942	0.45726
-0.28482	0.35523
0.42922	0.10015
0.65874	-0.05289
0.22521	-0.12942
0.53123	-0.02739
-0.84586	0.07465
-0.53984	-0.07840
-0.08081	0.35523
0.99026	0.25320
0.55673	0.25320
0.63323	0.17668
0.09770	-0.10391
-0.53984	0.04914
0.19971	0.10015
0.42922	0.35523
0.42922	-0.07840
-0.08081	0.22769
-0.13181	0.04914
-1.15188	0.30422
0.07220	0.78886
0.48022	0.07465
0.73524	-0.02739
0.73524	-0.18043
0.02119	-0.18043
-0.18282	0.35523
0.83725	-0.00188
0.02119	0.25320
-0.64185	0.32972
0.60773	0.38074
0.40372	0.10015
-0.94787	-0.10391
0.30171	0.12566
-0.08081	0.02363
0.45472	-0.02739
1.04126	-0.02739
-0.23382	0.38074
0.42922	0.10015
-0.51434	0.07465
-0.87136	0.15117
0.88825	0.43176
0.55673	0.55929
0.30171	0.10015
0.35272	0.10015
-0.33583	0.07465
0.30171	-0.00188
0.42922	0.12566
-0.10631	0.15117
0.14870	0.07465
-0.13181	0.17668
0.40372	0.32972
-0.02981	0.12566
0.19971	-0.07840
0.14870	0.12566
-0.28482	-0.15492
-0.18282	-0.05289
0.30171	0.17668
0.53123	-0.10391
0.32721	0.10015
0.19971	0.78886
-0.18282	0.68683
-0.10631	0.15117
-0.13181	0.32972
0.91375	0.17668
