0.25071	0.25320
0.12320	0.10015
-0.08081	0.15117
0.25071	0.15117
0.12320	0.12566
0.19971	0.25320
0.09770	0.22769
0.12320	0.15117
0.19971	0.10015
0.17421	0.10015
0.07220	0.17668
0.22521	0.12566
0.04670	0.10015
0.14870	0.12566
0.07220	0.10015
0.14870	0.17668
0.09770	0.12566
0.14870	0.20219
0.14870	0.17668
0.12320	0.12566
0.22521	0.20219
0.17421	0.04914
0.14870	0.15117
0.17421	0.12566
0.12320	0.10015
0.04670	0.25320
0.19971	0.07465
0.07220	0.12566
0.17421	0.20219
0.14870	0.15117
0.07220	0.17668
0.22521	0.10015
0.07220	0.17668
0.17421	0.04914
0.12320	0.12566
0.12320	0.17668
0.12320	-0.00188
0.09770	0.17668
0.25071	0.22769
0.09770	0.15117
0.12320	0.12566
0.32721	0.25320
0.19971	0.10015
-0.15732	0.17668
0.17421	0.12566
0.19971	0.22769
0.09770	0.20219
0.14870	0.04914
0.14870	0.17668
0.22521	0.25320
0.07220	0.10015
0.30171	0.15117
0.12320	0.17668
0.04670	0.12566
0.09770	0.20219
0.17421	0.10015
0.02119	0.15117
0.19971	0.25320
0.07220	0.10015
0.32721	0.22769
0.22521	0.04914
0.09770	0.12566
0.19971	0.15117
0.09770	0.15117
0.09770	0.15117
0.09770	0.20219
0.09770	0.15117
0.17421	0.15117
0.09770	0.17668
0.14870	0.07465
0.17421	0.15117
0.17421	0.17668
0.12320	0.10015
0.17421	0.04914
0.12320	0.17668
0.09770	0.12566
0.14870	0.12566
0.22521	0.12566
-0.10631	0.22769
0.14870	0.02363
0.17421	0.15117
0.14870	0.15117
0.04670	0.17668
0.17421	0.10015
0.25071	0.17668
0.02119	0.10015
0.09770	0.12566
0.25071	0.17668
0.04670	0.17668
0.07220	0.12566
0.14870	0.17668
0.17421	0.12566
0.17421	0.04914
0.17421	0.10015
0.09770	0.15117
0.04670	0.17668
0.22521	0.15117
0.02119	0.15117
0.09770	0.15117
0.45472	0.10015
0.22521	0.10015
0.22521	0.10015
0.02119	0.15117
-0.08081	0.10015
0.07220	0.20219
0.09770	0.15117
0.04670	0.12566
0.27621	0.25320
0.27621	0.15117
0.27621	0.04914
0.22521	0.25320
-0.23382	0.10015
-0.18282	0.10015
0.32721	0.15117
0.37822	0.12566
0.30171	0.17668
0.32721	0.17668
0.19971	0.07465
0.12320	0.15117
0.17421	0.22769
0.09770	0.10015
0.17421	0.15117
0.17421	0.22769
-0.31033	0.02363
0.22521	0.20219
0.27621	0.02363
0.07220	0.10015
0.19971	0.17668
0.14870	0.07465
-0.02981	0.12566
0.22521	0.15117
0.22521	0.12566
0.14870	0.17668
0.14870	0.20219
0.14870	0.12566
0.09770	0.22769
0.09770	0.25320
0.12320	0.15117
0.14870	0.17668
0.17421	0.25320
0.22521	0.15117
0.14870	0.07465
0.22521	0.12566
0.14870	0.12566
0.04670	0.04914
0.12320	0.20219
0.09770	0.10015
0.12320	0.15117
0.02119	0.10015
0.12320	0.25320
0.17421	0.17668
0.22521	0.17668
0.42922	0.32972
0.32721	-0.02739
-0.00431	0.20219
-0.25932	0.04914
0.07220	0.15117
0.02119	0.17668
-0.02981	0.10015
0.50573	0.22769
0.40372	0.10015
0.30171	0.22769
0.27621	0.04914
0.09770	0.25320
0.19971	0.15117
0.09770	0.15117
0.04670	0.15117
0.09770	0.12566
0.09770	0.25320
0.17421	0.07465
0.14870	0.25320
0.09770	0.07465
0.07220	0.12566
0.04670	0.17668
0.14870	0.02363
0.12320	0.17668
0.22521	0.17668
0.02119	0.12566
0.22521	0.17668
0.30171	0.20219
0.09770	0.20219
0.32721	0.10015
0.17421	0.12566
0.17421	0.22769
0.09770	-0.00188
0.02119	0.10015
0.19971	0.17668
0.02119	0.22769
0.04670	0.15117
0.12320	0.15117
0.25071	0.07465
0.19971	0.17668
0.09770	-0.02739
0.09770	0.12566
0.07220	0.15117
0.14870	0.25320
0.07220	0.12566
0.14870	0.20219
0.45472	0.02363
0.35272	0.17668
0.12320	0.17668
-0.59084	0.07465
-0.84586	0.12566
0.40372	0.17668
0.68424	0.10015
0.60773	0.10015
0.48022	0.12566
0.35272	0.30422
0.22521	0.27871
0.07220	0.25320
0.12320	0.07465
-0.02981	0.20219
-0.08081	-0.00188
0.37822	0.04914
0.40372	0.07465
0.22521	0.20219
-0.61635	0.04914
-0.74385	0.15117
0.19971	0.20219
0.45472	0.30422
0.53123	0.15117
0.35272	0.38074
0.50573	0.07465
0.25071	-0.23145
0.30171	-0.10391
0.12320	0.02363
-0.08081	-0.28246
0.19971	0.71234
0.12320	0.32972
-0.00431	0.12566
0.04670	0.22769
0.07220	0.10015
0.22521	0.35523
0.27621	0.43176
0.04670	0.43176
0.09770	0.35523
0.27621	-0.02739
-0.00431	0.15117
0.45472	-0.71609
0.68424	-0.35899
-0.41233	0.15117
-0.79486	0.73785
0.02119	0.63582
0.63323	0.12566
0.63323	0.20219
0.14870	-0.02739
-0.23382	0.12566
0.14870	0.45726
0.42922	0.07465
0.32721	0.12566
0.30171	-0.30797
-0.05531	-0.05289
0.25071	0.15117
0.19971	0.30422
0.12320	0.17668
0.09770	0.17668
-0.00431	0.07465
-0.02981	0.20219
-0.08081	0.20219
0.19971	0.10015
0.12320	0.45726
0.19971	0.35523
0.19971	-0.35899
0.53123	0.35523
0.42922	-0.35899
-0.23382	-0.46102
-0.64185	0.30422
-1.15188	0.27871
-0.02981	0.63582
0.32721	0.15117
1.52579	-0.02739
1.04126	1.04394
0.58223	0.43176
0.37822	0.15117
0.12320	-0.02739
-0.02981	-0.10391
0.25071	0.40625
0.81175	-0.56305
0.30171	0.02363
-1.81492	-0.05289
-1.35589	-0.23145
-0.18282	-0.02739
0.32721	0.71234
0.68424	0.48277
1.01576	0.30422
0.55673	0.20219
-0.28482	0.61031
0.02119	-0.74160
0.81175	-0.05289
0.63323	0.81437
-0.08081	0.25320
0.12320	0.07465
0.02119	0.40625
-0.10631	0.02363
-0.15732	-0.20594
0.48022	-0.38449
-0.02981	0.02363
0.07220	0.04914
0.32721	1.22250
1.11776	0.66132
0.53123	-0.76711
0.91375	0.17668
-2.12094	-0.20594
-0.33583	0.02363
-0.08081	0.12566
-0.84586	0.73785
0.96476	0.61031
0.65874	0.43176
0.88825	0.12566
0.91375	-1.09871
1.16877	-1.14973
1.29628	0.10015
-0.28482	0.45726
-0.84586	0.99292
-0.48884	1.06945
-0.36133	0.66132
-0.08081	0.43176
-0.13181	-0.33348
-0.02981	-0.28246
-0.20832	0.15117
0.22521	-0.38449
0.17421	-1.07320
0.48022	-0.23145
0.58223	0.17668
-0.15732	0.99292
0.27621	0.78886
0.02119	1.17148
-0.51434	0.58480
0.45472	0.55929
0.17421	0.12566
0.19971	-0.12942
2.54586	0.40625
-0.56534	-0.69059
-0.89686	-0.18043
0.73524	-1.55785
0.40372	-0.25695
-1.15188	-0.41000
-0.53984	0.86539
0.60773	0.89089
0.35272	0.04914
-0.46334	0.38074
-0.20832	-0.28246
0.81175	0.73785
1.75531	0.27871
0.02119	0.40625
0.14870	-0.41000
0.04670	0.71234
-0.00431	0.78886
-0.41233	0.35523
-0.18282	0.81437
0.04670	0.25320
0.30171	0.10015
0.50573	-0.69059
0.30171	-2.50164
0.14870	-0.48652
0.04670	0.45726
-0.89686	1.52859
-1.15188	1.35003
-0.23382	-0.15492
1.14327	-0.25695
1.85731	0.35523
-0.31033	0.27871
-0.59084	0.91640
0.78624	0.07465
0.83725	1.80917
0.91375	-0.33348
1.67880	-0.86914
1.11776	-1.94047
-2.88599	-0.61406
-1.48340	0.53379
-1.94243	0.76336
0.88825	1.42656
-0.48884	1.09496
1.60230	-0.51203
1.27078	0.55929
1.32178	0.15117
0.96476	0.25320
0.32721	0.71234
-0.82036	-0.86914
-0.66735	1.63062
-0.02981	-1.68539
1.47479	-0.94566
0.73524	-0.02739
-1.71292	0.53379
-3.21751	1.04394
0.30171	1.14597
2.39285	0.04914
1.75531	1.55410
-0.31033	-1.22625
2.06133	0.43176
0.12320	-1.68539
-0.56534	0.50828
-0.99887	1.27351
0.68424	0.22769
2.08683	-0.53754
0.17421	-1.25176
0.70974	-0.51203
-2.80949	-0.33348
-2.14644	1.40105
1.29628	0.58480
1.42379	1.09496
1.80631	0.76336
-0.74385	0.68683
-0.69285	0.38074
1.98482	-0.00188
-0.05531	-0.15492
0.48022	-0.02739
-0.99887	-0.30797
-1.15188	0.58480
-0.48884	0.68683
1.44929	-0.63957
3.43841	-0.58856
-1.40690	-0.56305
-7.55279	-0.81812
0.53123	0.89089
1.32178	0.27871
1.78081	0.55929
2.21434	1.27351
2.92838	0.43176
2.74987	0.27871
-3.21751	0.71234
-1.12638	0.50828
-0.92237	-0.92016
1.47479	0.76336
-0.28482	-0.48652
-0.51434	0.17668
5.24903	-1.78742
-3.19201	0.81437
-6.20120	-0.15492
1.75531	0.66132
1.24527	-0.69059
2.36734	0.27871
2.23984	1.80917
0.88825	0.10015
0.14870	1.29902
2.77537	0.40625
-3.67654	-0.79262
-5.25764	1.17148
-0.64185	0.17668
3.36191	-0.97117
1.85731	-0.02739
-0.51434	-1.63437
0.30171	0.45726
2.08683	-0.86914
-0.13181	1.35003
1.21977	1.35003
1.11776	0.76336
0.12320	-0.12942
-1.68742	0.04914
-0.38683	0.94191
-6.25221	-0.00188
0.37822	-0.10391
0.32721	-0.51203
3.03039	-0.51203
3.61693	0.71234
6.11609	0.76336
-0.99887	0.91640
-4.67111	-1.35379
1.44929	-0.05289
-5.10463	0.32972
0.58223	0.15117
3.71893	0.02363
-1.55991	0.40625
0.68424	0.71234
0.27621	-0.61406
-0.69285	0.94191
-0.25932	-0.66508
0.99026	-0.10391
1.34728	0.83988
-0.59084	0.53379
-0.13181	0.71234
3.84644	0.25320
-1.35589	-0.15492
-2.91149	0.10015
-2.42696	-1.43031
2.41835	-0.18043
-0.97337	1.45206
-0.10631	-0.25695
1.32178	1.01843
1.55129	-1.63437
1.14327	-0.53754
0.73524	0.30422
-0.05531	1.55410
0.63323	1.52859
-0.38683	0.55929
-0.25932	0.55929
-0.36133	-0.48652
0.27621	-0.07840
0.96476	-1.12422
-0.89686	-1.02219
0.81175	0.10015
1.47479	0.27871
-5.00263	0.91640
-3.34502	0.53379
1.72980	0.43176
2.01032	0.48277
2.21434	-0.15492
2.36734	0.00000
2.08683	0.00000
0.02119	0.00000
0.14870	0.25320
0.22521	0.20219
-0.28482	-0.33348
-0.10631	-0.53754
-0.43783	0.55929
-0.48884	0.76336
-0.51434	0.55929
-0.00431	1.17148
0.09770	-1.14973
-0.10631	0.20219
1.72980	0.30422
-1.50890	0.76336
-2.52897	0.38074
1.75531	-0.81812
1.65330	-0.97117
0.73524	0.71234
-3.57454	0.55929
0.70974	1.32453
2.29084	0.32972
-0.66735	-0.58856
2.97938	0.38074
1.52579	-1.55785
-1.22839	-0.30797
-0.89686	1.63062
-0.64185	0.04914
-0.76936	1.06945
1.04126	-0.33348
0.81175	0.10015
0.48022	-0.00188
-1.07538	-0.30797
-0.20832	0.32972
-0.18282	0.76336
1.50029	0.43176
0.17421	1.01843
0.86275	-0.07840
-3.14101	0.10015
0.76074	-1.43031
1.01576	-0.20594
-0.02981	0.10015
0.22521	0.83988
1.34728	0.99292
0.81175	0.35523
-0.92237	-0.43551
-0.56534	-0.46102
-1.40690	-0.18043
0.73524	-0.15492
0.63323	-0.00188
2.44385	1.47757
1.04126	1.37554
-2.96250	0.58480
-2.65648	-1.25176
0.83725	-0.92016
1.60230	0.78886
1.04126	0.07465
0.19971	0.53379
0.48022	0.48277
0.45472	-0.25695
0.27621	-0.18043
-0.36133	0.91640
3.20890	-0.79262
1.21977	-0.41000
-6.78774	0.66132
-0.59084	-0.25695
0.58223	-0.58856
1.32178	0.53379
0.12320	0.58480
1.42379	0.94191
1.11776	0.17668
-0.20832	0.78886
-0.48884	-0.97117
1.42379	0.94191
0.68424	-0.76711
0.42922	0.17668
0.50573	0.04914
0.30171	0.35523
1.06676	0.73785
2.03582	-0.00188
-5.30865	-0.30797
-4.05907	-0.86914
1.70430	-0.48652
1.44929	0.53379
1.65330	1.14597
0.93925	0.04914
1.04126	0.61031
1.11776	0.83988
-3.85505	0.43176
1.04126	0.45726
1.32178	-0.79262
0.63323	-0.00188
0.19971	0.15117
-0.23382	0.58480
-0.08081	-0.30797
-0.18282	-0.53754
-0.25932	-0.00188
1.47479	0.55929
0.48022	-0.89465
-3.09000	0.10015
0.35272	-1.40480
0.88825	1.32453
0.19971	1.40105
1.09226	0.68683
0.91375	0.15117
1.57679	1.09496
-0.97337	-0.00188
0.86275	0.02363
-1.63641	0.04914
0.40372	0.48277
2.57136	0.27871
-1.50890	-0.35899
-3.77855	-1.30277
-0.36133	-0.18043
3.13239	-1.02219
2.69887	0.53379
1.32178	0.71234
0.45472	1.06945
0.50573	1.45206
0.27621	0.40625
-0.20832	-0.46102
-2.55447	-1.02219
-0.79486	0.58480
2.57136	0.07465
0.40372	0.32972
-5.38515	0.68683
0.02119	-0.23145
2.87738	1.27351
0.60773	-1.02219
0.81175	0.50828
0.99026	-1.27726
1.93382	-0.00188
-0.38683	0.86539
-1.10088	0.45726
0.91375	-0.07840
-0.20832	0.63582
-0.74385	0.66132
0.73524	-0.38449
0.83725	-0.53754
0.32721	-1.68539
-0.36133	0.55929
-1.07538	1.42656
-0.38683	0.76336
0.27621	0.45726
1.29628	0.55929
0.25071	0.45726
0.78624	-0.63957
0.35272	0.50828
-0.46334	-1.68539
-0.41233	0.45726
0.81175	0.43176
0.73524	0.25320
0.09770	0.38074
-0.71835	0.45726
0.37822	-0.00188
2.11233	0.22769
-2.88599	0.45726
0.40372	-0.05289
-0.66735	-0.12942
-0.31033	-0.97117
1.75531	0.04914
1.29628	0.22769
2.01032	0.89089
-0.18282	0.76336
0.17421	1.27351
3.10689	0.12566
-2.63097	-0.74160
-7.50179	-0.25695
0.96476	-1.45582
1.83181	1.19699
1.75531	1.27351
1.42379	0.76336
2.06133	0.07465
1.01576	-0.33348
1.11776	0.15117
-1.30489	-1.58336
-2.70748	0.25320
-0.76936	0.55929
0.76074	0.22769
0.42922	0.32972
0.37822	0.15117
0.40372	0.35523
0.17421	0.17668
1.70430	0.04914
1.04126	0.25320
-2.52897	-0.00188
-1.91693	0.15117
-0.08081	-0.07840
1.16877	0.17668
0.93925	0.53379
1.14327	0.15117
0.50573	0.07465
0.32721	-0.15492
1.06676	-0.10391
-0.48884	0.40625
0.55673	0.66132
0.22521	-0.30797
0.19971	0.50828
-1.96793	-0.86914
-0.38683	0.58480
0.50573	0.91640
-0.13181	0.10015
1.83181	0.83988
-0.92237	0.22769
-0.31033	-0.71609
0.32721	0.22769
1.19427	-0.51203
-1.68742	-0.18043
0.50573	0.86539
1.57679	1.14597
0.63323	-0.38449
0.88825	-0.18043
1.95932	-0.48652
-0.00431	0.04914
-3.52353	0.25320
0.96476	0.68683
1.34728	-0.99668
-1.35589	0.91640
-0.92237	-0.00188
1.11776	0.55929
1.29628	0.35523
-0.79486	0.61031
-0.25932	0.15117
1.90832	0.43176
0.22521	-0.48652
-0.48884	-0.25695
-0.28482	0.02363
0.19971	0.45726
0.53123	0.30422
0.45472	-0.35899
0.50573	0.35523
0.19971	0.78886
0.53123	-0.28246
-0.38683	0.78886
-0.31033	-1.32828
0.73524	0.45726
-0.13181	-0.02739
-0.76936	0.17668
1.42379	0.38074
-0.02981	0.66132
-2.88599	0.53379
1.06676	-0.12942
2.34184	0.07465
0.83725	0.45726
-1.66191	0.66132
-2.70748	-0.46102
2.46935	-0.05289
1.67880	0.32972
-1.40690	0.61031
-0.05531	-0.33348
2.11233	-0.92016
-0.53984	-0.15492
-2.42696	-0.30797
1.65330	0.27871
0.68424	0.43176
0.30171	0.58480
0.40372	0.86539
0.14870	0.68683
0.12320	0.40625
-0.02981	-0.30797
0.30171	0.12566
0.45472	-0.46102
-0.08081	0.40625
-1.53441	0.30422
-1.27939	0.89089
1.60230	-0.58856
-0.10631	-0.05289
-2.96250	-1.63437
1.01576	-0.46102
1.65330	1.22250
1.90832	0.68683
0.55673	0.40625
-0.56534	0.38074
1.09226	0.20219
0.25071	0.48277
-0.00431	-0.10391
-1.43240	-0.05289
-0.59084	-0.07840
1.14327	0.30422
0.73524	0.78886
-0.89686	-0.05289
-0.31033	-0.46102
0.83725	-0.56305
0.68424	-0.43551
0.37822	0.86539
-0.79486	-0.05289
0.25071	0.86539
0.86275	0.22769
0.42922	-0.12942
-2.52897	1.01843
-0.97337	-0.58856
1.90832	-0.10391
0.42922	0.22769
1.47479	0.07465
-0.25932	0.83988
0.83725	0.17668
0.22521	0.35523
0.65874	0.04914
0.02119	-0.30797
-2.12094	-0.41000
0.32721	-0.05289
0.25071	-0.41000
0.17421	0.43176
0.55673	0.53379
0.30171	0.32972
0.25071	0.66132
0.50573	0.55929
0.32721	0.02363
0.02119	0.25320
-1.20288	-0.18043
1.55129	0.38074
-1.50890	0.83988
0.32721	0.04914
0.40372	0.20219
-0.61635	-1.12422
-0.38683	-0.81812
1.29628	0.71234
2.11233	0.58480
-1.15188	0.38074
0.50573	-0.28246
0.48022	0.10015
0.42922	0.55929
-0.28482	0.30422
-0.48884	0.25320
0.73524	0.50828
-1.10088	-0.07840
0.27621	1.01843
0.42922	-0.63957
0.81175	-0.97117
0.63323	-0.25695
-0.18282	0.35523
-0.94787	0.35523
0.78624	0.35523
-0.18282	-0.18043
0.78624	1.09496
-0.51434	0.25320
0.19971	0.58480
0.27621	0.55929
-0.28482	-0.35899
-0.02981	0.02363
0.14870	-0.25695
0.50573	-0.00188
0.50573	0.40625
0.14870	-0.02739
3.36191	-0.15492
-0.71835	-0.02739
-7.45078	0.22769
3.48942	-0.35899
-1.50890	0.43176
-0.59084	0.07465
2.67337	-0.10391
1.24527	1.12046
1.04126	0.66132
0.42922	0.25320
-0.33583	0.40625
1.04126	-0.56305
1.29628	0.71234
-0.87136	-0.18043
-0.15732	0.25320
-1.53441	-0.35899
0.07220	-0.53754
0.63323	0.38074
1.60230	0.55929
-3.37052	0.17668
1.85731	0.73785
0.02119	-0.35899
-1.71292	-0.18043
3.03039	-0.10391
-0.94787	-0.23145
-2.01894	1.47757
1.67880	0.20219
1.44929	0.43176
0.78624	0.22769
0.70974	-0.38449
0.81175	-0.23145
-0.84586	0.63582
-0.92237	-0.48652
0.02119	0.10015
0.60773	-0.41000
0.30171	-0.79262
-0.69285	0.83988
0.40372	1.17148
0.12320	0.55929
0.40372	0.48277
0.07220	0.58480
0.12320	0.50828
0.14870	-0.15492
0.30171	0.12566
0.12320	0.04914
0.14870	-0.41000
0.17421	0.55929
1.75531	-0.63957
-1.40690	-0.86914
-4.18658	-1.63437
0.91375	0.22769
2.64786	1.88570
0.55673	1.52859
-2.04444	0.40625
1.95932	0.02363
0.30171	-0.99668
0.22521	0.40625
0.83725	1.14597
2.52035	0.94191
0.02119	0.17668
-1.71292	0.30422
-0.84586	-0.30797
-0.33583	0.04914
1.01576	0.02363
1.44929	0.17668
-0.51434	-0.86914
-0.66735	0.15117
-0.13181	0.17668
0.60773	0.17668
1.24527	0.45726
0.30171	0.02363
-2.04444	0.76336
2.13783	-0.18043
1.11776	-0.28246
-3.49803	-0.33348
-0.69285	0.48277
1.37278	1.75816
1.29628	-0.58856
0.99026	-0.00188
0.53123	-0.43551
0.53123	0.35523
0.32721	0.99292
0.17421	-0.10391
-0.79486	-0.38449
-0.02981	-0.05289
-0.36133	0.43176
0.22521	0.50828
1.98482	0.81437
-0.10631	-0.07840
-1.30489	0.02363
-1.33039	-0.28246
0.86275	-0.15492
0.27621	0.04914
-1.53441	0.35523
1.21977	0.38074
1.34728	-0.56305
1.34728	0.15117
0.32721	0.40625
0.70974	0.53379
1.19427	0.22769
-0.38683	0.30422
-0.43783	-0.20594
0.19971	-0.33348
-2.22295	-0.02739
-0.00431	0.91640
2.21434	0.81437
0.42922	0.02363
-1.27939	0.43176
0.35272	0.04914
-0.28482	0.66132
0.07220	-0.00188
-0.48884	-0.92016
0.37822	-0.18043
1.21977	0.30422
1.06676	0.55929
-0.08081	-0.02739
0.25071	0.76336
0.70974	0.04914
0.04670	0.07465
0.19971	-0.15492
1.42379	0.22769
-2.57997	0.45726
-1.40690	0.20219
1.04126	0.22769
-0.28482	0.04914
0.58223	0.04914
0.17421	-0.23145
-0.00431	0.58480
0.25071	0.02363
1.57679	0.10015
2.08683	0.25320
-1.84042	0.35523
-1.99343	0.45726
0.68424	1.32453
1.29628	-1.27726
-0.33583	-0.23145
-0.99887	-1.07320
0.68424	-0.05289
1.90832	0.10015
-0.79486	1.14597
-0.89686	1.17148
1.09226	0.58480
0.09770	0.40625
0.55673	-0.20594
2.77537	0.04914
-2.32496	0.02363
1.04126	-0.20594
-0.18282	-0.33348
-3.65104	-0.23145
-0.46334	0.45726
2.06133	0.99292
1.21977	-0.38449
1.32178	-0.35899
0.58223	-0.43551
-0.00431	0.20219
0.30171	0.45726
-0.23382	1.06945
-1.17738	-0.10391
-0.38683	-0.05289
0.58223	-0.07840
0.27621	0.27871
-0.43783	0.25320
-0.02981	0.32972
-0.18282	0.63582
0.22521	-0.35899
0.68424	0.07465
0.55673	0.25320
-0.02981	0.15117
0.88825	0.02363
0.14870	0.22769
1.14327	-0.07840
0.32721	0.71234
-2.01894	-0.12942
0.40372	0.45726
-1.27939	-1.04770
0.68424	-0.25695
0.81175	0.43176
1.34728	0.43176
0.45472	0.66132
-0.71835	0.58480
3.43841	0.12566
-2.04444	-0.38449
-3.16651	0.71234
1.01576	-1.22625
0.58223	0.25320
0.48022	0.61031
0.32721	0.50828
0.50573	0.35523
0.45472	-0.10391
1.50029	0.27871
0.48022	0.25320
-1.50890	-0.02739
0.25071	-0.53754
-2.12094	-0.38449
-0.87136	0.83988
1.62780	0.27871
0.07220	0.30422
1.34728	0.27871
0.58223	-0.15492
0.53123	0.02363
-0.28482	0.50828
0.83725	0.45726
-1.25389	0.17668
0.42922	-0.12942
0.19971	0.38074
-0.56534	-0.33348
0.17421	0.53379
0.53123	-1.22625
0.73524	-0.05289
-1.55991	0.81437
-0.33583	0.68683
1.09226	0.68683
1.04126	-0.18043
-0.92237	-0.00188
0.42922	-0.07840
0.35272	0.38074
1.50029	0.45726
-0.46334	-0.05289
-0.56534	0.02363
0.53123	0.43176
1.09226	0.61031
1.47479	0.66132
-1.40690	-0.56305
-0.31033	-0.23145
0.12320	0.02363
0.25071	0.30422
-0.53984	-0.35899
-0.46334	0.48277
0.88825	-0.25695
0.86275	0.25320
0.65874	-0.53754
1.90832	0.58480
0.58223	0.35523
-3.88056	0.30422
0.30171	0.63582
0.96476	0.27871
-0.38683	0.10015
0.40372	-0.00188
0.35272	0.22769
0.45472	0.02363
0.83725	0.25320
-0.36133	-0.28246
-0.08081	-0.00188
0.17421	0.10015
-0.05531	0.10015
0.04670	0.15117
-0.28482	0.12566
0.30171	0.61031
0.53123	0.50828
0.45472	0.25320
0.35272	-0.30797
0.19971	0.17668
0.14870	-0.35899
0.27621	0.04914
0.83725	-0.00188
-0.13181	0.48277
-1.30489	0.48277
0.12320	0.04914
1.67880	0.10015
-0.94787	0.40625
-0.59084	0.25320
2.39285	-0.10391
0.09770	0.17668
-1.76392	0.25320
0.55673	-0.46102
-0.87136	0.02363
0.45472	-0.05289
1.16877	0.48277
1.80631	0.35523
0.12320	0.50828
-2.09544	0.04914
1.67880	-0.69059
0.83725	-0.28246
-0.08081	1.04394
-0.59084	0.32972
0.25071	0.45726
0.76074	0.25320
-1.15188	0.02363
0.73524	-0.00188
1.19427	0.45726
0.42922	0.81437
-0.99887	-0.23145
-0.38683	0.32972
0.63323	-1.65988
0.07220	0.07465
0.45472	-0.94566
-0.20832	0.73785
0.04670	1.06945
0.40372	0.78886
-0.38683	0.58480
0.70974	0.53379
0.04670	-0.05289
-0.23382	0.20219
0.50573	0.25320
0.07220	-0.00188
-0.02981	-0.28246
0.14870	-0.46102
0.22521	-0.28246
0.12320	0.10015
0.27621	0.22769
0.35272	0.20219
1.04126	0.76336
-0.13181	-0.02739
-1.43240	0.04914
-1.33039	0.15117
0.58223	-0.15492
0.53123	-0.18043
0.83725	0.83988
0.99026	0.63582
0.58223	0.45726
0.37822	-0.00188
0.14870	0.25320
0.02119	-0.15492
0.09770	0.78886
0.76074	-0.25695
-1.12638	-0.46102
-0.87136	0.12566
0.45472	-0.00188
-0.02981	-0.61406
-0.08081	-0.30797
0.68424	0.38074
0.55673	0.76336
0.78624	0.50828
2.26534	1.04394
-1.84042	0.22769
-1.63641	-1.25176
-0.08081	0.25320
0.53123	0.81437
0.96476	0.43176
0.99026	0.10015
0.88825	-0.07840
0.65874	0.40625
-0.89686	-0.07840
-0.48884	-0.56305
0.37822	-0.66508
0.12320	0.32972
-0.20832	0.27871
-0.08081	0.94191
1.95932	0.17668
-0.28482	0.04914
-1.30489	0.22769
0.76074	0.73785
-1.53441	0.35523
1.44929	1.37554
0.86275	-0.00188
-2.22295	-0.61406
1.01576	-0.30797
1.06676	-1.27726
-0.46334	0.25320
0.09770	0.35523
0.19971	0.45726
0.70974	0.81437
0.14870	0.35523
-0.05531	-0.02739
0.19971	0.40625
0.37822	-0.05289
-0.46334	-0.00188
-0.20832	-0.46102
0.19971	-1.22625
0.40372	0.66132
0.96476	0.76336
0.30171	0.68683
-2.47797	0.38074
0.27621	0.17668
0.93925	0.25320
1.29628	0.17668
0.07220	0.55929
1.11776	0.27871
-4.33958	0.20219
-0.08081	-0.02739
2.29084	-0.46102
1.39828	-0.20594
0.63323	0.04914
0.96476	-0.23145
0.99026	1.06945
0.40372	0.20219
-0.15732	-0.18043
0.30171	0.30422
0.58223	-0.51203
-1.61091	0.40625
-1.99343	0.55929
0.25071	0.55929
-0.69285	0.48277
0.83725	0.45726
0.53123	0.04914
1.50029	0.45726
0.50573	-0.18043
-0.89686	-0.28246
1.55129	0.04914
-1.17738	-0.12942
-1.81492	-0.23145
1.04126	-0.02739
2.08683	-0.28246
-0.56534	0.76336
0.17421	0.15117
0.45472	0.35523
0.60773	0.20219
1.27078	0.12566
-1.10088	0.15117
-0.66735	0.07465
1.88281	0.73785
1.37278	0.22769
-3.65104	0.04914
-1.43240	-0.05289
0.45472	0.32972
-0.23382	-0.10391
0.88825	0.15117
1.11776	0.27871
1.16877	-0.20594
1.39828	0.02363
-0.28482	-0.41000
-0.64185	0.15117
-0.46334	-0.05289
-0.20832	0.55929
0.42922	0.53379
0.99026	0.50828
-1.30489	0.35523
-0.13181	0.30422
1.80631	0.17668
0.63323	-0.05289
-1.04987	0.94191
-0.79486	-0.35899
1.06676	0.22769
1.60230	-0.66508
0.40372	-0.71609
0.17421	0.30422
1.24527	0.20219
-1.50890	-0.10391
-1.33039	0.53379
-1.22839	0.91640
1.19427	0.63582
0.65874	0.43176
-1.02437	-0.33348
1.27078	-0.10391
-0.20832	0.15117
1.75531	0.76336
0.14870	-0.30797
-1.40690	-0.56305
1.24527	0.15117
0.86275	-0.15492
-1.27939	0.43176
-0.33583	0.27871
0.14870	-0.23145
0.50573	0.17668
0.63323	0.71234
1.21977	0.53379
1.09226	0.63582
-0.20832	-0.66508
-2.22295	-0.51203
0.09770	0.61031
0.78624	0.76336
-0.74385	0.17668
0.02119	-0.46102
0.37822	0.63582
0.27621	0.63582
0.68424	0.02363
-0.15732	-0.53754
0.17421	0.15117
0.68424	-0.07840
-1.30489	0.04914
2.06133	0.27871
1.32178	0.50828
-6.81324	0.73785
-0.51434	-0.30797
2.44385	-0.23145
1.78081	-0.46102
1.34728	0.43176
1.11776	0.38074
0.53123	0.35523
0.76074	0.50828
-0.08081	-0.12942
-1.33039	0.12566
-0.97337	0.71234
0.32721	0.43176
-0.18282	0.38074
0.32721	-0.63957
-0.13181	-0.20594
0.60773	-0.05289
0.12320	0.04914
0.91375	0.40625
0.17421	0.48277
-1.81492	0.20219
1.21977	-0.46102
0.73524	-0.00188
0.73524	0.38074
0.02119	0.30422
-2.04444	0.76336
0.30171	0.61031
1.55129	0.55929
0.09770	-1.02219
-0.92237	-0.41000
1.04126	-0.05289
0.91375	0.17668
0.53123	0.38074
0.17421	1.22250
0.02119	0.02363
0.25071	-0.05289
0.09770	-0.66508
-0.31033	0.43176
0.22521	0.10015
-0.84586	0.22769
0.37822	0.30422
-0.05531	0.48277
-0.00431	0.25320
-1.30489	-0.07840
1.16877	-0.20594
-0.31033	0.30422
0.81175	0.25320
1.83181	0.25320
0.19971	-0.12942
-0.15732	-0.66508
0.83725	0.22769
1.57679	0.71234
-3.39602	0.15117
-0.23382	-0.18043
-0.23382	0.04914
1.57679	0.55929
0.19971	0.66132
0.02119	0.17668
0.88825	-0.28246
0.68424	0.07465
-1.22839	0.32972
0.53123	0.15117
0.02119	0.25320
0.09770	0.40625
1.29628	-0.07840
-0.53984	0.17668
-0.13181	0.43176
-0.43783	-0.92016
1.67880	0.12566
-0.05531	-0.00188
-2.83499	0.02363
1.34728	0.25320
0.58223	0.25320
0.48022	0.63582
0.32721	0.02363
-0.15732	0.15117
0.30171	0.32972
0.07220	1.24800
0.58223	-0.12942
0.35272	-0.58856
0.45472	0.25320
-0.10631	0.25320
0.04670	-0.07840
0.37822	-0.51203
0.37822	-0.28246
-1.17738	0.55929
0.07220	0.45726
0.73524	0.55929
-0.69285	0.17668
-1.81492	0.15117
0.17421	0.35523
2.08683	0.04914
0.93925	0.12566
0.09770	0.27871
0.35272	0.22769
1.52579	0.76336
2.74987	-0.00188
-0.76936	-0.15492
-3.72755	0.10015
-0.02981	-0.76711
-0.28482	0.04914
1.01576	0.25320
1.01576	0.73785
0.48022	0.58480
-0.15732	0.30422
0.14870	-0.18043
0.30171	0.27871
-0.87136	-0.15492
0.83725	0.22769
1.55129	0.43176
1.52579	0.45726
-2.70748	0.07465
-2.01894	0.25320
-0.31033	0.76336
2.16333	-0.86914
2.36734	0.02363
-3.57454	-0.48652
-0.36133	-0.15492
1.32178	0.45726
1.34728	0.48277
0.50573	0.12566
0.40372	0.73785
0.91375	-0.41000
0.17421	-0.25695
-1.12638	0.45726
0.02119	0.58480
1.11776	-0.20594
-1.22839	-0.02739
-0.99887	0.35523
0.68424	0.55929
-0.76936	0.86539
1.65330	-0.25695
1.95932	-0.51203
-1.61091	-0.51203
0.45472	-0.86914
-0.38683	0.83988
-1.84042	0.63582
1.09226	0.58480
0.91375	1.17148
1.42379	0.63582
1.95932	-0.12942
-2.63097	-0.28246
-1.53441	-0.30797
0.48022	-0.05289
0.70974	-0.02739
0.65874	-0.02739
1.62780	-0.63957
0.07220	0.17668
-0.05531	0.20219
0.70974	0.40625
-0.23382	0.81437
-0.64185	0.27871
0.22521	0.22769
0.22521	-0.43551
0.07220	0.43176
0.07220	-0.48652
-0.61635	0.55929
-0.23382	0.71234
-0.28482	0.81437
0.63323	-0.05289
0.86275	-0.41000
0.42922	0.76336
0.32721	0.32972
0.53123	0.35523
0.40372	-0.86914
0.12320	-0.48652
0.45472	0.07465
-0.08081	0.17668
-0.18282	0.17668
-0.53984	0.27871
-0.71835	0.22769
0.93925	0.76336
0.04670	0.15117
0.22521	0.63582
1.34728	-0.25695
-0.82036	-0.05289
-0.46334	0.32972
-0.43783	-0.07840
1.04126	0.17668
0.53123	0.55929
-0.41233	0.04914
1.50029	-0.25695
-1.12638	-0.02739
-0.43783	-0.02739
1.09226	0.45726
-0.94787	0.04914
1.14327	0.50828
0.99026	0.22769
0.22521	0.32972
-1.63641	0.20219
-1.96793	0.07465
-0.48884	0.10015
0.65874	0.07465
1.19427	0.25320
0.78624	-0.28246
0.63323	-0.30797
0.63323	-0.20594
0.17421	-0.10391
-0.18282	0.50828
0.22521	0.45726
-0.79486	0.38074
-0.18282	-0.00188
0.02119	-0.12942
0.37822	0.71234
0.63323	-0.05289
0.07220	0.32972
-0.43783	0.32972
-0.92237	0.25320
-0.08081	0.68683
0.91375	0.27871
-0.05531	-0.33348
0.60773	-0.38449
1.06676	-0.53754
0.91375	0.25320
1.55129	0.40625
-0.10631	0.73785
-2.98800	-0.33348
-0.69285	0.15117
1.44929	0.66132
1.09226	0.43176
1.06676	0.32972
-1.58541	0.25320
1.14327	-0.61406
-0.51434	-0.10391
-3.26852	-0.41000
0.91375	0.35523
1.14327	0.45726
1.29628	0.17668
0.14870	0.35523
1.67880	0.12566
-1.20288	-0.00188
-1.27939	0.12566
0.73524	0.40625
0.88825	0.45726
0.65874	0.35523
1.83181	-0.02739
-0.94787	-0.20594
-1.15188	-0.07840
-0.89686	0.12566
-1.43240	-0.12942
0.78624	0.20219
1.32178	0.48277
0.30171	0.40625
0.17421	0.22769
1.29628	0.22769
0.14870	-0.02739
-0.43783	-0.07840
-0.38683	0.43176
0.73524	-0.30797
0.02119	0.68683
0.50573	-0.23145
0.30171	-0.07840
0.04670	0.61031
-0.00431	0.17668
-0.61635	-0.43551
-0.28482	0.12566
-0.41233	0.43176
0.45472	0.48277
0.32721	0.53379
1.29628	-0.05289
1.47479	0.15117
-0.71835	-0.58856
0.48022	-0.30797
-0.15732	0.48277
0.02119	0.20219
-2.42696	1.35003
0.88825	-0.94566
0.48022	0.07465
1.11776	-0.89465
0.04670	0.43176
0.19971	0.63582
-0.10631	0.96742
1.11776	0.73785
-0.82036	0.04914
-1.40690	-0.15492
-0.51434	-0.63957
0.63323	-0.18043
0.96476	0.58480
0.93925	0.66132
0.91375	0.38074
0.73524	-0.00188
0.50573	-0.23145
-2.32496	0.40625
0.81175	-0.28246
0.37822	-0.35899
0.50573	0.20219
-0.08081	0.12566
0.02119	0.45726
0.07220	-0.02739
0.14870	0.25320
0.22521	0.30422
0.78624	0.22769
-0.51434	0.48277
0.25071	-0.35899
-0.48884	-0.41000
-1.15188	0.50828
0.65874	0.58480
1.24527	0.07465
1.06676	0.66132
-0.76936	-0.15492
0.35272	-1.04770
0.76074	0.55929
0.93925	0.27871
-0.43783	0.04914
0.37822	0.38074
-0.41233	-0.00188
-0.56534	0.20219
0.55673	0.17668
0.83725	0.12566
0.73524	-0.12942
-0.20832	0.12566
-0.48884	-0.10391
-0.08081	0.35523
0.68424	0.55929
0.63323	0.55929
-0.79486	0.07465
0.91375	0.38074
0.14870	0.45726
0.30171	0.22769
-0.31033	-0.10391
-0.33583	-0.23145
1.29628	-0.38449
-1.30489	0.10015
0.70974	-0.30797
-0.05531	0.40625
-0.13181	0.30422
0.53123	0.30422
1.75531	0.43176
0.22521	0.02363
-1.25389	1.01843
0.09770	-0.18043
0.63323	-0.07840
0.42922	-0.84363
1.14327	-0.43551
-0.15732	0.43176
-0.76936	0.94191
0.07220	0.45726
-0.33583	0.35523
0.17421	0.07465
0.07220	0.04914
0.93925	-0.15492
-0.10631	0.43176
-1.27939	-0.15492
0.30171	-0.33348
0.70974	-0.33348
0.88825	0.43176
0.17421	0.15117
0.14870	0.40625
-1.10088	0.17668
0.27621	0.22769
1.29628	0.48277
1.67880	0.17668
-1.45790	0.22769
-1.30489	-0.02739
0.60773	-0.20594
0.91375	0.04914
0.81175	0.58480
0.22521	-0.05289
-0.59084	0.55929
0.63323	0.15117
-0.92237	-0.33348
0.45472	0.45726
0.25071	0.91640
-0.25932	0.38074
-0.43783	-0.10391
1.04126	-0.07840
0.60773	0.50828
-0.94787	-0.23145
0.30171	-0.71609
-1.40690	-0.63957
-2.17195	-0.25695
1.93382	0.53379
1.62780	0.63582
1.09226	0.50828
0.73524	0.71234
0.68424	0.32972
0.70974	0.25320
-0.48884	0.30422
-0.33583	-0.18043
-1.96793	-0.15492
0.32721	0.61031
0.70974	-0.15492
0.42922	0.32972
0.32721	0.10015
0.22521	0.15117
0.27621	0.45726
0.09770	-0.48652
-0.56534	-0.46102
0.45472	-0.38449
2.23984	0.48277
-0.82036	0.63582
-2.65648	0.48277
1.11776	0.71234
0.73524	0.30422
-0.38683	-0.25695
1.14327	-0.15492
0.40372	-0.51203
0.22521	0.50828
0.63323	0.38074
0.25071	0.04914
0.12320	0.38074
0.37822	0.15117
-0.18282	-0.30797
-0.53984	-0.00188
-0.89686	0.30422
0.04670	0.20219
-0.74385	0.68683
1.78081	-0.12942
0.17421	-0.02739
0.35272	0.55929
1.11776	-0.02739
0.30171	0.02363
-0.46334	-0.05289
-0.79486	0.12566
0.55673	0.27871
1.60230	0.10015
-1.20288	0.12566
-1.71292	0.30422
0.93925	0.32972
1.11776	0.32972
-0.56534	-0.35899
0.63323	-0.41000
0.65874	0.12566
0.40372	-0.30797
0.88825	0.45726
0.53123	0.25320
-0.10631	0.78886
0.70974	0.76336
0.55673	0.10015
-2.75848	-0.15492
-0.74385	-0.35899
0.63323	0.02363
-0.23382	-0.33348
0.35272	-0.05289
1.42379	0.32972
0.68424	0.15117
0.07220	0.38074
-0.10631	0.43176
0.14870	0.45726
0.14870	-0.05289
0.88825	-0.28246
2.18883	-0.07840
-1.96793	-0.23145
-3.77855	0.53379
0.53123	0.48277
1.44929	0.20219
1.50029	0.02363
0.91375	-0.38449
2.36734	-0.58856
-0.38683	0.35523
-1.91693	0.35523
1.55129	0.86539
-0.33583	0.76336
-0.48884	-0.48652
1.04126	-0.25695
0.32721	0.48277
-0.53984	0.22769
0.63323	0.12566
0.50573	-0.10391
1.50029	0.25320
-1.17738	0.66132
-2.88599	0.27871
0.32721	-0.25695
1.24527	0.25320
1.65330	0.15117
0.58223	-0.15492
0.42922	0.02363
0.58223	0.07465
1.42379	0.07465
-0.71835	0.27871
-1.50890	-0.33348
0.40372	0.17668
-0.38683	0.53379
-0.02981	0.81437
0.17421	-0.48652
0.83725	0.15117
0.40372	0.32972
0.19971	0.50828
0.09770	0.53379
-0.31033	0.43176
-0.41233	-0.84363
0.09770	-0.07840
0.78624	0.17668
0.93925	0.25320
1.01576	0.25320
-0.18282	-0.02739
-1.99343	0.38074
-0.53984	0.81437
2.87738	0.15117
-0.36133	-1.04770
-1.53441	-1.09871
1.04126	0.78886
1.16877	0.50828
0.12320	0.32972
0.04670	0.40625
-0.18282	0.20219
0.40372	0.17668
0.45472	0.25320
-0.33583	0.12566
-0.02981	0.55929
0.07220	0.15117
0.35272	0.12566
-0.08081	-0.00188
0.73524	-0.02739
0.53123	-0.00188
-1.58541	0.10015
0.68424	0.15117
-0.61635	-0.18043
0.76074	0.17668
-0.89686	0.73785
-0.94787	0.02363
0.63323	0.30422
-0.10631	-0.25695
0.58223	-1.43031
1.24527	0.83988
1.42379	0.53379
0.86275	0.25320
0.35272	0.55929
0.04670	0.61031
-0.10631	0.30422
-0.28482	0.25320
-0.23382	0.30422
-0.33583	-0.38449
-0.13181	0.12566
0.37822	-0.10391
-0.69285	-0.18043
-0.53984	-0.00188
1.60230	0.68683
0.60773	-0.05289
0.27621	-0.51203
-3.29402	-1.02219
-1.84042	-0.10391
1.85731	1.65613
1.01576	1.04394
1.67880	0.53379
1.75531	0.50828
0.53123	-0.10391
0.09770	0.10015
0.22521	-0.02739
-0.13181	0.22769
-0.25932	0.07465
-0.33583	0.35523
-0.08081	-0.05289
-0.08081	-0.41000
-0.13181	-0.74160
0.04670	0.12566
0.19971	0.48277
-0.23382	0.73785
0.30171	0.38074
0.50573	0.20219
-0.28482	-0.00188
-1.40690	-0.07840
-0.36133	0.07465
2.72437	0.17668
-0.36133	-0.02739
-0.94787	0.04914
2.06133	0.35523
1.34728	0.38074
0.19971	0.20219
-1.38139	0.25320
0.25071	-0.18043
1.04126	0.30422
-0.13181	0.53379
-0.71835	0.40625
0.17421	0.04914
0.45472	-0.07840
0.63323	-0.28246
-0.41233	-0.63957
0.17421	-0.00188
0.02119	-0.18043
0.09770	0.40625
0.70974	0.45726
1.60230	0.53379
-3.06450	0.50828
-1.38139	0.35523
1.90832	0.96742
1.75531	0.35523
0.63323	0.50828
-1.02437	-1.43031
0.25071	0.02363
-0.08081	0.10015
0.68424	0.10015
0.68424	-0.00188
0.32721	0.07465
0.53123	0.43176
0.32721	0.63582
0.19971	0.71234
-0.33583	-0.38449
-0.18282	-0.18043
0.25071	-0.02739
0.04670	-0.05289
-0.05531	0.30422
-0.28482	0.04914
0.12320	0.12566
0.12320	0.35523
0.50573	0.15117
1.06676	0.27871
0.30171	0.02363
-1.04987	-0.05289
-1.76392	0.45726
0.12320	-0.10391
0.91375	0.38074
1.11776	-0.05289
0.83725	-0.28246
-0.02981	0.17668
-0.20832	0.76336
0.70974	0.89089
0.40372	0.15117
0.27621	-0.20594
0.14870	0.12566
-0.08081	0.04914
0.22521	-0.02739
-0.00431	-0.18043
-0.23382	0.07465
-0.13181	0.25320
-0.13181	-0.05289
-0.13181	-0.15492
0.37822	-0.00188
0.68424	0.43176
-0.66735	0.86539
0.70974	0.55929
-0.31033	-0.00188
-0.71835	-0.33348
0.40372	-0.05289
0.70974	0.04914
0.86275	0.15117
0.40372	0.58480
0.35272	0.40625
-0.00431	-0.28246
-0.51434	-0.18043
0.76074	0.30422
0.19971	0.10015
0.37822	0.25320
0.25071	0.22769
-0.08081	0.25320
-1.99343	0.32972
-0.31033	0.30422
0.68424	0.20219
0.63323	-0.02739
0.76074	0.15117
1.21977	-0.56305
-0.05531	0.10015
0.02119	0.20219
0.02119	0.04914
1.65330	0.22769
0.63323	0.20219
-1.91693	0.15117
-0.25932	0.27871
0.12320	-0.18043
0.83725	-0.07840
0.76074	0.25320
-0.84586	0.68683
0.48022	0.43176
0.42922	0.27871
-0.08081	0.04914
0.12320	0.02363
1.01576	0.32972
-0.00431	-0.10391
-1.58541	-0.02739
0.27621	-0.66508
0.73524	0.25320
0.42922	0.45726
0.32721	0.53379
0.04670	0.32972
0.73524	0.25320
0.14870	0.63582
0.07220	-0.00188
-1.04987	-0.35899
-1.10088	0.30422
0.86275	0.02363
0.81175	-0.07840
0.37822	0.22769
1.39828	0.40625
-0.20832	0.07465
-1.22839	0.20219
0.86275	-0.48652
0.22521	0.32972
1.11776	0.25320
-0.08081	0.15117
-0.48884	0.07465
0.02119	0.15117
-0.41233	0.61031
-0.05531	0.32972
0.55673	0.22769
0.86275	-0.23145
0.83725	-0.07840
-1.84042	0.35523
-1.25389	0.48277
0.73524	0.32972
-0.36133	0.04914
1.29628	0.17668
0.45472	-0.23145
0.93925	-0.15492
0.58223	0.35523
-1.25389	0.40625
-0.79486	-0.05289
1.24527	0.22769
1.04126	-0.10391
-0.23382	-0.23145
0.04670	0.10015
-0.05531	0.22769
0.25071	0.20219
0.12320	0.10015
0.30171	0.10015
0.12320	1.24800
-0.66735	0.81437
-0.41233	0.48277
1.11776	-0.15492
0.37822	-0.51203
-0.61635	-0.23145
-0.05531	0.04914
0.83725	0.17668
0.55673	-0.12942
0.42922	-0.00188
1.39828	0.25320
0.93925	0.63582
-2.47797	0.50828
0.32721	-0.12942
0.25071	0.04914
0.27621	0.20219
0.83725	0.25320
0.76074	0.12566
0.04670	-0.35899
-0.69285	0.22769
-0.53984	-0.05289
0.91375	0.15117
0.07220	-0.15492
-1.20288	0.15117
0.68424	1.04394
0.53123	0.68683
0.07220	0.20219
0.35272	0.02363
1.29628	-0.20594
0.53123	-0.20594
-2.60547	-0.25695
0.27621	0.07465
1.27078	0.10015
-0.53984	0.25320
1.34728	0.45726
0.25071	0.55929
-3.19201	-0.05289
1.60230	0.02363
1.27078	0.10015
0.83725	0.04914
1.11776	0.20219
0.81175	0.20219
0.14870	0.10015
-0.46334	0.43176
0.12320	0.38074
0.09770	0.48277
-1.99343	0.17668
0.37822	-0.63957
0.63323	-0.61406
-1.68742	0.20219
1.47479	0.55929
-2.47797	0.45726
0.55673	0.71234
1.83181	0.50828
1.19427	0.07465
0.53123	-0.30797
0.73524	0.35523
0.37822	0.30422
0.48022	0.20219
-1.45790	-0.35899
0.35272	-0.46102
0.73524	-0.38449
-0.05531	0.15117
-0.23382	0.43176
-0.05531	0.53379
-0.05531	0.58480
0.17421	0.30422
0.25071	0.17668
0.68424	0.10015
-0.33583	0.35523
-1.66191	0.02363
0.53123	-0.35899
0.02119	-0.10391
0.53123	0.20219
0.78624	0.32972
0.58223	0.27871
0.37822	0.40625
0.78624	0.10015
1.32178	-0.02739
-1.35589	0.07465
-0.71835	-0.12942
0.19971	0.25320
-0.02981	0.04914
1.32178	-0.10391
-0.36133	-0.02739
-0.66735	0.43176
0.73524	0.48277
0.53123	0.43176
0.22521	0.40625
-0.10631	-0.10391
0.83725	-0.41000
0.65874	0.25320
-1.73842	0.15117
-0.79486	0.45726
0.35272	0.35523
1.52579	0.02363
0.53123	-0.23145
-0.99887	0.40625
1.06676	-0.28246
0.48022	-0.15492
-1.04987	0.20219
-0.25932	0.71234
0.68424	0.22769
-0.05531	-0.18043
1.34728	-0.10391
0.60773	0.15117
0.19971	0.10015
0.12320	0.25320
0.83725	0.32972
0.07220	0.45726
-1.71292	0.40625
-0.66735	0.73785
0.17421	0.04914
0.91375	0.07465
0.53123	-0.05289
0.65874	-0.12942
0.48022	-0.05289
0.93925	-0.23145
-0.23382	-0.00188
-2.40146	0.30422
0.30171	-0.28246
0.55673	-0.05289
0.73524	0.43176
0.58223	0.30422
-0.02981	0.50828
0.30171	0.99292
0.30171	0.50828
0.14870	-0.30797
0.48022	-0.69059
0.58223	-0.46102
-0.89686	-0.00188
-1.43240	0.55929
-0.36133	0.58480
1.98482	0.55929
-0.05531	0.55929
-0.53984	0.22769
1.04126	-0.46102
0.81175	0.04914
1.60230	0.02363
-0.66735	0.22769
-1.40690	-0.00188
0.93925	0.04914
0.81175	0.50828
-1.30489	0.02363
-0.41233	0.10015
0.09770	0.40625
-0.41233	0.45726
0.91375	0.15117
1.32178	0.07465
0.99026	-0.02739
1.14327	0.17668
-0.64185	-0.07840
-1.04987	0.02363
-0.00431	-0.05289
0.07220	0.61031
0.50573	0.45726
0.30171	0.25320
0.70974	0.30422
-0.84586	-0.28246
-0.99887	-0.10391
0.45472	-0.07840
0.30171	-0.10391
0.78624	0.04914
0.32721	0.55929
0.42922	0.53379
0.04670	0.35523
0.07220	0.04914
0.07220	-0.28246
0.83725	0.17668
0.48022	-0.07840
-0.76936	0.17668
1.09226	0.53379
0.96476	0.35523
-3.11551	0.38074
-2.47797	0.20219
0.48022	-0.00188
1.32178	-0.18043
1.67880	0.07465
1.21977	0.07465
0.58223	0.15117
0.25071	0.25320
0.17421	0.02363
-0.31033	-0.18043
0.58223	0.40625
-0.23382	0.55929
-0.13181	0.35523
-0.13181	0.17668
-0.05531	-0.00188
-0.02981	-0.05289
0.78624	0.12566
0.07220	0.10015
0.30171	0.45726
-1.86593	0.02363
-0.89686	0.15117
1.21977	-0.20594
0.02119	-0.71609
0.83725	0.38074
0.70974	0.61031
0.99026	0.45726
0.63323	0.38074
0.42922	0.22769
0.58223	0.02363
-0.94787	0.12566
-1.02437	-0.07840
0.76074	0.45726
0.73524	0.32972
-0.64185	0.20219
0.07220	-0.35899
-0.00431	-0.18043
1.06676	-0.02739
-0.61635	0.35523
-0.20832	0.55929
-0.20832	0.02363
0.53123	0.02363
0.53123	-0.10391
0.42922	0.07465
0.19971	0.38074
0.73524	0.27871
1.29628	0.17668
-0.94787	0.07465
-1.63641	-0.41000
0.02119	0.63582
0.68424	-0.25695
0.30171	0.58480
0.50573	0.50828
0.53123	-0.12942
0.50573	0.73785
0.73524	0.15117
-1.30489	0.27871
-0.10631	0.17668
0.68424	-0.28246
0.32721	0.22769
0.04670	0.02363
0.09770	0.17668
0.32721	-0.33348
0.45472	0.30422
-1.12638	0.02363
0.68424	0.27871
0.68424	-0.15492
-0.71835	-0.20594
0.70974	0.27871
0.14870	-0.41000
0.17421	0.45726
0.22521	0.35523
0.53123	0.40625
-0.87136	0.32972
0.09770	0.55929
-0.56534	0.15117
0.81175	0.30422
1.21977	0.25320
-0.69285	-0.51203
-0.69285	0.22769
2.01032	-0.00188
-0.08081	-0.02739
-2.68198	0.66132
-0.64185	-0.00188
0.88825	0.04914
1.19427	0.17668
1.09226	0.35523
0.45472	0.12566
0.17421	-0.02739
-0.18282	-0.02739
-0.02981	0.25320
-0.41233	-0.12942
-0.02981	-0.43551
1.24527	0.35523
-2.04444	0.35523
0.25071	-0.15492
0.19971	-0.05289
0.37822	0.66132
0.30171	0.45726
0.32721	0.35523
0.22521	0.30422
0.96476	0.22769
-0.25932	0.15117
0.07220	-0.02739
1.39828	-0.18043
-0.71835	-0.00188
-1.25389	0.02363
-0.28482	0.04914
0.09770	-0.02739
1.04126	-0.05289
0.68424	0.22769
0.83725	0.12566
0.53123	0.35523
0.25071	0.32972
0.04670	0.12566
0.12320	0.04914
0.07220	0.12566
0.25071	0.61031
-0.28482	0.15117
-0.28482	0.55929
-0.43783	-0.35899
-0.13181	-0.69059
0.35272	0.43176
0.81175	0.66132
0.50573	0.27871
1.80631	0.32972
-0.15732	0.20219
-1.76392	-0.12942
0.48022	0.35523
0.50573	-0.10391
0.58223	-0.20594
0.76074	0.15117
-0.94787	-0.05289
-0.23382	0.10015
0.60773	0.15117
0.70974	0.04914
0.70974	0.43176
0.19971	0.45726
-0.08081	0.02363
0.22521	0.43176
-0.43783	-0.10391
-0.46334	-0.10391
1.01576	0.12566
0.07220	0.15117
-0.97337	0.27871
0.37822	0.07465
0.22521	0.15117
0.12320	0.25320
0.32721	0.04914
0.14870	0.04914
0.25071	0.22769
0.40372	0.22769
0.07220	0.45726
0.73524	0.10015
1.21977	-0.07840
-1.55991	0.58480
-0.82036	-0.05289
0.48022	0.07465
1.29628	-0.46102
-0.20832	-0.30797
-1.25389	0.32972
0.93925	0.35523
1.29628	0.25320
0.30171	0.38074
-0.31033	0.22769
-1.15188	0.22769
1.57679	0.22769
0.42922	0.17668
-1.61091	0.20219
0.93925	0.04914
1.14327	-0.20594
-2.09544	0.10015
0.53123	0.27871
0.53123	0.04914
0.81175	0.04914
0.58223	0.15117
0.07220	0.27871
0.14870	0.38074
0.93925	-0.28246
-0.82036	-0.07840
-0.79486	0.02363
0.22521	0.25320
0.48022	0.38074
0.25071	0.27871
-0.08081	0.04914
-0.36133	0.15117
-0.00431	0.38074
-0.15732	0.22769
0.83725	0.22769
1.70430	0.17668
-0.99887	0.07465
-0.87136	-0.05289
0.55673	-0.10391
-0.43783	0.38074
0.45472	0.17668
0.65874	0.02363
0.55673	0.04914
0.30171	0.02363
0.12320	0.12566
0.42922	0.20219
0.04670	0.27871
-0.31033	0.30422
0.02119	1.01843
-0.41233	-0.02739
1.27078	0.17668
-0.00431	-0.89465
-2.88599	-1.07320
0.99026	0.38074
-0.05531	0.12566
0.25071	0.38074
0.04670	0.61031
0.37822	0.73785
1.47479	0.68683
1.11776	0.40625
-0.10631	0.12566
-0.51434	-0.20594
0.02119	0.15117
0.09770	0.10015
0.30171	-0.15492
0.45472	0.17668
0.30171	-0.02739
-1.12638	0.10015
-0.64185	0.04914
0.30171	-0.05289
0.60773	0.10015
-0.31033	0.68683
0.35272	-0.07840
0.25071	0.27871
-0.18282	-0.15492
0.07220	-0.05289
0.86275	0.02363
0.37822	0.22769
-0.02981	0.50828
0.22521	0.43176
0.14870	0.50828
0.02119	0.43176
0.76074	0.04914
0.63323	0.20219
-2.29945	-0.35899
-0.59084	-0.20594
0.70974	0.17668
0.86275	0.35523
0.50573	-0.10391
-0.10631	0.20219
0.17421	-0.74160
0.07220	0.04914
0.22521	0.50828
0.53123	0.55929
0.78624	0.35523
-0.28482	0.76336
-0.51434	0.53379
-0.20832	0.20219
-0.33583	-0.07840
1.27078	-0.51203
-0.20832	-0.25695
-0.82036	-0.18043
-0.05531	0.22769
0.53123	0.76336
1.04126	0.68683
0.48022	0.50828
0.55673	-0.46102
-0.33583	-0.53754
0.42922	-0.79262
0.27621	-0.12942
-0.31033	0.68683
0.50573	0.91640
-0.02981	0.86539
-0.76936	0.20219
1.09226	0.10015
-1.10088	0.27871
-1.27939	-0.10391
0.63323	-0.18043
0.50573	0.02363
0.78624	0.17668
0.68424	0.40625
0.65874	0.02363
0.37822	0.20219
-0.00431	-0.41000
0.07220	0.15117
0.02119	0.17668
0.07220	0.10015
0.09770	0.35523
-0.31033	0.10015
-0.15732	0.35523
0.58223	0.40625
0.32721	0.17668
-1.07538	0.04914
-0.79486	0.50828
-0.08081	0.15117
0.96476	-0.00188
0.81175	-0.15492
0.81175	-0.15492
-0.56534	-0.15492
-0.31033	0.35523
0.32721	0.50828
-0.38683	0.25320
0.70974	-0.02739
0.60773	0.15117
0.12320	-0.05289
-0.13181	0.35523
0.14870	0.32972
0.14870	0.07465
0.83725	-0.05289
-0.25932	0.04914
-0.79486	0.27871
-0.15732	0.20219
-0.99887	-0.15492
0.45472	0.12566
0.68424	0.61031
0.32721	0.66132
0.35272	0.02363
0.73524	-0.18043
-0.20832	-0.00188
-0.05531	0.25320
0.45472	0.20219
-0.00431	0.25320
0.70974	-0.20594
0.35272	0.45726
0.02119	-0.05289
-1.35589	0.15117
-0.23382	0.22769
0.70974	-0.15492
1.24527	0.27871
0.65874	0.38074
-0.23382	0.50828
0.32721	0.17668
0.19971	-0.05289
0.12320	-0.05289
0.35272	-0.10391
-1.10088	0.30422
0.42922	-0.18043
0.63323	0.12566
-0.10631	0.32972
-0.41233	0.30422
-0.08081	0.17668
0.50573	0.22769
0.50573	0.12566
0.02119	0.20219
-0.33583	0.15117
-0.10631	-0.20594
0.35272	-0.12942
0.30171	0.22769
-0.10631	0.63582
0.88825	0.25320
1.34728	0.07465
-1.10088	-0.41000
0.09770	0.20219
-0.18282	0.17668
-2.27395	0.32972
0.60773	0.35523
1.42379	0.04914
1.01576	-0.12942
0.99026	0.17668
1.52579	-0.05289
-0.28482	-0.35899
-0.64185	0.35523
0.55673	0.07465
-0.61635	-0.00188
-0.41233	0.71234
-0.00431	0.38074
0.12320	0.40625
0.50573	0.35523
0.32721	0.04914
0.09770	-0.10391
0.45472	0.02363
1.67880	-0.07840
-2.06994	-0.38449
-1.89143	0.30422
1.01576	0.02363
1.16877	0.61031
0.14870	0.45726
-0.13181	0.20219
0.48022	0.17668
0.14870	-0.10391
0.83725	0.12566
0.83725	0.22769
-1.43240	-0.10391
-0.20832	0.27871
-0.82036	0.15117
0.07220	-0.28246
1.11776	-0.25695
1.32178	0.25320
0.40372	0.63582
-0.76936	0.40625
-1.25389	0.12566
0.65874	0.15117
0.50573	-0.30797
0.48022	0.15117
0.53123	0.40625
0.27621	0.30422
0.73524	0.50828
0.07220	0.15117
-1.17738	-0.43551
0.58223	-0.35899
-0.10631	-0.66508
-0.18282	0.02363
0.32721	0.99292
-0.23382	0.91640
0.22521	0.12566
0.40372	0.35523
0.12320	0.27871
0.17421	0.17668
0.65874	0.04914
-0.10631	-0.00188
-0.51434	0.10015
0.22521	0.02363
1.27078	0.12566
-0.13181	-0.30797
-0.66735	0.07465
0.07220	0.12566
0.27621	0.38074
0.37822	0.17668
0.60773	0.25320
0.27621	0.17668
-0.71835	0.04914
0.68424	0.27871
-0.00431	0.12566
-0.61635	0.10015
0.22521	0.12566
0.45472	-0.12942
1.34728	0.30422
-0.38683	0.25320
-2.12094	0.25320
1.01576	0.22769
0.93925	-0.20594
0.19971	0.12566
0.22521	0.35523
0.32721	-0.12942
0.27621	0.04914
0.78624	0.07465
0.27621	0.58480
-0.59084	0.27871
-3.11551	-0.00188
-0.10631	0.17668
1.47479	0.20219
0.88825	0.25320
0.30171	-0.05289
0.42922	-0.30797
0.27621	0.20219
0.76074	0.04914
0.12320	0.15117
-0.02981	0.17668
0.22521	0.76336
0.40372	-0.12942
0.32721	-0.15492
-0.31033	0.25320
-0.64185	0.15117
-1.40690	0.38074
0.63323	0.22769
0.25071	0.17668
0.68424	0.20219
0.70974	0.15117
0.17421	-0.10391
0.53123	0.15117
0.48022	0.27871
0.65874	-0.02739
0.40372	0.15117
0.35272	0.10015
-0.25932	-0.05289
-0.02981	-0.07840
-0.99887	-0.05289
-0.02981	0.35523
2.03582	0.30422
0.37822	0.27871
-1.10088	0.45726
-0.87136	0.35523
0.40372	-0.28246
1.09226	-0.43551
0.73524	-0.18043
-0.23382	0.76336
-0.08081	0.43176
0.73524	0.55929
0.40372	0.02363
0.45472	0.27871
0.55673	0.15117
-0.23382	-0.15492
-0.69285	-0.00188
0.37822	0.48277
0.19971	-0.00188
-0.08081	-0.41000
-0.00431	-0.23145
0.02119	0.17668
1.42379	0.25320
-0.76936	0.45726
-1.22839	0.15117
0.50573	0.20219
0.40372	-0.02739
0.68424	0.35523
0.50573	0.53379
0.17421	0.15117
0.93925	0.15117
0.04670	0.10015
-1.30489	0.04914
0.48022	-0.07840
0.68424	0.04914
-0.05531	0.20219
-0.38683	0.15117
0.40372	0.22769
0.37822	0.35523
0.32721	0.07465
0.65874	0.15117
0.48022	-0.12942
-0.94787	-0.07840
-0.82036	0.20219
0.37822	0.38074
1.27078	0.45726
0.32721	0.10015
-0.84586	0.45726
-0.20832	0.15117
0.30171	-0.05289
0.70974	-0.12942
1.14327	-0.41000
0.81175	-0.12942
-0.23382	0.32972
-1.86593	0.68683
-0.28482	0.73785
0.42922	0.30422
0.53123	-0.15492
0.48022	-0.05289
0.70974	-0.05289
-0.10631	0.27871
0.30171	0.81437
0.25071	-0.02739
0.19971	0.17668
0.22521	-0.02739
-0.08081	-0.02739
0.17421	0.32972
0.14870	-0.12942
-0.25932	0.43176
-0.31033	-0.15492
0.65874	-0.23145
0.30171	0.30422
-1.35589	-0.35899
0.83725	0.55929
0.27621	0.78886
-0.48884	0.20219
0.60773	0.10015
0.88825	0.07465
0.60773	0.15117
0.35272	0.17668
0.37822	0.22769
0.12320	-0.02739
-0.33583	-0.46102
-0.74385	-0.48652
0.76074	0.12566
0.70974	0.71234
-0.94787	0.68683
-0.94787	0.35523
0.27621	-0.00188
0.55673	-0.02739
1.85731	-0.10391
0.32721	0.25320
-1.61091	0.17668
0.76074	0.02363
0.45472	0.15117
0.02119	0.17668
-0.51434	-0.15492
0.35272	0.53379
0.86275	-0.38449
0.02119	0.43176
-0.48884	0.15117
0.27621	0.07465
0.68424	0.58480
-0.23382	0.27871
-0.66735	0.38074
0.04670	0.22769
0.60773	-0.00188
0.93925	-0.05289
0.22521	-0.07840
0.12320	-0.18043
0.17421	-0.28246
-0.18282	0.55929
-0.25932	-0.12942
0.22521	0.22769
0.25071	0.22769
0.73524	0.50828
-0.02981	0.17668
-0.28482	0.04914
0.19971	-0.05289
-0.20832	0.02363
-0.38683	0.07465
0.17421	0.55929
0.30171	0.20219
0.63323	0.15117
0.81175	0.45726
0.50573	-0.00188
-0.33583	0.07465
0.73524	0.30422
0.07220	0.15117
-1.71292	0.12566
-0.05531	0.17668
1.55129	-0.05289
1.09226	0.15117
0.12320	-0.28246
-1.99343	0.32972
-0.15732	0.02363
0.02119	0.35523
0.91375	0.27871
1.19427	-0.10391
-0.41233	0.17668
0.40372	0.32972
0.83725	0.15117
-0.08081	0.25320
0.19971	0.10015
-0.10631	-0.46102
0.35272	0.12566
-0.38683	0.20219
-0.08081	0.07465
0.48022	0.22769
0.58223	-0.00188
-0.33583	0.48277
0.19971	0.20219
-0.82036	0.86539
0.86275	-0.23145
-0.20832	0.17668
-0.18282	-0.18043
0.30171	0.20219
0.19971	-0.33348
0.76074	0.30422
0.83725	0.02363
0.48022	0.32972
-0.13181	0.50828
-0.02981	0.02363
0.86275	0.45726
-0.69285	-0.20594
-0.89686	0.15117
0.37822	0.22769
0.93925	0.15117
0.68424	0.45726
0.12320	0.07465
-0.74385	-0.38449
-0.79486	-0.25695
0.55673	0.25320
0.30171	0.12566
0.53123	0.22769
0.78624	0.17668
0.58223	0.20219
-0.31033	0.73785
-0.15732	0.43176
0.09770	-0.05289
0.19971	-0.25695
1.09226	-0.30797
-0.48884	0.20219
-2.40146	0.12566
0.88825	0.32972
1.44929	0.38074
-0.25932	0.43176
0.70974	0.12566
0.32721	0.04914
-0.20832	-0.20594
0.50573	-0.46102
0.73524	-0.07840
-0.23382	-0.07840
-0.66735	0.73785
0.12320	0.66132
0.65874	0.17668
0.17421	-0.12942
-0.08081	-0.20594
-0.38683	0.71234
0.53123	0.53379
0.65874	0.40625
0.07220	0.32972
0.25071	-0.30797
0.09770	-0.48652
-0.25932	-0.99668
-0.25932	0.25320
0.07220	0.55929
0.60773	0.76336
0.53123	0.61031
1.32178	-0.05289
-0.38683	0.02363
-1.33039	-0.10391
1.39828	0.15117
0.96476	0.25320
-2.47797	0.83988
-0.25932	0.07465
1.04126	-0.00188
1.04126	0.15117
1.29628	0.07465
0.73524	-0.02739
-0.82036	-0.15492
-0.25932	-0.05289
0.42922	0.15117
0.53123	0.27871
-0.02981	0.66132
-0.41233	0.10015
-0.51434	-0.00188
0.04670	0.12566
0.12320	0.04914
0.45472	0.48277
0.22521	0.10015
0.40372	-0.18043
-0.33583	0.40625
-0.08081	0.07465
0.27621	0.30422
0.35272	-0.07840
0.50573	-0.05289
0.09770	0.10015
-0.10631	-0.18043
0.02119	-0.05289
1.14327	0.53379
-0.79486	0.53379
-0.13181	0.20219
-0.31033	-0.05289
-1.17738	0.15117
1.06676	0.07465
0.65874	0.86539
0.45472	1.40105
1.29628	-0.58856
-0.00431	-0.30797
-0.56534	-0.12942
0.55673	0.35523
0.53123	-0.05289
-1.20288	0.04914
0.09770	-0.43551
0.63323	-0.02739
0.25071	0.17668
-0.15732	0.40625
0.19971	0.43176
0.04670	0.43176
0.17421	0.43176
-0.69285	-0.02739
-0.33583	0.02363
1.52579	0.35523
-0.36133	-0.23145
-1.66191	0.25320
0.86275	0.12566
0.12320	0.25320
0.42922	0.32972
2.06133	0.12566
0.37822	0.12566
-0.61635	0.10015
-0.94787	-0.46102
0.14870	0.12566
0.99026	0.10015
0.96476	0.30422
0.42922	0.32972
-0.79486	0.63582
-0.20832	-0.00188
0.76074	-0.20594
0.14870	-0.58856
-0.02981	-0.35899
0.32721	0.12566
-0.28482	0.53379
-0.15732	0.55929
0.14870	0.25320
0.19971	0.48277
0.58223	0.17668
0.19971	-0.02739
-1.02437	-0.18043
0.27621	-0.61406
0.68424	0.91640
0.81175	0.63582
0.40372	0.48277
0.50573	0.32972
0.53123	-0.10391
-0.41233	-0.38449
-0.28482	0.12566
0.37822	0.15117
0.78624	0.15117
0.93925	0.25320
-2.04444	-0.35899
-1.17738	0.38074
0.53123	0.12566
0.68424	0.38074
-0.05531	0.38074
0.27621	-0.46102
1.24527	0.02363
0.88825	0.32972
-0.74385	0.48277
1.44929	0.20219
0.63323	0.40625
-2.60547	-0.12942
-0.05531	-0.07840
0.42922	0.10015
0.07220	0.02363
0.53123	0.15117
0.50573	0.07465
0.27621	0.43176
-0.13181	0.20219
0.37822	0.02363
-0.41233	-0.25695
0.02119	-0.20594
0.50573	0.12566
1.42379	0.63582
-0.64185	0.66132
-1.43240	0.04914
-0.79486	-0.02739
1.14327	0.12566
0.81175	0.04914
-0.61635	-0.12942
0.60773	0.58480
1.24527	0.15117
0.73524	0.02363
-1.10088	0.10015
0.17421	-0.05289
1.06676	0.10015
0.42922	0.45726
-0.51434	-0.20594
-0.13181	-0.05289
-0.00431	0.15117
0.45472	0.07465
0.78624	0.55929
-0.18282	-0.05289
-0.59084	0.32972
1.32178	0.20219
1.06676	0.50828
-1.68742	0.04914
-1.53441	0.12566
0.68424	0.15117
0.53123	-0.07840
1.24527	-0.23145
0.53123	0.02363
0.30171	0.30422
1.04126	0.43176
-0.18282	0.04914
-0.02981	0.07465
0.65874	0.35523
-0.18282	-0.28246
-0.08081	-0.25695
-0.10631	0.15117
0.68424	0.22769
