0.27621	0.20219
0.12320	0.12566
0.14870	0.10015
-0.02981	0.17668
0.04670	0.12566
0.40372	0.20219
-0.02981	-0.00188
0.17421	0.30422
0.07220	0.15117
0.14870	-0.05289
0.12320	0.22769
0.12320	0.15117
0.22521	0.22769
0.12320	0.10015
0.19971	0.22769
0.09770	0.07465
0.14870	0.17668
0.09770	0.20219
0.22521	0.17668
0.12320	0.12566
0.22521	0.15117
0.12320	-0.02739
0.12320	0.17668
0.07220	0.17668
0.17421	0.12566
0.12320	0.12566
0.07220	0.15117
0.09770	0.15117
0.22521	0.17668
0.19971	0.12566
0.09770	0.15117
0.12320	0.15117
0.19971	0.12566
0.09770	0.15117
0.17421	0.30422
0.12320	0.02363
0.17421	0.17668
0.14870	0.12566
0.22521	0.17668
0.12320	0.02363
0.19971	0.17668
0.02119	0.04914
0.12320	0.15117
0.09770	0.17668
0.17421	0.07465
0.14870	0.22769
0.09770	0.17668
0.12320	0.17668
0.17421	0.10015
0.09770	0.20219
0.22521	0.20219
0.19971	0.12566
0.09770	0.07465
0.14870	0.10015
0.12320	0.20219
0.14870	0.17668
0.27621	0.20219
-0.23382	0.17668
0.12320	0.07465
0.19971	0.15117
0.04670	0.12566
0.35272	0.12566
0.12320	0.12566
0.12320	0.10015
0.02119	0.17668
0.07220	-0.00188
0.12320	0.20219
0.12320	0.22769
0.22521	0.10015
0.14870	0.17668
0.22521	0.10015
0.12320	0.22769
0.17421	0.07465
0.12320	0.15117
0.02119	0.12566
0.14870	0.20219
0.14870	-0.00188
0.12320	0.25320
0.04670	0.07465
0.22521	0.22769
0.09770	-0.07840
0.27621	0.25320
0.09770	0.25320
0.12320	0.15117
0.14870	-0.00188
0.12320	0.25320
-0.00431	0.10015
0.27621	0.12566
0.12320	0.17668
0.22521	0.25320
0.19971	0.10015
0.09770	0.25320
0.04670	-0.15492
0.22521	0.25320
0.12320	0.27871
0.19971	0.25320
0.12320	0.22769
0.07220	0.12566
0.22521	0.15117
0.07220	0.17668
0.19971	0.07465
0.02119	0.20219
0.19971	0.27871
0.22521	0.07465
-0.02981	-0.02739
0.17421	0.07465
0.14870	-0.02739
0.32721	0.17668
0.09770	0.35523
0.04670	0.04914
-0.02981	0.17668
0.19971	0.25320
0.22521	0.10015
0.22521	0.20219
0.12320	0.17668
0.25071	0.10015
0.07220	0.10015
0.07220	0.10015
0.12320	0.17668
0.09770	0.15117
0.14870	0.15117
0.14870	0.15117
0.14870	-0.00188
0.14870	0.17668
0.12320	0.10015
0.25071	0.15117
0.07220	0.15117
0.25071	-0.12942
0.19971	0.27871
-0.08081	0.12566
0.32721	0.27871
0.12320	0.22769
0.22521	-0.02739
0.09770	0.27871
0.07220	-0.05289
0.22521	0.17668
0.02119	0.15117
0.09770	0.15117
0.19971	0.15117
0.17421	-0.00188
0.19971	0.20219
0.12320	0.17668
0.09770	0.25320
0.12320	-0.00188
0.32721	0.10015
0.27621	0.17668
-0.13181	0.02363
-0.20832	0.12566
-0.05531	0.22769
0.37822	0.12566
0.37822	0.12566
0.30171	0.15117
0.17421	-0.10391
0.30171	0.30422
-0.00431	0.04914
0.09770	0.17668
0.09770	0.04914
0.09770	0.25320
0.09770	0.20219
0.14870	0.17668
0.04670	0.17668
0.04670	0.15117
0.19971	0.27871
0.22521	-0.02739
0.27621	-0.02739
0.12320	0.10015
-0.05531	0.12566
0.09770	0.30422
0.07220	0.15117
0.25071	0.35523
0.14870	0.20219
0.37822	0.15117
0.14870	0.04914
0.12320	0.22769
0.12320	0.02363
0.22521	0.27871
0.07220	0.25320
0.12320	0.17668
0.22521	0.22769
0.14870	0.12566
0.17421	0.10015
0.19971	-0.00188
0.07220	0.27871
-0.18282	0.02363
0.35272	0.20219
0.22521	0.10015
0.02119	0.10015
0.02119	0.20219
0.17421	0.22769
0.22521	0.25320
0.07220	0.15117
0.30171	-0.00188
0.17421	0.20219
0.17421	0.17668
0.22521	-0.00188
0.02119	0.35523
-0.00431	0.07465
0.19971	0.10015
0.12320	0.12566
0.14870	0.15117
0.17421	0.02363
0.14870	0.20219
0.07220	0.07465
0.22521	0.12566
0.14870	0.12566
0.25071	0.12566
0.04670	0.22769
0.22521	0.10015
0.14870	0.30422
0.12320	0.10015
0.14870	0.12566
0.12320	0.07465
0.12320	0.25320
0.17421	0.07465
0.25071	0.07465
0.04670	0.15117
0.25071	0.07465
0.09770	0.02363
0.09770	0.38074
-0.00431	0.10015
0.25071	0.15117
0.22521	-0.05289
0.19971	0.15117
0.07220	0.04914
0.19971	0.04914
0.09770	0.12566
0.04670	0.25320
0.02119	0.02363
0.25071	0.32972
0.09770	0.10015
0.32721	0.15117
-0.00431	0.17668
0.14870	0.12566
0.17421	0.10015
0.09770	0.10015
-0.05531	0.22769
0.22521	0.30422
0.12320	0.04914
0.27621	0.35523
0.07220	0.15117
0.27621	0.04914
0.22521	0.04914
0.27621	-0.05289
0.17421	0.20219
-0.02981	0.25320
0.17421	0.25320
0.07220	0.04914
0.02119	0.12566
-0.02981	0.02363
0.30171	0.17668
0.17421	0.20219
0.35272	0.17668
0.17421	0.20219
0.22521	0.07465
0.17421	0.02363
0.09770	0.20219
-0.00431	0.04914
0.22521	0.10015
-0.02981	0.25320
-0.05531	0.15117
0.17421	0.12566
0.22521	0.12566
0.27621	0.10015
0.04670	0.10015
0.12320	0.17668
0.12320	0.12566
0.19971	0.15117
0.09770	0.17668
0.17421	0.25320
0.17421	0.07465
0.14870	0.02363
0.40372	0.20219
0.02119	0.25320
0.14870	0.17668
0.02119	0.07465
0.04670	0.12566
0.09770	-0.02739
0.17421	0.38074
0.09770	0.25320
0.19971	0.20219
0.27621	0.02363
0.12320	-0.07840
0.14870	0.20219
0.12320	-0.02739
0.30171	0.12566
0.32721	0.30422
0.04670	0.07465
0.04670	0.38074
-0.15732	0.12566
0.30171	0.32972
0.04670	0.17668
0.19971	0.10015
0.14870	0.12566
0.22521	0.10015
0.30171	0.17668
0.14870	0.15117
0.07220	-0.15492
-0.05531	-0.25695
-0.28482	0.15117
0.55673	0.40625
0.53123	0.38074
0.12320	0.22769
-0.00431	0.07465
0.12320	0.12566
-0.00431	0.30422
0.22521	0.38074
0.22521	0.12566
0.35272	-0.07840
0.50573	-0.28246
0.37822	0.17668
-0.18282	-0.15492
-0.31033	0.86539
-0.10631	0.07465
-0.02981	0.02363
0.42922	0.15117
0.27621	0.12566
0.63323	0.32972
0.55673	0.32972
-0.05531	0.48277
-0.18282	0.10015
-0.31033	-0.41000
-0.08081	-0.15492
0.19971	-0.15492
0.58223	0.15117
0.63323	0.27871
-0.25932	0.86539
-0.56534	0.45726
0.78624	0.27871
0.27621	0.32972
0.04670	-0.15492
-0.08081	-0.12942
0.04670	-0.02739
0.40372	-0.23145
-0.23382	-0.02739
0.70974	0.27871
0.22521	0.22769
0.17421	0.12566
-0.08081	0.10015
0.25071	0.35523
-0.89686	-0.02739
0.12320	0.71234
0.12320	0.10015
0.63323	-0.12942
0.42922	-0.12942
0.42922	-0.18043
0.58223	0.22769
-0.53984	0.76336
-1.40690	0.43176
-0.28482	0.66132
1.47479	0.30422
0.48022	-0.20594
-0.05531	-0.35899
-0.59084	-0.28246
-0.38683	-0.00188
0.81175	0.43176
0.30171	0.35523
0.53123	0.15117
0.42922	-0.35899
0.48022	0.43176
0.42922	-0.71609
-0.18282	0.04914
0.32721	0.76336
-0.13181	0.63582
-0.20832	0.40625
0.07220	0.27871
0.25071	0.25320
-0.02981	0.66132
0.14870	0.71234
-0.71835	-1.02219
-0.46334	-0.56305
0.81175	-0.86914
0.07220	0.02363
-0.92237	0.71234
0.17421	0.66132
0.93925	0.81437
0.99026	0.48277
0.76074	0.15117
0.65874	-0.66508
0.30171	-0.23145
-0.36133	0.61031
-0.18282	0.78886
-0.51434	0.91640
-0.00431	-0.38449
0.53123	-1.20074
0.42922	-0.53754
0.53123	-0.56305
0.09770	-0.10391
0.09770	0.71234
-0.51434	0.68683
-0.23382	0.61031
1.60230	0.32972
-0.33583	0.15117
-1.66191	0.86539
-0.94787	-0.02739
0.81175	0.32972
1.11776	-0.02739
1.14327	0.02363
0.76074	0.02363
-0.56534	0.27871
0.02119	-0.00188
0.96476	-0.10391
-0.51434	0.38074
-0.13181	0.40625
0.02119	0.15117
0.58223	-0.23145
0.07220	0.43176
0.17421	-0.05289
0.27621	0.43176
-0.13181	0.45726
0.32721	-0.02739
0.02119	-0.15492
0.14870	-0.15492
0.12320	-0.00188
0.12320	0.04914
-0.20832	-0.10391
0.50573	0.27871
-0.05531	-0.15492
-0.15732	-0.10391
0.30171	0.17668
0.53123	1.40105
0.68424	1.06945
0.12320	0.20219
0.07220	0.17668
-0.02981	0.55929
0.17421	-0.58856
1.04126	-0.79262
0.65874	-1.04770
-2.55447	-0.30797
-1.58541	0.43176
0.58223	0.10015
1.16877	0.66132
1.06676	0.86539
0.58223	0.86539
0.32721	0.15117
0.25071	0.10015
0.09770	-0.20594
0.37822	0.38074
0.65874	0.38074
0.22521	0.07465
-0.74385	-0.43551
-1.35589	0.20219
-0.08081	0.04914
0.91375	-0.15492
0.68424	-0.15492
0.40372	0.27871
0.09770	0.55929
-0.13181	0.71234
0.68424	-0.46102
1.83181	-0.05289
-1.33039	-0.51203
-2.14644	-0.35899
0.60773	0.94191
0.53123	0.63582
0.04670	0.91640
0.70974	0.17668
0.88825	0.12566
0.91375	0.96742
1.34728	0.50828
-0.38683	-0.02739
-0.69285	-1.07320
0.17421	-1.04770
0.65874	0.02363
-2.70748	0.45726
-0.87136	1.22250
1.37278	0.89089
1.34728	-0.00188
2.01032	-0.56305
1.55129	-1.09871
-0.92237	0.35523
-2.78398	0.76336
0.73524	0.76336
0.70974	1.22250
0.70974	0.35523
-1.17738	0.04914
0.30171	-0.53754
-0.05531	-0.66508
-0.92237	0.15117
0.42922	-0.10391
1.04126	0.25320
1.57679	1.65613
0.96476	-1.68539
-1.50890	-0.56305
-2.14644	-0.51203
1.19427	0.10015
1.01576	1.04394
1.09226	1.09496
-1.25389	1.01843
-0.59084	0.40625
0.27621	-0.10391
1.34728	-0.15492
-0.28482	0.55929
-0.87136	-0.18043
1.90832	-0.23145
-1.33039	-0.02739
-1.68742	0.50828
0.88825	-0.00188
0.60773	-0.61406
1.01576	0.30422
2.08683	0.00000
2.01032	0.00000
-3.88056	0.63582
-1.61091	0.02363
1.39828	0.10015
-1.40690	-2.52714
-1.15188	-1.07320
0.48022	1.06945
2.13783	1.63062
2.34184	1.06945
1.52579	1.19699
-0.00431	0.58480
-0.13181	0.45726
-0.94787	0.71234
-0.31033	-1.04770
-1.17738	-0.35899
-0.79486	-0.51203
1.75531	0.12566
1.78081	0.20219
-1.94243	0.35523
-1.78942	-0.53754
1.21977	-0.02739
-0.46334	0.25320
-0.97337	0.10015
2.26534	0.63582
0.37822	0.30422
-1.73842	-0.00188
0.37822	0.48277
1.67880	0.76336
1.44929	-0.63957
1.34728	-0.89465
-0.31033	-0.07840
-4.79861	0.86539
-0.15732	1.19699
0.42922	0.86539
1.90832	0.07465
1.06676	-0.94566
-0.00431	1.27351
-2.14644	-0.12942
0.22521	0.50828
3.33641	-2.22105
-0.23382	-0.41000
-1.33039	0.15117
0.58223	1.19699
0.93925	0.61031
0.19971	0.43176
-1.94243	-0.23145
0.93925	0.35523
-0.18282	-0.18043
0.19971	-0.05289
1.88281	0.30422
-1.33039	0.25320
0.04670	0.76336
0.07220	0.40625
2.08683	-0.15492
-3.16651	-0.30797
-5.66567	-0.56305
3.66793	-0.41000
3.15790	-0.63957
2.39285	0.50828
1.75531	2.01323
2.59686	0.86539
-1.99343	-1.07320
-0.15732	0.32972
-0.51434	-1.83844
-0.71835	1.75816
0.50573	1.47757
-0.74385	0.76336
-0.20832	-0.12942
-0.25932	-0.23145
-2.35046	-0.18043
-0.28482	-0.63957
-0.99887	0.55929
2.59686	0.45726
2.36734	-0.48652
0.45472	-1.09871
1.29628	0.15117
0.14870	0.81437
0.83725	1.01843
0.60773	0.53379
-1.58541	0.02363
-0.82036	0.12566
-0.15732	-1.35379
0.91375	0.27871
1.47479	0.53379
-1.30489	0.55929
-1.73842	0.45726
-0.28482	0.86539
0.58223	-0.86914
3.89744	1.14597
-1.25389	-1.53234
-2.65648	0.45726
1.83181	1.73265
0.78624	-0.02739
0.76074	0.25320
0.32721	-1.14973
0.42922	-0.46102
-0.87136	0.10015
-0.02981	0.17668
0.63323	-0.05289
1.09226	0.58480
0.78624	0.50828
-3.29402	-0.12942
-5.00263	0.63582
-0.10631	0.10015
3.20890	0.43176
2.34184	0.17668
0.22521	-0.25695
1.72980	0.15117
0.70974	-0.35899
0.68424	0.45726
0.30171	0.63582
-0.87136	-0.25695
1.78081	-1.20074
-1.12638	1.32453
-3.60004	0.02363
-0.38683	0.53379
0.65874	-0.18043
0.91375	0.58480
1.06676	0.38074
0.53123	0.15117
-0.84586	0.02363
1.32178	0.30422
-0.69285	0.04914
-0.94787	0.02363
0.65874	0.02363
3.13239	0.45726
0.42922	-0.20594
-3.44703	0.07465
-0.36133	-0.43551
0.81175	0.15117
3.41291	0.20219
-1.68742	0.78886
-1.58541	0.43176
1.24527	1.19699
1.65330	-0.07840
1.44929	-0.86914
-2.50347	0.45726
-1.12638	-0.35899
0.91375	0.40625
0.81175	0.35523
0.14870	0.07465
-0.02981	0.27871
-0.66735	-0.00188
0.55673	0.10015
0.48022	0.32972
0.48022	0.25320
1.50029	0.15117
0.63323	0.27871
-2.93700	-0.05289
-0.99887	0.27871
1.65330	0.22769
-0.89686	-0.07840
-0.31033	-0.15492
0.25071	0.38074
2.72437	0.50828
0.32721	-0.35899
-0.94787	-0.07840
-0.56534	-1.25176
0.96476	0.50828
0.73524	0.83988
0.22521	1.70714
0.53123	-0.81812
-1.50890	0.35523
1.04126	-0.20594
0.09770	-0.02739
-0.53984	0.50828
0.53123	0.61031
-0.18282	0.40625
0.14870	0.45726
-0.15732	0.15117
0.32721	-0.12942
1.34728	0.38074
-0.20832	-0.18043
-2.12094	-0.07840
1.37278	-0.61406
-0.94787	-0.81812
-1.55991	0.02363
1.95932	0.71234
1.80631	0.20219
1.39828	0.73785
-1.66191	0.83988
-0.02981	-0.35899
0.40372	0.63582
0.55673	-0.07840
0.78624	-0.07840
0.45472	0.22769
0.07220	0.07465
-0.18282	0.12566
-0.94787	-0.33348
0.86275	0.17668
0.63323	0.43176
-1.07538	0.66132
-1.10088	1.45206
0.27621	-0.58856
0.65874	0.71234
-0.51434	-2.55265
0.63323	-0.66508
1.78081	0.38074
-0.10631	0.58480
-1.63641	0.99292
1.04126	0.17668
0.02119	0.58480
0.25071	1.04394
1.27078	0.15117
1.14327	-0.02739
-0.18282	-0.10391
-2.32496	-1.45582
0.17421	1.24800
1.14327	-0.33348
0.81175	0.35523
0.17421	0.45726
0.09770	0.25320
0.40372	0.15117
-0.36133	-0.18043
-0.76936	0.30422
0.37822	0.50828
0.27621	0.10015
-0.28482	-0.46102
0.32721	-0.05289
1.62780	0.20219
-2.98800	0.15117
-0.31033	-0.05289
2.06133	0.43176
0.63323	0.58480
-0.61635	0.10015
1.06676	0.17668
-1.73842	0.15117
0.96476	0.17668
1.32178	0.04914
0.40372	-0.02739
0.30171	-0.00188
-0.25932	0.58480
-0.08081	0.07465
0.78624	0.02363
2.16333	0.27871
-1.04987	-0.86914
-4.00806	-0.23145
0.45472	0.45726
0.40372	0.27871
0.91375	0.66132
0.53123	0.83988
1.04126	0.27871
0.76074	0.96742
-0.20832	-0.79262
1.04126	-0.94566
0.78624	0.38074
-1.99343	-0.10391
0.04670	0.76336
0.63323	0.45726
-1.10088	-0.07840
0.76074	-0.18043
0.93925	-0.28246
0.81175	0.45726
1.01576	0.32972
-0.89686	0.10015
-0.33583	-0.07840
-0.20832	0.38074
0.45472	0.43176
1.83181	0.53379
-0.38683	0.02363
-0.79486	-0.69059
-0.28482	-0.05289
0.30171	0.20219
0.19971	0.53379
0.68424	0.20219
3.08139	0.45726
0.48022	1.06945
-7.70580	-0.63957
-2.60547	-1.96597
3.66793	-0.97117
2.16333	0.50828
1.85731	1.57960
1.32178	1.19699
0.93925	0.86539
0.30171	0.48277
-0.08081	0.10015
-0.20832	-0.05289
0.55673	-0.51203
-1.78942	-0.25695
0.40372	-0.10391
-1.20288	0.58480
-0.97337	0.27871
0.35272	-0.02739
1.70430	0.25320
0.37822	-0.25695
-0.18282	-0.12942
0.22521	-0.61406
0.81175	-0.02739
0.50573	1.09496
-0.71835	0.30422
-0.10631	0.15117
0.73524	-0.58856
0.02119	-0.00188
1.04126	1.40105
1.34728	0.20219
-0.76936	0.17668
-2.01894	0.71234
-0.10631	1.35003
-0.25932	-1.27726
1.21977	-0.86914
1.29628	-0.02739
0.58223	0.17668
-0.51434	0.43176
0.14870	0.35523
0.91375	0.02363
0.12320	0.04914
-0.92237	-0.23145
-2.50347	-0.33348
0.40372	0.76336
1.78081	0.76336
2.67337	0.15117
-0.38683	0.30422
-0.71835	0.07465
1.01576	-0.12942
-1.04987	-0.05289
0.30171	0.15117
1.24527	0.12566
-3.82955	-0.15492
0.02119	0.38074
1.50029	-0.23145
0.35272	0.04914
1.44929	0.25320
0.70974	-0.07840
-3.19201	0.35523
2.13783	0.45726
1.65330	0.48277
-1.27939	0.04914
0.48022	0.22769
0.35272	0.48277
0.78624	-0.05289
0.58223	-0.33348
-1.25389	0.45726
-0.18282	-0.25695
1.70430	-0.61406
-0.25932	-0.18043
-1.86593	0.43176
0.50573	1.86019
0.60773	0.53379
-0.41233	-0.48652
-0.28482	-0.92016
0.32721	0.12566
0.42922	0.38074
1.55129	0.17668
0.02119	0.02363
-0.71835	-0.15492
1.65330	0.38074
0.12320	0.83988
-1.91693	-0.05289
-1.53441	0.02363
1.32178	-0.10391
1.11776	-0.00188
1.55129	0.78886
0.70974	-0.10391
0.68424	0.38074
-0.33583	-0.41000
-0.59084	0.12566
2.80087	0.10015
-0.64185	0.22769
-6.30321	0.07465
0.42922	-0.15492
2.90288	0.25320
0.22521	0.22769
-0.89686	0.07465
1.42379	0.15117
0.93925	0.07465
0.25071	0.38074
0.30171	0.61031
0.53123	0.38074
0.12320	0.10015
0.19971	-0.23145
-0.38683	-0.23145
-0.10631	0.22769
0.30171	0.48277
0.17421	0.04914
-0.08081	0.48277
-0.10631	-1.48133
0.73524	0.48277
-0.18282	0.73785
-0.20832	0.10015
0.22521	0.58480
0.02119	0.43176
0.37822	0.43176
0.50573	0.27871
0.30171	-0.46102
0.35272	-1.02219
0.78624	-0.28246
0.78624	0.04914
-2.04444	0.94191
0.19971	0.61031
-0.18282	0.15117
0.73524	-0.30797
0.07220	-0.00188
-0.05531	0.68683
0.27621	-0.33348
1.01576	0.17668
-0.00431	0.15117
-0.38683	-0.00188
0.25071	0.27871
1.83181	0.66132
-1.02437	0.63582
-1.91693	-0.30797
-0.36133	-0.33348
1.11776	-0.30797
1.29628	-0.10391
1.93382	0.40625
0.42922	0.83988
-0.18282	0.48277
-2.09544	0.12566
1.27078	0.12566
0.32721	-0.07840
1.06676	-0.18043
-0.87136	-0.05289
-0.71835	0.20219
0.25071	0.55929
0.96476	-0.05289
-0.08081	-0.33348
-1.50890	0.15117
1.32178	-0.07840
-0.36133	1.04394
-0.41233	0.99292
1.11776	0.17668
-0.76936	0.38074
-0.51434	-0.25695
0.68424	-0.05289
0.83725	-0.12942
1.04126	0.07465
0.30171	-0.15492
0.22521	0.61031
0.22521	-0.46102
-0.00431	0.32972
-0.51434	-0.81812
0.53123	0.35523
0.37822	1.06945
-1.07538	0.40625
-0.76936	-0.25695
0.73524	-0.63957
0.30171	0.02363
-0.08081	1.04394
0.63323	1.37554
0.30171	-0.35899
1.19427	0.10015
-1.07538	0.07465
0.45472	0.22769
-0.59084	0.12566
-1.25389	-0.10391
0.76074	-0.69059
0.76074	-0.43551
0.63323	0.53379
1.75531	-0.30797
-0.53984	0.25320
-0.36133	1.19699
0.50573	0.91640
-0.66735	0.53379
-0.92237	0.40625
0.93925	-0.00188
0.45472	-0.35899
-0.61635	-0.23145
0.50573	-0.18043
0.40372	0.04914
0.12320	-0.46102
0.32721	0.30422
1.04126	0.53379
-0.51434	0.81437
-1.10088	-0.23145
0.40372	-0.48652
0.65874	0.12566
0.37822	0.20219
-0.00431	0.25320
-0.25932	-0.05289
-0.10631	0.61031
-0.08081	0.68683
0.83725	1.19699
1.21977	0.02363
-0.53984	-1.09871
0.68424	-0.89465
0.27621	0.30422
-1.35589	0.20219
0.42922	1.24800
0.04670	-0.07840
1.37278	-0.12942
1.16877	-0.02739
-1.20288	0.30422
-1.35589	0.04914
-0.15732	-0.05289
0.53123	-0.33348
0.88825	0.38074
0.81175	0.20219
0.02119	0.61031
-0.61635	0.50828
0.99026	0.15117
-0.20832	-0.02739
0.17421	-0.18043
1.16877	-0.07840
-0.43783	0.04914
-0.23382	0.35523
0.37822	0.22769
0.40372	0.30422
0.12320	0.10015
0.42922	-0.07840
0.50573	-0.05289
0.04670	0.04914
0.09770	0.20219
-0.08081	0.76336
0.02119	0.53379
-0.02981	0.20219
0.02119	-0.15492
0.91375	0.25320
0.53123	0.61031
-1.15188	0.02363
0.22521	0.17668
-1.17738	-0.12942
0.53123	-0.41000
0.07220	0.40625
1.06676	-0.18043
0.37822	0.43176
1.19427	-0.00188
0.37822	0.43176
-0.48884	0.15117
1.19427	0.02363
-1.53441	-0.48652
-1.20288	-0.48652
0.12320	-0.10391
0.73524	1.09496
0.25071	1.19699
0.63323	0.76336
0.37822	-0.05289
0.83725	-0.12942
0.45472	0.10015
-2.14644	0.66132
0.07220	-0.02739
-0.05531	-0.61406
0.48022	-0.43551
0.88825	0.30422
0.32721	1.14597
0.22521	0.25320
-0.13181	-0.46102
-0.15732	-0.51203
0.37822	-0.20594
1.04126	-0.05289
0.83725	0.53379
-0.87136	0.83988
0.65874	0.58480
-1.27939	0.55929
-0.41233	-0.25695
0.73524	0.35523
0.70974	-0.07840
0.65874	-0.00188
-0.71835	-0.18043
0.32721	-0.25695
0.22521	0.02363
0.19971	0.53379
-0.02981	0.50828
0.88825	0.35523
0.02119	0.43176
-1.48340	0.02363
1.62780	0.17668
-1.27939	-0.30797
-0.71835	-0.28246
-0.00431	0.45726
0.70974	0.07465
0.68424	-0.51203
1.37278	-0.15492
0.58223	0.32972
-0.66735	0.61031
-0.15732	0.61031
-0.48884	-0.05289
0.30171	0.20219
0.63323	0.45726
-0.05531	0.43176
0.32721	0.55929
0.45472	-0.46102
0.88825	0.17668
-1.55991	-0.28246
-1.99343	-0.02739
0.81175	-1.14973
-0.02981	-0.05289
0.68424	0.94191
0.83725	0.66132
1.95932	0.86539
0.19971	0.30422
-2.01894	0.55929
0.09770	0.35523
0.86275	-0.33348
0.09770	0.02363
0.50573	-0.51203
0.30171	-0.05289
0.35272	0.17668
0.19971	0.22769
-0.15732	0.35523
0.25071	0.12566
0.12320	0.12566
-1.78942	0.30422
-0.87136	0.15117
1.11776	-0.05289
2.13783	0.04914
0.19971	-0.35899
-1.63641	0.38074
-0.48884	0.02363
0.99026	0.35523
0.96476	0.15117
0.91375	0.27871
0.63323	0.45726
0.58223	0.73785
-0.69285	-0.20594
-1.12638	-0.71609
-1.38139	-0.20594
0.35272	-0.84363
0.42922	0.48277
0.73524	1.06945
0.93925	0.58480
-1.04987	0.45726
0.83725	0.15117
0.04670	0.40625
-0.43783	0.25320
-0.25932	1.06945
0.60773	-0.92016
0.14870	-1.04770
0.78624	-0.25695
0.14870	0.07465
1.01576	0.07465
0.07220	0.48277
-1.12638	0.27871
0.63323	0.45726
0.50573	0.30422
0.12320	-0.15492
-0.97337	-0.00188
1.16877	0.35523
0.65874	0.10015
0.14870	0.30422
-0.02981	-0.00188
-0.18282	0.22769
0.68424	0.22769
-0.48884	-0.12942
-1.50890	0.27871
0.88825	0.61031
1.65330	0.04914
0.30171	0.43176
-1.50890	-0.02739
-1.43240	-1.04770
1.27078	0.32972
2.44385	0.17668
-0.69285	-0.02739
-0.51434	0.71234
0.60773	0.71234
0.48022	0.53379
0.30171	0.17668
0.22521	-0.38449
0.65874	-0.15492
0.63323	-0.05289
-0.46334	0.12566
-0.43783	-0.15492
-1.25389	0.35523
0.37822	-0.23145
0.63323	-0.02739
-0.94787	0.83988
0.32721	-0.10391
0.58223	0.63582
-0.59084	0.50828
0.53123	-0.05289
0.58223	0.20219
1.14327	-0.30797
0.86275	0.27871
-1.15188	0.10015
0.60773	0.27871
-0.08081	0.32972
-0.74385	-0.15492
0.76074	-0.02739
-0.38683	-0.12942
-0.08081	-0.12942
1.04126	-0.00188
0.35272	0.71234
-1.07538	0.15117
0.58223	0.66132
0.48022	-0.18043
0.65874	-0.74160
-0.02981	0.10015
-0.08081	-0.23145
0.07220	0.43176
0.76074	0.96742
0.53123	0.78886
-0.43783	0.48277
-0.53984	-0.25695
-0.15732	-0.10391
0.76074	-0.18043
-0.59084	0.50828
0.88825	0.35523
0.55673	-0.35899
0.70974	0.04914
0.32721	-0.74160
-0.92237	0.17668
1.42379	0.55929
-0.23382	0.76336
-0.41233	0.53379
0.53123	-0.00188
1.42379	0.07465
-0.05531	0.20219
-1.61091	-0.07840
-1.02437	-0.41000
0.58223	0.07465
1.29628	-0.10391
0.53123	0.35523
0.45472	0.48277
0.81175	0.48277
0.76074	-0.05289
-0.08081	0.20219
-1.10088	0.45726
-0.59084	-0.18043
-0.20832	0.35523
1.32178	-0.20594
0.40372	0.22769
0.58223	0.35523
-0.02981	0.15117
0.12320	0.12566
0.02119	0.12566
-0.94787	0.32972
0.35272	0.25320
0.30171	0.35523
0.50573	-0.30797
0.07220	0.45726
1.11776	-0.61406
-0.36133	-0.56305
-1.04987	-0.15492
0.91375	0.40625
0.12320	0.71234
0.73524	0.99292
0.14870	0.38074
-0.51434	-0.28246
0.48022	-0.10391
1.27078	0.32972
0.22521	0.30422
-0.56534	-0.18043
-0.66735	-0.10391
-0.99887	-0.12942
1.34728	-0.20594
1.39828	0.43176
-0.79486	0.50828
-0.43783	1.14597
0.78624	-0.53754
-0.28482	-0.15492
0.63323	-0.58856
0.27621	0.27871
0.58223	0.45726
0.07220	0.40625
0.12320	0.32972
0.30171	0.45726
0.30171	0.48277
-0.92237	0.20219
-0.05531	-0.38449
0.40372	-0.20594
0.02119	0.15117
0.02119	0.20219
0.32721	0.02363
1.19427	0.30422
0.76074	0.12566
-0.33583	0.04914
0.19971	0.10015
-0.51434	0.30422
-1.63641	0.20219
-0.25932	0.12566
0.73524	0.27871
1.04126	0.15117
1.55129	-0.15492
1.34728	0.50828
0.02119	-0.05289
-0.20832	0.22769
-0.28482	0.17668
0.02119	-0.41000
-0.00431	-0.02739
-0.61635	0.07465
-0.56534	0.53379
0.27621	0.63582
0.25071	0.17668
0.27621	0.35523
0.42922	0.58480
0.45472	-0.15492
0.27621	-0.02739
-0.13181	0.07465
0.48022	-0.05289
-0.38683	0.07465
-0.20832	-0.07840
0.91375	-0.79262
0.70974	0.40625
-0.25932	0.68683
-0.28482	0.40625
0.30171	0.12566
-0.66735	0.12566
0.91375	0.30422
0.07220	0.12566
-1.48340	0.15117
-0.64185	-0.10391
1.16877	0.25320
1.39828	0.07465
0.48022	0.73785
-1.20288	0.02363
0.48022	0.02363
0.81175	-0.10391
0.88825	0.32972
0.81175	0.04914
-1.20288	0.12566
-1.20288	0.10015
-0.18282	0.07465
0.02119	0.22769
0.60773	0.30422
0.58223	0.25320
0.58223	0.15117
0.40372	-0.00188
0.58223	0.15117
0.22521	0.20219
0.58223	0.04914
0.22521	-0.12942
-1.71292	-0.23145
0.91375	0.20219
-0.20832	0.22769
-2.17195	0.61031
1.11776	0.35523
1.06676	0.38074
0.65874	-0.07840
0.27621	0.07465
0.27621	-0.02739
0.19971	0.02363
0.35272	0.30422
-0.46334	-0.10391
0.25071	0.71234
0.45472	0.63582
-0.05531	0.02363
-0.10631	-0.18043
0.53123	-0.46102
0.35272	0.53379
-0.61635	0.78886
0.35272	-0.15492
-0.99887	-0.43551
0.27621	-0.53754
0.86275	0.15117
0.27621	0.35523
0.25071	0.15117
1.21977	0.66132
0.14870	0.40625
-0.94787	0.20219
0.60773	0.15117
0.86275	0.38074
-0.92237	0.35523
-0.31033	-0.07840
1.55129	0.22769
0.40372	-0.00188
-0.61635	0.32972
0.04670	0.22769
0.12320	-0.35899
0.42922	-0.20594
0.88825	-0.00188
-0.36133	0.12566
-1.30489	0.32972
0.32721	0.17668
0.60773	0.30422
0.19971	0.58480
0.37822	-0.30797
0.83725	0.04914
-0.38683	-0.33348
0.40372	0.27871
-0.05531	0.20219
-2.35046	0.58480
0.09770	0.27871
0.93925	0.17668
0.91375	0.07465
1.24527	0.02363
0.45472	1.04394
-0.53984	-0.33348
0.73524	0.32972
0.55673	-0.89465
-0.51434	0.40625
-0.15732	0.45726
0.07220	0.15117
-0.08081	-0.25695
-0.08081	-0.02739
0.55673	0.20219
0.70974	0.55929
-0.87136	0.02363
0.68424	0.22769
-1.10088	0.30422
0.19971	-0.38449
-0.46334	0.12566
0.83725	-0.10391
1.21977	-0.07840
-0.05531	0.53379
0.53123	0.61031
0.07220	0.50828
1.60230	0.22769
0.68424	0.15117
-3.72755	-0.30797
-0.51434	0.20219
0.91375	0.04914
1.42379	0.07465
0.32721	0.15117
-0.02981	0.12566
0.27621	0.30422
0.22521	0.07465
0.22521	0.07465
0.76074	-0.05289
-0.51434	0.45726
-1.76392	0.38074
-0.43783	-0.15492
1.39828	0.15117
0.70974	-0.28246
0.07220	-0.00188
0.40372	0.07465
0.07220	0.07465
0.19971	0.30422
0.58223	0.45726
-0.61635	0.53379
0.78624	0.10015
1.75531	0.32972
-2.91149	0.30422
-1.20288	0.15117
0.63323	0.07465
1.37278	-0.28246
1.32178	-0.38449
-0.02981	0.35523
0.04670	-0.05289
0.02119	0.38074
0.48022	0.07465
0.83725	0.30422
0.02119	0.30422
-0.10631	0.40625
-0.05531	0.25320
0.53123	-0.05289
-0.25932	0.20219
-1.20288	0.25320
0.04670	-0.48652
-0.00431	-0.25695
-0.02981	-0.12942
-0.28482	0.20219
1.32178	0.50828
1.44929	0.10015
-0.41233	0.48277
-0.94787	0.20219
1.47479	0.43176
0.76074	0.12566
-0.41233	0.30422
0.32721	0.15117
-0.18282	-0.02739
-1.07538	0.20219
-0.56534	-0.00188
1.06676	0.15117
0.93925	0.15117
0.02119	0.02363
0.22521	0.15117
0.35272	0.04914
0.58223	0.12566
-0.00431	0.22769
0.04670	0.04914
0.19971	-0.05289
-0.28482	0.17668
-0.28482	0.27871
0.32721	0.15117
0.07220	0.04914
0.09770	0.50828
0.02119	0.15117
0.25071	0.35523
0.02119	-0.30797
1.11776	0.30422
0.48022	0.12566
-1.89143	0.66132
-0.99887	0.35523
0.91375	0.30422
0.32721	-0.38449
0.35272	-0.71609
0.93925	0.12566
-0.43783	0.17668
1.14327	0.22769
-0.05531	-0.07840
-0.53984	0.22769
0.91375	0.66132
-0.08081	0.04914
-0.53984	0.78886
0.53123	-0.07840
-0.10631	-0.05289
0.27621	-0.86914
1.55129	-0.15492
-0.84586	0.66132
-1.78942	0.71234
0.22521	0.81437
0.42922	0.35523
0.48022	0.02363
0.35272	-0.02739
0.32721	-0.00188
1.24527	-0.05289
0.27621	0.45726
-1.61091	0.12566
0.88825	-0.63957
-0.53984	-0.28246
0.50573	-0.15492
1.57679	0.25320
-0.53984	0.32972
-2.40146	0.43176
0.78624	0.40625
1.11776	0.53379
0.53123	0.30422
0.86275	0.20219
0.22521	-0.05289
0.40372	-0.51203
0.32721	-0.48652
-0.13181	0.04914
0.35272	0.89089
-0.69285	0.53379
-1.04987	0.63582
-0.23382	0.30422
0.14870	0.15117
0.86275	0.20219
0.53123	0.20219
-1.27939	0.10015
0.60773	-0.05289
0.53123	-0.48652
0.53123	-0.51203
0.14870	0.15117
-0.08081	0.61031
0.37822	0.04914
0.93925	0.53379
0.22521	-0.48652
0.73524	-0.00188
1.11776	0.43176
-2.29945	0.27871
-1.53441	0.66132
1.24527	0.07465
0.88825	-0.33348
-0.13181	0.55929
-0.23382	-0.69059
0.53123	0.71234
1.14327	0.30422
-0.56534	0.22769
0.37822	0.50828
0.35272	0.38074
0.07220	0.38074
0.02119	-0.28246
-0.59084	0.15117
0.78624	-0.25695
0.83725	0.20219
0.60773	0.20219
0.19971	0.35523
-0.69285	-0.07840
-0.08081	0.15117
0.25071	-0.02739
0.04670	0.32972
-0.25932	0.22769
0.14870	0.10015
0.09770	0.15117
0.14870	-0.12942
0.19971	0.20219
0.32721	0.45726
0.96476	0.12566
-0.20832	0.10015
-1.53441	0.10015
2.16333	0.53379
0.53123	0.35523
-0.46334	0.12566
-0.02981	-0.28246
-0.33583	-0.46102
-2.24845	1.09496
1.75531	-0.05289
1.83181	0.15117
0.91375	0.40625
0.73524	0.04914
0.17421	-0.02739
-0.66735	-0.05289
0.07220	-0.25695
-0.00431	0.48277
-0.20832	0.22769
0.30171	-0.02739
-0.31033	0.02363
-0.46334	0.04914
0.40372	0.63582
-1.45790	0.55929
0.04670	-0.15492
0.35272	0.17668
0.78624	0.66132
0.78624	0.10015
0.32721	0.30422
0.40372	0.10015
1.04126	0.07465
1.95932	-0.23145
-2.19745	-0.00188
-2.50347	-0.10391
0.55673	0.71234
0.86275	0.04914
1.60230	-0.38449
0.93925	-0.76711
-0.69285	-0.79262
0.40372	0.91640
-0.00431	1.04394
0.30171	0.76336
0.63323	0.25320
-0.08081	0.30422
-1.43240	0.20219
-0.53984	0.20219
1.06676	0.32972
0.83725	-0.28246
-0.36133	-0.23145
-0.15732	-0.46102
0.53123	0.30422
0.65874	-0.10391
0.65874	0.17668
0.07220	0.81437
-0.05531	0.76336
-0.76936	0.10015
-0.13181	0.07465
2.34184	-0.00188
-1.43240	-0.33348
-1.91693	-0.20594
2.21434	0.76336
1.34728	0.04914
-0.23382	-0.18043
-0.48884	0.35523
-0.08081	-0.15492
-0.51434	0.07465
0.63323	0.53379
0.76074	0.10015
1.24527	0.35523
0.73524	-0.12942
-1.35589	0.27871
-0.13181	0.22769
0.73524	0.20219
0.12320	0.22769
-0.99887	0.25320
0.04670	0.15117
0.53123	0.15117
0.53123	-0.02739
1.93382	-0.94566
0.50573	-0.15492
-2.73298	0.53379
0.55673	0.40625
-0.43783	0.25320
0.22521	0.55929
1.04126	0.10015
1.32178	0.22769
0.53123	-0.12942
0.25071	-0.81812
0.58223	0.61031
-0.92237	0.71234
1.80631	0.25320
-0.33583	0.04914
-3.29402	-0.05289
1.11776	0.68683
0.09770	-0.05289
0.40372	0.32972
0.50573	-0.15492
0.70974	-0.20594
1.55129	0.15117
-1.68742	-0.05289
-0.23382	0.45726
0.96476	-0.23145
0.17421	-0.23145
-0.13181	0.25320
0.53123	0.58480
0.53123	0.32972
0.14870	0.32972
0.32721	0.38074
0.70974	0.07465
-0.56534	0.12566
-0.79486	0.27871
0.83725	0.12566
0.32721	-0.43551
0.09770	-0.18043
0.55673	0.45726
-0.61635	0.02363
0.91375	0.12566
-1.04987	-0.76711
1.04126	0.43176
-0.02981	1.01843
-1.99343	0.25320
-0.48884	0.15117
1.60230	0.07465
0.76074	0.17668
1.04126	0.25320
0.99026	-0.10391
0.14870	0.15117
-0.82036	-0.10391
0.40372	0.04914
0.27621	0.04914
0.07220	-0.28246
0.40372	0.22769
0.42922	0.38074
-0.87136	0.38074
-1.22839	0.66132
0.45472	-0.25695
0.93925	-0.35899
1.11776	-0.94566
-0.92237	-0.07840
0.42922	0.48277
-1.43240	0.96742
0.78624	0.61031
-0.20832	0.45726
0.88825	0.12566
1.75531	0.22769
1.09226	0.10015
0.12320	-0.20594
-0.23382	0.38074
0.32721	0.15117
-0.10631	-0.02739
-1.50890	-0.05289
-0.00431	0.07465
1.06676	-0.35899
0.45472	0.15117
-0.48884	0.17668
-0.08081	0.02363
0.58223	-0.18043
0.30171	0.22769
0.53123	1.06945
-0.82036	0.30422
-1.17738	0.43176
0.32721	-0.07840
0.70974	-0.07840
0.93925	-0.12942
0.91375	0.66132
-0.10631	0.38074
-0.10631	-0.05289
-0.46334	-0.46102
0.70974	-0.05289
0.40372	0.32972
0.14870	-0.02739
0.19971	0.32972
0.35272	0.38074
-0.51434	0.10015
-0.43783	0.22769
0.68424	0.07465
-0.02981	-0.02739
-0.59084	0.43176
0.93925	0.27871
-0.48884	-0.12942
-0.10631	-0.07840
-0.51434	0.40625
0.65874	0.48277
0.68424	0.27871
0.42922	0.43176
0.88825	-0.00188
0.55673	0.10015
0.25071	0.12566
-0.05531	-0.20594
-0.36133	0.40625
0.25071	-0.12942
0.40372	0.45726
-1.30489	-0.10391
-0.15732	-0.28246
-0.51434	0.68683
-0.31033	0.15117
0.09770	0.20219
1.32178	0.04914
1.78081	0.17668
0.76074	0.25320
-2.04444	0.10015
-0.08081	0.20219
0.50573	-0.23145
0.70974	0.10015
0.12320	-0.71609
0.17421	0.10015
0.22521	0.55929
0.40372	0.35523
0.45472	0.68683
-0.84586	0.81437
-0.59084	0.22769
-0.02981	0.12566
-0.23382	-0.12942
2.11233	-0.38449
-0.05531	-0.35899
-1.20288	-0.18043
-0.25932	-0.15492
1.44929	0.40625
1.50029	0.91640
-1.45790	0.38074
0.96476	-0.28246
0.19971	-0.00188
-0.46334	-0.20594
-0.23382	0.35523
0.27621	0.40625
0.58223	0.68683
1.34728	0.20219
0.37822	0.12566
0.14870	-0.02739
-0.13181	-0.48652
-0.08081	0.17668
0.27621	0.58480
-0.18282	0.02363
0.55673	-0.02739
-1.48340	0.53379
-0.23382	-0.05289
0.50573	0.12566
0.40372	-0.10391
0.19971	-0.00188
-0.48884	0.22769
0.19971	0.07465
0.68424	0.58480
0.17421	-0.00188
0.58223	-0.02739
1.57679	0.22769
0.22521	-0.25695
-1.53441	0.17668
0.09770	0.17668
0.22521	0.45726
-0.31033	0.68683
0.91375	0.25320
0.22521	-0.07840
0.32721	0.25320
0.19971	-0.33348
-0.00431	-0.46102
0.22521	0.04914
-0.00431	0.63582
-0.05531	0.55929
0.22521	0.43176
0.09770	0.12566
0.07220	0.35523
-0.02981	0.17668
0.32721	0.04914
0.19971	-0.43551
-1.02437	-0.00188
0.70974	-0.38449
0.70974	0.35523
-2.12094	0.45726
-0.79486	0.10015
1.19427	0.71234
2.39285	-0.99668
0.50573	-0.12942
0.09770	0.55929
0.53123	0.45726
0.22521	0.35523
-0.84586	0.53379
0.22521	0.78886
0.12320	0.55929
-0.69285	-0.12942
-0.25932	-0.18043
-0.05531	-0.38449
-0.20832	-0.18043
0.32721	-0.15492
0.22521	0.17668
0.50573	0.15117
0.37822	-0.20594
0.65874	0.25320
0.04670	0.50828
-0.13181	0.15117
-1.20288	0.15117
-1.12638	0.86539
1.29628	0.27871
0.55673	-0.33348
0.48022	-0.94566
0.68424	0.04914
0.68424	0.76336
1.27078	0.94191
-0.38683	0.35523
-0.20832	0.15117
-0.20832	0.15117
-0.89686	0.20219
-0.61635	0.38074
-0.05531	-0.51203
1.50029	-0.00188
0.93925	-0.86914
0.12320	-0.35899
0.48022	0.71234
0.12320	0.73785
0.91375	0.55929
0.81175	-0.10391
-2.12094	0.15117
-1.12638	0.40625
-0.74385	0.07465
0.40372	-0.12942
0.63323	-0.10391
0.68424	-0.20594
0.55673	0.48277
1.65330	0.66132
-0.94787	0.45726
-0.18282	0.38074
1.11776	-0.28246
-0.69285	0.17668
0.02119	0.30422
0.83725	-0.07840
-0.25932	-0.05289
0.07220	-0.05289
1.16877	0.25320
0.45472	0.43176
-2.12094	0.32972
-0.46334	-0.30797
0.42922	0.66132
0.96476	0.12566
0.70974	-0.53754
0.70974	0.45726
0.40372	0.12566
-0.05531	0.04914
0.25071	0.25320
-0.13181	0.40625
-0.08081	0.38074
-0.02981	0.15117
-0.00431	0.02363
0.30171	0.27871
0.27621	0.32972
0.37822	-0.05289
0.04670	-0.38449
0.17421	-0.07840
-0.05531	0.10015
0.04670	0.17668
0.32721	0.10015
0.42922	0.02363
-0.10631	0.02363
-0.08081	0.71234
0.25071	0.63582
0.19971	0.10015
0.22521	0.25320
0.19971	-0.84363
0.93925	0.32972
-0.28482	0.53379
-0.53984	0.40625
0.19971	-0.00188
0.17421	-0.15492
0.91375	0.38074
0.63323	0.32972
0.68424	0.25320
-1.78942	0.10015
-1.43240	-0.10391
0.48022	-0.00188
1.24527	-0.02739
1.52579	0.22769
0.91375	-0.15492
1.11776	0.02363
-0.74385	0.40625
-0.69285	0.27871
0.02119	-0.10391
0.12320	-0.63957
0.50573	-0.12942
0.48022	0.48277
-0.99887	0.63582
-0.02981	0.68683
0.35272	0.91640
0.81175	0.83988
0.02119	-0.07840
-0.02981	-0.53754
0.88825	-0.12942
-0.69285	0.02363
-0.56534	-0.10391
-0.38683	0.30422
1.01576	-0.94566
1.24527	0.17668
0.76074	0.73785
0.73524	0.50828
0.40372	0.35523
-0.13181	-0.02739
0.07220	0.50828
0.07220	-0.35899
-0.48884	0.12566
0.07220	-0.07840
-0.13181	0.32972
-0.08081	0.43176
-0.25932	0.17668
-0.25932	0.07465
-0.02981	0.25320
0.93925	-0.48652
0.50573	0.32972
-0.36133	1.12046
0.07220	0.07465
-0.61635	-0.76711
0.76074	-0.12942
1.06676	-0.35899
0.27621	0.38074
0.04670	0.17668
0.17421	0.45726
1.04126	0.43176
0.53123	0.12566
-0.64185	0.10015
0.50573	0.10015
-2.24845	0.53379
-0.74385	0.50828
0.99026	0.15117
0.96476	-0.05289
0.02119	-0.53754
0.88825	-0.02739
1.75531	0.12566
0.07220	0.10015
-1.27939	0.15117
0.25071	-0.02739
0.70974	0.35523
-0.28482	0.35523
0.04670	0.25320
0.32721	0.07465
0.45472	-0.25695
-0.48884	0.15117
0.02119	0.12566
-0.15732	0.53379
0.58223	0.22769
0.19971	0.04914
-0.74385	0.07465
-0.74385	0.02363
0.58223	0.35523
0.60773	0.53379
0.60773	0.40625
0.53123	0.63582
0.60773	-0.30797
-0.25932	-0.25695
0.55673	-0.61406
-0.05531	-0.10391
-1.10088	0.25320
0.63323	0.35523
0.68424	-0.00188
-0.38683	0.22769
-0.36133	0.20219
-0.05531	0.25320
1.04126	-0.33348
0.83725	-0.05289
-1.71292	0.53379
-0.87136	0.27871
0.73524	0.40625
0.81175	0.50828
0.68424	0.22769
1.04126	-0.10391
-0.94787	0.35523
0.68424	0.04914
0.78624	0.20219
-1.20288	-0.30797
0.04670	-0.10391
0.35272	-0.30797
0.09770	0.27871
0.60773	0.58480
-0.08081	0.27871
0.63323	0.35523
0.02119	0.22769
-1.27939	-0.07840
-0.28482	0.15117
0.78624	-0.02739
0.91375	0.94191
-0.05531	-0.00188
0.19971	-0.25695
0.83725	0.25320
-0.20832	-0.94566
0.02119	0.02363
0.19971	0.50828
0.12320	0.22769
0.27621	0.61031
-0.02981	0.45726
-0.02981	0.76336
-0.13181	0.45726
-0.13181	-0.25695
0.35272	-0.25695
0.22521	-0.00188
0.22521	-0.20594
0.48022	-0.35899
-0.08081	-0.35899
0.02119	0.38074
-0.10631	0.30422
0.53123	0.66132
-0.41233	0.45726
-0.36133	0.04914
-0.76936	0.12566
0.30171	-0.05289
1.52579	-0.43551
1.39828	0.63582
0.53123	0.50828
0.65874	0.61031
-0.41233	-0.10391
-0.41233	-0.00188
-0.38683	-0.00188
-0.31033	0.10015
-0.02981	0.30422
0.48022	0.35523
0.45472	-0.07840
-0.43783	-0.28246
0.12320	-0.05289
0.42922	-0.05289
-1.12638	0.30422
0.37822	0.22769
1.42379	0.15117
-0.92237	0.12566
-0.46334	-0.18043
0.63323	0.20219
-0.08081	0.17668
-0.02981	0.35523
0.70974	0.40625
0.65874	0.10015
0.63323	0.25320
0.12320	0.38074
0.19971	0.20219
-0.13181	0.43176
1.09226	0.20219
0.22521	0.07465
-1.25389	-0.10391
-0.92237	-0.25695
-0.87136	0.20219
-0.18282	0.10015
0.35272	-0.30797
1.60230	-0.12942
0.93925	-0.07840
-0.66735	0.55929
0.27621	0.35523
0.32721	0.04914
0.35272	0.15117
0.17421	0.45726
0.12320	0.30422
-0.00431	0.45726
0.19971	-0.20594
0.07220	0.12566
-0.02981	-0.56305
0.07220	0.02363
0.04670	0.78886
0.22521	0.45726
1.52579	0.50828
-0.82036	-0.02739
-2.01894	-0.05289
0.58223	-0.12942
1.06676	0.04914
-0.02981	0.02363
-0.15732	0.02363
1.19427	0.20219
0.48022	0.48277
0.12320	0.17668
0.27621	0.17668
0.14870	0.12566
-0.23382	0.02363
0.32721	0.02363
0.02119	0.38074
-0.36133	0.15117
0.19971	0.15117
0.22521	0.25320
0.07220	-0.15492
0.35272	0.22769
0.32721	-0.38449
-0.15732	0.20219
0.40372	0.12566
0.40372	0.20219
0.02119	0.53379
0.02119	0.78886
-0.08081	0.17668
0.02119	-0.07840
1.24527	-0.92016
-0.82036	-0.79262
-0.74385	0.43176
1.52579	0.40625
0.22521	0.66132
-0.99887	1.22250
0.32721	0.15117
0.68424	0.12566
0.83725	0.12566
-0.59084	-0.30797
-0.61635	0.10015
0.68424	0.15117
-0.46334	0.04914
-0.20832	0.22769
0.25071	0.17668
0.99026	-0.38449
0.78624	-0.51203
0.37822	-0.92016
0.32721	0.32972
0.81175	0.86539
-0.46334	1.22250
-1.25389	-0.10391
-0.05531	0.32972
-0.23382	0.22769
-0.13181	0.32972
0.22521	0.17668
0.17421	0.48277
0.22521	-0.15492
0.25071	-0.28246
0.25071	0.15117
0.40372	0.10015
0.42922	0.43176
0.53123	0.22769
1.70430	-0.46102
-1.12638	-0.38449
-2.12094	0.22769
-0.43783	0.43176
0.96476	0.86539
1.09226	0.17668
1.32178	0.10015
0.55673	-0.15492
-0.38683	-0.30797
0.30171	0.32972
0.12320	0.35523
0.04670	0.63582
0.09770	0.20219
0.19971	0.20219
-0.08081	0.02363
-0.13181	0.22769
-0.15732	-0.05289
-0.15732	-0.00188
0.76074	0.10015
0.73524	-0.10391
-0.08081	0.04914
-0.08081	0.35523
-2.37596	-0.23145
-0.41233	0.17668
0.91375	0.55929
1.04126	0.07465
1.39828	0.20219
-0.18282	0.50828
-0.76936	0.76336
0.70974	0.15117
0.70974	-0.41000
0.88825	-0.33348
0.40372	-0.43551
-0.18282	-0.30797
-1.33039	0.12566
0.55673	0.73785
-0.53984	0.30422
-0.33583	0.45726
0.40372	0.35523
0.19971	0.43176
0.50573	0.76336
0.73524	-0.02739
0.48022	0.07465
-0.10631	0.12566
-0.97337	-1.07320
0.27621	0.12566
-0.05531	0.30422
0.93925	0.45726
-0.13181	0.15117
-0.05531	0.32972
0.30171	0.12566
0.48022	0.15117
-0.02981	-0.05289
-0.00431	0.20219
0.70974	0.43176
0.12320	0.66132
-0.51434	-0.56305
-0.59084	-0.25695
0.99026	0.32972
0.83725	0.20219
-1.27939	0.30422
-0.69285	0.43176
0.53123	0.30422
0.78624	-0.05289
1.16877	0.12566
0.14870	-0.05289
-0.08081	0.15117
0.99026	0.15117
0.12320	0.17668
-1.35589	0.10015
-0.23382	0.22769
-0.15732	0.15117
0.53123	0.68683
0.32721	0.35523
0.30171	-0.05289
0.53123	-0.18043
0.42922	-0.10391
0.45472	-0.20594
-1.04987	-0.05289
-0.25932	-0.51203
0.17421	0.25320
-0.25932	0.55929
0.55673	0.86539
0.30171	0.68683
-0.00431	-0.23145
0.70974	0.25320
-0.59084	0.22769
0.22521	-0.07840
0.55673	0.04914
0.73524	0.15117
0.04670	0.27871
-0.08081	-0.66508
0.30171	0.20219
0.42922	-0.51203
0.04670	0.25320
0.07220	0.73785
0.48022	0.61031
0.12320	0.27871
-0.69285	0.12566
0.14870	0.22769
-0.61635	0.12566
0.37822	0.20219
0.58223	0.10015
0.53123	0.27871
0.02119	-0.23145
0.19971	-0.35899
0.58223	-0.12942
0.09770	0.20219
0.14870	0.55929
-0.13181	0.32972
0.02119	0.30422
-0.10631	0.12566
0.04670	0.25320
0.19971	0.07465
0.17421	-0.10391
0.19971	0.45726
0.12320	0.22769
0.19971	0.22769
0.35272	-0.33348
0.27621	-0.41000
0.27621	0.20219
0.35272	0.48277
-0.28482	0.32972
-0.36133	0.17668
0.45472	0.66132
0.19971	0.17668
-0.00431	0.17668
-0.05531	-0.18043
0.17421	-0.18043
0.53123	0.15117
1.19427	0.38074
0.07220	0.35523
-0.43783	0.17668
-0.71835	0.15117
-0.51434	0.07465
-0.10631	0.32972
0.25071	-0.05289
2.03582	-0.00188
0.37822	0.22769
-0.71835	-0.43551
0.76074	0.07465
0.55673	0.35523
0.07220	0.66132
0.12320	0.35523
0.30171	0.25320
-0.43783	-0.10391
-0.28482	-0.00188
-0.53984	-0.05289
-0.00431	0.20219
0.27621	0.10015
-0.25932	0.04914
0.53123	0.15117
0.58223	0.02363
0.45472	-0.00188
0.83725	0.30422
0.17421	0.73785
-1.35589	-0.05289
0.73524	-0.00188
0.30171	-0.35899
0.32721	-0.00188
0.17421	0.30422
0.12320	0.10015
0.12320	0.50828
0.17421	0.32972
0.50573	0.22769
0.88825	0.02363
-0.89686	-0.02739
-0.18282	0.04914
0.22521	-0.05289
1.21977	0.53379
0.12320	0.48277
-1.04987	-0.05289
0.19971	0.20219
0.12320	-0.43551
0.25071	-0.23145
0.42922	0.15117
0.83725	0.45726
0.32721	0.12566
-0.20832	0.40625
0.07220	0.02363
0.30171	0.58480
-0.31033	-0.07840
0.22521	0.20219
0.48022	-0.33348
0.53123	-0.33348
-0.23382	0.32972
0.32721	0.45726
-0.48884	0.20219
0.32721	0.58480
0.58223	0.15117
0.12320	0.17668
-0.08081	-0.00188
-0.28482	-0.23145
0.09770	0.22769
1.14327	0.43176
0.02119	0.02363
-1.20288	0.25320
0.83725	0.30422
-0.38683	-0.05289
0.22521	0.27871
0.76074	0.04914
1.34728	0.12566
1.39828	-0.30797
-1.61091	0.02363
-1.58541	0.25320
-0.38683	0.45726
0.76074	0.71234
1.19427	0.20219
0.76074	0.15117
0.37822	0.07465
0.60773	0.12566
0.19971	0.25320
-0.18282	-0.20594
-0.08081	-0.28246
-0.15732	0.10015
-0.38683	0.27871
0.68424	0.53379
-0.61635	-0.12942
-0.59084	-0.15492
0.58223	-0.46102
0.22521	-0.10391
0.19971	1.06945
0.30171	0.63582
0.32721	0.48277
0.22521	-0.02739
0.04670	0.07465
0.27621	-0.02739
0.40372	-0.20594
0.70974	0.10015
-0.05531	0.10015
-0.33583	0.04914
0.32721	0.22769
1.32178	-0.79262
-0.43783	0.07465
-1.17738	0.22769
0.12320	0.55929
-0.13181	0.50828
-0.64185	0.30422
1.06676	0.22769
0.63323	0.27871
0.99026	0.35523
0.40372	-0.10391
-0.08081	0.10015
0.19971	0.10015
0.07220	-0.05289
0.09770	0.25320
0.07220	0.35523
0.30171	-0.25695
0.25071	0.10015
-0.61635	0.32972
-1.30489	0.02363
0.04670	0.20219
0.25071	0.53379
0.40372	0.02363
0.65874	-0.18043
1.47479	0.20219
-0.48884	0.07465
-0.69285	0.35523
0.30171	0.25320
0.73524	0.07465
0.12320	0.35523
0.17421	0.25320
0.35272	-0.02739
0.14870	-0.02739
-0.31033	0.45726
0.12320	0.20219
0.27621	-0.12942
0.25071	0.15117
-0.05531	-0.25695
0.04670	-0.05289
0.02119	0.35523
-0.08081	0.45726
-0.33583	0.25320
0.48022	0.50828
0.17421	0.40625
-0.59084	0.10015
0.42922	-0.35899
0.25071	-0.18043
0.55673	0.17668
0.60773	0.43176
-0.79486	0.17668
0.12320	0.27871
0.09770	-0.02739
0.60773	-0.00188
-0.23382	0.15117
0.12320	0.25320
-0.13181	0.04914
0.22521	-0.02739
0.42922	0.17668
0.40372	0.22769
0.42922	0.20219
0.22521	0.12566
-0.48884	0.20219
-0.41233	-0.05289
0.25071	0.50828
-0.15732	0.35523
-0.08081	0.04914
0.50573	0.12566
0.30171	-0.05289
0.60773	-0.00188
-0.00431	-0.00188
0.27621	0.22769
0.25071	0.35523
0.12320	0.27871
0.22521	-0.07840
0.02119	0.10015
0.07220	0.48277
0.14870	0.04914
0.32721	0.12566
0.27621	0.04914
-0.38683	0.12566
-0.05531	0.07465
0.19971	0.15117
0.37822	-0.51203
0.37822	0.27871
-0.15732	0.50828
-0.92237	0.17668
-0.02981	0.38074
0.30171	0.30422
0.17421	-0.05289
0.81175	0.07465
0.37822	0.30422
0.35272	0.55929
0.14870	0.17668
0.25071	-0.15492
-0.48884	-0.00188
0.25071	0.02363
-0.28482	0.12566
0.07220	0.04914
0.50573	0.35523
0.32721	-0.05289
-0.05531	0.17668
0.04670	0.20219
0.12320	-0.07840
0.60773	0.25320
-0.41233	-0.15492
0.04670	-0.05289
0.48022	0.22769
0.50573	-0.18043
-0.33583	0.45726
0.07220	0.48277
0.07220	0.38074
0.07220	0.45726
0.17421	0.04914
0.37822	0.04914
0.02119	0.15117
0.17421	0.02363
0.83725	0.04914
0.68424	-0.05289
-1.04987	0.48277
-0.25932	0.04914
-0.02981	-0.23145
0.53123	-0.05289
0.40372	0.17668
0.19971	0.27871
0.14870	-0.00188
0.14870	0.15117
0.32721	0.35523
0.14870	0.45726
0.27621	0.04914
0.09770	0.12566
-0.48884	-0.18043
-0.71835	0.12566
0.40372	0.38074
0.83725	0.04914
0.48022	0.32972
0.19971	0.02363
0.68424	0.02363
0.09770	0.15117
0.17421	0.15117
-0.05531	-0.12942
0.12320	-0.07840
0.12320	0.07465
0.60773	0.45726
-0.25932	0.48277
0.32721	0.38074
0.37822	0.10015
-0.87136	-0.05289
0.07220	0.17668
0.19971	0.27871
0.19971	0.12566
0.37822	-0.05289
0.22521	-0.00188
0.17421	-0.02739
-0.10631	-0.02739
0.42922	0.20219
0.27621	0.15117
0.65874	0.15117
0.42922	0.30422
-0.48884	0.35523
-0.48884	0.55929
-0.46334	0.35523
0.37822	-0.10391
0.63323	0.12566
0.45472	-0.18043
-0.00431	0.15117
0.22521	-0.51203
-0.05531	0.15117
-0.61635	0.32972
0.48022	0.27871
0.91375	0.58480
0.32721	0.38074
0.73524	0.25320
-0.79486	0.15117
-0.33583	0.02363
0.45472	-0.05289
0.32721	0.07465
0.19971	-0.51203
0.53123	0.27871
-0.05531	0.48277
-0.87136	0.48277
-0.05531	0.53379
0.78624	-0.02739
0.12320	0.35523
-0.00431	-0.28246
0.40372	-0.10391
0.32721	0.25320
0.14870	0.07465
0.55673	-0.25695
-0.61635	-0.02739
-0.46334	0.53379
0.63323	0.53379
0.19971	0.17668
0.02119	0.12566
0.09770	-0.02739
0.25071	0.20219
0.35272	0.17668
0.14870	-0.00188
0.27621	-0.02739
0.42922	-0.05289
-0.10631	0.30422
0.17421	0.30422
0.35272	0.04914
-0.38683	0.27871
0.93925	-0.00188
0.27621	0.07465
-1.86593	0.43176
0.30171	0.17668
0.14870	0.30422
1.01576	0.22769
0.78624	-0.02739
0.42922	0.20219
0.73524	-0.05289
-0.28482	-0.05289
-0.25932	0.02363
0.14870	0.10015
0.55673	0.12566
0.40372	0.17668
-1.20288	0.17668
-0.33583	-0.58856
-0.08081	0.22769
0.53123	0.30422
0.53123	0.38074
0.42922	0.17668
0.42922	0.20219
0.09770	0.10015
0.12320	0.96742
0.40372	0.38074
0.22521	0.32972
-0.46334	-0.43551
0.32721	-0.79262
-0.36133	-0.07840
0.22521	0.22769
0.07220	0.35523
0.17421	0.25320
-0.25932	0.22769
0.32721	0.38074
0.42922	0.27871
0.02119	0.22769
0.02119	0.04914
0.22521	-0.00188
0.32721	0.27871
0.32721	-0.18043
0.30171	0.30422
0.19971	-0.18043
-0.05531	0.02363
0.17421	0.12566
0.30171	0.53379
0.37822	0.07465
-0.28482	0.07465
-0.20832	0.17668
-0.05531	0.12566
0.19971	0.04914
-0.20832	0.22769
0.27621	0.22769
0.37822	0.25320
0.65874	0.20219
0.12320	0.10015
0.19971	0.12566
-0.61635	0.20219
-0.05531	0.04914
0.63323	-0.18043
1.32178	0.32972
0.19971	-0.30797
-1.53441	0.12566
0.63323	-0.02739
0.37822	0.04914
0.53123	0.71234
0.50573	0.40625
0.32721	-0.07840
0.02119	-0.00188
-0.20832	0.50828
-0.25932	0.17668
0.02119	0.38074
0.22521	-0.35899
-0.36133	-0.15492
0.19971	0.02363
0.32721	0.10015
0.48022	0.38074
0.48022	-0.07840
-0.23382	0.35523
-0.28482	0.45726
0.35272	0.35523
0.68424	0.32972
0.09770	0.12566
-0.99887	0.17668
1.11776	0.40625
0.19971	-0.07840
-0.15732	-0.30797
1.55129	-0.15492
-0.48884	0.04914
0.37822	0.22769
0.17421	0.15117
-0.59084	-0.05289
0.60773	0.25320
-0.10631	0.45726
-0.31033	0.32972
0.78624	0.38074
-0.00431	0.30422
-0.15732	0.15117
1.34728	0.17668
-0.18282	-0.05289
-0.38683	0.25320
0.17421	-0.07840
0.25071	0.07465
0.35272	0.07465
0.04670	-0.15492
0.12320	0.07465
0.19971	0.30422
0.12320	0.04914
-0.23382	0.40625
0.27621	0.10015
0.17421	0.27871
0.25071	0.45726
0.53123	0.22769
-0.79486	-0.20594
1.16877	-0.18043
-0.48884	0.17668
0.27621	0.35523
0.76074	0.20219
0.04670	0.32972
-0.48884	0.55929
0.40372	0.55929
0.19971	0.25320
-0.36133	-0.12942
0.22521	-0.05289
0.93925	-0.35899
-0.20832	-0.61406
0.53123	0.02363
-0.25932	-0.46102
-0.10631	0.53379
0.27621	0.66132
0.48022	0.43176
-0.10631	0.20219
-0.08081	0.50828
-0.00431	0.27871
0.12320	0.27871
0.22521	0.25320
0.17421	0.04914
0.17421	0.20219
0.22521	-0.05289
-0.43783	-0.38449
0.40372	0.07465
0.99026	-0.25695
0.96476	0.17668
-1.10088	0.27871
-0.38683	0.02363
-0.48884	0.58480
1.39828	0.27871
-0.08081	0.38074
-0.15732	0.12566
0.58223	-0.10391
0.50573	-0.10391
0.96476	-0.12942
-0.10631	0.25320
-0.33583	0.86539
-0.08081	0.15117
-0.15732	0.50828
0.63323	-0.28246
-0.59084	-0.43551
-0.33583	0.04914
0.45472	-0.02739
0.32721	0.20219
0.37822	0.32972
0.09770	0.25320
0.25071	0.38074
0.37822	0.45726
0.17421	-0.02739
-0.74385	-0.15492
0.25071	-0.02739
0.45472	0.38074
0.32721	0.35523
0.50573	0.02363
0.02119	0.25320
0.04670	-0.41000
-0.51434	-0.05289
-0.31033	0.27871
0.60773	0.22769
0.83725	0.35523
-0.00431	0.35523
-0.13181	0.38074
0.73524	0.12566
-0.25932	0.22769
-0.00431	0.25320
0.12320	0.15117
0.12320	0.17668
0.53123	-0.05289
0.09770	-0.28246
0.27621	-0.20594
-0.18282	-0.05289
-0.36133	-0.25695
0.14870	0.10015
0.35272	0.35523
-0.64185	0.43176
-0.00431	0.43176
0.37822	0.17668
0.81175	0.38074
0.45472	0.20219
-0.46334	-0.18043
0.09770	0.17668
0.22521	0.12566
0.83725	0.22769
0.12320	0.27871
-0.15732	0.27871
-0.31033	-0.10391
0.48022	-0.20594
0.55673	0.04914
0.04670	0.07465
-1.25389	0.12566
-0.18282	0.40625
0.48022	0.40625
1.27078	0.35523
-0.56534	0.30422
-0.02981	-0.18043
0.76074	-0.02739
0.81175	-0.25695
0.12320	0.25320
-0.13181	0.40625
0.40372	0.27871
1.19427	0.35523
0.14870	-0.05289
-1.86593	0.17668
-0.76936	0.25320
0.30171	-0.33348
0.78624	-0.02739
0.48022	0.48277
0.83725	0.55929
0.53123	0.38074
-0.05531	-0.12942
-0.02981	-0.25695
0.09770	0.22769
0.04670	0.30422
0.04670	0.22769
0.78624	0.45726
-1.71292	0.10015
-0.51434	0.20219
0.32721	-0.00188
0.65874	0.30422
0.93925	0.25320
0.19971	-0.30797
0.30171	0.12566
0.19971	0.04914
0.30171	0.27871
0.22521	0.15117
0.30171	0.12566
0.53123	0.30422
-0.48884	0.15117
-0.15732	0.30422
0.22521	0.07465
0.25071	0.12566
0.45472	0.22769
0.19971	0.43176
-0.20832	0.07465
-0.20832	0.07465
0.25071	-0.00188
1.09226	0.20219
0.02119	-0.28246
-0.56534	-0.07840
0.60773	0.66132
0.48022	0.71234
-0.00431	0.48277
0.30171	0.50828
0.45472	-0.05289
0.09770	-0.58856
0.19971	-0.92016
-0.33583	-0.12942
-0.94787	0.22769
0.02119	0.55929
1.57679	0.17668
-0.02981	0.04914
-0.76936	0.35523
1.44929	0.94191
0.83725	0.71234
-0.46334	0.10015
0.50573	-0.00188
0.35272	-0.05289
-0.00431	0.07465
-0.08081	-0.15492
0.35272	-0.10391
0.19971	0.07465
-0.33583	0.02363
0.12320	-0.10391
0.14870	0.20219
0.32721	0.27871
0.17421	0.15117
0.25071	0.38074
0.45472	0.22769
0.07220	-0.05289
-0.43783	0.20219
-0.18282	0.02363
0.30171	0.25320
0.25071	0.27871
0.30171	0.71234
0.32721	0.73785
-0.08081	0.10015
0.63323	-0.12942
0.63323	-0.66508
-0.89686	-0.15492
-0.15732	0.25320
-0.23382	0.02363
-0.82036	0.25320
1.52579	0.45726
0.07220	0.17668
0.19971	-0.18043
1.06676	0.45726
0.81175	0.35523
0.04670	0.30422
0.53123	0.15117
-0.53984	0.12566
-0.20832	0.27871
0.09770	0.10015
0.09770	-0.15492
-0.43783	0.50828
-0.18282	-0.10391
0.48022	0.32972
0.35272	0.35523
-0.13181	-0.41000
0.19971	0.35523
0.50573	-0.25695
0.12320	0.22769
0.19971	0.43176
0.32721	0.22769
0.04670	0.27871
-0.18282	0.02363
-0.00431	0.02363
0.40372	0.15117
0.91375	0.35523
0.22521	0.48277
-1.27939	-0.12942
0.40372	-0.00188
0.22521	-0.10391
-0.05531	0.20219
0.22521	0.15117
1.01576	0.04914
-0.33583	0.12566
0.04670	0.30422
0.81175	0.17668
0.37822	-0.33348
-0.10631	0.22769
0.50573	0.53379
-0.74385	0.30422
0.07220	0.32972
0.30171	0.30422
-0.15732	0.02363
0.02119	-0.28246
0.45472	0.10015
-0.38683	0.15117
-0.36133	0.17668
0.70974	0.43176
0.25071	0.27871
0.27621	0.20219
0.45472	0.30422
0.12320	-0.10391
0.37822	0.04914
0.65874	-0.00188
-0.64185	0.22769
-0.53984	0.22769
0.27621	-0.00188
0.14870	0.10015
0.78624	0.15117
0.42922	0.30422
-0.71835	0.17668
0.37822	-0.10391
-0.25932	0.12566
-0.48884	0.38074
0.96476	0.45726
1.14327	-0.43551
-0.18282	-0.46102
-1.20288	0.10015
0.17421	0.43176
0.53123	0.73785
1.19427	0.40625
-0.74385	0.32972
0.09770	0.27871
0.27621	0.04914
0.27621	0.04914
0.58223	0.07465
-0.66735	0.17668
-0.64185	-0.15492
0.65874	-0.56305
0.96476	-0.20594
-0.51434	0.38074
-0.25932	0.91640
0.22521	-0.15492
0.58223	-0.12942
0.35272	-0.43551
0.09770	0.22769
0.35272	0.68683
0.02119	0.53379
0.45472	0.35523
0.48022	0.15117
0.04670	0.30422
0.04670	0.22769
-0.36133	0.35523
0.32721	0.02363
0.58223	-0.10391
0.12320	0.30422
-0.36133	-0.20594
-1.22839	0.04914
0.55673	0.22769
0.35272	-0.46102
0.60773	0.17668
0.30171	0.20219
0.70974	0.32972
0.27621	0.22769
-0.28482	0.35523
-0.05531	0.35523
0.42922	0.10015
1.52579	0.91640
0.55673	0.12566
-2.17195	-0.20594
-0.61635	-0.30797
0.55673	0.04914
0.48022	-0.07840
0.02119	0.02363
