0.07220	0.22769
0.09770	0.15117
0.09770	0.17668
0.17421	0.20219
0.27621	-0.02739
0.17421	0.17668
0.14870	0.12566
0.12320	0.12566
0.02119	0.20219
0.19971	0.07465
0.09770	0.15117
0.07220	0.35523
0.22521	0.10015
0.14870	0.22769
0.14870	0.10015
0.32721	0.10015
0.07220	0.20219
0.12320	0.10015
0.09770	0.15117
0.04670	0.02363
0.19971	0.22769
0.19971	0.12566
0.07220	0.12566
-0.08081	0.15117
0.30171	0.17668
0.17421	0.12566
0.25071	0.27871
0.04670	0.02363
0.09770	0.20219
0.14870	0.10015
0.30171	0.22769
-0.13181	0.04914
0.19971	0.22769
0.32721	0.15117
0.25071	0.17668
0.09770	0.02363
0.17421	0.22769
-0.00431	0.07465
0.12320	0.15117
0.19971	0.20219
0.09770	0.20219
0.22521	0.10015
0.07220	0.25320
0.22521	0.10015
0.14870	0.17668
0.27621	0.07465
0.22521	0.20219
0.04670	0.12566
0.17421	0.07465
0.09770	0.25320
0.17421	0.15117
0.17421	0.17668
0.07220	0.20219
0.17421	0.10015
0.22521	0.10015
0.12320	0.15117
0.22521	0.04914
0.12320	0.27871
0.07220	0.02363
0.19971	0.20219
-0.02981	0.27871
0.22521	0.10015
0.14870	0.12566
-0.10631	0.10015
0.27621	0.04914
0.12320	0.07465
0.22521	0.20219
0.17421	0.17668
0.12320	0.12566
0.07220	0.15117
0.07220	0.12566
0.25071	0.15117
0.14870	0.30422
0.07220	0.15117
0.19971	0.02363
0.30171	0.07465
0.25071	0.17668
0.02119	0.20219
-0.08081	0.12566
0.32721	0.15117
0.12320	0.15117
0.07220	0.20219
-0.00431	0.15117
0.17421	0.15117
0.17421	0.17668
0.12320	0.10015
0.25071	0.04914
0.07220	0.20219
0.19971	0.04914
0.02119	0.22769
0.12320	0.17668
0.17421	0.20219
0.19971	0.10015
0.17421	0.20219
0.09770	0.15117
0.14870	0.04914
0.17421	0.15117
0.12320	0.12566
0.04670	0.17668
0.17421	0.17668
0.09770	0.10015
0.19971	0.20219
0.14870	0.15117
0.12320	0.22769
0.12320	0.25320
0.12320	-0.00188
0.19971	0.07465
0.12320	0.07465
0.25071	0.20219
0.12320	0.27871
0.22521	0.20219
-0.02981	0.07465
0.07220	0.22769
0.12320	0.15117
0.27621	0.10015
0.12320	0.07465
0.19971	0.12566
0.22521	0.17668
0.02119	0.02363
0.17421	0.17668
0.14870	0.07465
0.09770	0.17668
0.07220	0.12566
0.02119	0.17668
0.07220	0.22769
0.27621	0.20219
0.42922	0.12566
0.12320	0.15117
0.02119	0.04914
-0.00431	0.22769
0.14870	0.10015
0.07220	0.22769
0.12320	0.10015
0.19971	0.27871
0.17421	0.10015
0.17421	0.17668
0.14870	0.10015
0.19971	0.07465
0.12320	0.15117
0.17421	0.15117
0.12320	0.17668
0.07220	0.10015
0.19971	0.15117
0.07220	0.22769
0.12320	0.02363
0.19971	0.22769
0.27621	0.15117
-0.10631	0.12566
-0.18282	0.02363
0.30171	0.07465
0.35272	0.43176
0.19971	0.25320
0.32721	0.02363
0.17421	0.15117
0.12320	-0.07840
0.02119	-0.30797
0.12320	0.15117
0.09770	0.27871
-0.02981	0.27871
0.14870	0.32972
0.19971	-0.05289
0.17421	0.30422
-0.13181	0.48277
-0.33583	0.30422
0.30171	0.38074
0.35272	0.27871
0.76074	-0.10391
0.50573	0.07465
0.12320	-0.15492
-0.05531	0.15117
-0.64185	-0.12942
0.17421	0.22769
-0.28482	0.04914
0.25071	0.15117
0.40372	0.15117
0.83725	0.20219
0.68424	0.27871
-0.18282	-0.07840
-0.20832	0.32972
0.25071	0.10015
0.27621	0.15117
0.19971	0.15117
0.25071	0.15117
0.27621	0.20219
0.07220	0.10015
-0.33583	0.22769
-0.46334	-0.00188
0.12320	0.38074
0.25071	0.20219
0.42922	-0.15492
0.17421	0.02363
-0.05531	0.04914
-0.13181	0.12566
0.27621	0.38074
1.29628	0.38074
0.55673	0.12566
-0.66735	0.04914
-1.04987	-0.18043
0.19971	0.55929
1.01576	0.35523
0.19971	0.40625
-0.38683	-0.12942
0.55673	0.02363
0.70974	-0.30797
0.88825	-0.48652
1.11776	0.02363
0.55673	0.55929
-1.12638	0.45726
-3.03900	0.43176
-0.51434	0.17668
0.73524	0.22769
0.35272	-0.05289
0.42922	0.43176
0.60773	0.43176
0.73524	-0.28246
0.86275	0.50828
1.27078	-0.00188
0.42922	0.12566
-0.59084	0.12566
-0.99887	-0.15492
0.12320	-0.41000
-0.05531	-0.07840
0.17421	-0.35899
0.30171	0.32972
0.22521	0.45726
0.09770	0.38074
0.12320	0.55929
0.02119	0.22769
-0.25932	0.45726
0.17421	0.48277
0.30171	0.04914
0.09770	-0.10391
0.60773	-0.35899
1.21977	0.27871
0.93925	0.15117
-1.63641	0.15117
-1.45790	0.20219
-0.15732	-0.07840
1.44929	-0.18043
1.32178	0.43176
-0.38683	0.32972
-0.43783	-0.12942
0.50573	-0.07840
0.58223	-0.18043
0.55673	0.27871
0.63323	0.43176
0.19971	0.30422
-0.00431	0.25320
-0.38683	-0.05289
-0.46334	-0.20594
0.07220	0.32972
0.14870	0.25320
-0.25932	0.12566
-0.25932	0.55929
-0.18282	0.43176
0.35272	0.15117
1.24527	0.22769
0.68424	0.25320
-0.53984	-0.02739
0.45472	-0.38449
-1.43240	-0.05289
0.17421	0.32972
0.99026	-1.04770
1.14327	0.12566
0.83725	0.07465
-1.10088	0.04914
-1.35589	0.50828
1.01576	0.76336
0.83725	0.86539
0.07220	0.71234
0.27621	0.78886
-0.00431	-0.05289
-0.18282	-0.94566
0.09770	-0.38449
0.42922	-0.66508
0.35272	0.10015
-0.10631	0.04914
-0.10631	-0.30797
-0.59084	1.14597
0.07220	0.53379
0.25071	0.76336
0.48022	0.45726
0.48022	0.38074
0.17421	-0.02739
0.04670	0.15117
0.76074	-0.35899
0.25071	-0.33348
-0.71835	-0.05289
0.53123	-1.30277
0.37822	0.81437
-0.15732	0.27871
-0.13181	0.53379
0.14870	0.68683
0.45472	0.38074
0.32721	0.04914
-0.08081	0.15117
-0.31033	-0.07840
0.07220	0.45726
1.39828	0.38074
0.14870	-0.23145
-0.56534	-0.30797
0.19971	-0.43551
0.02119	0.17668
-0.10631	-0.30797
-0.05531	0.71234
0.12320	0.68683
0.12320	0.12566
0.17421	-0.30797
0.78624	0.25320
1.39828	0.43176
0.02119	-0.28246
-2.24845	-0.12942
-0.76936	0.63582
1.72980	1.17148
1.19427	0.99292
-0.46334	0.73785
0.14870	-0.76711
0.02119	0.63582
0.68424	-1.25176
1.55129	-0.28246
-0.08081	-0.02739
-0.97337	0.04914
-0.25932	0.94191
1.19427	0.15117
0.76074	0.30422
-0.64185	0.20219
-1.61091	1.09496
-0.05531	0.50828
0.58223	-1.35379
0.65874	-0.10391
1.32178	-0.63957
0.42922	0.61031
-1.50890	0.76336
-1.10088	-0.18043
-0.79486	-0.30797
0.88825	1.06945
0.55673	0.15117
1.16877	-0.30797
0.68424	-0.18043
0.09770	0.66132
0.60773	0.58480
1.06676	1.01843
0.07220	1.47757
-0.43783	-1.25176
-0.41233	-0.97117
1.37278	-0.48652
0.09770	-1.09871
-1.22839	0.10015
-1.20288	1.55410
-0.79486	0.89089
0.83725	1.37554
0.99026	0.94191
1.34728	0.43176
0.70974	-0.76711
1.37278	-0.89465
0.12320	0.45726
-1.27939	1.01843
-1.45790	-0.28246
0.76074	-1.12422
1.04126	0.20219
0.27621	-1.78742
1.52579	0.78886
-2.01894	0.25320
-0.51434	0.40625
-2.01894	0.73785
2.23984	0.43176
0.48022	0.96742
-0.05531	0.35523
0.96476	-0.66508
0.78624	1.32453
-0.00431	-1.17523
-0.28482	0.17668
0.04670	-2.42511
0.12320	0.76336
2.16333	1.27351
-0.99887	1.14597
-0.38683	1.83468
-0.28482	0.86539
-1.81492	-0.92016
-0.28482	0.45726
-0.18282	-1.63437
1.50029	0.38074
0.53123	-1.25176
-0.94787	0.32972
0.78624	0.10015
1.93382	-0.12942
2.80087	1.57960
-2.52897	-0.99668
-1.66191	1.22250
1.34728	0.55929
0.73524	0.81437
0.93925	0.73785
-2.88599	-0.20594
1.09226	0.10015
1.52579	-0.51203
-2.12094	0.35523
1.16877	0.12566
-0.53984	-0.61406
-2.09544	0.15117
0.83725	0.48277
0.91375	0.20219
1.47479	-1.94047
1.55129	-0.76711
-0.23382	-0.97117
0.76074	1.37554
-1.40690	1.75816
-2.78398	1.52859
0.70974	1.91120
1.88281	-0.38449
1.29628	0.38074
1.14327	-0.79262
-0.53984	-0.10391
0.93925	-0.69059
-5.10463	1.75816
0.14870	-0.63957
1.50029	-0.43551
2.72437	-3.26687
2.06133	-0.51203
0.63323	1.52859
-2.22295	1.55410
-2.70748	1.57960
2.69887	0.58480
1.19427	0.15117
1.32178	-0.99668
0.14870	1.24800
2.03582	0.63582
-4.59460	-0.61406
-3.88056	-3.31788
1.34728	-0.15492
-1.53441	0.94191
1.75531	1.29902
2.97938	0.25320
0.58223	-0.18043
1.16877	0.83988
0.17421	0.40625
0.22521	1.65613
1.11776	1.14597
2.36734	-2.22105
-6.45622	0.43176
-1.96793	-1.94047
3.82094	0.53379
-0.10631	-1.14973
0.78624	1.17148
1.09226	1.45206
0.02119	1.93671
1.27078	0.55929
-0.10631	-1.76191
3.15790	-0.92016
0.63323	-1.71090
-6.02269	1.50308
-2.50347	1.75816
-0.76936	-0.00188
2.11233	0.17668
1.83181	-1.63437
3.82094	-0.41000
1.70430	1.19699
-3.14101	1.17148
-1.86593	0.71234
0.96476	0.02363
0.93925	-0.99668
1.60230	-0.43551
0.96476	0.10015
0.30171	0.10015
-3.14101	0.91640
0.88825	0.30422
-0.38683	0.55929
1.29628	-1.20074
0.58223	-0.48652
0.42922	-0.10391
0.40372	-0.58856
0.07220	1.01843
0.32721	1.22250
0.04670	1.35003
-0.74385	0.94191
-0.61635	1.12046
0.86275	-2.01699
1.85731	-2.22105
-0.20832	-0.07840
-1.10088	1.40105
1.19427	0.45726
-5.10463	1.93671
2.44385	0.71234
0.63323	0.02363
-0.51434	-3.47093
2.26534	-1.09871
-0.74385	1.45206
0.83725	2.31933
-0.18282	1.24800
0.83725	-0.18043
1.37278	0.45726
0.88825	-0.00188
-0.10631	-0.20594
-1.20288	-0.48652
0.40372	-0.53754
0.68424	0.96742
0.27621	-0.58856
-4.18658	0.00000
0.73524	0.00000
0.17421	0.00000
1.50029	0.00000
1.39828	0.76336
-2.01894	-2.34859
-1.91693	0.40625
3.89744	-1.09871
2.18883	1.88570
-3.14101	1.42656
2.54586	1.35003
1.14327	1.52859
-1.38139	0.55929
1.04126	-0.41000
2.16333	-1.25176
0.02119	-0.66508
-3.95706	-0.66508
0.93925	-0.30797
-0.59084	1.37554
1.09226	0.86539
2.26534	-0.41000
-1.81492	1.70714
-0.36133	-0.48652
-0.43783	-0.46102
-2.60547	-1.76191
1.72980	-0.71609
2.29084	0.76336
0.70974	1.50308
0.83725	0.73785
1.65330	2.31933
2.16333	0.07465
-1.33039	0.10015
-2.40146	-2.39961
0.96476	-0.38449
-2.04444	0.71234
-1.20288	0.50828
1.24527	0.55929
2.57136	0.32972
-1.25389	-0.05289
0.09770	0.43176
1.57679	0.78886
-0.36133	-1.27726
-0.36133	0.30422
-1.40690	-0.51203
0.32721	0.22769
2.87738	-0.07840
0.07220	1.45206
-1.50890	-0.02739
-1.04987	0.83988
0.07220	0.10015
1.21977	0.50828
1.72980	-0.20594
1.39828	-0.07840
-1.07538	0.99292
-2.83499	-0.43551
1.90832	-0.71609
-1.17738	-1.20074
1.44929	-0.15492
0.42922	0.96742
-2.29945	1.68163
-0.02981	-0.66508
1.42379	-0.05289
1.14327	1.78367
0.42922	0.83988
-0.00431	-0.10391
1.16877	-0.33348
-1.53441	-1.83844
0.40372	0.20219
1.24527	0.63582
-0.97337	0.83988
-0.23382	0.71234
0.12320	0.66132
1.95932	0.91640
-2.35046	-0.97117
-2.63097	-1.43031
-0.00431	-1.76191
1.95932	-0.28246
2.01032	1.98773
1.47479	1.47757
0.27621	0.50828
2.59686	0.35523
0.93925	0.58480
-4.18658	-0.23145
-3.06450	0.81437
0.17421	-1.65988
1.60230	-0.92016
1.44929	-2.60367
0.99026	0.94191
0.42922	1.88570
0.09770	1.35003
0.93925	0.53379
2.57136	0.38074
-3.77855	1.14597
-1.91693	-0.92016
-0.25932	-0.94566
0.53123	0.10015
0.32721	0.53379
0.58223	0.15117
1.32178	-0.02739
0.73524	0.02363
0.37822	0.07465
0.99026	1.04394
4.10146	-0.15492
-3.72755	0.10015
-4.59460	-2.14453
1.29628	0.48277
0.60773	0.35523
1.04126	1.19699
0.96476	0.83988
1.04126	0.35523
1.78081	1.17148
-0.64185	-0.07840
-1.43240	-0.99668
1.55129	1.14597
-1.76392	0.04914
0.76074	-0.07840
0.37822	-0.66508
0.37822	-1.25176
0.83725	0.68683
0.88825	0.63582
0.35272	0.63582
-0.18282	1.14597
-1.30489	1.27351
-2.65648	-1.32828
0.76074	-2.09351
-0.59084	-1.83844
0.58223	1.37554
2.46935	1.88570
1.44929	1.01843
0.48022	0.78886
0.53123	0.61031
2.01032	0.35523
-0.59084	0.10015
-3.11551	0.15117
0.40372	-2.24656
0.25071	-1.02219
0.37822	0.58480
0.02119	0.66132
0.27621	0.58480
0.35272	0.55929
1.93382	1.27351
-1.81492	0.07465
-1.99343	-1.27726
1.93382	-1.07320
-1.73842	-0.48652
0.37822	1.37554
0.07220	1.32453
1.14327	1.14597
0.76074	-0.18043
2.03582	0.07465
2.03582	1.88570
-2.50347	-0.74160
-1.04987	0.43176
0.48022	-2.65468
1.09226	-0.56305
1.21977	0.96742
0.22521	0.25320
-0.48884	0.73785
0.14870	0.76336
-0.28482	0.43176
-0.94787	1.27351
-2.12094	-0.38449
0.81175	-1.27726
1.88281	0.50828
1.14327	0.10015
0.63323	-0.07840
1.16877	0.15117
0.48022	-0.28246
-0.61635	0.43176
-1.04987	-0.00188
0.68424	0.40625
1.62780	0.12566
-2.63097	0.83988
-1.38139	0.50828
0.91375	0.71234
0.53123	-0.66508
1.29628	-0.02739
1.16877	0.27871
0.42922	0.78886
-1.78942	0.71234
0.12320	-0.28246
1.14327	-2.24656
0.17421	-0.66508
0.09770	0.22769
1.04126	1.60511
-0.10631	1.12046
0.12320	0.61031
0.48022	1.17148
0.91375	0.22769
-1.68742	-0.46102
-1.48340	-2.19554
1.37278	-0.81812
1.67880	1.37554
-2.35046	0.86539
-0.28482	-0.10391
0.55673	0.10015
0.53123	0.35523
0.91375	1.32453
0.96476	0.55929
1.39828	-0.86914
1.21977	-1.83844
-1.10088	-1.45582
-0.53984	1.29902
-1.15188	0.53379
0.42922	1.78367
0.40372	0.83988
0.32721	0.35523
1.55129	-0.05289
-1.10088	0.15117
-2.75848	0.27871
1.75531	-0.15492
1.52579	-0.48652
0.93925	-0.81812
0.60773	0.27871
-0.51434	0.32972
1.50029	0.15117
-1.55991	0.48277
-1.71292	0.30422
0.22521	0.20219
0.25071	-0.51203
0.91375	-0.07840
0.88825	0.68683
0.60773	0.40625
-0.69285	0.38074
0.78624	-0.12942
0.32721	0.94191
-0.48884	-0.56305
0.42922	-0.58856
0.22521	0.02363
0.88825	1.73265
0.60773	0.27871
-2.65648	-0.10391
-1.71292	-2.37410
1.27078	0.55929
1.34728	1.73265
0.81175	-0.00188
0.27621	0.66132
1.39828	0.45726
0.81175	0.22769
-0.94787	0.15117
0.12320	-0.20594
-0.79486	0.20219
-1.33039	-1.32828
1.57679	-0.51203
-0.53984	1.32453
0.48022	-0.20594
0.09770	0.12566
1.09226	-0.23145
0.86275	0.02363
0.04670	0.89089
0.12320	0.81437
-0.43783	0.53379
-0.82036	0.45726
-0.05531	0.10015
0.27621	-0.35899
-0.20832	-0.35899
0.09770	-0.89465
1.09226	1.14597
0.78624	0.45726
0.37822	0.48277
-1.17738	-0.86914
-0.08081	-0.97117
0.68424	0.30422
0.73524	0.53379
0.68424	0.73785
-0.74385	0.68683
0.53123	-0.00188
-0.05531	0.07465
0.45472	0.58480
0.48022	0.20219
0.32721	0.10015
-0.00431	-0.05289
0.53123	0.25320
0.65874	0.53379
1.44929	0.66132
-1.40690	-1.07320
-2.70748	-0.61406
0.04670	-1.12422
0.17421	0.99292
0.70974	0.15117
1.09226	0.91640
0.63323	0.66132
0.35272	0.22769
-0.02981	0.71234
-0.18282	0.12566
0.88825	0.20219
0.14870	0.45726
0.09770	0.04914
-2.12094	-0.05289
0.70974	-0.79262
0.83725	-1.32828
0.91375	-0.07840
-1.07538	0.22769
0.48022	0.22769
1.24527	0.94191
0.25071	1.42656
1.14327	0.35523
-0.38683	-0.41000
-0.02981	0.71234
0.70974	0.25320
-0.48884	0.63582
-0.74385	-0.00188
-0.48884	-0.25695
0.70974	-0.89465
1.57679	-0.46102
0.19971	0.35523
-2.65648	0.15117
-0.36133	0.58480
1.55129	0.61031
1.78081	0.20219
1.57679	0.12566
-1.04987	-0.20594
-1.12638	-0.00188
1.72980	0.30422
-0.08081	0.58480
0.32721	0.25320
-1.45790	0.15117
-0.82036	0.63582
1.34728	-0.92016
0.99026	-0.48652
0.81175	-0.18043
0.99026	0.53379
1.39828	0.55929
-1.43240	0.53379
-1.50890	0.15117
0.35272	0.32972
-0.41233	0.02363
0.65874	0.15117
1.11776	0.78886
0.45472	-0.28246
-0.92237	0.15117
0.07220	0.12566
0.45472	0.35523
0.22521	0.22769
0.45472	-0.89465
0.14870	0.40625
0.07220	-1.27726
0.17421	0.07465
0.42922	0.25320
-0.20832	0.45726
-0.33583	0.99292
-0.23382	0.61031
0.58223	0.35523
-0.23382	0.40625
-0.20832	0.55929
0.07220	0.96742
0.68424	-1.71090
-1.68742	-1.17523
1.50029	-0.63957
2.01032	0.35523
-0.46334	0.63582
-2.65648	0.91640
1.37278	0.66132
0.88825	0.76336
1.29628	-0.15492
-1.38139	0.15117
0.65874	-1.40480
0.83725	-0.10391
0.07220	0.61031
0.22521	0.96742
0.17421	0.40625
-0.28482	0.10015
0.40372	0.15117
-0.53984	-0.00188
-0.46334	0.02363
-0.97337	0.45726
1.09226	-0.30797
-1.04987	0.25320
0.60773	-1.07320
0.86275	0.43176
1.14327	0.53379
-0.33583	0.27871
-0.05531	-0.25695
-0.08081	0.58480
0.70974	0.32972
0.19971	0.12566
0.68424	-0.10391
-0.33583	0.15117
-1.30489	0.50828
0.73524	-0.97117
1.04126	0.12566
0.12320	0.71234
-0.28482	0.58480
-0.08081	0.48277
0.35272	0.48277
-0.13181	-0.07840
1.06676	0.55929
1.21977	-0.00188
-4.39059	-0.30797
-2.04444	-0.97117
2.29084	-0.41000
2.06133	0.58480
1.34728	0.15117
0.35272	0.66132
0.76074	0.43176
0.96476	-0.00188
-1.86593	0.25320
-0.76936	0.68683
0.76074	-0.12942
1.90832	-0.25695
-0.23382	-1.17523
-1.96793	0.55929
0.32721	0.89089
0.88825	0.66132
0.60773	0.50828
0.40372	0.12566
-0.08081	-0.30797
0.30171	0.63582
0.50573	0.15117
0.37822	0.32972
-0.18282	-1.02219
-0.13181	-0.15492
-0.79486	0.48277
1.14327	0.78886
0.55673	0.68683
-1.89143	0.17668
0.63323	-0.02739
0.99026	0.02363
-0.82036	0.07465
1.70430	0.12566
-0.20832	-0.33348
-0.99887	0.40625
0.17421	-0.41000
0.93925	-0.58856
0.32721	0.07465
0.73524	1.06945
0.76074	0.66132
-1.04987	0.25320
-1.38139	-0.00188
0.50573	0.38074
1.37278	0.53379
-0.23382	0.07465
-1.84042	-0.43551
1.60230	-0.05289
-1.66191	0.12566
0.02119	1.37554
0.42922	0.25320
-2.22295	-1.07320
3.18340	-1.86394
1.88281	0.25320
1.55129	0.94191
0.86275	0.86539
0.12320	0.78886
0.07220	0.66132
-1.96793	0.02363
-2.01894	-0.23145
0.76074	-0.07840
0.63323	0.55929
0.83725	-0.56305
-0.48884	-0.25695
-0.56534	-0.12942
-0.13181	0.63582
0.53123	0.86539
1.29628	0.63582
-0.69285	0.12566
0.30171	-0.38449
0.78624	-0.15492
0.76074	0.73785
0.27621	-0.28246
0.27621	-0.20594
0.42922	0.10015
0.42922	-0.15492
-1.58541	1.45206
0.32721	-0.43551
0.40372	-0.07840
0.32721	-0.51203
0.48022	0.38074
0.25071	0.58480
0.68424	0.43176
-1.30489	0.17668
-1.07538	0.10015
0.25071	0.45726
-0.38683	-0.05289
1.24527	0.27871
1.24527	0.35523
0.65874	0.17668
1.01576	-0.51203
0.93925	-0.58856
-1.04987	0.38074
-2.22295	0.38074
1.09226	0.78886
-0.48884	-0.25695
-0.71835	-0.56305
1.04126	0.76336
-0.61635	0.12566
1.04126	0.76336
0.27621	0.48277
-1.27939	0.20219
1.14327	-0.18043
2.21434	0.22769
0.09770	0.55929
-1.30489	-1.27726
-0.64185	0.04914
-0.46334	-1.17523
0.76074	0.25320
0.55673	1.06945
0.25071	0.83988
0.12320	0.55929
0.40372	0.38074
0.17421	0.30422
0.02119	0.66132
1.24527	-0.12942
0.50573	0.40625
-2.78398	-0.74160
-1.73842	-0.35899
0.76074	-0.76711
0.40372	-0.46102
1.27078	1.01843
0.81175	0.81437
0.93925	1.01843
0.17421	0.02363
-0.13181	-0.23145
0.19971	-0.56305
0.63323	-0.02739
-0.31033	0.66132
-0.08081	0.61031
-1.20288	0.40625
-1.25389	0.15117
0.40372	-0.23145
1.01576	-0.05289
0.04670	-0.10391
1.42379	0.27871
2.03582	-0.86914
-2.27395	0.43176
-0.48884	-0.15492
0.19971	0.22769
0.04670	0.83988
1.72980	1.01843
0.53123	0.38074
-0.13181	0.25320
1.65330	0.30422
-0.05531	-0.38449
-1.20288	-0.15492
-0.92237	-0.23145
0.50573	0.15117
0.55673	-0.63957
1.09226	0.27871
0.91375	0.71234
0.12320	0.22769
-0.46334	-0.02739
-0.79486	0.55929
0.30171	-0.18043
0.35272	-0.02739
0.63323	-0.66508
-0.13181	0.50828
-0.38683	0.89089
-0.02981	0.71234
0.14870	0.38074
1.75531	0.12566
-0.69285	0.04914
-0.79486	-0.05289
-0.33583	-0.25695
0.32721	-0.28246
1.47479	-0.43551
0.42922	0.40625
-0.38683	0.15117
0.22521	0.40625
0.42922	0.45726
0.91375	0.15117
0.07220	0.43176
0.19971	0.20219
-2.04444	-0.15492
-0.20832	0.30422
1.34728	0.17668
0.32721	0.43176
0.32721	-0.46102
-0.25932	-0.20594
1.34728	-0.66508
0.04670	0.78886
-1.15188	0.27871
1.27078	0.15117
0.35272	0.40625
0.19971	0.38074
0.12320	0.17668
-0.38683	-0.05289
1.09226	-0.48652
-1.86593	0.66132
0.12320	0.25320
1.52579	0.96742
-1.30489	-0.07840
-1.99343	0.22769
1.34728	-0.61406
1.37278	-0.48652
1.11776	1.17148
0.86275	-0.28246
0.37822	0.20219
-0.36133	0.17668
-0.13181	0.15117
0.22521	0.12566
0.14870	-0.12942
0.68424	0.45726
-0.43783	0.50828
-2.47797	0.94191
0.83725	-0.20594
0.73524	0.38074
0.68424	-0.66508
0.78624	-1.04770
0.37822	0.04914
0.30171	0.35523
0.22521	0.68683
-0.00431	0.58480
0.02119	0.38074
-0.05531	0.30422
0.25071	0.15117
-0.20832	-0.56305
-0.38683	0.15117
0.78624	-0.05289
0.27621	0.30422
-0.10631	0.15117
0.63323	0.61031
-1.35589	-0.15492
-0.25932	0.35523
-0.05531	-0.97117
0.81175	0.66132
0.65874	0.61031
0.22521	-0.46102
1.34728	-0.28246
0.65874	0.25320
-0.74385	0.35523
-0.89686	0.43176
0.93925	0.61031
0.58223	0.96742
-1.48340	-0.15492
0.58223	-0.07840
0.73524	-0.35899
-0.51434	-0.23145
-1.61091	0.20219
0.19971	0.58480
0.58223	0.04914
0.22521	-0.05289
0.78624	0.12566
1.39828	0.96742
0.42922	0.55929
-0.25932	0.04914
-0.28482	-0.66508
-1.02437	-0.38449
-0.43783	0.20219
0.65874	0.48277
1.34728	0.27871
-1.40690	-0.12942
0.73524	0.53379
0.73524	-0.38449
0.17421	0.15117
0.53123	-0.43551
0.27621	0.10015
-0.08081	1.37554
-1.02437	0.78886
1.67880	0.07465
0.37822	-0.58856
-1.48340	-0.94566
-0.33583	0.22769
-0.08081	0.83988
0.73524	0.48277
-0.51434	0.45726
-0.66735	-0.35899
1.55129	-0.35899
0.65874	0.22769
1.88281	1.01843
0.30171	0.20219
-1.27939	-0.00188
-0.15732	-0.02739
0.60773	-0.56305
-0.18282	0.20219
1.04126	-0.20594
-0.33583	0.76336
-1.33039	0.61031
-0.25932	0.22769
1.55129	-0.30797
1.32178	-0.20594
-1.17738	-0.46102
-0.25932	0.43176
-0.53984	0.63582
1.34728	0.50828
1.21977	0.50828
0.81175	1.09496
0.02119	-0.18043
-0.43783	0.35523
1.04126	-0.05289
0.07220	-0.89465
-0.61635	-1.17523
0.07220	0.04914
-0.92237	0.55929
2.41835	0.91640
-4.18658	0.50828
-3.09000	0.48277
3.43841	0.35523
0.70974	0.07465
0.55673	0.48277
1.72980	-0.12942
0.40372	-0.00188
0.88825	-0.66508
0.30171	0.32972
0.68424	0.10015
0.37822	0.32972
-3.44703	-0.41000
0.14870	-0.12942
1.78081	-0.23145
-0.38683	-0.07840
0.81175	1.29902
-0.92237	0.71234
-3.03900	0.40625
2.82638	0.63582
1.19427	-0.46102
-0.18282	0.10015
1.44929	0.22769
0.93925	0.07465
-2.01894	0.25320
-0.28482	-0.02739
0.93925	0.04914
0.27621	-0.10391
0.88825	-0.15492
-0.33583	0.30422
0.02119	-0.10391
0.65874	-0.38449
0.12320	-0.25695
0.02119	0.66132
0.58223	0.89089
-1.48340	1.17148
-0.48884	-0.18043
0.27621	-0.07840
0.42922	-0.25695
1.24527	-0.71609
0.70974	0.35523
1.24527	0.27871
-0.28482	0.32972
-0.59084	0.17668
0.40372	0.10015
0.07220	0.20219
0.07220	-0.05289
-1.73842	0.15117
0.19971	1.14597
0.93925	-0.51203
2.18883	-1.07320
0.78624	-0.71609
-0.89686	0.12566
0.37822	0.55929
0.07220	0.96742
1.11776	0.91640
-0.13181	0.83988
-1.15188	-0.05289
-1.35589	0.22769
0.42922	-0.76711
0.60773	-0.33348
-1.04987	-0.15492
1.19427	0.48277
0.93925	0.68683
0.73524	0.40625
-0.94787	-0.15492
0.78624	0.02363
0.48022	0.12566
-0.94787	0.43176
-0.15732	-0.38449
2.13783	-0.20594
-0.74385	0.04914
-1.53441	0.20219
1.80631	0.50828
1.01576	0.76336
-1.07538	0.66132
-0.02981	0.02363
0.42922	0.17668
0.37822	-0.97117
0.93925	-0.25695
0.88825	0.66132
-0.97337	0.53379
-0.53984	0.83988
-0.18282	-0.28246
0.19971	-0.58856
0.37822	-0.33348
-0.02981	0.63582
0.04670	0.55929
1.06676	0.32972
-0.59084	0.22769
-0.36133	-0.00188
1.62780	0.35523
0.86275	-0.46102
-0.46334	-0.35899
0.04670	0.12566
-0.31033	0.40625
-1.20288	0.96742
0.60773	0.55929
0.50573	0.07465
-0.28482	-0.76711
0.42922	-1.78742
0.60773	0.15117
0.70974	0.91640
0.40372	1.14597
0.32721	1.06945
1.65330	0.53379
-1.17738	0.22769
-1.30489	-0.10391
-2.14644	-0.25695
0.63323	0.78886
1.90832	0.35523
1.75531	-0.07840
-0.48884	-0.76711
0.58223	-0.48652
2.52035	-0.15492
-1.40690	0.15117
-3.54903	0.10015
0.99026	0.32972
1.01576	0.25320
0.53123	0.07465
0.73524	-0.25695
0.53123	-0.18043
-0.48884	0.10015
1.47479	1.14597
-0.05531	0.58480
-0.18282	1.32453
-0.89686	-0.00188
-1.33039	0.63582
0.04670	-1.02219
1.34728	-0.00188
0.53123	0.81437
0.48022	0.17668
0.19971	-0.05289
-0.13181	-0.35899
0.42922	-0.51203
0.45472	0.25320
0.63323	0.38074
0.99026	-0.02739
0.45472	-0.00188
-2.55447	-0.33348
-0.82036	-0.30797
0.35272	0.68683
-0.15732	0.58480
1.52579	-0.00188
0.88825	-0.15492
0.55673	1.09496
0.48022	0.63582
0.42922	0.55929
0.37822	-0.05289
1.04126	0.10015
-0.15732	0.48277
-2.06994	-0.00188
-0.69285	-0.10391
-0.71835	-0.18043
0.30171	-0.15492
1.50029	-0.10391
0.35272	-0.15492
1.57679	-0.28246
0.30171	0.68683
-0.02981	0.91640
0.45472	0.27871
-1.76392	0.17668
1.37278	-0.20594
-0.61635	0.02363
-0.74385	0.35523
1.62780	0.48277
0.12320	0.25320
-1.94243	0.22769
-0.59084	0.50828
2.31634	-0.92016
0.99026	-0.41000
-1.40690	0.53379
0.68424	0.53379
1.11776	0.40625
0.96476	0.58480
0.50573	0.10015
0.78624	-0.33348
-0.48884	-1.14973
-0.53984	-0.35899
-2.14644	0.17668
0.22521	1.09496
0.02119	-0.18043
0.63323	0.55929
0.37822	0.94191
0.68424	0.40625
-0.13181	0.25320
0.04670	-0.23145
0.48022	-0.18043
0.50573	0.15117
-0.08081	0.35523
0.40372	-0.05289
1.29628	0.07465
-0.41233	0.25320
-2.63097	-1.07320
0.32721	-0.15492
0.30171	0.40625
0.35272	0.61031
0.32721	-0.02739
0.96476	0.68683
2.72437	0.89089
-0.41233	-0.10391
-2.55447	-0.46102
0.99026	-0.23145
-2.35046	0.22769
-0.59084	0.48277
1.75531	0.45726
-0.02981	0.17668
0.27621	0.30422
1.27078	-0.23145
1.42379	-0.18043
-1.40690	-0.07840
0.17421	0.20219
0.63323	0.71234
0.35272	1.01843
-0.31033	-0.28246
-0.53984	0.50828
-0.20832	-0.10391
0.17421	-0.30797
-0.76936	-0.94566
0.68424	-0.46102
0.55673	1.04394
0.45472	0.76336
0.76074	0.38074
-0.25932	0.30422
-0.18282	0.50828
0.40372	0.20219
0.25071	-0.35899
0.42922	0.02363
0.83725	0.12566
-0.94787	0.20219
-0.28482	-0.76711
1.47479	0.10015
-0.25932	0.53379
-0.89686	-0.28246
-1.91693	0.58480
1.65330	0.78886
1.39828	-0.15492
0.93925	-0.38449
-1.12638	-0.12942
0.53123	0.17668
-0.28482	0.35523
0.96476	0.86539
0.65874	0.45726
-1.45790	0.20219
-0.02981	-0.30797
1.21977	0.30422
0.65874	0.45726
-0.43783	0.02363
-0.53984	-0.43551
0.09770	0.61031
0.96476	0.12566
0.02119	-0.10391
-0.59084	0.12566
-0.05531	-0.61406
-0.02981	0.17668
0.32721	0.71234
0.78624	0.07465
-0.43783	-0.10391
0.93925	-0.35899
-0.31033	-0.02739
0.55673	0.63582
0.37822	0.73785
-0.20832	0.89089
-1.76392	0.45726
-0.46334	-0.00188
1.01576	0.40625
1.11776	-0.28246
0.68424	-0.63957
0.19971	-0.35899
0.91375	0.30422
0.42922	-0.12942
-0.59084	0.61031
-1.30489	0.63582
0.02119	0.07465
0.81175	-0.02739
-0.15732	-0.20594
0.55673	0.78886
-0.43783	0.73785
-0.02981	0.02363
1.62780	-0.48652
-0.02981	-0.48652
-1.96793	-0.38449
-0.97337	0.25320
1.47479	0.45726
1.34728	0.50828
0.76074	0.43176
-0.38683	0.55929
-0.36133	0.07465
0.12320	-0.28246
1.21977	-0.38449
0.27621	0.22769
-1.25389	0.55929
0.02119	-0.05289
0.09770	0.30422
0.88825	0.55929
0.17421	0.30422
1.14327	0.30422
-1.20288	0.35523
-1.10088	-0.92016
0.68424	-0.23145
0.37822	0.45726
0.40372	0.10015
0.58223	0.12566
0.22521	0.32972
0.48022	0.22769
0.78624	-0.07840
-2.06994	0.20219
0.32721	0.17668
0.65874	0.15117
-0.28482	0.15117
1.01576	-0.20594
1.21977	0.20219
-1.53441	0.04914
-0.20832	0.02363
0.04670	0.27871
1.09226	0.48277
0.09770	0.76336
-0.28482	0.27871
0.96476	0.07465
0.37822	-0.18043
0.07220	0.78886
1.04126	-0.48652
-0.43783	-0.07840
-2.22295	-0.84363
1.06676	0.55929
-0.74385	0.12566
0.91375	-0.10391
0.73524	0.32972
0.70974	0.30422
0.35272	0.50828
0.09770	0.55929
0.12320	0.40625
-0.10631	-0.07840
0.02119	-0.25695
-0.10631	-0.07840
0.53123	0.07465
-0.59084	0.73785
1.09226	-0.66508
-0.38683	0.32972
-1.99343	-0.48652
0.35272	0.68683
1.04126	0.78886
0.68424	-0.23145
0.60773	0.04914
0.14870	0.45726
0.88825	0.38074
-0.18282	0.20219
-1.27939	-0.25695
1.24527	-0.05289
0.02119	-0.25695
0.27621	0.20219
-1.02437	0.45726
0.37822	0.30422
0.50573	-0.10391
-0.18282	-0.81812
0.14870	-0.43551
1.78081	0.63582
-0.10631	0.86539
-0.84586	0.45726
0.04670	0.73785
0.35272	0.25320
0.35272	0.10015
0.27621	0.15117
0.42922	-0.35899
0.40372	0.25320
-1.22839	-0.12942
-1.22839	0.35523
-0.25932	-0.35899
0.96476	-0.00188
0.73524	0.43176
0.60773	-0.05289
0.30171	0.17668
1.14327	0.35523
0.48022	-0.20594
-1.27939	-0.05289
-1.40690	0.12566
0.19971	0.73785
0.68424	0.25320
0.65874	0.43176
0.50573	0.10015
0.45472	0.22769
0.25071	-0.74160
0.58223	0.61031
0.63323	0.15117
-1.30489	0.58480
-0.56534	-0.35899
0.37822	-0.81812
0.07220	0.53379
2.36734	0.63582
0.99026	0.55929
-3.47253	0.25320
-1.12638	-0.18043
1.57679	0.17668
-0.13181	-0.33348
0.86275	-0.23145
1.44929	0.04914
-0.66735	0.48277
0.78624	0.30422
-0.18282	0.27871
0.14870	0.55929
0.27621	0.32972
0.07220	0.17668
0.07220	0.35523
0.22521	-0.02739
-0.41233	-0.00188
-0.02981	-0.15492
0.17421	-0.02739
-0.18282	-0.46102
1.39828	0.25320
-0.64185	0.20219
-1.48340	0.04914
0.32721	0.17668
0.68424	0.27871
1.47479	0.99292
-0.02981	0.68683
0.42922	-0.28246
1.29628	-0.92016
0.68424	0.78886
-1.17738	-0.15492
-1.84042	-0.07840
1.01576	0.43176
1.39828	0.22769
0.55673	-0.10391
0.25071	0.25320
-0.89686	0.53379
-0.10631	0.48277
0.48022	0.22769
0.50573	-0.00188
0.40372	-0.15492
0.30171	0.04914
-0.18282	0.15117
-0.56534	0.50828
0.81175	0.32972
-1.15188	-0.18043
0.50573	-0.46102
0.04670	-0.97117
-0.38683	-0.07840
0.93925	0.86539
-0.28482	1.01843
0.93925	0.71234
0.58223	0.20219
-0.00431	0.15117
0.32721	-0.02739
1.14327	0.20219
0.93925	0.12566
-2.22295	0.12566
-1.07538	-0.15492
0.40372	-0.10391
0.88825	0.02363
0.65874	0.50828
0.07220	0.15117
0.27621	0.20219
0.35272	0.17668
0.60773	-0.41000
0.50573	-0.23145
-0.28482	0.30422
-0.97337	-0.02739
0.22521	0.38074
0.81175	0.02363
-1.53441	0.53379
0.86275	-0.30797
0.07220	-0.02739
-1.20288	0.48277
0.83725	0.35523
0.68424	0.12566
1.67880	0.32972
0.73524	0.35523
0.17421	-0.25695
-1.30489	0.58480
0.12320	0.81437
0.19971	-0.38449
0.96476	-0.12942
-0.31033	-0.28246
-0.20832	-0.46102
0.02119	0.35523
0.22521	-0.12942
0.07220	0.20219
0.53123	0.27871
-0.48884	0.71234
-0.51434	0.63582
0.09770	0.04914
0.76074	-0.02739
1.06676	0.55929
-0.41233	-0.41000
-0.41233	0.35523
0.37822	-0.10391
0.12320	-0.05289
0.63323	0.25320
1.37278	0.40625
0.58223	0.12566
-2.24845	0.30422
-0.53984	0.25320
0.88825	0.15117
0.35272	-0.46102
-0.15732	0.02363
0.14870	0.30422
0.19971	0.50828
0.68424	0.35523
0.76074	-0.66508
0.63323	0.25320
-0.36133	0.40625
-0.20832	0.15117
0.50573	0.66132
-2.04444	0.45726
-0.08081	0.53379
1.65330	0.25320
-0.08081	-0.61406
0.30171	-0.66508
-0.15732	0.25320
1.34728	0.38074
-0.00431	0.66132
-1.55991	0.12566
0.81175	-0.05289
0.88825	0.07465
0.45472	0.04914
0.14870	0.17668
1.72980	0.02363
-1.55991	-0.02739
-2.04444	0.12566
-0.25932	0.17668
0.53123	0.15117
1.16877	-0.00188
0.25071	0.12566
-0.82036	0.38074
0.99026	0.30422
1.32178	0.07465
-1.71292	-0.05289
-0.51434	0.22769
0.88825	-0.10391
0.17421	0.27871
-0.18282	0.32972
1.39828	0.10015
0.50573	0.15117
0.68424	-0.43551
-0.28482	0.17668
-0.15732	0.32972
0.35272	0.35523
-0.15732	-0.43551
0.35272	0.61031
-0.92237	0.32972
-0.48884	0.53379
1.24527	-0.05289
0.91375	-0.43551
-0.41233	-0.20594
-0.28482	0.76336
-0.33583	1.52859
1.67880	-0.41000
-0.48884	-0.15492
-0.69285	-0.99668
0.91375	-0.97117
-0.71835	-0.10391
0.12320	0.50828
0.58223	0.55929
0.76074	0.68683
1.29628	0.71234
0.27621	0.66132
-1.38139	0.04914
-1.20288	0.53379
0.93925	0.10015
0.53123	0.02363
0.32721	-0.76711
0.40372	-0.28246
0.48022	0.25320
-0.41233	0.25320
-0.18282	0.61031
0.12320	0.07465
0.68424	0.04914
-0.25932	0.15117
-0.48884	0.17668
0.40372	0.38074
0.73524	0.20219
-0.28482	-0.76711
-0.00431	0.04914
-1.15188	-0.05289
0.70974	0.58480
0.96476	0.76336
0.48022	0.40625
0.76074	-0.23145
-0.56534	0.22769
0.27621	0.50828
0.73524	0.43176
0.65874	0.12566
-0.25932	-0.25695
-0.61635	0.15117
-1.12638	0.38074
-0.10631	-0.07840
0.58223	0.17668
0.42922	-0.07840
0.76074	-0.15492
-0.61635	-0.05289
-1.35589	0.25320
3.36191	0.22769
-1.40690	0.32972
-1.40690	0.58480
2.11233	0.15117
-0.99887	-0.23145
1.78081	-0.46102
0.63323	0.45726
-0.13181	0.45726
0.22521	-0.18043
0.70974	0.43176
0.19971	1.01843
-0.23382	0.40625
-0.10631	-0.30797
-0.33583	-0.20594
-0.59084	-0.10391
0.50573	0.25320
0.83725	0.73785
-0.46334	0.40625
-0.66735	0.12566
-0.28482	-0.23145
-0.36133	-0.23145
1.09226	-0.35899
0.45472	0.30422
0.48022	0.12566
0.50573	0.15117
0.12320	0.30422
0.70974	0.22769
-0.28482	-0.23145
-1.02437	0.53379
0.58223	-0.81812
0.48022	0.61031
1.39828	0.48277
0.48022	0.25320
-1.15188	1.06945
-0.31033	0.45726
-0.18282	0.15117
0.22521	0.04914
0.07220	-0.00188
0.65874	-0.15492
0.04670	-0.30797
0.14870	-0.20594
0.58223	0.10015
0.14870	0.04914
0.14870	0.32972
-0.15732	0.55929
-0.64185	0.25320
0.17421	-0.05289
0.37822	-0.10391
0.40372	-0.25695
0.30171	0.38074
0.40372	0.15117
1.62780	0.15117
-0.66735	0.50828
-1.53441	0.20219
-0.31033	0.45726
0.04670	0.25320
0.40372	0.32972
0.68424	-0.10391
0.68424	0.07465
0.86275	-0.28246
1.50029	0.53379
-0.38683	0.10015
-1.58541	-0.07840
-0.25932	0.17668
0.53123	0.30422
0.27621	0.12566
0.65874	-0.38449
-0.84586	-0.20594
0.14870	0.45726
0.14870	0.78886
0.45472	0.38074
-0.05531	-0.30797
0.25071	-0.53754
0.12320	-0.18043
0.12320	0.45726
0.22521	0.35523
0.32721	0.50828
0.09770	0.55929
0.17421	0.35523
0.07220	0.32972
0.07220	0.22769
0.02119	-0.33348
0.12320	-0.05289
0.02119	-0.38449
0.32721	-0.05289
1.34728	0.12566
-0.69285	0.71234
-1.27939	0.22769
-0.28482	0.32972
0.73524	-0.00188
0.88825	0.55929
0.17421	-0.18043
0.93925	-0.10391
0.81175	0.04914
-0.84586	0.22769
0.14870	0.10015
1.04126	0.22769
-0.94787	0.66132
-2.19745	-0.25695
0.86275	-0.00188
1.04126	-0.20594
0.48022	0.12566
0.48022	0.32972
0.35272	0.20219
0.12320	0.45726
0.12320	0.45726
-0.00431	0.25320
0.07220	0.32972
-0.08081	-0.30797
-0.00431	0.04914
0.22521	-0.23145
0.55673	0.20219
-0.15732	0.58480
-1.04987	0.48277
-0.13181	-0.35899
0.88825	0.32972
0.55673	-0.00188
0.73524	-0.12942
-0.71835	-0.35899
1.47479	-0.48652
0.42922	0.61031
-1.68742	0.68683
-1.07538	0.96742
1.34728	0.71234
1.42379	0.40625
0.73524	-0.69059
-0.87136	-0.74160
-0.18282	-0.71609
0.30171	0.45726
0.35272	0.71234
1.95932	0.71234
-0.48884	0.91640
-2.04444	-0.07840
0.58223	-0.38449
-0.15732	-0.81812
0.83725	0.15117
0.58223	0.35523
-0.28482	0.25320
0.50573	0.35523
0.35272	0.38074
0.91375	-0.05289
0.48022	0.38074
0.93925	-0.30797
-1.50890	-0.07840
-0.38683	0.58480
-0.18282	-0.18043
0.40372	0.10015
0.17421	0.55929
0.81175	0.58480
0.42922	-0.05289
-0.18282	-0.76711
0.19971	-0.53754
0.76074	0.30422
1.65330	0.27871
-2.14644	0.66132
-0.89686	0.68683
1.93382	0.66132
-0.46334	1.06945
-0.18282	-0.92016
0.07220	0.07465
-0.13181	0.04914
0.55673	-0.00188
0.53123	0.07465
1.14327	0.15117
0.37822	0.02363
-0.76936	0.45726
-0.28482	0.73785
0.48022	-0.23145
-0.36133	-0.02739
0.02119	-0.30797
0.63323	-0.89465
0.37822	0.27871
0.30171	0.61031
-0.23382	0.63582
0.04670	1.22250
-0.38683	0.15117
0.96476	-0.07840
-1.53441	-0.41000
0.27621	-0.46102
1.29628	0.43176
1.44929	0.61031
-0.89686	0.32972
0.48022	0.48277
0.22521	-0.05289
0.07220	-0.18043
0.09770	-0.35899
0.02119	-0.15492
-0.31033	0.35523
0.76074	0.55929
0.48022	0.15117
-0.10631	-0.02739
0.27621	0.12566
0.12320	0.20219
1.11776	0.30422
-0.94787	-0.28246
-1.55991	-0.00188
0.73524	0.30422
0.60773	0.66132
0.42922	0.63582
0.88825	-0.18043
-0.53984	0.02363
-0.31033	-0.02739
0.83725	-0.12942
-0.23382	-0.15492
-1.12638	0.30422
1.06676	0.30422
1.24527	0.43176
0.42922	0.35523
-0.33583	0.43176
-0.51434	-0.10391
-0.08081	0.10015
0.27621	0.30422
0.32721	0.10015
0.53123	-0.43551
0.35272	-0.05289
0.76074	0.10015
0.32721	-0.25695
-1.58541	0.63582
0.02119	0.10015
0.70974	0.20219
0.58223	0.48277
-0.94787	0.35523
-0.87136	0.15117
0.58223	0.17668
0.53123	0.20219
0.70974	-0.02739
0.70974	0.15117
0.12320	0.10015
0.53123	0.10015
0.81175	0.04914
-0.76936	-0.05289
-1.22839	0.10015
-1.15188	0.15117
0.73524	0.22769
0.55673	0.12566
1.14327	0.27871
0.17421	0.10015
-0.51434	0.10015
0.27621	0.50828
0.09770	0.43176
0.81175	0.30422
0.65874	0.61031
-1.84042	-0.48652
-0.33583	-0.15492
0.55673	-0.38449
0.48022	-0.61406
0.60773	0.96742
0.53123	0.99292
0.42922	0.38074
-0.51434	0.27871
0.12320	-0.20594
0.30171	0.15117
0.45472	-0.41000
-1.55991	-0.15492
0.81175	0.61031
0.93925	0.20219
0.27621	0.27871
-0.02981	0.25320
0.27621	-0.05289
0.25071	0.17668
0.42922	0.45726
0.04670	0.02363
-0.10631	0.04914
-0.05531	-0.18043
1.04126	0.50828
1.04126	-0.02739
-2.65648	0.27871
-0.33583	-0.10391
1.39828	0.07465
-0.05531	-0.46102
0.73524	0.38074
0.76074	0.40625
1.88281	0.68683
-1.50890	0.58480
-1.50890	0.20219
0.73524	-0.25695
0.55673	-0.07840
0.53123	0.30422
0.37822	-0.07840
0.07220	0.15117
-0.15732	-0.12942
0.17421	0.10015
0.27621	0.45726
-0.97337	0.10015
1.14327	0.45726
-0.05531	0.35523
0.14870	0.40625
0.04670	-0.07840
0.53123	0.30422
0.35272	-0.48652
-2.93700	-0.63957
0.35272	-0.33348
0.55673	0.04914
1.27078	0.81437
0.96476	0.86539
0.42922	0.89089
0.50573	0.55929
0.48022	0.12566
0.04670	-0.25695
0.35272	-0.51203
0.25071	-0.05289
-1.38139	0.07465
-0.59084	-0.07840
-0.25932	0.43176
0.25071	-0.46102
0.42922	-0.35899
0.48022	0.66132
0.65874	0.71234
0.70974	0.35523
1.16877	0.53379
-0.28482	-0.05289
-0.64185	-0.28246
-0.05531	0.02363
-0.02981	0.25320
0.27621	0.12566
1.57679	0.35523
0.30171	0.25320
-2.45246	-0.00188
0.42922	0.20219
0.81175	-0.10391
-0.82036	0.15117
1.93382	-0.10391
-0.23382	0.04914
0.17421	0.04914
0.60773	0.20219
0.37822	0.02363
0.22521	0.15117
0.02119	0.48277
0.53123	0.94191
-0.02981	0.15117
-0.23382	-0.18043
0.14870	-0.28246
0.09770	-0.00188
-1.15188	0.83988
0.17421	0.61031
0.76074	0.15117
-0.05531	-1.20074
-0.74385	-0.53754
-0.20832	0.55929
0.81175	0.83988
0.68424	0.40625
0.17421	-0.23145
0.42922	0.68683
1.16877	0.17668
-0.18282	0.22769
-1.53441	0.02363
0.48022	-0.51203
1.14327	0.38074
0.50573	0.53379
-0.36133	0.71234
1.04126	0.15117
0.78624	-0.23145
-0.79486	-0.28246
-1.10088	-0.30797
0.19971	-0.05289
0.53123	0.20219
0.73524	0.55929
-0.18282	0.22769
0.22521	0.61031
-0.64185	0.27871
0.68424	0.48277
0.58223	0.07465
0.42922	0.12566
-0.51434	0.07465
0.53123	-0.00188
-0.84586	0.10015
0.09770	-0.07840
0.50573	-0.53754
1.29628	0.45726
1.72980	0.25320
-2.52897	0.12566
-0.18282	-0.33348
0.55673	0.53379
0.12320	0.38074
0.42922	0.32972
0.42922	0.53379
0.22521	0.40625
0.19971	0.43176
0.04670	0.15117
0.25071	-0.12942
-0.23382	-0.07840
0.12320	-0.84363
0.09770	0.02363
-0.43783	0.22769
0.19971	0.43176
0.37822	0.12566
0.22521	0.76336
0.30171	0.10015
0.88825	0.17668
-0.61635	0.10015
-0.43783	0.55929
-0.28482	-0.20594
0.50573	-0.18043
1.21977	-0.30797
0.22521	0.32972
0.65874	0.30422
-0.31033	0.27871
-1.15188	0.02363
0.25071	0.53379
0.93925	0.04914
-0.48884	-0.51203
0.50573	0.20219
0.30171	0.15117
0.02119	0.66132
-0.28482	0.32972
0.04670	0.15117
0.96476	0.02363
0.70974	0.02363
-0.89686	0.07465
-1.30489	0.10015
-0.00431	0.07465
1.04126	0.22769
1.32178	0.04914
0.73524	0.15117
-0.33583	0.30422
-0.46334	0.04914
0.19971	-0.02739
0.12320	-0.02739
0.88825	0.35523
0.04670	-0.02739
0.30171	0.30422
-0.18282	-0.10391
-0.41233	-0.25695
-1.38139	0.48277
1.16877	0.61031
-0.15732	0.53379
0.25071	0.27871
1.11776	0.55929
0.68424	0.27871
-0.53984	-0.66508
0.50573	0.27871
0.32721	-1.76191
0.93925	0.15117
-0.08081	1.04394
-1.35589	0.48277
0.25071	0.30422
0.83725	0.12566
-0.82036	0.61031
0.22521	0.02363
1.04126	0.12566
0.73524	-0.58856
-0.02981	-0.25695
-0.69285	0.07465
0.40372	0.50828
0.45472	0.25320
0.60773	0.40625
-0.08081	0.50828
-0.38683	0.61031
0.25071	-0.38449
0.02119	-0.12942
-0.31033	-0.00188
0.19971	0.04914
0.07220	0.10015
0.60773	0.07465
0.35272	0.12566
1.14327	0.45726
-0.66735	0.22769
-1.02437	-0.05289
0.93925	-0.05289
-0.05531	0.04914
-1.48340	0.15117
0.32721	0.58480
0.09770	0.32972
0.83725	0.32972
0.88825	0.04914
0.88825	-0.10391
1.52579	0.20219
-1.22839	-0.05289
-0.59084	0.40625
-0.33583	-0.38449
0.78624	0.17668
-0.10631	-0.02739
0.04670	0.38074
0.55673	0.40625
-0.76936	0.27871
-0.59084	-0.07840
0.48022	0.15117
0.25071	-0.02739
0.65874	0.17668
0.99026	0.30422
0.50573	0.15117
-0.84586	0.45726
-0.23382	0.22769
0.76074	-0.20594
0.14870	-0.12942
0.04670	-0.18043
0.19971	0.71234
-0.05531	0.07465
0.45472	0.15117
0.35272	0.25320
0.48022	0.38074
0.09770	0.35523
0.42922	-0.02739
0.04670	0.12566
-0.43783	0.15117
-0.46334	0.17668
-0.28482	0.12566
0.42922	0.07465
1.60230	0.10015
0.96476	-0.15492
-1.94243	0.02363
-0.43783	0.35523
1.14327	0.15117
0.42922	-0.35899
-0.18282	0.20219
1.04126	0.83988
0.30171	0.61031
-0.46334	0.35523
0.02119	0.25320
0.35272	0.22769
0.63323	-0.33348
-0.33583	-0.43551
-0.02981	-0.23145
0.53123	0.53379
-0.08081	0.10015
-0.84586	0.30422
0.42922	-0.10391
0.48022	0.61031
0.35272	0.38074
0.35272	0.40625
-0.10631	0.02363
0.09770	0.17668
0.04670	-0.20594
0.19971	0.04914
0.12320	0.30422
0.22521	0.30422
0.17421	0.48277
0.09770	0.50828
0.22521	0.22769
0.65874	-1.17523
-0.56534	-0.41000
0.60773	0.89089
-0.08081	-0.28246
-0.43783	0.61031
0.35272	0.17668
0.35272	0.20219
0.25071	0.30422
0.40372	0.50828
0.37822	0.20219
0.99026	-0.02739
0.07220	-0.02739
-1.94243	0.15117
-0.02981	-0.05289
0.42922	0.15117
2.18883	0.10015
0.12320	-0.10391
-1.89143	-0.33348
0.45472	0.27871
0.25071	0.38074
0.63323	0.55929
0.78624	0.22769
0.86275	0.07465
0.50573	0.27871
0.07220	-0.20594
-0.10631	0.07465
-0.43783	0.25320
-0.76936	0.35523
-0.36133	0.55929
0.09770	-0.10391
0.14870	-0.28246
1.16877	-0.18043
0.45472	0.35523
-1.30489	0.27871
-0.38683	0.20219
0.91375	0.32972
0.70974	0.27871
0.27621	0.55929
0.78624	-0.05289
0.35272	-0.18043
-0.08081	0.10015
0.17421	0.25320
-0.38683	-0.15492
0.42922	0.10015
1.04126	0.43176
-1.07538	0.25320
-0.36133	-0.25695
1.21977	-0.20594
0.93925	-0.23145
-1.58541	0.68683
-0.08081	0.71234
0.55673	0.04914
-0.43783	-0.20594
0.99026	-0.00188
0.50573	0.53379
0.37822	0.10015
-0.15732	0.10015
-0.05531	0.30422
-0.08081	0.22769
0.58223	0.48277
1.72980	0.17668
-0.69285	0.25320
-0.87136	-0.05289
-0.38683	-0.10391
-0.00431	0.15117
0.45472	-0.20594
1.06676	-0.05289
0.78624	-0.38449
-0.71835	0.35523
0.78624	0.63582
-1.40690	0.66132
-0.61635	-0.10391
0.63323	0.02363
0.65874	-0.18043
0.55673	-0.05289
0.42922	0.22769
0.40372	0.30422
-0.25932	0.15117
-0.02981	0.45726
0.12320	0.81437
0.14870	0.10015
0.22521	0.30422
-0.02981	-0.86914
0.27621	0.07465
-0.08081	0.22769
-0.18282	0.02363
0.02119	0.25320
0.07220	0.15117
0.60773	0.38074
0.53123	0.53379
-0.10631	0.53379
-0.51434	0.22769
-0.97337	-0.12942
0.93925	0.02363
1.37278	-0.05289
-0.10631	0.10015
1.19427	-0.15492
-0.66735	0.07465
-1.81492	-0.15492
0.07220	-0.79262
0.42922	0.35523
1.29628	1.06945
1.06676	0.91640
0.17421	0.20219
0.09770	0.20219
0.19971	0.10015
-0.23382	0.35523
-0.89686	-0.15492
-0.08081	-0.35899
0.09770	-0.51203
0.22521	0.25320
0.48022	0.30422
0.07220	0.10015
-0.25932	-0.33348
0.09770	0.38074
0.55673	0.61031
0.27621	0.45726
0.17421	0.35523
0.60773	0.10015
0.32721	-0.10391
0.32721	0.17668
0.12320	0.15117
-1.02437	0.58480
-0.36133	0.20219
0.96476	0.53379
1.37278	-0.30797
-0.74385	-0.48652
-1.55991	-0.81812
0.70974	0.22769
1.16877	0.35523
0.42922	0.35523
-0.20832	0.10015
0.12320	0.61031
0.93925	0.32972
0.53123	0.30422
-1.53441	-0.02739
0.09770	0.15117
0.32721	0.27871
0.32721	0.27871
0.22521	0.30422
0.53123	0.15117
0.14870	-0.20594
0.40372	0.07465
0.32721	0.15117
-0.48884	0.17668
-0.00431	0.02363
-0.05531	0.20219
0.42922	0.15117
-0.48884	0.04914
-0.33583	0.20219
0.50573	0.20219
0.55673	0.71234
0.55673	0.07465
0.60773	-0.35899
-0.18282	-0.38449
0.19971	0.53379
0.32721	0.15117
1.29628	0.30422
0.48022	0.45726
-2.12094	0.78886
-0.79486	-0.05289
0.88825	-0.76711
0.53123	-0.10391
-0.79486	0.40625
0.76074	0.66132
0.48022	0.89089
0.40372	0.35523
0.50573	-0.63957
0.09770	-0.53754
-0.00431	-0.02739
-0.08081	0.43176
0.14870	-0.05289
-0.13181	-0.00188
0.07220	0.25320
0.17421	0.50828
0.17421	0.63582
0.35272	-0.18043
1.32178	-0.53754
-0.87136	0.20219
-0.94787	0.78886
0.32721	0.61031
0.35272	0.27871
1.27078	0.22769
1.34728	0.07465
-2.40146	0.02363
-1.43240	-0.41000
1.19427	0.07465
0.48022	0.10015
1.11776	0.27871
0.81175	-0.05289
0.60773	0.15117
0.65874	0.38074
-0.18282	0.43176
-0.48884	0.15117
-0.02981	-0.00188
-0.15732	-0.58856
0.25071	0.35523
-0.31033	0.02363
-0.51434	-0.71609
-0.00431	0.58480
0.32721	0.86539
-0.25932	0.73785
0.45472	0.53379
1.72980	0.22769
-1.04987	-0.05289
-1.35589	-0.15492
1.55129	-0.12942
0.83725	0.22769
0.09770	-0.10391
0.09770	-0.23145
0.42922	0.22769
0.60773	0.10015
-0.10631	0.17668
-0.25932	0.43176
0.12320	0.15117
0.07220	0.27871
0.14870	0.38074
-0.41233	-0.25695
0.32721	-0.51203
0.60773	0.07465
0.27621	0.38074
-0.02981	0.53379
0.22521	0.61031
0.02119	-0.00188
0.12320	0.12566
0.07220	0.32972
0.45472	0.61031
0.63323	0.25320
-0.02981	-0.48652
0.37822	-0.15492
0.09770	-0.28246
-0.64185	0.27871
-0.69285	0.12566
-0.18282	-0.10391
0.14870	0.32972
1.14327	0.40625
0.99026	0.53379
0.70974	0.20219
0.42922	-0.02739
-0.38683	-0.51203
-0.18282	0.30422
1.14327	0.73785
-0.20832	0.63582
-1.45790	-0.05289
0.32721	-0.66508
0.53123	0.04914
0.17421	0.32972
0.12320	0.45726
0.12320	0.07465
-0.48884	0.45726
0.37822	-0.10391
0.19971	0.20219
0.37822	0.32972
0.78624	-0.12942
0.07220	-0.25695
-0.00431	-0.15492
0.19971	0.25320
-0.28482	0.38074
-0.08081	0.55929
0.78624	0.17668
0.25071	0.07465
-0.46334	0.15117
1.29628	0.48277
-0.10631	0.35523
-2.01894	0.17668
0.96476	-0.38449
0.83725	0.50828
0.73524	0.32972
0.48022	0.38074
-0.02981	0.15117
-0.38683	-0.28246
0.14870	-0.76711
-1.84042	-0.74160
0.58223	0.25320
0.65874	0.55929
0.96476	0.76336
0.91375	0.86539
-0.41233	0.45726
0.32721	-0.00188
0.78624	0.15117
0.27621	0.15117
-1.25389	-0.35899
0.09770	-0.00188
0.19971	-0.05289
0.17421	0.27871
1.06676	0.15117
0.37822	0.15117
-0.99887	0.22769
0.14870	0.30422
0.37822	0.07465
0.30171	0.35523
0.30171	0.07465
0.73524	0.02363
-0.64185	-0.18043
0.17421	0.25320
0.35272	0.66132
0.17421	0.02363
0.37822	0.20219
0.12320	-0.33348
0.27621	-0.15492
0.09770	0.40625
0.19971	0.86539
0.04670	0.45726
0.12320	-0.63957
-0.18282	-0.05289
-0.15732	0.20219
0.40372	0.48277
0.45472	0.45726
0.07220	-0.61406
1.14327	0.89089
-0.53984	-1.07320
-0.51434	-0.25695
-0.20832	0.53379
-1.61091	0.43176
1.24527	0.55929
0.86275	0.73785
1.21977	0.58480
1.42379	-0.10391
-0.71835	-0.28246
-1.10088	-0.05289
0.22521	0.12566
0.12320	-0.07840
-0.18282	0.04914
0.42922	0.02363
1.14327	0.12566
0.83725	0.32972
-1.48340	0.45726
-0.38683	-0.20594
0.42922	-0.00188
0.70974	0.20219
-0.13181	0.35523
0.19971	0.27871
-0.15732	0.50828
0.42922	-0.07840
0.76074	0.61031
-0.64185	-0.33348
-0.20832	-0.00188
0.25071	-0.10391
0.65874	0.22769
0.81175	-0.07840
0.17421	0.63582
-0.89686	-0.12942
0.07220	0.43176
0.12320	-0.35899
0.12320	0.40625
0.27621	0.50828
0.02119	0.43176
0.42922	0.58480
0.60773	-0.30797
-0.05531	0.35523
-0.48884	-0.38449
0.53123	-0.43551
0.88825	-1.09871
-1.35589	0.20219
-0.25932	0.94191
0.40372	0.61031
0.99026	0.38074
1.09226	0.25320
0.19971	0.10015
-0.79486	0.17668
-0.08081	-0.15492
0.37822	0.27871
0.53123	-0.18043
0.12320	0.17668
-0.02981	-0.12942
-0.25932	0.66132
0.86275	0.55929
-0.08081	0.17668
0.70974	0.07465
-0.33583	-0.10391
-1.40690	-0.10391
0.17421	-0.00188
1.24527	0.38074
1.34728	0.25320
0.04670	-0.02739
-0.59084	-0.15492
0.12320	-0.02739
0.14870	0.43176
0.50573	0.55929
0.22521	-0.10391
-0.02981	0.12566
0.04670	0.35523
-0.02981	0.38074
-0.15732	0.50828
0.12320	-0.10391
0.27621	0.45726
0.58223	-0.15492
0.42922	0.17668
0.09770	-0.58856
-1.40690	-0.79262
-0.18282	0.04914
1.72980	0.91640
0.14870	0.45726
-1.04987	0.15117
0.40372	-0.05289
0.83725	0.61031
0.32721	0.48277
-0.36133	0.30422
0.32721	-0.25695
1.06676	-0.76711
-0.33583	0.25320
-0.13181	0.50828
0.32721	0.30422
0.70974	-0.20594
-1.45790	0.35523
0.14870	0.43176
-0.23382	0.25320
1.01576	-0.33348
1.16877	-0.10391
-0.28482	0.27871
-0.20832	0.35523
0.37822	-0.07840
0.12320	-0.20594
0.14870	-0.23145
0.30171	0.20219
-0.13181	0.50828
-0.23382	0.63582
0.27621	0.38074
0.48022	0.25320
-0.97337	-0.00188
-1.61091	0.25320
0.73524	-0.28246
1.11776	-0.15492
0.83725	-0.05289
1.09226	-0.07840
0.07220	0.48277
0.32721	0.40625
0.27621	1.06945
-0.53984	-0.20594
-0.10631	-0.10391
0.17421	-0.18043
0.02119	0.22769
-0.25932	0.38074
0.07220	-0.07840
0.32721	-0.18043
0.40372	0.15117
0.60773	0.17668
0.09770	-0.33348
-0.61635	0.63582
-0.28482	0.55929
-0.31033	0.38074
1.32178	-0.23145
0.93925	0.04914
-2.40146	0.15117
0.04670	0.66132
0.63323	-0.00188
1.90832	0.02363
-0.31033	0.15117
-0.10631	-0.10391
1.42379	0.20219
0.53123	-0.30797
-1.48340	0.04914
0.32721	0.61031
-0.15732	-0.15492
-0.02981	0.10015
0.30171	0.30422
0.04670	0.27871
0.88825	0.20219
0.12320	0.12566
-0.74385	0.35523
-0.38683	-0.07840
-0.08081	0.30422
0.35272	0.04914
0.91375	-0.15492
0.50573	0.35523
-0.23382	-0.15492
0.45472	0.25320
0.45472	-0.10391
-0.28482	0.27871
-0.20832	0.10015
0.09770	0.12566
0.40372	0.58480
0.68424	0.30422
0.32721	0.10015
-0.20832	0.43176
-0.08081	0.20219
0.02119	0.83988
0.86275	0.12566
0.88825	-0.51203
-0.66735	-0.20594
0.22521	-1.32828
0.37822	0.32972
0.91375	0.22769
-0.46334	0.68683
-0.66735	0.73785
0.14870	0.81437
0.35272	-0.05289
0.40372	-0.66508
0.68424	-0.35899
-0.41233	-0.15492
-0.15732	0.99292
0.07220	0.61031
0.45472	0.53379
1.01576	-0.02739
-0.08081	-0.18043
-0.99887	0.12566
0.68424	0.15117
0.93925	0.10015
-0.53984	0.02363
-1.10088	-0.02739
0.55673	0.04914
0.60773	0.15117
0.60773	0.22769
1.04126	0.02363
1.29628	0.12566
-0.46334	0.15117
-0.84586	0.40625
0.45472	0.12566
-0.31033	0.04914
-0.56534	0.40625
0.65874	0.07465
-0.20832	0.38074
-0.84586	-0.33348
0.58223	0.22769
-0.00431	-0.07840
0.37822	0.07465
0.99026	-0.10391
0.35272	0.15117
0.02119	0.27871
0.22521	0.43176
0.27621	0.96742
0.12320	0.35523
0.12320	0.17668
-0.31033	-0.25695
0.17421	-0.28246
0.25071	-0.41000
-0.18282	0.50828
0.12320	-0.28246
0.14870	-0.00188
0.37822	-0.05289
0.25071	0.27871
0.14870	0.25320
0.60773	-0.15492
0.14870	-0.30797
-0.28482	0.02363
-1.45790	0.50828
-0.18282	0.89089
1.70430	1.01843
-0.15732	0.40625
0.35272	0.20219
0.27621	-0.00188
1.21977	0.02363
0.17421	-0.02739
-0.23382	-0.38449
-0.64185	-0.23145
0.40372	0.07465
0.83725	0.27871
0.12320	-0.07840
-0.02981	0.22769
0.14870	0.20219
-0.08081	0.02363
-0.05531	0.61031
0.02119	0.53379
0.07220	0.07465
0.22521	0.55929
0.19971	-0.12942
-0.36133	-0.30797
0.65874	-0.79262
0.22521	-0.30797
-0.28482	0.89089
0.32721	1.09496
0.32721	0.40625
0.63323	0.22769
0.63323	0.10015
0.60773	0.17668
-0.28482	0.04914
-0.92237	-0.00188
0.12320	-0.35899
0.30171	0.02363
0.35272	0.45726
-0.02981	-0.28246
1.06676	0.38074
-0.23382	-0.46102
-0.23382	0.61031
0.48022	-0.51203
-0.41233	0.43176
-0.05531	-0.07840
-0.08081	0.71234
0.81175	0.78886
0.09770	0.68683
0.14870	0.35523
0.35272	0.30422
0.63323	-0.18043
1.01576	-0.38449
-1.40690	-0.02739
-0.08081	-0.35899
0.27621	0.10015
0.17421	-0.20594
0.93925	0.38074
0.55673	0.63582
-0.66735	0.68683
0.12320	-0.10391
0.42922	-0.25695
0.63323	0.27871
-0.02981	-0.02739
-0.48884	0.45726
-0.79486	0.02363
0.68424	0.30422
0.76074	0.27871
-0.28482	0.10015
0.12320	0.07465
0.78624	0.17668
0.22521	0.17668
-0.43783	-0.02739
0.32721	0.02363
0.12320	0.35523
0.12320	0.07465
-0.46334	0.25320
-0.13181	-0.10391
0.27621	0.07465
0.78624	0.48277
0.88825	-0.99668
-0.92237	0.15117
-0.53984	0.81437
0.25071	0.38074
0.37822	0.53379
0.63323	0.07465
0.37822	0.63582
0.42922	0.32972
0.32721	0.35523
0.40372	-1.07320
-0.43783	-0.46102
-0.15732	-0.28246
0.12320	0.22769
0.86275	0.99292
-1.10088	0.86539
-0.87136	0.25320
1.29628	0.22769
0.73524	0.12566
0.63323	-0.53754
-0.38683	0.10015
-0.25932	0.30422
0.76074	-0.10391
0.65874	0.10015
-1.27939	-0.05289
-0.97337	0.43176
1.14327	0.38074
1.47479	0.22769
1.24527	-0.05289
-0.38683	0.30422
-1.78942	-0.33348
0.19971	0.40625
0.70974	0.15117
1.42379	0.27871
-0.53984	0.10015
-0.20832	0.04914
0.70974	-0.18043
0.50573	0.48277
-0.20832	0.43176
0.14870	-0.12942
0.32721	-0.66508
0.12320	0.53379
-0.61635	0.45726
0.37822	0.35523
-0.02981	0.15117
0.14870	0.12566
0.12320	0.04914
-0.33583	0.45726
-0.05531	0.58480
0.25071	0.20219
0.68424	-0.33348
0.17421	-0.94566
0.40372	-0.02739
0.17421	-0.12942
-0.38683	-0.02739
0.09770	0.58480
0.19971	0.81437
0.14870	0.20219
0.25071	0.10015
0.30171	-0.38449
-0.25932	0.43176
0.37822	0.81437
-0.25932	0.15117
-0.18282	-0.23145
0.04670	0.04914
0.83725	0.27871
1.34728	0.35523
0.50573	-0.05289
-0.97337	0.17668
-0.36133	-0.02739
-0.20832	0.35523
-0.51434	-0.05289
0.48022	-0.20594
1.11776	0.10015
1.14327	0.66132
-0.97337	0.20219
-0.15732	0.32972
0.07220	0.30422
-0.02981	0.04914
0.93925	-0.43551
0.58223	-0.58856
-0.69285	0.50828
-0.38683	0.61031
0.37822	0.27871
0.96476	0.71234
-0.38683	0.32972
0.12320	-0.07840
0.30171	0.30422
-0.71835	-0.05289
-0.36133	-0.00188
1.01576	0.02363
-0.00431	-0.10391
