0.07220	0.35523
0.22521	0.43176
0.12320	0.35523
0.14870	0.22769
0.27621	0.38074
0.17421	-0.15492
0.14870	0.15117
0.19971	0.35523
0.07220	-0.25695
0.17421	0.07465
0.19971	0.20219
0.07220	0.12566
0.14870	0.25320
0.14870	0.35523
0.09770	0.04914
0.25071	0.15117
0.14870	0.17668
0.07220	0.07465
0.12320	0.10015
0.17421	-0.12942
0.14870	0.15117
0.07220	-0.12942
0.12320	0.15117
0.25071	0.50828
0.19971	0.50828
0.09770	0.35523
0.14870	-0.10391
0.12320	0.10015
0.07220	0.12566
0.12320	0.58480
0.22521	0.30422
0.12320	-0.25695
0.17421	0.43176
0.19971	-0.56305
0.17421	0.15117
0.09770	0.02363
0.12320	0.27871
0.12320	0.30422
0.14870	0.17668
0.17421	0.25320
0.12320	-0.25695
0.07220	0.22769
0.12320	0.22769
0.19971	0.25320
0.17421	0.35523
0.09770	0.27871
0.17421	0.15117
0.22521	0.10015
0.14870	0.07465
0.02119	-0.10391
0.19971	-0.07840
0.17421	-0.00188
0.09770	0.30422
0.14870	0.20219
0.25071	0.35523
0.17421	0.15117
0.09770	0.12566
0.14870	0.10015
0.22521	0.25320
0.12320	0.15117
0.07220	0.15117
0.09770	0.10015
0.14870	0.17668
0.25071	0.25320
0.22521	0.17668
0.07220	0.04914
0.09770	0.04914
0.14870	0.15117
0.19971	0.07465
0.07220	0.22769
0.14870	0.04914
0.22521	0.22769
0.07220	0.22769
0.12320	0.10015
0.17421	0.45726
0.09770	0.25320
0.14870	0.43176
0.12320	0.25320
0.07220	-0.35899
0.14870	-0.18043
0.19971	0.15117
0.14870	0.25320
0.09770	0.02363
0.14870	0.27871
0.22521	0.55929
0.17421	0.10015
0.09770	0.27871
0.19971	0.15117
0.14870	0.07465
0.09770	-0.10391
0.09770	-0.05289
0.14870	-0.46102
0.22521	0.58480
0.17421	0.48277
0.12320	0.50828
0.17421	-0.02739
0.22521	0.10015
0.07220	0.38074
0.14870	-0.25695
0.17421	0.20219
0.12320	-0.69059
0.09770	0.25320
0.12320	0.53379
0.19971	0.58480
0.17421	0.45726
0.12320	0.17668
0.14870	-0.43551
0.22521	0.17668
0.19971	0.43176
0.14870	-0.25695
0.14870	0.25320
0.12320	0.25320
0.14870	0.27871
0.17421	0.20219
0.19971	0.22769
0.19971	0.22769
0.19971	0.12566
0.22521	0.20219
0.12320	0.04914
0.09770	-0.23145
0.07220	0.04914
0.14870	0.38074
0.14870	0.43176
0.22521	0.04914
0.19971	0.43176
0.17421	0.17668
0.07220	0.12566
0.07220	0.07465
0.12320	-0.25695
0.12320	0.15117
0.17421	0.22769
0.17421	0.27871
0.17421	0.20219
0.07220	0.10015
0.09770	0.20219
0.17421	0.02363
0.12320	0.27871
0.14870	0.04914
0.04670	0.17668
0.17421	-0.00188
0.17421	0.15117
0.19971	0.30422
0.14870	0.30422
0.07220	0.10015
0.14870	0.43176
0.17421	0.12566
0.22521	-0.10391
0.07220	-0.12942
0.14870	-0.15492
0.12320	0.38074
0.09770	0.30422
0.25071	0.20219
0.12320	0.27871
0.17421	0.30422
0.09770	0.15117
0.09770	-0.23145
0.04670	-0.02739
0.04670	0.38074
0.14870	-0.05289
0.12320	0.02363
0.19971	0.53379
0.14870	0.45726
0.14870	-0.02739
0.17421	0.20219
0.17421	0.35523
0.09770	0.20219
0.09770	0.17668
0.07220	-0.41000
0.09770	0.07465
0.12320	0.04914
0.19971	0.12566
0.17421	0.25320
0.17421	0.35523
0.07220	0.27871
0.14870	0.32972
0.19971	0.10015
0.19971	0.04914
0.22521	-0.46102
0.07220	0.40625
0.07220	0.35523
0.12320	0.20219
0.14870	0.04914
0.22521	0.40625
0.19971	-0.66508
0.12320	0.45726
0.07220	0.66132
0.14870	0.50828
0.12320	-0.33348
0.12320	-0.12942
0.12320	0.20219
0.22521	0.20219
0.12320	0.12566
0.14870	0.10015
0.09770	0.30422
0.14870	0.35523
0.22521	0.45726
0.14870	0.12566
0.12320	-0.00188
0.09770	-0.66508
0.02119	-0.00188
0.07220	0.32972
0.12320	0.25320
0.14870	0.73785
0.17421	0.04914
0.17421	0.20219
0.22521	0.02363
0.25071	0.02363
0.19971	0.38074
0.22521	0.25320
0.12320	0.10015
0.12320	0.15117
0.17421	-0.02739
0.09770	0.04914
0.09770	0.20219
0.19971	0.35523
0.14870	-0.05289
0.22521	0.15117
0.14870	0.15117
0.09770	0.17668
0.02119	0.02363
0.14870	0.07465
0.19971	0.25320
0.14870	0.15117
0.19971	0.45726
0.17421	0.40625
0.17421	0.04914
0.14870	0.17668
0.07220	-0.02739
0.09770	0.32972
0.12320	0.20219
0.12320	0.17668
0.25071	-0.10391
0.22521	0.15117
0.19971	0.35523
0.19971	0.25320
0.09770	0.17668
0.12320	-0.35899
0.12320	0.73785
0.14870	-1.22625
0.19971	0.22769
0.12320	0.76336
0.19971	0.53379
0.17421	0.15117
0.07220	0.40625
0.17421	0.17668
0.19971	0.12566
0.25071	-0.07840
0.19971	-0.00188
0.12320	0.10015
0.07220	0.10015
0.12320	0.15117
0.22521	0.25320
0.22521	0.10015
0.19971	0.25320
0.25071	0.15117
0.19971	-0.10391
0.17421	0.55929
0.12320	-0.18043
0.17421	0.27871
0.04670	0.38074
0.04670	0.20219
0.14870	0.22769
0.14870	-0.02739
0.25071	-0.30797
0.27621	0.35523
0.22521	0.22769
0.12320	-0.00188
0.07220	0.07465
0.12320	0.20219
0.07220	0.50828
0.12320	0.81437
0.22521	-0.20594
0.22521	0.10015
0.19971	-0.02739
0.14870	-0.20594
0.12320	0.38074
0.12320	0.48277
0.19971	0.22769
0.22521	0.12566
0.12320	0.04914
0.12320	-0.89465
0.07220	0.02363
0.14870	0.43176
0.14870	0.55929
0.25071	0.38074
0.22521	0.30422
0.19971	-0.30797
0.09770	0.20219
0.12320	0.04914
0.09770	0.10015
0.14870	0.12566
0.17421	0.10015
0.22521	0.50828
0.17421	0.22769
0.07220	0.25320
0.07220	0.12566
0.14870	-0.07840
0.22521	-0.00188
0.12320	0.15117
0.12320	0.22769
0.07220	0.15117
0.07220	0.25320
0.17421	-0.15492
0.17421	0.22769
0.09770	0.32972
0.12320	0.22769
0.17421	0.30422
0.17421	-0.10391
0.14870	0.02363
0.12320	0.15117
0.07220	-0.18043
0.07220	0.20219
0.17421	0.43176
0.22521	0.27871
0.22521	0.53379
0.22521	0.30422
0.14870	0.22769
0.04670	-0.12942
0.17421	0.07465
0.19971	-0.12942
0.14870	0.35523
0.17421	0.02363
0.09770	0.04914
0.12320	0.17668
0.25071	0.45726
0.14870	0.40625
0.09770	0.43176
0.09770	-0.38449
0.09770	0.17668
0.12320	0.32972
0.22521	-0.02739
0.22521	0.66132
0.14870	-0.00188
0.12320	0.04914
0.12320	0.15117
0.09770	0.27871
0.09770	0.22769
0.14870	-0.02739
0.12320	-0.46102
0.19971	0.96742
0.12320	-0.48652
0.07220	0.61031
0.12320	0.35523
0.14870	0.53379
0.17421	-0.07840
0.14870	0.04914
0.12320	-0.00188
0.12320	0.10015
0.14870	-0.05289
0.14870	0.25320
0.19971	0.25320
0.12320	0.25320
0.12320	0.10015
0.09770	0.20219
0.19971	-0.12942
0.17421	0.38074
0.12320	0.12566
0.22521	0.43176
0.09770	0.53379
0.07220	0.22769
0.07220	-1.02219
0.14870	0.15117
0.22521	0.40625
0.17421	0.04914
0.12320	0.45726
0.14870	0.76336
0.22521	0.07465
0.14870	0.12566
0.04670	0.10015
0.09770	0.02363
0.14870	0.20219
0.25071	0.12566
0.12320	0.20219
0.17421	-0.51203
0.07220	0.02363
0.07220	0.35523
0.09770	0.32972
0.14870	0.61031
0.22521	0.22769
0.14870	-0.58856
0.09770	0.04914
0.09770	-0.15492
0.17421	0.48277
0.12320	0.53379
0.17421	0.02363
0.07220	0.30422
0.12320	0.48277
0.12320	0.27871
0.14870	0.07465
0.19971	-0.07840
0.09770	0.10015
0.17421	0.40625
0.25071	-0.25695
0.22521	0.25320
0.17421	-0.02739
0.12320	-0.02739
0.07220	0.27871
0.14870	-0.46102
0.19971	0.76336
0.12320	0.45726
0.14870	0.12566
0.07220	0.15117
0.12320	0.10015
0.17421	0.30422
0.27621	0.15117
0.25071	0.02363
0.17421	-0.02739
0.02119	0.30422
0.12320	0.27871
0.12320	-0.12942
0.22521	0.17668
0.17421	0.20219
0.17421	0.22769
0.07220	0.35523
0.17421	0.32972
0.25071	-0.25695
0.22521	-0.25695
0.12320	0.15117
0.04670	0.38074
0.12320	0.50828
0.17421	0.76336
0.22521	-0.05289
0.22521	0.17668
0.14870	-0.00188
0.19971	-0.05289
0.12320	-0.15492
0.17421	0.22769
0.14870	0.35523
0.07220	-0.00188
0.07220	0.58480
0.12320	-0.66508
0.12320	-0.07840
0.14870	0.32972
0.19971	0.61031
0.27621	0.63582
0.22521	-0.07840
0.14870	0.40625
0.04670	0.20219
0.12320	0.27871
0.12320	-0.23145
0.22521	0.35523
0.14870	0.22769
0.04670	-0.15492
0.12320	-0.05289
0.19971	0.10015
0.14870	0.10015
0.22521	0.27871
0.19971	0.35523
0.12320	0.30422
0.09770	-0.25695
0.09770	0.35523
0.09770	0.12566
0.12320	-0.02739
0.14870	0.30422
0.25071	0.40625
0.25071	-0.10391
0.22521	0.30422
0.09770	0.30422
0.12320	0.32972
0.14870	0.04914
0.09770	0.07465
0.12320	0.76336
0.09770	-0.61406
0.09770	0.12566
0.19971	0.35523
0.12320	0.27871
0.12320	0.25320
0.22521	0.15117
0.12320	0.04914
0.14870	-0.05289
0.12320	-0.10391
0.07220	0.04914
0.14870	0.17668
0.12320	-0.00188
0.22521	0.35523
0.22521	0.48277
0.22521	0.45726
0.12320	0.32972
0.12320	0.25320
0.04670	-0.10391
0.09770	-0.35899
0.19971	0.32972
0.12320	0.53379
0.14870	-0.15492
0.22521	0.27871
0.19971	0.04914
0.12320	-0.12942
0.14870	0.04914
0.22521	0.43176
0.17421	0.50828
0.12320	0.15117
0.07220	-0.38449
0.17421	0.17668
0.22521	0.22769
0.17421	0.04914
0.12320	-0.02739
0.14870	0.55929
0.19971	0.61031
0.17421	-0.35899
0.07220	-0.12942
0.12320	0.17668
0.22521	0.20219
0.12320	-0.18043
0.12320	0.55929
0.25071	-0.71609
0.12320	0.38074
0.14870	0.22769
0.19971	0.55929
0.17421	0.30422
0.04670	0.35523
0.09770	-0.05289
0.14870	0.17668
0.19971	-0.00188
0.14870	-0.02739
0.09770	0.07465
0.22521	0.38074
0.19971	0.20219
0.17421	0.20219
0.14870	-0.00188
0.04670	-0.46102
0.12320	0.10015
0.14870	0.15117
0.17421	0.40625
0.14870	0.43176
0.17421	-0.05289
0.09770	0.17668
0.12320	-0.35899
0.19971	0.43176
0.17421	-0.02739
0.19971	0.32972
0.04670	0.17668
0.04670	0.27871
0.09770	0.43176
0.25071	0.32972
0.17421	-0.00188
0.12320	-0.05289
0.14870	-0.05289
0.22521	0.12566
0.12320	0.17668
0.04670	0.02363
0.09770	0.15117
0.12320	0.43176
0.17421	0.35523
0.22521	0.15117
0.22521	0.83988
0.14870	-1.40480
0.14870	0.50828
0.14870	0.63582
0.22521	-0.18043
0.14870	0.20219
0.07220	-0.33348
0.09770	0.50828
0.14870	0.20219
0.22521	0.81437
0.14870	-0.38449
0.12320	-0.10391
0.04670	0.38074
0.04670	0.27871
0.14870	0.40625
0.12320	-0.25695
0.22521	0.17668
0.22521	-0.18043
0.19971	0.25320
0.17421	-0.25695
0.19971	0.15117
0.09770	1.01843
0.04670	0.66132
0.14870	-0.20594
0.19971	-0.07840
0.12320	-0.00188
0.09770	-0.51203
0.17421	0.02363
0.19971	0.71234
0.12320	-0.12942
0.12320	0.63582
0.22521	-0.69059
0.14870	-0.25695
0.12320	0.73785
0.17421	0.43176
0.12320	0.30422
0.19971	0.12566
0.07220	0.10015
0.09770	0.07465
0.19971	0.04914
0.25071	0.12566
0.17421	-0.00188
0.02119	-0.05289
0.12320	0.20219
0.19971	-0.05289
0.19971	0.07465
0.12320	0.22769
0.09770	0.25320
0.17421	0.43176
0.22521	-0.46102
0.22521	0.50828
0.14870	0.43176
0.09770	-0.00188
0.12320	0.10015
0.14870	0.17668
0.12320	0.48277
0.07220	0.58480
0.14870	0.10015
0.22521	-0.41000
0.22521	0.35523
0.12320	-0.02739
0.09770	0.04914
0.14870	0.15117
0.19971	0.35523
0.12320	0.17668
0.09770	-0.28246
0.07220	0.17668
0.14870	0.15117
0.22521	0.38074
0.19971	0.32972
0.14870	0.04914
0.09770	0.35523
0.17421	-0.00188
0.19971	0.32972
0.04670	0.38074
0.12320	-0.05289
0.19971	-0.07840
0.22521	0.15117
0.17421	0.17668
0.09770	0.35523
0.09770	-0.07840
0.12320	0.32972
0.14870	0.22769
0.19971	0.86539
0.17421	-0.53754
0.14870	0.20219
0.14870	-0.02739
0.17421	0.30422
0.19971	0.10015
0.17421	-0.02739
0.09770	0.07465
0.14870	0.22769
0.22521	0.38074
0.17421	0.07465
0.07220	0.10015
0.07220	0.02363
0.14870	0.32972
0.17421	0.15117
0.25071	0.20219
0.12320	0.25320
0.09770	0.35523
0.14870	0.02363
0.22521	0.45726
0.12320	-0.43551
0.14870	0.15117
0.09770	0.15117
0.14870	0.27871
0.19971	0.45726
0.14870	0.02363
0.12320	0.12566
0.12320	0.04914
0.14870	0.12566
0.22521	0.15117
0.25071	0.22769
0.12320	0.04914
0.02119	0.35523
0.12320	-0.25695
0.25071	0.12566
0.14870	0.76336
0.07220	0.22769
0.12320	-0.48652
0.22521	0.22769
0.17421	0.12566
0.09770	0.43176
0.09770	0.45726
0.17421	0.25320
0.22521	0.12566
0.17421	0.25320
0.09770	-0.05289
0.14870	0.02363
0.14870	-0.41000
0.19971	0.43176
0.12320	0.45726
0.19971	0.73785
0.14870	-0.56305
0.12320	-0.66508
0.12320	0.30422
0.04670	-0.05289
0.27621	0.53379
0.25071	1.35003
0.12320	-0.74160
0.07220	0.35523
0.27621	-0.97117
-0.08081	0.91640
0.27621	2.88050
0.37822	-2.32308
0.14870	-0.43551
-0.08081	-0.89465
0.04670	0.94191
0.04670	0.45726
0.07220	0.94191
0.12320	0.53379
0.14870	0.30422
0.22521	-0.84363
0.25071	0.96742
0.25071	-1.40480
0.22521	1.68163
0.12320	-1.94047
0.17421	0.07465
-0.13181	0.53379
-0.20832	1.01843
0.42922	2.39585
0.37822	-1.86394
0.40372	0.86539
0.30171	-0.63957
-0.23382	2.21730
0.42922	-2.09351
0.48022	0.45726
0.27621	1.01843
-0.20832	-2.06800
-0.28482	0.68683
-0.25932	-0.18043
-0.00431	-0.20594
0.27621	-0.33348
0.17421	2.16628
0.07220	-0.48652
0.27621	1.06945
0.30171	0.35523
0.35272	-0.23145
0.40372	0.50828
0.22521	0.55929
0.14870	-0.28246
0.12320	-0.20594
0.22521	-1.30277
0.19971	-0.61406
0.22521	1.29902
0.02119	0.55929
-0.02981	-0.23145
0.04670	-0.05289
0.17421	0.61031
0.17421	-0.51203
0.14870	0.63582
0.14870	0.32972
0.12320	0.83988
0.12320	-0.86914
0.17421	-0.10391
0.14870	-0.23145
0.12320	0.83988
0.14870	0.20219
0.19971	0.25320
0.12320	-0.05289
0.09770	-0.02739
0.25071	0.73785
0.25071	-0.69059
0.22521	0.53379
-0.08081	1.04394
0.09770	-0.35899
0.27621	-1.58336
0.12320	0.71234
0.09770	0.25320
0.14870	1.50308
0.09770	-0.10391
0.09770	1.27351
0.30171	0.07465
0.27621	0.45726
0.07220	-1.17523
-0.08081	-0.46102
0.19971	-0.63957
0.22521	-0.86914
0.19971	1.27351
0.27621	1.27351
0.12320	0.40625
0.04670	-0.33348
0.04670	0.04914
0.09770	1.75816
0.14870	-0.76711
0.17421	-0.05289
0.14870	-0.28246
0.07220	-0.20594
0.14870	0.61031
0.22521	0.38074
0.22521	-0.38449
0.19971	-0.89465
0.17421	0.25320
-0.13181	1.40105
0.27621	-0.51203
0.17421	0.73785
0.30171	-0.46102
0.12320	-0.61406
0.02119	0.68683
0.07220	0.68683
0.45472	0.50828
0.02119	0.81437
-0.10631	0.58480
0.25071	-0.81812
0.32721	-0.10391
0.14870	0.30422
0.07220	0.25320
0.25071	0.02363
0.27621	0.12566
0.12320	0.68683
0.12320	0.17668
0.12320	0.83988
0.19971	-1.20074
0.12320	0.63582
0.07220	0.20219
0.14870	0.66132
0.22521	-2.19554
0.22521	0.91640
0.14870	0.73785
0.07220	1.17148
0.14870	1.63062
0.22521	0.04914
0.22521	-1.45582
0.09770	-0.25695
0.12320	0.17668
0.17421	0.48277
0.17421	-0.18043
0.09770	0.27871
0.12320	0.30422
0.19971	0.45726
0.17421	-0.15492
0.14870	0.71234
0.30171	0.15117
0.17421	0.17668
0.19971	-0.35899
0.17421	0.40625
0.09770	-1.14973
0.09770	-0.05289
0.14870	-0.00188
0.22521	0.55929
0.14870	0.45726
-0.20832	0.78886
0.25071	0.07465
0.48022	0.20219
0.27621	-1.37929
-0.08081	-0.00188
-0.18282	1.47757
-0.02981	-0.15492
0.14870	0.66132
0.50573	1.37554
0.30171	-0.97117
0.04670	0.91640
0.12320	-1.02219
0.07220	0.86539
-0.00431	-0.61406
0.22521	-0.02739
0.17421	-0.10391
0.19971	-0.15492
0.14870	0.04914
0.32721	0.68683
0.14870	0.30422
0.09770	0.32972
0.12320	-0.86914
0.14870	1.04394
0.07220	0.15117
0.07220	0.55929
0.22521	-0.58856
0.17421	0.43176
0.07220	1.17148
0.09770	-0.94566
0.22521	-0.30797
0.22521	0.96742
0.14870	-0.76711
0.09770	0.55929
0.12320	0.53379
0.25071	0.53379
0.12320	0.40625
0.04670	0.63582
0.32721	-1.68539
0.22521	0.96742
0.12320	0.15117
0.09770	0.07465
0.07220	-0.41000
0.17421	-0.79262
0.17421	0.61031
0.17421	0.04914
0.09770	0.61031
0.07220	0.96742
0.22521	0.15117
0.04670	-0.28246
0.50573	0.07465
0.17421	0.02363
0.19971	0.02363
0.04670	0.78886
0.07220	-0.35899
-0.00431	0.25320
0.09770	-1.27726
0.19971	0.68683
0.09770	0.61031
0.12320	0.53379
0.19971	0.50828
0.19971	0.25320
0.19971	0.17668
0.12320	0.32972
-0.10631	-0.00188
0.17421	0.17668
0.19971	-0.69059
0.25071	0.63582
0.22521	-0.25695
0.12320	-0.05289
0.07220	-0.38449
0.32721	0.40625
0.30171	0.07465
0.09770	0.40625
-0.00431	0.55929
0.02119	-0.69059
0.09770	0.40625
0.14870	0.43176
0.17421	0.86539
0.17421	-0.69059
0.25071	0.50828
0.17421	0.94191
0.07220	-0.97117
0.09770	0.43176
0.19971	0.38074
0.14870	-0.25695
0.14870	-0.81812
0.17421	0.32972
0.12320	-0.07840
0.17421	0.94191
0.19971	0.15117
0.17421	0.32972
0.04670	0.02363
0.07220	0.02363
0.17421	0.58480
0.12320	-0.20594
0.07220	-0.18043
0.12320	0.45726
0.22521	-0.28246
0.09770	0.99292
0.14870	-1.81293
0.14870	0.91640
0.17421	0.76336
0.27621	-0.58856
0.12320	0.94191
0.22521	0.61031
0.17421	0.73785
0.07220	-0.46102
0.17421	0.04914
0.04670	0.43176
-0.08081	0.20219
0.53123	-0.69059
0.63323	0.17668
0.04670	-1.04770
-0.18282	0.71234
0.09770	0.73785
0.12320	0.25320
0.07220	0.17668
0.09770	0.38074
0.25071	-0.74160
0.27621	0.07465
0.07220	0.22769
0.14870	0.40625
0.07220	0.99292
0.22521	-0.76711
0.25071	0.25320
0.19971	-0.10391
0.14870	-0.18043
0.17421	-0.15492
0.17421	-1.17523
-0.00431	1.78367
0.07220	0.55929
0.09770	0.66132
0.19971	-0.99668
0.22521	0.76336
0.17421	0.12566
0.14870	0.07465
0.09770	-0.23145
0.09770	0.32972
0.14870	-0.05289
0.27621	0.35523
0.19971	0.10015
0.07220	-1.02219
0.02119	-0.46102
0.17421	0.91640
0.19971	0.32972
0.14870	0.22769
0.02119	0.27871
0.04670	0.58480
0.19971	0.66132
0.32721	-0.07840
0.09770	-0.10391
0.17421	0.86539
0.09770	-0.05289
0.09770	0.02363
-0.02981	-0.15492
0.27621	0.40625
0.27621	-0.05289
-0.10631	0.07465
0.32721	0.35523
0.35272	0.30422
0.09770	-0.38449
0.04670	1.27351
0.09770	-0.94566
0.09770	0.17668
0.19971	0.35523
0.07220	0.07465
0.04670	-0.00188
0.19971	0.50828
0.32721	0.10015
0.25071	-0.28246
0.02119	0.27871
0.04670	0.25320
0.42922	0.55929
0.19971	0.07465
-0.08081	0.04914
0.02119	-0.35899
0.17421	0.07465
0.25071	-0.51203
0.22521	0.35523
0.19971	0.63582
0.12320	0.30422
0.17421	0.20219
0.04670	0.15117
0.07220	0.86539
0.07220	-0.28246
0.09770	-0.48652
0.09770	-0.00188
0.27621	-0.28246
0.27621	0.73785
0.14870	-0.71609
0.17421	0.81437
0.07220	0.50828
-0.08081	0.43176
0.17421	0.30422
0.30171	0.15117
0.09770	-0.15492
0.17421	0.66132
0.17421	-0.63957
0.19971	0.07465
0.17421	0.20219
0.12320	0.30422
0.04670	0.30422
-0.08081	0.02363
-0.05531	-0.02739
0.09770	0.38074
0.27621	0.22769
0.22521	0.38074
0.14870	-0.25695
0.09770	0.48277
0.25071	-0.12942
0.07220	0.40625
0.14870	0.96742
0.19971	-1.86394
-0.13181	0.27871
0.09770	0.50828
0.32721	0.73785
0.17421	0.78886
0.09770	0.48277
0.07220	-0.00188
0.14870	0.30422
0.09770	-1.20074
0.04670	0.91640
0.12320	-0.12942
0.17421	0.25320
0.22521	0.02363
0.07220	-0.15492
0.25071	0.25320
0.30171	0.12566
-0.02981	0.12566
0.12320	0.99292
0.09770	-1.17523
0.09770	-0.00188
0.17421	0.78886
0.22521	0.25320
0.14870	-0.10391
0.12320	0.86539
0.09770	0.15117
0.17421	-0.05289
0.27621	0.04914
0.19971	0.48277
0.17421	0.17668
0.09770	0.25320
0.04670	-0.12942
0.07220	-0.18043
0.14870	0.53379
0.17421	-0.02739
0.17421	-0.28246
0.19971	0.17668
0.22521	-0.28246
0.17421	0.86539
0.09770	0.07465
0.12320	0.04914
0.09770	0.22769
0.02119	0.45726
0.19971	-0.12942
0.09770	-0.07840
-0.08081	0.35523
0.07220	0.55929
0.22521	0.07465
0.37822	0.12566
0.17421	-0.35899
0.12320	0.58480
-0.02981	0.04914
0.07220	0.48277
0.48022	0.55929
0.14870	-0.20594
0.09770	0.48277
-0.00431	-1.07320
0.04670	0.48277
0.60773	0.58480
0.12320	0.50828
-0.05531	-0.23145
-0.00431	0.07465
0.09770	0.55929
0.22521	0.20219
0.22521	-0.05289
0.09770	-0.00188
0.25071	0.35523
0.25071	0.43176
0.17421	0.04914
0.09770	-0.25695
0.14870	0.30422
0.07220	-1.48133
0.02119	0.66132
0.17421	0.04914
0.09770	0.96742
0.09770	0.83988
0.12320	-0.18043
0.17421	0.12566
0.22521	0.66132
0.19971	-0.89465
0.19971	0.48277
0.04670	0.30422
0.09770	0.32972
0.14870	0.45726
0.19971	-0.51203
0.22521	-0.20594
0.17421	-0.28246
0.14870	0.38074
0.12320	0.50828
-0.02981	0.27871
0.04670	0.15117
0.32721	-0.28246
-0.05531	0.43176
0.17421	0.40625
0.35272	0.35523
0.19971	-0.23145
-0.02981	0.20219
0.04670	0.71234
0.19971	-0.63957
0.02119	-0.41000
0.25071	0.86539
0.14870	0.22769
0.17421	0.38074
0.22521	1.35003
0.07220	-1.88945
0.12320	0.94191
0.19971	0.17668
0.14870	0.27871
-0.00431	0.94191
0.14870	-0.53754
0.12320	0.04914
0.14870	0.20219
0.17421	-0.05289
0.04670	0.10015
0.12320	-0.43551
0.22521	0.40625
0.19971	0.10015
0.12320	0.30422
0.14870	-0.20594
0.22521	0.71234
0.14870	0.53379
0.07220	0.30422
0.07220	0.55929
0.17421	-0.63957
0.14870	0.43176
0.04670	0.04914
0.22521	0.15117
0.37822	-0.10391
0.12320	-1.94047
-0.00431	0.48277
-0.00431	0.96742
0.32721	0.96742
0.35272	0.68683
-0.02981	-0.00188
-0.02981	-0.28246
-0.00431	0.38074
0.27621	0.53379
0.42922	0.43176
0.17421	0.02363
0.19971	-0.46102
-0.10631	-0.41000
0.12320	-0.28246
0.32721	0.04914
0.02119	0.45726
0.09770	0.45726
0.22521	0.45726
0.17421	0.48277
0.17421	-0.20594
0.19971	0.25320
0.27621	-0.18043
0.12320	-0.15492
0.07220	-0.30797
0.04670	0.68683
0.07220	0.78886
0.19971	-0.05289
0.19971	0.55929
0.04670	0.96742
0.19971	0.02363
0.27621	-0.15492
0.09770	-1.55785
0.09770	-0.15492
0.17421	1.01843
0.14870	0.55929
0.17421	0.50828
0.14870	0.35523
0.17421	0.22769
0.22521	0.07465
0.14870	-0.15492
0.09770	-0.12942
0.14870	-0.07840
0.19971	0.30422
0.14870	0.22769
-0.05531	-0.58856
0.17421	0.40625
0.32721	-0.53754
-0.00431	1.01843
0.07220	-0.30797
0.53123	0.55929
0.09770	-0.35899
0.09770	0.07465
0.12320	0.50828
0.09770	0.27871
0.07220	0.45726
0.07220	0.20219
0.17421	-0.20594
0.19971	0.30422
0.22521	0.17668
0.32721	-0.18043
0.02119	-0.00188
0.07220	-0.15492
0.19971	0.12566
0.17421	-0.07840
0.07220	0.43176
0.19971	0.48277
0.12320	-0.66508
0.12320	0.58480
0.14870	-0.05289
0.12320	-0.10391
0.14870	0.96742
0.17421	-0.56305
0.19971	0.78886
0.14870	0.55929
0.12320	-0.15492
0.07220	0.35523
0.17421	-0.46102
0.17421	0.30422
0.14870	0.15117
0.19971	0.43176
0.22521	-0.07840
0.07220	0.43176
0.22521	0.22769
0.42922	0.27871
-0.02981	0.15117
0.07220	0.17668
0.14870	-0.25695
0.14870	0.38074
0.12320	-0.51203
-0.05531	-0.12942
0.27621	0.40625
0.30171	0.12566
-0.02981	0.27871
0.02119	0.86539
0.22521	-0.84363
0.14870	0.55929
0.12320	-0.20594
0.17421	0.68683
0.22521	0.35523
0.17421	0.63582
0.14870	0.43176
0.04670	-0.30797
0.32721	0.02363
0.30171	0.50828
0.07220	-0.43551
0.07220	0.17668
0.07220	0.25320
0.02119	0.17668
0.02119	0.35523
0.14870	-0.46102
0.30171	-1.50683
0.14870	0.17668
0.12320	0.68683
0.07220	1.47757
0.02119	-0.25695
0.27621	0.38074
0.35272	0.53379
0.22521	-0.02739
0.12320	0.25320
0.12320	0.10015
0.19971	0.32972
0.02119	0.40625
0.14870	-0.18043
0.42922	0.89089
0.12320	-1.20074
0.07220	-0.69059
0.04670	0.89089
0.04670	0.78886
0.07220	-0.05289
0.14870	-0.30797
0.14870	-0.35899
-0.08081	0.04914
0.37822	0.02363
0.40372	0.66132
0.09770	0.81437
-0.05531	-0.66508
0.04670	-0.10391
0.12320	0.48277
0.19971	0.43176
0.17421	-0.05289
0.22521	0.17668
0.17421	0.12566
0.14870	0.66132
0.07220	0.07465
0.17421	0.15117
0.14870	-0.43551
0.04670	-0.15492
0.12320	0.32972
0.14870	0.32972
0.14870	0.55929
0.14870	0.22769
0.32721	-1.09871
0.17421	0.27871
0.09770	0.68683
-0.00431	0.02363
0.09770	1.09496
0.12320	0.35523
0.22521	0.35523
0.17421	-0.43551
0.27621	-0.23145
0.22521	0.43176
0.07220	-0.10391
-0.05531	-0.23145
0.17421	0.58480
0.09770	0.40625
0.09770	-0.33348
0.45472	-0.20594
0.19971	-0.25695
0.14870	0.53379
0.12320	1.29902
0.12320	0.15117
0.12320	-0.28246
0.09770	0.27871
0.12320	0.63582
0.12320	-0.76711
-0.05531	0.02363
0.40372	0.30422
0.27621	0.32972
0.14870	0.38074
0.09770	-0.05289
0.07220	-0.10391
0.14870	-0.38449
0.14870	0.32972
0.02119	0.73785
0.12320	0.22769
0.17421	0.66132
0.14870	-0.10391
0.22521	0.30422
0.22521	0.12566
0.25071	0.35523
0.22521	0.04914
0.12320	0.15117
0.14870	0.04914
0.04670	-0.00188
-0.00431	0.61031
0.19971	-1.48133
0.25071	0.35523
0.17421	0.17668
0.14870	0.45726
0.25071	0.63582
0.14870	0.66132
-0.13181	-0.38449
0.09770	-0.02739
0.58223	0.68683
0.12320	-0.35899
0.07220	0.25320
0.19971	-0.12942
0.09770	0.53379
0.07220	0.45726
0.19971	-0.20594
0.19971	-0.25695
0.17421	0.58480
0.09770	0.45726
0.07220	0.02363
0.04670	-0.28246
0.27621	0.76336
0.42922	0.43176
0.02119	0.12566
0.04670	-0.41000
0.12320	0.07465
0.22521	-1.02219
0.17421	1.14597
0.09770	-0.15492
0.12320	0.38074
0.12320	1.24800
0.17421	-0.25695
0.09770	-0.61406
0.19971	0.32972
0.19971	0.30422
0.30171	0.83988
0.17421	-0.23145
0.04670	0.25320
0.19971	-0.15492
0.09770	-0.12942
0.02119	0.20219
0.17421	0.35523
0.14870	0.53379
0.09770	0.07465
0.32721	-0.61406
0.37822	0.50828
0.32721	0.43176
-0.02981	-0.12942
0.12320	0.25320
0.07220	0.38074
-0.02981	0.02363
0.14870	-0.23145
0.12320	-0.25695
0.12320	-0.28246
0.19971	-0.53754
0.25071	0.71234
0.30171	0.68683
0.17421	0.78886
-0.00431	0.71234
0.07220	0.30422
0.17421	0.53379
-0.10631	0.40625
0.30171	-0.12942
0.42922	-1.37929
0.19971	-0.18043
0.14870	0.66132
-0.00431	-0.20594
0.04670	0.22769
0.22521	0.99292
0.22521	-0.81812
0.14870	0.02363
0.09770	0.73785
0.12320	0.78886
0.09770	-0.38449
0.14870	-0.00188
0.32721	0.38074
0.17421	-0.38449
0.07220	-0.15492
0.14870	0.25320
0.12320	1.06945
-0.15732	0.02363
0.27621	0.35523
0.50573	0.53379
0.07220	-0.10391
0.07220	0.22769
0.19971	-2.50164
0.12320	-0.07840
0.07220	1.04394
0.25071	1.14597
0.07220	0.96742
0.07220	0.99292
0.14870	-0.23145
0.19971	-0.25695
0.09770	-0.02739
0.22521	0.20219
0.27621	0.50828
0.12320	-0.51203
-0.02981	0.07465
0.12320	0.02363
0.22521	0.35523
0.07220	-0.07840
0.17421	-0.35899
0.14870	0.94191
-0.15732	-0.48652
0.48022	0.30422
0.48022	-1.12422
0.17421	0.50828
0.07220	0.32972
-0.05531	0.86539
0.07220	0.76336
0.12320	0.40625
0.04670	-0.25695
0.19971	-0.00188
0.30171	0.02363
0.17421	-0.00188
0.12320	-0.56305
0.12320	0.02363
0.27621	0.61031
0.14870	-0.15492
-0.02981	0.86539
0.30171	0.55929
0.25071	0.35523
0.12320	0.45726
0.12320	-0.00188
0.17421	0.04914
0.07220	-1.25176
0.17421	0.02363
0.17421	0.27871
0.17421	0.43176
0.07220	0.07465
0.22521	0.27871
0.07220	0.35523
0.04670	0.25320
0.25071	0.40625
0.25071	0.07465
0.09770	-0.33348
0.07220	-0.58856
0.22521	0.86539
0.14870	0.30422
0.14870	0.76336
0.04670	-1.25176
0.07220	0.61031
0.19971	0.15117
0.07220	0.91640
0.45472	0.17668
0.22521	-0.20594
0.12320	-0.00188
0.04670	0.50828
0.12320	0.63582
0.09770	0.50828
-0.08081	0.12566
0.19971	-0.05289
0.25071	-0.41000
0.12320	-0.02739
0.19971	-0.41000
0.37822	0.12566
0.12320	0.10015
0.09770	0.40625
0.14870	0.30422
0.12320	0.66132
0.02119	-1.20074
0.12320	0.83988
0.25071	0.78886
0.14870	0.17668
0.09770	-1.07320
0.17421	0.17668
0.25071	1.17148
0.12320	0.25320
-0.00431	-0.05289
0.12320	0.50828
0.12320	-0.66508
0.22521	-0.51203
0.25071	0.99292
0.12320	0.45726
0.09770	-0.61406
0.22521	0.25320
0.09770	0.40625
0.02119	0.38074
0.12320	-0.15492
0.35272	0.04914
0.12320	0.07465
-0.02981	0.32972
0.14870	0.25320
0.50573	0.61031
0.27621	-1.35379
0.02119	1.29902
-0.02981	0.10015
0.02119	0.76336
0.12320	0.30422
0.17421	-0.05289
0.09770	0.10015
0.07220	-0.28246
0.17421	0.07465
0.22521	0.20219
0.22521	0.10015
0.17421	0.04914
0.17421	0.04914
0.07220	0.22769
0.09770	0.58480
0.12320	-0.02739
0.12320	0.55929
0.12320	-0.25695
0.30171	1.04394
0.14870	-1.78742
0.04670	0.55929
0.09770	0.71234
0.19971	0.63582
0.17421	0.78886
0.17421	0.55929
0.07220	-0.79262
0.17421	0.25320
0.42922	-0.48652
0.09770	-0.58856
0.02119	1.40105
0.17421	0.17668
0.12320	-0.38449
0.07220	-0.10391
-0.10631	-0.05289
0.22521	0.53379
0.55673	0.81437
0.07220	0.02363
0.14870	0.30422
0.07220	0.63582
0.12320	-1.83844
0.09770	0.50828
0.14870	0.20219
0.42922	0.78886
-0.38683	0.15117
0.12320	0.63582
0.91375	0.22769
-0.05531	-1.27726
-0.41233	0.91640
0.27621	0.76336
0.17421	1.09496
0.50573	0.40625
0.50573	-0.61406
-0.10631	-0.69059
-0.18282	-0.10391
-0.08081	0.17668
0.37822	0.43176
0.04670	-0.33348
0.04670	1.63062
0.19971	-2.34859
0.19971	0.22769
0.12320	1.04394
0.07220	1.09496
0.19971	0.25320
0.37822	-0.56305
0.22521	0.40625
0.14870	0.25320
0.12320	0.02363
0.12320	0.32972
0.19971	-0.30797
0.02119	0.07465
-0.00431	0.48277
0.22521	0.15117
0.35272	0.04914
0.17421	-0.20594
0.09770	0.40625
0.07220	0.63582
0.02119	-0.07840
0.14870	0.68683
0.12320	-0.71609
0.07220	-0.33348
0.65874	0.55929
0.17421	0.40625
-0.02981	0.53379
0.19971	-1.37929
0.07220	0.53379
-0.02981	-0.48652
-0.05531	0.91640
0.32721	1.17148
0.22521	-0.10391
0.09770	0.02363
0.12320	-0.46102
0.17421	1.57960
-0.00431	0.50828
0.42922	0.17668
0.22521	-1.53234
-0.33583	0.04914
0.53123	1.27351
0.45472	0.76336
-0.08081	0.02363
-0.05531	-0.53754
0.14870	-0.35899
0.17421	0.20219
0.12320	-0.38449
0.09770	0.45726
0.02119	0.81437
0.22521	0.04914
0.42922	0.10015
0.25071	0.17668
-0.10631	-0.10391
0.12320	0.22769
0.25071	0.71234
0.40372	-0.00188
0.02119	0.10015
0.02119	-0.05289
0.09770	0.02363
0.14870	0.10015
0.12320	-0.05289
0.12320	0.58480
0.19971	-0.35899
0.30171	0.50828
0.09770	1.01843
0.19971	-1.40480
0.30171	-0.69059
0.17421	0.58480
0.04670	1.17148
0.07220	1.04394
0.04670	0.35523
-0.05531	-0.23145
0.12320	-0.10391
0.32721	-0.07840
0.27621	-0.41000
0.12320	-0.23145
0.14870	0.12566
0.02119	0.15117
0.09770	0.12566
0.22521	0.50828
0.14870	-0.66508
0.14870	0.71234
-0.08081	0.45726
0.17421	0.58480
0.48022	0.40625
0.25071	0.20219
0.07220	-0.25695
-0.00431	0.22769
-0.02981	0.30422
0.12320	-0.00188
0.04670	0.38074
0.27621	0.40625
0.32721	-0.35899
0.07220	-0.05289
0.12320	0.38074
0.14870	0.76336
0.30171	-1.14973
0.19971	-0.00188
-0.10631	0.55929
0.19971	0.15117
0.30171	0.45726
0.14870	0.25320
-0.08081	0.32972
-0.02981	0.58480
0.14870	0.50828
0.22521	-0.10391
0.40372	0.53379
0.30171	-0.46102
0.04670	0.32972
0.02119	-0.69059
0.07220	0.35523
0.17421	0.12566
0.19971	0.71234
0.22521	-0.81812
0.17421	-0.18043
0.17421	0.66132
0.19971	1.24800
0.02119	1.63062
0.17421	-0.46102
0.42922	-0.66508
-0.08081	-0.74160
-0.08081	0.22769
0.48022	-0.28246
0.17421	0.45726
-0.02981	-0.86914
0.07220	0.83988
0.17421	0.61031
0.17421	0.86539
0.22521	-0.76711
0.25071	-1.12422
0.12320	0.58480
-0.08081	0.55929
0.17421	0.02363
0.50573	1.12046
0.17421	-0.10391
0.14870	0.66132
0.04670	1.09496
-0.02981	-0.20594
0.12320	-1.04770
0.17421	-0.76711
0.09770	0.63582
0.07220	0.61031
0.07220	-0.10391
0.09770	-0.05289
0.32721	0.20219
0.27621	0.61031
0.07220	-0.18043
0.53123	0.22769
0.12320	0.50828
-0.08081	-0.74160
-0.02981	0.15117
0.02119	0.76336
0.09770	0.40625
0.12320	0.38074
0.17421	-0.23145
0.48022	0.17668
0.17421	0.07465
0.09770	0.91640
0.02119	-0.30797
0.04670	0.10015
0.12320	-1.07320
0.12320	1.40105
0.17421	-0.56305
0.14870	0.15117
0.22521	1.01843
0.14870	0.17668
0.12320	-0.00188
0.19971	0.63582
0.17421	-0.61406
0.12320	0.53379
-0.08081	0.22769
0.22521	0.10015
0.25071	-0.15492
0.25071	0.45726
0.09770	0.45726
0.12320	0.25320
0.07220	0.53379
0.14870	-0.46102
0.12320	-1.07320
0.19971	0.32972
0.19971	0.71234
-0.23382	0.38074
0.30171	-0.02739
0.37822	0.73785
0.14870	-0.15492
0.12320	0.55929
0.12320	0.10015
0.12320	-0.00188
0.17421	0.43176
0.02119	0.27871
0.04670	0.96742
0.32721	-0.86914
0.09770	-0.25695
0.07220	-0.33348
0.40372	-0.18043
0.17421	-0.18043
-0.00431	0.48277
0.07220	0.35523
0.22521	-0.05289
0.07220	0.10015
0.12320	-0.00188
0.19971	0.81437
-0.02981	0.76336
0.17421	-0.25695
0.50573	0.10015
0.17421	0.22769
0.04670	-0.84363
0.07220	0.76336
0.22521	0.15117
0.09770	0.35523
0.02119	0.12566
0.14870	0.40625
0.22521	0.30422
0.17421	0.17668
0.09770	0.04914
0.19971	-1.09871
0.19971	1.17148
0.19971	-0.05289
0.02119	0.91640
0.12320	0.20219
0.09770	-0.30797
0.14870	0.22769
0.12320	0.22769
0.48022	0.15117
0.04670	0.25320
0.04670	-0.69059
0.12320	0.48277
0.19971	0.15117
0.09770	-0.10391
0.09770	0.35523
0.19971	0.04914
0.19971	0.55929
0.14870	0.02363
-0.00431	0.91640
0.25071	0.71234
0.32721	-0.05289
0.14870	0.04914
0.12320	-0.38449
0.12320	-0.23145
0.12320	-0.10391
0.04670	0.12566
-0.00431	0.58480
0.19971	0.35523
0.53123	0.30422
0.14870	-0.23145
0.12320	0.10015
0.09770	0.89089
0.19971	-0.53754
-0.00431	-0.66508
0.12320	0.86539
0.14870	0.53379
0.22521	-0.74160
0.07220	-0.25695
0.14870	0.35523
0.19971	0.50828
0.25071	0.66132
0.17421	1.40105
0.07220	0.25320
0.12320	-0.25695
0.19971	0.20219
0.17421	-0.28246
-0.18282	-1.17523
0.32721	-0.28246
0.32721	0.04914
0.17421	0.94191
0.09770	0.78886
0.17421	0.25320
0.02119	0.20219
-0.02981	0.02363
0.12320	1.06945
0.12320	-0.66508
0.40372	-0.02739
0.19971	0.55929
0.04670	-0.63957
0.09770	0.15117
0.25071	0.66132
0.30171	0.17668
0.12320	0.45726
-0.08081	1.17148
-0.02981	0.43176
0.35272	-0.38449
0.19971	-1.27726
0.14870	0.32972
0.17421	0.12566
0.09770	0.32972
-0.05531	0.25320
0.19971	-0.92016
0.17421	0.55929
0.22521	0.68683
0.22521	0.50828
0.17421	0.35523
0.04670	-0.28246
0.12320	-0.07840
0.07220	-0.25695
0.14870	1.01843
0.17421	0.68683
0.27621	-0.41000
-0.08081	-0.05289
0.42922	0.22769
0.19971	0.07465
-0.05531	-0.28246
0.02119	-0.35899
0.04670	0.78886
0.02119	-0.43551
0.14870	0.81437
0.17421	0.81437
0.25071	-0.84363
0.12320	0.50828
0.12320	0.27871
0.17421	-1.12422
0.17421	0.20219
0.42922	0.43176
0.12320	0.50828
0.07220	0.40625
0.09770	-0.23145
0.09770	1.22250
0.09770	0.40625
0.14870	-2.34859
0.19971	0.48277
0.12320	0.91640
0.12320	0.66132
0.25071	0.61031
0.04670	0.04914
-0.00431	0.04914
0.35272	0.12566
0.42922	0.10015
-0.00431	0.02363
-0.02981	0.30422
0.35272	0.50828
0.17421	-0.07840
0.17421	-1.20074
-0.08081	0.50828
0.48022	0.02363
0.17421	0.02363
0.02119	0.45726
-0.02981	0.40625
0.12320	0.58480
0.12320	-0.48652
-0.05531	0.58480
0.37822	0.32972
0.22521	-0.25695
0.07220	0.86539
0.14870	0.07465
0.14870	-0.38449
0.19971	0.45726
0.22521	0.30422
0.14870	0.15117
0.09770	0.50828
0.14870	1.04394
0.12320	-0.30797
0.12320	0.63582
0.12320	-0.81812
0.12320	-1.27726
0.14870	0.30422
0.19971	1.14597
0.25071	1.06945
0.27621	-0.51203
0.12320	1.06945
0.14870	-1.58336
-0.00431	0.12566
0.07220	0.66132
0.32721	0.17668
0.07220	0.63582
-0.02981	0.50828
0.14870	0.27871
0.17421	0.32972
-0.13181	0.12566
0.68424	0.61031
0.17421	-1.20074
0.02119	0.15117
0.04670	-0.05289
0.07220	0.50828
0.02119	0.25320
0.17421	0.53379
0.35272	0.35523
0.09770	0.76336
0.12320	0.45726
0.14870	-2.17003
0.09770	0.20219
0.04670	0.40625
0.04670	0.96742
0.14870	0.02363
0.25071	-0.76711
0.19971	0.07465
0.12320	0.38074
0.19971	0.32972
0.25071	0.20219
0.17421	-0.53754
0.09770	0.63582
0.12320	0.43176
0.02119	0.99292
0.07220	-0.53754
0.07220	0.25320
0.09770	0.35523
0.19971	0.43176
0.19971	-0.35899
0.25071	-0.07840
0.22521	1.12046
0.12320	-1.07320
0.02119	0.25320
0.12320	-0.12942
0.53123	0.53379
0.32721	0.50828
-0.02981	0.86539
-0.00431	-0.10391
-0.05531	-0.05289
0.22521	0.12566
0.30171	0.17668
0.02119	0.20219
0.12320	-0.43551
0.19971	0.10015
0.19971	0.22769
0.14870	0.17668
0.09770	0.10015
0.12320	0.35523
0.14870	0.40625
0.14870	0.40625
0.22521	0.25320
0.19971	-0.25695
0.22521	0.58480
0.19971	-0.18043
0.02119	0.35523
-0.05531	-0.35899
0.02119	-0.43551
0.19971	0.63582
0.25071	0.83988
0.14870	-0.05289
0.09770	0.35523
0.12320	0.61031
0.17421	-1.07320
0.30171	0.25320
0.27621	0.32972
0.12320	0.53379
0.04670	0.20219
0.12320	-0.41000
0.09770	0.30422
0.09770	0.20219
0.35272	0.10015
0.19971	0.04914
0.07220	-0.69059
0.07220	0.25320
-0.02981	0.22769
0.04670	0.25320
0.02119	0.07465
0.40372	0.68683
0.02119	0.61031
0.37822	0.55929
0.12320	0.12566
0.04670	-0.48652
0.12320	-0.84363
0.07220	0.15117
0.02119	-0.25695
0.17421	0.55929
0.14870	1.22250
0.27621	-0.20594
0.27621	0.15117
0.12320	-0.05289
0.04670	0.07465
0.17421	0.83988
0.09770	-0.81812
0.02119	-0.48652
0.12320	1.42656
0.19971	0.20219
0.12320	0.55929
0.07220	-0.61406
0.25071	-0.48652
0.25071	0.30422
0.14870	0.76336
-0.05531	-0.07840
0.07220	-0.05289
0.40372	0.40625
0.09770	0.20219
0.02119	-0.02739
0.12320	-0.18043
0.19971	0.63582
0.09770	1.04394
0.09770	0.04914
0.12320	-0.15492
0.37822	-0.66508
0.14870	0.38074
-0.05531	0.15117
0.19971	-0.05289
0.40372	-0.15492
0.17421	0.89089
0.07220	0.07465
0.12320	-0.05289
0.07220	0.20219
0.14870	0.04914
0.14870	-0.05289
0.09770	-0.05289
0.40372	-0.23145
0.02119	0.32972
0.02119	0.76336
0.07220	0.58480
0.07220	-0.20594
0.17421	0.17668
0.14870	0.12566
0.22521	0.02363
0.12320	0.71234
0.04670	-0.71609
0.12320	-1.27726
0.25071	1.09496
0.17421	0.35523
0.09770	0.48277
0.14870	0.17668
0.25071	0.40625
0.22521	0.25320
0.27621	0.45726
0.07220	-0.35899
0.12320	0.20219
0.07220	-0.25695
-0.00431	0.53379
0.19971	-0.46102
0.19971	0.07465
0.25071	0.35523
0.22521	-0.07840
0.07220	0.30422
0.40372	-0.20594
0.55673	0.61031
0.12320	0.66132
0.04670	-0.12942
0.04670	0.32972
0.12320	0.04914
0.14870	-0.51203
0.27621	0.91640
0.32721	0.17668
0.37822	0.20219
0.12320	-0.00188
0.12320	0.61031
0.12320	-0.61406
-0.00431	0.50828
0.27621	-0.23145
0.48022	0.78886
0.12320	1.22250
0.02119	-0.61406
0.12320	0.45726
0.14870	-1.27726
0.12320	0.04914
0.09770	0.76336
0.09770	0.35523
0.14870	0.38074
0.14870	-0.20594
0.22521	0.20219
0.17421	0.02363
0.22521	0.30422
0.22521	0.15117
0.09770	0.20219
0.07220	0.27871
0.07220	0.22769
0.14870	-0.05289
0.19971	0.10015
0.07220	0.17668
0.19971	0.22769
0.14870	0.27871
0.22521	0.66132
0.17421	-0.97117
0.07220	0.22769
0.27621	0.38074
0.14870	0.27871
-0.00431	0.22769
-0.08081	0.22769
0.22521	1.37554
0.17421	-1.58336
0.04670	0.04914
0.14870	0.76336
0.22521	0.43176
0.09770	0.07465
0.35272	-0.84363
0.42922	0.71234
0.02119	0.53379
0.02119	0.15117
0.17421	-0.81812
0.35272	0.40625
-0.02981	0.53379
-0.02981	-0.48652
0.09770	0.12566
0.14870	0.25320
-0.05531	0.38074
0.25071	0.12566
0.42922	0.27871
0.07220	0.32972
-0.00431	-0.07840
0.07220	0.02363
0.12320	-0.92016
0.19971	-0.51203
0.22521	1.17148
0.22521	0.48277
0.12320	-0.35899
0.25071	0.86539
0.09770	0.63582
0.07220	0.38074
0.04670	0.38074
0.17421	0.02363
0.19971	-0.25695
0.22521	-0.30797
0.19971	-0.30797
0.14870	-0.00188
0.07220	0.43176
0.32721	0.17668
0.12320	0.20219
-0.05531	0.35523
-0.02981	-0.76711
0.19971	0.94191
0.19971	-0.15492
0.22521	0.20219
0.19971	0.68683
0.14870	0.86539
0.12320	-0.05289
0.32721	0.30422
0.17421	0.17668
0.04670	0.38074
0.09770	-0.66508
0.09770	0.43176
-0.02981	0.10015
0.22521	-0.07840
0.42922	0.10015
-0.15732	0.45726
0.14870	0.02363
0.48022	0.45726
0.07220	0.35523
-0.05531	-0.15492
0.02119	-0.51203
0.09770	0.15117
0.14870	-0.18043
0.04670	0.43176
0.04670	0.04914
0.09770	-0.18043
0.07220	0.38074
0.19971	0.32972
0.12320	0.76336
0.22521	-0.15492
0.22521	-0.38449
0.19971	0.40625
0.25071	0.32972
0.12320	0.20219
0.22521	0.04914
0.12320	0.45726
0.04670	-0.74160
0.09770	0.91640
0.19971	0.32972
0.07220	0.22769
0.17421	-0.15492
0.02119	0.10015
0.04670	-0.12942
-0.00431	0.04914
0.30171	0.22769
0.22521	-0.18043
0.09770	0.38074
0.25071	0.50828
0.17421	0.45726
0.17421	0.50828
0.22521	-0.20594
0.17421	0.15117
0.19971	-1.20074
0.22521	1.01843
0.22521	0.96742
0.17421	0.22769
0.14870	0.15117
0.14870	-0.10391
-0.15732	-0.15492
0.42922	-0.12942
0.32721	0.50828
-0.05531	0.58480
-0.00431	-1.14973
0.07220	0.55929
0.12320	1.01843
0.17421	-0.56305
0.22521	0.04914
0.17421	-0.02739
0.02119	0.58480
0.17421	-0.00188
0.14870	0.22769
0.14870	-0.46102
0.07220	0.10015
0.17421	0.38074
0.37822	0.45726
0.22521	0.25320
0.07220	0.22769
0.27621	0.25320
0.09770	-0.20594
0.07220	0.43176
0.07220	0.12566
0.12320	-0.61406
0.12320	0.63582
0.02119	0.22769
0.32721	-0.05289
0.19971	-0.97117
0.14870	0.35523
0.09770	1.60511
0.19971	-0.79262
0.17421	-0.00188
0.19971	0.30422
0.17421	0.45726
0.14870	-0.15492
0.17421	0.20219
0.07220	0.07465
0.14870	0.53379
0.25071	0.48277
0.22521	0.71234
0.02119	-0.92016
0.19971	0.45726
0.37822	0.17668
0.07220	0.25320
0.04670	0.35523
0.02119	-0.12942
0.27621	0.32972
0.12320	-0.66508
0.12320	-0.07840
0.04670	-0.18043
0.04670	0.04914
0.07220	0.50828
0.04670	0.10015
0.04670	0.89089
0.32721	-0.15492
0.55673	0.20219
0.14870	0.30422
0.09770	-0.76711
0.09770	0.43176
0.12320	0.10015
0.12320	0.35523
0.02119	0.10015
0.02119	0.22769
0.22521	0.30422
0.19971	0.35523
0.19971	-0.00188
0.17421	-0.23145
0.12320	0.22769
0.07220	-0.48652
0.07220	0.53379
0.17421	0.61031
0.14870	0.30422
0.12320	-0.61406
0.02119	0.12566
0.14870	0.35523
0.32721	0.40625
0.02119	-0.23145
-0.05531	0.89089
0.02119	-0.38449
0.12320	-0.58856
0.07220	0.94191
0.07220	-0.46102
0.12320	-0.02739
0.12320	0.40625
-0.18282	0.61031
0.37822	-0.71609
0.22521	0.73785
-0.05531	0.25320
0.04670	-0.20594
0.12320	-1.27726
0.12320	0.86539
0.19971	0.76336
0.14870	0.55929
0.12320	0.43176
0.19971	0.50828
0.22521	-0.86914
0.22521	0.10015
0.19971	0.10015
0.14870	0.40625
0.07220	0.32972
0.09770	-0.12942
0.07220	-0.41000
-0.08081	0.10015
-0.00431	0.66132
0.30171	0.43176
0.45472	0.45726
0.12320	0.02363
-0.00431	0.12566
0.07220	0.27871
0.19971	0.10015
0.22521	-0.41000
0.07220	0.22769
0.07220	-0.61406
0.07220	1.37554
0.17421	-0.10391
0.19971	0.17668
0.27621	0.02363
0.19971	0.55929
0.14870	0.35523
0.04670	1.32453
0.07220	-0.89465
0.09770	0.32972
0.14870	0.02363
0.22521	-0.53754
0.04670	0.12566
0.27621	0.83988
0.50573	0.30422
0.12320	0.94191
-0.00431	-0.51203
-0.02981	-0.00188
0.07220	0.20219
0.17421	0.10015
0.14870	0.45726
0.22521	0.89089
0.22521	-0.58856
0.12320	0.10015
0.14870	-0.33348
0.12320	0.02363
0.17421	0.20219
0.27621	0.10015
0.14870	0.61031
0.07220	0.10015
0.02119	0.17668
0.14870	0.50828
0.25071	-0.05289
0.27621	0.35523
0.14870	0.15117
0.09770	-0.20594
-0.02981	0.66132
0.25071	0.53379
0.30171	-1.09871
-0.05531	0.50828
0.17421	0.27871
0.22521	0.38074
0.07220	0.20219
0.09770	1.22250
0.19971	-0.84363
0.22521	-0.20594
0.25071	1.06945
0.14870	-0.05289
0.09770	0.45726
0.04670	0.40625
0.12320	-0.61406
-0.00431	-0.05289
0.37822	0.25320
0.22521	0.22769
0.04670	0.32972
0.09770	0.07465
0.14870	-0.46102
0.17421	0.50828
0.04670	0.48277
0.17421	0.15117
0.17421	0.07465
0.12320	0.15117
0.02119	0.15117
-0.02981	-0.15492
0.32721	-0.05289
0.45472	0.73785
0.12320	-0.02739
0.22521	0.30422
0.04670	0.55929
-0.00431	-0.20594
0.19971	-0.20594
0.25071	0.20219
0.02119	-0.10391
0.07220	-0.10391
0.22521	0.12566
0.12320	0.53379
0.04670	0.30422
0.27621	-0.66508
0.17421	1.01843
0.02119	-0.69059
0.14870	-0.18043
0.07220	-0.00188
0.04670	1.40105
0.14870	0.12566
0.25071	0.43176
0.19971	0.58480
0.22521	-0.12942
0.17421	-0.02739
0.09770	-0.41000
0.17421	-0.02739
0.09770	0.25320
0.12320	-0.38449
-0.02981	0.38074
0.07220	0.04914
0.04670	0.58480
0.27621	0.38074
0.12320	-0.25695
0.04670	0.20219
0.14870	0.38074
0.04670	-0.35899
0.19971	0.71234
0.12320	-1.02219
0.17421	-0.30797
0.07220	0.45726
0.14870	1.19699
0.04670	-0.48652
0.17421	0.43176
0.32721	0.27871
0.09770	0.27871
-0.13181	-0.07840
0.32721	-0.05289
0.42922	0.30422
0.12320	0.12566
0.04670	0.25320
0.04670	0.50828
0.22521	0.22769
0.04670	0.04914
0.09770	-0.05289
0.09770	-0.76711
0.17421	0.66132
0.19971	0.71234
0.17421	0.27871
0.22521	0.15117
0.17421	-0.12942
-0.02981	-0.12942
0.17421	0.50828
0.30171	0.20219
0.02119	-0.38449
0.04670	0.25320
0.12320	0.32972
