0.14870	0.22769
0.14870	0.20219
0.14870	0.45726
0.12320	-0.69059
0.14870	0.04914
0.14870	0.25320
0.14870	0.38074
0.12320	0.40625
0.14870	0.32972
0.22521	0.25320
0.04670	0.02363
0.22521	-0.94566
0.09770	0.40625
0.22521	0.45726
0.07220	0.35523
0.22521	0.43176
0.07220	-0.07840
0.12320	0.12566
0.14870	0.17668
0.12320	0.12566
0.19971	0.15117
0.07220	0.10015
0.19971	0.15117
0.14870	0.04914
0.12320	0.15117
0.22521	0.17668
0.09770	0.10015
0.22521	0.15117
0.14870	0.22769
0.17421	0.07465
0.22521	0.17668
0.07220	0.20219
0.17421	0.15117
0.14870	0.12566
0.12320	0.15117
0.19971	0.35523
0.12320	0.40625
0.09770	-0.15492
0.22521	0.25320
0.07220	-0.43551
0.14870	0.02363
0.14870	0.35523
0.12320	0.38074
0.14870	0.40625
0.14870	0.27871
0.25071	0.12566
0.07220	-0.05289
0.19971	0.30422
0.07220	0.02363
0.17421	0.04914
0.14870	0.12566
0.14870	0.17668
0.25071	0.45726
0.09770	-1.12422
0.17421	0.40625
0.17421	-0.23145
0.12320	0.63582
0.12320	0.48277
0.07220	0.38074
0.22521	0.27871
0.17421	0.12566
0.22521	0.12566
0.14870	0.10015
0.14870	0.32972
0.14870	-0.07840
0.12320	0.04914
0.17421	0.04914
0.14870	0.02363
0.17421	0.25320
0.14870	0.22769
0.14870	-0.02739
0.14870	-0.15492
0.17421	0.40625
0.14870	0.35523
0.19971	0.45726
0.07220	0.10015
0.22521	0.12566
0.09770	0.04914
0.22521	0.17668
0.14870	0.02363
0.12320	0.17668
0.14870	0.10015
0.22521	0.22769
0.14870	0.15117
0.12320	0.15117
0.17421	0.12566
0.09770	0.02363
0.22521	0.17668
0.04670	-0.02739
0.12320	0.27871
0.12320	0.10015
0.19971	0.10015
0.19971	0.35523
0.09770	0.12566
0.22521	0.17668
0.09770	0.35523
0.14870	0.15117
0.12320	0.12566
0.12320	0.17668
0.17421	0.17668
0.12320	-0.02739
0.14870	-0.41000
0.19971	0.30422
0.09770	0.53379
0.12320	0.63582
0.14870	0.32972
0.19971	0.40625
0.09770	-1.02219
0.22521	0.12566
0.12320	0.38074
0.22521	0.45726
0.07220	0.15117
0.25071	-0.30797
0.09770	0.45726
0.19971	0.32972
0.04670	0.25320
0.22521	0.25320
0.14870	0.10015
0.14870	0.10015
0.22521	0.10015
0.07220	-0.07840
0.25071	0.10015
0.07220	0.04914
0.17421	0.17668
0.07220	0.10015
0.12320	-0.02739
0.12320	0.25320
0.12320	0.30422
0.19971	0.25320
0.09770	0.02363
0.12320	0.35523
0.22521	0.53379
0.09770	0.10015
0.22521	-0.53754
0.14870	-0.20594
0.17421	0.45726
0.14870	0.53379
0.07220	0.48277
0.19971	0.15117
0.07220	0.10015
0.19971	-0.02739
0.09770	0.40625
0.17421	-0.71609
0.14870	0.25320
0.14870	-0.35899
0.14870	0.10015
0.14870	0.71234
0.14870	0.15117
0.12320	0.30422
0.12320	0.04914
0.14870	0.15117
0.12320	0.10015
0.07220	-0.00188
0.14870	0.17668
0.14870	0.17668
0.12320	0.10015
0.22521	-0.02739
0.12320	0.40625
0.17421	0.20219
0.22521	0.32972
0.04670	0.04914
0.12320	0.10015
0.12320	0.15117
0.09770	0.17668
0.22521	0.25320
0.12320	0.22769
0.12320	-0.15492
0.12320	0.15117
0.07220	-0.05289
0.22521	0.25320
0.14870	0.45726
0.12320	0.30422
0.14870	0.27871
0.14870	0.20219
0.22521	0.30422
0.04670	-0.02739
0.14870	0.12566
0.14870	0.15117
0.12320	0.07465
0.22521	0.07465
0.12320	-0.00188
0.14870	0.27871
0.17421	-0.66508
0.14870	0.30422
0.22521	0.61031
0.14870	0.76336
0.12320	0.15117
0.19971	-0.12942
0.14870	-0.56305
0.09770	0.35523
0.22521	0.45726
0.12320	0.48277
0.07220	0.35523
0.14870	0.17668
0.22521	0.20219
0.14870	0.10015
0.07220	0.07465
0.14870	0.10015
0.17421	-0.48652
0.04670	0.17668
0.12320	0.20219
0.22521	0.25320
0.09770	0.27871
0.07220	0.22769
0.14870	0.38074
0.22521	0.25320
0.07220	-0.97117
0.12320	0.25320
0.22521	0.40625
0.12320	0.43176
0.07220	0.30422
0.14870	0.15117
0.14870	0.07465
0.07220	0.07465
0.25071	0.17668
0.14870	0.10015
0.07220	0.04914
0.12320	0.20219
0.17421	0.10015
0.09770	0.04914
0.22521	0.17668
0.12320	0.20219
0.09770	0.10015
0.22521	0.15117
0.14870	0.25320
0.14870	0.15117
0.19971	0.12566
0.17421	0.15117
0.09770	0.15117
0.12320	0.17668
0.17421	0.12566
0.07220	0.02363
0.22521	0.22769
0.12320	0.53379
0.12320	-0.33348
0.22521	0.48277
0.12320	-0.18043
0.07220	0.22769
0.19971	0.35523
0.14870	0.32972
0.14870	0.20219
0.22521	-0.12942
0.04670	0.12566
0.14870	0.40625
0.12320	-0.63957
0.14870	0.61031
0.19971	0.30422
0.09770	-0.00188
0.14870	0.04914
0.22521	0.12566
0.09770	0.22769
0.12320	0.12566
0.12320	0.12566
0.14870	0.15117
0.14870	0.20219
0.07220	0.07465
0.22521	0.02363
0.07220	0.27871
0.14870	0.22769
0.14870	0.38074
0.12320	-0.38449
0.17421	0.07465
0.14870	0.10015
0.19971	0.53379
0.09770	0.35523
0.12320	0.35523
0.09770	0.15117
0.19971	0.07465
0.07220	-0.02739
0.19971	0.02363
0.07220	0.07465
0.22521	0.25320
0.09770	-0.18043
0.19971	0.17668
0.07220	0.25320
0.22521	0.32972
0.09770	0.20219
0.19971	0.17668
0.07220	0.02363
0.19971	0.15117
0.12320	0.15117
0.17421	0.17668
0.14870	0.17668
0.07220	0.17668
0.19971	0.50828
0.07220	0.10015
0.22521	0.07465
0.12320	-0.94566
0.22521	0.66132
0.09770	0.15117
0.19971	-0.10391
0.09770	0.40625
0.19971	0.35523
0.19971	0.27871
0.07220	0.20219
0.22521	0.30422
0.14870	0.43176
0.14870	0.04914
0.12320	-0.10391
0.17421	-0.48652
0.14870	0.25320
0.09770	0.25320
0.19971	0.12566
0.14870	0.38074
0.19971	0.22769
0.07220	0.12566
0.17421	0.10015
0.09770	0.12566
0.17421	0.10015
0.12320	0.35523
0.14870	-0.76711
0.14870	0.27871
0.07220	0.27871
0.22521	0.38074
0.07220	0.30422
0.14870	0.12566
0.12320	0.22769
0.14870	0.17668
0.14870	0.07465
0.07220	0.12566
0.19971	0.12566
0.09770	0.02363
0.12320	0.04914
0.12320	0.20219
0.17421	0.30422
0.07220	0.32972
0.12320	-0.05289
0.14870	-0.43551
0.14870	-0.76711
0.14870	0.15117
0.12320	0.99292
0.22521	0.68683
0.07220	0.32972
0.19971	0.38074
0.14870	0.15117
0.14870	0.17668
0.14870	-0.00188
0.14870	-0.00188
0.14870	0.07465
0.12320	-0.12942
0.22521	0.15117
0.04670	-0.15492
0.22521	0.07465
0.17421	0.38074
0.14870	0.27871
0.19971	0.27871
0.09770	0.10015
0.14870	0.15117
0.12320	0.25320
0.04670	0.12566
0.19971	0.17668
0.07220	0.04914
0.19971	0.45726
0.12320	-0.15492
0.14870	0.25320
0.17421	0.20219
0.12320	0.20219
0.17421	0.10015
0.12320	0.07465
0.17421	0.25320
0.14870	0.20219
0.17421	0.43176
0.12320	-1.30277
0.14870	0.43176
0.14870	0.43176
0.12320	0.83988
0.14870	-0.63957
0.07220	0.32972
0.19971	0.43176
0.07220	0.30422
0.19971	0.30422
0.07220	-0.61406
0.14870	0.30422
0.14870	0.17668
0.19971	0.22769
0.07220	0.12566
0.19971	0.12566
0.07220	0.30422
0.17421	0.20219
0.09770	0.10015
0.22521	-0.05289
0.09770	0.04914
0.12320	0.15117
0.12320	0.27871
0.14870	0.17668
0.14870	0.30422
0.12320	0.10015
0.19971	0.22769
0.07220	0.10015
0.22521	0.12566
0.09770	0.20219
0.14870	0.12566
0.17421	0.25320
0.12320	0.07465
0.19971	0.15117
0.09770	-0.25695
0.22521	0.40625
0.09770	0.55929
0.12320	0.22769
0.14870	0.22769
0.09770	0.04914
0.22521	0.10015
0.09770	-0.25695
0.17421	0.04914
0.14870	0.66132
0.07220	-0.28246
0.19971	0.45726
0.07220	0.20219
0.14870	0.22769
0.22521	0.40625
0.07220	0.02363
0.14870	-0.10391
0.07220	0.25320
0.22521	0.15117
0.09770	0.12566
0.22521	0.17668
0.07220	0.04914
0.17421	0.02363
0.17421	0.20219
0.14870	0.10015
0.17421	0.35523
0.12320	-0.38449
0.19971	0.12566
0.07220	0.40625
0.22521	0.32972
0.09770	0.15117
0.19971	0.35523
0.17421	0.10015
0.12320	0.22769
0.09770	0.27871
0.14870	0.15117
0.14870	-0.48652
0.09770	-0.02739
0.22521	0.35523
0.09770	0.43176
0.19971	0.17668
0.12320	0.10015
0.12320	0.15117
0.14870	0.07465
0.09770	0.02363
0.22521	0.32972
0.12320	0.04914
0.12320	0.10015
0.19971	0.27871
0.09770	0.15117
0.22521	0.30422
0.14870	0.38074
0.07220	0.15117
0.22521	-1.40480
0.14870	0.81437
0.07220	0.45726
0.22521	0.40625
0.12320	0.27871
0.07220	0.22769
0.22521	0.10015
0.14870	0.22769
0.12320	0.17668
0.14870	0.04914
0.07220	-0.05289
0.19971	-0.05289
0.14870	0.07465
0.14870	0.22769
0.07220	-0.00188
0.22521	-0.07840
0.17421	0.40625
0.09770	0.12566
0.19971	0.50828
0.09770	-0.33348
0.19971	0.30422
0.14870	0.55929
0.12320	0.17668
0.17421	0.17668
0.14870	0.22769
0.14870	0.15117
0.14870	-0.05289
0.22521	0.12566
0.14870	0.04914
0.12320	0.17668
0.14870	0.17668
0.14870	-0.15492
0.14870	0.40625
0.07220	0.04914
0.25071	0.04914
0.12320	0.27871
0.14870	0.25320
0.14870	0.45726
0.07220	-0.07840
0.22521	-0.33348
0.14870	-0.15492
0.12320	0.30422
0.19971	0.61031
0.07220	0.40625
0.22521	0.25320
0.12320	0.12566
0.12320	0.32972
0.17421	-0.05289
0.07220	0.04914
0.27621	0.04914
0.12320	-0.18043
0.12320	-0.00188
0.12320	0.25320
0.07220	0.20219
0.22521	0.04914
0.12320	0.27871
0.12320	0.10015
0.17421	0.20219
0.04670	0.07465
0.27621	0.10015
0.09770	0.17668
0.17421	0.22769
0.09770	0.12566
0.22521	0.02363
0.09770	0.22769
0.22521	-0.12942
0.07220	0.38074
0.17421	0.10015
0.12320	0.25320
0.14870	-0.02739
0.19971	0.10015
0.09770	0.30422
0.14870	0.40625
0.12320	0.22769
0.14870	-0.53754
0.19971	-0.15492
0.09770	0.25320
0.19971	0.43176
0.09770	0.35523
0.22521	0.43176
0.14870	0.22769
0.12320	-0.00188
0.14870	-0.56305
0.22521	0.15117
0.09770	0.48277
0.19971	0.55929
0.12320	0.40625
0.12320	0.32972
0.14870	0.22769
0.17421	0.20219
0.22521	-0.86914
0.07220	-0.00188
0.19971	0.32972
0.04670	0.10015
0.22521	0.15117
0.12320	0.25320
0.14870	0.35523
0.14870	0.20219
0.14870	0.22769
0.14870	0.12566
0.12320	0.04914
0.12320	-0.02739
0.12320	0.15117
0.12320	0.17668
0.12320	0.15117
0.12320	0.07465
0.14870	0.17668
0.12320	0.22769
0.14870	0.40625
0.12320	0.04914
0.09770	-0.02739
0.19971	0.38074
0.07220	0.02363
0.19971	0.12566
0.09770	0.10015
0.22521	0.17668
0.14870	-0.18043
0.12320	0.30422
0.09770	0.20219
0.12320	0.35523
0.12320	0.32972
0.14870	-1.02219
0.12320	0.32972
0.14870	0.48277
0.14870	0.25320
0.14870	0.35523
0.14870	0.30422
0.17421	0.17668
0.14870	0.22769
0.14870	0.25320
0.14870	-0.05289
0.12320	-0.25695
0.14870	-0.61406
0.12320	0.38074
0.14870	0.45726
0.14870	0.38074
0.17421	0.32972
0.14870	0.17668
0.19971	0.25320
0.07220	0.12566
0.22521	0.35523
0.09770	-0.07840
0.22521	0.02363
0.04670	-0.15492
0.19971	0.20219
0.09770	0.15117
0.14870	0.10015
0.07220	0.32972
0.22521	-0.12942
0.07220	0.32972
0.19971	0.20219
0.09770	0.02363
0.22521	-0.15492
0.07220	0.35523
0.12320	0.35523
0.19971	0.25320
0.09770	-0.12942
0.22521	0.27871
0.07220	0.30422
0.22521	0.38074
0.14870	-0.15492
0.14870	0.10015
0.14870	0.38074
0.12320	0.07465
0.22521	0.04914
0.09770	-1.09871
0.22521	0.50828
0.12320	0.58480
0.12320	0.30422
0.14870	0.20219
0.07220	0.04914
0.19971	0.15117
0.09770	0.04914
0.14870	0.15117
0.14870	0.17668
0.22521	0.17668
0.07220	0.38074
0.22521	-0.69059
0.07220	0.32972
0.17421	0.32972
0.17421	0.20219
0.12320	0.27871
0.19971	0.15117
0.09770	0.15117
0.19971	0.12566
0.09770	0.22769
0.22521	0.15117
0.17421	0.02363
0.12320	-0.12942
0.17421	0.43176
0.04670	0.22769
0.19971	-0.30797
0.07220	0.07465
0.22521	0.58480
0.09770	0.17668
0.14870	0.27871
0.07220	0.20219
0.12320	0.25320
0.14870	0.17668
0.14870	0.12566
0.14870	0.10015
0.07220	0.15117
0.19971	-0.15492
0.14870	0.17668
0.14870	0.20219
0.14870	0.10015
0.14870	0.12566
0.14870	0.35523
0.14870	-0.07840
0.12320	0.40625
0.14870	0.27871
0.14870	0.27871
0.09770	-0.48652
0.19971	0.07465
0.14870	0.43176
0.12320	0.55929
0.14870	0.48277
0.12320	-0.46102
0.17421	0.86539
0.14870	0.48277
0.12320	-0.99668
0.12320	-2.01699
0.17421	1.27351
0.17421	1.14597
0.19971	0.45726
0.07220	-1.65988
0.14870	1.32453
0.12320	0.07465
0.17421	0.43176
0.07220	0.78886
0.27621	0.99292
0.09770	-0.76711
0.14870	0.66132
0.07220	1.06945
0.19971	1.29902
0.17421	-3.21585
0.19971	-2.78222
0.09770	0.02363
0.04670	2.39585
0.02119	0.86539
0.78624	0.63582
0.22521	0.45726
-0.08081	1.52859
-0.02981	-1.50683
0.04670	0.66132
0.02119	1.12046
-0.08081	1.86019
0.27621	1.96222
0.86275	-2.45062
0.07220	-3.72601
0.12320	0.35523
0.58223	0.04914
0.30171	0.66132
-0.36133	-0.74160
-0.15732	0.73785
0.30171	-0.99668
1.21977	1.17148
-0.97337	2.57441
-0.87136	0.96742
0.83725	-0.41000
0.86275	0.43176
0.50573	-0.43551
1.11776	-0.25695
1.55129	-0.00188
-7.29777	-1.40480
0.96476	-3.11382
4.63699	0.22769
2.29084	0.32972
1.55129	0.50828
-3.62554	0.55929
-0.00431	0.38074
-1.20288	1.06945
-0.10631	1.68163
-1.53441	-0.99668
0.07220	-0.05289
1.32178	0.15117
1.09226	0.55929
0.04670	-1.17523
-0.20832	0.45726
0.45472	-0.38449
0.70974	0.78886
-0.08081	0.58480
0.04670	0.66132
0.58223	0.25320
0.32721	1.29902
0.07220	-0.61406
-0.05531	0.76336
0.17421	-2.62918
-0.61635	-1.55785
0.30171	1.52859
0.27621	-0.84363
0.07220	0.17668
0.32721	1.17148
0.04670	0.63582
0.14870	0.43176
0.19971	0.17668
0.14870	-0.38449
-0.00431	0.68683
0.07220	-1.04770
0.27621	1.04394
0.19971	1.32453
0.02119	-2.09351
0.22521	1.17148
0.09770	-0.69059
-0.10631	0.22769
0.25071	1.09496
0.30171	-0.28246
0.27621	0.58480
-0.08081	0.15117
0.63323	1.01843
0.25071	0.96742
-0.05531	-1.14973
-0.10631	-2.73121
0.22521	2.21730
0.19971	1.37554
-0.10631	-0.53754
-0.36133	-0.89465
0.02119	0.76336
0.93925	0.86539
-0.20832	0.35523
0.37822	0.45726
0.42922	0.30422
-0.10631	0.89089
-0.05531	0.66132
0.50573	0.38074
0.55673	-1.40480
0.12320	-1.12422
-0.43783	0.89089
-0.13181	-1.76191
0.07220	0.83988
0.07220	1.29902
0.32721	-0.33348
0.19971	0.83988
0.22521	0.89089
0.25071	-0.20594
0.14870	-0.33348
0.14870	0.55929
0.14870	0.66132
0.09770	-0.89465
0.25071	1.01843
0.27621	0.45726
0.09770	-0.43551
0.17421	0.32972
-0.00431	-2.34859
0.12320	1.06945
0.09770	1.27351
0.22521	0.66132
0.40372	-0.20594
-0.05531	0.66132
0.02119	0.43176
0.17421	0.32972
0.22521	-0.51203
0.02119	0.76336
-0.05531	-1.91496
0.27621	0.66132
0.55673	-0.00188
-0.02981	0.76336
-0.00431	0.55929
0.32721	-0.15492
0.09770	-0.38449
0.19971	0.53379
0.17421	-0.53754
0.12320	0.20219
0.12320	0.15117
0.25071	0.50828
0.40372	0.63582
-0.00431	0.25320
0.04670	0.15117
-0.10631	1.04394
-0.10631	-0.05289
0.73524	-0.00188
0.12320	0.22769
0.07220	-2.42511
-0.20832	-0.48652
0.32721	1.60511
0.14870	1.27351
0.19971	-0.02739
0.07220	-0.05289
0.14870	0.99292
0.09770	-0.28246
0.14870	-0.05289
0.14870	0.68683
0.32721	0.20219
0.09770	0.12566
0.02119	0.73785
0.04670	-0.15492
0.22521	-2.42511
0.30171	1.01843
0.19971	-0.30797
-0.10631	0.94191
0.17421	0.81437
0.19971	0.50828
0.42922	-0.20594
0.17421	0.68683
0.02119	-0.18043
0.19971	-0.10391
-0.15732	0.38074
0.27621	0.22769
0.27621	0.10015
0.09770	-0.43551
0.14870	0.81437
0.12320	0.20219
-0.00431	0.61031
0.14870	0.17668
0.12320	0.58480
-0.05531	-2.98628
0.17421	1.24800
0.35272	0.66132
0.30171	-1.22625
0.22521	1.12046
0.19971	0.83988
0.22521	-0.28246
0.09770	0.61031
-0.08081	0.61031
0.17421	0.10015
-0.20832	0.02363
0.25071	0.76336
0.32721	-1.04770
0.22521	0.71234
0.12320	0.40625
0.25071	-0.15492
0.04670	0.30422
-0.13181	-0.20594
-0.00431	-0.76711
0.22521	0.10015
0.19971	-0.10391
0.19971	1.04394
0.14870	0.04914
0.09770	1.32453
0.27621	0.50828
0.27621	-2.09351
0.12320	-1.14973
0.02119	1.27351
0.09770	0.99292
0.45472	-0.10391
0.27621	1.40105
0.04670	0.91640
-0.28482	0.40625
0.02119	0.86539
-0.08081	-1.53234
0.25071	-2.24656
0.17421	0.45726
0.22521	1.22250
0.19971	0.55929
0.35272	-0.89465
0.25071	-0.10391
0.07220	0.68683
0.25071	0.32972
0.17421	0.71234
-0.13181	-0.51203
0.14870	0.40625
-0.02981	0.32972
0.09770	0.17668
0.42922	-0.51203
-0.08081	-0.30797
0.53123	0.96742
0.42922	0.45726
0.19971	0.58480
-0.10631	-0.18043
-0.08081	0.53379
0.07220	-1.09871
0.14870	-0.66508
0.17421	0.68683
0.12320	0.71234
0.19971	-0.63957
0.14870	0.22769
0.17421	-0.76711
0.22521	1.22250
0.09770	0.86539
0.22521	0.35523
0.17421	-1.30277
0.04670	0.32972
0.14870	1.40105
0.04670	-0.63957
0.12320	-0.23145
0.17421	0.58480
0.27621	0.68683
0.25071	-0.15492
-0.05531	0.58480
0.32721	-0.38449
0.14870	-0.10391
0.02119	0.02363
0.07220	0.15117
0.09770	0.02363
0.22521	0.12566
0.09770	-0.38449
0.32721	0.27871
0.07220	0.48277
0.22521	0.25320
0.22521	-0.56305
0.30171	0.02363
0.04670	0.38074
-0.05531	0.55929
-0.23382	0.10015
0.40372	0.61031
0.30171	0.50828
0.19971	-0.15492
0.14870	-0.92016
0.12320	1.42656
-0.10631	-1.71090
-0.00431	0.78886
0.07220	-0.41000
0.32721	1.40105
0.19971	-0.38449
0.35272	-0.23145
0.12320	0.35523
0.07220	0.76336
0.25071	-0.66508
0.14870	0.38074
0.14870	0.15117
0.09770	-0.07840
0.25071	0.66132
0.12320	0.50828
0.22521	-1.07320
-0.13181	0.30422
0.22521	0.12566
0.30171	0.96742
0.04670	0.25320
0.19971	-0.46102
0.14870	0.53379
0.07220	0.53379
-0.13181	-0.43551
0.50573	0.30422
0.30171	0.76336
0.04670	0.30422
0.22521	0.76336
0.14870	0.02363
0.12320	-1.32828
0.09770	-1.78742
0.12320	1.88570
0.25071	1.14597
0.17421	0.22769
0.12320	0.68683
-0.13181	-0.25695
0.19971	0.25320
0.45472	-0.71609
-0.10631	0.45726
0.14870	0.25320
0.25071	-0.10391
0.12320	0.04914
0.17421	-0.25695
0.02119	-0.02739
0.12320	0.22769
0.30171	0.38074
0.19971	0.35523
0.19971	0.27871
-0.02981	-1.02219
0.09770	-0.10391
0.22521	0.99292
0.37822	1.12046
0.30171	0.10015
0.27621	-0.33348
0.04670	-0.05289
-0.18282	0.32972
0.27621	0.53379
0.25071	0.50828
0.17421	0.27871
-0.05531	-0.23145
0.27621	-0.79262
0.17421	-0.76711
0.09770	0.04914
0.12320	1.27351
0.19971	1.14597
0.14870	0.32972
0.14870	0.22769
0.17421	0.53379
0.09770	-0.46102
0.17421	1.09496
0.17421	0.78886
0.02119	-0.53754
0.25071	-1.81293
0.19971	0.12566
0.14870	0.25320
0.09770	0.61031
0.04670	0.66132
0.07220	0.02363
0.02119	-0.53754
0.30171	0.35523
0.14870	0.43176
0.30171	0.27871
-0.13181	-0.05289
0.02119	0.45726
0.42922	0.20219
0.35272	-0.69059
0.14870	0.99292
0.07220	0.68683
-0.13181	0.12566
-0.18282	-0.71609
0.32721	0.43176
0.19971	0.43176
0.12320	-1.17523
0.25071	-0.00188
0.48022	0.86539
0.02119	0.66132
-0.00431	0.20219
0.14870	0.17668
0.14870	0.20219
0.17421	-0.05289
0.32721	-0.23145
0.22521	0.63582
0.12320	-0.79262
-0.10631	0.10015
0.19971	0.89089
0.07220	0.30422
0.09770	0.40625
0.22521	-0.23145
0.27621	-1.58336
0.04670	0.15117
0.14870	0.48277
0.02119	0.83988
0.27621	0.40625
0.27621	1.09496
0.19971	-0.05289
0.07220	-1.43031
0.12320	-0.92016
0.27621	0.66132
0.22521	1.22250
0.12320	0.71234
-0.02981	0.71234
0.14870	0.12566
0.09770	-0.30797
0.07220	-0.38449
-0.02981	-0.15492
0.22521	0.35523
0.12320	0.07465
0.14870	0.20219
0.27621	0.17668
0.30171	0.53379
0.14870	0.32972
0.27621	-0.10391
-0.02981	-0.86914
0.09770	0.27871
0.40372	0.61031
-0.08081	-0.25695
0.09770	0.71234
0.25071	0.45726
0.07220	-0.51203
0.22521	0.68683
-0.05531	0.45726
0.04670	0.22769
0.35272	0.89089
-0.02981	-0.23145
0.32721	-0.63957
0.35272	-0.02739
0.09770	-0.23145
0.17421	0.55929
0.09770	-0.25695
0.12320	0.45726
0.17421	1.70714
0.09770	-1.25176
0.09770	-0.61406
0.02119	1.22250
0.12320	0.66132
0.30171	-0.05289
0.12320	0.17668
0.04670	0.81437
0.14870	0.73785
0.12320	-0.63957
0.22521	-0.07840
0.14870	-0.10391
0.30171	-0.10391
0.19971	0.07465
0.02119	0.66132
-0.05531	-0.00188
-0.02981	-1.40480
0.37822	0.27871
-0.02981	0.58480
0.22521	0.86539
0.27621	1.09496
0.02119	0.58480
-0.02981	-0.33348
0.25071	-0.00188
0.12320	-0.15492
0.19971	0.76336
0.27621	0.27871
0.22521	-1.27726
0.07220	-0.35899
0.02119	0.83988
0.09770	0.83988
0.17421	0.55929
0.19971	-0.46102
0.32721	0.15117
0.30171	-0.76711
-0.00431	0.89089
0.12320	-0.23145
0.02119	-0.00188
0.22521	0.04914
0.12320	0.61031
0.14870	0.25320
0.14870	0.15117
0.22521	-0.33348
0.09770	0.38074
0.17421	0.35523
0.09770	-0.43551
0.22521	-0.18043
0.30171	0.78886
-0.13181	0.15117
0.30171	1.01843
0.17421	0.86539
0.09770	-3.57296
-0.00431	-0.25695
0.27621	0.66132
0.12320	0.83988
0.30171	0.30422
0.14870	0.61031
0.17421	-0.15492
-0.10631	-0.71609
0.22521	0.86539
0.17421	0.27871
-0.13181	0.66132
0.32721	0.04914
0.14870	0.30422
0.19971	-0.92016
0.04670	0.15117
0.12320	-0.10391
0.07220	0.32972
0.22521	0.38074
0.14870	0.55929
0.22521	0.10015
-0.05531	-0.07840
0.19971	-0.46102
0.27621	0.35523
0.14870	0.43176
0.12320	0.35523
0.19971	-0.02739
0.14870	0.22769
0.25071	0.30422
0.07220	-0.46102
0.02119	1.04394
-0.05531	-0.12942
0.22521	-0.10391
0.45472	0.45726
0.04670	0.30422
0.27621	0.25320
0.17421	0.15117
0.27621	-2.39961
0.12320	0.68683
0.14870	0.94191
0.12320	0.66132
0.07220	0.66132
0.02119	-0.18043
0.17421	-0.02739
0.19971	0.35523
0.04670	0.35523
0.25071	0.22769
0.07220	0.35523
0.09770	0.04914
0.22521	0.04914
0.27621	0.07465
0.14870	-0.35899
0.14870	0.38074
0.02119	-0.58856
0.14870	0.45726
0.22521	-1.78742
0.19971	0.94191
0.12320	1.32453
0.12320	-0.00188
0.27621	0.66132
0.07220	0.71234
0.27621	0.38074
0.12320	-0.86914
0.09770	-0.05289
-0.18282	0.89089
0.27621	0.45726
0.25071	0.66132
0.19971	-0.07840
0.22521	-0.30797
0.22521	0.78886
0.07220	-0.89465
0.22521	0.53379
0.02119	0.04914
0.07220	0.32972
0.12320	0.25320
0.30171	-0.05289
0.14870	0.73785
0.07220	0.73785
0.19971	0.35523
0.02119	-0.38449
0.14870	-0.81812
0.17421	0.12566
0.25071	0.02363
0.25071	-0.02739
-0.18282	0.02363
0.22521	0.25320
0.32721	0.66132
0.09770	0.63582
0.37822	0.53379
0.09770	0.96742
0.35272	-1.55785
-0.00431	0.10015
0.02119	0.43176
0.30171	-0.46102
0.22521	-0.63957
0.04670	0.89089
0.02119	0.61031
-0.05531	0.43176
0.09770	0.78886
0.30171	0.76336
0.22521	0.58480
0.37822	-0.05289
0.14870	-0.76711
0.02119	-0.58856
0.17421	0.10015
0.12320	0.12566
0.17421	0.40625
0.12320	-0.07840
0.12320	0.78886
0.14870	0.81437
0.12320	-1.35379
0.12320	0.68683
0.09770	0.20219
0.27621	-0.25695
0.12320	0.30422
0.14870	0.40625
0.14870	-0.23145
0.09770	0.25320
0.04670	0.35523
0.12320	-0.33348
0.22521	0.04914
0.25071	0.22769
0.07220	0.48277
0.35272	0.27871
-0.00431	-0.00188
-0.15732	0.45726
0.07220	-0.92016
0.40372	1.60511
0.04670	1.32453
-0.00431	-1.17523
0.19971	-0.30797
0.32721	-0.25695
0.27621	-0.53754
0.17421	0.22769
-0.08081	0.66132
0.25071	0.66132
0.12320	0.27871
0.12320	-0.02739
0.14870	0.45726
0.09770	-0.23145
0.19971	0.43176
-0.15732	0.04914
0.27621	-0.48652
0.12320	0.20219
0.12320	0.04914
0.07220	0.22769
0.12320	0.17668
0.27621	0.83988
0.27621	0.66132
0.32721	1.19699
0.07220	-1.14973
0.19971	-1.27726
0.02119	0.96742
0.22521	0.66132
0.09770	-2.22105
0.02119	1.14597
0.17421	0.81437
0.22521	-0.20594
0.14870	0.66132
0.14870	0.99292
0.25071	0.40625
0.22521	-1.58336
-0.02981	0.38074
0.14870	0.40625
0.09770	0.66132
0.22521	0.27871
0.14870	-0.05289
0.19971	-0.97117
0.17421	-0.61406
0.04670	1.35003
-0.00431	1.09496
0.14870	-0.63957
0.14870	0.15117
0.17421	0.32972
0.17421	0.35523
-0.05531	0.04914
0.17421	0.04914
0.17421	0.10015
0.25071	-0.30797
0.19971	0.50828
-0.08081	-0.10391
0.17421	-0.20594
0.27621	0.27871
0.14870	0.43176
-0.20832	0.66132
0.07220	-0.02739
0.22521	-1.12422
0.53123	0.10015
0.17421	-0.12942
0.12320	0.40625
0.12320	0.48277
0.22521	0.78886
0.07220	0.15117
0.19971	0.66132
0.04670	0.32972
0.02119	0.10015
0.30171	0.30422
0.02119	-1.22625
-0.00431	-0.63957
0.25071	0.48277
0.25071	0.40625
0.02119	0.27871
0.17421	0.71234
0.22521	-0.35899
0.22521	0.22769
0.12320	0.61031
0.12320	-0.35899
0.04670	-1.09871
0.25071	0.07465
0.12320	0.66132
0.22521	0.66132
0.07220	0.32972
0.14870	0.66132
-0.05531	0.63582
0.27621	0.66132
0.32721	-2.06800
0.22521	0.55929
0.22521	0.35523
-0.02981	0.30422
0.14870	0.10015
0.14870	0.10015
0.30171	0.43176
0.12320	-0.12942
0.19971	0.38074
0.09770	-0.15492
0.09770	-0.41000
0.14870	0.30422
0.04670	0.68683
0.32721	0.27871
0.14870	0.12566
0.22521	1.17148
0.02119	-1.17523
0.17421	-0.92016
0.12320	0.50828
0.07220	0.86539
0.07220	1.04394
0.32721	-0.12942
0.25071	-0.79262
-0.02981	0.25320
0.14870	0.50828
0.09770	0.45726
0.27621	1.42656
0.14870	0.32972
0.07220	0.17668
0.12320	-0.86914
0.19971	-0.46102
0.17421	-0.07840
0.09770	0.38074
0.25071	0.10015
0.07220	0.04914
0.09770	0.96742
-0.00431	-0.12942
0.32721	-0.12942
0.25071	-0.02739
0.19971	0.30422
0.17421	0.17668
0.12320	0.04914
0.12320	0.15117
-0.10631	1.12046
0.19971	-0.46102
0.14870	-0.89465
0.22521	0.55929
0.02119	-0.07840
0.32721	0.35523
0.12320	0.63582
0.25071	1.32453
0.07220	-2.27207
0.19971	0.43176
-0.00431	0.40625
0.30171	0.76336
0.09770	0.20219
0.02119	-1.50683
0.19971	0.48277
0.09770	0.83988
0.32721	0.10015
0.17421	-0.05289
0.09770	0.27871
0.04670	0.20219
0.22521	0.15117
0.22521	0.38074
0.19971	0.48277
0.19971	0.15117
0.07220	0.22769
-0.00431	-0.07840
0.35272	-0.02739
0.04670	-0.15492
-0.15732	0.38074
0.07220	0.22769
0.27621	-0.41000
0.37822	0.63582
0.19971	0.66132
0.07220	0.50828
0.30171	-1.65988
0.09770	0.50828
0.07220	-0.92016
0.19971	0.68683
0.14870	0.45726
0.14870	0.76336
0.12320	0.04914
0.22521	0.27871
0.07220	-0.07840
0.19971	-0.00188
0.04670	0.15117
0.07220	0.22769
0.30171	0.04914
0.22521	0.53379
0.02119	0.12566
0.19971	-0.48652
0.12320	0.63582
0.09770	-0.43551
0.07220	-0.53754
0.32721	-0.23145
0.07220	0.02363
0.09770	0.73785
0.07220	0.48277
0.22521	0.45726
0.19971	-0.15492
0.12320	0.35523
0.09770	0.45726
0.17421	0.04914
0.02119	0.07465
0.14870	-0.07840
0.27621	0.30422
0.25071	0.53379
0.07220	-0.51203
-0.02981	-0.79262
0.19971	-0.25695
0.22521	0.17668
0.04670	0.68683
0.22521	0.45726
0.27621	0.32972
0.17421	0.45726
-0.00431	-0.28246
0.12320	0.27871
-0.08081	0.32972
0.14870	0.22769
0.07220	-0.07840
0.04670	-0.28246
0.25071	0.50828
0.25071	0.45726
0.17421	-1.30277
0.02119	0.63582
0.09770	-0.30797
0.27621	0.55929
0.25071	0.63582
0.12320	-0.12942
0.09770	0.50828
0.09770	-0.35899
0.12320	0.58480
0.19971	-0.30797
0.22521	0.66132
0.19971	0.86539
0.12320	-0.66508
0.19971	0.27871
0.12320	-1.04770
0.14870	-0.18043
-0.00431	0.94191
0.09770	0.89089
0.25071	-0.07840
0.25071	0.25320
0.12320	0.04914
0.09770	0.35523
-0.00431	-0.18043
0.32721	-0.43551
-0.02981	0.27871
0.25071	0.20219
0.17421	0.43176
0.14870	0.22769
0.04670	-0.61406
0.19971	0.27871
-0.02981	0.58480
0.25071	-0.84363
0.42922	0.83988
-0.08081	0.55929
-0.02981	0.91640
0.32721	-0.58856
0.30171	-0.48652
-0.02981	-0.20594
0.09770	1.04394
-0.02981	0.17668
0.12320	0.76336
0.30171	0.89089
0.27621	-0.15492
0.17421	0.07465
0.30171	-0.23145
0.12320	0.83988
0.14870	-0.58856
0.14870	-0.15492
0.09770	0.12566
-0.13181	0.71234
0.19971	-1.20074
0.35272	-0.58856
0.14870	1.14597
0.27621	-0.25695
0.09770	0.17668
0.04670	0.61031
0.22521	0.22769
0.09770	0.53379
0.14870	0.53379
0.25071	0.40625
0.07220	0.48277
-0.02981	-1.43031
0.07220	0.43176
0.30171	0.35523
0.19971	-0.18043
0.30171	0.12566
-0.15732	-0.00188
0.32721	0.40625
0.25071	-0.02739
0.12320	-0.28246
0.09770	0.20219
0.25071	0.15117
-0.00431	0.10015
0.19971	0.20219
0.09770	-0.10391
0.12320	-0.10391
0.14870	0.63582
0.12320	0.45726
0.14870	0.25320
0.19971	-0.23145
0.07220	0.15117
-0.02981	0.04914
0.22521	-0.76711
0.22521	0.30422
0.17421	0.94191
0.19971	1.04394
0.09770	1.09496
0.22521	-1.99148
0.07220	-0.97117
0.12320	0.43176
0.09770	0.35523
0.02119	0.45726
0.22521	0.81437
0.14870	0.27871
0.14870	-0.25695
0.09770	0.22769
0.09770	0.58480
0.22521	-0.86914
-0.10631	-0.07840
0.30171	-1.53234
0.14870	1.01843
0.19971	0.73785
0.14870	-0.30797
0.25071	0.66132
0.17421	1.60511
0.22521	-0.76711
0.12320	0.15117
0.02119	0.30422
0.25071	0.55929
0.09770	0.02363
0.19971	0.35523
0.07220	0.32972
0.22521	-0.69059
0.04670	0.38074
0.09770	0.04914
0.09770	-0.41000
0.37822	0.81437
0.09770	0.81437
0.17421	0.38074
0.17421	0.50828
0.07220	-1.27726
0.12320	0.17668
0.12320	0.50828
0.32721	0.04914
0.09770	-0.53754
0.14870	0.40625
0.14870	0.25320
0.07220	0.40625
0.19971	0.40625
0.17421	-0.02739
0.09770	0.27871
0.17421	0.43176
0.17421	-0.10391
-0.00431	-0.02739
0.12320	0.12566
0.32721	-0.15492
0.12320	0.07465
0.22521	-0.48652
0.12320	1.57960
0.09770	0.20219
0.12320	0.15117
0.19971	0.32972
0.02119	-3.31788
0.19971	1.22250
0.09770	1.24800
0.22521	0.94191
0.09770	0.25320
0.22521	0.86539
0.09770	0.04914
0.19971	-0.15492
0.07220	0.04914
0.17421	-0.28246
-0.00431	-0.30797
0.27621	0.25320
0.17421	0.25320
0.12320	-0.12942
0.14870	-0.35899
0.12320	0.50828
0.14870	-0.02739
0.09770	0.25320
0.19971	1.57960
0.07220	0.45726
0.14870	-0.46102
0.17421	-1.91496
0.14870	0.32972
0.17421	0.81437
0.14870	-0.18043
0.12320	0.35523
0.14870	0.25320
0.19971	0.68683
0.17421	0.66132
0.07220	0.61031
0.22521	-0.28246
-0.08081	-1.27726
0.17421	-0.38449
0.17421	0.96742
0.22521	0.35523
0.19971	0.15117
0.25071	-0.07840
0.19971	-0.00188
-0.08081	-0.38449
0.19971	0.35523
0.19971	0.20219
0.22521	-0.43551
0.04670	-0.00188
0.27621	0.55929
0.17421	0.17668
0.14870	0.40625
0.25071	0.25320
0.12320	0.40625
0.02119	-1.43031
0.09770	-0.79262
0.17421	0.45726
0.12320	0.73785
0.09770	0.43176
0.27621	0.43176
0.07220	0.02363
0.22521	0.43176
0.14870	0.81437
0.12320	-0.51203
0.22521	-0.28246
0.19971	0.76336
0.07220	0.45726
0.12320	-1.12422
0.17421	0.35523
0.17421	0.83988
0.12320	0.32972
0.25071	0.25320
0.04670	-0.10391
0.19971	0.12566
0.27621	-0.05289
0.25071	0.20219
0.12320	0.12566
0.17421	-0.41000
0.14870	-0.05289
0.07220	0.40625
-0.00431	0.10015
0.35272	0.25320
0.19971	0.45726
0.25071	0.45726
-0.00431	0.45726
0.22521	-0.66508
0.30171	-0.30797
0.14870	-0.05289
-0.15732	0.99292
0.14870	0.81437
0.22521	0.94191
0.17421	-0.51203
0.17421	0.35523
0.09770	0.25320
0.19971	0.30422
0.17421	-0.23145
0.19971	-0.89465
0.09770	0.53379
0.19971	1.01843
0.02119	-0.79262
0.19971	0.25320
0.14870	0.73785
0.27621	0.04914
0.12320	0.27871
0.19971	-0.02739
0.17421	0.22769
0.27621	0.32972
0.17421	0.20219
0.27621	0.55929
-0.25932	-0.02739
0.09770	0.15117
0.30171	0.15117
0.22521	0.25320
0.14870	-0.51203
0.19971	-0.20594
0.04670	1.04394
0.27621	0.83988
0.07220	-1.02219
0.22521	0.35523
-0.05531	-0.15492
0.02119	-0.00188
0.37822	0.63582
0.17421	0.63582
0.12320	-0.10391
0.12320	-0.05289
0.09770	0.45726
0.17421	0.86539
0.09770	-0.15492
0.30171	-0.00188
0.09770	-0.10391
0.22521	-0.89465
0.04670	1.73265
-0.05531	-0.38449
0.27621	-0.92016
0.14870	-2.06800
0.02119	0.96742
0.07220	0.55929
0.30171	0.68683
0.25071	0.91640
0.12320	0.61031
0.25071	-0.07840
-0.10631	-0.71609
0.12320	0.17668
0.12320	0.81437
0.22521	0.35523
0.19971	-0.20594
0.17421	0.12566
0.07220	0.55929
0.07220	-1.20074
-0.02981	0.32972
-0.05531	0.22769
0.19971	-0.25695
0.19971	0.53379
0.35272	0.71234
0.22521	0.15117
0.14870	-0.71609
0.17421	0.45726
0.14870	0.32972
-0.05531	0.04914
0.17421	0.48277
0.19971	0.07465
0.12320	-0.12942
0.27621	-0.35899
0.12320	0.76336
0.17421	0.73785
0.14870	-0.92016
0.12320	-0.46102
0.09770	0.91640
0.12320	0.58480
0.27621	-0.18043
0.07220	0.55929
0.25071	0.66132
-0.05531	0.76336
0.17421	-0.51203
0.25071	-0.30797
0.04670	0.15117
0.19971	-0.23145
0.12320	0.48277
0.12320	0.15117
0.17421	0.43176
0.04670	-0.84363
0.12320	0.45726
0.19971	0.45726
0.12320	0.40625
0.14870	-0.56305
0.27621	0.48277
0.19971	1.22250
0.14870	-0.28246
0.04670	-1.83844
0.12320	0.35523
0.12320	0.81437
0.09770	0.63582
0.22521	0.61031
0.09770	0.32972
0.27621	-0.15492
0.02119	-0.25695
0.22521	0.30422
0.07220	0.02363
0.07220	0.22769
0.14870	0.07465
0.09770	-0.18043
0.25071	0.53379
0.22521	0.07465
0.22521	0.35523
-0.10631	0.35523
-0.05531	0.22769
0.37822	0.07465
0.22521	1.17148
0.09770	-1.02219
0.25071	-0.41000
0.19971	0.55929
0.17421	-0.05289
0.17421	0.40625
0.07220	0.45726
0.14870	-0.05289
0.02119	-0.23145
0.22521	0.63582
0.27621	0.45726
0.19971	0.04914
0.17421	0.40625
0.04670	1.14597
0.25071	-0.86914
0.04670	0.30422
0.09770	-2.09351
0.14870	0.73785
0.17421	0.66132
0.19971	0.50828
0.07220	0.40625
0.22521	0.12566
0.07220	0.55929
0.19971	0.27871
0.22521	-0.63957
0.02119	-0.74160
0.27621	0.63582
0.17421	0.68683
0.12320	0.66132
0.12320	0.96742
0.17421	-4.00659
0.17421	0.55929
0.04670	0.53379
0.19971	0.86539
0.07220	1.40105
0.30171	0.04914
0.09770	0.43176
0.09770	-0.30797
0.07220	-0.28246
0.09770	0.27871
0.25071	0.07465
0.22521	0.38074
0.12320	0.25320
-0.08081	-0.81812
0.19971	0.32972
0.14870	-1.27726
0.25071	0.50828
0.07220	0.96742
0.32721	1.45206
0.12320	0.71234
0.12320	-0.28246
0.09770	-0.71609
0.17421	0.15117
0.02119	-0.15492
0.17421	0.38074
0.12320	0.30422
0.19971	0.45726
0.12320	0.15117
0.25071	-0.35899
0.12320	0.30422
0.07220	0.02363
0.14870	0.07465
0.09770	0.55929
0.12320	0.38074
0.19971	-1.35379
0.17421	0.45726
0.17421	0.76336
0.17421	0.40625
0.19971	0.71234
0.07220	0.96742
0.25071	-0.20594
0.02119	-0.89465
0.17421	0.38074
0.17421	0.45726
0.12320	0.17668
0.12320	-0.02739
0.17421	-0.63957
0.19971	0.76336
0.09770	0.91640
0.19971	0.71234
0.09770	-0.33348
0.09770	-0.15492
0.09770	-0.30797
0.02119	-0.10391
0.09770	0.22769
0.22521	0.61031
0.25071	0.30422
0.07220	-0.66508
0.32721	-0.71609
0.17421	0.83988
0.14870	1.60511
0.02119	-0.86914
-0.02981	-1.53234
0.19971	0.43176
0.02119	0.63582
0.14870	1.04394
0.19971	0.73785
0.12320	0.25320
0.19971	0.43176
0.02119	0.04914
0.22521	0.10015
0.07220	-0.25695
0.17421	-1.27726
0.27621	0.68683
0.12320	-0.05289
0.19971	0.27871
0.04670	0.55929
0.32721	0.61031
0.25071	0.17668
0.17421	0.73785
0.02119	-0.74160
0.07220	-0.51203
0.22521	0.86539
0.07220	0.55929
0.14870	0.43176
0.19971	0.04914
0.25071	0.27871
0.07220	0.02363
0.07220	0.27871
0.12320	-0.05289
0.17421	0.40625
0.17421	0.32972
0.14870	0.10015
0.22521	0.07465
0.19971	-0.12942
0.17421	-0.58856
0.09770	0.63582
0.04670	0.55929
0.07220	-0.76711
0.17421	0.22769
0.32721	0.58480
0.12320	0.20219
0.19971	0.45726
0.12320	0.35523
0.14870	0.02363
0.07220	0.12566
0.25071	-0.15492
0.02119	-0.41000
0.02119	0.58480
0.07220	0.55929
0.27621	0.04914
0.12320	0.04914
0.12320	-1.63437
0.17421	0.63582
0.27621	0.58480
0.19971	0.89089
0.09770	0.58480
0.02119	-0.25695
0.35272	0.43176
0.09770	0.32972
0.17421	0.38074
0.02119	0.02363
0.22521	0.48277
0.14870	0.27871
0.22521	-0.28246
0.12320	-0.81812
0.09770	0.45726
0.12320	0.35523
0.17421	-0.00188
0.19971	-0.53754
0.09770	0.40625
0.14870	0.32972
0.25071	0.25320
-0.02981	0.20219
0.07220	0.20219
0.30171	0.25320
0.14870	0.17668
0.22521	0.40625
0.09770	0.55929
0.12320	-1.27726
0.12320	0.58480
0.22521	0.86539
0.04670	-0.15492
0.17421	0.32972
0.12320	0.73785
0.27621	-0.25695
0.04670	0.10015
0.14870	0.17668
0.17421	-0.18043
0.02119	-0.05289
0.19971	-0.30797
0.19971	-0.18043
0.27621	0.99292
0.12320	0.53379
0.12320	0.48277
0.12320	0.32972
0.12320	-0.53754
0.12320	0.68683
0.17421	0.27871
0.22521	0.07465
-0.10631	-0.33348
0.09770	-0.00188
0.32721	0.02363
0.25071	0.17668
0.17421	0.32972
0.02119	0.32972
0.22521	0.22769
0.12320	0.48277
0.14870	-0.79262
0.12320	0.38074
0.04670	0.40625
0.14870	0.35523
0.02119	0.73785
0.12320	-0.56305
0.14870	0.71234
0.22521	0.38074
0.22521	-0.84363
0.12320	0.17668
0.14870	0.96742
0.09770	0.38074
0.12320	-0.53754
0.19971	0.15117
0.30171	0.27871
0.17421	-0.30797
0.19971	0.40625
0.25071	0.20219
0.04670	0.10015
-0.02981	0.30422
0.17421	0.71234
0.30171	-0.23145
0.07220	-0.05289
0.17421	0.76336
0.04670	-0.23145
0.27621	-0.25695
0.17421	0.55929
0.25071	0.35523
0.17421	-0.41000
0.14870	0.58480
0.07220	0.73785
-0.02981	0.58480
0.22521	-0.23145
0.19971	-0.05289
0.22521	0.53379
0.17421	0.07465
0.09770	0.10015
0.12320	-0.53754
0.17421	-1.53234
0.07220	0.32972
0.14870	1.24800
0.12320	1.17148
0.17421	0.45726
0.09770	-0.25695
0.19971	-0.33348
0.22521	0.73785
0.14870	0.04914
0.19971	-0.07840
0.09770	0.07465
0.22521	-0.00188
-0.00431	-0.00188
0.12320	-0.28246
0.02119	-0.41000
0.27621	0.30422
0.19971	0.35523
0.14870	-0.46102
0.07220	0.66132
0.17421	0.55929
0.17421	0.61031
0.12320	0.32972
0.22521	0.99292
0.17421	0.25320
0.17421	0.04914
0.14870	0.20219
0.12320	0.73785
0.09770	-2.55265
0.12320	0.96742
0.17421	1.14597
0.14870	-0.38449
0.04670	-0.48652
0.22521	0.94191
0.19971	0.48277
0.17421	0.25320
0.17421	0.58480
0.07220	-1.53234
-0.00431	0.12566
0.27621	0.15117
0.32721	0.40625
0.09770	0.40625
0.22521	0.63582
0.12320	-0.18043
0.14870	0.20219
0.14870	-0.38449
0.12320	0.07465
0.19971	0.40625
0.04670	-0.00188
0.25071	0.02363
-0.05531	0.40625
0.07220	-0.07840
0.32721	0.27871
0.22521	0.35523
0.19971	0.55929
0.12320	0.27871
0.07220	0.04914
0.17421	0.02363
0.09770	0.17668
0.14870	-0.05289
0.12320	0.76336
-0.00431	-0.41000
0.22521	0.15117
0.12320	-0.05289
0.12320	0.50828
0.19971	0.76336
0.04670	0.48277
0.12320	-0.76711
0.12320	-0.30797
0.19971	0.38074
0.27621	0.02363
0.12320	0.48277
0.09770	0.73785
0.07220	0.02363
0.19971	-0.48652
0.22521	0.43176
0.02119	0.53379
0.02119	-0.89465
0.30171	-0.07840
0.17421	0.43176
0.04670	0.40625
0.22521	-0.07840
0.22521	0.07465
0.14870	0.07465
0.12320	0.38074
0.17421	0.40625
0.12320	-0.12942
0.27621	0.61031
0.17421	-0.05289
0.19971	0.45726
-0.08081	-0.28246
-0.08081	0.45726
0.30171	-1.81293
0.25071	1.50308
0.22521	0.53379
0.17421	0.02363
0.12320	-0.05289
0.19971	0.55929
0.07220	0.12566
0.12320	-0.92016
0.09770	0.30422
0.12320	0.71234
0.22521	0.63582
0.17421	0.15117
0.09770	-1.20074
0.19971	0.22769
0.27621	0.55929
0.09770	0.68683
0.12320	0.17668
0.09770	0.10015
0.09770	0.48277
0.17421	-0.38449
0.25071	0.73785
0.12320	-0.18043
-0.02981	0.15117
0.07220	0.68683
0.32721	-0.25695
0.22521	0.30422
0.22521	0.04914
0.09770	0.43176
0.12320	0.25320
0.22521	0.63582
0.09770	-0.86914
-0.00431	0.48277
0.17421	0.43176
0.09770	0.10015
0.27621	0.17668
0.12320	-0.05289
0.12320	0.04914
-0.00431	0.43176
0.14870	-0.10391
0.12320	0.15117
0.30171	0.25320
0.09770	0.27871
0.35272	0.12566
0.14870	0.15117
0.12320	0.04914
0.14870	0.22769
0.17421	0.15117
0.07220	-0.30797
0.09770	0.02363
0.09770	0.35523
0.07220	0.58480
0.22521	0.15117
0.09770	-1.60887
0.22521	0.20219
0.07220	0.96742
0.17421	0.76336
-0.00431	0.25320
0.35272	0.30422
0.14870	-0.71609
0.07220	0.50828
0.14870	0.45726
0.07220	-0.33348
0.14870	1.14597
0.14870	-1.40480
0.12320	0.15117
0.14870	0.38074
0.22521	0.53379
0.02119	0.45726
0.17421	-0.46102
0.17421	0.27871
0.25071	0.02363
0.07220	0.32972
0.09770	-0.48652
0.12320	0.81437
0.27621	0.55929
0.14870	0.66132
0.14870	-1.91496
0.19971	0.35523
0.19971	0.45726
0.17421	0.61031
0.19971	0.22769
0.07220	0.12566
0.09770	0.25320
0.17421	0.10015
0.22521	-0.63957
0.04670	-0.02739
0.30171	-0.07840
0.14870	0.32972
0.22521	0.50828
0.02119	0.53379
0.22521	0.50828
0.04670	0.15117
0.17421	-0.25695
0.12320	0.22769
0.04670	-0.28246
0.09770	0.25320
0.25071	0.07465
0.09770	0.40625
0.12320	-0.05289
0.12320	0.45726
0.17421	0.40625
0.07220	0.96742
0.19971	-0.07840
0.07220	0.15117
0.19971	-1.37929
0.22521	0.38074
0.07220	0.10015
0.19971	-0.33348
0.07220	-0.56305
0.19971	0.96742
0.09770	0.20219
0.14870	0.61031
0.17421	0.12566
0.14870	0.38074
0.12320	0.07465
0.09770	0.10015
0.22521	0.32972
-0.00431	0.22769
0.09770	0.68683
0.27621	-0.63957
0.12320	-1.86394
0.19971	0.73785
0.09770	1.35003
0.17421	0.32972
0.09770	0.22769
-0.05531	0.35523
0.12320	-0.10391
0.12320	0.27871
0.14870	0.17668
0.22521	0.12566
0.19971	0.20219
0.22521	0.15117
0.14870	0.48277
0.09770	0.30422
0.12320	-0.97117
0.12320	0.25320
0.14870	0.35523
0.17421	0.32972
0.09770	-0.63957
0.17421	0.50828
0.09770	0.91640
0.27621	-0.25695
0.22521	0.17668
0.14870	0.15117
0.02119	0.17668
0.04670	0.58480
0.09770	0.02363
0.25071	0.20219
0.30171	-0.46102
0.12320	-0.00188
0.12320	0.53379
-0.00431	1.42656
0.17421	-0.18043
0.09770	-0.81812
0.19971	-0.41000
0.14870	-0.20594
0.19971	-0.41000
0.02119	0.73785
0.17421	0.38074
0.07220	0.78886
0.19971	-1.37929
0.17421	0.73785
0.19971	0.07465
0.17421	0.25320
0.17421	0.73785
0.14870	0.35523
0.12320	0.15117
0.14870	0.30422
0.14870	-0.15492
0.12320	0.25320
0.12320	-0.05289
0.22521	0.17668
0.07220	-0.00188
0.25071	-0.07840
0.17421	-0.43551
0.12320	0.40625
0.12320	-0.12942
0.04670	0.30422
0.19971	0.35523
0.19971	0.22769
0.25071	0.55929
0.02119	0.07465
-0.02981	-0.00188
0.19971	0.17668
0.30171	0.10015
0.30171	0.07465
0.19971	0.15117
0.22521	0.35523
-0.05531	0.15117
0.07220	0.17668
0.07220	-0.18043
0.17421	0.83988
0.12320	0.48277
0.09770	1.60511
0.22521	-2.70570
0.09770	-0.20594
0.22521	0.25320
0.12320	0.63582
0.22521	0.73785
0.22521	0.45726
-0.02981	0.17668
0.09770	0.20219
0.14870	0.07465
0.30171	-0.00188
0.27621	0.27871
0.02119	-1.07320
0.17421	0.15117
0.12320	-0.66508
-0.00431	0.63582
0.14870	1.06945
0.25071	0.58480
0.09770	0.22769
0.12320	-0.05289
0.19971	-0.15492
0.17421	0.04914
0.14870	0.20219
0.04670	0.04914
0.09770	-0.05289
0.19971	-0.10391
0.04670	-0.12942
-0.02981	0.68683
0.25071	0.48277
0.09770	0.22769
0.27621	0.04914
0.27621	0.04914
0.12320	-0.15492
0.12320	0.22769
-0.05531	0.27871
0.14870	0.27871
0.12320	0.30422
0.30171	0.17668
0.12320	0.12566
0.07220	0.22769
0.12320	0.10015
0.09770	0.07465
0.02119	0.68683
0.17421	-1.68539
0.22521	-0.51203
0.19971	0.50828
0.02119	1.14597
0.14870	0.63582
0.25071	0.04914
0.14870	-0.51203
0.25071	0.81437
0.09770	0.63582
0.19971	0.45726
0.07220	0.30422
0.17421	-0.25695
0.17421	-0.28246
0.12320	-0.51203
0.14870	0.30422
0.14870	0.15117
0.09770	0.76336
0.12320	-0.48652
0.04670	0.66132
0.07220	-0.92016
0.22521	-0.38449
0.17421	-0.02739
0.22521	0.61031
0.09770	0.71234
0.19971	0.48277
0.04670	0.58480
0.09770	-0.20594
0.07220	0.02363
0.25071	0.71234
0.14870	0.17668
0.14870	0.25320
0.19971	-0.18043
0.14870	-0.00188
0.12320	0.22769
0.14870	0.22769
0.22521	-0.51203
0.02119	0.10015
0.22521	0.15117
0.12320	0.22769
0.17421	0.48277
0.02119	0.22769
0.27621	0.10015
0.14870	0.45726
0.25071	0.10015
0.04670	-0.18043
0.27621	-0.15492
0.12320	0.71234
0.14870	0.43176
0.04670	-0.30797
0.30171	0.86539
0.09770	1.40105
0.14870	-1.07320
0.09770	-1.20074
0.12320	0.63582
0.12320	0.45726
0.09770	0.45726
0.19971	-0.35899
0.14870	0.45726
0.14870	-0.30797
0.17421	0.48277
0.17421	0.32972
0.14870	0.61031
0.22521	0.02363
0.14870	-0.23145
0.17421	-0.23145
0.14870	0.25320
0.12320	0.32972
0.14870	0.02363
0.22521	0.15117
0.07220	0.15117
0.12320	0.04914
0.12320	0.30422
0.12320	0.15117
0.19971	-0.07840
-0.00431	-0.07840
0.30171	0.48277
0.09770	-0.43551
0.12320	0.12566
0.12320	0.71234
0.14870	0.40625
0.14870	0.32972
0.14870	0.07465
0.14870	-0.00188
0.09770	0.10015
0.27621	0.32972
0.09770	-0.56305
0.17421	0.17668
0.09770	0.94191
0.09770	0.68683
0.22521	-0.58856
0.12320	-0.58856
0.07220	0.35523
0.14870	-0.43551
0.09770	0.73785
0.25071	0.32972
0.17421	0.22769
0.12320	0.45726
0.19971	0.17668
0.12320	0.43176
0.19971	1.40105
0.02119	-1.83844
0.19971	0.58480
0.17421	-0.35899
0.25071	0.02363
0.07220	0.55929
0.22521	0.68683
0.09770	0.68683
0.14870	0.35523
