0.19971	0.27871
0.12320	0.17668
0.17421	0.20219
0.19971	0.15117
0.19971	0.12566
0.17421	0.02363
0.22521	0.15117
0.07220	0.17668
0.12320	0.15117
0.19971	0.10015
0.12320	0.17668
0.17421	0.17668
0.12320	0.12566
0.14870	0.22769
0.12320	0.07465
0.14870	0.02363
0.22521	0.04914
0.14870	-0.07840
0.09770	0.50828
0.17421	0.32972
0.12320	-0.10391
0.07220	0.76336
0.12320	-0.30797
0.14870	0.48277
0.12320	0.25320
0.22521	0.30422
0.14870	-0.05289
0.09770	0.48277
0.14870	-0.41000
0.14870	0.40625
0.04670	-0.02739
0.14870	0.15117
0.17421	0.53379
0.12320	-0.20594
0.14870	0.22769
0.07220	0.20219
0.17421	0.27871
0.22521	0.17668
0.07220	0.04914
0.12320	0.02363
0.22521	0.10015
0.12320	0.27871
0.09770	0.15117
0.12320	0.17668
0.22521	0.30422
0.14870	-0.05289
0.12320	0.04914
0.27621	0.12566
0.19971	-0.69059
0.09770	0.02363
0.12320	0.61031
0.17421	0.58480
0.12320	0.61031
0.09770	0.30422
0.22521	0.45726
0.14870	0.35523
0.07220	0.12566
0.12320	-0.94566
0.14870	-0.00188
0.12320	0.22769
0.19971	0.38074
0.07220	0.15117
0.22521	0.25320
0.12320	0.04914
0.22521	0.04914
0.14870	-0.02739
0.17421	0.32972
0.12320	0.25320
0.12320	0.12566
0.12320	0.32972
0.25071	-0.71609
0.09770	0.32972
0.12320	0.25320
0.19971	0.35523
0.14870	0.45726
0.12320	0.22769
0.14870	-0.00188
0.25071	0.04914
0.17421	0.27871
0.07220	0.58480
0.14870	-0.89465
0.19971	0.12566
0.12320	0.35523
0.04670	0.15117
0.17421	0.17668
0.19971	0.22769
0.17421	0.25320
0.07220	0.20219
0.09770	0.27871
0.12320	-0.23145
0.22521	0.25320
0.14870	0.20219
0.12320	0.20219
0.19971	0.17668
0.04670	-0.02739
0.12320	0.12566
0.25071	0.25320
0.07220	0.20219
0.19971	0.25320
0.22521	0.17668
0.14870	0.07465
0.07220	0.02363
0.07220	0.25320
0.17421	0.22769
0.09770	0.07465
0.12320	0.04914
0.25071	0.20219
0.09770	0.12566
0.17421	0.30422
0.17421	0.22769
0.09770	0.15117
0.19971	0.22769
0.09770	-0.00188
0.14870	0.12566
0.14870	0.12566
0.07220	0.02363
0.19971	0.15117
0.09770	0.20219
0.14870	0.22769
0.12320	0.32972
0.04670	0.12566
0.17421	0.10015
0.09770	0.10015
0.19971	-0.02739
0.14870	0.07465
0.22521	0.10015
0.17421	0.25320
0.17421	0.22769
0.25071	0.20219
0.09770	0.25320
0.17421	0.22769
0.07220	0.32972
0.12320	0.15117
0.12320	0.25320
0.17421	0.04914
0.14870	-0.35899
0.14870	0.17668
0.09770	-0.18043
0.12320	-0.12942
0.12320	0.73785
0.09770	1.12046
0.25071	-1.48133
0.09770	-0.61406
0.14870	0.27871
0.22521	0.89089
0.09770	0.68683
0.12320	0.55929
0.22521	0.43176
0.12320	0.12566
0.09770	-0.05289
0.09770	0.32972
0.12320	-0.46102
0.14870	-0.05289
0.07220	0.17668
0.14870	0.68683
0.22521	-0.69059
0.07220	-0.58856
0.17421	0.55929
0.17421	0.48277
0.19971	0.81437
0.19971	-0.15492
0.14870	0.22769
0.14870	-0.25695
0.12320	0.12566
0.19971	0.99292
0.07220	0.96742
0.22521	0.78886
0.17421	-2.68019
0.07220	0.25320
0.12320	0.91640
0.22521	0.38074
0.14870	0.58480
0.09770	0.32972
0.12320	-0.02739
0.22521	0.02363
0.14870	-0.00188
0.17421	-0.02739
0.09770	-0.12942
0.12320	-0.12942
0.22521	0.12566
0.17421	0.27871
0.07220	0.15117
0.19971	0.15117
0.14870	0.07465
0.19971	0.10015
0.22521	0.27871
0.12320	0.30422
0.09770	0.27871
0.14870	0.20219
0.19971	0.30422
0.07220	0.38074
0.12320	0.86539
0.12320	-1.71090
0.17421	0.27871
0.07220	0.55929
0.17421	0.38074
0.22521	0.40625
0.09770	0.48277
0.19971	0.02363
0.17421	0.12566
0.09770	0.35523
0.14870	-0.53754
0.14870	0.25320
0.14870	-0.05289
0.17421	0.30422
0.17421	0.04914
0.14870	0.22769
0.25071	0.10015
0.07220	0.02363
0.19971	-1.63437
0.07220	0.35523
0.17421	1.06945
0.12320	0.81437
0.12320	0.76336
0.17421	-0.35899
0.12320	-0.05289
0.22521	0.35523
0.14870	0.22769
0.19971	0.07465
0.19971	0.22769
0.09770	-0.02739
0.12320	-0.00188
0.22521	0.15117
0.12320	0.25320
0.07220	-0.38449
0.12320	0.04914
0.17421	-0.10391
0.09770	0.25320
0.17421	0.38074
0.14870	0.27871
0.12320	0.04914
0.09770	0.12566
0.12320	0.27871
0.14870	0.35523
0.07220	0.25320
0.14870	0.12566
0.22521	0.15117
0.12320	0.07465
0.17421	-0.00188
0.17421	0.12566
0.12320	0.27871
0.09770	0.22769
0.12320	0.22769
0.22521	0.10015
0.14870	-0.00188
0.17421	-0.10391
0.22521	0.07465
0.14870	0.30422
0.07220	0.22769
0.22521	0.15117
0.09770	-0.12942
0.07220	0.15117
0.14870	0.22769
0.12320	0.35523
0.09770	0.43176
0.14870	-0.66508
0.17421	0.68683
0.17421	-0.41000
0.17421	-0.56305
0.14870	0.86539
0.14870	0.78886
0.12320	-0.79262
0.12320	0.43176
0.14870	0.12566
0.09770	0.20219
0.14870	0.48277
0.09770	0.02363
0.25071	0.40625
0.12320	-0.02739
0.19971	-0.10391
0.09770	-0.15492
0.25071	0.30422
0.09770	0.30422
0.14870	0.15117
0.14870	0.32972
0.12320	0.10015
0.19971	-0.07840
0.12320	-0.02739
0.22521	0.15117
0.09770	0.35523
0.22521	0.25320
0.12320	0.25320
0.12320	0.12566
0.12320	-0.15492
0.09770	0.17668
0.25071	0.27871
0.17421	0.20219
0.12320	0.25320
0.19971	0.35523
0.04670	0.10015
0.19971	-0.46102
0.12320	0.22769
0.12320	0.27871
0.14870	0.20219
0.17421	0.30422
0.22521	0.30422
0.04670	0.17668
0.22521	0.45726
0.07220	-0.20594
0.19971	-0.66508
0.09770	-0.53754
0.12320	0.61031
0.14870	0.04914
0.17421	0.58480
0.14870	0.58480
0.14870	0.43176
0.19971	-0.12942
0.07220	0.15117
0.14870	0.15117
0.19971	0.15117
0.14870	-0.00188
0.12320	-0.00188
0.19971	0.07465
0.14870	0.10015
0.07220	0.12566
0.17421	-0.20594
0.19971	-0.56305
0.07220	0.38074
0.14870	0.61031
0.17421	0.43176
0.12320	0.12566
0.09770	-0.00188
0.19971	0.20219
0.17421	0.22769
0.12320	0.15117
0.12320	0.27871
0.14870	0.27871
0.09770	0.15117
0.22521	0.15117
0.14870	-0.10391
0.14870	0.20219
0.17421	0.02363
0.07220	-0.56305
0.12320	0.25320
0.22521	0.63582
0.14870	0.45726
0.14870	0.15117
0.25071	0.27871
0.09770	0.27871
0.12320	0.22769
0.17421	0.17668
0.04670	-0.02739
0.17421	-0.23145
0.12320	0.02363
0.12320	-0.02739
0.12320	0.15117
0.09770	0.22769
0.22521	0.30422
0.09770	0.10015
0.12320	0.20219
0.12320	0.32972
0.14870	0.17668
0.07220	-0.18043
0.17421	0.35523
0.07220	0.25320
0.22521	0.25320
0.07220	-0.07840
0.25071	0.25320
0.09770	0.10015
0.22521	0.27871
0.07220	0.17668
0.19971	0.07465
0.17421	0.15117
0.09770	0.12566
0.22521	0.17668
0.14870	0.25320
0.12320	-0.35899
0.14870	0.25320
0.07220	0.20219
0.19971	0.10015
0.09770	0.94191
0.22521	-1.71090
0.07220	-0.46102
0.22521	0.86539
0.04670	0.94191
0.19971	0.78886
0.04670	-0.15492
0.25071	0.58480
0.19971	0.38074
0.14870	-0.48652
0.17421	-0.25695
0.07220	0.43176
0.19971	0.10015
0.14870	0.10015
0.12320	0.12566
0.19971	0.32972
0.17421	0.15117
0.17421	-0.38449
0.12320	0.15117
0.12320	0.12566
0.19971	0.27871
0.07220	0.22769
0.14870	0.20219
0.22521	0.15117
0.07220	0.15117
0.22521	0.35523
0.12320	0.02363
0.22521	-0.15492
0.14870	-0.02739
0.17421	0.35523
0.22521	0.45726
0.09770	0.15117
0.12320	0.10015
0.14870	0.30422
0.09770	-0.07840
0.14870	0.22769
0.17421	-0.66508
0.09770	0.58480
0.12320	0.83988
0.19971	-0.56305
0.04670	-1.25176
0.14870	0.61031
0.17421	0.58480
0.12320	0.43176
0.04670	0.27871
0.27621	0.40625
0.17421	0.27871
0.09770	-0.05289
0.14870	-0.53754
0.22521	-0.23145
0.12320	0.43176
0.07220	0.55929
0.09770	-0.30797
0.22521	0.27871
0.17421	0.27871
0.07220	-0.07840
0.14870	0.17668
0.22521	0.48277
0.09770	0.15117
0.14870	0.25320
0.22521	0.25320
0.12320	0.12566
0.14870	-0.02739
0.19971	0.15117
0.12320	0.20219
0.07220	0.04914
0.19971	-0.33348
0.14870	0.12566
0.14870	0.32972
0.22521	0.38074
0.14870	0.35523
0.12320	0.04914
0.19971	-0.00188
0.09770	0.38074
0.17421	0.38074
0.12320	0.50828
0.17421	-0.81812
0.22521	-0.00188
0.14870	0.55929
0.14870	0.40625
0.22521	0.45726
0.12320	0.38074
0.12320	0.38074
0.19971	-0.71609
0.17421	0.10015
0.14870	0.17668
0.25071	0.25320
0.14870	-0.10391
0.12320	0.38074
0.17421	0.35523
0.07220	0.17668
0.14870	0.12566
0.04670	0.12566
0.09770	-0.00188
0.22521	0.22769
0.14870	0.25320
0.12320	0.15117
0.22521	0.27871
0.12320	0.02363
0.12320	-0.00188
0.14870	-0.61406
0.04670	0.32972
0.12320	0.25320
0.14870	0.30422
0.09770	0.48277
0.14870	0.15117
0.17421	0.27871
0.09770	0.30422
0.22521	0.10015
0.14870	0.10015
0.07220	0.15117
0.19971	0.20219
0.12320	0.17668
0.07220	0.02363
0.19971	0.04914
0.25071	0.17668
0.12320	0.30422
0.07220	0.32972
0.19971	-0.00188
0.19971	-0.30797
0.07220	-0.05289
0.14870	0.30422
0.19971	0.32972
0.12320	0.17668
0.17421	0.15117
0.22521	0.27871
0.14870	0.40625
0.04670	0.15117
0.25071	0.04914
0.12320	0.10015
0.12320	0.35523
0.22521	0.30422
0.09770	-0.02739
0.12320	-1.32828
0.22521	0.30422
0.14870	0.63582
0.09770	-0.05289
0.17421	0.27871
0.19971	0.96742
0.07220	0.61031
0.12320	0.35523
0.22521	0.35523
0.12320	-0.25695
0.09770	-0.10391
0.12320	0.02363
0.17421	0.10015
0.12320	0.27871
0.22521	-0.41000
0.14870	-0.30797
0.07220	0.22769
0.19971	0.20219
0.17421	0.40625
0.04670	0.38074
0.14870	0.22769
0.22521	0.10015
0.09770	-0.00188
0.09770	0.25320
0.17421	0.32972
0.02119	0.04914
0.12320	0.12566
0.19971	0.30422
0.14870	0.04914
0.14870	0.02363
0.22521	-0.23145
0.07220	0.02363
0.12320	0.25320
0.25071	0.40625
0.07220	0.43176
0.17421	0.32972
0.25071	0.22769
0.09770	-0.56305
0.19971	0.25320
0.14870	-0.20594
0.17421	0.22769
0.14870	0.58480
0.09770	0.53379
0.19971	0.66132
0.17421	0.55929
0.12320	-0.51203
0.22521	0.20219
0.14870	0.12566
0.07220	0.10015
0.12320	0.22769
0.14870	-0.05289
0.07220	-0.00188
0.22521	0.12566
0.14870	0.30422
0.07220	0.96742
0.22521	-2.14453
0.12320	0.40625
0.12320	0.43176
0.12320	0.50828
0.04670	0.45726
0.12320	0.30422
0.22521	0.17668
0.09770	-0.33348
0.14870	0.02363
0.17421	0.38074
0.07220	0.73785
0.19971	0.55929
0.14870	-0.30797
0.09770	-0.81812
0.22521	0.45726
0.14870	0.55929
0.12320	0.89089
0.19971	-1.60887
0.07220	0.04914
0.25071	0.71234
0.14870	0.48277
0.12320	0.35523
0.22521	0.02363
0.12320	0.25320
0.12320	0.20219
0.17421	0.40625
0.14870	-0.69059
0.14870	-0.23145
0.14870	0.17668
0.09770	0.35523
0.17421	0.27871
0.17421	0.55929
0.09770	-0.56305
0.12320	0.04914
0.12320	0.32972
0.09770	0.43176
0.14870	0.48277
0.14870	0.30422
0.12320	0.07465
0.12320	0.10015
0.22521	0.17668
0.14870	0.04914
0.14870	-0.25695
0.25071	0.32972
0.12320	0.20219
0.19971	0.10015
0.19971	-0.28246
0.17421	0.15117
0.12320	0.27871
0.22521	0.38074
0.14870	0.22769
0.14870	0.32972
0.19971	0.30422
0.14870	-0.00188
0.07220	-0.86914
0.22521	0.02363
0.17421	0.48277
0.19971	0.45726
0.19971	0.25320
0.14870	0.12566
0.12320	0.12566
0.07220	0.22769
0.17421	0.53379
0.07220	-0.10391
0.17421	0.35523
0.12320	-0.18043
0.17421	-0.15492
0.14870	-0.07840
0.14870	0.45726
0.12320	0.53379
0.12320	0.71234
0.14870	0.38074
0.12320	-0.92016
0.12320	1.06945
0.12320	-1.04770
0.19971	0.20219
0.27621	0.73785
0.04670	0.38074
0.19971	0.48277
0.14870	0.38074
0.17421	0.20219
0.12320	0.15117
0.07220	-0.18043
0.14870	-0.05289
0.09770	-0.12942
0.22521	0.17668
0.07220	0.07465
0.19971	0.15117
0.09770	0.27871
0.19971	-0.23145
0.14870	0.10015
0.12320	0.20219
0.12320	0.25320
0.07220	0.35523
0.19971	0.43176
0.09770	0.12566
0.12320	0.22769
0.14870	0.12566
0.17421	0.17668
0.17421	0.04914
0.17421	0.07465
0.12320	0.04914
0.17421	0.17668
0.12320	0.25320
0.07220	0.20219
0.19971	0.32972
0.09770	-0.00188
0.12320	0.02363
0.14870	0.04914
0.14870	0.10015
0.22521	0.30422
0.09770	0.15117
0.19971	0.10015
0.09770	0.17668
0.17421	0.53379
0.07220	-0.46102
0.17421	-0.05289
0.14870	0.25320
0.17421	0.48277
0.22521	0.68683
0.09770	0.55929
0.09770	-0.12942
0.22521	0.22769
-0.15732	-1.60887
0.63323	-0.23145
0.60773	0.50828
-0.08081	1.06945
-0.08081	0.66132
-0.10631	-0.79262
0.02119	0.45726
-0.13181	1.37554
0.37822	1.83468
0.32721	-1.40480
0.17421	-1.40480
0.37822	-3.72601
0.42922	1.42656
-0.10631	2.08976
0.12320	1.22250
0.25071	-1.63437
-0.33583	0.02363
-0.15732	-0.63957
-0.00431	2.14077
0.48022	-0.69059
0.76074	1.37554
0.04670	1.47757
0.96476	0.10015
0.58223	-4.66979
-0.61635	1.01843
-0.18282	3.16108
-0.05531	-1.12422
0.02119	2.93151
-0.41233	-5.43503
0.32721	-3.77702
0.19971	2.34484
0.19971	4.38546
0.27621	4.58952
0.35272	-11.07224
0.22521	0.32972
-0.00431	4.20690
0.22521	4.66604
-0.08081	-6.07272
0.81175	1.57960
0.27621	-0.94566
-0.08081	3.33964
-0.43783	2.54890
-0.33583	0.20219
0.22521	-7.60318
0.30171	-4.82284
0.30171	3.64573
0.42922	-8.62350
0.40372	-1.12422
0.19971	4.89561
-0.08081	4.51299
0.07220	5.17620
0.12320	-0.25695
0.40372	-5.12893
0.27621	1.80917
0.22521	2.03874
0.30171	0.07465
0.12320	-2.47613
-0.08081	0.17668
-0.25932	3.00804
-0.66735	-3.67499
-1.12638	-2.34859
0.22521	0.32972
0.81175	-5.00139
0.99026	3.21210
0.93925	3.05905
0.76074	2.11527
0.65874	1.88570
0.35272	1.57960
-0.10631	2.62542
-0.23382	7.95654
-0.20832	2.98253
-0.28482	-6.04721
-0.13181	-13.11286
-0.46334	0.86539
-0.48884	-2.32308
-0.20832	0.25320
0.22521	6.19651
0.48022	5.35475
0.68424	1.73265
0.65874	1.68163
0.53123	-0.30797
0.19971	-0.63957
0.35272	1.12046
-0.13181	-0.79262
-0.08081	-0.58856
0.09770	-2.80773
0.12320	-4.74632
-0.18282	1.12046
0.12320	1.22250
0.04670	2.95702
0.04670	0.83988
0.22521	-4.44022
0.55673	3.26312
0.42922	-1.04770
0.27621	-0.46102
-0.02981	1.88570
-0.00431	0.61031
0.04670	1.27351
0.37822	-5.17995
-0.00431	-0.79262
-0.02981	-1.65988
-0.33583	1.52859
-0.48884	2.24281
0.35272	2.08976
0.42922	3.00804
0.70974	-1.73640
0.50573	0.81437
0.25071	-0.28246
0.25071	-3.54745
0.07220	0.99292
0.02119	2.54890
-0.18282	2.80397
0.14870	-11.99052
0.09770	1.42656
0.12320	-2.45062
0.19971	5.66084
0.22521	-3.16484
0.12320	2.08976
0.17421	3.26312
0.14870	1.06945
0.02119	0.99292
0.12320	0.04914
0.19971	0.22769
0.27621	0.55929
0.27621	-5.02690
0.27621	0.20219
0.17421	1.63062
0.04670	2.54890
-0.15732	3.16108
0.40372	-8.13885
0.27621	-3.13933
0.07220	1.42656
0.30171	3.11007
0.09770	3.92632
0.12320	1.14597
0.12320	-0.48652
0.07220	1.57960
-0.13181	1.22250
0.35272	1.04394
0.27621	0.20219
0.30171	-1.50683
0.19971	-5.38401
0.07220	-0.51203
0.17421	1.47757
0.07220	-1.50683
0.12320	-0.02739
-0.05531	2.03874
0.02119	1.06945
-0.00431	2.29382
0.30171	-1.45582
0.27621	1.37554
0.22521	0.25320
0.19971	1.45206
0.22521	1.96222
0.30171	-2.75671
0.17421	0.58480
0.25071	-1.09871
0.02119	1.35003
0.25071	-0.74160
-0.00431	0.53379
0.09770	0.02363
0.07220	-0.35899
0.12320	0.66132
0.12320	-2.29757
0.02119	-2.45062
0.07220	1.63062
0.12320	4.48749
0.32721	3.51819
0.42922	-6.86346
0.25071	0.73785
0.12320	-0.46102
0.02119	3.18659
-0.00431	1.12046
0.19971	-3.06281
0.07220	1.80917
0.12320	0.04914
0.12320	0.04914
0.17421	2.75296
0.22521	-5.97069
0.17421	-2.27207
0.27621	0.78886
0.02119	3.05905
0.19971	3.31413
0.27621	-5.97069
-0.10631	1.75816
-0.05531	1.27351
-0.02981	2.29382
0.12320	1.80917
0.35272	1.27351
0.19971	1.01843
0.27621	-3.41992
0.19971	0.99292
0.09770	0.22769
0.14870	-1.50683
0.04670	1.37554
0.02119	-0.46102
0.09770	-3.16484
0.09770	1.17148
0.19971	0.22769
0.09770	0.76336
0.14870	0.89089
0.27621	1.83468
0.14870	1.40105
0.19971	1.68163
0.19971	-2.11902
0.17421	-0.71609
0.17421	1.32453
0.09770	-1.45582
0.17421	1.68163
0.07220	-0.23145
0.04670	1.50308
0.12320	2.19179
0.09770	-3.64948
0.09770	1.52859
0.09770	1.24800
0.27621	1.09496
0.25071	-3.82804
0.19971	1.42656
0.09770	-3.82804
0.04670	0.27871
0.14870	1.57960
0.25071	2.67644
0.27621	0.17668
0.22521	-0.25695
0.25071	-0.35899
0.02119	-2.62918
-0.28482	3.41616
-0.02981	0.48277
0.07220	-2.70570
0.30171	1.60511
0.42922	-1.09871
0.27621	0.43176
0.17421	1.55410
0.17421	1.35003
0.04670	1.12046
0.17421	0.61031
0.17421	0.20219
0.12320	0.61031
0.12320	-0.92016
0.17421	-0.43551
-0.08081	1.29902
-0.00431	-1.58336
-0.02981	-0.43551
0.27621	0.58480
0.32721	2.39585
0.32721	-0.23145
0.37822	0.32972
0.02119	1.73265
0.17421	-3.21585
-0.05531	-0.25695
0.07220	1.27351
-0.18282	1.83468
0.22521	1.40105
0.37822	0.63582
0.27621	0.86539
0.30171	1.73265
0.12320	0.63582
0.12320	-0.99668
0.02119	-0.15492
0.02119	-2.47613
-0.00431	0.07465
0.37822	0.86539
0.32721	0.63582
0.12320	0.17668
0.17421	0.66132
-0.00431	-3.62398
0.25071	-1.32828
0.12320	1.70714
0.14870	3.03355
0.25071	2.88050
0.02119	-1.40480
0.09770	-0.76711
0.12320	0.20219
0.12320	1.75816
0.07220	2.14077
0.25071	-3.13933
0.32721	-0.46102
-0.02981	-1.04770
0.14870	0.68683
0.07220	1.29902
0.14870	0.76336
0.14870	1.65613
0.30171	-1.43031
0.17421	-0.61406
0.07220	-1.63437
0.14870	-0.63957
-0.05531	0.53379
0.07220	1.60511
-0.10631	0.53379
0.25071	-1.43031
0.40372	-0.84363
0.14870	0.66132
0.32721	-0.63957
0.17421	-2.01699
0.02119	1.22250
0.07220	2.47238
0.02119	3.79878
0.22521	-6.50635
0.25071	0.91640
0.07220	-1.96597
-0.05531	1.01843
0.12320	-0.25695
0.22521	1.42656
0.09770	1.50308
0.27621	-1.48133
0.22521	-1.73640
0.14870	1.37554
0.12320	-0.38449
0.09770	0.38074
0.19971	2.88050
0.30171	-0.25695
0.17421	-2.73121
-0.15732	1.80917
-0.20832	-3.21585
-0.05531	-1.78742
0.30171	0.25320
0.25071	1.24800
0.35272	3.00804
0.35272	0.27871
0.30171	0.55929
0.25071	0.02363
0.09770	-0.05289
0.14870	0.83988
-0.05531	3.97733
0.19971	-3.41992
-0.02981	-1.40480
0.25071	0.91640
0.22521	2.03874
0.09770	0.78886
0.04670	-3.80253
-0.08081	-1.55785
0.02119	0.86539
0.27621	1.06945
0.19971	1.17148
0.37822	1.22250
0.35272	1.35003
0.32721	0.63582
0.14870	-5.99620
-0.13181	0.68683
-0.25932	1.32453
0.04670	1.24800
0.22521	1.29902
0.30171	2.19179
0.40372	-0.30797
0.17421	0.53379
-0.05531	1.91120
0.04670	-1.65988
0.12320	-1.07320
0.22521	1.68163
0.12320	0.73785
0.07220	1.88570
0.22521	0.73785
0.09770	-0.58856
0.04670	-1.48133
0.09770	0.55929
0.19971	1.60511
0.12320	-0.51203
0.17421	-1.07320
0.12320	0.55929
0.12320	-0.71609
0.19971	-0.38449
0.19971	-0.30797
0.12320	0.81437
-0.00431	1.68163
0.12320	1.78367
0.14870	-2.11902
-0.08081	0.43176
0.14870	-2.29757
0.32721	-2.22105
0.32721	1.06945
0.19971	1.04394
0.22521	-0.18043
0.17421	2.06425
0.09770	-0.81812
0.14870	1.37554
0.12320	-0.07840
0.02119	-0.46102
0.02119	0.61031
0.04670	-0.76711
-0.05531	0.73785
0.25071	1.93671
0.17421	-5.35850
0.25071	1.40105
0.14870	-0.25695
0.25071	1.55410
0.35272	-1.25176
0.32721	1.22250
0.09770	4.84460
-0.05531	-1.86394
0.22521	-5.33300
0.07220	0.71234
0.02119	1.04394
0.17421	3.26312
0.07220	-0.81812
0.22521	1.01843
0.17421	1.35003
0.04670	0.38074
0.17421	-1.27726
0.17421	-0.00188
0.32721	1.29902
0.09770	-3.44542
0.12320	1.63062
0.09770	0.10015
0.17421	-0.76711
0.22521	0.07465
0.02119	-1.25176
0.12320	1.70714
0.14870	1.50308
0.17421	-1.17523
0.25071	0.86539
0.32721	1.60511
0.14870	0.50828
0.09770	1.06945
0.12320	-0.30797
0.07220	-1.40480
0.14870	0.40625
-0.02981	2.19179
0.22521	-0.43551
0.27621	0.76336
0.22521	-3.80253
0.30171	1.70714
0.12320	1.96222
0.17421	-4.18515
0.02119	0.63582
-0.02981	0.81437
-0.08081	2.77847
0.17421	-0.81812
0.19971	0.81437
0.30171	0.73785
0.25071	2.29382
0.17421	-1.14973
0.12320	-5.40952
0.12320	0.25320
0.09770	-0.33348
-0.00431	1.01843
0.17421	2.37034
0.30171	1.22250
0.27621	1.01843
0.14870	0.07465
0.19971	1.01843
0.12320	-1.07320
0.12320	-0.97117
0.07220	-0.61406
-0.10631	0.20219
0.09770	0.30422
0.02119	0.43176
0.25071	1.98773
0.27621	-3.11382
0.30171	-0.48652
0.35272	1.40105
0.19971	1.32453
0.09770	0.12566
-0.05531	-5.61358
0.09770	-1.35379
0.17421	1.47757
0.25071	1.50308
0.22521	2.08976
0.12320	1.50308
-0.05531	0.66132
0.25071	-2.22105
0.09770	-1.04770
0.09770	-0.46102
0.07220	0.55929
0.04670	0.20219
0.12320	1.47757
0.04670	2.29382
0.17421	0.43176
0.14870	-0.99668
-0.02981	-4.51675
0.14870	0.35523
0.27621	1.06945
0.30171	1.27351
0.14870	1.12046
0.22521	1.32453
-0.02981	-0.74160
0.19971	-1.88945
0.07220	-0.97117
0.17421	1.12046
0.22521	1.78367
0.17421	1.75816
0.30171	-1.48133
0.14870	0.15117
0.12320	-0.38449
0.02119	0.58480
-0.08081	1.19699
0.04670	0.61031
0.14870	0.71234
0.07220	0.22769
0.19971	-0.35899
0.04670	-0.12942
0.25071	-0.35899
0.22521	-0.71609
0.12320	-1.68539
0.09770	0.91640
-0.05531	1.29902
0.17421	0.81437
0.27621	0.07465
0.22521	-2.93527
0.17421	-0.76711
0.19971	1.37554
0.17421	-0.02739
-0.02981	0.38074
-0.05531	0.53379
-0.08081	0.20219
0.14870	0.25320
0.30171	0.45726
0.35272	-0.66508
0.19971	-3.03730
0.27621	0.35523
0.22521	1.22250
0.12320	1.68163
-0.13181	-1.91496
-0.13181	1.01843
0.02119	1.86019
0.25071	2.88050
0.32721	-1.43031
0.30171	-0.41000
0.09770	0.20219
0.12320	0.43176
0.14870	1.06945
0.07220	-0.35899
0.19971	-0.84363
0.19971	0.45726
0.12320	0.20219
0.14870	0.40625
0.09770	0.66132
0.22521	1.47757
0.09770	-2.47613
0.17421	0.68683
0.22521	-1.81293
0.07220	-0.46102
0.12320	0.76336
0.02119	0.91640
0.12320	0.35523
0.19971	-0.20594
0.02119	0.10015
-0.02981	1.06945
0.35272	1.24800
0.30171	-0.66508
0.12320	-0.69059
0.09770	-3.41992
0.07220	-0.05289
0.09770	1.14597
0.22521	1.68163
0.19971	1.78367
0.25071	1.04394
0.09770	1.93671
0.02119	-0.25695
0.22521	-4.46573
0.32721	0.73785
0.07220	-2.22105
0.02119	0.96742
0.12320	0.99292
0.17421	1.14597
-0.00431	1.14597
0.14870	-1.02219
0.19971	1.19699
-0.00431	0.43176
0.02119	0.07465
0.22521	0.71234
0.09770	0.25320
0.14870	-0.02739
0.04670	0.94191
0.32721	0.15117
0.37822	-1.30277
0.25071	0.17668
0.25071	-2.29757
0.22521	1.50308
0.02119	-0.76711
-0.02981	1.40105
-0.00431	-1.12422
0.07220	-1.78742
0.02119	0.55929
0.19971	1.09496
0.07220	1.91120
0.14870	-0.02739
0.25071	1.14597
0.25071	0.12566
0.14870	1.22250
0.12320	-1.58336
0.07220	-2.04250
0.17421	1.14597
0.19971	0.63582
0.09770	-0.97117
0.12320	0.22769
0.12320	-1.65988
-0.05531	-0.38449
0.07220	1.45206
0.14870	1.04394
0.17421	-0.58856
0.42922	1.42656
0.19971	0.94191
0.12320	1.09496
0.19971	0.96742
0.09770	-0.12942
0.07220	-0.33348
0.19971	-3.39441
-0.00431	0.99292
-0.08081	1.86019
-0.00431	1.42656
0.07220	0.96742
0.27621	-0.71609
0.27621	0.48277
0.30171	0.17668
0.25071	-0.25695
0.17421	0.71234
0.07220	-0.33348
0.14870	0.66132
-0.05531	-1.32828
0.22521	-0.58856
0.19971	1.17148
0.07220	-0.76711
0.19971	0.45726
0.12320	1.22250
-0.05531	0.73785
0.14870	0.99292
0.19971	1.52859
-0.00431	1.88570
0.22521	-5.99620
0.19971	0.99292
0.19971	0.96742
0.09770	-0.69059
0.07220	-1.14973
0.04670	0.68683
0.09770	0.63582
0.32721	0.04914
0.32721	0.89089
0.27621	1.57960
0.09770	0.35523
0.07220	-0.35899
0.02119	-3.90456
0.02119	1.22250
0.07220	1.91120
0.12320	0.99292
0.19971	0.25320
0.12320	1.42656
0.09770	2.39585
0.30171	-1.81293
0.09770	2.47238
0.09770	-5.66460
0.09770	-1.22625
-0.08081	0.55929
0.04670	1.50308
0.45472	1.50308
0.42922	1.06945
0.17421	0.81437
0.14870	1.19699
0.07220	2.82948
0.17421	-2.34859
0.12320	-0.30797
-0.00431	-1.48133
0.12320	-0.10391
0.02119	2.39585
0.04670	1.93671
0.25071	-3.67499
0.22521	1.14597
0.14870	-0.23145
-0.02981	0.68683
0.12320	0.30422
0.22521	0.96742
0.17421	0.02363
0.07220	0.63582
0.19971	0.43176
0.40372	-0.33348
0.19971	0.27871
0.07220	-1.48133
0.12320	0.83988
-0.00431	1.27351
0.17421	-2.11902
0.14870	-1.04770
0.09770	1.40105
-0.20832	0.76336
0.12320	0.89089
0.02119	0.43176
0.22521	0.40625
0.53123	1.78367
0.30171	1.70714
0.40372	-2.85874
0.17421	-1.91496
-0.08081	0.04914
0.14870	-1.17523
0.17421	1.35003
0.12320	0.50828
0.07220	1.12046
-0.13181	2.52339
0.19971	1.83468
0.22521	-5.86866
0.12320	0.30422
0.22521	1.37554
0.12320	1.06945
0.17421	0.76336
-0.00431	1.50308
0.07220	-0.58856
0.32721	0.27871
0.19971	-0.23145
0.22521	-0.00188
0.35272	-0.94566
0.04670	1.70714
0.22521	-2.65468
0.22521	0.32972
0.09770	-1.48133
0.14870	0.76336
0.22521	0.40625
0.19971	0.43176
0.04670	0.76336
-0.00431	-1.07320
0.07220	0.58480
0.09770	1.98773
0.12320	-0.51203
0.07220	1.86019
0.19971	-0.86914
0.09770	0.43176
0.07220	1.65613
0.27621	0.40625
0.37822	1.83468
0.19971	1.96222
0.09770	-2.47613
0.27621	-7.01651
0.25071	-0.15492
0.02119	0.53379
0.02119	0.71234
0.12320	0.61031
0.14870	1.83468
0.02119	1.01843
-0.05531	1.40105
0.07220	-0.74160
-0.10631	-0.23145
0.22521	0.22769
0.42922	0.32972
0.48022	-0.56305
0.14870	0.63582
0.14870	1.52859
0.02119	-4.49124
0.09770	0.50828
0.02119	0.02363
0.09770	-0.99668
0.27621	0.38074
0.22521	0.15117
0.12320	1.40105
-0.02981	0.81437
-0.00431	0.96742
0.14870	-0.56305
0.19971	1.01843
0.22521	-0.07840
0.17421	-0.46102
0.25071	0.68683
0.27621	1.24800
0.04670	-0.84363
0.12320	0.30422
0.14870	0.86539
-0.08081	-2.80773
-0.00431	0.17668
0.27621	1.12046
0.27621	1.32453
0.07220	2.42136
0.30171	-1.12422
0.12320	-1.48133
0.04670	-0.15492
0.09770	0.45726
0.09770	0.66132
0.14870	1.57960
0.04670	-0.86914
0.25071	-0.18043
0.17421	-0.23145
0.12320	0.76336
0.17421	1.86019
0.17421	-3.41992
0.07220	0.89089
0.17421	-2.88425
0.22521	0.43176
0.12320	2.67644
-0.08081	1.06945
-0.41233	0.63582
-0.02981	-0.18043
0.35272	0.83988
0.42922	-0.10391
0.53123	0.07465
0.30171	-0.12942
0.07220	0.25320
0.04670	0.91640
0.25071	0.02363
0.09770	-2.29757
0.02119	-2.19554
0.14870	0.58480
0.02119	0.86539
-0.05531	2.01323
-0.00431	1.24800
-0.10631	-1.63437
-0.00431	0.22769
0.25071	1.57960
-0.02981	0.55929
0.25071	0.22769
0.27621	0.76336
0.40372	-0.56305
0.37822	0.76336
0.48022	0.63582
0.32721	-3.21585
0.17421	1.35003
0.07220	1.70714
-0.05531	-3.36890
0.02119	-0.66508
-0.08081	0.76336
0.02119	1.86019
0.07220	2.26831
0.07220	-2.32308
0.27621	0.55929
0.25071	1.91120
0.09770	0.94191
0.12320	-2.39961
0.19971	0.61031
0.09770	1.22250
0.32721	0.48277
0.02119	0.43176
-0.10631	0.45726
0.09770	-0.10391
0.30171	0.12566
0.42922	0.07465
0.37822	-0.00188
0.19971	0.25320
0.32721	1.24800
0.12320	0.27871
-0.05531	-4.82284
-0.15732	0.12566
0.04670	1.91120
0.12320	2.19179
0.04670	-3.67499
0.02119	0.86539
-0.00431	1.01843
0.12320	2.03874
0.22521	1.06945
0.22521	-3.11382
0.27621	2.62542
0.25071	-3.31788
0.19971	-0.05289
0.04670	0.50828
0.14870	0.48277
-0.00431	1.42656
-0.02981	1.91120
0.07220	-3.16484
0.14870	-0.81812
0.27621	-0.30797
0.12320	0.22769
0.19971	0.10015
0.19971	0.55929
0.25071	-0.15492
0.09770	0.48277
0.30171	2.82948
0.32721	-5.46054
0.17421	0.10015
0.17421	1.45206
-0.05531	0.81437
0.04670	0.78886
0.19971	0.50828
0.02119	0.63582
-0.10631	-0.18043
-0.13181	0.20219
-0.08081	-0.66508
0.27621	1.32453
0.45472	-0.46102
0.53123	-3.62398
0.19971	0.61031
0.07220	0.55929
0.14870	1.24800
-0.08081	-0.46102
0.35272	-0.71609
0.32721	0.32972
0.14870	2.08976
0.09770	-0.89465
0.25071	-0.81812
0.14870	1.19699
0.07220	0.91640
0.17421	0.94191
-0.02981	0.96742
-0.00431	1.52859
0.12320	-3.16484
0.07220	0.61031
0.22521	1.52859
0.12320	-2.06800
0.19971	-1.04770
-0.00431	-3.24136
-0.13181	1.01843
0.37822	0.81437
0.40372	0.96742
0.19971	2.14077
0.32721	-2.11902
0.32721	1.55410
0.09770	-0.84363
-0.23382	1.17148
0.02119	1.47757
0.25071	-2.39961
0.12320	-1.99148
-0.00431	0.99292
0.22521	1.55410
0.35272	0.86539
0.14870	2.11527
0.04670	-0.53754
0.07220	-2.27207
0.09770	-0.15492
0.22521	0.94191
0.12320	1.65613
0.30171	0.15117
0.17421	-0.15492
0.19971	0.04914
0.19971	0.15117
0.17421	-0.56305
-0.00431	0.76336
0.14870	0.45726
0.12320	0.81437
0.30171	0.68683
0.14870	-1.02219
-0.02981	-0.63957
-0.13181	-0.97117
0.02119	-1.78742
0.12320	1.47757
0.40372	1.22250
0.25071	1.68163
0.40372	0.58480
0.37822	-0.07840
0.19971	0.22769
0.07220	0.17668
0.12320	0.58480
0.14870	0.94191
0.14870	-3.31788
0.17421	0.35523
-0.02981	0.50828
-0.00431	-1.48133
0.19971	1.37554
0.37822	1.06945
0.22521	-2.29757
0.09770	1.19699
0.02119	1.14597
0.07220	-0.35899
-0.05531	1.06945
0.17421	-1.04770
0.32721	2.14077
0.42922	0.20219
0.19971	0.91640
0.04670	-2.90976
0.09770	0.32972
0.22521	0.32972
0.09770	0.94191
0.27621	0.40625
0.07220	0.07465
0.04670	-0.12942
0.19971	0.89089
0.09770	0.30422
0.12320	-0.94566
0.30171	0.17668
0.14870	0.40625
0.07220	-0.76711
0.32721	2.11527
0.09770	-1.27726
-0.00431	0.38074
0.12320	0.81437
0.17421	-0.53754
0.04670	-1.76191
0.04670	1.04394
0.17421	-0.25695
0.22521	0.96742
-0.00431	0.91640
0.35272	-2.39961
0.14870	-1.96597
0.14870	0.86539
0.27621	1.73265
0.09770	2.06425
0.22521	1.57960
0.25071	0.86539
0.07220	-0.20594
0.25071	-0.18043
0.09770	-0.00188
0.04670	-2.19554
-0.02981	-0.30797
-0.20832	1.06945
0.12320	1.24800
0.19971	0.76336
0.32721	-2.62918
0.27621	0.35523
0.07220	0.22769
0.22521	0.81437
0.14870	1.27351
0.12320	0.83988
0.22521	0.76336
0.17421	1.96222
0.14870	1.78367
0.25071	-7.14405
0.12320	-1.17523
0.12320	0.50828
0.22521	1.83468
-0.08081	1.47757
0.12320	1.57960
0.02119	-0.84363
0.17421	1.98773
0.19971	1.47757
0.27621	-2.88425
0.12320	-1.04770
0.30171	-0.33348
0.30171	1.35003
0.14870	-0.94566
0.19971	0.63582
0.07220	1.60511
0.09770	0.32972
0.12320	-1.60887
0.14870	1.09496
0.19971	-0.30797
0.14870	-3.49644
-0.05531	0.61031
0.14870	1.42656
0.19971	1.60511
0.12320	-0.41000
0.25071	0.40625
0.19971	0.10015
0.04670	0.81437
0.25071	0.73785
0.09770	-1.27726
0.12320	-0.12942
0.22521	0.99292
0.19971	-0.58856
0.22521	-0.15492
0.17421	-0.12942
-0.00431	2.16628
-0.18282	-0.28246
0.22521	-2.39961
0.32721	-0.58856
0.19971	1.29902
0.30171	1.68163
0.09770	1.75816
-0.00431	-0.76711
0.12320	-0.53754
0.12320	0.38074
0.32721	-0.63957
0.30171	0.02363
0.17421	-0.23145
0.09770	0.38074
0.07220	1.24800
-0.08081	1.06945
0.14870	-1.20074
0.27621	-0.63957
0.12320	0.55929
0.02119	0.91640
-0.00431	0.96742
0.22521	-1.94047
0.07220	-1.07320
0.19971	0.94191
0.09770	0.55929
0.25071	0.68683
0.30171	1.37554
0.30171	-0.76711
0.27621	-1.22625
0.04670	0.43176
-0.05531	0.78886
0.30171	0.86539
0.22521	1.14597
0.14870	-1.17523
0.60773	-2.09351
0.19971	0.61031
-0.25932	-0.30797
-0.18282	0.99292
-0.66735	1.14597
0.88825	-0.86914
0.32721	0.96742
-0.02981	1.04394
0.14870	-0.18043
0.12320	-2.62918
0.25071	-0.12942
0.14870	1.01843
0.25071	1.45206
0.25071	-1.63437
0.14870	0.27871
0.17421	0.68683
0.19971	0.71234
0.12320	0.43176
-0.05531	-0.25695
0.17421	-0.23145
0.25071	0.78886
0.14870	-2.17003
0.17421	-0.71609
0.12320	1.52859
0.09770	2.77847
0.07220	-5.56257
0.12320	-0.81812
0.22521	-0.10391
0.12320	-1.02219
0.14870	2.24281
0.09770	1.12046
0.19971	1.45206
0.35272	1.88570
0.27621	0.45726
0.27621	-0.30797
0.12320	0.25320
0.12320	0.86539
0.09770	-1.37929
-0.20832	-1.14973
0.19971	-1.55785
0.45472	0.35523
0.32721	2.59991
0.14870	0.99292
0.04670	-5.91967
0.04670	1.57960
0.14870	0.48277
-0.13181	1.29902
-0.15732	1.24800
0.07220	1.32453
0.32721	2.59991
0.48022	-5.74112
0.42922	-0.74160
0.27621	-0.18043
0.40372	0.45726
0.14870	1.24800
-0.05531	1.12046
-0.05531	0.91640
0.02119	-0.25695
0.22521	0.45726
0.17421	2.26831
0.04670	-2.98628
0.19971	-3.49644
0.22521	0.86539
0.09770	1.01843
0.07220	1.06945
0.19971	0.94191
0.17421	0.17668
0.04670	0.58480
0.09770	2.21730
0.22521	-2.11902
0.19971	0.63582
0.22521	-2.37410
0.09770	-0.02739
0.12320	0.35523
0.14870	-0.18043
0.22521	0.55929
0.09770	0.25320
0.27621	-0.02739
0.32721	0.94191
0.09770	0.10015
-0.00431	0.86539
0.12320	0.25320
0.14870	-0.28246
-0.02981	3.21210
0.02119	-5.30749
0.19971	-0.20594
0.27621	0.32972
0.12320	2.19179
-0.05531	2.67644
0.22521	-2.70570
0.07220	0.07465
0.09770	0.89089
0.25071	1.06945
0.22521	1.37554
0.19971	1.14597
0.17421	0.15117
0.19971	-1.09871
0.12320	0.12566
0.12320	-0.02739
0.12320	-0.00188
0.22521	0.55929
0.22521	-0.56305
0.07220	0.12566
0.09770	-1.12422
-0.02981	0.86539
0.12320	0.99292
0.30171	0.78886
0.25071	0.40625
0.25071	0.15117
0.14870	0.04914
0.07220	0.63582
0.09770	0.83988
0.02119	-0.38449
-0.00431	-0.76711
0.30171	0.32972
0.25071	0.04914
0.35272	-1.04770
0.12320	1.17148
0.12320	1.17148
0.12320	1.17148
0.04670	-0.48652
0.07220	0.81437
-0.31033	0.22769
0.48022	2.06425
0.40372	-2.85874
0.17421	-1.25176
-0.10631	3.92632
-0.20832	-1.68539
0.22521	0.04914
-0.00431	1.78367
0.32721	-0.74160
0.22521	0.55929
0.14870	0.76336
0.22521	0.96742
0.19971	0.58480
0.09770	0.81437
0.32721	1.88570
0.12320	-1.99148
0.17421	-0.86914
0.07220	-0.18043
0.14870	0.20219
0.04670	0.73785
0.17421	-0.25695
0.30171	0.22769
0.12320	0.48277
0.04670	-0.61406
-0.02981	1.06945
-0.02981	1.98773
0.22521	-1.81293
0.19971	0.07465
0.27621	-0.66508
0.14870	0.35523
0.14870	1.65613
0.22521	1.60511
0.19971	-2.98628
0.14870	0.17668
0.02119	0.66132
-0.13181	0.76336
0.07220	0.94191
0.17421	0.04914
0.22521	0.10015
0.32721	1.88570
0.14870	-3.85355
0.32721	0.25320
0.32721	1.50308
0.12320	-0.10391
-0.00431	-0.20594
0.12320	0.89089
0.07220	2.01323
0.14870	1.04394
0.09770	-2.32308
0.04670	-0.05289
0.14870	0.22769
0.35272	0.91640
0.22521	-1.60887
0.07220	0.96742
0.04670	2.11527
0.14870	-2.57816
0.22521	1.42656
0.12320	0.68683
0.12320	0.02363
0.14870	0.40625
0.09770	0.78886
0.14870	-0.51203
-0.08081	0.45726
0.12320	1.27351
0.42922	-1.07320
0.32721	-3.49644
0.19971	0.40625
0.19971	-0.74160
0.02119	1.68163
0.17421	0.43176
0.02119	1.78367
0.07220	0.04914
0.09770	0.86539
0.22521	0.20219
0.32721	-0.51203
0.19971	0.17668
-0.00431	-0.10391
-0.08081	1.78367
0.02119	-3.11382
0.27621	0.45726
0.12320	1.09496
0.12320	0.68683
0.14870	-0.66508
0.22521	-0.30797
0.45472	0.15117
0.27621	0.83988
0.07220	0.58480
-0.08081	0.32972
0.07220	-2.52714
-0.08081	-0.61406
0.25071	1.88570
0.27621	0.48277
0.12320	-1.27726
0.30171	2.42136
0.22521	-0.07840
0.19971	0.94191
-0.08081	0.71234
-0.00431	1.17148
0.04670	-0.74160
0.09770	-0.97117
0.17421	-0.58856
0.17421	0.76336
0.22521	0.89089
0.12320	0.04914
0.32721	-0.00188
0.07220	0.96742
0.02119	0.40625
0.02119	0.02363
0.14870	-3.54745
0.30171	0.27871
0.30171	-0.10391
0.30171	0.71234
0.25071	1.80917
0.17421	0.96742
-0.10631	-0.74160
0.02119	0.66132
0.07220	0.40625
0.02119	2.37034
0.12320	-1.17523
-0.00431	-0.56305
0.14870	-1.25176
0.42922	0.68683
0.30171	-1.17523
0.22521	0.73785
0.30171	2.16628
0.09770	-1.14973
0.12320	-1.60887
0.02119	1.04394
-0.08081	0.35523
-0.05531	1.12046
0.17421	1.24800
0.19971	0.78886
0.35272	0.07465
0.25071	-0.05289
0.22521	-0.76711
0.09770	-0.86914
-0.10631	0.48277
0.32721	-0.92016
0.32721	1.14597
0.17421	1.35003
0.12320	-1.22625
0.04670	0.12566
0.12320	1.83468
0.27621	1.60511
0.22521	-0.99668
0.07220	1.12046
-0.00431	-2.42511
-0.28482	0.48277
-0.38683	-0.97117
0.35272	2.44687
0.50573	-0.25695
0.45472	1.17148
0.48022	1.14597
0.40372	0.86539
0.19971	-0.84363
0.14870	-0.76711
0.04670	0.53379
0.14870	0.12566
-0.02981	-0.97117
-0.05531	-0.71609
0.02119	-0.18043
0.04670	-0.07840
0.09770	0.73785
0.22521	1.29902
0.25071	0.76336
0.22521	1.24800
0.22521	-0.89465
0.19971	-0.23145
0.17421	0.83988
0.14870	-0.41000
0.12320	0.96742
0.07220	0.12566
0.17421	2.06425
0.19971	-3.31788
-0.00431	1.22250
-0.00431	1.12046
0.12320	1.32453
0.09770	-0.18043
0.30171	0.66132
0.32721	1.47757
0.12320	-1.45582
0.22521	-0.84363
0.14870	0.12566
-0.00431	0.43176
0.09770	-0.33348
0.35272	-0.69059
0.19971	0.17668
0.07220	0.94191
0.17421	-0.00188
0.14870	0.86539
0.09770	0.58480
0.09770	-2.42511
0.12320	0.15117
0.12320	3.05905
0.07220	-4.61878
0.07220	1.78367
0.12320	0.25320
0.19971	0.17668
0.09770	0.15117
0.25071	0.73785
0.25071	-1.30277
0.22521	1.12046
0.17421	1.96222
0.22521	0.07465
0.19971	-1.53234
0.04670	0.27871
0.04670	0.27871
0.09770	1.19699
-0.05531	0.76336
0.09770	-0.23145
0.37822	-0.35899
0.42922	-1.73640
0.27621	0.91640
0.09770	-0.99668
0.07220	0.96742
0.19971	2.16628
0.07220	-0.12942
0.04670	0.22769
0.02119	-2.85874
-0.02981	1.17148
0.02119	1.04394
0.14870	-0.53754
0.22521	1.04394
0.32721	-0.00188
0.35272	0.78886
0.27621	1.80917
0.07220	-1.50683
-0.08081	-0.46102
0.14870	0.15117
0.22521	0.48277
0.22521	-0.81812
0.25071	0.22769
0.17421	0.81437
0.14870	-0.23145
-0.02981	0.61031
-0.00431	0.50828
0.04670	0.66132
0.14870	0.53379
0.27621	-0.66508
0.14870	0.22769
0.19971	-1.09871
0.17421	0.66132
0.02119	2.52339
0.04670	-3.13933
0.14870	-1.45582
0.04670	0.96742
0.19971	1.45206
0.07220	0.91640
0.12320	1.65613
0.27621	0.02363
0.32721	-1.04770
0.19971	-0.71609
0.30171	1.17148
0.09770	1.45206
0.07220	-1.86394
-0.00431	-0.53754
0.17421	0.99292
0.09770	-0.25695
-0.13181	-0.71609
-0.00431	1.24800
0.12320	0.20219
0.53123	0.35523
0.50573	1.65613
0.32721	0.20219
0.22521	0.43176
0.14870	-0.76711
0.12320	-1.73640
0.19971	-4.74632
-0.00431	0.50828
-0.28482	2.44687
-0.05531	0.91640
0.07220	2.01323
0.17421	0.04914
0.14870	1.35003
0.25071	0.96742
0.12320	-2.42511
0.19971	0.61031
0.17421	-1.53234
0.09770	0.71234
0.27621	0.76336
0.30171	0.81437
0.22521	1.29902
0.14870	-0.43551
0.27621	0.15117
0.12320	0.94191
-0.18282	0.45726
-0.18282	0.40625
0.02119	0.48277
0.14870	-0.86914
0.32721	-0.51203
0.30171	0.61031
0.27621	0.78886
0.22521	-0.33348
0.32721	0.35523
0.07220	0.53379
-0.02981	0.40625
0.12320	-0.38449
0.09770	1.42656
0.04670	-0.15492
0.19971	-1.45582
0.32721	1.57960
0.07220	1.57960
0.14870	-5.28198
0.09770	0.73785
-0.05531	0.99292
0.14870	1.29902
0.19971	-0.00188
0.32721	1.75816
0.27621	1.19699
0.04670	0.86539
0.09770	-0.15492
0.22521	-1.12422
0.12320	-0.63957
0.22521	1.22250
0.04670	-1.27726
0.07220	2.72745
0.07220	-5.81764
-0.00431	-0.35899
0.17421	0.40625
0.19971	1.27351
0.09770	0.99292
0.22521	1.22250
0.17421	1.60511
0.12320	-2.57816
0.12320	-1.48133
0.09770	0.96742
0.07220	1.04394
0.12320	-0.15492
0.27621	0.55929
0.09770	0.15117
0.22521	0.27871
0.37822	0.04914
0.17421	-0.12942
0.22521	-0.23145
0.12320	0.66132
-0.05531	-0.66508
-0.02981	-0.69059
0.09770	1.19699
0.14870	-1.73640
-0.08081	-1.71090
0.25071	1.27351
0.22521	1.32453
0.19971	1.14597
0.35272	1.40105
0.17421	1.09496
0.25071	-0.56305
0.12320	0.02363
0.09770	0.66132
0.14870	0.68683
-0.00431	0.22769
0.19971	1.19699
0.22521	-2.80773
0.14870	-0.35899
0.14870	-1.91496
-0.02981	0.12566
0.02119	1.83468
0.09770	-0.02739
0.27621	0.86539
0.32721	0.35523
0.27621	-1.48133
0.22521	0.66132
0.02119	-0.97117
-0.00431	1.70714
-0.02981	1.86019
0.07220	-1.48133
0.27621	0.50828
0.27621	0.63582
0.27621	-0.58856
0.32721	-0.00188
0.17421	0.17668
0.12320	0.43176
-0.18282	-0.12942
0.12320	0.68683
0.12320	-0.05289
0.22521	0.43176
0.14870	-0.12942
0.07220	-1.55785
0.19971	-0.33348
0.35272	0.68683
0.22521	-0.18043
0.19971	-0.20594
0.02119	0.53379
-0.02981	0.96742
0.02119	0.89089
0.17421	1.42656
0.22521	-0.38449
0.12320	-0.25695
0.30171	-1.37929
-0.10631	0.50828
-0.05531	-0.10391
0.27621	-0.41000
0.30171	1.32453
0.32721	1.01843
0.19971	0.53379
0.17421	0.45726
0.19971	0.50828
0.14870	0.17668
-0.02981	-2.60367
0.17421	-0.69059
0.09770	1.78367
0.12320	0.25320
0.17421	-0.79262
0.02119	0.30422
0.27621	-0.86914
0.04670	0.89089
0.02119	1.37554
0.19971	0.32972
0.12320	-0.48652
0.22521	1.27351
0.35272	-0.25695
0.14870	-0.69059
0.17421	-1.02219
0.02119	0.38074
0.14870	-0.18043
0.19971	-0.41000
0.09770	1.06945
0.04670	0.07465
0.07220	0.35523
0.25071	-0.12942
0.25071	0.55929
0.09770	0.76336
0.30171	1.19699
0.37822	0.10015
0.12320	0.45726
-0.00431	-1.83844
0.07220	-0.33348
-0.08081	0.43176
0.22521	0.32972
0.14870	1.14597
0.32721	0.32972
0.22521	-0.33348
0.22521	1.65613
-0.00431	-2.75671
-0.18282	-0.07840
0.07220	1.37554
0.07220	0.71234
0.27621	0.02363
0.37822	-0.89465
0.19971	-0.89465
0.19971	0.81437
0.30171	0.48277
0.17421	0.61031
0.07220	1.01843
-0.02981	-0.35899
0.12320	1.78367
0.17421	-2.24656
0.07220	0.32972
0.07220	-1.07320
0.19971	1.14597
0.30171	1.57960
0.17421	1.04394
0.17421	-0.30797
0.22521	0.30422
0.02119	0.10015
0.12320	0.71234
0.22521	1.04394
0.19971	-1.37929
0.12320	0.15117
0.14870	-2.06800
0.12320	-0.81812
0.04670	1.29902
0.14870	-0.12942
0.17421	0.86539
0.17421	0.94191
0.17421	0.35523
0.14870	1.29902
0.14870	0.15117
0.12320	-2.34859
0.17421	-0.10391
0.02119	1.55410
0.42922	0.83988
0.32721	-3.31788
0.14870	-0.43551
-0.13181	0.58480
0.19971	2.03874
-0.00431	2.67644
0.09770	-3.52195
0.12320	0.81437
0.22521	-0.00188
0.27621	-1.20074
0.12320	1.04394
0.25071	0.50828
0.12320	1.83468
0.09770	0.12566
0.09770	1.37554
0.12320	-0.05289
0.22521	-1.35379
0.25071	-2.60367
0.17421	1.19699
0.09770	-1.12422
0.02119	-0.89465
0.02119	-0.15492
-0.05531	0.81437
0.40372	1.01843
0.17421	2.31933
0.25071	0.91640
0.27621	-2.22105
0.17421	-0.46102
-0.02981	-2.19554
0.17421	0.86539
0.22521	1.32453
0.02119	1.27351
-0.00431	1.14597
0.17421	0.15117
0.12320	-0.35899
0.32721	0.38074
0.22521	0.30422
0.25071	-0.10391
-0.02981	0.48277
0.04670	-0.43551
0.02119	-0.61406
0.07220	0.43176
0.35272	1.65613
0.22521	-1.73640
0.37822	1.52859
0.12320	-1.60887
0.07220	0.50828
0.02119	0.17668
-0.05531	1.27351
0.32721	0.45726
-0.08081	0.58480
0.30171	-1.14973
0.17421	-0.20594
0.27621	0.50828
0.30171	0.73785
0.07220	1.91120
0.12320	-0.43551
0.02119	-0.86914
0.07220	0.71234
0.09770	-1.60887
0.37822	0.55929
0.19971	0.40625
0.14870	0.63582
0.02119	0.78886
0.04670	0.73785
0.25071	1.37554
0.17421	-2.11902
0.22521	0.45726
0.12320	0.10015
0.12320	0.32972
0.07220	2.19179
0.12320	1.42656
0.19971	-4.69530
0.14870	2.26831
-0.00431	-3.93007
-0.00431	0.63582
0.04670	1.96222
0.27621	0.99292
0.40372	1.45206
0.27621	1.98773
0.19971	0.38074
0.12320	-1.71090
0.17421	-0.30797
0.02119	0.73785
0.07220	0.99292
0.17421	-0.00188
-0.00431	-0.99668
0.14870	0.30422
0.27621	-0.28246
0.22521	-0.18043
-0.00431	0.48277
-0.00431	1.14597
0.22521	-0.99668
0.09770	-1.30277
0.27621	0.32972
0.22521	-0.23145
-0.05531	0.58480
0.17421	0.81437
0.12320	0.96742
-0.10631	1.57960
0.58223	0.96742
0.30171	-1.68539
0.19971	-1.43031
0.09770	-1.32828
0.04670	2.65093
0.04670	-0.20594
0.12320	-0.66508
-0.05531	0.81437
0.02119	0.27871
0.22521	1.47757
0.12320	-0.92016
0.27621	1.12046
0.27621	1.01843
0.09770	-7.62869
0.22521	-0.38449
0.02119	0.66132
-0.13181	2.34484
0.19971	1.98773
0.19971	-0.76711
0.19971	0.45726
0.27621	1.47757
0.22521	0.02363
0.04670	-0.25695
0.04670	-0.18043
0.09770	-0.76711
0.25071	1.24800
0.25071	-1.07320
0.25071	0.83988
0.02119	-0.07840
0.30171	-1.30277
0.25071	0.94191
0.17421	1.14597
0.04670	-1.04770
0.09770	0.25320
0.02119	1.37554
0.02119	2.01323
0.14870	0.99292
-0.02981	-1.71090
-0.02981	-0.18043
0.19971	-0.74160
0.27621	0.68683
0.48022	-1.32828
0.12320	0.68683
0.17421	0.53379
-0.00431	1.17148
0.02119	0.50828
0.07220	0.35523
0.25071	-0.10391
0.19971	1.63062
0.27621	-0.46102
0.27621	-3.34339
0.09770	1.29902
-0.02981	-1.12422
0.02119	1.73265
0.07220	3.77327
-0.02981	0.12566
0.22521	0.76336
0.14870	0.43176
0.22521	0.71234
0.42922	-0.23145
0.22521	-1.50683
0.07220	-0.86914
-0.00431	1.06945
0.22521	1.24800
0.14870	-1.50683
0.02119	-1.65988
0.19971	1.04394
-0.02981	1.04394
0.09770	0.48277
0.30171	-3.31788
0.19971	1.29902
0.19971	1.09496
0.04670	1.09496
0.07220	2.19179
