0.22521	0.35523
0.07220	0.04914
0.12320	0.10015
0.22521	0.12566
0.09770	0.02363
0.14870	0.12566
0.14870	0.07465
0.14870	0.12566
0.14870	0.30422
0.07220	0.15117
0.12320	0.25320
0.12320	0.20219
0.09770	-0.02739
0.22521	-0.02739
0.09770	-0.02739
0.14870	0.22769
0.17421	0.45726
0.07220	-0.15492
0.19971	0.55929
0.09770	0.17668
0.19971	0.10015
0.07220	0.20219
0.12320	0.10015
0.14870	0.22769
0.14870	0.07465
0.12320	0.15117
0.22521	0.22769
0.09770	-0.00188
0.22521	0.02363
0.14870	0.15117
0.12320	0.22769
0.19971	-0.10391
0.17421	0.38074
0.12320	0.40625
0.22521	-0.86914
0.14870	0.35523
0.12320	-0.12942
0.12320	0.55929
0.25071	0.50828
0.14870	0.40625
0.09770	0.12566
0.22521	0.04914
0.17421	0.25320
0.07220	0.17668
0.17421	0.15117
0.22521	0.07465
0.14870	0.10015
0.07220	0.04914
0.19971	0.20219
0.07220	0.04914
0.14870	0.04914
0.22521	0.02363
0.09770	0.15117
0.14870	0.30422
0.19971	0.27871
0.12320	-0.18043
0.09770	0.45726
0.19971	0.25320
0.19971	0.04914
0.14870	-0.00188
0.07220	0.22769
0.17421	0.32972
0.19971	0.32972
0.14870	0.12566
0.17421	0.10015
0.22521	0.17668
0.17421	0.17668
0.12320	0.10015
0.22521	0.17668
0.09770	-0.28246
0.14870	0.02363
0.14870	0.27871
0.09770	0.25320
0.17421	0.10015
0.22521	0.17668
0.14870	0.35523
0.12320	-0.35899
0.12320	0.38074
0.07220	0.35523
0.17421	0.40625
0.12320	0.27871
0.09770	0.07465
0.14870	0.04914
0.22521	-0.07840
0.09770	0.20219
0.19971	-0.02739
0.14870	0.43176
0.07220	0.38074
0.22521	-0.25695
0.17421	0.35523
0.12320	0.25320
0.19971	-0.20594
0.14870	0.27871
0.09770	0.20219
0.22521	0.20219
0.17421	0.20219
0.14870	0.15117
0.22521	0.45726
0.07220	-0.30797
0.17421	-0.30797
0.19971	0.10015
0.07220	0.10015
0.09770	0.25320
0.12320	0.43176
0.07220	0.27871
0.12320	0.20219
0.22521	0.25320
0.17421	0.04914
0.09770	0.07465
0.17421	0.10015
0.12320	0.25320
0.14870	0.22769
0.12320	0.07465
0.14870	0.02363
0.19971	-0.07840
0.14870	0.17668
0.07220	0.45726
0.17421	0.40625
0.14870	-0.33348
0.22521	0.35523
0.14870	0.35523
0.04670	0.12566
0.19971	0.15117
0.17421	0.30422
0.07220	0.12566
0.09770	-0.00188
0.19971	0.04914
0.14870	0.30422
0.17421	-0.20594
0.19971	0.38074
0.14870	-0.35899
0.12320	0.22769
0.19971	0.38074
0.09770	0.15117
0.12320	0.22769
0.22521	0.30422
0.14870	0.22769
0.09770	0.15117
0.14870	0.17668
0.12320	0.10015
0.09770	-0.05289
0.25071	0.02363
0.14870	0.15117
0.07220	0.12566
0.14870	0.12566
0.19971	0.17668
0.07220	-0.00188
0.14870	0.10015
0.12320	0.25320
0.09770	0.20219
0.14870	0.20219
0.12320	0.10015
0.09770	0.15117
0.17421	0.43176
0.17421	0.45726
0.17421	-0.76711
0.22521	0.17668
0.17421	-0.35899
0.12320	0.63582
0.25071	0.63582
0.07220	0.35523
0.19971	0.38074
0.07220	0.04914
0.09770	-0.02739
0.17421	0.22769
0.14870	0.10015
0.12320	0.10015
0.14870	0.10015
0.19971	0.10015
0.07220	0.04914
0.12320	0.10015
0.12320	0.12566
0.09770	-0.02739
0.14870	-0.05289
0.19971	0.32972
0.14870	0.45726
0.09770	-0.33348
0.12320	0.25320
0.22521	0.45726
0.07220	0.35523
0.19971	0.25320
0.12320	0.32972
0.09770	0.35523
0.12320	0.17668
0.27621	0.12566
0.17421	0.02363
0.17421	-0.43551
0.19971	0.53379
0.09770	-0.92016
0.12320	0.12566
0.25071	0.55929
0.14870	0.48277
0.07220	0.25320
0.12320	0.17668
0.14870	0.25320
0.12320	0.25320
0.17421	0.10015
0.19971	-0.51203
0.12320	0.22769
0.12320	0.38074
0.17421	0.48277
0.14870	-0.43551
0.07220	0.22769
0.17421	0.20219
0.22521	0.17668
0.14870	0.25320
0.09770	0.20219
0.12320	0.15117
0.22521	0.20219
0.14870	0.17668
0.07220	0.04914
0.19971	0.04914
0.22521	0.04914
0.07220	0.04914
0.12320	0.15117
0.19971	0.27871
0.17421	0.32972
0.07220	0.20219
0.14870	-0.15492
0.14870	0.38074
0.09770	0.38074
0.14870	-0.10391
0.09770	0.50828
0.07220	-0.61406
0.12320	0.55929
0.17421	0.53379
0.07220	0.27871
0.22521	-0.12942
0.14870	0.10015
0.12320	0.22769
0.17421	0.17668
0.09770	0.10015
0.12320	0.17668
0.19971	-0.48652
0.17421	0.12566
0.22521	0.22769
0.07220	0.12566
0.14870	0.32972
0.12320	0.25320
0.04670	0.15117
0.22521	0.27871
0.17421	0.32972
0.14870	-0.02739
0.12320	-0.10391
0.07220	0.25320
0.25071	-0.41000
0.14870	0.20219
0.12320	0.17668
0.19971	0.22769
0.09770	0.43176
0.17421	0.45726
0.17421	0.30422
0.14870	0.04914
0.19971	0.20219
0.12320	0.20219
0.07220	-0.05289
0.22521	-0.05289
0.17421	0.17668
0.12320	0.32972
0.19971	-0.76711
0.12320	-0.25695
0.09770	0.25320
0.19971	0.43176
0.12320	0.38074
0.12320	0.32972
0.19971	0.45726
0.09770	-0.00188
0.14870	0.17668
0.14870	0.07465
0.12320	-0.00188
0.12320	0.07465
0.09770	0.35523
0.12320	0.25320
0.14870	0.15117
0.09770	0.04914
0.19971	0.17668
0.14870	0.17668
0.17421	0.15117
0.14870	0.40625
0.14870	0.02363
0.14870	0.25320
0.09770	-0.05289
0.22521	-1.07320
0.02119	0.32972
0.12320	0.58480
0.12320	0.58480
0.09770	0.50828
0.22521	0.35523
0.14870	0.35523
0.12320	0.04914
0.17421	-0.07840
0.07220	-0.25695
0.22521	0.25320
0.09770	0.25320
0.14870	0.25320
0.22521	0.15117
0.14870	0.20219
0.09770	-0.05289
0.22521	0.30422
0.14870	0.40625
0.12320	-0.38449
0.19971	0.22769
0.12320	0.22769
0.12320	0.10015
0.22521	0.32972
0.07220	0.27871
0.14870	0.12566
0.22521	0.20219
0.14870	0.02363
0.17421	-0.05289
0.19971	0.04914
0.09770	0.17668
0.14870	0.20219
0.22521	0.02363
0.12320	0.10015
0.07220	0.07465
0.22521	0.27871
0.14870	0.15117
0.09770	0.04914
0.22521	0.15117
0.14870	0.76336
0.07220	-0.35899
0.19971	0.15117
0.07220	-0.02739
0.12320	0.02363
0.17421	0.48277
0.07220	0.35523
0.14870	0.32972
0.14870	0.27871
0.09770	-0.10391
0.22521	0.10015
0.14870	0.10015
0.07220	0.07465
0.22521	0.15117
0.14870	0.20219
0.12320	0.10015
0.12320	0.04914
0.17421	0.10015
0.07220	0.17668
0.22521	0.20219
0.07220	0.07465
0.12320	0.02363
0.12320	0.25320
0.07220	0.17668
0.25071	0.04914
0.12320	-0.02739
0.14870	0.07465
0.19971	0.32972
0.09770	0.27871
0.14870	0.20219
0.09770	0.27871
0.07220	0.22769
0.22521	0.40625
0.22521	-0.66508
0.07220	-0.15492
0.22521	0.12566
0.14870	0.55929
0.12320	0.40625
0.17421	-0.58856
0.12320	0.55929
0.12320	0.45726
0.14870	0.53379
0.09770	0.20219
0.12320	-0.33348
0.12320	0.12566
0.09770	-0.28246
0.14870	0.22769
0.14870	0.25320
0.09770	0.10015
0.12320	0.30422
0.12320	0.25320
0.07220	0.12566
0.22521	0.22769
0.14870	0.12566
0.12320	0.07465
0.22521	0.17668
0.14870	0.15117
0.12320	0.20219
0.22521	0.25320
0.12320	0.20219
0.02119	-0.05289
0.12320	0.32972
0.22521	0.15117
0.07220	-0.00188
0.19971	0.12566
0.17421	-0.10391
0.09770	0.04914
0.22521	0.53379
0.14870	0.61031
0.07220	-0.12942
0.14870	0.04914
0.14870	0.35523
0.09770	-0.25695
0.09770	0.27871
0.19971	0.32972
0.17421	0.38074
0.12320	-0.18043
0.14870	0.04914
0.17421	0.22769
0.25071	0.17668
0.17421	-0.02739
0.07220	-0.07840
0.14870	0.20219
0.22521	0.32972
0.09770	0.15117
0.14870	0.04914
0.14870	0.27871
0.09770	-0.69059
0.14870	0.40625
0.19971	0.15117
0.12320	0.04914
0.02119	0.40625
0.09770	0.40625
0.22521	0.45726
0.14870	0.43176
0.09770	-0.28246
0.19971	0.04914
0.19971	0.22769
0.14870	0.27871
0.19971	0.10015
0.19971	0.12566
0.14870	0.15117
0.14870	-0.00188
0.07220	-0.07840
0.19971	-0.02739
0.14870	0.35523
0.12320	0.25320
0.14870	0.20219
0.22521	0.22769
0.12320	0.10015
0.07220	0.30422
0.17421	0.35523
0.14870	-0.51203
0.19971	0.27871
0.14870	0.40625
0.09770	0.32972
0.12320	0.32972
0.14870	0.12566
0.07220	0.20219
0.14870	0.17668
0.19971	0.07465
0.14870	-0.02739
0.07220	0.07465
0.19971	0.15117
0.09770	0.22769
0.09770	0.15117
0.14870	-0.38449
0.22521	0.45726
0.17421	-0.10391
0.12320	0.20219
0.22521	0.25320
0.17421	0.35523
0.02119	0.30422
0.14870	0.43176
0.14870	0.15117
0.12320	-0.10391
0.09770	-0.02739
0.19971	0.25320
0.17421	0.22769
0.17421	0.30422
0.12320	0.25320
0.12320	0.20219
0.17421	0.25320
0.22521	-0.18043
0.07220	-0.00188
0.12320	0.10015
0.14870	0.22769
0.12320	0.12566
0.14870	0.12566
0.07220	0.48277
0.19971	-0.63957
0.09770	0.04914
0.22521	0.27871
0.14870	0.27871
0.12320	0.20219
0.17421	0.30422
0.12320	0.10015
0.19971	0.25320
0.09770	0.17668
0.19971	0.20219
0.14870	0.04914
0.17421	-0.02739
0.25071	0.15117
0.09770	0.17668
0.19971	-0.02739
0.07220	-0.05289
0.19971	0.25320
0.14870	0.17668
0.14870	0.43176
0.14870	0.25320
0.14870	0.07465
0.12320	-0.20594
0.07220	-0.02739
0.22521	0.35523
0.14870	0.35523
0.14870	-0.02739
0.14870	0.25320
0.14870	0.35523
0.09770	0.10015
0.14870	0.38074
0.09770	-0.07840
0.07220	0.32972
0.12320	0.30422
0.14870	0.20219
0.09770	-0.02739
0.22521	-0.30797
0.17421	-0.35899
0.17421	0.50828
0.14870	0.58480
0.22521	0.30422
0.12320	0.32972
0.07220	0.40625
0.12320	0.53379
0.14870	0.43176
0.12320	-1.37929
0.14870	-0.15492
0.19971	0.45726
0.09770	0.43176
0.12320	0.38074
0.22521	0.32972
0.07220	0.07465
0.12320	0.12566
0.17421	0.12566
0.07220	0.10015
0.19971	0.12566
0.12320	0.17668
0.17421	0.07465
0.22521	0.22769
0.14870	0.22769
0.17421	0.22769
0.17421	0.27871
0.14870	-0.38449
0.07220	0.04914
0.12320	0.30422
0.12320	0.25320
0.17421	0.38074
0.25071	-0.00188
0.14870	0.25320
0.07220	0.27871
0.17421	0.32972
0.09770	-0.05289
0.14870	0.35523
0.17421	0.43176
0.17421	-0.58856
0.12320	-0.58856
0.17421	0.58480
0.22521	0.48277
0.09770	0.15117
0.07220	0.45726
0.17421	0.22769
0.19971	0.27871
0.17421	0.20219
0.12320	0.04914
0.19971	0.15117
0.14870	0.10015
0.12320	0.04914
0.14870	0.12566
0.19971	0.04914
0.14870	0.12566
0.12320	0.04914
0.22521	0.10015
0.14870	0.12566
0.09770	0.10015
0.12320	0.25320
0.22521	0.17668
0.12320	0.17668
0.19971	0.22769
0.09770	0.20219
0.19971	0.20219
0.12320	0.20219
0.14870	0.04914
0.14870	0.20219
0.07220	0.10015
0.25071	0.12566
0.14870	0.04914
0.14870	0.15117
0.19971	0.27871
0.14870	0.04914
0.09770	0.04914
0.12320	-0.10391
0.19971	0.35523
0.12320	0.40625
0.22521	-0.10391
0.12320	0.15117
0.17421	0.25320
0.19971	0.35523
0.09770	0.17668
0.22521	0.30422
0.07220	0.02363
0.14870	-0.15492
0.14870	0.38074
0.09770	-1.35379
0.14870	0.53379
0.17421	0.61031
0.17421	-0.18043
0.19971	0.55929
0.09770	0.35523
0.12320	0.38074
0.14870	0.25320
0.07220	0.10015
0.22521	0.02363
0.14870	0.10015
0.09770	0.02363
0.17421	0.02363
0.19971	0.15117
0.19971	0.10015
0.14870	0.12566
0.09770	0.15117
0.14870	0.50828
0.22521	-0.02739
0.14870	0.45726
0.09770	-0.28246
0.17421	-0.05289
0.19971	-0.25695
0.12320	0.43176
0.12320	0.63582
0.17421	0.55929
0.22521	0.53379
0.12320	0.40625
0.09770	0.15117
0.22521	-0.02739
0.09770	-0.00188
0.09770	-0.05289
0.17421	-0.20594
0.22521	-0.00188
0.12320	0.04914
0.07220	0.20219
0.17421	0.22769
0.22521	0.15117
0.19971	0.25320
0.17421	0.10015
0.09770	-0.02739
0.12320	0.20219
0.19971	0.25320
0.22521	0.27871
0.17421	-0.33348
0.09770	0.27871
0.17421	0.35523
0.22521	0.55929
0.12320	0.43176
0.12320	0.07465
0.12320	-0.69059
0.17421	0.15117
0.09770	0.30422
0.14870	0.32972
0.22521	0.38074
0.12320	0.32972
0.12320	0.15117
0.22521	-0.18043
0.12320	0.38074
0.17421	0.07465
0.22521	-0.35899
0.19971	0.25320
0.04670	0.32972
0.14870	0.43176
0.25071	-0.38449
0.22521	0.12566
0.17421	-0.02739
0.09770	0.25320
0.17421	0.38074
0.17421	0.32972
0.12320	0.27871
0.09770	0.12566
0.12320	0.10015
0.19971	0.04914
0.17421	0.15117
0.09770	0.17668
0.09770	0.35523
0.17421	0.38074
0.14870	-0.00188
0.07220	-1.48133
0.14870	0.12566
0.22521	0.35523
0.12320	0.27871
0.14870	0.68683
0.22521	0.73785
0.14870	0.22769
0.09770	0.27871
0.19971	0.35523
0.14870	0.32972
0.09770	-0.30797
0.14870	-0.15492
0.17421	0.17668
0.07220	0.17668
0.12320	0.15117
0.22521	0.22769
0.14870	0.10015
0.12320	-0.10391
0.14870	0.07465
0.22521	0.32972
0.14870	0.12566
0.07220	0.15117
0.12320	0.20219
0.19971	0.17668
0.07220	0.04914
0.22521	0.35523
0.19971	0.35523
0.09770	0.22769
0.12320	0.15117
0.19971	0.17668
0.17421	0.10015
0.07220	-0.07840
0.14870	0.04914
0.19971	0.17668
0.12320	0.10015
0.12320	0.30422
0.12320	0.43176
0.19971	-0.33348
0.12320	0.25320
0.09770	0.71234
0.25071	-0.02739
-0.08081	-0.18043
0.25071	-0.35899
0.53123	-1.22625
-0.18282	0.63582
-0.05531	1.17148
0.07220	1.29902
0.17421	-1.76191
0.35272	-0.18043
-0.23382	0.89089
0.37822	0.76336
0.14870	0.83988
0.25071	1.19699
0.30171	-0.35899
-0.00431	-2.04250
0.07220	0.17668
0.19971	2.59991
0.07220	0.66132
0.65874	1.65613
0.30171	-10.58759
-0.53984	4.66604
-0.38683	-3.24136
0.42922	1.60511
-0.08081	3.74776
0.35272	2.29382
0.63323	1.45206
0.27621	-2.52714
0.17421	1.45206
0.27621	0.48277
0.35272	-0.00188
0.60773	2.95702
-0.74385	-1.58336
-0.33583	2.72745
0.63323	-4.05761
0.32721	-1.45582
0.17421	2.85499
-0.28482	-0.56305
-0.00431	-2.45062
0.32721	-3.26687
0.14870	1.47757
0.22521	-3.39441
0.22521	4.48749
0.14870	3.82429
0.14870	0.48277
0.37822	-2.93527
0.02119	1.78367
0.14870	1.35003
0.83725	3.44167
-0.08081	2.77847
-0.05531	2.44687
0.14870	-0.15492
0.27621	-5.20546
0.09770	2.26831
0.32721	3.11007
0.07220	-2.19554
-0.18282	-2.52714
-0.13181	1.27351
0.22521	-3.16484
-0.02981	-2.90976
0.14870	1.17148
0.40372	2.90601
0.48022	0.35523
0.22521	-2.17003
0.27621	-8.11334
0.07220	4.15589
-0.18282	0.94191
-0.20832	-2.90976
-0.05531	1.88570
0.19971	1.78367
0.09770	1.73265
0.25071	1.91120
0.63323	2.65093
0.53123	3.39065
0.48022	-0.35899
0.48022	0.22769
-0.08081	0.58480
-0.20832	-3.21585
-0.00431	-4.33819
-0.13181	-1.73640
-0.15732	-1.27726
0.12320	0.20219
0.19971	0.32972
0.27621	4.56401
0.25071	2.26831
0.17421	-0.94566
0.19971	1.37554
-0.00431	1.22250
0.22521	3.33964
0.27621	-3.41992
0.17421	-2.62918
0.07220	-2.75671
0.09770	-1.14973
0.02119	1.93671
0.19971	-2.57816
0.09770	1.78367
0.25071	3.16108
0.25071	0.96742
0.02119	1.68163
0.30171	-0.30797
0.35272	-2.65468
0.22521	0.02363
0.25071	-0.02739
-0.00431	0.15117
0.22521	0.48277
-0.00431	-0.53754
0.04670	1.22250
0.17421	-0.76711
0.12320	-0.76711
-0.00431	1.80917
0.19971	6.01795
0.32721	-3.70050
0.17421	-2.34859
0.17421	-1.37929
-0.02981	3.41616
-0.08081	3.56921
-0.08081	-9.77134
0.27621	-0.97117
0.35272	3.00804
0.40372	1.60511
0.17421	2.59991
0.30171	0.58480
-0.15732	1.45206
0.32721	1.01843
0.42922	0.86539
0.02119	-1.83844
-0.28482	-2.83324
-0.15732	-0.18043
-0.00431	0.81437
0.17421	-2.88425
0.22521	0.99292
0.35272	0.99292
0.40372	-0.48652
0.25071	-4.10862
0.09770	1.17148
-0.08081	1.78367
0.02119	2.95702
0.30171	-1.35379
0.30171	1.98773
0.25071	3.13558
0.27621	-1.20074
0.19971	-0.25695
0.02119	0.25320
-0.05531	-0.63957
-0.05531	1.37554
-0.08081	0.35523
0.07220	0.76336
0.19971	0.10015
0.25071	0.66132
0.32721	-2.90976
0.27621	2.14077
0.12320	0.86539
-0.08081	1.45206
0.32721	0.12566
0.32721	-4.13413
0.32721	-0.63957
0.22521	-0.20594
-0.00431	1.86019
-0.20832	3.62022
-0.00431	4.99764
0.45472	-4.92487
0.40372	-0.58856
-0.00431	-2.52714
-0.02981	0.68683
0.12320	1.75816
0.25071	1.12046
0.25071	1.17148
0.27621	1.63062
0.25071	2.85499
0.32721	-8.03682
0.17421	-1.71090
-0.02981	1.24800
-0.02981	0.83988
0.17421	3.62022
-0.02981	-5.07792
-0.00431	0.89089
0.19971	0.50828
0.19971	-0.23145
0.17421	1.60511
0.19971	0.45726
0.30171	1.01843
0.30171	0.53379
0.19971	0.50828
0.02119	-2.11902
0.14870	-2.04250
-0.05531	0.76336
-0.15732	-0.84363
0.12320	1.35003
0.22521	1.14597
0.25071	-1.14973
0.58223	1.47757
0.40372	1.80917
0.30171	1.42656
0.09770	-1.99148
-0.08081	-1.83844
-0.20832	1.04394
0.17421	0.55929
0.27621	1.01843
0.12320	1.78367
0.09770	0.89089
0.14870	1.70714
0.22521	1.06945
0.19971	-0.12942
-0.05531	-4.33819
0.09770	-0.48652
0.27621	0.55929
0.17421	1.40105
0.17421	-1.88945
0.09770	0.96742
-0.00431	2.57441
0.19971	-2.24656
0.17421	0.63582
0.04670	0.89089
0.02119	1.32453
0.17421	-0.56305
0.09770	0.48277
0.17421	0.27871
0.25071	0.22769
0.19971	0.91640
0.04670	-0.35899
0.17421	0.04914
0.25071	0.17668
0.19971	0.15117
0.22521	0.30422
0.12320	-1.02219
0.07220	-0.53754
0.07220	0.94191
0.04670	-3.75152
0.22521	0.76336
0.27621	1.35003
0.25071	1.50308
0.25071	1.70714
-0.00431	-0.76711
0.17421	0.66132
0.17421	-3.19035
0.17421	0.48277
0.22521	2.80397
0.14870	0.99292
0.09770	-0.07840
0.09770	-1.09871
0.22521	0.91640
0.09770	0.27871
0.12320	1.24800
0.17421	1.17148
0.04670	-2.80773
0.19971	0.30422
0.17421	0.63582
0.30171	1.70714
0.17421	-0.23145
0.19971	-0.66508
0.07220	1.73265
0.02119	0.22769
0.25071	-0.76711
0.07220	0.10015
0.04670	-0.10391
0.07220	-0.33348
0.12320	2.29382
0.14870	0.32972
0.14870	0.38074
0.27621	-0.66508
0.30171	-0.38449
0.09770	1.14597
0.12320	1.06945
0.25071	0.61031
0.12320	-0.46102
0.22521	-0.07840
-0.00431	-4.33819
0.09770	1.22250
0.19971	-0.30797
0.12320	1.27351
0.14870	1.86019
0.07220	2.59991
0.19971	1.04394
0.25071	-1.30277
0.14870	0.66132
0.12320	2.49788
0.14870	-5.23097
-0.08081	-1.83844
-0.00431	0.55929
0.17421	1.12046
0.17421	1.91120
0.22521	-0.86914
0.25071	0.22769
0.12320	0.68683
0.32721	-0.28246
0.09770	1.57960
0.02119	1.60511
0.25071	-5.81764
0.12320	0.22769
-0.02981	-0.81812
0.14870	2.11527
-0.02981	0.66132
0.04670	1.40105
0.14870	0.83988
0.30171	0.43176
0.30171	0.94191
0.09770	-1.17523
0.17421	-0.07840
0.25071	-0.05289
0.14870	1.68163
0.07220	0.55929
0.02119	-0.28246
0.12320	-2.19554
0.07220	0.78886
0.37822	-2.11902
0.27621	-3.03730
-0.02981	1.98773
-0.00431	2.29382
0.27621	-1.86394
0.30171	1.55410
0.25071	1.83468
-0.20832	0.73785
0.19971	-1.14973
0.14870	-2.68019
0.12320	-0.86914
0.09770	1.45206
0.22521	0.76336
0.04670	-0.79262
0.12320	1.57960
-0.05531	0.25320
-0.00431	-0.99668
0.02119	1.27351
-0.05531	1.98773
0.30171	-1.55785
0.32721	-0.76711
0.37822	-0.07840
0.45472	0.83988
0.17421	1.57960
0.37822	1.42656
0.30171	0.10015
0.09770	-2.98628
-0.00431	0.96742
-0.10631	1.32453
-0.28482	-1.37929
-0.08081	0.55929
0.02119	1.55410
0.35272	-0.79262
0.50573	-0.74160
0.19971	0.15117
0.27621	0.20219
0.07220	1.27351
-0.00431	1.73265
0.07220	-0.99668
0.12320	0.53379
0.32721	0.35523
0.14870	-1.81293
-0.10631	-1.12422
0.12320	2.52339
0.27621	0.35523
0.42922	-3.49644
0.25071	0.61031
0.22521	0.58480
0.32721	0.89089
0.09770	0.76336
-0.20832	1.19699
0.09770	1.27351
0.07220	1.29902
0.22521	-0.56305
0.30171	-1.25176
0.04670	1.45206
0.12320	-0.02739
0.07220	-1.12422
0.04670	-0.07840
0.12320	0.30422
-0.00431	2.42136
0.25071	2.42136
0.30171	-0.35899
0.32721	-3.34339
0.27621	0.15117
0.09770	2.11527
0.27621	0.02363
0.09770	0.81437
-0.08081	-1.30277
0.22521	1.14597
0.14870	-0.69059
0.07220	2.70194
0.17421	-2.04250
0.02119	0.20219
0.12320	0.78886
0.30171	1.47757
0.22521	0.63582
0.30171	-0.35899
0.07220	-0.51203
-0.08081	-0.66508
0.04670	1.80917
-0.00431	-1.02219
0.17421	1.09496
0.27621	1.57960
0.27621	2.47238
0.27621	-0.25695
0.14870	-2.90976
-0.05531	0.83988
0.09770	1.27351
0.14870	-0.76711
0.17421	0.86539
0.04670	1.01843
0.25071	1.09496
0.27621	1.42656
0.19971	0.40625
0.14870	0.10015
0.12320	0.40625
0.07220	-1.43031
0.07220	-0.66508
0.09770	-0.18043
0.40372	1.27351
0.22521	0.10015
0.27621	0.32972
0.04670	0.53379
0.22521	-0.00188
0.12320	-0.18043
0.09770	1.19699
0.17421	2.80397
0.22521	-3.52195
0.07220	-4.95038
-0.00431	2.49788
0.07220	2.75296
0.19971	-0.97117
0.19971	0.35523
0.35272	1.93671
0.12320	-3.59847
0.25071	-0.35899
0.09770	1.73265
0.14870	0.50828
0.12320	4.30893
0.14870	-0.02739
0.14870	-6.88897
0.02119	1.27351
0.14870	0.55929
0.07220	0.81437
0.25071	0.50828
0.12320	0.89089
0.14870	0.55929
-0.00431	-0.46102
0.19971	-0.02739
0.30171	-0.56305
0.14870	0.04914
0.19971	-1.68539
0.07220	1.68163
0.22521	0.35523
0.12320	-0.66508
0.14870	-1.04770
0.25071	0.55929
0.30171	0.78886
0.17421	0.12566
0.12320	0.89089
0.09770	0.32972
0.14870	0.20219
-0.02981	1.96222
-0.02981	1.57960
0.32721	-4.95038
0.25071	-0.02739
0.02119	0.76336
-0.02981	0.53379
0.09770	1.86019
0.04670	-5.12893
0.17421	1.78367
0.32721	2.03874
0.37822	-2.01699
0.09770	0.48277
0.14870	-1.71090
0.02119	1.37554
0.19971	1.12046
-0.18282	0.32972
-0.05531	1.12046
0.25071	1.09496
0.35272	1.19699
0.19971	1.37554
0.32721	-7.19506
0.04670	0.48277
-0.02981	0.25320
0.07220	0.68683
0.07220	-0.30797
0.09770	0.32972
0.27621	0.27871
0.32721	0.94191
0.27621	1.75816
0.19971	-0.28246
0.17421	0.10015
-0.02981	-1.17523
-0.05531	0.76336
0.12320	-0.86914
0.27621	0.66132
0.25071	1.37554
0.19971	-0.35899
0.14870	0.02363
0.14870	0.20219
0.22521	0.55929
0.04670	0.10015
0.12320	2.59991
0.07220	-0.92016
0.12320	-4.64429
0.14870	-0.38449
0.25071	1.29902
0.32721	2.34484
0.07220	-1.02219
0.02119	-0.30797
0.32721	-0.46102
0.04670	0.25320
0.02119	3.00804
0.07220	-1.25176
0.07220	-0.66508
0.07220	0.86539
0.27621	0.02363
0.17421	1.27351
0.12320	0.15117
0.19971	0.40625
-0.02981	0.50828
0.07220	-0.97117
0.14870	-0.46102
0.22521	-0.35899
0.22521	-1.27726
0.09770	0.35523
0.12320	1.27351
0.04670	-1.60887
0.14870	1.98773
0.27621	1.35003
0.09770	-3.98109
0.27621	0.38074
0.02119	1.22250
0.14870	0.86539
0.14870	0.25320
0.09770	0.04914
0.45472	-0.71609
0.35272	-0.48652
0.22521	-0.02739
-0.02981	0.78886
0.02119	1.86019
-0.00431	0.30422
0.14870	-1.94047
0.22521	-3.72601
0.09770	0.73785
0.02119	3.67124
0.12320	-2.68019
0.02119	0.94191
0.32721	2.06425
0.27621	2.08976
0.22521	-1.22625
0.19971	0.02363
-0.02981	-0.10391
0.17421	0.02363
0.12320	0.45726
0.09770	0.32972
0.22521	0.22769
0.12320	5.53330
0.30171	-11.40384
0.09770	-1.14973
0.14870	1.73265
0.02119	2.31933
0.12320	-1.20074
0.19971	1.57960
0.14870	1.83468
-0.00431	-0.43551
0.02119	-0.07840
0.19971	1.14597
0.12320	0.15117
0.12320	0.22769
0.30171	0.61031
0.07220	0.07465
0.12320	-0.15492
0.17421	0.38074
0.12320	0.04914
0.30171	-0.76711
0.32721	0.35523
0.30171	-0.33348
0.22521	-0.05289
-0.05531	1.29902
0.02119	0.45726
0.12320	0.38074
0.02119	-2.24656
0.19971	0.81437
0.19971	-1.20074
0.09770	1.91120
0.14870	2.19179
0.17421	1.14597
0.19971	-1.12422
0.25071	0.81437
0.14870	0.58480
0.09770	1.35003
0.02119	-2.04250
0.12320	-0.30797
0.30171	0.89089
0.25071	-0.10391
0.22521	0.40625
0.25071	0.66132
-0.08081	0.63582
-0.05531	0.55929
0.30171	-1.58336
0.04670	-1.78742
0.14870	-0.41000
0.14870	1.19699
0.07220	1.17148
0.14870	0.22769
0.14870	0.58480
0.12320	-1.32828
-0.13181	1.04394
0.25071	1.80917
0.27621	0.94191
0.14870	-1.20074
0.12320	1.04394
0.22521	-0.46102
0.17421	-0.18043
0.22521	1.45206
0.30171	-0.97117
0.14870	0.68683
-0.05531	0.22769
0.07220	-0.18043
0.02119	0.35523
0.09770	0.27871
0.27621	-0.41000
0.14870	-0.00188
0.12320	1.37554
0.27621	-1.71090
0.27621	-5.12893
0.22521	0.04914
0.09770	1.19699
-0.05531	2.14077
-0.08081	2.01323
0.07220	1.98773
0.19971	0.30422
0.48022	-0.99668
0.14870	0.22769
0.22521	0.32972
0.09770	0.07465
0.17421	0.73785
0.09770	-1.27726
0.22521	-1.94047
0.19971	-0.00188
0.04670	0.86539
-0.05531	0.73785
0.02119	-0.63957
-0.05531	-1.07320
0.07220	1.17148
0.19971	2.49788
0.35272	0.86539
0.37822	-0.18043
0.19971	-2.45062
0.12320	0.61031
0.30171	1.27351
0.07220	-0.86914
0.19971	1.60511
-0.00431	1.37554
0.02119	0.66132
-0.05531	-2.42511
-0.08081	-0.18043
0.19971	-3.39441
0.27621	1.57960
0.35272	1.78367
0.27621	1.37554
0.35272	-2.34859
0.09770	0.55929
0.09770	1.14597
0.09770	0.25320
-0.00431	0.25320
0.22521	0.78886
0.02119	0.63582
-0.00431	-1.73640
-0.00431	-1.20074
-0.00431	1.17148
0.32721	-3.11382
0.17421	1.01843
0.30171	1.63062
0.37822	0.61031
0.32721	-0.38449
0.22521	0.61031
0.25071	0.78886
0.04670	0.30422
0.09770	0.89089
0.02119	0.61031
-0.15732	-0.46102
0.14870	0.20219
0.09770	-1.50683
0.14870	0.35523
0.14870	0.40625
0.14870	1.27351
0.22521	-0.02739
0.14870	0.66132
-0.02981	-0.15492
0.27621	0.68683
0.07220	0.91640
0.04670	-0.66508
0.22521	-0.30797
0.19971	0.58480
0.25071	1.27351
0.32721	0.32972
0.09770	-0.61406
0.19971	-0.20594
0.02119	-1.17523
-0.08081	-1.78742
0.17421	2.29382
0.04670	2.67644
0.22521	-2.01699
0.30171	1.91120
0.32721	0.83988
0.14870	0.02363
0.09770	0.55929
-0.05531	0.63582
0.12320	0.38074
0.14870	-0.43551
0.12320	-1.60887
0.27621	0.32972
0.12320	-0.12942
0.12320	0.45726
0.09770	0.63582
0.12320	1.52859
0.37822	2.21730
0.25071	-1.63437
-0.02981	-8.31740
-0.02981	0.63582
-0.23382	1.86019
0.12320	1.73265
0.27621	1.42656
0.42922	1.17148
0.37822	0.68683
0.30171	0.32972
0.12320	0.15117
0.02119	-0.71609
0.07220	-0.20594
0.17421	1.32453
0.02119	-0.28246
0.17421	-0.89465
0.19971	-0.20594
-0.00431	0.30422
0.04670	-0.05289
-0.02981	-2.27207
0.14870	0.99292
0.32721	2.19179
0.25071	-3.08831
0.19971	-1.20074
0.14870	0.86539
0.12320	1.88570
0.12320	1.75816
0.09770	0.83988
0.19971	1.04394
0.35272	-1.20074
0.19971	0.53379
0.12320	-0.20594
0.09770	0.17668
-0.00431	0.04914
-0.02981	0.68683
0.25071	-1.88945
0.32721	0.63582
0.19971	1.24800
0.07220	-0.28246
0.14870	-4.92487
0.14870	0.96742
0.07220	-0.07840
0.27621	1.91120
0.07220	1.70714
0.19971	0.38074
0.12320	0.55929
0.12320	0.76336
0.17421	1.06945
-0.13181	-0.20594
0.07220	-1.50683
0.14870	0.12566
0.09770	0.35523
0.17421	-0.35899
0.30171	0.30422
0.48022	0.38074
0.19971	0.25320
0.07220	0.25320
0.09770	0.04914
0.14870	-0.92016
0.14870	1.37554
0.07220	1.57960
0.14870	-3.21585
0.02119	-2.73121
0.07220	2.75296
0.12320	-1.02219
0.14870	1.52859
0.07220	1.75816
0.02119	1.50308
0.09770	1.29902
0.32721	0.55929
0.30171	-0.25695
0.30171	-1.20074
0.27621	0.04914
0.19971	-0.07840
0.14870	-0.56305
0.12320	1.01843
0.09770	-0.23145
-0.10631	1.47757
0.14870	-4.59327
0.17421	-2.19554
0.09770	1.17148
0.27621	1.32453
0.27621	2.16628
0.35272	1.73265
0.12320	-0.00188
0.12320	1.06945
0.22521	-0.79262
-0.08081	0.40625
-0.13181	0.25320
0.09770	-0.35899
0.19971	0.10015
0.32721	-1.40480
0.14870	-0.30797
0.27621	0.66132
-0.00431	0.22769
0.25071	-0.00188
0.12320	0.10015
0.25071	-0.18043
0.12320	0.89089
0.12320	-2.06800
0.19971	-0.92016
0.17421	0.81437
0.04670	0.45726
0.19971	1.60511
0.12320	-0.43551
0.07220	1.45206
0.07220	-3.16484
0.02119	1.12046
0.07220	1.50308
0.40372	1.12046
0.32721	1.12046
0.30171	0.04914
0.09770	-0.97117
0.07220	-0.23145
0.14870	0.35523
0.27621	0.61031
0.07220	-0.05289
0.27621	0.30422
-0.00431	-0.46102
0.17421	-0.28246
-0.05531	-0.35899
0.22521	0.15117
0.12320	0.99292
0.07220	1.47757
0.22521	0.17668
0.07220	-1.48133
0.27621	0.78886
0.04670	1.40105
0.19971	0.55929
0.25071	-2.80773
0.19971	0.81437
0.09770	0.58480
0.27621	0.48277
-0.00431	1.09496
0.04670	0.83988
0.14870	-0.28246
-0.28482	0.40625
0.09770	-0.99668
0.35272	-0.05289
0.42922	-0.02739
0.40372	0.91640
0.27621	0.68683
0.22521	0.45726
0.07220	0.68683
0.04670	-6.12374
0.22521	-0.79262
-0.05531	0.48277
0.12320	1.17148
-0.08081	2.01323
-0.08081	1.88570
0.17421	1.37554
0.12320	0.73785
0.30171	0.30422
0.35272	-0.38449
0.19971	-0.30797
0.37822	0.02363
0.17421	0.27871
0.02119	-1.32828
-0.08081	-0.81812
-0.08081	-0.86914
0.22521	1.80917
0.25071	-1.09871
0.30171	0.15117
0.27621	0.35523
0.22521	0.07465
0.04670	1.09496
0.02119	0.91640
0.25071	1.27351
0.17421	2.29382
0.14870	-1.78742
0.19971	-0.76711
0.02119	1.01843
0.07220	1.78367
0.22521	-5.89417
0.32721	0.66132
0.25071	1.68163
0.09770	0.61031
0.09770	1.09496
0.17421	0.10015
0.17421	1.12046
0.12320	1.35003
0.19971	-0.79262
0.14870	0.38074
-0.00431	-0.07840
0.07220	-0.30797
0.25071	-0.74160
0.25071	-0.46102
0.14870	0.32972
0.22521	3.03355
0.12320	-0.25695
0.02119	-4.87386
0.14870	1.06945
0.17421	1.65613
0.19971	0.43176
0.25071	0.55929
0.25071	1.24800
0.14870	1.27351
0.12320	-0.48652
0.02119	2.21730
-0.08081	-1.83844
0.04670	-0.00188
0.17421	0.50828
0.30171	0.50828
0.32721	0.48277
0.09770	-0.00188
0.14870	-0.51203
0.22521	0.94191
0.12320	0.30422
0.22521	-0.41000
0.02119	0.02363
0.09770	-0.25695
0.19971	-1.30277
0.02119	0.50828
0.09770	1.35003
0.12320	1.19699
0.09770	-1.40480
0.40372	-1.88945
0.19971	1.32453
0.12320	1.40105
0.12320	-0.92016
-0.13181	-0.05289
0.02119	2.01323
0.48022	-0.12942
0.27621	-0.02739
0.32721	1.68163
0.42922	0.15117
0.22521	-1.76191
0.09770	0.96742
-0.00431	0.50828
0.04670	1.04394
-0.15732	-0.15492
-0.00431	-1.09871
-0.02981	0.73785
0.14870	0.50828
0.32721	-3.24136
0.32721	0.07465
0.27621	0.76336
0.19971	2.19179
0.09770	-0.86914
0.12320	0.78886
0.07220	-1.25176
0.07220	0.83988
-0.00431	1.22250
0.07220	0.96742
0.17421	1.24800
0.17421	0.53379
0.30171	-1.88945
0.17421	0.45726
0.17421	0.91640
0.17421	-2.55265
0.04670	-0.18043
0.12320	1.29902
-0.05531	1.98773
0.27621	-1.48133
0.04670	0.40625
0.27621	0.04914
0.32721	-0.89465
0.27621	0.07465
0.19971	1.40105
0.14870	2.62542
0.17421	-1.83844
-0.00431	-1.88945
0.02119	0.32972
0.14870	1.19699
0.19971	0.43176
0.27621	-0.35899
0.22521	-0.10391
0.09770	0.58480
0.14870	0.68683
0.32721	0.22769
0.17421	-0.99668
0.14870	1.06945
0.02119	1.17148
0.02119	-0.10391
-0.05531	-2.34859
0.17421	0.17668
0.19971	-1.86394
0.04670	0.38074
0.07220	1.78367
0.19971	1.09496
0.25071	0.32972
0.14870	0.25320
0.27621	1.24800
0.12320	-0.46102
-0.02981	1.32453
0.22521	-1.20074
0.30171	-1.20074
0.17421	0.81437
0.14870	1.80917
0.22521	-0.86914
0.09770	1.17148
-0.02981	-2.17003
0.04670	2.01323
0.09770	-1.68539
0.19971	0.99292
0.14870	0.27871
0.22521	-0.25695
0.30171	1.80917
0.07220	0.83988
0.07220	-5.12893
0.12320	1.42656
0.27621	0.68683
0.09770	1.57960
-0.05531	-0.81812
0.17421	0.58480
0.14870	1.04394
0.14870	0.83988
0.17421	-1.02219
0.12320	0.22769
0.14870	1.01843
0.14870	-0.23145
0.25071	-2.88425
0.30171	0.58480
0.02119	0.45726
0.09770	0.68683
0.14870	0.55929
0.09770	0.15117
0.09770	-0.89465
0.19971	1.40105
0.22521	0.76336
0.07220	1.32453
0.17421	0.86539
0.19971	-1.68539
0.12320	-0.41000
0.22521	1.80917
0.22521	-1.09871
0.14870	0.73785
-0.08081	-0.10391
0.14870	0.91640
0.30171	-0.00188
0.12320	-0.97117
0.12320	0.63582
0.09770	1.09496
-0.08081	0.94191
-0.13181	-0.05289
0.35272	-1.25176
0.27621	-0.28246
0.37822	-2.06800
0.37822	0.71234
0.19971	1.93671
0.19971	-0.92016
0.22521	1.32453
0.07220	0.78886
-0.00431	-1.12422
-0.02981	-0.92016
-0.05531	0.68683
0.07220	-0.02739
0.32721	0.61031
0.22521	0.76336
0.17421	0.15117
0.14870	0.73785
-0.02981	0.32972
0.30171	0.55929
0.25071	-1.02219
0.37822	0.17668
0.12320	-0.53754
0.09770	0.38074
-0.02981	-0.66508
0.07220	-0.61406
0.12320	0.27871
0.17421	0.99292
0.22521	-1.09871
0.17421	0.45726
0.22521	1.04394
0.04670	1.91120
0.19971	-0.23145
0.30171	0.38074
0.12320	0.63582
0.14870	-1.76191
0.07220	1.04394
0.07220	-1.32828
0.12320	0.17668
0.17421	1.29902
0.09770	-0.46102
0.14870	0.53379
0.12320	0.63582
0.09770	0.40625
0.17421	-1.09871
0.14870	-0.10391
0.30171	0.22769
0.12320	0.50828
0.12320	1.75816
0.07220	-2.06800
-0.02981	0.55929
0.04670	0.20219
0.12320	0.63582
0.27621	-0.99668
0.22521	1.01843
0.14870	1.40105
0.19971	1.12046
0.09770	-1.88945
0.12320	0.07465
0.09770	-0.12942
0.07220	0.86539
0.04670	-0.00188
0.04670	1.01843
0.22521	0.12566
0.19971	0.20219
0.19971	0.27871
0.25071	-0.02739
0.30171	-0.28246
-0.00431	-2.52714
-0.05531	0.04914
-0.00431	0.55929
0.07220	0.53379
0.25071	2.14077
0.30171	-0.63957
0.25071	-0.10391
0.32721	0.94191
0.22521	0.38074
0.04670	-0.07840
-0.02981	0.35523
-0.08081	0.66132
0.07220	0.66132
0.32721	-0.76711
0.30171	0.76336
0.19971	-1.48133
0.27621	1.01843
0.09770	-1.78742
-0.08081	1.32453
0.19971	1.52859
0.19971	-1.12422
0.12320	-0.15492
0.07220	2.75296
0.19971	-1.86394
0.30171	-0.69059
0.12320	0.48277
0.09770	1.17148
0.07220	-0.02739
-0.08081	-0.25695
-0.10631	-0.00188
0.30171	-0.89465
0.37822	1.88570
0.37822	-3.95558
0.17421	0.35523
0.22521	1.47757
0.12320	1.01843
0.12320	0.83988
0.19971	0.86539
0.02119	1.04394
0.17421	0.50828
0.09770	-2.04250
-0.00431	0.35523
0.07220	1.17148
0.27621	0.27871
0.07220	0.81437
0.22521	0.99292
0.19971	0.91640
0.04670	-2.27207
0.19971	0.89089
0.25071	1.35003
0.17421	0.35523
0.25071	-0.94566
0.14870	-0.38449
0.09770	0.83988
0.22521	0.91640
0.09770	-1.22625
0.17421	0.04914
0.19971	-0.23145
0.04670	-0.12942
-0.02981	0.53379
0.14870	0.78886
0.09770	0.38074
0.07220	0.25320
0.09770	2.03874
0.17421	-0.46102
0.32721	-1.43031
0.22521	-2.42511
0.27621	1.06945
0.12320	1.32453
0.02119	-0.33348
0.25071	0.78886
0.25071	1.68163
0.07220	0.25320
0.19971	-0.15492
0.07220	0.10015
0.12320	0.81437
0.19971	-0.69059
0.12320	-0.23145
-0.02981	-0.74160
0.17421	-0.89465
0.07220	-0.61406
0.25071	0.12566
0.22521	0.53379
0.35272	-0.07840
0.09770	1.73265
0.12320	1.09496
0.09770	1.32453
-0.08081	0.04914
0.09770	0.86539
0.02119	-0.61406
0.12320	0.40625
0.37822	-0.76711
0.19971	0.81437
0.04670	-0.94566
0.35272	-1.32828
0.09770	0.35523
0.12320	0.91640
-0.05531	1.27351
-0.10631	0.50828
0.09770	0.83988
0.14870	-0.81812
0.22521	-2.17003
0.32721	1.17148
0.25071	-0.86914
0.30171	1.83468
0.19971	0.78886
0.09770	1.24800
0.12320	0.20219
0.14870	0.68683
0.04670	-0.23145
-0.00431	0.12566
-0.15732	0.30422
0.12320	-0.94566
0.19971	-2.83324
0.25071	0.20219
0.04670	1.35003
0.19971	0.71234
0.35272	2.01323
0.32721	2.16628
0.32721	-3.16484
0.14870	0.27871
-0.05531	-0.99668
-0.08081	-0.18043
0.02119	1.24800
0.17421	-0.07840
0.22521	0.91640
0.19971	1.70714
0.04670	0.27871
0.12320	-2.50164
0.12320	1.27351
0.02119	-0.10391
0.25071	1.12046
0.14870	0.32972
0.07220	-0.99668
0.22521	0.73785
0.17421	0.66132
0.30171	0.12566
0.37822	-0.58856
-0.13181	0.32972
-0.20832	0.25320
0.02119	1.29902
0.12320	-1.04770
0.30171	-0.05289
0.40372	-1.99148
0.27621	0.89089
0.19971	0.63582
0.17421	1.14597
0.14870	0.35523
0.14870	0.48277
0.09770	1.22250
-0.08081	-0.58856
0.02119	-0.53754
-0.10631	-1.27726
0.12320	-0.05289
0.27621	0.94191
0.50573	0.66132
0.30171	0.94191
0.22521	1.52859
-0.02981	0.99292
-0.28482	-1.30277
0.12320	-0.46102
0.22521	0.30422
0.04670	-0.18043
0.42922	1.14597
0.12320	1.24800
0.19971	-0.86914
0.14870	-2.80773
0.09770	1.52859
0.30171	-0.56305
0.22521	-1.60887
0.02119	0.71234
0.12320	0.81437
0.02119	1.78367
-0.00431	1.17148
0.02119	1.73265
0.09770	-0.25695
0.32721	0.35523
0.27621	-0.05289
0.22521	-1.27726
0.17421	-0.12942
0.02119	0.07465
0.07220	0.07465
0.02119	0.17668
0.27621	-0.61406
0.25071	-1.07320
0.12320	0.30422
0.22521	1.17148
0.25071	0.30422
0.02119	1.50308
0.12320	-1.76191
0.22521	-0.15492
0.07220	1.70714
0.02119	-0.99668
0.04670	-2.29757
-0.02981	1.60511
0.04670	1.09496
0.27621	2.85499
0.32721	-0.30797
0.22521	-1.91496
0.27621	-0.46102
0.07220	1.14597
0.04670	1.42656
0.25071	0.55929
0.22521	-1.48133
0.22521	-0.02739
0.02119	-0.81812
0.12320	-0.28246
-0.18282	-0.25695
0.02119	2.03874
-0.08081	0.96742
0.17421	-3.85355
0.27621	-1.14973
0.12320	1.60511
0.25071	0.91640
0.22521	1.55410
0.17421	0.89089
0.32721	1.29902
0.22521	-0.61406
0.19971	0.76336
0.07220	1.06945
0.12320	-1.25176
-0.13181	-0.02739
0.14870	0.61031
0.25071	-0.99668
0.12320	0.04914
-0.05531	-0.00188
0.14870	-0.58856
0.22521	0.20219
0.14870	0.02363
0.22521	0.73785
0.27621	0.50828
0.17421	0.73785
0.09770	0.22769
0.07220	-0.89465
0.04670	0.50828
0.12320	2.98253
0.02119	2.72745
0.22521	-5.76663
0.22521	-1.68539
0.07220	1.06945
0.17421	1.86019
-0.00431	1.91120
0.12320	1.14597
0.07220	0.73785
0.27621	-0.12942
0.17421	0.50828
0.12320	0.96742
0.17421	-2.39961
0.32721	-0.51203
0.27621	0.58480
0.12320	1.63062
0.22521	0.81437
0.12320	-0.23145
0.04670	-0.56305
-0.10631	1.65613
0.12320	-0.28246
-0.08081	-2.85874
0.17421	0.68683
0.02119	1.55410
0.32721	-0.12942
0.19971	0.99292
0.37822	1.04394
0.30171	1.12046
0.35272	1.14597
0.14870	-0.10391
0.02119	-2.37410
-0.13181	-1.60887
0.12320	0.35523
0.02119	0.30422
0.27621	1.01843
0.25071	0.91640
0.35272	-0.51203
0.09770	0.94191
0.02119	-0.15492
0.04670	-1.07320
0.09770	0.45726
0.25071	-0.43551
0.22521	-2.52714
0.17421	-0.10391
0.12320	0.91640
0.19971	2.80397
-0.02981	0.73785
0.07220	-0.66508
-0.05531	1.29902
0.32721	0.15117
0.25071	0.27871
0.22521	0.27871
0.17421	-1.76191
-0.02981	-0.81812
0.30171	-0.69059
0.19971	0.04914
0.32721	0.15117
0.19971	0.45726
0.12320	1.01843
0.19971	0.68683
-0.02981	-0.86914
0.12320	-2.01699
-0.05531	2.16628
-0.08081	-1.20074
0.19971	0.45726
0.04670	1.52859
0.25071	1.65613
0.42922	0.63582
0.17421	-0.05289
0.04670	0.17668
0.09770	-0.10391
0.22521	0.30422
0.25071	-0.12942
0.22521	-0.92016
0.12320	0.12566
0.07220	0.38074
0.07220	0.66132
0.17421	-0.94566
0.19971	1.60511
0.09770	0.68683
0.32721	-1.99148
0.14870	-3.13933
-0.02981	0.63582
0.07220	1.45206
0.09770	-0.20594
0.02119	1.57960
0.14870	2.16628
0.27621	-0.05289
0.14870	0.91640
0.25071	-0.48652
0.19971	-0.71609
-0.02981	0.50828
0.19971	0.53379
0.17421	-0.51203
0.19971	0.12566
0.32721	1.52859
0.25071	-0.12942
0.07220	-0.48652
0.19971	0.20219
0.04670	-1.40480
-0.10631	-0.41000
-0.10631	0.22769
-0.00431	1.91120
0.02119	1.60511
0.42922	-0.05289
0.48022	1.12046
0.30171	-1.48133
0.19971	0.73785
0.04670	0.35523
0.02119	1.09496
-0.02981	-1.30277
0.02119	-1.04770
0.09770	-0.46102
0.19971	1.35003
0.30171	0.99292
0.17421	-0.15492
0.12320	-1.30277
0.07220	0.63582
-0.00431	0.94191
0.19971	0.63582
0.25071	2.03874
0.19971	-2.19554
0.27621	-1.76191
0.12320	0.91640
0.07220	1.14597
0.12320	0.83988
0.02119	0.55929
0.17421	-1.07320
0.04670	0.96742
0.17421	-1.50683
0.22521	0.25320
0.22521	0.45726
0.14870	1.37554
0.09770	0.58480
0.17421	-1.07320
0.17421	0.86539
0.19971	0.32972
0.02119	0.83988
0.12320	-0.48652
0.12320	1.68163
0.12320	-3.80253
0.17421	-2.65468
0.17421	2.26831
0.17421	0.32972
0.07220	1.40105
0.04670	0.63582
0.19971	1.78367
0.22521	1.19699
0.27621	-1.14973
0.22521	-1.73640
0.14870	-0.35899
0.09770	0.53379
0.27621	0.20219
0.17421	-0.41000
0.14870	0.73785
0.09770	0.50828
0.12320	0.43176
0.02119	-0.30797
-0.18282	0.30422
0.02119	0.45726
0.25071	1.32453
0.27621	1.65613
0.48022	-5.38401
0.37822	-1.12422
0.19971	-0.46102
0.02119	1.93671
0.17421	2.11527
0.09770	0.63582
0.17421	1.35003
0.12320	0.10015
0.04670	1.09496
0.22521	0.76336
0.07220	-1.83844
0.14870	-0.25695
0.02119	0.40625
0.12320	-0.58856
0.19971	-0.51203
0.09770	0.12566
0.17421	0.15117
0.27621	-0.63957
0.22521	-0.07840
0.14870	-0.35899
0.14870	0.45726
-0.05531	0.43176
0.17421	-1.25176
0.14870	0.89089
0.07220	0.30422
0.12320	-0.12942
0.17421	1.75816
0.07220	-0.66508
-0.00431	0.04914
0.22521	-1.09871
0.14870	1.04394
0.32721	-0.10391
0.30171	0.35523
0.02119	-0.07840
0.09770	-0.20594
0.04670	0.78886
0.17421	1.63062
0.25071	-1.73640
0.17421	-0.53754
0.12320	-0.56305
0.14870	0.96742
0.07220	-3.34339
0.14870	-0.25695
0.12320	0.71234
-0.02981	2.24281
0.07220	1.09496
0.27621	-1.22625
0.09770	-0.02739
0.14870	0.76336
0.30171	0.99292
0.19971	1.93671
0.17421	-1.94047
0.12320	0.94191
0.17421	1.01843
0.27621	0.15117
0.17421	-1.40480
0.14870	0.17668
0.07220	-0.35899
-0.00431	-0.12942
0.25071	0.78886
0.04670	0.71234
-0.05531	0.81437
0.32721	1.01843
0.09770	-0.07840
0.12320	-1.65988
0.22521	-0.97117
0.22521	0.96742
0.22521	0.66132
0.22521	0.94191
0.09770	0.83988
-0.05531	0.89089
0.12320	-1.37929
-0.02981	0.22769
0.25071	1.01843
0.25071	-0.74160
0.37822	1.40105
0.14870	-3.36890
0.12320	-0.07840
0.09770	0.07465
0.09770	0.91640
0.12320	0.15117
-0.00431	0.91640
-0.10631	1.75816
0.32721	1.04394
0.30171	-0.30797
0.37822	-1.86394
0.25071	1.42656
0.22521	-1.32828
0.12320	1.37554
-0.00431	-0.43551
0.19971	-2.06800
0.25071	-1.02219
0.07220	0.20219
0.02119	0.02363
0.19971	1.80917
0.09770	0.22769
0.09770	0.73785
-0.00431	0.53379
-0.08081	0.32972
0.12320	0.68683
0.25071	0.25320
0.30171	-0.51203
0.22521	0.15117
0.30171	-3.44542
0.32721	0.66132
0.19971	0.89089
0.22521	0.96742
0.02119	0.78886
0.02119	1.45206
-0.02981	-0.05289
0.22521	-2.14453
0.22521	-0.15492
0.04670	0.15117
0.19971	0.83988
0.22521	1.55410
0.19971	0.10015
0.09770	-0.97117
0.12320	-0.00188
0.22521	1.01843
0.12320	1.04394
0.12320	-0.61406
0.09770	-0.10391
0.09770	0.58480
0.09770	0.10015
0.25071	1.19699
0.14870	-0.10391
0.14870	-1.27726
0.22521	1.12046
0.12320	0.86539
0.19971	-0.25695
0.07220	-0.43551
0.02119	1.55410
0.12320	-2.01699
0.09770	1.42656
0.32721	-0.58856
0.37822	0.45726
0.22521	1.04394
0.12320	0.83988
0.09770	0.48277
0.14870	0.68683
0.02119	-0.71609
0.14870	-0.53754
-0.00431	-2.37410
0.07220	0.22769
0.27621	0.76336
0.12320	0.86539
0.17421	-0.53754
0.09770	1.80917
0.09770	0.71234
0.32721	-2.19554
-0.05531	-1.55785
0.02119	0.50828
0.19971	1.42656
0.12320	1.52859
0.19971	-0.05289
0.22521	0.73785
0.14870	-0.63957
0.09770	0.66132
0.22521	0.71234
0.14870	0.83988
-0.05531	0.40625
0.12320	-1.20074
0.25071	0.20219
0.07220	1.45206
0.14870	-0.33348
0.12320	-0.99668
0.04670	0.30422
-0.05531	1.12046
0.07220	-1.63437
0.14870	0.76336
0.22521	0.07465
0.07220	0.45726
0.25071	0.55929
0.30171	-2.57816
0.42922	2.19179
0.37822	0.76336
0.12320	0.91640
0.07220	1.50308
-0.02981	0.45726
0.04670	-1.99148
0.09770	0.83988
0.14870	-0.18043
0.14870	0.07465
0.07220	-1.45582
0.14870	0.25320
0.09770	0.15117
0.19971	0.20219
0.07220	0.83988
0.09770	0.25320
0.09770	0.48277
0.17421	0.66132
0.19971	0.61031
0.32721	-1.09871
0.17421	-0.41000
0.02119	-0.05289
0.17421	-1.35379
0.22521	0.55929
0.32721	1.17148
0.07220	2.11527
0.14870	-1.53234
-0.02981	-0.15492
0.04670	0.66132
0.12320	0.76336
0.19971	0.76336
0.19971	-0.81812
0.19971	-1.14973
0.17421	0.25320
0.17421	-0.58856
0.14870	0.94191
0.14870	0.61031
0.02119	-0.46102
0.17421	0.10015
0.19971	0.35523
0.07220	0.27871
0.19971	0.55929
0.09770	0.63582
0.27621	1.06945
0.09770	0.38074
0.19971	-0.92016
0.12320	0.68683
0.19971	-1.20074
0.07220	-1.43031
0.22521	1.01843
0.07220	0.63582
0.09770	0.71234
0.22521	0.50828
0.19971	-0.51203
0.22521	0.27871
0.12320	0.35523
0.22521	0.86539
0.09770	-0.05289
0.22521	-0.51203
0.07220	0.40625
0.14870	1.14597
0.02119	0.43176
-0.10631	-0.97117
0.30171	-1.25176
0.25071	-2.88425
0.22521	0.78886
0.19971	1.06945
0.14870	0.12566
0.17421	1.09496
0.22521	0.38074
0.12320	0.45726
0.19971	0.40625
0.12320	0.10015
0.09770	-0.10391
0.14870	-0.07840
0.22521	0.53379
0.17421	-0.66508
0.09770	0.71234
0.02119	1.01843
-0.18282	-3.77702
-0.08081	0.10015
0.53123	0.81437
0.35272	1.06945
0.35272	1.12046
0.32721	0.78886
0.19971	0.32972
0.02119	0.22769
0.17421	0.20219
0.02119	0.55929
-0.05531	0.48277
0.14870	0.53379
0.17421	-3.39441
0.09770	0.68683
0.17421	0.40625
0.12320	0.55929
0.09770	-0.97117
0.19971	1.01843
0.04670	1.04394
0.07220	1.01843
-0.00431	0.89089
-0.20832	0.53379
0.30171	0.04914
0.30171	-0.07840
0.42922	-0.20594
0.50573	0.20219
0.30171	-0.07840
0.32721	1.29902
0.17421	-0.66508
0.04670	0.66132
0.07220	-4.61878
0.02119	-0.79262
-0.13181	1.14597
-0.02981	0.78886
0.12320	1.32453
0.17421	1.37554
0.22521	1.17148
