0.04670	0.38074
0.02119	0.45726
-0.08081	0.30422
0.04670	0.32972
0.14870	0.35523
0.02119	0.07465
0.19971	-0.15492
0.35272	0.12566
0.22521	0.20219
0.14870	0.17668
0.07220	0.04914
0.17421	0.12566
0.19971	0.10015
0.09770	0.07465
-0.02981	0.04914
0.12320	0.10015
0.27621	0.15117
0.42922	0.15117
0.04670	0.15117
0.04670	0.22769
0.04670	0.40625
0.22521	0.25320
0.14870	0.20219
0.19971	0.20219
0.09770	-0.02739
0.12320	0.10015
0.19971	0.12566
0.09770	-0.05289
0.22521	-0.00188
0.09770	0.35523
0.09770	0.12566
0.22521	0.30422
0.12320	0.22769
0.17421	0.12566
0.14870	0.27871
0.04670	0.07465
0.17421	-0.00188
0.22521	0.04914
0.09770	0.20219
0.17421	0.15117
0.17421	0.04914
0.04670	0.02363
0.14870	0.04914
0.12320	0.27871
-0.28482	0.17668
0.30171	0.07465
0.60773	0.07465
0.12320	-0.00188
0.09770	0.43176
0.04670	0.55929
-0.00431	0.22769
0.17421	0.10015
0.09770	0.12566
0.17421	-0.07840
0.22521	0.30422
0.04670	0.17668
0.25071	-0.07840
0.12320	0.04914
0.30171	-0.18043
0.12320	0.12566
0.19971	0.38074
0.17421	0.58480
0.12320	0.30422
0.12320	0.25320
0.07220	-0.05289
0.25071	0.15117
0.17421	-0.12942
0.30171	-0.00188
0.04670	0.10015
0.14870	0.30422
0.07220	0.25320
0.12320	0.43176
0.09770	0.20219
0.12320	-0.10391
0.14870	0.10015
0.14870	-0.10391
0.14870	0.20219
0.17421	0.30422
0.12320	-0.00188
0.27621	0.38074
0.07220	0.07465
0.14870	0.27871
0.12320	0.35523
0.17421	0.17668
0.09770	0.32972
0.09770	0.02363
0.14870	-0.20594
0.12320	-0.10391
0.19971	0.12566
0.17421	0.10015
0.14870	0.30422
0.04670	0.53379
0.09770	0.45726
0.14870	0.04914
0.12320	0.15117
0.14870	-0.05289
0.17421	-0.02739
0.09770	-0.10391
0.22521	0.20219
0.09770	0.20219
0.14870	0.20219
0.09770	-0.10391
0.09770	0.30422
0.12320	0.38074
0.12320	0.38074
0.14870	-0.12942
0.19971	0.04914
0.17421	0.04914
0.17421	0.10015
0.19971	-0.02739
0.19971	0.15117
0.12320	0.38074
0.12320	0.32972
0.17421	0.35523
0.02119	-0.05289
0.12320	-0.30797
0.07220	0.27871
0.30171	0.22769
0.17421	0.38074
0.17421	0.07465
0.22521	0.30422
0.09770	0.10015
0.19971	0.12566
0.04670	0.17668
0.07220	0.04914
0.17421	0.04914
0.14870	0.12566
0.12320	0.10015
0.17421	0.22769
0.25071	0.27871
0.09770	0.15117
0.19971	0.22769
0.02119	0.10015
0.22521	0.15117
0.07220	0.15117
0.19971	0.22769
0.09770	0.50828
0.19971	-0.53754
0.17421	-0.18043
0.14870	0.40625
0.09770	0.38074
0.12320	0.50828
0.09770	0.27871
0.12320	0.25320
0.19971	-0.35899
0.14870	-0.12942
0.22521	0.10015
0.12320	0.25320
0.22521	0.17668
0.07220	0.22769
0.19971	0.32972
0.09770	0.07465
0.19971	0.25320
0.09770	0.07465
0.17421	-0.00188
0.09770	-0.18043
0.22521	0.04914
0.07220	0.07465
0.25071	0.32972
0.12320	0.30422
0.17421	0.38074
0.12320	0.15117
0.09770	0.71234
0.04670	0.27871
0.19971	-0.23145
0.12320	-1.55785
0.22521	-0.41000
0.09770	0.63582
0.25071	0.96742
0.07220	1.06945
0.17421	0.86539
0.07220	0.50828
0.22521	0.20219
0.09770	0.02363
0.12320	-0.07840
0.14870	-0.12942
0.17421	-0.30797
0.19971	-0.07840
0.12320	-0.28246
0.17421	0.17668
0.17421	0.25320
0.17421	0.25320
0.14870	0.27871
0.07220	0.15117
0.14870	0.25320
0.04670	0.04914
0.14870	0.17668
0.17421	0.25320
0.19971	0.25320
0.22521	0.35523
0.07220	0.20219
0.12320	-0.00188
0.17421	0.12566
0.07220	0.43176
0.12320	0.02363
0.14870	0.12566
0.09770	-0.30797
0.19971	0.25320
0.17421	0.63582
0.07220	0.07465
0.22521	-0.00188
0.07220	0.25320
0.12320	0.32972
0.12320	0.22769
0.09770	-0.12942
0.12320	0.15117
0.17421	0.10015
0.25071	0.04914
0.09770	0.04914
0.19971	0.22769
0.17421	0.73785
0.04670	-0.18043
0.17421	-0.00188
0.12320	-0.84363
0.12320	0.20219
0.14870	0.53379
0.17421	0.35523
0.22521	0.53379
0.09770	0.12566
0.19971	0.35523
0.14870	0.38074
0.09770	0.12566
0.17421	-0.05289
0.04670	0.04914
0.19971	-0.10391
0.12320	0.02363
0.12320	0.15117
0.12320	0.10015
0.12320	-0.48652
0.25071	0.32972
0.09770	0.32972
0.14870	0.35523
0.19971	0.43176
0.04670	0.27871
0.17421	0.20219
0.12320	0.58480
0.12320	-1.04770
0.19971	-0.18043
0.14870	-0.05289
0.19971	0.53379
0.22521	0.66132
0.09770	0.40625
0.17421	0.20219
0.12320	0.43176
0.02119	0.02363
0.22521	-0.00188
0.09770	0.02363
0.14870	-0.07840
0.14870	-0.00188
0.17421	-0.07840
0.12320	0.22769
0.07220	0.43176
0.17421	-0.15492
0.14870	0.27871
0.12320	0.10015
0.22521	0.22769
0.07220	0.22769
0.19971	-0.10391
0.19971	0.10015
0.22521	0.25320
0.19971	0.43176
0.09770	0.55929
0.17421	0.55929
0.07220	0.15117
0.17421	0.04914
0.09770	0.02363
0.17421	0.04914
0.17421	0.25320
0.17421	-0.35899
0.22521	0.04914
0.12320	0.20219
0.07220	0.27871
0.19971	0.25320
0.02119	0.10015
0.17421	-0.02739
0.17421	0.22769
0.17421	0.07465
0.22521	0.02363
0.12320	0.10015
0.22521	0.32972
0.14870	0.27871
0.12320	0.35523
0.09770	0.22769
0.07220	0.10015
0.22521	-0.02739
0.07220	0.12566
0.14870	0.12566
0.17421	0.20219
0.14870	0.07465
0.17421	0.35523
0.12320	0.43176
0.17421	-0.51203
0.14870	-0.05289
0.19971	0.35523
-0.02981	0.22769
0.19971	0.17668
0.07220	0.04914
0.19971	0.40625
0.07220	0.50828
0.25071	-0.69059
0.17421	0.15117
0.14870	0.15117
0.14870	0.40625
0.02119	0.55929
0.14870	0.22769
0.14870	-0.07840
0.12320	-0.28246
0.09770	-0.25695
0.27621	0.30422
0.12320	-0.05289
0.12320	0.30422
0.12320	0.35523
0.12320	0.32972
0.19971	0.35523
0.02119	0.07465
0.12320	0.17668
0.19971	0.10015
0.19971	0.20219
0.12320	0.12566
0.19971	0.22769
0.19971	0.17668
0.09770	0.04914
0.19971	0.32972
0.09770	0.17668
0.19971	0.15117
0.14870	0.12566
0.14870	-0.10391
0.22521	0.04914
0.09770	0.17668
0.22521	0.25320
0.09770	0.25320
0.19971	0.12566
0.02119	0.30422
0.07220	0.25320
0.17421	0.12566
0.14870	-0.00188
0.12320	-0.00188
0.27621	0.22769
0.17421	0.17668
0.14870	0.32972
0.22521	0.17668
0.04670	0.10015
0.12320	0.12566
0.09770	-0.02739
0.09770	0.02363
0.22521	0.30422
0.17421	0.20219
0.17421	0.12566
0.22521	0.15117
0.12320	0.25320
0.12320	0.27871
0.17421	0.30422
0.12320	0.12566
0.09770	-0.00188
0.17421	0.66132
0.09770	-0.25695
0.14870	-1.02219
0.14870	0.55929
0.09770	0.53379
0.17421	0.76336
0.14870	-0.41000
0.12320	0.53379
0.14870	0.61031
0.07220	0.35523
0.19971	0.12566
0.07220	-0.00188
0.19971	-0.12942
0.17421	0.02363
0.12320	-0.10391
0.19971	0.15117
0.17421	0.07465
0.19971	0.30422
0.04670	0.07465
0.17421	0.12566
0.09770	0.12566
0.14870	-0.02739
0.12320	0.27871
0.12320	0.40625
0.19971	0.43176
0.17421	0.30422
0.19971	-0.02739
0.22521	0.25320
0.09770	0.20219
0.17421	0.15117
0.12320	0.10015
0.12320	0.07465
0.09770	0.22769
0.12320	0.04914
0.25071	0.25320
0.14870	0.25320
0.25071	0.12566
0.12320	0.27871
0.12320	0.12566
0.19971	0.30422
0.07220	-0.33348
0.14870	-0.00188
0.22521	0.32972
0.09770	0.20219
0.19971	0.12566
0.19971	-0.07840
0.09770	0.15117
0.04670	0.25320
0.17421	0.53379
0.09770	0.53379
0.02119	0.22769
0.14870	0.20219
0.19971	0.15117
0.09770	0.07465
0.17421	-0.05289
0.22521	0.10015
0.14870	0.17668
0.07220	0.04914
0.12320	0.12566
0.09770	0.07465
0.02119	0.04914
0.14870	0.02363
0.22521	0.04914
0.17421	0.07465
0.12320	0.17668
0.25071	0.30422
0.19971	0.20219
0.04670	0.17668
0.19971	0.45726
0.12320	0.38074
0.09770	0.15117
0.12320	0.20219
0.14870	0.04914
0.12320	-0.07840
0.14870	-0.07840
0.22521	0.15117
0.09770	0.20219
0.14870	0.38074
0.19971	0.32972
0.04670	0.15117
0.17421	0.02363
0.14870	0.02363
0.07220	-0.48652
0.22521	0.35523
0.17421	0.27871
0.14870	-0.02739
0.22521	0.50828
0.07220	0.25320
0.09770	-0.10391
0.12320	0.45726
0.07220	0.25320
0.14870	0.15117
0.17421	0.20219
0.12320	0.15117
0.22521	0.15117
0.17421	-0.48652
0.07220	0.38074
0.14870	-0.20594
0.19971	0.22769
0.12320	0.17668
0.09770	0.20219
0.17421	0.32972
0.19971	0.40625
0.14870	0.12566
0.25071	0.07465
0.12320	0.07465
0.07220	0.17668
0.09770	0.07465
0.19971	0.10015
0.14870	0.27871
0.02119	-0.00188
0.19971	0.07465
0.09770	0.10015
0.14870	0.25320
0.07220	0.15117
0.27621	0.27871
0.19971	0.20219
0.04670	-0.05289
0.09770	0.27871
0.17421	0.35523
0.09770	0.20219
0.04670	0.04914
0.19971	0.10015
0.14870	-0.10391
0.09770	-0.05289
0.17421	0.40625
0.17421	0.17668
0.09770	0.25320
0.17421	-0.00188
0.07220	0.35523
0.07220	0.17668
0.19971	0.20219
0.19971	0.04914
0.17421	-0.86914
0.14870	0.40625
0.12320	0.55929
0.22521	0.61031
0.07220	0.17668
0.14870	-0.33348
0.14870	-0.00188
0.07220	0.30422
0.14870	0.40625
0.09770	0.35523
0.27621	0.15117
0.17421	0.04914
0.19971	0.10015
0.22521	0.12566
0.09770	0.10015
0.12320	0.25320
0.09770	0.10015
0.04670	-0.05289
0.17421	0.04914
0.14870	-0.02739
0.14870	-0.12942
0.22521	0.27871
0.19971	0.45726
0.07220	0.40625
0.12320	0.30422
0.14870	0.30422
0.02119	0.10015
0.12320	0.02363
0.12320	-0.00188
0.12320	0.15117
0.17421	0.12566
0.25071	0.32972
0.12320	-0.15492
0.17421	0.61031
0.12320	0.38074
0.07220	-1.17523
0.17421	0.43176
0.12320	0.50828
0.12320	0.35523
0.22521	0.38074
0.12320	0.12566
0.17421	0.30422
0.25071	-0.66508
0.12320	0.22769
0.12320	0.27871
0.09770	0.35523
0.04670	0.10015
0.19971	0.20219
0.12320	0.15117
0.09770	-0.12942
0.19971	-0.20594
0.17421	0.45726
0.12320	0.27871
0.25071	-0.33348
0.12320	0.53379
0.07220	0.35523
0.12320	0.30422
0.12320	0.25320
0.09770	0.04914
0.17421	0.02363
0.22521	0.20219
0.09770	0.10015
0.17421	0.15117
0.22521	0.17668
0.07220	0.17668
0.09770	0.22769
0.09770	0.22769
0.04670	0.02363
0.17421	-0.05289
0.14870	-0.00188
0.09770	0.25320
0.27621	0.15117
0.09770	0.17668
0.17421	0.30422
0.12320	-0.10391
0.09770	0.22769
0.17421	0.58480
0.04670	0.45726
0.17421	-1.09871
0.14870	-0.30797
0.22521	0.50828
0.14870	0.71234
0.12320	0.32972
0.17421	0.40625
0.12320	0.10015
0.12320	0.30422
0.09770	0.10015
0.09770	0.10015
0.14870	-0.10391
0.19971	-0.00188
0.12320	-0.07840
0.27621	0.32972
0.19971	-0.35899
0.12320	0.27871
0.14870	0.15117
0.09770	-0.10391
0.12320	0.50828
0.12320	0.53379
0.22521	0.45726
0.07220	-0.15492
0.17421	-0.02739
0.17421	0.40625
0.12320	0.61031
0.19971	-0.02739
0.04670	0.15117
0.14870	0.27871
0.07220	-0.25695
0.09770	0.10015
0.17421	-0.12942
0.12320	-0.28246
0.25071	0.38074
0.17421	0.38074
0.17421	0.35523
0.12320	0.48277
0.12320	0.27871
0.19971	0.17668
0.04670	-0.02739
0.09770	-0.15492
0.12320	-0.05289
0.22521	0.10015
0.17421	0.12566
0.19971	0.10015
0.17421	0.22769
0.14870	0.20219
0.12320	0.22769
0.12320	0.15117
0.09770	0.17668
0.09770	0.07465
0.14870	0.04914
0.17421	0.15117
0.22521	0.17668
0.14870	0.20219
0.17421	0.30422
0.14870	0.25320
0.17421	0.17668
0.02119	-0.02739
0.09770	0.38074
0.14870	0.25320
0.09770	-0.07840
0.22521	0.02363
0.09770	-0.10391
0.14870	0.38074
0.19971	0.68683
0.14870	-1.32828
0.17421	0.50828
0.04670	0.10015
0.14870	0.66132
0.04670	0.30422
0.22521	0.17668
0.12320	0.20219
0.25071	0.32972
0.12320	0.25320
0.27621	0.58480
0.09770	-0.56305
0.19971	-0.25695
0.07220	0.22769
0.12320	0.32972
0.12320	-0.02739
0.12320	0.12566
0.17421	0.22769
0.17421	0.50828
0.17421	0.25320
0.17421	-0.07840
0.14870	-0.25695
0.17421	0.25320
0.09770	0.12566
0.07220	0.45726
0.17421	0.25320
0.07220	0.15117
0.22521	0.20219
0.12320	0.07465
0.25071	0.20219
0.14870	0.12566
0.17421	0.15117
0.12320	0.20219
0.07220	0.15117
0.17421	0.25320
0.04670	0.15117
0.19971	0.12566
0.09770	-0.28246
0.17421	0.04914
0.17421	0.32972
0.09770	0.83988
0.25071	-0.46102
0.04670	-0.74160
0.09770	0.53379
0.12320	0.55929
0.02119	0.43176
0.12320	0.15117
0.25071	0.38074
0.17421	0.12566
0.12320	-0.05289
0.25071	0.04914
0.17421	0.25320
0.09770	0.20219
0.14870	-0.00188
0.14870	-0.07840
0.09770	-0.02739
0.07220	0.17668
0.17421	0.15117
0.17421	-0.86914
0.27621	0.73785
0.17421	0.45726
0.12320	0.15117
0.12320	-0.25695
0.17421	0.76336
0.12320	0.55929
0.12320	1.17148
0.19971	-0.79262
0.14870	-0.86914
-0.05531	0.30422
0.22521	0.43176
0.14870	1.17148
0.09770	0.83988
0.04670	-0.25695
0.30171	-0.05289
0.25071	-4.13413
0.07220	-0.23145
0.02119	1.12046
0.12320	1.68163
0.09770	1.68163
0.32721	0.71234
0.07220	-0.07840
0.22521	-0.10391
0.12320	1.14597
0.19971	-0.84363
0.07220	0.07465
0.14870	1.29902
0.12320	-2.83324
0.09770	-2.90976
-0.28482	1.04394
0.88825	2.42136
0.50573	-1.14973
-0.13181	-0.07840
-0.46334	1.60511
-0.15732	-0.66508
-0.20832	1.70714
-0.02981	0.94191
0.32721	0.48277
0.68424	0.96742
0.68424	0.86539
-0.38683	-2.96078
-1.45790	0.15117
1.98482	0.78886
1.65330	0.02363
0.35272	1.01843
-0.13181	3.23761
-1.02437	0.55929
-0.48884	-4.38921
-0.02981	1.22250
0.17421	0.55929
0.22521	-3.95558
-0.10631	1.78367
0.04670	-1.30277
0.60773	2.31933
0.50573	0.83988
0.40372	6.34955
-0.08081	1.75816
-0.08081	-5.51155
0.14870	1.65613
-0.00431	-1.32828
-0.05531	-6.63389
0.04670	-0.53754
0.02119	3.31413
0.07220	2.16628
0.45472	3.13558
0.22521	2.19179
0.25071	7.70146
0.58223	-10.30701
0.40372	-2.50164
0.17421	1.63062
0.19971	-0.35899
-0.51434	-1.55785
0.48022	1.01843
0.07220	2.88050
-0.08081	2.65093
-0.02981	-3.16484
-0.33583	-1.91496
0.02119	4.05386
-0.05531	-2.85874
0.07220	-9.74584
0.19971	4.58952
0.42922	4.51299
0.68424	1.37554
0.32721	-1.40480
0.30171	2.06425
0.04670	0.94191
0.09770	1.14597
0.02119	-1.12422
0.12320	1.12046
0.27621	0.96742
0.19971	-0.35899
0.40372	-2.34859
0.27621	-2.27207
-0.08081	2.49788
0.02119	2.37034
0.02119	-1.99148
0.04670	1.19699
0.02119	-0.41000
-0.08081	1.32453
0.32721	1.14597
0.25071	1.47757
0.37822	1.98773
0.27621	1.70714
0.12320	-0.94566
0.19971	-0.02739
-0.02981	-6.09823
-0.08081	1.73265
0.02119	-0.23145
0.42922	2.80397
0.37822	-3.47093
0.14870	2.19179
0.12320	3.77327
0.04670	0.48277
-0.00431	0.76336
0.04670	-0.43551
0.37822	-0.97117
0.53123	1.93671
0.30171	3.08456
0.22521	-6.02170
0.04670	0.99292
0.17421	-4.61878
-0.08081	3.16108
0.14870	-0.38449
0.07220	-0.48652
0.02119	-0.15492
0.02119	2.19179
-0.13181	1.32453
0.22521	4.66604
0.22521	-1.91496
0.22521	-6.88897
0.32721	-0.12942
0.12320	0.30422
0.35272	-0.05289
0.27621	2.49788
0.04670	5.09967
0.07220	-3.06281
-0.02981	3.49268
0.12320	0.27871
0.27621	-0.61406
0.17421	-3.82804
0.22521	1.45206
0.12320	2.14077
0.22521	-0.63957
0.19971	1.32453
0.02119	-1.20074
-0.00431	-0.15492
0.02119	0.73785
0.22521	1.52859
0.27621	-4.95038
0.09770	0.10015
0.09770	2.59991
0.14870	1.91120
0.07220	1.22250
-0.00431	1.37554
-0.02981	-0.12942
0.09770	-0.25695
0.30171	-1.25176
0.50573	2.16628
0.45472	-1.88945
0.42922	4.23241
0.17421	1.22250
0.22521	-1.68539
0.14870	-2.68019
-0.00431	-2.29757
-0.10631	4.79358
-0.33583	0.30422
0.04670	-2.83324
-0.02981	-1.14973
0.17421	1.06945
0.22521	4.33444
0.30171	1.22250
0.32721	0.96742
0.40372	-2.22105
0.22521	-0.41000
0.14870	2.59991
-0.02981	0.43176
-0.13181	-5.97069
0.09770	1.60511
0.17421	-1.60887
0.25071	-1.32828
0.30171	2.72745
0.12320	-1.12422
0.22521	0.89089
0.07220	0.66132
-0.05531	1.40105
-0.02981	-3.52195
-0.00431	1.63062
0.12320	-0.84363
0.32721	2.34484
0.48022	-1.09871
0.19971	0.20219
0.22521	-0.25695
0.02119	3.51819
0.19971	2.75296
0.04670	-11.42935
-0.00431	-0.41000
-0.02981	4.64053
-0.00431	-5.10343
0.42922	-5.20546
0.35272	2.82948
0.30171	2.42136
0.12320	2.59991
-0.05531	1.73265
-0.10631	2.29382
0.19971	-2.09351
0.32721	1.70714
0.22521	-3.93007
-0.08081	0.78886
0.04670	2.03874
0.30171	-1.99148
0.30171	-1.58336
-0.02981	-4.31269
0.19971	1.60511
0.12320	0.25320
0.02119	2.01323
0.30171	-0.38449
0.19971	2.42136
-0.00431	0.68683
0.30171	-2.39961
0.12320	0.15117
-0.08081	0.32972
0.17421	1.19699
0.19971	1.93671
0.22521	0.35523
0.09770	0.40625
0.17421	2.54890
0.07220	-4.08312
-0.02981	-0.81812
0.04670	-1.27726
0.48022	-0.15492
0.40372	-4.87386
0.30171	1.52859
-0.02981	2.34484
-0.02981	2.34484
-0.00431	0.55929
0.12320	3.54370
0.07220	-0.00188
0.25071	-2.90976
0.35272	1.63062
0.25071	0.58480
0.14870	-3.70050
0.27621	-3.98109
0.07220	0.48277
-0.00431	2.01323
0.02119	-0.46102
-0.08081	3.08456
0.02119	2.67644
0.17421	-7.29709
0.27621	-1.45582
0.25071	1.12046
0.32721	2.57441
0.19971	0.78886
0.17421	2.06425
0.14870	-0.89465
-0.02981	1.37554
0.12320	-0.99668
0.09770	-0.25695
0.09770	-1.27726
0.30171	-0.30797
0.09770	2.75296
0.14870	-2.90976
0.19971	0.86539
-0.05531	1.32453
0.17421	3.16108
0.12320	0.58480
0.27621	-2.73121
0.25071	-2.29757
0.07220	1.45206
0.02119	1.47757
0.04670	3.31413
0.22521	3.11007
0.42922	-3.80253
0.14870	-6.81245
0.04670	3.05905
0.25071	0.81437
0.07220	1.57960
0.04670	1.27351
0.12320	1.96222
0.22521	3.11007
0.09770	-3.59847
0.19971	-2.11902
0.02119	0.71234
-0.08081	2.01323
0.17421	1.98773
0.19971	0.35523
0.37822	-1.02219
0.22521	-4.79733
0.22521	2.44687
0.27621	1.93671
0.09770	2.47238
0.19971	-0.35899
0.12320	-3.31788
0.07220	1.86019
-0.05531	5.35475
0.14870	-6.04721
0.02119	0.99292
0.07220	-0.86914
0.35272	1.37554
0.02119	3.13558
0.19971	0.07465
0.17421	-0.79262
0.19971	0.32972
0.35272	0.96742
0.17421	0.38074
0.22521	1.63062
0.19971	-0.41000
0.02119	4.25792
0.22521	-3.01179
0.14870	-6.14924
-0.00431	1.68163
0.04670	1.04394
0.12320	1.60511
0.30171	0.53379
0.19971	1.63062
0.25071	2.95702
0.14870	-3.59847
-0.08081	0.61031
-0.15732	3.39065
-0.02981	-2.60367
0.14870	-0.18043
0.19971	0.78886
0.17421	1.06945
0.48022	0.81437
0.37822	-0.12942
0.22521	-3.72601
0.04670	-0.61406
-0.05531	1.14597
-0.10631	1.22250
0.04670	4.07936
0.07220	-0.05289
0.17421	-6.42983
0.17421	-2.24656
0.19971	0.83988
0.19971	1.86019
0.22521	3.03355
0.14870	1.52859
0.09770	-2.98628
-0.00431	0.91640
0.09770	3.59471
0.14870	-3.21585
0.17421	-0.23145
0.32721	1.91120
0.14870	-0.58856
0.25071	0.83988
0.14870	-1.22625
0.07220	1.42656
0.09770	-0.46102
0.07220	0.50828
0.14870	-0.15492
0.17421	-2.62918
0.09770	-0.56305
0.09770	1.68163
0.27621	2.26831
0.09770	2.01323
0.22521	2.49788
0.17421	0.15117
0.22521	-1.27726
0.19971	1.14597
0.02119	0.63582
0.19971	-1.94047
0.07220	2.59991
0.09770	-1.53234
-0.05531	-3.13933
-0.02981	2.29382
0.04670	1.04394
0.19971	-3.19035
0.19971	-0.12942
0.27621	0.63582
0.40372	2.31933
0.27621	2.70194
0.22521	0.68683
0.02119	1.29902
0.12320	-5.86866
-0.13181	2.24281
0.07220	-0.07840
0.17421	0.32972
0.14870	-0.86914
0.12320	-0.76711
0.37822	0.83988
0.19971	2.65093
0.17421	-3.77702
0.09770	-2.52714
-0.05531	0.78886
0.17421	1.96222
0.19971	1.22250
0.04670	2.52339
-0.05531	-0.46102
0.30171	-0.30797
0.32721	1.27351
0.27621	-1.55785
0.32721	0.30422
0.37822	0.99292
-0.02981	0.27871
0.19971	-3.95558
-0.08081	1.19699
-0.02981	0.76336
0.12320	-0.30797
0.17421	1.37554
0.14870	-1.50683
0.09770	1.86019
-0.05531	3.62022
-0.02981	-3.70050
0.32721	0.96742
0.17421	2.11527
0.30171	0.45726
0.22521	-0.86914
0.17421	-1.14973
0.22521	1.24800
-0.00431	-0.35899
0.17421	0.43176
0.02119	-0.46102
0.14870	2.26831
0.14870	-0.07840
0.09770	0.58480
0.32721	-3.31788
0.32721	-5.23097
0.07220	2.67644
-0.00431	1.73265
0.09770	2.62542
0.19971	2.37034
0.25071	2.52339
0.12320	1.93671
0.25071	-2.80773
0.02119	1.68163
0.14870	-2.93527
0.14870	0.68683
0.07220	-1.32828
0.17421	0.55929
0.02119	1.01843
-0.00431	0.10015
0.19971	-0.18043
0.12320	-0.05289
0.32721	0.17668
0.32721	1.78367
0.19971	-0.05289
0.27621	-0.81812
0.37822	-1.81293
0.09770	1.65613
0.04670	2.37034
0.02119	0.81437
-0.18282	2.21730
-0.08081	1.47757
0.35272	-0.76711
0.07220	-0.00188
0.17421	2.77847
0.37822	-2.73121
0.32721	-0.92016
0.12320	-5.46054
0.19971	1.22250
-0.00431	1.47757
0.27621	2.82948
0.04670	1.22250
0.02119	0.50828
0.04670	0.68683
0.12320	-2.45062
0.07220	-1.07320
0.22521	2.44687
0.19971	1.29902
0.12320	0.20219
0.14870	0.68683
0.09770	0.04914
0.22521	1.93671
0.17421	-2.88425
0.14870	-0.25695
-0.00431	0.55929
-0.05531	-0.20594
0.19971	0.45726
0.19971	1.09496
0.40372	-0.38449
0.22521	-2.45062
0.25071	1.47757
0.09770	0.68683
0.17421	2.14077
0.12320	3.64573
-0.08081	-9.13365
-0.05531	0.99292
-0.10631	1.88570
0.48022	-1.94047
0.25071	2.06425
0.32721	2.44687
0.12320	-0.12942
0.17421	-0.00188
0.04670	-0.33348
-0.13181	0.71234
0.12320	1.19699
0.17421	-0.58856
0.14870	0.35523
0.35272	-1.65988
0.27621	-1.55785
0.19971	1.42656
0.14870	1.47757
0.17421	-3.98109
-0.08081	-0.18043
0.07220	0.50828
-0.05531	1.01843
0.07220	1.27351
0.22521	0.68683
0.22521	0.15117
0.30171	-2.19554
0.17421	2.37034
0.17421	0.55929
0.32721	1.86019
-0.02981	-1.78742
0.07220	-2.24656
0.12320	1.01843
0.07220	1.01843
0.14870	1.22250
0.25071	0.94191
0.22521	2.21730
0.07220	-2.83324
0.09770	1.52859
0.09770	0.48277
0.09770	-1.65988
0.17421	-0.25695
0.02119	-0.20594
0.27621	1.52859
0.22521	-0.76711
0.22521	-1.58336
0.17421	1.86019
0.19971	-1.96597
0.17421	0.96742
-0.05531	-0.51203
0.04670	1.70714
0.09770	2.39585
0.17421	1.93671
0.12320	-2.55265
0.27621	2.01323
0.04670	-3.16484
0.02119	-1.17523
0.07220	-0.53754
0.22521	1.60511
0.32721	1.73265
0.04670	-2.88425
0.14870	-1.20074
0.12320	1.37554
0.32721	1.01843
0.09770	-0.84363
-0.00431	-0.28246
0.22521	-0.28246
0.14870	1.80917
0.09770	-1.55785
0.14870	1.63062
0.09770	-0.23145
0.14870	2.34484
0.09770	-3.26687
0.07220	-0.15492
0.14870	1.12046
-0.02981	-2.06800
0.09770	1.57960
0.35272	1.24800
0.27621	-2.39961
0.14870	3.00804
0.27621	-1.17523
0.09770	-0.61406
0.14870	0.53379
0.22521	1.27351
0.14870	-2.80773
0.07220	-0.46102
0.02119	0.02363
0.02119	0.12566
-0.08081	2.70194
0.32721	1.06945
0.32721	-1.91496
0.30171	1.80917
0.35272	1.01843
0.22521	0.73785
-0.02981	0.55929
0.09770	1.73265
0.02119	-3.82804
0.02119	0.35523
0.09770	-0.61406
0.14870	1.04394
0.19971	0.38074
0.27621	-0.23145
0.09770	-1.07320
0.02119	1.73265
0.19971	-0.76711
0.09770	-3.95558
0.09770	0.71234
0.04670	1.37554
0.14870	0.38074
0.35272	1.80917
0.35272	1.80917
0.19971	2.77847
0.02119	-2.52714
0.32721	-3.39441
0.09770	0.07465
-0.02981	2.62542
-0.05531	-0.97117
0.09770	1.24800
0.17421	-0.00188
0.19971	0.43176
0.22521	-0.86914
0.07220	0.68683
0.17421	0.83988
0.22521	0.32972
0.14870	0.96742
0.07220	2.29382
0.30171	-8.08783
0.07220	-0.05289
0.19971	0.63582
0.30171	1.70714
0.22521	1.70714
-0.05531	1.42656
0.32721	0.81437
0.14870	-2.37410
0.02119	0.17668
0.02119	-1.43031
-0.02981	0.15117
0.07220	2.54890
0.30171	1.52859
0.45472	0.38074
0.04670	-0.41000
-0.05531	0.66132
-0.20832	-1.45582
-0.00431	0.30422
0.35272	0.35523
0.37822	-0.58856
0.42922	0.12566
0.30171	-1.68539
0.32721	0.86539
0.07220	0.63582
0.07220	1.78367
0.02119	0.35523
-0.00431	2.24281
0.07220	-4.05761
0.17421	-3.52195
0.02119	0.96742
0.12320	2.80397
0.12320	0.02363
0.25071	0.27871
0.19971	-0.43551
0.25071	1.17148
0.14870	1.98773
0.25071	1.45206
0.09770	-1.20074
0.04670	-0.23145
0.17421	1.32453
0.27621	-4.13413
0.12320	1.12046
-0.05531	1.17148
-0.00431	1.17148
0.02119	0.76336
0.27621	0.83988
0.30171	-0.30797
0.14870	0.96742
0.27621	-0.61406
0.32721	-1.09871
0.14870	-0.71609
0.25071	0.32972
-0.02981	-0.00188
0.17421	1.78367
0.12320	1.40105
0.04670	0.66132
0.17421	3.49268
-0.02981	-7.52666
-0.10631	-0.84363
0.22521	1.55410
0.40372	1.45206
0.27621	2.42136
0.35272	-1.76191
0.30171	0.25320
0.17421	1.55410
-0.00431	1.04394
0.02119	-0.41000
-0.05531	-5.23097
-0.05531	-0.10391
0.17421	1.35003
0.14870	-1.86394
-0.05531	0.76336
0.25071	1.35003
0.30171	1.98773
0.22521	-2.04250
0.12320	0.96742
0.07220	0.86539
0.14870	0.94191
0.14870	-1.14973
0.12320	0.17668
0.27621	-1.14973
0.17421	-0.35899
0.07220	1.63062
0.12320	1.47757
0.27621	-2.27207
-0.08081	-2.90976
0.32721	1.93671
0.22521	1.04394
0.09770	-3.01179
0.02119	-1.25176
0.12320	0.20219
0.22521	1.45206
0.04670	2.08976
0.17421	2.29382
0.37822	3.23761
0.12320	-1.68539
0.12320	-2.83324
0.14870	0.12566
0.17421	1.19699
0.09770	0.91640
0.09770	-1.12422
0.12320	1.06945
0.22521	0.81437
0.22521	1.91120
0.30171	-4.54226
0.22521	-1.88945
0.07220	1.47757
0.07220	-0.63957
0.22521	1.09496
0.12320	2.08976
-0.05531	-0.41000
0.12320	-2.55265
0.25071	2.06425
0.32721	-0.28246
0.25071	1.12046
0.07220	0.25320
0.22521	0.43176
0.12320	0.07465
0.02119	1.32453
0.14870	-0.63957
0.19971	-2.83324
0.19971	0.55929
0.02119	-1.27726
0.12320	0.76336
0.25071	1.35003
0.17421	1.78367
-0.00431	0.45726
0.17421	-0.53754
-0.00431	-3.49644
-0.02981	-0.41000
0.14870	2.08976
0.17421	1.32453
0.27621	1.37554
0.25071	3.13558
0.07220	-3.08831
0.12320	-0.58856
0.32721	0.02363
0.22521	1.37554
0.07220	-0.28246
0.12320	0.71234
0.25071	-0.05289
0.04670	-0.25695
0.09770	0.94191
0.17421	2.29382
0.32721	-2.11902
0.09770	-0.30797
-0.00431	-3.03730
-0.00431	0.81437
0.12320	2.75296
0.17421	1.47757
0.25071	-1.99148
0.09770	1.17148
0.17421	0.53379
0.12320	1.09496
0.14870	1.86019
-0.00431	0.94191
0.19971	-0.38449
0.37822	-2.29757
0.19971	0.04914
0.07220	-0.20594
0.17421	0.89089
0.04670	-1.81293
-0.00431	0.53379
0.25071	-0.25695
0.32721	3.08456
0.17421	-2.85874
0.14870	-1.40480
0.02119	1.83468
0.07220	3.21210
0.14870	-1.58336
0.04670	-0.10391
0.17421	1.17148
0.25071	-0.18043
-0.00431	-0.00188
0.07220	0.53379
0.17421	0.40625
0.17421	-2.22105
0.09770	0.25320
0.17421	0.78886
0.17421	-0.30797
0.42922	0.20219
0.25071	1.47757
0.19971	0.20219
0.09770	-2.55265
0.02119	-0.20594
0.17421	0.78886
0.12320	1.45206
0.02119	-0.10391
0.09770	2.21730
0.22521	-1.99148
0.09770	0.30422
0.07220	0.38074
0.17421	-0.23145
0.42922	-0.35899
0.25071	1.27351
0.12320	0.25320
0.14870	0.35523
0.04670	0.50828
0.04670	0.35523
0.07220	-0.35899
0.19971	-0.43551
0.07220	-0.74160
0.12320	2.21730
0.27621	0.15117
0.19971	-3.64948
0.09770	-0.15492
0.17421	1.32453
0.17421	1.55410
0.12320	1.68163
0.09770	0.99292
0.12320	-0.71609
0.19971	-2.06800
-0.13181	0.58480
0.02119	0.35523
0.42922	-0.33348
0.19971	0.12566
0.12320	0.71234
0.09770	-2.01699
0.09770	0.68683
0.14870	0.40625
0.19971	-0.69059
0.19971	1.98773
0.14870	1.22250
0.02119	-4.18515
0.17421	-0.02739
0.07220	0.66132
0.17421	1.47757
0.12320	1.32453
0.02119	0.86539
0.12320	0.61031
0.14870	1.35003
0.17421	-0.05289
0.12320	-2.14453
0.32721	0.10015
0.12320	0.66132
0.14870	0.94191
0.22521	-0.97117
-0.00431	-1.68539
0.07220	0.76336
0.07220	0.53379
0.12320	1.24800
0.25071	0.81437
0.27621	0.07465
0.04670	0.94191
0.17421	-2.83324
0.27621	1.17148
0.17421	1.04394
0.22521	-1.58336
0.30171	0.55929
0.02119	-1.07320
-0.18282	1.63062
0.07220	1.88570
0.02119	0.86539
0.42922	0.15117
0.48022	-0.89465
0.17421	0.83988
0.12320	0.73785
0.25071	0.07465
0.09770	0.15117
0.12320	0.81437
0.12320	1.14597
0.02119	-0.00188
0.14870	-2.32308
0.12320	-0.07840
0.07220	0.43176
-0.00431	-0.89465
0.27621	1.88570
0.09770	-2.52714
0.17421	1.35003
0.25071	1.40105
0.30171	-1.55785
0.17421	-2.78222
0.17421	1.52859
0.12320	0.99292
0.19971	2.24281
0.17421	0.45726
0.12320	0.76336
0.12320	0.50828
0.25071	-0.02739
-0.13181	-0.10391
-0.05531	-0.18043
0.19971	0.91640
0.37822	0.38074
0.35272	-3.52195
0.22521	0.30422
-0.00431	-0.07840
0.17421	-1.25176
-0.02981	1.27351
-0.08081	2.16628
0.14870	-3.29238
0.12320	1.96222
-0.05531	0.94191
0.42922	-1.96597
0.19971	-0.30797
0.27621	1.52859
0.25071	1.17148
0.12320	1.57960
0.17421	0.27871
0.07220	1.17148
0.07220	0.15117
0.09770	-0.48652
0.09770	-0.74160
0.09770	-1.96597
0.12320	0.30422
0.17421	-0.18043
0.14870	-0.00188
0.17421	1.01843
0.19971	1.78367
0.12320	-2.39961
0.19971	2.03874
0.17421	-5.00139
0.02119	1.42656
0.12320	2.34484
0.30171	2.47238
0.12320	-1.58336
0.27621	1.24800
0.27621	-0.38449
0.14870	-0.33348
0.07220	1.35003
0.07220	0.63582
0.09770	0.15117
0.14870	-1.30277
0.17421	0.45726
0.17421	-0.38449
0.17421	0.91640
0.25071	0.22769
-0.00431	0.86539
0.02119	0.12566
0.02119	-0.94566
0.09770	-0.94566
0.22521	-0.56305
0.19971	1.45206
0.27621	-0.07840
0.30171	1.09496
0.17421	-0.81812
-0.10631	-0.86914
-0.28482	0.63582
-0.05531	1.68163
0.45472	1.29902
0.35272	-0.76711
0.25071	0.71234
0.19971	0.25320
0.04670	-0.48652
0.12320	-0.00188
0.17421	0.17668
0.09770	0.83988
0.04670	4.94663
0.02119	-6.50635
0.12320	-0.97117
0.09770	1.22250
0.19971	2.42136
0.19971	-2.37410
0.07220	1.22250
0.17421	0.73785
0.02119	-0.92016
0.09770	-1.50683
0.27621	-0.56305
0.22521	0.02363
0.02119	1.22250
0.12320	0.86539
0.19971	1.12046
0.19971	0.50828
0.12320	-0.25695
0.09770	-1.40480
0.30171	-0.05289
0.14870	1.22250
-0.13181	-1.02219
-0.20832	0.83988
0.27621	-0.15492
0.35272	0.43176
0.40372	-0.38449
0.50573	0.91640
0.19971	-0.23145
0.04670	1.12046
0.02119	3.31413
-0.20832	-4.18515
-0.08081	2.29382
0.12320	-3.72601
0.14870	-0.20594
0.32721	0.63582
0.27621	1.37554
0.04670	0.73785
0.32721	0.86539
0.19971	0.99292
0.32721	-1.78742
0.12320	1.32453
0.04670	-0.20594
0.09770	-1.04770
0.19971	-0.25695
0.12320	-0.38449
0.17421	1.68163
0.19971	0.86539
0.22521	-1.37929
0.14870	-1.22625
0.07220	1.63062
-0.20832	2.59991
0.04670	-0.89465
0.25071	1.06945
0.17421	1.98773
0.37822	-3.49644
0.30171	1.88570
0.17421	-2.45062
0.30171	-2.39961
0.12320	1.73265
-0.15732	0.83988
0.07220	1.09496
0.19971	1.19699
0.17421	0.32972
0.17421	-0.20594
0.14870	-0.48652
0.22521	0.02363
0.12320	0.58480
0.27621	-2.98628
0.14870	-0.12942
0.07220	-0.05289
0.12320	1.12046
0.19971	0.17668
0.12320	-0.94566
0.12320	1.45206
-0.13181	1.19699
0.27621	-1.32828
0.32721	0.58480
0.22521	-0.28246
0.22521	-0.84363
0.02119	1.45206
0.09770	0.71234
0.12320	0.55929
0.02119	0.35523
0.12320	0.15117
0.17421	0.63582
0.22521	0.17668
0.22521	3.21210
0.35272	-5.40952
0.12320	-1.53234
0.02119	0.71234
0.12320	0.02363
0.07220	1.52859
0.09770	1.80917
-0.05531	1.96222
-0.00431	1.73265
0.27621	-0.56305
0.27621	-2.73121
0.37822	1.04394
0.12320	0.78886
0.09770	-0.28246
0.19971	0.78886
0.25071	-0.81812
0.09770	1.14597
-0.05531	-0.48652
0.17421	0.71234
0.22521	0.25320
0.17421	-1.40480
0.07220	-0.35899
0.12320	-0.56305
0.17421	-0.30797
0.12320	1.68163
0.17421	0.53379
0.22521	1.12046
0.27621	0.76336
-0.02981	-1.45582
0.27621	0.43176
0.22521	-0.53754
-0.08081	0.20219
0.12320	0.40625
-0.05531	0.73785
0.27621	-1.43031
0.22521	-3.90456
0.35272	0.58480
0.22521	0.89089
0.12320	-0.20594
0.22521	0.63582
0.30171	0.27871
0.02119	0.83988
-0.20832	1.47757
0.27621	0.12566
0.25071	0.81437
0.19971	0.04914
0.25071	-0.58856
-0.02981	-0.69059
0.09770	1.01843
-0.00431	-2.04250
0.02119	0.53379
0.25071	0.45726
0.17421	0.68683
0.35272	0.35523
0.27621	0.45726
0.32721	0.53379
0.07220	0.73785
0.07220	0.45726
0.02119	-3.44542
0.02119	-0.28246
0.12320	1.17148
0.17421	2.01323
0.32721	-1.20074
0.25071	0.25320
0.09770	1.17148
0.32721	0.32972
0.02119	-0.74160
0.12320	1.83468
-0.00431	-1.96597
0.12320	1.12046
0.22521	1.27351
0.12320	-0.15492
0.09770	0.58480
0.22521	-0.79262
0.32721	-0.07840
0.25071	0.35523
0.12320	-0.18043
0.12320	-0.12942
0.17421	0.55929
0.04670	0.20219
0.09770	2.03874
0.09770	-1.96597
0.19971	-5.28198
0.02119	0.81437
0.12320	-1.20074
0.12320	1.60511
0.02119	2.11527
0.32721	-0.15492
0.22521	0.17668
0.14870	1.12046
0.14870	0.55929
0.14870	0.17668
-0.08081	-1.20074
0.22521	-0.00188
0.30171	-0.38449
0.02119	1.42656
0.12320	1.24800
0.27621	-0.15492
0.19971	-0.66508
0.30171	0.10015
0.17421	-0.18043
0.09770	0.40625
0.02119	1.65613
0.09770	-1.17523
0.17421	0.04914
0.17421	-1.81293
0.25071	-0.33348
-0.00431	-0.58856
0.02119	1.09496
0.12320	2.39585
-0.00431	0.78886
0.22521	0.86539
0.25071	-0.41000
0.27621	0.53379
0.30171	-1.99148
0.09770	1.40105
0.07220	0.61031
0.17421	0.48277
0.07220	1.06945
0.14870	0.32972
0.14870	-0.02739
0.14870	0.10015
0.19971	-0.00188
0.25071	-0.76711
0.02119	0.61031
-0.08081	0.10015
0.30171	0.48277
0.09770	-0.76711
0.19971	0.15117
0.22521	0.53379
0.14870	-0.76711
0.17421	-1.04770
0.14870	1.09496
0.17421	1.65613
0.17421	0.25320
0.12320	0.45726
0.07220	0.89089
0.14870	1.68163
-0.00431	1.14597
0.07220	-6.07272
0.17421	0.86539
0.02119	0.45726
0.14870	0.27871
0.27621	1.29902
0.09770	0.32972
0.27621	-0.12942
0.37822	1.45206
0.12320	1.14597
0.14870	-3.19035
0.09770	0.27871
0.27621	-0.15492
0.12320	-0.66508
0.12320	0.43176
0.02119	0.55929
0.09770	0.15117
0.22521	-0.53754
0.07220	1.14597
-0.02981	0.15117
-0.05531	0.35523
0.22521	0.20219
0.19971	1.93671
0.35272	-0.69059
0.32721	-1.91496
0.12320	-0.12942
0.07220	0.10015
0.17421	0.15117
0.09770	1.75816
-0.02981	1.55410
-0.02981	0.32972
0.25071	0.20219
0.17421	-0.48652
0.19971	0.48277
0.17421	0.38074
0.12320	-1.17523
0.12320	-0.30797
0.22521	0.32972
0.14870	0.58480
0.07220	-0.28246
0.22521	-0.20594
0.12320	0.91640
0.14870	-0.41000
0.14870	1.55410
0.19971	-1.88945
0.02119	0.48277
0.09770	1.42656
0.14870	-0.66508
0.17421	0.99292
0.02119	1.86019
0.12320	-2.93527
0.25071	0.35523
0.25071	-1.73640
0.30171	0.86539
0.17421	1.24800
0.17421	0.96742
-0.02981	0.81437
0.14870	0.48277
0.04670	0.25320
-0.02981	-0.33348
0.19971	-0.07840
0.37822	0.32972
0.14870	-0.46102
0.17421	1.63062
0.30171	-2.70570
0.22521	0.02363
-0.00431	0.22769
0.07220	1.12046
0.02119	-1.65988
-0.08081	2.37034
0.27621	1.45206
0.19971	-2.90976
-0.05531	0.04914
0.19971	1.86019
-0.00431	-1.09871
0.02119	0.96742
0.09770	1.17148
0.37822	0.61031
0.25071	-0.69059
0.14870	0.25320
0.22521	-1.48133
0.30171	0.50828
0.19971	0.12566
0.14870	0.83988
0.17421	-0.25695
0.12320	0.45726
0.04670	0.71234
0.22521	0.76336
0.12320	-2.60367
0.02119	0.30422
0.14870	-0.79262
0.02119	0.96742
-0.00431	1.12046
0.19971	-0.23145
0.32721	2.11527
0.17421	-0.97117
0.42922	-2.45062
0.22521	0.32972
0.07220	0.58480
0.17421	1.04394
0.12320	-0.25695
0.25071	-0.28246
0.04670	1.06945
0.07220	1.60511
0.12320	-1.63437
-0.08081	-0.63957
0.19971	0.43176
0.40372	-1.88945
0.32721	0.07465
0.19971	0.83988
0.19971	0.22769
0.04670	0.96742
0.09770	0.50828
0.12320	-0.07840
0.19971	1.65613
0.17421	-2.85874
0.07220	-0.69059
0.14870	1.37554
0.04670	1.65613
-0.02981	-1.71090
0.14870	-0.28246
0.14870	-1.14973
0.27621	1.78367
0.12320	1.37554
0.22521	-0.18043
0.12320	0.10015
0.17421	1.01843
0.25071	0.12566
0.12320	0.43176
0.14870	1.06945
0.09770	-0.58856
0.07220	-0.41000
0.09770	0.40625
0.14870	-1.20074
0.19971	0.81437
-0.00431	-1.48133
0.07220	0.12566
0.19971	-0.23145
0.22521	0.96742
0.19971	0.94191
0.32721	1.60511
0.25071	1.24800
0.07220	-2.45062
0.25071	-1.81293
0.07220	0.48277
0.04670	1.88570
0.12320	-0.02739
0.12320	0.17668
0.17421	0.86539
0.14870	0.02363
0.12320	0.76336
0.07220	0.30422
-0.00431	-1.48133
0.22521	-2.68019
0.25071	0.22769
0.25071	1.17148
0.25071	1.57960
0.17421	0.66132
0.07220	-0.20594
0.17421	0.86539
0.12320	0.61031
0.37822	-0.71609
-0.00431	0.91640
-0.08081	0.15117
0.19971	-2.57816
0.17421	-0.02739
0.27621	-0.66508
0.17421	0.76336
0.17421	1.52859
0.25071	1.45206
0.09770	0.99292
0.04670	-0.00188
0.02119	0.99292
-0.00431	-0.41000
0.12320	-2.11902
0.25071	-0.15492
0.32721	0.15117
0.27621	0.76336
0.30171	-0.23145
0.17421	-0.43551
0.17421	0.48277
0.12320	1.55410
0.09770	-1.60887
0.19971	-0.12942
0.17421	-0.66508
0.09770	2.06425
0.02119	-2.09351
0.12320	0.63582
0.07220	1.17148
0.14870	0.02363
0.22521	0.91640
0.19971	0.35523
0.32721	-0.51203
0.32721	0.86539
0.02119	0.86539
-0.05531	0.91640
0.07220	-1.99148
0.27621	0.04914
0.27621	0.43176
0.12320	-0.71609
0.19971	0.50828
0.22521	-1.35379
0.07220	1.14597
0.17421	-1.30277
0.19971	0.12566
0.04670	0.99292
0.17421	1.37554
0.02119	-0.66508
-0.02981	1.06945
0.12320	0.66132
0.19971	0.27871
0.27621	0.73785
0.25071	-0.05289
0.19971	-0.10391
0.32721	0.20219
-0.02981	0.04914
0.25071	0.22769
0.22521	-2.27207
0.17421	0.32972
0.19971	0.61031
0.02119	0.04914
-0.08081	0.53379
0.07220	0.91640
0.12320	0.68683
0.14870	-0.76711
0.27621	-0.99668
0.27621	0.45726
0.19971	0.55929
0.04670	-0.30797
0.04670	0.35523
0.09770	0.96742
0.25071	1.75816
0.19971	-3.47093
0.32721	-0.38449
-0.08081	1.32453
0.22521	2.16628
0.17421	0.32972
0.09770	-0.79262
0.09770	0.02363
0.09770	-0.20594
0.27621	1.27351
0.12320	2.19179
0.17421	-1.71090
0.02119	-0.86914
0.02119	0.43176
0.19971	0.86539
0.30171	0.61031
0.25071	1.27351
0.19971	-0.81812
0.22521	-0.43551
0.22521	-0.94566
-0.05531	0.40625
0.02119	-1.45582
-0.08081	0.04914
0.32721	1.57960
0.27621	0.86539
0.30171	-0.23145
0.37822	-1.45582
0.17421	0.27871
0.19971	-0.25695
0.17421	1.40105
-0.02981	0.66132
0.12320	-0.81812
0.22521	0.76336
0.02119	1.17148
0.07220	-0.00188
0.12320	1.04394
0.07220	0.25320
0.12320	1.17148
0.27621	-2.73121
0.17421	-0.79262
0.37822	0.66132
0.12320	0.35523
0.22521	0.91640
0.19971	0.45726
0.04670	0.48277
0.04670	1.04394
0.09770	-0.61406
0.22521	-0.58856
0.12320	-0.00188
0.07220	0.22769
0.02119	0.53379
0.22521	-0.46102
0.19971	-0.61406
0.19971	-0.61406
0.22521	1.01843
0.09770	1.57960
-0.00431	0.61031
0.12320	0.35523
0.12320	0.04914
0.25071	0.32972
0.27621	-0.71609
0.17421	-2.42511
0.12320	-0.07840
-0.05531	0.86539
0.09770	1.42656
0.32721	0.83988
0.27621	0.53379
0.22521	-0.38449
0.14870	0.61031
0.14870	-0.41000
0.02119	-1.04770
0.12320	0.07465
-0.02981	0.94191
0.07220	1.01843
-0.02981	0.61031
0.25071	-0.15492
0.32721	-1.94047
0.40372	1.17148
0.22521	-0.89465
0.22521	0.30422
-0.05531	2.62542
0.17421	-2.52714
-0.05531	-0.92016
0.09770	1.12046
0.25071	1.98773
0.35272	0.53379
0.22521	-0.41000
0.12320	0.66132
0.07220	0.58480
0.22521	-0.89465
0.04670	-2.22105
0.14870	-1.02219
0.07220	0.55929
0.12320	0.55929
0.07220	1.19699
0.12320	1.35003
0.14870	-1.04770
0.09770	0.63582
0.09770	-0.23145
0.12320	0.30422
0.09770	0.27871
0.25071	1.60511
0.27621	-0.69059
0.27621	-1.86394
0.14870	-2.70570
0.12320	-0.05289
0.04670	1.37554
0.25071	1.78367
0.12320	1.42656
0.25071	0.86539
0.19971	0.89089
0.22521	1.04394
0.17421	-1.27726
0.02119	-1.99148
0.09770	1.09496
-0.05531	1.19699
0.12320	-0.81812
0.02119	-0.18043
0.30171	-0.86914
0.27621	0.63582
0.02119	0.71234
0.25071	0.76336
0.25071	-0.00188
0.14870	1.12046
0.17421	0.02363
0.09770	-0.20594
0.04670	-0.76711
0.14870	-1.43031
0.22521	2.70194
0.17421	-2.57816
0.12320	1.12046
0.19971	1.19699
0.07220	0.78886
0.04670	1.52859
0.14870	0.25320
0.09770	0.81437
0.14870	-1.48133
0.22521	-1.40480
0.09770	0.45726
0.17421	0.50828
0.25071	0.61031
0.27621	0.38074
0.22521	0.22769
0.09770	-0.02739
0.22521	0.15117
0.04670	0.04914
0.19971	-0.10391
0.07220	-0.15492
0.14870	0.53379
0.07220	0.76336
0.22521	-0.92016
0.09770	-0.76711
0.25071	-0.76711
0.07220	0.27871
0.14870	2.80397
0.07220	4.43647
0.12320	-1.94047
0.02119	-4.77183
0.12320	0.91640
0.14870	1.65613
0.32721	1.80917
0.32721	1.50308
0.22521	0.78886
0.17421	0.81437
0.17421	-0.10391
0.17421	-0.18043
0.07220	-0.30797
0.02119	-0.58856
-0.00431	-1.71090
0.07220	-0.12942
0.12320	-0.00188
0.19971	0.12566
0.22521	0.40625
0.25071	1.12046
0.09770	1.88570
0.27621	-0.63957
0.25071	-1.32828
0.04670	-3.24136
0.07220	0.48277
0.32721	3.59471
0.09770	0.63582
0.22521	1.96222
0.12320	0.99292
0.09770	0.30422
0.12320	0.94191
0.25071	0.43176
0.12320	-0.15492
0.12320	-0.69059
0.12320	-0.15492
0.22521	0.55929
0.07220	-2.11902
0.19971	0.22769
0.22521	-1.99148
0.14870	0.35523
0.04670	0.30422
0.04670	0.22769
0.07220	0.25320
0.12320	0.35523
0.17421	0.53379
0.12320	0.38074
0.17421	0.38074
0.17421	0.30422
0.19971	0.38074
0.19971	0.25320
0.14870	0.22769
0.09770	0.35523
0.07220	0.04914
0.12320	0.15117
0.09770	0.02363
0.07220	-0.00188
0.25071	0.35523
0.19971	0.38074
0.14870	0.50828
0.07220	-0.38449
0.27621	-2.93527
0.14870	0.63582
0.02119	0.25320
0.09770	1.37554
0.17421	-0.25695
0.09770	0.55929
0.07220	0.81437
0.27621	0.73785
0.27621	-0.20594
0.07220	0.83988
0.09770	0.22769
0.12320	-0.28246
0.02119	-1.27726
0.19971	0.25320
0.07220	0.45726
0.19971	0.55929
0.25071	0.68683
0.25071	1.83468
0.22521	-1.20074
0.22521	-0.81812
0.17421	-4.13413
-0.13181	0.07465
-0.05531	1.12046
-0.00431	0.86539
0.25071	1.63062
0.19971	1.60511
0.40372	1.04394
0.25071	-1.37929
0.27621	0.96742
0.22521	1.24800
0.32721	1.78367
0.02119	-1.07320
-0.05531	-5.12893
-0.15732	0.35523
-0.15732	0.45726
0.02119	1.01843
0.32721	0.99292
0.42922	1.19699
0.37822	1.35003
0.37822	0.45726
0.30171	1.63062
0.02119	-4.49124
-0.08081	-2.32308
-0.10631	0.86539
-0.38683	1.40105
-0.28482	1.32453
0.30171	0.91640
0.68424	0.55929
0.55673	0.35523
0.58223	0.76336
0.40372	1.73265
0.22521	0.61031
-0.00431	-8.21537
-0.15732	1.75816
-0.13181	0.68683
-0.08081	0.20219
0.04670	1.37554
0.22521	1.19699
0.19971	0.55929
0.14870	-0.05289
0.22521	0.48277
0.22521	-0.00188
0.14870	0.76336
0.17421	-0.35899
0.19971	-0.41000
0.14870	0.07465
0.30171	-0.58856
0.14870	0.73785
0.27621	-0.30797
0.04670	0.89089
-0.13181	1.75816
-0.08081	-1.45582
0.12320	-1.50683
0.17421	1.80917
0.37822	0.40625
0.19971	-0.18043
0.50573	0.99292
0.35272	1.68163
0.22521	-1.48133
0.12320	0.04914
-0.08081	0.35523
-0.02981	2.16628
-0.23382	-0.56305
-0.13181	-0.33348
0.27621	0.53379
0.30171	0.22769
0.40372	0.61031
0.35272	0.50828
0.25071	-0.05289
0.30171	0.10015
0.09770	-1.37929
0.19971	0.99292
0.07220	2.26831
-0.08081	-4.28718
-0.13181	-0.15492
-0.33583	1.57960
0.09770	1.75816
0.42922	-0.99668
0.32721	0.71234
0.48022	1.35003
0.35272	1.19699
0.45472	0.73785
0.17421	-0.92016
-0.02981	-0.07840
-0.00431	-0.97117
0.12320	1.01843
0.19971	0.25320
0.09770	-0.25695
0.09770	-0.76711
0.19971	0.71234
-0.08081	1.14597
0.22521	0.40625
0.02119	-2.14453
0.22521	0.58480
0.12320	1.86019
0.27621	0.02363
0.17421	-1.68539
0.12320	-0.38449
0.14870	0.94191
0.02119	1.37554
0.22521	0.96742
0.07220	0.27871
0.14870	0.04914
0.32721	-0.79262
0.04670	0.32972
0.17421	-1.53234
-0.08081	-0.33348
0.12320	0.30422
0.14870	0.63582
0.30171	0.91640
0.27621	0.10015
0.22521	0.04914
0.09770	0.32972
0.09770	-0.63957
0.27621	-0.84363
0.12320	1.14597
0.12320	1.88570
0.17421	0.48277
0.09770	-3.01179
0.12320	-2.70570
0.07220	1.40105
-0.05531	1.60511
0.12320	1.68163
-0.02981	0.78886
0.25071	0.45726
0.40372	0.76336
0.22521	-0.23145
0.35272	-0.33348
0.09770	-0.12942
0.09770	1.22250
0.17421	-2.22105
0.04670	-1.12422
0.09770	-0.05289
0.09770	0.86539
-0.08081	1.24800
0.22521	-2.09351
0.09770	0.76336
0.27621	2.37034
0.14870	-3.62398
0.27621	0.83988
0.14870	2.06425
0.22521	3.41616
0.09770	-1.22625
0.22521	-1.37929
0.07220	0.20219
0.14870	0.71234
0.02119	0.43176
0.17421	0.66132
0.12320	1.73265
0.25071	1.50308
0.07220	-3.95558
0.02119	-3.01179
-0.08081	0.58480
0.17421	1.27351
0.17421	1.01843
0.30171	0.94191
0.32721	0.66132
0.25071	0.76336
0.19971	0.35523
0.22521	-0.25695
-0.10631	0.43176
0.09770	0.15117
-0.05531	-0.30797
0.17421	1.04394
0.22521	-1.58336
0.22521	-1.22625
0.12320	1.91120
0.04670	0.43176
0.19971	0.89089
0.14870	0.25320
0.17421	0.25320
0.09770	-0.61406
0.07220	0.15117
0.25071	1.73265
0.12320	0.91640
0.22521	0.71234
0.22521	-0.53754
0.17421	0.76336
0.27621	0.68683
0.07220	-0.86914
