0.14870	0.45726
0.14870	0.30422
0.27621	0.38074
0.07220	0.02363
0.09770	0.07465
0.25071	-0.07840
0.07220	0.04914
0.12320	0.30422
0.22521	0.10015
0.09770	0.20219
0.12320	0.22769
-0.02981	0.22769
0.42922	0.17668
0.35272	0.04914
0.07220	-0.00188
-0.05531	0.12566
-0.02981	0.04914
0.09770	0.12566
0.19971	0.04914
0.17421	0.12566
0.19971	0.20219
0.12320	0.15117
0.22521	0.27871
0.17421	0.15117
0.09770	0.07465
0.12320	0.15117
0.14870	-0.05289
0.17421	0.04914
0.17421	0.15117
0.12320	0.32972
0.14870	0.35523
0.09770	0.22769
0.02119	0.15117
0.14870	0.10015
0.12320	0.15117
0.17421	0.04914
-0.02981	0.04914
0.22521	-0.12942
0.32721	0.02363
0.09770	0.27871
0.07220	0.32972
-0.00431	0.20219
-0.08081	0.20219
0.14870	0.20219
0.70974	0.07465
0.17421	0.10015
0.04670	0.12566
-0.05531	0.15117
0.04670	0.04914
0.22521	0.22769
0.14870	0.17668
0.07220	0.12566
0.17421	0.27871
0.22521	0.20219
0.17421	0.22769
0.09770	-0.00188
0.17421	-0.07840
0.09770	-0.25695
0.22521	-0.02739
0.14870	0.55929
0.17421	0.22769
0.09770	0.32972
0.14870	0.40625
0.22521	0.30422
0.09770	-0.07840
0.02119	0.04914
0.12320	-0.38449
0.19971	-0.07840
0.14870	0.63582
-0.00431	0.66132
0.22521	-0.00188
0.42922	0.35523
0.09770	0.38074
0.04670	0.15117
0.09770	0.53379
0.09770	0.22769
0.27621	-2.57816
0.17421	-0.41000
0.12320	0.20219
0.09770	0.94191
0.19971	1.32453
-0.18282	1.14597
0.27621	0.66132
0.50573	0.43176
0.12320	0.02363
-0.00431	-0.28246
0.19971	-0.15492
0.04670	-0.05289
0.17421	-0.18043
0.12320	-0.05289
0.07220	-0.00188
0.12320	0.10015
0.22521	0.20219
0.14870	0.25320
0.07220	0.15117
0.14870	0.45726
0.22521	0.45726
0.22521	-0.99668
0.12320	0.32972
0.07220	0.25320
0.19971	0.76336
0.17421	0.55929
0.14870	0.35523
0.19971	0.32972
0.12320	0.20219
-0.00431	0.17668
0.12320	-0.61406
0.19971	0.10015
0.14870	-0.35899
0.07220	0.30422
0.02119	0.40625
0.17421	0.63582
0.14870	-0.81812
-0.00431	0.25320
0.83725	0.22769
0.22521	0.25320
-0.08081	0.12566
-0.05531	0.22769
0.07220	0.20219
0.14870	0.15117
0.14870	0.25320
0.04670	0.17668
0.17421	0.35523
0.27621	0.07465
0.22521	-0.66508
0.22521	-0.51203
0.04670	0.50828
0.12320	0.40625
0.12320	0.40625
0.17421	0.55929
0.14870	0.25320
0.12320	0.22769
0.12320	0.02363
0.09770	0.02363
0.12320	-0.02739
0.09770	0.04914
0.25071	0.15117
0.17421	0.02363
0.09770	-0.05289
0.04670	0.07465
0.12320	0.32972
0.04670	0.38074
0.14870	0.35523
0.45472	-0.10391
0.12320	-0.69059
0.07220	0.32972
0.02119	0.63582
0.17421	0.27871
0.12320	0.10015
0.19971	0.17668
0.12320	0.22769
0.22521	0.25320
0.22521	0.17668
0.09770	-0.00188
0.14870	0.02363
0.22521	0.12566
0.19971	0.02363
0.07220	0.04914
0.04670	0.10015
0.14870	0.15117
0.07220	0.30422
-0.05531	0.15117
0.55673	0.02363
0.35272	0.15117
-0.00431	0.25320
0.02119	0.20219
-0.00431	0.32972
0.09770	0.22769
0.17421	-0.53754
0.22521	0.15117
0.14870	0.32972
0.09770	0.02363
0.09770	0.40625
0.17421	-0.18043
0.19971	-0.30797
0.14870	0.50828
0.09770	0.55929
0.14870	0.15117
0.22521	0.15117
-0.02981	0.15117
0.17421	0.10015
0.30171	0.07465
0.12320	0.12566
-0.00431	0.10015
0.12320	0.04914
0.19971	0.43176
0.07220	-0.58856
0.09770	-0.38449
0.25071	-0.20594
0.12320	0.32972
0.09770	0.50828
0.12320	0.94191
0.22521	0.76336
0.07220	0.40625
0.14870	0.17668
0.12320	0.17668
0.04670	0.07465
0.14870	-0.05289
0.22521	-0.15492
0.09770	-0.07840
0.12320	0.15117
0.22521	0.20219
0.14870	0.17668
0.14870	0.15117
0.22521	0.04914
0.14870	0.04914
0.14870	-0.10391
0.22521	0.25320
0.17421	0.58480
0.17421	-0.18043
-0.08081	-0.25695
0.22521	0.17668
0.50573	0.48277
0.12320	0.50828
-0.10631	0.35523
0.04670	0.38074
0.14870	0.35523
0.17421	-0.18043
0.22521	-0.23145
0.04670	0.27871
0.17421	0.30422
0.12320	0.27871
0.17421	0.35523
0.22521	0.22769
0.09770	0.02363
0.17421	-0.74160
0.09770	0.25320
0.07220	0.40625
0.22521	0.15117
0.12320	0.30422
0.07220	0.22769
0.22521	0.40625
0.12320	0.55929
0.12320	0.30422
0.12320	-0.48652
0.19971	0.22769
0.14870	0.30422
0.09770	0.07465
-0.15732	0.12566
-0.08081	0.35523
0.04670	0.25320
0.35272	0.04914
0.53123	0.12566
0.45472	-0.10391
0.53123	0.15117
0.42922	0.15117
0.27621	0.04914
0.22521	0.17668
0.02119	0.17668
0.02119	0.15117
-0.00431	0.20219
-0.15732	0.15117
-0.10631	0.22769
-0.08081	0.22769
-0.15732	-0.02739
-0.28482	0.15117
0.32721	-0.43551
0.32721	0.27871
0.09770	0.38074
-0.05531	0.32972
0.37822	0.30422
0.22521	0.25320
0.22521	0.07465
0.14870	0.04914
0.25071	0.15117
0.32721	-0.61406
0.27621	0.35523
0.14870	0.17668
0.27621	0.22769
0.14870	0.55929
0.14870	0.15117
0.14870	0.04914
0.09770	-0.15492
0.12320	0.43176
0.12320	0.30422
0.04670	0.02363
0.19971	-0.07840
0.14870	0.04914
0.02119	0.25320
0.22521	0.32972
0.17421	0.30422
0.17421	0.15117
0.17421	0.15117
0.14870	0.27871
0.14870	0.02363
0.17421	0.22769
0.04670	0.27871
0.17421	-0.25695
0.22521	0.07465
0.09770	0.61031
0.14870	-0.74160
0.19971	0.22769
0.09770	0.35523
0.12320	0.38074
0.09770	0.25320
0.04670	0.20219
0.12320	0.25320
0.14870	0.27871
0.12320	-0.58856
0.22521	0.22769
0.12320	0.22769
0.12320	0.27871
0.22521	0.25320
0.07220	0.12566
-0.13181	-0.00188
0.17421	0.15117
0.50573	0.20219
0.19971	0.61031
0.02119	-0.66508
-0.08081	-0.30797
0.17421	0.38074
0.14870	0.27871
0.17421	0.38074
0.25071	0.50828
0.12320	0.12566
0.19971	0.27871
0.17421	0.45726
0.12320	-0.56305
0.22521	0.04914
0.12320	0.38074
0.04670	0.35523
0.12320	-0.10391
0.25071	0.38074
0.17421	0.35523
0.12320	0.50828
0.19971	0.17668
0.17421	-0.76711
0.07220	-1.09871
0.19971	0.58480
0.12320	0.63582
0.12320	0.61031
0.19971	0.66132
0.14870	0.50828
0.14870	0.48277
0.25071	-0.25695
0.14870	-0.89465
0.19971	0.27871
0.04670	0.32972
0.14870	0.30422
0.09770	0.15117
0.14870	-0.02739
0.12320	0.27871
0.07220	0.32972
0.17421	0.55929
0.07220	-1.04770
0.14870	0.15117
0.14870	0.38074
0.07220	0.12566
0.12320	0.22769
0.27621	0.27871
0.19971	0.30422
0.07220	0.22769
0.12320	-0.02739
0.17421	0.10015
-0.08081	0.20219
0.17421	0.12566
0.55673	0.22769
0.17421	0.10015
-0.02981	0.17668
0.09770	-0.00188
-0.00431	-0.25695
0.12320	0.45726
0.30171	0.43176
0.07220	0.32972
0.17421	0.04914
0.22521	0.15117
0.12320	0.22769
0.17421	0.73785
0.25071	-1.65988
0.09770	0.02363
0.19971	0.58480
0.14870	0.58480
0.02119	0.58480
0.22521	0.38074
0.12320	-0.05289
0.07220	0.25320
0.22521	0.15117
0.19971	0.02363
0.09770	-0.05289
0.19971	0.30422
0.12320	0.20219
0.09770	0.20219
0.19971	0.22769
0.19971	-0.02739
0.07220	-0.10391
0.14870	-0.18043
0.19971	0.45726
0.12320	0.25320
0.17421	0.32972
0.25071	0.40625
0.19971	0.04914
0.09770	-0.05289
0.14870	0.48277
0.19971	0.32972
0.09770	-0.05289
0.07220	-0.18043
0.17421	0.15117
0.14870	0.12566
0.22521	0.25320
0.17421	0.27871
0.09770	0.17668
0.09770	0.30422
0.22521	0.25320
0.12320	0.22769
0.07220	-0.02739
0.07220	-0.18043
0.14870	0.53379
0.12320	-1.09871
0.17421	0.58480
0.09770	0.12566
0.14870	0.55929
0.12320	0.38074
0.04670	0.32972
0.17421	0.17668
0.12320	0.25320
0.09770	0.15117
0.19971	0.15117
0.14870	0.12566
0.12320	0.15117
0.25071	-0.92016
0.02119	0.12566
0.12320	0.35523
0.09770	0.32972
-0.18282	0.17668
0.53123	0.10015
0.32721	0.07465
-0.02981	0.02363
0.04670	0.22769
0.02119	0.15117
0.14870	0.22769
0.22521	0.04914
0.12320	0.22769
0.30171	0.30422
0.12320	0.30422
0.17421	0.10015
0.25071	0.12566
0.09770	0.27871
0.12320	-0.61406
0.07220	-0.00188
0.14870	0.25320
0.32721	0.35523
0.17421	0.48277
0.02119	0.30422
0.04670	0.17668
0.17421	0.10015
0.09770	0.15117
0.14870	0.04914
0.19971	0.15117
0.14870	-0.00188
0.07220	-0.18043
0.12320	-0.05289
0.22521	0.22769
0.19971	0.40625
0.09770	0.38074
0.12320	0.25320
0.17421	0.48277
0.14870	0.43176
0.14870	-0.43551
0.19971	-1.02219
0.09770	-0.28246
0.12320	0.10015
0.22521	0.91640
0.19971	0.76336
0.07220	0.71234
0.17421	0.30422
0.22521	0.15117
0.14870	-0.00188
0.12320	0.07465
0.22521	0.15117
0.12320	-0.25695
0.09770	-0.46102
0.14870	0.25320
0.12320	0.43176
-0.00431	0.40625
0.12320	-0.56305
0.68424	0.07465
0.27621	0.32972
0.12320	0.32972
-0.00431	0.25320
0.02119	0.35523
0.14870	0.25320
0.04670	0.10015
0.17421	0.20219
0.19971	0.20219
0.12320	0.10015
0.17421	0.12566
0.12320	-0.07840
0.09770	0.04914
0.22521	0.15117
0.14870	0.15117
0.17421	0.25320
0.14870	0.20219
0.07220	0.25320
0.19971	0.15117
0.07220	-0.00188
0.14870	0.10015
0.12320	0.22769
0.09770	0.07465
0.22521	0.25320
0.14870	-0.18043
0.12320	0.22769
0.25071	0.40625
0.12320	0.63582
0.12320	-0.66508
0.19971	0.40625
0.14870	-0.15492
0.07220	-0.89465
0.25071	0.61031
0.14870	0.68683
0.04670	0.89089
0.17421	0.66132
0.12320	0.27871
0.07220	-0.20594
0.17421	0.27871
0.22521	-0.35899
0.12320	0.17668
0.07220	0.10015
0.19971	0.32972
0.07220	0.38074
0.14870	-0.20594
0.25071	0.12566
0.12320	0.15117
-0.08081	0.17668
0.58223	0.12566
0.32721	0.25320
-0.00431	0.07465
0.04670	0.22769
0.04670	0.12566
0.07220	0.04914
0.17421	0.30422
0.14870	0.25320
0.12320	0.20219
0.17421	0.30422
0.17421	0.10015
0.25071	0.04914
0.12320	0.12566
0.17421	0.15117
0.14870	0.15117
0.07220	0.10015
0.14870	0.38074
0.19971	-0.48652
0.19971	0.25320
0.07220	0.86539
0.09770	-0.43551
0.19971	0.71234
0.14870	0.17668
0.07220	0.22769
0.14870	-0.66508
0.12320	-0.05289
0.22521	0.32972
0.12320	0.25320
0.07220	0.35523
0.17421	0.61031
0.14870	0.43176
0.19971	0.15117
0.09770	-0.05289
0.12320	-0.00188
0.12320	0.38074
0.04670	-1.20074
0.25071	-0.25695
0.17421	0.27871
0.07220	0.89089
0.22521	0.66132
0.14870	0.58480
0.12320	0.10015
0.19971	0.04914
0.17421	0.10015
0.07220	0.04914
0.19971	-0.46102
0.22521	0.32972
0.12320	0.25320
0.12320	0.15117
0.22521	0.22769
0.04670	0.20219
0.14870	-0.02739
-0.08081	0.15117
0.48022	0.15117
0.42922	0.10015
0.04670	0.25320
-0.08081	0.38074
0.12320	-0.41000
0.14870	0.40625
0.07220	0.38074
0.22521	0.40625
0.14870	0.17668
0.17421	-0.05289
0.25071	0.04914
0.07220	0.17668
0.17421	0.15117
0.19971	0.50828
0.04670	-0.69059
0.22521	-0.05289
0.12320	0.48277
0.07220	0.55929
0.17421	0.25320
0.17421	0.17668
0.07220	0.04914
0.14870	0.17668
0.09770	0.02363
0.12320	0.48277
0.17421	-0.76711
0.04670	0.35523
0.19971	0.35523
0.14870	-0.12942
0.17421	0.22769
0.22521	0.35523
0.09770	-0.05289
0.17421	-0.20594
0.19971	0.32972
0.09770	0.45726
0.14870	0.38074
0.22521	0.25320
0.07220	0.15117
0.14870	0.40625
0.14870	0.07465
0.04670	-0.28246
0.12320	-0.48652
0.22521	0.17668
0.14870	0.15117
-0.13181	0.38074
0.55673	0.45726
0.37822	0.30422
0.09770	0.32972
0.02119	0.35523
-0.08081	-0.25695
0.17421	0.07465
0.14870	0.17668
0.09770	0.12566
0.14870	0.10015
0.22521	0.25320
0.07220	0.15117
0.17421	0.15117
0.25071	0.32972
0.17421	0.10015
0.14870	0.15117
0.12320	0.22769
0.14870	0.07465
0.27621	0.07465
0.19971	0.07465
0.09770	0.15117
0.12320	0.25320
0.12320	0.20219
0.07220	0.25320
0.09770	-0.58856
0.04670	0.25320
0.53123	0.30422
0.19971	0.10015
0.02119	0.25320
-0.25932	0.27871
-0.05531	0.25320
0.37822	0.25320
0.48022	0.07465
0.30171	0.12566
-0.05531	0.45726
-0.08081	0.22769
0.12320	0.32972
0.30171	-1.81293
-0.15732	0.40625
-0.71835	0.61031
0.68424	0.94191
0.22521	0.02363
0.02119	0.30422
0.42922	-1.20074
0.37822	1.65613
0.91375	0.12566
0.07220	0.10015
-0.36133	-0.97117
-1.10088	0.12566
-0.13181	1.37554
1.14327	1.24800
0.73524	1.22250
0.14870	-2.04250
-1.10088	-0.56305
-0.28482	0.81437
1.67880	2.88050
2.29084	-2.22105
1.95932	-2.57816
-3.19201	-0.51203
-2.32496	-0.71609
-0.46334	2.42136
0.48022	3.56921
0.81175	8.05857
1.42379	-1.48133
1.19427	-10.79165
0.60773	-3.13933
-0.41233	1.32453
-0.87136	3.31413
-0.59084	-8.06232
0.25071	5.68635
0.65874	4.92112
0.07220	1.45206
-0.69285	5.09967
0.68424	0.86539
2.34184	-11.78646
0.86275	-0.71609
-0.25932	2.19179
-0.64185	7.08928
-0.66735	-6.81245
0.02119	0.48277
0.22521	1.19699
0.09770	-2.52714
-0.51434	-3.16484
-0.59084	4.00284
-0.25932	1.96222
0.32721	3.39065
0.88825	-7.47565
0.83725	-6.93998
0.50573	4.64053
0.37822	2.67644
-0.00431	4.15589
-0.00431	1.17148
-0.18282	0.35523
0.09770	4.84460
0.65874	-0.28246
0.12320	-0.63957
-0.00431	0.12566
0.12320	1.17148
0.32721	-4.05761
0.60773	3.74776
0.37822	-1.78742
0.07220	2.08976
-0.08081	-0.20594
-0.69285	-7.45014
-0.46334	-1.17523
-0.15732	4.46198
0.07220	4.51299
-0.05531	4.76807
0.27621	1.12046
0.88825	2.90601
1.98482	1.12046
0.83725	-6.55737
-0.18282	-2.57816
-0.46334	-1.43031
-0.46334	1.98773
-0.46334	2.65093
-0.13181	-2.45062
-0.05531	-1.07320
-0.43783	0.22769
-0.92237	2.01323
-0.15732	-5.25647
0.40372	-4.49124
0.83725	4.61503
0.99026	5.76287
0.88825	-0.86914
0.32721	5.78838
0.60773	-3.64948
0.42922	-0.56305
0.30171	0.43176
0.17421	0.94191
0.12320	-2.52714
0.07220	-8.92959
-0.15732	-3.90456
-0.05531	-0.46102
-0.46334	4.10487
-0.41233	2.77847
-0.28482	-0.10391
0.12320	2.26831
0.19971	2.47238
0.48022	3.05905
0.65874	-0.20594
0.50573	-4.13413
0.30171	-3.39441
-0.15732	1.12046
-0.38683	-3.21585
-0.08081	-0.66508
0.07220	2.34484
0.22521	2.47238
0.19971	3.56921
0.25071	1.80917
0.19971	-1.53234
0.37822	-0.84363
0.53123	0.12566
0.25071	-1.86394
-0.18282	0.73785
-0.15732	-0.18043
0.65874	0.86539
0.42922	-8.47045
0.25071	2.39585
-0.13181	2.19179
-0.08081	2.65093
0.12320	2.57441
0.32721	1.75816
-0.00431	2.08976
-0.28482	2.72745
-0.48884	-4.64429
-0.33583	0.86539
-0.15732	2.82948
0.42922	-4.36370
0.60773	4.28343
0.60773	1.50308
0.63323	-6.50635
0.42922	1.57960
0.30171	-0.63957
0.22521	-3.31788
0.19971	1.57960
-0.08081	0.35523
-0.15732	3.44167
-0.18282	5.53330
0.04670	1.68163
-0.13181	-2.11902
0.09770	-2.60367
0.14870	2.90601
0.42922	0.86539
0.32721	-7.60318
0.27621	0.15117
0.50573	3.97733
0.32721	3.16108
0.02119	-1.12422
-0.10631	2.52339
-0.51434	1.14597
-0.02981	0.15117
0.42922	-0.69059
0.32721	0.04914
0.45472	-0.43551
0.07220	-1.76191
-0.08081	0.07465
0.27621	0.22769
0.32721	-0.05289
-0.05531	-1.25176
0.81175	0.61031
0.58223	1.55410
-0.00431	-1.07320
-0.48884	2.52339
-1.02437	3.03355
-0.15732	-2.52714
0.45472	-5.51155
0.76074	-2.75671
0.32721	-2.27207
0.19971	2.39585
0.17421	4.64053
0.45472	1.63062
0.32721	3.67124
-0.00431	-2.14453
0.17421	1.06945
0.04670	1.55410
0.04670	-2.70570
-0.08081	2.44687
-0.00431	-0.02739
0.19971	-1.04770
0.32721	-5.35850
0.17421	-2.22105
0.02119	-0.43551
-0.10631	2.39585
0.04670	1.65613
0.22521	2.31933
0.25071	1.83468
0.37822	-0.33348
0.25071	-0.38449
0.22521	3.21210
0.40372	-6.86346
0.12320	-0.02739
-0.02981	0.86539
-0.02981	2.75296
-0.31033	0.99292
-0.74385	1.06945
0.32721	0.89089
0.78624	0.61031
0.78624	1.55410
0.58223	-0.74160
0.40372	-1.32828
0.19971	-1.02219
0.04670	-1.76191
-0.15732	1.63062
-0.20832	1.98773
-0.13181	-0.25695
-0.18282	0.45726
-0.00431	1.50308
0.25071	1.32453
-0.02981	-6.32780
0.25071	0.71234
0.25071	0.22769
0.30171	3.28862
0.22521	3.67124
0.32721	-0.35899
0.27621	0.53379
0.22521	-5.17995
0.45472	1.24800
0.12320	5.76287
-0.00431	-4.82284
-0.18282	-5.46054
-0.64185	3.41616
-0.28482	0.22769
0.40372	3.31413
0.63323	2.47238
0.73524	-0.12942
0.48022	-0.94566
0.14870	0.07465
-0.00431	0.38074
0.02119	-2.22105
0.14870	-0.20594
0.12320	-1.40480
-0.10631	0.86539
0.12320	0.66132
0.02119	1.29902
-0.10631	0.78886
-0.00431	-4.66979
0.37822	0.32972
0.35272	0.81437
0.14870	2.06425
-0.13181	1.93671
-0.13181	-0.69059
0.07220	1.12046
0.48022	0.22769
0.53123	1.63062
0.42922	-0.56305
0.32721	-1.09871
0.02119	-2.55265
0.07220	-1.83844
0.22521	-0.18043
-0.10631	3.18659
-0.00431	4.69155
0.07220	-2.34859
0.22521	0.04914
0.02119	-1.55785
-0.08081	1.17148
0.12320	2.34484
0.30171	-1.88945
0.35272	1.86019
0.19971	2.16628
0.07220	1.83468
0.12320	-6.17475
0.12320	-2.80773
-0.00431	0.63582
0.27621	1.75816
-0.05531	1.63062
-0.02981	1.96222
0.32721	-1.50683
0.53123	-1.88945
0.37822	0.76336
0.32721	0.83988
0.12320	1.29902
0.25071	0.07465
0.17421	-0.35899
0.04670	0.58480
0.02119	0.78886
-0.23382	0.96742
-0.00431	0.35523
-0.20832	-2.19554
-0.38683	-1.60887
0.35272	1.09496
0.35272	-1.04770
0.35272	0.68683
0.55673	0.43176
0.02119	0.55929
0.02119	2.95702
0.19971	3.64573
0.42922	-2.62918
0.30171	-1.55785
0.32721	1.40105
0.25071	-0.76711
0.09770	0.89089
0.02119	-0.23145
-0.10631	2.65093
0.14870	3.56921
0.02119	-8.98060
0.12320	1.57960
0.22521	-0.20594
0.17421	1.37554
0.09770	1.01843
0.22521	0.73785
0.04670	4.74256
-0.08081	1.47757
0.12320	1.55410
0.19971	-0.00188
0.12320	-2.34859
0.32721	-4.64429
0.25071	1.01843
0.37822	8.28814
0.42922	-2.24656
0.19971	-13.98012
0.02119	3.46718
-0.23382	2.98253
-0.00431	4.71706
0.22521	4.56401
0.14870	-0.66508
0.22521	-3.01179
0.32721	-3.03730
-0.00431	1.32453
-0.20832	3.77327
0.14870	-2.19554
0.14870	0.86539
0.09770	0.68683
0.19971	-0.30797
0.12320	1.37554
0.37822	-1.43031
0.40372	-3.03730
0.27621	0.10015
0.14870	0.40625
0.04670	1.83468
0.32721	0.48277
0.30171	1.88570
0.04670	2.11527
-0.20832	1.47757
-0.10631	1.98773
0.22521	-6.40432
0.25071	1.63062
0.40372	-1.78742
0.07220	-3.77702
0.14870	0.45726
0.14870	2.49788
0.17421	1.83468
0.27621	2.24281
0.07220	3.51819
-0.00431	1.98773
-0.15732	-4.41472
0.07220	0.86539
0.27621	-0.51203
0.37822	1.75816
0.35272	-1.40480
0.25071	-2.11902
-0.00431	-0.99668
0.09770	-1.35379
0.09770	2.47238
0.09770	1.78367
0.27621	4.13038
0.12320	-0.15492
0.14870	-8.72553
0.12320	-0.97117
-0.18282	0.32972
0.07220	1.63062
0.09770	1.42656
0.17421	2.01323
0.25071	1.04394
0.17421	-0.43551
-0.08081	3.74776
0.17421	-3.47093
0.32721	-3.06281
0.37822	2.39585
0.42922	-2.80773
0.22521	1.17148
0.14870	1.98773
0.07220	-1.37929
-0.38683	1.42656
0.09770	2.34484
0.30171	2.70194
0.27621	-0.46102
0.22521	-1.27726
-0.02981	0.40625
0.17421	-1.40480
0.35272	-2.06800
0.09770	1.96222
-0.13181	0.86539
-0.15732	0.48277
0.22521	-0.38449
0.25071	2.57441
0.19971	-3.01179
0.30171	-0.51203
0.35272	1.19699
0.14870	-0.99668
0.12320	2.26831
-0.10631	0.55929
0.02119	6.19651
0.30171	-10.46005
0.27621	-0.25695
0.14870	-0.33348
0.27621	2.93151
-0.02981	2.72745
-0.10631	1.91120
0.35272	1.50308
-0.02981	1.24800
0.12320	-0.12942
0.37822	-0.79262
0.19971	-1.07320
0.12320	0.02363
0.32721	0.91640
0.25071	-4.18515
0.22521	3.77327
-0.10631	-0.89465
-0.18282	-3.26687
-0.15732	-0.00188
-0.02981	1.78367
0.32721	1.88570
0.40372	2.65093
0.32721	-0.07840
0.45472	0.10015
0.25071	0.73785
0.09770	-0.07840
0.07220	-0.94566
-0.05531	0.15117
-0.00431	2.70194
0.14870	-6.53186
0.14870	0.32972
0.27621	3.03355
0.19971	3.08456
-0.00431	-0.71609
0.09770	-2.78222
0.02119	0.86539
-0.05531	0.17668
0.02119	-1.76191
-0.00431	1.91120
0.37822	2.85499
0.22521	1.73265
0.14870	1.19699
0.25071	2.08976
0.42922	-4.84835
0.48022	-4.05761
0.45472	1.55410
0.07220	2.82948
-0.00431	-0.07840
0.09770	0.61031
-0.00431	2.03874
0.02119	-0.20594
-0.00431	0.20219
0.12320	0.07465
-0.10631	-0.61406
0.07220	0.17668
0.02119	0.99292
0.37822	-0.20594
0.17421	-0.07840
0.14870	-0.00188
0.14870	-2.85874
-0.02981	3.59471
0.14870	-1.30277
0.25071	-0.38449
0.09770	-2.19554
0.12320	-1.22625
0.30171	2.88050
0.50573	2.39585
0.32721	3.00804
0.14870	3.44167
0.09770	2.26831
0.22521	-5.07792
0.27621	-1.58336
-0.05531	-0.76711
0.17421	1.14597
0.12320	0.71234
0.12320	0.30422
0.02119	-0.02739
0.14870	0.94191
0.22521	1.06945
0.09770	-2.60367
-0.00431	-0.20594
-0.18282	1.01843
0.04670	0.25320
0.32721	-0.15492
0.27621	1.78367
0.09770	-0.63957
0.17421	0.30422
0.22521	1.35003
0.30171	-4.10862
0.32721	1.19699
0.32721	3.33964
-0.00431	-3.21585
0.02119	2.19179
-0.00431	0.78886
-0.00431	1.52859
0.27621	-6.37881
0.27621	2.14077
0.35272	1.27351
0.19971	-2.73121
0.04670	-0.53754
-0.15732	2.24281
-0.08081	-0.02739
-0.15732	-1.14973
0.22521	-0.86914
0.40372	0.27871
0.35272	1.14597
0.25071	-1.02219
0.32721	1.60511
0.12320	-0.76711
0.07220	0.38074
0.12320	0.55929
0.19971	-0.18043
0.14870	-2.68019
-0.00431	1.06945
-0.02981	0.32972
0.22521	0.04914
0.22521	1.52859
0.14870	2.57441
0.35272	-0.38449
0.04670	1.47757
-0.20832	-0.35899
0.04670	0.63582
0.14870	0.25320
0.45472	-0.28246
0.42922	-0.38449
0.09770	-1.22625
0.02119	0.71234
0.02119	1.57960
0.09770	-0.35899
0.37822	-1.83844
0.37822	-1.17523
0.32721	1.78367
0.17421	0.81437
0.02119	1.96222
0.07220	0.86539
-0.20832	0.96742
0.09770	0.17668
0.27621	0.40625
0.30171	-0.23145
0.14870	-2.09351
0.07220	0.94191
0.09770	-1.22625
0.17421	0.96742
0.02119	1.22250
-0.10631	1.80917
0.27621	-0.30797
0.40372	-0.48652
0.35272	-2.55265
0.22521	0.02363
-0.00431	2.65093
0.09770	1.93671
0.09770	-0.56305
0.22521	0.66132
0.30171	-0.84363
0.02119	0.76336
0.07220	1.27351
0.07220	0.53379
0.17421	0.04914
0.09770	-1.91496
-0.05531	0.53379
0.09770	4.64053
0.32721	-4.13413
0.14870	-1.09871
-0.00431	-0.46102
-0.02981	1.06945
0.12320	1.40105
0.27621	0.55929
0.37822	1.17148
0.12320	0.89089
0.14870	-2.68019
0.12320	-1.25176
0.12320	-1.37929
0.07220	0.30422
0.22521	2.80397
-0.08081	3.13558
-0.08081	-2.22105
0.19971	1.22250
0.45472	1.29902
0.45472	-1.76191
0.19971	0.89089
0.17421	-0.30797
0.19971	-1.48133
0.12320	0.48277
0.07220	1.65613
-0.05531	0.12566
-0.08081	-0.15492
-0.02981	-1.58336
0.09770	-0.71609
0.12320	2.26831
0.04670	0.17668
0.22521	1.04394
0.22521	0.94191
0.25071	1.37554
0.25071	-0.28246
0.19971	0.43176
0.17421	2.19179
0.19971	-2.37410
0.09770	-0.56305
0.22521	2.72745
0.30171	-2.24656
0.22521	0.53379
0.09770	0.99292
-0.05531	-0.76711
-0.31033	0.89089
0.17421	-1.35379
0.48022	0.73785
0.32721	1.47757
0.14870	-1.40480
0.12320	-0.61406
0.14870	0.68683
0.17421	0.50828
0.17421	0.89089
0.04670	0.86539
0.12320	-0.48652
0.22521	-0.71609
0.14870	0.22769
0.09770	-0.20594
0.17421	0.45726
0.12320	1.22250
0.12320	-0.74160
0.19971	0.48277
0.19971	1.17148
0.12320	0.81437
0.09770	0.55929
0.17421	0.17668
0.19971	0.02363
0.22521	0.35523
0.17421	0.17668
0.04670	1.06945
0.25071	-5.43503
0.25071	1.73265
0.17421	-0.43551
0.02119	0.02363
-0.05531	1.60511
0.07220	1.45206
0.27621	1.88570
0.22521	0.48277
0.12320	-0.51203
0.25071	-0.53754
0.17421	0.45726
0.22521	1.04394
0.12320	0.89089
0.09770	-0.10391
0.09770	-0.20594
0.14870	-3.52195
0.17421	2.59991
0.14870	-1.88945
0.09770	1.09496
0.12320	2.75296
-0.00431	-2.19554
-0.08081	1.24800
0.12320	0.96742
0.30171	-0.05289
0.37822	1.75816
0.19971	-2.73121
0.14870	-0.74160
0.02119	1.80917
-0.00431	0.10015
0.22521	-0.48652
0.22521	1.09496
0.17421	1.32453
0.19971	0.32972
0.07220	-3.08831
0.14870	1.32453
0.04670	-1.81293
0.07220	1.35003
-0.13181	0.55929
0.17421	1.47757
0.30171	0.15117
0.50573	0.02363
0.27621	-0.30797
0.09770	1.50308
0.04670	-0.79262
0.07220	-2.04250
0.07220	0.45726
0.09770	1.12046
0.09770	0.71234
0.19971	0.81437
0.07220	-1.25176
0.09770	-0.69059
0.25071	0.99292
0.02119	0.22769
0.09770	-0.07840
0.30171	1.45206
0.19971	-0.89465
0.17421	-1.76191
0.27621	0.53379
0.22521	1.45206
0.17421	1.17148
0.07220	1.80917
0.09770	-1.71090
0.07220	-0.25695
-0.02981	3.21210
0.27621	-4.69530
0.12320	0.99292
0.30171	0.78886
-0.10631	1.01843
-0.00431	1.86019
0.09770	-1.58336
0.27621	0.68683
0.17421	1.04394
0.32721	-0.81812
0.14870	0.04914
-0.08081	0.27871
0.32721	-1.68539
0.25071	0.94191
0.27621	0.66132
0.12320	-0.10391
0.04670	1.57960
0.12320	-0.81812
-0.00431	-2.17003
0.22521	1.57960
-0.08081	0.50828
0.04670	-2.62918
0.09770	0.55929
-0.05531	1.68163
0.19971	2.49788
0.35272	-1.78742
0.32721	-0.10391
0.27621	0.48277
0.14870	2.06425
0.12320	-0.53754
-0.08081	0.32972
0.17421	-1.17523
0.17421	-2.60367
0.02119	1.96222
0.40372	0.10015
0.14870	1.17148
0.12320	1.01843
0.02119	0.86539
-0.00431	1.37554
0.19971	-0.58856
0.22521	-1.83844
0.27621	-0.33348
0.30171	1.63062
0.30171	1.73265
0.12320	-8.21537
-0.20832	-1.60887
-0.31033	1.35003
0.04670	2.77847
0.32721	1.86019
0.42922	0.02363
0.37822	0.40625
0.32721	0.50828
0.19971	-0.41000
-0.00431	0.27871
0.17421	0.38074
0.14870	-0.81812
-0.05531	0.50828
-0.08081	0.15117
0.30171	-1.14973
0.12320	0.63582
-0.02981	-0.30797
0.07220	0.30422
0.14870	0.45726
0.32721	-0.69059
-0.00431	0.86539
0.25071	0.86539
0.35272	-1.20074
0.17421	0.86539
-0.00431	1.37554
0.14870	1.96222
0.14870	-0.28246
0.27621	1.12046
0.17421	-1.91496
0.30171	-1.96597
0.14870	2.62542
-0.00431	-4.18515
-0.10631	1.22250
-0.02981	1.19699
0.02119	1.14597
0.32721	1.35003
0.32721	0.83988
0.30171	0.25320
0.22521	-0.20594
0.25071	-0.38449
0.12320	-1.43031
-0.00431	0.38074
0.02119	0.45726
0.37822	2.44687
0.14870	-1.32828
0.17421	-5.07792
0.27621	0.12566
-0.00431	1.86019
-0.00431	1.37554
-0.05531	0.61031
-0.05531	-0.92016
0.04670	1.83468
0.22521	1.24800
0.40372	0.78886
0.35272	-0.02739
0.32721	0.61031
0.22521	-0.00188
0.17421	-0.28246
-0.00431	-0.00188
-0.02981	0.02363
0.12320	0.10015
-0.00431	-0.30797
0.14870	-0.76711
0.25071	1.83468
0.17421	-3.44542
0.22521	-0.18043
0.27621	1.88570
0.17421	1.70714
0.14870	0.86539
0.14870	-0.30797
-0.00431	-0.69059
0.12320	-3.90456
0.09770	2.19179
0.09770	1.68163
0.19971	2.11527
0.14870	-0.02739
-0.00431	-0.18043
0.12320	1.68163
0.17421	2.93151
0.04670	-3.01179
0.09770	-5.25647
0.19971	-0.51203
0.45472	1.17148
0.35272	2.34484
0.09770	0.96742
0.02119	-0.25695
0.12320	2.49788
0.22521	-0.71609
0.12320	-1.27726
0.02119	-1.27726
-0.10631	1.91120
0.14870	-0.20594
0.22521	1.27351
0.27621	1.22250
0.22521	0.96742
-0.02981	0.04914
0.02119	-1.20074
-0.02981	0.35523
0.17421	0.53379
0.14870	-0.15492
0.35272	-0.23145
0.42922	0.76336
0.40372	1.78367
0.30171	-1.63437
0.17421	-0.35899
-0.28482	1.09496
-0.13181	-2.70570
0.02119	1.57960
0.09770	1.37554
0.48022	-0.05289
0.30171	2.16628
0.19971	0.96742
0.14870	-1.48133
0.07220	-1.37929
0.12320	0.76336
0.09770	0.63582
0.02119	0.45726
0.12320	0.94191
0.04670	0.10015
0.12320	-0.69059
0.12320	0.76336
0.04670	0.48277
0.35272	-1.20074
0.40372	-1.65988
-0.08081	-0.53754
0.14870	2.49788
0.17421	-0.07840
-0.00431	-2.83324
0.22521	-1.14973
0.02119	3.41616
0.32721	1.52859
0.22521	0.61031
0.09770	1.45206
0.12320	2.42136
0.19971	-4.00659
0.09770	0.45726
0.12320	-0.94566
0.09770	-0.15492
0.09770	0.25320
-0.00431	0.04914
-0.00431	0.66132
0.12320	0.40625
0.19971	0.30422
0.17421	-0.63957
0.09770	-0.28246
0.17421	0.73785
0.30171	-0.51203
0.17421	0.04914
0.22521	0.40625
0.04670	1.04394
0.04670	-1.60887
-0.08081	-0.02739
0.25071	1.68163
0.32721	2.06425
0.32721	-3.26687
0.12320	-1.25176
0.17421	2.08976
0.22521	-0.92016
0.12320	0.53379
-0.10631	0.61031
0.19971	0.15117
0.19971	0.83988
0.25071	0.66132
0.07220	0.10015
0.12320	-0.25695
0.22521	-0.86914
0.12320	-0.00188
-0.00431	-0.79262
0.09770	-0.20594
0.22521	0.61031
0.22521	-1.07320
0.07220	1.37554
-0.10631	2.29382
0.19971	-0.81812
0.32721	-0.56305
0.37822	-0.23145
0.35272	-0.18043
0.22521	1.04394
0.02119	0.45726
0.09770	-0.66508
0.07220	1.40105
-0.08081	-0.05289
0.17421	0.15117
0.19971	0.17668
0.27621	0.81437
0.19971	1.01843
-0.02981	0.04914
0.17421	-1.07320
0.22521	-0.99668
0.19971	-3.54745
0.17421	1.60511
0.19971	0.86539
-0.18282	1.12046
-0.41233	2.98253
-0.23382	-2.32308
0.27621	-0.20594
0.60773	0.63582
0.58223	0.61031
0.37822	1.47757
0.19971	0.61031
0.22521	-0.12942
0.22521	-0.02739
0.04670	-0.15492
-0.05531	-0.76711
-0.00431	0.71234
0.07220	2.95702
-0.08081	-3.39441
0.02119	-10.12845
0.04670	0.99292
0.17421	3.03355
0.14870	3.11007
0.17421	2.70194
0.27621	1.75816
0.17421	0.91640
0.30171	0.58480
0.35272	0.20219
0.14870	-1.43031
0.02119	-1.32828
0.07220	0.68683
0.17421	0.53379
0.09770	-1.37929
0.32721	-1.43031
0.02119	0.17668
0.02119	0.45726
0.17421	-0.35899
0.22521	0.35523
0.32721	0.89089
0.14870	1.50308
0.09770	-0.46102
0.14870	0.73785
0.12320	-0.51203
-0.00431	0.94191
0.19971	-0.05289
0.19971	0.83988
0.14870	0.38074
0.14870	0.68683
0.12320	0.63582
0.12320	-1.25176
0.14870	-0.63957
0.12320	1.22250
0.07220	-0.56305
0.09770	0.30422
0.19971	0.63582
0.37822	0.04914
0.30171	2.39585
0.07220	-1.48133
-0.02981	-2.70570
0.07220	-1.07320
0.04670	2.06425
0.27621	1.50308
0.32721	2.06425
0.25071	1.45206
0.32721	-1.40480
-0.02981	0.86539
-0.20832	-0.92016
0.17421	0.30422
0.27621	0.48277
0.30171	-0.18043
0.22521	-0.35899
0.17421	1.09496
0.25071	-0.46102
0.09770	0.76336
-0.00431	-0.12942
0.02119	1.40105
-0.25932	-2.55265
-0.15732	0.20219
0.22521	1.60511
0.53123	1.37554
0.50573	-1.25176
0.35272	-0.84363
0.27621	0.76336
0.27621	0.86539
0.19971	0.43176
0.04670	0.50828
-0.10631	0.07465
-0.20832	0.35523
0.17421	-2.09351
0.19971	0.40625
0.12320	0.35523
0.22521	-0.02739
0.14870	0.10015
0.12320	1.06945
0.19971	1.63062
0.40372	-1.07320
0.32721	-2.24656
-0.02981	0.55929
-0.18282	-0.43551
-0.00431	0.45726
0.27621	1.78367
0.25071	1.78367
0.27621	-0.94566
0.09770	0.91640
0.12320	1.24800
0.19971	-0.38449
0.17421	-0.35899
0.07220	0.04914
0.14870	0.78886
0.25071	0.76336
0.04670	-0.15492
-0.02981	-3.29238
0.04670	0.83988
0.12320	1.04394
0.14870	1.52859
0.32721	1.45206
0.40372	-2.65468
0.30171	-2.09351
0.19971	0.27871
0.12320	2.03874
0.25071	1.68163
0.04670	1.29902
-0.10631	0.58480
-0.02981	0.32972
-0.13181	0.71234
0.04670	0.27871
0.42922	-0.48652
0.40372	-0.86914
0.37822	-0.66508
0.22521	0.15117
0.17421	0.17668
0.04670	0.32972
0.14870	0.86539
-0.00431	1.09496
0.07220	-1.12422
-0.18282	1.04394
-0.15732	-0.25695
0.25071	1.09496
0.22521	-3.44542
0.17421	0.45726
0.30171	1.88570
0.09770	0.10015
0.19971	0.45726
0.35272	-0.48652
0.12320	1.17148
0.02119	1.17148
0.12320	0.02363
0.12320	0.17668
0.17421	0.15117
0.19971	0.61031
0.14870	-0.46102
0.19971	-1.65988
0.12320	-0.46102
0.09770	-0.10391
0.12320	0.43176
0.14870	0.63582
0.22521	0.96742
0.09770	0.76336
0.02119	0.66132
0.09770	-1.32828
0.17421	0.43176
0.22521	0.20219
-0.00431	-4.18515
0.12320	1.24800
0.32721	2.42136
0.30171	1.78367
0.27621	0.86539
0.22521	1.37554
0.37822	0.86539
0.02119	1.19699
0.04670	-2.93527
0.04670	-0.41000
0.19971	0.02363
0.14870	-1.78742
0.17421	-0.07840
0.19971	0.78886
0.07220	0.27871
-0.02981	-0.56305
0.04670	-0.12942
0.19971	0.99292
0.04670	0.30422
0.19971	1.50308
0.32721	-1.94047
0.27621	-0.12942
0.22521	-1.53234
0.07220	0.17668
-0.25932	-0.28246
-0.43783	2.29382
0.42922	3.46718
0.63323	0.43176
0.45472	1.35003
0.30171	0.40625
0.02119	-5.07792
0.09770	0.81437
0.32721	-0.05289
0.12320	0.10015
0.04670	0.30422
0.14870	0.91640
-0.00431	-1.02219
0.04670	-0.53754
0.04670	0.12566
0.04670	0.15117
0.22521	0.20219
0.14870	0.25320
0.12320	0.20219
0.07220	0.30422
0.12320	0.38074
0.22521	0.25320
0.17421	-0.20594
0.12320	0.83988
0.32721	0.73785
0.27621	1.32453
0.25071	-0.48652
0.45472	-7.09303
0.17421	1.32453
-0.10631	2.90601
0.30171	-0.02739
-0.18282	2.77847
-0.38683	1.52859
0.04670	0.45726
0.45472	1.12046
0.45472	0.43176
0.42922	-0.99668
0.17421	0.45726
0.09770	-0.69059
0.04670	-2.37410
0.02119	-0.02739
0.22521	0.55929
0.35272	-0.51203
-0.05531	0.07465
0.04670	0.55929
-0.05531	1.01843
0.25071	1.04394
0.07220	-6.02170
0.17421	0.83988
0.32721	1.52859
0.19971	1.75816
0.12320	1.22250
0.22521	0.81437
0.22521	0.68683
0.12320	0.04914
-0.00431	0.20219
0.22521	1.80917
0.22521	-0.76711
0.12320	-5.97069
-0.13181	-3.67499
-0.08081	2.57441
0.04670	2.93151
0.27621	2.54890
0.37822	1.45206
0.35272	0.04914
0.25071	0.15117
0.17421	-0.30797
0.27621	0.07465
-0.02981	-1.30277
0.02119	-1.48133
0.19971	1.52859
0.17421	-0.33348
-0.08081	-0.41000
0.14870	2.06425
0.14870	-1.27726
0.19971	0.61031
0.30171	0.43176
0.35272	0.55929
0.25071	0.66132
0.09770	1.52859
0.07220	2.47238
0.17421	-2.88425
0.17421	-3.01179
0.27621	1.17148
0.14870	0.20219
-0.02981	0.43176
0.07220	0.17668
0.07220	1.32453
0.09770	0.81437
0.19971	-0.74160
0.27621	0.91640
0.09770	-3.24136
-0.02981	0.55929
0.22521	1.75816
0.37822	-0.05289
0.42922	1.06945
0.12320	0.38074
-0.08081	0.32972
0.09770	2.03874
0.04670	1.42656
0.09770	-2.88425
0.30171	-2.80773
0.25071	0.73785
0.14870	1.17148
-0.02981	1.24800
0.17421	1.42656
0.14870	1.24800
0.14870	0.17668
0.14870	-0.84363
-0.02981	-1.45582
-0.00431	0.76336
0.25071	1.06945
0.22521	0.20219
0.25071	0.20219
0.07220	0.02363
0.09770	-0.25695
0.07220	0.68683
0.12320	0.45726
-0.05531	0.61031
0.22521	0.30422
0.32721	0.02363
0.37822	0.15117
0.14870	0.45726
-0.00431	0.38074
0.12320	0.15117
0.12320	-0.56305
0.09770	-1.58336
0.14870	-2.60367
0.27621	1.40105
0.22521	0.99292
0.14870	-0.20594
-0.08081	1.45206
-0.00431	2.47238
0.12320	-0.35899
0.40372	-1.32828
0.19971	-0.20594
0.22521	1.91120
0.12320	2.75296
0.04670	0.94191
0.25071	-6.45534
0.25071	1.78367
0.02119	-0.46102
0.04670	0.68683
0.02119	-3.44542
0.12320	2.26831
0.25071	0.94191
0.19971	-0.74160
0.32721	1.98773
0.19971	-0.20594
0.09770	2.52339
0.07220	0.27871
0.14870	0.40625
0.12320	0.99292
0.22521	1.24800
0.14870	-1.14973
-0.08081	-0.20594
0.22521	0.30422
0.04670	-0.58856
0.19971	-0.89465
0.30171	1.29902
0.12320	-0.33348
0.04670	0.35523
-0.08081	0.96742
0.04670	-2.42511
0.12320	1.47757
0.42922	2.44687
0.40372	-0.99668
0.32721	-0.28246
0.27621	0.63582
0.04670	0.43176
0.02119	1.09496
-0.00431	-0.94566
-0.02981	1.29902
-0.00431	0.45726
0.42922	0.66132
0.14870	-0.56305
0.22521	-1.55785
0.02119	-0.30797
-0.33583	0.53379
0.02119	1.19699
0.65874	3.31413
0.53123	-2.90976
0.50573	0.32972
0.30171	2.21730
0.22521	-0.66508
0.07220	0.10015
-0.10631	-3.90456
-0.05531	1.37554
0.04670	1.06945
-0.00431	1.98773
0.07220	0.94191
0.14870	-0.56305
0.17421	-0.69059
0.19971	-1.86394
0.32721	1.78367
0.22521	-0.97117
0.02119	-0.69059
0.07220	0.58480
0.07220	1.65613
0.22521	1.14597
0.19971	-1.32828
0.27621	0.40625
0.14870	-0.05289
0.32721	0.10015
0.32721	0.76336
0.25071	-0.10391
-0.05531	0.04914
-0.08081	-0.92016
0.09770	1.09496
0.04670	-1.14973
0.17421	-1.27726
0.12320	-0.02739
0.27621	0.61031
0.25071	1.70714
0.17421	1.65613
0.12320	1.83468
-0.08081	1.37554
-0.00431	-1.35379
0.17421	-0.20594
0.25071	-0.74160
0.48022	0.35523
0.17421	2.19179
0.30171	-6.42983
0.07220	0.35523
-0.05531	1.22250
0.22521	1.57960
0.07220	1.19699
0.04670	-1.12422
0.07220	0.55929
-0.05531	1.86019
0.27621	-0.35899
0.19971	-0.69059
0.14870	-0.18043
0.12320	1.06945
-0.02981	2.42136
0.12320	-1.60887
0.02119	-2.68019
0.27621	1.19699
0.25071	0.99292
0.30171	1.17148
0.19971	0.71234
0.09770	0.35523
0.17421	0.71234
0.17421	-2.37410
0.27621	0.32972
0.02119	0.32972
0.04670	-0.46102
0.27621	1.09496
0.09770	1.01843
0.12320	-0.05289
-0.08081	0.15117
-0.10631	-0.12942
0.35272	-0.38449
0.22521	1.70714
0.22521	-0.89465
0.22521	0.76336
-0.10631	1.63062
0.12320	0.58480
0.35272	-1.58336
0.27621	-0.61406
0.25071	-0.15492
0.02119	-0.30797
-0.08081	0.22769
0.27621	1.17148
0.22521	0.83988
0.22521	1.37554
0.07220	0.07465
0.02119	0.30422
0.07220	1.35003
-0.05531	-0.43551
-0.02981	-4.15964
0.19971	-3.24136
0.35272	0.40625
0.09770	0.73785
0.19971	1.57960
0.35272	1.98773
0.17421	1.78367
0.07220	-1.30277
-0.08081	0.12566
0.17421	1.57960
0.09770	1.04394
0.27621	-1.50683
0.25071	-0.79262
0.07220	-1.02219
0.02119	-0.15492
0.25071	1.17148
0.25071	1.01843
0.02119	1.32453
0.04670	0.83988
0.19971	-1.35379
0.27621	0.30422
0.35272	0.12566
0.07220	-1.12422
0.04670	0.68683
0.12320	-0.15492
-0.20832	0.71234
-0.02981	-1.22625
0.42922	-0.12942
0.19971	0.25320
0.27621	1.86019
0.32721	2.06425
0.25071	-1.73640
-0.02981	0.38074
-0.08081	1.65613
0.25071	-2.65468
-0.02981	0.61031
0.14870	-1.50683
0.35272	0.96742
0.19971	0.38074
0.22521	1.57960
0.19971	-3.11382
0.12320	0.63582
0.12320	-1.60887
-0.02981	-0.35899
-0.08081	2.03874
-0.08081	-0.23145
0.17421	-0.02739
0.35272	-0.00188
0.45472	1.19699
0.37822	0.04914
0.25071	0.04914
0.17421	0.48277
0.19971	0.78886
0.09770	-2.85874
0.09770	0.94191
0.07220	-1.86394
0.17421	0.78886
-0.08081	0.91640
0.07220	0.50828
0.25071	0.53379
0.12320	0.99292
0.12320	0.76336
0.30171	-0.15492
0.17421	-1.76191
0.22521	0.81437
0.35272	0.73785
0.02119	0.30422
0.17421	1.09496
0.14870	0.02363
0.12320	-0.35899
-0.02981	2.08976
0.27621	-1.12422
0.27621	0.10015
0.09770	-2.37410
0.17421	0.43176
0.04670	-0.81812
0.07220	1.73265
0.19971	0.81437
0.12320	0.35523
0.09770	-0.63957
0.17421	-0.25695
0.22521	1.01843
0.07220	0.48277
0.02119	0.10015
0.17421	-0.23145
0.12320	-0.18043
0.30171	0.50828
0.12320	0.73785
0.17421	-1.22625
0.02119	-1.55785
0.09770	1.70714
0.07220	-1.25176
0.25071	-0.18043
0.27621	1.06945
0.19971	1.83468
0.14870	2.11527
0.14870	0.55929
0.02119	-0.51203
-0.18282	0.17668
0.17421	0.99292
0.32721	0.45726
0.37822	-1.40480
0.17421	0.61031
0.30171	-2.32308
0.17421	1.52859
0.02119	0.38074
-0.05531	-1.50683
-0.05531	0.76336
0.19971	0.30422
0.14870	1.96222
0.30171	2.49788
0.25071	-0.86914
0.22521	-4.89936
0.19971	-1.91496
0.07220	0.55929
0.07220	2.14077
0.02119	1.88570
0.30171	0.99292
0.30171	1.19699
0.19971	1.55410
0.07220	-1.88945
0.09770	-3.59847
0.12320	0.48277
0.04670	0.78886
0.02119	1.40105
0.17421	-0.41000
0.32721	-1.25176
0.22521	-1.22625
0.22521	0.81437
0.25071	1.42656
-0.08081	1.96222
-0.05531	0.73785
0.02119	-3.41992
0.27621	-0.18043
0.19971	0.22769
0.25071	1.98773
0.19971	-0.02739
0.22521	-0.20594
0.09770	1.65613
0.09770	0.17668
0.02119	0.48277
-0.05531	-1.02219
0.02119	-1.37929
0.19971	-0.46102
0.07220	0.66132
0.27621	0.61031
0.32721	0.25320
0.12320	0.68683
0.25071	-1.58336
0.07220	0.30422
-0.05531	-0.07840
0.04670	0.43176
0.02119	1.55410
0.07220	0.68683
0.35272	-1.07320
0.32721	-1.02219
0.22521	-0.66508
0.30171	2.08976
0.22521	1.22250
0.17421	-4.61878
0.14870	2.14077
-0.00431	-0.15492
0.07220	0.30422
0.09770	2.49788
0.07220	-2.39961
0.17421	0.02363
0.22521	-0.76711
0.14870	0.48277
0.12320	0.76336
0.12320	1.17148
-0.00431	1.14597
0.14870	1.22250
0.27621	-0.74160
0.07220	0.12566
0.12320	-2.29757
0.42922	0.02363
0.27621	-0.71609
0.14870	1.06945
0.04670	-0.33348
-0.13181	0.04914
-0.00431	0.55929
0.22521	0.48277
0.30171	2.54890
0.12320	-2.45062
-0.00431	0.20219
0.12320	-0.10391
0.22521	1.63062
0.32721	0.73785
0.14870	0.02363
0.07220	0.02363
0.14870	1.37554
0.12320	0.81437
0.30171	-1.35379
0.12320	0.35523
-0.18282	-1.88945
-0.31033	0.76336
0.22521	-0.66508
0.35272	0.89089
0.53123	0.35523
0.45472	1.19699
0.14870	1.01843
0.02119	-0.10391
0.12320	1.60511
-0.05531	-0.48652
0.12320	-0.12942
0.22521	-3.41992
0.09770	1.32453
0.17421	1.32453
0.27621	0.38074
0.30171	0.63582
0.07220	0.63582
0.04670	0.76336
-0.05531	-1.63437
-0.05531	-0.25695
0.19971	0.45726
0.25071	1.55410
0.04670	0.96742
0.14870	-1.50683
0.22521	0.96742
0.27621	-1.63437
0.32721	-0.10391
0.12320	0.61031
0.04670	0.35523
0.12320	1.22250
0.19971	2.16628
0.19971	-3.64948
0.04670	-2.57816
0.02119	1.04394
0.09770	2.90601
-0.02981	3.11007
0.22521	-2.60367
0.30171	-2.65468
0.17421	1.29902
-0.15732	2.90601
-0.23382	-2.24656
-0.18282	0.48277
0.40372	0.83988
0.63323	0.78886
0.37822	0.17668
0.40372	0.91640
0.42922	-0.92016
0.12320	0.07465
-0.08081	-2.11902
0.09770	-0.10391
0.02119	0.91640
0.22521	-1.35379
0.19971	0.43176
-0.05531	1.96222
0.12320	1.78367
0.07220	-0.89465
0.19971	-0.43551
0.17421	-0.79262
0.12320	1.24800
0.02119	0.17668
0.22521	0.17668
0.37822	-0.53754
0.30171	0.45726
0.25071	1.01843
0.07220	-0.18043
-0.00431	0.32972
0.09770	0.07465
0.22521	-0.02739
0.32721	-0.10391
0.22521	-0.02739
0.02119	1.50308
-0.00431	1.50308
0.09770	-3.39441
0.09770	-1.65988
0.14870	1.60511
0.27621	2.77847
0.04670	-0.71609
0.17421	1.63062
0.32721	1.73265
0.19971	-3.52195
-0.23382	-1.94047
0.09770	0.94191
0.25071	1.40105
0.19971	1.09496
0.32721	2.03874
0.22521	-2.50164
0.17421	-0.86914
0.09770	0.40625
0.04670	-0.23145
0.12320	0.35523
0.14870	1.06945
0.09770	1.47757
0.14870	-1.32828
0.12320	0.17668
0.14870	0.40625
0.17421	1.24800
0.19971	-0.41000
0.12320	-6.07272
0.14870	1.12046
0.17421	1.42656
-0.08081	0.99292
-0.15732	2.03874
-0.13181	0.10015
0.32721	0.35523
0.42922	0.55929
0.42922	-0.61406
0.19971	-0.71609
0.17421	1.40105
0.19971	0.07465
0.12320	0.43176
-0.00431	-0.71609
-0.08081	0.55929
-0.05531	1.55410
0.17421	-1.27726
0.25071	-3.41992
0.22521	0.58480
0.30171	0.07465
0.25071	2.21730
-0.00431	2.39585
-0.15732	-1.14973
0.02119	1.19699
0.32721	0.15117
0.37822	-1.55785
0.17421	1.06945
0.07220	0.96742
0.07220	1.50308
-0.18282	1.32453
0.07220	0.04914
0.32721	-2.01699
0.35272	-0.71609
0.22521	1.27351
0.17421	-2.52714
0.04670	1.12046
0.12320	1.04394
-0.00431	-2.14453
0.07220	0.20219
0.22521	2.39585
0.30171	-0.71609
0.12320	0.25320
0.02119	1.63062
0.07220	-0.51203
0.22521	0.91640
0.09770	0.17668
0.12320	1.45206
0.14870	-0.30797
0.17421	-1.02219
0.22521	-0.05289
0.12320	0.99292
0.19971	0.32972
0.09770	-2.17003
-0.13181	1.70714
0.04670	0.20219
0.27621	-2.17003
0.42922	0.86539
0.22521	2.57441
0.17421	1.73265
0.14870	0.58480
0.17421	1.24800
0.12320	-2.70570
0.12320	-0.74160
0.02119	-3.24136
0.07220	1.35003
0.17421	1.60511
-0.05531	-0.10391
0.04670	1.47757
0.07220	0.55929
0.14870	0.78886
0.35272	1.12046
0.35272	0.48277
0.22521	-2.22105
0.17421	-1.45582
0.27621	-2.19554
0.07220	0.20219
0.07220	0.43176
0.07220	1.91120
-0.00431	1.32453
0.27621	-6.02170
0.07220	1.55410
0.17421	2.47238
0.14870	0.58480
0.22521	0.91640
0.14870	2.14077
0.09770	0.94191
0.07220	-1.83844
0.19971	-2.73121
0.32721	-4.79733
0.19971	1.88570
0.02119	0.81437
0.27621	0.53379
0.25071	1.80917
0.04670	1.78367
0.04670	0.91640
-0.00431	-8.77654
0.12320	-2.90976
0.12320	2.85499
-0.18282	3.26312
0.19971	2.67644
0.27621	1.70714
0.22521	0.99292
0.19971	2.06425
0.42922	-3.93007
0.42922	-1.68539
0.09770	-1.27726
0.02119	-0.41000
0.12320	1.27351
0.02119	0.17668
-0.00431	-0.23145
0.09770	-1.17523
0.19971	3.36515
-0.13181	-1.04770
0.22521	-2.62918
0.19971	-0.94566
0.02119	2.24281
0.22521	2.59991
0.32721	1.42656
0.17421	1.06945
0.35272	0.07465
0.25071	0.25320
0.14870	0.17668
0.14870	-0.35899
0.07220	-0.74160
0.14870	0.07465
0.09770	-0.86914
0.02119	1.29902
0.17421	-1.68539
-0.05531	-0.25695
0.09770	0.71234
0.27621	1.24800
0.14870	0.91640
0.12320	-1.50683
0.19971	-1.04770
0.04670	0.20219
0.25071	0.89089
0.22521	3.23761
0.32721	-9.00611
0.37822	0.50828
0.12320	3.13558
0.12320	1.78367
0.19971	1.45206
-0.00431	1.55410
0.09770	-1.09871
-0.08081	-0.25695
-0.28482	-0.46102
0.30171	-0.20594
0.22521	-0.86914
0.30171	0.43176
0.35272	1.47757
0.19971	0.91640
0.19971	-0.18043
0.14870	-4.33819
0.02119	-0.15492
-0.36133	0.99292
-0.00431	2.62542
0.37822	-0.18043
0.35272	-0.61406
0.35272	-0.05289
0.35272	1.29902
0.19971	0.02363
-0.00431	0.48277
-0.02981	0.66132
0.07220	-0.05289
0.14870	1.68163
0.04670	-0.51203
0.19971	-2.14453
0.12320	-0.30797
-0.02981	0.91640
0.30171	1.27351
0.35272	0.32972
0.27621	0.40625
0.27621	-1.53234
0.07220	0.20219
-0.20832	-0.84363
-0.05531	0.04914
0.22521	0.55929
0.19971	-0.33348
