0.04670	0.63582
0.19971	0.89089
0.07220	-0.18043
0.12320	0.22769
0.14870	-0.43551
0.12320	-0.30797
0.14870	0.15117
0.19971	0.27871
0.22521	0.30422
0.09770	0.38074
0.22521	0.32972
0.09770	0.10015
0.19971	-1.68539
0.12320	0.12566
0.14870	0.45726
0.14870	0.58480
0.17421	0.61031
-0.05531	0.38074
0.19971	0.40625
0.48022	-0.05289
0.25071	-0.00188
0.04670	0.22769
0.02119	0.32972
-0.02981	0.12566
0.12320	0.20219
0.07220	-0.58856
0.19971	0.38074
0.12320	-0.10391
0.27621	0.35523
0.19971	0.17668
0.14870	0.43176
0.19971	-1.76191
0.12320	0.81437
0.14870	1.04394
0.07220	0.81437
0.14870	0.30422
0.12320	0.40625
0.12320	0.15117
0.14870	-0.15492
0.12320	0.15117
0.12320	-0.74160
0.12320	-0.20594
0.09770	0.66132
0.22521	0.45726
0.12320	-0.38449
0.22521	0.25320
0.07220	0.45726
0.14870	0.25320
0.12320	-0.15492
0.25071	0.48277
0.07220	0.25320
0.19971	0.15117
0.12320	0.02363
0.17421	0.12566
0.22521	0.15117
0.04670	0.22769
0.22521	0.35523
0.14870	-0.66508
0.19971	0.30422
0.22521	0.25320
0.12320	0.32972
0.09770	-0.00188
0.14870	0.02363
0.12320	0.40625
0.14870	0.27871
-0.00431	0.22769
0.37822	0.07465
0.42922	0.27871
-0.02981	0.17668
0.04670	0.15117
0.02119	-0.00188
0.14870	-0.00188
0.14870	0.30422
0.14870	0.81437
0.22521	-0.74160
0.07220	0.76336
0.25071	-1.02219
0.22521	-0.35899
0.12320	0.15117
0.09770	0.53379
0.14870	0.55929
0.19971	0.45726
0.07220	0.43176
0.12320	0.32972
0.12320	0.12566
0.09770	-0.18043
0.22521	-0.15492
0.07220	0.02363
0.14870	0.38074
0.17421	0.17668
0.17421	0.40625
0.22521	0.22769
0.07220	0.07465
0.19971	0.22769
0.14870	1.27351
0.22521	-2.27207
0.14870	-1.63437
0.04670	0.66132
0.27621	1.09496
0.07220	1.01843
0.14870	0.86539
0.12320	0.55929
0.17421	0.10015
0.14870	-0.25695
0.07220	0.10015
0.22521	0.15117
0.09770	0.12566
0.19971	0.07465
0.17421	0.15117
0.07220	-0.02739
0.19971	0.07465
0.09770	0.17668
0.09770	0.04914
0.17421	0.50828
0.07220	-0.76711
0.22521	0.55929
0.17421	-0.00188
0.17421	-0.23145
0.19971	0.73785
-0.05531	0.55929
0.17421	-0.00188
0.55673	0.32972
0.02119	0.35523
0.04670	0.40625
0.02119	0.25320
0.04670	-0.28246
0.19971	0.04914
0.09770	0.17668
0.14870	-0.18043
0.19971	-0.89465
0.17421	0.53379
0.19971	0.61031
0.07220	0.38074
0.17421	0.45726
0.12320	0.27871
0.14870	0.10015
0.17421	-0.02739
0.12320	-0.15492
0.19971	0.04914
0.14870	0.50828
0.09770	-0.15492
0.17421	-0.35899
0.07220	-0.28246
0.14870	0.48277
0.14870	0.35523
0.19971	0.30422
0.07220	0.35523
0.22521	0.45726
0.07220	0.32972
0.19971	0.30422
0.09770	0.04914
0.25071	0.12566
0.07220	-0.66508
0.12320	-0.30797
0.14870	0.02363
0.22521	0.45726
0.07220	0.45726
0.14870	0.48277
0.04670	0.12566
0.17421	0.76336
0.12320	-0.51203
0.14870	0.10015
0.19971	0.58480
0.09770	0.43176
0.17421	0.25320
0.04670	-0.86914
0.14870	0.35523
0.14870	0.73785
0.17421	-0.51203
0.14870	-0.05289
0.07220	0.30422
0.19971	0.45726
0.07220	0.30422
0.19971	0.35523
0.09770	0.30422
0.22521	0.04914
0.07220	-0.46102
0.19971	0.15117
0.14870	0.61031
0.17421	-1.02219
0.25071	0.55929
0.04670	0.50828
0.19971	0.35523
0.12320	-0.46102
0.12320	0.15117
0.12320	0.45726
0.07220	0.48277
0.22521	0.50828
0.09770	0.55929
0.17421	-0.76711
0.22521	-0.00188
0.09770	-0.15492
0.25071	0.61031
0.09770	-0.23145
0.17421	-0.43551
0.04670	0.53379
0.22521	0.76336
0.09770	0.58480
0.12320	0.38074
0.12320	0.35523
0.09770	-0.10391
0.22521	-0.25695
0.09770	-0.02739
0.22521	0.15117
0.17421	0.04914
0.12320	0.12566
-0.08081	0.40625
0.37822	-0.00188
0.45472	-0.35899
-0.00431	-0.30797
-0.00431	0.45726
0.04670	0.53379
0.12320	0.43176
0.14870	0.66132
0.14870	-0.46102
0.17421	0.35523
0.14870	-1.12422
0.27621	0.94191
0.09770	0.61031
0.22521	0.58480
0.12320	-0.89465
0.17421	0.76336
0.09770	-0.20594
0.17421	-0.56305
0.09770	0.53379
0.22521	0.53379
0.07220	0.43176
0.22521	-0.00188
0.12320	0.63582
0.25071	-0.00188
0.12320	0.20219
0.12320	0.17668
0.12320	-0.10391
0.12320	-0.30797
0.17421	-0.10391
0.07220	-0.00188
0.14870	0.35523
0.14870	0.10015
0.17421	0.25320
0.17421	-0.35899
0.14870	-0.02739
0.22521	0.22769
0.09770	0.99292
0.22521	-0.00188
0.07220	-0.05289
0.14870	0.71234
0.12320	0.63582
0.12320	0.55929
0.17421	0.38074
0.14870	-0.10391
0.12320	0.04914
0.12320	0.02363
0.19971	-0.15492
0.04670	-0.12942
0.22521	0.02363
0.09770	0.07465
0.19971	0.07465
0.14870	0.12566
0.17421	0.02363
0.27621	0.17668
0.09770	0.20219
0.12320	0.30422
0.14870	0.32972
0.07220	0.15117
0.22521	-0.28246
0.02119	0.20219
0.22521	0.55929
0.07220	1.01843
0.22521	-1.07320
0.19971	0.27871
0.14870	0.40625
0.14870	0.55929
0.12320	0.32972
0.12320	-0.25695
0.07220	0.20219
0.12320	0.25320
0.17421	0.58480
0.17421	-0.86914
0.22521	-0.71609
0.17421	-0.07840
0.19971	0.32972
0.14870	0.58480
0.14870	0.91640
0.12320	0.04914
0.12320	-0.02739
0.09770	0.43176
0.14870	-0.41000
0.14870	-0.28246
0.17421	0.66132
0.07220	0.55929
0.19971	0.58480
0.12320	0.15117
0.17421	-0.00188
0.04670	0.10015
0.17421	0.10015
0.14870	0.20219
0.14870	-0.84363
0.14870	0.15117
0.14870	0.43176
0.17421	-0.43551
0.09770	0.27871
0.25071	0.27871
0.17421	0.22769
0.12320	0.38074
0.12320	0.25320
0.12320	0.17668
0.17421	0.22769
0.14870	0.12566
0.14870	0.07465
0.17421	0.10015
0.22521	0.17668
0.12320	0.22769
0.19971	0.22769
0.09770	0.10015
0.12320	0.07465
0.07220	0.07465
0.12320	0.15117
0.25071	0.25320
0.09770	0.04914
0.19971	0.40625
0.09770	0.22769
0.14870	0.53379
0.12320	0.22769
0.17421	-1.68539
0.09770	0.15117
0.07220	0.02363
0.12320	0.76336
0.14870	0.66132
0.17421	0.63582
0.19971	0.32972
0.14870	-0.43551
0.14870	0.43176
0.14870	0.25320
0.19971	0.30422
0.02119	0.02363
0.12320	0.32972
0.09770	-0.51203
0.22521	-1.50683
0.07220	0.15117
0.19971	0.83988
0.17421	0.58480
0.14870	0.55929
0.12320	0.45726
0.17421	0.43176
0.12320	0.17668
0.07220	-0.12942
0.17421	-0.25695
0.09770	-0.05289
0.19971	0.20219
0.17421	0.07465
0.14870	0.04914
0.22521	0.10015
0.07220	-0.02739
0.12320	0.38074
0.12320	0.20219
0.12320	0.32972
0.17421	0.12566
0.02119	0.22769
0.19971	0.30422
0.07220	0.30422
0.22521	0.30422
0.12320	-0.20594
0.09770	-0.25695
0.04670	0.30422
0.25071	0.43176
0.12320	0.38074
0.14870	0.66132
0.17421	0.32972
0.19971	0.10015
0.19971	-1.45582
0.12320	0.45726
0.22521	0.83988
0.09770	0.91640
0.22521	-1.55785
0.12320	-1.30277
0.22521	0.81437
0.12320	0.99292
0.17421	0.58480
0.14870	0.61031
0.12320	0.99292
0.09770	0.20219
0.07220	-0.48652
0.09770	-0.05289
0.58223	-0.69059
0.14870	0.12566
0.07220	0.04914
-0.08081	0.35523
0.12320	0.58480
0.07220	0.30422
0.22521	0.68683
0.19971	-0.71609
0.14870	-0.48652
0.19971	-1.14973
0.14870	0.76336
0.12320	0.78886
0.17421	0.66132
0.14870	0.45726
0.09770	0.25320
0.17421	0.22769
0.14870	0.20219
0.22521	-0.15492
0.12320	-0.25695
0.14870	0.22769
0.09770	0.02363
0.04670	-0.25695
0.25071	0.35523
0.14870	0.32972
0.14870	0.15117
0.12320	0.15117
0.09770	0.22769
0.22521	0.25320
0.12320	0.61031
0.12320	-0.56305
0.14870	0.27871
0.09770	0.32972
0.22521	0.30422
0.12320	-0.02739
0.22521	0.12566
0.17421	0.12566
0.14870	0.12566
0.22521	-0.56305
0.09770	0.27871
0.12320	0.63582
0.09770	0.73785
0.14870	-0.18043
0.14870	-0.10391
0.12320	0.22769
0.17421	1.06945
0.09770	-0.71609
0.12320	-0.07840
0.09770	-0.92016
0.17421	0.83988
0.17421	1.06945
0.09770	-0.25695
0.17421	0.15117
0.17421	0.63582
0.12320	0.15117
0.22521	0.07465
0.07220	0.20219
0.07220	0.25320
0.14870	0.10015
0.09770	-0.05289
0.02119	-0.00188
0.12320	0.07465
0.53123	0.12566
0.19971	-0.02739
-0.00431	-0.58856
0.07220	0.25320
0.12320	0.15117
0.14870	0.12566
0.17421	0.30422
0.17421	0.45726
0.17421	0.53379
0.07220	0.32972
0.19971	0.45726
0.12320	0.32972
0.17421	0.17668
0.19971	-0.00188
0.14870	-0.05289
0.09770	0.04914
0.17421	0.17668
0.02119	-0.00188
0.12320	0.10015
0.14870	0.10015
0.09770	0.02363
0.14870	-0.46102
0.04670	0.22769
0.19971	0.89089
0.09770	-0.35899
0.14870	0.10015
0.17421	-0.46102
0.12320	0.78886
0.17421	0.43176
0.14870	0.73785
0.07220	0.02363
0.19971	-0.84363
0.14870	0.68683
0.14870	0.83988
0.12320	-0.15492
0.19971	0.02363
0.22521	0.43176
0.04670	0.12566
0.22521	0.25320
0.07220	-0.74160
0.22521	0.20219
0.17421	0.38074
0.09770	0.45726
0.12320	-0.00188
0.12320	-1.25176
0.12320	0.38074
0.12320	0.58480
0.14870	0.68683
0.09770	0.17668
0.22521	-0.28246
0.09770	0.30422
0.19971	0.22769
0.07220	0.40625
0.19971	0.40625
0.09770	0.04914
0.22521	0.15117
0.07220	0.10015
0.22521	0.30422
0.12320	-0.07840
0.19971	-0.10391
0.12320	-0.05289
0.17421	0.22769
0.07220	0.07465
0.19971	0.22769
-0.13181	0.17668
0.32721	0.25320
0.45472	0.15117
0.12320	0.25320
0.02119	0.10015
0.04670	0.20219
0.09770	0.07465
0.14870	0.15117
0.14870	0.04914
0.14870	0.15117
0.22521	0.32972
0.09770	0.38074
0.19971	0.15117
0.12320	0.20219
0.22521	-0.86914
0.07220	0.48277
0.22521	0.07465
0.09770	0.73785
0.19971	-1.25176
0.04670	0.91640
0.25071	0.32972
0.09770	0.45726
0.12320	0.55929
0.12320	0.25320
0.12320	0.04914
0.12320	0.53379
0.12320	0.22769
0.22521	-0.79262
0.12320	0.22769
0.04670	-0.02739
0.22521	0.10015
0.19971	0.58480
0.17421	-0.97117
0.22521	0.43176
0.12320	0.30422
0.07220	0.61031
0.25071	-0.51203
0.14870	-0.00188
0.04670	0.35523
0.19971	0.50828
0.14870	0.15117
0.12320	0.12566
0.19971	0.25320
0.12320	0.22769
0.14870	0.12566
0.12320	0.15117
0.12320	0.04914
0.14870	0.17668
0.07220	0.07465
0.22521	0.20219
0.09770	0.12566
0.25071	0.12566
0.12320	0.22769
0.17421	0.04914
0.22521	0.25320
0.12320	0.12566
0.12320	0.17668
0.12320	0.07465
0.12320	0.22769
0.14870	0.04914
0.25071	0.15117
0.09770	0.63582
0.19971	0.53379
0.07220	-0.18043
0.22521	-1.88945
0.09770	0.48277
0.09770	0.07465
0.09770	0.76336
0.17421	0.68683
0.14870	0.81437
0.17421	0.55929
0.14870	-0.66508
0.02119	0.53379
0.53123	1.01843
0.22521	-0.02739
0.09770	-1.22625
-0.08081	-0.89465
0.19971	-0.97117
0.02119	0.71234
0.12320	0.71234
0.12320	1.55410
0.32721	1.52859
0.27621	0.45726
0.30171	-1.76191
0.25071	0.73785
0.07220	0.35523
0.09770	0.58480
0.04670	-3.52195
-0.00431	-1.07320
0.09770	2.82948
0.04670	-0.56305
0.22521	3.54370
0.30171	-2.17003
0.45472	-1.37929
0.12320	3.23761
0.04670	3.31413
0.12320	-0.15492
0.02119	-3.72601
0.25071	0.50828
0.14870	3.39065
0.12320	0.17668
0.25071	-2.60367
-0.02981	1.65613
0.09770	5.35475
0.30171	-2.29757
0.42922	-5.46054
0.27621	-6.88897
-0.02981	1.80917
-0.33583	6.37506
-0.66735	1.86019
0.02119	2.47238
0.55673	4.30893
0.78624	-2.62918
0.40372	-4.59327
-0.05531	-5.30749
-0.10631	-0.76711
-0.25932	1.47757
0.25071	2.59991
0.32721	1.75816
0.58223	10.27774
0.50573	1.19699
0.81175	-12.75575
-0.15732	-6.07272
-0.48884	1.98773
-0.38683	1.98773
-0.00431	2.59991
0.30171	6.63014
0.32721	0.02363
0.17421	-0.81812
0.45472	-0.05289
0.09770	4.25792
0.22521	-2.19554
0.17421	-0.30797
-0.08081	-6.32780
0.02119	5.17620
0.02119	-1.60887
0.42922	-11.99052
-0.23382	1.75816
-0.25932	-0.74160
-0.02981	6.19651
0.37822	5.50780
0.48022	5.86491
0.73524	4.02835
0.76074	-1.35379
0.60773	-1.73640
0.27621	1.42656
-0.31033	3.23761
-0.89686	-8.21537
-1.07538	-2.14453
0.25071	2.90601
0.65874	-0.66508
0.86275	-8.59799
0.68424	-2.04250
0.32721	2.59991
0.12320	1.65613
-0.25932	4.87010
-0.23382	1.78367
-0.15732	1.93671
-0.05531	0.99292
0.19971	-0.76711
0.19971	1.78367
0.17421	-1.88945
0.19971	0.48277
0.02119	-0.00188
0.22521	-6.45534
0.07220	2.44687
0.35272	2.03874
0.53123	-2.98628
0.32721	-0.92016
0.19971	-3.24136
-0.38683	1.52859
-0.36133	4.51299
-0.28482	3.67124
0.32721	3.13558
0.78624	-1.48133
0.68424	3.74776
0.40372	-2.52714
0.02119	-0.76711
-0.23382	0.45726
0.02119	1.50308
0.09770	1.96222
-0.15732	-3.44542
0.45472	1.47757
0.48022	-2.32308
0.32721	0.12566
0.25071	1.37554
0.12320	3.03355
-0.00431	-2.04250
-0.15732	-7.14405
-0.13181	-2.73121
-0.13181	2.59991
0.09770	3.31413
0.19971	2.93151
0.12320	2.57441
0.30171	-1.30277
0.22521	-0.46102
0.32721	-0.41000
0.32721	-0.66508
0.25071	2.98253
0.19971	-3.44542
0.27621	-4.41472
0.17421	0.99292
0.04670	-0.76711
-0.23382	1.19699
0.17421	4.94663
-0.08081	1.52859
0.22521	-1.30277
0.25071	1.86019
0.22521	2.29382
0.14870	1.37554
0.35272	1.17148
0.17421	-0.10391
0.32721	-0.63957
0.07220	-0.86914
0.19971	0.10015
0.17421	3.92632
0.22521	-2.68019
0.07220	-5.61358
-0.02981	0.68683
-0.02981	-0.10391
-0.31033	-0.66508
-0.13181	1.09496
0.02119	-0.99668
0.58223	1.24800
0.53123	1.86019
0.35272	-0.84363
0.42922	1.14597
0.02119	1.19699
0.22521	0.20219
0.12320	1.96222
0.19971	4.46198
0.22521	1.63062
0.27621	-9.84787
0.02119	-2.75671
-0.00431	-0.33348
-0.15732	1.32453
0.12320	2.37034
0.02119	-2.78222
0.14870	2.39585
0.04670	3.39065
0.07220	-3.36890
0.42922	0.86539
0.32721	-2.27207
0.14870	0.68683
0.14870	-1.71090
0.14870	1.24800
0.17421	-0.30797
0.14870	-0.84363
-0.13181	1.78367
0.22521	2.16628
0.53123	-2.09351
0.27621	0.50828
0.30171	-0.33348
0.19971	0.73785
-0.02981	-1.30277
-0.10631	1.06945
0.09770	1.70714
0.12320	1.63062
0.14870	1.98773
0.12320	-8.41943
0.25071	-0.05289
0.02119	3.13558
0.14870	1.60511
0.17421	2.39585
0.12320	2.49788
0.07220	-2.62918
0.14870	-0.97117
0.12320	0.50828
0.22521	0.89089
0.12320	0.38074
0.27621	2.16628
0.14870	4.48749
0.22521	-1.88945
0.09770	-6.78694
0.12320	-1.53234
0.07220	-4.44022
-0.00431	2.08976
0.09770	2.44687
0.12320	3.56921
0.12320	0.86539
0.25071	1.73265
0.32721	0.38074
0.19971	-1.22625
0.12320	-1.20074
0.27621	-2.32308
0.07220	-0.84363
0.04670	1.04394
0.07220	0.94191
0.14870	-2.09351
0.09770	0.83988
0.30171	0.91640
0.09770	2.37034
0.12320	-1.35379
-0.05531	-1.60887
0.32721	-0.02739
-0.02981	-2.62918
0.27621	-2.29757
0.19971	0.89089
0.32721	1.96222
0.19971	1.73265
0.12320	0.55929
-0.05531	1.32453
0.14870	-0.92016
0.14870	-0.99668
0.09770	-0.66508
0.27621	0.30422
0.19971	0.22769
0.27621	0.91640
0.12320	1.12046
0.02119	1.22250
-0.00431	-3.39441
0.14870	0.27871
-0.00431	0.15117
0.14870	0.63582
0.19971	-2.68019
0.12320	1.88570
0.27621	1.01843
0.35272	-0.74160
0.32721	1.01843
-0.00431	0.86539
0.27621	0.45726
-0.08081	-0.05289
-0.00431	-0.00188
-0.00431	0.96742
0.17421	0.53379
0.17421	1.14597
0.55673	0.76336
0.22521	-0.43551
0.19971	1.09496
0.09770	0.20219
0.12320	0.12566
-0.08081	0.12566
-0.05531	-1.20074
0.02119	1.88570
0.02119	-1.48133
0.14870	1.09496
0.27621	0.43176
0.42922	0.35523
0.14870	2.52339
0.27621	-1.22625
-0.10631	0.45726
0.09770	-4.23616
0.12320	0.58480
0.27621	0.76336
0.02119	2.08976
0.12320	0.86539
0.19971	-0.41000
0.27621	1.09496
0.04670	0.58480
-0.02981	-0.86914
0.30171	-5.56257
0.09770	-0.66508
0.07220	4.92112
0.09770	0.63582
0.19971	0.61031
0.32721	1.35003
0.27621	1.45206
0.19971	0.58480
0.12320	-0.00188
0.22521	0.81437
0.09770	1.40105
0.07220	-1.17523
-0.18282	-1.60887
0.07220	-0.46102
0.12320	0.94191
0.30171	-0.81812
0.17421	-1.73640
0.30171	1.12046
0.09770	4.64053
0.22521	-2.22105
0.19971	-1.20074
0.12320	0.22769
0.07220	1.68163
-0.05531	1.91120
0.09770	-0.25695
0.22521	0.02363
0.12320	1.40105
0.22521	3.08456
0.14870	2.54890
0.17421	-8.64900
0.04670	-1.50683
0.12320	-0.35899
0.19971	0.76336
0.42922	1.57960
0.32721	1.55410
0.14870	-1.68539
-0.08081	0.53379
0.17421	0.63582
0.27621	2.42136
0.09770	-1.83844
0.32721	1.04394
0.12320	-0.92016
0.12320	0.89089
0.04670	2.31933
0.14870	-0.15492
0.04670	-0.48652
-0.00431	2.11527
0.17421	-1.71090
0.09770	-1.04770
0.07220	0.17668
0.19971	-3.62398
0.32721	-0.66508
0.12320	-2.57816
0.25071	2.01323
0.12320	1.93671
0.12320	0.61031
0.12320	1.78367
0.17421	1.17148
0.27621	0.78886
0.14870	-0.97117
0.30171	-0.74160
0.09770	-0.89465
-0.05531	0.40625
-0.05531	0.43176
0.12320	-0.33348
0.22521	0.91640
0.17421	-2.11902
0.02119	2.95702
0.32721	-2.01699
0.30171	-3.39441
0.04670	1.78367
0.09770	0.99292
-0.15732	1.73265
0.27621	2.67644
0.40372	-1.37929
0.17421	0.91640
0.19971	2.08976
0.27621	-3.57296
0.17421	-1.48133
0.07220	0.12566
0.04670	1.04394
0.09770	-1.17523
0.19971	0.45726
-0.02981	0.66132
0.14870	0.86539
0.19971	-1.60887
0.02119	-0.43551
0.12320	0.38074
0.14870	0.30422
0.12320	0.86539
0.02119	-0.05289
0.22521	-0.81812
0.42922	2.03874
0.19971	2.62542
0.14870	-4.33819
0.27621	-2.55265
-0.00431	1.29902
0.12320	1.35003
0.12320	1.27351
-0.00431	2.98253
0.25071	-0.56305
0.35272	0.35523
0.12320	0.15117
0.07220	-0.94566
-0.08081	-0.15492
-0.10631	-2.70570
-0.18282	1.01843
0.32721	1.14597
0.22521	0.61031
0.35272	0.12566
0.27621	-0.20594
0.42922	-0.15492
0.30171	0.40625
0.22521	0.27871
-0.02981	0.83988
-0.20832	1.73265
-0.23382	0.04914
-0.05531	-2.04250
0.37822	-0.30797
0.37822	-1.99148
0.40372	-1.81293
0.27621	3.51819
0.14870	-2.65468
-0.00431	1.27351
0.14870	2.47238
-0.00431	1.78367
0.17421	1.57960
0.09770	1.68163
0.17421	-1.07320
0.19971	-0.46102
0.14870	-0.58856
0.25071	-1.02219
0.12320	-1.71090
0.14870	0.25320
-0.13181	0.32972
-0.00431	0.04914
0.19971	0.53379
0.42922	0.76336
0.37822	0.66132
0.25071	-1.76191
-0.13181	-0.51203
0.12320	3.59471
0.02119	2.52339
0.19971	-7.24608
0.09770	0.89089
0.30171	3.79878
0.27621	-0.30797
0.25071	1.60511
0.22521	-1.27726
-0.10631	1.47757
0.07220	1.75816
0.12320	0.66132
0.17421	0.58480
0.17421	1.52859
0.22521	-0.48652
0.17421	-0.69059
0.09770	-1.14973
-0.00431	-2.29757
-0.02981	0.25320
0.14870	1.22250
0.14870	0.81437
0.32721	0.94191
0.19971	0.40625
0.22521	-0.05289
0.02119	0.02363
0.27621	0.99292
0.14870	-0.94566
0.22521	-1.07320
0.02119	1.65613
0.02119	1.06945
0.12320	-1.07320
0.14870	0.15117
0.19971	1.93671
0.09770	-0.58856
0.09770	-2.55265
-0.13181	1.24800
0.02119	-1.45582
0.27621	-0.07840
0.45472	-0.86914
0.22521	-0.05289
0.25071	2.11527
-0.23382	0.12566
0.02119	2.14077
0.14870	-2.22105
0.50573	0.91640
0.19971	0.76336
0.22521	-1.30277
-0.00431	-0.61406
0.22521	0.76336
0.09770	0.27871
0.14870	-0.89465
-0.05531	1.17148
0.02119	-0.79262
-0.02981	-0.02739
0.12320	0.25320
0.19971	0.55929
0.14870	0.32972
0.22521	0.91640
0.12320	-0.25695
0.32721	0.66132
0.27621	-2.34859
0.42922	0.38074
0.12320	-4.36370
-0.00431	4.18139
-0.15732	5.35475
-0.08081	-4.13413
0.12320	-3.26687
0.04670	-0.07840
0.27621	4.28343
0.35272	1.52859
0.32721	-1.40480
0.35272	0.99292
0.32721	1.37554
0.22521	1.78367
0.12320	0.58480
0.04670	-1.48133
0.12320	-0.20594
0.04670	-2.39961
0.04670	0.71234
0.02119	-0.48652
0.04670	0.22769
0.02119	2.24281
0.07220	-3.93007
0.22521	0.38074
0.12320	0.83988
0.25071	-0.15492
0.14870	0.66132
0.07220	0.73785
0.14870	1.75816
0.09770	-1.27726
0.42922	1.86019
0.32721	-1.71090
0.32721	0.71234
0.30171	-0.79262
0.22521	0.30422
-0.02981	-0.58856
-0.36133	0.96742
0.09770	1.06945
0.32721	1.83468
0.22521	1.47757
0.30171	-0.35899
0.09770	1.27351
0.02119	0.86539
0.02119	-2.70570
0.14870	-2.29757
0.04670	-1.27726
0.27621	-0.97117
0.22521	0.45726
0.02119	0.89089
0.12320	1.70714
-0.05531	1.88570
0.25071	-3.67499
0.12320	-0.28246
0.30171	1.91120
0.12320	0.04914
0.27621	-0.15492
0.07220	1.27351
0.12320	0.76336
0.12320	-0.18043
0.25071	-0.35899
0.17421	-2.01699
0.07220	-0.92016
0.14870	2.21730
0.19971	2.80397
0.19971	0.35523
0.14870	-2.39961
0.04670	1.14597
0.25071	0.15117
0.19971	-0.05289
0.14870	-1.43031
0.12320	0.96742
0.12320	0.27871
0.17421	-0.46102
0.17421	2.19179
0.04670	-0.07840
-0.00431	-2.50164
0.14870	0.48277
0.17421	2.65093
0.25071	-3.54745
0.22521	1.14597
0.22521	-0.74160
0.09770	-0.20594
0.12320	1.37554
0.12320	3.08456
-0.00431	-0.79262
0.07220	0.35523
-0.05531	-0.30797
0.32721	0.66132
0.32721	0.17668
0.30171	-0.61406
0.12320	1.12046
0.14870	2.37034
0.04670	-2.88425
0.04670	-5.56257
0.14870	-1.71090
0.04670	1.98773
0.02119	1.60511
0.25071	0.71234
0.25071	1.83468
0.09770	0.71234
0.02119	0.04914
-0.10631	0.55929
0.07220	0.55929
0.27621	0.20219
0.42922	0.91640
0.48022	-0.58856
0.19971	0.58480
0.17421	0.17668
0.07220	1.06945
0.14870	-2.96078
0.09770	-0.48652
0.04670	0.22769
0.09770	-0.48652
0.09770	-0.94566
0.17421	0.38074
0.09770	1.70714
-0.00431	3.11007
0.25071	0.25320
0.35272	0.35523
0.30171	0.32972
0.25071	0.32972
0.04670	1.32453
0.22521	-2.17003
0.09770	-0.79262
0.02119	0.15117
0.04670	-0.33348
0.22521	2.31933
0.07220	0.58480
0.12320	-4.92487
0.07220	2.08976
0.12320	2.65093
0.27621	-0.89465
0.32721	-0.43551
0.22521	2.06425
0.14870	1.17148
0.04670	1.40105
-0.13181	0.81437
-0.05531	0.58480
0.22521	-1.37929
0.14870	0.94191
0.32721	-0.20594
0.19971	0.10015
0.22521	0.07465
0.19971	0.38074
0.12320	0.25320
0.04670	-2.34859
0.09770	1.01843
0.04670	-0.86914
0.14870	0.27871
0.02119	0.68683
0.25071	1.24800
0.37822	2.52339
0.19971	-0.76711
0.35272	-1.25176
0.02119	-1.81293
-0.10631	0.17668
-0.10631	2.54890
0.09770	2.62542
0.09770	-1.81293
0.19971	-0.46102
0.45472	0.96742
0.22521	2.90601
0.32721	-0.66508
0.22521	-2.68019
0.09770	-0.99668
0.09770	0.22769
-0.02981	0.63582
-0.10631	1.14597
-0.02981	4.23241
0.22521	-2.55265
0.02119	-0.53754
0.07220	-0.81812
0.12320	0.63582
0.25071	0.96742
0.32721	0.48277
0.14870	0.27871
0.37822	0.86539
0.27621	-0.30797
0.14870	-1.48133
0.22521	0.45726
0.07220	0.96742
-0.00431	0.89089
0.09770	0.30422
0.17421	-1.40480
0.12320	2.08976
0.04670	-6.14924
0.30171	-0.69059
0.17421	1.45206
0.07220	1.60511
0.14870	2.01323
-0.20832	0.71234
0.07220	0.55929
0.32721	0.94191
0.50573	-3.64948
0.25071	1.63062
0.14870	-3.21585
0.14870	0.81437
-0.00431	1.55410
0.12320	0.96742
0.12320	0.25320
-0.05531	0.73785
0.14870	-0.10391
0.17421	-0.81812
0.12320	0.15117
0.19971	-0.81812
0.22521	-0.84363
0.12320	1.24800
0.27621	1.50308
0.12320	-0.00188
0.27621	0.40625
-0.02981	-1.63437
0.12320	0.96742
0.12320	-0.05289
0.14870	0.25320
0.22521	0.78886
0.22521	0.76336
0.09770	1.52859
0.12320	-0.74160
0.02119	-2.83324
0.04670	0.99292
0.22521	2.37034
0.14870	-0.53754
0.17421	-0.05289
0.17421	-0.20594
0.25071	0.40625
0.07220	1.04394
0.12320	0.86539
-0.02981	0.22769
0.17421	1.12046
0.07220	-1.50683
0.30171	0.10015
0.19971	-0.07840
0.37822	1.86019
0.19971	-2.39961
0.14870	1.19699
-0.05531	0.68683
-0.00431	-3.13933
0.17421	-0.81812
0.25071	0.15117
0.19971	1.55410
0.25071	1.70714
0.30171	4.07936
0.12320	-4.08312
-0.08081	0.45726
0.12320	0.30422
0.22521	1.37554
0.02119	-0.05289
0.48022	-0.63957
0.17421	-0.41000
0.14870	0.17668
-0.08081	1.12046
-0.05531	-0.48652
0.32721	0.96742
0.17421	3.08456
0.09770	-3.41992
0.04670	-0.35899
0.02119	-1.68539
0.04670	0.07465
0.32721	1.42656
0.35272	1.40105
0.17421	1.47757
0.12320	1.32453
0.04670	0.89089
0.09770	-0.15492
0.12320	-1.20074
0.30171	-1.07320
0.19971	-0.20594
0.17421	0.17668
0.04670	0.48277
0.09770	0.25320
0.04670	-0.58856
0.04670	0.02363
0.12320	2.65093
0.17421	-1.78742
0.27621	-3.11382
0.27621	-0.18043
0.14870	1.78367
0.07220	0.94191
0.07220	1.88570
0.25071	0.43176
0.17421	1.19699
0.14870	-1.22625
-0.05531	0.71234
-0.02981	1.50308
0.14870	-0.99668
0.30171	-0.05289
0.22521	-1.83844
0.37822	0.38074
0.14870	0.73785
0.22521	0.40625
0.17421	1.29902
0.07220	0.35523
-0.02981	-0.81812
0.09770	-0.05289
0.12320	0.61031
0.22521	-0.66508
0.22521	-0.94566
0.14870	0.78886
0.07220	1.35003
0.02119	1.32453
0.14870	0.35523
0.09770	-0.05289
0.17421	0.43176
0.04670	0.53379
0.17421	-1.71090
0.14870	0.40625
0.25071	0.02363
0.22521	1.73265
0.14870	-4.49124
0.14870	-0.23145
0.07220	3.16108
0.17421	-0.97117
-0.05531	-1.45582
0.09770	-0.33348
0.12320	1.50308
0.30171	0.32972
0.07220	1.04394
0.35272	1.68163
0.27621	1.22250
0.17421	-0.30797
0.07220	0.48277
0.07220	0.73785
0.17421	0.48277
0.09770	-1.25176
0.12320	-0.79262
-0.00431	0.35523
0.04670	0.61031
0.04670	-1.27726
0.12320	-1.43031
0.27621	0.86539
0.17421	0.91640
0.17421	0.96742
0.25071	0.89089
0.19971	0.68683
0.07220	-0.10391
0.04670	-0.63957
0.12320	0.02363
0.09770	1.40105
0.27621	0.50828
0.14870	2.31933
0.32721	-0.99668
0.32721	-0.41000
0.22521	-4.79733
0.12320	-1.88945
-0.02981	0.12566
0.07220	2.19179
0.14870	2.39585
0.09770	2.62542
0.04670	0.02363
0.02119	0.73785
0.07220	0.53379
0.07220	0.61031
0.27621	-1.91496
0.35272	-0.81812
0.02119	-0.46102
-0.13181	-1.94047
-0.23382	-0.48652
0.02119	0.63582
0.42922	1.35003
0.53123	0.25320
0.37822	-1.07320
0.35272	1.17148
0.19971	-0.41000
0.19971	-0.20594
0.09770	1.06945
0.12320	0.86539
-0.00431	0.89089
-0.10631	0.94191
-0.18282	-1.88945
0.09770	0.58480
0.09770	0.45726
0.19971	1.78367
0.27621	-4.33819
0.32721	-0.48652
0.25071	0.68683
0.40372	1.37554
0.17421	1.98773
0.07220	1.24800
0.12320	1.12046
-0.13181	-0.18043
-0.00431	0.66132
0.14870	-0.10391
0.30171	-1.81293
0.12320	-2.29757
0.35272	0.45726
0.07220	-0.76711
0.17421	0.15117
-0.02981	1.17148
0.09770	0.66132
0.14870	-0.66508
0.17421	0.55929
0.25071	0.35523
0.07220	0.73785
0.04670	1.17148
0.19971	-0.69059
0.27621	-0.12942
0.12320	1.37554
0.12320	1.88570
0.07220	-2.24656
0.19971	0.99292
0.19971	-0.33348
0.27621	-0.12942
0.02119	0.63582
0.17421	-0.46102
0.14870	0.68683
0.17421	0.38074
0.12320	-0.43551
0.30171	1.65613
-0.08081	-3.62398
0.09770	-2.19554
0.30171	1.14597
0.17421	0.43176
0.27621	1.88570
0.02119	1.35003
0.14870	1.93671
0.04670	-1.53234
-0.02981	-0.00188
0.27621	1.04394
0.27621	-0.35899
0.19971	0.27871
0.27621	0.15117
0.04670	-0.46102
0.09770	-0.12942
-0.00431	0.07465
0.04670	-0.76711
0.02119	0.76336
0.02119	0.40625
0.45472	1.04394
0.32721	-0.20594
0.22521	0.50828
0.07220	0.35523
0.04670	0.91640
0.32721	0.55929
0.12320	-1.20074
0.27621	-2.70570
0.09770	-0.41000
-0.02981	0.45726
0.04670	0.66132
0.17421	2.16628
0.19971	1.50308
0.14870	0.86539
0.14870	2.26831
-0.10631	-3.49644
0.12320	-1.14973
0.02119	0.02363
0.17421	0.12566
0.19971	0.43176
0.07220	0.73785
0.32721	0.10015
0.37822	-0.00188
0.22521	0.58480
0.19971	0.96742
0.17421	0.15117
0.12320	-1.91496
0.17421	0.40625
0.12320	1.09496
0.14870	0.99292
0.12320	-1.71090
0.14870	-0.05289
-0.00431	-0.25695
0.12320	0.40625
-0.05531	0.99292
0.12320	0.15117
0.17421	0.71234
0.14870	-1.30277
0.30171	1.09496
0.17421	1.65613
0.22521	-0.86914
0.09770	0.58480
-0.05531	0.25320
0.02119	-0.43551
0.35272	0.58480
0.32721	0.89089
0.25071	0.66132
0.22521	0.68683
0.02119	-2.62918
0.12320	0.76336
-0.00431	0.45726
0.14870	0.15117
0.04670	-0.53754
0.07220	-1.68539
0.02119	0.86539
0.04670	-0.53754
0.27621	0.96742
0.27621	0.99292
0.17421	0.50828
0.17421	0.30422
0.07220	1.01843
0.14870	-1.30277
0.14870	-0.86914
0.19971	-0.35899
0.02119	0.20219
0.22521	0.71234
0.25071	1.78367
0.14870	-1.83844
0.22521	0.53379
0.25071	-0.15492
-0.05531	0.40625
-0.08081	-0.99668
0.17421	0.04914
0.17421	0.50828
0.09770	2.47238
0.22521	1.78367
0.30171	0.66132
0.14870	-1.12422
0.09770	-2.75671
0.12320	0.04914
0.07220	0.61031
0.12320	1.52859
0.14870	1.63062
0.12320	-1.12422
0.09770	0.76336
0.19971	0.76336
0.17421	0.12566
0.12320	0.55929
0.07220	-0.74160
0.19971	0.02363
0.12320	-0.89465
-0.00431	-0.05289
0.14870	-0.02739
0.32721	0.55929
0.14870	0.15117
0.22521	0.04914
0.25071	0.12566
0.12320	1.04394
0.32721	0.45726
0.19971	-0.05289
-0.00431	0.32972
0.07220	0.35523
-0.00431	0.12566
0.17421	0.15117
0.27621	0.53379
0.04670	-0.97117
0.04670	0.27871
0.04670	1.24800
0.17421	0.02363
0.17421	-0.15492
0.14870	-0.30797
0.27621	0.91640
0.17421	-0.18043
0.12320	-0.58856
0.07220	1.14597
0.14870	-1.14973
0.17421	-0.33348
-0.05531	-1.65988
0.27621	-0.15492
0.12320	0.66132
0.25071	1.86019
0.09770	-0.43551
0.22521	0.30422
-0.00431	0.04914
0.17421	1.78367
0.12320	0.25320
0.14870	-1.88945
0.17421	0.04914
0.04670	1.17148
0.19971	0.71234
0.09770	0.27871
0.04670	-0.07840
-0.08081	-0.71609
0.30171	0.38074
0.42922	0.83988
0.19971	0.07465
0.12320	-1.68539
0.07220	-0.07840
0.25071	-1.76191
0.17421	-0.53754
0.07220	1.32453
0.12320	1.68163
0.09770	1.29902
0.14870	0.27871
0.17421	0.04914
0.02119	1.86019
0.14870	-0.00188
-0.00431	-3.85355
0.12320	0.02363
0.12320	0.20219
0.32721	0.45726
0.27621	1.29902
0.32721	-0.43551
0.30171	0.91640
0.14870	-0.66508
0.09770	0.48277
-0.08081	0.91640
0.07220	0.81437
0.04670	-0.20594
0.19971	-0.28246
0.04670	0.07465
0.09770	-0.30797
0.19971	-1.27726
0.22521	-0.00188
0.19971	1.42656
0.30171	1.88570
0.19971	-0.07840
0.12320	-0.66508
0.04670	0.48277
0.07220	0.99292
0.12320	0.58480
0.12320	-1.35379
0.30171	0.48277
0.30171	-1.12422
0.19971	0.17668
0.25071	0.71234
0.04670	0.63582
-0.05531	0.94191
-0.02981	1.17148
0.02119	0.86539
0.35272	0.45726
0.40372	-3.01179
0.25071	-2.62918
0.12320	1.68163
0.25071	1.29902
0.19971	1.37554
-0.02981	0.61031
0.07220	0.89089
0.12320	0.53379
0.22521	-0.53754
0.19971	-0.33348
0.07220	-0.74160
-0.13181	0.61031
-0.08081	-0.92016
0.19971	0.20219
0.25071	1.09496
0.30171	-0.25695
0.40372	0.99292
0.32721	-1.20074
0.22521	1.32453
0.14870	1.45206
0.19971	-1.81293
0.19971	0.25320
0.02119	1.29902
-0.00431	1.27351
0.12320	-0.23145
0.19971	-0.63957
0.19971	0.25320
0.04670	1.35003
-0.08081	1.75816
0.14870	-0.56305
-0.00431	-0.38449
0.22521	-0.86914
0.25071	0.86539
0.22521	-0.48652
0.12320	0.91640
0.27621	-1.09871
0.14870	0.25320
0.09770	-0.05289
0.25071	0.38074
0.07220	0.04914
0.22521	-2.62918
0.09770	0.66132
0.12320	0.35523
-0.00431	1.14597
0.14870	1.47757
0.42922	1.24800
0.07220	-1.04770
0.17421	0.25320
-0.00431	-0.79262
-0.23382	0.66132
0.14870	0.55929
0.42922	0.07465
0.48022	0.17668
0.22521	0.63582
0.19971	0.15117
0.02119	-0.25695
0.09770	-0.12942
0.12320	0.15117
0.04670	-0.46102
0.17421	1.06945
0.02119	-2.80773
0.12320	0.61031
0.14870	0.83988
0.22521	0.32972
0.22521	-1.71090
0.17421	1.55410
0.07220	1.37554
-0.15732	0.48277
0.27621	0.66132
0.19971	0.12566
0.32721	0.25320
0.14870	0.15117
0.17421	0.83988
0.14870	-0.15492
0.12320	-0.71609
0.27621	-0.38449
0.09770	0.38074
0.14870	0.10015
0.09770	-0.02739
0.02119	-0.41000
0.09770	0.83988
-0.02981	1.06945
0.12320	0.53379
0.12320	-0.20594
0.30171	-2.42511
0.27621	-1.04770
0.22521	0.12566
0.12320	1.35003
-0.02981	1.45206
0.12320	1.47757
0.22521	1.22250
0.17421	1.04394
0.09770	-1.43031
0.30171	0.22769
0.35272	-1.20074
0.14870	-0.53754
0.14870	0.12566
0.07220	0.48277
-0.18282	0.71234
0.09770	-0.76711
0.19971	0.17668
0.12320	0.71234
0.22521	0.32972
0.22521	0.43176
0.27621	0.83988
0.25071	0.04914
0.17421	-1.14973
0.17421	0.35523
-0.08081	-3.06281
0.04670	-0.35899
0.04670	1.52859
0.14870	2.24281
0.22521	2.29382
0.14870	1.24800
0.19971	-1.37929
0.12320	0.63582
0.25071	0.58480
0.14870	0.43176
0.07220	-2.19554
0.17421	-1.04770
0.14870	0.10015
0.19971	0.35523
0.09770	-0.33348
0.30171	0.15117
0.17421	1.27351
0.22521	-1.22625
0.09770	-0.23145
0.04670	-0.00188
0.25071	1.09496
0.12320	0.94191
0.27621	0.53379
0.04670	-0.43551
0.07220	-0.20594
0.07220	-1.30277
0.17421	1.04394
0.22521	-0.18043
0.12320	0.94191
0.19971	1.83468
0.12320	0.25320
0.07220	0.50828
-0.05531	0.35523
0.37822	0.73785
0.19971	0.76336
0.32721	-0.43551
0.14870	-2.06800
0.25071	-0.20594
0.02119	0.89089
-0.15732	-0.74160
0.02119	-0.38449
-0.13181	0.40625
0.27621	-0.30797
0.45472	-0.53754
0.37822	0.91640
0.19971	0.99292
0.25071	0.91640
-0.02981	0.58480
0.22521	0.55929
0.09770	0.17668
0.12320	0.27871
-0.13181	-0.28246
0.22521	0.32972
0.30171	-1.53234
0.22521	-0.18043
0.09770	0.40625
0.12320	-0.12942
0.32721	1.12046
0.12320	1.42656
0.09770	-0.30797
0.17421	0.76336
0.12320	-1.81293
-0.02981	0.45726
0.22521	0.12566
-0.02981	0.15117
0.09770	0.63582
0.04670	0.78886
0.22521	-0.15492
0.22521	1.06945
0.22521	-0.89465
0.22521	-0.05289
0.19971	-1.71090
0.30171	-0.53754
0.14870	0.71234
0.04670	0.53379
-0.13181	1.22250
-0.02981	1.65613
0.07220	1.04394
0.40372	-1.99148
0.48022	-1.76191
0.30171	-0.18043
0.22521	1.06945
0.07220	1.12046
-0.00431	1.60511
0.04670	0.12566
0.09770	0.45726
0.12320	0.50828
0.02119	0.45726
0.02119	-0.41000
0.09770	0.25320
0.32721	-0.81812
0.17421	-0.38449
0.27621	0.96742
0.27621	0.20219
0.12320	-0.81812
0.19971	0.30422
0.19971	0.17668
0.09770	-0.18043
0.12320	0.30422
-0.02981	0.04914
0.12320	-0.51203
0.04670	-2.22105
0.22521	-0.56305
0.37822	1.68163
0.22521	1.86019
0.27621	2.06425
0.07220	0.94191
0.12320	0.66132
0.14870	0.45726
0.12320	-1.81293
0.14870	-0.33348
-0.00431	-0.33348
0.07220	-0.05289
0.07220	-0.33348
0.02119	-0.81812
0.22521	-0.10391
0.22521	-0.05289
0.27621	0.25320
0.30171	1.60511
0.14870	0.45726
0.22521	-3.06281
0.32721	0.73785
0.04670	1.06945
0.14870	-1.25176
-0.00431	2.19179
-0.15732	2.21730
0.19971	1.57960
0.22521	0.27871
0.32721	-1.65988
0.30171	0.78886
0.17421	-0.25695
0.14870	-0.00188
0.04670	0.27871
0.12320	1.14597
0.12320	0.40625
0.07220	-0.35899
0.17421	-0.20594
0.27621	0.94191
0.22521	0.63582
0.12320	-2.04250
0.14870	-1.99148
0.19971	0.17668
0.19971	1.37554
0.14870	0.38074
0.09770	-0.38449
0.14870	1.37554
0.14870	0.30422
0.09770	0.25320
0.12320	0.83988
0.04670	0.76336
0.12320	0.45726
0.25071	-0.94566
0.14870	-0.15492
0.27621	0.32972
0.19971	0.27871
0.22521	-0.12942
0.22521	0.91640
0.09770	-0.86914
-0.25932	-0.38449
0.07220	0.71234
0.12320	-0.92016
0.27621	-0.20594
0.40372	0.71234
0.32721	0.63582
0.37822	1.01843
0.14870	1.52859
0.17421	-0.30797
-0.05531	0.45726
0.09770	-0.58856
-0.05531	-0.61406
0.19971	-0.35899
0.02119	0.71234
0.09770	-0.81812
0.07220	-0.30797
0.09770	1.17148
0.12320	0.43176
0.37822	0.45726
0.27621	0.27871
0.30171	1.27351
0.14870	-2.34859
0.19971	0.27871
0.14870	-1.27726
0.19971	1.04394
0.12320	1.29902
0.22521	-0.30797
0.02119	0.02363
0.14870	-0.23145
0.09770	0.61031
-0.00431	1.06945
0.07220	0.81437
0.12320	0.22769
0.19971	0.63582
0.07220	0.53379
0.19971	0.04914
0.12320	-2.14453
0.25071	-2.39961
0.09770	1.12046
0.30171	0.55929
0.22521	0.32972
0.02119	1.12046
0.14870	1.19699
0.17421	0.55929
0.12320	0.61031
-0.02981	0.43176
0.12320	-0.15492
0.30171	0.12566
0.17421	0.40625
0.12320	-2.70570
0.09770	-0.41000
0.17421	-0.38449
0.12320	0.27871
0.07220	1.22250
0.27621	0.91640
0.12320	-0.25695
0.27621	-0.10391
0.09770	0.45726
0.12320	0.17668
0.02119	1.73265
0.02119	-0.30797
0.02119	-0.71609
0.27621	-0.23145
0.30171	1.01843
0.14870	0.38074
0.25071	0.50828
0.19971	1.35003
0.14870	-0.51203
-0.13181	-0.43551
0.17421	1.52859
0.04670	-1.27726
0.14870	-1.09871
0.04670	-0.41000
0.22521	0.55929
0.35272	1.12046
0.22521	0.76336
0.27621	1.17148
0.17421	-0.81812
0.14870	-0.94566
0.22521	1.27351
0.02119	-0.81812
0.12320	-0.18043
0.09770	-0.43551
0.14870	-0.30797
0.07220	0.61031
0.17421	0.30422
0.19971	0.76336
0.09770	0.71234
0.19971	1.24800
0.07220	-0.84363
0.14870	0.83988
0.09770	-0.56305
0.19971	-0.07840
0.04670	0.91640
0.02119	-0.28246
0.19971	-0.35899
0.30171	0.58480
0.27621	-0.41000
0.42922	-0.92016
0.09770	0.43176
0.04670	0.71234
-0.08081	0.68683
-0.02981	-0.20594
0.40372	0.40625
0.14870	0.73785
0.27621	-0.15492
0.22521	-1.94047
0.07220	1.12046
0.19971	0.22769
-0.10631	1.93671
0.04670	-0.99668
0.07220	0.04914
0.27621	-1.04770
0.35272	-0.33348
0.25071	1.35003
0.22521	0.76336
-0.02981	0.99292
0.14870	0.27871
0.14870	-1.12422
0.19971	0.76336
0.12320	0.32972
0.07220	0.76336
0.09770	-1.99148
0.12320	0.55929
0.12320	0.02363
0.12320	-0.76711
0.19971	0.96742
0.22521	0.55929
0.27621	0.30422
0.09770	-0.12942
0.22521	0.38074
-0.00431	0.55929
0.02119	-0.15492
-0.13181	-0.99668
-0.05531	0.15117
0.19971	1.37554
0.55673	-1.63437
0.45472	0.10015
0.25071	0.48277
0.30171	1.65613
0.12320	1.86019
-0.00431	-0.84363
0.02119	1.04394
-0.08081	1.40105
-0.02981	-0.86914
0.12320	-0.30797
0.30171	0.43176
0.32721	0.66132
0.14870	-1.27726
0.17421	0.71234
0.02119	0.32972
0.07220	-0.66508
0.09770	0.10015
0.19971	0.15117
0.17421	0.10015
0.14870	0.43176
0.19971	0.55929
0.19971	0.35523
0.04670	-0.07840
-0.10631	-0.38449
0.30171	0.68683
0.27621	0.86539
0.22521	0.17668
0.12320	0.96742
0.04670	-1.99148
0.27621	-0.35899
0.09770	-0.10391
0.12320	1.40105
0.07220	-0.00188
0.09770	-0.18043
0.09770	1.63062
0.04670	-0.79262
0.27621	1.06945
0.22521	0.04914
0.32721	0.32972
0.12320	0.12566
0.12320	-0.10391
0.17421	0.12566
0.17421	-0.61406
0.12320	0.38074
0.14870	0.27871
0.27621	-0.86914
0.04670	0.07465
0.02119	0.73785
-0.00431	0.04914
0.17421	0.40625
0.27621	1.04394
0.25071	1.06945
0.30171	0.50828
0.04670	-0.71609
0.07220	-0.56305
0.12320	-0.81812
0.25071	0.96742
0.27621	-0.12942
0.35272	0.94191
0.19971	0.73785
-0.00431	0.68683
-0.02981	1.37554
-0.10631	-1.40480
0.07220	-0.15492
0.17421	-1.71090
0.37822	0.12566
0.25071	1.17148
0.37822	1.65613
0.12320	1.17148
0.27621	0.22769
0.17421	-0.97117
0.09770	-1.73640
0.04670	1.01843
-0.08081	0.58480
0.04670	0.25320
-0.00431	0.35523
0.12320	0.48277
0.14870	0.68683
0.40372	0.22769
0.19971	-0.12942
0.27621	-2.14453
0.17421	0.66132
-0.02981	0.07465
0.17421	-0.92016
0.09770	0.40625
0.19971	1.22250
0.07220	1.60511
0.32721	-0.00188
0.12320	-2.11902
0.35272	0.81437
0.14870	1.04394
0.12320	-0.66508
0.04670	2.01323
-0.00431	-0.20594
-0.08081	-1.88945
0.22521	0.81437
0.22521	0.12566
0.09770	0.50828
0.35272	0.45726
0.22521	0.43176
0.19971	0.50828
0.02119	0.38074
0.12320	-0.02739
0.07220	-0.51203
0.22521	-0.51203
0.19971	0.71234
0.22521	-0.56305
0.19971	-0.25695
0.17421	0.55929
0.09770	0.61031
-0.08081	0.32972
-0.10631	0.45726
0.07220	0.12566
0.27621	0.63582
0.22521	-0.33348
0.27621	0.99292
0.32721	-1.78742
0.30171	0.38074
0.19971	0.68683
0.14870	2.03874
-0.10631	-0.79262
0.07220	1.12046
0.22521	0.71234
0.09770	1.17148
0.17421	-1.58336
0.19971	0.10015
0.22521	-0.30797
0.04670	0.63582
0.14870	-0.05289
0.09770	0.40625
0.14870	-1.94047
0.17421	-0.05289
0.17421	-0.71609
0.17421	0.96742
0.09770	0.35523
0.09770	0.30422
0.17421	1.57960
0.09770	-0.76711
0.27621	0.35523
0.19971	-0.12942
0.25071	0.12566
0.19971	0.66132
0.17421	0.53379
0.12320	-1.96597
0.02119	0.68683
0.02119	0.61031
0.14870	0.20219
0.19971	-0.53754
0.17421	-0.02739
0.12320	1.27351
0.19971	0.63582
0.07220	-0.25695
0.22521	-0.51203
0.04670	0.81437
0.09770	0.73785
0.19971	-1.50683
0.22521	0.81437
0.19971	0.68683
0.04670	0.07465
0.12320	-0.25695
0.19971	-0.69059
0.25071	-0.86914
0.02119	-0.23145
-0.02981	1.01843
0.09770	0.99292
0.22521	1.12046
0.12320	0.91640
0.30171	0.12566
0.17421	-0.89465
0.19971	-0.86914
0.04670	-0.76711
-0.08081	-0.02739
0.25071	0.76336
0.07220	-0.48652
0.09770	0.40625
0.22521	0.86539
0.30171	0.76336
0.37822	-1.04770
0.14870	0.50828
0.07220	-0.30797
0.07220	0.68683
-0.05531	0.40625
0.07220	0.94191
0.09770	1.19699
0.27621	-0.25695
0.32721	-3.08831
0.14870	0.53379
0.14870	0.02363
0.12320	0.63582
0.07220	0.96742
0.19971	-0.10391
0.02119	0.83988
0.19971	-0.53754
0.25071	0.63582
0.04670	0.30422
0.02119	0.40625
-0.00431	0.32972
0.02119	0.35523
0.17421	0.07465
0.22521	-0.07840
0.40372	-2.01699
0.32721	0.10015
0.12320	0.94191
0.35272	-0.71609
0.04670	-0.23145
-0.08081	0.30422
0.17421	1.04394
-0.10631	-0.07840
-0.13181	0.83988
0.30171	-0.00188
0.22521	0.10015
0.35272	0.76336
0.25071	1.50308
0.12320	0.94191
-0.08081	-0.61406
-0.00431	-1.71090
0.19971	-2.14453
0.27621	-0.48652
0.22521	1.35003
0.30171	2.42136
0.17421	-0.48652
0.07220	-0.97117
0.19971	0.63582
0.04670	1.65613
-0.02981	0.99292
0.07220	-1.40480
0.19971	-0.84363
0.32721	-0.07840
0.14870	0.73785
0.12320	0.96742
0.14870	0.73785
0.19971	0.43176
0.19971	-0.94566
0.04670	-0.51203
0.17421	0.35523
0.22521	-1.04770
0.17421	0.07465
0.07220	1.70714
0.17421	-0.99668
0.12320	0.71234
-0.00431	1.57960
0.22521	-0.20594
0.22521	0.83988
0.04670	0.53379
0.12320	0.04914
0.09770	-0.38449
0.19971	0.20219
0.02119	0.07465
0.14870	-0.23145
0.02119	-0.20594
0.04670	0.89089
0.25071	-0.30797
0.27621	-0.58856
0.42922	0.20219
0.22521	-0.86914
0.35272	0.86539
-0.05531	-1.12422
-0.08081	0.96742
-0.02981	-0.58856
0.14870	1.29902
0.30171	1.24800
0.19971	0.71234
0.14870	1.60511
0.19971	0.35523
0.09770	0.35523
0.09770	-0.58856
0.19971	-0.02739
-0.05531	-1.17523
0.09770	-0.69059
0.07220	0.86539
0.19971	0.91640
0.22521	-0.15492
0.12320	-0.00188
0.35272	0.73785
-0.00431	1.40105
-0.13181	-1.30277
-0.08081	0.53379
0.04670	-2.50164
0.37822	-0.81812
0.45472	0.91640
0.50573	0.78886
0.35272	1.27351
0.25071	0.91640
0.14870	1.01843
0.04670	0.53379
0.02119	0.30422
-0.00431	-0.00188
0.09770	0.25320
0.07220	-1.50683
0.02119	-0.97117
0.22521	0.68683
0.09770	0.17668
0.17421	-0.56305
0.17421	0.50828
0.19971	-0.46102
0.09770	0.15117
0.17421	0.20219
0.12320	0.10015
0.14870	0.76336
0.17421	0.78886
0.14870	1.35003
0.17421	-0.79262
0.25071	-1.09871
0.17421	-0.20594
-0.08081	0.55929
0.14870	-0.00188
-0.08081	-0.46102
0.30171	2.06425
0.22521	1.14597
0.50573	-0.74160
0.30171	1.24800
0.32721	-1.37929
0.22521	-0.41000
-0.00431	0.25320
-0.23382	0.89089
-0.25932	1.37554
0.04670	-2.78222
0.07220	-0.05289
0.17421	1.19699
0.14870	0.10015
0.40372	1.68163
0.12320	-1.58336
0.14870	-0.86914
0.22521	0.78886
0.25071	1.37554
0.22521	-0.02739
0.17421	0.15117
0.04670	2.59991
0.09770	-0.00188
0.09770	-1.32828
0.07220	-0.02739
0.17421	1.04394
0.25071	1.68163
0.19971	-2.19554
0.17421	0.15117
0.04670	-0.07840
0.22521	0.35523
0.12320	-0.35899
0.19971	0.35523
0.25071	0.55929
0.07220	-0.58856
0.12320	-0.28246
-0.02981	-0.92016
-0.00431	-0.30797
0.12320	1.27351
0.17421	0.55929
0.32721	-0.89465
0.35272	1.35003
0.17421	1.14597
0.04670	1.12046
0.02119	-0.56305
0.17421	-0.05289
0.32721	-1.04770
0.17421	-1.94047
0.14870	0.99292
-0.08081	1.14597
0.12320	1.57960
0.12320	-0.35899
0.22521	0.50828
0.35272	1.06945
0.22521	-0.89465
0.12320	0.55929
0.09770	-1.68539
0.19971	-0.71609
-0.02981	0.81437
0.04670	0.73785
0.07220	1.17148
0.17421	0.22769
0.14870	-1.48133
0.12320	-0.00188
0.04670	1.06945
0.09770	0.91640
0.19971	-0.18043
0.27621	-0.28246
0.35272	0.71234
0.22521	0.22769
0.30171	-0.61406
-0.00431	-1.50683
0.12320	1.88570
-0.02981	1.55410
0.27621	0.35523
0.32721	-0.92016
0.19971	0.40625
-0.13181	0.32972
-0.25932	0.48277
-0.15732	0.10015
0.02119	0.91640
0.45472	-1.43031
0.40372	0.25320
0.53123	-1.37929
0.25071	-0.84363
0.09770	1.60511
0.09770	1.19699
0.02119	-0.84363
-0.02981	0.83988
0.30171	-0.79262
0.14870	0.81437
0.12320	0.89089
0.04670	-0.18043
0.12320	0.27871
0.04670	0.55929
0.22521	0.45726
0.19971	1.17148
0.27621	0.53379
0.22521	-3.54745
0.27621	-0.56305
-0.08081	1.29902
0.07220	-0.25695
0.04670	0.76336
0.12320	0.86539
0.30171	1.91120
0.25071	0.73785
0.27621	-2.09351
0.19971	-0.56305
0.07220	-0.51203
0.22521	0.83988
0.09770	0.55929
0.19971	1.86019
0.22521	1.04394
0.17421	-1.63437
-0.25932	-0.10391
0.09770	1.40105
0.02119	0.83988
0.14870	-0.56305
0.27621	-0.20594
0.32721	0.78886
0.19971	-1.02219
0.22521	-0.53754
0.27621	0.55929
0.32721	1.06945
0.22521	0.73785
0.19971	0.02363
