0.14870	-0.46102
0.07220	0.20219
0.17421	0.32972
0.22521	0.66132
0.17421	0.25320
0.17421	0.04914
0.07220	-0.05289
0.12320	-0.00188
0.22521	-0.05289
0.09770	-0.20594
0.17421	0.17668
0.14870	0.10015
0.12320	-0.05289
0.22521	0.20219
0.12320	0.22769
0.12320	0.10015
0.22521	0.10015
0.04670	0.15117
0.17421	0.12566
0.12320	0.40625
0.09770	0.22769
0.17421	0.22769
0.14870	0.32972
0.12320	0.17668
0.12320	0.15117
0.17421	0.15117
0.09770	0.15117
0.12320	-0.12942
0.17421	0.10015
0.14870	0.22769
0.17421	0.07465
0.14870	0.27871
0.09770	0.20219
0.14870	0.15117
0.19971	0.15117
0.12320	0.04914
0.09770	0.12566
-0.23382	0.22769
0.45472	0.15117
0.37822	0.12566
0.07220	0.20219
0.07220	0.35523
-0.00431	0.27871
-0.00431	-0.46102
0.07220	0.10015
0.12320	0.25320
0.09770	0.22769
0.19971	0.25320
0.17421	0.40625
0.12320	0.76336
0.22521	0.50828
0.25071	-1.83844
0.14870	-0.61406
0.17421	0.45726
0.19971	0.07465
0.09770	0.86539
0.14870	0.68683
0.19971	0.50828
0.17421	0.27871
0.12320	0.20219
0.19971	0.15117
0.14870	-0.00188
0.07220	-0.07840
0.14870	-0.05289
0.14870	-0.10391
0.07220	-0.02739
0.12320	0.04914
0.22521	0.20219
0.17421	0.15117
0.09770	-0.28246
0.19971	0.45726
0.14870	0.27871
0.07220	0.32972
0.22521	0.48277
0.14870	0.30422
0.12320	0.35523
0.19971	0.38074
0.14870	-0.00188
0.12320	-0.07840
0.12320	0.25320
0.09770	0.22769
-0.25932	-0.07840
0.48022	0.10015
0.53123	0.20219
0.09770	0.07465
0.09770	0.17668
-0.05531	0.10015
0.04670	0.07465
0.17421	0.25320
0.07220	0.17668
0.14870	-0.00188
0.22521	-1.12422
0.22521	0.50828
0.22521	0.66132
0.12320	0.04914
0.12320	0.55929
0.09770	0.53379
0.09770	0.04914
0.12320	0.30422
0.19971	-0.69059
0.07220	0.53379
0.12320	-0.51203
0.12320	-0.76711
0.17421	0.35523
0.14870	0.63582
0.12320	0.61031
0.09770	0.20219
0.22521	0.10015
0.19971	0.17668
0.14870	0.17668
0.12320	0.07465
0.22521	0.10015
0.07220	0.10015
0.07220	0.15117
0.07220	0.22769
0.12320	0.07465
0.07220	0.07465
0.17421	0.22769
0.17421	0.07465
0.09770	0.20219
0.25071	0.25320
0.14870	0.32972
0.12320	0.10015
0.22521	0.15117
0.04670	0.04914
0.14870	0.20219
0.22521	0.15117
0.12320	-0.07840
0.17421	0.15117
0.12320	0.17668
0.07220	0.12566
0.12320	0.30422
0.09770	0.25320
0.65874	0.30422
0.22521	0.32972
-0.08081	0.15117
0.07220	-0.25695
0.12320	0.25320
0.04670	-0.05289
0.19971	-0.33348
0.19971	0.55929
0.17421	-0.05289
0.17421	0.48277
0.14870	0.50828
0.19971	0.38074
0.09770	0.38074
0.22521	-0.15492
0.17421	-0.10391
0.14870	0.07465
0.17421	0.30422
0.02119	0.20219
0.17421	0.25320
0.12320	0.07465
0.09770	0.15117
0.17421	0.07465
0.09770	-0.05289
0.14870	0.04914
0.17421	0.30422
0.07220	0.20219
0.14870	0.10015
0.12320	-0.30797
0.07220	0.22769
0.17421	0.50828
0.14870	0.38074
0.04670	0.12566
0.14870	0.25320
0.17421	0.38074
0.07220	0.15117
0.22521	0.04914
0.25071	0.30422
0.09770	0.04914
0.17421	0.10015
0.19971	0.22769
0.07220	0.07465
0.19971	0.02363
0.12320	-0.10391
0.09770	0.10015
0.14870	0.17668
0.12320	0.02363
0.04670	0.30422
0.22521	0.63582
0.12320	-0.02739
0.09770	-1.09871
0.12320	-0.07840
0.17421	0.68683
0.12320	0.86539
0.19971	0.20219
0.14870	-0.15492
0.19971	0.38074
0.14870	0.43176
0.12320	0.32972
-0.20832	0.25320
0.50573	0.25320
0.27621	0.10015
0.04670	-0.12942
0.02119	-0.05289
0.09770	-0.05289
0.12320	-0.02739
0.12320	-0.10391
0.12320	0.15117
0.09770	0.35523
0.14870	0.25320
0.22521	0.25320
0.22521	0.22769
0.17421	0.17668
0.09770	0.07465
0.12320	0.17668
0.22521	0.12566
0.12320	0.07465
0.07220	0.17668
0.22521	0.25320
0.14870	0.22769
0.09770	0.10015
0.09770	0.30422
0.22521	0.27871
0.12320	0.10015
0.04670	0.17668
0.22521	-0.00188
0.17421	-0.23145
0.07220	-0.12942
0.19971	0.20219
0.14870	0.43176
0.09770	0.25320
0.17421	0.32972
0.14870	0.25320
0.07220	0.02363
0.17421	0.48277
0.22521	-1.07320
0.07220	-0.23145
0.19971	-0.69059
0.22521	0.66132
0.04670	0.94191
0.12320	0.76336
0.22521	0.58480
0.07220	0.22769
0.17421	0.12566
0.17421	0.12566
0.12320	-1.20074
0.22521	-0.00188
0.07220	0.15117
0.19971	0.15117
0.09770	0.20219
0.04670	0.30422
0.22521	0.32972
0.14870	0.10015
0.14870	0.12566
0.14870	0.10015
0.09770	0.10015
0.25071	0.15117
0.09770	0.25320
0.22521	0.27871
0.14870	0.20219
0.14870	0.10015
0.17421	0.27871
0.04670	0.12566
0.14870	0.15117
0.17421	0.12566
0.09770	0.07465
0.19971	0.04914
0.07220	0.15117
0.22521	0.25320
0.12320	0.30422
0.07220	-0.05289
0.22521	-0.07840
0.14870	0.17668
0.12320	0.07465
0.19971	0.30422
0.07220	0.30422
0.14870	0.35523
0.14870	-0.12942
0.07220	0.50828
0.25071	-0.69059
0.17421	-0.79262
0.04670	1.06945
0.17421	0.15117
0.09770	0.12566
0.09770	0.55929
0.12320	0.43176
0.22521	0.25320
0.12320	0.20219
0.12320	0.04914
0.14870	0.15117
0.17421	0.07465
0.09770	-0.12942
0.12320	-0.25695
0.22521	0.02363
0.14870	0.17668
0.04670	-0.33348
0.17421	0.38074
0.22521	0.50828
0.04670	0.02363
0.17421	0.15117
-0.10631	0.35523
0.48022	0.22769
0.32721	0.27871
0.02119	0.07465
-0.05531	-0.02739
0.12320	0.17668
0.09770	-0.02739
0.12320	0.17668
0.22521	0.30422
0.14870	0.10015
0.17421	0.10015
0.14870	0.35523
0.09770	0.10015
0.22521	0.07465
0.14870	0.20219
0.12320	0.10015
0.19971	0.20219
0.14870	0.32972
0.09770	0.35523
0.17421	0.25320
0.17421	-0.56305
0.07220	0.43176
0.12320	0.02363
0.14870	0.32972
0.17421	0.50828
0.12320	-0.76711
0.04670	-0.18043
0.14870	0.53379
0.14870	0.55929
0.07220	0.30422
0.12320	0.27871
0.14870	0.22769
0.07220	0.04914
0.17421	0.02363
0.22521	0.07465
0.17421	0.20219
0.09770	-0.71609
0.25071	0.25320
0.12320	0.38074
0.04670	0.35523
0.17421	-0.07840
0.22521	0.20219
0.14870	-0.20594
0.09770	0.22769
0.22521	0.38074
0.09770	0.22769
0.09770	0.22769
0.14870	0.30422
0.17421	0.30422
0.12320	0.30422
0.09770	0.22769
0.12320	0.27871
0.19971	-0.74160
0.12320	0.04914
0.09770	0.20219
0.17421	0.20219
0.22521	0.17668
0.12320	0.45726
0.14870	-0.05289
0.09770	0.02363
0.12320	0.35523
0.12320	0.20219
0.12320	0.20219
0.22521	0.12566
0.14870	0.15117
-0.13181	0.04914
0.45472	0.07465
0.40372	0.27871
-0.00431	0.30422
-0.00431	0.55929
0.02119	-0.92016
-0.00431	-0.05289
0.17421	0.40625
0.14870	0.55929
0.07220	0.27871
0.25071	0.25320
0.19971	0.22769
0.19971	0.35523
0.22521	0.20219
0.17421	-1.27726
0.12320	0.07465
0.22521	0.15117
0.09770	0.50828
0.09770	0.45726
0.19971	0.35523
0.14870	0.27871
0.07220	0.04914
0.25071	0.45726
0.12320	-0.84363
0.07220	-0.15492
0.12320	0.07465
0.22521	0.63582
0.12320	0.78886
0.14870	0.17668
0.04670	-0.97117
0.14870	-0.05289
0.22521	0.50828
0.17421	0.45726
0.12320	0.30422
0.14870	0.38074
0.14870	0.32972
0.07220	0.17668
0.14870	0.22769
0.19971	-0.84363
0.14870	-0.66508
0.12320	0.30422
0.19971	0.50828
0.22521	0.96742
0.17421	-0.69059
0.07220	0.17668
0.22521	0.30422
0.12320	0.43176
0.09770	0.22769
0.14870	0.04914
0.19971	-0.15492
0.14870	0.22769
0.09770	0.25320
0.17421	0.25320
0.22521	0.27871
0.17421	0.53379
0.09770	-1.09871
0.14870	0.15117
0.22521	0.53379
0.12320	0.40625
0.09770	0.10015
0.12320	0.02363
0.22521	0.17668
0.12320	0.30422
0.14870	0.35523
0.04670	-0.00188
0.14870	-0.41000
0.19971	-0.07840
0.12320	0.35523
0.07220	0.25320
0.14870	0.45726
0.19971	0.50828
0.17421	0.15117
0.09770	-0.05289
0.07220	-0.15492
0.12320	0.40625
0.14870	-0.56305
0.19971	0.61031
0.19971	0.43176
0.17421	-0.51203
0.14870	0.45726
0.07220	0.53379
0.07220	0.15117
0.17421	0.30422
0.17421	-0.79262
0.14870	0.35523
0.22521	-0.10391
0.25071	0.43176
0.17421	0.45726
0.12320	0.43176
0.09770	-0.69059
0.12320	0.20219
0.19971	0.43176
0.17421	0.27871
0.14870	-0.25695
0.04670	0.20219
0.17421	0.35523
0.19971	0.35523
0.09770	0.22769
0.14870	0.15117
0.17421	0.17668
0.22521	-0.35899
0.17421	0.04914
0.12320	0.22769
0.17421	0.22769
0.14870	0.22769
0.19971	-0.25695
0.12320	0.32972
0.09770	0.61031
0.14870	-0.66508
0.12320	0.27871
0.17421	0.30422
0.09770	0.22769
0.12320	0.17668
0.19971	0.30422
0.12320	0.43176
0.04670	0.38074
0.17421	-0.35899
0.14870	-0.23145
0.14870	-0.20594
0.12320	0.35523
0.04670	0.38074
0.12320	0.35523
0.22521	0.35523
0.14870	0.32972
0.07220	0.15117
0.12320	0.12566
0.25071	0.15117
0.12320	-0.05289
0.07220	0.15117
0.19971	0.07465
0.22521	-0.02739
0.14870	-0.12942
-0.18282	-0.25695
0.60773	0.50828
0.35272	0.43176
0.04670	-0.02739
-0.00431	0.63582
0.04670	0.43176
0.09770	0.17668
0.07220	0.07465
0.25071	0.12566
0.14870	0.17668
0.07220	0.12566
0.19971	0.04914
0.22521	0.20219
0.07220	0.27871
0.12320	-0.18043
0.25071	-0.02739
0.12320	0.30422
0.14870	0.12566
0.12320	0.27871
0.09770	0.20219
0.09770	0.12566
0.22521	0.10015
0.12320	0.25320
0.07220	0.22769
0.09770	0.43176
0.14870	0.10015
0.35272	-0.20594
0.14870	-0.28246
0.17421	0.04914
0.09770	0.68683
0.04670	-0.66508
-0.41233	0.17668
0.60773	0.61031
0.42922	1.01843
0.07220	0.63582
0.12320	0.04914
-0.08081	-0.61406
0.12320	-0.00188
-0.59084	0.86539
0.35272	0.99292
0.42922	-0.81812
0.37822	-0.81812
0.40372	0.38074
-0.15732	0.91640
-0.02981	-0.92016
0.09770	0.76336
0.14870	0.94191
0.04670	-0.07840
-0.05531	-2.52714
0.09770	1.75816
0.30171	0.15117
0.30171	1.17148
0.07220	-1.07320
0.53123	-0.05289
0.27621	0.55929
-0.15732	0.35523
0.14870	0.45726
0.02119	0.38074
0.68424	1.14597
0.22521	0.76336
0.14870	0.07465
-0.36133	0.48277
-0.41233	-0.84363
0.63323	-0.25695
0.42922	1.60511
0.12320	-2.60367
-0.79486	0.66132
0.60773	1.86019
-1.20288	-2.01699
1.60230	-3.21585
0.32721	-0.76711
0.12320	-1.43031
0.27621	4.13038
-0.18282	4.61503
-0.64185	3.72225
-0.59084	-3.57296
0.02119	-12.09255
0.17421	1.91120
0.09770	5.12518
0.17421	5.76287
0.48022	5.25272
0.42922	0.55929
0.14870	1.65613
0.78624	-6.86346
1.04126	-4.31269
-0.31033	2.24281
-0.28482	1.80917
0.32721	1.83468
0.48022	1.29902
-0.13181	-6.04721
-0.25932	-6.53186
-0.15732	2.16628
0.12320	2.39585
0.32721	4.43647
0.09770	3.84979
0.25071	-5.61358
0.30171	2.70194
0.19971	-4.26167
0.07220	-5.97069
0.04670	4.51299
-0.46334	2.01323
0.12320	2.57441
0.48022	-0.79262
0.63323	-1.27726
0.12320	-3.29238
-0.08081	2.93151
0.02119	5.12518
0.22521	5.15069
0.30171	-6.04721
0.09770	0.02363
0.35272	0.48277
0.45472	-1.71090
0.07220	0.76336
-0.10631	6.14549
0.27621	-7.45014
0.68424	-16.60742
0.19971	0.81437
0.02119	6.06897
-0.18282	6.19651
-0.00431	1.93671
-0.25932	2.70194
0.07220	6.40057
0.12320	1.35003
0.04670	-0.58856
0.22521	-0.28246
0.27621	5.25272
0.58223	-1.37929
0.55673	-18.03585
0.27621	5.43127
0.14870	-2.34859
0.12320	2.59991
-0.20832	-0.86914
0.53123	1.40105
0.02119	3.67124
-0.43783	2.57441
-0.41233	-0.53754
0.09770	2.62542
0.37822	1.83468
0.02119	-2.47613
0.37822	-0.35899
0.76074	0.17668
0.32721	0.71234
0.12320	3.87530
0.30171	-3.34339
0.22521	-13.24040
-0.02981	-0.94566
-0.28482	5.12518
-0.08081	5.15069
0.19971	-5.20546
0.22521	-2.17003
0.19971	3.41616
0.19971	1.57960
0.07220	0.15117
0.09770	1.96222
0.04670	2.77847
0.14870	-0.94566
0.07220	2.16628
0.32721	-2.29757
0.42922	-0.58856
0.32721	-3.34339
0.25071	-3.49644
0.14870	-0.89465
0.14870	2.65093
0.04670	-0.51203
-0.25932	5.32924
0.17421	2.21730
0.02119	-3.64948
0.09770	-3.98109
-0.00431	-0.25695
0.17421	4.58952
0.35272	1.70714
0.17421	-4.54226
0.22521	1.83468
0.07220	1.01843
0.14870	3.51819
0.17421	4.48749
0.35272	-5.15444
-0.20832	-6.96549
0.60773	1.14597
0.30171	1.80917
-0.00431	1.12046
-0.13181	0.89089
-0.31033	0.76336
-0.18282	1.17148
0.22521	3.36515
0.48022	-0.35899
0.35272	-3.52195
0.55673	-5.33300
0.35272	-2.60367
0.27621	2.47238
-0.08081	3.87530
-0.08081	7.14029
0.02119	1.78367
0.17421	-9.23568
0.12320	4.71706
-0.05531	-3.24136
0.30171	-0.89465
0.40372	1.63062
0.25071	-3.13933
-0.08081	2.14077
0.12320	2.67644
-0.00431	1.29902
0.07220	2.16628
0.27621	2.11527
0.40372	-11.68442
0.22521	-1.43031
0.25071	-0.46102
0.32721	1.57960
0.12320	3.08456
-0.18282	5.02315
-0.02981	-0.79262
0.22521	-5.97069
0.12320	2.29382
-0.00431	3.41616
0.07220	1.45206
0.22521	0.15117
0.30171	1.37554
0.42922	1.68163
0.35272	1.83468
0.12320	-4.74632
-0.25932	-0.89465
-0.46334	-0.48652
0.02119	-0.30797
0.50573	0.50828
0.55673	0.76336
0.37822	-0.10391
0.27621	-0.56305
0.12320	0.86539
0.07220	0.66132
0.27621	-0.10391
-0.00431	1.60511
0.12320	-0.33348
0.17421	2.06425
0.09770	-9.66931
0.09770	-2.65468
-0.02981	3.44167
-0.02981	0.83988
0.07220	-0.12942
0.09770	1.75816
0.32721	4.00284
0.07220	-0.71609
0.58223	1.73265
0.19971	0.76336
0.19971	0.50828
0.14870	-2.39961
0.14870	-0.97117
0.22521	-2.17003
0.37822	0.53379
0.04670	1.70714
-0.02981	0.15117
-0.20832	-0.20594
-0.20832	-11.88849
0.32721	-0.56305
0.32721	4.15589
0.22521	3.79878
0.48022	3.05905
0.27621	0.43176
0.07220	-0.51203
-0.08081	2.47238
0.17421	-0.94566
0.27621	-0.56305
0.19971	0.73785
0.07220	-0.30797
0.12320	0.38074
0.27621	-0.56305
0.12320	-2.60367
0.09770	-1.65988
0.19971	-1.68539
-0.13181	3.87530
-0.08081	-0.51203
-0.02981	2.31933
0.14870	-2.01699
0.32721	4.30893
0.40372	-2.37410
0.45472	3.23761
0.22521	1.32453
0.17421	-4.21066
-0.02981	-0.18043
0.17421	2.01323
0.27621	-4.89936
0.12320	0.71234
-0.00431	3.82429
-0.00431	0.91640
0.02119	0.53379
0.12320	1.60511
0.48022	-0.63957
0.22521	0.04914
0.09770	-0.66508
0.22521	0.07465
0.07220	-0.48652
0.09770	0.30422
0.09770	-2.50164
0.09770	1.42656
0.12320	1.88570
0.14870	-9.46525
0.12320	1.91120
-0.00431	2.67644
0.27621	2.34484
0.37822	-0.79262
0.22521	2.31933
0.22521	1.04394
0.04670	0.78886
0.02119	3.23761
-0.02981	2.75296
0.27621	-2.06800
0.50573	-5.25647
0.27621	-0.28246
-0.00431	1.83468
-0.25932	4.87010
-0.10631	3.13558
0.48022	-2.70570
0.32721	-5.86866
0.19971	1.57960
0.14870	2.11527
0.14870	1.96222
0.17421	-4.89936
0.14870	3.56921
0.02119	3.59471
0.04670	-0.46102
0.22521	0.68683
0.19971	-1.22625
0.04670	1.78367
0.02119	2.90601
0.17421	0.99292
0.25071	-1.83844
0.25071	-3.62398
0.07220	1.17148
0.09770	0.83988
0.22521	3.11007
0.27621	0.02363
0.25071	2.54890
0.27621	-0.56305
0.14870	-1.17523
-0.02981	-1.68539
-0.08081	1.96222
-0.05531	-0.71609
0.12320	-0.89465
0.68424	0.78886
0.25071	0.63582
0.25071	0.55929
0.40372	0.61031
0.30171	0.50828
-0.02981	2.08976
-0.08081	-5.07792
-0.08081	0.25320
0.27621	-3.29238
0.14870	-1.02219
-0.02981	1.14597
0.19971	3.44167
0.17421	2.77847
0.22521	-1.43031
0.07220	2.54890
0.17421	1.78367
0.22521	-1.99148
0.12320	-0.76711
0.12320	-0.02739
0.07220	5.25272
0.14870	2.29382
0.19971	-10.89369
0.25071	-2.22105
0.12320	3.77327
0.30171	2.59991
-0.00431	3.28862
0.07220	4.25792
0.32721	-1.83844
0.17421	-1.65988
0.25071	0.68683
0.19971	1.17148
0.17421	0.89089
0.30171	0.76336
0.04670	-0.05289
0.04670	-2.01699
0.09770	0.12566
-0.48884	-0.35899
0.40372	1.42656
0.19971	-2.06800
0.22521	2.24281
0.19971	-5.25647
0.17421	-1.30277
0.27621	-0.51203
0.27621	1.70714
-0.00431	2.11527
0.12320	0.94191
0.17421	2.75296
-0.05531	-1.78742
0.32721	1.57960
0.12320	0.63582
0.22521	-3.85355
0.22521	0.15117
0.12320	-1.91496
0.09770	0.04914
0.14870	3.18659
0.17421	-4.13413
0.17421	2.42136
0.14870	5.60983
0.09770	-5.86866
0.04670	-1.37929
0.04670	-0.35899
0.17421	3.69675
0.22521	-1.71090
0.17421	2.82948
0.14870	-0.35899
0.12320	3.23761
0.14870	-3.01179
0.19971	-3.36890
0.22521	0.78886
0.07220	0.04914
0.02119	0.48277
0.12320	-3.72601
-0.00431	1.27351
-0.13181	3.05905
0.19971	0.43176
0.32721	0.94191
0.04670	1.01843
0.37822	0.40625
0.53123	-0.02739
0.09770	-0.15492
0.12320	-1.35379
-0.08081	0.50828
0.04670	-0.05289
0.17421	-0.58856
0.25071	-0.20594
0.17421	-0.76711
0.02119	0.73785
0.27621	0.76336
0.07220	1.22250
0.17421	1.65613
0.22521	2.54890
0.09770	-0.56305
0.17421	-4.89936
0.02119	0.68683
-0.02981	-1.27726
0.14870	2.29382
0.17421	2.16628
0.32721	-4.13413
0.14870	2.57441
0.12320	3.18659
0.27621	-2.11902
0.25071	-0.23145
0.02119	2.75296
-0.00431	-4.44022
0.14870	1.29902
0.22521	-1.22625
0.12320	-1.20074
0.32721	0.96742
0.25071	1.78367
0.14870	-0.38449
-0.00431	-0.12942
0.19971	4.74256
0.17421	-1.96597
0.09770	-7.11854
0.22521	-1.14973
0.07220	2.70194
0.09770	1.27351
0.09770	2.16628
0.27621	1.52859
-0.02981	1.78367
0.02119	0.48277
0.12320	0.12566
0.09770	-0.66508
0.32721	0.61031
0.35272	-1.17523
0.30171	-1.17523
0.09770	0.45726
0.02119	1.27351
0.09770	0.20219
0.14870	-0.58856
-0.08081	1.80917
0.12320	-2.90976
0.48022	-1.68539
0.30171	5.25272
0.17421	-1.50683
0.22521	2.14077
0.12320	-0.07840
-0.00431	1.06945
0.07220	-0.28246
0.17421	4.76807
0.14870	-7.93479
0.19971	-7.57768
0.17421	0.25320
-0.08081	2.72745
-0.00431	4.15589
0.35272	2.44687
0.53123	0.35523
0.22521	-0.79262
0.07220	-0.97117
-0.02981	2.42136
-0.05531	-5.28198
-0.00431	0.91640
0.32721	-1.58336
0.22521	-0.05289
0.30171	0.35523
0.22521	1.57960
0.30171	0.55929
0.04670	1.78367
0.07220	-4.49124
0.19971	-0.58856
-0.00431	0.68683
0.07220	0.63582
0.12320	1.01843
0.12320	1.40105
0.22521	1.50308
0.19971	0.02363
0.07220	2.37034
0.32721	0.55929
0.14870	-1.32828
0.14870	-3.98109
-0.00431	0.94191
-0.02981	2.90601
0.32721	0.81437
0.22521	2.29382
0.12320	1.52859
0.22521	-1.43031
-0.08081	2.42136
0.12320	1.45206
0.22521	-0.76711
0.25071	-0.12942
0.07220	-4.82284
0.25071	0.73785
0.32721	1.22250
0.25071	1.78367
0.09770	-0.92016
0.12320	1.01843
-0.02981	0.17668
0.14870	-0.97117
-0.08081	2.88050
0.22521	3.11007
0.22521	-6.83795
0.25071	0.25320
0.22521	1.24800
0.25071	-0.07840
0.25071	2.95702
0.14870	1.98773
-0.00431	-0.38449
0.07220	0.15117
0.14870	-0.07840
-0.00431	0.55929
0.09770	-0.00188
0.09770	0.66132
0.04670	-0.74160
0.27621	-1.04770
0.42922	0.17668
0.27621	1.24800
0.27621	0.86539
0.27621	-0.15492
-0.05531	1.19699
-0.00431	-3.44542
-0.08081	1.88570
0.22521	-0.66508
0.12320	0.55929
0.12320	-1.45582
-0.02981	0.17668
0.22521	1.55410
0.12320	3.36515
0.30171	2.72745
0.35272	-0.58856
0.22521	2.57441
0.19971	-4.05761
0.02119	-0.58856
0.07220	0.25320
0.17421	-0.10391
0.09770	-3.95558
0.02119	2.08976
-0.10631	0.35523
0.17421	0.50828
0.04670	0.58480
-0.02981	1.40105
0.22521	1.42656
0.40372	2.29382
0.25071	-1.14973
0.30171	-3.08831
0.19971	-1.53234
0.19971	0.20219
0.12320	0.35523
0.09770	-2.32308
0.02119	1.01843
0.04670	1.06945
0.22521	1.01843
-0.08081	0.83988
-0.28482	0.86539
0.35272	2.34484
0.53123	-0.05289
0.12320	-4.38921
0.22521	3.39065
0.19971	-0.92016
0.07220	-4.46573
0.19971	-0.66508
0.17421	0.96742
-0.05531	2.70194
0.04670	2.72745
0.17421	-0.43551
0.09770	0.48277
0.37822	2.16628
0.19971	-2.50164
0.17421	1.32453
0.09770	-4.28718
0.02119	0.40625
-0.02981	1.14597
0.19971	-1.22625
0.32721	0.96742
-0.05531	2.19179
0.25071	0.66132
0.09770	-0.15492
-0.08081	1.35003
0.25071	-1.22625
0.04670	-1.65988
0.12320	1.73265
0.37822	-0.56305
0.27621	-1.68539
0.19971	2.34484
0.09770	1.60511
0.19971	1.70714
0.14870	-2.29757
0.12320	3.74776
0.32721	1.68163
-0.00431	1.73265
-0.00431	-3.44542
-0.00431	-1.04770
0.12320	2.16628
0.19971	0.76336
0.35272	-7.50115
0.14870	1.65613
0.07220	2.59991
0.27621	2.16628
0.17421	2.08976
0.09770	0.10015
0.04670	-0.48652
-0.02981	1.04394
-0.00431	-2.47613
0.22521	-3.95558
0.14870	2.44687
0.35272	1.29902
0.35272	0.45726
0.19971	-0.25695
-0.00431	-0.53754
0.07220	1.78367
-0.02981	-0.23145
0.25071	0.66132
0.12320	1.32453
0.09770	1.88570
0.14870	-0.97117
0.19971	-4.74632
0.22521	2.77847
0.27621	-0.35899
0.12320	0.25320
0.37822	1.60511
0.09770	1.47757
-0.28482	-0.56305
-0.38683	0.32972
0.42922	-4.33819
0.55673	-0.71609
0.50573	0.63582
0.35272	1.27351
0.04670	1.35003
0.12320	1.68163
0.09770	1.57960
-0.00431	0.50828
0.02119	-0.23145
0.12320	-2.29757
0.17421	0.71234
0.07220	-1.07320
0.12320	0.53379
0.12320	0.35523
0.27621	3.11007
0.17421	-0.58856
0.25071	0.58480
0.12320	0.22769
0.07220	-0.66508
0.07220	1.19699
0.19971	2.08976
0.19971	-0.28246
0.19971	0.38074
0.22521	-3.06281
0.19971	-2.42511
-0.13181	0.78886
0.14870	0.78886
-0.00431	0.02363
-0.18282	1.63062
0.19971	2.24281
0.50573	2.06425
0.32721	-7.11854
0.48022	0.81437
0.22521	3.28862
0.12320	-1.48133
-0.02981	-0.97117
-0.02981	0.04914
-0.10631	2.57441
0.07220	-1.30277
0.07220	1.52859
0.14870	-0.48652
0.27621	2.44687
-0.18282	-1.76191
0.07220	0.32972
0.19971	-2.29757
0.25071	-0.15492
0.27621	1.45206
0.30171	2.49788
0.50573	0.20219
0.32721	-1.83844
0.22521	-0.84363
0.02119	2.21730
-0.02981	2.75296
0.07220	3.31413
0.09770	-0.12942
-0.08081	0.12566
0.07220	-0.43551
0.09770	0.94191
0.09770	-0.28246
0.12320	-0.18043
0.12320	-0.12942
0.02119	-0.25695
0.27621	0.12566
0.35272	-0.61406
0.09770	0.96742
0.27621	0.48277
0.19971	-0.15492
0.32721	-0.18043
0.19971	0.58480
-0.36133	0.53379
0.12320	-0.92016
0.32721	1.27351
-0.05531	0.50828
0.07220	-0.28246
-0.05531	-0.10391
0.22521	1.65613
0.37822	-0.25695
0.40372	-0.30797
0.04670	-0.41000
0.07220	-0.46102
0.09770	0.40625
0.12320	0.35523
0.32721	-0.20594
0.12320	-0.25695
0.07220	0.35523
0.02119	-3.75152
0.09770	-0.56305
-0.13181	2.57441
0.07220	1.96222
0.35272	0.68683
-0.00431	-0.12942
0.07220	2.47238
0.32721	-0.97117
0.27621	0.50828
0.32721	1.24800
0.17421	0.53379
0.12320	0.25320
0.14870	-4.31269
0.04670	1.37554
0.19971	0.10015
0.19971	-2.68019
0.19971	-3.11382
0.12320	0.86539
0.02119	1.83468
0.14870	2.54890
0.14870	2.47238
0.12320	1.80917
0.09770	0.96742
0.02119	-0.05289
0.37822	-0.79262
0.19971	0.15117
0.12320	-0.74160
0.02119	0.22769
0.02119	0.63582
-0.08081	0.96742
0.19971	-0.07840
0.22521	-4.38921
0.40372	-1.22625
0.32721	0.55929
0.19971	1.09496
0.14870	1.45206
0.09770	2.82948
0.19971	0.15117
0.27621	-1.65988
0.14870	-1.30277
0.04670	-0.51203
0.09770	1.75816
0.17421	-0.92016
0.02119	0.94191
0.19971	0.61031
0.32721	1.06945
-0.02981	2.11527
-0.28482	2.03874
-0.02981	-1.81293
0.19971	0.50828
0.42922	0.53379
0.19971	-0.61406
0.37822	1.50308
0.40372	1.14597
0.30171	-2.11902
0.17421	-7.47565
0.22521	1.96222
-0.08081	1.55410
0.07220	2.39585
-0.00431	1.80917
0.19971	1.17148
0.07220	0.61031
0.27621	0.96742
0.22521	-0.05289
0.12320	-2.73121
0.12320	-0.00188
-0.00431	0.68683
0.30171	-0.33348
0.17421	0.58480
0.22521	0.43176
-0.05531	0.91640
0.04670	-0.86914
0.07220	1.04394
0.40372	-2.24656
0.37822	-1.99148
-0.00431	-0.20594
0.17421	3.97733
0.19971	3.00804
0.27621	-3.16484
0.04670	-0.25695
0.12320	1.50308
0.12320	1.37554
0.02119	-1.14973
0.04670	0.07465
-0.08081	0.58480
-0.00431	1.55410
0.30171	-0.56305
0.32721	-2.47613
0.04670	-2.22105
0.02119	-0.48652
0.32721	1.96222
0.27621	-0.58856
0.27621	-0.25695
0.14870	0.30422
0.30171	0.32972
0.07220	2.47238
0.12320	0.78886
-0.15732	-0.94566
0.22521	-1.17523
0.30171	-0.76711
0.19971	2.49788
0.09770	2.26831
0.14870	-0.15492
0.14870	-2.45062
0.30171	-1.65988
0.02119	1.35003
-0.08081	1.63062
0.12320	-1.07320
0.30171	0.86539
0.17421	0.61031
0.07220	0.89089
0.04670	0.12566
0.25071	-1.32828
0.19971	-0.76711
0.02119	3.00804
0.14870	-0.43551
0.30171	-1.63437
0.40372	-9.43974
0.37822	0.94191
-0.20832	2.75296
0.25071	2.75296
0.42922	3.00804
-0.10631	4.48749
-0.05531	-1.63437
-0.10631	-1.94047
-0.08081	0.15117
0.07220	-3.80253
0.12320	1.57960
0.14870	1.60511
0.32721	1.37554
0.25071	1.55410
0.12320	-0.56305
0.22521	-1.86394
0.35272	0.76336
0.09770	0.63582
0.14870	0.71234
0.27621	1.24800
0.12320	-5.40952
0.22521	-0.23145
0.09770	-0.05289
-0.05531	2.39585
-0.13181	0.83988
0.12320	-0.02739
-0.00431	1.63062
0.42922	0.45726
0.37822	1.68163
0.12320	0.71234
-0.02981	-1.53234
0.07220	0.22769
0.35272	1.57960
0.17421	-0.63957
0.19971	-0.05289
-0.08081	-0.51203
-0.15732	-1.14973
0.35272	0.40625
0.14870	1.22250
0.19971	1.75816
0.17421	-0.07840
0.09770	-1.37929
0.40372	-3.16484
0.32721	1.24800
0.12320	0.66132
0.07220	1.75816
0.12320	2.49788
-0.02981	2.47238
0.07220	-5.28198
0.17421	0.35523
-0.05531	0.32972
0.17421	1.96222
0.40372	0.25320
0.12320	-2.65468
0.12320	0.30422
0.32721	0.71234
0.17421	0.55929
0.09770	0.81437
0.02119	0.96742
0.02119	-0.33348
0.27621	-1.91496
0.22521	1.55410
0.32721	0.63582
0.04670	0.40625
0.07220	-0.74160
0.04670	-0.05289
0.07220	1.27351
0.07220	1.68163
0.19971	-1.71090
0.32721	0.43176
0.32721	0.61031
0.27621	-0.58856
0.04670	-0.07840
0.09770	-0.23145
0.25071	1.12046
-0.10631	-1.58336
0.02119	0.55929
0.09770	0.94191
0.12320	-1.32828
-0.08081	2.24281
0.30171	-1.12422
0.37822	-0.25695
0.27621	0.96742
0.27621	2.72745
-0.02981	2.21730
0.32721	-5.12893
0.07220	-2.01699
-0.08081	1.60511
0.12320	3.00804
0.22521	0.45726
0.14870	2.59991
0.19971	-2.60367
0.07220	1.22250
-0.02981	0.30422
0.02119	0.91640
0.12320	0.45726
0.22521	1.40105
0.27621	1.29902
0.22521	0.43176
0.22521	-1.76191
0.09770	-2.37410
0.12320	-0.84363
0.12320	-0.48652
0.09770	-0.30797
0.07220	2.19179
0.17421	2.14077
0.12320	1.22250
0.27621	0.89089
0.19971	1.50308
0.22521	0.96742
0.09770	1.19699
-0.02981	-0.56305
0.19971	-2.04250
0.22521	-0.97117
-0.00431	-0.74160
0.25071	1.24800
0.40372	1.50308
0.32721	1.14597
-0.31033	0.68683
0.09770	0.53379
-0.05531	1.47757
-0.15732	2.19179
0.37822	0.25320
0.48022	-4.46573
0.14870	-0.61406
-0.23382	0.45726
0.76074	-0.02739
0.48022	3.00804
0.12320	0.15117
0.04670	3.16108
-0.02981	-1.04770
-0.02981	-2.11902
0.07220	2.26831
0.09770	-0.25695
0.12320	-0.89465
0.07220	0.91640
0.12320	-0.86914
0.19971	0.68683
0.09770	0.73785
0.25071	-1.30277
0.14870	0.15117
0.32721	1.12046
0.04670	-0.48652
-0.00431	1.09496
0.07220	1.91120
0.32721	-7.70522
0.07220	0.73785
0.09770	1.45206
0.19971	0.10015
0.17421	0.25320
0.02119	2.16628
0.19971	0.71234
0.30171	1.75816
-0.08081	-0.66508
0.09770	1.75816
0.25071	-1.20074
0.40372	0.58480
0.14870	0.40625
0.09770	-1.07320
0.22521	0.83988
0.19971	0.10015
0.09770	-3.80253
0.14870	0.20219
-0.05531	1.78367
0.04670	0.81437
0.19971	-1.48133
0.22521	-0.71609
0.17421	-3.13933
0.30171	1.40105
0.17421	1.57960
0.04670	2.19179
0.14870	-0.18043
-0.08081	1.40105
0.17421	-1.27726
0.25071	0.43176
0.12320	1.70714
0.12320	-1.09871
0.19971	-0.41000
0.02119	-0.23145
0.09770	0.58480
0.19971	0.96742
-0.00431	0.25320
0.25071	-1.60887
0.19971	0.07465
0.22521	1.12046
0.12320	0.38074
-0.15732	-4.13413
0.27621	0.35523
0.30171	-0.74160
0.14870	2.26831
0.42922	2.34484
0.25071	1.70714
0.04670	2.52339
-0.08081	-1.60887
0.09770	0.04914
0.17421	-0.15492
0.04670	0.15117
0.12320	-0.35899
0.19971	-0.25695
0.07220	-0.07840
0.35272	1.19699
0.30171	-0.53754
0.22521	0.66132
-0.13181	0.66132
0.02119	0.76336
0.19971	-2.19554
0.17421	-3.41992
0.17421	0.15117
0.19971	2.39585
0.02119	2.47238
0.19971	1.27351
0.35272	-1.22625
0.17421	0.55929
0.12320	0.45726
0.17421	-0.99668
-0.00431	-0.38449
0.02119	1.52859
0.19971	-2.93527
0.17421	-0.20594
0.25071	1.06945
0.25071	0.63582
0.19971	1.98773
0.19971	0.38074
0.17421	-2.06800
-0.08081	0.20219
0.25071	-0.51203
0.14870	-1.65988
0.09770	-1.63437
-0.20832	-0.23145
0.02119	1.47757
0.17421	-0.69059
0.22521	0.55929
0.12320	0.91640
0.50573	1.14597
0.25071	0.91640
0.09770	0.91640
0.02119	-0.63957
0.09770	0.66132
0.12320	-1.35379
0.14870	-1.27726
0.25071	0.55929
0.12320	2.24281
0.22521	-2.01699
0.09770	1.35003
-0.00431	-1.20074
0.14870	1.06945
0.14870	1.17148
0.14870	0.30422
0.27621	0.50828
0.27621	0.32972
0.22521	-0.86914
0.22521	0.55929
0.09770	2.70194
0.12320	-3.36890
0.22521	-2.80773
0.14870	0.48277
0.14870	1.55410
0.09770	1.55410
0.17421	1.12046
0.09770	0.94191
0.22521	1.27351
0.17421	-0.94566
0.12320	0.35523
0.14870	0.25320
0.12320	-2.55265
0.17421	-0.76711
0.09770	0.66132
0.09770	0.71234
0.19971	0.10015
-0.02981	0.07465
0.04670	-0.10391
0.30171	0.86539
0.22521	1.12046
0.32721	1.47757
0.19971	0.30422
0.02119	-1.73640
0.07220	-0.25695
0.02119	-0.23145
-0.15732	1.83468
0.48022	1.86019
0.37822	0.04914
0.07220	-1.65988
0.04670	1.22250
0.04670	-0.25695
-0.00431	-0.89465
0.07220	0.45726
0.09770	1.24800
0.19971	0.45726
0.27621	0.48277
0.30171	-5.46054
0.12320	1.75816
0.02119	0.99292
0.17421	0.58480
0.17421	-0.46102
0.09770	1.73265
0.19971	0.43176
0.25071	-1.83844
0.19971	-0.48652
0.19971	-0.20594
0.02119	-0.38449
0.04670	1.45206
0.25071	1.83468
0.02119	0.71234
0.09770	-0.25695
-0.02981	-0.97117
-0.00431	0.22769
0.32721	-2.29757
0.19971	0.12566
0.09770	0.68683
0.19971	0.73785
0.14870	1.09496
0.14870	-0.25695
0.14870	-0.05289
0.14870	-0.18043
0.22521	0.81437
0.37822	2.16628
0.27621	-2.09351
-0.05531	0.04914
0.09770	1.04394
-0.02981	-1.09871
-0.13181	1.04394
0.40372	1.52859
0.22521	0.17668
0.17421	-0.79262
0.09770	0.45726
0.12320	-0.12942
0.07220	-1.17523
0.07220	0.89089
0.19971	2.03874
0.19971	-0.25695
0.22521	-0.46102
0.02119	0.86539
0.12320	-1.76191
0.09770	0.58480
0.12320	0.04914
0.35272	0.25320
0.35272	0.12566
0.14870	0.53379
0.02119	-0.56305
0.07220	1.80917
0.25071	-0.51203
0.22521	-1.45582
0.07220	0.07465
0.04670	1.57960
0.07220	-1.83844
0.02119	0.61031
0.09770	1.68163
0.07220	-0.35899
-0.00431	1.01843
0.25071	1.27351
0.45472	1.32453
0.37822	-2.24656
0.17421	0.78886
-0.02981	-3.85355
0.12320	1.14597
0.09770	1.60511
0.02119	-0.76711
0.09770	-0.12942
0.27621	2.77847
0.17421	-1.71090
0.17421	-1.48133
0.17421	2.42136
0.25071	-0.33348
0.19971	-2.17003
-0.28482	-0.99668
0.22521	1.37554
0.19971	1.01843
0.22521	0.66132
0.27621	0.53379
0.27621	0.17668
0.14870	0.04914
0.14870	-0.12942
0.09770	0.35523
0.04670	0.48277
0.19971	-2.22105
0.14870	0.38074
0.27621	-0.43551
0.25071	-0.18043
0.22521	-0.00188
0.07220	0.02363
0.02119	0.55929
-0.00431	0.63582
0.14870	0.10015
0.17421	1.65613
0.09770	0.53379
0.19971	0.38074
0.22521	1.45206
0.14870	-1.43031
0.07220	-2.55265
0.22521	0.61031
0.14870	0.66132
0.30171	0.91640
0.17421	1.68163
0.09770	0.96742
0.12320	-0.66508
0.02119	0.71234
0.22521	0.86539
0.19971	-0.84363
0.12320	-2.78222
0.02119	0.35523
0.17421	0.76336
0.32721	0.58480
0.02119	1.14597
0.19971	-0.66508
0.17421	0.22769
0.22521	0.07465
0.02119	0.07465
0.14870	0.86539
0.30171	0.12566
0.07220	1.75816
-0.00431	-1.48133
0.19971	0.45726
0.12320	0.96742
0.04670	0.71234
-0.00431	0.78886
0.07220	0.20219
0.17421	-0.76711
0.12320	0.53379
0.22521	0.04914
0.12320	-0.15492
0.25071	-0.53754
0.19971	1.19699
0.19971	0.48277
0.22521	-0.86914
0.04670	-0.05289
0.07220	-2.55265
-0.28482	1.75816
0.07220	-3.01179
0.30171	1.60511
0.55673	1.98773
0.25071	2.21730
0.27621	-0.25695
0.17421	0.53379
0.14870	-3.08831
0.07220	0.71234
0.22521	-0.25695
0.12320	-0.99668
0.02119	0.27871
0.07220	1.75816
0.14870	0.17668
0.19971	-0.56305
0.07220	0.45726
0.17421	-0.66508
-0.00431	0.22769
-0.02981	0.48277
0.07220	1.52859
0.30171	-1.22625
0.19971	-0.86914
0.32721	-0.84363
0.19971	-0.05289
0.17421	0.61031
0.02119	2.47238
0.32721	-0.30797
0.17421	-0.53754
0.25071	1.57960
-0.05531	-2.65468
0.09770	1.50308
0.19971	1.29902
0.17421	1.14597
0.09770	1.09496
-0.10631	-0.97117
-0.10631	-0.76711
0.17421	0.63582
0.32721	0.27871
0.32721	-0.00188
0.37822	-0.79262
0.14870	0.10015
-0.00431	1.17148
0.27621	1.68163
0.07220	-4.26167
0.09770	-1.63437
0.07220	2.80397
-0.10631	-1.27726
0.12320	0.78886
0.30171	1.78367
0.30171	0.20219
0.09770	-1.86394
0.22521	0.50828
0.12320	2.80397
-0.00431	0.55929
0.02119	1.09496
0.14870	0.78886
0.19971	-1.02219
0.12320	-1.07320
0.27621	0.40625
0.30171	-0.56305
0.12320	-0.18043
0.09770	0.25320
0.17421	-0.51203
0.19971	-1.27726
-0.05531	-0.51203
0.12320	1.68163
-0.00431	1.06945
0.07220	0.78886
0.14870	1.27351
0.14870	0.61031
0.12320	0.86539
0.12320	0.04914
0.14870	-3.01179
0.22521	1.35003
0.32721	-0.23145
0.30171	1.14597
0.22521	0.86539
0.02119	0.53379
0.07220	0.12566
0.12320	0.66132
0.32721	1.75816
0.04670	-4.77183
-0.02981	-0.25695
0.25071	0.58480
0.19971	-0.81812
0.14870	0.43176
0.02119	2.03874
0.12320	2.39585
0.30171	1.06945
0.19971	0.04914
0.07220	0.32972
0.22521	-1.63437
0.02119	0.91640
0.07220	-0.79262
-0.05531	0.66132
0.30171	-1.22625
0.12320	0.55929
0.25071	0.43176
0.19971	-0.20594
0.14870	-1.09871
0.17421	0.40625
0.17421	-0.05289
0.25071	1.06945
0.09770	-0.30797
-0.08081	0.96742
0.25071	0.32972
0.12320	0.10015
0.17421	-1.40480
0.12320	0.71234
0.19971	-1.02219
0.14870	0.07465
0.17421	1.32453
0.17421	2.26831
0.17421	0.68683
-0.18282	-1.83844
0.12320	0.04914
0.37822	0.38074
0.19971	-0.10391
0.17421	0.63582
0.09770	0.96742
0.25071	-0.46102
0.04670	-1.86394
-0.00431	0.07465
0.04670	2.06425
0.07220	0.83988
0.30171	-2.62918
0.32721	-0.92016
0.07220	0.50828
0.25071	2.08976
0.14870	1.45206
0.04670	1.06945
0.27621	0.17668
0.14870	0.22769
0.07220	0.25320
0.19971	0.22769
0.02119	-0.05289
0.14870	-0.48652
-0.08081	-1.07320
0.12320	0.61031
0.19971	1.47757
0.19971	-1.58336
0.12320	0.12566
0.17421	0.10015
0.22521	1.91120
0.07220	-0.69059
0.12320	0.66132
0.04670	0.25320
0.17421	1.14597
0.30171	1.96222
-0.00431	1.45206
0.17421	-2.98628
0.09770	0.04914
0.17421	0.99292
0.12320	1.37554
0.19971	0.86539
0.07220	0.48277
0.12320	0.12566
0.40372	0.40625
0.12320	-0.53754
0.14870	-0.15492
-0.13181	-0.07840
0.02119	-1.30277
0.30171	0.53379
0.27621	0.20219
0.12320	0.66132
0.22521	-0.97117
0.19971	1.52859
0.12320	-1.81293
-0.02981	1.14597
0.09770	0.86539
0.07220	0.76336
-0.00431	-0.25695
-0.18282	-0.07840
0.19971	0.10015
0.22521	0.61031
0.50573	1.78367
0.35272	-0.56305
0.25071	0.04914
0.22521	0.17668
0.14870	-1.07320
0.25071	-0.46102
0.04670	0.30422
-0.08081	0.99292
-0.10631	-0.15492
0.30171	1.52859
0.12320	-4.59327
0.02119	0.27871
0.12320	0.61031
0.19971	1.14597
0.12320	0.50828
0.07220	-0.00188
0.30171	0.71234
0.30171	1.19699
0.17421	-1.35379
0.22521	-0.99668
0.12320	0.58480
0.19971	0.71234
0.09770	0.78886
-0.10631	0.63582
0.02119	-0.84363
0.17421	1.12046
0.19971	0.45726
0.14870	-0.05289
0.02119	0.25320
0.27621	-0.12942
0.25071	0.53379
0.32721	-0.56305
0.25071	-0.84363
0.07220	0.66132
-0.00431	-0.48652
0.07220	1.55410
0.07220	-3.34339
0.09770	-0.84363
0.17421	1.04394
0.19971	1.24800
0.17421	2.72745
0.02119	0.30422
0.19971	1.37554
0.22521	-0.33348
0.09770	-3.01179
1.50029	0.66132
0.70974	0.43176
-0.00431	-0.30797
-0.56534	1.83468
-0.84586	0.86539
-0.66735	-2.70570
-0.28482	0.45726
-0.33583	2.26831
-0.25932	-2.80773
0.14870	0.55929
0.42922	2.08976
0.53123	-1.37929
0.65874	1.14597
0.78624	-0.74160
0.81175	0.15117
0.73524	0.83988
0.63323	0.86539
0.22521	0.15117
0.27621	-0.28246
0.09770	0.61031
-0.05531	-0.05289
-0.20832	-0.53754
-0.08081	-2.60367
-0.13181	0.86539
-0.05531	2.03874
-0.00431	-0.02739
0.02119	0.91640
-0.00431	-0.41000
0.25071	-0.97117
0.19971	0.61031
0.07220	0.48277
0.19971	-1.12422
0.02119	0.76336
0.37822	0.66132
0.19971	0.55929
0.07220	0.91640
0.09770	0.07465
0.27621	0.40625
0.19971	0.02363
0.17421	-1.99148
0.25071	0.25320
0.12320	0.35523
-0.02981	-0.38449
0.14870	1.78367
0.02119	1.27351
0.17421	-0.10391
0.09770	-0.46102
0.14870	1.04394
0.27621	0.71234
0.19971	-1.78742
0.25071	-0.71609
0.25071	0.71234
0.07220	0.86539
0.07220	-0.02739
-0.10631	0.63582
0.14870	-0.79262
0.12320	0.30422
0.19971	0.22769
0.17421	-0.51203
0.45472	-0.35899
0.32721	-0.00188
0.17421	0.53379
0.09770	-0.76711
0.04670	1.42656
0.04670	2.06425
0.07220	1.37554
0.14870	0.04914
0.07220	-3.47093
0.12320	0.35523
0.12320	0.91640
0.02119	-1.27726
0.22521	-0.51203
0.02119	1.06945
0.07220	1.37554
0.27621	1.22250
0.30171	0.63582
0.14870	-4.15964
0.19971	1.40105
0.12320	-1.71090
0.04670	1.86019
0.19971	2.19179
0.14870	-1.65988
0.14870	-0.30797
0.17421	1.63062
0.02119	1.14597
-0.05531	-1.04770
0.12320	1.22250
0.25071	1.80917
0.19971	-0.20594
0.17421	-0.41000
0.37822	-2.32308
0.30171	0.30422
-0.23382	-1.30277
-0.18282	2.03874
0.14870	-0.48652
0.32721	0.50828
0.32721	0.43176
0.22521	0.53379
0.17421	-0.33348
0.27621	-0.25695
0.19971	0.10015
0.07220	-0.58856
0.04670	0.76336
-0.05531	1.80917
-0.02981	0.89089
0.12320	-2.47613
0.19971	-0.84363
0.25071	0.07465
0.27621	1.14597
0.17421	1.09496
0.14870	0.63582
0.07220	0.63582
0.09770	-0.33348
0.14870	1.73265
0.27621	0.43176
0.09770	-2.68019
0.22521	0.02363
0.17421	-1.14973
0.04670	-0.00188
-0.08081	0.89089
-0.08081	1.37554
0.12320	2.29382
0.35272	-1.43031
0.25071	-0.46102
0.19971	-2.65468
0.35272	-0.25695
0.17421	1.01843
0.12320	1.75816
0.14870	0.38074
-0.00431	0.86539
0.07220	0.96742
-0.08081	-1.07320
-0.08081	0.71234
0.12320	-0.38449
0.07220	-0.99668
0.17421	-0.97117
0.42922	-0.89465
0.35272	0.30422
0.09770	1.14597
-0.00431	1.42656
0.07220	-0.66508
0.27621	-0.94566
0.30171	0.55929
0.04670	0.38074
-0.05531	-0.66508
-0.02981	1.52859
0.17421	0.35523
0.22521	0.22769
0.17421	0.68683
0.09770	0.35523
0.07220	-0.28246
0.09770	-0.97117
0.22521	0.55929
0.14870	0.71234
0.12320	0.55929
0.09770	1.32453
0.07220	1.78367
0.14870	-0.94566
0.19971	-2.62918
0.12320	-0.07840
0.22521	0.91640
0.07220	0.76336
0.12320	0.45726
0.27621	-0.38449
0.17421	0.78886
0.22521	1.27351
0.04670	0.96742
-0.18282	-1.30277
0.17421	-2.80773
0.30171	0.73785
0.25071	-0.58856
0.09770	1.17148
0.12320	-0.28246
0.35272	1.27351
0.17421	1.17148
0.02119	1.24800
0.07220	1.14597
0.19971	-2.62918
0.19971	-0.33348
0.17421	0.25320
0.22521	0.17668
0.09770	0.30422
0.17421	1.55410
0.04670	0.48277
-0.05531	-0.23145
0.09770	-2.11902
0.19971	1.06945
0.12320	0.38074
-0.02981	-1.14973
0.17421	0.86539
0.30171	1.55410
0.25071	0.89089
0.19971	0.63582
0.17421	0.32972
0.17421	0.55929
0.04670	-0.79262
0.09770	0.66132
0.14870	1.01843
0.17421	-2.62918
0.32721	-2.34859
-0.05531	1.37554
0.17421	-0.00188
-0.02981	1.88570
-0.02981	-0.71609
0.14870	1.96222
0.27621	0.91640
0.27621	0.76336
0.19971	0.71234
0.22521	-0.18043
0.19971	-1.04770
0.22521	0.04914
0.22521	0.30422
0.14870	0.02363
0.09770	0.73785
-0.02981	-0.63957
-0.02981	-0.38449
0.25071	0.20219
0.09770	0.45726
0.02119	0.96742
0.17421	-0.12942
0.22521	0.50828
0.14870	0.68683
0.19971	-2.39961
0.42922	0.83988
0.27621	1.50308
0.02119	1.06945
-0.20832	0.53379
0.02119	0.66132
0.07220	0.48277
0.19971	-1.81293
0.37822	-1.55785
0.30171	0.25320
0.19971	1.91120
0.07220	0.81437
0.07220	1.32453
0.14870	0.73785
-0.05531	-0.71609
0.02119	0.50828
0.14870	1.06945
0.12320	1.27351
0.12320	-2.22105
0.27621	-0.07840
0.14870	-0.00188
0.19971	1.12046
0.09770	-0.05289
0.25071	-0.53754
0.12320	0.83988
0.07220	0.81437
0.22521	-1.27726
0.22521	-2.42511
0.09770	0.45726
0.07220	3.11007
0.02119	1.42656
0.07220	-3.16484
0.19971	-0.61406
0.14870	1.14597
0.19971	0.96742
0.09770	0.66132
0.17421	0.45726
0.12320	-0.63957
0.14870	0.38074
0.09770	-0.33348
0.32721	-0.25695
0.27621	0.17668
0.09770	0.12566
0.12320	-0.58856
0.14870	-0.05289
0.17421	-0.81812
-0.13181	0.43176
0.09770	0.40625
0.12320	0.40625
0.09770	0.61031
0.09770	0.25320
0.12320	0.35523
0.17421	0.50828
0.25071	-0.15492
0.12320	-0.28246
0.14870	0.02363
0.19971	2.82948
0.09770	-1.68539
0.17421	1.14597
0.12320	-1.40480
0.27621	1.37554
0.09770	1.37554
0.17421	0.81437
0.19971	-0.41000
0.09770	-0.25695
0.04670	-0.51203
0.02119	-0.25695
0.14870	0.04914
0.37822	0.32972
0.19971	-0.15492
0.07220	-0.35899
-0.08081	0.55929
-0.00431	-1.48133
0.14870	-0.61406
0.25071	1.47757
0.32721	1.17148
0.30171	1.01843
0.30171	1.32453
0.09770	-0.94566
0.17421	-0.30797
0.22521	-0.38449
0.09770	1.80917
-0.08081	1.17148
0.02119	-0.18043
0.09770	-1.50683
0.07220	0.45726
0.14870	1.14597
0.09770	0.58480
0.22521	-1.60887
0.30171	-1.58336
0.27621	0.25320
0.12320	0.25320
-0.00431	0.22769
0.14870	1.04394
0.09770	1.37554
0.17421	-0.30797
0.12320	-0.07840
0.22521	-0.05289
0.19971	-0.46102
0.27621	1.12046
0.19971	0.22769
0.17421	0.20219
0.09770	0.63582
-0.00431	0.15117
-0.05531	1.57960
0.04670	-0.46102
0.19971	-3.62398
0.12320	0.45726
0.14870	0.22769
0.30171	0.15117
0.27621	0.25320
0.30171	0.30422
0.12320	1.14597
0.02119	0.91640
0.07220	0.53379
0.04670	0.04914
0.19971	-0.51203
0.14870	0.40625
0.14870	0.35523
0.12320	0.71234
0.19971	-3.34339
0.17421	1.57960
0.12320	-0.79262
0.25071	1.88570
0.19971	-0.05289
0.12320	0.50828
0.07220	-0.46102
0.07220	0.81437
0.14870	0.96742
0.07220	0.30422
0.04670	0.32972
0.22521	0.07465
0.22521	-1.68539
0.19971	0.53379
0.02119	0.73785
0.12320	0.53379
0.22521	0.15117
0.07220	-0.79262
0.14870	-0.07840
0.19971	0.40625
0.27621	0.55929
0.25071	0.83988
0.25071	-1.63437
0.12320	-0.66508
0.04670	0.76336
0.02119	2.16628
-0.00431	2.88050
-0.00431	-5.15444
0.32721	-1.99148
0.27621	1.88570
0.17421	0.68683
0.02119	1.70714
0.32721	1.47757
0.25071	0.17668
0.14870	1.37554
0.07220	1.17148
0.12320	-3.08831
0.22521	-0.00188
0.17421	-0.10391
0.07220	-0.33348
0.14870	0.25320
0.19971	0.96742
0.09770	-0.20594
-0.02981	-0.28246
0.12320	0.10015
0.22521	0.02363
0.12320	1.06945
0.12320	-0.25695
0.14870	-0.10391
0.17421	1.12046
0.14870	-1.12422
0.14870	-0.66508
0.19971	0.71234
0.19971	1.50308
0.22521	1.29902
0.17421	1.47757
0.22521	-2.60367
0.09770	-0.07840
-0.08081	0.48277
-0.05531	1.50308
0.22521	-1.02219
0.32721	1.09496
0.14870	0.22769
0.27621	-0.51203
0.02119	0.15117
0.17421	-0.41000
0.19971	0.76336
0.22521	-1.09871
0.17421	1.78367
0.27621	0.94191
0.35272	0.10015
0.12320	-0.38449
0.04670	-1.99148
-0.00431	1.78367
0.02119	0.71234
-0.08081	-0.38449
0.07220	-0.46102
0.22521	0.53379
0.17421	-0.18043
0.12320	0.10015
0.17421	1.22250
0.07220	1.65613
0.19971	0.89089
0.37822	-1.12422
0.27621	-2.68019
0.25071	-0.56305
0.14870	1.01843
0.09770	0.76336
0.22521	1.32453
0.17421	1.73265
0.07220	1.70714
0.04670	-4.46573
0.07220	-0.35899
0.04670	1.65613
0.09770	0.86539
0.14870	0.27871
0.17421	0.99292
0.14870	-0.15492
0.19971	-0.23145
0.17421	0.61031
0.17421	-0.51203
0.25071	0.71234
0.22521	0.25320
0.02119	-0.05289
0.09770	-2.93527
0.25071	0.25320
0.04670	2.03874
-0.15732	-1.27726
-0.20832	0.86539
0.12320	1.01843
0.42922	0.86539
0.48022	0.30422
0.27621	-1.14973
0.14870	0.07465
-0.00431	0.89089
0.07220	0.86539
0.22521	0.63582
0.22521	0.66132
-0.02981	-1.99148
0.19971	0.66132
0.12320	-0.28246
0.07220	0.32972
-0.02981	0.76336
0.22521	-0.86914
0.25071	0.55929
0.32721	1.35003
0.22521	-0.41000
0.07220	-0.05289
-0.08081	1.24800
0.02119	-0.05289
0.14870	0.04914
0.17421	1.63062
0.25071	-0.71609
0.17421	-0.79262
0.27621	1.65613
-0.00431	-0.84363
0.12320	0.63582
0.14870	0.32972
0.22521	0.27871
0.17421	-0.05289
0.09770	-1.50683
0.09770	1.75816
0.17421	-1.04770
0.12320	1.24800
0.12320	0.91640
0.27621	-0.00188
0.19971	0.55929
0.09770	0.45726
-0.02981	0.02363
0.09770	-0.56305
0.09770	-0.71609
0.14870	-1.81293
0.22521	0.55929
0.17421	0.45726
0.14870	0.58480
0.14870	0.20219
0.22521	0.76336
0.22521	0.99292
0.07220	0.38074
0.19971	0.71234
0.12320	-0.69059
0.19971	-0.35899
-0.00431	0.43176
-0.02981	-0.84363
0.22521	-0.18043
0.14870	0.45726
0.14870	0.38074
0.35272	0.30422
0.22521	0.10015
0.17421	0.17668
0.42922	0.15117
0.12320	-0.41000
