0.02119	-0.43551
0.14870	0.10015
0.14870	-2.19554
0.07220	-0.23145
0.17421	1.32453
0.14870	1.63062
0.12320	1.04394
0.09770	0.76336
-0.23382	0.40625
0.70974	0.04914
0.02119	-0.43551
0.22521	-0.38449
0.09770	0.04914
0.17421	-0.07840
0.14870	-0.30797
-0.00431	-0.25695
0.12320	-0.10391
0.17421	0.35523
0.12320	0.48277
-0.13181	-0.10391
-0.05531	0.32972
0.78624	0.32972
0.12320	0.35523
0.07220	0.38074
0.25071	0.45726
0.76074	0.63582
-0.02981	0.53379
-0.64185	0.22769
-0.02981	-1.20074
-0.15732	-0.12942
0.12320	-0.94566
0.22521	0.32972
0.19971	0.94191
0.40372	0.83988
0.53123	0.76336
0.12320	0.40625
0.04670	0.25320
0.12320	-0.30797
-0.13181	-0.10391
0.63323	-0.00188
0.12320	0.02363
-0.15732	0.04914
0.14870	0.07465
0.04670	0.12566
0.09770	-0.92016
0.25071	0.58480
0.17421	0.38074
0.07220	0.35523
0.09770	0.35523
0.09770	0.35523
0.12320	-0.15492
0.17421	0.12566
0.12320	0.35523
0.17421	-1.14973
0.07220	0.73785
0.19971	0.30422
0.22521	0.22769
-0.41233	0.53379
0.17421	-0.00188
0.40372	0.45726
0.12320	0.63582
0.19971	0.66132
-0.20832	-0.66508
0.50573	0.30422
0.50573	-1.86394
0.07220	0.27871
0.02119	0.55929
-0.05531	0.61031
-0.15732	0.40625
0.73524	0.30422
0.04670	-0.05289
-0.15732	0.12566
0.17421	0.12566
0.35272	0.30422
0.04670	0.02363
0.19971	0.15117
0.09770	0.12566
0.25071	0.12566
0.14870	0.15117
-0.02981	0.10015
0.22521	-0.18043
0.42922	0.20219
0.27621	0.12566
0.09770	0.20219
-0.05531	0.66132
0.09770	0.66132
0.22521	-0.28246
0.12320	-0.25695
0.12320	-0.56305
0.17421	1.35003
0.12320	1.40105
0.14870	-0.61406
0.14870	-3.08831
0.22521	-0.35899
0.07220	1.73265
-0.15732	1.86019
0.35272	0.83988
0.30171	0.45726
0.19971	0.20219
0.17421	-0.02739
-0.00431	-0.30797
-0.13181	-0.41000
0.48022	-0.20594
-0.15732	-0.41000
-0.15732	-0.18043
0.07220	0.12566
0.45472	0.15117
0.32721	0.04914
0.37822	0.27871
0.12320	0.22769
0.14870	0.27871
0.02119	0.27871
0.19971	0.40625
0.32721	0.32972
-0.08081	0.30422
-0.76936	0.22769
0.42922	0.15117
0.37822	0.10015
0.45472	0.27871
0.07220	0.04914
0.14870	0.10015
0.02119	0.04914
-0.15732	0.27871
0.37822	0.04914
0.37822	0.27871
0.02119	0.12566
0.04670	0.04914
-0.08081	-0.02739
0.19971	0.15117
0.17421	0.15117
0.17421	0.12566
0.32721	0.20219
0.07220	0.27871
0.19971	0.35523
0.09770	0.12566
0.19971	0.53379
0.09770	-0.92016
0.19971	-0.51203
0.19971	0.96742
0.22521	-0.69059
0.37822	0.53379
-0.31033	0.55929
-0.08081	0.63582
0.27621	0.40625
0.30171	0.25320
0.25071	0.22769
0.19971	0.15117
0.07220	-0.10391
0.19971	-0.20594
0.04670	-0.25695
0.14870	-0.00188
0.04670	0.12566
0.12320	0.35523
-0.61635	-0.00188
1.39828	-0.02739
0.50573	0.25320
-0.51434	0.48277
-0.00431	0.12566
0.30171	0.20219
0.32721	0.04914
0.09770	0.25320
-0.00431	-0.05289
0.09770	0.17668
0.04670	0.20219
0.22521	0.20219
0.09770	0.25320
0.27621	0.20219
0.19971	0.12566
0.17421	0.04914
0.19971	-0.00188
0.19971	0.04914
0.17421	0.17668
0.12320	0.12566
0.22521	0.20219
0.14870	0.02363
0.14870	0.25320
0.04670	0.17668
0.02119	0.12566
0.14870	0.38074
0.40372	-0.02739
-0.48884	0.04914
0.09770	-0.15492
0.55673	0.30422
-0.18282	0.20219
0.37822	0.35523
0.37822	0.22769
0.25071	-0.00188
-0.05531	-0.00188
-0.00431	-0.18043
0.12320	0.35523
0.07220	0.25320
0.22521	0.07465
0.09770	0.20219
0.25071	0.32972
0.12320	0.25320
0.22521	0.10015
0.17421	0.15117
0.07220	-0.05289
0.17421	0.07465
0.12320	0.02363
0.02119	0.10015
0.14870	0.20219
0.14870	0.15117
0.07220	0.20219
0.19971	0.15117
0.17421	0.45726
0.07220	0.25320
0.09770	-0.00188
0.14870	0.17668
0.07220	0.17668
0.14870	0.04914
0.22521	0.10015
0.14870	0.25320
0.07220	0.12566
0.14870	0.15117
0.17421	0.27871
-0.05531	0.38074
0.30171	0.12566
0.40372	-0.18043
0.14870	0.04914
0.09770	0.30422
-0.00431	0.20219
-0.00431	0.15117
0.12320	0.35523
0.19971	0.27871
0.07220	0.32972
0.14870	-0.86914
0.19971	0.27871
0.17421	-0.02739
0.17421	0.40625
0.22521	0.25320
0.19971	0.25320
0.14870	0.15117
0.14870	0.15117
0.42922	0.27871
0.12320	0.17668
0.02119	0.04914
0.07220	0.17668
0.09770	0.12566
0.09770	-0.07840
0.17421	0.04914
0.22521	0.07465
0.07220	0.35523
0.14870	0.35523
0.25071	0.10015
0.14870	-0.89465
0.09770	0.22769
0.19971	0.61031
0.14870	0.71234
0.09770	0.45726
0.19971	0.20219
0.14870	-0.94566
0.14870	0.15117
0.25071	0.45726
0.07220	0.43176
0.07220	0.30422
-0.00431	0.40625
0.58223	0.12566
0.22521	0.07465
0.17421	0.15117
-0.05531	0.04914
0.09770	0.20219
0.07220	0.30422
0.19971	-0.97117
0.17421	-0.00188
0.19971	0.40625
0.14870	0.55929
0.09770	0.30422
0.19971	0.17668
0.14870	0.25320
0.12320	0.07465
0.17421	0.15117
0.12320	0.20219
0.22521	0.27871
0.12320	0.17668
0.14870	-0.00188
0.14870	0.15117
0.04670	0.02363
0.02119	0.07465
0.32721	0.22769
0.09770	0.22769
0.12320	-0.46102
0.19971	-0.46102
0.04670	0.10015
0.12320	0.81437
0.19971	0.86539
0.09770	0.55929
0.02119	0.25320
0.22521	0.32972
0.09770	0.10015
0.22521	-0.02739
-0.10631	-0.10391
0.32721	-0.02739
0.60773	0.07465
0.04670	0.04914
0.02119	0.17668
-0.10631	0.02363
0.12320	-0.00188
0.22521	0.02363
0.12320	0.10015
0.19971	0.40625
0.07220	0.43176
0.12320	-0.15492
0.14870	0.27871
0.17421	0.38074
0.27621	0.40625
0.09770	0.35523
0.14870	-0.15492
0.17421	0.43176
0.09770	-0.25695
0.12320	0.04914
0.17421	0.22769
0.17421	0.38074
0.19971	0.35523
0.07220	0.12566
0.22521	0.10015
0.09770	0.12566
0.12320	0.07465
0.12320	-0.07840
0.02119	-0.02739
0.22521	0.15117
0.14870	0.10015
0.09770	0.04914
0.12320	0.20219
0.32721	0.22769
0.19971	0.22769
0.04670	0.38074
0.02119	0.15117
0.09770	-0.10391
0.17421	-0.00188
0.07220	0.22769
0.17421	0.22769
0.19971	0.35523
0.09770	0.22769
0.14870	-0.25695
0.12320	0.40625
0.07220	0.25320
0.68424	0.25320
0.25071	0.20219
0.02119	0.32972
-0.02981	-0.30797
-0.00431	-0.63957
0.09770	0.35523
0.17421	0.55929
0.14870	0.53379
0.12320	0.40625
0.14870	0.53379
0.17421	0.45726
0.09770	-0.81812
0.22521	0.20219
0.17421	-0.20594
0.12320	0.38074
0.19971	-0.28246
0.07220	-0.28246
0.12320	0.63582
0.12320	0.66132
0.12320	0.40625
0.09770	0.25320
0.12320	0.02363
0.14870	-0.10391
0.17421	-0.07840
0.19971	0.15117
0.12320	0.30422
0.07220	-0.05289
0.12320	-0.00188
0.22521	0.17668
0.14870	0.15117
0.07220	0.15117
0.12320	0.15117
0.22521	0.25320
0.14870	0.12566
0.12320	0.10015
0.22521	0.20219
0.17421	0.30422
-0.00431	0.07465
0.40372	0.20219
0.25071	0.17668
-0.18282	0.04914
0.53123	0.10015
0.22521	0.07465
-0.08081	0.04914
0.02119	0.27871
0.07220	0.27871
0.14870	0.02363
0.14870	0.04914
0.09770	0.25320
0.22521	0.20219
0.07220	0.07465
0.22521	0.04914
0.17421	0.20219
0.25071	0.12566
0.19971	0.15117
0.12320	0.30422
0.12320	0.50828
0.14870	0.30422
0.14870	-0.56305
0.14870	-0.15492
0.07220	0.73785
0.14870	0.25320
0.12320	-0.05289
0.07220	0.73785
-0.05531	-0.28246
0.32721	0.50828
0.19971	0.32972
0.32721	0.35523
0.07220	0.40625
0.12320	-0.30797
0.07220	0.22769
0.09770	0.20219
0.19971	0.22769
0.09770	-0.00188
0.12320	-0.35899
0.14870	-0.63957
0.12320	0.30422
0.14870	0.50828
0.14870	0.55929
0.09770	0.25320
-0.00431	0.15117
0.22521	0.02363
0.32721	0.25320
-0.28482	0.04914
0.22521	0.04914
0.55673	0.20219
0.17421	0.04914
-0.02981	0.30422
-0.00431	0.20219
0.07220	0.35523
0.07220	-0.02739
0.19971	0.07465
0.09770	0.10015
0.19971	0.12566
0.22521	0.15117
0.22521	-0.02739
0.22521	0.15117
0.09770	0.22769
0.14870	0.45726
0.14870	0.30422
0.12320	0.02363
0.17421	0.17668
0.12320	0.12566
0.12320	-0.00188
0.07220	0.45726
0.22521	-0.69059
0.09770	-0.94566
0.14870	0.48277
0.12320	0.81437
0.04670	0.81437
0.19971	0.81437
0.25071	-0.56305
0.12320	-0.18043
0.12320	0.30422
0.07220	0.10015
0.22521	0.15117
0.17421	0.22769
0.07220	0.10015
0.17421	0.15117
0.35272	0.07465
0.12320	0.15117
0.14870	0.10015
0.04670	0.10015
0.04670	0.04914
0.19971	-0.56305
-0.00431	0.35523
0.17421	0.50828
0.78624	0.40625
0.12320	0.10015
0.12320	0.27871
-0.00431	0.17668
0.02119	0.07465
0.07220	-0.05289
0.12320	0.12566
0.19971	0.07465
0.22521	0.22769
0.09770	0.32972
0.12320	0.30422
0.09770	0.07465
0.17421	0.07465
0.22521	0.04914
0.17421	0.02363
0.14870	0.10015
0.19971	0.20219
0.09770	0.02363
0.14870	0.25320
0.09770	0.17668
0.12320	0.25320
0.22521	0.27871
-0.00431	0.22769
0.14870	0.07465
0.14870	0.10015
0.04670	-0.07840
0.22521	0.35523
0.07220	-0.00188
0.17421	-0.23145
0.19971	0.30422
0.12320	0.30422
0.22521	0.48277
0.12320	0.58480
0.14870	0.32972
0.19971	0.02363
0.07220	-0.12942
0.14870	-0.02739
-0.00431	0.10015
0.30171	0.35523
0.12320	-0.33348
0.14870	0.20219
0.53123	0.27871
0.07220	0.22769
-0.05531	-0.56305
0.02119	0.53379
-0.00431	0.43176
0.14870	0.45726
0.07220	0.25320
0.19971	0.27871
0.19971	0.53379
0.14870	-0.76711
0.25071	0.32972
0.14870	0.35523
0.14870	-0.81812
0.14870	0.25320
0.07220	0.27871
0.14870	0.30422
0.07220	0.40625
0.07220	0.20219
0.27621	0.20219
0.17421	0.20219
0.09770	0.04914
0.09770	0.30422
0.04670	-0.00188
0.22521	0.04914
0.07220	0.07465
0.19971	0.20219
0.12320	0.15117
0.30171	0.22769
0.04670	0.12566
0.17421	0.25320
0.02119	0.20219
0.22521	0.20219
-0.28482	-0.02739
0.42922	0.12566
0.45472	0.10015
0.14870	0.25320
-0.02981	0.07465
0.07220	0.22769
-0.00431	0.25320
0.19971	0.17668
-0.05531	0.12566
0.30171	0.10015
0.32721	0.25320
0.09770	0.32972
0.09770	-0.05289
0.17421	-0.43551
0.09770	0.02363
0.14870	-0.18043
0.17421	0.45726
0.14870	0.53379
0.22521	0.63582
0.14870	0.55929
0.07220	0.17668
0.14870	0.10015
0.12320	0.12566
0.14870	0.02363
0.14870	-0.05289
0.25071	0.10015
0.17421	0.02363
0.14870	0.04914
0.22521	0.22769
0.14870	0.20219
0.12320	0.17668
0.19971	0.22769
0.12320	0.07465
0.19971	0.07465
0.22521	-0.97117
0.09770	0.55929
0.12320	0.55929
0.22521	0.68683
0.12320	0.45726
0.09770	0.30422
0.12320	0.17668
0.14870	0.04914
0.07220	0.04914
0.17421	0.04914
0.07220	-0.15492
0.12320	0.04914
0.02119	0.10015
0.09770	0.07465
0.76074	0.25320
0.22521	0.15117
-0.02981	0.02363
-0.00431	0.12566
-0.00431	-0.07840
0.09770	0.20219
-0.08081	0.30422
0.27621	0.20219
0.40372	0.30422
0.04670	0.22769
0.14870	0.25320
0.25071	0.35523
0.04670	-0.05289
0.14870	0.10015
0.17421	0.27871
0.17421	-0.00188
0.12320	0.07465
0.12320	0.10015
0.22521	0.10015
0.17421	0.10015
0.19971	0.27871
0.14870	0.50828
0.09770	0.04914
0.09770	-0.43551
0.19971	0.50828
0.14870	0.30422
0.14870	0.25320
0.17421	0.38074
0.17421	0.20219
0.14870	0.07465
0.07220	0.12566
0.25071	0.20219
0.09770	0.02363
0.22521	0.15117
0.02119	-0.25695
0.12320	0.02363
0.12320	0.25320
0.14870	0.25320
0.17421	-0.00188
0.07220	0.17668
0.22521	0.32972
-0.08081	0.27871
0.14870	0.15117
0.58223	0.02363
0.32721	0.25320
-0.00431	0.07465
0.07220	0.10015
-0.02981	0.17668
0.14870	0.12566
0.12320	0.22769
0.14870	0.35523
0.17421	0.58480
0.17421	-0.69059
0.40372	-0.10391
0.25071	0.12566
0.04670	0.35523
0.04670	0.40625
0.48022	0.04914
0.19971	0.27871
-0.48884	0.38074
-0.08081	0.25320
0.30171	-0.02739
0.60773	0.12566
0.27621	0.02363
0.07220	0.10015
-0.10631	-0.05289
0.07220	0.15117
0.53123	0.12566
0.17421	0.10015
0.04670	0.53379
-0.02981	0.45726
0.07220	0.15117
0.14870	-0.56305
0.27621	0.30422
-0.13181	0.43176
0.68424	0.20219
0.14870	0.15117
0.32721	0.76336
-1.33039	0.22769
-0.28482	-0.10391
0.45472	-0.66508
0.53123	-0.20594
0.53123	0.55929
-1.15188	0.55929
0.53123	0.22769
1.57679	0.38074
1.75531	0.25320
1.01576	0.45726
-1.71292	0.61031
-0.92237	0.02363
-0.05531	-0.71609
0.07220	0.94191
-0.18282	-1.63437
-0.00431	-1.68539
0.02119	1.65613
-0.51434	1.24800
0.35272	1.14597
2.49485	1.78367
0.86275	0.81437
-0.69285	-0.53754
-1.96793	-2.90976
0.37822	0.10015
0.68424	-0.25695
0.53123	2.19179
0.78624	-2.55265
1.01576	-2.32308
-0.74385	2.14077
-0.33583	2.42136
2.03582	2.29382
0.35272	-2.45062
-0.28482	0.38074
-0.71835	0.61031
-0.76936	2.03874
-1.58541	2.49788
-0.33583	-0.00188
0.48022	-1.86394
0.78624	-0.30797
0.78624	-2.75671
-0.89686	-1.14973
0.60773	1.78367
0.76074	1.96222
-0.48884	1.75816
2.08683	-1.76191
-0.31033	1.65613
-0.79486	0.35523
-0.33583	0.25320
0.48022	-3.03730
0.48022	-4.10862
0.14870	0.99292
-0.02981	1.55410
0.19971	-0.23145
0.09770	3.05905
-0.28482	3.13558
-0.53984	-1.30277
0.22521	-3.98109
0.35272	1.60511
0.60773	-0.25695
0.78624	0.45726
0.35272	-2.19554
0.14870	3.49268
0.27621	3.21210
-0.08081	1.70714
0.12320	5.09967
0.09770	-0.10391
0.12320	-1.27726
0.09770	-0.66508
0.09770	1.37554
0.17421	-12.42415
-0.00431	0.68683
-0.10631	2.62542
-0.13181	5.83940
-0.20832	1.57960
0.04670	-0.15492
0.48022	0.50828
0.27621	2.65093
0.30171	-0.20594
0.22521	3.21210
0.19971	-10.25599
-0.13181	-2.37410
0.04670	1.22250
0.07220	-2.83324
0.50573	-3.31788
0.42922	5.12518
0.19971	3.03355
0.07220	0.99292
0.12320	3.11007
0.22521	0.25320
0.30171	0.81437
0.22521	4.56401
0.09770	-0.56305
0.04670	-3.44542
0.02119	-4.84835
0.30171	-0.92016
0.04670	1.73265
-0.00431	4.89561
0.02119	-5.99620
0.12320	-0.48652
0.22521	0.48277
-0.00431	2.54890
0.32721	5.66084
0.12320	-2.80773
0.07220	-1.02219
0.48022	-4.44022
0.42922	1.52859
0.07220	3.69675
-0.10631	3.23761
-0.05531	-2.34859
-0.48884	-3.72601
-0.15732	2.06425
0.50573	-0.84363
0.58223	3.72225
0.58223	-4.84835
0.40372	0.76336
0.17421	1.93671
-0.00431	1.91120
-0.05531	-1.22625
0.25071	0.55929
0.22521	0.10015
-0.15732	0.17668
0.63323	4.46198
0.22521	-3.01179
0.02119	-9.26119
-0.23382	1.65613
-0.25932	-0.71609
-0.20832	1.06945
-0.05531	2.21730
0.12320	0.94191
0.37822	2.90601
0.42922	1.40105
0.27621	1.45206
0.35272	-1.78742
0.27621	1.47757
0.02119	-0.38449
0.04670	-1.68539
0.35272	3.21210
0.04670	-3.19035
0.09770	0.91640
0.12320	0.99292
-0.15732	-0.69059
0.17421	2.88050
0.40372	-2.88425
0.07220	-2.98628
0.12320	3.44167
0.58223	0.86539
0.25071	1.86019
0.14870	-1.07320
0.12320	2.39585
-0.05531	-1.48133
-0.13181	-2.37410
0.09770	2.88050
-0.10631	-1.81293
0.25071	0.43176
0.35272	2.42136
0.09770	-0.18043
0.07220	0.91640
0.09770	2.19179
0.22521	0.43176
0.27621	-2.06800
0.19971	-4.23616
0.22521	1.93671
0.04670	-2.27207
0.09770	2.47238
0.09770	1.19699
0.12320	-1.02219
0.19971	1.35003
0.07220	3.39065
0.22521	-2.09351
0.17421	-0.56305
0.17421	3.26312
0.07220	-1.30277
0.32721	-1.12422
0.19971	-2.60367
-0.05531	1.29902
0.02119	0.78886
0.07220	1.78367
0.09770	1.55410
-0.00431	0.78886
0.32721	0.86539
0.30171	1.47757
0.19971	-0.48652
0.27621	0.83988
0.22521	2.16628
-0.10631	-10.74064
-0.00431	0.27871
0.30171	2.26831
0.09770	2.06425
0.32721	1.88570
0.07220	1.14597
0.04670	-0.41000
0.09770	0.35523
0.12320	0.32972
0.27621	0.43176
0.17421	-0.02739
0.22521	1.12046
0.32721	0.45726
0.19971	-2.39961
0.17421	-3.06281
0.22521	2.21730
-0.08081	-1.27726
-0.05531	1.27351
0.09770	2.01323
0.30171	1.45206
0.14870	3.51819
0.30171	-0.66508
0.22521	-4.38921
0.02119	-1.09871
0.07220	1.35003
0.12320	-2.19554
0.30171	1.88570
0.17421	1.47757
0.14870	1.01843
0.17421	-3.36890
0.17421	3.05905
0.12320	-2.62918
0.02119	-2.42511
0.17421	-1.17523
-0.10631	2.70194
0.07220	2.08976
0.19971	-0.25695
0.32721	-0.61406
0.32721	1.27351
0.14870	0.71234
0.14870	0.66132
0.12320	2.19179
-0.02981	-1.83844
-0.10631	-3.19035
0.19971	-0.99668
0.37822	-1.02219
0.27621	1.29902
0.37822	0.68683
-0.02981	0.81437
0.14870	0.73785
0.02119	1.83468
0.12320	3.18659
0.22521	-5.61358
0.17421	-1.99148
0.14870	0.68683
0.14870	1.86019
0.22521	0.86539
-0.02981	-0.07840
0.27621	0.58480
-0.13181	1.96222
0.12320	-1.45582
0.17421	-1.73640
0.14870	-1.83844
0.25071	-0.05289
0.12320	1.57960
0.17421	2.59991
0.19971	-0.12942
0.14870	-0.25695
0.25071	0.38074
0.22521	-0.71609
0.09770	1.78367
0.12320	-0.56305
0.14870	0.17668
0.02119	-0.30797
-0.08081	-1.30277
0.04670	2.70194
0.32721	-2.93527
0.14870	-2.37410
0.04670	1.70714
0.12320	1.65613
0.09770	1.57960
0.27621	1.22250
0.14870	1.47757
0.14870	-1.94047
0.19971	1.04394
-0.08081	1.98773
0.12320	-7.22057
0.35272	0.53379
0.35272	1.29902
0.45472	1.55410
0.04670	0.58480
0.04670	-0.41000
-0.08081	-0.97117
0.09770	1.40105
0.02119	-0.18043
0.27621	-0.58856
0.02119	0.76336
0.17421	0.91640
0.22521	1.14597
0.25071	-1.99148
0.35272	0.30422
0.17421	-3.67499
-0.18282	0.76336
-0.02981	2.67644
0.30171	-0.18043
0.30171	-7.01651
0.30171	2.59991
0.30171	3.56921
0.17421	3.31413
0.12320	0.15117
0.17421	-1.37929
-0.00431	-2.06800
0.12320	0.71234
0.12320	2.14077
-0.00431	-0.58856
0.04670	0.76336
0.22521	-0.71609
0.19971	1.50308
0.09770	0.81437
0.12320	-2.55265
0.30171	1.70714
0.14870	-1.94047
-0.00431	0.68683
0.17421	-0.46102
0.17421	1.17148
0.19971	0.99292
0.22521	-1.68539
-0.08081	0.89089
0.40372	-1.09871
0.27621	-0.56305
0.07220	1.78367
0.32721	0.76336
0.25071	-1.12422
0.25071	0.81437
0.02119	1.14597
-0.08081	1.50308
-0.25932	-0.15492
-0.00431	-0.38449
0.25071	0.66132
0.25071	-0.81812
0.35272	-1.81293
0.07220	0.99292
0.17421	1.57960
-0.00431	0.07465
0.04670	0.15117
0.35272	-2.70570
0.35272	2.62542
0.27621	0.07465
0.12320	0.96742
0.19971	1.91120
0.19971	1.60511
-0.05531	-3.21585
-0.00431	-1.60887
0.17421	0.89089
0.17421	1.27351
0.12320	0.43176
0.04670	-0.46102
0.19971	-0.43551
0.09770	1.29902
0.22521	0.76336
0.09770	0.40625
0.19971	-1.48133
0.07220	0.12566
0.27621	-3.49644
0.12320	1.65613
0.04670	-0.18043
0.07220	1.42656
-0.05531	1.88570
0.50573	1.06945
0.40372	1.12046
0.22521	0.53379
0.17421	0.10015
0.12320	-0.41000
-0.15732	-0.30797
-0.18282	-1.25176
0.02119	1.17148
0.12320	-0.15492
0.32721	-1.83844
0.35272	1.17148
0.19971	-0.46102
0.17421	0.17668
0.09770	1.19699
-0.10631	1.91120
0.19971	1.17148
0.19971	-0.07840
0.12320	-2.34859
0.12320	3.51819
0.14870	-4.18515
0.17421	1.24800
0.09770	0.86539
0.14870	0.86539
-0.00431	1.86019
0.04670	0.81437
0.12320	0.15117
0.35272	0.40625
0.19971	0.63582
0.09770	-0.07840
0.22521	-3.54745
0.12320	1.06945
0.07220	0.86539
0.19971	-1.20074
0.25071	-0.15492
0.14870	1.78367
0.12320	0.94191
0.07220	0.83988
-0.08081	0.12566
0.07220	0.48277
0.14870	-3.57296
0.09770	0.71234
0.19971	1.35003
0.25071	1.14597
0.12320	0.02363
0.17421	1.27351
-0.00431	1.68163
-0.08081	0.86539
0.14870	-0.69059
0.42922	1.22250
0.35272	-1.30277
0.25071	-4.95038
0.09770	-0.30797
-0.02981	-0.46102
-0.02981	1.91120
0.32721	0.61031
0.12320	1.09496
0.07220	0.96742
0.12320	0.89089
0.12320	0.73785
0.19971	2.11527
0.17421	-1.09871
0.04670	-4.66979
0.07220	-2.29757
0.07220	0.22769
0.09770	2.85499
0.17421	0.81437
0.27621	0.48277
0.09770	0.55929
0.07220	0.30422
0.32721	0.94191
0.12320	-1.20074
0.12320	0.58480
0.12320	0.17668
0.30171	0.76336
0.25071	-0.46102
0.19971	0.58480
0.14870	1.57960
0.04670	-2.88425
-0.18282	-0.35899
-0.10631	0.99292
0.09770	0.35523
0.42922	1.17148
0.25071	-2.24656
0.14870	-0.28246
0.19971	1.12046
0.37822	-0.35899
0.09770	1.29902
0.02119	-0.07840
0.07220	0.76336
0.04670	0.35523
0.09770	0.27871
0.25071	0.32972
0.19971	0.15117
0.19971	-0.46102
0.07220	-0.63957
0.07220	-0.20594
0.19971	0.91640
0.22521	-1.99148
0.25071	-0.07840
0.09770	2.52339
0.14870	0.22769
0.22521	-0.84363
0.17421	-4.46573
-0.00431	1.50308
0.02119	1.93671
0.04670	-0.12942
-0.05531	4.15589
0.22521	3.79878
0.19971	-5.56257
0.17421	-5.12893
0.35272	1.09496
0.25071	1.68163
0.19971	1.47757
0.17421	1.22250
0.17421	0.78886
0.14870	0.12566
0.12320	-0.23145
0.04670	-0.38449
0.09770	-0.41000
0.22521	-0.43551
0.12320	-0.46102
0.12320	-0.30797
0.14870	-0.15492
0.14870	0.07465
0.02119	-0.25695
0.19971	0.40625
0.14870	0.53379
0.09770	0.20219
0.04670	1.35003
0.12320	0.48277
0.12320	-0.58856
0.25071	0.81437
0.19971	-3.87905
-0.13181	-2.96078
-0.08081	2.57441
0.12320	4.07936
0.35272	-2.42511
0.53123	2.08976
0.45472	1.47757
0.27621	0.96742
0.14870	0.53379
0.07220	-0.48652
0.14870	-0.58856
0.04670	-1.14973
0.12320	-0.30797
-0.10631	-0.25695
-0.00431	-1.12422
0.02119	0.20219
-0.02981	0.58480
0.22521	-1.04770
0.14870	0.12566
0.12320	0.58480
0.17421	0.76336
0.09770	0.50828
0.25071	0.50828
0.12320	0.27871
0.32721	0.25320
0.22521	1.52859
0.19971	-0.05289
0.19971	-0.07840
0.17421	1.32453
0.27621	-3.95558
0.02119	2.03874
0.12320	3.08456
0.02119	0.27871
0.02119	-1.78742
-0.13181	1.78367
0.04670	0.02363
0.19971	1.91120
0.25071	0.96742
0.30171	0.71234
0.35272	0.25320
0.17421	0.02363
0.37822	-0.46102
0.09770	-0.48652
0.12320	-0.53754
0.09770	-0.10391
0.04670	-0.05289
-0.08081	1.88570
-0.00431	-4.21066
0.02119	-2.55265
0.22521	1.47757
0.14870	1.37554
0.09770	1.17148
0.30171	1.22250
0.22521	1.04394
0.14870	0.89089
0.09770	0.25320
0.04670	-0.28246
0.19971	0.61031
0.22521	0.55929
0.12320	-0.28246
0.14870	-1.07320
0.17421	-1.07320
-0.02981	1.98773
0.04670	0.99292
0.30171	-1.25176
0.30171	0.20219
0.19971	-0.74160
0.25071	-0.00188
0.22521	0.63582
0.02119	1.75816
0.02119	1.55410
0.25071	1.98773
0.02119	-1.07320
0.09770	-1.14973
0.17421	0.22769
0.07220	0.35523
0.19971	-0.51203
0.22521	0.32972
0.19971	1.50308
0.02119	-1.63437
0.14870	-1.07320
0.19971	-0.23145
0.09770	1.40105
0.07220	1.32453
0.04670	1.17148
0.17421	-1.35379
0.27621	-4.15964
0.27621	1.17148
0.25071	2.26831
0.22521	1.12046
0.12320	1.17148
0.12320	1.17148
-0.05531	0.61031
0.09770	0.35523
0.17421	0.83988
0.07220	-3.06281
0.07220	-0.46102
0.30171	0.86539
0.30171	-1.55785
0.02119	-1.25176
-0.00431	-0.33348
-0.13181	0.66132
0.17421	1.22250
0.35272	1.88570
0.42922	-1.71090
0.35272	-0.69059
-0.08081	0.38074
-0.00431	0.91640
0.25071	0.35523
0.22521	0.04914
0.27621	-0.00188
0.07220	0.45726
0.12320	0.22769
0.12320	-0.20594
0.02119	-2.09351
0.07220	0.99292
0.17421	-0.25695
0.12320	0.71234
0.25071	-0.00188
0.12320	1.83468
0.04670	-0.23145
0.27621	1.29902
0.12320	-2.24656
0.12320	-1.86394
0.09770	0.99292
0.30171	0.89089
0.32721	0.76336
0.17421	0.04914
0.19971	0.48277
0.12320	0.61031
0.04670	-1.27726
0.02119	-0.28246
0.04670	0.89089
0.09770	-0.53754
0.14870	1.17148
0.04670	-2.32308
0.17421	0.86539
0.22521	1.37554
0.17421	0.22769
0.32721	1.42656
0.32721	-1.58336
0.12320	0.55929
0.04670	-2.14453
0.12320	0.58480
0.14870	1.12046
0.04670	2.01323
-0.00431	-0.43551
-0.02981	0.15117
0.07220	1.75816
0.25071	-2.29757
0.14870	-0.69059
0.19971	1.37554
0.22521	-0.15492
0.22521	-0.07840
0.04670	0.58480
-0.08081	-0.61406
0.19971	0.68683
0.40372	-0.97117
0.30171	0.91640
0.27621	-1.20074
0.14870	0.17668
0.25071	0.86539
0.12320	0.78886
-0.25932	0.20219
-0.05531	0.04914
0.25071	0.27871
0.27621	-0.30797
0.12320	-0.58856
0.09770	-1.22625
0.37822	0.94191
0.30171	-0.07840
0.19971	-0.48652
0.22521	-0.61406
-0.13181	1.27351
-0.20832	2.16628
0.17421	0.53379
0.30171	0.96742
0.27621	0.04914
0.17421	-0.02739
0.12320	-1.02219
0.14870	0.43176
0.25071	0.02363
0.14870	-2.06800
0.07220	0.10015
0.12320	0.25320
0.09770	0.07465
0.09770	0.86539
0.17421	0.76336
0.04670	-0.38449
0.22521	-0.51203
0.17421	0.15117
0.14870	0.25320
0.17421	0.17668
0.17421	-0.43551
0.14870	0.68683
-0.08081	0.89089
0.17421	-0.74160
0.22521	1.98773
0.22521	1.37554
0.22521	-1.94047
0.12320	-1.02219
0.30171	0.76336
0.12320	0.94191
0.02119	0.35523
-0.08081	0.02363
0.19971	0.04914
0.04670	0.71234
0.25071	0.76336
0.27621	-0.63957
0.19971	0.10015
-0.23382	1.04394
0.12320	-0.30797
0.19971	-0.74160
0.22521	0.50828
0.32721	-0.00188
0.14870	-1.73640
0.12320	1.06945
0.19971	0.83988
0.19971	0.27871
0.12320	0.94191
0.07220	0.20219
-0.10631	0.43176
-0.08081	-0.61406
0.14870	0.04914
0.30171	-0.00188
0.27621	-1.91496
0.14870	1.01843
-0.00431	0.96742
0.12320	1.35003
0.12320	0.43176
0.19971	1.37554
0.25071	0.48277
0.22521	0.94191
0.12320	-0.33348
0.14870	0.35523
0.07220	-0.38449
0.25071	-0.84363
0.14870	-0.92016
0.09770	0.38074
0.17421	0.45726
0.09770	0.27871
0.04670	1.06945
-0.10631	-1.63437
-0.15732	0.76336
0.30171	-0.56305
0.35272	0.43176
0.37822	0.25320
0.37822	0.83988
0.19971	1.29902
0.12320	0.25320
0.09770	0.10015
0.04670	0.81437
0.07220	-1.02219
0.09770	-0.23145
0.02119	-0.10391
0.19971	-0.18043
0.42922	1.86019
0.27621	-0.05289
0.12320	-0.81812
0.07220	1.04394
-0.02981	-0.61406
0.02119	0.86539
0.35272	-1.94047
0.35272	0.25320
0.30171	0.38074
0.32721	0.55929
0.07220	-0.12942
0.02119	0.20219
0.04670	0.45726
-0.05531	0.66132
0.17421	-0.46102
0.04670	0.63582
0.09770	-1.30277
0.09770	-2.55265
0.09770	0.43176
0.30171	-0.25695
0.27621	1.78367
0.17421	3.16108
0.17421	-2.45062
0.22521	0.32972
0.07220	0.99292
0.12320	0.17668
0.09770	0.32972
-0.00431	-0.25695
0.27621	0.32972
-0.00431	0.15117
0.04670	-0.23145
0.09770	0.30422
0.22521	-0.84363
0.25071	-0.86914
0.25071	-0.25695
0.32721	0.38074
0.27621	0.58480
0.17421	0.25320
0.22521	0.30422
0.09770	0.43176
0.12320	1.17148
0.09770	-0.71609
-0.05531	-1.17523
0.14870	1.12046
0.02119	-0.58856
-0.02981	-0.81812
0.19971	1.17148
0.19971	-0.33348
0.17421	-0.10391
0.25071	-1.68539
0.07220	1.12046
0.22521	1.63062
0.22521	-0.12942
0.19971	1.14597
0.14870	1.47757
0.02119	-2.29757
0.22521	-0.07840
0.17421	-1.40480
0.19971	-0.02739
0.30171	0.76336
0.14870	0.63582
0.12320	0.91640
0.19971	0.12566
0.22521	0.12566
0.07220	-0.76711
-0.02981	1.06945
0.12320	-0.63957
0.02119	0.76336
-0.18282	-1.78742
0.12320	0.35523
0.30171	0.83988
0.09770	-0.10391
0.17421	0.96742
0.53123	1.14597
0.42922	1.17148
0.17421	-0.10391
0.14870	0.66132
0.19971	-1.14973
0.04670	0.38074
0.17421	0.83988
0.04670	0.50828
0.04670	-0.89465
0.14870	-0.38449
0.09770	0.43176
0.02119	0.17668
0.07220	1.19699
0.12320	0.02363
0.14870	0.81437
0.30171	-1.96597
0.22521	-1.63437
0.14870	0.66132
0.30171	0.83988
0.14870	0.04914
0.27621	-0.07840
0.22521	0.66132
0.19971	1.50308
0.09770	-0.58856
-0.05531	0.68683
-0.08081	-0.00188
-0.00431	-0.10391
0.04670	-2.09351
0.27621	0.96742
0.17421	1.22250
0.27621	0.89089
0.17421	0.86539
0.17421	0.20219
0.25071	-1.63437
0.07220	0.63582
0.17421	0.10015
0.07220	0.83988
0.12320	0.17668
0.14870	-0.23145
0.07220	-0.02739
0.19971	0.38074
0.19971	0.55929
0.04670	0.53379
-0.00431	0.78886
-0.13181	-0.02739
0.17421	-0.07840
0.09770	-0.20594
0.12320	-0.61406
0.32721	1.09496
0.30171	-0.53754
0.37822	0.38074
0.22521	-0.92016
0.27621	1.75816
0.17421	0.07465
0.09770	1.14597
0.07220	0.45726
0.12320	-1.40480
0.09770	-0.28246
-0.00431	0.55929
0.07220	0.30422
0.04670	0.10015
0.04670	0.94191
0.07220	-1.53234
0.12320	0.38074
0.32721	-0.41000
0.09770	0.58480
0.32721	-0.12942
0.25071	-0.30797
0.22521	0.73785
0.14870	0.43176
0.14870	0.61031
0.02119	0.07465
-0.13181	0.76336
0.09770	0.40625
0.12320	1.47757
0.45472	0.30422
0.12320	-2.73121
0.19971	-0.33348
0.04670	0.32972
0.12320	1.47757
0.09770	0.76336
0.17421	0.45726
0.22521	-0.46102
0.14870	-0.20594
0.12320	-0.15492
0.12320	-1.68539
0.17421	-0.56305
-0.00431	0.81437
0.14870	0.76336
-0.02981	1.06945
-0.10631	0.61031
0.07220	1.42656
0.42922	-1.76191
0.35272	0.66132
0.32721	-0.48652
0.30171	-0.58856
0.22521	-0.30797
0.17421	0.99292
0.04670	0.76336
-0.20832	1.29902
0.12320	-0.02739
0.25071	-0.46102
0.07220	-3.31788
0.22521	-1.22625
0.07220	0.66132
0.22521	0.99292
0.07220	2.31933
0.09770	0.38074
0.14870	1.91120
0.17421	-0.79262
0.17421	-0.86914
0.19971	-0.56305
0.14870	0.63582
0.19971	0.38074
0.32721	0.91640
0.30171	-1.22625
0.19971	0.83988
-0.00431	-1.30277
0.09770	0.30422
0.09770	0.02363
-0.05531	0.35523
0.07220	0.38074
0.07220	-1.25176
0.22521	0.35523
0.12320	1.45206
0.32721	0.45726
0.27621	-0.97117
0.22521	0.25320
0.17421	0.02363
0.17421	1.17148
0.12320	1.35003
0.19971	-0.53754
0.19971	-3.82804
0.04670	0.40625
0.04670	0.20219
0.07220	2.44687
-0.00431	1.68163
0.07220	2.01323
0.27621	-1.48133
0.25071	0.66132
0.07220	0.38074
0.37822	-0.43551
0.27621	-0.23145
0.09770	-0.20594
0.22521	-0.41000
0.12320	-0.12942
0.07220	-0.12942
0.02119	-0.05289
0.19971	-0.02739
0.17421	0.17668
0.07220	0.15117
0.07220	0.61031
0.17421	-0.10391
0.14870	0.58480
0.19971	-0.25695
0.19971	0.83988
0.22521	1.45206
-0.08081	-3.31788
-0.00431	1.55410
0.19971	-0.51203
0.37822	0.73785
0.42922	-0.79262
0.14870	1.04394
0.17421	1.12046
0.14870	1.04394
0.09770	-0.53754
0.04670	-0.66508
0.12320	1.29902
-0.00431	0.63582
0.07220	0.27871
0.25071	-0.12942
0.22521	-0.23145
0.09770	-0.18043
0.17421	-0.46102
0.22521	-0.46102
0.17421	-0.30797
0.12320	-0.05289
0.19971	1.78367
0.12320	-1.94047
0.09770	-0.69059
0.19971	0.45726
0.17421	3.08456
0.07220	-2.50164
0.14870	0.50828
0.07220	1.73265
0.17421	0.86539
0.27621	1.19699
0.14870	2.11527
0.19971	-1.22625
0.19971	-0.71609
0.07220	0.45726
0.02119	0.12566
0.12320	0.35523
0.12320	0.30422
0.27621	-0.84363
0.27621	0.17668
-0.05531	0.43176
-0.00431	-0.69059
0.12320	0.35523
0.12320	0.45726
0.14870	-1.40480
0.22521	0.61031
0.12320	0.73785
0.14870	-0.05289
0.17421	0.30422
0.09770	0.73785
0.22521	-0.61406
0.17421	-1.43031
0.12320	1.19699
0.19971	1.98773
0.02119	-2.19554
0.19971	-0.71609
0.07220	1.27351
0.09770	1.29902
0.17421	0.61031
0.19971	0.66132
0.09770	1.12046
0.22521	-1.02219
0.27621	0.12566
0.14870	-0.23145
0.17421	-0.07840
0.22521	-0.97117
0.14870	0.22769
0.12320	0.58480
0.04670	-0.51203
0.12320	0.04914
0.12320	0.15117
0.19971	0.17668
0.17421	0.25320
0.22521	0.30422
0.17421	0.10015
0.07220	0.58480
0.14870	-0.48652
0.32721	0.02363
0.09770	0.40625
0.12320	1.96222
0.12320	1.57960
-0.00431	-2.93527
0.19971	-3.01179
0.14870	-0.76711
0.19971	3.26312
0.17421	-1.04770
0.09770	2.06425
0.22521	0.45726
0.09770	1.22250
0.19971	-0.25695
0.12320	0.45726
0.12320	0.17668
0.07220	0.43176
0.17421	-0.76711
0.17421	-0.43551
0.25071	-1.30277
0.14870	-0.99668
0.12320	0.81437
0.12320	0.02363
0.25071	0.15117
0.19971	0.43176
0.12320	0.71234
0.12320	0.20219
0.22521	-0.10391
0.09770	-0.02739
0.22521	1.68163
0.04670	0.35523
-0.00431	-2.24656
-0.00431	0.91640
0.25071	1.47757
0.14870	1.19699
0.25071	1.04394
0.25071	0.76336
0.12320	0.22769
0.22521	-0.20594
0.22521	0.04914
0.12320	1.06945
0.09770	-2.24656
0.12320	-1.48133
-0.02981	-0.58856
0.07220	0.78886
0.14870	0.38074
0.12320	1.04394
0.37822	-0.43551
0.07220	1.86019
0.12320	-1.78742
0.14870	0.66132
0.17421	1.19699
0.22521	1.86019
0.09770	-0.81812
0.12320	-3.01179
0.02119	-0.41000
0.19971	1.52859
0.09770	1.86019
0.17421	0.50828
0.12320	1.24800
0.17421	0.25320
0.19971	-0.58856
0.25071	0.73785
0.09770	-0.74160
0.14870	0.76336
0.17421	0.38074
0.09770	-0.58856
0.14870	-0.84363
0.07220	0.32972
0.12320	0.86539
0.22521	-0.35899
0.17421	0.38074
0.09770	-0.23145
0.14870	0.22769
0.02119	0.12566
0.14870	0.55929
0.37822	0.35523
0.19971	-1.14973
0.12320	0.89089
0.19971	0.45726
0.14870	0.45726
0.14870	0.40625
0.12320	0.38074
0.04670	1.06945
0.14870	-0.48652
0.19971	0.61031
0.07220	0.73785
0.22521	0.55929
0.14870	-0.15492
-0.00431	-1.43031
0.07220	-0.81812
0.19971	-0.84363
0.07220	0.04914
0.27621	0.10015
0.17421	1.80917
0.25071	0.96742
0.30171	0.45726
0.09770	0.15117
0.14870	-1.68539
0.14870	-1.37929
0.02119	0.76336
0.27621	1.65613
0.07220	-0.66508
0.09770	0.40625
0.07220	1.86019
0.04670	-0.00188
0.30171	0.22769
0.19971	-0.84363
0.14870	0.78886
0.19971	-0.30797
0.14870	0.10015
0.19971	-0.35899
0.19971	-2.11902
-0.00431	-0.43551
-0.02981	0.43176
0.25071	0.86539
0.09770	1.37554
0.09770	0.89089
0.32721	0.22769
0.25071	0.76336
0.19971	0.22769
0.22521	0.35523
0.12320	0.50828
0.12320	-0.92016
-0.00431	0.25320
0.12320	-0.18043
0.19971	-2.39961
0.17421	1.37554
0.14870	-0.28246
0.19971	0.27871
0.17421	1.57960
0.17421	0.50828
0.07220	1.73265
0.02119	-1.04770
0.07220	1.04394
0.02119	-0.89465
0.30171	-0.38449
0.27621	0.73785
0.25071	1.06945
0.22521	-0.89465
0.12320	0.66132
0.12320	1.42656
0.12320	-0.15492
0.14870	-0.25695
0.14870	0.38074
0.09770	1.91120
0.09770	-1.63437
0.14870	0.81437
0.12320	-3.67499
0.17421	-0.56305
0.09770	0.38074
0.25071	1.80917
0.14870	1.86019
0.14870	1.29902
0.14870	0.22769
0.02119	-0.30797
0.14870	-1.58336
0.12320	0.35523
0.04670	-0.25695
0.14870	0.96742
0.32721	1.27351
0.19971	-1.48133
0.14870	0.27871
0.19971	0.45726
0.14870	-0.76711
0.19971	0.48277
0.04670	0.55929
0.19971	-0.35899
0.04670	0.10015
-0.00431	0.10015
0.19971	-0.12942
0.17421	0.07465
0.09770	0.50828
0.25071	1.60511
0.09770	0.89089
0.12320	0.30422
0.17421	-6.50635
0.25071	0.48277
0.14870	1.42656
0.02119	0.58480
0.12320	0.15117
0.07220	0.27871
0.19971	1.96222
0.22521	1.45206
0.04670	1.22250
0.17421	-0.74160
0.12320	-1.76191
0.17421	-0.81812
0.19971	0.55929
0.17421	0.32972
0.17421	1.75816
0.14870	-0.61406
0.27621	0.12566
0.12320	-2.17003
0.22521	-1.55785
0.07220	1.68163
0.12320	0.45726
0.14870	2.03874
0.12320	1.27351
-0.02981	-0.30797
0.07220	-2.11902
-0.05531	-0.00188
0.17421	-0.92016
0.32721	1.17148
0.22521	1.01843
0.12320	0.61031
0.22521	0.66132
0.17421	-0.05289
0.09770	-0.43551
0.22521	-0.76711
0.14870	-0.05289
0.09770	0.07465
0.12320	0.43176
0.07220	0.25320
0.14870	1.35003
0.17421	-2.24656
0.07220	0.35523
0.09770	0.58480
0.07220	0.81437
0.04670	-0.35899
0.27621	0.17668
0.19971	1.68163
0.14870	0.63582
0.32721	-1.07320
0.14870	-1.83844
0.02119	0.15117
0.04670	0.78886
0.17421	1.42656
0.22521	-0.00188
0.37822	1.12046
0.19971	1.04394
0.19971	1.09496
0.14870	-0.30797
0.12320	-0.53754
0.19971	-0.30797
0.04670	-0.10391
0.09770	-0.12942
0.02119	0.20219
0.09770	0.40625
0.02119	-0.43551
0.27621	0.76336
0.12320	-0.23145
0.25071	-1.45582
0.35272	0.43176
0.09770	2.49788
0.17421	-0.02739
0.12320	1.68163
0.17421	-1.53234
0.07220	1.93671
0.12320	-1.30277
0.22521	0.10015
0.14870	1.09496
0.17421	-0.46102
0.14870	0.58480
0.19971	0.73785
0.09770	0.32972
-0.05531	1.32453
0.12320	-1.14973
-0.02981	-0.99668
0.02119	-0.92016
0.30171	0.02363
0.22521	1.24800
0.30171	0.58480
0.19971	-2.04250
0.22521	0.76336
-0.08081	1.12046
0.07220	1.06945
0.07220	-0.43551
0.09770	0.81437
0.22521	0.71234
0.25071	0.43176
0.32721	0.25320
0.22521	0.43176
0.25071	0.15117
0.19971	0.71234
0.04670	0.73785
0.02119	-4.66979
-0.05531	-0.18043
0.17421	2.01323
0.12320	1.29902
0.14870	1.37554
0.12320	0.35523
-0.05531	-0.69059
0.07220	-0.28246
0.04670	0.12566
0.12320	0.61031
0.30171	0.45726
0.17421	1.09496
0.22521	-0.28246
0.19971	-1.22625
0.19971	-0.15492
0.14870	0.83988
0.17421	-0.79262
0.27621	-1.43031
0.04670	1.80917
0.12320	1.19699
0.04670	1.65613
0.19971	1.96222
0.12320	1.06945
0.22521	0.30422
0.32721	-0.18043
0.12320	-0.58856
0.19971	-0.48652
0.17421	-0.15492
0.22521	0.91640
0.12320	-1.30277
0.09770	0.12566
-0.02981	-0.43551
-0.02981	-4.89936
-0.02981	-0.71609
0.12320	2.21730
0.35272	2.49788
0.27621	2.19179
0.27621	1.57960
0.09770	1.55410
0.22521	0.58480
0.09770	-0.18043
0.07220	-1.32828
0.17421	-0.46102
0.02119	0.25320
0.14870	0.45726
0.14870	-0.94566
0.09770	-0.51203
0.25071	0.83988
0.12320	0.07465
0.12320	-0.23145
0.17421	0.68683
0.07220	0.66132
-0.00431	-0.25695
0.19971	0.68683
0.14870	1.55410
-0.00431	-2.85874
0.19971	0.50828
0.17421	1.42656
0.22521	-0.99668
0.27621	0.50828
0.30171	0.71234
0.09770	-1.40480
0.09770	1.42656
0.09770	0.99292
0.12320	1.17148
0.07220	0.04914
0.22521	0.15117
0.14870	1.19699
0.04670	-0.23145
0.17421	0.04914
0.27621	-0.51203
0.12320	0.22769
0.02119	0.07465
0.12320	0.48277
0.17421	-0.46102
0.14870	0.17668
0.17421	0.40625
0.17421	-0.66508
0.14870	-0.05289
0.27621	0.81437
0.17421	0.27871
0.17421	-0.58856
0.14870	-1.30277
0.04670	1.42656
0.09770	1.65613
0.14870	0.04914
0.12320	1.24800
0.19971	-0.23145
0.07220	1.04394
0.25071	-1.60887
0.14870	0.27871
0.07220	0.78886
0.09770	0.04914
0.07220	-2.85874
0.09770	-0.51203
0.12320	0.43176
0.19971	1.42656
0.19971	0.81437
0.27621	1.40105
0.19971	1.01843
0.17421	-0.66508
0.22521	0.55929
0.02119	-0.48652
0.14870	0.07465
0.09770	-1.12422
0.09770	0.86539
0.19971	-0.48652
0.14870	-0.69059
0.07220	0.43176
0.17421	1.06945
0.12320	0.81437
0.04670	-0.86914
0.07220	1.17148
0.07220	-0.23145
-0.10631	0.07465
0.32721	-0.05289
0.19971	-1.48133
0.19971	0.63582
0.14870	0.96742
0.02119	0.45726
0.30171	-1.14973
0.22521	-0.66508
0.25071	1.68163
0.07220	-3.52195
-0.00431	0.73785
0.04670	1.22250
0.12320	1.29902
0.27621	0.20219
0.09770	0.48277
0.32721	1.09496
0.12320	-0.51203
0.17421	0.12566
-0.02981	-1.04770
0.19971	-0.15492
0.14870	-0.35899
0.14870	0.53379
0.14870	1.04394
0.07220	0.58480
0.25071	-1.02219
0.17421	1.45206
0.12320	0.76336
0.07220	-4.05761
0.04670	1.12046
0.09770	0.63582
0.19971	0.15117
0.14870	-1.07320
0.22521	-0.00188
0.07220	0.76336
0.19971	1.45206
0.25071	1.83468
0.14870	-0.61406
0.12320	0.58480
-0.02981	-1.35379
0.22521	0.07465
0.12320	0.20219
0.30171	0.12566
0.09770	0.02363
0.09770	-0.66508
0.25071	0.96742
0.17421	0.55929
0.22521	-0.30797
0.14870	0.55929
0.07220	0.35523
0.09770	0.25320
0.04670	0.32972
0.12320	0.02363
0.12320	-0.20594
0.07220	0.07465
0.12320	-0.66508
0.35272	0.40625
0.12320	-0.84363
0.27621	0.94191
0.09770	0.81437
0.22521	-2.68019
-0.02981	-1.53234
0.04670	1.17148
0.07220	1.93671
0.45472	1.42656
0.14870	0.91640
0.14870	0.30422
0.12320	-0.76711
0.22521	0.81437
0.07220	-0.58856
0.12320	-0.66508
0.02119	-0.25695
0.22521	0.25320
0.07220	0.61031
0.22521	0.81437
0.04670	-1.99148
0.17421	-0.33348
0.12320	0.58480
0.07220	0.83988
0.17421	0.53379
0.12320	0.61031
0.19971	0.76336
0.09770	-0.43551
0.27621	-0.76711
0.17421	0.22769
0.35272	-0.00188
0.14870	0.50828
0.12320	-0.92016
0.07220	-0.28246
0.17421	1.35003
0.14870	-0.69059
0.14870	-0.56305
0.02119	-0.18043
-0.00431	1.22250
0.19971	1.75816
0.30171	0.10015
0.17421	-1.99148
0.32721	0.81437
0.19971	-0.23145
0.07220	0.83988
0.07220	-0.15492
0.09770	0.55929
0.02119	0.22769
0.02119	0.20219
0.19971	0.25320
0.07220	-0.43551
0.09770	-0.74160
0.12320	0.02363
0.12320	0.40625
0.22521	-0.05289
0.04670	0.38074
0.17421	0.71234
0.17421	-0.10391
0.19971	-1.22625
0.37822	0.94191
0.14870	-3.75152
0.22521	0.78886
0.09770	0.76336
-0.18282	0.58480
-0.02981	1.17148
0.27621	2.14077
0.22521	0.96742
0.22521	0.55929
0.19971	-0.51203
-0.05531	-1.48133
0.14870	0.20219
0.14870	-0.56305
0.17421	0.12566
0.12320	0.53379
0.12320	0.07465
0.17421	-0.38449
0.14870	0.10015
0.04670	0.15117
0.17421	-0.15492
0.09770	0.22769
0.14870	0.17668
0.17421	0.25320
0.14870	0.22769
0.04670	0.35523
0.12320	0.53379
0.17421	-0.23145
0.14870	0.04914
0.02119	0.58480
0.12320	1.22250
0.17421	-1.76191
0.32721	0.20219
0.25071	-1.32828
0.27621	1.73265
0.12320	-1.25176
0.14870	2.08976
-0.08081	-0.33348
0.17421	-0.00188
0.07220	0.66132
0.12320	1.04394
0.17421	0.78886
-0.08081	0.20219
0.19971	-0.10391
0.04670	-0.25695
0.17421	-0.18043
0.22521	-0.12942
0.17421	-0.05289
0.37822	-1.32828
0.12320	-1.09871
0.17421	2.98253
0.02119	-1.04770
0.30171	-3.06281
0.12320	0.40625
0.17421	-0.99668
0.12320	0.96742
0.14870	2.42136
0.07220	1.80917
-0.00431	0.94191
-0.00431	0.68683
-0.08081	0.40625
0.19971	0.10015
0.30171	-0.15492
0.45472	-1.07320
0.04670	-0.58856
0.19971	-0.51203
-0.08081	-0.41000
0.27621	0.30422
0.14870	-0.63957
0.17421	1.40105
0.17421	1.17148
0.19971	0.15117
0.12320	-1.71090
0.17421	-0.58856
0.14870	1.37554
0.02119	1.09496
0.09770	1.09496
0.07220	1.06945
0.09770	0.22769
0.19971	0.10015
0.17421	0.81437
0.14870	-1.63437
0.09770	-1.73640
0.19971	1.04394
0.07220	-0.92016
0.14870	1.32453
0.12320	1.17148
0.19971	0.40625
0.32721	1.73265
0.12320	-0.46102
0.22521	-1.09871
0.02119	-0.18043
0.02119	0.25320
0.14870	0.35523
0.19971	-0.05289
0.27621	-0.33348
0.14870	0.12566
0.27621	0.25320
0.09770	1.63062
0.27621	-1.14973
0.02119	-0.02739
-0.00431	-0.35899
-0.02981	-0.10391
0.09770	1.29902
0.19971	1.88570
0.07220	1.32453
0.35272	-1.43031
0.32721	-0.74160
0.19971	-0.33348
0.17421	-0.46102
0.14870	0.73785
0.14870	1.55410
0.25071	-0.18043
0.07220	0.96742
0.09770	0.22769
0.19971	0.38074
-0.00431	0.32972
0.12320	-1.35379
-0.00431	0.15117
0.09770	-0.69059
0.04670	-0.46102
0.30171	0.30422
0.27621	0.25320
0.22521	1.70714
0.25071	-1.68539
0.17421	0.76336
0.19971	-1.02219
-0.15732	1.65613
0.12320	0.63582
0.12320	1.57960
0.19971	-1.07320
0.19971	-0.23145
0.19971	0.89089
0.30171	-0.89465
0.09770	0.89089
0.17421	1.47757
0.07220	-2.29757
0.25071	-0.00188
-0.00431	0.35523
0.12320	1.04394
0.12320	0.12566
0.02119	-0.69059
0.09770	-0.76711
0.09770	0.35523
0.27621	0.63582
0.12320	1.12046
0.25071	0.20219
0.22521	-0.28246
0.22521	-2.93527
0.14870	0.55929
0.02119	0.81437
0.12320	1.27351
0.12320	0.99292
0.12320	0.99292
0.17421	-0.05289
0.22521	-0.05289
0.27621	1.52859
0.09770	-0.69059
0.17421	-1.48133
0.04670	-0.28246
0.14870	0.32972
0.17421	1.12046
0.12320	0.55929
0.14870	0.32972
0.19971	0.71234
-0.00431	1.12046
0.12320	1.50308
-0.05531	-4.54226
0.07220	-0.15492
0.25071	0.94191
0.22521	1.42656
0.12320	-0.61406
0.12320	1.42656
0.17421	1.17148
0.25071	-0.46102
0.12320	-0.35899
0.14870	-0.63957
0.27621	0.12566
0.04670	0.22769
0.04670	0.40625
-0.02981	0.40625
0.04670	0.76336
0.25071	0.86539
0.30171	-0.20594
0.17421	-1.04770
0.27621	-1.27726
0.12320	0.25320
0.09770	0.04914
-0.02981	1.01843
0.04670	0.81437
0.19971	-0.35899
0.12320	0.43176
0.07220	0.89089
0.09770	1.35003
0.17421	1.73265
0.32721	-1.27726
0.32721	-0.43551
0.12320	-1.07320
0.14870	0.10015
0.09770	0.81437
0.12320	1.06945
0.14870	-0.61406
0.07220	0.30422
0.07220	0.68683
0.17421	0.58480
0.12320	0.43176
0.12320	-0.84363
0.22521	-2.80773
0.12320	0.55929
0.17421	1.12046
0.22521	0.15117
0.07220	0.76336
0.09770	1.70714
0.19971	2.06425
0.22521	-1.58336
0.19971	-3.19035
0.07220	0.58480
0.17421	1.09496
0.19971	1.01843
0.12320	0.35523
0.22521	-0.25695
0.12320	0.48277
0.12320	0.61031
0.07220	-0.07840
0.12320	-0.48652
0.14870	0.99292
0.14870	0.76336
0.04670	-1.76191
0.09770	-1.04770
0.12320	-1.12422
0.17421	1.83468
0.32721	0.27871
0.07220	-0.30797
0.32721	0.48277
0.25071	1.09496
0.12320	0.25320
0.22521	-0.12942
0.07220	-0.48652
0.09770	0.40625
0.12320	0.58480
0.02119	0.22769
0.30171	-0.05289
0.19971	0.25320
0.12320	-0.63957
0.27621	-0.02739
0.09770	-0.07840
0.12320	0.76336
0.17421	0.55929
0.07220	0.27871
0.02119	0.40625
0.22521	0.22769
0.14870	0.58480
0.27621	0.35523
0.17421	-0.00188
0.17421	-1.22625
0.25071	1.57960
-0.02981	1.06945
0.22521	-1.04770
0.09770	-2.22105
0.17421	-1.78742
0.02119	2.26831
-0.08081	1.63062
0.04670	1.83468
0.32721	1.47757
0.35272	0.83988
0.35272	0.38074
0.19971	-0.07840
0.25071	-0.71609
0.17421	-0.10391
0.04670	-1.07320
0.07220	-1.09871
-0.05531	-0.05289
0.14870	0.45726
0.04670	0.61031
0.17421	1.06945
0.07220	0.43176
0.17421	-0.71609
0.17421	1.09496
0.14870	0.07465
0.17421	0.15117
-0.02981	-0.84363
0.22521	0.04914
0.07220	0.66132
0.27621	1.12046
0.19971	0.12566
0.14870	-0.66508
0.12320	0.94191
0.14870	0.45726
0.17421	-0.33348
0.09770	-0.33348
