0.12320	-0.30797
0.19971	-1.48133
0.17421	0.66132
0.14870	0.02363
0.19971	0.66132
0.09770	0.76336
0.12320	0.55929
0.17421	0.48277
0.09770	0.17668
0.17421	-0.07840
0.12320	-0.53754
0.14870	0.15117
0.19971	0.50828
0.07220	-0.94566
0.14870	-0.12942
0.14870	0.02363
0.12320	0.20219
0.19971	0.32972
0.14870	0.20219
0.09770	0.27871
0.09770	0.35523
0.07220	0.25320
0.09770	0.25320
-0.00431	0.25320
0.55673	0.40625
0.22521	0.15117
0.04670	-0.41000
0.17421	0.10015
0.02119	0.30422
0.12320	0.25320
0.12320	0.10015
0.17421	-0.00188
0.14870	0.27871
0.07220	0.15117
0.19971	0.38074
0.14870	0.27871
0.14870	-0.00188
0.19971	-1.14973
0.14870	0.40625
0.19971	0.61031
0.07220	0.43176
0.22521	0.04914
0.14870	0.22769
0.14870	0.32972
0.12320	0.61031
0.22521	-0.05289
0.09770	-0.25695
0.22521	0.27871
0.14870	-0.28246
0.22521	-0.23145
0.12320	0.50828
0.22521	0.83988
0.12320	-0.20594
0.22521	-0.23145
0.12320	0.94191
0.17421	-0.51203
0.12320	0.81437
0.14870	0.38074
0.12320	-0.15492
0.14870	0.12566
0.12320	0.07465
0.12320	0.12566
0.17421	0.20219
0.17421	0.07465
0.14870	0.10015
0.14870	0.15117
0.12320	0.12566
0.17421	0.15117
0.22521	0.10015
0.04670	-0.10391
0.17421	0.27871
0.09770	0.04914
0.22521	0.22769
0.09770	0.20219
0.19971	0.22769
0.12320	0.22769
0.14870	0.20219
0.04670	0.15117
0.09770	0.27871
0.17421	0.07465
0.14870	-0.12942
0.14870	0.25320
0.14870	0.27871
0.12320	0.10015
-0.00431	0.32972
0.09770	0.04914
0.68424	-1.02219
0.09770	0.25320
0.07220	0.68683
-0.05531	0.48277
0.12320	0.30422
0.07220	0.20219
0.22521	0.04914
0.17421	0.10015
0.19971	0.07465
0.14870	0.48277
0.14870	0.45726
0.14870	-1.55785
0.14870	-0.30797
0.22521	0.53379
0.12320	1.04394
0.22521	-0.35899
0.07220	0.30422
0.17421	0.10015
0.09770	0.12566
0.22521	0.20219
0.09770	0.50828
0.14870	0.76336
0.12320	-0.92016
0.14870	0.22769
0.09770	0.35523
0.19971	0.12566
0.14870	0.30422
0.12320	0.12566
0.19971	0.15117
0.09770	-0.00188
0.19971	0.07465
0.19971	0.20219
0.07220	0.15117
0.19971	0.63582
0.14870	-1.78742
0.14870	0.30422
0.12320	0.45726
0.09770	0.66132
0.25071	0.61031
0.14870	0.43176
0.07220	0.15117
0.22521	0.15117
0.07220	-0.05289
0.22521	0.04914
0.09770	-0.05289
0.17421	-0.05289
0.17421	0.04914
0.12320	0.25320
0.17421	0.20219
0.14870	-0.58856
0.14870	0.32972
0.14870	0.35523
0.12320	0.32972
0.14870	0.30422
0.19971	0.25320
0.07220	0.30422
0.19971	0.43176
0.09770	0.40625
0.22521	0.25320
0.09770	-0.20594
0.22521	0.32972
0.09770	-0.53754
0.25071	0.04914
0.19971	0.38074
0.17421	0.45726
0.12320	-0.30797
0.14870	0.35523
0.12320	0.50828
0.04670	0.12566
0.17421	0.20219
0.09770	0.04914
0.09770	-0.10391
0.14870	0.04914
0.09770	0.22769
0.14870	0.32972
0.12320	0.38074
0.12320	0.45726
0.22521	-0.25695
0.12320	-1.30277
0.25071	0.15117
0.04670	0.73785
0.19971	1.06945
0.09770	0.86539
0.14870	1.01843
0.19971	-2.55265
0.17421	-0.28246
0.12320	0.66132
0.09770	1.06945
0.12320	0.07465
0.09770	0.48277
0.12320	0.02363
0.12320	0.22769
0.12320	0.02363
0.12320	0.63582
0.12320	-0.61406
0.27621	0.04914
0.19971	0.07465
0.14870	0.04914
0.25071	0.25320
0.07220	0.15117
0.12320	0.10015
0.14870	0.25320
0.12320	0.02363
0.22521	0.20219
0.07220	0.17668
0.22521	0.10015
0.12320	0.20219
0.17421	0.17668
0.19971	0.15117
0.12320	0.20219
0.14870	0.10015
0.14870	-0.07840
0.07220	-0.46102
0.17421	0.43176
0.07220	-0.61406
0.14870	0.43176
0.12320	0.96742
0.07220	1.09496
0.22521	1.01843
0.12320	1.04394
0.14870	0.40625
0.19971	0.73785
0.12320	-0.18043
0.17421	-0.00188
0.25071	0.20219
0.07220	-1.65988
0.12320	-0.28246
0.17421	-0.10391
0.14870	-0.02739
0.17421	-0.28246
0.12320	-0.35899
0.14870	-0.46102
0.19971	0.10015
0.12320	-1.17523
0.07220	0.07465
0.14870	0.58480
0.14870	0.45726
0.17421	0.45726
0.22521	0.55929
0.09770	0.55929
0.14870	0.53379
0.12320	0.61031
0.09770	0.48277
0.17421	0.53379
0.09770	0.40625
0.12320	0.07465
0.19971	0.07465
0.07220	-0.58856
0.25071	-0.86914
0.14870	0.66132
0.14870	0.50828
0.22521	0.61031
0.07220	0.15117
0.12320	-0.00188
0.19971	0.38074
0.09770	0.38074
0.25071	-0.15492
0.19971	-0.94566
0.07220	0.22769
0.12320	0.25320
0.12320	0.27871
0.14870	0.15117
0.19971	0.15117
0.09770	0.17668
0.22521	0.25320
0.04670	0.43176
0.17421	-0.38449
0.09770	0.10015
0.22521	0.78886
0.09770	0.40625
0.22521	0.15117
0.09770	-1.14973
0.22521	0.04914
0.04670	0.50828
0.19971	-0.12942
0.07220	0.71234
0.22521	0.63582
0.09770	0.45726
0.22521	0.30422
0.07220	0.15117
0.22521	0.02363
0.07220	0.35523
0.25071	-0.10391
0.07220	-0.41000
0.19971	0.10015
0.09770	-1.83844
0.19971	-0.23145
0.17421	0.66132
0.14870	1.06945
0.22521	0.86539
0.14870	0.76336
0.12320	-0.58856
0.14870	0.35523
0.09770	0.17668
0.22521	0.20219
0.07220	-0.05289
0.19971	0.30422
0.12320	0.02363
0.17421	-0.12942
0.09770	-0.07840
0.17421	0.22769
0.17421	-0.07840
0.14870	0.30422
0.12320	0.22769
0.17421	0.02363
0.19971	0.35523
0.14870	0.30422
0.25071	0.25320
0.12320	0.35523
0.19971	0.22769
0.09770	-0.18043
0.19971	0.22769
0.04670	0.07465
0.17421	0.04914
0.12320	-0.18043
0.17421	0.63582
0.04670	0.20219
0.17421	-0.20594
0.17421	0.27871
0.14870	0.45726
0.17421	-0.05289
0.07220	0.83988
0.22521	-0.58856
0.07220	0.53379
0.19971	0.32972
0.12320	-0.30797
0.09770	0.07465
0.04670	0.45726
0.17421	0.40625
0.07220	0.30422
0.14870	-1.02219
0.12320	0.35523
0.22521	0.40625
0.07220	0.53379
0.22521	-0.28246
0.09770	0.12566
0.22521	0.25320
0.09770	0.15117
0.22521	0.43176
0.07220	0.35523
0.25071	0.20219
0.12320	-0.38449
0.19971	-0.43551
0.09770	0.48277
0.17421	0.35523
0.04670	0.35523
0.22521	0.58480
0.07220	0.76336
0.14870	-1.40480
0.14870	-0.51203
0.17421	0.61031
0.07220	0.50828
0.27621	0.53379
0.07220	0.27871
0.25071	0.04914
0.07220	0.22769
0.19971	0.25320
0.09770	0.07465
0.17421	0.17668
0.14870	-0.02739
0.14870	0.04914
0.12320	0.12566
0.04670	0.07465
0.17421	-0.41000
0.07220	0.40625
0.19971	0.76336
0.09770	-0.12942
0.14870	-0.86914
0.17421	0.45726
0.19971	0.78886
0.04670	0.63582
0.22521	0.63582
0.17421	0.17668
0.19971	-0.20594
0.17421	0.12566
0.17421	0.40625
0.17421	-0.15492
0.14870	0.12566
0.14870	0.20219
0.09770	-0.05289
0.17421	-0.23145
0.07220	0.04914
0.12320	0.55929
0.17421	0.63582
0.09770	-0.51203
0.22521	-0.23145
0.09770	0.50828
0.14870	0.83988
0.17421	-1.91496
0.09770	0.73785
0.17421	0.76336
0.12320	0.38074
0.17421	0.07465
0.12320	0.35523
0.19971	0.32972
0.25071	0.22769
0.07220	0.22769
0.19971	0.40625
0.07220	0.99292
0.14870	-2.14453
0.12320	-0.56305
0.22521	0.22769
0.09770	0.61031
0.22521	0.15117
0.12320	1.01843
0.14870	0.10015
0.07220	0.55929
0.14870	0.45726
0.17421	0.25320
0.19971	0.17668
0.07220	-0.02739
0.22521	0.17668
0.04670	-0.02739
0.25071	-0.46102
0.17421	-0.05289
0.12320	0.20219
0.12320	0.15117
0.14870	0.20219
0.14870	0.10015
0.17421	0.07465
0.14870	0.30422
0.09770	0.32972
0.14870	0.35523
0.12320	0.27871
0.17421	0.32972
0.17421	-0.23145
0.19971	-0.10391
0.14870	0.38074
0.09770	0.68683
0.19971	0.04914
0.04670	0.02363
0.09770	0.15117
0.09770	0.12566
0.02119	0.35523
0.19971	-0.51203
0.17421	0.25320
0.17421	0.48277
0.14870	0.32972
0.17421	0.53379
0.17421	-0.97117
0.17421	0.20219
0.12320	0.12566
0.12320	0.40625
0.12320	0.83988
0.19971	0.40625
0.09770	-1.68539
0.19971	0.22769
0.22521	0.55929
0.09770	0.58480
0.19971	0.48277
0.02119	0.58480
0.12320	0.73785
0.19971	-0.35899
0.09770	-1.07320
0.22521	0.55929
0.17421	0.02363
0.12320	0.30422
0.19971	0.58480
0.09770	0.27871
0.12320	0.27871
0.17421	-0.07840
0.22521	-0.00188
0.09770	0.12566
0.09770	0.27871
0.14870	0.22769
0.12320	-0.53754
0.12320	0.27871
0.14870	0.25320
0.07220	0.27871
0.22521	0.17668
0.07220	0.17668
0.19971	0.17668
0.07220	0.12566
0.19971	0.17668
0.09770	0.27871
0.25071	0.20219
0.17421	0.04914
0.14870	0.22769
0.14870	-0.10391
0.09770	0.22769
0.12320	0.40625
0.09770	-0.61406
0.19971	0.25320
0.07220	0.32972
0.22521	0.40625
0.09770	0.12566
0.14870	0.32972
0.14870	0.15117
0.17421	0.15117
0.14870	-0.15492
0.19971	0.48277
0.07220	-0.84363
0.22521	0.43176
0.09770	0.20219
0.22521	0.10015
0.09770	-0.35899
0.22521	0.66132
0.14870	0.83988
0.14870	-0.81812
0.07220	-1.07320
0.07220	0.76336
0.17421	1.04394
0.04670	0.78886
0.12320	0.53379
0.17421	0.35523
0.14870	0.22769
0.17421	0.10015
0.17421	-0.12942
0.25071	-0.12942
0.09770	-0.05289
0.14870	-0.48652
0.17421	-0.10391
0.04670	0.07465
0.19971	0.07465
0.07220	0.10015
0.12320	0.30422
0.14870	0.25320
0.14870	0.45726
0.14870	-0.05289
0.12320	-0.05289
0.14870	0.50828
0.07220	0.45726
0.22521	0.30422
0.12320	0.48277
0.12320	0.25320
0.22521	0.20219
0.14870	0.15117
0.17421	-0.05289
0.25071	-0.25695
0.09770	0.10015
0.12320	0.15117
0.19971	0.25320
0.07220	0.17668
0.12320	0.43176
0.17421	-0.12942
0.14870	-0.33348
0.27621	-0.10391
0.12320	1.19699
0.25071	-3.01179
0.14870	0.40625
0.12320	1.63062
0.12320	-0.00188
0.17421	0.71234
0.07220	0.73785
0.22521	0.53379
0.09770	0.25320
0.22521	0.10015
0.07220	-0.00188
0.27621	-0.12942
0.07220	-0.07840
0.19971	0.02363
0.07220	0.10015
0.22521	-0.25695
0.07220	-0.02739
0.19971	-0.46102
0.17421	0.40625
0.14870	0.32972
0.12320	0.48277
0.12320	0.35523
0.14870	0.22769
0.14870	0.10015
0.09770	0.45726
0.14870	0.20219
0.12320	0.17668
0.09770	0.04914
0.19971	0.25320
0.12320	0.25320
0.19971	0.10015
0.22521	0.10015
0.17421	-0.02739
0.14870	0.12566
0.09770	0.20219
0.07220	0.17668
0.02119	0.07465
0.19971	0.25320
0.09770	0.15117
0.17421	0.48277
0.14870	0.71234
0.22521	-1.43031
0.12320	0.10015
0.22521	-0.38449
0.04670	0.40625
0.12320	0.83988
0.12320	0.83988
0.14870	0.63582
0.17421	-0.33348
0.17421	0.12566
0.12320	0.10015
0.17421	-0.35899
0.12320	0.55929
0.07220	0.43176
0.19971	0.20219
0.12320	0.12566
0.19971	-0.02739
0.22521	0.10015
0.09770	0.07465
0.12320	-0.56305
0.14870	0.10015
0.17421	0.66132
0.25071	0.40625
0.07220	-0.84363
0.17421	0.30422
0.04670	0.50828
0.19971	0.66132
0.09770	0.53379
0.19971	0.32972
0.14870	0.38074
0.14870	0.15117
0.17421	0.25320
0.09770	-0.02739
0.14870	0.02363
0.04670	-0.12942
0.22521	-0.00188
0.07220	0.02363
0.22521	0.07465
0.17421	0.15117
0.22521	0.15117
0.14870	0.25320
0.07220	0.32972
0.22521	0.07465
0.07220	-0.05289
0.12320	0.40625
0.09770	-0.43551
0.17421	0.43176
0.09770	0.43176
0.22521	0.40625
0.12320	0.38074
0.09770	0.17668
0.25071	0.22769
0.07220	0.02363
0.14870	-0.00188
0.09770	0.02363
0.12320	0.04914
0.12320	0.12566
0.12320	0.15117
0.19971	-0.05289
0.12320	-0.07840
0.22521	0.30422
0.12320	0.30422
0.19971	0.32972
0.04670	0.10015
0.25071	0.10015
0.07220	0.04914
0.22521	0.10015
0.02119	0.22769
0.19971	0.32972
0.07220	0.22769
0.14870	0.20219
0.09770	0.02363
0.22521	0.10015
0.19971	-0.10391
0.19971	0.27871
0.12320	0.15117
0.19971	0.32972
-0.05531	0.15117
-0.02981	0.58480
0.55673	0.35523
0.37822	0.04914
0.07220	-0.53754
0.02119	-1.07320
0.07220	0.35523
0.14870	0.66132
0.09770	-0.15492
0.19971	-0.23145
0.14870	0.94191
0.17421	0.86539
0.22521	0.71234
0.12320	0.96742
0.25071	-0.15492
0.07220	-2.24656
0.22521	0.22769
0.09770	0.43176
0.22521	0.45726
0.09770	0.30422
0.17421	0.17668
0.14870	0.15117
0.14870	0.10015
0.14870	0.02363
0.12320	0.12566
0.09770	-0.05289
0.12320	0.07465
0.09770	0.04914
0.19971	0.10015
0.14870	0.15117
0.14870	0.22769
0.12320	0.25320
-0.13181	0.15117
0.32721	0.25320
0.32721	0.30422
0.73524	0.25320
0.19971	0.04914
-0.10631	0.25320
-0.28482	0.43176
0.02119	0.27871
-0.00431	-0.07840
0.09770	0.07465
0.17421	0.15117
0.12320	0.15117
0.04670	0.27871
0.27621	0.04914
0.81175	0.07465
-0.23382	0.43176
-0.28482	-0.00188
0.02119	-0.25695
0.73524	-1.35379
-0.28482	0.61031
-0.46334	0.66132
0.55673	1.09496
1.01576	1.96222
0.19971	0.40625
-0.41233	-1.09871
0.02119	-3.49644
0.22521	0.20219
-0.15732	0.61031
0.35272	2.67644
-1.81492	0.76336
0.22521	-1.83844
2.36734	2.75296
0.73524	2.80397
0.60773	-0.28246
0.50573	-2.11902
-0.18282	-0.00188
-0.74385	-4.59327
-0.51434	1.22250
-0.08081	-0.53754
-0.10631	1.78367
0.02119	3.13558
0.14870	3.92632
0.48022	0.76336
0.30171	0.27871
0.53123	-8.44494
0.27621	-3.52195
0.09770	2.54890
0.14870	2.44687
0.48022	3.64573
0.37822	1.29902
-0.18282	-1.53234
0.40372	-0.30797
-0.18282	1.01843
-0.20832	0.94191
0.60773	2.42136
0.32721	-6.55737
-0.02981	0.32972
-0.38683	-0.89465
-0.00431	-0.30797
-0.61635	2.80397
0.14870	4.23241
0.96476	2.62542
0.86275	-2.93527
0.73524	-3.08831
0.60773	2.77847
-0.23382	-0.48652
-0.64185	2.16628
-0.28482	2.95702
0.32721	7.29334
0.40372	-7.62869
0.86275	-12.93431
0.60773	0.12566
-0.18282	3.72225
-0.31033	0.63582
0.04670	1.42656
-0.38683	2.14077
0.04670	2.75296
0.22521	-0.35899
0.14870	1.91120
0.27621	1.65613
0.30171	2.01323
0.19971	2.70194
0.12320	-9.61830
0.02119	-1.17523
-0.15732	0.30422
-0.05531	-0.15492
0.32721	0.89089
0.32721	0.04914
0.19971	2.54890
0.22521	-0.23145
0.19971	3.26312
0.12320	1.19699
0.14870	0.53379
0.17421	0.66132
0.22521	-5.35850
0.32721	2.72745
0.19971	3.16108
0.12320	-4.64429
0.12320	-1.17523
0.14870	2.01323
-0.18282	2.21730
-0.08081	0.48277
0.22521	-3.24136
0.32721	2.54890
0.30171	-2.39961
0.19971	3.82429
0.12320	-1.99148
0.25071	-3.98109
0.02119	-1.88945
-0.08081	-0.66508
-0.15732	0.17668
-0.23382	2.52339
0.02119	1.42656
0.12320	0.02363
0.50573	0.27871
0.45472	1.47757
0.35272	0.15117
0.32721	3.00804
0.07220	-3.11382
0.04670	0.15117
-0.10631	-0.23145
-0.05531	-0.99668
0.07220	1.65613
0.17421	0.40625
0.12320	-0.43551
0.25071	0.17668
0.09770	0.12566
0.27621	1.86019
0.07220	1.37554
0.30171	1.52859
0.45472	-3.47093
0.30171	1.47757
0.02119	-1.94047
-0.00431	-0.02739
0.14870	-2.83324
0.07220	0.58480
-0.02981	3.26312
0.07220	2.62542
0.27621	0.76336
0.07220	0.89089
0.30171	0.45726
0.32721	0.22769
0.12320	-0.05289
0.07220	1.88570
0.07220	-1.58336
0.19971	-4.26167
0.12320	0.15117
0.19971	1.57960
0.09770	1.68163
-0.13181	-3.75152
0.27621	1.04394
0.02119	2.08976
0.17421	-4.05761
0.40372	-0.30797
0.45472	2.03874
0.25071	3.23761
0.09770	-2.39961
0.12320	0.30422
0.17421	1.27351
0.19971	-1.68539
-0.08081	-1.22625
0.02119	0.45726
0.02119	0.76336
-0.23382	0.76336
0.12320	0.40625
0.17421	0.63582
0.27621	1.06945
0.14870	-0.07840
0.27621	-2.17003
0.19971	-1.20074
0.19971	1.73265
0.30171	-1.30277
0.09770	3.90081
0.22521	-4.74632
0.22521	-3.67499
0.07220	4.97213
0.14870	2.80397
-0.02981	-4.77183
0.02119	-3.06281
-0.10631	3.16108
0.12320	0.81437
-0.00431	3.00804
0.32721	3.41616
0.35272	1.60511
0.22521	-1.60887
0.25071	1.17148
0.09770	-0.76711
0.12320	-2.14453
0.04670	-1.94047
0.09770	-1.20074
0.25071	0.71234
0.30171	0.91640
0.30171	0.30422
0.14870	1.27351
-0.08081	-0.12942
-0.15732	1.52859
0.14870	0.10015
0.40372	-4.05761
0.37822	0.32972
0.09770	0.61031
0.25071	1.55410
-0.13181	2.26831
0.04670	0.86539
0.19971	-0.15492
0.14870	2.37034
0.12320	-0.79262
0.22521	-4.51675
0.22521	-4.51675
-0.05531	2.06425
0.12320	1.52859
0.17421	2.88050
0.32721	2.85499
0.30171	1.01843
0.19971	-5.35850
0.22521	-0.61406
0.04670	-1.48133
0.17421	-0.43551
0.12320	2.01323
-0.00431	1.50308
0.07220	1.12046
0.09770	-0.28246
0.19971	1.40105
0.17421	-0.20594
0.14870	-0.66508
0.17421	-1.60887
0.22521	0.55929
0.04670	-3.44542
0.27621	-0.15492
0.02119	0.73785
0.09770	1.12046
0.25071	1.22250
0.30171	0.53379
0.09770	0.35523
0.17421	-2.70570
-0.05531	0.38074
0.19971	0.73785
0.30171	1.12046
0.12320	2.57441
0.22521	-1.99148
0.22521	-3.29238
-0.00431	1.19699
-0.00431	1.91120
0.17421	-0.10391
0.35272	-0.76711
0.19971	-0.94566
0.09770	2.08976
0.07220	2.37034
0.09770	-1.25176
0.25071	0.04914
0.04670	0.20219
0.12320	0.17668
0.17421	1.37554
0.12320	-0.38449
0.12320	-0.99668
0.09770	0.40625
0.02119	-0.63957
0.19971	0.15117
0.14870	-1.30277
0.25071	1.29902
0.12320	-0.76711
0.27621	-0.61406
0.09770	1.17148
0.30171	1.57960
0.09770	4.13038
0.17421	1.27351
0.12320	-3.57296
0.02119	-2.19554
0.19971	2.29382
0.14870	-3.44542
0.12320	1.78367
0.09770	2.70194
0.27621	-1.71090
0.17421	-1.91496
0.17421	2.29382
0.17421	1.70714
0.12320	0.35523
0.22521	0.15117
0.09770	-2.57816
0.19971	1.42656
-0.05531	0.63582
0.09770	-0.81812
0.30171	1.52859
0.22521	-1.22625
0.22521	0.81437
0.02119	-0.48652
0.09770	0.99292
-0.08081	-0.20594
0.19971	1.01843
0.22521	0.83988
0.19971	0.91640
0.27621	-1.55785
0.09770	0.78886
0.19971	0.66132
0.14870	-1.88945
0.14870	-3.36890
0.22521	0.32972
-0.05531	0.17668
0.17421	1.01843
0.07220	1.27351
0.30171	1.96222
0.30171	2.77847
0.35272	-0.71609
0.17421	0.50828
0.19971	-0.23145
0.02119	-0.12942
0.12320	0.25320
0.12320	-0.84363
0.07220	0.04914
0.27621	-3.54745
-0.05531	-0.63957
0.14870	1.19699
0.09770	2.26831
0.12320	0.45726
0.19971	-1.27726
0.25071	2.39585
0.19971	-0.51203
0.27621	0.68683
0.32721	-0.12942
0.04670	-0.86914
-0.00431	1.37554
-0.05531	0.27871
-0.13181	1.14597
0.04670	1.01843
0.35272	0.83988
0.32721	0.02363
0.37822	-0.02739
0.09770	0.78886
0.07220	1.47757
0.09770	-1.68539
-0.02981	0.45726
0.17421	-0.61406
0.12320	-1.58336
0.07220	0.38074
-0.18282	0.96742
0.07220	1.80917
0.19971	0.50828
0.32721	0.91640
0.42922	1.17148
0.17421	0.76336
0.12320	-1.07320
0.17421	0.22769
0.04670	0.43176
0.12320	-1.17523
0.19971	0.30422
0.12320	0.48277
0.19971	-1.50683
0.19971	0.53379
0.12320	1.37554
0.09770	-0.74160
0.09770	-0.58856
-0.08081	1.19699
0.07220	1.55410
0.02119	1.42656
0.27621	-2.96078
0.32721	-0.71609
0.22521	1.14597
0.14870	1.52859
-0.00431	1.83468
0.22521	0.27871
0.17421	-5.99620
0.19971	1.83468
0.25071	2.11527
0.07220	-0.99668
0.09770	-3.39441
-0.02981	0.89089
0.02119	1.47757
0.22521	0.89089
0.32721	-0.38449
0.35272	1.73265
0.09770	-0.58856
0.04670	-3.13933
-0.00431	-0.74160
0.04670	1.12046
0.12320	0.81437
0.09770	2.75296
0.30171	1.14597
0.32721	-5.43503
0.35272	-1.07320
-0.08081	1.47757
-0.05531	0.96742
0.12320	1.70714
0.19971	1.52859
0.19971	0.73785
0.09770	-0.00188
0.09770	2.59991
0.12320	0.55929
0.17421	-4.97589
0.19971	1.80917
0.17421	-0.92016
0.19971	-2.32308
0.14870	0.94191
0.04670	-0.00188
0.07220	0.45726
0.22521	1.37554
0.17421	1.52859
0.12320	2.01323
0.09770	0.30422
-0.00431	-0.53754
0.17421	-0.53754
0.19971	-0.23145
0.30171	-1.73640
0.32721	-0.84363
0.09770	0.96742
0.04670	3.18659
0.17421	-0.58856
0.07220	0.30422
0.04670	-0.33348
-0.08081	0.83988
0.12320	0.48277
0.25071	-0.15492
0.19971	-0.92016
0.27621	0.12566
0.25071	0.58480
0.40372	1.98773
0.07220	-0.07840
0.09770	-0.23145
0.12320	-0.92016
0.09770	0.83988
0.25071	-1.09871
0.17421	-0.53754
0.07220	1.17148
0.02119	1.35003
-0.13181	0.86539
0.02119	1.55410
0.30171	3.56921
0.37822	-0.84363
0.40372	-7.19506
0.25071	-2.27207
-0.00431	1.29902
0.09770	2.19179
0.02119	1.57960
0.12320	1.75816
0.22521	1.52859
0.25071	1.88570
0.17421	-3.08831
0.12320	-0.97117
0.02119	0.68683
-0.10631	0.02363
0.22521	0.63582
0.22521	-0.41000
0.35272	0.91640
0.32721	-1.43031
0.14870	-0.02739
0.02119	-0.58856
0.02119	1.55410
0.09770	-0.07840
0.27621	-0.18043
0.27621	-1.07320
0.14870	1.73265
0.14870	0.07465
-0.00431	1.55410
-0.13181	0.94191
0.14870	-2.88425
0.37822	0.38074
0.02119	0.07465
0.09770	2.19179
0.07220	1.45206
0.40372	0.07465
0.25071	-0.35899
0.09770	0.12566
0.09770	0.99292
0.07220	-0.10391
0.14870	0.32972
0.19971	1.37554
0.22521	-0.00188
0.22521	-1.22625
-0.02981	-2.27207
-0.05531	-1.02219
0.04670	0.25320
0.25071	1.29902
0.40372	1.78367
0.27621	1.17148
0.12320	-3.31788
0.12320	1.55410
0.04670	2.08976
0.17421	-0.58856
0.02119	1.27351
0.17421	0.78886
0.19971	0.83988
0.07220	0.45726
0.17421	-2.29757
0.27621	-0.30797
0.02119	-0.41000
0.12320	0.48277
0.12320	0.50828
0.17421	-0.58856
0.12320	1.14597
0.30171	0.83988
0.12320	-0.48652
0.07220	-0.00188
0.27621	0.12566
0.02119	0.25320
0.14870	-1.09871
0.02119	2.08976
0.04670	1.12046
0.12320	-0.25695
0.17421	1.86019
0.19971	-1.91496
0.09770	0.71234
0.14870	-0.66508
0.27621	-0.25695
0.22521	0.55929
0.12320	-0.84363
0.02119	-0.35899
0.02119	-0.58856
0.02119	0.81437
0.35272	0.25320
0.45472	0.32972
0.30171	0.40625
0.07220	-0.46102
0.09770	0.53379
-0.02981	0.91640
0.12320	-1.48133
0.25071	-0.15492
0.14870	0.45726
0.07220	0.86539
0.14870	0.96742
0.09770	-1.58336
0.07220	-1.32828
0.02119	2.70194
0.14870	0.63582
-0.00431	-4.77183
0.30171	-0.05289
0.09770	1.96222
0.40372	0.83988
0.14870	2.29382
0.27621	-1.71090
0.25071	1.04394
0.07220	0.86539
0.09770	0.40625
0.04670	1.63062
0.14870	-0.00188
0.14870	-1.73640
0.07220	-0.69059
0.02119	0.40625
0.22521	0.22769
0.32721	-0.07840
0.27621	-0.20594
0.25071	0.12566
0.12320	0.50828
0.09770	0.22769
0.07220	1.42656
-0.00431	0.02363
0.07220	-1.78742
0.07220	-0.99668
0.25071	0.15117
0.04670	1.40105
0.22521	1.12046
0.09770	0.96742
0.27621	1.75816
0.25071	1.22250
0.25071	-0.92016
0.27621	-0.51203
-0.05531	-0.38449
0.09770	1.50308
0.12320	-0.38449
0.14870	-0.33348
0.22521	-0.58856
0.07220	-0.97117
0.17421	-0.02739
0.02119	0.63582
0.09770	0.63582
0.19971	0.55929
0.14870	0.25320
0.22521	0.43176
0.14870	0.76336
0.17421	0.17668
0.22521	-0.46102
0.12320	0.45726
0.17421	-0.00188
-0.00431	-1.68539
0.17421	-4.08312
0.12320	1.42656
-0.05531	0.91640
0.17421	0.73785
0.14870	-0.28246
0.07220	2.52339
0.22521	1.40105
0.27621	0.83988
0.04670	1.42656
0.02119	0.27871
0.17421	-0.02739
0.40372	-0.76711
0.25071	-0.25695
0.17421	-1.12422
0.14870	-0.25695
0.09770	-0.56305
0.07220	-1.04770
-0.02981	0.02363
0.12320	0.68683
0.02119	1.14597
0.04670	1.35003
0.09770	-1.86394
0.27621	-0.41000
0.25071	1.37554
0.09770	0.32972
0.22521	-0.18043
0.19971	1.40105
0.14870	1.17148
0.09770	-1.30277
0.14870	-0.30797
0.09770	0.73785
0.07220	1.96222
0.14870	0.89089
0.09770	-2.29757
0.32721	0.55929
0.14870	0.10015
0.02119	0.58480
0.14870	0.04914
0.25071	0.40625
0.30171	-0.12942
0.09770	0.35523
0.27621	0.38074
0.17421	-2.83324
0.09770	-0.12942
0.02119	1.22250
0.09770	-0.56305
0.07220	0.76336
0.02119	0.53379
0.07220	1.17148
0.17421	2.44687
0.22521	-0.71609
0.19971	0.07465
0.25071	-0.18043
0.09770	-1.22625
0.14870	0.50828
0.09770	0.68683
0.14870	0.86539
0.12320	-0.05289
0.25071	1.12046
0.22521	0.58480
0.14870	-3.19035
0.07220	0.53379
-0.13181	0.30422
0.07220	0.12566
0.12320	0.91640
0.22521	0.81437
0.32721	0.02363
0.30171	1.86019
0.30171	0.71234
0.14870	-2.70570
0.22521	-0.53754
-0.10631	0.58480
0.04670	0.68683
0.02119	0.58480
0.14870	-0.15492
0.09770	0.91640
0.22521	-1.17523
0.17421	0.22769
0.14870	0.89089
0.27621	0.22769
0.17421	0.91640
0.12320	0.58480
0.09770	-1.78742
0.12320	0.78886
0.09770	1.40105
0.09770	0.73785
0.22521	-1.68539
0.19971	0.32972
0.12320	0.76336
0.12320	0.38074
-0.02981	-0.41000
0.12320	-0.18043
0.12320	0.86539
0.09770	-0.30797
0.22521	-0.81812
0.02119	0.61031
0.32721	0.71234
0.12320	-0.38449
0.22521	0.43176
0.07220	0.25320
0.07220	1.09496
0.17421	-0.97117
0.12320	0.27871
0.27621	-0.25695
0.12320	-0.58856
0.22521	-0.35899
-0.08081	0.81437
0.09770	1.12046
-0.00431	1.32453
0.19971	0.25320
0.19971	0.78886
0.14870	-1.02219
0.30171	-1.96597
0.27621	1.73265
0.19971	1.93671
0.09770	0.12566
0.12320	0.58480
0.02119	-1.07320
0.17421	-0.56305
0.02119	0.10015
0.17421	1.32453
0.17421	1.19699
0.19971	0.58480
0.04670	-2.06800
0.17421	0.07465
0.19971	-0.02739
0.14870	0.83988
0.12320	1.17148
0.27621	0.99292
0.09770	1.47757
0.17421	-0.28246
0.30171	-1.83844
0.12320	0.53379
0.22521	-0.51203
-0.00431	0.61031
0.09770	0.66132
0.19971	0.20219
0.12320	-0.05289
0.22521	0.89089
0.09770	0.99292
0.09770	-1.02219
-0.02981	-1.25176
0.14870	-0.61406
0.09770	-0.18043
0.14870	0.94191
0.19971	0.53379
0.32721	1.63062
0.12320	1.42656
0.27621	-2.73121
0.17421	1.06945
0.17421	1.12046
0.14870	-1.58336
0.07220	1.09496
0.12320	-0.61406
0.14870	-0.30797
0.17421	0.53379
0.14870	1.01843
0.17421	2.39585
0.12320	-3.29238
0.09770	-1.94047
-0.13181	-0.00188
0.02119	0.86539
0.25071	1.47757
0.30171	1.17148
0.14870	1.29902
0.27621	0.15117
0.17421	-2.70570
0.27621	-0.58856
-0.00431	0.63582
-0.00431	0.76336
0.07220	1.29902
0.09770	1.52859
0.27621	-0.02739
0.27621	0.63582
0.27621	-1.63437
-0.02981	1.12046
0.12320	-0.92016
0.14870	-0.74160
0.14870	-0.18043
0.25071	0.45726
0.04670	0.61031
0.12320	0.27871
0.07220	1.91120
0.12320	-1.09871
0.14870	0.45726
0.17421	-0.30797
0.07220	0.45726
0.09770	-0.66508
0.22521	-2.57816
0.09770	-0.41000
0.25071	1.63062
0.09770	1.75816
0.14870	1.80917
0.14870	1.75816
0.19971	-1.58336
0.09770	0.17668
0.22521	-0.48652
0.14870	0.35523
0.02119	0.20219
0.19971	0.12566
0.27621	0.32972
0.02119	0.20219
0.09770	0.10015
0.22521	0.53379
0.25071	-1.27726
0.30171	-0.97117
0.14870	0.73785
0.25071	0.96742
0.09770	-0.48652
0.22521	0.99292
-0.08081	-1.27726
-0.05531	-1.17523
-0.15732	1.29902
0.42922	1.04394
0.27621	1.42656
0.35272	1.78367
0.17421	-1.30277
0.14870	0.25320
0.19971	0.99292
0.12320	0.04914
0.17421	0.71234
0.04670	0.20219
0.14870	0.27871
0.02119	-0.20594
-0.00431	-0.02739
0.09770	-2.73121
0.19971	1.37554
0.09770	0.96742
0.30171	-3.67499
0.09770	-2.83324
0.32721	1.14597
0.09770	2.49788
0.30171	2.88050
0.07220	-0.56305
0.22521	-2.52714
0.02119	0.68683
-0.00431	1.32453
0.04670	0.83988
0.17421	0.43176
0.22521	1.35003
0.27621	1.35003
0.30171	-1.53234
-0.00431	-0.25695
0.14870	0.12566
0.02119	0.89089
0.19971	-0.51203
0.12320	-0.58856
0.25071	-0.46102
0.12320	0.25320
0.22521	0.99292
-0.08081	0.76336
-0.02981	-0.56305
0.09770	1.47757
0.22521	-0.69059
0.27621	-0.25695
0.37822	-1.78742
0.25071	0.04914
0.19971	-1.25176
0.09770	1.70714
-0.05531	1.68163
0.02119	1.24800
0.07220	0.25320
0.22521	1.06945
0.07220	1.12046
0.07220	-0.99668
0.32721	-1.35379
0.32721	0.30422
0.27621	-1.17523
0.19971	-0.05289
0.25071	0.04914
0.04670	0.81437
0.12320	-0.71609
-0.08081	1.29902
0.07220	-0.30797
0.02119	-1.35379
-0.05531	-0.15492
0.12320	0.66132
0.19971	1.24800
0.32721	0.25320
0.22521	1.09496
0.27621	-0.20594
0.17421	-1.48133
0.19971	0.99292
0.12320	0.78886
0.17421	1.88570
0.12320	0.32972
0.12320	-0.46102
-0.02981	-0.86914
-0.00431	0.43176
-0.02981	0.07465
0.22521	-0.58856
0.22521	0.45726
0.35272	1.09496
0.27621	-0.46102
0.35272	-1.07320
0.19971	0.48277
-0.02981	0.15117
0.07220	0.04914
-0.00431	-0.56305
0.12320	0.32972
0.12320	1.32453
0.14870	0.12566
0.12320	0.35523
0.32721	-2.24656
0.19971	-0.30797
0.07220	0.71234
0.17421	1.65613
0.02119	0.38074
0.25071	-0.00188
0.17421	0.89089
0.25071	0.38074
0.14870	0.48277
0.30171	0.86539
0.12320	-0.81812
0.02119	0.35523
-0.20832	0.20219
-0.00431	-0.25695
0.19971	-0.15492
0.32721	0.40625
0.19971	-1.43031
0.22521	-0.84363
0.12320	0.15117
0.07220	1.24800
-0.00431	1.42656
-0.00431	0.48277
0.17421	-0.30797
0.19971	-0.71609
0.09770	1.17148
0.17421	-2.17003
0.07220	0.50828
0.12320	0.83988
0.25071	1.45206
0.22521	0.76336
0.14870	-0.25695
0.19971	0.63582
0.14870	0.25320
0.14870	-0.51203
0.25071	1.09496
0.12320	0.27871
0.27621	-0.25695
0.04670	1.47757
0.19971	-1.48133
-0.00431	0.02363
0.07220	-0.20594
0.09770	-0.53754
-0.02981	0.55929
0.17421	0.68683
0.17421	0.20219
0.07220	-0.23145
0.09770	-0.07840
0.22521	1.35003
0.04670	1.24800
0.32721	-0.10391
0.22521	1.75816
0.40372	-0.53754
0.17421	-3.24136
0.14870	-1.99148
0.12320	1.27351
0.07220	1.17148
-0.02981	0.68683
0.07220	1.65613
0.07220	1.68163
-0.02981	-0.92016
0.17421	-0.05289
0.09770	0.40625
0.27621	-1.30277
0.22521	-0.86914
0.19971	0.45726
0.25071	0.27871
0.14870	0.20219
0.25071	0.76336
0.14870	-0.18043
-0.02981	0.30422
0.12320	-0.05289
0.12320	-0.71609
0.17421	-0.46102
0.19971	1.96222
0.25071	-1.76191
0.09770	0.83988
0.22521	-0.28246
0.09770	0.68683
0.12320	1.12046
0.09770	0.99292
0.04670	1.32453
0.02119	0.02363
0.07220	-0.71609
0.14870	-0.56305
0.30171	0.68683
0.22521	0.76336
0.32721	-1.27726
0.17421	0.32972
0.17421	-0.05289
0.02119	-0.25695
0.17421	0.66132
0.04670	0.10015
0.22521	0.20219
0.04670	0.86539
0.14870	-0.02739
0.02119	-1.48133
0.19971	1.06945
0.12320	1.52859
0.37822	0.12566
0.25071	0.12566
0.22521	1.40105
0.14870	-1.58336
0.09770	-0.66508
0.02119	0.20219
0.02119	1.09496
0.02119	-0.05289
0.27621	1.09496
-0.02981	0.48277
0.04670	-0.99668
0.19971	-0.61406
0.27621	1.70714
0.32721	0.12566
0.27621	-1.02219
0.14870	0.32972
0.02119	0.73785
0.04670	0.63582
0.17421	0.89089
0.22521	-0.33348
0.14870	-1.55785
0.19971	1.47757
0.09770	-0.76711
0.14870	0.43176
0.02119	-0.10391
0.02119	-0.28246
0.04670	0.20219
0.32721	0.81437
0.27621	-0.69059
0.35272	0.89089
0.14870	-0.00188
0.19971	-0.81812
-0.05531	0.63582
-0.00431	0.63582
0.14870	0.32972
0.25071	1.09496
0.22521	-0.81812
0.12320	0.15117
0.17421	-0.53754
0.14870	1.24800
0.12320	-0.30797
0.22521	0.86539
0.04670	-1.45582
0.17421	-0.33348
0.27621	0.94191
0.22521	0.63582
0.17421	0.50828
0.14870	0.22769
0.19971	-0.43551
-0.02981	1.27351
-0.05531	1.52859
-0.02981	-1.30277
0.22521	-3.31788
0.09770	-0.56305
0.07220	0.89089
0.17421	1.47757
0.07220	1.29902
0.30171	1.06945
0.30171	0.81437
0.32721	-0.89465
0.14870	0.55929
0.22521	-1.60887
0.14870	1.14597
0.07220	-0.28246
0.17421	-1.96597
0.17421	1.35003
0.09770	-0.35899
0.09770	0.76336
-0.02981	0.10015
0.07220	0.81437
-0.00431	0.22769
0.30171	-0.02739
0.22521	1.24800
0.32721	-0.25695
0.17421	0.25320
0.17421	-0.51203
0.22521	0.73785
0.04670	-1.55785
0.14870	-1.35379
0.07220	0.61031
0.09770	1.55410
0.25071	1.40105
0.17421	0.78886
0.12320	1.06945
-0.08081	-2.62918
0.19971	1.57960
0.25071	0.61031
0.19971	-0.15492
0.17421	0.17668
0.14870	0.12566
0.12320	0.96742
0.19971	0.15117
0.14870	-0.05289
0.12320	0.76336
0.02119	0.38074
0.22521	-0.00188
0.14870	-0.00188
0.27621	-0.05289
0.14870	0.22769
0.22521	-1.07320
0.07220	0.48277
0.22521	1.52859
0.09770	-2.90976
0.09770	-0.58856
-0.10631	0.17668
-0.02981	0.25320
0.09770	1.57960
0.27621	2.06425
0.32721	0.40625
0.32721	-0.25695
0.12320	0.76336
-0.00431	-1.20074
0.04670	0.50828
0.09770	1.45206
0.25071	-0.48652
0.25071	-1.45582
0.25071	-0.10391
0.30171	0.99292
0.09770	1.24800
0.14870	-0.51203
0.07220	0.78886
0.25071	-1.88945
-0.00431	-1.12422
-0.00431	0.76336
0.07220	1.09496
0.07220	1.06945
0.07220	-0.41000
-0.00431	0.61031
0.32721	-0.89465
0.22521	0.27871
0.37822	-0.05289
0.17421	-0.00188
0.17421	0.58480
0.14870	-0.41000
0.19971	1.17148
0.09770	-0.02739
0.12320	-0.51203
0.12320	-0.46102
0.07220	0.71234
0.12320	0.99292
0.12320	0.02363
0.32721	-0.10391
0.22521	-1.91496
0.22521	0.63582
-0.10631	1.32453
0.07220	0.81437
0.12320	0.81437
0.22521	-0.63957
0.27621	-0.05289
0.14870	0.83988
0.09770	0.76336
0.04670	-0.43551
0.19971	-0.10391
0.25071	-1.50683
0.19971	-1.25176
-0.00431	0.55929
0.14870	0.94191
0.09770	1.68163
0.22521	0.15117
0.02119	0.86539
0.02119	-0.56305
-0.13181	0.32972
0.09770	0.32972
0.17421	0.81437
0.32721	-2.09351
0.27621	0.45726
0.35272	0.61031
0.09770	-0.48652
0.17421	-0.63957
0.02119	0.50828
0.12320	0.45726
0.14870	0.81437
0.12320	-0.25695
0.12320	0.20219
0.12320	1.35003
0.14870	-0.02739
0.32721	0.48277
0.12320	1.14597
0.02119	0.22769
-0.02981	0.35523
-0.13181	-2.57816
0.14870	-0.56305
0.30171	1.24800
0.27621	0.63582
0.32721	1.09496
0.14870	0.07465
0.25071	0.40625
0.19971	-0.86914
-0.00431	0.71234
0.09770	-0.97117
-0.02981	-1.02219
0.22521	0.76336
0.22521	1.09496
0.27621	0.15117
-0.02981	-0.20594
0.04670	-0.63957
0.04670	0.94191
0.19971	-0.66508
0.25071	1.35003
0.19971	-0.33348
0.27621	0.94191
0.19971	-0.92016
-0.00431	0.53379
0.02119	-0.71609
0.07220	1.35003
0.14870	-1.71090
0.25071	1.24800
-0.05531	1.06945
0.04670	-0.41000
0.32721	-0.97117
0.27621	0.83988
0.35272	1.40105
0.19971	0.07465
0.19971	0.45726
-0.02981	0.48277
-0.10631	0.10015
0.22521	-2.09351
0.14870	-0.02739
0.17421	0.35523
0.14870	1.55410
0.17421	-1.25176
-0.02981	-0.28246
0.14870	1.35003
-0.02981	1.19699
0.17421	-0.56305
0.30171	-1.20074
0.19971	1.09496
0.22521	1.09496
0.30171	0.55929
0.17421	-0.46102
0.04670	0.61031
0.17421	-0.51203
0.17421	0.61031
0.07220	-0.56305
-0.00431	1.09496
-0.10631	1.55410
0.17421	-1.53234
0.09770	-0.18043
0.45472	1.45206
0.35272	0.35523
0.22521	-0.28246
0.22521	0.76336
0.14870	-2.06800
0.12320	1.22250
0.09770	0.89089
0.22521	-1.02219
-0.00431	0.10015
-0.00431	-0.20594
0.04670	-0.07840
0.12320	0.45726
0.09770	0.50828
0.07220	0.40625
0.12320	0.55929
0.27621	0.02363
0.17421	0.45726
0.19971	-0.07840
0.14870	1.57960
0.22521	-1.04770
0.19971	-0.05289
0.14870	0.50828
0.19971	-2.80773
0.02119	1.55410
0.14870	1.12046
0.12320	0.12566
0.27621	0.27871
0.12320	1.04394
0.22521	0.27871
0.04670	0.45726
-0.00431	0.15117
-0.13181	-0.38449
0.27621	0.55929
0.25071	1.98773
0.25071	-1.37929
0.30171	-2.37410
0.22521	-0.81812
0.35272	0.55929
0.12320	0.71234
0.17421	0.45726
0.04670	1.09496
-0.00431	0.27871
0.04670	1.45206
0.30171	-1.63437
0.25071	0.91640
-0.02981	1.01843
-0.00431	0.91640
0.22521	0.50828
0.12320	0.04914
0.09770	-0.51203
0.14870	0.48277
0.14870	-0.20594
0.17421	0.73785
0.25071	0.27871
0.09770	-0.76711
0.04670	0.30422
0.14870	0.66132
0.22521	0.04914
0.25071	0.15117
0.27621	0.50828
-0.05531	-0.76711
0.19971	0.63582
0.17421	0.68683
0.12320	-0.12942
0.12320	0.78886
0.17421	-0.76711
0.42922	0.71234
0.07220	0.76336
0.17421	1.17148
0.07220	0.25320
-0.00431	-1.71090
0.09770	-0.46102
0.14870	0.48277
0.04670	0.55929
0.12320	-0.41000
0.27621	0.07465
0.12320	0.50828
0.02119	1.65613
0.07220	-0.58856
0.12320	-0.84363
0.22521	-0.28246
0.14870	-0.41000
0.17421	0.71234
0.04670	0.99292
0.12320	0.94191
0.14870	0.15117
0.14870	0.81437
0.12320	-1.50683
0.27621	0.55929
0.07220	0.45726
0.12320	0.12566
0.12320	-0.00188
0.19971	-0.63957
0.30171	1.52859
0.27621	0.55929
0.07220	-3.06281
0.09770	0.71234
0.09770	1.50308
0.19971	1.14597
0.02119	1.40105
0.04670	1.12046
0.12320	0.10015
0.12320	-0.00188
0.09770	-0.41000
0.09770	-1.02219
0.27621	0.58480
0.25071	0.20219
0.04670	-1.12422
-0.00431	0.30422
0.22521	0.35523
0.25071	0.04914
0.37822	1.47757
0.14870	0.04914
0.09770	-0.41000
0.12320	0.40625
-0.00431	0.04914
0.02119	1.09496
-0.00431	-0.33348
-0.02981	0.15117
0.14870	0.04914
0.22521	1.83468
0.42922	-2.83324
0.37822	0.40625
0.27621	-0.12942
0.07220	0.96742
0.17421	0.55929
0.02119	0.55929
0.14870	1.27351
0.07220	1.27351
0.12320	0.20219
0.14870	-1.25176
0.14870	0.61031
0.14870	0.17668
0.14870	-2.17003
0.07220	-0.41000
0.12320	0.55929
0.17421	0.10015
0.12320	0.40625
0.09770	-0.74160
0.27621	0.63582
0.19971	1.17148
0.35272	-0.00188
0.12320	1.86019
0.17421	0.89089
-0.05531	-2.55265
0.07220	-1.45582
0.02119	-1.12422
0.19971	2.19179
0.04670	1.68163
0.45472	1.60511
0.32721	0.63582
0.32721	0.94191
-0.00431	0.66132
0.02119	-0.79262
-0.10631	-1.35379
-0.08081	-0.02739
0.12320	0.35523
0.14870	-0.02739
0.14870	0.43176
0.17421	-0.48652
0.30171	0.76336
0.19971	-3.26687
0.14870	0.32972
0.19971	0.07465
-0.00431	1.27351
0.19971	1.91120
0.12320	-0.76711
0.19971	-0.05289
0.32721	0.53379
0.17421	1.17148
0.09770	1.14597
0.09770	-1.48133
0.09770	0.22769
0.09770	0.71234
0.02119	-0.53754
0.07220	-1.20074
0.19971	0.91640
0.27621	-0.00188
0.40372	0.17668
0.14870	0.25320
0.17421	0.55929
0.17421	0.45726
0.14870	0.30422
0.17421	-1.17523
0.19971	0.10015
0.14870	0.50828
0.12320	0.32972
0.07220	0.63582
0.14870	-0.63957
0.09770	-0.63957
0.04670	-0.25695
0.07220	-1.30277
0.30171	0.71234
0.17421	1.06945
0.27621	2.03874
0.27621	1.06945
0.04670	-1.12422
0.14870	1.63062
0.09770	-0.58856
0.07220	-0.69059
0.17421	0.96742
0.09770	-2.55265
0.09770	1.27351
-0.00431	0.55929
0.19971	-0.18043
0.22521	0.35523
0.25071	0.10015
0.27621	0.38074
0.22521	0.43176
0.19971	0.25320
0.25071	0.38074
0.09770	-0.12942
0.19971	0.25320
0.07220	-0.56305
0.04670	0.96742
-0.33583	0.45726
-0.08081	-1.37929
0.37822	-1.60887
0.40372	0.66132
0.27621	1.22250
0.25071	1.37554
0.12320	0.81437
0.14870	0.89089
0.07220	-1.02219
0.17421	-0.10391
0.09770	0.40625
0.14870	1.12046
0.14870	0.53379
0.19971	-1.60887
0.02119	-0.56305
0.25071	-0.71609
0.12320	0.66132
0.32721	0.96742
0.02119	1.19699
0.12320	-0.97117
0.09770	0.96742
0.19971	0.22769
0.19971	-0.51203
0.17421	-0.15492
0.04670	0.71234
0.02119	0.40625
0.14870	-1.43031
0.17421	-0.56305
0.27621	0.83988
-0.02981	1.27351
0.07220	0.32972
0.09770	1.09496
0.02119	-0.53754
0.27621	0.25320
0.30171	0.76336
0.30171	-0.61406
0.09770	0.50828
0.17421	-2.14453
-0.02981	0.25320
0.17421	1.42656
0.09770	-0.02739
0.19971	1.68163
-0.10631	-1.35379
0.14870	1.04394
0.19971	-0.18043
0.22521	0.43176
0.27621	0.40625
0.07220	-0.69059
0.07220	0.71234
0.12320	0.25320
0.12320	-0.58856
-0.00431	0.45726
0.22521	-0.02739
0.12320	0.10015
0.30171	0.55929
0.19971	-0.69059
0.14870	-0.41000
0.02119	0.76336
0.12320	0.20219
-0.05531	0.81437
0.14870	1.55410
-0.00431	-1.27726
0.37822	-3.01179
0.22521	1.29902
0.19971	1.50308
-0.08081	1.45206
0.02119	-0.63957
0.14870	0.07465
0.35272	-0.84363
0.19971	1.55410
0.35272	-0.35899
0.12320	-1.12422
0.07220	1.73265
-0.13181	-0.05289
0.17421	0.40625
0.19971	0.15117
0.25071	0.32972
0.09770	0.50828
0.19971	0.86539
0.12320	-0.99668
0.19971	0.22769
0.09770	0.12566
0.17421	-2.11902
0.07220	0.53379
0.22521	0.83988
0.22521	0.61031
0.14870	0.71234
-0.02981	1.42656
0.07220	-1.22625
0.14870	-1.99148
0.02119	1.52859
0.17421	0.12566
0.32721	0.02363
0.14870	0.73785
0.22521	1.86019
0.25071	0.96742
0.17421	-3.01179
0.17421	-0.66508
0.09770	1.40105
0.19971	-0.76711
-0.00431	0.55929
0.17421	0.63582
0.09770	0.48277
0.12320	0.58480
0.02119	0.48277
0.07220	0.50828
0.19971	-0.86914
0.25071	-1.60887
0.35272	0.38074
0.27621	0.12566
0.14870	0.58480
-0.02981	0.30422
0.12320	0.27871
0.09770	0.12566
0.30171	-0.28246
0.12320	1.42656
0.17421	-1.55785
0.04670	1.22250
0.02119	1.06945
-0.08081	-1.25176
0.09770	1.04394
0.09770	1.17148
0.30171	0.35523
0.30171	-1.09871
0.30171	0.22769
0.30171	0.66132
0.30171	0.55929
0.19971	-0.02739
0.07220	-0.15492
0.02119	0.48277
0.09770	0.55929
0.07220	-1.04770
0.07220	2.16628
0.07220	-1.65988
0.02119	-1.20074
0.22521	-0.48652
0.27621	0.17668
0.12320	1.75816
0.19971	2.88050
0.19971	-0.35899
0.12320	-2.90976
0.07220	-0.23145
0.17421	1.06945
0.07220	1.14597
0.22521	0.48277
0.19971	0.12566
0.19971	0.30422
0.22521	0.48277
0.04670	-0.00188
0.02119	-0.76711
0.12320	-1.73640
0.14870	0.50828
0.07220	0.50828
0.30171	0.35523
0.14870	0.07465
0.32721	-0.46102
0.32721	0.22769
0.22521	0.53379
0.12320	0.89089
-0.05531	0.45726
-0.02981	-0.18043
-0.02981	-1.60887
0.27621	-0.89465
0.22521	-0.10391
0.22521	1.04394
0.19971	2.37034
0.09770	1.63062
0.14870	-2.39961
0.14870	-0.94566
-0.00431	0.45726
0.30171	0.86539
0.12320	1.63062
0.12320	0.63582
-0.13181	-1.37929
0.07220	-0.41000
0.14870	-0.05289
0.32721	0.17668
0.35272	0.53379
0.27621	0.89089
0.14870	-1.53234
-0.08081	0.35523
0.27621	0.45726
0.17421	0.35523
0.25071	-0.46102
0.17421	-0.79262
0.04670	-1.22625
0.04670	0.78886
0.17421	1.12046
0.27621	1.78367
0.07220	0.22769
0.14870	0.35523
0.07220	-1.68539
0.12320	0.38074
0.02119	1.06945
0.17421	1.09496
0.17421	0.22769
0.19971	-1.65988
0.22521	0.17668
0.17421	-0.81812
0.09770	0.43176
0.02119	0.86539
0.25071	1.06945
0.27621	-0.51203
0.32721	-2.04250
0.12320	0.40625
0.19971	0.55929
0.07220	0.48277
0.02119	-0.51203
0.17421	1.60511
0.09770	-0.56305
0.07220	-0.07840
0.27621	-0.05289
0.14870	0.76336
0.07220	0.83988
0.04670	0.63582
0.19971	0.10015
0.17421	0.89089
0.07220	-1.58336
0.22521	1.06945
0.19971	-1.48133
0.27621	-0.12942
0.32721	-0.58856
0.12320	-0.48652
0.30171	1.12046
0.19971	0.71234
-0.00431	1.35003
0.09770	0.22769
-0.08081	-0.84363
-0.08081	-1.37929
0.25071	0.53379
0.30171	0.43176
0.25071	1.45206
0.30171	0.35523
0.12320	0.63582
0.17421	-0.18043
0.19971	0.76336
0.22521	-0.35899
0.17421	-1.91496
0.14870	0.40625
0.04670	0.45726
0.07220	2.06425
0.07220	-3.39441
0.02119	0.94191
0.19971	0.45726
0.04670	-0.30797
0.17421	0.30422
0.32721	0.66132
0.25071	0.12566
0.27621	0.96742
0.27621	-0.30797
0.25071	-0.05289
0.09770	0.12566
-0.18282	0.81437
-0.08081	0.45726
-0.00431	-1.55785
0.17421	0.07465
0.35272	0.71234
0.35272	1.93671
0.27621	-2.01699
0.19971	0.50828
0.07220	0.45726
0.25071	0.66132
0.09770	1.01843
0.04670	-0.15492
0.09770	0.50828
0.07220	0.45726
0.17421	0.63582
0.17421	0.45726
0.19971	-0.00188
0.22521	-0.41000
0.14870	-0.12942
-0.00431	0.25320
-0.13181	-0.35899
0.22521	0.53379
0.02119	-0.84363
0.35272	0.38074
0.45472	0.89089
0.22521	-0.97117
0.19971	0.40625
0.02119	-0.07840
0.12320	1.29902
0.19971	1.32453
0.09770	-0.20594
0.17421	0.35523
-0.02981	0.53379
0.02119	0.55929
0.12320	-0.69059
0.12320	-0.20594
0.09770	1.12046
-0.05531	-1.27726
0.07220	0.68683
0.14870	0.45726
0.55673	-2.22105
0.45472	0.76336
0.32721	0.71234
0.09770	0.04914
0.12320	-0.35899
0.02119	0.35523
-0.00431	0.53379
-0.00431	0.68683
0.07220	0.63582
0.30171	-0.28246
0.14870	-0.00188
0.09770	-0.69059
-0.02981	1.37554
0.19971	-0.81812
0.12320	-0.05289
0.32721	-0.74160
0.14870	1.27351
0.02119	0.66132
0.09770	0.76336
-0.08081	-0.02739
0.30171	-0.10391
0.04670	-0.74160
0.19971	1.55410
0.27621	-0.15492
0.22521	0.73785
0.35272	0.04914
0.07220	0.07465
0.04670	1.22250
0.02119	-1.17523
0.22521	-0.35899
0.17421	-0.30797
0.09770	0.48277
0.22521	1.47757
0.09770	0.81437
0.14870	0.04914
0.22521	-0.79262
0.19971	-0.92016
0.07220	0.07465
-0.00431	0.78886
0.14870	0.58480
0.04670	1.37554
0.17421	-0.23145
0.14870	0.32972
0.37822	0.96742
0.27621	-0.63957
0.14870	-0.89465
0.04670	0.45726
0.14870	0.25320
0.25071	-0.33348
0.02119	0.15117
0.02119	0.96742
0.02119	0.53379
0.09770	-0.35899
0.27621	-0.92016
0.19971	1.24800
0.17421	-0.05289
0.09770	-0.10391
0.25071	0.76336
0.09770	0.12566
0.14870	0.55929
0.14870	0.58480
0.19971	-0.10391
0.17421	0.63582
0.14870	0.27871
0.14870	0.96742
-0.05531	0.38074
0.22521	-0.38449
0.12320	-0.38449
0.19971	-0.58856
0.30171	-0.05289
0.09770	0.78886
0.07220	-0.20594
-0.05531	0.12566
0.17421	1.12046
0.19971	0.83988
0.25071	-0.51203
0.42922	-2.29757
0.02119	-1.25176
0.02119	1.22250
0.17421	1.04394
0.30171	1.63062
0.25071	0.61031
0.25071	0.63582
0.09770	0.73785
0.12320	-0.43551
-0.10631	-0.43551
0.14870	-0.25695
-0.00431	0.35523
0.17421	0.66132
0.19971	-0.84363
0.22521	0.27871
0.12320	-0.00188
0.14870	0.07465
0.12320	-0.66508
0.04670	0.53379
0.22521	-0.18043
0.17421	0.27871
0.30171	0.96742
0.17421	0.61031
0.30171	-0.30797
0.12320	-1.81293
0.19971	0.78886
0.02119	-0.07840
0.14870	-1.12422
-0.00431	1.09496
0.14870	0.78886
0.04670	1.40105
-0.13181	-0.15492
-0.05531	-0.25695
0.17421	0.81437
0.37822	1.01843
