0.12320	0.25320
0.12320	0.10015
0.14870	0.04914
0.19971	0.17668
0.17421	-0.35899
0.14870	0.02363
0.14870	-0.18043
0.12320	0.07465
0.12320	0.30422
0.14870	0.32972
0.17421	0.27871
0.12320	0.10015
0.12320	0.12566
0.14870	0.25320
0.22521	0.22769
0.09770	0.15117
0.04670	0.25320
0.12320	0.07465
0.58223	0.20219
0.04670	0.10015
0.04670	0.10015
0.12320	0.30422
0.02119	-0.86914
0.19971	0.30422
0.04670	0.32972
0.22521	0.40625
0.19971	0.22769
0.17421	0.20219
0.14870	0.12566
0.14870	0.20219
0.14870	0.17668
0.14870	0.25320
0.14870	-0.00188
0.14870	0.04914
0.17421	0.50828
0.07220	-1.81293
0.19971	-0.25695
0.09770	0.99292
0.17421	1.04394
0.12320	0.94191
0.12320	0.35523
0.12320	0.07465
0.14870	-0.05289
0.07220	0.04914
0.19971	0.12566
0.04670	0.02363
0.22521	0.22769
0.19971	-0.20594
0.14870	-0.05289
0.12320	0.20219
0.14870	-0.28246
0.12320	-0.63957
0.12320	-0.20594
0.09770	-0.00188
0.07220	0.76336
0.25071	0.91640
0.07220	0.71234
0.19971	0.71234
0.07220	0.48277
0.22521	-0.15492
0.19971	-0.35899
0.17421	0.12566
0.12320	-0.10391
0.22521	0.12566
0.09770	-0.15492
0.09770	0.43176
0.17421	-0.12942
-0.05531	0.15117
0.37822	0.38074
0.42922	0.30422
0.07220	0.55929
0.07220	-0.89465
-0.05531	0.07465
0.12320	0.20219
0.12320	0.25320
0.12320	0.20219
0.14870	0.27871
0.09770	0.20219
0.27621	0.12566
0.14870	0.15117
0.19971	0.25320
0.12320	0.04914
0.17421	0.15117
0.19971	0.17668
0.12320	0.48277
0.22521	0.40625
0.07220	-0.71609
0.22521	0.38074
0.12320	0.76336
0.12320	-1.12422
0.12320	-0.43551
0.04670	-0.05289
0.17421	0.99292
0.17421	0.66132
0.14870	-0.05289
0.22521	0.66132
0.14870	0.61031
0.04670	0.25320
0.19971	-0.02739
0.09770	-0.07840
0.12320	-0.07840
0.14870	0.04914
0.09770	0.07465
0.14870	-0.07840
0.25071	-0.12942
0.09770	-0.05289
0.09770	-0.38449
0.22521	0.25320
0.07220	0.35523
0.02119	0.27871
0.65874	0.48277
0.12320	0.53379
-0.02981	0.81437
0.02119	-0.74160
0.09770	-0.23145
0.04670	0.32972
0.14870	0.25320
0.17421	0.17668
0.09770	0.17668
0.14870	0.32972
0.09770	0.04914
0.17421	0.22769
0.12320	0.10015
0.14870	0.17668
0.14870	0.22769
0.17421	0.20219
0.17421	-0.51203
0.17421	-0.99668
0.14870	0.40625
0.12320	0.32972
0.22521	0.48277
0.07220	0.48277
0.19971	0.63582
0.07220	0.32972
0.19971	0.07465
0.12320	0.17668
0.22521	-0.07840
0.07220	-0.84363
0.17421	0.40625
0.09770	0.61031
0.14870	0.45726
0.12320	-0.92016
0.22521	0.48277
0.12320	-0.07840
0.22521	0.63582
0.09770	-0.05289
0.19971	0.48277
0.12320	0.96742
0.14870	-0.66508
0.12320	0.32972
0.17421	0.10015
0.17421	0.10015
0.14870	0.07465
0.12320	0.07465
0.12320	0.12566
0.19971	0.22769
0.07220	-0.07840
0.14870	0.15117
0.53123	0.04914
0.19971	0.04914
-0.05531	-0.00188
0.07220	0.35523
-0.02981	0.22769
0.12320	0.17668
0.12320	0.30422
0.14870	0.32972
0.27621	0.25320
0.14870	0.35523
0.19971	0.07465
0.19971	-0.48652
0.19971	0.20219
0.14870	0.22769
0.12320	0.27871
0.22521	0.55929
0.12320	0.32972
0.09770	0.25320
0.02119	-0.05289
0.22521	0.20219
0.14870	0.12566
0.14870	0.22769
0.14870	-0.46102
0.14870	-0.02739
0.19971	0.04914
0.14870	0.07465
0.22521	0.25320
0.12320	0.17668
0.19971	0.32972
0.12320	0.20219
0.19971	0.15117
0.07220	0.04914
0.30171	0.30422
0.09770	0.22769
0.14870	0.25320
0.09770	0.12566
0.12320	0.15117
0.12320	-0.46102
0.14870	0.27871
0.12320	0.27871
0.14870	0.32972
0.07220	-0.05289
0.19971	0.43176
0.12320	0.32972
0.14870	0.04914
0.22521	0.61031
0.09770	-0.46102
0.14870	-0.58856
0.12320	0.61031
0.09770	0.25320
0.17421	0.25320
0.12320	-0.10391
0.07220	-0.35899
0.17421	0.78886
0.14870	-0.02739
0.12320	0.43176
0.19971	0.48277
0.07220	0.22769
0.19971	0.10015
0.09770	0.12566
0.14870	0.04914
0.17421	0.07465
0.14870	-0.07840
0.14870	-0.07840
0.04670	0.38074
0.22521	0.35523
0.14870	-0.15492
0.17421	-0.05289
0.22521	0.02363
0.07220	-0.02739
0.12320	0.50828
0.12320	0.61031
0.17421	0.45726
0.14870	0.45726
0.17421	0.22769
0.12320	0.12566
0.22521	0.10015
0.12320	-0.25695
0.12320	-0.07840
0.14870	0.15117
0.17421	0.32972
0.07220	0.12566
0.22521	0.40625
0.09770	-0.63957
0.14870	-0.05289
0.14870	0.30422
0.09770	0.45726
0.19971	-0.51203
0.17421	0.40625
0.25071	0.50828
0.09770	0.76336
0.14870	-0.76711
0.12320	0.27871
0.19971	0.45726
0.14870	0.17668
0.14870	-0.05289
0.12320	0.32972
0.09770	0.32972
0.19971	0.35523
0.07220	0.04914
0.19971	0.22769
0.09770	-0.05289
0.09770	-0.07840
0.07220	0.45726
0.14870	-0.18043
0.09770	-0.58856
0.22521	0.40625
0.09770	0.27871
0.17421	0.30422
-0.08081	0.30422
0.37822	0.30422
0.42922	0.22769
0.09770	0.25320
-0.05531	0.25320
0.09770	0.17668
0.07220	0.02363
0.17421	0.02363
0.09770	0.10015
0.19971	0.25320
0.12320	0.20219
0.17421	0.02363
0.22521	0.04914
0.12320	0.15117
0.17421	0.32972
0.12320	0.12566
0.07220	0.12566
0.17421	0.15117
0.14870	0.20219
0.09770	0.48277
0.25071	-0.38449
0.09770	0.30422
0.09770	-0.25695
0.09770	-0.48652
0.12320	-0.07840
0.17421	0.86539
0.14870	0.48277
0.22521	0.86539
0.12320	-0.15492
0.17421	0.02363
0.14870	0.25320
0.14870	0.66132
0.14870	0.50828
0.14870	0.45726
0.14870	-0.69059
0.14870	0.12566
0.04670	0.02363
0.22521	-1.02219
0.14870	0.15117
0.12320	0.32972
0.19971	0.43176
0.14870	0.20219
0.17421	0.25320
0.19971	0.38074
0.09770	0.10015
0.12320	0.12566
0.22521	0.22769
0.07220	0.15117
0.12320	0.55929
0.14870	-0.69059
0.09770	0.20219
0.22521	0.22769
0.04670	0.53379
0.14870	-0.23145
0.12320	0.32972
0.07220	0.25320
0.19971	0.35523
0.09770	0.27871
0.22521	0.25320
0.12320	0.10015
0.12320	0.20219
0.12320	0.20219
0.12320	0.04914
0.17421	0.04914
0.09770	-0.10391
0.22521	0.02363
0.12320	0.25320
0.14870	0.50828
0.19971	-0.28246
0.12320	-0.46102
0.22521	-0.41000
0.09770	0.55929
0.17421	0.96742
0.12320	0.43176
0.12320	-0.02739
0.12320	0.50828
0.12320	0.12566
0.14870	0.20219
0.14870	0.15117
0.12320	0.53379
0.17421	0.22769
0.14870	-0.53754
0.14870	-0.28246
0.14870	0.35523
0.12320	0.12566
0.14870	0.27871
0.17421	0.15117
0.19971	0.17668
0.22521	0.22769
0.07220	0.17668
0.19971	0.15117
0.12320	-0.05289
0.12320	0.35523
0.17421	0.27871
0.02119	0.40625
0.19971	-0.23145
0.09770	-0.25695
0.14870	0.22769
0.14870	0.35523
0.09770	0.35523
0.22521	0.40625
0.09770	0.10015
0.17421	0.32972
0.12320	0.04914
0.12320	0.04914
0.22521	-0.10391
0.09770	0.10015
0.19971	0.32972
0.09770	0.15117
0.12320	0.38074
0.14870	0.25320
0.22521	-0.48652
0.07220	0.07465
0.19971	0.17668
0.07220	0.78886
0.17421	-0.25695
0.22521	-0.33348
0.09770	0.07465
0.12320	0.71234
0.04670	0.61031
0.22521	0.50828
0.07220	0.35523
0.17421	0.30422
0.17421	0.02363
0.19971	0.10015
0.04670	-1.04770
0.17421	-0.00188
0.14870	0.20219
0.12320	0.35523
0.19971	0.40625
0.12320	0.15117
0.17421	-0.33348
0.17421	0.27871
0.09770	0.32972
0.22521	0.35523
0.09770	0.15117
0.17421	0.12566
0.14870	0.17668
0.09770	0.10015
0.19971	0.20219
0.04670	0.12566
0.09770	-0.00188
0.17421	0.25320
0.14870	0.12566
0.19971	0.20219
0.07220	-0.00188
0.14870	0.10015
0.14870	0.30422
0.14870	0.35523
0.27621	0.07465
0.07220	-0.18043
0.22521	0.50828
0.07220	0.35523
0.22521	0.32972
0.07220	0.15117
0.22521	-0.56305
0.09770	0.22769
0.22521	0.35523
0.09770	0.27871
0.22521	0.22769
0.07220	0.40625
0.19971	0.30422
0.09770	-0.71609
0.25071	0.20219
0.14870	-0.07840
0.17421	-0.25695
0.22521	0.61031
0.07220	0.43176
0.12320	0.45726
0.17421	0.25320
0.14870	-0.02739
0.19971	0.25320
0.07220	0.12566
0.14870	0.66132
0.17421	-1.07320
0.14870	-0.02739
0.14870	0.12566
0.07220	0.30422
0.25071	-0.10391
0.12320	0.20219
0.19971	0.53379
0.07220	0.35523
0.19971	0.02363
0.04670	0.20219
0.12320	0.20219
0.12320	0.12566
0.12320	0.25320
0.12320	0.20219
0.22521	0.48277
0.07220	-0.56305
0.12320	0.15117
0.27621	0.15117
0.09770	0.17668
0.22521	0.30422
0.09770	0.17668
0.09770	0.15117
0.09770	0.04914
0.17421	0.02363
0.09770	0.10015
0.25071	0.10015
0.14870	0.17668
0.12320	0.15117
0.12320	0.25320
0.07220	0.17668
0.09770	0.02363
0.22521	0.25320
0.09770	0.15117
0.22521	0.50828
0.12320	0.17668
0.14870	0.04914
0.22521	-1.14973
0.07220	0.38074
0.17421	0.50828
0.04670	0.50828
0.12320	0.38074
0.17421	0.12566
0.14870	0.17668
0.12320	0.30422
0.14870	0.04914
0.22521	0.17668
0.04670	-0.28246
0.17421	-0.12942
0.04670	0.15117
0.14870	0.15117
0.14870	0.20219
0.12320	0.35523
0.09770	0.38074
0.25071	0.17668
0.17421	-0.05289
0.14870	-0.71609
0.17421	-0.25695
0.04670	0.76336
0.12320	0.53379
0.17421	-0.18043
0.04670	0.30422
0.17421	0.94191
0.07220	0.78886
0.17421	0.32972
0.25071	-0.56305
0.14870	-0.89465
0.19971	0.45726
0.12320	0.35523
0.12320	0.38074
0.12320	0.17668
0.12320	0.27871
0.17421	-0.07840
0.19971	0.07465
0.17421	0.12566
0.14870	0.15117
0.12320	-0.05289
0.17421	0.40625
0.07220	-0.12942
0.19971	-0.43551
0.07220	0.55929
0.22521	0.50828
0.07220	-0.20594
0.17421	0.32972
0.07220	0.35523
0.14870	0.40625
0.14870	0.35523
0.17421	0.20219
0.19971	0.22769
0.09770	-0.00188
0.19971	0.15117
0.07220	-0.07840
0.14870	0.02363
0.14870	0.07465
0.14870	0.07465
0.14870	0.15117
0.22521	0.20219
0.19971	0.22769
0.14870	0.40625
0.09770	0.30422
0.14870	-0.71609
0.14870	0.38074
0.12320	-0.43551
0.14870	0.38074
0.12320	0.76336
0.22521	0.78886
0.12320	-0.28246
0.17421	0.15117
0.22521	0.25320
0.02119	0.17668
0.12320	0.20219
0.22521	0.32972
0.07220	0.02363
0.14870	-0.05289
0.25071	0.04914
0.07220	0.04914
0.14870	0.35523
0.14870	0.04914
0.09770	0.15117
0.14870	0.25320
0.12320	-1.65988
0.07220	-0.15492
0.17421	1.04394
0.12320	1.01843
0.09770	1.04394
0.17421	-0.48652
0.19971	0.35523
0.09770	0.25320
0.14870	0.22769
0.25071	0.04914
0.07220	-0.07840
0.12320	0.10015
0.22521	-0.00188
0.04670	-0.00188
0.14870	0.10015
0.22521	0.02363
0.07220	0.02363
0.14870	0.35523
0.14870	0.17668
0.14870	-0.00188
0.22521	-0.15492
0.17421	0.22769
0.09770	0.35523
0.22521	0.43176
0.07220	0.25320
0.14870	0.55929
0.12320	-0.63957
0.17421	0.27871
0.12320	0.40625
0.12320	-0.15492
0.12320	0.30422
0.12320	0.35523
0.12320	0.20219
0.17421	0.20219
0.19971	0.04914
0.12320	0.20219
0.19971	0.17668
0.22521	0.07465
0.12320	0.10015
0.12320	0.07465
0.19971	0.10015
-0.15732	0.07465
0.30171	0.07465
0.40372	0.15117
0.25071	0.25320
0.14870	0.15117
0.04670	0.35523
-0.02981	0.32972
0.12320	0.27871
0.12320	-0.33348
0.12320	-0.00188
0.19971	0.22769
0.12320	0.25320
0.02119	0.25320
-0.15732	0.30422
0.17421	0.12566
0.35272	-0.00188
0.25071	0.17668
0.12320	0.07465
-0.05531	-0.38449
0.40372	0.25320
0.40372	0.30422
-0.25932	0.32972
-0.31033	-0.00188
0.93925	0.22769
0.93925	0.15117
-0.46334	0.20219
0.12320	0.17668
0.32721	0.25320
-0.36133	0.12566
-0.00431	0.12566
-0.13181	-0.46102
-0.18282	0.12566
0.42922	0.22769
0.99026	0.45726
-0.59084	0.30422
-0.10631	0.30422
0.25071	0.20219
0.45472	0.22769
0.32721	0.02363
0.22521	-0.00188
0.48022	0.25320
0.19971	0.15117
0.07220	0.10015
0.02119	0.15117
-0.02981	-0.76711
0.04670	0.17668
0.04670	0.61031
0.02119	0.55929
0.19971	-0.10391
0.04670	-0.00188
0.22521	0.38074
0.07220	0.20219
0.22521	0.20219
0.09770	0.12566
0.09770	0.02363
0.19971	0.15117
0.25071	0.15117
0.09770	-0.05289
-0.33583	0.04914
0.70974	0.04914
0.14870	0.15117
0.73524	0.25320
-0.41233	0.25320
1.75531	-0.05289
-1.71292	0.17668
1.06676	0.12566
1.70430	0.35523
-0.84586	0.20219
-0.97337	0.22769
0.02119	-0.02739
-0.02981	0.10015
-4.87512	0.17668
4.20346	0.15117
2.72437	0.02363
0.73524	0.45726
-3.11551	0.07465
0.22521	0.25320
2.46935	0.27871
1.70430	-0.00188
-1.94243	0.48277
-1.25389	0.02363
-0.51434	0.30422
-0.51434	-0.69059
-0.18282	-0.28246
0.55673	-1.68539
0.58223	1.65613
0.83725	0.96742
0.65874	0.15117
0.30171	1.45206
0.17421	1.22250
0.27621	1.86019
-0.56534	-0.00188
-0.08081	-2.22105
2.39285	-2.09351
0.96476	-0.20594
-0.28482	3.56921
-0.59084	0.15117
-0.79486	-0.51203
-0.71835	-0.28246
-0.25932	4.30893
0.48022	-5.94518
-0.05531	-3.36890
-0.10631	2.49788
-0.13181	3.08456
0.35272	1.09496
0.42922	2.67644
0.50573	2.95702
0.14870	-5.20546
0.63323	-3.59847
0.73524	3.97733
0.58223	3.51819
-0.61635	-2.45062
0.40372	-3.11382
-0.74385	4.71706
0.04670	-1.63437
-0.79486	3.67124
1.24527	3.21210
0.53123	-8.75103
0.30171	-3.06281
-0.23382	-0.48652
-0.18282	2.14077
-0.23382	3.49268
0.65874	1.06945
0.09770	0.15117
0.32721	-0.81812
-0.00431	4.33444
0.78624	2.39585
0.58223	-9.26119
-0.00431	-2.14453
-0.36133	-0.46102
-0.43783	5.68635
-0.28482	6.42608
0.50573	-3.06281
0.53123	-5.56257
0.70974	-3.82804
0.32721	0.07465
0.07220	1.19699
0.14870	6.88521
-0.64185	3.51819
-0.23382	3.13558
-0.31033	-4.31269
1.90832	-0.86914
0.25071	0.86539
-0.15732	1.98773
-0.20832	2.06425
-0.05531	-3.36890
-0.08081	0.48277
-0.31033	-3.52195
-0.20832	-4.03210
0.04670	0.48277
0.45472	-0.05289
0.40372	0.38074
0.53123	0.04914
0.37822	3.77327
0.22521	4.02835
0.19971	-1.48133
0.09770	-4.28718
-0.41233	1.86019
0.32721	2.42136
0.58223	-1.07320
-0.08081	0.86539
0.14870	3.56921
0.40372	-5.56257
0.09770	-1.53234
0.04670	-0.07840
0.12320	-2.29757
-0.00431	1.96222
0.02119	2.34484
0.12320	4.71706
0.12320	-4.54226
0.09770	1.01843
0.40372	-0.61406
0.22521	0.66132
-0.02981	-0.56305
0.12320	-4.33819
0.07220	-2.22105
0.27621	0.78886
0.27621	2.14077
0.30171	3.23761
0.25071	2.62542
0.07220	-0.20594
-0.08081	-2.98628
0.30171	1.86019
0.04670	-1.99148
0.27621	1.09496
0.02119	2.75296
0.09770	0.04914
0.07220	0.81437
-0.00431	-3.03730
0.09770	1.29902
0.19971	-2.27207
0.07220	0.35523
-0.31033	3.72225
0.40372	5.07416
0.86275	-12.88329
0.12320	0.66132
0.09770	0.12566
-0.13181	2.54890
0.17421	2.77847
0.22521	1.17148
0.40372	2.65093
0.04670	-2.17003
0.02119	-0.51203
0.37822	1.60511
-0.08081	-1.48133
0.07220	1.93671
-0.00431	-0.76711
0.02119	0.40625
0.22521	-0.69059
0.17421	-0.07840
0.02119	1.65613
0.19971	-1.53234
0.14870	2.34484
0.07220	3.62022
0.42922	-11.14876
0.30171	-1.63437
0.32721	3.64573
-0.05531	1.93671
0.12320	2.34484
0.02119	0.12566
-0.00431	1.83468
0.27621	2.29382
0.25071	-2.06800
0.19971	1.35003
0.25071	-0.38449
-0.02981	-0.51203
-0.02981	-0.05289
0.19971	-2.29757
-0.00431	-0.18043
0.07220	0.58480
0.07220	-0.63957
-0.02981	0.71234
-0.08081	-2.01699
0.32721	1.96222
0.45472	0.53379
0.35272	2.52339
0.32721	-2.73121
0.32721	-0.46102
-0.02981	1.47757
0.02119	0.89089
-0.00431	-0.12942
-0.20832	0.02363
0.37822	2.11527
0.45472	4.23241
0.07220	-5.86866
-0.13181	-1.76191
-0.15732	1.83468
0.07220	2.29382
0.22521	2.39585
0.30171	4.13038
0.14870	-1.73640
0.25071	3.49268
0.25071	-3.26687
0.25071	-2.57816
0.22521	1.42656
0.07220	0.22769
-0.05531	0.86539
0.30171	1.32453
-0.08081	0.55929
0.40372	1.01843
0.14870	1.65613
0.02119	1.06945
0.04670	0.68683
-0.20832	1.63062
0.02119	-5.33300
0.35272	-2.75671
0.42922	0.94191
0.14870	1.22250
0.22521	1.52859
0.27621	1.78367
0.19971	-2.93527
0.02119	0.53379
-0.33583	-0.05289
-0.28482	0.81437
0.17421	1.40105
0.53123	-0.38449
0.37822	-1.96597
0.32721	-0.10391
0.48022	0.96742
0.04670	3.31413
0.09770	-0.97117
0.02119	3.00804
0.12320	-6.27678
-0.08081	-2.11902
0.07220	2.24281
-0.00431	5.27823
0.14870	0.30422
0.17421	-5.33300
0.30171	0.48277
0.19971	2.29382
0.22521	1.98773
0.07220	1.68163
0.09770	0.20219
-0.05531	1.29902
0.04670	0.63582
0.30171	-4.41472
0.40372	-1.96597
0.40372	-0.41000
0.32721	-0.25695
0.25071	1.98773
-0.10631	2.77847
-0.15732	0.12566
-0.20832	-2.80773
0.19971	0.04914
0.27621	1.17148
0.30171	2.08976
0.19971	0.73785
0.27621	-2.98628
0.09770	2.03874
0.19971	-0.18043
0.09770	1.91120
-0.10631	0.76336
-0.00431	4.30893
0.02119	-4.44022
0.48022	-4.41472
0.30171	-0.74160
0.22521	0.78886
0.12320	-1.73640
0.02119	1.86019
0.04670	0.96742
0.30171	-0.97117
0.17421	1.42656
-0.15732	-0.00188
0.09770	1.17148
0.17421	2.03874
0.45472	0.63582
0.27621	-1.02219
0.32721	-0.25695
-0.00431	1.09496
0.02119	-1.71090
-0.10631	0.30422
0.12320	0.63582
0.22521	1.01843
0.35272	-3.11382
0.22521	1.60511
0.12320	2.80397
0.22521	-3.26687
-0.02981	-2.29757
-0.10631	1.73265
0.02119	2.26831
0.37822	0.86539
0.22521	1.32453
0.14870	1.40105
0.22521	-4.84835
-0.13181	0.38074
0.07220	-0.23145
0.14870	2.08976
0.25071	0.20219
0.25071	-0.38449
0.12320	0.35523
0.50573	1.93671
0.35272	0.78886
0.17421	-1.73640
0.09770	1.86019
0.09770	-3.98109
-0.23382	0.91640
-0.10631	1.27351
-0.05531	-0.20594
0.09770	-1.53234
0.22521	0.55929
0.32721	0.63582
0.42922	-0.23145
0.25071	2.16628
0.14870	0.45726
0.09770	-1.40480
0.27621	0.78886
-0.08081	2.19179
0.07220	-1.68539
-0.02981	1.32453
0.25071	2.59991
0.40372	-2.85874
0.35272	-0.18043
0.19971	-1.07320
0.14870	2.98253
0.07220	-2.39961
0.14870	-1.07320
0.07220	1.17148
-0.08081	-0.35899
0.12320	1.47757
-0.08081	2.03874
0.19971	1.75816
0.17421	-2.34859
0.19971	-0.79262
0.19971	2.80397
0.02119	0.02363
0.09770	-4.46573
0.35272	0.73785
0.12320	1.73265
0.32721	-3.62398
0.35272	0.96742
0.07220	0.96742
0.12320	0.91640
0.09770	0.63582
-0.00431	0.35523
0.22521	0.32972
0.14870	0.10015
0.02119	-0.41000
0.22521	-0.84363
0.09770	-0.89465
0.17421	0.02363
0.04670	1.60511
0.14870	-0.20594
0.22521	-0.61406
0.27621	0.63582
0.22521	0.17668
0.02119	2.24281
-0.10631	1.73265
-0.18282	-1.12422
0.25071	-0.94566
0.02119	0.89089
0.19971	1.32453
0.42922	1.75816
0.25071	1.04394
0.27621	-1.60887
0.02119	-2.60367
0.07220	1.52859
-0.10631	-1.43031
0.02119	1.37554
0.04670	0.38074
0.32721	-0.10391
0.35272	-0.02739
0.42922	-0.51203
0.27621	0.86539
-0.10631	-1.09871
0.04670	0.81437
-0.00431	0.83988
0.04670	1.37554
0.27621	2.59991
0.22521	-0.58856
0.07220	-0.07840
-0.13181	-1.63437
0.35272	1.73265
0.07220	-0.33348
0.14870	-0.92016
0.17421	0.20219
0.14870	1.57960
0.35272	1.32453
0.25071	-1.50683
0.14870	-0.00188
0.17421	2.08976
0.07220	5.48229
0.17421	-11.86298
0.04670	-2.78222
0.02119	1.83468
0.12320	2.90601
-0.02981	3.41616
0.07220	-1.35379
0.22521	2.39585
0.30171	-3.19035
0.37822	1.14597
-0.00431	0.20219
0.07220	-1.02219
-0.13181	2.21730
0.40372	-1.53234
0.19971	-0.05289
0.12320	0.25320
-0.08081	-0.63957
0.35272	0.71234
0.27621	-0.18043
0.30171	-1.86394
0.02119	-1.27726
0.14870	1.42656
-0.13181	-0.46102
0.32721	1.19699
0.17421	0.55929
0.07220	0.83988
0.09770	2.72745
0.30171	-1.91496
0.19971	-0.79262
0.19971	0.76336
-0.10631	0.96742
0.02119	0.71234
-0.10631	3.92632
0.30171	-6.48085
0.32721	0.22769
0.22521	0.32972
0.27621	1.88570
0.25071	0.58480
0.19971	-0.35899
0.17421	0.66132
-0.13181	-4.31269
-0.23382	4.00284
0.19971	-1.30277
0.32721	-1.17523
0.32721	1.42656
0.30171	1.80917
0.09770	1.04394
-0.08081	0.45726
0.02119	0.02363
0.09770	-0.15492
0.22521	0.25320
0.12320	-0.84363
0.09770	0.12566
0.22521	-0.43551
0.09770	0.04914
0.22521	2.01323
0.37822	1.17148
0.17421	-1.45582
0.07220	-0.46102
0.07220	0.25320
0.09770	-0.94566
0.17421	2.19179
0.07220	-2.34859
0.17421	0.45726
0.12320	2.08976
-0.10631	-1.27726
-0.05531	2.65093
0.32721	1.35003
0.30171	-2.39961
0.37822	0.55929
0.04670	1.73265
0.12320	-1.99148
0.22521	0.63582
0.30171	1.47757
0.22521	-1.40480
0.19971	-0.71609
0.19971	0.73785
0.02119	0.40625
0.02119	0.91640
0.14870	0.25320
0.12320	-1.63437
-0.02981	0.15117
-0.02981	-0.35899
-0.08081	0.73785
0.17421	-0.15492
0.37822	-0.18043
0.19971	0.43176
0.35272	0.86539
0.27621	2.08976
0.37822	-1.63437
0.14870	-3.75152
0.07220	1.42656
-0.05531	1.60511
0.19971	-0.23145
0.32721	0.71234
-0.00431	2.67644
0.27621	0.25320
0.12320	-0.71609
0.02119	0.38074
-0.08081	-2.70570
0.17421	-1.43031
0.17421	0.35523
0.14870	1.75816
0.14870	1.17148
0.27621	1.35003
0.22521	0.40625
0.22521	-0.43551
0.02119	-2.90976
-0.02981	0.30422
0.12320	0.58480
0.32721	-0.69059
0.22521	1.14597
0.27621	1.88570
0.14870	-1.17523
0.12320	-2.39961
-0.00431	0.89089
-0.18282	1.29902
0.02119	-1.50683
0.35272	-0.15492
0.30171	2.39585
0.30171	2.01323
0.04670	-1.71090
0.12320	1.63062
0.17421	0.76336
0.02119	0.15117
0.12320	-3.11382
0.25071	0.45726
0.07220	0.48277
0.09770	1.29902
0.12320	2.65093
0.17421	-0.84363
0.30171	0.55929
0.22521	-0.79262
0.12320	-0.15492
0.30171	0.22769
0.17421	-0.56305
0.17421	-2.14453
-0.02981	-0.30797
0.25071	2.90601
-0.08081	-0.18043
0.07220	-2.01699
0.17421	-2.57816
0.07220	1.86019
-0.08081	1.96222
0.32721	0.99292
0.42922	-0.89465
0.32721	0.61031
0.27621	1.14597
0.25071	0.96742
0.12320	1.22250
-0.08081	-2.17003
0.14870	-0.58856
0.19971	1.96222
0.09770	-1.96597
0.14870	-1.76191
-0.10631	0.73785
-0.08081	1.57960
0.02119	1.37554
0.27621	2.03874
0.35272	-0.89465
0.27621	1.98773
0.27621	-0.35899
0.12320	0.76336
0.22521	0.38074
0.17421	-0.66508
0.07220	0.10015
-0.05531	0.45726
0.22521	0.71234
0.09770	0.55929
0.27621	0.55929
0.07220	0.55929
0.22521	-0.12942
0.32721	0.78886
0.12320	-1.63437
0.07220	0.25320
-0.00431	0.76336
-0.10631	1.47757
0.19971	-0.51203
0.25071	-2.37410
0.27621	-0.84363
0.14870	0.10015
0.19971	0.32972
0.37822	1.96222
0.07220	-0.66508
0.07220	0.78886
0.02119	0.76336
0.02119	0.96742
0.19971	-0.41000
0.22521	0.38074
0.12320	-0.02739
0.12320	-0.56305
0.07220	0.20219
0.14870	0.40625
0.27621	1.27351
0.40372	-4.23616
0.19971	-3.62398
0.12320	2.03874
0.07220	2.14077
0.22521	2.44687
0.22521	1.65613
-0.05531	0.15117
-0.05531	-0.76711
-0.02981	-0.12942
0.09770	-0.81812
0.35272	0.35523
0.22521	0.12566
0.09770	0.20219
0.09770	0.66132
0.19971	1.01843
0.30171	-1.45582
0.22521	-0.74160
0.22521	1.45206
0.07220	-0.10391
0.14870	0.61031
0.19971	0.63582
0.07220	1.35003
0.02119	-0.07840
-0.00431	0.50828
0.04670	0.22769
0.25071	2.06425
0.30171	-2.39961
0.04670	-2.68019
0.02119	1.06945
0.09770	1.55410
0.40372	1.29902
0.17421	0.61031
0.02119	0.71234
0.22521	-0.66508
0.32721	0.25320
0.27621	0.58480
0.14870	0.66132
0.07220	-1.68539
0.25071	-1.09871
0.02119	0.25320
-0.05531	1.17148
-0.18282	0.96742
-0.20832	-1.04770
0.07220	0.20219
0.22521	0.63582
0.42922	1.01843
0.48022	1.24800
0.42922	0.89089
0.17421	-0.61406
0.07220	1.06945
0.04670	-0.46102
0.12320	-0.35899
0.19971	-0.92016
0.22521	-0.41000
0.09770	-1.35379
0.02119	0.38074
-0.15732	1.73265
0.02119	1.78367
-0.00431	-2.32308
0.45472	0.99292
0.27621	0.78886
0.19971	0.58480
0.14870	0.32972
0.14870	-0.35899
0.09770	-0.33348
0.14870	1.19699
0.19971	1.01843
0.14870	-0.48652
0.25071	0.61031
0.04670	0.04914
-0.00431	-0.69059
-0.13181	0.73785
0.12320	2.42136
0.35272	-2.27207
0.35272	1.75816
0.37822	-3.52195
-0.02981	-0.33348
0.14870	1.45206
0.07220	0.81437
0.09770	1.57960
0.12320	0.35523
0.07220	1.32453
0.27621	1.60511
0.17421	-0.66508
0.14870	-0.28246
0.07220	-0.05289
-0.13181	-0.86914
-0.02981	0.91640
0.04670	-1.09871
0.22521	1.12046
0.25071	0.61031
0.45472	0.58480
0.30171	0.20219
0.35272	-0.10391
0.02119	0.10015
-0.00431	-1.43031
0.07220	0.55929
0.14870	1.01843
0.14870	1.80917
0.19971	0.55929
0.19971	-1.96597
0.07220	-1.30277
0.12320	-0.48652
-0.00431	1.12046
0.12320	2.01323
0.07220	-2.11902
0.14870	0.38074
0.09770	1.24800
0.32721	2.16628
0.27621	1.01843
0.19971	-3.85355
-0.05531	-0.12942
0.12320	0.10015
-0.05531	0.40625
0.22521	1.63062
0.19971	-0.30797
0.35272	0.89089
0.32721	-0.46102
0.22521	0.22769
0.27621	0.86539
-0.18282	-0.79262
0.02119	0.32972
-0.13181	1.78367
0.30171	-2.57816
0.42922	-1.76191
0.32721	0.48277
0.07220	0.81437
0.12320	1.55410
0.09770	1.57960
0.17421	-0.92016
-0.00431	0.04914
0.17421	0.86539
0.09770	0.20219
0.12320	0.45726
-0.05531	-1.14973
0.09770	0.58480
0.04670	-0.74160
0.27621	-0.94566
0.22521	0.76336
0.19971	1.60511
0.19971	0.86539
0.07220	-0.02739
0.09770	0.63582
0.14870	2.26831
0.30171	-3.44542
0.37822	0.02363
0.22521	-1.02219
0.02119	1.14597
-0.08081	0.27871
0.07220	0.86539
0.02119	1.29902
0.35272	-1.30277
0.19971	-0.35899
0.22521	1.55410
0.27621	0.38074
0.22521	-0.63957
0.14870	0.50828
0.07220	0.22769
0.07220	0.48277
-0.02981	0.63582
-0.08081	-1.68539
-0.02981	-2.32308
0.25071	1.78367
0.32721	0.83988
0.14870	2.03874
0.25071	0.63582
0.48022	0.76336
0.37822	-3.62398
0.14870	0.66132
-0.00431	0.83988
-0.05531	0.68683
-0.10631	1.22250
0.14870	0.22769
0.27621	-0.99668
0.27621	0.35523
0.19971	-1.50683
0.17421	0.22769
-0.05531	0.43176
0.14870	1.14597
0.30171	-1.30277
0.22521	0.43176
0.09770	0.66132
0.02119	0.61031
0.04670	0.73785
0.14870	-2.50164
0.32721	0.61031
0.14870	-0.15492
0.12320	1.29902
0.02119	0.20219
0.25071	2.14077
0.25071	0.25320
0.12320	-1.27726
0.19971	0.76336
-0.02981	-1.55785
0.19971	-0.28246
0.04670	1.42656
-0.15732	0.55929
0.12320	-0.30797
0.37822	1.17148
0.42922	0.50828
0.27621	-0.69059
0.22521	-0.33348
0.04670	0.43176
0.14870	0.73785
0.17421	0.63582
-0.00431	-2.04250
0.07220	0.50828
-0.02981	0.86539
0.17421	-0.71609
0.17421	-0.46102
0.22521	0.66132
0.17421	1.65613
0.12320	0.07465
0.35272	1.24800
0.22521	-0.28246
0.27621	-1.02219
0.09770	0.58480
0.14870	1.37554
0.12320	-2.42511
0.19971	0.76336
0.02119	0.15117
0.02119	0.58480
-0.10631	0.38074
0.09770	0.86539
0.27621	0.40625
0.40372	-1.68539
0.30171	-0.30797
0.14870	1.19699
0.02119	-0.74160
-0.00431	0.27871
0.22521	0.04914
0.12320	-0.41000
0.27621	0.32972
0.25071	1.01843
0.04670	0.48277
0.17421	2.08976
0.17421	0.30422
0.30171	-0.30797
0.19971	-1.73640
0.12320	0.22769
0.07220	-0.71609
0.19971	0.76336
0.12320	1.06945
0.12320	1.37554
0.19971	-0.12942
-0.00431	0.66132
0.09770	-1.22625
0.09770	0.43176
0.12320	0.68683
0.04670	-2.34859
0.12320	0.48277
0.22521	0.10015
0.35272	1.27351
0.37822	-0.84363
0.27621	1.14597
0.27621	-0.28246
-0.00431	2.85499
0.17421	-4.38921
0.09770	1.01843
0.25071	-0.00188
0.14870	1.63062
0.22521	1.42656
0.02119	0.04914
0.04670	0.50828
-0.13181	1.52859
0.02119	-1.40480
0.12320	-0.76711
0.30171	-1.09871
0.40372	0.02363
0.37822	-0.12942
0.25071	0.66132
0.09770	0.81437
-0.02981	-0.20594
-0.20832	-0.71609
0.07220	0.94191
0.04670	1.40105
0.32721	-0.61406
0.32721	0.30422
0.37822	0.78886
0.37822	1.52859
0.25071	-1.50683
0.07220	-1.94047
-0.08081	0.22769
0.07220	0.30422
0.09770	1.35003
0.25071	1.01843
0.12320	1.96222
0.04670	0.35523
0.19971	-0.23145
0.19971	0.63582
0.09770	0.55929
0.17421	-2.68019
0.02119	0.35523
-0.10631	0.73785
0.02119	0.22769
0.17421	0.43176
0.22521	1.12046
0.32721	-0.30797
0.32721	-0.53754
0.19971	-0.30797
0.25071	0.02363
0.07220	0.63582
-0.00431	0.20219
-0.23382	-0.02739
-0.02981	0.89089
0.25071	0.81437
0.35272	-3.13933
0.30171	1.09496
0.37822	-2.50164
0.30171	-0.43551
0.19971	1.68163
0.14870	2.21730
-0.02981	1.65613
-0.02981	-0.86914
-0.00431	0.63582
0.02119	1.06945
-0.00431	-2.27207
0.19971	-0.74160
0.30171	0.12566
0.14870	0.81437
0.22521	0.63582
0.04670	-1.78742
0.30171	-0.05289
0.09770	0.45726
0.30171	1.50308
0.07220	-1.37929
-0.05531	-0.89465
0.19971	-0.10391
0.35272	-0.76711
0.40372	1.22250
0.19971	2.21730
0.09770	2.47238
-0.00431	0.61031
0.02119	-0.86914
0.04670	-1.14973
0.17421	0.83988
0.17421	-0.41000
0.19971	-1.14973
0.09770	0.58480
0.07220	0.76336
0.04670	0.10015
0.09770	0.81437
0.09770	0.04914
0.22521	-0.10391
0.07220	-0.23145
0.12320	2.57441
0.32721	-4.05761
0.17421	-1.37929
0.17421	1.73265
0.22521	-0.33348
0.22521	-0.56305
0.14870	0.63582
0.19971	1.73265
0.04670	1.19699
0.17421	-0.20594
0.09770	-2.09351
0.04670	0.30422
-0.18282	1.24800
0.04670	1.06945
0.27621	-0.25695
0.19971	0.55929
0.19971	0.73785
0.09770	0.32972
0.22521	-0.97117
0.19971	0.55929
0.22521	-0.30797
0.07220	-0.00188
0.12320	0.45726
0.04670	0.25320
0.22521	0.78886
0.27621	-0.18043
0.19971	-0.33348
0.14870	1.27351
0.12320	-1.12422
0.07220	-2.22105
0.07220	-0.23145
-0.05531	-0.41000
0.04670	0.25320
-0.02981	2.21730
0.25071	1.60511
0.32721	1.29902
0.27621	1.14597
0.42922	-0.66508
0.25071	0.78886
0.17421	-0.46102
-0.10631	0.38074
-0.38683	-3.19035
-0.13181	-0.76711
0.37822	-0.56305
0.60773	1.24800
0.32721	-1.02219
0.42922	0.78886
0.17421	0.94191
0.07220	0.63582
-0.08081	0.38074
-0.05531	-1.76191
0.14870	2.29382
0.19971	0.15117
0.22521	-2.42511
0.35272	-0.76711
0.12320	1.27351
0.12320	-0.69059
0.12320	1.32453
0.09770	1.37554
0.04670	0.91640
0.02119	0.68683
0.09770	0.38074
0.27621	0.45726
0.19971	0.99292
0.27621	-2.70570
0.27621	-3.77702
0.14870	1.75816
0.27621	-2.60367
0.22521	1.19699
0.07220	1.55410
-0.08081	1.32453
-0.00431	0.78886
-0.02981	0.45726
0.04670	0.89089
0.25071	-0.15492
0.45472	-1.53234
0.35272	-0.71609
0.09770	0.94191
0.19971	-0.00188
0.12320	-1.07320
0.17421	0.61031
0.09770	0.53379
0.07220	0.66132
0.07220	0.10015
0.14870	-0.20594
0.02119	0.20219
0.09770	0.86539
0.14870	0.30422
0.35272	-1.37929
0.17421	-1.73640
-0.00431	0.30422
0.35272	1.32453
0.09770	0.04914
0.32721	0.96742
0.22521	1.65613
0.12320	0.89089
-0.00431	0.66132
0.09770	-2.34859
0.14870	-0.79262
0.04670	0.35523
0.27621	0.96742
0.07220	0.35523
0.12320	-0.81812
0.25071	-1.04770
0.22521	1.17148
0.17421	0.20219
0.19971	-0.41000
0.17421	0.96742
0.07220	1.52859
0.07220	0.66132
-0.05531	1.19699
0.14870	-2.29757
0.14870	0.27871
0.14870	0.63582
0.14870	0.35523
0.30171	1.24800
0.17421	0.89089
0.42922	-1.48133
0.09770	-0.61406
0.19971	-0.66508
-0.08081	0.86539
0.07220	0.40625
0.04670	-0.28246
0.25071	0.66132
0.12320	0.99292
0.30171	1.22250
0.09770	-0.02739
0.04670	0.20219
0.07220	-3.85355
-0.18282	0.15117
0.42922	0.27871
0.40372	1.12046
0.45472	0.86539
0.32721	1.14597
0.22521	-0.00188
-0.02981	-0.69059
-0.05531	0.91640
-0.10631	1.73265
-0.08081	-2.70570
0.12320	-1.83844
0.07220	1.06945
0.27621	1.12046
0.22521	1.37554
0.35272	0.94191
0.12320	-0.00188
0.22521	-0.02739
0.14870	0.45726
0.02119	0.27871
0.02119	0.02363
0.12320	-0.76711
0.12320	0.50828
0.17421	-1.27726
0.32721	-0.71609
0.25071	1.06945
0.17421	1.57960
0.07220	-1.55785
-0.05531	0.55929
0.19971	0.10015
0.14870	-0.58856
-0.00431	1.04394
0.27621	1.09496
0.35272	-0.10391
0.22521	0.45726
0.14870	-0.92016
0.30171	-0.02739
0.02119	-0.07840
0.14870	0.71234
-0.10631	1.27351
0.04670	-0.18043
0.02119	-0.89465
0.17421	0.17668
0.25071	0.58480
0.27621	-0.63957
0.32721	0.15117
0.17421	0.45726
0.09770	-0.30797
-0.10631	-0.58856
-0.08081	1.01843
0.04670	0.35523
0.42922	-0.56305
0.22521	0.71234
0.22521	0.76336
0.07220	0.78886
0.17421	1.17148
0.19971	-0.20594
0.22521	0.71234
0.19971	0.35523
0.12320	-0.07840
0.19971	-3.16484
-0.00431	1.65613
0.22521	1.45206
0.19971	-0.89465
0.09770	-1.65988
0.19971	0.83988
-0.00431	0.04914
0.09770	0.22769
0.17421	1.42656
0.07220	1.55410
0.09770	1.06945
0.12320	-1.30277
0.19971	-0.84363
0.25071	1.42656
0.14870	-1.91496
0.17421	0.71234
-0.08081	0.86539
0.12320	0.35523
0.14870	0.32972
0.32721	0.66132
0.30171	0.25320
0.25071	-0.84363
0.17421	0.15117
-0.13181	0.02363
0.12320	-0.20594
0.14870	0.35523
0.30171	0.91640
0.30171	-0.15492
0.14870	-1.45582
0.19971	0.61031
-0.05531	1.17148
0.17421	-2.75671
0.04670	-3.52195
0.09770	1.55410
0.12320	2.34484
0.04670	0.89089
0.17421	1.29902
0.12320	1.80917
0.12320	1.55410
0.17421	0.91640
0.25071	-4.33819
0.27621	-0.71609
0.17421	0.45726
0.14870	0.63582
0.27621	0.66132
0.07220	0.32972
0.07220	0.50828
-0.05531	0.02363
-0.13181	0.20219
0.02119	-0.38449
0.22521	0.02363
0.32721	-0.20594
0.25071	-0.43551
0.40372	0.22769
0.14870	0.22769
0.17421	0.38074
0.12320	0.10015
-0.00431	1.42656
0.07220	0.17668
0.27621	1.04394
0.32721	0.83988
0.27621	0.94191
0.12320	0.96742
0.04670	-0.58856
0.07220	-0.86914
0.07220	0.35523
-0.00431	-0.43551
0.17421	-0.76711
0.14870	0.89089
0.30171	-0.58856
0.19971	-0.20594
0.09770	-0.58856
-0.13181	1.17148
-0.02981	-0.58856
0.40372	0.81437
0.40372	1.09496
0.19971	0.35523
0.32721	0.91640
0.02119	0.30422
-0.02981	-2.60367
0.14870	-0.41000
0.17421	1.06945
0.09770	0.17668
0.19971	-0.43551
0.12320	0.35523
0.14870	0.45726
0.14870	0.43176
0.02119	0.66132
0.19971	0.99292
0.04670	-0.41000
0.19971	-0.00188
0.07220	-1.22625
0.07220	1.35003
0.25071	-0.25695
0.25071	1.22250
0.22521	-0.66508
0.07220	-1.43031
0.09770	1.78367
0.04670	0.99292
0.27621	0.35523
0.22521	-0.28246
0.07220	-0.07840
-0.05531	0.48277
0.17421	0.38074
0.19971	0.96742
0.30171	0.17668
0.25071	-1.53234
0.12320	0.73785
0.27621	0.27871
0.02119	-1.37929
-0.02981	0.58480
-0.20832	0.55929
0.09770	-0.94566
0.09770	-1.02219
0.17421	0.43176
0.35272	1.70714
0.25071	2.01323
0.25071	-0.94566
0.04670	-1.99148
0.19971	0.76336
-0.00431	1.27351
0.17421	1.22250
0.09770	0.71234
0.25071	0.50828
0.14870	0.43176
0.25071	-0.35899
0.30171	-0.74160
0.53123	-0.05289
0.40372	-0.05289
0.02119	-1.37929
-0.05531	0.55929
-0.20832	0.35523
0.07220	0.81437
-0.08081	1.01843
0.17421	-0.99668
0.12320	-1.83844
0.25071	-0.18043
0.17421	0.71234
0.25071	1.75816
0.22521	-1.88945
0.09770	0.66132
0.27621	1.14597
0.02119	1.24800
0.25071	-0.71609
0.19971	0.50828
0.14870	0.40625
0.04670	0.55929
0.30171	-1.81293
0.12320	0.02363
0.04670	0.15117
0.30171	0.20219
0.02119	0.22769
0.02119	-0.20594
0.14870	-0.99668
-0.00431	-0.48652
0.09770	0.99292
0.09770	0.66132
0.07220	1.32453
0.19971	-0.10391
0.27621	-2.29757
0.25071	-0.43551
0.30171	1.22250
0.17421	2.06425
0.02119	1.86019
0.22521	-0.20594
0.12320	0.71234
0.17421	0.22769
0.19971	-0.07840
0.09770	0.02363
0.04670	-2.34859
0.02119	-0.43551
-0.02981	0.12566
0.04670	0.25320
0.22521	0.38074
0.40372	0.30422
0.27621	1.19699
0.12320	2.06425
0.12320	-2.78222
0.07220	-1.27726
0.12320	0.86539
0.22521	0.63582
0.14870	-0.58856
0.04670	0.91640
0.04670	2.11527
0.22521	1.14597
0.27621	-2.45062
0.19971	0.63582
0.37822	1.96222
0.22521	0.66132
0.27621	-1.58336
-0.08081	0.48277
0.09770	0.66132
-0.00431	0.43176
0.12320	-1.14973
0.19971	0.10015
0.17421	0.12566
0.12320	-0.07840
0.09770	-0.81812
0.02119	0.89089
0.02119	0.30422
0.32721	0.10015
0.12320	-0.28246
0.27621	-0.99668
0.09770	1.04394
0.22521	0.99292
0.09770	0.12566
0.22521	-0.07840
0.09770	-0.56305
0.32721	1.09496
0.12320	0.89089
0.14870	-0.07840
-0.05531	0.07465
0.22521	0.17668
0.19971	-0.15492
0.30171	-0.05289
0.17421	-0.00188
0.30171	0.58480
-0.10631	-0.43551
-0.00431	-0.33348
-0.20832	-0.15492
-0.00431	-1.37929
0.12320	0.76336
0.32721	0.63582
0.45472	1.27351
0.32721	0.94191
0.09770	1.06945
0.14870	-1.25176
0.27621	0.45726
0.04670	1.45206
0.17421	-1.17523
0.09770	0.02363
0.19971	-0.63957
0.09770	0.22769
0.17421	0.50828
0.07220	1.14597
0.04670	0.50828
0.09770	-1.50683
0.25071	-1.63437
0.17421	0.81437
-0.10631	0.25320
0.04670	0.45726
0.12320	0.22769
0.27621	0.94191
0.19971	0.38074
0.32721	-0.12942
0.25071	-0.15492
0.09770	-0.00188
0.17421	1.42656
-0.08081	0.35523
0.12320	-1.07320
0.12320	-4.26167
0.22521	0.68683
0.04670	-3.39441
-0.00431	2.57441
0.22521	3.00804
0.22521	2.37034
0.30171	-0.33348
0.07220	0.71234
-0.08081	0.27871
-0.13181	0.35523
-0.08081	-0.05289
0.30171	-1.04770
0.40372	0.20219
0.27621	0.02363
0.40372	1.83468
0.07220	-3.57296
0.12320	-2.96078
0.17421	0.86539
0.17421	1.37554
0.32721	-0.99668
0.09770	1.78367
0.25071	1.35003
-0.05531	1.47757
0.07220	0.53379
0.09770	0.76336
0.17421	-0.20594
-0.02981	0.17668
-0.00431	0.17668
0.19971	0.83988
0.27621	-0.97117
0.22521	0.20219
-0.00431	-0.18043
0.07220	0.27871
0.09770	-1.07320
0.27621	0.61031
0.35272	-0.86914
0.25071	0.61031
0.14870	-0.00188
0.25071	-0.84363
0.07220	1.73265
-0.00431	-2.73121
0.22521	-0.07840
0.14870	2.72745
0.30171	1.75816
0.27621	1.65613
0.17421	2.16628
-0.02981	-2.65468
0.12320	0.53379
0.12320	-1.40480
-0.13181	0.25320
-0.10631	1.50308
0.17421	-1.32828
0.37822	-1.09871
0.27621	0.73785
0.32721	0.83988
0.32721	0.38074
0.12320	-1.55785
0.12320	0.32972
0.07220	-0.99668
-0.05531	1.55410
-0.05531	0.07465
-0.18282	-0.28246
0.12320	0.22769
0.32721	1.22250
0.32721	-0.12942
0.48022	0.81437
0.27621	0.78886
0.12320	0.32972
0.17421	0.45726
-0.00431	-0.25695
0.07220	-1.43031
0.12320	-0.69059
-0.00431	0.25320
0.19971	0.30422
0.27621	0.32972
0.14870	0.25320
0.27621	0.40625
0.02119	1.04394
-0.10631	-0.46102
0.22521	0.15117
0.40372	-1.17523
0.25071	0.15117
0.12320	1.04394
0.12320	-0.76711
0.04670	1.06945
0.19971	1.45206
0.19971	-0.63957
0.25071	-0.12942
0.12320	-0.41000
0.22521	-1.71090
0.09770	1.37554
0.07220	1.96222
-0.00431	0.07465
0.09770	1.04394
0.09770	0.81437
0.22521	-1.83844
0.09770	0.81437
0.32721	-0.97117
0.35272	0.45726
0.17421	0.04914
0.14870	1.73265
0.12320	-2.04250
0.09770	-0.15492
0.14870	1.22250
0.25071	-0.25695
0.09770	0.55929
0.14870	-0.74160
0.07220	1.32453
0.12320	-0.05289
0.02119	-0.28246
0.19971	-0.66508
0.12320	0.96742
0.07220	1.78367
0.32721	0.96742
0.30171	1.06945
0.19971	-1.81293
0.02119	0.17668
-0.00431	0.35523
-0.10631	0.20219
0.04670	0.27871
0.09770	-0.46102
0.32721	0.83988
0.45472	0.27871
0.22521	-1.83844
0.14870	-0.58856
-0.00431	0.17668
0.09770	1.01843
0.04670	0.17668
0.07220	0.25320
0.04670	-0.38449
0.32721	0.61031
0.22521	-0.46102
0.32721	2.14077
0.19971	0.61031
0.19971	0.07465
0.07220	-2.60367
0.09770	1.04394
0.09770	0.55929
0.07220	-3.54745
0.04670	0.50828
-0.05531	1.55410
0.27621	1.55410
0.25071	0.83988
0.22521	1.24800
0.19971	-1.04770
0.12320	-2.01699
0.12320	-0.30797
0.09770	0.50828
0.19971	-0.18043
0.30171	0.22769
0.22521	0.27871
0.17421	0.27871
0.27621	0.63582
-0.02981	1.22250
-0.00431	-0.56305
-0.10631	-2.88425
0.04670	-0.12942
0.19971	-0.28246
0.48022	0.35523
0.32721	1.40105
0.25071	0.94191
0.09770	1.35003
0.09770	0.86539
0.14870	0.81437
0.04670	-0.56305
-0.05531	-0.05289
0.12320	0.32972
0.07220	0.32972
0.19971	-2.37410
0.12320	-1.68539
0.30171	0.20219
0.27621	0.48277
0.22521	0.96742
0.12320	1.35003
0.14870	-0.46102
-0.13181	1.86019
0.14870	0.35523
0.17421	-3.49644
0.19971	-0.30797
0.32721	2.62542
0.27621	0.86539
0.07220	0.10015
0.12320	0.25320
-0.02981	-0.05289
0.07220	-0.46102
-0.18282	0.43176
-0.08081	0.96742
0.35272	0.25320
0.40372	0.66132
0.55673	1.52859
0.32721	-0.15492
0.32721	-0.86914
0.12320	-0.12942
-0.10631	0.12566
0.04670	0.27871
0.04670	-0.12942
0.12320	-0.25695
0.17421	-0.18043
0.07220	-0.10391
0.12320	1.55410
0.09770	0.86539
0.09770	-1.35379
0.22521	-1.25176
0.02119	-1.81293
0.09770	-0.05289
0.09770	1.88570
0.27621	-0.53754
0.42922	1.63062
0.30171	1.63062
0.19971	0.68683
0.30171	0.20219
0.17421	0.63582
0.12320	-0.10391
0.07220	-0.63957
-0.08081	-1.68539
0.04670	0.73785
0.09770	-1.35379
-0.05531	-1.07320
0.19971	1.32453
-0.00431	0.78886
0.12320	0.96742
0.22521	2.14077
0.30171	-0.79262
0.35272	-1.27726
0.22521	0.45726
0.25071	0.55929
0.12320	0.94191
0.22521	0.68683
0.12320	0.61031
0.17421	0.40625
-0.08081	0.94191
0.07220	0.76336
0.04670	-4.44022
0.22521	-2.68019
0.02119	1.42656
0.19971	1.04394
0.12320	1.75816
0.12320	1.60511
-0.08081	1.40105
0.27621	0.61031
0.14870	0.20219
0.32721	-0.00188
0.32721	-2.19554
0.22521	0.25320
0.22521	0.73785
0.17421	0.38074
0.17421	0.15117
0.14870	0.30422
0.12320	-0.81812
0.09770	0.20219
0.07220	0.53379
0.12320	1.04394
-0.10631	0.81437
-0.00431	-2.90976
-0.15732	-0.76711
0.07220	1.09496
0.25071	1.29902
0.22521	0.83988
0.30171	0.89089
0.19971	1.12046
0.27621	-0.86914
0.22521	1.29902
0.22521	-1.65988
0.22521	0.32972
0.12320	-0.81812
0.12320	-0.66508
-0.02981	1.47757
0.02119	1.60511
0.17421	-1.40480
0.12320	0.81437
0.09770	-0.71609
0.12320	-1.12422
0.22521	-1.25176
0.22521	1.63062
0.04670	0.43176
0.12320	1.75816
0.02119	0.35523
0.22521	0.63582
0.22521	0.25320
0.30171	0.66132
0.09770	-0.74160
0.17421	-0.07840
0.07220	-1.22625
0.22521	0.15117
0.09770	0.94191
0.12320	1.27351
0.09770	-2.06800
-0.02981	-1.02219
-0.08081	0.48277
-0.00431	1.01843
0.25071	0.86539
0.37822	-0.28246
0.22521	0.63582
0.25071	0.61031
0.22521	1.22250
0.12320	0.63582
0.19971	-0.00188
0.14870	-0.58856
0.27621	-0.41000
0.12320	0.53379
0.12320	1.27351
0.14870	-0.23145
0.09770	-0.76711
0.09770	-0.25695
0.04670	0.30422
0.12320	0.58480
0.22521	0.50828
0.12320	0.20219
0.27621	0.30422
0.12320	0.55929
0.17421	0.40625
0.17421	2.59991
0.19971	-3.95558
0.19971	-1.50683
0.12320	1.68163
-0.08081	0.99292
0.17421	-2.75671
-0.05531	0.58480
0.09770	2.72745
0.19971	1.09496
0.32721	0.30422
0.37822	0.91640
0.19971	0.89089
0.12320	0.55929
0.04670	-0.00188
-0.00431	-0.63957
0.07220	0.15117
0.27621	-0.38449
0.22521	-0.74160
0.14870	0.25320
-0.02981	-0.28246
-0.00431	-0.07840
-0.18282	0.25320
0.12320	0.91640
0.17421	-0.05289
0.22521	0.32972
0.37822	0.15117
0.35272	0.17668
0.25071	0.78886
0.22521	0.83988
0.17421	0.61031
0.12320	-1.22625
0.12320	-0.07840
0.12320	2.11527
0.14870	-0.66508
0.12320	-1.63437
-0.02981	-2.57816
-0.05531	0.45726
-0.08081	2.08976
0.12320	2.01323
0.22521	1.75816
0.17421	0.83988
0.27621	0.38074
0.19971	0.27871
0.22521	-0.18043
0.35272	-0.25695
0.09770	-0.53754
0.22521	0.04914
0.12320	-0.58856
0.14870	-1.58336
0.14870	-1.20074
0.12320	1.01843
0.09770	1.37554
-0.08081	-1.37929
-0.13181	0.12566
0.17421	-0.10391
0.32721	1.65613
0.30171	1.47757
0.25071	0.86539
0.12320	0.81437
0.30171	0.63582
0.17421	0.04914
0.22521	-1.14973
0.02119	0.38074
0.14870	0.55929
0.04670	-0.43551
0.17421	-0.79262
-0.02981	-0.89465
0.02119	0.61031
0.02119	0.10015
0.17421	0.78886
0.12320	0.45726
0.17421	0.48277
0.12320	0.22769
0.12320	0.55929
0.19971	0.89089
0.19971	-1.14973
0.27621	0.07465
0.27621	-1.94047
0.19971	-0.76711
0.17421	-0.43551
0.22521	1.35003
0.04670	0.86539
0.17421	0.55929
-0.00431	1.09496
0.22521	0.96742
0.07220	0.17668
0.17421	0.30422
0.07220	-0.38449
-0.00431	0.38074
0.14870	-0.07840
0.09770	0.27871
0.27621	0.91640
0.22521	-0.94566
0.27621	-1.07320
0.25071	-0.33348
0.17421	0.53379
0.09770	1.06945
-0.00431	-1.14973
-0.10631	0.78886
-0.05531	1.04394
0.22521	1.57960
0.19971	-1.04770
0.45472	-0.69059
0.25071	0.32972
0.35272	1.14597
0.22521	-1.12422
0.12320	0.78886
0.09770	-0.41000
0.17421	0.50828
0.04670	0.22769
0.14870	0.76336
0.04670	0.25320
0.04670	1.14597
0.12320	-1.50683
0.09770	-1.20074
0.09770	0.30422
0.12320	1.32453
0.12320	0.20219
0.27621	-0.89465
0.09770	0.99292
0.22521	-0.25695
0.30171	-0.25695
0.32721	1.24800
0.30171	0.53379
0.12320	0.07465
0.27621	0.78886
0.12320	-0.71609
0.07220	0.76336
0.12320	0.12566
0.04670	0.35523
0.02119	-1.20074
-0.02981	-0.25695
0.19971	-0.05289
0.27621	1.09496
0.30171	1.75816
0.14870	0.53379
0.27621	-1.48133
0.25071	2.03874
-0.10631	-0.69059
0.09770	0.02363
-0.00431	-0.23145
0.02119	0.55929
0.30171	0.50828
0.14870	0.45726
0.17421	0.45726
0.22521	0.04914
0.09770	-0.89465
0.22521	0.07465
0.02119	0.27871
0.22521	0.66132
0.12320	0.20219
0.25071	-1.32828
0.12320	-0.07840
0.25071	1.29902
0.09770	1.29902
0.14870	-0.43551
0.07220	-1.91496
0.27621	0.66132
0.14870	0.30422
0.25071	1.19699
0.04670	1.01843
-0.02981	-0.58856
0.07220	0.27871
0.30171	1.80917
0.22521	-2.90976
0.14870	0.30422
0.12320	0.83988
0.09770	0.50828
0.42922	0.15117
0.30171	0.17668
0.19971	1.06945
