0.17421	0.32972
0.12320	0.38074
0.19971	0.35523
0.17421	0.07465
0.14870	-0.00188
0.19971	0.02363
0.14870	0.20219
0.17421	0.12566
0.14870	0.22769
0.09770	0.10015
0.14870	0.25320
0.19971	0.22769
0.09770	0.17668
0.14870	0.35523
0.12320	0.86539
0.14870	-0.02739
0.22521	-1.60887
0.14870	-0.28246
0.07220	0.43176
-0.02981	0.30422
0.32721	0.89089
0.40372	0.71234
0.12320	0.53379
-0.02981	0.38074
0.04670	0.04914
0.14870	0.07465
0.04670	-0.05289
0.22521	-0.02739
0.22521	0.02363
0.12320	-0.33348
0.17421	-0.10391
0.22521	-0.15492
0.14870	-0.02739
0.14870	0.55929
0.19971	0.53379
0.04670	0.27871
0.07220	0.17668
0.30171	0.25320
0.14870	0.07465
0.04670	0.15117
0.07220	0.04914
0.22521	0.04914
0.07220	0.07465
0.14870	0.15117
0.19971	0.73785
0.09770	-0.18043
0.14870	-0.00188
0.22521	0.10015
0.14870	0.10015
0.09770	0.12566
0.17421	0.32972
0.22521	0.25320
0.09770	0.30422
0.09770	0.12566
0.12320	0.15117
0.22521	0.25320
0.17421	0.53379
0.07220	-1.55785
0.09770	0.76336
0.12320	0.83988
0.07220	-0.20594
0.14870	-0.20594
0.14870	0.48277
0.09770	0.61031
0.19971	0.55929
0.19971	0.40625
0.12320	0.20219
0.12320	-0.00188
0.09770	-0.07840
0.25071	-0.00188
0.17421	0.17668
0.12320	0.12566
0.17421	0.07465
0.19971	0.20219
0.09770	0.22769
0.02119	-0.00188
0.09770	0.07465
0.60773	-0.84363
0.12320	0.35523
0.12320	0.53379
-0.02981	0.02363
-0.00431	0.20219
0.17421	0.55929
0.22521	0.58480
0.14870	0.40625
0.19971	0.04914
0.22521	-0.05289
0.19971	-0.05289
0.12320	0.04914
0.22521	0.20219
0.09770	0.22769
0.12320	0.10015
0.19971	0.12566
0.14870	0.22769
0.09770	0.15117
0.02119	0.12566
0.12320	0.04914
0.12320	-0.00188
0.25071	-0.05289
0.35272	0.27871
0.07220	-0.41000
0.04670	0.43176
0.12320	0.27871
0.19971	0.99292
0.14870	-0.56305
0.07220	0.35523
0.09770	0.20219
0.07220	0.04914
0.09770	0.10015
0.12320	0.04914
0.17421	0.25320
0.19971	0.25320
0.22521	-0.05289
0.14870	-0.30797
0.09770	0.35523
0.12320	0.25320
0.09770	0.12566
0.17421	0.35523
0.17421	-1.09871
0.22521	0.45726
0.14870	0.35523
0.02119	0.45726
0.14870	0.45726
0.22521	0.17668
0.12320	-0.02739
0.09770	0.10015
0.14870	0.25320
0.04670	0.22769
0.12320	-0.20594
0.60773	-0.15492
0.14870	0.10015
0.12320	0.30422
-0.02981	0.45726
0.12320	0.43176
0.09770	0.12566
0.12320	-0.00188
0.22521	0.04914
0.17421	0.07465
0.12320	-0.00188
0.17421	0.27871
0.19971	0.38074
0.12320	0.55929
0.09770	-0.76711
0.19971	-0.69059
0.22521	0.61031
0.14870	0.68683
0.04670	0.55929
0.12320	0.45726
0.19971	0.53379
0.14870	0.83988
0.09770	-1.17523
0.22521	-0.35899
0.14870	-0.25695
0.14870	0.50828
0.19971	0.35523
0.14870	0.40625
0.07220	0.25320
0.12320	0.25320
0.19971	0.15117
0.14870	-0.10391
0.07220	0.10015
0.12320	0.17668
0.22521	0.27871
0.17421	0.12566
0.04670	-0.30797
0.12320	0.25320
0.25071	0.45726
0.14870	0.02363
0.02119	-0.35899
0.22521	0.35523
0.17421	0.48277
0.09770	0.32972
0.12320	0.12566
0.22521	-0.02739
0.12320	0.22769
0.07220	0.53379
0.14870	0.02363
0.25071	0.25320
0.14870	-0.28246
0.09770	-1.20074
0.14870	0.20219
0.19971	0.76336
0.14870	0.55929
0.09770	0.53379
0.12320	0.32972
0.22521	0.22769
0.09770	0.17668
0.07220	-0.15492
0.07220	-0.20594
0.22521	-0.07840
0.14870	0.30422
0.14870	0.38074
0.22521	-0.30797
0.09770	0.17668
0.14870	0.17668
0.09770	0.22769
0.09770	0.32972
0.14870	0.25320
0.22521	0.30422
0.07220	0.38074
0.02119	-0.94566
0.30171	0.35523
0.32721	0.25320
0.12320	-0.02739
0.09770	0.53379
0.12320	0.40625
0.04670	0.12566
0.12320	0.22769
0.22521	0.20219
0.07220	0.10015
0.09770	0.10015
0.25071	0.07465
0.14870	0.07465
0.12320	0.07465
0.25071	0.15117
0.14870	0.07465
0.07220	0.12566
0.17421	0.22769
0.12320	0.30422
0.09770	0.53379
0.22521	-0.07840
0.17421	-1.94047
0.04670	0.35523
0.12320	0.38074
0.22521	0.99292
0.12320	0.96742
0.07220	0.86539
0.14870	0.35523
0.17421	-0.56305
0.09770	-0.05289
0.14870	0.22769
0.22521	0.12566
0.12320	-0.02739
0.17421	0.20219
0.19971	0.17668
0.12320	-0.05289
0.12320	-0.02739
0.22521	0.10015
0.07220	-0.05289
0.22521	0.04914
0.19971	0.15117
0.14870	0.27871
0.12320	0.22769
0.14870	0.22769
0.12320	0.30422
0.17421	0.17668
0.12320	0.20219
0.22521	0.02363
0.07220	0.04914
0.19971	0.32972
0.12320	0.30422
0.14870	0.91640
0.12320	-1.27726
0.09770	0.17668
0.22521	0.53379
0.14870	0.22769
0.14870	0.20219
0.14870	0.25320
0.07220	0.04914
0.22521	0.15117
0.14870	0.17668
0.12320	0.04914
0.22521	0.15117
0.14870	0.30422
0.07220	0.15117
0.22521	0.10015
0.09770	-0.10391
0.07220	-0.86914
0.14870	0.04914
0.19971	1.09496
0.14870	0.73785
0.17421	-0.30797
0.19971	0.35523
0.14870	-0.05289
0.09770	0.15117
0.19971	0.58480
0.07220	0.32972
0.12320	0.20219
0.12320	0.07465
0.17421	0.04914
0.19971	0.04914
0.12320	-0.00188
0.17421	0.10015
0.14870	0.10015
0.09770	-0.15492
0.17421	-0.07840
0.12320	0.10015
0.12320	0.12566
0.17421	0.20219
0.09770	0.17668
0.19971	0.40625
0.14870	0.27871
0.04670	0.17668
0.22521	0.22769
0.07220	0.07465
0.19971	0.22769
0.12320	0.22769
0.07220	0.10015
0.19971	0.12566
0.12320	0.30422
0.09770	0.15117
0.22521	0.10015
0.09770	0.10015
0.12320	0.15117
0.14870	0.22769
0.09770	0.04914
0.14870	0.30422
0.12320	-0.30797
0.09770	-0.05289
0.22521	0.45726
0.09770	0.30422
0.12320	0.35523
0.14870	0.25320
0.09770	0.20219
0.19971	0.32972
0.14870	0.27871
0.14870	-1.96597
0.12320	0.50828
0.09770	0.55929
0.22521	0.50828
0.12320	0.55929
0.14870	0.50828
0.14870	-0.05289
0.14870	0.32972
0.09770	0.27871
0.09770	0.63582
0.22521	-0.81812
0.12320	-0.10391
0.09770	-0.23145
0.14870	0.02363
0.19971	0.55929
0.12320	0.45726
0.12320	0.61031
0.14870	0.43176
0.07220	0.32972
0.14870	-0.23145
0.14870	-0.05289
0.12320	0.07465
0.14870	0.12566
0.12320	0.04914
0.27621	0.25320
0.12320	0.20219
0.12320	0.20219
0.17421	0.25320
0.04670	0.10015
0.14870	0.32972
0.12320	-0.15492
0.09770	0.04914
0.07220	0.30422
0.14870	0.35523
0.14870	0.30422
0.07220	-0.00188
0.19971	-0.33348
0.14870	0.55929
0.14870	0.35523
0.17421	0.35523
0.09770	0.35523
0.12320	0.04914
0.25071	0.38074
0.09770	-0.81812
0.17421	0.25320
0.22521	0.27871
0.14870	0.20219
0.02119	0.25320
0.14870	0.07465
0.22521	0.04914
0.17421	0.10015
0.12320	0.20219
0.22521	0.22769
0.12320	-0.10391
0.12320	0.20219
0.09770	0.53379
0.09770	0.27871
0.09770	-0.58856
0.14870	0.02363
0.12320	0.38074
0.19971	0.50828
0.09770	-0.05289
0.17421	-0.10391
0.25071	0.71234
0.14870	0.68683
0.04670	0.43176
0.17421	0.20219
0.17421	0.10015
0.12320	0.10015
0.09770	-0.15492
0.17421	-0.23145
0.17421	0.04914
0.14870	0.02363
0.17421	0.04914
0.14870	-0.25695
0.19971	0.25320
0.09770	0.15117
0.17421	0.45726
0.19971	0.35523
0.04670	0.12566
0.14870	0.25320
0.12320	0.15117
0.12320	0.07465
0.25071	0.07465
0.09770	0.12566
0.22521	0.27871
0.12320	0.25320
0.17421	0.25320
0.22521	0.12566
0.14870	0.10015
0.14870	0.10015
0.19971	0.50828
0.04670	-1.45582
0.19971	0.38074
0.17421	0.66132
0.07220	0.38074
0.19971	0.35523
0.12320	0.43176
0.12320	0.10015
0.19971	0.02363
0.09770	-0.38449
0.12320	0.48277
0.17421	0.35523
0.12320	-0.25695
0.19971	0.43176
0.17421	-0.38449
0.12320	0.48277
0.22521	0.38074
0.04670	0.25320
0.12320	0.25320
0.19971	0.63582
0.12320	-0.97117
0.12320	-0.15492
0.19971	0.30422
0.25071	-0.05289
0.14870	0.35523
0.14870	0.43176
0.09770	0.27871
0.12320	0.07465
0.22521	0.12566
0.14870	0.20219
0.22521	0.15117
0.14870	0.12566
0.07220	0.02363
0.14870	-0.07840
0.25071	0.15117
0.12320	0.27871
0.07220	0.20219
0.14870	0.04914
0.19971	0.07465
0.09770	0.17668
0.07220	0.15117
0.22521	0.10015
0.17421	0.20219
0.09770	0.25320
0.17421	0.48277
0.12320	-0.30797
0.07220	-0.41000
0.12320	0.40625
0.19971	0.25320
0.07220	-0.05289
0.19971	0.04914
0.14870	0.12566
0.09770	0.27871
0.14870	0.50828
0.17421	0.43176
0.09770	-0.20594
0.14870	0.50828
0.19971	0.04914
0.07220	-0.69059
0.12320	-1.27726
0.12320	0.76336
0.12320	0.55929
0.17421	0.43176
0.09770	0.38074
0.22521	0.30422
0.17421	0.30422
0.22521	0.22769
0.19971	-0.00188
0.14870	-0.07840
0.14870	-0.10391
0.22521	0.12566
0.02119	0.02363
0.17421	0.12566
0.19971	0.22769
0.12320	0.07465
0.17421	0.30422
0.22521	0.45726
0.09770	0.17668
0.12320	-0.07840
0.14870	0.07465
0.02119	0.07465
0.19971	0.02363
0.02119	0.22769
0.17421	0.25320
0.14870	0.25320
0.09770	0.20219
0.12320	0.27871
0.22521	0.30422
0.12320	0.10015
0.12320	0.02363
0.19971	0.04914
0.07220	0.07465
0.14870	0.10015
0.14870	0.35523
0.12320	-0.35899
0.19971	0.45726
0.14870	-0.15492
0.14870	0.32972
0.19971	0.02363
0.14870	-0.18043
0.12320	0.25320
0.14870	0.40625
0.09770	0.30422
0.19971	0.58480
0.17421	-0.30797
0.07220	0.38074
0.19971	0.35523
0.22521	0.04914
0.07220	0.12566
0.12320	-0.43551
0.09770	0.27871
0.12320	0.15117
0.22521	0.20219
0.14870	0.20219
0.07220	0.15117
0.22521	0.30422
0.12320	0.07465
0.12320	0.15117
0.14870	0.15117
0.09770	0.12566
0.12320	0.10015
0.25071	0.12566
0.09770	0.02363
0.14870	0.20219
0.14870	0.35523
0.07220	0.27871
0.22521	0.35523
0.12320	0.15117
0.09770	-0.18043
0.22521	-0.07840
0.12320	-0.23145
0.07220	0.38074
0.22521	0.55929
0.09770	0.48277
0.22521	-0.10391
0.09770	0.25320
0.17421	0.30422
0.27621	0.30422
0.04670	0.10015
0.17421	-0.35899
0.22521	0.15117
0.14870	0.35523
0.09770	0.27871
0.14870	-0.02739
0.22521	-0.35899
0.14870	0.17668
0.12320	0.32972
0.22521	0.35523
0.09770	0.38074
0.07220	0.48277
0.22521	-0.69059
0.17421	0.40625
0.09770	-0.69059
0.19971	0.66132
0.14870	0.55929
0.12320	0.15117
0.19971	0.32972
0.09770	-0.43551
0.12320	0.22769
0.12320	0.27871
0.04670	0.10015
0.19971	0.20219
0.17421	0.12566
0.04670	0.20219
0.22521	0.20219
0.12320	0.10015
0.22521	0.10015
0.14870	0.10015
0.09770	-0.00188
0.19971	0.15117
0.17421	0.25320
0.12320	0.15117
0.22521	0.15117
0.12320	0.07465
0.14870	0.12566
0.19971	0.38074
0.04670	-0.23145
0.12320	0.38074
0.17421	-0.25695
0.12320	0.32972
0.12320	0.10015
0.22521	0.12566
0.12320	-0.00188
0.14870	0.40625
0.14870	0.17668
0.07220	0.17668
0.22521	0.30422
0.14870	0.25320
0.12320	-0.00188
0.22521	0.04914
0.07220	-0.10391
0.14870	-0.00188
0.12320	0.10015
0.07220	0.10015
0.22521	0.25320
0.17421	0.20219
0.17421	0.25320
0.19971	0.10015
0.14870	0.17668
0.12320	0.15117
0.19971	0.27871
0.12320	-0.74160
0.14870	0.38074
0.17421	0.55929
0.09770	0.40625
0.12320	0.30422
0.19971	0.32972
0.09770	-0.00188
0.17421	0.07465
0.14870	0.15117
0.14870	-0.00188
0.19971	-0.02739
0.17421	0.15117
0.07220	0.12566
0.12320	0.17668
0.25071	0.27871
0.02119	0.12566
0.17421	0.22769
0.12320	-0.23145
0.07220	0.30422
0.17421	0.38074
0.14870	-0.15492
0.14870	0.22769
0.12320	0.02363
0.22521	0.04914
0.14870	0.66132
0.09770	0.76336
0.12320	-1.04770
0.22521	0.89089
0.12320	0.02363
0.09770	-1.12422
0.12320	0.22769
0.30171	1.27351
0.07220	0.76336
0.19971	-0.20594
0.27621	-0.66508
0.07220	0.53379
-0.08081	-0.28246
-0.02981	0.50828
-0.02981	1.06945
-0.08081	0.17668
0.17421	0.53379
0.48022	0.30422
0.73524	-1.22625
0.35272	-1.60887
0.22521	2.29382
0.12320	1.32453
-0.28482	1.27351
-0.31033	-2.17003
-0.25932	-5.56257
-0.08081	1.27351
0.32721	-3.03730
0.58223	2.67644
0.68424	3.41616
0.58223	2.06425
0.48022	3.92632
0.30171	3.26312
0.09770	1.96222
-0.18282	-0.51203
-0.56534	-3.41992
-0.15732	-5.35850
0.42922	-6.04721
-0.00431	2.26831
0.17421	0.12566
-0.02981	4.53850
-0.25932	6.06897
-0.10631	-6.73592
0.12320	0.15117
0.48022	0.20219
0.70974	-1.83844
0.45472	-0.25695
0.32721	-0.89465
0.17421	4.18139
-0.08081	2.39585
0.19971	-2.98628
0.35272	2.01323
-0.31033	6.70666
-0.18282	2.39585
0.55673	2.11527
0.58223	-6.02170
0.07220	0.61031
0.19971	0.25320
0.04670	-7.04202
-0.05531	0.91640
0.04670	-4.97589
-0.00431	3.08456
-0.76936	1.22250
-0.28482	-1.25176
0.35272	6.04346
0.45472	-0.18043
0.50573	-0.63957
0.48022	-2.29757
0.63323	0.20219
0.19971	6.50260
0.32721	0.66132
0.55673	-7.09303
0.19971	-4.56776
0.32721	3.31413
-0.28482	1.73265
-0.18282	2.59991
-0.18282	3.31413
-0.46334	-1.40480
-0.00431	-1.43031
0.14870	-1.99148
0.17421	2.98253
0.22521	-0.07840
0.53123	-7.37362
0.48022	-2.04250
0.09770	1.86019
-0.08081	3.13558
0.30171	-0.18043
0.12320	-1.73640
0.30171	2.90601
0.14870	3.59471
0.19971	0.91640
0.19971	-2.78222
0.37822	-0.15492
0.14870	-1.43031
0.12320	1.78367
0.07220	2.47238
-0.05531	1.29902
0.27621	1.06945
-0.20832	-6.07272
0.17421	0.99292
-0.08081	2.82948
0.09770	0.58480
0.70974	2.31933
0.40372	3.08456
-0.02981	-5.94518
-0.33583	-11.48036
-0.05531	-0.86914
0.42922	4.71706
0.42922	6.34955
0.65874	5.22721
0.48022	4.56401
0.53123	-5.40952
0.22521	-3.21585
-0.28482	1.65613
-0.61635	-0.84363
-0.51434	1.17148
-0.00431	4.02835
0.42922	-2.78222
0.53123	0.12566
0.53123	1.47757
0.22521	-7.22057
0.04670	4.43647
0.19971	-0.00188
0.02119	-3.39441
-0.05531	-4.64429
-0.02981	-0.48652
0.02119	1.86019
-0.00431	3.21210
0.14870	1.70714
0.17421	2.75296
0.40372	1.73265
0.50573	-0.12942
0.30171	-0.05289
0.35272	-0.63957
0.14870	0.58480
-0.05531	-0.51203
0.07220	-1.27726
0.12320	4.02835
0.02119	-7.57768
-0.05531	-1.68539
0.19971	-0.84363
-0.02981	2.70194
0.30171	3.18659
0.17421	2.42136
0.35272	4.05386
0.02119	-0.48652
0.02119	-4.41472
0.25071	0.10015
0.35272	-0.07840
0.12320	2.11527
0.04670	1.09496
-0.20832	0.15117
-0.02981	5.09967
0.48022	-7.88377
0.48022	-1.48133
0.35272	0.76336
0.17421	1.45206
-0.10631	2.54890
-0.13181	-3.44542
0.17421	-3.90456
0.37822	1.98773
0.12320	-2.73121
0.19971	2.82948
0.19971	2.47238
0.17421	1.73265
-0.08081	1.42656
-0.28482	0.99292
0.04670	1.73265
0.02119	-0.56305
0.45472	-1.76191
0.60773	2.29382
0.53123	-1.30277
0.27621	0.71234
0.19971	-1.22625
-0.02981	-0.10391
-0.25932	1.52859
-0.33583	3.67124
0.12320	1.40105
0.32721	-3.36890
0.30171	-1.27726
0.42922	-1.12422
0.40372	-1.48133
0.07220	2.47238
0.02119	2.75296
0.17421	2.31933
0.12320	1.06945
0.07220	1.98773
0.30171	-7.39912
0.25071	-0.35899
0.09770	0.86539
0.04670	2.85499
-0.20832	-3.57296
-0.00431	0.04914
0.30171	1.45206
0.40372	-2.09351
0.42922	2.06425
0.37822	1.42656
0.14870	0.30422
0.07220	-2.01699
0.07220	-1.86394
0.04670	-2.57816
-0.02981	1.65613
0.14870	2.49788
0.25071	-0.51203
0.37822	1.55410
0.12320	1.17148
0.09770	0.58480
-0.00431	-0.92016
0.25071	2.14077
0.12320	-3.41992
0.14870	-0.89465
0.12320	0.73785
0.07220	1.12046
0.07220	-0.51203
0.14870	-0.25695
0.07220	1.96222
0.07220	-0.30797
0.30171	0.71234
0.27621	-3.85355
0.22521	-1.27726
0.12320	1.78367
0.14870	1.88570
0.04670	2.75296
0.17421	2.77847
0.19971	-4.26167
0.14870	-1.86394
0.07220	-0.00188
0.09770	2.93151
0.19971	3.28862
0.25071	-1.68539
0.17421	-2.11902
0.25071	2.14077
0.19971	-1.25176
0.04670	3.05905
-0.02981	-1.40480
-0.10631	-1.43031
0.22521	0.32972
-0.05531	-0.56305
0.17421	1.65613
0.35272	-0.15492
0.35272	0.12566
0.32721	1.04394
0.25071	0.91640
0.19971	0.91640
0.27621	-1.04770
-0.02981	2.65093
-0.20832	-5.74112
-0.08081	-0.79262
0.07220	1.37554
0.09770	1.35003
0.19971	1.40105
0.40372	-0.35899
0.32721	1.98773
0.09770	-0.46102
-0.08081	-0.23145
0.02119	-1.14973
0.19971	0.20219
0.37822	1.55410
0.22521	0.17668
0.02119	-1.71090
0.30171	-1.02219
0.14870	1.75816
0.09770	0.99292
0.04670	-0.05289
0.17421	1.29902
0.22521	0.17668
0.12320	-2.09351
0.07220	-0.58856
0.02119	1.12046
0.12320	1.32453
0.22521	-1.58336
0.17421	-1.37929
0.09770	-0.71609
0.17421	2.82948
0.09770	5.60983
0.27621	-5.69010
0.09770	-2.29757
0.07220	0.17668
0.14870	0.99292
0.19971	0.35523
0.35272	0.71234
0.14870	2.37034
0.30171	-0.56305
0.19971	-1.73640
0.14870	0.71234
0.17421	0.73785
0.04670	0.32972
-0.08081	0.76336
0.14870	1.17148
0.12320	0.20219
0.19971	-4.03210
0.22521	-2.22105
0.07220	-0.23145
0.14870	0.94191
0.04670	1.70714
0.07220	1.42656
0.27621	-0.28246
0.09770	0.40625
0.12320	0.02363
0.07220	-0.79262
0.12320	1.78367
0.32721	1.37554
0.32721	1.73265
0.02119	-0.28246
0.19971	-2.70570
0.12320	1.27351
-0.02981	-1.27726
0.19971	-1.02219
0.22521	2.82948
0.09770	3.00804
0.25071	-3.72601
0.09770	0.40625
-0.00431	0.22769
-0.00431	-0.46102
0.14870	1.24800
0.37822	1.35003
0.19971	0.30422
0.12320	1.24800
0.02119	-1.78742
-0.08081	-0.35899
0.07220	0.76336
0.19971	1.78367
0.25071	-3.62398
0.27621	-0.07840
0.25071	-0.84363
0.04670	-0.89465
0.02119	2.06425
0.19971	-1.48133
0.17421	-1.32828
0.22521	1.78367
0.09770	1.60511
-0.08081	1.37554
0.32721	1.24800
0.04670	1.63062
0.09770	1.47757
0.37822	-4.54226
0.14870	-0.12942
0.14870	0.30422
0.25071	0.86539
0.22521	0.94191
0.12320	1.35003
0.22521	1.65613
0.02119	-6.81245
-0.15732	-1.96597
-0.08081	3.39065
-0.18282	-0.23145
0.12320	0.96742
0.32721	-3.36890
0.25071	1.75816
0.35272	2.26831
0.32721	1.70714
0.27621	1.14597
0.12320	0.73785
0.09770	2.29382
0.12320	2.49788
0.25071	-5.56257
0.12320	-2.96078
-0.00431	0.66132
-0.05531	0.91640
0.04670	1.35003
-0.02981	1.19699
0.17421	0.81437
0.32721	0.04914
0.35272	-2.14453
0.09770	1.55410
-0.08081	-0.25695
0.19971	0.53379
0.07220	1.09496
0.14870	0.86539
0.27621	-0.02739
0.30171	0.76336
0.27621	0.04914
0.27621	-1.20074
-0.13181	-1.37929
0.14870	1.06945
0.27621	2.06425
0.14870	-3.31788
0.14870	0.45726
-0.18282	1.14597
0.19971	0.53379
0.32721	-0.25695
0.14870	-0.41000
0.22521	1.37554
0.09770	0.58480
0.17421	-0.25695
0.17421	-0.35899
0.17421	0.81437
0.07220	-1.53234
0.14870	-2.19554
0.07220	0.61031
-0.02981	-0.00188
0.14870	1.50308
0.19971	1.55410
0.27621	2.80397
0.30171	0.86539
0.04670	-5.99620
0.04670	-1.14973
0.25071	2.93151
0.19971	-0.41000
0.14870	-1.27726
0.19971	1.40105
0.02119	0.40625
0.12320	1.29902
0.17421	0.68683
0.09770	-3.52195
0.25071	-1.22625
0.35272	0.04914
-0.02981	2.01323
0.02119	-1.58336
0.14870	0.53379
0.17421	-0.30797
0.30171	-0.18043
0.14870	0.76336
0.02119	0.81437
-0.05531	1.24800
0.02119	0.53379
0.32721	-0.25695
0.17421	-2.90976
0.27621	1.14597
0.17421	-0.84363
0.12320	1.17148
0.17421	0.96742
0.02119	1.52859
0.09770	2.14077
0.12320	0.68683
0.09770	-3.19035
0.27621	-1.78742
0.17421	-0.25695
0.14870	2.19179
0.32721	1.45206
0.04670	-1.58336
0.22521	-2.24656
0.04670	0.99292
0.07220	-0.89465
0.12320	1.57960
0.02119	1.80917
0.14870	0.15117
0.14870	1.24800
0.07220	1.60511
0.25071	-0.25695
0.19971	-3.75152
0.17421	0.81437
0.25071	0.73785
0.30171	-0.43551
0.12320	0.12566
-0.05531	0.22769
-0.23382	0.40625
-0.10631	0.22769
0.27621	0.48277
0.35272	0.38074
0.32721	-1.48133
0.35272	-1.96597
0.32721	0.48277
0.12320	-2.09351
0.07220	1.55410
0.04670	2.24281
-0.00431	1.80917
0.17421	-2.29757
0.19971	-0.53754
-0.10631	1.42656
-0.23382	0.96742
0.32721	-0.18043
0.30171	0.40625
0.25071	0.91640
0.30171	-0.00188
0.37822	-0.56305
0.19971	0.10015
0.14870	0.55929
0.14870	-0.84363
0.09770	-0.74160
-0.00431	0.50828
-0.05531	0.63582
0.19971	2.14077
0.12320	-0.51203
0.12320	-2.11902
0.22521	-2.96078
0.04670	1.47757
0.19971	1.55410
0.19971	1.09496
0.14870	1.78367
0.25071	2.19179
0.22521	1.17148
0.14870	-3.06281
0.09770	0.38074
0.17421	-3.64948
-0.00431	0.83988
-0.10631	0.73785
0.14870	1.60511
0.27621	-1.50683
0.07220	-0.33348
0.35272	1.22250
0.30171	0.40625
0.37822	-0.48652
-0.08081	0.20219
-0.25932	0.55929
-0.05531	-0.35899
0.14870	0.71234
0.37822	0.50828
0.40372	0.20219
0.27621	-0.56305
0.27621	-2.11902
0.27621	1.32453
-0.00431	1.22250
0.09770	1.47757
-0.08081	0.94191
-0.00431	1.42656
0.04670	-0.23145
0.09770	0.30422
0.22521	-1.20074
0.12320	-0.56305
0.17421	0.30422
0.27621	0.58480
0.19971	0.43176
0.22521	0.22769
0.04670	0.35523
-0.00431	0.30422
-0.15732	-0.30797
0.27621	-0.25695
0.27621	0.63582
0.22521	-0.76711
0.27621	-0.92016
0.25071	1.12046
0.32721	2.44687
0.17421	-2.90976
0.14870	-1.68539
0.12320	1.29902
0.04670	1.86019
0.12320	1.45206
0.04670	1.09496
0.12320	-0.23145
0.30171	-0.76711
0.12320	0.83988
-0.00431	0.63582
-0.08081	-0.66508
0.02119	0.25320
0.12320	-0.61406
0.25071	-0.99668
0.32721	0.76336
0.19971	0.20219
0.12320	0.48277
0.27621	-1.17523
0.02119	-0.05289
0.14870	0.27871
-0.18282	0.45726
0.09770	-0.20594
0.12320	0.86539
0.30171	0.50828
0.37822	1.04394
0.45472	-1.83844
0.30171	1.17148
0.04670	0.30422
-0.10631	0.81437
-0.00431	1.01843
0.04670	0.63582
0.12320	-1.55785
0.12320	-1.32828
0.04670	-3.03730
0.12320	0.43176
0.25071	0.94191
0.19971	1.04394
0.12320	0.86539
0.30171	1.12046
0.04670	1.80917
0.19971	-0.61406
0.30171	-1.07320
0.27621	0.71234
0.09770	-2.24656
0.22521	0.89089
-0.10631	0.40625
-0.20832	1.24800
0.12320	-0.30797
0.30171	-1.27726
0.25071	1.55410
0.35272	0.50828
0.40372	0.76336
0.25071	0.63582
0.12320	0.66132
-0.10631	0.58480
-0.02981	-0.61406
0.14870	-0.79262
0.14870	-0.20594
0.27621	0.15117
0.09770	-0.15492
0.14870	0.12566
0.17421	0.50828
0.27621	-0.30797
0.09770	0.78886
-0.00431	1.01843
-0.08081	0.96742
-0.02981	-2.80773
0.22521	0.17668
0.25071	1.19699
0.37822	2.90601
0.32721	-1.50683
0.07220	-0.53754
0.12320	1.55410
0.07220	-1.27726
0.17421	-1.12422
0.19971	1.93671
0.19971	1.57960
0.12320	-0.35899
0.17421	0.91640
0.09770	0.48277
0.07220	0.71234
0.09770	0.45726
0.22521	-3.93007
0.30171	0.45726
0.14870	1.57960
0.04670	-1.32828
-0.08081	-1.35379
-0.31033	0.83988
0.37822	-2.55265
0.40372	1.06945
0.22521	2.01323
0.27621	1.78367
0.19971	1.32453
0.27621	0.99292
0.32721	0.04914
0.22521	0.83988
0.02119	-1.30277
-0.15732	-1.68539
-0.23382	0.55929
-0.15732	-0.69059
0.25071	-1.22625
0.22521	1.78367
0.35272	-2.32308
0.32721	1.14597
0.25071	1.01843
0.17421	0.20219
0.22521	-0.97117
0.04670	1.01843
0.19971	-0.20594
0.19971	0.48277
0.02119	1.45206
0.14870	0.12566
0.07220	-0.71609
-0.05531	-1.40480
0.19971	0.55929
0.19971	0.20219
-0.00431	1.73265
0.09770	0.35523
0.27621	-1.17523
0.19971	-0.99668
0.30171	1.68163
0.22521	1.01843
0.14870	0.76336
0.19971	0.30422
0.14870	0.25320
0.14870	-0.92016
0.14870	-1.88945
0.04670	0.04914
0.14870	0.76336
0.12320	-0.05289
-0.05531	1.35003
-0.05531	-0.33348
0.02119	-0.43551
0.19971	-0.58856
0.35272	0.83988
0.42922	0.86539
0.22521	0.30422
0.19971	0.10015
0.17421	-0.28246
0.04670	0.35523
0.14870	1.27351
0.17421	-0.00188
0.04670	0.35523
0.09770	-0.89465
0.07220	0.15117
0.07220	0.68683
0.09770	0.43176
0.17421	0.76336
0.17421	-0.30797
0.19971	-0.15492
0.17421	-0.56305
-0.00431	0.45726
0.27621	0.17668
0.17421	1.78367
0.12320	2.14077
0.22521	-1.58336
0.14870	-4.41472
0.17421	-1.32828
0.09770	1.75816
0.02119	1.65613
0.09770	1.22250
0.14870	1.01843
0.09770	0.48277
0.09770	0.04914
0.14870	-0.00188
0.07220	0.96742
0.14870	-0.71609
0.14870	-2.45062
0.30171	-0.66508
0.22521	-1.12422
-0.02981	0.89089
0.07220	0.76336
0.07220	-0.02739
0.19971	1.27351
0.30171	1.83468
0.19971	-0.94566
0.25071	-0.51203
0.22521	0.58480
0.09770	0.38074
0.09770	0.35523
0.07220	0.10015
-0.08081	0.27871
0.09770	0.66132
0.07220	1.42656
0.17421	-0.25695
0.22521	-3.93007
0.22521	-0.10391
0.12320	1.96222
-0.00431	0.40625
-0.05531	1.96222
0.32721	1.06945
0.40372	1.63062
0.25071	1.63062
0.12320	-0.02739
0.27621	-3.24136
0.12320	-1.99148
-0.08081	0.81437
0.27621	1.12046
0.14870	1.52859
0.19971	-0.35899
0.09770	0.40625
-0.08081	0.15117
0.17421	0.04914
0.09770	0.20219
0.12320	0.40625
0.09770	-0.10391
-0.00431	0.20219
0.19971	-2.17003
0.35272	-0.33348
0.19971	0.38074
0.12320	0.83988
0.22521	1.47757
0.04670	-0.00188
0.22521	0.68683
0.12320	1.12046
0.07220	0.71234
-0.02981	-1.02219
0.32721	-0.18043
0.27621	-0.79262
0.02119	-0.38449
0.14870	0.38074
0.02119	0.35523
0.14870	-0.66508
0.19971	0.86539
0.14870	1.06945
0.30171	0.15117
0.22521	0.30422
0.14870	0.15117
-0.18282	-0.86914
-0.08081	0.27871
0.02119	0.91640
0.27621	-0.61406
0.30171	-0.79262
0.30171	0.30422
0.25071	-0.92016
0.25071	-1.32828
0.12320	2.39585
0.04670	1.80917
0.27621	-1.27726
0.07220	-2.47613
0.17421	0.30422
0.04670	1.70714
-0.08081	1.24800
0.02119	2.37034
-0.23382	-0.63957
0.22521	-4.64429
0.45472	-0.12942
0.42922	1.80917
0.37822	1.42656
0.32721	0.86539
0.30171	0.38074
0.04670	-0.18043
0.14870	-0.12942
0.07220	-0.33348
0.02119	-0.38449
0.12320	-0.41000
0.07220	-0.33348
-0.00431	-0.33348
-0.00431	1.80917
0.07220	-0.33348
0.19971	-0.05289
0.17421	2.19179
0.19971	-2.34859
0.17421	0.35523
0.27621	0.25320
0.17421	0.35523
-0.08081	1.70714
-0.28482	-0.25695
0.19971	2.14077
0.40372	-1.48133
0.65874	0.10015
0.48022	-1.09871
0.27621	1.12046
0.04670	0.66132
-0.10631	1.04394
0.02119	-0.89465
0.17421	-0.61406
0.07220	-0.53754
0.02119	0.61031
0.02119	-0.00188
-0.08081	-0.33348
0.14870	0.48277
0.19971	0.91640
0.25071	-1.86394
0.14870	0.32972
0.17421	0.96742
0.17421	-0.79262
0.27621	-0.41000
0.12320	1.24800
0.02119	0.78886
0.09770	-0.41000
0.22521	0.27871
0.19971	-0.00188
0.17421	0.76336
0.14870	0.17668
0.09770	1.06945
0.07220	0.40625
0.22521	0.73785
0.17421	0.63582
0.17421	-0.18043
0.14870	0.96742
0.22521	-1.07320
0.09770	0.38074
-0.13181	-0.30797
0.07220	-1.35379
0.22521	0.30422
0.12320	1.40105
0.30171	-0.53754
0.32721	0.63582
0.32721	1.01843
0.22521	0.53379
0.22521	-2.80773
0.09770	1.04394
-0.00431	-0.99668
0.12320	0.94191
0.02119	1.57960
0.09770	-1.07320
0.12320	-1.43031
0.12320	0.73785
-0.18282	-1.37929
-0.08081	1.35003
0.30171	1.78367
0.32721	0.61031
0.30171	1.65613
0.30171	-0.05289
0.32721	-0.20594
0.12320	0.17668
0.07220	0.27871
0.12320	0.10015
0.12320	-0.35899
0.14870	0.81437
0.07220	-1.65988
0.02119	0.12566
0.12320	-1.35379
-0.15732	1.40105
0.17421	-0.15492
0.30171	1.40105
-0.02981	0.07465
0.25071	0.45726
0.19971	1.09496
0.40372	0.73785
0.35272	-1.20074
0.30171	0.83988
0.12320	0.91640
0.02119	0.02363
0.07220	-0.56305
-0.08081	0.12566
0.17421	-0.15492
0.02119	0.45726
0.22521	-0.38449
0.09770	1.04394
0.07220	1.24800
0.17421	-1.50683
0.22521	-0.20594
0.19971	1.17148
0.25071	-0.28246
0.12320	0.02363
0.09770	-0.61406
0.12320	0.15117
0.02119	0.50828
0.09770	-0.20594
0.02119	-0.02739
0.42922	0.81437
0.30171	0.61031
0.35272	1.29902
0.27621	2.08976
0.09770	-1.07320
0.19971	-0.71609
0.07220	-0.66508
-0.05531	-1.32828
-0.02981	0.76336
0.09770	1.24800
0.17421	1.98773
0.22521	-1.45582
0.27621	0.27871
0.32721	0.53379
0.17421	0.07465
0.04670	0.40625
0.02119	0.68683
0.07220	0.53379
0.02119	-0.35899
0.19971	0.48277
0.22521	1.60511
0.12320	-1.07320
0.09770	-0.23145
0.17421	-3.16484
0.02119	0.53379
0.25071	1.37554
0.53123	1.45206
0.32721	-0.76711
0.27621	1.14597
0.12320	1.75816
-0.10631	0.25320
0.07220	-1.22625
0.19971	-0.89465
0.19971	0.20219
0.09770	0.45726
-0.00431	1.29902
0.22521	1.47757
0.17421	-6.42983
0.07220	0.61031
0.07220	0.91640
0.17421	1.14597
0.22521	1.27351
0.07220	1.37554
0.19971	-2.57816
0.04670	0.27871
0.12320	1.09496
0.19971	0.12566
0.19971	-0.28246
0.22521	1.96222
0.04670	-0.53754
-0.10631	-0.97117
0.12320	-0.10391
0.12320	0.83988
0.42922	-0.12942
0.27621	-0.86914
0.17421	-0.38449
0.19971	1.27351
0.12320	1.63062
0.27621	-1.45582
0.07220	-0.33348
-0.05531	-0.33348
0.09770	-0.10391
0.04670	1.19699
0.22521	0.07465
0.22521	-1.27726
0.12320	1.19699
0.04670	0.71234
0.25071	1.06945
0.19971	-1.12422
0.27621	0.86539
0.14870	1.40105
-0.02981	-2.50164
0.12320	-0.05289
-0.02981	0.20219
-0.08081	1.96222
0.35272	0.40625
0.30171	-1.50683
0.22521	1.04394
0.02119	-0.35899
-0.00431	-0.00188
0.14870	0.99292
0.27621	-0.53754
0.27621	0.66132
0.27621	1.47757
0.04670	0.58480
0.02119	-0.05289
-0.02981	0.43176
0.02119	-0.25695
0.22521	-0.10391
0.30171	-0.66508
0.04670	0.83988
0.04670	-1.76191
0.25071	1.63062
0.17421	-3.08831
0.12320	-0.05289
0.04670	1.42656
0.04670	0.96742
0.32721	0.71234
0.32721	1.14597
0.09770	0.02363
-0.08081	-0.00188
-0.08081	0.81437
0.32721	-2.24656
0.37822	1.17148
0.19971	1.22250
0.07220	-0.71609
0.12320	-0.58856
0.14870	0.48277
0.17421	1.09496
0.27621	0.38074
0.09770	0.02363
0.07220	-0.12942
0.30171	-0.92016
0.07220	0.83988
0.07220	1.27351
0.09770	-1.07320
-0.08081	-0.10391
-0.02981	0.99292
0.17421	-0.28246
0.32721	-2.52714
0.37822	-0.86914
0.32721	0.76336
0.12320	2.03874
0.19971	1.57960
0.17421	-0.71609
-0.00431	1.91120
0.07220	-3.49644
0.02119	-0.12942
0.27621	1.73265
0.27621	0.35523
0.19971	0.76336
0.22521	-0.48652
0.17421	-0.07840
0.17421	0.22769
0.22521	0.20219
-0.00431	0.07465
0.07220	0.35523
0.12320	0.73785
0.12320	0.04914
0.07220	-2.27207
0.07220	-0.20594
0.07220	0.02363
0.19971	-0.74160
0.40372	-1.65988
0.12320	2.49788
0.04670	1.63062
0.19971	0.32972
0.30171	2.80397
0.27621	2.70194
0.19971	-5.28198
0.17421	-0.07840
-0.10631	0.83988
-0.08081	-0.71609
-0.13181	0.61031
0.30171	1.06945
0.30171	0.71234
0.42922	0.43176
0.45472	0.02363
0.19971	-0.41000
0.09770	-0.56305
0.12320	0.07465
0.14870	0.22769
0.07220	0.76336
0.12320	-1.32828
0.02119	-0.66508
-0.00431	0.45726
0.14870	-1.43031
0.12320	0.66132
0.32721	2.08976
0.32721	-0.53754
0.14870	0.17668
0.17421	0.55929
0.02119	1.14597
0.17421	-2.17003
0.02119	2.16628
0.25071	0.02363
0.27621	-0.12942
0.30171	0.50828
0.25071	-0.94566
0.14870	0.07465
0.09770	0.83988
0.07220	-0.18043
0.17421	1.35003
0.14870	0.10015
0.07220	0.17668
0.22521	-0.66508
0.12320	0.73785
0.04670	0.83988
0.22521	-2.39961
0.12320	-1.99148
0.04670	0.35523
0.12320	1.65613
0.25071	1.65613
0.22521	-1.81293
0.14870	-1.68539
0.14870	1.52859
0.04670	1.75816
0.27621	0.17668
0.35272	0.73785
0.17421	0.15117
-0.02981	-0.71609
0.35272	0.30422
0.04670	-0.10391
0.09770	0.38074
-0.00431	0.61031
0.07220	-0.56305
0.37822	0.32972
0.19971	-0.53754
0.12320	1.32453
0.04670	-2.70570
0.04670	-1.76191
0.09770	-0.35899
0.25071	2.03874
0.12320	2.06425
0.07220	1.35003
0.14870	0.38074
0.14870	1.37554
0.27621	-0.97117
0.27621	-0.89465
0.25071	0.35523
0.22521	-0.05289
0.25071	-2.09351
0.07220	-0.33348
-0.13181	1.42656
0.07220	-0.61406
0.09770	0.89089
-0.00431	-0.18043
-0.08081	0.55929
0.40372	0.25320
0.32721	0.63582
0.30171	-1.02219
0.12320	0.76336
0.17421	0.53379
0.14870	-0.12942
-0.10631	0.61031
-0.08081	1.24800
0.12320	-0.46102
0.32721	-0.58856
0.30171	0.17668
0.14870	-1.43031
0.14870	-0.02739
0.12320	1.65613
0.19971	0.45726
0.09770	-0.48652
0.12320	1.73265
0.07220	-0.38449
0.14870	-0.74160
0.14870	1.14597
0.30171	0.30422
0.22521	0.43176
0.04670	1.01843
-0.00431	-1.25176
0.04670	-0.35899
0.12320	0.63582
0.35272	0.04914
0.48022	0.10015
0.19971	-1.09871
-0.00431	0.35523
-0.18282	0.73785
0.12320	-0.38449
0.17421	0.94191
0.17421	0.20219
0.04670	-0.10391
0.25071	1.35003
0.30171	0.25320
0.22521	-0.10391
0.25071	2.19179
-0.02981	-3.75152
-0.08081	-0.56305
0.12320	-0.76711
0.12320	1.55410
0.12320	0.25320
0.30171	1.52859
0.32721	0.38074
0.27621	1.50308
0.12320	-1.48133
0.22521	-2.19554
0.12320	-0.43551
-0.15732	1.12046
0.14870	0.12566
0.17421	0.66132
0.09770	1.73265
0.17421	-0.43551
0.30171	-1.09871
0.19971	0.02363
0.09770	0.66132
0.07220	1.19699
0.19971	-0.25695
0.02119	-0.56305
0.04670	-0.30797
0.07220	0.86539
0.19971	0.81437
0.17421	-1.09871
0.27621	0.99292
0.30171	1.19699
0.25071	-1.43031
0.27621	0.30422
-0.08081	1.37554
-0.31033	-1.45582
-0.05531	-3.49644
0.09770	1.27351
0.42922	1.32453
0.55673	0.43176
0.32721	0.89089
0.35272	1.19699
0.30171	-0.79262
-0.02981	-0.35899
-0.08081	0.22769
-0.05531	0.45726
-0.00431	-0.84363
0.22521	1.12046
0.22521	1.86019
0.32721	-3.95558
0.17421	0.02363
-0.08081	-0.00188
-0.02981	1.63062
0.22521	1.19699
0.02119	1.14597
0.25071	-0.46102
0.50573	0.40625
0.30171	0.55929
0.09770	0.22769
0.07220	-0.56305
0.22521	-0.38449
0.07220	0.35523
-0.08081	1.19699
0.09770	-1.20074
0.25071	0.76336
0.12320	0.81437
0.12320	-0.89465
0.17421	0.73785
0.09770	-0.02739
0.17421	1.55410
0.32721	-2.55265
0.14870	0.76336
0.04670	0.96742
0.17421	1.01843
0.14870	0.48277
0.35272	0.07465
-0.23382	0.30422
0.32721	0.94191
0.27621	-2.55265
0.14870	0.04914
0.22521	0.91640
-0.20832	1.09496
-0.18282	0.83988
0.14870	0.20219
0.40372	-1.78742
0.19971	-0.25695
0.19971	1.09496
0.27621	-0.48652
0.27621	0.89089
0.12320	0.78886
-0.08081	-1.27726
0.32721	0.81437
0.27621	-0.10391
0.07220	1.40105
0.07220	0.55929
0.09770	-0.07840
0.14870	-2.90976
0.25071	1.60511
-0.00431	-0.20594
0.17421	0.58480
0.22521	1.70714
0.04670	0.94191
0.22521	-2.22105
0.07220	0.81437
0.12320	0.73785
0.22521	0.04914
0.07220	2.49788
0.12320	-3.95558
0.19971	0.22769
-0.00431	0.89089
0.09770	0.25320
0.12320	-0.46102
0.14870	0.66132
0.27621	1.65613
0.27621	-1.37929
0.19971	0.38074
0.30171	-0.30797
0.17421	0.22769
0.07220	-1.71090
-0.13181	1.42656
-0.00431	0.22769
0.04670	0.91640
0.27621	-0.07840
0.25071	0.89089
0.22521	0.66132
0.25071	-0.76711
0.14870	0.96742
0.19971	-0.20594
-0.18282	-0.12942
0.07220	-0.05289
0.12320	0.45726
0.14870	0.48277
0.19971	-0.25695
0.17421	-2.73121
0.22521	1.17148
0.09770	0.40625
-0.00431	0.73785
0.09770	1.37554
0.09770	2.49788
0.17421	-2.93527
0.27621	0.63582
0.30171	0.10015
0.25071	0.61031
0.22521	1.29902
0.12320	-0.46102
0.17421	-0.51203
0.14870	0.17668
0.09770	0.83988
0.17421	0.78886
0.02119	1.14597
0.02119	-1.22625
0.12320	0.68683
0.12320	-0.71609
0.32721	0.43176
0.32721	0.63582
0.09770	0.27871
0.12320	0.22769
0.07220	-0.63957
0.04670	-0.94566
0.32721	-0.02739
0.25071	1.01843
0.22521	-0.12942
0.12320	-1.09871
-0.02981	0.83988
0.12320	0.99292
0.32721	1.12046
0.07220	1.63062
0.17421	-1.07320
0.22521	0.43176
0.14870	-0.12942
0.30171	0.45726
0.12320	0.32972
-0.00431	0.40625
-0.13181	1.17148
-0.15732	-0.58856
0.19971	-1.32828
0.30171	1.01843
0.25071	-1.48133
0.22521	0.66132
0.25071	1.55410
0.02119	0.02363
0.25071	1.47757
0.22521	-2.80773
0.17421	0.10015
0.22521	1.57960
0.02119	1.27351
0.09770	-0.25695
0.19971	-2.70570
0.02119	0.27871
0.25071	-0.51203
0.30171	-1.22625
-0.02981	1.50308
-0.08081	-0.25695
-0.15732	1.01843
0.25071	0.66132
0.37822	0.96742
0.35272	-0.20594
0.19971	-2.39961
0.17421	-0.30797
0.12320	0.81437
-0.05531	-0.12942
0.09770	0.55929
0.25071	0.48277
0.30171	0.96742
0.25071	0.78886
0.12320	-0.97117
0.02119	-0.63957
-0.00431	0.66132
0.19971	0.04914
0.14870	-0.48652
0.04670	0.83988
0.19971	3.69675
0.19971	-0.79262
0.17421	-1.76191
0.17421	0.38074
-0.00431	0.78886
-0.05531	0.61031
0.12320	1.32453
0.37822	-0.07840
0.27621	0.15117
0.22521	-0.53754
0.25071	-0.46102
0.22521	0.61031
0.02119	0.22769
-0.10631	0.04914
-0.02981	0.25320
0.22521	0.76336
0.19971	0.15117
0.27621	-3.13933
0.12320	0.12566
0.19971	1.40105
0.22521	-0.25695
0.17421	0.48277
0.07220	2.26831
0.27621	-1.02219
-0.10631	0.76336
-0.28482	-1.32828
0.22521	-1.22625
0.12320	0.89089
0.17421	1.42656
0.37822	2.19179
0.40372	-1.63437
0.22521	0.55929
0.07220	0.58480
0.12320	1.06945
0.25071	-0.94566
0.14870	-0.23145
0.14870	0.15117
0.22521	0.55929
0.02119	0.04914
-0.02981	-1.40480
-0.02981	-0.76711
-0.02981	0.86539
0.32721	1.40105
0.22521	1.50308
0.19971	-1.30277
0.22521	-0.97117
0.04670	0.86539
0.14870	-0.66508
0.19971	1.14597
-0.00431	2.59991
0.19971	0.07465
0.30171	1.27351
0.17421	0.96742
0.04670	-0.46102
0.37822	-0.63957
0.27621	-0.41000
0.07220	0.07465
0.12320	-0.00188
0.12320	-1.25176
0.07220	0.53379
0.19971	0.43176
0.19971	0.45726
0.07220	-0.41000
0.12320	0.07465
-0.05531	0.86539
0.07220	0.86539
0.27621	0.38074
0.19971	0.20219
0.17421	0.17668
0.27621	0.48277
0.09770	-0.00188
0.32721	-0.41000
-0.05531	0.89089
-0.10631	0.15117
0.12320	0.73785
0.27621	-1.68539
0.37822	-0.25695
0.27621	2.24281
0.22521	-1.71090
0.17421	0.10015
-0.05531	0.73785
0.04670	-0.38449
0.19971	1.17148
0.14870	-1.58336
0.07220	0.25320
0.07220	0.12566
0.35272	0.58480
0.25071	-0.18043
0.35272	0.96742
0.17421	0.53379
0.25071	-1.02219
0.09770	0.22769
-0.15732	-0.46102
0.12320	1.01843
0.09770	0.73785
0.17421	1.14597
0.25071	0.63582
0.12320	0.81437
0.22521	-0.28246
0.17421	-0.18043
0.07220	0.22769
0.22521	-0.46102
0.14870	-0.20594
0.02119	0.71234
0.22521	1.24800
0.12320	-0.76711
0.09770	0.86539
0.22521	0.55929
0.22521	0.40625
-0.02981	0.27871
-0.02981	-2.50164
0.27621	-0.02739
0.22521	1.06945
0.27621	1.29902
0.09770	1.22250
-0.02981	2.08976
0.25071	-3.36890
0.37822	-1.68539
0.19971	0.22769
0.19971	-1.99148
0.07220	1.47757
-0.05531	1.40105
-0.13181	-0.10391
0.09770	0.89089
0.22521	0.63582
0.30171	0.53379
0.27621	-0.07840
0.27621	0.61031
0.07220	-0.43551
0.12320	-0.66508
0.17421	0.83988
0.14870	0.45726
0.19971	-2.01699
0.12320	-0.51203
0.04670	1.12046
-0.18282	-0.02739
0.07220	0.99292
0.25071	0.15117
0.48022	-1.04770
0.40372	0.25320
0.19971	0.86539
0.17421	0.63582
0.09770	0.96742
-0.02981	0.76336
0.12320	0.63582
0.27621	0.86539
0.22521	-1.88945
-0.05531	-0.30797
-0.05531	1.65613
-0.02981	0.99292
0.35272	-0.35899
0.22521	0.07465
0.32721	-0.05289
0.27621	0.55929
0.22521	0.04914
0.12320	0.25320
0.19971	-2.65468
0.07220	-0.07840
0.09770	1.19699
0.09770	-0.33348
0.07220	1.01843
0.14870	1.06945
0.19971	0.94191
0.25071	-0.12942
0.09770	-0.02739
-0.05531	0.66132
-0.15732	-0.43551
0.19971	0.91640
0.48022	-3.82804
0.40372	0.68683
0.30171	1.78367
0.22521	0.58480
0.30171	-0.35899
0.19971	0.48277
-0.10631	1.12046
-0.00431	1.57960
0.09770	-0.15492
0.02119	-0.20594
0.09770	0.22769
0.07220	-0.15492
-0.20832	-0.18043
0.30171	0.99292
0.30171	-0.71609
0.30171	-1.76191
0.27621	0.73785
0.09770	1.55410
0.32721	0.15117
0.07220	-0.00188
0.19971	0.53379
0.32721	0.71234
0.07220	0.94191
0.12320	1.35003
-0.02981	0.25320
-0.05531	-5.56257
0.17421	0.32972
0.19971	0.81437
0.22521	1.70714
0.04670	1.45206
0.07220	1.57960
0.27621	0.78886
0.19971	0.73785
0.22521	-0.92016
0.40372	0.27871
0.19971	0.63582
0.04670	-2.60367
0.09770	0.17668
0.04670	-0.10391
0.12320	-0.28246
0.04670	0.86539
0.12320	-0.84363
0.22521	0.68683
0.19971	1.14597
0.22521	0.25320
0.22521	0.86539
0.19971	0.58480
0.12320	-2.57816
-0.05531	-0.28246
0.25071	0.68683
0.12320	1.24800
0.19971	-0.53754
0.27621	1.52859
0.19971	1.29902
0.07220	-2.34859
0.12320	-0.69059
0.07220	-0.89465
0.12320	1.80917
0.25071	1.78367
0.02119	0.12566
0.12320	-0.05289
0.25071	0.63582
0.22521	0.12566
0.07220	0.30422
0.07220	0.40625
0.12320	-0.84363
0.22521	-1.78742
0.22521	0.81437
0.19971	-1.02219
0.09770	0.22769
-0.00431	0.30422
0.22521	1.60511
0.12320	-0.84363
0.02119	0.25320
0.22521	0.68683
0.14870	-0.20594
0.12320	-0.89465
0.12320	-0.48652
-0.08081	0.76336
0.14870	1.80917
0.35272	0.02363
0.32721	1.04394
0.35272	1.27351
0.19971	-1.35379
-0.00431	0.07465
-0.00431	0.20219
0.09770	0.35523
0.17421	0.32972
0.32721	-0.61406
0.19971	-0.35899
0.14870	-1.76191
0.19971	0.96742
-0.02981	0.73785
-0.20832	-0.23145
0.09770	0.04914
0.12320	0.66132
0.30171	0.94191
0.48022	-0.30797
0.17421	-0.05289
0.07220	-0.23145
0.30171	1.29902
0.04670	1.14597
0.12320	-0.38449
0.17421	0.73785
0.12320	-1.25176
0.12320	-1.86394
0.12320	1.75816
0.14870	0.78886
0.22521	2.08976
0.12320	-0.12942
-0.00431	0.73785
0.17421	1.01843
0.25071	-0.99668
0.09770	-0.18043
0.17421	-0.30797
0.19971	0.04914
0.22521	0.48277
0.12320	-1.48133
0.09770	1.24800
0.19971	-1.58336
0.09770	-1.14973
0.12320	0.07465
0.25071	1.06945
0.12320	1.86019
0.04670	-0.38449
0.25071	1.45206
0.12320	1.83468
0.17421	-1.94047
0.12320	1.12046
0.12320	-1.12422
0.07220	-0.10391
0.27621	-1.02219
0.25071	1.24800
0.07220	1.93671
0.07220	-0.05289
0.12320	0.76336
-0.00431	-0.25695
0.27621	0.53379
0.17421	-0.81812
0.22521	0.61031
0.17421	-0.94566
0.09770	0.27871
0.27621	-0.05289
0.09770	-1.17523
0.09770	0.73785
0.17421	0.53379
0.12320	0.53379
0.04670	-0.38449
0.19971	1.47757
0.04670	-0.61406
0.14870	-0.81812
0.14870	1.78367
0.12320	0.63582
0.09770	2.67644
0.45472	0.63582
0.35272	-3.06281
0.17421	-2.29757
0.09770	1.45206
-0.02981	2.08976
-0.13181	1.42656
0.12320	1.12046
0.32721	0.99292
0.27621	1.17148
0.22521	-0.86914
0.30171	-1.37929
0.17421	-0.69059
0.14870	-0.28246
0.09770	0.40625
0.02119	0.45726
0.07220	0.68683
-0.00431	1.19699
0.17421	-0.33348
0.17421	-1.99148
0.30171	-1.65988
0.17421	1.14597
0.14870	1.86019
0.17421	0.76336
0.02119	-0.20594
-0.02981	0.68683
0.17421	1.93671
0.27621	-0.56305
0.32721	-1.48133
0.12320	-0.20594
0.27621	0.50828
-0.00431	-0.12942
0.27621	1.29902
0.12320	1.12046
0.09770	1.35003
-0.08081	1.24800
-0.20832	-1.58336
0.09770	-0.10391
0.37822	-0.58856
0.48022	-1.78742
0.45472	0.61031
0.19971	0.32972
0.02119	1.45206
0.04670	0.96742
0.02119	0.22769
0.17421	0.04914
0.09770	0.53379
0.02119	-0.63957
0.09770	-0.10391
-0.00431	0.55929
-0.02981	0.10015
0.27621	0.43176
0.42922	0.22769
0.30171	-0.07840
0.27621	1.78367
0.27621	-0.25695
-0.23382	0.99292
-0.10631	-1.32828
0.32721	0.45726
0.19971	-1.04770
0.32721	0.55929
0.12320	0.86539
0.19971	0.25320
0.27621	0.66132
0.04670	0.40625
-0.18282	0.25320
-0.00431	0.50828
0.42922	-1.12422
0.30171	-1.73640
0.14870	0.32972
0.02119	0.50828
0.04670	0.96742
0.04670	-1.25176
0.22521	1.12046
0.22521	1.17148
0.04670	-0.30797
0.27621	0.40625
0.30171	-3.06281
0.12320	0.55929
0.17421	0.53379
0.22521	-0.79262
0.09770	1.17148
0.17421	0.81437
0.14870	0.94191
0.04670	0.68683
0.09770	0.32972
0.12320	0.53379
0.02119	0.55929
0.04670	-2.85874
0.17421	-2.11902
0.02119	0.78886
0.27621	0.78886
0.32721	0.78886
0.12320	-0.33348
0.19971	0.32972
0.35272	0.38074
0.19971	1.17148
0.09770	-0.18043
0.17421	0.17668
-0.05531	-1.09871
-0.00431	0.45726
0.12320	-0.07840
0.12320	1.47757
0.30171	1.73265
0.27621	0.32972
0.19971	1.35003
0.22521	-1.04770
0.12320	-0.02739
-0.00431	-0.43551
-0.00431	1.32453
0.14870	0.76336
0.25071	-2.37410
0.19971	1.55410
0.09770	-0.46102
0.27621	-0.71609
0.45472	-0.30797
0.12320	-0.05289
-0.05531	-0.35899
-0.20832	0.63582
-0.38683	1.65613
0.14870	1.35003
0.42922	-0.48652
0.40372	-0.76711
0.50573	1.40105
0.45472	0.86539
0.27621	-1.37929
0.14870	0.25320
0.07220	0.61031
-0.02981	0.55929
-0.05531	0.63582
0.02119	-1.14973
0.17421	-0.61406
0.12320	0.83988
0.02119	0.15117
-0.10631	-1.09871
0.09770	1.32453
0.27621	0.04914
0.17421	-0.33348
0.22521	0.20219
0.25071	0.10015
0.14870	-0.12942
0.14870	0.63582
0.19971	1.14597
0.27621	0.83988
0.04670	0.22769
-0.02981	-0.41000
0.14870	-0.41000
0.17421	-0.46102
0.19971	-0.35899
0.37822	1.09496
0.22521	-0.43551
0.12320	0.68683
-0.02981	-0.25695
0.17421	0.32972
0.04670	-0.30797
0.02119	-0.35899
0.27621	0.32972
0.30171	0.91640
0.22521	0.53379
0.12320	-3.16484
0.02119	0.17668
0.04670	1.01843
0.14870	1.17148
0.12320	0.66132
0.22521	1.09496
0.02119	-0.81812
0.12320	-0.38449
0.27621	1.22250
0.27621	0.02363
0.27621	0.81437
0.14870	0.22769
0.17421	1.70714
0.12320	-2.90976
-0.05531	0.32972
0.14870	0.63582
0.12320	1.14597
0.32721	-0.81812
0.30171	0.99292
0.07220	-0.58856
0.19971	0.45726
0.17421	0.66132
0.25071	0.40625
0.14870	-0.86914
-0.05531	0.30422
0.04670	0.48277
0.12320	-0.69059
0.19971	-0.61406
0.02119	-1.73640
0.04670	1.68163
