0.12320	0.20219
0.17421	0.07465
0.25071	0.40625
0.09770	0.30422
0.22521	-0.38449
0.14870	0.17668
0.12320	0.12566
0.14870	0.12566
0.12320	0.07465
0.14870	0.35523
0.07220	0.32972
0.14870	0.27871
0.19971	0.30422
0.12320	0.10015
0.19971	0.12566
0.17421	0.04914
0.19971	0.27871
0.12320	-0.18043
0.17421	-0.41000
0.17421	0.32972
0.09770	0.04914
0.22521	0.68683
0.09770	-0.43551
0.14870	0.40625
0.12320	0.55929
0.04670	0.35523
0.17421	0.02363
0.12320	-0.33348
0.19971	0.20219
0.14870	-0.00188
0.19971	-0.10391
0.17421	0.35523
0.17421	0.38074
0.02119	0.50828
0.07220	0.30422
0.65874	0.04914
0.12320	0.17668
0.07220	0.20219
0.07220	-0.10391
0.07220	0.35523
0.09770	-0.86914
0.19971	0.15117
0.12320	0.32972
0.12320	0.38074
0.22521	0.10015
0.22521	-0.00188
0.07220	0.27871
0.14870	0.35523
0.22521	0.15117
0.09770	0.22769
0.14870	0.32972
0.17421	0.07465
0.09770	-0.63957
0.14870	-0.41000
0.19971	0.35523
0.12320	0.66132
0.04670	0.38074
0.22521	0.30422
0.14870	0.22769
0.14870	0.15117
0.22521	0.25320
0.09770	0.20219
0.17421	0.07465
0.12320	-0.20594
0.09770	0.20219
0.17421	0.25320
0.12320	0.20219
0.12320	-0.05289
0.17421	0.15117
0.17421	0.43176
0.14870	0.27871
0.27621	0.40625
0.09770	0.32972
0.17421	-0.35899
0.17421	-0.00188
0.04670	0.25320
0.19971	0.22769
0.07220	0.12566
0.12320	0.04914
0.14870	0.12566
0.14870	0.40625
0.17421	0.27871
0.19971	0.35523
0.14870	0.07465
0.19971	-0.25695
0.14870	-0.23145
0.14870	-0.05289
0.17421	0.12566
0.17421	0.30422
0.17421	0.32972
0.17421	0.17668
0.09770	0.27871
0.14870	0.10015
0.19971	0.12566
0.12320	0.20219
0.14870	0.07465
0.14870	0.25320
0.09770	0.15117
0.22521	0.04914
0.14870	0.12566
0.09770	-0.10391
0.19971	0.35523
0.14870	0.55929
0.17421	-0.46102
0.12320	0.32972
0.14870	0.63582
0.17421	-0.35899
0.07220	-0.94566
0.19971	0.50828
0.09770	0.58480
0.12320	0.35523
0.07220	0.53379
0.25071	0.10015
0.07220	0.30422
0.25071	0.04914
0.07220	0.25320
0.12320	0.15117
0.14870	-0.02739
0.09770	-0.35899
0.12320	-0.28246
0.17421	0.25320
0.07220	0.22769
0.14870	-0.15492
0.12320	0.48277
0.09770	0.35523
0.22521	0.45726
0.09770	0.35523
0.14870	0.20219
0.14870	0.10015
0.17421	0.15117
0.25071	0.20219
-0.18282	0.04914
0.30171	0.12566
0.50573	0.17668
0.07220	0.04914
0.12320	-0.00188
-0.13181	0.35523
0.07220	-0.48652
0.14870	0.07465
0.17421	0.17668
0.17421	0.50828
0.14870	0.53379
0.22521	0.04914
0.17421	0.02363
0.17421	0.78886
0.22521	-1.25176
0.09770	0.07465
0.19971	0.17668
0.12320	0.30422
0.12320	0.61031
0.12320	0.38074
0.09770	0.53379
0.17421	0.27871
0.12320	0.17668
0.17421	-0.02739
0.19971	-0.07840
0.09770	-0.10391
0.14870	-0.07840
0.17421	0.12566
0.12320	0.04914
0.19971	0.15117
0.17421	0.15117
0.07220	0.22769
0.19971	0.20219
0.12320	0.25320
0.07220	0.17668
0.19971	0.27871
0.14870	0.30422
0.09770	0.25320
0.22521	0.43176
0.14870	-0.25695
0.17421	0.04914
0.12320	0.22769
0.12320	0.12566
0.14870	0.32972
0.04670	0.35523
0.12320	0.25320
0.22521	-0.48652
0.04670	0.35523
0.14870	0.32972
0.19971	0.15117
0.17421	-0.07840
0.22521	-0.02739
0.12320	0.25320
0.12320	0.10015
0.17421	0.15117
0.12320	0.25320
0.25071	0.17668
0.07220	0.40625
0.25071	-0.81812
0.14870	0.32972
0.14870	0.40625
0.14870	0.25320
0.12320	0.35523
0.17421	0.25320
0.07220	0.35523
0.12320	-0.07840
0.14870	-0.00188
0.04670	-0.02739
0.25071	0.20219
0.17421	0.25320
0.12320	0.22769
0.14870	-0.18043
0.09770	0.15117
0.25071	0.25320
0.02119	0.12566
0.22521	0.50828
0.14870	0.40625
0.14870	-0.05289
0.17421	0.04914
0.14870	0.43176
0.12320	0.25320
0.22521	0.15117
0.07220	-0.61406
0.19971	0.15117
0.12320	0.40625
0.19971	0.50828
0.07220	-0.46102
0.17421	0.22769
0.14870	0.25320
0.09770	0.10015
0.25071	0.27871
0.07220	0.04914
0.22521	0.32972
0.12320	0.12566
0.09770	0.12566
0.12320	0.10015
0.12320	0.10015
0.22521	0.10015
0.07220	0.27871
0.17421	0.53379
0.12320	-1.12422
0.17421	-0.02739
0.14870	0.61031
0.17421	0.50828
0.12320	0.53379
0.12320	0.35523
0.12320	0.22769
0.17421	-0.10391
0.12320	0.02363
0.09770	-0.00188
0.22521	0.17668
0.09770	0.30422
0.19971	0.32972
0.14870	-0.20594
0.12320	0.20219
0.07220	0.12566
0.19971	0.10015
0.09770	0.22769
0.22521	0.50828
0.12320	0.20219
0.19971	0.38074
0.07220	0.38074
0.22521	-0.81812
0.04670	0.02363
0.19971	0.50828
0.07220	-0.53754
0.17421	-0.12942
0.17421	0.58480
0.17421	0.83988
0.17421	0.58480
0.14870	0.32972
0.14870	0.10015
0.12320	0.35523
0.19971	-0.63957
0.12320	0.38074
0.09770	0.30422
0.22521	0.15117
0.07220	0.12566
0.19971	0.15117
0.12320	0.12566
0.25071	0.15117
0.07220	0.12566
0.19971	0.22769
0.07220	0.04914
0.19971	-0.25695
0.09770	-0.05289
0.12320	0.22769
0.14870	0.25320
0.14870	0.50828
0.14870	0.30422
0.14870	0.10015
0.17421	0.22769
0.17421	0.25320
0.14870	0.17668
0.09770	0.35523
0.19971	0.10015
0.19971	0.27871
0.14870	-1.17523
0.22521	-0.53754
0.09770	0.94191
0.17421	0.50828
0.22521	0.45726
0.17421	0.55929
0.14870	0.48277
0.19971	0.40625
0.09770	0.45726
0.04670	-0.05289
0.17421	-1.37929
0.17421	0.04914
0.07220	0.55929
0.14870	0.02363
0.12320	-0.05289
0.07220	0.45726
0.22521	0.40625
0.12320	0.27871
0.14870	0.20219
0.22521	0.20219
0.12320	0.10015
0.12320	0.10015
0.12320	0.10015
0.19971	0.15117
0.22521	0.15117
0.07220	0.20219
0.12320	-0.10391
0.09770	-0.00188
0.07220	0.38074
0.19971	0.17668
0.17421	-0.23145
0.14870	0.20219
0.22521	0.45726
0.09770	0.25320
0.19971	0.43176
0.12320	-0.51203
0.04670	0.27871
0.22521	0.25320
0.07220	0.17668
0.12320	0.35523
0.12320	0.30422
0.04670	0.04914
0.17421	-0.07840
0.17421	0.27871
0.14870	0.25320
0.22521	0.15117
0.07220	-0.94566
0.12320	0.32972
0.12320	0.45726
0.07220	0.68683
0.12320	-0.46102
0.17421	0.71234
0.07220	-0.38449
0.25071	-0.15492
0.07220	0.30422
0.25071	0.35523
0.07220	-0.15492
0.14870	0.32972
0.04670	0.32972
0.22521	0.25320
0.07220	0.22769
0.22521	0.04914
0.14870	-0.02739
0.14870	-0.02739
0.17421	0.15117
0.17421	0.30422
0.19971	0.22769
0.12320	0.10015
0.25071	0.04914
0.07220	0.02363
0.17421	0.17668
0.14870	0.55929
0.17421	-0.10391
0.17421	0.30422
0.07220	0.50828
0.19971	-0.18043
0.04670	0.27871
0.22521	0.30422
0.04670	0.07465
0.22521	0.35523
0.09770	0.22769
0.17421	0.61031
0.14870	-1.48133
0.19971	0.25320
0.12320	0.45726
0.14870	0.38074
0.22521	0.25320
0.07220	0.30422
0.14870	0.12566
0.14870	0.43176
0.07220	-0.89465
0.19971	0.12566
0.17421	0.40625
0.22521	0.22769
0.17421	0.27871
0.04670	0.32972
0.17421	-0.05289
0.14870	-0.25695
0.09770	0.35523
0.22521	0.32972
0.17421	0.15117
0.09770	0.17668
0.17421	-0.00188
0.19971	-0.58856
0.14870	0.35523
0.17421	0.63582
0.07220	0.66132
0.19971	0.25320
0.12320	0.04914
0.14870	0.15117
0.12320	0.27871
0.04670	0.27871
0.22521	0.32972
0.12320	-0.18043
0.22521	-0.51203
0.19971	0.32972
0.17421	0.35523
0.14870	0.10015
0.07220	0.35523
0.14870	0.20219
0.12320	0.17668
0.07220	0.27871
0.17421	0.10015
0.12320	-0.07840
0.17421	0.20219
0.22521	0.17668
0.17421	0.25320
0.04670	0.25320
0.19971	0.15117
0.17421	0.04914
0.12320	-0.00188
0.19971	-0.00188
0.22521	0.25320
0.09770	0.32972
0.17421	0.35523
0.22521	0.25320
0.09770	-0.00188
0.09770	0.12566
0.09770	0.48277
0.04670	-0.05289
0.22521	0.35523
0.09770	-1.63437
0.22521	0.15117
0.17421	0.66132
0.07220	0.99292
0.19971	0.17668
0.07220	0.40625
0.19971	0.20219
0.07220	0.20219
0.12320	-0.05289
0.22521	-0.15492
0.07220	0.04914
0.22521	0.22769
0.17421	-0.28246
0.09770	-0.15492
0.22521	0.12566
0.12320	0.35523
0.07220	0.25320
0.12320	0.25320
0.07220	0.15117
0.07220	0.35523
0.25071	0.30422
0.19971	0.43176
0.09770	-0.51203
0.17421	0.25320
0.14870	0.35523
0.04670	0.04914
0.19971	-0.07840
0.07220	-0.23145
0.17421	0.12566
0.14870	0.35523
0.09770	0.50828
0.14870	0.27871
0.14870	0.15117
0.12320	0.15117
0.19971	0.10015
0.04670	-0.05289
0.12320	0.17668
0.12320	-0.00188
0.07220	-0.48652
0.17421	0.32972
0.14870	0.25320
0.07220	0.53379
0.22521	0.76336
0.07220	-0.51203
0.19971	0.12566
0.14870	0.35523
0.17421	0.22769
0.12320	-0.15492
0.17421	0.20219
0.22521	0.10015
0.07220	0.02363
0.14870	-0.10391
0.14870	0.38074
0.07220	0.55929
0.22521	0.30422
0.14870	0.20219
0.17421	-0.58856
0.12320	0.17668
0.09770	0.22769
0.17421	0.22769
0.14870	0.53379
0.12320	-0.61406
0.14870	0.30422
0.09770	0.30422
0.22521	0.30422
0.09770	0.20219
0.12320	0.07465
0.04670	0.07465
0.14870	-0.05289
0.12320	0.00000
0.09770	0.00000
0.25071	0.17668
0.12320	0.04914
0.12320	0.20219
0.14870	0.12566
0.07220	0.07465
0.19971	0.48277
0.12320	0.27871
0.07220	-0.28246
0.22521	0.35523
0.14870	0.48277
0.14870	-0.56305
0.22521	-0.25695
0.09770	0.50828
0.19971	-0.25695
0.04670	0.50828
0.17421	0.45726
0.17421	0.45726
0.07220	0.12566
0.19971	0.30422
0.17421	0.20219
0.12320	0.22769
0.22521	-0.35899
0.07220	0.07465
0.22521	0.04914
0.12320	0.32972
0.14870	0.27871
0.19971	-0.15492
0.09770	0.17668
0.22521	0.25320
0.17421	0.40625
0.12320	0.15117
0.14870	0.04914
0.09770	-0.25695
0.19971	0.35523
0.07220	0.27871
0.19971	0.43176
0.04670	0.12566
0.22521	0.35523
0.07220	0.32972
0.22521	-1.32828
0.14870	0.02363
0.14870	0.53379
0.22521	0.55929
0.07220	0.25320
0.22521	0.15117
0.09770	0.32972
0.12320	0.12566
0.17421	0.22769
0.04670	-0.02739
0.22521	0.30422
0.12320	-0.00188
0.14870	-0.12942
0.17421	-0.41000
0.14870	0.07465
0.09770	0.25320
0.12320	0.68683
0.12320	0.45726
0.17421	0.17668
0.14870	0.12566
0.14870	0.35523
0.12320	-0.84363
0.12320	0.20219
0.14870	0.25320
0.09770	0.61031
0.19971	0.61031
0.04670	0.40625
0.22521	-1.14973
0.09770	-0.74160
0.22521	0.76336
0.09770	0.71234
0.14870	0.55929
0.14870	0.61031
0.04670	0.38074
0.22521	-0.00188
0.12320	-0.20594
0.07220	0.22769
0.17421	0.20219
0.14870	0.02363
0.09770	0.02363
0.22521	0.07465
0.14870	0.15117
0.07220	0.12566
0.22521	0.10015
0.17421	0.20219
0.04670	0.20219
0.12320	0.17668
0.19971	0.30422
0.09770	-0.71609
0.17421	-0.05289
0.22521	0.45726
0.19971	0.40625
0.09770	0.35523
0.14870	0.35523
0.22521	0.53379
0.12320	0.30422
0.09770	-0.43551
0.12320	0.15117
0.12320	0.35523
0.07220	0.15117
0.17421	-0.53754
0.22521	-0.12942
0.14870	0.50828
0.14870	0.45726
0.19971	0.50828
0.07220	0.43176
0.14870	0.02363
0.14870	0.12566
0.07220	-0.66508
0.14870	-0.38449
0.17421	0.35523
0.07220	0.38074
0.19971	0.48277
0.12320	0.63582
0.07220	-0.53754
0.17421	0.38074
0.14870	0.55929
0.12320	0.30422
0.14870	0.02363
0.14870	0.25320
0.09770	0.04914
0.14870	-0.05289
0.19971	0.32972
0.07220	0.12566
0.12320	-0.25695
0.17421	-0.35899
0.12320	-0.10391
0.07220	0.45726
0.07220	0.66132
0.22521	0.55929
0.14870	0.45726
0.12320	0.25320
0.14870	0.12566
0.22521	0.12566
0.14870	-0.10391
0.12320	-0.07840
0.19971	0.10015
0.14870	0.04914
0.12320	0.02363
0.17421	0.04914
0.22521	0.10015
0.14870	0.15117
0.09770	0.20219
0.14870	0.35523
0.22521	0.32972
0.12320	0.20219
0.12320	0.15117
0.22521	0.15117
0.12320	0.15117
0.07220	0.02363
0.14870	0.15117
0.25071	0.20219
0.17421	0.17668
0.07220	0.15117
0.12320	0.20219
0.17421	0.27871
0.14870	0.15117
0.02119	0.04914
-0.05531	0.22769
0.58223	0.12566
0.42922	0.15117
0.12320	0.12566
0.04670	0.22769
-0.43783	0.10015
0.07220	0.35523
1.04126	-0.25695
-0.10631	-0.18043
-0.10631	-0.00188
0.25071	0.66132
0.14870	0.53379
0.02119	0.81437
0.12320	-1.22625
0.17421	0.55929
0.25071	-0.30797
-0.15732	-0.15492
0.27621	0.48277
0.37822	0.50828
0.17421	0.91640
-0.02981	1.40105
0.12320	1.70714
0.17421	1.73265
0.40372	-0.35899
-0.20832	-5.48604
0.19971	-1.88945
-0.02981	1.75816
-0.15732	4.00284
0.22521	-1.43031
0.35272	2.37034
0.48022	-2.39961
0.17421	-1.50683
0.25071	0.81437
-0.08081	0.22769
0.02119	2.75296
0.32721	0.17668
0.32721	1.47757
0.53123	4.02835
0.04670	5.66084
0.17421	-14.36274
0.25071	-2.68019
-0.20832	-4.28718
-0.00431	-0.56305
-0.15732	3.08456
-0.36133	5.89041
0.19971	6.27303
0.40372	2.80397
-0.05531	-2.29757
0.73524	-6.09823
0.91375	-5.07792
-0.23382	3.23761
-0.33583	4.25792
-0.18282	-3.49644
0.12320	2.29382
0.32721	-6.73592
0.12320	4.13038
0.37822	2.85499
-0.08081	-5.02690
0.58223	-6.48085
-0.00431	3.56921
0.19971	4.97213
0.30171	-1.30277
0.37822	-1.07320
0.30171	3.90081
0.37822	8.13509
0.35272	-2.83324
0.50573	-1.99148
-0.20832	-3.54745
-0.43783	-1.40480
-0.33583	4.71706
-0.28482	3.62022
0.12320	-5.05241
0.53123	0.22769
0.45472	-1.53234
0.45472	0.45726
0.50573	0.73785
0.22521	3.03355
0.37822	6.57912
0.27621	-1.30277
0.02119	-4.89936
-0.20832	-0.81812
-0.51434	-2.27207
-0.33583	5.66084
-0.31033	1.91120
0.48022	-2.55265
0.58223	1.40105
0.22521	2.59991
0.27621	3.44167
-0.25932	0.55929
0.25071	-7.39912
0.35272	-0.25695
0.25071	1.96222
0.42922	2.57441
0.19971	0.76336
0.17421	0.76336
0.45472	-0.33348
0.27621	0.10015
0.12320	-0.15492
-0.18282	3.46718
-0.05531	-6.50635
-0.10631	-0.46102
0.30171	-0.61406
0.02119	1.06945
0.09770	1.93671
0.27621	4.58952
0.14870	2.67644
-0.15732	-2.83324
-0.05531	-3.72601
-0.33583	1.68163
0.30171	1.17148
0.58223	-0.46102
0.45472	4.20690
0.32721	-2.52714
0.42922	3.49268
0.32721	-6.55737
0.19971	5.81389
0.25071	-1.83844
-0.05531	-1.20074
0.22521	2.11527
-0.10631	-0.20594
-0.43783	0.48277
-0.20832	4.71706
-0.20832	-4.72081
0.35272	-2.70570
0.40372	0.04914
0.09770	2.65093
0.53123	4.00284
0.58223	3.41616
0.63323	0.89089
0.35272	-1.27726
0.40372	-2.04250
-0.00431	0.10015
-0.10631	1.57960
-0.13181	0.78886
-0.25932	1.14597
0.02119	-2.39961
0.27621	-7.57768
-0.18282	3.69675
0.14870	3.74776
0.45472	-3.01179
0.19971	3.54370
0.04670	1.32453
0.04670	1.78367
-0.13181	-0.41000
0.07220	1.55410
0.42922	0.02363
0.53123	-3.70050
0.48022	-0.99668
0.25071	0.48277
0.09770	1.12046
0.07220	0.96742
0.22521	-0.76711
0.25071	0.20219
0.22521	0.53379
0.07220	-0.10391
-0.15732	1.93671
-0.05531	2.88050
0.09770	0.22769
0.02119	-2.75671
0.17421	-1.09871
-0.02981	1.45206
0.04670	4.66604
0.04670	1.37554
0.12320	-3.93007
0.19971	-1.25176
0.22521	0.58480
0.40372	1.09496
0.48022	-0.61406
0.17421	2.08976
-0.08081	1.75816
0.09770	1.14597
0.50573	5.09967
0.53123	-3.34339
0.22521	-11.37833
-0.08081	1.24800
-0.28482	2.01323
-0.00431	3.56921
0.25071	-2.11902
0.12320	-0.23145
-0.00431	1.52859
-0.25932	5.89041
0.09770	-13.08735
0.37822	-0.81812
0.14870	2.39585
0.25071	4.07936
0.17421	0.81437
0.07220	-1.27726
0.09770	-1.88945
0.02119	0.63582
0.07220	2.01323
0.32721	1.60511
0.42922	0.25320
0.32721	0.12566
0.37822	1.09496
0.27621	-0.66508
-0.05531	-0.89465
-0.33583	-0.30797
0.07220	0.27871
0.17421	-0.48652
0.12320	-0.05289
0.22521	0.17668
0.12320	-2.83324
0.35272	2.14077
0.27621	-1.14973
0.17421	1.73265
0.14870	1.14597
0.02119	-0.46102
0.14870	3.11007
0.30171	-1.22625
0.32721	0.15117
0.12320	-2.32308
0.19971	-1.88945
-0.10631	1.47757
-0.31033	1.29902
0.27621	1.27351
0.32721	2.47238
0.22521	-1.22625
0.17421	-1.40480
0.04670	2.49788
0.25071	-0.86914
0.17421	-3.19035
0.12320	0.35523
-0.00431	1.98773
0.17421	1.42656
0.45472	1.55410
0.17421	0.99292
0.22521	-0.20594
0.04670	0.83988
-0.05531	-1.40480
0.19971	1.86019
0.07220	-2.34859
0.22521	-1.48133
0.12320	1.17148
0.19971	2.52339
0.32721	-3.98109
0.12320	1.35003
-0.25932	0.61031
-0.05531	1.01843
0.12320	1.65613
0.32721	1.17148
0.32721	0.43176
0.40372	1.17148
0.45472	-1.53234
0.27621	-4.31269
0.07220	-1.02219
-0.18282	2.03874
-0.25932	1.75816
-0.10631	3.46718
0.27621	-6.20026
0.35272	1.83468
0.02119	3.92632
0.17421	-2.19554
0.17421	-0.35899
0.22521	1.88570
0.17421	1.42656
0.17421	1.32453
0.02119	-1.63437
0.17421	1.98773
0.19971	-0.38449
0.25071	-5.12893
0.17421	1.65613
0.12320	1.57960
0.07220	1.83468
0.17421	1.93671
0.14870	1.50308
0.12320	-0.66508
0.14870	0.55929
-0.00431	0.27871
0.27621	-3.47093
0.40372	-3.03730
0.12320	0.83988
0.07220	0.20219
0.02119	3.74776
0.25071	-2.29757
0.14870	-1.68539
0.27621	-1.68539
0.25071	2.01323
0.22521	-3.72601
-0.00431	1.47757
-0.05531	2.11527
-0.10631	1.80917
0.17421	1.17148
0.12320	1.06945
0.27621	0.58480
0.30171	-0.02739
0.07220	0.30422
0.22521	-0.43551
0.07220	-1.22625
0.04670	-0.79262
0.27621	1.22250
0.27621	-0.35899
0.19971	-0.35899
0.25071	-0.61406
0.02119	2.42136
0.17421	1.93671
-0.00431	1.91120
0.09770	-1.48133
0.27621	1.35003
0.02119	0.27871
0.12320	1.32453
0.12320	1.01843
0.32721	-0.35899
-0.00431	2.59991
-0.00431	-3.31788
0.22521	-1.53234
0.32721	-10.00091
0.25071	1.19699
0.32721	2.82948
0.25071	2.08976
0.09770	1.40105
-0.00431	-0.23145
-0.10631	2.47238
0.19971	0.48277
0.19971	1.78367
0.22521	1.55410
0.22521	-3.03730
-0.18282	1.19699
-0.05531	0.22769
0.27621	-4.31269
0.35272	2.80397
0.12320	-0.58856
0.25071	-2.11902
0.40372	1.68163
-0.00431	1.35003
-0.00431	-1.20074
-0.08081	0.53379
0.07220	0.66132
0.02119	-0.18043
0.09770	-0.15492
0.22521	0.96742
0.37822	-1.53234
0.14870	-1.07320
0.14870	1.12046
0.25071	1.65613
0.25071	3.05905
0.07220	-0.66508
0.14870	-2.80773
0.04670	-1.94047
-0.15732	0.25320
0.12320	2.67644
0.30171	0.40625
0.37822	-1.55785
0.35272	-2.93527
0.12320	0.15117
0.19971	1.29902
-0.20832	2.59991
-0.59084	2.62542
0.35272	-2.19554
0.63323	0.07465
0.48022	0.45726
0.32721	-0.84363
0.19971	0.25320
-0.13181	2.08976
-0.25932	0.50828
-0.02981	-2.39961
0.17421	-2.17003
0.35272	-0.38449
0.37822	0.99292
0.22521	2.52339
0.12320	3.51819
0.14870	-0.00188
0.17421	-1.68539
0.07220	1.09496
0.02119	-0.18043
-0.20832	1.14597
0.14870	-0.74160
0.32721	-1.48133
0.22521	-0.38449
0.14870	0.20219
-0.02981	0.81437
-0.05531	2.57441
0.17421	-0.48652
0.32721	0.40625
0.48022	-0.23145
0.25071	-1.65988
0.37822	-0.58856
0.12320	2.06425
0.17421	1.32453
-0.02981	0.43176
-0.00431	-1.07320
-0.08081	-2.17003
0.22521	0.81437
0.07220	0.78886
0.12320	-0.20594
0.17421	0.48277
0.09770	0.76336
0.40372	0.58480
0.35272	0.10015
0.19971	-2.65468
0.19971	0.32972
0.14870	-0.23145
-0.10631	0.61031
0.07220	-0.23145
0.27621	-0.25695
0.09770	0.96742
0.09770	2.67644
0.12320	2.21730
0.32721	-4.56776
0.32721	0.10015
0.12320	0.83988
-0.00431	-0.02739
0.12320	-1.37929
0.02119	0.66132
0.02119	1.83468
0.17421	0.78886
0.17421	-0.43551
0.25071	-3.03730
0.32721	0.50828
0.19971	3.05905
0.22521	-0.63957
0.32721	-3.95558
0.32721	-0.66508
0.09770	-0.41000
-0.13181	2.11527
0.09770	2.06425
-0.08081	2.47238
-0.13181	-0.86914
0.12320	0.30422
0.30171	1.09496
0.32721	-1.35379
0.27621	1.57960
0.40372	0.58480
0.22521	-1.25176
-0.05531	-1.20074
-0.05531	0.76336
0.07220	-0.33348
0.25071	1.52859
0.04670	2.06425
0.19971	1.68163
0.12320	-2.85874
0.14870	-0.86914
0.19971	0.63582
0.09770	0.91640
0.17421	-0.38449
0.25071	0.15117
-0.05531	1.78367
0.14870	1.01843
0.30171	1.96222
0.09770	1.52859
0.35272	-0.28246
0.07220	-0.46102
-0.08081	-0.23145
-0.05531	-1.48133
0.12320	-1.17523
0.14870	0.66132
0.09770	-0.51203
0.22521	2.85499
0.30171	-4.08312
0.14870	-3.39441
0.12320	0.89089
0.19971	1.65613
0.14870	1.50308
0.07220	2.03874
0.22521	1.75816
0.02119	2.16628
-0.10631	0.86539
0.02119	-1.78742
0.27621	-0.99668
0.12320	-3.49644
0.27621	1.09496
0.25071	1.01843
0.14870	1.14597
0.19971	-1.14973
0.22521	0.86539
0.12320	0.48277
-0.10631	2.21730
0.09770	-3.24136
0.07220	0.45726
-0.08081	1.75816
0.27621	-2.09351
0.40372	0.66132
0.27621	0.53379
0.37822	0.22769
0.35272	1.17148
-0.08081	-0.46102
-0.38683	1.40105
0.27621	0.30422
0.17421	-0.12942
0.19971	-2.24656
0.22521	0.53379
0.30171	1.27351
0.19971	2.82948
0.12320	4.43647
0.12320	-14.64332
0.02119	-1.07320
-0.10631	1.98773
0.19971	2.34484
0.04670	2.11527
0.22521	2.19179
0.17421	1.50308
0.19971	0.73785
0.22521	1.24800
0.12320	-1.17523
0.22521	-2.22105
0.09770	-0.94566
0.09770	-1.09871
0.07220	1.29902
0.12320	0.27871
0.19971	-2.70570
0.27621	0.45726
0.27621	-4.31269
0.27621	-0.35899
-0.00431	1.37554
-0.08081	1.86019
0.25071	1.65613
0.17421	0.55929
0.14870	1.47757
0.14870	4.28343
0.22521	-4.87386
0.14870	-0.74160
-0.10631	0.55929
0.22521	1.22250
0.30171	-0.61406
0.30171	-1.99148
0.04670	1.88570
0.12320	-0.63957
0.02119	-0.43551
0.14870	0.17668
0.27621	1.32453
-0.05531	-0.74160
0.07220	1.55410
0.45472	-0.71609
0.19971	1.27351
0.32721	-1.02219
-0.08081	1.73265
-0.23382	1.93671
-0.08081	-1.43031
0.27621	0.30422
0.40372	-0.38449
0.25071	1.17148
0.27621	-0.48652
0.19971	0.68683
0.02119	-2.27207
0.17421	0.96742
0.14870	0.35523
-0.20832	0.63582
-0.02981	-4.49124
0.04670	-0.61406
-0.25932	-0.30797
0.19971	2.26831
0.53123	2.62542
0.42922	4.35995
0.30171	-1.27726
0.53123	-2.09351
0.27621	-1.48133
-0.05531	0.76336
-0.13181	1.22250
0.14870	0.96742
0.22521	0.53379
0.12320	-1.58336
0.09770	1.29902
0.07220	0.48277
-0.00431	-2.34859
0.14870	-2.57816
0.25071	-2.34859
0.22521	1.86019
0.30171	2.39585
0.14870	1.04394
-0.00431	-0.86914
-0.48884	0.15117
0.09770	4.53850
0.37822	-0.84363
0.55673	-1.68539
0.73524	0.91640
0.27621	1.35003
0.22521	1.75816
0.07220	1.12046
-0.05531	-1.40480
-0.00431	-1.09871
-0.08081	-0.58856
-0.08081	-0.69059
0.25071	2.16628
0.07220	0.63582
0.25071	0.89089
0.22521	-3.06281
0.02119	0.04914
0.07220	1.80917
0.12320	1.22250
0.19971	-1.83844
0.27621	1.17148
0.30171	0.22769
0.19971	1.78367
0.04670	-1.32828
0.12320	-0.58856
0.32721	1.75816
0.12320	1.27351
0.02119	-0.58856
-0.08081	-0.71609
0.07220	-1.50683
0.17421	1.14597
0.27621	1.80917
0.30171	-0.81812
0.37822	-5.53706
0.25071	1.06945
0.07220	0.27871
0.14870	1.29902
0.14870	1.37554
0.04670	1.32453
-0.36133	1.14597
-0.13181	-0.07840
0.27621	-0.63957
0.35272	0.63582
0.25071	-0.43551
0.40372	-1.30277
0.25071	-0.10391
0.27621	-1.35379
0.07220	1.88570
-0.00431	-0.23145
0.17421	-0.20594
-0.08081	0.76336
0.04670	1.80917
0.25071	-3.85355
0.27621	0.78886
0.35272	1.60511
0.32721	-0.35899
0.12320	0.10015
0.04670	2.57441
0.09770	1.12046
-0.05531	-0.46102
0.12320	-0.18043
0.12320	1.06945
0.02119	2.65093
0.32721	-3.82804
0.02119	0.22769
0.19971	0.35523
0.27621	0.30422
0.17421	1.73265
0.25071	-0.81812
0.04670	0.38074
-0.05531	-1.99148
0.17421	1.55410
0.22521	1.37554
0.30171	-2.60367
0.25071	0.96742
0.19971	2.14077
0.30171	-0.71609
-0.02981	1.45206
0.02119	0.45726
0.02119	0.53379
0.02119	0.35523
0.22521	0.43176
0.02119	0.07465
0.14870	-0.05289
0.27621	-1.50683
0.30171	0.99292
0.30171	-2.52714
0.14870	-0.00188
0.22521	-0.81812
0.27621	1.60511
-0.08081	0.76336
-0.31033	-2.96078
-0.10631	0.96742
-0.02981	2.08976
0.40372	-0.66508
0.63323	1.01843
0.45472	3.74776
0.09770	-0.94566
-0.10631	-0.76711
0.17421	0.73785
0.17421	1.19699
0.12320	-4.92487
-0.18282	2.19179
-0.23382	-3.64948
0.02119	2.19179
0.45472	0.86539
0.30171	1.04394
0.30171	-0.05289
0.32721	-0.25695
0.14870	-0.79262
0.02119	-0.35899
0.07220	1.06945
-0.13181	1.42656
0.02119	-0.89465
0.09770	0.53379
0.40372	-0.05289
0.25071	-0.23145
0.25071	0.83988
0.19971	0.68683
0.02119	0.91640
0.22521	0.30422
0.07220	0.58480
0.09770	-1.60887
0.04670	0.86539
0.07220	-0.05289
0.22521	-2.42511
0.04670	-0.58856
0.12320	-2.42511
0.07220	1.32453
0.19971	1.47757
0.30171	1.27351
0.17421	1.12046
0.22521	2.24281
0.32721	-0.89465
0.37822	-0.74160
0.14870	-3.11382
-0.15732	0.76336
0.12320	1.65613
0.12320	1.63062
0.27621	-3.13933
0.17421	0.71234
-0.13181	1.19699
0.02119	0.63582
0.12320	0.94191
0.19971	-1.12422
0.12320	-1.60887
0.37822	2.16628
0.30171	-1.50683
0.14870	-5.84315
0.22521	1.29902
0.12320	0.40625
0.07220	1.37554
0.12320	2.52339
0.04670	0.50828
0.17421	1.63062
-0.00431	-0.58856
-0.15732	-1.09871
0.22521	0.55929
0.32721	-0.84363
0.27621	0.25320
0.25071	-0.94566
0.12320	-0.35899
0.19971	-0.15492
0.07220	0.83988
0.07220	0.91640
0.12320	1.09496
0.14870	0.38074
0.32721	-0.41000
0.27621	-1.53234
0.02119	-1.78742
0.09770	1.14597
0.09770	1.80917
-0.08081	0.50828
-0.00431	0.81437
0.27621	2.08976
0.22521	1.68163
0.27621	-6.99100
0.09770	-1.22625
0.09770	0.58480
-0.02981	1.78367
0.14870	1.93671
0.30171	1.57960
0.42922	-0.25695
0.19971	0.91640
-0.13181	0.32972
0.09770	1.80917
0.02119	-1.58336
-0.05531	-0.51203
0.07220	0.04914
0.27621	0.48277
0.35272	1.40105
0.14870	-0.15492
0.25071	0.27871
0.30171	0.48277
0.12320	1.47757
0.09770	-1.73640
0.04670	-0.51203
0.02119	1.40105
0.17421	-1.58336
0.07220	-2.06800
0.07220	1.12046
0.09770	0.25320
-0.02981	-1.63437
0.22521	-0.97117
0.40372	2.03874
0.07220	0.94191
0.04670	0.25320
0.19971	2.19179
0.40372	0.48277
0.19971	2.34484
0.17421	-2.27207
0.25071	0.32972
0.09770	1.80917
0.09770	-1.55785
0.19971	-0.10391
-0.05531	2.08976
-0.00431	-5.05241
0.12320	0.76336
0.27621	0.55929
0.22521	0.66132
-0.05531	-1.48133
-0.18282	0.27871
0.09770	0.73785
0.40372	0.43176
0.40372	1.29902
0.35272	-2.17003
0.37822	1.55410
0.14870	0.27871
-0.00431	0.27871
0.30171	1.57960
0.17421	4.48749
0.17421	-5.63909
0.25071	-1.55785
0.09770	-5.07792
0.07220	0.55929
-0.13181	1.24800
-0.13181	2.80397
-0.23382	1.70714
0.12320	1.09496
0.65874	2.16628
0.50573	-0.20594
0.35272	-0.02739
0.25071	-0.38449
0.02119	-0.46102
0.25071	-1.12422
0.19971	0.48277
0.04670	-0.35899
0.09770	-0.76711
-0.13181	0.10015
-0.00431	-0.20594
0.17421	0.96742
0.19971	0.94191
0.12320	0.73785
0.17421	0.91640
0.32721	0.55929
0.30171	-2.14453
0.22521	2.14077
0.42922	0.71234
0.19971	-0.20594
0.09770	-2.17003
-0.00431	0.07465
-0.18282	0.53379
-0.02981	0.66132
0.04670	0.02363
0.22521	1.12046
0.35272	1.57960
0.37822	-0.41000
0.22521	0.45726
0.19971	-2.65468
-0.02981	0.02363
0.02119	0.81437
0.09770	1.37554
-0.18282	-0.99668
0.04670	-6.71041
-0.00431	1.70714
0.22521	2.65093
0.32721	-1.14973
0.50573	1.78367
0.35272	0.91640
0.22521	1.17148
0.14870	-0.02739
0.14870	-0.05289
0.19971	-0.05289
0.02119	-0.51203
-0.18282	0.22769
-0.08081	2.88050
-0.20832	-3.52195
0.12320	0.32972
0.35272	-0.46102
0.30171	-0.35899
0.30171	1.55410
0.25071	-0.74160
0.09770	-0.18043
0.32721	1.17148
0.25071	0.91640
0.30171	-0.97117
0.17421	0.58480
-0.08081	0.76336
0.12320	0.22769
0.17421	2.08976
0.04670	-1.09871
0.27621	-4.77183
0.09770	-1.09871
0.04670	1.37554
0.14870	1.75816
0.14870	1.01843
0.19971	1.09496
0.22521	2.26831
0.25071	-0.15492
0.02119	0.20219
0.09770	-3.24136
0.14870	-0.38449
0.09770	1.93671
0.17421	-1.30277
0.02119	-0.41000
-0.00431	1.47757
0.12320	-2.45062
0.14870	0.58480
0.19971	-0.35899
0.04670	2.88050
0.12320	-0.81812
0.32721	-0.25695
0.22521	-0.56305
0.27621	3.28862
0.22521	-3.06281
0.19971	0.50828
0.14870	0.83988
0.02119	1.37554
0.12320	1.17148
0.02119	-1.14973
0.14870	-1.17523
0.07220	-1.86394
0.12320	0.40625
0.27621	0.55929
0.07220	2.06425
0.22521	2.08976
0.17421	-1.04770
0.27621	-4.44022
0.12320	1.17148
-0.00431	1.17148
0.09770	2.14077
0.19971	-1.22625
0.30171	0.94191
0.17421	-1.09871
0.14870	1.09496
0.22521	-0.25695
-0.00431	0.91640
0.07220	0.71234
0.25071	0.38074
0.14870	-0.38449
0.32721	1.78367
0.02119	1.22250
0.09770	-5.61358
0.14870	-1.45582
0.27621	-0.12942
0.30171	1.52859
0.30171	2.37034
0.12320	2.24281
-0.05531	-0.99668
-0.28482	-0.86914
-0.28482	0.53379
0.19971	1.27351
0.27621	1.24800
0.53123	1.68163
0.27621	-1.32828
0.22521	-1.32828
0.42922	1.32453
0.22521	-0.25695
0.02119	-0.33348
0.07220	0.48277
0.02119	-0.35899
0.14870	0.10015
0.09770	-0.69059
0.22521	-0.89465
0.12320	0.71234
0.04670	0.83988
0.17421	1.27351
0.09770	1.91120
0.14870	-1.53234
0.12320	-0.07840
0.09770	-0.00188
0.19971	-0.94566
0.17421	-0.66508
0.14870	1.60511
0.27621	2.47238
0.12320	1.70714
0.25071	-3.21585
0.22521	-0.23145
0.07220	0.45726
0.14870	1.78367
0.12320	1.83468
0.17421	-1.30277
0.12320	1.19699
0.17421	1.35003
0.22521	0.89089
0.04670	-2.96078
0.12320	-0.97117
0.09770	0.12566
0.12320	1.01843
0.02119	-0.30797
-0.15732	0.40625
0.14870	2.54890
0.17421	-5.69010
0.22521	-0.07840
0.30171	-2.60367
0.30171	1.55410
0.32721	2.01323
0.30171	2.14077
0.09770	1.06945
0.04670	0.48277
-0.13181	0.22769
-0.10631	1.42656
0.32721	-0.38449
0.22521	-1.55785
0.35272	-0.23145
0.27621	0.45726
0.07220	0.20219
0.09770	0.83988
-0.10631	-0.71609
0.12320	-0.56305
0.02119	0.63582
0.09770	-0.15492
0.12320	2.34484
0.27621	-0.66508
0.35272	-0.51203
0.32721	-1.91496
0.12320	1.65613
-0.00431	1.57960
-0.00431	0.45726
0.19971	-0.07840
0.30171	1.86019
0.14870	0.10015
0.12320	-0.89465
-0.15732	-1.43031
0.19971	0.61031
0.30171	-1.25176
0.22521	-1.58336
0.07220	0.25320
-0.18282	-2.17003
0.19971	1.29902
0.32721	1.09496
0.32721	2.44687
0.30171	1.57960
0.27621	1.65613
0.12320	-0.58856
-0.10631	0.89089
0.02119	0.02363
0.02119	-1.48133
0.04670	0.07465
0.30171	-0.05289
0.25071	-0.23145
0.25071	0.40625
0.22521	0.12566
-0.00431	0.12566
-0.02981	0.27871
0.07220	-0.35899
0.09770	0.63582
0.09770	1.52859
0.32721	-1.40480
0.30171	-0.28246
0.04670	1.60511
0.04670	-1.71090
0.22521	-2.45062
0.17421	0.66132
0.35272	1.55410
0.30171	2.24281
0.22521	1.60511
0.09770	0.04914
0.17421	-0.43551
0.22521	-1.27726
-0.00431	0.53379
0.02119	0.86539
0.09770	0.12566
0.14870	-0.43551
0.12320	-0.63957
0.07220	0.55929
0.09770	0.22769
0.09770	-0.05289
0.12320	-0.25695
0.07220	-1.48133
0.17421	-4.13413
0.19971	0.12566
0.17421	2.57441
0.27621	2.42136
0.25071	1.37554
0.25071	1.12046
0.22521	0.48277
0.19971	-0.18043
0.04670	0.45726
-0.13181	-1.86394
0.09770	0.55929
0.25071	-0.63957
0.14870	0.15117
-0.00431	-0.05289
-0.00431	0.27871
0.27621	0.10015
0.32721	1.14597
0.30171	-0.12942
0.27621	-0.97117
0.22521	-0.20594
0.17421	0.45726
0.02119	1.86019
-0.05531	-0.56305
-0.10631	-3.36890
0.09770	1.55410
0.19971	2.19179
0.22521	1.42656
0.32721	1.65613
0.40372	0.43176
0.17421	0.45726
0.02119	0.68683
0.12320	-0.30797
0.09770	0.07465
0.02119	-1.88945
0.17421	-0.84363
0.14870	1.22250
0.14870	-1.12422
0.27621	-1.94047
0.04670	0.68683
0.12320	0.71234
0.12320	0.81437
0.22521	-1.17523
0.12320	0.73785
0.12320	1.04394
0.17421	0.94191
-0.00431	0.86539
-0.00431	1.09496
0.25071	0.55929
0.45472	0.22769
0.14870	-1.73640
0.04670	-0.18043
0.04670	-1.14973
0.02119	-0.02739
0.25071	0.76336
0.40372	1.27351
0.19971	2.49788
0.25071	-4.10862
0.04670	-1.96597
0.17421	-2.96078
-0.05531	1.93671
0.12320	1.12046
0.14870	0.81437
0.14870	1.83468
0.04670	0.35523
0.27621	0.96742
0.07220	-0.84363
0.09770	0.32972
0.02119	-0.02739
-0.10631	-0.30797
0.12320	-0.25695
0.27621	-1.63437
0.27621	-0.15492
0.12320	-0.79262
0.27621	-1.60887
0.04670	1.22250
0.09770	1.96222
0.32721	0.15117
0.19971	1.32453
0.25071	-1.43031
0.19971	-1.71090
0.04670	1.35003
-0.05531	1.14597
0.12320	-0.00188
0.09770	-0.81812
0.04670	1.50308
0.17421	-1.25176
0.12320	0.02363
0.07220	0.83988
0.22521	1.52859
0.19971	-0.33348
0.22521	0.22769
0.22521	0.58480
-0.02981	1.32453
0.07220	-0.15492
0.12320	-0.94566
0.02119	0.96742
-0.00431	-3.47093
0.32721	0.48277
0.22521	0.91640
0.40372	1.37554
0.45472	0.55929
0.22521	0.40625
0.14870	1.57960
0.04670	1.63062
0.19971	-0.99668
0.09770	-1.81293
0.02119	-2.39961
-0.02981	0.83988
-0.15732	1.35003
-0.18282	0.61031
0.09770	0.68683
0.27621	-0.41000
0.25071	-0.41000
0.35272	1.32453
0.35272	0.22769
0.22521	2.14077
0.42922	-1.20074
0.25071	-1.07320
0.04670	-1.48133
-0.08081	0.63582
-0.23382	1.17148
-0.15732	1.40105
0.07220	0.53379
0.42922	0.76336
0.60773	-2.27207
0.37822	0.96742
0.22521	-0.51203
0.22521	-0.02739
0.12320	-0.51203
0.04670	0.17668
-0.23382	0.71234
-0.00431	0.66132
0.04670	0.61031
-0.00431	0.43176
0.35272	0.89089
0.30171	-1.53234
0.14870	0.10015
0.30171	-0.20594
0.14870	0.76336
0.19971	0.61031
0.27621	0.40625
-0.00431	-0.35899
0.12320	0.40625
0.12320	0.81437
0.22521	-0.07840
0.32721	1.45206
0.14870	0.32972
0.04670	-1.02219
0.02119	-0.35899
0.07220	0.66132
0.09770	-1.17523
0.27621	0.17668
0.35272	1.86019
0.27621	4.15589
0.14870	-4.92487
-0.10631	1.04394
0.07220	0.12566
0.09770	1.27351
0.22521	0.10015
0.19971	0.48277
0.09770	-1.27726
0.19971	0.73785
0.19971	1.04394
0.12320	0.68683
0.14870	-0.86914
-0.02981	0.68683
0.02119	1.19699
-0.10631	-1.58336
0.09770	0.68683
0.19971	1.45206
0.25071	-1.63437
0.30171	0.30422
0.25071	0.25320
0.32721	1.57960
0.19971	2.70194
0.14870	-3.06281
0.04670	-3.26687
-0.08081	0.66132
0.07220	1.65613
0.09770	0.04914
0.09770	1.17148
0.35272	1.01843
0.19971	0.40625
0.22521	0.25320
0.27621	-0.41000
0.07220	0.83988
-0.20832	-2.29757
0.42922	-0.81812
-0.41233	1.37554
0.60773	-0.12942
0.45472	0.55929
-0.08081	0.76336
-0.33583	0.73785
-0.02981	1.45206
-0.13181	0.17668
0.12320	-2.27207
0.14870	1.40105
-0.02981	-1.12422
0.35272	1.19699
0.12320	-0.53754
0.35272	1.52859
0.04670	2.01323
0.07220	-1.78742
0.42922	-3.49644
0.37822	1.80917
0.30171	1.57960
0.09770	1.37554
0.14870	0.10015
0.12320	-0.30797
0.17421	1.17148
-0.02981	-1.96597
0.09770	0.96742
-0.08081	1.24800
0.04670	-0.66508
-0.10631	-2.17003
0.22521	-0.28246
0.35272	0.61031
0.25071	1.19699
0.25071	-0.97117
0.09770	0.50828
0.17421	0.10015
0.32721	0.55929
0.25071	0.35523
0.25071	-0.23145
0.02119	-0.10391
-0.05531	0.07465
0.04670	-0.86914
0.25071	1.29902
0.07220	-0.15492
0.25071	-0.05289
0.27621	0.66132
0.14870	1.52859
0.25071	-1.86394
0.12320	-0.97117
0.14870	-0.86914
0.07220	0.22769
-0.05531	1.63062
0.14870	1.91120
0.22521	0.71234
0.12320	1.17148
0.02119	-0.61406
0.09770	0.55929
0.19971	0.89089
0.27621	-1.07320
0.35272	-1.78742
0.17421	0.40625
0.09770	0.55929
0.19971	-0.12942
0.04670	0.55929
0.07220	-1.40480
0.02119	0.48277
-0.08081	1.22250
0.19971	0.99292
0.22521	0.61031
0.25071	0.78886
0.32721	0.83988
0.22521	-0.51203
0.14870	-0.02739
-0.08081	0.07465
0.09770	0.45726
0.19971	-0.48652
0.32721	-0.66508
0.22521	1.17148
0.07220	-1.27726
0.12320	-1.07320
0.07220	1.42656
-0.02981	-1.02219
0.22521	-0.28246
0.04670	1.63062
0.09770	1.27351
-0.05531	0.43176
0.12320	-0.38449
0.45472	0.78886
0.37822	-0.94566
0.14870	1.42656
0.04670	0.27871
0.02119	0.10015
-0.08081	0.04914
0.25071	0.20219
0.27621	1.09496
0.19971	-0.81812
0.07220	0.32972
0.09770	-0.05289
0.04670	-2.57816
0.22521	-0.58856
0.27621	0.50828
0.12320	0.61031
0.27621	0.86539
0.12320	0.50828
0.07220	0.73785
0.09770	2.52339
-0.05531	-0.53754
-0.02981	-2.47613
0.12320	0.12566
0.19971	1.01843
0.32721	0.89089
0.22521	1.50308
0.12320	-0.61406
0.22521	-0.76711
0.25071	1.86019
0.22521	-3.90456
0.07220	-0.12942
0.04670	-0.15492
0.09770	0.86539
0.32721	0.83988
0.12320	0.61031
0.19971	0.53379
0.17421	1.75816
0.22521	1.45206
0.19971	-2.93527
-0.15732	-2.50164
0.04670	0.63582
0.07220	1.12046
0.09770	0.15117
0.25071	1.42656
0.22521	1.14597
0.27621	0.91640
0.35272	0.45726
0.14870	0.04914
0.02119	-0.20594
0.09770	1.27351
0.12320	-3.80253
0.12320	1.63062
0.22521	-3.06281
-0.00431	1.42656
0.14870	2.37034
0.19971	-1.88945
0.12320	0.17668
0.17421	1.37554
0.07220	0.86539
0.22521	-1.25176
0.32721	1.12046
0.02119	-0.07840
0.04670	-0.20594
-0.18282	-0.79262
0.12320	0.17668
0.32721	2.62542
0.30171	-0.43551
0.32721	0.30422
0.04670	-1.50683
0.17421	-1.22625
0.09770	-1.17523
0.09770	0.76336
0.25071	1.45206
0.22521	0.96742
0.14870	-1.04770
0.12320	0.83988
0.09770	1.68163
-0.10631	-0.10391
-0.08081	-0.89465
0.22521	1.06945
0.17421	-0.07840
0.32721	-0.38449
0.27621	0.66132
0.12320	1.40105
-0.13181	1.22250
0.12320	-0.02739
0.50573	-3.01179
0.25071	1.17148
0.25071	-0.53754
0.09770	0.96742
0.14870	1.52859
-0.02981	0.10015
0.14870	1.22250
0.30171	-0.46102
-0.02981	-0.53754
0.02119	1.17148
0.09770	-0.18043
-0.28482	0.04914
0.17421	0.58480
0.30171	0.10015
0.25071	-0.18043
0.48022	0.15117
0.35272	-0.25695
0.32721	1.42656
-0.00431	0.76336
-0.00431	-0.46102
-0.05531	0.12566
0.09770	-0.07840
0.17421	0.02363
0.19971	0.53379
0.12320	1.17148
0.17421	-0.05289
0.19971	-0.25695
0.09770	0.45726
0.17421	1.32453
-0.02981	0.43176
0.17421	-1.91496
0.19971	1.22250
0.27621	-0.46102
0.22521	-0.38449
0.02119	-0.69059
0.12320	0.30422
0.07220	0.50828
0.12320	-0.43551
0.19971	-0.07840
0.17421	0.22769
0.14870	1.04394
0.12320	0.40625
0.12320	-1.43031
0.07220	0.20219
0.25071	-0.46102
0.14870	1.09496
0.25071	0.78886
0.12320	1.27351
0.07220	-0.76711
0.12320	0.07465
0.14870	0.25320
0.04670	0.07465
0.12320	-0.25695
0.14870	1.06945
0.07220	-2.14453
0.25071	0.89089
0.19971	-0.89465
0.12320	2.34484
0.30171	0.89089
0.17421	-2.50164
0.14870	0.66132
-0.00431	-0.25695
-0.08081	2.37034
0.12320	0.12566
0.25071	1.09496
0.22521	0.83988
0.22521	0.71234
0.04670	0.86539
0.12320	-0.41000
0.12320	2.01323
0.17421	-1.20074
0.32721	-3.11382
0.30171	-1.27726
0.17421	1.32453
0.14870	-0.84363
0.12320	1.12046
-0.23382	0.91640
0.22521	-0.76711
0.09770	0.02363
0.25071	-1.96597
0.22521	-1.53234
0.12320	0.32972
0.17421	1.98773
0.04670	0.83988
0.19971	2.03874
0.04670	0.94191
0.12320	-0.58856
0.19971	0.76336
0.14870	-0.10391
0.12320	-0.71609
0.09770	0.15117
0.17421	0.61031
0.19971	-2.47613
0.17421	0.07465
0.07220	1.88570
-0.00431	-0.15492
0.22521	-1.58336
0.14870	0.71234
0.32721	1.45206
0.30171	-1.78742
0.22521	0.73785
0.09770	1.29902
-0.28482	0.86539
-0.20832	0.63582
0.48022	0.10015
0.37822	0.15117
0.19971	0.71234
0.14870	0.27871
0.17421	0.20219
0.04670	-0.43551
0.14870	0.96742
0.27621	-0.35899
0.07220	0.55929
-0.00431	-1.58336
0.07220	0.04914
0.17421	-0.20594
0.09770	1.24800
0.17421	2.26831
0.17421	-1.99148
0.09770	-1.45582
0.04670	1.47757
0.19971	0.61031
0.27621	-0.35899
0.12320	1.70714
0.04670	0.07465
0.19971	-3.87905
0.14870	3.08456
0.17421	-5.17995
0.04670	1.35003
0.09770	1.35003
0.09770	0.45726
0.19971	0.89089
0.30171	0.78886
0.19971	1.29902
0.12320	-1.14973
0.14870	0.81437
0.25071	-1.45582
0.04670	-2.45062
-0.08081	0.58480
0.09770	1.06945
0.09770	0.81437
0.14870	0.76336
0.22521	1.96222
0.14870	0.48277
0.32721	-2.09351
0.19971	-0.69059
0.09770	0.68683
0.14870	0.07465
0.09770	1.12046
-0.02981	0.86539
0.07220	-0.15492
0.12320	-0.71609
0.22521	0.40625
0.40372	0.71234
0.30171	0.68683
0.19971	2.08976
0.25071	1.19699
0.12320	-3.82804
-0.00431	0.66132
0.04670	2.01323
-0.00431	-0.23145
-0.02981	0.73785
0.19971	0.89089
0.27621	0.20219
0.27621	-0.41000
0.22521	1.09496
0.12320	0.40625
-0.05531	-1.73640
0.02119	-1.27726
0.32721	0.50828
0.32721	0.86539
0.19971	1.83468
0.12320	1.17148
0.22521	-0.79262
0.19971	0.71234
0.30171	-0.56305
0.17421	-0.43551
0.07220	0.61031
0.09770	0.30422
-0.08081	1.01843
0.07220	0.35523
0.07220	-0.02739
0.22521	-2.93527
0.27621	0.48277
0.17421	1.40105
0.12320	0.71234
0.27621	-1.71090
0.22521	1.01843
0.09770	0.63582
0.07220	1.17148
0.17421	0.76336
0.07220	-1.88945
0.07220	1.45206
0.27621	-1.53234
0.12320	-0.28246
0.19971	-1.99148
0.17421	1.19699
0.12320	1.09496
0.02119	1.01843
0.12320	0.32972
0.25071	0.53379
0.22521	0.50828
0.22521	1.50308
0.14870	0.35523
0.22521	-4.03210
0.09770	1.42656
-0.00431	-0.10391
0.27621	-1.27726
0.14870	-2.14453
0.07220	0.66132
0.02119	1.57960
0.17421	1.96222
0.07220	1.50308
0.09770	0.76336
0.17421	0.53379
0.12320	-1.07320
0.09770	0.55929
0.27621	-1.55785
0.32721	0.35523
0.14870	1.24800
0.14870	-1.43031
0.17421	-0.38449
0.14870	1.06945
0.25071	1.24800
0.07220	0.89089
0.17421	-0.51203
0.12320	-1.58336
-0.02981	1.14597
0.19971	-0.25695
0.12320	0.96742
0.12320	0.96742
0.19971	0.38074
0.12320	-0.05289
0.14870	-0.00188
0.22521	0.68683
0.07220	0.35523
0.12320	-0.56305
0.14870	0.53379
0.17421	-0.66508
0.42922	-0.51203
0.09770	-0.86914
0.04670	2.21730
-0.00431	0.55929
0.12320	-0.53754
0.09770	-0.10391
0.07220	-1.27726
0.22521	0.25320
0.09770	-0.69059
0.25071	1.22250
0.32721	1.52859
0.25071	1.55410
0.19971	0.07465
0.17421	0.91640
-0.02981	0.50828
0.17421	-1.25176
0.19971	-0.46102
0.04670	0.58480
0.12320	-2.04250
0.02119	-1.22625
0.02119	2.44687
0.22521	-0.25695
0.07220	-0.63957
-0.02981	0.45726
0.30171	0.83988
0.17421	0.86539
0.17421	0.81437
0.30171	0.99292
0.07220	-0.05289
0.09770	-0.76711
0.09770	0.83988
0.27621	0.12566
0.19971	-1.50683
0.02119	0.53379
0.27621	2.24281
0.27621	-0.41000
0.12320	0.58480
0.17421	1.27351
0.07220	-0.61406
0.14870	0.15117
0.07220	1.32453
0.07220	-0.69059
0.12320	-2.34859
0.19971	-0.99668
0.04670	0.40625
0.02119	0.83988
0.12320	1.45206
0.07220	1.78367
0.19971	0.61031
0.22521	-0.20594
0.30171	0.68683
0.32721	0.35523
0.19971	0.96742
0.19971	-2.29757
0.12320	-0.53754
0.04670	1.35003
0.04670	-0.97117
-0.00431	-0.20594
0.19971	1.12046
0.22521	0.32972
0.22521	2.01323
0.14870	-0.25695
0.14870	-1.27726
0.12320	0.50828
0.14870	1.04394
0.14870	1.29902
0.22521	-0.38449
-0.08081	-1.68539
0.17421	1.68163
0.17421	-0.35899
0.19971	-1.02219
0.17421	1.35003
0.12320	0.99292
0.25071	0.61031
0.25071	-1.02219
0.12320	-0.05289
0.30171	-0.28246
0.02119	-0.66508
0.04670	0.55929
0.02119	0.55929
0.09770	1.29902
0.27621	0.02363
0.22521	-0.76711
0.09770	0.32972
-0.00431	-0.38449
0.12320	-0.20594
0.17421	-0.30797
0.12320	-1.22625
0.22521	-1.83844
0.32721	0.15117
0.14870	1.68163
0.09770	1.70714
0.32721	1.75816
0.12320	0.78886
0.02119	-1.65988
0.04670	0.61031
0.09770	-1.14973
0.14870	0.07465
0.17421	-0.30797
0.22521	-0.58856
0.17421	-0.25695
0.19971	-0.61406
0.12320	0.38074
0.09770	1.65613
0.17421	0.73785
0.19971	-0.20594
0.19971	-1.37929
0.04670	0.94191
0.09770	-2.68019
0.19971	0.48277
0.02119	2.29382
0.17421	0.43176
0.12320	1.17148
0.14870	0.58480
0.22521	-0.79262
0.22521	0.91640
0.07220	-0.99668
0.19971	-0.48652
0.30171	0.40625
0.17421	-0.20594
0.17421	0.71234
0.22521	0.30422
0.19971	1.27351
0.14870	-1.60887
0.14870	-0.86914
0.17421	1.96222
-0.02981	-2.85874
-0.08081	0.96742
0.19971	1.93671
0.09770	-0.15492
0.27621	1.68163
0.09770	0.20219
0.19971	-0.00188
0.30171	-0.18043
0.09770	0.66132
0.25071	0.07465
0.17421	0.48277
0.17421	-1.30277
0.14870	-0.89465
0.14870	0.66132
0.02119	0.12566
0.12320	0.22769
0.14870	0.38074
0.02119	1.60511
0.12320	0.83988
-0.05531	-0.38449
0.27621	-3.03730
0.27621	-1.20074
0.14870	-0.51203
-0.02981	2.11527
0.22521	1.42656
0.35272	1.37554
0.30171	1.29902
0.14870	1.09496
0.19971	-0.25695
0.25071	-1.07320
0.09770	0.04914
0.12320	0.20219
0.14870	-0.07840
0.14870	0.32972
-0.08081	0.43176
-0.00431	2.21730
0.32721	-4.13413
0.07220	1.24800
0.14870	-0.20594
0.07220	-0.81812
0.30171	1.17148
0.30171	1.78367
0.17421	-0.81812
0.14870	0.76336
0.09770	0.68683
-0.02981	1.32453
0.02119	2.16628
0.19971	0.04914
0.12320	-3.90456
0.27621	-0.25695
0.14870	0.76336
0.17421	0.99292
0.04670	-0.15492
0.22521	0.78886
0.32721	0.53379
0.12320	1.45206
0.12320	-0.12942
0.27621	-1.68539
-0.00431	-0.02739
0.12320	0.83988
0.02119	1.47757
0.27621	-3.31788
0.14870	0.38074
0.02119	1.88570
0.12320	1.35003
0.12320	-2.90976
0.07220	1.50308
0.12320	0.58480
0.12320	0.02363
0.17421	0.61031
0.25071	0.38074
0.32721	0.63582
0.14870	0.53379
0.07220	-1.30277
0.09770	0.61031
0.19971	2.08976
0.04670	-1.14973
0.12320	-2.90976
0.09770	-0.46102
0.19971	-0.46102
-0.02981	0.71234
0.17421	1.96222
