-0.02981	0.25320
0.07220	0.30422
0.14870	0.25320
0.22521	0.22769
0.19971	0.12566
0.14870	0.04914
0.17421	0.07465
0.17421	-0.00188
0.17421	0.10015
0.19971	0.12566
0.07220	0.10015
0.02119	0.15117
0.09770	0.22769
0.14870	0.17668
0.14870	0.15117
0.19971	0.15117
0.14870	0.12566
0.14870	0.07465
0.14870	0.15117
0.14870	0.17668
0.07220	0.22769
0.09770	0.22769
0.12320	0.12566
0.17421	0.10015
0.14870	0.12566
0.12320	0.10015
0.07220	0.10015
0.07220	0.04914
0.09770	0.15117
0.04670	0.22769
0.07220	0.30422
0.12320	0.25320
0.17421	0.20219
0.19971	0.17668
0.27621	0.12566
0.25071	-0.00188
0.22521	0.04914
0.17421	-0.00188
0.07220	0.10015
0.04670	0.15117
0.02119	0.17668
0.02119	0.30422
0.14870	0.27871
0.27621	0.20219
0.25071	0.12566
0.25071	0.10015
0.22521	0.10015
0.12320	0.04914
0.09770	0.15117
0.09770	0.17668
0.04670	0.15117
0.12320	0.15117
0.12320	0.15117
0.12320	0.07465
0.12320	0.10015
0.12320	0.02363
0.07220	0.02363
0.09770	-0.05289
0.02119	0.04914
-0.00431	0.15117
-0.00431	0.20219
0.09770	0.25320
0.17421	0.25320
0.19971	0.22769
0.19971	0.22769
0.27621	0.10015
0.22521	0.10015
0.19971	0.10015
0.09770	0.04914
0.09770	0.07465
0.04670	0.15117
0.12320	0.20219
0.17421	0.22769
0.17421	0.22769
0.12320	0.15117
0.14870	0.15117
0.14870	0.10015
0.12320	0.04914
0.14870	-0.00188
0.12320	0.10015
0.12320	0.20219
0.07220	0.17668
0.09770	0.22769
0.19971	0.25320
0.19971	0.25320
0.22521	0.04914
0.22521	0.04914
0.17421	0.07465
0.09770	0.12566
-0.00431	0.15117
-0.02981	0.25320
0.12320	0.30422
0.17421	0.20219
0.30171	0.17668
0.30171	0.04914
0.17421	-0.00188
0.14870	0.07465
0.14870	0.15117
0.04670	0.07465
0.09770	0.12566
0.09770	0.25320
0.12320	0.20219
0.17421	0.25320
0.17421	0.17668
0.12320	0.10015
0.17421	0.15117
0.22521	0.02363
0.12320	0.02363
0.14870	0.12566
-0.00431	0.20219
-0.02981	0.17668
0.09770	0.22769
0.22521	0.12566
0.22521	0.17668
0.22521	0.12566
0.14870	0.10015
0.12320	0.02363
0.12320	0.04914
0.14870	0.07465
0.09770	0.15117
0.07220	0.25320
0.02119	0.17668
0.19971	0.22769
0.17421	0.22769
0.22521	0.10015
0.14870	0.10015
0.14870	0.17668
0.12320	-0.00188
0.14870	-0.00188
0.09770	0.07465
-0.02981	0.27871
0.02119	0.22769
0.12320	0.22769
0.22521	0.12566
0.32721	-0.02739
0.27621	0.12566
0.12320	0.20219
0.14870	0.12566
0.04670	0.10015
0.14870	0.12566
0.07220	0.17668
0.17421	0.25320
0.17421	0.27871
0.12320	0.22769
0.19971	0.12566
0.19971	0.10015
0.27621	0.04914
0.12320	0.04914
0.07220	0.10015
-0.00431	0.25320
-0.00431	0.25320
0.02119	0.35523
0.19971	0.27871
0.27621	0.12566
0.19971	0.15117
0.32721	0.04914
0.22521	0.10015
0.12320	0.10015
0.09770	0.10015
0.07220	0.17668
0.04670	0.22769
0.07220	0.25320
0.17421	0.20219
0.17421	0.17668
0.14870	0.02363
0.22521	0.17668
0.14870	-0.02739
0.02119	-0.20594
0.02119	0.15117
0.09770	0.04914
0.02119	0.27871
-0.00431	0.17668
0.14870	-0.02739
0.17421	0.20219
0.22521	0.15117
0.19971	0.20219
0.14870	0.63582
0.02119	0.55929
0.14870	-0.02739
0.12320	-0.38449
0.19971	-0.05289
0.07220	0.20219
0.12320	0.50828
0.32721	0.25320
0.17421	0.15117
0.22521	0.04914
0.09770	0.12566
0.17421	-0.43551
0.27621	-0.07840
0.14870	0.32972
-0.05531	0.35523
-0.13181	0.04914
-0.08081	0.43176
0.02119	0.22769
0.09770	0.04914
0.30171	0.27871
0.32721	-0.10391
0.37822	0.02363
0.30171	0.15117
-0.00431	0.25320
0.02119	0.58480
-0.00431	0.20219
0.12320	-0.28246
0.14870	-0.25695
0.12320	0.12566
0.30171	0.22769
0.42922	0.35523
0.02119	0.53379
-0.25932	0.38074
0.07220	0.02363
0.32721	-0.20594
0.27621	0.10015
0.14870	0.10015
0.12320	0.22769
0.40372	0.22769
0.58223	0.45726
0.35272	0.50828
-0.18282	0.10015
-0.56534	-0.46102
-0.28482	-0.46102
-0.28482	0.20219
0.14870	-0.20594
0.35272	1.17148
0.42922	-0.71609
0.42922	0.20219
0.04670	0.10015
0.09770	0.99292
0.93925	0.12566
-0.02981	0.43176
0.17421	0.43176
-1.12638	0.53379
-0.36133	-0.30797
0.27621	-0.94566
0.53123	-0.56305
-0.20832	0.35523
-0.33583	0.76336
0.81175	0.48277
2.92838	0.78886
-0.31033	-0.05289
-0.59084	-0.53754
0.83725	0.07465
0.48022	0.43176
-0.31033	0.43176
0.14870	0.45726
0.04670	-0.23145
0.04670	0.35523
0.07220	0.07465
-0.20832	-0.15492
-1.35589	-0.25695
-0.43783	0.12566
2.03582	1.88570
-0.02981	-0.48652
1.09226	-0.33348
-0.33583	-0.48652
0.83725	0.15117
-1.53441	-0.56305
1.11776	0.96742
3.99945	0.30422
-0.18282	0.04914
-1.48340	0.22769
-1.30489	0.71234
0.35272	0.48277
-1.27939	0.22769
-2.47797	0.58480
2.03582	-0.38449
2.21434	-0.05289
2.06133	0.58480
-1.15188	0.48277
0.09770	0.40625
-5.13014	-0.05289
5.93757	0.91640
2.06133	-1.30277
-1.43240	-0.12942
-0.94787	-0.89465
-1.53441	-0.48652
-4.33958	1.19699
4.66249	0.15117
0.93925	0.55929
0.14870	1.24800
-0.71835	0.25320
4.07596	-0.15492
0.88825	-0.84363
-7.22127	-0.86914
1.67880	1.04394
1.90832	1.01843
0.30171	0.30422
1.04126	0.25320
0.55673	0.17668
-0.66735	0.43176
-1.84042	0.04914
-1.66191	-0.99668
-1.48340	-0.92016
-6.17570	-0.28246
8.02871	0.43176
1.95932	0.78886
-0.28482	0.73785
0.58223	-0.71609
2.16333	-0.28246
1.52579	0.50828
0.55673	0.45726
-2.32496	0.30422
-2.73298	0.35523
0.32721	-0.25695
0.73524	0.10015
-0.20832	1.19699
0.78624	0.66132
1.32178	0.89089
0.48022	0.43176
-1.58541	0.25320
0.60773	-1.22625
0.32721	-0.35899
3.54042	1.06945
-1.55991	-0.15492
1.62780	-1.20074
-0.10631	0.35523
-1.91693	-0.18043
-1.99343	-0.35899
-0.79486	0.43176
0.48022	1.09496
0.09770	-0.00188
-0.02981	0.81437
0.19971	-0.23145
1.98482	0.48277
0.65874	0.12566
0.14870	0.35523
0.45472	0.30422
0.48022	0.71234
0.40372	-0.41000
0.02119	-0.15492
-0.48884	0.50828
-0.08081	-0.97117
1.70430	0.25320
0.65874	0.55929
-0.15732	0.55929
-0.31033	0.17668
-0.08081	-0.05289
0.02119	-0.41000
-0.18282	0.66132
-0.23382	1.22250
0.12320	-1.04770
-0.51434	-0.66508
-0.25932	0.25320
0.91375	0.35523
1.29628	0.15117
0.78624	0.40625
-0.10631	0.71234
-0.18282	1.29902
0.17421	-0.43551
0.09770	-0.18043
-0.66735	0.10015
-1.81492	0.45726
2.82638	0.32972
1.27078	0.15117
0.73524	-0.28246
0.55673	0.12566
0.42922	-0.05289
-0.13181	0.10015
-0.64185	-0.76711
-1.10088	0.22769
-1.25389	0.71234
-1.07538	0.45726
0.19971	0.10015
1.06676	0.45726
1.11776	0.50828
0.83725	0.07465
0.40372	0.45726
0.32721	-0.53754
0.30171	-0.12942
0.17421	0.43176
0.78624	0.48277
0.88825	0.02363
0.42922	0.35523
-0.48884	0.35523
-0.56534	0.02363
0.40372	0.71234
0.12320	-1.17523
-0.13181	-0.99668
-0.23382	1.37554
0.19971	1.42656
-0.20832	-0.56305
0.12320	-0.66508
0.63323	0.73785
0.53123	0.63582
0.55673	0.12566
0.65874	0.40625
0.40372	0.25320
-0.10631	-0.23145
-0.13181	-0.63957
-0.51434	0.15117
-0.43783	0.40625
-0.84586	0.48277
-0.25932	0.20219
-0.15732	0.58480
1.09226	-0.02739
0.65874	0.07465
0.96476	0.12566
0.60773	0.25320
0.73524	-0.48652
-0.20832	0.25320
0.02119	0.66132
-0.08081	0.43176
0.55673	1.17148
0.07220	-0.99668
-0.33583	-0.30797
-0.18282	0.55929
0.12320	0.45726
0.55673	0.38074
-1.20288	0.12566
-0.51434	0.20219
1.14327	-0.10391
0.35272	0.02363
-0.94787	0.55929
-0.28482	0.04914
0.93925	0.27871
1.83181	-0.25695
1.27078	-0.28246
0.35272	0.22769
-0.66735	0.66132
-1.10088	0.15117
-0.94787	-1.20074
-0.82036	-0.15492
-0.38683	0.68683
0.91375	1.35003
1.70430	0.25320
0.70974	0.27871
0.70974	-0.30797
0.12320	0.38074
-0.48884	0.53379
0.86275	-0.05289
-0.28482	0.40625
-0.02981	0.71234
0.60773	-0.25695
-0.33583	-0.07840
0.30171	-0.28246
-0.13181	0.12566
-0.28482	0.40625
-0.02981	0.22769
0.19971	0.15117
0.58223	-0.25695
-0.59084	0.10015
0.22521	0.02363
0.99026	0.38074
0.76074	0.20219
0.14870	0.32972
-0.20832	-0.00188
0.48022	-0.02739
-0.41233	-0.00188
-0.15732	0.43176
-0.02981	0.15117
-0.28482	0.81437
-0.08081	0.02363
-0.64185	-0.07840
1.34728	0.30422
0.40372	0.53379
-0.64185	-0.66508
0.53123	-0.02739
1.14327	0.10015
0.93925	0.45726
-0.38683	-0.30797
-0.51434	-0.28246
-0.05531	0.17668
0.60773	-0.05289
0.93925	0.45726
-0.33583	0.43176
-0.79486	0.17668
-0.71835	0.15117
-0.28482	-0.30797
-0.43783	0.22769
0.81175	0.50828
1.83181	0.12566
0.99026	-1.58336
0.22521	-0.56305
-0.97337	1.14597
0.12320	0.35523
0.12320	0.04914
-0.31033	0.76336
0.17421	0.83988
0.22521	0.12566
0.37822	0.02363
-0.94787	0.22769
0.02119	0.30422
0.60773	0.04914
0.83725	-0.00188
0.88825	0.55929
0.27621	0.25320
-0.08081	-0.10391
0.35272	-0.46102
-0.51434	-0.12942
-1.40690	0.12566
-0.79486	0.22769
-0.53984	0.22769
2.31634	0.32972
0.60773	0.07465
-0.10631	0.10015
0.53123	0.15117
0.02119	0.12566
-0.36133	0.32972
-0.10631	0.00000
0.30171	0.00000
0.60773	0.00000
0.02119	-0.05289
-0.41233	0.40625
-0.05531	-0.48652
0.25071	0.68683
0.53123	-0.25695
0.12320	0.30422
-0.36133	1.09496
0.60773	-1.43031
0.09770	-0.15492
0.02119	-0.35899
0.73524	0.68683
-0.08081	0.76336
-0.25932	2.19179
-0.94787	0.12566
-0.02981	-1.12422
0.78624	-0.35899
0.12320	0.55929
-0.20832	0.48277
0.12320	0.25320
-0.18282	-0.07840
0.19971	-0.12942
0.96476	0.27871
0.22521	0.25320
0.42922	0.35523
0.76074	-0.53754
-0.48884	-0.05289
0.22521	0.50828
0.02119	0.58480
-0.53984	-0.20594
-1.02437	-0.46102
-0.05531	0.22769
0.91375	0.17668
1.29628	-0.48652
1.32178	1.17148
0.07220	0.94191
-0.41233	0.07465
-0.33583	-0.18043
-0.15732	0.25320
-0.79486	-0.18043
-2.12094	-0.12942
1.90832	0.30422
0.02119	0.27871
0.60773	0.78886
0.83725	-0.66508
1.14327	-0.48652
0.99026	0.58480
0.58223	-0.18043
-0.28482	-0.89465
-1.40690	1.17148
-0.48884	0.68683
-0.00431	-0.41000
-0.13181	1.01843
0.83725	-0.10391
-0.05531	-0.30797
0.37822	0.91640
1.06676	-0.41000
0.37822	0.10015
-0.23382	0.48277
-0.20832	0.35523
-0.18282	0.07465
0.04670	-0.07840
-0.13181	0.25320
-1.22839	-0.23145
2.03582	-0.28246
0.91375	0.30422
0.17421	0.50828
-0.33583	0.20219
0.50573	0.20219
0.78624	-0.07840
0.22521	-0.30797
-0.51434	0.25320
-0.28482	0.35523
-0.02981	0.50828
0.07220	-0.15492
-0.92237	0.35523
-0.59084	0.43176
0.12320	0.63582
1.27078	0.27871
1.55129	0.71234
1.55129	-0.53754
-0.20832	-0.76711
-0.79486	0.17668
-0.48884	0.48277
-0.02981	0.55929
0.09770	0.22769
0.83725	-0.66508
0.22521	0.17668
-0.15732	-0.00188
0.04670	0.40625
0.30171	0.27871
-1.45790	0.27871
1.01576	0.58480
2.39285	0.22769
0.60773	0.78886
-0.76936	0.02363
-0.82036	-0.74160
0.30171	0.10015
0.40372	0.35523
0.07220	0.43176
-0.46334	0.20219
-0.69285	0.27871
-0.64185	-0.66508
0.48022	-0.07840
1.37278	-0.30797
0.81175	0.81437
-0.43783	0.66132
0.12320	0.30422
0.91375	0.50828
0.53123	0.25320
0.48022	-0.25695
-0.53984	-0.20594
-0.69285	-0.05289
-1.20288	0.58480
-0.33583	-0.25695
0.96476	-0.48652
1.01576	0.71234
0.73524	0.66132
0.30171	0.45726
-0.59084	0.15117
-0.92237	0.04914
0.02119	0.63582
0.88825	0.15117
1.19427	-0.25695
1.19427	0.43176
0.14870	0.76336
-0.61635	-0.48652
-0.56534	-0.94566
-0.99887	0.07465
-0.84586	0.10015
0.48022	-0.00188
1.09226	0.32972
1.42379	0.76336
0.17421	0.22769
-0.69285	-0.53754
0.17421	0.04914
-0.48884	-0.05289
-0.05531	0.07465
0.19971	0.58480
-0.02981	0.32972
-0.08081	-0.07840
0.48022	0.04914
0.91375	0.43176
-0.02981	0.45726
0.17421	0.20219
0.09770	0.12566
0.86275	0.61031
0.96476	0.30422
0.63323	0.32972
0.30171	-0.15492
-0.59084	-0.84363
-0.92237	-0.71609
-1.12638	0.04914
-0.33583	0.12566
0.70974	0.27871
1.01576	0.25320
0.17421	0.89089
0.27621	0.32972
0.12320	0.02363
0.07220	-0.07840
-0.31033	0.66132
-0.25932	-0.58856
1.04126	0.04914
0.73524	0.20219
1.01576	0.25320
0.50573	1.01843
0.27621	-0.05289
-0.46334	0.04914
-0.28482	0.04914
-0.36133	-0.12942
0.19971	0.45726
0.09770	0.35523
-0.10631	-0.25695
-0.20832	0.35523
0.70974	0.55929
0.35272	0.35523
0.53123	0.78886
0.37822	-0.81812
0.53123	-0.41000
-0.25932	-0.07840
0.09770	0.40625
-0.33583	0.48277
-0.46334	0.20219
-0.20832	0.32972
0.14870	-0.02739
-0.08081	0.04914
0.19971	0.15117
0.58223	-0.28246
0.91375	0.07465
1.04126	0.71234
-0.59084	0.25320
0.60773	0.91640
0.53123	-0.84363
-0.76936	-0.46102
-0.84586	-0.20594
-0.66735	0.32972
0.40372	0.83988
1.27078	-0.05289
1.01576	0.63582
-0.25932	-0.10391
-0.48884	-0.51203
-0.71835	-0.38449
-0.28482	0.58480
0.40372	1.06945
0.32721	0.38074
0.12320	-0.58856
-0.08081	-0.15492
0.25071	0.25320
0.70974	0.35523
0.83725	0.17668
0.88825	0.32972
0.04670	0.38074
-0.28482	-0.58856
-0.28482	0.15117
-0.31033	-0.25695
0.12320	0.45726
0.42922	0.61031
0.14870	0.30422
-0.28482	0.71234
0.27621	-0.02739
1.29628	-0.94566
1.83181	-0.35899
0.91375	0.15117
-1.07538	0.71234
-2.55447	0.38074
-0.61635	0.45726
-0.69285	0.15117
-0.05531	0.40625
0.65874	0.27871
0.53123	0.30422
1.19427	0.02363
1.14327	-0.25695
-0.48884	-0.25695
-0.15732	0.15117
0.55673	0.53379
0.30171	0.27871
0.63323	-0.02739
0.25071	-0.10391
0.65874	0.27871
-0.66735	-0.25695
-0.31033	0.50828
0.02119	0.15117
0.35272	0.30422
0.02119	0.53379
0.81175	0.17668
0.25071	0.27871
-0.10631	0.10015
0.27621	0.35523
0.02119	-0.15492
-0.33583	0.02363
-0.74385	-0.02739
-0.05531	-0.48652
0.40372	0.55929
1.24527	0.07465
0.99026	0.25320
0.35272	0.25320
0.12320	0.66132
-0.94787	0.04914
-0.20832	0.15117
0.02119	-0.00188
0.35272	0.04914
0.58223	0.07465
0.07220	-0.33348
0.02119	0.30422
0.32721	0.45726
0.22521	0.50828
-0.08081	-0.02739
-0.25932	0.02363
-1.02437	0.02363
1.70430	-0.20594
1.52579	0.81437
0.02119	0.48277
-0.33583	0.40625
0.12320	-0.86914
0.53123	-0.41000
-0.18282	-0.10391
-0.59084	0.66132
-0.74385	0.45726
-1.35589	0.30422
0.42922	0.55929
0.19971	-0.20594
0.22521	0.38074
0.32721	-0.41000
0.30171	0.07465
0.73524	-0.10391
0.70974	0.15117
0.50573	0.55929
0.25071	0.45726
0.17421	1.32453
0.02119	0.30422
-0.25932	-1.27726
0.40372	-1.12422
0.37822	-0.35899
0.53123	0.58480
-0.31033	1.45206
-0.18282	-0.00188
-0.31033	0.02363
0.27621	0.55929
0.42922	1.75816
0.02119	-1.63437
-0.20832	-0.86914
0.19971	-0.02739
-0.13181	1.04394
-0.15732	0.35523
0.42922	0.17668
1.06676	0.20219
0.48022	-0.25695
0.09770	0.43176
-0.02981	0.07465
-0.13181	-0.07840
-0.15732	0.22769
0.25071	0.50828
-0.08081	-0.02739
-0.36133	-0.18043
0.22521	-0.10391
0.68424	0.35523
0.27621	0.71234
-0.28482	0.71234
0.07220	-0.25695
0.07220	-0.48652
1.24527	0.40625
0.25071	0.12566
-0.05531	-0.05289
-0.02981	0.50828
0.07220	0.48277
-0.05531	0.32972
0.19971	0.10015
0.12320	-0.23145
0.48022	0.25320
0.17421	0.53379
-0.00431	-0.43551
0.04670	0.68683
0.14870	-0.02739
-0.20832	-0.18043
-0.18282	-0.10391
-0.23382	0.30422
0.14870	-0.05289
0.96476	0.35523
0.78624	-0.43551
0.37822	0.61031
-0.08081	0.32972
-0.25932	-0.05289
-0.33583	0.86539
-0.33583	-0.58856
0.09770	0.10015
0.45472	-0.38449
1.19427	0.81437
0.86275	0.20219
-0.00431	0.32972
-0.53984	0.15117
-0.25932	-0.12942
-0.36133	0.17668
-0.59084	-0.18043
-0.41233	-0.07840
0.99026	-0.05289
0.58223	0.32972
0.27621	0.50828
0.32721	0.43176
0.27621	0.38074
0.55673	-0.48652
0.70974	0.12566
0.14870	0.04914
-0.48884	-0.02739
-0.13181	0.10015
0.09770	0.43176
0.35272	0.35523
0.42922	0.32972
-0.36133	0.04914
-0.25932	-0.18043
-0.28482	0.38074
0.04670	0.30422
0.14870	-0.20594
0.32721	-0.12942
0.42922	0.43176
-0.13181	-0.02739
-0.08081	-0.25695
0.30171	-0.30797
0.83725	0.55929
1.24527	0.71234
0.12320	0.20219
-0.08081	0.12566
-0.18282	0.20219
-0.53984	0.32972
-0.71835	-0.20594
-0.18282	-0.02739
0.02119	-0.07840
0.32721	-0.30797
0.55673	0.22769
0.17421	0.71234
0.45472	0.10015
-0.05531	0.07465
-0.25932	-0.35899
0.12320	0.30422
0.63323	0.58480
0.48022	0.40625
0.42922	0.45726
-0.10631	0.25320
0.37822	-0.30797
0.04670	-0.10391
-0.10631	0.17668
0.04670	0.35523
0.12320	0.32972
0.63323	-0.20594
0.32721	-0.15492
-0.15732	-0.02739
-0.00431	0.27871
0.09770	0.30422
0.12320	0.38074
0.27621	-0.07840
0.37822	0.10015
-0.00431	0.55929
0.22521	0.66132
0.91375	-0.23145
0.73524	0.04914
-0.18282	-0.15492
0.76074	0.25320
0.60773	0.61031
-0.38683	0.45726
-0.66735	0.30422
-0.79486	-0.10391
-0.71835	-0.02739
0.12320	-0.25695
0.65874	0.17668
0.65874	0.53379
0.65874	1.09496
0.81175	-0.61406
0.50573	-0.15492
0.12320	-0.07840
-0.13181	0.30422
0.07220	0.40625
0.25071	0.66132
0.12320	0.04914
-0.20832	-0.38449
-0.36133	0.22769
0.09770	0.38074
0.40372	0.15117
-0.02981	0.68683
-0.05531	0.48277
-0.00431	-1.45582
0.17421	0.07465
-0.31033	0.63582
0.14870	0.50828
0.12320	0.10015
0.73524	0.96742
0.42922	-0.28246
0.83725	-0.02739
0.27621	0.15117
-0.08081	0.53379
-0.33583	0.02363
-0.51434	-0.41000
-0.28482	-0.20594
0.27621	0.12566
0.88825	0.15117
-1.89143	0.30422
1.27078	0.15117
0.60773	0.10015
0.40372	0.48277
0.30171	0.83988
0.45472	0.45726
0.19971	-1.02219
0.07220	-0.07840
-0.56534	0.10015
-0.51434	0.30422
-0.18282	0.55929
0.25071	-0.15492
0.37822	0.20219
0.93925	0.91640
1.19427	0.22769
0.12320	-0.25695
0.09770	0.25320
-0.08081	0.07465
-0.05531	0.20219
-0.13181	-0.05289
-0.25932	-0.51203
0.96476	0.25320
0.35272	1.01843
-0.20832	0.10015
0.42922	-0.56305
0.17421	-0.07840
-0.25932	0.15117
-0.05531	0.73785
0.17421	0.20219
-0.02981	0.15117
-0.33583	0.10015
-0.56534	0.04914
0.60773	0.27871
0.68424	-0.10391
0.81175	0.27871
0.99026	0.27871
-0.02981	0.04914
-0.56534	0.22769
0.65874	-0.18043
-0.33583	0.25320
-0.46334	0.07465
-0.13181	-0.18043
0.25071	0.12566
0.45472	0.53379
0.58223	0.17668
0.53123	0.04914
0.50573	0.66132
-0.41233	0.30422
-0.31033	-1.09871
-0.20832	-0.25695
0.09770	0.17668
0.55673	0.66132
0.91375	0.48277
0.70974	0.48277
0.25071	0.68683
0.45472	0.35523
-0.13181	-0.00188
-0.41233	-0.51203
-0.71835	-0.48652
-0.71835	0.02363
0.58223	0.71234
0.68424	0.17668
1.80631	0.12566
0.32721	0.12566
-0.36133	-0.05289
-0.41233	0.10015
-0.64185	0.10015
-0.23382	0.15117
-0.25932	-0.10391
0.19971	0.22769
-0.20832	0.45726
0.83725	0.20219
0.76074	-0.41000
0.50573	0.15117
0.42922	0.43176
0.02119	0.25320
0.45472	0.83988
0.32721	0.40625
-0.59084	-0.99668
-0.76936	-0.25695
0.04670	-0.10391
0.25071	0.02363
0.76074	0.35523
0.81175	0.45726
0.68424	0.96742
-0.13181	0.25320
-0.48884	-0.15492
-0.25932	0.12566
-0.18282	-0.07840
0.04670	-0.07840
-0.08081	0.04914
0.40372	0.22769
0.35272	0.53379
0.78624	0.83988
1.09226	-0.35899
0.76074	0.27871
0.19971	-0.35899
0.02119	-0.43551
-0.71835	-0.41000
-0.89686	0.50828
-0.05531	0.45726
0.02119	0.30422
0.27621	0.10015
0.68424	0.12566
0.09770	0.43176
0.53123	0.94191
0.07220	0.38074
-1.25389	-1.27726
0.63323	-0.38449
0.42922	-0.23145
-0.02981	0.25320
0.09770	0.35523
0.45472	0.66132
0.55673	-0.18043
0.32721	0.20219
-0.46334	-0.10391
-0.94787	-0.18043
-0.43783	0.22769
0.17421	0.48277
0.60773	0.07465
0.07220	0.02363
0.12320	0.15117
0.25071	0.12566
0.19971	0.04914
0.07220	0.43176
0.58223	-0.12942
0.40372	-0.56305
0.35272	0.04914
0.17421	0.15117
-0.33583	0.17668
-0.20832	0.43176
0.53123	0.76336
0.70974	0.07465
0.37822	0.71234
-0.31033	0.20219
-0.36133	-0.33348
-0.18282	-0.15492
-0.13181	0.07465
-0.15732	0.07465
0.12320	-0.23145
0.32721	0.22769
1.01576	0.20219
0.07220	0.25320
0.32721	0.35523
-0.05531	0.61031
-0.08081	0.04914
0.25071	0.25320
0.53123	0.15117
-0.00431	0.07465
0.04670	-0.07840
-0.00431	1.01843
-0.05531	-0.56305
-0.02981	-0.18043
0.17421	0.15117
0.17421	0.96742
0.37822	0.38074
0.22521	0.58480
-0.08081	-0.25695
0.86275	-0.20594
0.81175	-0.02739
0.37822	0.81437
-0.00431	-0.23145
0.12320	0.25320
0.12320	0.40625
-0.08081	-0.15492
-0.18282	-0.71609
-0.59084	0.10015
-0.48884	0.30422
-0.38683	-0.02739
-0.13181	0.22769
0.22521	0.38074
0.12320	0.35523
0.32721	-0.18043
0.73524	0.17668
0.99026	0.55929
0.48022	0.10015
0.37822	-0.02739
0.04670	-0.20594
-0.25932	-0.41000
-0.76936	-0.07840
-0.38683	0.17668
-0.05531	0.35523
0.42922	0.38074
0.78624	0.10015
0.27621	0.43176
-0.02981	0.07465
-0.00431	0.17668
-0.02981	0.02363
-0.61635	0.02363
0.88825	0.17668
0.93925	0.25320
0.55673	0.20219
-0.00431	0.35523
0.04670	0.12566
-0.02981	0.27871
0.07220	-0.30797
0.14870	0.02363
-0.15732	-0.10391
-0.69285	-0.15492
-0.25932	0.22769
0.09770	0.35523
0.14870	0.12566
0.65874	0.15117
0.81175	0.76336
1.04126	0.30422
0.83725	0.25320
0.07220	0.12566
-0.43783	0.25320
-0.89686	0.30422
-0.79486	-0.46102
-0.61635	-0.10391
0.40372	0.99292
0.58223	0.58480
0.48022	-0.56305
1.04126	-0.66508
0.91375	0.58480
0.53123	0.78886
-0.08081	0.61031
-0.08081	0.81437
-0.13181	0.32972
-1.25389	-0.20594
-0.00431	-0.46102
0.73524	0.17668
0.45472	0.55929
0.32721	0.32972
0.96476	0.30422
0.32721	-0.48652
-0.41233	-0.10391
-0.56534	-0.35899
-0.33583	0.10015
-0.08081	0.25320
0.30171	0.48277
0.53123	0.25320
0.76074	0.35523
0.50573	0.55929
0.53123	0.07465
-0.15732	-0.30797
-0.36133	-0.23145
-0.13181	0.15117
-0.36133	0.43176
0.02119	0.48277
0.76074	0.35523
1.37278	-0.25695
0.93925	0.15117
0.42922	0.81437
-0.31033	0.12566
-0.41233	-0.56305
0.02119	0.43176
-0.20832	-0.20594
-0.28482	-0.33348
0.07220	0.35523
0.22521	0.30422
0.48022	-0.15492
-0.02981	-0.02739
-0.25932	0.38074
-0.31033	0.35523
0.58223	0.32972
0.63323	0.63582
0.83725	0.15117
0.48022	-0.18043
-0.41233	-0.07840
0.63323	0.61031
-0.13181	0.40625
0.09770	-0.28246
-0.28482	-0.38449
-0.28482	-0.05289
-0.38683	0.40625
-0.20832	-0.25695
-0.08081	0.43176
0.17421	-0.38449
0.09770	-0.05289
0.02119	1.29902
1.04126	-0.15492
1.19427	-0.05289
0.88825	0.43176
0.63323	0.30422
0.42922	-0.20594
0.12320	0.20219
-0.64185	0.12566
-0.92237	0.30422
-0.56534	0.20219
-0.61635	0.20219
-0.08081	0.02363
0.22521	0.15117
0.48022	-0.28246
0.63323	0.15117
0.83725	-0.05289
0.60773	-0.05289
-0.02981	0.32972
-0.08081	0.10015
-0.00431	0.15117
0.22521	0.15117
0.02119	0.30422
0.50573	0.66132
-0.20832	0.25320
0.04670	-0.23145
-0.25932	-0.02739
-0.38683	-0.00188
-0.48884	-0.15492
0.27621	-0.15492
0.83725	0.04914
0.86275	0.20219
-0.64185	0.07465
0.04670	0.22769
0.50573	0.43176
0.07220	0.43176
0.48022	0.10015
0.02119	-0.10391
-0.74385	-0.33348
0.60773	0.30422
-0.53984	0.30422
0.09770	-0.05289
0.17421	-0.07840
1.04126	0.94191
0.81175	-0.28246
0.30171	0.15117
-0.10631	-0.07840
-0.13181	0.76336
-0.23382	0.27871
0.12320	-0.00188
0.30171	-0.25695
0.12320	0.10015
0.09770	0.30422
0.68424	0.40625
0.27621	0.17668
0.07220	0.07465
-0.15732	0.32972
0.07220	0.15117
0.14870	-0.35899
-0.28482	-0.15492
-0.33583	0.02363
0.07220	0.35523
0.40372	0.04914
0.68424	0.63582
0.17421	0.78886
0.04670	0.43176
-0.05531	-0.25695
-0.20832	-0.12942
-0.08081	-0.18043
0.12320	-0.05289
0.17421	0.04914
0.35272	0.40625
0.32721	0.55929
1.34728	0.22769
0.65874	0.04914
0.76074	0.61031
-0.56534	-0.05289
-0.31033	-0.20594
-0.43783	-0.20594
-0.56534	0.27871
-0.05531	0.73785
-0.05531	0.04914
-0.00431	0.10015
0.17421	-0.00188
0.50573	-0.05289
0.96476	0.27871
-0.02981	0.76336
0.09770	0.27871
0.25071	-0.02739
-0.20832	-0.18043
-0.23382	0.07465
0.32721	0.04914
0.70974	0.83988
0.27621	-0.30797
0.30171	-0.07840
0.02119	-0.07840
0.12320	0.20219
-0.18282	0.35523
-0.48884	0.48277
-0.23382	0.50828
0.17421	-0.12942
1.42379	-0.28246
0.37822	0.27871
-0.13181	-0.12942
-0.08081	-0.07840
-0.00431	0.17668
0.04670	0.58480
-0.02981	0.22769
0.12320	0.12566
-0.08081	-0.23145
0.70974	0.25320
0.14870	0.15117
0.14870	0.30422
0.45472	0.63582
0.76074	0.35523
0.42922	-0.18043
-0.15732	-0.48652
-0.10631	0.12566
-0.41233	0.04914
-0.94787	-0.25695
-0.08081	0.15117
0.50573	0.50828
0.17421	0.32972
0.32721	0.12566
0.30171	0.17668
0.65874	-0.00188
0.40372	0.04914
0.17421	0.15117
0.53123	0.50828
0.60773	0.22769
-0.18282	-0.00188
-0.25932	-0.10391
-0.05531	0.10015
-0.38683	-0.07840
-0.05531	0.17668
1.09226	0.25320
0.55673	0.04914
0.76074	0.15117
-0.08081	0.02363
-0.33583	0.27871
-0.43783	0.30422
-0.59084	0.15117
-0.23382	-0.53754
0.02119	0.07465
0.32721	0.48277
0.50573	0.48277
0.83725	0.25320
0.58223	-0.20594
0.09770	0.10015
0.02119	0.10015
-0.02981	0.20219
0.09770	0.32972
0.12320	0.20219
0.50573	-0.02739
-0.05531	0.10015
0.73524	0.22769
0.42922	0.20219
-0.43783	0.20219
-0.74385	-0.20594
-0.18282	0.15117
-0.10631	-0.07840
0.58223	0.30422
0.73524	0.55929
1.04126	0.25320
0.63323	0.35523
-0.20832	-0.15492
-0.71835	-0.07840
-0.61635	0.48277
-0.20832	0.22769
0.07220	-0.07840
0.19971	-0.23145
0.27621	0.27871
0.42922	0.25320
0.58223	0.55929
0.35272	-0.07840
-0.15732	-0.10391
-0.05531	0.15117
0.22521	0.12566
0.70974	0.32972
0.02119	-0.35899
0.02119	0.32972
-0.18282	0.48277
-0.13181	0.30422
0.40372	0.02363
0.02119	-0.02739
0.07220	0.15117
-0.02981	0.40625
-0.10631	0.04914
0.14870	-0.05289
0.19971	0.15117
0.25071	0.20219
-0.00431	0.20219
0.02119	0.04914
0.86275	0.04914
0.99026	0.32972
0.68424	0.32972
-0.15732	0.02363
-0.87136	-0.12942
-0.69285	0.02363
-0.36133	0.45726
0.04670	0.35523
0.73524	-0.25695
0.30171	0.12566
0.22521	0.22769
0.40372	0.35523
0.83725	0.22769
0.53123	0.32972
0.19971	0.32972
-0.25932	0.27871
0.02119	-0.25695
-0.13181	-0.15492
0.09770	0.61031
-0.08081	0.07465
-0.08081	-0.10391
0.04670	0.20219
0.09770	0.32972
0.04670	-0.20594
0.19971	-0.56305
0.35272	0.02363
1.06676	0.40625
0.48022	0.94191
0.30171	0.32972
-0.00431	0.27871
-0.05531	0.30422
-0.28482	0.58480
-0.13181	-0.43551
-0.13181	0.04914
-0.08081	0.04914
0.12320	0.10015
0.83725	-0.53754
0.76074	0.35523
-0.05531	0.86539
-0.13181	0.32972
0.02119	-0.18043
0.53123	-0.20594
0.42922	0.35523
-0.10631	0.40625
-0.53984	-0.20594
-0.33583	-0.12942
0.04670	0.04914
-0.31033	0.07465
0.12320	0.17668
0.30171	0.27871
1.42379	0.89089
0.65874	0.43176
-0.13181	-0.28246
-0.38683	-0.35899
0.02119	-0.25695
0.37822	0.25320
0.60773	0.22769
0.32721	0.66132
0.09770	0.25320
0.17421	-0.30797
-0.31033	0.22769
0.27621	0.30422
-0.23382	-0.05289
-0.25932	-0.20594
-0.33583	-0.12942
-0.25932	0.55929
-0.02981	0.45726
0.55673	0.25320
0.73524	0.35523
0.63323	0.38074
0.35272	-0.30797
0.55673	-0.10391
0.58223	0.38074
0.12320	0.02363
-0.28482	0.12566
-0.48884	-0.05289
-0.41233	0.20219
-0.20832	0.07465
0.14870	0.27871
0.14870	0.10015
0.25071	0.30422
0.50573	0.32972
0.78624	-0.15492
0.12320	-0.10391
0.17421	0.22769
-0.05531	0.22769
0.42922	0.53379
0.50573	0.04914
0.30171	0.45726
-0.02981	0.15117
-0.43783	-0.00188
-0.23382	0.66132
-0.13181	-0.23145
0.22521	-0.46102
-0.02981	-0.12942
0.12320	0.15117
-0.00431	-0.15492
0.30171	0.76336
0.76074	0.43176
0.86275	0.43176
0.93925	0.43176
-0.18282	0.12566
-0.51434	-0.12942
-0.31033	-0.15492
-0.00431	0.38074
0.35272	0.17668
0.32721	-0.05289
0.17421	-0.20594
0.02119	-0.10391
0.17421	0.38074
-0.00431	0.30422
0.09770	0.04914
0.14870	0.22769
0.17421	0.40625
0.63323	0.22769
0.55673	0.22769
0.88825	-0.18043
0.40372	0.32972
-0.53984	0.27871
-0.84586	0.40625
-0.53984	-0.30797
1.09226	-0.15492
-0.02981	-0.41000
-0.00431	0.15117
-0.05531	0.50828
0.12320	0.38074
-0.31033	0.20219
0.04670	0.04914
0.19971	0.45726
0.14870	0.07465
-0.15732	-0.25695
-0.18282	0.25320
0.58223	-0.15492
0.58223	-0.30797
0.60773	0.38074
0.81175	0.38074
0.68424	0.10015
0.12320	0.40625
-0.38683	0.32972
-0.87136	0.43176
0.02119	0.15117
0.04670	0.04914
-0.02981	0.27871
0.02119	0.53379
-0.08081	0.15117
0.12320	0.27871
-0.02981	-0.38449
0.27621	-0.53754
0.60773	-0.00188
0.70974	0.32972
0.63323	0.48277
0.17421	0.45726
0.19971	0.32972
0.30171	0.12566
-0.36133	-0.05289
-0.46334	0.10015
-0.48884	-0.33348
-0.41233	-0.18043
-0.23382	0.38074
-0.05531	0.07465
0.53123	0.07465
0.48022	0.10015
0.55673	0.68683
0.42922	0.04914
0.32721	0.07465
0.09770	-0.02739
-0.28482	-0.05289
-0.10631	-0.05289
0.60773	0.66132
0.68424	0.10015
0.32721	-0.00188
1.52579	0.38074
0.99026	0.71234
-0.64185	0.15117
-0.74385	0.25320
-0.97337	0.25320
-0.82036	-0.28246
-0.25932	-0.28246
0.07220	-0.00188
0.30171	0.25320
0.37822	0.50828
0.65874	0.02363
0.53123	-0.07840
0.14870	0.07465
0.19971	0.25320
0.19971	0.30422
0.04670	-0.10391
0.12320	-0.20594
0.09770	0.04914
0.09770	0.30422
-0.00431	0.10015
0.63323	0.27871
0.17421	0.20219
-0.02981	0.15117
0.22521	0.15117
-0.05531	-0.12942
0.02119	0.40625
-0.23382	0.15117
-0.05531	0.04914
0.02119	0.20219
0.45472	0.20219
0.17421	0.20219
0.37822	-0.00188
0.09770	0.15117
0.35272	0.25320
-0.66735	0.17668
-1.20288	0.02363
0.88825	0.12566
0.19971	0.15117
-0.38683	0.20219
0.17421	-0.05289
1.11776	0.38074
0.93925	0.61031
0.27621	0.07465
-0.46334	-0.30797
-0.79486	-0.30797
-0.23382	0.07465
-0.08081	-0.10391
0.02119	0.35523
0.83725	0.45726
1.14327	0.43176
0.70974	0.35523
0.53123	0.17668
0.60773	0.66132
-0.05531	0.15117
-0.61635	-0.38449
-0.99887	-0.23145
-0.20832	0.07465
-0.05531	-0.05289
0.63323	0.63582
0.02119	0.30422
-0.20832	0.30422
-0.02981	-0.41000
0.14870	0.25320
0.25071	0.15117
0.17421	0.40625
0.53123	-0.05289
0.70974	-0.02739
0.88825	-0.07840
0.19971	0.53379
-0.18282	0.15117
-0.36133	-0.07840
0.30171	0.35523
0.35272	0.73785
-0.46334	-0.15492
-0.41233	-0.28246
-0.10631	0.50828
-0.20832	-0.12942
0.68424	-0.07840
0.88825	0.81437
1.27078	0.43176
0.53123	0.35523
0.02119	0.27871
-0.28482	-0.33348
-0.43783	-0.43551
-0.23382	-0.18043
-0.05531	0.02363
-0.05531	0.38074
0.30171	0.45726
0.42922	0.32972
-0.02981	0.10015
-0.02981	-0.02739
-0.10631	-0.20594
1.11776	0.35523
0.76074	0.22769
0.12320	0.12566
-0.13181	0.02363
-0.46334	0.15117
0.53123	0.15117
-0.08081	0.35523
-0.02981	0.30422
0.17421	0.32972
0.53123	-0.00188
0.37822	-0.18043
0.58223	-0.30797
-0.00431	-0.05289
-0.48884	0.15117
-0.25932	0.35523
-0.08081	0.27871
0.55673	0.35523
0.50573	0.86539
-0.18282	0.27871
0.07220	-0.23145
0.35272	-0.10391
0.35272	-0.00188
-0.02981	0.04914
-0.38683	-0.18043
0.35272	-0.25695
0.88825	0.02363
0.50573	0.35523
0.14870	0.58480
0.32721	0.50828
0.17421	0.35523
0.09770	0.40625
-0.38683	0.17668
-0.41233	0.35523
-0.18282	-0.86914
0.73524	-0.12942
0.35272	0.32972
-0.15732	0.10015
0.27621	0.40625
0.48022	0.25320
0.04670	0.38074
0.53123	0.27871
0.19971	-0.28246
0.32721	0.25320
-0.05531	-0.10391
-0.15732	0.27871
-0.00431	-0.05289
0.09770	0.17668
0.02119	0.22769
0.07220	0.30422
0.17421	0.22769
0.07220	-0.07840
-0.08081	0.25320
-0.08081	0.02363
-0.02981	-0.35899
1.11776	0.27871
0.86275	0.38074
0.93925	0.50828
-0.15732	-0.05289
-0.00431	0.15117
-0.31033	0.02363
-0.33583	0.04914
0.04670	0.35523
-0.15732	0.17668
-0.59084	-0.05289
0.45472	0.15117
0.42922	0.02363
0.48022	0.53379
1.50029	0.66132
0.58223	-0.07840
-0.31033	0.27871
-0.20832	-0.43551
-0.41233	-0.46102
-0.20832	-0.35899
-0.25932	0.07465
-0.08081	0.68683
0.04670	0.58480
0.60773	0.12566
0.50573	0.20219
0.42922	0.04914
0.07220	0.35523
-0.00431	0.17668
0.09770	-0.00188
0.22521	-0.20594
0.04670	-0.10391
-0.00431	0.27871
0.25071	0.15117
0.27621	0.48277
0.42922	0.10015
0.27621	-0.12942
0.32721	-0.00188
-0.13181	0.25320
-0.23382	0.30422
-0.10631	-0.18043
-0.13181	0.10015
0.17421	0.71234
0.50573	-0.20594
0.42922	-0.15492
0.50573	0.55929
-0.05531	0.32972
-0.08081	-0.05289
-0.13181	-0.30797
0.19971	0.15117
-0.15732	0.45726
-0.10631	0.35523
-0.15732	0.25320
1.11776	0.04914
0.93925	0.04914
0.19971	0.20219
0.12320	0.38074
0.04670	0.48277
0.19971	0.12566
0.04670	-0.15492
0.37822	-0.23145
0.14870	0.35523
-0.20832	-0.07840
-0.10631	0.17668
-0.28482	0.40625
0.30171	0.15117
0.12320	0.30422
0.12320	0.43176
-0.08081	0.40625
-0.15732	-0.12942
0.73524	-0.28246
0.19971	-0.25695
0.35272	0.38074
0.17421	-0.05289
0.12320	0.15117
0.37822	0.32972
0.32721	0.45726
-0.08081	0.15117
0.04670	0.07465
-0.18282	-0.00188
-0.25932	0.48277
-0.15732	-0.46102
0.27621	-0.66508
0.70974	0.20219
0.40372	0.55929
-0.08081	0.35523
-0.02981	0.04914
-0.13181	-0.18043
0.02119	-0.02739
0.09770	0.25320
0.25071	0.40625
0.32721	0.20219
0.55673	0.40625
0.48022	-0.00188
0.02119	0.15117
-0.41233	-0.10391
-0.33583	0.15117
0.14870	0.04914
0.88825	0.35523
0.32721	0.22769
-0.20832	0.17668
-0.05531	0.10015
0.30171	-0.05289
0.09770	0.25320
0.02119	0.22769
0.32721	-0.02739
0.68424	0.58480
0.35272	0.07465
0.19971	-0.02739
0.04670	-0.41000
-0.08081	0.25320
0.40372	0.30422
0.37822	0.07465
0.53123	0.58480
-0.51434	0.04914
-0.69285	-0.07840
-0.36133	0.43176
0.07220	0.20219
0.12320	-0.00188
0.40372	0.61031
0.55673	-0.12942
0.48022	-0.46102
0.76074	-0.18043
1.04126	0.61031
0.17421	0.32972
0.17421	0.38074
0.12320	0.25320
-0.13181	0.02363
-0.23382	-0.18043
-0.18282	0.12566
-0.13181	0.20219
-0.10631	-0.18043
-0.31033	-0.05289
0.04670	0.30422
0.45472	0.17668
1.04126	0.63582
0.60773	0.96742
-0.23382	-0.76711
-0.18282	-0.66508
0.14870	-0.10391
0.78624	0.38074
1.04126	0.50828
0.17421	0.86539
-0.48884	0.43176
-0.46334	0.15117
0.12320	0.07465
0.19971	0.15117
-0.48884	-0.00188
-0.31033	-0.02739
0.32721	0.07465
0.37822	0.12566
1.39828	0.32972
0.32721	-0.07840
-0.41233	0.22769
-0.25932	0.12566
0.30171	0.02363
-0.18282	0.15117
-0.05531	0.15117
0.12320	0.25320
0.73524	0.40625
0.25071	0.07465
0.09770	-0.00188
0.17421	-0.12942
-0.13181	-0.10391
0.17421	0.40625
0.37822	0.63582
1.01576	-0.20594
0.07220	0.30422
-0.51434	-0.12942
0.09770	0.22769
-0.36133	0.22769
-0.15732	-0.07840
0.07220	-0.05289
0.37822	0.10015
0.40372	0.30422
0.27621	0.35523
-0.05531	0.35523
-0.13181	0.30422
0.02119	0.04914
0.68424	0.12566
0.70974	0.15117
-0.02981	-0.05289
0.27621	-0.00188
0.02119	0.04914
-0.13181	0.10015
-0.02981	0.20219
0.17421	0.20219
0.40372	0.32972
0.37822	0.17668
-0.13181	0.22769
0.07220	0.20219
0.32721	0.22769
-0.31033	0.22769
-0.15732	0.12566
0.25071	0.17668
0.83725	0.66132
0.58223	-0.00188
0.19971	-0.23145
-0.18282	-0.46102
-0.08081	0.35523
-0.20832	-0.00188
-0.92237	0.10015
-0.08081	0.35523
0.88825	0.43176
0.83725	0.43176
0.50573	0.50828
0.73524	0.25320
0.30171	0.15117
0.09770	0.17668
-0.48884	-0.23145
-0.74385	-0.63957
-0.41233	-0.25695
-0.38683	0.20219
0.25071	0.25320
0.42922	0.38074
0.58223	0.50828
0.35272	0.15117
0.40372	0.45726
0.55673	0.10015
0.40372	-0.00188
0.32721	0.22769
-0.13181	0.02363
-0.18282	-0.05289
-0.02981	0.17668
0.32721	0.12566
0.48022	0.22769
0.53123	0.25320
0.53123	-0.15492
-0.02981	-0.12942
-0.41233	0.27871
-0.53984	0.15117
-0.41233	-0.07840
-0.15732	0.35523
0.48022	0.04914
0.32721	0.02363
0.68424	0.63582
0.37822	0.27871
0.07220	0.02363
0.09770	0.25320
0.32721	0.32972
-0.08081	-0.02739
-0.20832	-0.58856
0.48022	-0.25695
0.73524	0.45726
1.01576	0.32972
0.42922	0.32972
-0.33583	-0.07840
-0.64185	0.25320
-0.66735	0.40625
-0.43783	0.12566
-0.08081	0.02363
0.09770	-0.15492
-0.15732	0.07465
1.34728	0.43176
0.93925	0.38074
0.14870	0.15117
0.30171	0.10015
0.19971	-0.05289
0.07220	-0.25695
0.02119	0.32972
-0.36133	0.17668
-0.20832	-0.35899
-0.28482	0.22769
0.04670	0.27871
0.50573	0.32972
0.70974	0.53379
0.37822	0.63582
-0.00431	-0.07840
-0.15732	-0.20594
0.22521	-0.05289
0.25071	0.17668
0.22521	0.20219
0.02119	0.25320
0.09770	-0.20594
0.50573	0.58480
-0.23382	0.22769
-0.36133	-0.10391
-0.10631	-0.30797
0.22521	0.20219
0.42922	0.25320
0.40372	0.02363
0.14870	0.48277
-0.20832	0.27871
-0.02981	0.04914
0.32721	0.07465
0.83725	0.35523
0.30171	-0.12942
0.19971	0.27871
0.22521	0.73785
0.30171	0.22769
-0.31033	-0.41000
-0.51434	-0.10391
-0.15732	0.04914
0.19971	0.22769
0.50573	0.15117
0.30171	-0.02739
-0.05531	0.25320
0.02119	0.30422
0.09770	0.10015
0.12320	0.10015
0.78624	0.15117
0.45472	0.10015
0.22521	0.61031
-0.08081	0.15117
0.02119	-0.12942
0.30171	0.02363
0.12320	0.15117
-0.25932	0.48277
-0.69285	-0.07840
-0.28482	0.04914
0.70974	0.04914
0.70974	0.32972
0.09770	0.04914
0.91375	0.22769
0.25071	-0.05289
0.12320	0.10015
-0.00431	0.48277
-0.28482	0.30422
-0.00431	0.02363
0.37822	-0.38449
0.32721	0.02363
0.07220	0.63582
0.02119	0.76336
0.27621	-0.66508
0.40372	-0.41000
-0.13181	0.30422
0.12320	0.40625
-0.10631	0.48277
0.42922	0.32972
-0.00431	0.27871
0.04670	0.12566
-0.00431	-0.30797
0.37822	0.35523
0.04670	0.25320
0.22521	0.04914
-0.13181	-0.10391
0.09770	-0.12942
0.32721	0.43176
0.55673	0.25320
0.65874	0.17668
0.19971	0.35523
-0.36133	0.20219
-0.08081	0.02363
0.12320	-0.02739
0.12320	0.50828
0.02119	0.22769
0.04670	-0.05289
0.22521	-0.00188
0.17421	0.27871
-0.00431	-0.18043
0.02119	0.15117
0.19971	0.96742
0.65874	0.12566
0.76074	-0.86914
0.60773	0.25320
0.02119	0.55929
-0.25932	0.40625
-0.25932	0.22769
-0.28482	0.30422
-0.36133	0.07465
0.12320	0.02363
0.14870	0.22769
0.60773	-0.15492
0.32721	-0.10391
-0.10631	0.12566
-0.10631	0.04914
0.17421	-0.28246
1.06676	0.50828
0.81175	0.45726
-0.10631	0.48277
0.30171	0.61031
0.02119	0.20219
-0.23382	-0.28246
-0.18282	-0.43551
-0.31033	0.35523
-0.25932	0.25320
-0.05531	0.02363
0.42922	0.40625
0.07220	0.48277
0.04670	0.27871
0.30171	-0.56305
1.04126	0.04914
0.30171	-0.15492
0.83725	0.38074
0.50573	0.63582
0.27621	-0.05289
-0.05531	0.12566
-0.43783	0.25320
-0.56534	0.07465
-0.43783	0.25320
0.02119	0.15117
0.65874	0.04914
0.27621	0.10015
0.17421	0.10015
-0.00431	0.12566
-0.10631	-0.02739
0.53123	0.07465
0.58223	0.53379
0.81175	-0.12942
0.27621	0.12566
-0.08081	-0.10391
-0.08081	0.22769
-0.36133	0.27871
-0.15732	0.22769
0.04670	0.40625
0.12320	0.20219
0.12320	0.35523
0.25071	0.17668
0.30171	-0.71609
0.12320	-0.12942
0.22521	0.02363
0.37822	0.83988
0.37822	0.25320
-0.00431	-0.00188
-0.08081	0.50828
-0.00431	-0.15492
0.42922	0.12566
0.40372	0.07465
-0.13181	0.25320
0.17421	0.22769
0.12320	0.15117
-0.15732	0.02363
0.27621	0.07465
0.35272	0.32972
0.30171	0.15117
0.19971	0.22769
-0.08081	0.10015
-0.25932	0.04914
0.04670	0.17668
0.12320	0.17668
0.53123	-0.38449
0.17421	-0.30797
0.68424	0.10015
0.09770	0.30422
0.04670	0.43176
0.17421	0.58480
0.04670	0.35523
0.12320	0.04914
0.04670	0.07465
0.27621	0.17668
-0.20832	-0.02739
-0.18282	-0.12942
-0.00431	-0.02739
0.14870	0.04914
0.30171	0.27871
0.60773	0.35523
0.45472	0.66132
0.19971	0.15117
0.30171	-0.05289
0.14870	-0.15492
0.02119	-0.35899
-0.00431	0.15117
-0.13181	0.43176
-0.08081	0.43176
-0.25932	0.30422
0.07220	0.15117
0.17421	-0.00188
0.53123	0.38074
0.48022	0.02363
0.60773	-0.02739
0.35272	-0.25695
0.30171	-0.23145
-0.18282	-0.15492
-0.46334	0.35523
-0.56534	0.48277
0.32721	0.38074
0.83725	0.25320
0.42922	0.30422
-0.18282	0.10015
0.02119	0.10015
-0.08081	0.12566
0.07220	0.04914
0.04670	0.10015
0.17421	-0.18043
0.35272	0.25320
0.53123	0.10015
0.76074	-0.07840
0.12320	0.15117
0.02119	0.30422
-0.13181	0.32972
-0.46334	0.17668
-0.08081	0.25320
-0.00431	-0.18043
0.83725	0.10015
0.27621	0.30422
0.04670	0.40625
0.02119	0.38074
0.35272	-0.15492
0.09770	0.20219
-0.10631	0.12566
-0.10631	-0.18043
0.04670	-0.00188
-0.05531	0.04914
0.09770	0.43176
0.37822	-0.10391
0.53123	-0.00188
0.53123	0.58480
0.04670	0.35523
-0.02981	-0.00188
-0.08081	-0.05289
0.07220	0.27871
0.25071	0.25320
0.60773	0.35523
0.25071	0.35523
0.07220	-0.56305
0.04670	-0.46102
0.09770	0.27871
-0.08081	0.32972
0.02119	0.12566
-0.10631	0.32972
-0.13181	0.17668
0.04670	0.07465
0.22521	0.50828
0.42922	0.17668
0.25071	-0.23145
1.27078	-0.02739
0.83725	0.30422
-0.08081	0.53379
-0.61635	0.22769
-0.51434	-0.00188
-0.23382	-0.30797
-0.08081	0.12566
0.02119	0.15117
0.30171	0.40625
0.37822	0.12566
0.48022	0.02363
0.50573	0.07465
0.37822	0.20219
0.60773	0.68683
0.17421	-0.00188
-0.20832	-0.07840
-0.36133	0.02363
-0.23382	-0.20594
0.02119	-0.00188
0.17421	-0.02739
0.07220	0.71234
0.25071	0.20219
0.53123	0.02363
0.32721	0.25320
0.48022	0.17668
0.02119	-0.02739
-0.33583	0.27871
-0.33583	0.17668
0.04670	-0.46102
0.63323	-0.20594
0.78624	0.50828
0.91375	0.50828
0.09770	0.20219
-0.25932	0.15117
-0.53984	0.45726
-0.36133	-0.15492
0.09770	0.04914
0.25071	-0.20594
0.35272	0.27871
0.48022	0.27871
0.27621	0.45726
0.12320	0.07465
0.07220	0.04914
0.37822	0.22769
-0.10631	0.17668
-0.18282	-0.10391
-0.00431	0.22769
0.04670	0.63582
0.14870	0.07465
0.02119	-0.48652
0.22521	-0.41000
0.04670	0.02363
0.22521	0.43176
0.45472	0.89089
0.32721	0.04914
-0.05531	-0.20594
-0.18282	0.12566
0.02119	0.27871
0.02119	0.12566
0.35272	0.25320
0.42922	0.10015
0.96476	0.12566
-0.23382	0.15117
-0.15732	0.27871
0.22521	0.12566
0.45472	0.15117
0.30171	-0.00188
-0.00431	0.12566
0.04670	0.25320
0.17421	0.35523
0.12320	0.27871
-0.18282	0.27871
0.14870	0.17668
-0.05531	0.43176
0.40372	-0.02739
0.42922	-0.35899
0.22521	-0.25695
0.14870	0.48277
0.07220	0.22769
0.02119	0.07465
0.42922	0.20219
0.27621	0.12566
-0.05531	0.15117
-0.13181	0.40625
0.30171	0.32972
0.22521	0.22769
0.30171	-0.02739
-0.08081	0.53379
0.07220	-0.35899
-0.08081	-0.43551
-0.08081	0.02363
0.14870	0.50828
0.65874	0.50828
0.50573	0.27871
-0.28482	0.25320
-0.18282	-0.18043
0.35272	-0.23145
0.68424	0.15117
0.04670	0.17668
-0.23382	0.38074
-0.10631	0.15117
0.19971	-0.38449
-0.00431	0.10015
-0.23382	0.30422
-0.05531	-0.10391
-0.05531	-0.18043
0.12320	0.17668
0.25071	0.27871
0.14870	0.30422
0.17421	0.35523
0.30171	0.43176
0.32721	0.27871
0.22521	0.10015
-0.10631	-0.05289
-0.15732	0.25320
-0.08081	-0.35899
0.02119	0.02363
0.30171	0.20219
0.19971	0.15117
0.42922	0.35523
0.25071	0.45726
0.12320	0.38074
0.12320	0.27871
-0.13181	-0.02739
-0.08081	0.04914
-0.18282	-0.15492
0.30171	-0.02739
0.37822	0.30422
0.83725	0.48277
0.32721	0.07465
-0.00431	-0.41000
-0.00431	-0.25695
0.02119	0.22769
0.04670	0.40625
0.07220	0.17668
0.02119	-0.02739
0.04670	-0.15492
0.27621	-0.07840
0.30171	0.15117
0.04670	0.45726
0.04670	0.20219
0.07220	0.12566
0.17421	0.35523
0.42922	-0.15492
0.37822	0.12566
-0.08081	0.30422
-0.08081	0.07465
0.45472	-0.05289
0.65874	-0.10391
0.30171	0.68683
-0.18282	0.45726
-0.33583	0.17668
-0.02981	0.12566
-0.08081	0.22769
-0.18282	0.43176
0.02119	-0.23145
-0.33583	-0.23145
1.14327	0.30422
1.21977	0.50828
0.63323	0.45726
0.22521	0.17668
-0.02981	0.50828
-0.02981	0.15117
-0.08081	-0.07840
0.02119	0.12566
-0.18282	0.27871
-0.18282	0.04914
-0.02981	-0.00188
0.25071	-0.25695
1.14327	0.22769
0.73524	0.66132
0.02119	0.30422
-0.08081	0.12566
0.07220	0.25320
0.22521	0.02363
0.22521	0.25320
-0.08081	-0.20594
0.30171	0.15117
0.02119	0.30422
0.12320	0.66132
0.04670	-0.05289
0.19971	0.04914
0.09770	0.38074
-0.00431	0.86539
0.22521	-0.02739
0.30171	-0.61406
0.48022	-0.66508
0.53123	0.35523
-0.08081	0.38074
-0.08081	0.35523
-0.00431	0.32972
0.22521	0.22769
-0.13181	0.10015
-0.08081	0.04914
-0.08081	-0.00188
-0.08081	0.04914
-0.05531	-0.02739
0.17421	-0.00188
0.32721	0.15117
0.68424	0.02363
0.35272	0.27871
0.32721	0.35523
-0.08081	0.12566
-0.20832	0.20219
-0.10631	0.10015
0.07220	0.12566
0.32721	0.12566
0.73524	0.15117
0.35272	-0.00188
0.32721	0.43176
0.04670	-0.12942
-0.13181	0.35523
-0.08081	0.04914
-0.10631	0.10015
0.02119	0.12566
0.14870	0.22769
0.70974	0.15117
0.25071	0.89089
-0.10631	0.22769
0.09770	-0.58856
0.12320	-0.51203
0.68424	0.45726
0.25071	0.58480
0.12320	0.04914
-0.05531	0.12566
-0.18282	0.12566
-0.05531	0.25320
-0.10631	0.30422
0.07220	-0.10391
0.53123	0.07465
0.78624	0.17668
0.53123	0.25320
-0.15732	0.15117
-0.02981	0.12566
0.07220	-0.02739
0.02119	-0.38449
-0.08081	-0.33348
-0.33583	0.20219
-0.10631	0.40625
0.17421	0.63582
0.65874	0.43176
0.50573	0.12566
0.07220	0.07465
-0.02981	0.10015
0.22521	0.40625
0.42922	-0.38449
0.32721	0.22769
0.32721	-0.07840
0.09770	0.04914
-0.20832	0.07465
0.02119	0.38074
0.17421	0.45726
0.55673	0.66132
-0.20832	0.25320
-0.25932	0.04914
-0.33583	-0.12942
0.09770	-0.43551
0.19971	0.10015
0.22521	0.12566
0.37822	0.55929
0.17421	-0.07840
0.17421	-0.02739
0.25071	0.45726
0.04670	-0.46102
0.09770	-0.07840
-0.02981	0.10015
-0.20832	0.12566
0.25071	0.53379
0.50573	0.50828
0.25071	0.35523
-0.00431	-0.07840
-0.00431	0.22769
0.09770	0.12566
0.22521	0.15117
0.30171	0.48277
0.19971	-0.28246
0.09770	-0.12942
0.09770	-0.07840
0.27621	0.43176
0.22521	0.38074
0.02119	0.53379
0.19971	0.30422
0.63323	0.40625
1.16877	0.20219
0.12320	-0.48652
-0.38683	-0.05289
-0.38683	-0.10391
-0.25932	0.27871
-0.28482	0.12566
-0.10631	0.22769
0.04670	0.25320
0.22521	0.22769
0.27621	-0.12942
0.32721	0.15117
0.73524	0.04914
0.63323	0.17668
0.32721	0.15117
0.22521	0.22769
-0.13181	0.27871
-0.20832	-0.18043
-0.10631	0.22769
0.02119	-0.02739
0.07220	0.12566
0.04670	0.43176
0.12320	0.27871
0.32721	-0.07840
0.83725	0.55929
0.02119	0.38074
-0.08081	-0.20594
0.02119	-0.10391
0.07220	-0.02739
0.02119	0.20219
0.07220	0.35523
0.09770	0.22769
0.63323	0.17668
0.40372	0.25320
0.27621	0.12566
-0.05531	0.43176
0.12320	-0.07840
-0.08081	-0.43551
-0.00431	-0.28246
-0.10631	0.35523
0.30171	0.48277
0.27621	0.32972
0.45472	0.38074
0.32721	0.10015
-0.05531	-0.18043
-0.08081	0.17668
-0.13181	0.12566
-0.18282	0.07465
0.78624	0.35523
0.25071	0.38074
0.17421	0.35523
0.22521	-0.41000
0.60773	-0.10391
0.12320	0.22769
-0.25932	0.07465
-0.28482	0.20219
-0.00431	0.20219
0.27621	0.22769
0.68424	0.30422
0.48022	0.40625
0.30171	0.10015
0.32721	-0.12942
0.27621	-0.00188
-0.31033	-0.02739
-0.31033	0.32972
-0.25932	0.12566
-0.05531	0.40625
0.17421	-0.15492
0.19971	-0.02739
0.60773	0.10015
0.14870	0.30422
0.09770	0.17668
0.12320	0.12566
0.30171	0.35523
0.12320	-0.00188
-0.08081	-0.20594
0.17421	0.35523
0.19971	0.53379
0.30171	-0.02739
0.09770	0.12566
0.30171	0.35523
0.30171	0.48277
0.12320	0.02363
0.02119	-0.61406
0.12320	0.25320
0.14870	0.35523
0.07220	-0.12942
0.17421	0.38074
-0.23382	0.43176
0.04670	0.02363
0.22521	-0.15492
0.40372	0.20219
-0.00431	0.02363
-0.08081	0.15117
0.07220	0.10015
0.22521	-0.07840
0.02119	0.20219
0.02119	0.25320
0.09770	0.25320
0.40372	-0.00188
-0.08081	0.25320
0.48022	0.32972
0.32721	0.17668
-0.08081	-0.00188
0.07220	0.02363
0.09770	0.15117
0.53123	0.32972
0.48022	0.38074
0.17421	-0.20594
-0.08081	0.10015
-0.31033	0.25320
-0.02981	0.50828
-0.00431	-0.18043
-0.10631	-0.25695
-0.05531	0.25320
0.22521	-0.00188
0.58223	0.25320
0.73524	0.78886
0.42922	0.17668
0.12320	-0.10391
0.12320	0.15117
0.17421	0.32972
0.02119	0.12566
0.12320	-0.00188
-0.13181	-0.18043
-0.08081	0.43176
-0.08081	0.25320
-0.08081	-0.35899
0.04670	-0.15492
0.45472	0.04914
0.32721	0.53379
-0.15732	0.35523
0.12320	0.50828
0.63323	0.20219
0.60773	-0.12942
0.27621	0.35523
-0.20832	0.10015
-0.15732	0.10015
-0.10631	0.40625
0.14870	-0.15492
0.14870	-0.10391
0.09770	0.48277
0.09770	-0.00188
0.25071	-0.25695
0.42922	-0.10391
0.37822	0.32972
0.48022	0.43176
-0.13181	0.91640
-0.18282	0.12566
0.04670	-0.33348
0.09770	-0.28246
0.30171	0.22769
0.22521	0.66132
-0.02981	0.30422
0.09770	-0.02739
0.12320	-0.07840
-0.00431	0.17668
0.22521	0.27871
0.22521	0.17668
0.50573	0.10015
0.09770	0.12566
-0.18282	-0.23145
-0.13181	0.40625
-0.10631	-0.18043
0.09770	-0.56305
0.37822	-0.23145
0.76074	0.43176
0.40372	0.63582
0.12320	0.48277
0.02119	0.40625
0.32721	0.35523
0.07220	0.04914
-0.00431	0.40625
-0.28482	-0.41000
-0.05531	-0.15492
-0.10631	0.48277
0.04670	0.04914
0.14870	-0.28246
0.55673	0.32972
0.55673	0.66132
0.25071	0.10015
0.02119	0.15117
0.17421	0.20219
-0.10631	-0.28246
0.27621	-0.46102
0.48022	0.30422
-0.02981	0.45726
0.02119	0.45726
0.07220	0.30422
0.25071	0.12566
0.04670	0.22769
-0.02981	0.15117
-0.05531	0.22769
0.07220	-0.38449
0.07220	0.04914
0.27621	0.02363
0.35272	0.04914
0.17421	-0.02739
0.14870	0.45726
0.09770	0.38074
0.30171	0.27871
0.14870	0.58480
0.07220	-0.07840
0.09770	-0.61406
0.09770	-0.23145
0.12320	0.35523
-0.02981	0.35523
0.32721	0.35523
0.32721	0.17668
0.19971	0.27871
0.09770	0.12566
0.02119	-0.05289
-0.05531	-0.18043
-0.05531	-0.00188
-0.02981	0.40625
0.14870	0.38074
0.30171	0.25320
0.40372	0.20219
0.30171	0.15117
0.14870	0.17668
0.12320	-0.10391
0.09770	-0.00188
-0.02981	0.12566
-0.10631	0.30422
0.02119	-0.63957
0.53123	-0.30797
0.37822	0.58480
0.12320	0.48277
-0.23382	0.20219
0.04670	0.02363
0.30171	0.22769
0.40372	0.32972
-0.10631	0.53379
-0.08081	-0.10391
0.17421	-0.46102
0.32721	0.15117
0.27621	0.22769
0.09770	0.35523
0.07220	0.40625
0.40372	0.25320
0.27621	-0.33348
0.04670	-0.02739
0.04670	0.10015
-0.10631	0.12566
-0.18282	0.53379
0.17421	-0.07840
0.35272	-0.12942
0.53123	0.22769
0.78624	0.43176
0.27621	-0.00188
-0.02981	0.15117
-0.25932	0.15117
-0.31033	0.53379
-0.10631	0.10015
-0.00431	-0.35899
0.32721	-0.25695
0.09770	0.12566
0.30171	0.38074
0.53123	0.32972
0.68424	0.55929
0.42922	0.12566
-0.43783	-0.20594
-0.41233	-0.25695
-0.20832	0.07465
-0.18282	-0.12942
-0.00431	0.04914
0.17421	0.32972
0.17421	0.30422
0.19971	0.32972
0.14870	0.45726
0.19971	0.25320
0.48022	0.07465
0.19971	-0.05289
0.14870	0.15117
-0.00431	0.07465
-0.08081	-0.28246
-0.05531	0.10015
0.04670	0.35523
0.22521	-0.05289
0.58223	0.32972
0.60773	0.40625
-0.13181	0.17668
-0.25932	0.20219
0.04670	-0.00188
-0.02981	0.07465
0.30171	0.40625
0.17421	0.55929
0.32721	-0.12942
0.32721	-0.15492
0.25071	0.17668
0.09770	0.02363
0.22521	0.20219
0.22521	0.25320
0.04670	-0.02739
-0.02981	0.10015
-0.02981	0.20219
-0.00431	-0.25695
0.27621	-0.05289
0.45472	0.15117
0.88825	0.07465
0.35272	0.48277
-0.15732	0.58480
-0.20832	0.15117
-0.13181	0.17668
-0.05531	0.04914
-0.28482	0.22769
-0.02981	0.27871
0.32721	0.12566
0.60773	0.40625
0.58223	0.35523
0.48022	-0.38449
0.14870	-0.15492
0.07220	0.15117
0.02119	-0.20594
0.09770	-0.05289
0.19971	0.53379
0.02119	0.50828
0.02119	0.35523
0.27621	0.20219
0.40372	0.20219
0.30171	0.04914
-0.05531	-0.10391
-0.08081	0.48277
-0.08081	-0.53754
-0.13181	-0.53754
0.22521	0.15117
0.14870	0.25320
0.02119	0.22769
0.09770	0.27871
0.19971	0.32972
0.22521	0.35523
-0.08081	0.02363
0.40372	0.12566
-0.08081	-0.07840
-0.02981	0.20219
-0.05531	-0.02739
0.32721	0.20219
-0.08081	0.32972
-0.23382	-0.07840
0.37822	0.17668
0.63323	0.32972
0.32721	0.32972
-0.02981	0.25320
-0.25932	0.15117
-0.13181	0.20219
-0.20832	0.12566
0.12320	-0.48652
0.60773	-0.56305
1.09226	0.22769
0.76074	0.71234
0.02119	0.58480
-0.08081	0.12566
-0.00431	0.25320
-0.18282	0.32972
0.04670	0.20219
0.07220	0.20219
0.45472	0.02363
0.27621	-0.05289
0.14870	0.25320
-0.02981	-0.10391
0.25071	-0.23145
0.32721	0.10015
0.48022	0.32972
-0.10631	0.20219
-0.18282	0.15117
0.07220	0.32972
0.22521	0.17668
0.19971	0.20219
0.12320	0.48277
0.17421	-0.12942
0.22521	-0.07840
0.55673	-0.23145
0.14870	-0.10391
-0.20832	0.17668
-0.23382	0.25320
0.04670	0.17668
0.30171	0.43176
0.53123	0.22769
0.50573	0.22769
0.04670	0.27871
-0.20832	0.12566
0.02119	0.20219
0.14870	-0.15492
0.53123	0.22769
0.12320	0.20219
0.22521	-0.33348
0.02119	0.10015
-0.13181	-0.15492
0.14870	0.50828
0.09770	0.48277
0.02119	0.61031
0.27621	0.12566
0.27621	0.10015
0.73524	-0.10391
0.17421	-0.15492
-0.36133	-0.00188
-0.08081	0.17668
0.02119	0.27871
0.32721	0.43176
0.12320	0.22769
0.22521	-0.28246
0.30171	0.07465
0.02119	0.32972
-0.13181	-0.20594
0.19971	-0.00188
0.22521	-0.00188
0.37822	0.58480
0.02119	0.55929
0.07220	0.58480
0.40372	-0.00188
-0.08081	-0.02739
-0.13181	0.10015
-0.10631	0.04914
0.07220	-0.02739
0.04670	-0.41000
0.12320	-0.20594
0.53123	0.07465
0.14870	0.40625
0.07220	0.78886
0.22521	0.27871
0.22521	0.25320
0.12320	0.40625
0.09770	-0.15492
0.02119	-0.66508
0.40372	-0.00188
0.68424	0.45726
0.19971	0.55929
-0.08081	0.22769
0.09770	0.38074
0.12320	0.07465
0.17421	-0.12942
0.09770	-0.35899
0.02119	0.32972
-0.05531	0.50828
-0.10631	0.40625
0.02119	-0.25695
0.42922	-0.35899
0.53123	0.45726
0.58223	0.15117
0.09770	0.07465
-0.23382	0.32972
-0.20832	0.35523
-0.23382	0.30422
-0.02981	0.04914
0.22521	-0.10391
0.68424	0.15117
0.40372	0.25320
0.22521	0.66132
0.19971	-0.05289
0.25071	-0.02739
0.07220	0.27871
0.14870	-0.05289
-0.00431	-0.66508
-0.05531	-0.20594
-0.13181	0.20219
0.12320	0.27871
0.42922	0.40625
0.40372	0.25320
0.14870	0.38074
-0.08081	-0.15492
-0.00431	0.22769
0.17421	0.27871
0.22521	0.15117
0.27621	0.17668
0.19971	0.25320
0.25071	0.32972
0.22521	0.15117
-0.05531	-0.25695
0.02119	-0.20594
0.09770	0.22769
0.17421	0.32972
0.27621	0.43176
0.25071	0.27871
