0.07220	0.25320
0.12320	0.25320
0.27621	0.25320
0.19971	0.25320
0.19971	0.15117
0.19971	0.15117
0.17421	0.20219
0.17421	0.15117
0.14870	0.10015
0.14870	0.17668
0.09770	0.25320
0.19971	0.22769
0.25071	0.27871
0.32721	0.22769
0.19971	0.27871
0.19971	0.15117
0.12320	0.12566
0.09770	0.10015
0.07220	0.10015
0.04670	-0.00188
-0.05531	0.07465
0.07220	0.25320
0.04670	0.27871
0.19971	0.20219
0.25071	0.20219
0.09770	0.40625
0.22521	0.15117
0.27621	0.04914
0.12320	0.07465
0.04670	0.04914
0.02119	0.15117
-0.00431	0.12566
0.19971	0.17668
0.22521	0.10015
0.25071	0.07465
0.12320	0.02363
0.12320	0.04914
-0.02981	0.04914
-0.08081	0.02363
-0.02981	0.07465
-0.02981	0.20219
0.07220	0.20219
0.17421	0.25320
0.17421	0.17668
0.14870	0.20219
0.17421	0.10015
0.12320	0.04914
0.07220	0.04914
0.02119	0.04914
0.04670	0.07465
0.04670	0.17668
0.02119	0.22769
0.04670	0.20219
0.22521	0.20219
0.14870	0.12566
0.19971	0.12566
0.19971	0.15117
0.09770	0.12566
0.12320	0.20219
0.04670	0.12566
0.02119	0.27871
0.09770	0.25320
0.22521	0.25320
0.27621	0.22769
0.19971	0.25320
0.14870	0.15117
0.17421	0.12566
0.07220	0.17668
0.09770	0.12566
0.14870	0.12566
0.12320	0.20219
0.12320	0.22769
0.12320	0.22769
0.25071	0.17668
0.09770	0.15117
0.12320	0.04914
0.14870	0.02363
0.14870	0.12566
0.09770	0.02363
0.09770	0.07465
-0.00431	0.20219
0.07220	0.30422
0.14870	0.25320
0.22521	0.27871
0.17421	0.22769
0.35272	0.17668
0.17421	0.10015
0.12320	0.12566
0.04670	0.04914
0.09770	0.04914
0.04670	0.17668
0.09770	0.22769
0.19971	0.22769
0.22521	0.20219
0.22521	0.15117
0.12320	0.10015
0.09770	0.12566
0.02119	0.07465
-0.00431	0.02363
0.07220	0.10015
-0.05531	0.15117
0.02119	0.25320
0.12320	0.20219
0.17421	0.17668
0.14870	0.07465
0.22521	0.02363
0.17421	0.02363
0.07220	-0.00188
0.04670	0.10015
0.04670	0.12566
0.09770	0.25320
0.07220	0.32972
0.17421	0.22769
0.22521	0.25320
0.27621	0.22769
0.27621	0.20219
0.12320	0.15117
0.09770	0.15117
0.09770	0.15117
0.07220	0.20219
0.02119	0.20219
0.12320	0.17668
0.22521	0.20219
0.19971	0.17668
0.27621	0.20219
0.12320	0.15117
0.12320	0.04914
0.09770	0.15117
0.07220	0.12566
0.04670	0.17668
0.04670	0.27871
0.02119	0.20219
0.12320	0.25320
0.17421	0.22769
0.30171	0.12566
0.30171	0.15117
0.14870	0.17668
0.17421	0.15117
0.17421	0.04914
0.12320	0.12566
0.14870	0.17668
0.14870	0.25320
0.22521	0.20219
0.32721	0.22769
0.30171	0.20219
0.27621	0.10015
0.25071	0.10015
0.14870	0.07465
0.17421	-0.00188
0.12320	-0.00188
0.02119	0.12566
0.09770	0.15117
0.19971	0.12566
0.22521	0.15117
0.25071	0.12566
0.19971	0.04914
0.19971	0.10015
0.04670	0.10015
-0.00431	0.02363
-0.00431	0.07465
-0.00431	0.12566
0.07220	0.22769
0.07220	0.17668
0.14870	0.17668
0.14870	0.17668
0.17421	0.10015
0.22521	0.04914
0.19971	0.07465
0.12320	0.07465
0.22521	0.07465
-0.00431	0.12566
-0.02981	0.15117
0.12320	0.15117
0.30171	0.12566
0.30171	0.12566
0.25071	0.15117
0.22521	0.17668
0.14870	0.12566
-0.00431	0.20219
0.22521	0.20219
0.02119	0.17668
0.12320	0.10015
0.07220	0.15117
-0.00431	0.20219
0.02119	0.22769
0.25071	0.27871
0.42922	-0.00188
0.19971	-0.00188
0.22521	-0.15492
0.14870	-0.02739
-0.05531	0.45726
0.17421	0.38074
-0.02981	-0.00188
0.07220	0.04914
0.25071	-0.20594
0.35272	0.30422
-0.02981	0.50828
-0.00431	0.50828
-0.08081	0.27871
0.50573	-0.07840
0.42922	0.12566
0.30171	-0.07840
0.22521	0.35523
-0.18282	0.43176
0.27621	0.38074
0.19971	0.25320
-0.33583	0.30422
0.63323	0.35523
1.01576	0.22769
-0.84586	-1.25176
-1.96793	-0.74160
3.51492	0.10015
1.04126	0.27871
-0.71835	0.12566
-1.35589	1.27351
-1.10088	0.30422
-0.31033	-1.02219
0.02119	-0.76711
-1.81492	-0.35899
1.24527	0.30422
3.51492	0.96742
-2.93700	0.73785
4.25447	0.78886
8.84476	0.86539
1.06676	1.06945
-3.95706	-0.20594
-5.41065	-0.15492
-9.84794	0.66132
-1.35589	-0.74160
8.07971	-1.40480
-3.54903	-0.81812
4.91751	0.02363
6.21809	0.73785
-3.16651	1.37554
-3.34502	0.89089
5.93757	-0.41000
1.65330	0.25320
-2.52897	0.55929
-3.49803	-0.00188
0.63323	0.30422
0.60773	-0.76711
6.62612	0.02363
-0.05531	0.53379
-6.86425	0.53379
2.18883	0.15117
-7.19577	-0.33348
-3.06450	0.04914
7.85020	0.45726
0.68424	0.30422
3.79544	0.27871
1.11776	-0.86914
-2.52897	-0.10391
-5.76768	0.15117
1.21977	0.27871
1.85731	0.71234
-2.98800	1.37554
4.17796	-0.00188
7.69719	-0.86914
-3.67654	-0.41000
-8.44535	0.15117
0.04670	0.35523
4.96851	0.99292
-0.05531	0.99292
5.70806	-0.30797
1.80631	-0.10391
-3.85505	0.25320
2.62236	0.55929
-3.31952	-0.25695
-4.59460	-0.66508
0.63323	-0.41000
2.11233	0.20219
2.97938	0.45726
-1.63641	0.25320
-8.21583	0.15117
-5.38515	0.25320
7.44217	-0.25695
3.92294	0.30422
6.14159	-0.05289
0.53123	-0.20594
-0.00431	0.07465
-3.26852	0.10015
2.62236	0.53379
4.17796	0.68683
-9.87344	-0.28246
1.83181	-0.23145
1.85731	0.53379
0.02119	0.63582
-0.18282	0.12566
-3.21751	0.10015
2.36734	0.10015
4.61149	0.45726
-4.11007	0.63582
-2.68198	0.30422
1.70430	0.78886
2.57136	-0.92016
3.18340	0.20219
-3.11551	-0.86914
4.81550	-0.99668
1.16877	-0.18043
-1.84042	0.86539
-2.98800	0.45726
-4.62010	0.96742
0.37822	1.32453
4.43298	0.02363
-0.36133	0.12566
1.50029	-0.63957
-3.90606	0.02363
2.85188	0.30422
1.62780	0.30422
-3.77855	0.04914
-3.65104	0.68683
4.25447	0.53379
3.28540	-0.18043
1.67880	-1.30277
-0.25932	-0.76711
0.42922	-0.15492
0.58223	1.17148
-5.00263	-0.07840
-3.24301	0.73785
0.76074	0.55929
2.08683	0.53379
1.01576	0.43176
0.07220	0.58480
-0.43783	-0.25695
-0.94787	-0.18043
0.68424	0.20219
1.67880	0.30422
1.52579	-0.12942
0.40372	-0.05289
-0.64185	0.02363
0.83725	-0.05289
-0.87136	-0.23145
-2.40146	0.58480
1.70430	0.61031
0.53123	0.35523
1.65330	-0.38449
-0.00431	-0.00188
-0.71835	0.43176
-0.10631	0.40625
-0.23382	-0.05289
-0.69285	0.50828
-0.66735	0.81437
0.27621	0.45726
4.10146	-0.25695
-2.50347	-0.89465
-1.45790	0.30422
2.08683	0.30422
2.29084	-0.18043
1.04126	0.73785
-0.18282	0.76336
-0.15732	0.17668
-1.76392	-0.53754
0.17421	0.32972
0.63323	0.15117
1.14327	0.32972
0.42922	0.22769
0.53123	-0.58856
-2.19745	-0.15492
0.76074	0.66132
-0.53984	0.32972
-1.02437	-0.30797
-2.50347	-0.00188
-0.38683	0.66132
5.88657	0.89089
0.63323	0.53379
-0.48884	-0.10391
-0.76936	-0.25695
0.02119	0.55929
-0.48884	0.10015
1.14327	-0.10391
0.12320	-0.30797
-0.74385	0.32972
1.19427	0.45726
1.11776	0.53379
0.27621	0.10015
-0.43783	-0.35899
-0.31033	0.04914
-0.28482	-0.05289
-0.08081	0.32972
-0.28482	-0.05289
-0.51434	0.12566
0.04670	0.45726
1.62780	0.40625
4.43298	0.55929
-2.17195	0.15117
-1.58541	0.04914
-2.12094	-0.51203
2.64786	-0.10391
0.73524	-0.25695
-0.20832	0.40625
-1.30489	0.50828
0.30171	0.50828
0.07220	-0.12942
1.09226	-0.89465
0.48022	0.12566
-1.30489	0.50828
-1.81492	0.96742
0.63323	0.02363
0.99026	0.27871
2.46935	0.32972
1.85731	0.30422
0.83725	-0.07840
-0.08081	0.43176
0.07220	0.86539
-0.33583	-0.00188
-0.38683	-0.10391
-1.22839	-0.56305
-1.27939	-0.41000
-2.06994	-0.05289
1.09226	0.43176
-1.07538	0.48277
4.02495	0.43176
-2.12094	0.58480
1.06676	0.17668
1.04126	-0.56305
0.19971	0.07465
-0.89686	-0.28246
-1.02437	0.15117
-0.87136	-0.30797
0.81175	0.61031
1.67880	0.38074
-0.46334	0.04914
0.42922	-0.05289
-0.10631	-0.02739
0.63323	0.04914
0.63323	0.04914
0.07220	0.43176
0.50573	0.20219
-1.07538	0.45726
-2.12094	-0.10391
-1.48340	0.20219
-0.00431	-0.02739
2.11233	-0.28246
0.91375	0.35523
0.53123	0.32972
0.93925	0.27871
0.76074	0.17668
0.32721	0.04914
-0.25932	0.38074
-1.17738	-0.92016
1.60230	-0.02739
-0.10631	0.38074
0.32721	0.25320
0.27621	-0.00188
0.35272	0.30422
0.42922	0.20219
-2.04444	0.89089
3.03039	-0.05289
0.83725	-0.05289
-0.97337	-0.33348
-0.99887	0.12566
-0.10631	0.32972
-0.43783	0.32972
0.55673	0.22769
0.37822	0.35523
0.93925	-0.18043
-2.32496	0.07465
-1.20288	0.35523
1.44929	0.32972
2.90288	0.17668
3.13239	-0.25695
0.42922	-0.35899
-0.97337	-0.10391
-2.14644	-0.05289
-1.71292	0.76336
-0.31033	-0.41000
0.78624	-0.10391
0.12320	0.15117
0.63323	0.35523
0.88825	0.48277
0.53123	0.27871
-0.08081	0.35523
-0.31033	-0.25695
-0.48884	0.35523
-0.99887	0.04914
1.39828	0.45726
0.68424	0.12566
-0.53984	-0.56305
1.06676	-0.12942
-0.46334	-0.15492
-1.78942	0.30422
1.98482	-0.43551
0.45472	1.14597
-0.31033	0.48277
-0.28482	0.02363
0.42922	0.43176
-0.28482	0.32972
-0.18282	0.17668
0.09770	-0.15492
-0.10631	-0.18043
0.32721	0.40625
0.50573	0.35523
1.01576	0.40625
0.35272	-0.02739
0.86275	-0.23145
-0.00431	-0.05289
-0.59084	0.04914
-0.31033	0.10015
-0.31033	0.00000
0.27621	0.00000
0.50573	0.15117
-0.43783	0.07465
0.25071	0.30422
0.53123	0.38074
0.45472	0.12566
-0.18282	0.48277
0.40372	0.35523
-0.05531	0.04914
-0.08081	-0.05289
0.91375	0.04914
0.53123	0.35523
-0.33583	-0.10391
-0.31033	-0.15492
-0.15732	-0.25695
-0.23382	0.43176
0.48022	0.53379
0.50573	0.07465
-0.41233	-0.07840
-1.55991	0.02363
2.03582	-0.10391
1.27078	0.25320
-0.61635	-0.05289
-0.66735	-0.07840
-0.20832	0.27871
-0.28482	0.81437
-0.15732	0.43176
0.27621	0.22769
0.76074	0.30422
0.96476	0.86539
-0.48884	-0.41000
-0.08081	-0.23145
0.73524	0.17668
0.53123	0.12566
0.83725	-0.43551
-0.48884	0.40625
0.25071	0.48277
0.14870	0.35523
0.09770	0.12566
-0.43783	-0.41000
-1.04987	0.30422
-0.59084	0.40625
0.22521	0.12566
0.81175	-0.20594
-0.05531	0.35523
1.21977	0.43176
0.88825	0.27871
-0.13181	0.45726
-0.84586	-0.23145
-0.38683	0.07465
0.30171	0.17668
0.04670	0.12566
0.48022	0.22769
0.42922	0.27871
0.48022	0.15117
0.40372	0.15117
0.76074	0.43176
0.19971	0.48277
-0.53984	0.10015
-0.66735	-0.28246
0.32721	-0.10391
0.70974	-0.12942
-0.00431	0.04914
-0.48884	0.40625
-0.46334	0.20219
0.12320	0.38074
1.24527	0.25320
1.55129	0.27871
0.37822	0.17668
-0.33583	-0.23145
-0.33583	-0.05289
-0.08081	0.02363
0.09770	0.02363
-0.18282	0.20219
-0.23382	0.30422
-0.87136	0.02363
0.27621	0.32972
1.75531	0.81437
-2.06994	0.10015
2.16333	-0.63957
0.50573	0.15117
0.02119	-0.05289
-0.38683	0.12566
-0.02981	0.22769
-0.33583	0.17668
-0.76936	0.32972
-0.56534	0.45726
0.07220	0.10015
0.53123	0.35523
0.14870	0.07465
0.70974	0.25320
0.88825	-0.38449
0.53123	-0.05289
0.14870	-0.43551
0.32721	0.94191
-0.48884	0.15117
0.04670	0.15117
0.45472	0.71234
0.73524	0.15117
0.78624	-0.10391
-0.23382	-0.07840
-0.43783	0.15117
-0.43783	-0.20594
-0.31033	0.12566
0.12320	0.27871
1.01576	0.53379
-0.18282	0.20219
-0.25932	-0.02739
0.07220	0.02363
0.04670	-0.02739
-0.10631	-0.15492
-0.20832	0.17668
0.32721	0.27871
0.63323	0.04914
0.93925	0.27871
-0.53984	0.30422
1.06676	0.27871
0.37822	0.12566
0.09770	0.25320
-0.56534	0.25320
0.07220	0.32972
0.68424	-0.41000
0.27621	0.02363
0.02119	0.15117
-0.15732	0.02363
-0.38683	0.10015
0.14870	0.35523
-0.15732	0.22769
-0.02981	0.17668
0.78624	0.58480
1.19427	-0.12942
0.14870	-0.15492
-0.69285	-0.38449
-1.07538	-0.15492
0.09770	0.25320
0.58223	0.38074
0.76074	0.20219
1.34728	0.71234
0.35272	0.20219
0.27621	-0.15492
-0.59084	-0.05289
-0.92237	0.25320
-0.69285	0.10015
-0.15732	0.30422
0.22521	-0.02739
0.50573	-0.05289
0.99026	0.38074
0.45472	0.55929
-0.59084	-0.15492
0.30171	-0.18043
0.53123	0.25320
0.12320	-0.00188
-0.13181	0.25320
0.88825	0.53379
1.39828	0.35523
0.14870	0.12566
-0.08081	-0.02739
-0.23382	-0.00188
-0.18282	-0.51203
-0.87136	0.15117
-0.51434	-0.02739
-0.41233	0.45726
-0.00431	0.50828
0.76074	0.22769
0.53123	-0.00188
0.35272	0.27871
0.35272	0.30422
0.22521	0.25320
0.60773	0.20219
1.50029	0.15117
0.58223	0.22769
-0.64185	0.12566
-1.33039	-0.43551
0.07220	-0.66508
0.50573	0.12566
0.22521	0.55929
-0.48884	0.35523
-0.08081	0.66132
0.48022	0.38074
-0.20832	0.38074
0.55673	-0.28246
1.14327	0.10015
-0.05531	-0.02739
-0.10631	-0.12942
-0.10631	-0.00188
0.37822	0.15117
0.22521	0.12566
0.45472	0.58480
-0.23382	0.50828
-0.69285	0.27871
-0.10631	0.30422
0.04670	0.27871
0.02119	-1.09871
-0.28482	-0.51203
0.07220	0.40625
0.60773	0.66132
1.88281	0.53379
1.70430	-0.02739
0.30171	-0.30797
-0.10631	0.48277
-0.08081	0.20219
-0.51434	0.07465
-0.59084	0.25320
-0.71835	0.35523
-0.69285	-0.07840
-0.20832	0.15117
0.45472	0.15117
0.68424	0.02363
1.19427	0.66132
0.83725	0.35523
1.01576	-0.74160
-0.23382	-0.66508
-0.51434	0.53379
-0.53984	-0.10391
-0.05531	0.15117
-0.15732	-0.23145
-0.61635	0.43176
1.32178	0.55929
1.09226	0.45726
0.32721	0.32972
-0.25932	0.02363
-0.76936	-0.48652
-0.13181	0.07465
0.02119	0.35523
0.19971	0.35523
0.88825	-0.43551
1.27078	0.40625
-0.18282	0.17668
-0.66735	0.58480
-0.28482	-0.12942
-0.00431	-0.15492
-0.10631	0.38074
0.07220	0.32972
0.55673	0.38074
0.14870	0.12566
1.19427	0.32972
0.81175	-0.05289
0.40372	0.15117
-0.43783	-0.10391
-0.28482	-0.00188
-0.28482	0.22769
-0.20832	0.25320
-0.28482	-0.10391
-0.13181	-0.02739
0.12320	0.17668
0.27621	-0.00188
0.48022	0.32972
0.17421	0.38074
0.27621	0.61031
0.32721	-0.33348
0.32721	-0.15492
0.27621	-0.53754
1.32178	0.78886
0.37822	0.76336
-0.43783	0.02363
-0.79486	-0.10391
-0.71835	0.25320
0.12320	0.58480
0.48022	0.22769
0.68424	-0.18043
0.02119	-0.07840
-0.00431	-0.18043
0.02119	-0.10391
0.35272	0.12566
0.02119	0.32972
-0.15732	0.07465
1.04126	0.32972
-0.66735	0.45726
0.93925	0.02363
0.76074	0.02363
-0.10631	0.02363
-0.15732	0.27871
-0.48884	0.07465
0.30171	0.35523
0.63323	0.25320
0.50573	0.45726
-0.15732	-0.58856
-0.84586	-0.28246
-0.15732	0.17668
0.32721	-0.00188
0.42922	0.43176
-0.28482	0.55929
-0.10631	0.66132
0.22521	-0.61406
0.58223	-0.23145
0.14870	-0.00188
0.09770	0.22769
0.45472	0.38074
0.17421	0.43176
-0.28482	0.43176
-0.13181	-0.43551
-0.25932	-0.00188
0.32721	-0.15492
0.86275	0.12566
0.83725	0.48277
0.02119	0.45726
-0.13181	0.04914
-0.36133	0.02363
-0.08081	0.32972
-0.31033	-0.15492
-0.28482	0.12566
0.17421	-0.02739
0.68424	0.38074
0.25071	0.27871
0.81175	-0.43551
0.53123	-0.33348
-0.08081	0.45726
-0.15732	0.53379
-0.13181	0.35523
0.19971	0.43176
0.48022	0.27871
0.30171	0.17668
-0.97337	-0.05289
-0.59084	-0.18043
0.12320	-0.33348
0.93925	0.76336
0.22521	0.35523
0.12320	0.35523
0.25071	0.15117
0.09770	0.15117
-0.43783	-0.51203
0.27621	-0.51203
1.14327	-0.23145
1.60230	0.73785
-0.25932	0.02363
-0.51434	0.58480
-0.56534	0.27871
-0.46334	-0.00188
-0.28482	0.25320
-0.15732	0.58480
0.12320	-0.79262
0.35272	-0.84363
1.11776	0.45726
0.88825	0.58480
0.09770	0.17668
0.02119	0.45726
-0.13181	0.32972
-1.22839	0.38074
0.42922	0.04914
0.63323	-0.07840
1.14327	-0.02739
0.14870	0.27871
-0.28482	-0.02739
-0.25932	0.32972
-0.18282	0.15117
-0.59084	-0.10391
0.07220	0.32972
0.27621	0.35523
-1.04987	-0.05289
0.99026	-0.07840
0.63323	0.10015
0.96476	0.55929
0.40372	0.27871
0.93925	0.71234
0.32721	0.45726
-0.33583	0.71234
-0.64185	0.20219
-0.46334	-0.15492
0.12320	-0.81812
-0.05531	-0.35899
0.45472	0.07465
0.17421	0.27871
0.07220	0.58480
0.22521	0.40625
0.22521	0.04914
0.42922	0.25320
0.32721	0.35523
0.14870	-0.00188
-0.15732	-0.18043
-0.05531	-0.35899
-0.15732	0.25320
0.02119	-0.00188
0.27621	0.17668
0.53123	0.61031
0.32721	0.58480
0.60773	0.48277
0.53123	0.32972
0.14870	-0.02739
-0.33583	-0.15492
0.02119	0.25320
0.19971	-0.20594
0.22521	-0.02739
-0.64185	0.58480
0.02119	0.53379
1.32178	-0.07840
1.39828	0.20219
0.55673	0.35523
-0.66735	0.02363
-0.33583	0.27871
-0.69285	-0.02739
-0.46334	0.12566
0.22521	-0.48652
0.53123	-0.02739
0.45472	0.99292
0.68424	0.50828
0.25071	0.15117
0.37822	-0.15492
-0.53984	-0.10391
0.14870	0.20219
-0.28482	0.15117
-0.13181	0.38074
0.83725	0.22769
0.14870	0.53379
-0.08081	-0.05289
-0.08081	-0.25695
-0.18282	0.15117
0.22521	0.04914
-0.28482	0.25320
1.04126	0.10015
0.45472	0.20219
0.04670	0.48277
0.09770	0.15117
-0.15732	0.04914
-0.59084	-0.07840
0.60773	-0.05289
0.19971	0.48277
-0.59084	0.22769
-0.87136	-0.15492
0.25071	-0.07840
1.21977	0.45726
0.73524	0.38074
-0.23382	0.25320
0.02119	0.48277
0.09770	-0.35899
-0.18282	-0.20594
0.55673	0.30422
0.30171	0.20219
0.48022	0.48277
-0.13181	0.12566
-0.33583	-0.00188
-0.02981	-0.23145
-0.08081	-0.00188
0.48022	0.30422
0.96476	0.32972
0.55673	0.27871
0.25071	0.35523
-0.05531	0.43176
-1.20288	-0.07840
0.12320	0.10015
0.09770	0.12566
0.14870	-0.05289
0.53123	0.02363
-0.05531	0.20219
0.48022	-0.43551
0.09770	-0.15492
0.55673	0.25320
0.14870	0.45726
-0.02981	0.66132
0.07220	0.53379
-1.10088	0.30422
-0.00431	-0.46102
-0.05531	-0.12942
0.02119	0.76336
0.53123	0.15117
0.55673	0.17668
0.37822	0.32972
-0.08081	0.07465
0.73524	-0.05289
0.17421	0.15117
-0.10631	0.38074
0.14870	0.25320
0.17421	-0.07840
0.27621	-0.02739
-0.59084	-0.25695
-0.31033	-0.33348
-0.20832	0.02363
-0.00431	0.22769
0.22521	0.43176
0.12320	0.12566
0.25071	0.45726
0.45472	0.17668
0.27621	0.15117
0.40372	-0.12942
-0.20832	-0.41000
0.65874	0.32972
-0.46334	-0.02739
0.19971	0.15117
0.09770	0.22769
-0.25932	0.22769
-0.08081	0.45726
-0.43783	0.12566
-0.00431	0.53379
0.58223	-0.33348
0.37822	-0.74160
0.37822	-0.35899
0.55673	0.10015
0.68424	0.43176
-0.08081	0.45726
-0.28482	0.40625
-0.51434	0.10015
-0.13181	0.17668
0.27621	0.02363
0.37822	0.48277
1.47479	0.32972
0.27621	0.15117
-0.02981	0.04914
-0.15732	0.04914
-0.36133	-0.23145
-0.00431	-0.12942
-0.20832	-0.23145
0.76074	0.20219
-0.08081	0.35523
0.02119	0.78886
-0.00431	-0.12942
0.30171	-0.05289
0.40372	0.22769
1.06676	0.45726
0.48022	0.22769
-0.31033	-0.00188
-0.08081	0.20219
0.19971	0.17668
0.02119	0.43176
-0.15732	0.53379
0.07220	0.35523
-0.48884	-0.00188
1.29628	0.27871
0.63323	-0.00188
0.19971	0.20219
-0.33583	0.04914
-0.18282	-0.25695
0.22521	-0.10391
-0.05531	0.61031
-0.38683	0.35523
0.55673	0.27871
0.53123	-0.10391
1.04126	-0.05289
0.35272	0.55929
-0.05531	0.22769
-0.20832	-0.02739
0.07220	0.10015
-0.59084	-0.07840
-1.68742	0.15117
0.93925	-0.02739
0.93925	0.50828
1.01576	0.38074
0.83725	0.22769
0.07220	0.30422
-0.23382	-0.28246
-0.53984	-0.33348
-0.41233	0.71234
-0.43783	0.40625
-0.36133	0.17668
-0.25932	-0.15492
0.45472	-0.05289
1.09226	-0.05289
0.50573	0.12566
0.27621	0.22769
-0.23382	0.04914
-0.36133	0.40625
0.14870	-0.25695
0.91375	-0.28246
0.48022	-0.05289
0.42922	0.50828
0.27621	0.35523
0.12320	0.35523
-0.33583	0.12566
-0.23382	0.32972
-0.46334	0.27871
-0.38683	0.10015
-0.28482	-0.02739
0.14870	-0.35899
-0.08081	-0.25695
1.21977	0.35523
-0.02981	0.17668
0.12320	0.45726
0.48022	1.04394
1.14327	0.17668
0.50573	-0.28246
0.30171	-0.10391
-0.71835	-0.05289
-0.23382	0.10015
0.17421	0.38074
-0.31033	0.35523
-0.59084	-0.02739
0.55673	0.10015
0.88825	-0.15492
0.48022	0.35523
0.37822	0.63582
0.53123	-0.30797
0.55673	0.30422
-0.23382	-0.35899
-0.79486	0.02363
-0.82036	0.07465
-0.31033	-0.25695
0.81175	0.17668
0.76074	0.94191
0.30171	0.45726
0.07220	0.40625
-0.33583	0.32972
0.70974	-0.25695
0.12320	-0.33348
0.81175	-0.10391
0.45472	0.10015
0.42922	0.45726
0.02119	-0.51203
-0.05531	0.10015
-0.36133	0.76336
-0.15732	0.38074
0.02119	0.25320
-0.51434	-0.12942
-0.33583	-0.15492
0.32721	-0.07840
0.65874	0.15117
0.83725	0.32972
0.25071	0.35523
-0.28482	0.15117
-0.15732	0.35523
0.40372	-0.28246
1.21977	0.02363
1.01576	0.17668
-0.08081	0.15117
-0.31033	0.48277
-0.25932	0.04914
-1.10088	-0.10391
-0.69285	0.10015
-0.00431	-0.02739
0.58223	0.25320
0.42922	0.20219
0.68424	0.53379
-0.18282	0.45726
0.50573	0.68683
1.04126	-1.02219
0.07220	-0.41000
-0.00431	0.35523
-0.25932	0.45726
-0.20832	0.40625
-0.08081	0.48277
-0.18282	0.12566
0.02119	0.02363
-0.02981	-0.00188
-0.46334	0.35523
0.53123	-0.51203
1.01576	-0.15492
0.83725	0.20219
0.27621	0.27871
0.35272	0.20219
0.58223	0.40625
-0.20832	0.15117
-0.56534	0.17668
-0.53984	0.02363
-0.48884	0.04914
-0.23382	-0.15492
0.32721	0.10015
1.39828	0.35523
0.58223	0.10015
-0.02981	0.22769
-0.02981	0.22769
-0.23382	0.55929
-0.33583	-0.23145
-0.02981	0.07465
0.17421	-0.10391
0.32721	0.17668
0.65874	0.38074
0.65874	0.17668
0.78624	0.48277
0.50573	0.02363
-0.36133	0.20219
-0.43783	0.04914
-0.10631	-0.46102
0.32721	0.04914
0.14870	0.15117
-0.08081	0.43176
-0.31033	0.17668
-0.00431	0.35523
0.25071	0.35523
0.09770	0.32972
0.27621	-0.18043
0.17421	-0.23145
0.63323	0.20219
0.27621	0.27871
0.45472	0.30422
0.25071	0.55929
0.04670	0.45726
-0.38683	-0.61406
-0.43783	-0.35899
-0.31033	-0.28246
0.02119	0.32972
0.04670	0.02363
1.44929	0.53379
0.58223	0.63582
-0.02981	0.48277
-0.76936	0.02363
0.07220	-0.02739
0.78624	0.32972
0.50573	0.12566
0.14870	0.15117
-0.53984	-0.35899
-0.25932	0.15117
-0.00431	0.50828
-0.02981	0.15117
-0.51434	-0.28246
0.35272	0.12566
1.11776	-0.30797
2.11233	0.40625
0.63323	0.45726
-0.18282	0.27871
-0.33583	0.25320
-0.36133	0.50828
-0.51434	-0.15492
-0.59084	-0.07840
-0.28482	0.25320
-0.28482	0.22769
0.45472	-0.41000
1.44929	0.10015
1.04126	0.27871
-0.41233	0.27871
-0.00431	0.66132
-0.28482	-0.02739
-0.31033	-0.28246
-0.15732	0.02363
-0.00431	0.12566
0.12320	-0.02739
0.42922	0.32972
0.65874	0.30422
0.48022	0.22769
0.27621	-0.00188
0.35272	0.25320
0.37822	0.12566
-0.33583	-0.07840
-0.10631	0.20219
-0.53984	0.10015
0.27621	0.02363
0.32721	0.27871
0.50573	0.02363
0.65874	-0.33348
-0.13181	-0.02739
-0.13181	0.25320
-0.28482	0.12566
-0.05531	0.02363
-0.10631	0.30422
0.35272	0.35523
0.19971	0.66132
0.12320	-1.20074
0.04670	-0.48652
-0.13181	0.22769
-0.31033	0.63582
0.14870	0.10015
0.55673	0.53379
0.93925	0.86539
0.37822	0.32972
0.02119	0.30422
0.12320	0.10015
0.86275	-0.51203
0.22521	-0.05289
-0.31033	0.25320
-0.18282	0.12566
0.07220	-0.00188
0.07220	-0.20594
0.12320	0.07465
-0.28482	0.15117
-0.15732	0.27871
-0.18282	0.04914
0.22521	0.32972
0.53123	0.40625
0.60773	0.20219
0.12320	0.22769
0.37822	0.45726
0.07220	0.22769
-0.56534	-0.81812
-0.28482	-0.23145
1.09226	0.61031
-0.69285	0.15117
0.50573	0.07465
0.88825	0.02363
1.34728	0.40625
0.17421	0.32972
-1.10088	-0.30797
-1.27939	-0.05289
-0.61635	0.40625
0.07220	0.35523
0.42922	-0.10391
0.63323	-0.10391
0.45472	-0.10391
0.14870	0.48277
0.65874	-0.23145
0.86275	0.20219
0.86275	0.50828
0.09770	0.40625
-0.92237	-0.15492
-0.61635	-0.12942
-0.10631	0.25320
0.09770	0.30422
0.12320	0.15117
0.30171	0.17668
0.78624	0.43176
0.53123	-0.00188
0.12320	-0.33348
-0.10631	0.43176
-0.02981	0.50828
0.73524	-0.46102
0.58223	0.45726
-0.05531	0.40625
-0.15732	0.27871
0.32721	0.17668
0.63323	0.35523
0.07220	-0.15492
-0.74385	-0.28246
-0.71835	-0.35899
-0.13181	0.45726
-1.17738	0.38074
1.14327	0.32972
0.93925	0.32972
0.83725	-0.20594
0.45472	-0.02739
0.58223	0.02363
0.58223	0.40625
-0.31033	0.25320
-0.74385	0.27871
-0.48884	0.38074
-0.23382	-0.15492
0.22521	-0.00188
0.70974	-0.07840
0.96476	0.27871
-0.28482	0.15117
-0.25932	0.27871
0.09770	0.17668
0.48022	0.25320
0.27621	0.22769
0.07220	-0.20594
-0.10631	0.04914
0.02119	-0.07840
0.22521	0.15117
0.32721	0.35523
0.42922	0.83988
-0.00431	-0.43551
0.19971	-0.12942
-0.10631	0.12566
0.02119	0.45726
0.35272	0.25320
0.70974	0.32972
0.02119	0.02363
0.14870	0.15117
-0.05531	0.20219
-0.15732	-0.18043
-0.15732	0.30422
-0.10631	0.43176
-0.00431	0.35523
0.27621	-0.35899
0.99026	-0.10391
0.55673	-0.02739
-0.53984	-0.23145
-0.28482	0.45726
-0.23382	0.25320
1.34728	0.55929
0.12320	0.45726
-0.28482	0.32972
-0.38683	-0.05289
1.27078	-0.46102
0.55673	0.10015
-0.25932	0.25320
-0.28482	0.55929
-0.33583	0.07465
-0.28482	-0.10391
-0.10631	0.25320
0.12320	0.10015
0.02119	0.07465
0.68424	0.48277
0.55673	0.17668
0.73524	0.04914
0.50573	0.25320
-0.10631	-0.05289
-0.18282	-0.25695
0.12320	0.10015
0.53123	0.22769
-0.46334	0.20219
-0.97337	-0.00188
0.40372	0.15117
0.91375	0.63582
0.83725	0.22769
-0.28482	-0.00188
-0.28482	0.15117
-0.10631	0.15117
-0.51434	-0.10391
-0.25932	0.20219
0.48022	0.30422
1.04126	0.40625
0.88825	0.48277
-0.02981	0.02363
-0.33583	-0.20594
-0.10631	0.02363
0.81175	0.10015
0.58223	0.35523
0.04670	0.10015
-0.00431	0.27871
0.09770	-0.05289
-0.00431	0.20219
-0.05531	0.10015
-0.13181	0.22769
-0.38683	-0.00188
0.27621	0.55929
0.55673	-0.07840
0.40372	-0.05289
-0.00431	0.25320
-0.10631	0.15117
-0.36133	-0.20594
0.30171	0.30422
0.50573	0.35523
1.24527	0.76336
0.55673	0.71234
-0.28482	-0.35899
-1.02437	-0.02739
-0.76936	-0.66508
0.60773	-0.00188
0.81175	0.07465
0.63323	0.73785
0.04670	0.66132
-0.18282	0.30422
-0.10631	0.10015
-0.10631	0.02363
0.09770	0.15117
-0.00431	0.10015
0.14870	0.15117
0.48022	-0.02739
0.53123	-0.05289
0.83725	0.53379
0.32721	0.10015
0.19971	0.25320
-0.23382	0.38074
-0.20832	0.10015
-0.28482	-0.28246
0.27621	0.15117
0.60773	-0.07840
0.37822	0.38074
-0.20832	0.38074
0.07220	0.32972
0.37822	0.25320
0.02119	0.17668
-0.33583	0.20219
-0.15732	-0.56305
0.37822	-0.35899
0.65874	0.43176
0.14870	0.35523
-0.56534	0.35523
-0.51434	0.04914
0.42922	0.02363
0.60773	-0.20594
0.83725	0.15117
1.14327	0.27871
0.58223	-0.02739
-0.71835	0.17668
0.27621	-0.00188
-0.76936	-0.35899
-0.99887	0.17668
-2.06994	0.12566
1.65330	0.07465
1.80631	0.27871
0.70974	0.66132
0.48022	0.40625
0.07220	0.35523
-0.13181	-0.20594
0.02119	-0.33348
-0.18282	-0.28246
0.02119	0.30422
-0.31033	0.25320
-0.41233	0.04914
-0.05531	0.20219
-0.33583	0.35523
-0.25932	0.45726
0.48022	-0.07840
2.31634	0.25320
2.23984	0.43176
1.75531	0.48277
-0.74385	-0.07840
-6.30321	-0.18043
2.36734	-0.15492
3.05589	0.15117
-0.28482	0.02363
-0.79486	0.68683
-0.97337	-0.20594
0.12320	0.04914
-1.02437	0.12566
-0.56534	0.15117
0.32721	0.25320
0.19971	0.15117
0.93925	-0.02739
1.19427	0.12566
1.75531	0.53379
0.88825	0.86539
-0.23382	-0.07840
-0.15732	-0.02739
-0.10631	0.15117
-0.46334	0.04914
-0.69285	-0.05289
0.02119	-0.05289
1.14327	0.45726
0.68424	0.10015
1.06676	0.04914
0.12320	0.10015
-0.59084	-0.00188
-1.07538	0.76336
0.96476	-0.18043
0.12320	-0.53754
-1.48340	0.17668
0.60773	-0.07840
0.93925	0.53379
0.25071	0.58480
-0.48884	0.76336
2.18883	0.17668
2.97938	-0.10391
0.76074	0.07465
-0.97337	-0.12942
-4.05907	0.12566
1.70430	0.10015
-0.76936	0.22769
-1.35589	-0.66508
-0.61635	0.12566
0.63323	0.55929
1.29628	0.12566
1.21977	-0.00188
0.12320	0.20219
0.40372	0.20219
0.22521	0.02363
0.12320	-0.02739
0.70974	0.17668
1.39828	0.32972
-0.31033	0.04914
-0.23382	0.25320
-0.28482	0.50828
-0.99887	0.30422
-0.13181	-0.07840
-0.10631	0.04914
-0.92237	0.10015
-0.51434	-0.18043
0.60773	-0.12942
1.44929	-0.33348
1.55129	0.35523
0.73524	0.43176
-0.33583	0.20219
-0.23382	0.17668
0.02119	0.55929
0.04670	0.15117
-0.36133	0.10015
-0.79486	-0.28246
0.22521	-0.05289
0.70974	0.25320
0.50573	0.50828
-0.02981	0.35523
0.91375	0.17668
0.55673	-0.23145
0.53123	0.15117
0.14870	0.07465
-0.48884	0.17668
-0.13181	0.17668
-0.23382	0.30422
-0.28482	0.25320
0.04670	0.12566
-0.00431	0.15117
0.02119	0.10015
4.07596	-0.18043
-0.28482	-0.20594
-1.04987	0.17668
-0.82036	0.20219
0.27621	0.32972
-0.05531	-0.05289
-1.12638	-0.15492
-0.15732	0.27871
0.22521	0.76336
0.50573	-0.18043
0.22521	0.10015
0.35272	0.04914
0.60773	-0.10391
1.04126	0.04914
0.81175	0.35523
0.30171	0.61031
0.27621	0.12566
-0.69285	-0.07840
-1.15188	0.22769
-0.15732	0.25320
0.30171	0.55929
0.02119	-0.41000
0.70974	0.25320
0.63323	0.22769
0.58223	-0.33348
0.88825	0.25320
0.35272	0.10015
-1.07538	0.30422
-0.46334	0.45726
0.48022	0.43176
0.19971	-0.02739
-0.18282	0.10015
0.96476	0.25320
0.68424	0.15117
0.02119	0.27871
-0.94787	0.07465
-0.31033	-0.00188
-0.25932	-0.30797
0.30171	0.50828
0.37822	-0.71609
1.42379	0.25320
0.32721	0.25320
-0.43783	0.22769
-0.33583	0.40625
-0.00431	0.17668
0.37822	0.40625
0.04670	0.17668
0.07220	-0.02739
0.14870	0.20219
-0.05531	0.15117
0.22521	0.07465
0.37822	0.20219
0.09770	0.30422
0.07220	-0.05289
0.60773	0.20219
0.53123	0.30422
0.42922	0.55929
0.60773	-0.38449
0.68424	-0.23145
-0.36133	-0.02739
-0.69285	0.38074
-0.69285	0.20219
-0.18282	0.30422
-0.46334	0.07465
0.45472	0.38074
0.76074	0.15117
0.58223	-0.00188
0.68424	0.15117
0.04670	-0.07840
-0.43783	0.12566
-0.10631	0.58480
0.27621	0.02363
0.93925	-0.10391
-0.36133	0.04914
0.09770	0.20219
-0.13181	0.45726
-0.53984	-0.33348
0.12320	-0.00188
0.96476	0.53379
1.01576	0.43176
0.99026	0.12566
-0.23382	0.15117
-1.20288	-0.15492
-0.79486	0.17668
0.70974	-0.05289
-0.13181	-0.18043
-0.15732	0.17668
0.02119	0.25320
0.60773	0.40625
0.91375	0.50828
1.04126	0.15117
-0.00431	0.04914
-0.10631	0.40625
-0.15732	-0.28246
-0.46334	-0.46102
-0.05531	-0.18043
0.55673	0.38074
0.55673	0.53379
-0.10631	0.40625
-0.15732	0.27871
-0.31033	0.20219
-0.08081	0.04914
0.30171	0.07465
0.35272	0.10015
0.40372	0.17668
0.12320	-0.07840
0.14870	0.15117
0.09770	-0.00188
-0.18282	0.53379
2.57136	-0.00188
0.12320	0.07465
-0.25932	-0.23145
-0.15732	0.22769
0.60773	0.45726
0.14870	0.43176
-0.89686	-0.02739
-1.27939	-0.43551
-0.38683	0.07465
-0.18282	0.38074
0.27621	0.40625
0.60773	0.17668
0.88825	0.48277
0.91375	-0.07840
0.65874	-0.12942
0.76074	0.32972
-1.04987	0.12566
0.19971	0.07465
-0.33583	-0.23145
0.70974	0.55929
0.48022	0.40625
-0.08081	-0.23145
-0.99887	0.07465
-0.23382	-0.00188
-1.10088	0.22769
1.88281	0.32972
1.32178	0.61031
0.83725	0.27871
-0.84586	-0.07840
-0.36133	-0.00188
0.04670	-0.05289
0.12320	0.25320
0.02119	0.61031
-0.08081	-0.05289
-1.15188	-0.15492
1.83181	-0.05289
0.93925	0.20219
0.19971	0.04914
-0.71835	0.32972
-0.66735	0.30422
-0.76936	-0.05289
0.81175	0.02363
-1.84042	-0.15492
-3.72755	-0.07840
3.10689	-0.02739
4.27997	0.20219
2.06133	0.45726
2.13783	0.22769
1.75531	0.45726
-1.58541	0.68683
-0.82036	0.04914
-3.82955	-0.28246
-4.18658	-0.12942
-0.31033	0.17668
2.64786	0.10015
3.79544	0.35523
2.57136	0.17668
0.68424	0.61031
-0.02981	-0.10391
-1.35589	-0.18043
-1.02437	-0.20594
-0.82036	0.20219
0.81175	0.22769
1.11776	0.48277
-0.41233	-0.00188
-2.22295	-0.25695
0.70974	0.15117
0.63323	0.17668
0.07220	0.30422
3.03039	0.43176
1.80631	-0.05289
0.83725	0.02363
-0.99887	-0.20594
-2.50347	-0.05289
1.14327	-0.10391
-1.04987	0.43176
-2.04444	0.66132
0.70974	-0.05289
2.06133	-0.33348
1.14327	0.15117
0.40372	0.02363
0.68424	0.22769
-3.52353	0.43176
-0.18282	0.07465
1.47479	-0.07840
0.14870	-0.05289
1.04126	-0.15492
0.88825	0.22769
-0.25932	0.17668
0.30171	0.48277
0.12320	0.30422
0.19971	0.25320
-0.36133	-0.10391
0.04670	-0.18043
-0.64185	0.17668
-0.20832	-0.12942
0.22521	0.10015
0.27621	0.17668
0.55673	0.30422
2.80087	0.66132
0.93925	0.22769
-0.89686	-0.05289
-1.40690	0.27871
-0.87136	0.17668
-0.25932	-0.25695
-0.51434	0.15117
0.88825	0.20219
2.39285	0.30422
1.09226	0.32972
0.14870	0.40625
-0.08081	-0.23145
-0.05531	-0.05289
-0.56534	0.20219
-1.27939	0.02363
-0.18282	0.25320
1.04126	-0.07840
1.88281	0.55929
0.58223	0.12566
0.55673	0.53379
1.21977	-0.00188
-4.03357	-0.18043
-2.17195	0.12566
0.65874	0.22769
2.06133	-0.53754
1.34728	0.12566
-1.15188	0.66132
-0.00431	0.61031
1.34728	0.40625
1.24527	-0.43551
1.06676	-0.07840
-0.02981	0.38074
0.12320	0.35523
0.04670	0.50828
-0.05531	-0.07840
-0.46334	-0.15492
-1.33039	-0.56305
-0.89686	0.43176
0.07220	0.27871
1.19427	0.45726
0.02119	-0.05289
-1.10088	0.20219
-1.20288	-0.05289
2.52035	0.35523
1.78081	0.07465
0.73524	0.02363
-0.31033	0.25320
0.09770	0.25320
0.09770	0.12566
-1.38139	0.30422
1.88281	0.61031
0.91375	0.17668
-0.46334	0.25320
-0.69285	-0.12942
-0.18282	-0.05289
-0.23382	0.02363
-0.10631	0.35523
-0.53984	0.45726
1.16877	0.35523
1.37278	0.35523
0.40372	0.15117
-0.53984	0.15117
-1.04987	0.45726
-0.23382	-0.53754
0.76074	-0.02739
0.58223	0.73785
-0.25932	0.35523
0.14870	-0.48652
0.12320	0.22769
-0.25932	0.22769
0.53123	0.30422
0.58223	0.07465
0.22521	0.15117
1.24527	-0.23145
-0.02981	0.43176
-1.84042	0.02363
-0.87136	0.04914
0.53123	-0.10391
1.01576	0.32972
0.96476	0.17668
0.63323	0.17668
-0.20832	0.10015
-0.20832	0.27871
0.12320	0.20219
0.32721	0.25320
1.85731	0.35523
-1.22839	0.45726
-1.45790	-0.35899
-0.48884	-0.43551
0.27621	0.25320
0.42922	0.12566
0.86275	0.32972
0.58223	0.25320
0.88825	0.38074
0.65874	0.15117
-0.13181	-0.00188
-1.22839	0.12566
-0.59084	-0.05289
0.53123	0.02363
0.63323	0.15117
0.32721	0.40625
0.02119	0.32972
0.09770	0.12566
0.09770	0.27871
0.07220	-0.12942
-0.10631	-0.00188
0.19971	0.30422
-0.36133	-0.20594
-0.33583	-0.38449
-0.05531	0.25320
0.37822	0.22769
0.30171	0.17668
0.63323	0.25320
0.32721	0.22769
0.35272	0.30422
0.27621	0.12566
0.35272	0.02363
-0.36133	0.07465
-0.00431	0.10015
0.19971	0.20219
0.12320	0.45726
0.22521	-0.00188
-0.02981	0.12566
0.25071	0.61031
-0.59084	0.04914
0.32721	-0.46102
0.70974	-0.07840
0.76074	0.30422
-0.10631	0.45726
-0.38683	0.40625
0.40372	0.43176
0.50573	0.30422
0.45472	0.45726
1.06676	0.15117
-0.28482	-0.05289
-0.56534	-0.41000
-0.33583	0.17668
-0.23382	0.10015
0.07220	0.45726
0.40372	0.25320
0.63323	0.07465
0.86275	0.45726
0.42922	0.45726
0.76074	0.35523
0.73524	0.45726
0.14870	-0.38449
-0.74385	-0.05289
-0.92237	0.10015
-0.36133	0.10015
-0.92237	0.07465
-0.02981	0.35523
1.24527	0.07465
1.47479	0.07465
0.86275	0.22769
0.42922	0.04914
-0.08081	0.12566
-0.69285	0.38074
-0.66735	-0.02739
-0.08081	0.30422
-0.05531	0.43176
0.42922	0.17668
0.58223	0.20219
0.76074	0.48277
-0.10631	-0.02739
-0.48884	0.02363
-0.28482	-0.05289
1.34728	0.20219
-0.51434	-0.02739
-0.51434	0.45726
0.63323	0.17668
0.37822	-0.10391
0.30171	-0.02739
0.53123	0.55929
0.17421	0.25320
0.68424	0.12566
0.50573	0.04914
0.14870	-0.02739
-0.48884	0.35523
-0.51434	0.07465
-0.20832	0.43176
-0.08081	-0.07840
0.25071	-0.20594
-0.02981	0.17668
0.60773	-0.02739
1.24527	-0.20594
0.50573	0.45726
0.14870	0.22769
0.19971	0.45726
-0.46334	0.40625
-1.07538	0.20219
0.25071	0.15117
0.53123	0.43176
-0.31033	0.45726
0.37822	0.17668
0.42922	-0.43551
0.55673	-0.07840
-1.27939	0.20219
0.70974	-0.12942
1.24527	0.32972
0.91375	0.40625
-0.41233	0.20219
-0.08081	0.17668
-0.38683	0.15117
-0.36133	-0.10391
0.30171	0.04914
0.83725	-0.02739
1.21977	0.02363
-0.15732	0.32972
-0.53984	0.45726
-0.61635	0.27871
-0.51434	0.30422
-0.28482	0.07465
0.27621	-0.05289
0.40372	0.38074
0.91375	0.10015
1.14327	-0.02739
0.42922	0.20219
0.02119	0.38074
-0.18282	0.30422
0.09770	0.48277
0.25071	0.27871
0.17421	0.07465
0.22521	0.04914
-0.00431	0.07465
0.12320	0.10015
-0.18282	0.10015
1.39828	0.22769
0.50573	0.17668
-1.02437	0.20219
-0.51434	0.38074
0.07220	0.17668
0.81175	-0.02739
0.27621	0.12566
-0.02981	0.02363
0.17421	0.10015
-0.13181	-0.23145
-0.02981	-0.07840
-0.02981	-0.30797
0.76074	0.27871
-0.33583	0.53379
-0.82036	0.43176
1.04126	0.43176
0.48022	0.10015
-0.02981	0.63582
0.40372	-0.28246
0.25071	-0.33348
-0.05531	-0.28246
0.32721	-0.30797
0.50573	-0.10391
-0.02981	0.43176
-0.53984	0.04914
-0.99887	0.20219
0.25071	0.71234
0.19971	0.27871
1.14327	-0.12942
0.68424	-0.12942
0.55673	-0.02739
0.48022	0.02363
-0.43783	0.20219
-0.79486	0.04914
-0.59084	0.15117
-0.18282	0.12566
0.68424	-0.07840
1.06676	0.04914
0.40372	0.40625
-0.74385	0.25320
-0.94787	-0.07840
0.40372	0.20219
0.78624	0.35523
0.02119	-0.18043
0.35272	-0.15492
0.83725	0.50828
0.91375	-0.05289
-0.71835	0.48277
-0.56534	0.27871
-0.05531	0.55929
0.53123	-0.18043
-0.53984	-0.00188
0.07220	0.10015
0.60773	0.48277
0.63323	0.20219
-0.64185	-0.33348
-0.15732	-0.12942
2.08683	0.10015
0.12320	0.15117
-0.38683	-0.18043
-0.48884	-0.18043
-0.48884	0.15117
-1.04987	0.27871
0.35272	0.83988
0.58223	-0.48652
0.88825	-0.46102
0.55673	0.73785
0.22521	0.53379
-0.53984	-0.28246
-1.07538	-0.86914
0.30171	0.17668
1.04126	0.78886
1.14327	0.50828
0.76074	0.27871
0.42922	0.27871
-0.18282	0.22769
-0.46334	0.73785
-0.92237	-0.25695
-0.41233	-0.43551
-0.23382	-0.20594
0.60773	0.58480
0.37822	0.22769
-0.00431	-0.12942
0.22521	-0.15492
0.27621	0.25320
0.50573	0.07465
0.37822	0.43176
0.53123	0.12566
0.22521	-0.00188
0.35272	0.20219
-1.02437	0.25320
-1.12638	0.27871
-0.25932	-0.05289
1.47479	0.48277
0.63323	0.35523
0.96476	0.27871
1.21977	0.07465
0.55673	0.32972
-0.00431	-0.02739
-0.59084	-0.05289
-1.35589	0.20219
-0.71835	0.58480
0.42922	-0.02739
0.88825	0.04914
0.48022	0.22769
0.35272	0.15117
-0.20832	0.32972
-1.04987	0.30422
-0.33583	0.12566
0.40372	-0.18043
1.01576	-0.69059
1.14327	0.17668
1.16877	0.63582
0.55673	0.63582
-0.33583	-0.05289
-0.69285	-0.18043
-0.97337	0.15117
-0.79486	0.32972
-0.13181	0.22769
0.53123	0.22769
0.93925	0.27871
0.73524	-0.20594
0.40372	0.17668
0.07220	0.40625
0.04670	0.27871
0.37822	-0.00188
-0.61635	-0.07840
0.07220	0.04914
0.30171	0.04914
-0.13181	0.22769
0.07220	0.20219
0.12320	0.10015
1.19427	0.20219
0.22521	0.22769
-0.46334	-0.02739
-0.10631	0.25320
0.17421	0.25320
-0.00431	0.10015
-0.84586	0.17668
0.22521	0.22769
0.58223	0.12566
0.50573	0.12566
0.42922	0.30422
1.75531	0.17668
-0.36133	0.48277
-1.78942	0.12566
0.22521	-0.00188
0.70974	-0.33348
0.68424	0.27871
0.93925	-0.05289
0.96476	0.25320
-0.18282	0.07465
-0.18282	0.27871
-0.48884	0.78886
-0.56534	0.30422
-0.18282	-0.07840
0.55673	-0.05289
0.50573	0.35523
0.70974	0.20219
-0.53984	0.07465
-0.66735	0.20219
0.09770	-0.12942
0.48022	-0.28246
0.53123	-0.10391
0.63323	0.40625
0.22521	0.50828
0.12320	0.45726
0.17421	0.32972
0.02119	-0.02739
0.12320	-0.66508
0.07220	-0.10391
-0.51434	0.12566
0.04670	0.27871
0.17421	0.48277
0.25071	0.43176
0.02119	0.27871
-0.05531	0.04914
0.30171	-0.28246
0.48022	0.61031
0.91375	-0.20594
0.45472	-0.05289
-0.89686	-0.05289
0.27621	0.40625
0.53123	0.66132
-0.00431	0.76336
-0.43783	-0.00188
-0.66735	-0.51203
0.27621	0.17668
1.14327	0.40625
1.06676	0.10015
0.25071	-0.38449
-0.46334	-0.15492
-0.46334	0.10015
-0.48884	0.35523
-0.18282	0.43176
0.27621	0.25320
0.48022	0.32972
0.22521	0.04914
0.35272	-0.05289
0.58223	0.40625
0.17421	-0.15492
-0.23382	-0.25695
0.02119	0.02363
0.12320	0.48277
0.63323	0.30422
0.02119	0.50828
0.07220	0.25320
-0.56534	-0.12942
0.53123	-0.20594
0.83725	0.02363
0.37822	-0.10391
0.58223	0.45726
-0.05531	-0.07840
-0.05531	0.50828
-0.13181	0.25320
0.02119	0.15117
0.04670	0.12566
0.02119	0.17668
0.30171	0.17668
0.25071	-0.12942
-0.02981	-0.05289
0.12320	0.48277
-0.10631	0.15117
-0.08081	-0.35899
0.02119	0.04914
0.40372	0.86539
0.50573	0.40625
0.48022	-0.00188
0.07220	-0.00188
0.27621	-0.18043
0.17421	-0.23145
0.19971	0.43176
-0.69285	0.12566
-0.18282	-0.20594
1.04126	0.38074
1.52579	0.12566
0.07220	0.15117
-0.69285	0.27871
-0.79486	0.15117
-0.82036	-0.12942
-0.46334	-0.00188
0.68424	-0.20594
0.68424	0.48277
0.17421	0.38074
0.35272	0.71234
0.25071	-0.35899
0.70974	-0.38449
0.30171	-0.58856
0.02119	0.55929
-0.13181	1.45206
-0.20832	-0.35899
0.58223	-0.15492
0.65874	0.02363
0.40372	1.09496
-0.36133	0.73785
0.07220	-1.30277
0.04670	-0.25695
-0.61635	0.58480
-0.31033	-0.02739
0.22521	-0.12942
0.19971	0.04914
0.53123	0.78886
0.53123	0.02363
0.60773	0.27871
0.27621	0.27871
-0.33583	0.04914
-0.31033	-0.05289
-0.02981	-0.00188
0.93925	0.15117
0.58223	-0.00188
0.48022	0.61031
0.12320	0.10015
-0.25932	-0.12942
-0.48884	-0.28246
0.09770	0.30422
-0.00431	-0.30797
0.40372	-0.35899
-0.02981	0.66132
0.50573	0.78886
0.55673	0.30422
0.19971	0.27871
-0.25932	0.38074
-0.00431	0.76336
-0.20832	0.35523
0.02119	0.07465
0.22521	0.02363
0.32721	0.17668
0.37822	-0.15492
0.68424	-0.18043
0.63323	-0.69059
0.12320	0.02363
0.27621	0.15117
0.07220	0.58480
-0.33583	0.27871
-0.48884	-0.02739
0.30171	0.32972
0.40372	0.63582
0.32721	0.17668
0.14870	0.04914
-0.18282	-0.15492
0.30171	0.20219
0.14870	0.27871
0.17421	0.12566
0.32721	0.71234
-0.20832	-0.46102
-0.20832	-0.41000
-0.08081	0.50828
0.12320	-0.41000
0.32721	-0.56305
0.60773	0.15117
0.27621	0.81437
-0.92237	0.02363
-0.10631	0.22769
0.55673	0.45726
0.91375	-0.15492
0.96476	0.12566
0.68424	0.38074
-0.08081	0.27871
-0.69285	0.43176
-0.89686	0.45726
0.19971	-0.33348
0.02119	-0.20594
0.55673	-0.10391
0.35272	0.25320
0.09770	0.10015
0.02119	0.17668
-0.08081	0.22769
-0.10631	-0.00188
0.25071	0.12566
0.45472	0.30422
0.63323	0.20219
-0.05531	-0.00188
-0.23382	-0.10391
-0.25932	0.12566
0.27621	0.66132
-0.00431	0.35523
0.68424	0.20219
0.83725	0.04914
0.30171	-0.15492
-0.05531	-0.02739
-0.28482	0.15117
-0.18282	0.27871
0.07220	0.20219
-0.02981	-0.15492
1.04126	0.27871
0.48022	0.61031
-0.28482	0.30422
-0.41233	-0.74160
-0.48884	0.45726
-0.79486	0.89089
0.45472	-0.05289
0.50573	-0.74160
0.63323	0.15117
0.04670	0.35523
0.14870	0.58480
0.17421	0.96742
0.42922	-0.02739
0.55673	-0.66508
0.50573	-0.18043
-0.97337	0.38074
0.27621	0.35523
-0.18282	0.25320
-0.41233	-0.07840
0.48022	0.30422
0.83725	-0.00188
0.88825	0.43176
0.48022	0.12566
-0.05531	-0.35899
-0.18282	-0.18043
-0.79486	0.40625
-0.18282	0.12566
0.25071	0.20219
0.04670	1.29902
0.04670	-0.18043
0.99026	-1.04770
0.73524	-0.18043
0.09770	0.81437
-0.56534	0.30422
0.09770	0.76336
1.27078	-0.10391
-0.28482	0.32972
-0.71835	0.83988
0.32721	-0.25695
0.65874	-0.61406
-1.07538	-0.25695
1.98482	-0.23145
0.45472	0.38074
-0.59084	0.48277
-0.76936	0.66132
-0.15732	0.40625
-0.61635	-0.23145
-0.51434	-0.02739
0.32721	0.58480
1.09226	0.22769
1.01576	-0.69059
0.78624	-0.30797
-0.18282	0.53379
-0.46334	0.22769
-0.10631	-0.25695
-0.28482	-0.20594
-0.02981	0.78886
0.83725	0.25320
0.58223	1.22250
-0.38683	-0.30797
-0.00431	-1.07320
1.11776	-0.18043
1.04126	0.66132
0.22521	0.10015
0.27621	0.04914
-0.71835	-0.07840
-1.61091	0.25320
-0.66735	0.15117
0.14870	0.55929
0.55673	0.15117
0.81175	0.40625
0.81175	0.35523
0.27621	-0.97117
0.27621	-0.02739
0.14870	0.58480
0.22521	0.10015
-0.02981	0.15117
0.65874	0.25320
0.30171	0.22769
-0.02981	0.04914
0.22521	0.20219
-0.56534	0.30422
-0.61635	0.35523
0.02119	0.04914
0.35272	-0.12942
0.17421	-0.02739
0.58223	1.24800
-0.02981	-0.76711
0.78624	-0.05289
0.60773	0.17668
0.40372	-0.33348
0.37822	0.27871
-0.41233	0.76336
-0.51434	0.38074
0.04670	0.66132
0.09770	0.02363
-0.13181	-0.05289
-0.28482	-0.00188
-0.23382	-0.48652
0.17421	-0.02739
1.19427	0.73785
0.12320	1.09496
-0.18282	-0.18043
0.30171	-0.12942
0.50573	-0.23145
0.12320	-0.15492
-0.10631	0.38074
0.09770	-0.07840
-0.08081	0.40625
0.02119	0.04914
0.55673	0.20219
0.42922	0.07465
-0.08081	0.27871
-0.51434	0.45726
-0.46334	0.02363
-0.28482	-0.33348
0.12320	0.71234
0.93925	-0.18043
1.14327	0.25320
0.19971	0.35523
0.02119	0.20219
-0.13181	0.17668
-0.33583	-0.51203
0.22521	-0.02739
-0.02981	0.61031
-0.31033	0.38074
-0.00431	0.43176
0.68424	-0.15492
0.81175	-0.07840
0.30171	0.43176
-0.08081	0.43176
0.53123	0.07465
0.86275	0.25320
-0.71835	-0.10391
-1.17738	0.02363
-1.02437	0.10015
0.63323	-0.02739
0.35272	-0.28246
-0.15732	0.17668
0.68424	0.43176
0.76074	0.53379
0.22521	0.89089
0.09770	-0.51203
0.22521	-0.97117
0.40372	-0.07840
0.32721	0.48277
-0.46334	1.50308
-0.53984	0.50828
-0.08081	-0.94566
0.60773	-0.43551
1.37278	0.71234
0.99026	0.61031
-0.05531	0.43176
-0.66735	0.02363
-0.94787	-0.00188
0.07220	0.02363
0.09770	0.04914
0.25071	-0.12942
0.45472	0.25320
0.50573	1.35003
0.58223	-0.35899
0.37822	-0.92016
0.14870	0.35523
-0.25932	0.12566
-0.84586	0.53379
-0.61635	-0.23145
0.09770	0.07465
1.21977	0.15117
0.73524	0.96742
-0.05531	0.22769
-0.38683	-0.05289
0.12320	0.15117
0.81175	0.27871
0.58223	0.35523
-0.13181	0.12566
-0.13181	-0.05289
0.22521	-0.41000
-0.00431	-0.48652
-0.15732	0.07465
-0.53984	0.17668
-0.28482	0.17668
0.14870	1.27351
0.58223	-0.18043
1.09226	-0.41000
0.65874	0.27871
-0.28482	0.32972
-0.10631	0.50828
0.22521	0.76336
-0.02981	0.63582
-0.33583	-0.23145
0.07220	-0.58856
0.78624	-0.20594
0.76074	0.38074
0.30171	-0.20594
-0.02981	0.55929
-0.38683	-0.35899
-0.33583	-0.43551
-0.23382	0.32972
-0.25932	0.10015
0.07220	0.20219
0.68424	0.45726
1.21977	0.66132
0.58223	0.30422
-0.38683	0.38074
-0.08081	-0.20594
0.19971	-0.53754
0.40372	-0.33348
-0.10631	0.55929
0.02119	0.48277
-0.20832	-0.15492
-0.08081	-0.10391
0.25071	0.53379
-0.28482	-0.15492
-0.18282	0.17668
0.27621	0.78886
0.73524	0.07465
0.83725	0.50828
0.53123	-0.71609
0.55673	0.50828
0.12320	0.12566
-0.61635	-0.38449
-0.56534	-0.51203
-0.43783	0.58480
0.58223	0.58480
0.63323	0.83988
0.27621	0.55929
-0.15732	-0.20594
-0.10631	-0.48652
0.22521	0.35523
0.17421	0.38074
0.12320	0.22769
0.17421	-0.07840
0.12320	-0.05289
0.32721	-0.74160
-0.15732	0.17668
-0.05531	0.53379
-0.02981	-0.07840
-0.00431	0.12566
-0.00431	0.38074
0.32721	1.09496
0.30171	-0.30797
0.86275	-1.48133
1.14327	-0.33348
1.04126	0.86539
-0.08081	0.15117
-0.61635	0.22769
-0.28482	0.40625
-0.31033	0.50828
-0.28482	0.43176
-0.46334	0.32972
-0.15732	0.20219
-0.25932	0.27871
0.42922	-0.56305
0.60773	-0.10391
1.24527	-0.00188
-0.33583	0.10015
0.93925	-0.07840
0.30171	-0.23145
-0.15732	0.35523
-0.48884	0.35523
-0.31033	0.07465
0.27621	0.50828
0.32721	-0.00188
0.55673	0.45726
0.12320	0.25320
-0.38683	0.04914
-0.43783	-0.18043
0.07220	0.10015
0.91375	0.53379
0.63323	-0.05289
-0.08081	-0.79262
-0.08081	0.02363
0.27621	0.68683
-0.28482	0.40625
0.35272	0.22769
0.53123	0.63582
-0.08081	-0.28246
0.27621	0.02363
-0.15732	-0.43551
-0.41233	0.68683
-0.10631	0.58480
0.12320	0.12566
0.70974	0.43176
0.93925	-1.07320
0.48022	0.20219
0.09770	0.40625
-0.23382	0.63582
-0.59084	-0.15492
-0.08081	0.12566
0.12320	0.40625
0.58223	0.15117
0.50573	0.10015
0.58223	0.25320
-0.05531	-0.05289
0.22521	0.12566
0.25071	0.73785
-0.28482	0.20219
0.09770	-0.38449
0.12320	-0.63957
-0.05531	-0.15492
0.25071	0.32972
0.37822	0.53379
0.48022	0.68683
-0.10631	0.61031
-0.51434	-0.51203
-0.10631	-0.18043
-0.53984	0.25320
0.02119	0.50828
0.78624	0.17668
1.55129	-0.15492
0.76074	0.30422
0.32721	0.25320
-0.02981	0.07465
-0.25932	0.04914
-0.48884	0.20219
-0.53984	0.15117
-0.20832	0.58480
0.45472	-0.66508
0.25071	-1.07320
0.25071	-0.25695
0.09770	0.99292
0.19971	0.86539
0.88825	1.57960
0.81175	-1.02219
0.12320	-0.00188
0.02119	0.25320
0.07220	0.30422
0.27621	0.12566
-0.13181	0.94191
-0.64185	0.04914
0.42922	-0.53754
0.02119	-0.23145
-0.20832	0.40625
-0.15732	0.12566
0.14870	0.35523
0.53123	0.10015
0.09770	0.35523
-0.05531	0.04914
0.22521	-0.25695
0.42922	0.35523
0.40372	0.43176
0.22521	0.43176
0.58223	-0.35899
0.32721	-0.33348
0.02119	0.15117
0.19971	0.32972
0.37822	0.63582
0.32721	0.10015
0.02119	-0.61406
-0.23382	-0.79262
-0.61635	0.12566
-0.18282	0.15117
0.22521	0.71234
-0.02981	0.86539
0.27621	-0.53754
0.07220	0.53379
0.09770	0.63582
0.22521	0.35523
0.58223	0.27871
1.06676	0.76336
0.45472	-0.10391
-0.08081	-0.63957
-0.41233	-0.63957
0.07220	0.76336
0.30171	-0.12942
0.02119	-0.97117
-0.15732	0.32972
-0.00431	0.63582
-0.02981	0.15117
-0.02981	0.07465
0.09770	0.22769
0.19971	0.86539
0.40372	0.48277
0.70974	0.35523
1.16877	0.61031
-0.25932	-0.05289
-0.59084	0.45726
-0.02981	-1.17523
0.60773	-0.25695
0.12320	0.40625
0.07220	0.71234
0.55673	-0.10391
0.63323	-0.58856
0.35272	0.07465
-0.18282	0.61031
-0.46334	0.27871
-0.74385	0.76336
-0.48884	0.61031
-0.02981	0.22769
0.40372	0.27871
0.58223	-0.00188
0.07220	0.10015
0.65874	-0.00188
0.45472	-0.00188
0.27621	-0.51203
0.91375	-0.10391
0.14870	-0.33348
0.32721	0.35523
-0.18282	0.35523
-0.59084	0.17668
-0.64185	0.50828
0.25071	0.40625
0.35272	0.38074
-0.05531	-0.30797
0.02119	-0.18043
-0.15732	-0.12942
-0.71835	0.04914
0.19971	0.35523
1.21977	0.27871
1.93382	0.66132
0.70974	0.83988
-0.10631	-0.18043
-0.59084	0.25320
-0.08081	-0.15492
-0.33583	-1.27726
-0.25932	-0.25695
-0.48884	-0.07840
0.30171	0.40625
0.76074	0.55929
0.27621	0.58480
0.30171	0.30422
0.19971	-0.05289
0.02119	0.38074
0.25071	0.35523
0.12320	-0.15492
0.27621	0.76336
-0.28482	-0.25695
0.07220	-0.53754
0.70974	0.04914
0.78624	0.43176
-0.15732	0.63582
-0.31033	0.02363
-0.13181	-0.38449
0.27621	0.32972
0.35272	0.55929
-0.38683	0.22769
-0.41233	0.02363
0.12320	-0.12942
1.32178	0.22769
0.93925	0.58480
0.35272	0.35523
-0.69285	0.15117
-0.31033	0.40625
0.40372	-0.46102
-0.08081	-0.58856
0.17421	-0.12942
0.32721	0.58480
0.19971	0.94191
0.09770	0.02363
-0.08081	-0.43551
0.17421	-0.56305
-0.53984	0.12566
0.53123	1.70714
0.14870	-0.38449
-0.05531	-0.46102
0.14870	0.35523
0.22521	0.40625
0.63323	0.17668
1.67880	-0.18043
0.55673	-0.25695
-1.02437	0.48277
-0.79486	0.20219
-0.59084	-0.20594
-0.18282	0.40625
0.09770	0.30422
-0.13181	0.04914
0.78624	-0.00188
0.55673	-0.10391
1.01576	0.30422
0.48022	0.63582
-0.02981	0.66132
-0.46334	-0.76711
0.37822	-0.05289
-0.15732	-0.00188
-0.13181	0.55929
-0.51434	-0.10391
0.48022	0.17668
0.58223	1.14597
0.27621	-0.35899
-0.08081	-0.63957
0.32721	0.45726
-0.84586	0.10015
0.30171	0.02363
0.35272	0.43176
0.27621	0.27871
0.27621	0.63582
0.63323	0.43176
0.32721	-0.63957
0.27621	-0.23145
0.09770	0.50828
0.30171	0.38074
0.37822	0.89089
-0.13181	0.02363
-0.31033	-0.15492
-0.31033	0.04914
0.32721	-0.30797
0.30171	0.50828
0.04670	-0.12942
0.48022	0.04914
0.45472	0.55929
0.53123	0.25320
-0.36133	0.25320
-0.33583	0.40625
0.12320	0.04914
-0.05531	0.02363
0.19971	-0.02739
-0.18282	0.22769
1.19427	0.15117
0.02119	-0.12942
0.91375	0.25320
-0.23382	0.38074
0.19971	0.25320
-0.25932	0.45726
-0.53984	-0.41000
-0.00431	-0.86914
0.32721	-0.15492
-0.28482	1.17148
-0.46334	-0.00188
0.12320	0.07465
0.81175	0.61031
0.78624	0.43176
0.09770	0.12566
0.30171	-0.00188
-0.00431	0.07465
0.37822	-0.18043
-0.08081	0.22769
-0.20832	0.25320
-0.15732	0.15117
0.35272	0.10015
0.17421	0.63582
0.37822	-0.07840
0.17421	-0.12942
-0.08081	0.12566
0.22521	0.25320
-0.10631	0.17668
-0.36133	0.38074
-0.79486	-0.15492
0.55673	0.04914
0.53123	0.15117
0.42922	0.07465
0.53123	0.38074
0.14870	0.07465
0.35272	0.07465
0.32721	0.02363
0.07220	-0.00188
-0.33583	0.07465
0.30171	0.15117
0.22521	0.12566
0.55673	0.20219
-0.05531	0.07465
0.04670	0.22769
-0.23382	0.17668
-0.13181	0.17668
-0.08081	0.04914
0.27621	0.25320
-0.18282	0.04914
0.09770	0.15117
0.73524	-0.30797
1.72980	0.32972
0.37822	0.53379
-0.18282	0.30422
-0.53984	0.10015
-0.43783	0.10015
0.12320	0.04914
0.32721	0.38074
0.48022	0.25320
0.88825	-0.97117
0.12320	0.35523
-0.36133	0.48277
0.48022	-0.56305
0.86275	0.04914
-0.10631	0.76336
-0.15732	0.40625
0.04670	0.40625
0.07220	0.30422
-0.05531	0.17668
-0.28482	0.35523
-0.25932	0.50828
0.32721	-0.61406
0.88825	-0.81812
0.53123	0.40625
0.02119	0.43176
-0.23382	0.48277
0.37822	0.43176
0.07220	0.10015
0.27621	0.04914
-0.05531	0.15117
0.48022	0.15117
0.14870	0.32972
0.04670	0.10015
0.07220	-0.12942
0.55673	0.35523
0.40372	0.32972
-0.46334	-0.02739
-0.79486	-0.71609
-0.53984	-0.10391
-0.02981	0.25320
0.19971	0.55929
-0.23382	0.07465
0.32721	0.15117
0.81175	0.35523
0.93925	0.30422
1.16877	0.63582
0.32721	0.35523
0.42922	-0.18043
-0.18282	-0.71609
-0.51434	0.27871
-0.33583	0.04914
-0.51434	0.25320
-0.15732	0.04914
0.02119	0.58480
0.30171	0.35523
0.27621	-0.33348
0.32721	0.07465
0.19971	0.78886
0.88825	0.02363
0.25071	0.10015
0.37822	-0.10391
0.53123	0.15117
-0.41233	0.40625
0.12320	0.17668
-0.08081	0.04914
0.14870	0.02363
-0.08081	0.17668
0.17421	-0.23145
0.04670	-0.15492
-0.28482	0.02363
-0.56534	0.40625
0.86275	0.17668
1.55129	0.35523
0.55673	0.48277
0.04670	0.30422
-0.64185	-0.12942
-0.08081	0.12566
0.04670	-0.20594
0.19971	0.55929
-0.08081	-0.00188
0.17421	-0.35899
0.12320	-0.56305
-0.28482	0.12566
-0.31033	0.94191
0.09770	0.43176
0.68424	-0.15492
0.60773	0.43176
0.07220	0.27871
0.30171	0.10015
-0.00431	0.50828
-0.08081	0.22769
0.09770	-0.05289
-0.25932	-0.46102
-0.18282	-0.20594
-0.05531	-0.41000
0.07220	0.22769
0.02119	0.61031
-0.05531	0.45726
0.32721	0.22769
0.63323	0.20219
0.91375	0.10015
0.25071	0.35523
0.04670	-0.18043
0.27621	0.07465
0.42922	0.45726
-0.13181	0.22769
-0.36133	-0.10391
-0.23382	0.17668
0.04670	0.12566
-0.15732	0.04914
-0.08081	-0.00188
-0.05531	0.22769
0.02119	0.25320
-0.05531	0.10015
1.11776	0.15117
0.50573	0.55929
0.40372	-0.10391
0.53123	-0.35899
