0.02119	0.22769
0.12320	0.25320
0.14870	0.04914
0.12320	0.07465
0.12320	0.12566
0.17421	0.04914
0.09770	0.07465
0.12320	0.07465
0.12320	0.22769
0.07220	0.20219
0.07220	0.25320
0.19971	0.10015
0.19971	0.17668
0.22521	0.22769
0.22521	0.07465
0.14870	-0.02739
0.12320	-0.00188
0.07220	-0.00188
0.09770	0.27871
0.07220	0.25320
0.09770	0.30422
0.22521	0.35523
0.32721	0.25320
0.27621	-0.20594
0.27621	-0.10391
0.12320	0.32972
0.22521	0.20219
0.04670	0.15117
0.07220	0.12566
0.12320	0.22769
0.14870	0.17668
0.14870	0.15117
0.22521	0.07465
0.19971	0.07465
0.22521	-0.00188
0.09770	0.12566
0.04670	-0.00188
0.09770	0.12566
0.09770	0.25320
0.07220	0.27871
0.12320	0.17668
0.17421	0.22769
0.19971	0.10015
0.27621	-0.02739
0.30171	0.04914
0.14870	0.22769
0.12320	0.15117
0.07220	0.20219
0.04670	0.15117
0.04670	0.07465
0.12320	0.22769
0.22521	0.22769
0.22521	0.38074
0.17421	0.17668
0.09770	-0.15492
0.19971	-0.05289
0.14870	0.07465
0.17421	0.15117
0.09770	0.20219
0.07220	0.27871
-0.00431	0.50828
0.07220	0.38074
0.25071	0.25320
0.30171	-0.02739
0.30171	-0.10391
0.14870	-0.07840
0.12320	-0.00188
0.02119	0.22769
0.09770	0.17668
0.04670	0.17668
0.12320	0.22769
0.14870	0.25320
0.19971	0.25320
0.22521	0.07465
0.30171	-0.00188
0.22521	0.12566
0.17421	0.10015
0.07220	-0.05289
0.12320	0.22769
0.02119	0.30422
-0.02981	0.22769
0.14870	0.17668
0.25071	0.17668
0.25071	0.07465
0.25071	0.02363
0.12320	-0.05289
0.02119	0.02363
0.07220	0.10015
0.14870	0.12566
0.12320	0.12566
0.12320	0.35523
0.17421	0.43176
0.22521	0.30422
0.12320	0.15117
0.22521	0.07465
0.14870	0.10015
0.09770	0.02363
0.17421	-0.02739
0.12320	0.07465
0.09770	0.07465
0.04670	0.12566
0.09770	0.38074
0.22521	0.35523
0.19971	-0.02739
0.25071	-0.20594
0.19971	0.15117
0.04670	0.12566
0.09770	0.15117
0.07220	0.17668
-0.36133	0.02363
0.17421	0.30422
0.30171	0.22769
0.30171	-0.00188
0.04670	-0.05289
0.30171	-0.02739
-0.13181	0.17668
-0.08081	-0.00188
0.30171	0.22769
0.35272	0.35523
0.19971	0.10015
-0.15732	0.22769
0.12320	-0.28246
0.17421	-0.00188
0.07220	0.15117
0.27621	0.22769
0.42922	0.50828
0.35272	0.35523
-0.05531	0.25320
-0.56534	-0.23145
-0.48884	0.07465
0.37822	0.40625
0.76074	0.66132
0.88825	0.66132
0.30171	-0.99668
0.81175	-0.71609
0.22521	0.10015
-0.41233	0.76336
-0.46334	0.76336
-0.82036	0.78886
0.45472	0.22769
0.88825	-0.30797
1.52579	-0.66508
0.04670	-0.18043
0.19971	0.17668
-0.51434	0.20219
-1.86593	0.50828
1.72980	-0.02739
3.66793	-0.05289
-1.10088	-0.20594
-3.44703	-0.12942
-1.25389	0.68683
0.73524	1.17148
-1.55991	0.78886
-1.22839	0.45726
7.72269	-1.02219
2.29084	-0.46102
-4.31408	-0.35899
-1.63641	0.07465
4.38197	0.73785
2.82638	0.58480
-1.76392	0.20219
-3.37052	0.86539
-0.00431	1.22250
-0.36133	-0.25695
1.27078	-1.07320
-0.53984	-0.89465
0.53123	-0.20594
-2.32496	0.83988
-1.10088	0.76336
10.88489	0.25320
4.68799	-0.28246
-3.24301	0.15117
-1.30489	0.66132
-1.30489	0.22769
-2.93700	-0.41000
-2.78398	-0.10391
0.07220	0.45726
0.42922	0.04914
0.09770	-0.15492
4.89201	0.30422
4.91751	0.53379
0.73524	0.61031
-6.53273	0.32972
2.39285	-0.46102
-5.18114	-0.35899
1.19427	-0.07840
4.20346	0.30422
-1.45790	0.04914
-11.09752	1.19699
6.14159	0.32972
5.81007	-0.15492
-1.61091	-0.02739
2.23984	-0.28246
-1.50890	0.25320
-3.03900	-0.81812
-1.12638	-0.18043
1.01576	0.53379
2.77537	-0.02739
-3.47253	0.58480
4.61149	0.63582
0.19971	0.99292
0.27621	0.63582
-5.18114	-0.25695
4.61149	0.35523
1.52579	-0.15492
0.76074	-0.79262
-0.33583	0.25320
-0.05531	-0.41000
-1.91693	-0.15492
-2.37596	0.76336
0.40372	-0.53754
3.74443	-0.07840
1.52579	0.76336
-2.57997	1.27351
-2.22295	1.12046
-4.11007	-0.71609
6.54961	0.02363
3.51492	0.86539
2.87738	-0.61406
0.96476	-0.46102
0.30171	-0.05289
-1.81492	0.48277
-2.96250	0.02363
-6.30321	0.50828
2.54586	1.14597
1.55129	-0.63957
-0.66735	0.35523
-1.30489	0.94191
-0.82036	0.66132
0.73524	-0.61406
-1.35589	0.30422
3.25990	-0.23145
1.50029	-0.10391
1.42379	0.86539
4.56049	0.96742
-1.04987	-0.48652
2.16333	-0.69059
-0.20832	-1.30277
-1.71292	-0.53754
-3.54903	0.73785
-2.24845	0.63582
-0.79486	0.89089
5.58055	0.99292
-0.43783	0.32972
-1.35589	-0.12942
0.30171	-0.15492
-1.55991	-0.23145
-0.92237	0.20219
3.36191	0.58480
5.04502	0.15117
-5.18114	0.73785
-2.83499	-0.71609
-0.38683	-0.53754
1.93382	-0.92016
1.75531	-0.51203
1.85731	1.60511
0.81175	-0.43551
0.45472	-0.41000
3.56592	0.12566
-6.91525	0.38074
-2.04444	1.14597
1.21977	-0.15492
1.78081	0.50828
1.60230	0.38074
1.21977	0.04914
0.70974	0.17668
-0.74385	-0.05289
-0.05531	-0.25695
-0.05531	-0.10391
0.58223	0.32972
-0.76936	-0.33348
-0.41233	-0.28246
-0.18282	0.20219
-0.36133	0.25320
0.27621	0.10015
-0.20832	0.50828
0.37822	0.35523
0.32721	0.04914
0.25071	0.35523
-2.22295	-0.02739
3.48942	-0.20594
0.68424	0.48277
-0.89686	0.10015
1.95932	0.04914
0.76074	-0.28246
-1.76392	-0.23145
-1.50890	0.45726
-0.10631	0.55929
0.68424	0.22769
1.14327	0.38074
-1.30489	-0.07840
3.03039	0.25320
-0.10631	0.73785
-1.20288	-0.23145
-1.02437	-0.05289
-0.59084	0.20219
-0.23382	0.96742
-0.74385	-0.63957
1.19427	0.38074
1.75531	-0.41000
0.88825	0.71234
0.42922	-0.69059
0.86275	-1.25176
0.63323	0.73785
0.30171	0.25320
-2.01894	0.38074
0.93925	0.27871
-0.41233	0.99292
0.17421	-0.07840
-0.53984	0.15117
1.98482	-0.89465
-5.30865	-0.00188
0.81175	0.04914
-1.43240	0.25320
5.47854	-0.00188
2.31634	0.15117
-0.92237	0.35523
-0.69285	-0.10391
0.48022	0.07465
0.91375	-0.30797
-1.33039	0.32972
-2.60547	0.22769
-2.96250	-0.00188
-0.41233	0.48277
3.97395	0.61031
0.02119	-0.12942
0.58223	-0.18043
0.88825	-0.07840
-0.08081	0.20219
-0.56534	0.27871
-0.38683	0.17668
-0.48884	-0.02739
0.14870	0.10015
0.04670	-0.05289
0.02119	0.27871
0.45472	1.04394
0.86275	0.32972
1.27078	-0.28246
0.04670	-0.41000
0.50573	0.45726
0.91375	0.45726
-0.10631	0.38074
-0.59084	0.10015
-1.22839	-0.05289
-1.33039	0.40625
3.00489	0.07465
-0.18282	-0.05289
-1.35589	0.04914
1.47479	-0.12942
1.37278	-0.38449
-0.82036	0.66132
-1.50890	0.61031
-0.31033	-0.12942
0.63323	-0.10391
0.17421	-0.12942
-0.23382	-0.00188
1.11776	0.25320
0.07220	0.35523
-0.76936	-0.07840
-0.48884	0.12566
0.37822	0.58480
1.16877	0.32972
0.78624	0.10015
2.46935	0.32972
1.06676	0.27871
-1.30489	0.35523
-2.50347	0.15117
-1.15188	-0.20594
3.56592	-0.79262
-0.48884	0.10015
-0.76936	0.35523
0.09770	1.22250
0.65874	-0.15492
0.32721	-0.20594
-0.18282	-0.25695
-0.74385	-0.02739
0.50573	0.02363
-2.65648	0.30422
1.72980	0.12566
0.70974	0.71234
0.53123	0.40625
0.58223	0.04914
0.58223	-0.00188
-1.43240	-0.30797
2.36734	0.04914
1.50029	0.15117
-0.99887	0.35523
-0.69285	0.04914
0.50573	0.17668
0.83725	0.12566
-0.43783	0.38074
0.02119	0.25320
-0.59084	-0.02739
-0.74385	-0.12942
0.73524	0.91640
1.75531	-0.25695
0.42922	-0.30797
-0.20832	0.30422
-0.38683	0.17668
-0.31033	0.17668
0.73524	0.53379
1.06676	0.53379
0.60773	0.48277
-0.79486	0.40625
0.02119	-0.23145
0.37822	-0.56305
-0.00431	0.30422
-0.97337	0.38074
0.19971	0.71234
1.42379	-0.33348
0.70974	0.17668
1.34728	-0.05289
-2.57997	-0.12942
2.06133	0.04914
-0.20832	-0.23145
-2.09544	0.48277
-0.25932	0.48277
0.35272	0.20219
0.22521	0.07465
0.17421	0.45726
0.27621	0.17668
0.25071	0.07465
0.65874	0.55929
0.81175	-0.05289
1.16877	0.20219
1.29628	0.25320
0.04670	-0.41000
-0.74385	-0.18043
-3.60004	-0.07840
1.95932	-0.38449
0.25071	0.86539
-0.97337	0.38074
-0.18282	0.38074
0.70974	0.35523
0.68424	-0.07840
0.27621	-0.28246
0.32721	0.25320
-0.02981	0.10015
0.02119	-0.05289
0.68424	-0.02739
1.01576	0.10015
0.02119	0.53379
-0.82036	0.27871
-0.43783	-0.20594
0.14870	0.43176
-0.25932	0.15117
0.73524	-0.18043
1.09226	-0.10391
0.53123	0.15117
0.60773	0.55929
0.83725	0.50828
0.48022	-0.46102
-0.71835	-0.41000
-0.94787	0.53379
-0.99887	0.15117
-1.10088	0.20219
0.63323	0.63582
-1.10088	-0.25695
0.96476	0.04914
0.42922	0.45726
0.50573	0.22769
0.83725	-0.10391
-0.31033	0.12566
-0.74385	0.38074
2.92838	-0.00188
3.03039	-0.07840
-0.20832	0.12566
-1.78942	-0.12942
-1.73842	0.02363
-3.14101	0.20219
3.08139	-0.38449
0.83725	0.81437
-0.08081	0.25320
0.19971	0.17668
-0.05531	0.04914
-0.02981	0.07465
-0.08081	0.17668
-0.38683	0.63582
-0.23382	0.25320
0.58223	0.40625
1.04126	-0.69059
0.63323	0.12566
0.32721	0.48277
0.32721	0.12566
0.22521	-0.51203
-0.28482	0.02363
-1.20288	0.48277
0.07220	0.35523
0.04670	0.48277
1.27078	0.15117
0.53123	0.02363
-0.08081	0.22769
0.02119	-0.12942
0.07220	0.20219
-0.05531	-0.30797
-0.33583	-0.05289
0.02119	0.35523
0.78624	0.00000
-0.79486	0.00000
0.68424	0.00000
0.99026	0.43176
0.60773	0.20219
0.22521	0.27871
-0.10631	-0.07840
-0.23382	0.53379
-0.18282	-0.33348
-0.10631	0.20219
0.53123	0.76336
0.12320	-0.25695
-0.61635	-0.35899
0.12320	-0.35899
0.37822	0.55929
1.21977	0.53379
1.24527	0.55929
0.35272	0.20219
-0.20832	-0.12942
-0.33583	0.20219
-0.48884	0.15117
-0.61635	-0.25695
-0.51434	0.02363
-0.23382	-0.02739
1.01576	0.48277
0.37822	0.43176
0.14870	0.25320
0.55673	0.04914
1.04126	-0.07840
0.73524	0.07465
-0.13181	0.43176
0.27621	-0.02739
0.91375	-0.05289
0.42922	-0.07840
-1.02437	-0.18043
-0.92237	0.22769
-0.15732	0.48277
-0.64185	0.22769
0.65874	-0.00188
0.78624	0.43176
-2.70748	0.30422
3.20890	-0.05289
0.73524	0.15117
-2.35046	-0.20594
0.81175	-0.00188
1.29628	0.25320
0.40372	-0.02739
-0.51434	-0.10391
-1.07538	-0.28246
-0.64185	-0.07840
0.42922	0.40625
-0.51434	0.04914
0.22521	0.32972
0.73524	0.27871
0.63323	0.35523
1.11776	-0.02739
1.04126	0.45726
0.53123	0.25320
0.91375	0.40625
0.96476	0.17668
0.02119	-0.28246
-0.25932	-0.18043
-0.48884	-0.18043
-1.63641	0.04914
0.22521	0.32972
-0.99887	-0.00188
-0.00431	-0.05289
-0.08081	0.50828
-0.31033	0.45726
0.35272	0.43176
0.86275	0.22769
1.47479	0.38074
0.30171	-0.05289
0.07220	0.20219
0.17421	0.30422
-0.05531	0.20219
-0.20832	0.35523
0.25071	-0.05289
0.60773	0.04914
0.63323	-0.00188
-0.13181	0.22769
-0.51434	-0.10391
0.19971	0.02363
-0.31033	0.43176
0.19971	0.22769
0.42922	0.30422
0.40372	0.10015
0.12320	-0.28246
0.81175	0.20219
1.16877	0.45726
-1.35589	0.20219
0.88825	-0.10391
-0.08081	0.02363
-0.66735	0.22769
-0.33583	0.07465
-0.23382	0.15117
0.04670	0.25320
0.12320	0.17668
0.76074	-0.25695
0.91375	-0.30797
0.30171	0.25320
0.45472	0.68683
0.27621	0.30422
0.25071	0.15117
-0.38683	0.12566
0.53123	0.35523
-0.18282	0.15117
-1.38139	-0.71609
-0.25932	0.15117
1.04126	0.48277
1.34728	-0.25695
0.78624	0.32972
-0.41233	0.20219
-0.89686	0.07465
-1.02437	0.22769
0.02119	0.45726
0.81175	0.15117
0.96476	0.17668
0.50573	-0.28246
0.12320	0.45726
-0.05531	0.22769
0.14870	0.12566
0.42922	0.10015
-0.28482	-0.18043
-0.69285	0.04914
0.42922	0.48277
0.53123	0.35523
1.47479	-0.30797
0.99026	0.25320
-1.10088	0.17668
-0.46334	0.30422
-0.43783	0.15117
-0.51434	-0.02739
-0.13181	0.04914
0.27621	0.76336
0.32721	-0.12942
0.73524	-0.15492
1.32178	0.04914
1.21977	0.20219
0.76074	0.17668
-0.38683	-0.18043
-1.25389	0.30422
-0.61635	0.32972
-1.45790	0.12566
1.04126	-0.20594
0.76074	0.40625
-0.13181	0.20219
0.09770	0.07465
0.60773	0.12566
1.04126	0.15117
-0.10631	0.30422
0.17421	0.04914
-0.87136	-0.53754
0.09770	-0.18043
0.68424	0.96742
-0.08081	0.07465
1.19427	0.43176
-0.18282	-0.05289
-0.74385	0.12566
-0.28482	0.12566
-0.10631	-0.23145
0.63323	-0.30797
0.68424	0.22769
0.48022	0.40625
-0.25932	-0.02739
-1.15188	0.32972
0.45472	0.10015
0.37822	-0.02739
0.91375	0.68683
0.22521	0.40625
0.17421	0.38074
-0.00431	-0.20594
-0.28482	-0.48652
-0.51434	-0.18043
0.12320	0.07465
1.16877	0.25320
1.09226	0.30422
-0.38683	0.48277
-0.48884	0.07465
0.22521	-0.10391
-0.10631	0.43176
0.70974	0.22769
-0.05531	-0.41000
-0.28482	0.25320
0.09770	0.15117
0.30171	0.12566
0.27621	0.71234
-0.15732	-0.15492
0.22521	-0.10391
-0.28482	0.25320
0.93925	-0.00188
0.50573	0.25320
-0.92237	0.27871
-0.20832	-0.05289
-0.05531	0.22769
0.32721	0.15117
0.76074	0.27871
1.39828	0.10015
0.32721	0.61031
0.32721	0.50828
-0.59084	-0.35899
-0.74385	-0.35899
-0.23382	-0.05289
0.04670	-0.00188
0.81175	0.12566
0.45472	0.25320
0.40372	0.25320
-0.00431	0.32972
-0.33583	0.30422
-1.04987	-0.12942
0.14870	-0.07840
1.14327	-0.28246
0.17421	0.50828
-0.33583	0.20219
-0.08081	0.07465
0.48022	0.17668
0.83725	0.55929
0.22521	0.38074
0.22521	-0.15492
0.32721	-0.53754
0.45472	0.78886
0.09770	0.27871
0.04670	0.10015
-0.79486	0.40625
-0.36133	0.17668
0.42922	-0.28246
0.25071	-0.97117
-0.05531	0.22769
0.17421	0.73785
-0.28482	0.35523
0.19971	0.25320
0.96476	-0.05289
0.30171	0.07465
-0.36133	0.02363
-0.08081	0.15117
0.22521	-0.05289
0.73524	0.22769
0.81175	0.48277
0.22521	0.27871
-0.53984	-0.15492
-0.28482	-0.23145
-0.25932	0.22769
-0.66735	0.07465
-0.71835	0.10015
0.63323	-0.46102
1.16877	-0.02739
1.09226	0.43176
0.42922	0.55929
0.40372	0.76336
-0.25932	0.20219
-0.59084	0.12566
-0.15732	0.10015
0.35272	0.02363
0.37822	0.40625
-0.08081	0.38074
-0.13181	-0.05289
0.32721	0.15117
0.99026	-0.18043
1.55129	0.10015
-0.23382	-0.10391
-0.79486	-0.18043
-0.28482	0.20219
0.25071	0.20219
0.37822	0.58480
-0.36133	-0.07840
-0.99887	0.25320
-0.13181	0.48277
2.18883	0.61031
0.50573	0.55929
-0.82036	-0.46102
0.07220	-0.53754
1.04126	0.17668
-0.43783	0.35523
-0.74385	0.22769
0.70974	0.38074
0.78624	0.15117
0.50573	-0.15492
-0.28482	0.04914
0.32721	0.25320
-0.00431	0.50828
-0.20832	0.35523
0.07220	-0.35899
0.65874	-0.15492
1.29628	0.30422
0.93925	0.20219
-0.31033	0.30422
-0.94787	-0.05289
-1.20288	0.04914
0.17421	0.25320
-0.31033	0.15117
-1.07538	-0.07840
-0.05531	-0.00188
0.86275	0.63582
1.29628	0.32972
1.42379	-0.05289
2.36734	0.22769
-0.02981	0.83988
1.24527	-0.05289
-0.56534	-0.30797
-1.58541	-0.05289
-1.66191	-0.23145
-1.04987	0.04914
-0.25932	0.04914
0.78624	0.25320
0.73524	0.35523
1.47479	0.53379
0.73524	0.35523
-0.10631	0.30422
-0.43783	0.25320
-0.02981	-0.02739
0.27621	-0.00188
0.68424	0.17668
0.50573	-0.25695
0.22521	0.04914
-0.18282	-0.23145
0.22521	0.27871
0.22521	0.50828
-0.18282	0.25320
-0.23382	0.45726
-0.64185	-0.30797
-0.13181	-0.10391
0.17421	-0.00188
0.55673	0.43176
0.83725	0.45726
0.55673	0.15117
-0.05531	0.04914
-0.02981	0.04914
0.32721	0.43176
0.35272	0.04914
-0.43783	0.25320
0.40372	0.04914
-0.13181	0.20219
-0.51434	0.12566
0.42922	0.25320
1.65330	0.35523
0.63323	0.58480
-0.25932	0.12566
-0.69285	-0.18043
-0.36133	0.04914
0.14870	0.20219
0.42922	-0.07840
0.55673	0.15117
-0.33583	0.35523
-0.28482	-0.00188
0.40372	-0.07840
1.01576	0.22769
0.63323	0.66132
-0.08081	0.35523
-0.25932	0.30422
-0.28482	0.35523
-0.18282	-0.48652
0.19971	-0.15492
0.17421	0.20219
0.17421	0.58480
0.07220	-0.28246
0.45472	0.25320
0.37822	0.96742
1.09226	-0.05289
0.53123	-0.12942
-0.46334	-0.18043
-0.56534	0.32972
-0.46334	-0.00188
-0.18282	-0.10391
-0.48884	0.25320
0.12320	0.17668
0.81175	0.25320
0.37822	0.50828
0.14870	0.17668
0.65874	-0.15492
0.09770	0.12566
-0.08081	-0.12942
0.35272	0.04914
-0.18282	-0.07840
0.22521	-0.00188
0.50573	0.32972
0.07220	0.40625
-0.18282	0.30422
0.02119	0.10015
0.58223	0.07465
0.86275	0.55929
0.42922	0.12566
-0.33583	-0.53754
-0.92237	-0.12942
0.02119	0.45726
0.14870	0.35523
0.32721	0.30422
0.02119	0.02363
0.02119	0.04914
0.99026	0.53379
0.40372	0.27871
-0.18282	-0.35899
-0.31033	0.12566
0.25071	0.10015
0.35272	0.17668
-0.28482	0.22769
0.63323	-0.07840
0.02119	-0.00188
0.32721	-0.15492
0.53123	0.38074
0.48022	0.35523
0.04670	0.17668
-0.08081	0.12566
-0.28482	0.35523
-0.43783	0.40625
0.07220	0.22769
0.37822	-0.05289
0.30171	0.04914
0.81175	0.15117
0.02119	-0.05289
0.12320	-0.10391
-0.46334	0.02363
0.04670	0.76336
1.01576	-0.43551
0.53123	-0.05289
0.35272	0.50828
-0.13181	0.40625
-0.69285	0.10015
0.22521	0.20219
-0.08081	0.17668
-1.84042	0.15117
0.88825	0.02363
0.88825	1.01843
0.42922	0.04914
0.63323	-0.30797
0.42922	-0.43551
0.27621	0.10015
0.07220	0.40625
0.09770	0.30422
-0.79486	0.07465
0.27621	0.38074
1.04126	0.15117
-0.18282	0.45726
-0.53984	-0.35899
-0.31033	-0.41000
-0.33583	0.40625
1.21977	0.45726
0.70974	0.07465
0.42922	0.17668
-0.28482	0.32972
0.30171	0.38074
-0.00431	-0.25695
-0.18282	0.02363
-0.23382	-0.02739
0.37822	0.25320
-0.13181	0.20219
-0.08081	0.25320
0.27621	0.35523
0.73524	-0.18043
0.81175	0.15117
-0.51434	0.30422
-0.53984	-0.33348
-0.48884	0.15117
0.78624	0.40625
1.14327	0.22769
0.68424	0.12566
0.55673	0.17668
0.40372	0.38074
0.07220	-0.18043
-0.43783	-0.10391
-2.45246	0.02363
0.60773	0.07465
-0.64185	0.35523
0.25071	0.02363
0.25071	-0.18043
0.25071	0.30422
0.99026	0.48277
-0.23382	0.10015
4.15246	0.30422
-1.40690	0.58480
0.86275	0.15117
-0.71835	-0.20594
-1.66191	-0.05289
-0.59084	-0.61406
-1.04987	-0.10391
-2.42696	-0.10391
0.32721	0.99292
1.88281	0.32972
2.36734	0.40625
2.23984	0.40625
1.16877	0.25320
1.62780	-0.07840
-1.99343	0.10015
-4.39059	-0.15492
-1.66191	-0.30797
0.63323	-0.20594
1.09226	0.10015
0.76074	0.58480
0.93925	0.40625
0.78624	-0.25695
0.70974	0.07465
0.19971	0.58480
0.99026	0.04914
1.67880	-0.07840
-0.13181	0.10015
-0.53984	0.07465
-0.15732	0.22769
-0.46334	0.48277
-0.64185	0.27871
0.65874	0.10015
-0.08081	0.12566
-0.25932	0.12566
-0.25932	-0.10391
-0.02981	-0.00188
0.32721	-0.18043
0.99026	0.38074
0.78624	0.66132
-1.04987	0.25320
-0.56534	-0.12942
0.17421	0.12566
-0.61635	0.61031
1.27078	-0.05289
0.40372	0.43176
0.86275	0.20219
0.88825	0.02363
-0.51434	0.12566
-0.99887	0.02363
-0.97337	0.15117
-0.94787	0.10015
-0.08081	0.04914
0.14870	0.15117
0.37822	0.27871
1.42379	0.10015
0.88825	0.15117
0.88825	0.66132
0.48022	0.17668
1.21977	0.12566
-1.12638	-0.20594
2.06133	-0.00188
-0.28482	0.20219
-2.91149	-0.15492
-0.02981	0.04914
0.35272	0.61031
0.12320	0.10015
-0.13181	-0.15492
-0.48884	-0.25695
-0.28482	0.27871
0.22521	0.02363
-0.15732	0.38074
0.53123	0.27871
0.86275	0.12566
0.96476	-0.12942
0.42922	0.25320
0.27621	0.12566
-0.02981	0.12566
0.22521	0.30422
0.58223	0.12566
-0.28482	0.07465
-1.61091	0.17668
1.16877	0.25320
0.73524	0.50828
0.32721	0.25320
0.02119	-0.05289
-0.18282	-0.10391
-0.38683	-0.00188
-0.10631	0.07465
-0.61635	-0.05289
-0.43783	0.38074
0.45472	0.27871
0.58223	0.15117
2.57136	0.10015
0.32721	0.10015
-1.43240	0.66132
-1.33039	0.15117
-0.20832	-0.18043
0.50573	0.04914
0.32721	0.38074
0.14870	-0.63957
0.60773	0.02363
0.60773	0.30422
0.40372	0.68683
0.35272	0.50828
-0.05531	0.27871
-0.38683	0.27871
-0.25932	-0.10391
0.27621	0.25320
0.22521	-0.02739
0.32721	0.48277
0.68424	0.32972
0.68424	-0.00188
0.63323	0.22769
-0.08081	0.07465
-0.36133	0.10015
-0.92237	-0.38449
1.44929	-0.20594
-0.31033	-0.12942
-0.33583	0.55929
0.02119	0.45726
0.45472	0.25320
0.09770	0.02363
0.14870	0.15117
0.19971	-0.00188
0.58223	0.40625
-0.05531	0.40625
-0.20832	0.55929
0.12320	0.04914
0.60773	-0.25695
-0.02981	-0.02739
0.17421	0.15117
0.27621	0.12566
0.42922	0.96742
-0.38683	0.22769
0.50573	-0.41000
0.19971	-0.02739
-0.56534	0.40625
0.07220	-0.00188
0.22521	0.35523
0.04670	0.17668
0.32721	0.25320
0.27621	0.17668
0.22521	0.32972
-0.41233	0.02363
-0.64185	-0.18043
-0.00431	0.04914
0.48022	0.02363
0.73524	0.25320
0.40372	0.12566
0.22521	0.45726
0.30171	0.27871
0.19971	0.22769
0.22521	0.07465
0.48022	0.07465
0.63323	0.10015
-0.15732	-0.02739
-0.25932	0.04914
-0.48884	0.48277
0.22521	0.32972
1.04126	-0.10391
0.68424	0.45726
0.35272	0.38074
-1.15188	0.45726
-0.51434	-0.76711
-1.10088	-0.97117
0.09770	-0.05289
-0.43783	0.35523
0.17421	0.55929
0.65874	0.76336
0.86275	0.48277
0.55673	0.30422
0.32721	0.25320
0.50573	-0.10391
0.42922	-0.05289
-0.25932	-0.12942
0.32721	-0.18043
-0.23382	-0.02739
0.07220	0.07465
0.14870	0.27871
0.63323	0.25320
-0.13181	0.38074
0.17421	-0.07840
-0.08081	0.17668
-0.20832	0.40625
0.12320	0.17668
0.14870	-0.00188
-0.05531	0.10015
-0.18282	-0.07840
-0.08081	0.20219
0.04670	0.32972
0.04670	0.02363
0.14870	0.04914
0.60773	0.35523
0.60773	0.50828
1.01576	0.20219
1.19427	-0.23145
0.81175	-0.02739
-0.10631	0.50828
-0.87136	0.07465
-0.46334	-0.05289
-0.13181	-0.05289
0.07220	0.20219
-0.28482	0.25320
-0.08081	0.07465
-0.38683	-0.00188
0.14870	0.02363
-0.79486	-0.02739
0.81175	0.12566
0.93925	0.27871
0.73524	0.32972
1.16877	0.04914
0.55673	0.12566
0.17421	0.30422
-0.08081	0.15117
-0.53984	0.20219
-0.59084	0.15117
-0.51434	-0.33348
-0.66735	-0.00188
-0.08081	0.25320
0.17421	0.71234
1.14327	0.27871
1.44929	0.38074
0.09770	-0.07840
-0.25932	-0.05289
0.25071	-0.00188
0.22521	0.32972
0.09770	0.17668
0.32721	-0.20594
0.02119	0.12566
-0.20832	0.30422
-1.02437	0.25320
1.50029	0.38074
0.12320	0.35523
0.27621	-0.00188
-0.89686	0.04914
-0.23382	-0.02739
0.30171	-0.10391
-0.10631	0.50828
0.22521	-0.30797
0.78624	-0.02739
0.55673	0.10015
0.32721	0.53379
-0.08081	0.25320
0.12320	0.27871
-0.20832	0.12566
-0.28482	0.02363
0.76074	-0.00188
0.02119	0.32972
-0.02981	0.40625
0.04670	0.12566
0.70974	0.17668
0.07220	-0.05289
-0.79486	0.25320
3.13239	0.04914
1.11776	0.15117
-0.20832	-0.20594
-1.40690	0.22769
-1.63641	-0.20594
-0.64185	0.40625
-0.71835	0.12566
-0.08081	0.22769
1.19427	0.12566
1.55129	0.35523
0.78624	0.30422
0.65874	0.30422
-0.36133	-0.00188
-1.15188	-0.10391
0.12320	0.12566
0.30171	0.30422
0.40372	0.12566
1.60230	0.35523
1.44929	0.35523
0.63323	0.10015
-0.33583	-0.46102
-0.66735	-0.18043
-0.82036	0.15117
-1.10088	0.10015
-0.84586	0.38074
0.68424	0.20219
0.63323	0.43176
0.93925	0.10015
0.07220	0.04914
0.73524	0.20219
0.65874	0.22769
0.32721	0.20219
0.02119	0.27871
-0.48884	-0.25695
0.42922	0.12566
-0.18282	0.04914
-0.23382	0.20219
-0.08081	0.17668
-0.00431	0.40625
0.40372	0.17668
1.16877	0.15117
-0.08081	0.22769
-0.05531	0.17668
-0.15732	-0.15492
0.42922	0.35523
1.14327	0.32972
0.91375	0.12566
-0.33583	-0.10391
-0.76936	-0.05289
-1.25389	0.25320
1.21977	0.27871
0.63323	0.35523
-0.15732	0.25320
-0.13181	0.04914
0.42922	-0.15492
0.76074	0.27871
-0.25932	0.50828
-0.89686	-0.12942
-0.31033	-0.05289
0.17421	0.02363
0.17421	0.45726
0.81175	-0.10391
0.32721	0.32972
0.30171	0.66132
0.68424	-0.30797
-0.92237	0.15117
2.13783	0.15117
-0.05531	0.35523
-0.43783	0.25320
-0.25932	0.04914
-0.33583	0.25320
-0.31033	0.40625
0.19971	0.10015
0.55673	-0.05289
0.42922	0.07465
-0.31033	-0.18043
-0.10631	-0.10391
0.02119	0.07465
-0.08081	0.48277
0.96476	0.45726
1.60230	0.10015
-0.36133	0.15117
-0.84586	0.10015
0.02119	-0.00188
-0.05531	-0.05289
-0.08081	0.25320
-0.41233	0.61031
0.73524	0.12566
0.42922	-0.35899
-0.25932	0.30422
-0.46334	0.35523
0.19971	0.40625
0.25071	-0.05289
0.12320	-0.33348
0.70974	0.45726
0.40372	0.22769
0.42922	0.50828
0.86275	-0.00188
-0.00431	0.25320
0.04670	0.35523
-0.28482	-0.23145
-0.41233	0.07465
-0.51434	-0.10391
-0.31033	0.17668
0.22521	-0.00188
0.55673	0.04914
0.22521	0.32972
0.22521	0.22769
0.68424	0.35523
1.27078	0.35523
0.50573	0.30422
-0.97337	-0.10391
-1.40690	-0.18043
0.14870	-0.10391
1.60230	0.25320
1.11776	0.32972
-1.12638	0.27871
0.40372	-0.15492
0.63323	0.17668
-0.15732	0.30422
-0.33583	0.50828
-0.33583	0.25320
0.12320	-0.25695
0.73524	-0.38449
1.65330	-0.12942
-0.13181	0.35523
-0.99887	0.38074
-0.08081	-0.18043
-0.15732	0.53379
0.14870	0.07465
0.42922	0.02363
-0.10631	0.25320
0.37822	0.12566
0.22521	0.30422
0.42922	0.45726
-0.08081	0.32972
-0.00431	0.12566
0.40372	-0.07840
0.14870	0.20219
0.14870	0.22769
0.37822	0.12566
0.48022	0.17668
0.32721	0.32972
-0.00431	0.04914
-0.08081	0.10015
0.02119	0.15117
0.12320	0.32972
0.02119	0.20219
0.30171	0.35523
0.30171	0.43176
0.35272	0.04914
0.04670	-0.07840
-0.48884	0.10015
0.02119	0.04914
1.06676	0.32972
0.60773	-0.05289
-0.02981	0.07465
0.40372	0.61031
0.07220	0.04914
0.12320	0.27871
0.30171	0.22769
-0.02981	0.40625
-0.08081	-0.30797
-0.59084	-0.38449
-0.53984	-0.05289
-0.53984	0.30422
-0.20832	0.45726
0.42922	0.43176
1.16877	0.61031
0.91375	0.35523
0.93925	-0.25695
0.83725	0.02363
0.12320	0.30422
-0.38683	0.15117
-0.28482	-0.05289
0.40372	0.04914
0.02119	0.15117
-0.20832	0.32972
-0.25932	0.15117
-0.13181	-0.10391
0.32721	0.12566
-0.18282	0.17668
0.76074	0.02363
-0.13181	0.12566
0.35272	0.22769
-0.46334	0.02363
-0.13181	-0.00188
0.17421	0.10015
0.19971	0.38074
0.32721	0.12566
-0.36133	-0.12942
0.48022	0.22769
0.30171	0.15117
0.19971	-0.12942
-0.05531	0.22769
-0.41233	0.50828
-0.64185	0.15117
0.83725	0.02363
1.42379	0.27871
-0.74385	0.07465
-0.82036	0.17668
0.09770	0.25320
0.45472	0.07465
0.19971	0.04914
-0.10631	-0.02739
0.22521	0.15117
0.04670	-0.07840
-0.31033	0.02363
-0.15732	0.17668
0.37822	0.20219
0.93925	0.12566
-0.08081	0.04914
0.12320	0.07465
0.02119	0.04914
0.27621	0.20219
-0.13181	0.30422
0.30171	0.66132
0.50573	0.04914
1.11776	0.27871
0.09770	0.15117
-0.46334	-0.05289
-0.53984	0.15117
-0.46334	0.20219
-0.59084	0.02363
0.12320	0.40625
0.68424	-0.15492
0.53123	0.07465
0.99026	0.30422
0.73524	0.25320
0.35272	0.27871
-0.10631	0.10015
-0.36133	0.10015
-0.25932	0.12566
0.07220	0.10015
-0.08081	-0.15492
0.27621	0.25320
0.19971	0.50828
0.86275	0.55929
0.35272	0.07465
0.48022	-0.07840
-0.48884	-0.25695
0.48022	0.07465
0.45472	0.35523
-0.25932	0.35523
-0.36133	-0.15492
0.04670	0.22769
0.48022	0.43176
-0.02981	0.17668
-0.18282	0.04914
0.30171	-0.07840
0.02119	0.17668
0.40372	0.07465
0.32721	0.27871
0.63323	0.35523
0.09770	0.20219
0.09770	-0.30797
-0.10631	0.25320
-0.41233	0.38074
-0.28482	-0.02739
0.27621	-0.07840
0.63323	0.07465
1.29628	0.40625
0.45472	0.22769
-0.25932	0.20219
-0.33583	0.10015
-0.18282	0.20219
-0.00431	0.17668
-0.46334	0.15117
0.78624	-0.05289
0.48022	-0.25695
0.42922	0.15117
0.55673	0.35523
-0.41233	0.07465
-0.64185	0.61031
-0.20832	-0.00188
0.83725	0.15117
0.55673	0.43176
0.48022	0.61031
0.50573	-0.07840
0.40372	-0.12942
-0.10631	-0.10391
-0.43783	0.20219
-0.36133	0.30422
-0.53984	0.12566
-0.33583	0.07465
-0.38683	0.12566
0.04670	0.10015
1.52579	0.20219
1.14327	0.07465
0.17421	0.48277
0.07220	0.10015
0.12320	-0.41000
0.78624	-0.15492
-0.56534	0.17668
0.19971	0.17668
-0.23382	0.55929
-0.02981	0.53379
0.07220	0.30422
0.45472	-0.07840
0.19971	-0.25695
0.12320	0.17668
-0.36133	0.15117
0.45472	0.45726
-0.02981	0.02363
-0.20832	0.07465
0.19971	-0.23145
0.27621	0.45726
0.25071	0.30422
0.45472	-0.00188
0.68424	0.45726
-0.28482	0.07465
0.02119	-0.00188
0.48022	0.30422
-0.51434	-0.23145
-0.64185	-0.15492
-0.20832	0.22769
0.42922	0.32972
0.12320	0.32972
0.83725	0.27871
0.99026	-0.07840
0.91375	-0.00188
-0.51434	0.20219
-0.79486	-0.15492
-0.46334	0.02363
-0.02981	0.43176
0.09770	0.45726
-0.46334	0.27871
0.91375	0.20219
0.53123	0.12566
0.65874	0.15117
0.53123	0.25320
0.35272	0.30422
0.02119	0.53379
-0.10631	-0.41000
-0.10631	-0.07840
-0.18282	0.20219
0.17421	0.45726
0.17421	0.48277
0.07220	0.20219
0.14870	0.25320
0.53123	0.35523
0.37822	0.10015
-0.46334	-0.05289
-0.15732	0.02363
0.14870	-0.18043
-0.10631	0.25320
0.09770	0.55929
0.58223	0.32972
0.63323	0.04914
0.60773	0.15117
0.53123	0.73785
-0.02981	0.27871
-0.05531	-0.15492
0.22521	-0.41000
-0.28482	0.35523
0.40372	0.38074
-0.33583	-0.02739
-0.59084	0.35523
-0.08081	0.17668
0.14870	0.32972
0.55673	0.20219
0.09770	-0.02739
-0.00431	0.27871
0.09770	-0.35899
0.32721	0.07465
0.42922	0.32972
0.48022	0.10015
0.53123	0.30422
0.27621	0.50828
0.04670	0.20219
0.19971	0.02363
0.35272	-0.02739
-0.13181	0.15117
-0.23382	0.15117
0.25071	0.02363
0.02119	-0.05289
0.07220	0.27871
0.02119	0.22769
0.12320	0.15117
0.09770	0.35523
0.22521	0.17668
0.27621	0.48277
-0.02981	-0.15492
-0.25932	0.02363
-0.05531	-0.10391
0.35272	0.40625
0.27621	0.22769
0.58223	0.27871
0.40372	0.58480
0.53123	0.12566
-0.00431	-0.51203
0.32721	-0.23145
-0.25932	0.48277
-0.28482	0.35523
0.09770	0.38074
0.30171	0.22769
0.50573	-0.15492
0.27621	-0.00188
0.40372	0.12566
-0.18282	0.27871
-0.31033	0.10015
-0.28482	0.10015
-0.08081	-0.10391
0.83725	0.10015
0.40372	0.25320
-0.20832	0.25320
-0.25932	0.15117
0.68424	0.12566
0.45472	0.25320
0.48022	0.22769
0.07220	0.27871
0.32721	0.17668
0.30171	0.10015
0.07220	0.02363
-0.28482	0.25320
-0.28482	0.30422
0.22521	0.25320
0.65874	0.15117
0.91375	0.35523
0.12320	0.43176
-0.13181	-0.51203
0.07220	-0.12942
0.48022	0.50828
0.53123	0.02363
-0.18282	-0.07840
-0.10631	0.20219
-0.13181	0.35523
-0.20832	0.25320
0.04670	0.15117
-0.41233	0.10015
1.11776	0.02363
0.88825	-0.05289
0.14870	-0.18043
-0.28482	-0.18043
0.04670	0.32972
0.73524	0.10015
0.42922	0.04914
-0.18282	0.12566
-0.31033	0.30422
-0.18282	0.12566
0.09770	-0.20594
0.22521	0.25320
0.04670	0.32972
-0.28482	0.02363
-0.15732	0.04914
-0.10631	0.10015
0.30171	0.22769
0.58223	0.07465
0.30171	0.20219
-0.00431	0.17668
-0.13181	0.10015
0.12320	0.02363
-0.02981	0.15117
-0.05531	0.35523
0.09770	-0.43551
0.27621	0.17668
0.12320	0.22769
0.63323	0.27871
0.45472	0.63582
-0.02981	0.71234
-0.15732	0.30422
-0.08081	0.10015
0.09770	0.04914
-0.13181	-0.35899
-0.28482	0.07465
-0.05531	0.40625
0.07220	0.27871
0.22521	0.25320
0.30171	0.17668
0.63323	0.27871
0.58223	0.15117
0.58223	0.25320
0.48022	0.10015
0.32721	0.20219
-0.18282	0.32972
0.12320	-0.12942
0.27621	0.12566
-0.00431	0.35523
0.14870	0.15117
-0.25932	0.10015
0.14870	0.45726
-0.08081	0.17668
-0.36133	0.61031
-0.13181	-0.46102
0.19971	-0.76711
0.53123	-0.12942
0.55673	0.40625
0.53123	0.55929
0.40372	0.55929
0.30171	0.45726
0.12320	0.12566
-0.08081	0.15117
0.07220	-0.00188
0.09770	-0.10391
-0.05531	-0.02739
-0.23382	0.12566
0.09770	0.15117
0.40372	0.25320
0.25071	0.22769
0.07220	0.02363
0.40372	0.07465
0.65874	0.25320
0.27621	0.22769
0.09770	0.15117
-0.38683	-0.00188
-0.25932	-0.05289
-0.36133	-0.05289
0.07220	0.12566
0.32721	0.15117
0.25071	0.48277
0.07220	0.22769
0.22521	0.43176
0.37822	0.04914
0.40372	0.35523
0.25071	-0.15492
0.45472	-0.23145
-0.02981	-0.02739
-0.15732	0.40625
0.22521	0.45726
0.53123	0.40625
-0.33583	0.22769
-0.48884	0.04914
0.09770	-0.23145
0.88825	0.22769
0.09770	0.35523
-0.28482	0.17668
0.02119	-0.33348
0.12320	-0.05289
0.22521	0.20219
0.22521	0.25320
1.60230	0.38074
0.45472	0.50828
-0.46334	0.35523
-0.43783	0.10015
-0.00431	0.10015
0.30171	-0.05289
0.07220	0.15117
-0.18282	0.12566
-0.13181	0.20219
0.42922	-0.02739
0.65874	0.32972
0.27621	-0.02739
0.60773	0.35523
0.02119	-0.12942
0.09770	-0.38449
-0.28482	0.25320
-0.76936	0.15117
-0.28482	0.07465
-0.02981	0.10015
0.22521	0.30422
0.50573	0.02363
0.30171	0.15117
0.60773	0.10015
0.35272	0.17668
0.12320	0.04914
0.22521	0.20219
0.07220	0.04914
0.07220	0.12566
0.04670	0.25320
0.30171	0.12566
0.42922	-0.12942
-0.13181	0.22769
0.07220	0.10015
-0.15732	0.15117
-0.18282	-0.02739
-0.13181	0.04914
-0.59084	0.12566
0.73524	0.20219
0.42922	0.02363
1.06676	0.17668
0.17421	0.17668
-0.53984	0.07465
-0.15732	-0.02739
0.37822	0.07465
0.35272	0.20219
0.50573	0.32972
0.30171	0.45726
-0.18282	0.17668
-0.10631	0.66132
-0.20832	-0.05289
0.22521	-0.07840
0.32721	0.27871
0.88825	0.25320
0.17421	0.07465
-0.05531	0.25320
-0.10631	-0.02739
-0.20832	0.30422
-0.18282	0.02363
-0.10631	0.04914
0.22521	0.20219
0.37822	0.15117
0.42922	0.17668
0.32721	0.10015
0.45472	-0.12942
0.19971	0.20219
-0.23382	0.15117
-0.33583	0.12566
0.17421	0.20219
0.68424	0.12566
0.04670	0.38074
-0.10631	0.15117
0.32721	0.15117
-0.33583	0.10015
0.19971	0.07465
-0.02981	0.02363
0.22521	0.35523
0.27621	0.02363
0.09770	0.17668
-0.15732	0.25320
-0.08081	0.22769
1.29628	0.17668
-0.10631	0.22769
-0.38683	0.35523
-0.33583	0.07465
-0.08081	-0.25695
0.83725	0.10015
0.60773	0.53379
0.07220	0.32972
0.17421	0.38074
0.35272	0.20219
0.35272	-0.05289
0.65874	0.30422
-0.02981	0.48277
-0.46334	-0.18043
-0.33583	-0.35899
-0.00431	0.22769
-0.13181	0.32972
0.09770	0.25320
0.22521	0.25320
0.53123	-0.00188
0.58223	0.15117
0.37822	0.12566
0.37822	0.07465
0.02119	0.07465
-0.18282	0.04914
-0.15732	0.07465
-0.05531	0.25320
0.48022	0.25320
0.50573	0.55929
0.30171	-0.15492
-0.15732	-0.35899
-0.46334	-0.25695
-0.28482	0.02363
-0.38683	0.12566
-0.31033	0.07465
-0.28482	0.50828
0.07220	-0.02739
0.73524	-0.33348
0.78624	0.17668
0.53123	0.53379
0.14870	0.20219
0.17421	0.40625
0.17421	-0.15492
-0.05531	-0.02739
-0.97337	-0.05289
0.83725	-0.12942
0.86275	0.12566
-0.08081	0.30422
-0.13181	0.55929
0.14870	-0.00188
0.22521	-0.07840
-0.08081	-0.00188
0.07220	0.12566
-0.28482	0.12566
0.09770	0.30422
0.19971	0.30422
0.73524	0.38074
0.48022	0.20219
0.35272	0.22769
0.30171	0.17668
0.17421	0.20219
-0.36133	0.10015
-0.53984	-0.07840
0.88825	0.02363
0.30171	0.07465
0.32721	0.30422
0.09770	0.22769
0.02119	0.15117
-0.00431	0.15117
-0.05531	0.68683
-0.20832	-0.15492
-0.79486	-0.23145
0.70974	-0.35899
0.60773	0.12566
0.14870	0.10015
0.19971	0.61031
0.37822	0.45726
0.86275	0.48277
0.27621	0.27871
-0.28482	-0.20594
-0.23382	-0.23145
-0.15732	0.15117
-0.51434	0.04914
-0.31033	0.25320
0.07220	0.25320
0.48022	0.02363
0.42922	0.22769
0.27621	0.17668
0.68424	-0.10391
0.63323	0.17668
0.17421	0.35523
-0.08081	0.25320
-0.48884	0.04914
0.02119	0.04914
0.48022	-0.12942
1.14327	0.35523
-0.23382	0.38074
0.32721	0.02363
0.02119	0.04914
-0.18282	-0.00188
-0.38683	0.15117
-0.64185	0.27871
-0.69285	-0.69059
0.48022	-0.02739
0.78624	0.94191
0.70974	0.83988
0.27621	-0.51203
0.25071	-0.30797
0.35272	0.22769
0.48022	0.38074
0.40372	0.27871
0.12320	0.32972
0.02119	0.22769
0.09770	0.04914
-0.08081	-0.00188
-0.38683	-0.00188
-0.38683	-0.18043
0.42922	-0.00188
0.30171	0.12566
0.58223	0.25320
0.12320	-0.00188
0.53123	0.48277
0.07220	-0.07840
-0.31033	-0.25695
-0.05531	-0.05289
0.32721	0.40625
0.25071	0.53379
-0.28482	-0.61406
-0.18282	0.07465
0.02119	0.40625
0.25071	0.71234
0.32721	0.32972
0.63323	0.25320
0.40372	-0.20594
0.17421	-0.41000
0.17421	0.15117
-0.13181	0.12566
-0.33583	0.35523
-0.00431	0.30422
0.22521	-0.12942
0.22521	-0.00188
0.70974	0.30422
0.45472	0.04914
-0.20832	0.04914
0.07220	0.35523
0.17421	0.22769
-0.02981	0.02363
-0.08081	-0.10391
0.55673	0.25320
0.04670	0.61031
0.09770	0.02363
0.22521	-0.05289
0.04670	0.17668
-0.13181	0.10015
-0.10631	0.12566
-0.08081	0.32972
0.12320	-0.15492
0.45472	0.10015
0.73524	0.38074
0.07220	0.58480
-0.28482	0.02363
0.32721	0.12566
0.42922	-0.12942
0.58223	0.17668
-0.18282	-0.15492
-0.36133	0.02363
-0.08081	0.68683
-0.02981	0.32972
0.07220	-0.05289
0.22521	0.07465
0.22521	0.22769
0.48022	-0.18043
0.48022	-0.18043
-0.00431	0.27871
-0.33583	0.43176
0.27621	-0.02739
0.50573	0.15117
0.07220	0.48277
0.04670	0.15117
0.19971	-0.18043
0.45472	0.17668
0.07220	0.32972
-0.38683	0.15117
0.17421	0.25320
0.09770	0.12566
-0.20832	0.10015
0.02119	0.15117
0.19971	0.04914
0.86275	0.27871
0.68424	0.17668
0.14870	0.10015
-0.20832	-0.00188
-0.43783	-0.15492
-0.38683	-0.00188
0.35272	0.02363
0.30171	0.12566
0.48022	0.30422
1.01576	0.22769
1.14327	0.53379
-0.56534	0.43176
-1.12638	-0.12942
-0.10631	-0.02739
-0.13181	0.17668
0.09770	0.27871
0.14870	0.10015
0.60773	0.22769
-0.05531	0.12566
0.07220	0.04914
0.65874	0.04914
0.27621	0.32972
-0.00431	-0.05289
0.04670	-0.00188
0.60773	0.48277
0.76074	-0.10391
-0.46334	0.10015
-0.31033	0.07465
0.12320	0.17668
-0.08081	0.48277
0.32721	0.25320
0.25071	0.04914
0.09770	-0.18043
0.27621	0.17668
0.27621	0.55929
0.27621	-0.02739
0.04670	-0.18043
0.12320	0.27871
0.02119	0.22769
-0.25932	0.35523
0.63323	0.27871
-0.08081	0.17668
-0.41233	0.04914
0.17421	0.20219
1.42379	-0.00188
0.78624	0.15117
-0.36133	0.17668
-0.18282	0.04914
0.07220	0.10015
-0.00431	-0.12942
0.22521	0.27871
0.12320	0.20219
-0.15732	0.17668
0.22521	0.17668
-0.08081	0.04914
0.86275	0.10015
-0.13181	0.20219
0.02119	0.15117
0.58223	0.45726
0.22521	0.32972
0.07220	-0.12942
-0.10631	-0.07840
0.12320	0.15117
0.07220	0.15117
0.07220	0.12566
0.12320	0.22769
-0.08081	0.15117
0.02119	0.07465
0.35272	-0.07840
0.42922	0.35523
0.50573	0.15117
0.45472	0.27871
0.02119	-0.18043
0.19971	0.10015
0.04670	0.35523
0.07220	0.55929
-0.10631	0.20219
-0.94787	0.17668
0.37822	0.45726
0.93925	0.30422
0.99026	0.07465
0.12320	0.12566
-0.20832	-0.07840
0.07220	-0.07840
0.17421	-0.12942
-0.13181	0.04914
-0.38683	-0.15492
0.04670	0.15117
0.12320	0.38074
0.04670	0.32972
0.32721	0.20219
0.50573	0.38074
0.73524	0.25320
-0.13181	0.04914
0.55673	0.22769
0.35272	0.04914
0.25071	0.12566
0.07220	0.15117
0.09770	0.25320
0.35272	0.35523
-0.20832	0.12566
-0.61635	-0.18043
-0.13181	0.43176
-0.00431	0.20219
0.96476	-0.02739
0.40372	-0.23145
-0.38683	0.17668
-0.38683	0.30422
-0.25932	0.35523
0.12320	0.25320
0.53123	0.15117
0.63323	-0.10391
0.17421	0.35523
0.22521	-0.00188
0.32721	0.07465
-0.10631	-0.18043
0.37822	0.07465
1.16877	0.30422
-0.15732	0.45726
-0.33583	0.50828
-0.25932	0.04914
-0.28482	0.10015
-0.10631	0.20219
0.09770	0.07465
0.12320	-0.00188
-0.20832	-0.18043
0.99026	0.07465
0.96476	0.27871
0.35272	0.30422
-0.13181	0.30422
-0.02981	0.25320
-0.31033	-0.35899
0.14870	-0.00188
0.14870	0.27871
0.30171	0.17668
-0.28482	-0.18043
-0.33583	0.10015
0.17421	0.61031
0.27621	0.32972
0.45472	0.27871
0.63323	0.12566
0.76074	0.27871
-0.02981	0.25320
-0.13181	-0.00188
0.27621	0.12566
0.27621	0.12566
-0.28482	-0.20594
-0.51434	0.20219
-0.82036	0.10015
-0.15732	0.07465
0.22521	0.15117
1.04126	0.22769
0.68424	0.32972
0.19971	-0.00188
-0.74385	-0.35899
0.37822	-0.20594
-0.00431	0.25320
-0.08081	-0.15492
0.17421	0.22769
-0.05531	0.35523
0.02119	-0.00188
1.42379	0.35523
-0.02981	0.45726
-0.64185	0.07465
-0.53984	0.10015
-0.46334	-0.28246
-0.28482	-0.10391
0.25071	0.12566
0.83725	0.38074
0.73524	0.32972
0.60773	0.25320
0.04670	0.25320
0.42922	0.20219
0.45472	0.02363
0.35272	0.10015
-0.41233	0.20219
-0.38683	-0.15492
0.19971	0.25320
0.48022	0.04914
-0.36133	0.20219
-0.13181	0.27871
0.07220	0.04914
0.60773	0.27871
0.45472	0.25320
-0.00431	0.10015
-0.05531	0.02363
-0.23382	0.02363
0.14870	0.12566
0.19971	-0.12942
0.78624	0.07465
-0.00431	0.35523
0.14870	0.22769
0.12320	0.17668
0.35272	0.45726
-0.71835	0.53379
-0.00431	-0.38449
0.12320	-0.00188
0.17421	0.30422
0.76074	-0.10391
0.73524	0.53379
0.53123	0.32972
-0.10631	0.25320
-0.43783	0.27871
-0.28482	0.20219
-0.15732	0.22769
0.07220	0.07465
-0.08081	0.17668
-0.05531	0.20219
0.22521	0.10015
0.35272	0.22769
0.55673	0.07465
0.70974	-0.05289
0.83725	0.02363
0.58223	0.17668
-0.00431	0.27871
0.09770	-0.23145
-0.51434	-0.02739
0.37822	0.25320
-0.02981	0.30422
-0.46334	0.32972
-0.53984	0.07465
0.60773	0.55929
0.96476	0.02363
0.88825	-0.12942
0.25071	0.22769
-0.31033	-0.35899
-0.46334	0.07465
-0.33583	0.15117
-0.13181	0.27871
0.02119	0.20219
0.65874	0.17668
0.76074	0.22769
0.60773	0.22769
-0.08081	0.10015
-0.10631	0.04914
-0.15732	-0.18043
-0.15732	-0.35899
0.12320	0.53379
0.86275	0.55929
0.37822	0.17668
0.19971	-0.25695
0.37822	0.25320
0.58223	0.38074
-0.18282	0.17668
-0.66735	0.22769
-0.59084	-0.35899
0.14870	0.04914
0.17421	0.32972
-0.25932	0.20219
-0.02981	0.22769
0.88825	0.20219
1.11776	0.68683
-0.00431	-0.25695
0.07220	0.04914
0.14870	-0.15492
-0.13181	-0.20594
0.09770	0.20219
0.37822	0.43176
0.86275	0.32972
-0.05531	0.27871
-0.46334	0.22769
-0.48884	0.30422
0.02119	-0.23145
0.55673	0.04914
0.32721	0.32972
0.19971	0.15117
-0.20832	-0.02739
-0.08081	0.22769
0.09770	0.48277
0.99026	0.04914
0.83725	-0.00188
-0.13181	-0.02739
-0.02981	0.27871
-0.25932	0.15117
-0.31033	0.27871
-0.15732	0.17668
-0.08081	0.04914
0.42922	0.15117
0.50573	0.15117
0.37822	0.43176
0.17421	-0.07840
0.17421	0.43176
0.32721	-0.07840
0.27621	0.02363
0.17421	-0.10391
0.55673	-0.02739
1.01576	0.27871
-0.66735	0.43176
-0.97337	0.22769
-0.82036	0.17668
-0.31033	0.48277
0.25071	0.07465
0.40372	-0.15492
0.25071	0.10015
0.42922	0.40625
0.70974	0.10015
1.72980	0.07465
0.78624	0.15117
-0.31033	-0.18043
-0.56534	0.27871
-0.38683	0.40625
-0.43783	0.10015
0.19971	0.15117
0.60773	-0.07840
0.45472	0.55929
0.30171	0.25320
-0.61635	0.35523
0.88825	-0.28246
0.88825	-0.20594
-0.08081	-0.51203
-0.56534	0.15117
-0.25932	0.55929
-0.08081	0.53379
0.12320	0.53379
0.53123	0.30422
0.02119	0.04914
-0.05531	0.25320
0.12320	0.22769
0.42922	-0.05289
0.22521	-0.10391
0.68424	-0.05289
1.01576	0.04914
0.48022	0.22769
-0.05531	0.15117
-0.43783	0.22769
-0.41233	0.07465
-0.69285	0.07465
-0.66735	0.15117
0.68424	0.20219
1.85731	0.38074
1.21977	0.61031
-0.41233	0.04914
-0.23382	-0.02739
-0.15732	-0.15492
-0.38683	0.22769
-0.28482	-0.05289
-0.25932	0.25320
-0.10631	0.27871
0.37822	0.10015
0.53123	0.89089
0.63323	-0.25695
0.22521	-0.38449
0.27621	0.30422
0.25071	0.48277
0.12320	-0.33348
-0.05531	0.53379
-0.00431	0.10015
0.53123	0.02363
0.58223	0.04914
0.30171	0.30422
-0.36133	0.15117
-0.59084	0.17668
-0.97337	0.12566
0.50573	0.17668
0.50573	0.10015
-0.02981	-0.25695
-0.02981	0.02363
0.04670	0.30422
0.48022	0.25320
0.65874	0.35523
-0.20832	-0.07840
0.32721	0.15117
0.40372	0.12566
0.45472	0.22769
0.32721	0.27871
-0.13181	0.15117
-0.66735	-0.02739
-0.33583	0.15117
0.12320	0.17668
0.88825	0.32972
0.83725	0.53379
-0.05531	-0.28246
-0.33583	-0.12942
0.25071	0.32972
0.19971	0.12566
-0.00431	0.38074
-0.00431	0.04914
0.17421	0.10015
0.55673	0.53379
-0.31033	-0.15492
0.70974	-0.20594
0.22521	-0.15492
-0.15732	0.40625
-0.05531	0.20219
-0.15732	0.30422
-0.25932	0.25320
0.04670	0.40625
0.96476	-0.25695
0.76074	0.15117
0.14870	0.38074
-0.31033	0.15117
-0.13181	-0.02739
-0.05531	0.07465
0.30171	0.43176
0.40372	-0.20594
0.17421	0.07465
-0.00431	0.17668
0.27621	0.22769
0.68424	0.58480
0.48022	0.71234
0.17421	0.25320
0.32721	0.02363
0.02119	-0.28246
-0.05531	-0.25695
-1.10088	0.22769
-0.66735	-0.00188
0.45472	0.04914
0.99026	0.55929
0.04670	0.48277
-0.43783	0.15117
1.11776	0.12566
0.53123	0.02363
-0.25932	-0.00188
-0.15732	-0.02739
0.40372	0.32972
0.91375	-0.07840
1.27078	0.10015
-0.94787	0.15117
-0.10631	0.30422
-0.20832	0.25320
-0.15732	-0.00188
-0.18282	0.12566
0.09770	0.20219
0.27621	0.27871
0.19971	-0.00188
0.22521	0.15117
0.07220	0.07465
0.17421	0.15117
0.53123	0.22769
0.45472	0.43176
0.32721	0.12566
-0.08081	-0.02739
-0.08081	0.45726
-0.05531	0.15117
0.17421	-0.00188
0.22521	0.04914
0.42922	0.20219
0.40372	0.32972
-0.31033	0.20219
-0.18282	0.63582
0.40372	-0.18043
0.76074	-0.10391
-0.25932	-0.00188
-0.41233	0.17668
-0.28482	0.25320
-0.02981	-0.00188
0.12320	0.07465
0.60773	0.20219
0.22521	0.32972
0.58223	0.15117
0.65874	0.25320
0.99026	0.12566
-0.05531	0.10015
-0.64185	-0.02739
-0.74385	0.22769
-0.10631	-0.00188
0.50573	-0.07840
0.35272	-0.02739
0.25071	0.32972
0.19971	0.30422
0.09770	0.27871
0.32721	0.40625
0.25071	0.10015
0.25071	0.04914
0.09770	0.04914
0.25071	-0.41000
-0.43783	0.02363
-0.05531	0.45726
0.22521	0.76336
-0.05531	-0.20594
0.22521	-0.28246
0.88825	0.50828
0.25071	0.20219
-0.02981	0.22769
-0.13181	-0.20594
-0.08081	0.10015
0.07220	0.35523
0.12320	0.50828
0.04670	0.17668
0.50573	0.25320
0.55673	0.10015
0.50573	0.15117
-0.33583	0.10015
-0.43783	-0.07840
1.01576	-0.05289
0.19971	-0.05289
-0.18282	0.30422
-0.02981	0.15117
0.81175	0.22769
0.65874	0.20219
-0.08081	0.10015
-0.51434	0.07465
-0.71835	-0.02739
-0.36133	0.43176
-0.38683	-0.07840
-0.13181	-0.23145
0.48022	0.22769
0.37822	0.22769
0.27621	0.22769
0.65874	0.35523
0.86275	0.25320
0.63323	0.15117
-0.20832	0.07465
-0.25932	-0.00188
-0.00431	0.12566
-0.15732	0.22769
-0.05531	0.22769
0.17421	-0.23145
0.32721	0.15117
0.22521	0.10015
0.73524	-0.25695
0.45472	0.12566
-0.31033	0.12566
-0.28482	0.53379
0.25071	0.50828
0.22521	0.30422
-0.25932	0.04914
-0.28482	0.04914
0.12320	0.17668
0.25071	0.10015
0.27621	-0.00188
1.06676	0.02363
0.19971	0.07465
0.09770	0.15117
-0.13181	-0.02739
-0.13181	-0.07840
0.22521	0.15117
0.17421	0.12566
0.09770	0.45726
0.09770	0.15117
-0.18282	0.25320
0.32721	0.35523
0.25071	0.30422
0.42922	0.25320
0.12320	-0.00188
-0.38683	0.27871
0.99026	0.20219
0.48022	-0.25695
-0.20832	-0.35899
-0.38683	0.10015
0.17421	0.40625
0.27621	0.40625
0.35272	0.30422
0.32721	0.71234
-0.15732	0.10015
-0.51434	-0.41000
-0.48884	-0.48652
-0.02981	0.20219
0.65874	0.58480
1.01576	0.45726
1.11776	0.12566
0.25071	0.25320
-0.33583	0.02363
-0.59084	-0.00188
-0.25932	0.12566
0.02119	0.04914
0.32721	0.15117
0.25071	0.20219
0.19971	0.35523
0.07220	0.10015
0.09770	-0.25695
0.30171	0.17668
-0.08081	0.20219
-0.05531	0.07465
-0.02981	0.20219
0.14870	0.20219
0.14870	0.20219
0.45472	0.10015
0.65874	0.78886
0.17421	-0.18043
-0.43783	-0.33348
0.17421	-0.07840
0.73524	0.22769
-0.08081	0.45726
0.09770	0.45726
-0.08081	0.22769
-0.02981	-0.05289
-0.02981	0.20219
-0.02981	0.02363
0.22521	0.25320
0.60773	0.17668
0.27621	0.10015
0.12320	0.10015
0.99026	-0.07840
0.14870	-0.18043
-0.31033	-0.00188
-0.18282	0.32972
-0.28482	0.48277
0.58223	0.02363
0.53123	0.02363
0.32721	0.55929
0.42922	0.32972
0.04670	0.20219
-0.66735	0.10015
-0.05531	-0.05289
0.14870	0.48277
-0.13181	-0.30797
0.12320	-0.53754
0.68424	0.04914
0.63323	0.55929
0.30171	0.53379
-0.05531	0.30422
-0.18282	0.10015
0.07220	0.10015
0.27621	0.15117
-0.00431	0.02363
0.40372	0.15117
0.42922	0.38074
0.14870	0.22769
0.09770	0.10015
0.27621	0.15117
-0.08081	-0.18043
0.02119	0.10015
-0.00431	0.22769
-0.08081	-0.05289
-0.13181	-0.10391
-0.10631	0.15117
0.63323	0.71234
0.32721	0.27871
-0.18282	-0.00188
0.91375	0.43176
0.81175	-0.05289
-0.25932	0.04914
-0.05531	0.15117
0.25071	-0.15492
0.48022	0.20219
-0.18282	0.55929
-0.51434	-0.23145
-0.36133	-0.07840
-0.28482	0.27871
0.25071	0.27871
0.58223	0.12566
0.70974	0.10015
0.35272	0.25320
0.37822	0.02363
0.07220	-0.10391
0.02119	-0.12942
0.19971	0.10015
0.25071	0.45726
-0.28482	0.43176
-0.18282	0.02363
0.07220	0.15117
0.42922	-0.00188
0.48022	0.02363
0.02119	0.25320
-0.00431	0.38074
0.25071	0.35523
0.35272	0.25320
0.45472	0.81437
0.17421	-0.00188
0.42922	-0.71609
0.45472	-0.20594
0.37822	0.38074
0.12320	0.58480
0.02119	0.38074
-0.20832	0.22769
-0.46334	-0.05289
-0.28482	0.04914
0.22521	0.10015
0.32721	0.25320
0.32721	0.27871
-0.08081	0.22769
1.21977	0.15117
0.78624	0.04914
-0.13181	-0.02739
-0.71835	-0.12942
-0.25932	0.15117
1.06676	0.12566
0.86275	0.27871
-0.66735	0.07465
-0.66735	0.12566
-0.48884	0.07465
-0.20832	0.17668
0.07220	0.17668
0.50573	-0.02739
0.27621	0.22769
-0.00431	0.22769
0.22521	0.45726
0.76074	-0.20594
0.09770	-0.07840
0.76074	0.48277
0.53123	0.40625
0.45472	0.48277
0.99026	-0.05289
0.53123	0.04914
-0.74385	-0.12942
-1.02437	-0.18043
-0.64185	-0.18043
-0.00431	0.22769
-0.59084	0.02363
0.35272	0.25320
0.42922	0.35523
0.14870	0.43176
0.14870	0.25320
0.30171	0.17668
0.63323	0.20219
0.76074	-0.00188
0.83725	0.15117
0.35272	-0.05289
0.12320	0.25320
0.07220	0.38074
-0.10631	0.22769
0.04670	0.12566
-0.69285	0.12566
-0.66735	-0.25695
-0.13181	0.04914
0.83725	-0.10391
0.12320	-0.02739
0.78624	0.55929
-0.08081	0.25320
0.04670	0.27871
0.53123	0.71234
-0.25932	0.15117
0.40372	-0.41000
0.27621	-0.18043
0.02119	-0.12942
-0.64185	0.22769
-0.59084	0.22769
0.30171	0.25320
1.62780	0.55929
0.76074	0.35523
-0.36133	-0.05289
-0.56534	0.12566
-0.46334	0.12566
0.12320	0.17668
0.02119	0.04914
0.19971	0.12566
-0.00431	0.12566
0.99026	0.32972
0.93925	0.22769
0.17421	0.32972
-0.05531	0.10015
0.14870	-0.00188
0.60773	-0.00188
0.53123	0.58480
-0.00431	0.12566
-0.18282	-0.20594
-0.13181	0.25320
-0.46334	0.35523
-0.41233	0.25320
-0.31033	0.17668
0.35272	0.30422
0.30171	0.12566
0.12320	-0.05289
0.45472	0.27871
0.35272	0.30422
0.27621	0.35523
0.22521	-0.15492
0.17421	0.04914
0.37822	0.27871
0.12320	0.02363
-0.02981	0.17668
-0.38683	0.27871
-0.41233	-0.10391
2.97938	-0.15492
0.60773	0.17668
-0.36133	0.35523
-2.09544	-0.10391
-1.25389	0.53379
-0.56534	0.48277
1.29628	0.15117
1.39828	0.30422
1.14327	0.35523
0.58223	0.20219
-0.46334	-0.38449
-0.76936	-0.20594
-1.81492	0.02363
0.55673	0.17668
0.45472	0.27871
0.12320	0.35523
0.65874	0.25320
1.16877	0.61031
0.68424	0.12566
0.48022	-0.30797
0.22521	0.22769
0.02119	-0.25695
-0.28482	-0.00188
-0.66735	0.25320
-0.41233	0.15117
-0.02981	0.45726
-0.05531	-0.12942
0.30171	0.22769
0.32721	0.22769
0.93925	0.45726
0.27621	0.10015
0.55673	0.40625
-0.13181	-0.25695
-0.59084	-0.20594
-0.56534	-0.23145
-0.00431	0.61031
0.86275	0.02363
0.22521	0.15117
-0.02981	0.50828
0.22521	0.43176
0.14870	0.15117
-0.97337	-0.25695
0.58223	0.02363
1.01576	0.15117
0.30171	-0.00188
-0.08081	0.40625
0.09770	0.15117
0.19971	0.10015
0.27621	0.22769
0.40372	-0.00188
-0.28482	0.32972
-0.28482	-0.12942
-0.00431	-0.15492
0.35272	0.04914
0.63323	0.45726
0.27621	0.27871
0.53123	0.43176
-0.08081	0.35523
-0.25932	-0.12942
-0.25932	0.10015
0.12320	0.27871
0.30171	0.15117
0.53123	0.27871
0.37822	0.32972
0.37822	-0.00188
0.12320	0.02363
-0.05531	0.07465
-0.05531	-0.12942
-0.00431	0.38074
-0.08081	-0.15492
0.32721	0.15117
0.14870	0.35523
-0.84586	0.10015
0.70974	0.22769
0.48022	0.66132
0.73524	0.25320
0.37822	0.32972
0.19971	0.12566
-0.08081	0.22769
-0.53984	-0.12942
-0.20832	-0.25695
-0.31033	-0.35899
0.19971	-0.18043
-0.20832	0.20219
1.47479	0.45726
1.06676	0.50828
-0.38683	0.27871
-0.97337	-0.05289
-0.00431	0.04914
0.42922	0.15117
0.78624	0.27871
0.37822	0.22769
-0.10631	0.12566
0.07220	-0.05289
0.14870	0.04914
0.25071	-0.07840
0.09770	0.22769
-0.13181	0.40625
-0.00431	0.25320
0.17421	0.15117
0.45472	-0.28246
0.02119	-0.28246
-0.13181	-0.02739
-0.08081	0.45726
0.30171	0.48277
0.55673	0.40625
0.55673	0.50828
0.02119	0.48277
0.14870	-0.10391
-0.28482	-0.74160
0.35272	0.10015
-0.38683	0.10015
0.73524	-0.23145
0.17421	0.12566
-0.08081	0.55929
-0.13181	0.15117
0.02119	0.53379
0.02119	0.40625
-0.02981	-0.23145
-0.18282	-0.18043
-0.23382	0.02363
0.58223	0.30422
0.30171	0.35523
0.30171	0.04914
0.58223	-0.00188
0.48022	0.17668
0.22521	0.07465
0.93925	0.02363
-0.25932	0.15117
-0.36133	0.17668
-0.25932	0.15117
-0.18282	0.04914
0.17421	0.17668
0.09770	0.10015
0.88825	0.12566
0.02119	0.10015
0.02119	-0.10391
0.17421	0.53379
0.22521	0.38074
-0.25932	-0.15492
0.25071	-0.12942
0.58223	0.48277
0.32721	0.25320
-0.25932	0.27871
-0.41233	-0.00188
-0.13181	0.32972
0.07220	0.22769
0.81175	-0.07840
0.65874	-0.05289
0.25071	0.32972
-0.08081	0.04914
-0.00431	-0.18043
0.53123	0.15117
-0.28482	0.27871
-0.41233	0.20219
-0.20832	0.15117
0.37822	0.02363
0.19971	0.20219
0.27621	0.25320
0.40372	0.04914
0.37822	0.12566
0.12320	-0.18043
-0.31033	0.07465
0.73524	0.32972
0.48022	0.30422
-0.18282	0.15117
0.09770	0.32972
0.09770	0.48277
0.17421	0.15117
0.12320	-0.58856
-0.18282	-0.10391
0.04670	0.35523
0.04670	0.25320
0.40372	0.32972
0.22521	0.40625
0.12320	0.02363
0.50573	0.12566
0.65874	0.20219
0.22521	0.48277
-0.82036	-0.43551
0.45472	-0.23145
-0.08081	0.25320
-0.18282	0.10015
-0.18282	0.27871
0.04670	0.12566
0.19971	0.43176
0.63323	0.35523
0.45472	0.12566
-0.08081	0.15117
0.17421	0.10015
0.32721	0.12566
0.50573	0.04914
0.27621	0.15117
0.37822	0.02363
0.48022	0.10015
-0.18282	0.10015
-0.18282	-0.00188
-0.41233	-0.02739
-0.43783	0.32972
-0.08081	0.20219
0.14870	0.25320
0.37822	-0.20594
0.17421	0.10015
0.22521	0.48277
0.86275	0.04914
0.55673	-0.05289
0.60773	0.20219
0.27621	0.78886
-0.10631	-0.18043
-0.00431	-0.07840
0.48022	0.55929
0.19971	0.48277
-0.33583	-0.66508
0.09770	-0.53754
0.37822	0.40625
0.14870	0.68683
-0.23382	0.32972
-0.28482	0.22769
-0.02981	-0.05289
0.09770	-0.05289
-0.99887	0.04914
1.11776	-0.02739
0.86275	-0.00188
-0.08081	0.17668
0.09770	0.04914
0.22521	0.07465
0.12320	0.58480
0.30171	0.02363
0.42922	0.02363
0.30171	-0.07840
-0.05531	0.15117
