0.07220	0.25320
0.17421	0.20219
0.12320	0.20219
0.12320	0.12566
0.22521	0.04914
0.27621	0.20219
0.22521	0.17668
0.12320	0.07465
0.04670	0.10015
0.09770	0.12566
0.17421	0.12566
0.07220	0.17668
0.09770	0.22769
0.12320	0.22769
0.14870	0.12566
0.22521	0.04914
0.25071	-0.00188
0.25071	0.04914
0.12320	0.20219
0.04670	0.17668
-0.00431	0.20219
-0.05531	0.12566
0.07220	0.17668
0.27621	0.12566
0.25071	0.20219
0.19971	0.12566
0.12320	0.04914
0.12320	0.04914
0.12320	0.15117
0.19971	0.17668
0.07220	0.15117
-0.05531	0.17668
0.09770	0.17668
0.22521	0.20219
0.22521	0.07465
0.19971	0.04914
0.19971	0.02363
0.17421	0.04914
0.19971	0.20219
0.09770	0.17668
-0.02981	0.20219
-0.00431	0.12566
0.12320	0.20219
0.27621	0.17668
0.25071	0.17668
0.19971	0.17668
0.12320	0.07465
0.09770	0.02363
0.17421	0.12566
0.25071	0.20219
0.04670	0.12566
-0.05531	0.22769
0.12320	0.10015
0.19971	0.20219
0.19971	0.25320
0.17421	0.12566
0.17421	0.04914
0.19971	-0.05289
0.12320	0.04914
0.04670	0.15117
0.12320	0.25320
0.04670	0.17668
0.09770	0.20219
0.14870	0.12566
0.14870	0.30422
0.19971	0.15117
0.04670	0.02363
0.04670	-0.10391
0.17421	0.43176
0.25071	0.25320
0.14870	0.15117
-0.05531	0.53379
0.09770	0.10015
0.04670	-0.28246
0.32721	-0.30797
0.30171	0.15117
0.19971	0.32972
0.14870	0.22769
-0.15732	0.17668
0.04670	0.50828
0.07220	0.35523
0.07220	0.20219
0.07220	0.35523
0.35272	0.20219
0.27621	-0.02739
0.09770	0.10015
0.25071	-0.15492
0.17421	-0.18043
0.40372	0.22769
0.35272	0.17668
-0.10631	0.35523
0.04670	0.58480
0.42922	0.30422
0.32721	-0.12942
-0.00431	-0.05289
0.07220	0.07465
-0.59084	-0.07840
-0.08081	0.17668
0.04670	0.22769
-0.36133	0.55929
0.02119	0.55929
0.17421	0.86539
0.63323	-0.46102
-2.52897	-0.41000
2.95388	0.12566
4.63699	0.35523
-1.02437	-0.07840
0.35272	-0.10391
-0.13181	-0.02739
-1.43240	0.07465
-1.50890	0.30422
-1.12638	0.71234
-3.80405	0.50828
-0.89686	-0.84363
4.91751	-0.23145
5.73356	0.12566
0.55673	0.30422
-3.42153	0.83988
0.42922	0.25320
2.29084	-0.00188
-0.05531	-0.02739
-1.55991	-0.05289
-2.12094	0.04914
-4.44159	0.43176
-2.04444	-0.07840
7.03414	0.35523
2.31634	0.66132
0.22521	-0.92016
0.99026	-0.97117
-0.18282	0.02363
-1.89143	0.63582
-2.22295	0.99292
3.20890	0.30422
3.48942	-0.00188
-1.55991	0.20219
-3.67654	0.58480
0.45472	0.04914
3.33641	0.15117
2.54586	1.04394
-2.40146	-0.28246
2.11233	-0.51203
-3.34502	-0.05289
0.25071	0.48277
-2.47797	0.02363
-6.48172	-0.66508
-1.73842	0.30422
4.89201	0.53379
4.50948	0.17668
4.48398	0.25320
1.80631	-0.00188
-2.45246	0.48277
-1.07538	0.17668
-2.65648	0.07465
0.58223	-0.23145
1.21977	-0.15492
-4.56910	0.04914
2.23984	0.45726
1.80631	-0.07840
-0.18282	0.89089
-1.33039	0.35523
-0.10631	0.53379
2.85188	-0.53754
1.06676	-0.56305
1.01576	-0.25695
0.78624	0.12566
-1.45790	0.48277
-3.98256	0.53379
3.82094	0.17668
0.83725	0.22769
0.30171	0.55929
-1.50890	0.10015
-4.90062	-0.25695
9.02327	-0.25695
2.74987	-0.05289
-1.63641	0.45726
-1.45790	0.17668
-0.92237	-0.35899
0.40372	0.32972
0.68424	0.68683
-0.51434	-0.07840
-0.28482	0.35523
-2.45246	0.32972
-2.50347	0.22769
4.56049	-0.23145
3.13239	0.20219
0.19971	-0.18043
-0.23382	0.45726
-0.23382	0.71234
-0.05531	0.45726
-0.05531	-0.38449
-0.84586	-0.12942
2.23984	0.38074
-0.87136	-0.18043
-0.92237	0.25320
-0.02981	0.22769
0.68424	0.04914
-0.00431	-0.25695
0.55673	-0.43551
0.04670	0.40625
0.12320	1.12046
-2.09544	0.66132
-0.02981	0.07465
1.01576	-0.10391
2.36734	-0.58856
2.13783	-0.25695
1.04126	-0.15492
0.02119	0.12566
-0.89686	0.45726
-1.84042	0.83988
-0.89686	0.50828
0.48022	0.55929
1.14327	-0.18043
-3.42153	-0.05289
2.97938	0.66132
1.37278	0.15117
-0.15732	-0.46102
-0.13181	-0.18043
1.06676	-0.05289
-0.28482	0.35523
-1.43240	0.25320
-1.27939	0.40625
1.27078	-0.33348
1.75531	-0.12942
0.45472	0.43176
-0.89686	0.50828
-0.69285	0.61031
-0.08081	-0.20594
0.78624	-0.30797
0.86275	-0.02739
0.19971	0.40625
-0.46334	0.96742
-0.71835	0.22769
0.60773	-0.48652
1.09226	0.15117
0.81175	-0.00188
0.27621	0.63582
-2.96250	0.45726
3.36191	-0.02739
1.88281	-0.76711
-0.10631	0.07465
-1.15188	0.02363
-1.30489	0.10015
-1.45790	0.68683
0.17421	0.35523
-0.15732	-0.00188
0.32721	-0.02739
0.65874	-0.30797
0.81175	0.43176
-0.08081	0.58480
1.24527	-0.33348
-0.23382	0.02363
1.04126	0.38074
0.17421	0.02363
-0.33583	0.35523
-1.10088	0.32972
0.07220	0.45726
1.75531	-0.30797
0.55673	-0.05289
-0.94787	0.45726
-0.20832	-0.15492
1.16877	-0.20594
-0.31033	-0.10391
-0.46334	0.15117
0.19971	0.38074
1.24527	0.66132
0.48022	0.17668
-0.56534	0.35523
-1.33039	-0.20594
-0.25932	0.43176
-0.13181	0.12566
0.70974	0.12566
1.14327	0.22769
1.29628	0.12566
1.24527	-0.20594
-0.23382	0.07465
-0.99887	0.10015
0.63323	-0.28246
-0.15732	0.17668
-0.15732	0.20219
0.07220	0.17668
-0.20832	0.43176
-3.42153	0.43176
0.53123	1.04394
4.61149	-0.07840
-0.05531	-0.05289
-0.79486	-0.12942
0.40372	0.22769
-0.28482	0.12566
0.22521	-0.15492
-0.05531	-0.28246
-0.08081	0.38074
0.14870	0.73785
-0.53984	-0.07840
0.09770	-0.23145
0.17421	0.07465
0.68424	0.48277
-0.00431	0.81437
-0.36133	-0.33348
0.07220	-0.61406
0.14870	0.78886
0.25071	-0.20594
0.27621	-0.10391
1.04126	0.30422
0.40372	0.55929
-0.28482	0.55929
0.37822	0.07465
1.06676	0.10015
0.22521	-0.05289
0.04670	-0.12942
0.04670	-0.00188
-0.56534	0.53379
-1.84042	0.15117
1.21977	-0.25695
-0.20832	0.12566
-0.64185	0.78886
-0.51434	0.07465
1.67880	-0.18043
2.18883	0.12566
1.34728	0.22769
1.57679	0.20219
-1.02437	0.20219
-1.04987	0.17668
-1.15188	-0.02739
-0.92237	0.17668
0.88825	-0.00188
0.55673	0.02363
0.50573	0.17668
-1.04987	0.38074
1.19427	0.63582
3.00489	0.04914
0.02119	-0.43551
-0.43783	0.07465
-0.23382	0.25320
0.02119	0.55929
0.48022	-0.05289
0.42922	-0.00188
-0.31033	0.17668
0.07220	0.07465
-0.08081	-0.15492
-0.02981	0.27871
0.09770	0.32972
0.35272	0.27871
0.27621	0.02363
0.32721	0.30422
-0.99887	0.35523
0.35272	-0.12942
0.30171	-0.18043
0.86275	-0.10391
0.42922	0.78886
-0.05531	-0.53754
-0.00431	-0.02739
-0.38683	0.32972
0.53123	0.76336
-0.46334	0.10015
0.04670	0.55929
0.22521	0.15117
0.04670	0.10015
1.62780	-0.25695
5.60605	-0.05289
-0.51434	0.12566
-2.14644	0.35523
-2.42696	-0.02739
-1.61091	0.20219
-0.00431	0.53379
0.40372	-0.00188
1.04126	-0.07840
0.73524	0.12566
0.45472	0.53379
0.09770	0.27871
0.30171	0.07465
0.60773	0.22769
0.22521	0.32972
0.22521	0.07465
0.53123	-0.07840
0.70974	-0.20594
0.35272	0.10015
-0.18282	0.02363
-0.59084	0.32972
-0.89686	0.20219
-0.23382	0.17668
0.58223	0.22769
1.65330	0.04914
0.12320	0.07465
-0.43783	0.22769
0.12320	0.07465
0.30171	0.25320
0.40372	-0.18043
-0.28482	0.35523
-1.30489	0.07465
-2.55447	0.22769
3.69343	0.25320
0.63323	-0.02739
-0.66735	0.61031
0.19971	0.20219
0.73524	-0.07840
1.01576	0.04914
-0.53984	0.15117
-0.28482	0.10015
-0.46334	0.04914
-2.37596	0.07465
1.95932	-0.07840
1.52579	0.17668
1.11776	0.02363
0.65874	0.15117
-0.74385	0.25320
-0.25932	0.12566
-0.36133	-0.00188
-0.08081	0.04914
0.12320	0.38074
0.19971	0.38074
0.48022	0.35523
0.70974	0.15117
0.40372	-0.30797
0.42922	0.02363
-0.00431	0.17668
-0.13181	0.12566
-0.13181	0.35523
0.12320	0.15117
-0.28482	0.45726
-0.28482	0.38074
-0.15732	0.10015
-0.31033	-0.30797
0.58223	-0.15492
1.65330	-0.05289
0.83725	0.12566
0.53123	0.58480
0.09770	0.17668
0.35272	0.27871
-0.69285	-0.10391
-0.31033	-0.25695
0.02119	0.76336
-0.38683	0.38074
-1.12638	0.04914
-0.23382	-0.23145
1.62780	0.04914
0.50573	0.12566
-0.20832	0.15117
0.60773	0.15117
0.45472	0.22769
0.14870	0.10015
0.17421	0.48277
0.35272	0.04914
-0.05531	-0.35899
-0.31033	0.02363
0.22521	0.27871
0.37822	0.32972
0.25071	0.22769
-0.18282	-0.18043
-0.05531	-0.15492
0.12320	0.53379
0.12320	0.35523
-0.46334	0.61031
-0.15732	0.12566
0.30171	-0.18043
0.42922	0.02363
1.39828	0.15117
1.01576	-0.10391
-0.00431	0.15117
0.63323	0.48277
-0.48884	-0.10391
-1.76392	0.10015
-0.53984	-0.25695
-0.15732	0.50828
-2.27395	0.35523
3.23440	0.27871
1.70430	0.04914
0.86275	-0.00188
-0.53984	0.10015
-0.94787	0.32972
-0.79486	0.15117
-0.48884	0.22769
0.07220	0.10015
0.53123	-0.02739
0.78624	0.27871
0.93925	0.07465
0.19971	0.30422
0.02119	0.12566
0.55673	-0.05289
0.19971	-0.43551
-0.38683	0.15117
-0.56534	0.43176
-0.15732	0.50828
0.40372	0.25320
0.04670	-0.23145
-0.36133	-0.05289
-0.41233	0.30422
0.58223	0.10015
0.83725	0.27871
1.04126	-0.35899
0.25071	0.27871
0.02119	0.22769
-0.08081	0.55929
-0.31033	0.04914
0.70974	-0.30797
-0.00431	-0.05289
0.22521	0.35523
0.22521	0.00000
-0.48884	0.00000
-0.59084	0.00000
-0.46334	0.00000
0.70974	0.45726
0.76074	0.43176
-0.87136	0.15117
1.80631	0.10015
0.86275	-0.15492
-0.59084	-0.38449
-0.59084	-0.02739
0.22521	0.32972
0.48022	0.38074
0.17421	0.02363
-0.38683	-0.20594
0.07220	0.30422
-1.81492	0.12566
2.01032	0.22769
0.32721	0.15117
0.37822	0.43176
0.55673	0.17668
-0.28482	0.15117
-0.31033	-0.25695
-0.41233	-0.28246
-0.13181	-0.10391
-0.18282	0.35523
0.27621	0.66132
0.68424	0.15117
0.40372	-0.02739
-0.00431	-0.10391
0.22521	0.30422
0.55673	0.45726
1.01576	0.30422
1.39828	-0.07840
-0.25932	-0.25695
-0.33583	0.45726
-1.12638	0.04914
-1.12638	-0.33348
-0.08081	0.58480
0.60773	0.04914
0.32721	-0.10391
0.37822	0.25320
-0.08081	-0.33348
-0.18282	0.15117
0.30171	0.48277
0.68424	0.15117
1.09226	0.48277
1.14327	0.17668
0.07220	-0.07840
-0.25932	0.32972
-0.33583	0.45726
-0.15732	0.25320
-0.48884	-0.35899
-0.76936	-0.35899
-0.76936	-0.10391
0.22521	-0.05289
-0.08081	-0.18043
1.37278	0.43176
0.86275	0.96742
-0.02981	-0.00188
0.40372	-0.02739
0.63323	0.61031
0.09770	0.48277
-0.00431	0.04914
-0.08081	-0.15492
0.17421	0.81437
-1.04987	0.04914
0.40372	-0.79262
1.37278	-0.07840
0.42922	0.55929
-0.51434	0.30422
-0.33583	0.55929
0.83725	0.68683
-0.28482	-0.23145
-0.82036	-0.48652
-0.53984	-0.30797
-0.53984	0.04914
-0.51434	0.22769
1.44929	0.12566
1.93382	0.32972
1.52579	0.55929
-0.00431	0.66132
-0.89686	-0.23145
-1.10088	-0.20594
-0.28482	0.32972
-0.33583	-0.25695
0.19971	0.07465
0.42922	0.04914
1.04126	0.35523
0.53123	-0.12942
0.53123	0.38074
-0.25932	0.22769
0.12320	0.10015
0.22521	0.35523
0.04670	0.04914
-0.38683	0.10015
0.37822	0.27871
-0.08081	0.50828
-1.27939	-0.18043
0.42922	0.25320
0.40372	-0.07840
1.11776	-0.07840
0.09770	0.48277
1.50029	-0.00188
0.99026	-0.05289
-0.46334	0.30422
-0.92237	-0.00188
-1.33039	-0.05289
0.22521	0.17668
0.53123	0.76336
0.37822	0.32972
0.04670	0.17668
0.14870	0.17668
0.32721	0.58480
0.58223	-0.41000
0.99026	0.02363
0.09770	-0.15492
-0.10631	0.12566
-0.53984	-0.00188
-0.38683	0.61031
0.12320	0.25320
0.60773	0.10015
0.73524	-0.28246
0.12320	0.17668
0.09770	0.38074
0.09770	0.04914
0.12320	0.15117
0.45472	0.10015
0.37822	0.35523
-0.00431	0.15117
0.04670	0.35523
0.12320	0.45726
0.14870	0.43176
0.19971	-0.02739
-0.05531	-0.69059
0.07220	0.07465
0.14870	0.30422
-0.10631	0.27871
0.02119	0.12566
0.25071	0.17668
0.53123	0.27871
0.17421	0.27871
-0.18282	0.02363
0.22521	-0.10391
0.88825	0.07465
-0.10631	0.32972
0.81175	0.45726
-1.25389	0.25320
0.27621	-0.23145
0.40372	-0.25695
-0.08081	-0.07840
0.32721	0.35523
-0.05531	0.53379
-0.10631	0.38074
0.22521	0.27871
0.02119	-0.20594
0.37822	-0.33348
0.17421	0.73785
0.19971	-0.05289
-0.08081	0.10015
0.40372	0.50828
0.58223	0.17668
0.50573	0.17668
-0.15732	0.10015
-0.41233	-0.18043
-0.25932	-0.05289
0.12320	0.15117
0.70974	0.38074
0.40372	0.20219
0.50573	0.20219
0.02119	-0.02739
0.32721	0.04914
-0.02981	0.20219
-0.33583	0.04914
-0.61635	0.04914
-1.02437	-0.12942
0.19971	0.15117
0.14870	0.45726
0.91375	0.35523
0.86275	0.17668
0.17421	0.12566
0.37822	0.04914
0.58223	0.15117
0.83725	0.32972
-0.10631	-0.12942
-0.25932	-0.23145
-0.71835	-0.07840
-0.82036	0.04914
-1.35589	0.04914
1.27078	0.58480
0.86275	0.38074
0.45472	0.61031
0.86275	-0.53754
1.21977	-0.30797
0.32721	0.50828
-0.31033	0.15117
-0.94787	0.10015
-0.31033	0.66132
-0.02981	0.04914
0.45472	-0.07840
-0.82036	0.22769
1.19427	0.20219
0.96476	0.43176
0.45472	0.66132
-0.43783	-0.12942
-0.48884	-0.43551
0.07220	-0.15492
0.42922	0.10015
0.12320	0.38074
0.14870	0.63582
-0.23382	0.07465
0.70974	0.04914
1.04126	0.04914
1.19427	0.15117
-0.64185	-0.00188
-1.15188	-0.07840
-0.92237	-0.02739
-0.23382	0.35523
0.07220	0.27871
0.65874	0.32972
0.81175	0.58480
0.48022	-0.25695
0.68424	0.25320
0.25071	0.04914
0.83725	0.02363
-0.00431	0.17668
-0.15732	0.25320
-0.18282	0.15117
-0.43783	0.17668
-0.18282	0.50828
0.42922	0.55929
0.17421	-0.46102
-0.28482	-0.30797
-0.05531	0.15117
0.35272	0.12566
0.07220	0.61031
1.42379	0.17668
0.55673	0.07465
-0.00431	0.50828
-0.08081	0.12566
0.02119	-0.30797
-0.00431	-0.48652
0.17421	0.32972
-0.46334	0.17668
-0.87136	0.10015
-1.04987	0.27871
0.17421	-0.12942
0.65874	0.35523
0.78624	0.78886
2.26534	0.20219
0.63323	0.25320
-0.28482	0.32972
-0.28482	0.07465
-0.13181	-0.12942
0.30171	-0.18043
0.60773	-0.41000
0.09770	0.30422
-0.05531	0.27871
-0.18282	0.25320
-0.02981	0.04914
0.37822	-0.00188
-0.08081	1.01843
0.12320	-0.35899
-0.05531	0.63582
0.12320	0.76336
0.30171	-0.74160
0.60773	-0.15492
0.35272	-0.71609
0.25071	-0.00188
0.14870	0.83988
-0.82036	0.86539
1.21977	0.83988
0.42922	0.91640
-0.41233	-0.53754
-0.38683	-0.94566
-0.25932	0.22769
-0.59084	-0.28246
1.04126	0.43176
0.63323	0.30422
-0.10631	-0.00188
0.17421	0.10015
0.19971	0.12566
0.17421	0.40625
0.07220	0.15117
-0.18282	-0.20594
-0.53984	0.12566
-1.02437	0.22769
0.40372	-0.02739
0.68424	0.40625
2.46935	0.45726
1.67880	0.43176
-0.08081	-0.00188
-0.18282	0.22769
-0.36133	-0.15492
-0.13181	0.10015
-0.28482	0.32972
-0.69285	0.38074
-0.79486	0.04914
-0.23382	-0.46102
0.42922	-0.56305
0.53123	0.35523
0.07220	0.35523
0.48022	0.10015
1.24527	0.81437
0.22521	0.35523
0.42922	0.04914
0.99026	0.10015
0.14870	0.17668
-0.31033	0.10015
-1.12638	0.10015
-0.05531	0.27871
0.02119	0.32972
0.12320	-0.81812
-0.10631	-0.05289
-0.46334	0.32972
1.42379	-0.00188
0.48022	0.12566
0.07220	0.43176
0.12320	0.32972
-0.18282	0.30422
-0.20832	0.48277
-0.13181	0.38074
-0.08081	-0.05289
0.45472	0.04914
0.42922	0.27871
-0.08081	-0.69059
0.25071	-0.76711
0.50573	0.35523
0.40372	1.01843
-0.05531	-0.12942
-0.08081	0.02363
-0.05531	0.17668
0.25071	-0.00188
0.09770	0.04914
-0.18282	0.53379
-1.43240	-0.00188
0.91375	0.35523
1.04126	-0.02739
1.80631	0.40625
1.37278	0.22769
-0.23382	0.17668
-1.25389	0.20219
-0.48884	0.17668
0.14870	-0.18043
-0.48884	-0.94566
-0.10631	0.22769
-0.46334	0.30422
-0.00431	0.43176
0.88825	0.15117
0.07220	0.07465
0.30171	0.22769
0.50573	0.27871
0.14870	0.86539
1.11776	0.66132
0.25071	-0.71609
0.53123	-0.79262
0.04670	-0.38449
0.35272	0.45726
-0.18282	0.71234
-0.46334	0.50828
-0.51434	0.53379
-0.25932	0.45726
0.02119	0.04914
0.22521	0.04914
0.55673	-0.12942
-0.20832	-1.25176
0.88825	-0.28246
0.93925	2.06425
-0.36133	-0.10391
-0.20832	-0.74160
0.48022	-0.05289
0.93925	0.38074
-0.36133	0.58480
-0.59084	0.43176
-0.36133	0.02363
0.50573	0.55929
0.73524	0.81437
0.27621	0.40625
0.12320	0.02363
0.27621	0.12566
-0.08081	-0.51203
-0.46334	-0.02739
-0.10631	-0.71609
0.14870	-0.58856
0.32721	0.38074
0.53123	0.38074
-0.10631	0.15117
0.40372	0.68683
0.35272	0.66132
0.27621	0.27871
0.14870	0.12566
-0.28482	1.40105
0.78624	-1.65988
0.27621	-0.35899
0.07220	0.50828
-0.46334	0.35523
-0.25932	0.58480
0.04670	0.27871
0.02119	0.15117
-0.76936	0.45726
0.58223	0.63582
0.63323	0.10015
0.83725	-0.15492
0.81175	-0.12942
1.24527	0.25320
0.53123	0.07465
-0.79486	0.15117
-0.84586	0.27871
-0.82036	0.27871
-0.64185	-0.46102
-0.31033	-0.81812
0.22521	0.38074
0.22521	0.94191
0.40372	0.04914
0.78624	-0.05289
1.06676	0.48277
1.09226	0.27871
0.50573	0.12566
0.22521	0.07465
-0.28482	0.38074
-0.15732	0.10015
-0.59084	0.04914
0.09770	-0.02739
-0.43783	0.27871
-0.56534	0.30422
-0.18282	0.02363
1.72980	0.04914
0.78624	0.25320
0.02119	-0.28246
-0.28482	-0.18043
0.37822	0.43176
-0.00431	0.30422
-0.74385	0.04914
0.35272	0.30422
0.48022	-0.25695
-0.53984	-0.35899
0.25071	0.20219
0.14870	0.22769
0.99026	0.58480
-0.15732	0.40625
-0.33583	0.25320
-0.10631	-0.10391
1.04126	0.02363
0.42922	0.30422
0.50573	-0.25695
0.35272	0.35523
-0.71835	0.20219
-0.74385	-0.02739
-0.46334	0.30422
0.40372	0.02363
0.76074	-0.23145
0.22521	0.38074
0.02119	0.07465
0.02119	-0.07840
-0.94787	-0.25695
0.63323	0.25320
1.16877	0.45726
0.68424	0.30422
0.40372	0.27871
0.32721	0.38074
0.27621	-0.02739
-0.00431	0.04914
-0.36133	-0.28246
-0.48884	0.15117
-0.36133	0.43176
-0.13181	-0.41000
-0.15732	-0.66508
-0.20832	0.45726
0.91375	0.55929
0.30171	0.68683
0.09770	0.58480
0.45472	0.32972
0.37822	0.32972
0.53123	-0.02739
0.88825	0.07465
-0.10631	-0.00188
-0.69285	-0.12942
-0.41233	-0.23145
-0.28482	-0.12942
0.55673	0.25320
0.73524	0.25320
0.04670	0.22769
-0.02981	0.10015
-0.15732	0.20219
-0.41233	0.07465
0.93925	0.55929
0.93925	0.12566
0.27621	0.30422
-0.08081	-0.28246
0.30171	-0.18043
-0.36133	0.27871
-0.02981	0.27871
-0.13181	-0.07840
-0.48884	0.89089
-0.13181	-0.53754
0.02119	-0.10391
1.67880	0.50828
0.42922	0.38074
-0.23382	0.17668
-0.18282	-0.20594
0.19971	0.12566
0.73524	0.27871
0.65874	0.61031
-0.00431	0.45726
-0.38683	-0.35899
-0.31033	-0.23145
-0.31033	-0.18043
0.37822	0.15117
0.09770	0.27871
-0.25932	0.04914
0.12320	0.40625
0.48022	0.45726
0.37822	-0.58856
0.02119	-0.38449
0.48022	0.15117
-0.02981	0.35523
0.73524	0.20219
1.16877	0.76336
0.32721	0.71234
-0.10631	0.20219
-0.25932	0.40625
-0.74385	-0.25695
-0.28482	-0.00188
-0.53984	-0.30797
-0.23382	-0.51203
-0.18282	-0.00188
0.83725	0.32972
0.83725	0.43176
0.68424	0.48277
0.63323	0.27871
-0.15732	-0.02739
-0.38683	0.04914
-0.25932	0.30422
0.30171	-0.05289
0.68424	0.22769
0.09770	-0.35899
-0.33583	0.32972
-0.15732	0.17668
0.68424	-0.12942
0.78624	0.53379
0.12320	0.38074
-0.08081	0.20219
-0.51434	-0.35899
0.48022	-0.05289
0.37822	-0.00188
0.04670	0.32972
-0.23382	0.40625
0.07220	0.76336
0.07220	0.12566
0.07220	-0.05289
-0.28482	-0.10391
-0.13181	0.12566
0.19971	-0.00188
1.11776	0.30422
0.58223	-0.07840
-0.38683	0.45726
1.11776	0.17668
0.63323	0.17668
-0.69285	0.02363
-0.84586	0.22769
0.14870	0.35523
0.09770	0.17668
0.48022	0.17668
0.48022	0.12566
0.14870	-0.33348
-1.61091	0.25320
0.83725	-0.05289
0.04670	-0.00188
0.12320	-0.20594
1.04126	0.55929
0.68424	0.48277
-0.15732	0.35523
-0.08081	-0.28246
-0.08081	-0.12942
-0.18282	0.17668
-0.10631	0.17668
-0.20832	0.35523
-1.15188	-0.43551
1.72980	-0.18043
0.58223	0.30422
0.17421	0.32972
0.14870	0.66132
0.02119	0.32972
0.32721	0.22769
-0.08081	0.04914
-0.18282	0.02363
-0.25932	0.04914
-0.41233	0.32972
0.91375	-0.41000
0.35272	-0.28246
-0.10631	0.40625
0.55673	1.09496
0.45472	0.94191
0.12320	-0.76711
-0.28482	-0.86914
-0.20832	0.50828
0.19971	0.15117
0.55673	0.40625
0.27621	0.94191
-0.33583	0.25320
-0.13181	0.12566
-0.38683	-0.20594
1.24527	-0.56305
-0.41233	0.32972
-0.38683	0.15117
1.04126	0.55929
0.91375	0.45726
1.14327	-0.07840
0.09770	0.10015
-0.69285	-0.46102
-0.94787	-0.07840
-0.13181	0.32972
-0.02981	0.17668
0.22521	0.02363
0.91375	0.48277
0.65874	0.35523
-0.48884	0.10015
0.42922	0.50828
-0.18282	-0.15492
-0.02981	0.30422
0.02119	0.15117
1.83181	-0.00188
0.63323	-0.07840
-0.76936	-0.23145
-0.76936	0.02363
-0.25932	-0.46102
0.22521	-0.00188
0.27621	0.53379
0.22521	0.40625
-0.15732	0.66132
0.19971	-0.07840
0.37822	-0.15492
0.88825	0.58480
0.55673	0.27871
-0.61635	0.45726
-0.59084	-0.35899
-0.33583	-0.20594
-0.18282	0.20219
0.48022	0.22769
1.11776	-0.00188
0.83725	0.10015
0.32721	-0.07840
0.14870	0.43176
-0.79486	0.22769
-0.18282	-0.05289
0.04670	0.12566
0.14870	-0.00188
0.37822	0.20219
0.50573	0.45726
0.35272	0.40625
-0.18282	-0.35899
0.12320	0.45726
-0.20832	0.07465
0.78624	0.07465
0.19971	0.20219
0.68424	-0.61406
0.17421	0.15117
-0.87136	0.10015
-0.13181	0.07465
0.40372	0.40625
-0.33583	0.53379
0.17421	0.32972
0.32721	-0.02739
0.22521	0.15117
0.32721	0.27871
0.22521	-0.30797
0.12320	0.15117
-0.00431	0.17668
-0.10631	0.10015
1.27078	0.45726
0.81175	0.43176
-0.23382	0.22769
-0.64185	-0.20594
-0.74385	-0.15492
-0.38683	0.07465
1.75531	0.20219
0.65874	0.12566
-0.15732	0.38074
-0.23382	0.55929
-0.25932	-0.00188
0.19971	-0.15492
-0.84586	0.20219
0.45472	-0.23145
0.81175	-0.20594
0.96476	0.55929
0.07220	0.83988
-0.36133	0.43176
-0.00431	-0.33348
0.35272	-0.61406
0.27621	0.27871
-0.23382	0.63582
-0.08081	-0.00188
0.09770	-0.20594
0.40372	-0.07840
0.27621	-0.00188
-0.33583	0.45726
0.07220	0.35523
0.32721	-0.05289
0.99026	0.04914
1.65330	0.27871
0.76074	0.35523
-0.61635	0.32972
-1.17738	0.15117
-0.84586	-0.07840
-0.33583	-0.43551
0.48022	0.07465
0.02119	0.25320
-0.31033	0.61031
0.32721	0.71234
0.86275	-0.23145
1.32178	-0.05289
0.19971	0.61031
0.42922	-0.38449
-0.10631	-0.25695
0.02119	0.15117
-0.20832	0.38074
-0.41233	0.32972
0.09770	0.58480
0.25071	-0.18043
0.22521	0.02363
0.70974	0.43176
0.12320	0.17668
-0.05531	0.22769
-0.38683	0.22769
-0.38683	-0.25695
-0.66735	-0.61406
0.25071	-0.38449
0.83725	0.43176
1.04126	0.94191
0.86275	0.76336
0.09770	0.25320
0.04670	0.86539
0.17421	-0.46102
-0.33583	-0.56305
-0.56534	0.04914
-0.92237	0.38074
0.73524	-0.51203
0.12320	0.04914
-0.53984	0.43176
0.30171	0.63582
0.37822	0.22769
0.17421	0.27871
1.27078	0.61031
0.50573	-0.07840
-0.10631	-0.28246
0.02119	0.20219
0.65874	0.63582
0.42922	0.38074
-0.20832	-0.02739
-0.59084	-0.25695
-0.41233	-0.20594
0.27621	0.15117
0.37822	0.50828
0.14870	0.45726
0.07220	0.20219
0.12320	-0.35899
0.70974	-0.43551
0.12320	0.40625
-1.40690	0.55929
1.44929	0.50828
0.88825	0.30422
0.32721	-0.10391
-0.38683	-0.25695
-0.66735	0.43176
-0.48884	0.12566
-0.25932	-0.05289
0.76074	0.10015
0.83725	0.40625
0.63323	0.02363
-0.02981	0.20219
-0.08081	0.20219
-0.00431	0.22769
-0.41233	0.35523
-0.08081	-0.35899
-0.20832	-0.33348
0.40372	-0.12942
1.21977	0.30422
0.27621	0.02363
-0.08081	0.35523
0.02119	0.66132
0.22521	0.45726
-0.20832	0.10015
-0.10631	-0.05289
0.04670	0.10015
0.50573	0.20219
0.09770	-0.12942
-0.10631	-0.10391
-0.13181	0.20219
0.25071	0.55929
0.58223	0.27871
0.50573	0.04914
0.58223	0.10015
0.53123	0.27871
0.12320	0.63582
-0.28482	-0.23145
-0.48884	-0.61406
-0.69285	-0.71609
-0.18282	0.40625
-0.02981	0.66132
0.81175	-0.07840
0.83725	0.10015
0.37822	0.40625
0.30171	0.45726
0.58223	0.58480
0.70974	0.30422
0.09770	-0.20594
-0.15732	-0.35899
-0.23382	0.15117
-0.41233	0.50828
-1.35589	0.35523
0.12320	0.25320
-0.00431	0.43176
-0.51434	-0.12942
1.44929	-0.07840
1.09226	-0.12942
0.63323	0.20219
-0.20832	0.35523
0.63323	0.10015
0.53123	0.45726
-0.28482	0.04914
-0.51434	0.15117
0.12320	0.10015
0.45472	0.35523
-0.08081	0.35523
-0.25932	-0.28246
-0.41233	-0.41000
0.68424	-0.10391
0.91375	0.38074
0.91375	0.94191
0.60773	0.58480
-0.05531	-0.12942
-0.48884	0.04914
-0.92237	-0.35899
-1.07538	-0.07840
0.45472	0.10015
1.16877	0.25320
0.81175	0.20219
0.25071	0.25320
-0.99887	0.32972
0.96476	0.35523
0.19971	0.12566
-0.20832	0.12566
-0.08081	0.35523
-0.18282	-0.15492
0.07220	-0.12942
0.40372	0.15117
-0.15732	0.22769
1.27078	0.35523
1.50029	-0.15492
0.40372	0.30422
-0.94787	0.30422
-1.07538	0.15117
-0.43783	-0.23145
0.12320	-0.25695
-0.41233	0.15117
-0.15732	0.89089
0.30171	0.63582
1.09226	-0.43551
0.93925	-0.43551
0.93925	0.30422
0.42922	0.45726
-0.20832	0.15117
-0.38683	0.15117
-0.69285	0.17668
-0.43783	-0.05289
-0.02981	-0.12942
0.60773	0.15117
0.09770	0.50828
0.53123	-0.07840
-0.10631	0.02363
0.02119	0.12566
0.53123	0.27871
0.02119	-0.05289
-0.59084	0.17668
1.27078	0.25320
0.53123	0.27871
-0.59084	-0.05289
-0.89686	0.22769
0.93925	0.22769
1.42379	0.32972
0.22521	0.30422
-0.76936	0.07465
-0.51434	-0.33348
-0.33583	-0.15492
-0.18282	0.22769
0.09770	0.12566
0.37822	0.30422
0.53123	0.12566
0.60773	0.53379
0.60773	0.25320
0.63323	0.22769
0.09770	0.15117
0.09770	-0.07840
-0.02981	-0.30797
0.02119	-0.05289
0.04670	0.30422
0.12320	0.63582
-0.36133	0.10015
-0.28482	0.25320
-0.05531	0.22769
0.53123	0.53379
0.58223	-0.10391
0.42922	-0.30797
0.53123	0.07465
0.12320	0.35523
-0.02981	0.20219
-0.28482	0.15117
-1.30489	0.22769
0.78624	0.10015
1.29628	0.10015
0.35272	0.15117
0.09770	0.22769
-0.10631	-0.15492
-0.18282	0.10015
-0.15732	0.25320
-0.00431	0.40625
-0.15732	0.02363
0.25071	0.10015
1.34728	0.58480
1.19427	0.10015
-0.25932	-0.15492
-0.94787	-0.07840
-0.94787	0.25320
0.19971	0.50828
0.73524	0.04914
0.30171	-0.12942
0.53123	0.15117
0.25071	0.20219
0.22521	0.32972
0.32721	0.53379
-0.02981	0.22769
-0.00431	-0.18043
-0.38683	-0.10391
-0.99887	0.02363
0.70974	0.20219
0.58223	0.15117
0.12320	0.30422
0.12320	0.22769
0.60773	0.17668
0.40372	0.25320
-0.33583	-0.12942
-0.43783	0.17668
-0.31033	-0.20594
0.19971	-0.28246
1.11776	-0.05289
0.96476	0.50828
0.09770	0.35523
-0.28482	0.25320
-0.25932	0.25320
-0.48884	0.15117
-0.28482	0.12566
0.53123	0.43176
0.12320	0.32972
0.53123	-0.76711
0.50573	-0.63957
-0.10631	-0.07840
0.14870	0.81437
0.07220	0.45726
-0.05531	0.15117
0.14870	0.53379
0.19971	0.22769
-0.59084	-0.05289
0.50573	0.17668
0.35272	0.12566
0.42922	-0.02739
0.27621	0.32972
0.60773	0.32972
0.50573	0.27871
0.02119	0.25320
0.12320	-0.10391
-0.69285	-0.35899
-0.61635	0.10015
-0.33583	0.25320
-0.05531	0.25320
0.58223	-0.30797
1.34728	-0.38449
0.45472	0.02363
0.12320	0.81437
-0.18282	0.61031
-0.02981	0.43176
-0.23382	0.30422
-0.18282	0.15117
-0.00431	-0.20594
0.17421	-0.15492
0.32721	0.22769
0.58223	0.25320
0.14870	-0.15492
1.06676	-0.00188
0.86275	0.15117
0.55673	0.35523
0.35272	0.20219
-0.53984	0.10015
-0.82036	0.15117
-1.10088	0.10015
-0.76936	-0.07840
-0.48884	-0.15492
0.91375	0.10015
0.68424	0.43176
0.96476	0.61031
1.11776	0.58480
0.35272	0.25320
-0.28482	-0.07840
-0.08081	-0.51203
-0.00431	-0.35899
-0.15732	0.15117
0.12320	0.66132
-0.28482	-0.05289
-0.28482	0.40625
0.73524	0.55929
0.32721	-0.35899
-0.05531	-0.23145
0.53123	0.22769
0.22521	0.35523
0.19971	-0.33348
0.09770	0.22769
0.30171	0.27871
0.17421	0.66132
-0.10631	-0.12942
0.45472	-0.05289
0.30171	0.22769
-0.02981	0.40625
-0.10631	0.15117
0.35272	0.22769
0.19971	-0.07840
-0.13181	0.04914
-0.46334	-0.02739
-0.25932	-0.10391
0.35272	-0.18043
1.34728	0.45726
0.68424	0.73785
0.09770	0.27871
-0.02981	0.32972
0.09770	0.07465
-0.94787	-0.02739
0.53123	-0.20594
-0.13181	-0.20594
0.30171	0.76336
0.78624	0.40625
0.60773	-0.51203
1.67880	0.78886
-0.33583	0.25320
-0.89686	0.10015
-0.71835	0.22769
-0.02981	-0.35899
-0.23382	-0.25695
-0.15732	0.20219
0.25071	0.30422
1.11776	0.71234
0.70974	0.40625
-0.13181	-0.20594
-0.20832	-0.25695
0.35272	0.02363
0.30171	0.12566
0.35272	0.35523
-0.02981	0.22769
0.02119	-0.12942
0.88825	0.38074
0.63323	0.55929
-0.20832	0.17668
-0.25932	0.02363
-0.28482	0.07465
0.04670	-0.05289
0.04670	-0.05289
-0.53984	-0.15492
-0.46334	0.12566
0.19971	0.48277
0.78624	-0.23145
1.01576	0.10015
0.81175	0.66132
0.65874	0.38074
0.40372	0.17668
0.07220	0.17668
-0.56534	-0.07840
-1.10088	-0.07840
-1.50890	0.02363
0.35272	-0.02739
0.53123	-0.20594
1.50029	0.63582
0.07220	0.43176
-0.00431	0.02363
1.21977	0.25320
0.27621	-0.02739
-0.89686	0.12566
-0.31033	0.38074
0.32721	-0.20594
1.16877	-0.30797
0.76074	0.04914
-0.43783	0.63582
-1.02437	-0.15492
-0.64185	0.45726
-0.18282	0.38074
0.50573	0.25320
0.68424	0.61031
0.65874	-0.25695
0.63323	-0.10391
0.32721	0.35523
-0.15732	0.15117
-0.02981	0.22769
0.73524	0.15117
0.68424	0.20219
0.78624	0.02363
-0.23382	0.10015
-0.38683	-0.35899
-0.59084	0.30422
-0.25932	-0.07840
0.12320	-0.10391
0.53123	0.20219
0.22521	0.61031
0.91375	0.32972
0.78624	0.53379
-0.05531	0.10015
-0.43783	0.02363
-0.82036	0.02363
-2.45246	-0.15492
0.91375	0.02363
1.78081	0.10015
0.42922	0.10015
0.07220	0.20219
0.53123	0.10015
0.63323	0.63582
0.48022	0.07465
0.32721	-0.02739
-0.61635	0.15117
-0.87136	0.12566
-0.94787	-0.48652
-0.53984	-0.18043
-0.05531	0.30422
0.53123	0.66132
0.53123	0.55929
0.88825	-0.02739
1.50029	0.15117
1.29628	0.17668
0.17421	-0.18043
-0.48884	0.04914
-0.74385	0.22769
-0.61635	0.15117
-0.28482	0.07465
-0.08081	0.38074
1.67880	0.02363
0.19971	-0.33348
0.25071	0.38074
0.02119	0.48277
-0.33583	0.04914
-0.23382	-0.10391
0.07220	0.04914
0.63323	0.55929
0.12320	0.30422
-0.41233	-0.00188
-0.25932	0.04914
0.27621	0.07465
-0.18282	0.22769
0.09770	0.02363
0.42922	-0.07840
0.68424	0.04914
0.48022	0.22769
0.53123	0.32972
0.37822	0.25320
0.63323	0.12566
0.09770	0.27871
0.17421	0.43176
-0.89686	-0.07840
0.04670	-0.05289
0.27621	0.17668
0.48022	0.02363
0.35272	0.25320
-0.05531	0.20219
-0.38683	0.02363
-0.31033	0.35523
0.14870	-0.33348
0.27621	0.04914
0.12320	0.10015
0.42922	0.04914
0.63323	0.50828
0.65874	0.38074
0.93925	0.35523
-0.38683	0.10015
0.04670	-0.18043
-0.53984	-0.20594
0.09770	0.04914
-0.05531	0.45726
-0.66735	0.12566
-0.08081	-0.35899
0.78624	0.27871
1.65330	0.48277
0.60773	0.68683
-0.56534	-0.07840
-0.38683	-0.10391
-0.25932	0.02363
-0.25932	0.20219
-0.10631	0.15117
0.09770	0.17668
0.04670	-0.00188
0.32721	0.20219
-0.00431	0.15117
0.27621	0.04914
0.35272	-0.07840
0.58223	0.12566
0.25071	0.43176
0.78624	0.55929
0.35272	0.20219
0.02119	-0.00188
0.22521	0.02363
0.22521	0.27871
0.17421	0.10015
-0.74385	0.10015
0.42922	0.20219
-0.48884	0.27871
-0.33583	-0.02739
0.42922	0.25320
-0.18282	0.38074
0.37822	0.20219
0.91375	-0.43551
0.14870	-0.33348
-0.71835	-0.10391
-0.38683	0.27871
0.68424	0.61031
0.19971	0.48277
0.27621	0.32972
-0.08081	0.10015
0.22521	0.22769
0.14870	0.12566
0.63323	0.15117
0.93925	0.17668
0.30171	0.07465
-0.28482	0.07465
-0.36133	-0.20594
-0.36133	-0.05289
-0.02981	0.20219
-0.02981	0.12566
0.19971	0.43176
0.35272	0.12566
0.48022	0.35523
0.19971	0.35523
0.07220	0.07465
0.58223	-0.12942
0.78624	0.20219
0.35272	0.25320
-0.00431	0.53379
-0.61635	0.30422
-0.69285	0.22769
-0.48884	-0.28246
0.63323	-0.41000
0.63323	-0.23145
0.73524	0.50828
0.30171	0.66132
0.02119	0.35523
0.22521	0.15117
0.14870	0.07465
-0.08081	0.02363
-0.25932	0.12566
0.48022	0.50828
0.32721	-0.15492
0.07220	0.02363
-0.56534	-0.23145
0.48022	-0.02739
0.40372	0.35523
-0.05531	-0.02739
0.19971	0.35523
0.53123	0.32972
0.63323	0.07465
0.99026	-0.25695
0.25071	0.15117
-0.33583	0.63582
-0.41233	0.32972
-0.56534	-0.33348
-0.28482	-0.00188
-0.08081	0.12566
-0.02981	-0.02739
0.73524	0.55929
0.88825	0.43176
0.73524	0.12566
-0.08081	-0.05289
0.02119	-0.02739
0.45472	0.04914
0.17421	-0.10391
-0.20832	0.17668
-0.02981	0.35523
-0.43783	-0.02739
-0.84586	0.38074
1.67880	0.25320
0.22521	0.07465
-0.00431	0.50828
-0.61635	0.22769
0.37822	-0.05289
0.17421	-0.07840
-0.15732	0.04914
0.19971	0.25320
0.91375	0.17668
0.76074	-0.07840
-0.20832	0.15117
-0.10631	0.43176
-0.13181	0.27871
0.17421	0.25320
0.12320	-0.10391
-0.48884	0.02363
-0.53984	0.32972
-0.23382	0.04914
-0.31033	-0.15492
1.78081	0.48277
0.73524	0.61031
0.30171	0.20219
0.22521	-0.41000
0.40372	-0.00188
0.25071	0.20219
-0.48884	-0.07840
-0.56534	0.22769
-0.23382	0.50828
-0.10631	0.15117
0.73524	0.25320
0.96476	-0.18043
0.88825	0.35523
-0.20832	0.43176
0.17421	-0.12942
-0.10631	-0.12942
-0.53984	-0.05289
-0.20832	0.22769
-0.00431	-0.05289
0.14870	0.45726
0.22521	0.35523
1.14327	0.61031
0.78624	-0.05289
-0.66735	-0.07840
-0.43783	-0.15492
-0.66735	0.10015
-0.15732	-0.05289
0.76074	-0.02739
1.55129	0.55929
0.73524	0.35523
-0.51434	0.71234
0.32721	-0.18043
-0.08081	-0.33348
0.22521	-0.07840
-0.28482	0.15117
-0.28482	0.32972
-0.33583	-0.00188
0.27621	0.10015
0.30171	0.30422
0.65874	0.35523
-0.02981	0.38074
0.02119	-0.25695
-0.10631	0.15117
0.19971	0.35523
0.50573	0.12566
0.25071	-0.05289
0.63323	0.40625
0.73524	-0.20594
0.07220	-0.18043
-0.15732	0.32972
0.12320	0.40625
0.12320	0.32972
0.37822	0.17668
-0.10631	0.15117
-0.02981	0.10015
0.25071	0.12566
0.42922	-0.07840
-0.05531	0.17668
-0.31033	0.02363
-0.18282	-0.05289
-0.00431	-0.05289
0.37822	0.17668
-0.05531	0.17668
0.25071	0.04914
0.37822	0.25320
0.30171	0.35523
0.30171	0.40625
-0.15732	-0.23145
0.42922	-0.23145
1.16877	0.40625
1.21977	0.63582
-0.18282	0.55929
-0.99887	0.40625
-0.89686	-0.05289
-0.23382	-0.61406
0.35272	0.04914
0.96476	0.43176
0.48022	0.15117
0.32721	-0.12942
0.04670	0.20219
-0.28482	0.30422
-0.53984	0.25320
-0.08081	0.10015
1.39828	0.30422
0.40372	0.38074
0.09770	-0.23145
1.19427	-0.10391
-0.59084	0.04914
0.27621	0.07465
-0.10631	0.20219
0.27621	0.30422
-0.51434	0.10015
-0.31033	0.40625
0.37822	-0.02739
0.19971	0.20219
-0.00431	-0.25695
-0.08081	0.22769
0.53123	0.17668
0.09770	0.35523
-0.05531	0.66132
0.04670	0.04914
0.30171	-0.71609
1.39828	0.17668
1.04126	0.83988
0.07220	0.55929
-0.48884	-0.23145
-0.51434	-0.30797
-0.28482	0.20219
0.17421	0.22769
0.42922	0.02363
0.02119	0.20219
1.09226	0.55929
0.12320	0.25320
0.14870	0.25320
-0.08081	-0.33348
0.12320	0.15117
-0.43783	0.12566
-0.61635	0.17668
-0.41233	-0.02739
0.45472	0.25320
0.17421	0.15117
0.17421	0.27871
0.45472	0.30422
1.19427	0.02363
1.32178	0.25320
0.04670	-0.12942
-0.10631	0.25320
-0.53984	0.25320
-0.18282	0.12566
-0.94787	0.07465
1.19427	-0.07840
0.86275	0.27871
-0.10631	0.45726
-0.51434	-0.02739
-1.02437	0.40625
0.22521	0.40625
0.48022	-0.10391
0.14870	0.04914
0.60773	0.43176
0.63323	0.15117
0.83725	0.35523
0.68424	0.43176
-0.02981	0.10015
-0.66735	-0.15492
-0.41233	-0.43551
-0.23382	-0.35899
0.60773	0.17668
0.09770	0.58480
0.17421	0.32972
0.68424	0.10015
0.81175	0.04914
-0.05531	0.25320
0.02119	0.53379
-0.15732	0.35523
-0.31033	0.15117
-0.41233	0.15117
-0.20832	-0.02739
0.12320	-0.00188
-0.05531	0.30422
-0.28482	0.20219
-0.33583	0.10015
1.67880	-0.30797
2.13783	-0.02739
0.50573	0.50828
-0.23382	0.27871
0.07220	0.07465
-0.10631	0.10015
0.86275	0.20219
-0.05531	0.27871
-0.43783	0.40625
-0.46334	0.32972
-0.51434	-0.25695
-1.55991	-0.00188
1.67880	0.20219
0.48022	-0.18043
-0.33583	0.04914
-0.15732	0.27871
0.50573	0.55929
0.55673	0.20219
0.53123	0.20219
-0.46334	0.04914
0.50573	0.30422
1.75531	0.17668
0.53123	-0.02739
0.12320	0.12566
-0.61635	0.17668
-0.48884	0.20219
0.25071	0.12566
0.37822	0.04914
-0.15732	0.25320
-0.69285	0.25320
-0.43783	0.35523
-0.08081	-0.07840
0.22521	0.10015
0.76074	0.07465
1.04126	-0.15492
-0.08081	0.35523
-0.46334	0.35523
0.50573	0.04914
0.04670	0.02363
-0.25932	0.35523
0.81175	0.20219
1.83181	-0.30797
2.06133	0.12566
-0.31033	0.10015
-1.07538	0.25320
-1.43240	0.73785
-1.71292	-0.05289
-0.74385	-0.66508
-0.13181	-0.33348
0.81175	0.38074
0.35272	0.61031
0.96476	0.35523
0.45472	-0.02739
0.37822	0.22769
-1.27939	0.07465
1.75531	0.22769
0.65874	0.04914
-0.02981	0.12566
-0.25932	-0.00188
-0.00431	0.27871
0.19971	0.20219
0.30171	-0.05289
0.14870	0.20219
0.30171	0.35523
0.02119	-0.02739
-1.33039	0.30422
0.88825	0.25320
0.07220	-0.25695
-0.02981	-0.07840
-0.13181	0.22769
-0.31033	0.17668
0.32721	0.32972
0.40372	0.30422
0.53123	0.22769
0.40372	0.20219
-0.71835	-0.15492
-0.13181	0.30422
0.50573	0.07465
1.01576	0.45726
0.58223	0.50828
0.27621	-0.00188
-0.13181	-0.56305
-0.76936	-0.12942
-0.20832	0.12566
0.25071	0.04914
0.25071	0.30422
0.37822	0.45726
0.12320	0.55929
-0.20832	0.15117
-0.08081	-0.33348
1.50029	0.04914
0.30171	0.02363
-0.10631	0.30422
-0.23382	0.78886
1.01576	0.43176
0.19971	-0.23145
0.19971	-0.18043
-0.08081	-0.00188
-0.31033	0.10015
-0.23382	0.27871
-0.00431	0.30422
0.02119	0.10015
-0.84586	-0.12942
0.58223	-0.05289
0.83725	-0.05289
0.27621	0.32972
-0.61635	0.07465
0.78624	0.32972
0.09770	0.27871
0.09770	0.25320
0.27621	0.04914
0.65874	0.35523
0.65874	0.30422
0.25071	0.10015
-0.20832	-0.02739
-0.53984	-0.10391
-0.15732	0.15117
0.14870	0.04914
-0.05531	0.55929
0.63323	0.32972
0.17421	0.10015
-0.38683	-0.15492
0.04670	0.04914
1.11776	0.45726
0.70974	-0.25695
0.02119	0.04914
-0.48884	0.43176
-0.66735	0.22769
-0.20832	0.38074
0.14870	0.12566
0.25071	0.35523
0.27621	-0.10391
0.25071	0.07465
0.27621	-0.02739
1.21977	0.15117
0.42922	0.10015
0.35272	0.30422
0.42922	0.15117
-0.02981	0.15117
-0.05531	0.17668
-0.20832	0.20219
-0.05531	0.25320
-0.87136	0.15117
-0.66735	0.15117
-0.02981	0.04914
0.42922	-0.18043
0.63323	0.17668
0.55673	0.43176
0.04670	0.78886
0.86275	-0.20594
-0.48884	-0.25695
0.73524	0.02363
0.32721	0.25320
-0.43783	0.12566
-0.38683	0.45726
-0.51434	0.15117
1.06676	-0.05289
0.93925	-0.05289
-0.05531	0.35523
-0.51434	0.30422
-0.20832	0.20219
1.06676	0.32972
0.32721	0.10015
-0.13181	0.10015
0.12320	-0.05289
-0.48884	-0.02739
-0.08081	-0.02739
0.12320	0.10015
0.25071	0.35523
0.19971	0.50828
0.96476	0.20219
0.91375	-0.53754
0.35272	-0.07840
0.14870	0.38074
-0.36133	0.30422
-0.33583	0.25320
-0.48884	0.22769
-0.20832	0.30422
-0.31033	0.15117
0.58223	0.25320
-0.00431	0.07465
0.68424	0.12566
1.01576	0.04914
0.32721	0.50828
-0.00431	-0.41000
0.09770	-0.48652
-0.48884	0.22769
-0.28482	0.17668
0.50573	0.35523
0.09770	0.78886
0.09770	0.55929
-0.69285	-0.07840
0.76074	-0.15492
0.02119	-0.12942
0.09770	-0.05289
0.65874	0.45726
0.68424	0.15117
0.60773	0.25320
-0.08081	0.25320
-0.84586	0.15117
-0.15732	0.17668
-0.92237	0.10015
0.70974	-0.00188
1.11776	0.27871
0.83725	0.61031
-0.13181	0.20219
-0.23382	-0.23145
-0.23382	-0.05289
-0.08081	-0.10391
-0.15732	0.35523
-0.18282	0.40625
0.25071	0.25320
0.60773	0.22769
0.88825	0.17668
0.73524	0.02363
0.37822	0.20219
-0.33583	0.15117
-0.82036	0.25320
-0.15732	0.35523
0.09770	-0.07840
0.93925	-0.25695
-0.87136	-0.05289
0.93925	0.15117
0.58223	0.04914
-0.61635	0.15117
-0.69285	0.07465
-0.02981	0.17668
0.50573	0.63582
0.42922	0.63582
0.48022	0.15117
1.09226	0.30422
0.48022	0.07465
0.02119	0.10015
0.17421	0.04914
0.19971	-0.10391
-0.69285	-0.28246
-0.02981	0.22769
-0.13181	0.10015
-0.00431	0.43176
0.22521	0.25320
-0.38683	0.12566
1.37278	0.17668
0.73524	0.20219
-0.20832	0.27871
-0.41233	-0.35899
0.09770	0.02363
0.58223	0.76336
0.19971	0.20219
0.42922	0.61031
0.35272	0.04914
0.88825	-0.69059
0.25071	0.04914
-0.66735	0.10015
-0.89686	0.10015
-0.61635	0.45726
-0.08081	0.35523
0.12320	0.02363
0.50573	0.10015
0.73524	0.22769
0.78624	0.35523
0.60773	0.30422
0.32721	0.22769
0.17421	0.02363
0.25071	-0.38449
0.09770	-0.25695
0.04670	0.07465
-0.41233	0.15117
-0.38683	0.38074
-1.25389	0.12566
1.04126	0.58480
0.68424	0.32972
-0.25932	0.04914
-0.20832	0.04914
0.19971	-0.02739
0.25071	-0.02739
0.93925	-0.00188
1.11776	-0.07840
0.32721	0.25320
-0.31033	0.45726
1.78081	0.22769
0.22521	0.43176
-1.94243	0.25320
-1.43240	-0.25695
-0.79486	-0.56305
-0.51434	-0.18043
0.37822	0.20219
0.86275	0.43176
1.47479	0.50828
1.78081	0.32972
0.40372	0.35523
-1.02437	-0.20594
-0.79486	-0.00188
-0.15732	0.04914
0.09770	0.35523
0.60773	0.40625
0.60773	0.12566
0.96476	0.02363
0.45472	0.07465
0.09770	0.40625
-0.41233	-0.02739
-0.64185	0.17668
-0.48884	0.12566
-0.13181	-0.07840
0.04670	0.17668
-0.28482	0.22769
1.32178	-0.23145
0.37822	0.12566
0.40372	0.50828
0.22521	0.32972
0.12320	0.50828
-1.35589	-0.56305
1.16877	-0.38449
2.13783	0.38074
0.78624	0.45726
-0.53984	0.30422
-0.79486	0.40625
-0.13181	0.15117
0.09770	0.02363
0.27621	0.15117
0.40372	0.12566
-0.69285	0.04914
-1.58541	-0.00188
0.42922	0.02363
1.80631	0.15117
1.75531	0.30422
-2.78398	-0.05289
1.34728	-0.28246
1.11776	0.32972
-0.99887	0.53379
-0.92237	0.35523
-0.28482	0.43176
0.22521	0.07465
0.63323	0.12566
0.70974	-0.07840
0.65874	-0.05289
0.27621	0.12566
-0.08081	0.25320
-2.14644	0.35523
2.62236	0.12566
0.78624	-0.02739
-0.18282	0.38074
-0.53984	0.48277
-1.02437	-0.15492
-0.43783	-0.28246
-0.10631	0.12566
-0.08081	0.45726
0.37822	0.15117
0.96476	0.27871
0.30171	-0.00188
0.73524	-0.35899
0.32721	0.50828
-0.38683	0.63582
0.04670	0.30422
0.37822	0.15117
0.63323	-0.00188
0.17421	-0.05289
-0.36133	0.10015
-0.10631	0.40625
0.19971	0.04914
0.25071	-0.56305
0.27621	-0.30797
0.96476	0.61031
0.45472	0.30422
-0.84586	0.25320
0.32721	-0.07840
-0.51434	0.25320
-0.82036	0.38074
-0.41233	0.27871
0.40372	0.25320
0.91375	-0.00188
0.70974	0.04914
-0.18282	0.04914
0.04670	0.17668
-0.05531	0.17668
0.35272	0.20219
1.24527	0.25320
0.53123	0.20219
-0.13181	-0.35899
-0.08081	-0.05289
-0.10631	0.35523
-0.10631	0.22769
0.17421	0.12566
-0.02981	0.12566
0.09770	0.50828
0.04670	0.22769
-1.71292	-0.07840
1.98482	0.04914
1.95932	0.22769
-0.13181	0.15117
-0.46334	0.20219
-0.48884	0.15117
0.53123	0.35523
0.25071	-0.02739
-0.25932	0.12566
-0.53984	-0.00188
-0.36133	0.15117
-0.13181	0.15117
0.73524	-0.00188
1.04126	0.38074
1.65330	0.73785
-0.08081	-0.20594
-0.74385	-0.20594
-0.51434	0.32972
-0.20832	-0.02739
0.02119	0.07465
-0.13181	0.40625
0.14870	0.40625
0.63323	0.15117
1.01576	0.17668
0.68424	0.43176
0.04670	-0.00188
-0.28482	0.02363
-0.69285	0.12566
-0.71835	0.22769
0.37822	-0.00188
0.40372	-0.33348
1.04126	0.35523
0.25071	-0.05289
0.14870	0.07465
-0.23382	0.63582
-0.13181	0.20219
0.30171	0.25320
0.65874	0.15117
0.42922	-0.05289
-0.94787	-0.05289
-0.46334	-0.15492
0.70974	0.27871
0.45472	0.40625
-0.18282	0.38074
0.37822	0.10015
-0.05531	-0.20594
0.22521	0.07465
1.27078	0.30422
0.68424	-0.05289
0.02119	0.20219
-0.38683	0.38074
-0.48884	0.25320
-0.10631	0.27871
-0.10631	0.35523
0.09770	-0.18043
0.53123	-0.35899
0.60773	0.15117
0.04670	0.32972
0.09770	0.30422
0.12320	-0.25695
0.09770	-0.15492
-0.08081	0.12566
-0.10631	0.25320
0.25071	0.48277
0.35272	0.17668
0.40372	0.22769
0.40372	0.04914
-0.00431	0.32972
-0.51434	-0.00188
-0.08081	0.22769
0.17421	0.30422
0.25071	-0.02739
0.63323	-0.00188
0.60773	0.22769
0.35272	0.17668
0.12320	0.22769
-0.00431	0.04914
-0.69285	-0.25695
-0.48884	0.10015
-0.23382	0.12566
0.22521	0.25320
0.27621	0.32972
0.53123	0.25320
0.96476	0.27871
0.70974	-0.05289
0.91375	0.40625
0.50573	0.63582
0.70974	-0.05289
0.58223	-0.02739
-0.76936	-0.07840
-1.22839	-0.35899
-0.97337	-0.20594
-0.33583	0.25320
0.70974	0.66132
-0.20832	0.35523
1.09226	0.17668
0.30171	0.27871
-0.05531	0.12566
-2.32496	0.12566
2.41835	0.22769
1.11776	0.27871
-0.13181	-0.07840
0.40372	-0.25695
0.30171	0.43176
0.19971	0.38074
-0.10631	0.15117
-0.51434	-0.25695
0.04670	-0.02739
-0.23382	0.25320
-0.28482	0.15117
-0.15732	0.22769
0.17421	0.02363
0.65874	0.30422
0.42922	0.07465
0.22521	0.38074
0.58223	0.17668
0.32721	-0.05289
-0.02981	0.04914
-0.18282	0.22769
-0.31033	0.17668
-0.43783	-0.07840
0.63323	-0.15492
0.45472	0.45726
-0.05531	0.25320
-0.13181	0.22769
0.04670	0.25320
-0.51434	-0.30797
0.68424	0.32972
1.50029	0.35523
0.37822	0.02363
0.25071	0.10015
0.07220	0.55929
-0.20832	0.07465
-0.00431	0.17668
0.04670	0.35523
0.09770	0.35523
-0.53984	-0.23145
-0.94787	-0.35899
-0.10631	0.35523
0.63323	0.07465
1.39828	0.12566
1.14327	0.07465
0.12320	0.27871
-3.09000	0.58480
3.15790	0.53379
1.11776	-0.02739
-0.48884	-0.20594
-0.00431	-0.25695
0.30171	0.12566
-0.05531	0.20219
-0.48884	0.15117
-0.38683	0.32972
-0.48884	0.17668
-0.66735	-0.10391
-0.31033	0.27871
0.17421	0.22769
0.37822	-0.05289
0.63323	0.12566
0.91375	0.20219
0.37822	0.10015
1.39828	0.25320
0.04670	0.15117
0.63323	0.27871
0.73524	0.25320
0.32721	0.61031
-0.38683	0.10015
-0.15732	-0.07840
0.22521	-0.15492
0.07220	-0.28246
-0.00431	-0.33348
-0.51434	0.04914
-0.61635	0.35523
-0.38683	0.35523
-0.23382	0.15117
0.04670	0.20219
0.07220	0.32972
0.48022	0.40625
1.19427	0.15117
1.32178	0.07465
1.19427	0.12566
0.53123	0.38074
0.25071	0.30422
-0.74385	-0.38449
-0.61635	0.02363
-0.48884	0.27871
-0.10631	0.53379
-0.28482	0.27871
0.12320	0.43176
0.32721	-0.18043
0.53123	0.12566
0.73524	0.27871
0.25071	0.15117
0.93925	0.04914
0.32721	0.32972
-0.20832	0.38074
-0.05531	0.38074
0.09770	0.10015
0.48022	-0.02739
0.07220	-0.07840
-0.10631	-0.10391
0.09770	0.25320
-0.02981	0.04914
-0.33583	0.35523
-0.00431	0.50828
0.42922	0.15117
-0.66735	0.25320
-0.18282	0.02363
0.40372	0.02363
1.21977	-0.00188
0.63323	0.17668
-0.33583	0.10015
-0.23382	0.38074
-0.23382	-0.00188
1.24527	-0.10391
0.63323	0.38074
-0.00431	0.53379
0.35272	0.12566
-0.10631	-0.10391
-0.23382	0.43176
-0.69285	-0.25695
-0.71835	-0.15492
-0.38683	0.17668
-0.02981	0.43176
0.65874	0.45726
0.99026	0.17668
1.04126	0.15117
0.63323	0.20219
0.22521	0.20219
0.22521	-0.00188
0.19971	-0.07840
-0.00431	-0.02739
-0.31033	0.25320
-0.08081	0.32972
-0.43783	-0.02739
-0.25932	-0.18043
0.22521	0.22769
0.30171	0.15117
0.12320	-0.05289
-0.02981	0.40625
0.40372	0.20219
0.35272	0.43176
0.53123	0.15117
0.35272	-0.00188
0.25071	-0.23145
0.17421	0.61031
-0.10631	0.12566
0.14870	-0.38449
0.78624	0.40625
-0.10631	0.25320
-0.59084	0.10015
0.22521	-0.12942
0.02119	0.17668
-0.28482	0.25320
0.42922	0.55929
-0.08081	0.25320
-0.13181	0.15117
0.25071	-0.00188
0.60773	-0.25695
0.50573	0.15117
0.50573	0.15117
0.30171	0.07465
0.17421	0.15117
-0.33583	0.38074
-0.36133	0.38074
-0.00431	-0.18043
-0.20832	-0.33348
0.58223	0.17668
0.83725	0.73785
0.42922	-0.02739
-0.53984	-0.30797
0.14870	0.38074
0.30171	0.40625
-0.13181	0.04914
-0.13181	0.04914
0.12320	0.04914
0.50573	0.15117
0.27621	0.10015
-0.02981	0.12566
0.04670	0.12566
0.14870	0.32972
0.12320	-0.20594
0.09770	-0.02739
0.42922	0.17668
0.58223	0.73785
-0.18282	0.12566
0.30171	0.10015
0.12320	-0.05289
-0.18282	0.25320
-0.08081	0.22769
0.09770	-0.05289
0.27621	0.27871
0.48022	-0.07840
0.12320	0.15117
0.07220	0.12566
-0.87136	0.17668
0.83725	0.27871
1.29628	0.30422
0.58223	0.02363
-0.43783	0.04914
-0.02981	0.63582
0.14870	0.17668
0.14870	0.12566
-0.23382	0.12566
-0.13181	0.15117
-0.00431	0.15117
0.40372	0.15117
0.32721	0.22769
0.12320	-0.05289
0.12320	0.07465
0.04670	0.27871
0.37822	0.07465
0.09770	0.27871
0.07220	0.27871
0.35272	0.35523
0.07220	-0.18043
0.30171	-0.07840
1.04126	0.40625
0.32721	0.10015
-0.69285	-0.12942
-0.94787	0.07465
0.88825	0.45726
0.25071	0.20219
-0.05531	0.32972
-0.38683	0.07465
-0.00431	0.02363
0.45472	0.40625
0.22521	0.22769
0.30171	0.07465
-0.23382	-0.61406
-0.41233	-0.51203
-0.18282	0.25320
0.48022	0.50828
0.63323	0.48277
1.47479	0.66132
0.88825	0.66132
-0.18282	0.25320
-0.25932	-0.05289
-0.41233	-0.25695
-0.28482	-0.07840
-0.08081	0.07465
0.25071	-0.07840
0.73524	0.17668
0.78624	0.30422
0.53123	-0.02739
-0.46334	0.22769
-0.56534	0.55929
-0.10631	0.27871
-0.05531	-0.02739
-0.08081	-0.41000
0.09770	0.02363
0.14870	0.22769
0.50573	0.43176
0.27621	0.58480
1.09226	0.35523
0.42922	0.17668
-0.05531	-0.10391
-0.33583	-0.00188
-0.08081	-0.07840
0.04670	0.07465
-0.20832	0.15117
-0.46334	0.40625
0.53123	0.50828
0.07220	-0.35899
0.48022	-0.02739
-0.02981	0.40625
0.02119	0.25320
0.53123	0.15117
0.60773	0.20219
-0.00431	0.12566
-0.28482	-0.07840
-0.08081	0.12566
0.50573	0.32972
0.45472	0.50828
-0.02981	0.20219
-0.48884	0.12566
-0.36133	0.07465
-0.25932	0.10015
0.04670	-0.02739
1.04126	-0.15492
0.96476	-0.12942
0.68424	0.55929
0.02119	0.04914
0.09770	0.35523
0.07220	0.32972
-0.10631	0.17668
-0.20832	-0.05289
-0.23382	0.07465
-0.87136	0.43176
0.70974	0.32972
1.09226	-0.23145
0.42922	-0.46102
0.42922	0.53379
0.27621	0.02363
-0.15732	0.15117
-0.00431	0.43176
-0.25932	0.35523
-0.51434	0.04914
0.02119	0.02363
0.07220	0.35523
0.35272	0.10015
0.40372	0.20219
0.50573	0.20219
0.32721	-0.12942
-0.02981	-0.05289
-0.08081	0.30422
0.22521	0.27871
0.25071	0.12566
0.09770	0.48277
0.83725	0.17668
0.32721	-0.18043
-0.18282	-0.05289
0.02119	0.10015
-0.00431	-0.05289
0.27621	0.32972
0.42922	0.48277
0.60773	0.68683
-0.05531	0.25320
-0.13181	-0.18043
-0.43783	-0.23145
-0.33583	-0.10391
-0.31033	-0.25695
-0.53984	0.04914
0.22521	0.20219
1.14327	0.10015
1.37278	0.20219
0.42922	0.27871
0.76074	0.76336
0.02119	0.38074
-0.51434	-0.33348
-0.61635	-0.02739
-0.10631	0.22769
0.32721	-0.18043
0.32721	0.07465
0.25071	0.04914
-0.20832	0.07465
-0.28482	0.30422
-0.10631	0.30422
0.14870	0.58480
0.45472	0.58480
0.32721	-0.41000
0.14870	-0.33348
0.60773	0.30422
0.73524	0.22769
1.01576	0.43176
0.04670	0.10015
-0.28482	0.40625
-0.38683	-0.35899
0.09770	0.17668
0.35272	-0.18043
0.40372	-0.10391
-0.79486	0.07465
-0.53984	0.43176
-0.05531	0.27871
-0.20832	0.22769
0.63323	0.17668
0.78624	0.22769
0.25071	0.17668
0.22521	0.35523
-0.02981	0.25320
1.52579	0.25320
0.68424	-0.07840
-0.38683	0.10015
-0.69285	-0.02739
-0.41233	0.04914
0.14870	0.43176
0.45472	-0.00188
0.37822	-0.15492
0.63323	0.15117
0.83725	0.22769
0.35272	-0.05289
0.14870	0.55929
-0.43783	0.38074
-0.46334	0.25320
-0.25932	0.04914
-0.13181	-0.00188
-0.20832	0.10015
-0.05531	0.02363
-0.20832	-0.15492
1.09226	0.12566
0.68424	-0.02739
0.55673	0.58480
0.40372	0.43176
0.63323	-0.10391
0.14870	-0.00188
-0.08081	0.27871
-0.02981	-0.00188
0.12320	0.04914
-0.05531	-0.05289
-0.10631	0.20219
-0.28482	0.12566
0.04670	0.45726
0.09770	0.17668
-0.08081	0.17668
0.40372	0.12566
0.17421	0.15117
0.12320	0.04914
-0.13181	0.02363
0.32721	0.07465
0.25071	0.10015
0.45472	0.15117
0.40372	0.17668
0.42922	0.15117
0.70974	0.12566
0.12320	0.38074
0.09770	0.40625
-0.31033	-0.25695
-0.41233	0.25320
-0.25932	-0.02739
-0.23382	-0.12942
-0.13181	0.10015
-0.02981	0.30422
0.60773	0.45726
0.60773	0.20219
1.09226	0.40625
0.68424	0.22769
0.25071	0.35523
-0.18282	-0.41000
-1.17738	0.04914
1.32178	-0.02739
0.55673	0.04914
0.19971	0.38074
-0.33583	0.20219
-0.66735	0.25320
-0.31033	0.15117
-0.43783	0.04914
-0.25932	0.02363
-0.05531	0.07465
0.04670	0.25320
0.88825	-0.10391
1.19427	-0.05289
1.29628	0.35523
0.25071	0.48277
0.45472	0.32972
-0.46334	0.04914
-0.76936	0.07465
-0.48884	0.10015
-0.10631	0.20219
0.27621	0.25320
0.07220	0.04914
-0.20832	-0.12942
0.04670	0.04914
0.17421	0.15117
0.37822	0.50828
0.88825	0.55929
1.11776	-0.20594
1.06676	-0.05289
-0.05531	0.25320
-0.53984	0.30422
-0.64185	0.17668
-0.53984	-0.05289
-0.13181	0.04914
-0.00431	0.17668
0.14870	0.30422
0.25071	0.25320
-0.20832	0.04914
0.02119	-0.28246
1.14327	0.17668
0.40372	0.07465
0.35272	0.38074
0.65874	0.02363
0.50573	0.04914
0.60773	0.40625
-0.28482	0.25320
-0.56534	0.07465
-0.59084	-0.15492
-0.28482	0.20219
0.17421	0.25320
0.35272	0.35523
0.04670	0.55929
-0.82036	-0.35899
0.07220	-0.51203
0.32721	-0.07840
1.37278	0.40625
1.14327	0.86539
0.14870	-0.05289
-0.10631	0.10015
-0.28482	0.17668
-0.64185	-0.00188
-0.46334	0.25320
-0.28482	-0.10391
0.30171	-0.02739
0.83725	0.38074
1.21977	0.12566
0.93925	0.17668
0.32721	0.38074
-0.53984	0.17668
0.02119	0.10015
-0.31033	-0.15492
-0.71835	-0.05289
0.27621	0.45726
0.83725	0.17668
0.17421	0.27871
0.48022	-0.05289
0.25071	0.02363
0.12320	0.35523
0.19971	0.20219
0.07220	0.25320
0.12320	0.22769
0.09770	0.04914
-0.05531	-0.07840
0.14870	0.25320
0.22521	-0.12942
0.45472	0.15117
-0.08081	0.55929
0.09770	0.07465
0.40372	-0.00188
0.02119	0.43176
0.35272	0.27871
-0.25932	-0.05289
0.48022	0.22769
-0.10631	0.12566
0.37822	0.30422
0.81175	0.20219
0.30171	-0.10391
0.14870	0.10015
-0.66735	0.35523
-0.79486	0.35523
-0.84586	0.04914
0.32721	0.20219
-0.46334	0.04914
1.44929	0.15117
0.93925	0.15117
0.14870	0.61031
0.40372	0.27871
0.83725	-0.43551
0.53123	0.20219
-0.31033	0.22769
-0.69285	0.43176
-0.31033	-0.23145
0.32721	-0.43551
1.04126	0.25320
0.25071	0.50828
-0.10631	0.35523
-0.28482	0.12566
-0.15732	0.15117
-0.59084	-0.05289
-0.20832	0.12566
-0.43783	-0.10391
1.80631	0.40625
1.55129	-0.05289
-0.25932	-0.02739
-0.18282	0.15117
-0.15732	-0.00188
-0.66735	0.17668
-0.25932	0.15117
0.42922	0.12566
0.65874	0.12566
0.83725	0.43176
-0.18282	0.10015
-0.48884	0.20219
-0.38683	0.04914
-0.08081	-0.07840
0.73524	-0.18043
0.63323	0.32972
0.96476	0.35523
0.48022	0.25320
-0.74385	-0.10391
0.19971	0.17668
0.09770	0.10015
-0.08081	0.22769
