0.12320	0.27871
0.04670	0.25320
0.02119	0.15117
0.02119	0.17668
0.09770	0.15117
0.17421	0.15117
0.27621	0.15117
0.19971	0.15117
0.17421	0.10015
0.09770	0.17668
0.07220	0.15117
0.09770	0.20219
0.14870	0.12566
0.09770	0.12566
0.09770	0.17668
0.19971	0.17668
0.25071	0.12566
0.19971	0.12566
0.17421	0.07465
0.07220	-0.05289
0.09770	0.20219
0.14870	0.30422
0.14870	0.22769
0.02119	0.20219
0.04670	0.15117
0.12320	0.04914
0.27621	0.12566
0.27621	0.20219
0.19971	0.02363
0.12320	-0.00188
0.07220	0.12566
0.12320	0.17668
0.12320	0.15117
0.07220	0.32972
0.09770	0.27871
0.07220	0.15117
0.22521	-0.00188
0.19971	0.04914
0.27621	0.07465
0.22521	0.15117
0.12320	0.25320
0.04670	0.25320
0.04670	0.17668
0.07220	0.15117
0.09770	0.20219
0.14870	0.22769
0.27621	0.10015
0.27621	0.02363
0.19971	-0.00188
0.09770	0.15117
0.12320	0.22769
0.19971	0.22769
0.09770	0.12566
-0.00431	0.20219
0.07220	0.22769
0.22521	0.04914
0.27621	0.07465
0.14870	0.02363
0.12320	0.12566
0.14870	0.27871
0.14870	0.07465
0.07220	0.10015
0.07220	0.20219
0.02119	0.10015
0.12320	0.17668
0.22521	0.22769
0.22521	0.07465
0.12320	0.04914
0.14870	-0.02739
0.22521	0.07465
0.17421	0.17668
0.12320	0.17668
0.02119	0.17668
0.04670	0.22769
0.14870	0.20219
0.25071	0.10015
0.22521	0.04914
0.17421	0.10015
0.22521	0.12566
0.14870	0.15117
0.17421	0.15117
0.09770	0.20219
0.02119	0.17668
0.07220	0.12566
0.14870	0.25320
0.17421	0.15117
0.27621	0.07465
0.14870	0.04914
0.12320	-0.05289
0.12320	0.04914
0.17421	0.20219
0.12320	0.32972
0.12320	0.25320
0.04670	0.15117
0.02119	0.10015
0.14870	0.22769
0.27621	0.12566
0.30171	0.07465
0.19971	0.02363
0.09770	0.02363
0.09770	0.15117
0.17421	0.25320
0.12320	0.20219
-0.00431	0.17668
0.07220	0.04914
0.14870	0.07465
0.27621	0.22769
0.17421	0.15117
0.17421	0.04914
0.12320	-0.00188
0.12320	0.15117
0.17421	0.25320
0.14870	0.25320
0.14870	0.22769
0.07220	0.12566
0.12320	0.04914
0.19971	0.10015
0.27621	0.20219
0.27621	0.07465
0.17421	0.15117
0.04670	0.07465
0.02119	0.15117
0.17421	0.25320
0.04670	0.04914
0.07220	0.22769
0.07220	0.22769
0.22521	0.07465
0.22521	0.17668
0.19971	0.04914
0.12320	-0.05289
0.09770	0.07465
0.07220	0.17668
0.17421	0.25320
0.04670	0.30422
-0.00431	0.12566
0.17421	0.15117
0.30171	0.10015
0.25071	0.12566
0.19971	0.10015
0.12320	0.07465
0.12320	0.22769
0.12320	0.22769
0.04670	0.22769
-0.00431	0.15117
0.09770	0.10015
0.25071	0.10015
0.22521	0.15117
0.22521	0.17668
0.12320	0.10015
0.12320	0.15117
0.12320	0.20219
0.17421	0.15117
0.17421	0.12566
0.12320	0.12566
0.17421	0.17668
0.22521	0.12566
0.17421	0.12566
0.19971	0.15117
0.22521	0.04914
0.14870	0.10015
0.04670	0.15117
0.12320	0.22769
0.17421	0.25320
0.04670	0.27871
0.02119	0.17668
0.07220	0.10015
0.17421	0.04914
0.19971	-0.00188
0.27621	0.04914
0.14870	0.17668
0.07220	0.22769
0.12320	0.30422
-0.00431	0.07465
0.02119	0.10015
0.12320	0.15117
0.25071	0.22769
0.25071	0.17668
0.17421	0.20219
0.14870	0.10015
0.12320	-0.02739
0.09770	0.07465
0.22521	0.17668
0.17421	0.25320
0.02119	0.15117
-0.10631	0.32972
0.12320	0.17668
0.19971	0.07465
0.17421	0.02363
0.12320	0.25320
0.12320	0.25320
0.30171	0.15117
0.12320	0.17668
0.19971	0.15117
-0.00431	0.02363
0.02119	0.22769
0.09770	0.38074
0.53123	0.20219
0.25071	0.10015
0.27621	-0.23145
-0.20832	0.12566
-0.41233	0.02363
0.25071	0.35523
0.27621	-0.18043
0.60773	0.20219
0.22521	-0.00188
0.42922	0.76336
0.50573	0.12566
-0.51434	-0.05289
-0.56534	0.27871
-0.08081	0.32972
0.04670	0.50828
0.02119	0.61031
-0.28482	-0.30797
1.29628	0.15117
0.81175	0.27871
0.30171	-0.18043
0.07220	-0.76711
-0.36133	-0.71609
0.45472	-0.30797
-0.51434	0.81437
0.99026	0.73785
-1.66191	0.25320
1.37278	1.22250
0.91375	1.68163
-0.56534	-0.20594
-0.66735	-1.76191
-0.82036	-1.04770
0.53123	0.30422
0.99026	0.38074
-0.13181	0.32972
-4.41609	-0.02739
4.45848	2.16628
3.56592	0.15117
-0.89686	-0.15492
2.54586	-0.58856
0.93925	-0.84363
-1.66191	-0.25695
-4.33958	0.55929
-7.37428	1.27351
-1.30489	0.73785
9.07428	0.17668
4.50948	-0.41000
-0.69285	-0.69059
-2.22295	0.25320
-1.12638	0.53379
-4.44159	0.43176
-0.25932	0.17668
7.54418	0.50828
10.98690	0.04914
-1.10088	0.30422
-6.78774	0.55929
-4.44159	-0.15492
-0.23382	-0.97117
0.48022	-0.53754
0.19971	-0.46102
0.25071	0.55929
0.42922	0.55929
-3.37052	0.30422
0.78624	0.83988
6.52411	0.15117
0.55673	-0.63957
-3.37052	-0.30797
6.03958	0.43176
-0.28482	0.40625
-2.09544	0.73785
-5.43616	0.43176
0.63323	0.02363
-0.20832	0.35523
2.57136	1.96222
0.96476	0.99292
-1.96793	-1.60887
-5.28315	-1.71090
3.43841	-0.79262
4.68799	-0.25695
2.36734	0.71234
-2.40146	0.68683
-0.82036	1.63062
-0.46334	0.81437
1.70430	-0.12942
-3.21751	-0.43551
1.52579	0.30422
1.24527	0.04914
4.56049	-0.10391
-2.01894	0.02363
-3.60004	0.07465
-1.96793	0.04914
-1.35589	0.58480
-0.00431	0.22769
1.19427	-0.35899
-1.94243	-1.12422
3.23440	-0.25695
7.23816	0.86539
1.57679	1.35003
-2.98800	0.15117
-3.24301	0.27871
1.44929	0.07465
0.83725	0.89089
-1.15188	-0.28246
-0.64185	-0.51203
2.57136	-0.20594
0.19971	0.22769
-0.15732	-0.51203
-0.66735	0.53379
-1.91693	0.83988
0.70974	0.27871
2.31634	-0.02739
-5.20664	0.83988
-1.91693	-0.05289
3.48942	-0.15492
1.80631	-0.97117
1.01576	-1.60887
1.80631	0.25320
0.58223	0.81437
0.63323	0.68683
-0.76936	0.58480
-1.58541	1.19699
-0.84586	0.81437
-0.23382	0.15117
-1.89143	-0.20594
5.24903	-0.71609
-2.83499	-1.07320
2.39285	-0.15492
2.52035	0.78886
-2.63097	0.86539
-1.66191	0.30422
-0.13181	0.15117
0.63323	0.99292
0.58223	-0.74160
0.12320	-0.30797
-0.25932	0.10015
0.17421	0.12566
0.12320	-0.07840
0.70974	0.35523
-0.13181	0.78886
-0.18282	-0.00188
0.60773	-0.79262
0.42922	0.20219
0.17421	0.63582
0.22521	0.48277
-0.59084	-0.00188
1.01576	-0.10391
0.78624	0.38074
0.02119	0.07465
-3.03900	0.53379
2.52035	-0.23145
0.12320	0.10015
-0.13181	0.07465
-0.71835	-0.00188
-0.59084	0.25320
-0.05531	0.20219
0.27621	0.10015
-0.31033	0.35523
-0.38683	0.58480
1.90832	0.32972
0.76074	0.25320
0.02119	0.12566
0.04670	-0.33348
0.53123	-0.02739
0.83725	0.38074
0.42922	-0.51203
0.12320	-0.53754
-0.94787	0.73785
-0.38683	0.96742
-0.08081	0.73785
-2.70748	0.04914
2.23984	-0.51203
1.70430	0.15117
0.96476	0.04914
-0.71835	0.10015
-0.79486	0.07465
-0.02981	0.25320
0.09770	-0.15492
-0.08081	0.50828
0.19971	0.91640
0.50573	-0.28246
0.48022	-0.46102
-0.02981	0.15117
0.32721	-0.10391
0.22521	0.35523
0.81175	0.20219
0.78624	0.25320
-0.28482	0.48277
-2.32496	0.20219
1.04126	-0.05289
0.27621	0.55929
-0.28482	0.22769
-0.66735	0.68683
0.27621	-0.07840
0.70974	-0.74160
0.17421	0.07465
0.35272	-0.12942
0.30171	0.22769
-0.25932	0.17668
-0.15732	0.45726
0.68424	0.25320
0.42922	0.35523
0.55673	0.30422
0.53123	0.12566
0.04670	0.25320
-0.33583	-0.48652
-0.18282	-0.25695
-0.69285	0.27871
1.01576	0.50828
1.34728	0.48277
-0.20832	-0.02739
-1.63641	0.32972
1.16877	0.78886
1.55129	-0.25695
-0.71835	-0.74160
-1.17738	-0.02739
-0.38683	0.30422
1.37278	0.12566
0.37822	0.25320
1.14327	0.07465
0.53123	0.25320
-1.15188	0.55929
-1.35589	0.71234
-0.41233	0.32972
-0.00431	-0.15492
0.22521	-0.43551
0.42922	-0.38449
0.73524	0.30422
0.99026	0.17668
0.22521	-0.51203
0.40372	0.35523
-0.25932	0.99292
1.50029	0.63582
-0.41233	0.76336
0.07220	0.04914
0.07220	-0.41000
-1.86593	-0.35899
3.89744	-0.35899
0.68424	-0.35899
-1.66191	0.53379
-1.30489	0.99292
-1.50890	0.48277
-0.61635	0.40625
0.09770	0.02363
0.83725	-1.37929
2.06133	-0.30797
1.04126	-0.58856
-0.25932	0.43176
-0.69285	1.24800
-1.02437	0.12566
-0.66735	0.71234
0.12320	0.81437
1.19427	0.27871
1.50029	0.10015
0.93925	-0.20594
1.01576	-0.46102
-0.71835	-0.35899
2.39285	0.45726
1.37278	0.35523
-1.40690	0.38074
-2.55447	0.10015
-0.56534	-0.15492
0.55673	-0.00188
0.12320	0.10015
0.02119	0.35523
0.42922	0.07465
0.17421	0.12566
1.24527	0.10015
0.63323	0.45726
-0.61635	0.53379
-0.28482	-0.18043
-0.74385	0.20219
0.81175	0.20219
0.37822	0.20219
-0.08081	0.10015
-0.00431	-0.05289
-0.71835	0.22769
0.78624	-0.00188
0.45472	0.30422
0.65874	-0.00188
0.04670	-0.25695
1.52579	-0.00188
0.22521	0.25320
-0.76936	0.50828
-0.82036	-0.02739
-0.23382	0.20219
0.09770	0.63582
0.53123	0.25320
0.53123	0.12566
-0.94787	-0.07840
-0.59084	0.45726
-0.31033	0.20219
0.53123	0.38074
0.48022	-0.38449
-0.10631	-0.18043
2.23984	0.17668
1.75531	-0.20594
0.32721	0.22769
0.17421	0.50828
-0.59084	0.48277
-0.94787	0.22769
-1.38139	0.00000
-1.07538	0.00000
3.71893	0.00000
0.02119	0.00000
-1.20288	0.00000
-0.28482	0.07465
0.40372	0.02363
0.45472	-0.00188
-0.23382	0.10015
-0.61635	-0.02739
-0.31033	0.07465
0.88825	0.35523
1.50029	-0.05289
-0.33583	0.50828
0.14870	0.43176
0.37822	0.07465
-0.46334	-0.05289
0.35272	0.43176
0.99026	-0.30797
0.88825	0.32972
-0.18282	-0.25695
-0.59084	0.12566
-1.33039	0.04914
-0.48884	0.55929
-0.08081	0.38074
0.50573	-0.35899
1.19427	0.17668
0.65874	0.53379
-1.35589	-0.30797
1.67880	0.22769
-0.79486	0.27871
2.11233	0.55929
0.45472	0.20219
0.17421	0.35523
-0.02981	0.15117
-0.23382	0.32972
-0.10631	-0.18043
-0.10631	-0.00188
-0.23382	-0.15492
-0.25932	-0.12942
0.07220	0.12566
0.40372	0.35523
1.01576	0.32972
-0.71835	0.17668
-3.60004	-0.12942
4.17796	-0.20594
1.98482	0.15117
-0.13181	0.61031
-0.28482	0.27871
0.09770	0.10015
0.07220	0.30422
-0.28482	0.25320
-0.61635	0.02363
-1.07538	-0.05289
-0.38683	0.17668
-0.15732	0.15117
1.72980	0.04914
1.16877	0.25320
0.37822	0.10015
0.17421	0.15117
0.58223	0.76336
-0.02981	0.20219
-0.20832	-0.38449
0.04670	-0.18043
0.14870	0.12566
0.19971	0.73785
-0.20832	0.20219
0.12320	-0.02739
-0.02981	-0.00188
0.73524	-0.12942
0.07220	0.73785
0.12320	-0.05289
-0.31033	-0.05289
-0.08081	0.22769
0.45472	0.32972
-0.10631	-0.05289
1.67880	0.81437
1.06676	-0.10391
-0.66735	-0.25695
-1.10088	0.20219
-0.48884	0.10015
-0.20832	0.02363
-0.13181	0.27871
0.07220	0.15117
-0.05531	0.10015
0.25071	-0.12942
0.53123	-0.18043
0.37822	0.55929
0.19971	-0.00188
0.50573	-0.20594
0.04670	-0.00188
0.32721	0.25320
0.40372	0.27871
0.58223	0.50828
0.83725	0.55929
0.30171	-0.12942
-0.46334	-0.02739
-1.04987	0.22769
-0.82036	-0.25695
0.07220	-0.02739
0.65874	0.04914
-0.28482	0.48277
0.88825	0.48277
1.16877	0.07465
0.53123	-0.15492
0.19971	0.04914
-0.33583	-0.00188
-0.48884	0.55929
-0.15732	-0.00188
-0.99887	-0.35899
-0.23382	0.20219
-0.13181	0.27871
1.24527	0.12566
1.37278	0.50828
0.14870	0.55929
-0.25932	0.12566
0.09770	-0.05289
-0.51434	-0.41000
0.70974	0.12566
-0.05531	0.53379
-0.00431	0.20219
0.30171	-0.12942
0.63323	0.35523
0.02119	-0.46102
-0.18282	-0.30797
-0.31033	0.25320
-0.25932	0.43176
0.09770	0.40625
0.12320	0.32972
0.48022	-0.20594
1.16877	-0.07840
0.45472	0.91640
-0.41233	0.45726
0.76074	-0.18043
0.12320	-0.23145
-0.00431	-0.12942
-0.20832	0.30422
-0.33583	0.22769
-1.33039	0.02363
-0.25932	0.27871
-0.05531	0.43176
0.91375	0.45726
1.01576	0.02363
1.39828	0.22769
0.09770	-0.12942
0.48022	0.22769
0.78624	0.17668
-0.20832	-0.05289
-0.10631	0.07465
-0.38683	-0.20594
0.30171	0.15117
-0.71835	0.53379
-0.41233	0.55929
0.37822	0.30422
0.12320	0.25320
0.40372	-0.15492
0.04670	-0.18043
-0.97337	-0.28246
-0.33583	-0.12942
1.27078	0.48277
1.14327	0.32972
0.70974	-0.05289
0.78624	0.04914
1.27078	0.48277
0.53123	0.71234
-0.33583	0.35523
-1.33039	-0.05289
-0.94787	0.02363
-0.79486	0.04914
-0.71835	-0.46102
-0.41233	-0.25695
0.32721	0.02363
1.09226	0.55929
0.91375	0.48277
1.34728	0.73785
1.98482	-0.05289
0.96476	0.12566
-0.59084	-0.15492
-1.55991	-0.25695
-0.87136	0.07465
-0.43783	0.25320
-0.15732	0.15117
0.35272	0.53379
0.58223	0.43176
1.11776	0.07465
0.55673	-0.00188
0.14870	0.32972
-0.20832	0.20219
-0.23382	-0.58856
-0.25932	-0.15492
-0.36133	0.15117
-0.13181	0.35523
0.58223	0.15117
1.37278	0.96742
0.58223	0.10015
0.68424	-0.02739
-0.20832	-0.02739
-0.89686	-0.23145
-0.23382	0.02363
-2.73298	-0.12942
1.93382	0.27871
1.42379	0.48277
-0.00431	0.38074
-0.31033	-0.02739
0.40372	-0.20594
0.58223	0.27871
-0.08081	0.20219
-0.20832	0.30422
0.19971	0.07465
-0.15732	0.25320
-0.89686	-0.35899
-0.08081	0.20219
0.12320	0.53379
1.21977	0.35523
0.40372	-0.15492
0.27621	0.17668
0.35272	0.35523
0.02119	0.20219
0.25071	0.02363
0.07220	-0.20594
0.27621	-0.05289
-0.38683	0.50828
-0.10631	0.15117
-0.53984	0.30422
-0.89686	-0.23145
0.35272	0.38074
0.73524	0.25320
1.24527	0.38074
0.88825	0.32972
0.30171	0.32972
0.07220	-0.35899
-0.31033	-0.25695
-0.48884	-0.18043
-0.23382	0.15117
0.09770	0.17668
0.22521	0.55929
-0.15732	0.53379
-0.08081	-0.02739
-0.10631	0.04914
-0.10631	0.32972
0.83725	-0.05289
0.96476	0.48277
0.83725	-0.07840
0.14870	-0.15492
0.02119	0.40625
-0.13181	0.22769
-0.25932	0.07465
-0.33583	0.07465
-0.59084	-0.07840
0.37822	0.22769
0.32721	0.25320
1.21977	0.12566
1.04126	0.53379
0.37822	0.32972
0.22521	0.27871
0.25071	-0.07840
-0.71835	-0.18043
-1.04987	-0.15492
-1.58541	0.10015
0.60773	0.27871
1.16877	0.35523
1.47479	0.27871
0.27621	0.27871
-1.30489	0.17668
0.55673	0.35523
0.76074	0.25320
-0.00431	-0.25695
-0.31033	-0.46102
-0.10631	0.10015
0.04670	0.17668
0.70974	0.32972
0.45472	0.61031
0.53123	0.48277
0.40372	-0.00188
-0.18282	-0.02739
-0.18282	0.27871
-0.08081	0.32972
0.12320	0.43176
0.07220	0.04914
0.12320	-0.00188
0.37822	-0.12942
-0.31033	-0.25695
0.37822	0.43176
0.45472	0.20219
0.37822	0.27871
-0.41233	0.04914
-0.48884	-0.00188
0.58223	0.17668
0.99026	-0.10391
0.30171	0.10015
-0.31033	-0.05289
-0.82036	0.20219
-0.51434	0.48277
-0.38683	0.12566
1.14327	0.25320
1.34728	0.10015
0.09770	0.27871
0.09770	0.15117
-0.02981	0.07465
-0.23382	-0.28246
-0.00431	0.10015
0.25071	0.38074
0.53123	-0.00188
0.73524	0.04914
0.48022	0.32972
0.09770	0.32972
-0.79486	0.02363
-1.30489	-0.25695
1.34728	-0.00188
-0.05531	0.07465
-0.38683	0.20219
-0.33583	0.10015
0.53123	0.38074
0.35272	0.10015
0.37822	0.48277
0.83725	-0.28246
1.37278	0.02363
-0.00431	-0.15492
-0.99887	-0.02739
-1.12638	0.20219
-0.31033	0.30422
0.04670	0.55929
-0.08081	0.15117
0.17421	0.35523
0.63323	-0.02739
1.14327	0.45726
1.62780	0.27871
0.09770	0.10015
-0.64185	-0.12942
-0.46334	-0.07840
-0.69285	0.30422
0.30171	0.43176
0.68424	-0.12942
0.68424	-0.79262
0.32721	0.15117
-0.38683	0.94191
0.02119	0.30422
0.25071	0.17668
0.76074	0.02363
0.53123	0.25320
-0.38683	0.45726
-0.82036	-0.05289
-0.25932	-0.07840
0.58223	0.63582
-0.41233	0.15117
-0.15732	0.10015
-0.23382	0.12566
1.29628	0.17668
1.32178	-0.46102
0.50573	-0.05289
-0.08081	0.27871
-0.15732	0.38074
0.04670	-0.05289
0.60773	0.15117
-0.08081	0.48277
-0.46334	0.25320
-0.23382	0.02363
-0.02981	0.10015
-0.02981	-0.00188
-0.15732	0.07465
0.91375	0.27871
1.06676	0.15117
-0.10631	0.20219
0.04670	0.32972
-0.41233	0.15117
0.93925	0.07465
0.58223	0.10015
-0.38683	0.22769
-0.84586	-0.46102
-0.51434	0.17668
-0.23382	-0.05289
0.14870	0.12566
-0.00431	0.17668
0.19971	0.45726
0.27621	0.45726
0.30171	0.50828
1.62780	-0.20594
0.78624	0.04914
-0.41233	0.02363
-0.13181	0.22769
0.63323	0.02363
0.91375	0.40625
-0.28482	0.22769
-0.56534	-0.07840
-0.71835	0.02363
-0.41233	0.12566
-0.13181	-0.15492
0.68424	0.15117
0.60773	0.27871
-0.13181	0.17668
-0.92237	0.25320
1.34728	0.17668
1.55129	0.04914
0.19971	0.12566
0.27621	0.58480
-0.10631	0.25320
0.22521	-0.10391
0.45472	-0.18043
-0.79486	-0.02739
-0.33583	0.45726
-0.00431	0.25320
0.45472	0.30422
-0.28482	-0.02739
-0.05531	0.30422
0.60773	0.04914
0.40372	-0.12942
0.32721	0.30422
0.22521	0.35523
0.02119	0.30422
0.32721	0.04914
0.02119	-0.33348
0.37822	0.45726
0.53123	0.15117
0.37822	0.25320
0.37822	0.17668
-0.41233	0.27871
-0.25932	0.17668
-0.38683	0.17668
0.37822	0.10015
0.12320	-0.15492
-0.15732	0.25320
-0.66735	-0.00188
-0.00431	-0.10391
0.42922	0.25320
0.48022	0.35523
0.02119	0.17668
-0.18282	0.02363
0.35272	0.25320
0.88825	0.12566
1.21977	0.58480
0.42922	0.35523
-0.43783	-0.28246
-0.59084	-0.07840
-0.28482	0.12566
0.48022	0.04914
0.04670	0.40625
0.40372	0.22769
0.37822	0.15117
0.09770	0.04914
0.14870	0.15117
0.30171	0.20219
-0.23382	0.04914
0.48022	0.17668
-0.43783	0.27871
-0.71835	0.12566
0.27621	-0.15492
1.52579	0.35523
-0.23382	0.27871
-0.31033	-0.15492
0.58223	0.17668
-0.61635	0.27871
0.93925	0.25320
0.17421	-0.00188
0.73524	-0.10391
-1.89143	0.32972
1.75531	0.15117
0.35272	-0.07840
-0.46334	0.12566
-0.08081	0.15117
-0.38683	0.32972
-0.41233	0.55929
-0.08081	0.30422
0.17421	0.15117
-0.00431	0.10015
0.93925	-0.28246
0.88825	-0.12942
1.14327	0.35523
-0.20832	0.22769
-0.18282	0.20219
0.12320	0.07465
0.32721	0.32972
-0.13181	0.17668
-0.20832	0.04914
-0.25932	0.22769
-0.08081	0.38074
0.68424	0.04914
0.45472	-0.07840
0.50573	0.35523
0.17421	0.27871
0.30171	0.07465
-0.08081	-0.30797
0.02119	0.04914
-0.56534	0.63582
-0.08081	-0.25695
0.48022	-0.18043
0.58223	0.25320
-0.13181	0.38074
-0.08081	0.22769
0.17421	0.10015
-0.02981	0.15117
-0.23382	0.12566
0.32721	0.20219
0.96476	0.27871
0.53123	0.53379
0.04670	0.10015
0.07220	0.10015
0.25071	-0.41000
0.58223	0.25320
-0.20832	-0.38449
-0.13181	0.07465
0.37822	0.71234
0.02119	0.58480
-0.18282	-0.15492
0.30171	-0.12942
0.30171	0.02363
-0.53984	0.25320
-0.46334	0.45726
0.02119	0.07465
0.86275	0.07465
0.70974	-0.02739
-0.08081	-0.05289
0.07220	0.25320
0.14870	0.25320
0.70974	0.04914
0.83725	0.55929
0.14870	0.12566
-1.45790	0.07465
1.01576	0.10015
0.68424	-0.18043
0.19971	0.25320
-0.69285	0.45726
-0.53984	-0.02739
-0.56534	-0.12942
1.65330	0.43176
-0.00431	0.50828
-0.89686	0.25320
0.19971	0.12566
0.42922	0.12566
0.73524	-0.38449
0.55673	-0.25695
0.17421	0.10015
-0.43783	0.38074
-0.28482	0.35523
-0.36133	0.27871
-0.33583	0.17668
0.83725	-0.05289
1.47479	0.17668
0.32721	-0.07840
-0.15732	-0.00188
-0.23382	0.38074
0.07220	0.32972
0.32721	0.38074
-0.28482	0.17668
-0.00431	0.04914
0.58223	-0.12942
0.78624	0.15117
-0.13181	0.12566
-0.41233	0.25320
-0.18282	-0.10391
0.37822	0.02363
0.53123	0.25320
-0.20832	0.12566
-0.31033	0.35523
0.12320	0.07465
0.76074	0.45726
-0.00431	0.30422
0.50573	-0.00188
-0.02981	0.25320
-0.23382	0.12566
0.58223	-0.15492
0.91375	0.02363
-0.00431	0.27871
-0.00431	0.27871
-0.02981	-0.18043
-0.08081	-0.00188
0.48022	0.40625
-0.23382	0.43176
-0.23382	0.20219
0.48022	0.22769
0.30171	0.20219
0.45472	-0.05289
-0.48884	0.10015
0.58223	-0.05289
0.30171	-0.00188
0.04670	0.17668
0.37822	0.22769
-0.08081	0.25320
0.70974	0.27871
0.83725	0.02363
-0.02981	0.48277
-0.15732	0.04914
0.09770	-0.12942
-0.59084	-0.25695
-0.05531	0.35523
0.60773	0.32972
-0.02981	0.73785
0.07220	0.07465
0.19971	-0.30797
0.17421	-0.18043
0.32721	0.55929
-0.02981	0.17668
-0.13181	0.12566
0.09770	0.25320
0.42922	0.30422
0.73524	-0.00188
0.25071	0.15117
0.12320	0.12566
0.88825	-0.02739
0.40372	0.20219
-0.20832	0.27871
-0.43783	0.15117
-0.15732	0.04914
-0.28482	0.15117
0.04670	0.22769
0.17421	0.17668
-0.10631	0.20219
0.68424	0.35523
1.04126	-0.05289
0.40372	-0.12942
0.58223	0.10015
-0.13181	0.20219
-0.38683	0.10015
-0.08081	0.17668
-0.25932	-0.02739
-0.89686	0.02363
0.22521	0.55929
0.58223	0.04914
0.73524	0.27871
0.35272	-0.05289
0.88825	0.22769
0.27621	0.22769
-0.43783	-0.05289
-0.46334	0.12566
-0.23382	0.17668
0.40372	0.10015
0.76074	0.17668
0.58223	0.30422
-0.10631	0.10015
-0.02981	-0.05289
-0.10631	0.12566
0.22521	0.25320
0.76074	-0.02739
1.19427	0.27871
0.12320	0.35523
-0.69285	0.20219
-0.82036	0.04914
-0.41233	-0.10391
-0.46334	0.22769
0.40372	-0.02739
0.99026	0.27871
0.58223	0.12566
0.42922	-0.10391
0.19971	0.32972
0.07220	-0.07840
0.04670	0.22769
0.19971	0.76336
-0.31033	0.10015
0.45472	-0.15492
0.55673	-0.12942
-0.20832	0.10015
-0.38683	0.20219
0.07220	0.04914
1.11776	0.35523
0.91375	0.40625
0.12320	0.25320
-0.31033	0.04914
-0.18282	-0.10391
-0.48884	-0.51203
-0.31033	-0.18043
-0.48884	0.43176
0.14870	0.48277
1.06676	0.17668
0.50573	0.25320
0.58223	0.20219
0.37822	0.58480
0.07220	0.07465
0.07220	0.32972
-0.36133	0.10015
-0.10631	-0.43551
0.40372	-0.02739
0.83725	0.30422
0.53123	0.35523
-0.43783	0.12566
-0.33583	0.27871
0.09770	0.20219
-0.02981	-0.18043
0.09770	0.35523
0.27621	0.10015
0.88825	-0.05289
0.83725	0.35523
-0.23382	0.04914
-0.61635	-0.05289
-0.64185	0.15117
-0.00431	0.43176
0.22521	0.27871
0.12320	0.40625
0.27621	-0.05289
0.63323	-0.28246
1.04126	0.30422
-0.43783	0.25320
0.32721	0.50828
-0.18282	0.12566
1.01576	0.15117
0.45472	0.22769
-0.61635	-0.02739
-0.64185	-0.07840
0.12320	0.12566
-0.08081	0.12566
-0.31033	0.50828
1.16877	-0.28246
1.27078	0.04914
-0.25932	0.38074
-0.41233	0.40625
0.12320	0.25320
-0.08081	-0.00188
0.02119	-0.10391
0.32721	0.25320
0.22521	0.22769
0.09770	0.30422
0.22521	0.20219
0.37822	-0.41000
0.42922	-0.07840
0.02119	0.22769
-0.46334	0.27871
0.22521	0.35523
0.58223	0.10015
0.76074	0.12566
-0.46334	-0.07840
-0.38683	0.10015
0.02119	0.15117
-0.23382	0.25320
-0.05531	0.25320
0.35272	0.12566
0.19971	0.30422
-0.00431	0.22769
0.35272	-0.20594
0.50573	-0.07840
0.99026	0.10015
-0.28482	0.20219
-0.02981	0.43176
-0.15732	-0.00188
-0.00431	0.20219
-0.25932	0.61031
0.25071	0.45726
0.63323	-0.00188
1.80631	-0.15492
0.17421	0.27871
-0.94787	-0.07840
-1.15188	-0.28246
-0.84586	0.15117
-0.59084	0.43176
1.24527	0.55929
1.34728	0.10015
0.19971	0.20219
-0.97337	0.15117
0.40372	0.22769
0.76074	0.20219
-0.15732	-0.25695
-0.18282	-0.02739
0.42922	0.20219
0.12320	0.35523
0.22521	0.40625
0.27621	0.25320
0.09770	0.20219
-0.28482	0.22769
-0.48884	-0.05289
0.09770	0.02363
0.93925	0.38074
0.81175	-0.00188
0.48022	-0.25695
0.17421	0.32972
-0.08081	0.32972
-0.36133	-0.00188
-0.18282	0.17668
-0.28482	0.17668
0.12320	0.17668
0.37822	0.25320
0.22521	0.04914
0.53123	0.53379
0.02119	0.38074
0.04670	-0.20594
0.32721	-0.23145
0.86275	0.07465
-0.00431	0.27871
-0.41233	0.38074
-0.23382	0.48277
-0.05531	-0.23145
-0.02981	-0.35899
-0.31033	0.04914
1.16877	0.35523
1.72980	0.35523
-0.33583	0.63582
-0.38683	-0.15492
0.25071	-0.28246
0.45472	0.38074
-0.56534	0.22769
0.17421	0.25320
0.40372	0.10015
0.25071	-0.18043
-0.08081	0.25320
-0.74385	0.22769
-0.28482	0.17668
0.07220	0.15117
0.40372	0.40625
0.78624	0.35523
1.04126	0.02363
0.50573	-0.10391
-0.33583	-0.28246
-0.43783	-0.10391
-0.10631	0.17668
0.55673	0.61031
0.45472	-0.25695
0.96476	0.04914
-0.10631	0.12566
-0.53984	0.73785
-1.12638	0.22769
-0.46334	0.15117
-0.05531	0.15117
-0.33583	-0.10391
0.99026	0.20219
1.47479	0.53379
1.24527	-0.28246
1.09226	0.30422
0.40372	0.12566
0.12320	-0.07840
-0.56534	0.27871
-0.87136	0.15117
-0.64185	0.15117
-0.51434	0.04914
0.04670	0.07465
0.02119	0.25320
2.03582	0.38074
0.70974	-0.05289
0.96476	0.38074
-0.87136	0.22769
-1.17738	-0.10391
-0.08081	-0.18043
1.16877	-0.23145
-0.08081	0.22769
-0.38683	0.40625
-0.79486	-0.20594
-0.08081	0.20219
0.93925	0.61031
1.75531	0.27871
0.35272	0.55929
0.19971	0.12566
0.30171	-0.46102
0.14870	0.04914
-1.02437	-0.07840
-0.92237	0.02363
0.12320	0.58480
0.93925	0.50828
0.22521	0.15117
-0.41233	-0.18043
0.07220	-0.20594
0.68424	0.10015
0.78624	0.63582
-0.15732	0.20219
-0.38683	0.02363
0.14870	-0.18043
1.01576	0.17668
0.70974	0.58480
-0.61635	0.32972
-0.64185	0.30422
0.09770	-0.02739
0.78624	-0.15492
1.27078	-0.00188
0.48022	0.02363
-1.04987	0.04914
-1.10088	-0.00188
-0.15732	0.22769
-0.41233	0.45726
0.73524	0.55929
0.78624	0.04914
0.35272	0.15117
-0.15732	-0.07840
0.04670	-0.28246
-0.02981	-0.25695
0.55673	0.45726
0.88825	0.25320
0.17421	0.07465
-0.56534	0.25320
-0.02981	0.30422
0.99026	0.20219
0.53123	0.32972
-0.25932	-0.10391
0.09770	0.35523
0.22521	-0.30797
-0.05531	-0.25695
0.81175	0.40625
0.02119	0.22769
-0.79486	0.43176
-0.56534	0.20219
0.12320	0.04914
0.17421	0.04914
0.12320	0.07465
0.17421	0.04914
0.35272	0.35523
0.27621	0.10015
0.60773	-0.15492
0.45472	0.48277
-0.28482	0.17668
-0.18282	0.17668
1.72980	0.35523
0.17421	0.10015
-0.23382	0.17668
0.48022	0.15117
0.63323	0.10015
0.17421	0.07465
0.09770	-0.02739
-0.51434	0.17668
-0.51434	0.30422
-1.30489	0.30422
0.37822	0.17668
0.99026	0.04914
0.58223	0.15117
-0.15732	-0.15492
-0.00431	0.10015
0.40372	0.25320
0.27621	0.22769
0.58223	0.25320
-0.79486	0.15117
1.24527	0.04914
0.40372	0.53379
-0.61635	0.02363
-0.02981	-0.25695
0.63323	0.20219
0.63323	0.25320
-0.18282	-0.05289
-0.53984	0.07465
-0.25932	0.27871
-0.08081	0.32972
0.22521	0.15117
-0.20832	0.10015
-0.08081	0.10015
0.42922	0.17668
1.01576	0.22769
0.12320	0.02363
1.04126	0.10015
0.63323	0.32972
0.02119	0.04914
-0.23382	0.15117
-0.18282	0.25320
0.14870	0.20219
-0.20832	0.17668
-0.41233	-0.02739
-0.15732	0.22769
-0.13181	0.27871
0.53123	-0.46102
1.04126	-0.02739
0.58223	0.66132
-0.20832	0.12566
-0.13181	0.20219
-0.36133	0.30422
-1.12638	0.15117
-0.28482	-0.05289
0.93925	-0.25695
1.24527	0.66132
1.16877	0.96742
-0.10631	-0.61406
0.32721	-0.69059
-0.08081	-0.00188
-0.48884	0.45726
-0.59084	0.43176
-0.33583	0.27871
0.27621	-0.00188
0.78624	0.25320
1.09226	-0.10391
-0.00431	0.04914
0.12320	0.15117
-0.02981	0.15117
0.02119	0.20219
0.07220	0.20219
0.12320	0.10015
0.37822	0.48277
0.04670	-0.07840
0.09770	-0.15492
0.35272	-0.05289
0.14870	-0.05289
0.12320	0.35523
-0.08081	0.48277
-0.05531	0.27871
0.30171	0.07465
0.45472	0.30422
0.32721	0.45726
0.09770	0.32972
0.04670	-0.12942
-0.10631	-0.28246
0.07220	-0.05289
1.06676	-0.00188
0.12320	0.22769
-0.89686	0.40625
-0.33583	-0.05289
0.42922	0.20219
0.40372	0.38074
0.53123	0.20219
0.99026	0.30422
-0.13181	-0.66508
-0.53984	0.04914
-0.51434	0.22769
0.32721	0.30422
0.19971	0.53379
0.60773	0.04914
0.27621	0.25320
0.32721	0.35523
0.32721	0.20219
0.02119	0.10015
0.04670	-0.00188
0.27621	-0.28246
-0.08081	-0.10391
-0.05531	0.50828
-0.43783	0.38074
0.25071	-0.15492
0.12320	0.40625
0.50573	0.50828
-0.05531	-0.20594
0.83725	0.12566
0.25071	0.10015
-0.48884	-0.12942
0.04670	0.53379
0.55673	-0.00188
-0.00431	0.27871
0.58223	0.04914
-0.18282	-0.23145
-0.10631	0.30422
1.39828	0.61031
0.68424	-0.10391
0.32721	0.15117
-0.66735	0.04914
-1.20288	-0.05289
-1.96793	0.48277
1.42379	0.50828
3.33641	-0.10391
0.50573	0.25320
-0.51434	0.15117
-0.31033	0.32972
-0.31033	-0.56305
-0.94787	-0.02739
-0.46334	-0.38449
-1.50890	-0.10391
-0.59084	0.58480
1.72980	0.91640
3.64243	0.40625
3.36191	-0.00188
1.57679	0.20219
-0.82036	0.22769
-3.29402	0.12566
-1.20288	-0.30797
-2.24845	0.02363
-0.56534	0.10015
0.58223	0.02363
0.81175	-0.05289
-0.76936	0.45726
5.32554	0.76336
1.21977	0.50828
-0.99887	0.38074
-0.56534	-0.33348
-0.00431	-0.46102
0.22521	0.04914
0.60773	0.35523
0.50573	0.27871
-0.33583	0.40625
-0.56534	0.17668
-0.69285	-0.07840
0.68424	-0.30797
0.48022	-0.30797
-2.04444	0.32972
2.06133	0.50828
-0.08081	-0.10391
-0.66735	0.15117
-0.25932	0.17668
-0.15732	0.53379
-0.08081	0.43176
0.88825	-0.20594
2.01032	0.22769
1.01576	0.10015
0.07220	0.17668
-0.56534	-0.12942
-2.47797	-0.10391
0.32721	-0.02739
-0.61635	0.27871
0.07220	0.15117
0.68424	0.58480
0.91375	0.86539
0.63323	0.22769
0.99026	0.12566
0.70974	0.02363
0.09770	-0.25695
-0.48884	-0.66508
-0.20832	0.27871
-0.82036	-0.12942
-0.41233	0.25320
2.85188	0.55929
-0.18282	0.12566
-1.04987	0.15117
-0.94787	-0.18043
-0.66735	0.04914
0.70974	0.40625
0.73524	0.53379
0.78624	0.15117
0.12320	-0.15492
0.09770	-0.05289
0.83725	0.38074
0.25071	0.30422
0.93925	0.15117
1.09226	-0.07840
0.55673	0.07465
-1.40690	0.12566
-1.78942	0.12566
-1.17738	0.07465
0.37822	0.55929
0.86275	0.10015
-1.15188	-0.15492
2.34184	0.25320
1.75531	0.17668
-1.81492	-0.00188
-0.02981	0.25320
-0.08081	-0.10391
0.73524	-0.10391
0.30171	0.35523
0.99026	0.45726
0.25071	0.12566
0.17421	0.27871
-0.28482	0.32972
-1.07538	-0.15492
-0.56534	-0.10391
0.09770	-0.07840
0.30171	0.50828
0.45472	0.58480
0.76074	-0.02739
0.19971	0.10015
0.19971	-0.35899
0.35272	0.32972
0.68424	-0.00188
0.02119	0.30422
-0.43783	0.40625
-0.18282	0.22769
-0.18282	0.17668
-0.08081	0.30422
0.25071	0.10015
0.02119	0.07465
1.11776	0.66132
1.24527	0.30422
0.60773	-0.38449
0.04670	-0.38449
-0.36133	0.10015
0.12320	0.30422
-0.13181	0.91640
-0.25932	-0.10391
0.04670	-0.33348
-0.02981	0.66132
-1.02437	0.35523
1.21977	0.27871
0.35272	0.12566
0.27621	0.04914
0.99026	-0.07840
0.27621	0.04914
-0.00431	-0.79262
-0.13181	0.17668
-0.25932	0.25320
0.07220	0.22769
0.02119	0.40625
-0.64185	0.07465
0.30171	0.20219
0.70974	0.15117
0.09770	0.04914
-0.00431	0.20219
0.40372	0.15117
0.76074	0.07465
0.70974	0.17668
-0.31033	0.04914
0.32721	0.02363
-0.41233	0.12566
-0.10631	0.15117
-0.08081	0.15117
-0.02981	0.15117
0.12320	0.12566
-0.23382	0.15117
-0.18282	-0.12942
0.30171	0.22769
0.70974	0.40625
1.01576	0.10015
0.68424	0.35523
0.53123	0.30422
0.19971	0.17668
-0.76936	-0.18043
-0.59084	-0.43551
0.48022	0.35523
0.68424	0.66132
-1.48340	0.25320
1.19427	0.04914
0.78624	0.32972
-2.17195	0.02363
2.39285	0.27871
1.06676	0.25320
-0.69285	0.04914
-0.05531	-0.05289
0.32721	0.25320
0.09770	0.22769
-0.33583	0.40625
-0.84586	0.20219
-0.92237	-0.15492
0.12320	0.12566
0.96476	0.04914
0.53123	0.20219
0.27621	0.04914
0.40372	0.12566
-0.25932	0.25320
1.39828	0.35523
0.42922	0.38074
-0.38683	0.15117
-0.28482	0.15117
0.65874	0.32972
0.42922	0.15117
-0.13181	0.35523
-0.18282	0.04914
-0.02981	0.12566
0.22521	-0.02739
-0.10631	0.20219
0.19971	-0.28246
-0.38683	-0.02739
0.40372	0.78886
-0.02981	-0.05289
0.09770	-0.12942
-0.31033	0.27871
0.09770	0.04914
0.65874	0.15117
0.83725	0.20219
-0.00431	-0.10391
0.02119	0.22769
-0.05531	0.35523
-0.02981	-0.07840
0.48022	0.10015
0.70974	0.35523
0.53123	0.20219
-0.02981	0.30422
-0.25932	0.83988
-0.43783	-0.30797
0.14870	-0.35899
-0.53984	-0.02739
-0.46334	0.50828
1.19427	0.45726
0.88825	0.07465
-0.20832	-0.05289
-0.61635	0.25320
-0.64185	0.40625
0.32721	0.02363
1.42379	0.02363
0.76074	-0.30797
0.17421	0.17668
0.09770	0.58480
-0.59084	0.30422
-0.25932	-0.07840
-0.10631	0.30422
-0.31033	0.20219
-0.36133	-0.02739
0.53123	-0.33348
1.01576	0.07465
0.17421	0.20219
0.04670	0.50828
0.30171	0.32972
0.81175	0.27871
-0.31033	0.61031
0.25071	0.35523
1.01576	-0.43551
-0.38683	-0.69059
0.04670	0.43176
0.65874	0.58480
0.19971	-0.61406
-0.41233	-0.05289
-0.05531	0.58480
-0.15732	-0.28246
0.25071	0.22769
-0.08081	0.55929
-0.02981	0.30422
0.35272	0.58480
0.65874	-0.02739
0.37822	-0.41000
0.48022	0.04914
-0.00431	0.04914
-0.51434	0.27871
-0.20832	0.40625
-0.38683	0.32972
0.91375	0.25320
1.29628	-0.00188
0.81175	0.22769
-0.69285	0.27871
-0.51434	-0.25695
-0.15732	-0.38449
1.39828	0.53379
0.12320	0.40625
-0.59084	0.04914
-0.00431	0.22769
-0.25932	0.20219
-0.33583	-0.07840
0.14870	0.25320
0.30171	-0.07840
1.11776	0.15117
0.60773	0.02363
0.86275	0.55929
0.14870	0.61031
0.14870	0.48277
0.27621	-0.07840
-0.87136	-0.25695
-0.18282	-0.41000
1.29628	0.15117
0.07220	0.20219
-0.08081	0.61031
0.42922	0.12566
-2.27395	0.12566
2.95388	0.02363
0.19971	0.25320
-2.24845	0.30422
-0.00431	0.04914
-0.46334	-0.15492
-0.15732	0.04914
0.32721	0.10015
0.48022	0.50828
1.24527	0.40625
2.03582	-0.12942
1.34728	-0.33348
-0.38683	0.22769
-0.51434	0.04914
0.35272	0.40625
-1.12638	0.53379
-1.50890	0.12566
-0.92237	-0.05289
-0.18282	-0.15492
0.76074	-0.12942
1.24527	0.12566
1.32178	0.55929
0.78624	0.43176
0.45472	0.50828
-0.28482	-0.05289
-0.84586	-0.43551
-0.10631	0.10015
0.63323	0.32972
-0.28482	-0.10391
0.76074	0.17668
0.42922	0.07465
-0.53984	0.27871
1.32178	0.20219
0.86275	0.35523
0.14870	0.27871
-0.92237	0.27871
-0.53984	0.20219
-3.09000	-0.25695
0.53123	-0.12942
2.87738	0.04914
0.02119	0.38074
0.02119	0.04914
0.58223	0.38074
-0.87136	0.25320
-0.38683	0.27871
-0.53984	0.07465
0.58223	-0.12942
0.42922	-0.07840
-0.79486	-0.00188
0.96476	0.22769
0.73524	0.07465
1.32178	0.63582
0.30171	0.15117
-0.23382	0.15117
-0.59084	-0.07840
-0.71835	-0.05289
0.07220	0.27871
0.50573	-0.05289
-0.23382	-0.23145
0.07220	0.12566
0.17421	0.22769
0.30171	0.27871
0.58223	0.32972
0.48022	0.50828
0.70974	0.04914
0.73524	0.12566
-0.92237	-0.00188
0.45472	0.25320
0.17421	0.27871
-0.15732	-0.00188
-0.05531	-0.02739
-0.36133	0.04914
0.14870	0.02363
0.93925	0.15117
-0.28482	0.27871
-0.43783	-0.00188
0.02119	0.12566
-0.41233	0.25320
-0.00431	0.20219
0.68424	0.02363
0.88825	0.17668
0.81175	0.30422
0.37822	0.22769
-0.25932	0.10015
-0.28482	-0.00188
-0.84586	-0.05289
0.37822	0.04914
0.78624	0.38074
-0.66735	0.10015
0.55673	0.07465
0.40372	-0.00188
0.60773	0.35523
0.45472	0.30422
0.32721	0.10015
-1.15188	0.25320
0.93925	-0.05289
0.68424	-0.23145
-0.13181	0.27871
-0.89686	0.30422
-0.51434	0.40625
0.04670	0.17668
0.27621	-0.25695
0.04670	-0.05289
-0.10631	0.32972
-0.00431	0.61031
0.42922	0.86539
0.99026	-0.02739
0.53123	-0.25695
-0.28482	-0.25695
1.70430	-0.00188
0.53123	0.20219
-0.51434	0.02363
-0.43783	0.35523
-0.43783	0.10015
-0.51434	-0.07840
-0.05531	0.25320
0.53123	0.45726
0.50573	0.22769
-0.00431	-0.15492
0.19971	-0.02739
0.37822	0.20219
0.14870	0.45726
0.04670	0.30422
-0.02981	0.17668
-0.00431	0.35523
0.32721	-0.18043
-0.13181	-0.07840
0.27621	-0.28246
0.27621	0.30422
0.25071	0.10015
0.04670	0.43176
-0.15732	0.25320
0.53123	0.35523
0.73524	0.32972
-0.38683	-0.15492
-0.53984	-0.41000
-0.46334	0.02363
1.14327	0.53379
0.99026	0.43176
0.53123	0.27871
-0.28482	0.07465
-0.48884	0.02363
0.37822	-0.05289
-0.10631	0.25320
-1.10088	-0.10391
-0.41233	0.20219
0.40372	0.40625
0.68424	0.12566
1.50029	0.32972
-0.64185	0.07465
1.19427	-0.05289
0.02119	-0.05289
0.04670	0.35523
-0.64185	0.58480
-0.79486	-0.00188
0.17421	-0.20594
0.73524	0.20219
0.17421	0.17668
0.09770	-0.00188
0.99026	0.55929
0.40372	0.17668
-0.08081	0.10015
-0.13181	0.12566
0.68424	-0.25695
-0.36133	0.40625
-0.97337	0.40625
-2.22295	0.04914
2.69887	-0.35899
3.99945	0.25320
0.60773	0.48277
-0.28482	0.10015
-1.33039	-0.05289
-2.09544	0.04914
-2.04444	0.10015
2.80087	0.20219
-0.08081	0.17668
-0.89686	0.07465
-0.31033	0.10015
0.25071	-0.00188
0.88825	-0.05289
1.50029	0.30422
1.29628	0.10015
1.24527	0.02363
1.27078	0.04914
-0.28482	0.50828
-0.89686	0.15117
-0.79486	-0.05289
-0.51434	0.04914
-0.56534	0.30422
0.76074	0.17668
0.30171	-0.02739
0.50573	0.43176
0.12320	0.20219
-0.23382	-0.35899
0.09770	0.04914
-0.13181	0.40625
-0.43783	0.12566
0.27621	-0.05289
0.53123	0.12566
0.32721	0.25320
0.07220	0.30422
-0.00431	0.25320
0.09770	-0.05289
0.50573	-0.38449
0.76074	0.02363
1.34728	0.50828
0.73524	0.30422
-0.66735	-0.00188
-2.06994	-0.23145
-0.02981	-0.46102
0.12320	0.22769
0.55673	0.63582
0.32721	0.25320
0.37822	0.30422
0.19971	0.35523
-0.15732	-0.02739
0.35272	0.15117
-0.10631	0.12566
0.53123	0.32972
-0.02981	0.32972
0.12320	-0.07840
0.27621	0.04914
0.04670	-0.10391
0.99026	0.17668
0.17421	0.15117
-0.41233	-0.07840
-0.05531	0.45726
0.60773	0.10015
-0.25932	0.10015
-0.36133	0.04914
-0.20832	0.27871
0.04670	0.35523
-0.53984	0.15117
-0.13181	0.38074
0.48022	-0.20594
1.14327	0.53379
1.62780	0.38074
0.91375	0.04914
-0.08081	-0.25695
-0.05531	-0.30797
-0.18282	0.17668
-0.00431	0.45726
-0.56534	0.04914
0.17421	0.17668
-0.02981	0.27871
0.04670	0.04914
0.02119	-0.05289
-0.18282	-0.10391
0.09770	0.50828
0.40372	-0.23145
0.99026	0.15117
0.65874	0.38074
0.65874	0.50828
0.14870	-0.00188
-0.82036	0.27871
0.22521	0.17668
0.37822	-0.05289
-1.50890	0.04914
-0.41233	-0.10391
0.37822	-0.15492
0.42922	0.04914
0.30171	0.40625
0.14870	0.45726
1.09226	0.45726
1.57679	0.40625
0.09770	-0.00188
-1.02437	0.17668
-0.89686	-0.18043
-0.25932	-0.00188
0.73524	0.43176
0.22521	0.02363
-0.20832	0.07465
0.09770	0.27871
1.01576	0.25320
1.14327	0.45726
0.25071	0.10015
-0.31033	0.20219
-0.08081	0.35523
0.09770	-0.23145
0.22521	0.04914
0.32721	-0.15492
-0.02981	0.40625
0.07220	-0.00188
0.17421	0.32972
-0.10631	0.17668
-0.08081	0.20219
-0.08081	0.02363
0.53123	0.17668
1.19427	0.22769
0.83725	0.04914
-0.10631	0.45726
0.07220	0.53379
0.02119	0.32972
-1.15188	-0.28246
-0.87136	-0.15492
-0.59084	-0.25695
0.68424	0.22769
0.48022	0.25320
0.70974	0.32972
0.65874	0.32972
0.37822	0.04914
-0.38683	0.22769
0.88825	0.12566
0.58223	-0.02739
0.65874	0.40625
0.19971	0.66132
0.32721	-0.43551
-0.43783	-0.00188
-0.20832	0.43176
-0.10631	0.07465
-0.56534	0.25320
-0.15732	0.55929
-0.00431	-0.00188
0.37822	0.07465
0.63323	0.10015
0.30171	0.04914
0.14870	-0.05289
0.35272	0.15117
0.40372	0.04914
0.12320	0.25320
0.12320	0.12566
0.07220	0.27871
-0.25932	0.30422
-0.28482	0.10015
0.02119	0.10015
0.88825	0.07465
0.53123	0.17668
-0.25932	0.04914
-0.31033	0.40625
-0.33583	-0.15492
0.22521	0.17668
0.76074	0.25320
1.29628	-0.18043
0.55673	0.22769
-0.33583	0.07465
-0.46334	0.20219
-0.33583	0.71234
-0.38683	-0.02739
-0.10631	-0.12942
0.73524	0.32972
1.62780	0.76336
0.32721	0.07465
-0.36133	-0.41000
-0.89686	-0.12942
0.02119	-0.12942
0.09770	0.40625
0.32721	0.63582
0.19971	0.20219
-0.02981	-0.23145
-0.08081	0.15117
0.48022	0.63582
-0.10631	0.15117
0.14870	0.32972
0.09770	-0.38449
0.22521	-0.05289
0.30171	0.15117
0.17421	0.35523
0.35272	0.04914
-0.08081	-0.10391
0.22521	0.04914
-0.38683	0.38074
0.53123	0.04914
0.68424	0.27871
0.35272	0.43176
-0.28482	0.61031
-0.51434	-0.00188
0.04670	0.20219
0.27621	0.38074
0.40372	-0.71609
-0.00431	-0.48652
-0.38683	-0.25695
-0.10631	0.61031
0.27621	0.50828
0.65874	0.17668
0.22521	0.35523
0.14870	0.10015
0.09770	0.17668
0.63323	0.20219
0.60773	0.04914
-0.05531	0.25320
-0.02981	-0.15492
-0.43783	0.20219
0.09770	0.17668
0.22521	0.04914
0.12320	0.27871
-0.08081	0.07465
0.53123	-0.07840
0.12320	0.30422
-0.25932	0.10015
-0.10631	0.02363
0.40372	0.58480
0.19971	0.58480
0.12320	-0.33348
-0.28482	0.02363
-0.02981	0.35523
0.22521	0.04914
0.65874	0.38074
0.63323	0.76336
0.17421	-0.15492
0.53123	-0.69059
0.07220	-0.05289
-0.38683	0.55929
-0.05531	0.45726
-0.36133	0.20219
1.11776	0.25320
0.86275	-0.05289
-0.43783	-0.10391
-0.38683	0.15117
-0.33583	0.04914
0.30171	-0.02739
1.60230	0.45726
0.12320	0.50828
-0.59084	-0.12942
0.73524	-0.35899
0.02119	0.25320
-0.20832	0.35523
-0.43783	0.48277
-0.51434	0.22769
0.12320	-0.25695
0.63323	-0.23145
1.72980	0.71234
0.48022	0.50828
-0.36133	-0.20594
-0.10631	0.15117
0.14870	0.10015
0.12320	-0.00188
0.22521	-0.28246
-0.18282	0.07465
0.09770	0.20219
-0.15732	0.58480
-0.00431	0.35523
0.48022	0.04914
0.50573	0.35523
0.09770	0.55929
-0.28482	-0.25695
-0.53984	-0.25695
0.91375	0.27871
0.09770	0.22769
0.02119	0.40625
-0.23382	-0.07840
-0.33583	-0.07840
0.04670	0.15117
0.86275	0.35523
0.63323	0.30422
0.50573	0.20219
-0.53984	0.22769
-0.15732	0.38074
0.76074	-0.05289
1.04126	-0.00188
-0.43783	0.12566
-0.87136	-0.05289
-0.18282	0.20219
0.04670	-0.00188
-0.00431	0.22769
0.73524	0.35523
0.42922	0.20219
-0.15732	-0.10391
0.04670	0.22769
1.34728	0.25320
0.76074	0.76336
-0.71835	0.15117
-0.31033	-0.20594
0.04670	-0.05289
0.22521	0.12566
-0.31033	0.55929
-0.25932	-0.18043
-0.05531	-0.41000
0.37822	0.17668
0.45472	-0.02739
0.19971	0.07465
1.24527	0.15117
0.55673	0.30422
-1.12638	0.58480
0.19971	0.15117
0.22521	0.15117
-0.33583	-0.20594
0.32721	-0.02739
0.81175	0.53379
0.19971	0.17668
-0.08081	-0.15492
0.25071	-0.02739
-0.41233	0.02363
-0.87136	0.10015
0.40372	0.20219
0.55673	0.32972
0.30171	0.22769
-0.00431	0.40625
0.19971	-0.15492
0.09770	0.12566
0.45472	0.30422
0.78624	0.04914
0.55673	0.35523
-0.33583	0.50828
-0.31033	-0.05289
-0.23382	-0.00188
-0.02981	0.07465
-0.02981	0.48277
0.14870	-0.18043
1.04126	-0.25695
0.27621	-0.20594
0.12320	0.63582
-0.23382	0.32972
0.53123	0.17668
0.78624	0.10015
0.78624	0.63582
-0.25932	-0.15492
-0.23382	-0.07840
0.02119	-0.05289
-0.69285	0.07465
-0.61635	0.12566
-0.13181	0.45726
0.07220	0.15117
-0.00431	0.12566
0.63323	0.58480
1.06676	0.40625
0.40372	-0.48652
0.02119	-0.00188
-0.31033	0.07465
0.27621	-0.02739
0.63323	0.04914
0.58223	0.61031
-0.20832	0.55929
-0.20832	0.02363
0.25071	0.17668
0.17421	0.32972
-0.20832	-0.23145
-0.02981	-0.05289
0.02119	0.20219
-0.28482	0.27871
0.73524	0.25320
0.50573	-0.25695
-0.20832	-0.05289
-0.05531	0.43176
-0.02981	0.10015
0.55673	-0.15492
0.22521	0.66132
-0.31033	0.50828
-0.51434	-0.66508
0.09770	0.04914
0.99026	0.17668
-0.10631	0.07465
0.53123	0.38074
0.19971	0.53379
0.17421	0.17668
0.48022	0.20219
0.09770	0.27871
0.04670	0.10015
-0.59084	0.35523
-0.10631	-0.18043
0.32721	-0.05289
0.55673	-0.05289
0.55673	0.25320
0.19971	0.35523
0.07220	0.04914
-0.10631	0.17668
-0.18282	-0.05289
-0.38683	-0.07840
0.35272	-0.00188
0.70974	0.07465
0.60773	0.07465
0.50573	0.48277
-0.38683	0.43176
-0.36133	0.43176
-0.02981	0.02363
0.19971	-0.02739
-0.10631	0.15117
-0.08081	0.25320
0.12320	0.10015
0.53123	0.22769
0.30171	0.38074
0.12320	0.86539
0.53123	-0.33348
0.96476	-0.07840
0.02119	0.32972
-0.38683	0.12566
-0.51434	0.10015
0.83725	0.30422
-0.20832	-0.02739
0.14870	0.35523
0.22521	-0.07840
0.45472	-0.02739
-0.08081	0.43176
-0.10631	0.07465
-0.00431	0.25320
-0.00431	0.25320
-0.43783	0.17668
-0.05531	0.30422
0.96476	0.22769
1.11776	0.17668
0.22521	-0.05289
0.12320	-0.12942
-0.31033	-0.20594
-0.36133	0.20219
0.04670	0.55929
0.30171	-0.10391
0.78624	-0.10391
-0.20832	0.48277
-0.53984	-0.25695
-0.38683	-0.30797
-1.02437	0.02363
0.93925	0.45726
1.27078	0.78886
0.50573	0.04914
0.17421	0.20219
-0.59084	0.10015
-0.20832	0.10015
0.17421	0.17668
-0.15732	-0.07840
-0.48884	-0.20594
0.12320	-0.00188
0.78624	0.22769
0.83725	0.38074
0.53123	0.35523
-0.00431	0.30422
-0.28482	-0.18043
0.32721	-0.02739
0.30171	-0.10391
0.25071	0.04914
-0.08081	0.15117
-0.51434	-0.02739
-0.05531	0.27871
0.14870	0.20219
0.60773	0.48277
-0.28482	0.30422
0.07220	0.15117
0.73524	-0.02739
0.50573	0.20219
-0.13181	0.02363
-0.48884	-0.20594
-0.76936	0.02363
1.27078	0.27871
0.37822	0.12566
-0.05531	0.20219
0.27621	0.38074
-0.00431	0.32972
-0.48884	-0.00188
0.09770	-0.10391
0.63323	-0.12942
0.14870	0.25320
0.07220	-0.35899
0.73524	0.32972
0.12320	0.81437
0.07220	0.30422
0.04670	-0.15492
-0.02981	0.15117
-0.61635	0.25320
-0.10631	-0.02739
0.17421	-0.00188
0.63323	-0.15492
0.68424	0.55929
-0.71835	0.35523
-0.13181	0.15117
1.42379	0.15117
0.96476	0.20219
0.58223	-0.02739
-0.18282	-0.28246
-0.61635	0.10015
-0.53984	0.58480
-0.51434	0.12566
-0.46334	-0.18043
0.58223	0.17668
0.53123	0.43176
0.58223	0.55929
0.88825	0.76336
0.12320	0.15117
-0.18282	-0.00188
-0.46334	-0.43551
-0.18282	-0.41000
-0.25932	-0.23145
0.12320	0.30422
0.58223	0.22769
0.68424	0.55929
0.68424	0.17668
0.65874	0.38074
-0.00431	0.22769
0.42922	0.40625
0.04670	-0.43551
-0.28482	0.25320
-0.79486	0.22769
-0.46334	0.35523
0.09770	-0.00188
0.65874	0.02363
0.12320	0.48277
-0.76936	0.10015
0.70974	0.04914
0.65874	0.07465
0.42922	-0.25695
0.30171	0.27871
0.55673	0.43176
-0.64185	-0.28246
0.35272	-0.10391
0.17421	-0.25695
-0.05531	0.53379
0.14870	0.58480
0.45472	-0.05289
0.48022	0.27871
0.27621	0.04914
-0.61635	0.30422
-1.12638	0.63582
-0.38683	-0.35899
0.37822	-0.53754
-0.05531	-0.02739
-0.13181	0.25320
0.30171	0.45726
1.09226	0.55929
0.53123	0.17668
0.88825	0.45726
-0.20832	0.07465
-0.48884	-0.43551
-0.31033	-0.12942
0.04670	0.04914
0.76074	0.40625
0.55673	-0.02739
-0.13181	0.25320
-0.05531	0.40625
0.63323	0.61031
0.07220	-0.00188
-0.25932	-0.58856
0.32721	-0.20594
-0.25932	0.35523
0.17421	0.43176
0.14870	0.43176
0.35272	0.50828
0.60773	0.45726
0.63323	-0.05289
-0.00431	-0.48652
0.07220	0.04914
0.30171	0.27871
0.45472	0.04914
0.17421	0.63582
-0.31033	-0.07840
-0.66735	0.12566
0.30171	0.25320
0.04670	-0.02739
-0.87136	0.02363
0.76074	-0.05289
1.24527	0.53379
0.63323	0.04914
-0.48884	-0.18043
-0.38683	0.12566
-0.08081	0.12566
0.14870	0.27871
0.19971	0.12566
-0.97337	0.27871
0.99026	0.27871
0.73524	0.15117
0.19971	0.10015
0.12320	-0.00188
-0.13181	-0.18043
0.12320	0.17668
0.22521	0.40625
0.25071	0.43176
0.30171	0.53379
-0.13181	0.04914
-0.02981	0.02363
-0.08081	-0.12942
0.35272	0.22769
0.09770	0.10015
0.22521	0.20219
0.19971	-0.12942
0.40372	-0.02739
0.09770	0.04914
0.48022	0.27871
0.68424	0.20219
-0.20832	0.73785
-0.51434	0.04914
-0.18282	-0.33348
-0.00431	0.10015
0.12320	0.27871
0.14870	0.25320
0.53123	0.45726
0.19971	0.02363
0.22521	0.10015
0.25071	0.25320
0.17421	-0.12942
0.30171	-0.10391
0.07220	0.55929
-0.15732	0.25320
-0.05531	-0.38449
0.37822	-0.02739
0.27621	0.32972
0.09770	0.25320
0.27621	0.30422
-0.18282	0.27871
-0.13181	0.30422
0.17421	-0.05289
0.58223	0.17668
0.32721	0.27871
-0.18282	-0.23145
-0.18282	-0.20594
0.17421	-0.20594
0.53123	0.58480
0.37822	0.04914
0.12320	0.55929
-0.10631	0.83988
-0.02981	-0.48652
-0.00431	-0.23145
0.25071	0.12566
-0.13181	0.17668
0.09770	0.15117
0.35272	0.35523
0.96476	0.63582
0.22521	0.15117
-0.00431	0.04914
-0.31033	0.10015
-0.28482	0.27871
0.09770	0.02363
0.70974	-0.18043
0.60773	0.35523
0.02119	0.04914
-0.20832	-0.02739
0.22521	0.45726
-0.05531	0.40625
-0.18282	0.04914
0.32721	-0.25695
1.04126	0.02363
-0.08081	0.53379
-0.31033	0.27871
0.07220	-0.48652
0.04670	-0.20594
0.91375	0.55929
0.53123	1.04394
-0.41233	0.12566
0.17421	0.20219
-0.18282	-0.58856
0.02119	-0.10391
0.19971	0.94191
0.09770	0.04914
-0.13181	-0.00188
0.17421	-0.18043
0.35272	0.32972
0.17421	0.53379
0.30171	0.27871
0.73524	0.10015
1.21977	-0.07840
0.22521	0.22769
-0.18282	-0.05289
0.17421	0.07465
-0.53984	0.20219
-0.28482	0.22769
-0.02981	-0.05289
-0.05531	-0.30797
0.14870	0.10015
0.37822	0.55929
-0.23382	0.22769
0.14870	0.30422
0.42922	-0.15492
1.16877	0.48277
0.14870	-0.10391
-0.41233	0.30422
-0.10631	0.12566
0.09770	0.04914
0.22521	0.35523
0.30171	0.76336
0.27621	-0.25695
0.45472	-0.48652
0.07220	-0.00188
-0.20832	0.25320
-0.33583	0.15117
-0.15732	0.27871
0.81175	0.55929
1.27078	0.27871
-0.15732	-0.15492
-0.61635	0.35523
-0.76936	-0.15492
0.12320	-0.12942
1.06676	0.12566
0.17421	0.53379
-0.08081	-0.02739
0.07220	0.02363
0.19971	-0.18043
0.35272	0.43176
0.09770	0.32972
0.02119	0.10015
0.27621	0.17668
0.81175	0.02363
0.60773	0.38074
-0.38683	0.10015
-0.20832	-0.02739
-0.00431	0.12566
0.25071	0.25320
0.30171	-0.25695
0.42922	0.30422
0.12320	0.43176
-0.46334	-0.00188
-0.02981	0.17668
0.65874	0.20219
1.04126	0.20219
-0.20832	-0.05289
-0.48884	0.27871
0.07220	0.38074
0.25071	-0.02739
0.07220	-0.02739
-0.02981	-0.20594
0.02119	0.86539
0.19971	0.30422
0.02119	-0.51203
0.12320	-0.20594
0.32721	-0.18043
0.76074	0.45726
0.40372	0.63582
-0.18282	0.25320
0.14870	0.07465
-0.28482	-0.38449
0.32721	-0.00188
0.35272	0.22769
-0.38683	0.55929
-0.36133	0.38074
0.12320	-0.10391
0.32721	-0.00188
0.12320	0.20219
0.35272	0.43176
0.12320	-0.25695
0.04670	-0.05289
0.12320	0.32972
-0.00431	0.38074
0.35272	-0.05289
-0.08081	0.15117
0.60773	0.43176
-0.15732	-0.41000
0.19971	0.12566
0.04670	0.61031
0.93925	0.53379
0.32721	0.27871
-0.36133	-0.12942
-0.33583	0.12566
0.14870	0.30422
-0.59084	0.25320
-0.20832	-0.38449
0.09770	-0.41000
0.58223	0.15117
0.70974	0.07465
0.93925	0.17668
0.83725	0.45726
0.02119	0.35523
-0.59084	-0.07840
-0.20832	-0.02739
-0.13181	0.30422
-0.31033	0.20219
0.02119	0.12566
0.81175	0.20219
0.91375	0.35523
0.12320	0.15117
0.02119	-0.20594
0.07220	0.04914
-0.00431	-0.02739
0.02119	0.10015
-0.15732	-0.07840
-0.10631	-0.15492
0.30171	0.35523
0.93925	0.35523
0.22521	0.40625
0.25071	0.17668
0.42922	0.17668
-0.13181	0.07465
-0.25932	0.02363
-0.23382	0.35523
-0.02981	0.20219
-0.18282	-0.07840
-0.13181	0.32972
0.40372	0.22769
0.63323	-0.15492
0.65874	0.07465
0.81175	-0.02739
1.09226	0.25320
0.04670	0.12566
-0.82036	0.17668
-0.66735	0.20219
-0.36133	0.07465
-0.43783	-0.07840
-0.18282	-0.10391
-0.64185	0.48277
1.09226	0.35523
1.16877	0.30422
1.21977	0.15117
0.60773	-0.18043
-0.02981	0.04914
-0.23382	-0.02739
0.02119	0.40625
-0.15732	0.15117
-1.02437	0.04914
-0.41233	0.20219
0.12320	0.20219
0.63323	0.25320
0.40372	-0.05289
0.48022	-0.00188
0.27621	0.22769
0.12320	0.20219
0.30171	-0.02739
0.22521	-0.10391
0.42922	-0.02739
-0.00431	0.07465
-0.02981	0.30422
-0.02981	0.04914
0.04670	0.66132
0.25071	0.30422
0.12320	-0.15492
-0.23382	0.04914
-0.15732	0.61031
0.48022	-0.12942
0.65874	0.22769
0.04670	-0.28246
0.07220	0.20219
0.09770	0.35523
0.02119	0.25320
0.60773	0.58480
0.35272	0.22769
-0.02981	-0.43551
-0.13181	-0.35899
0.04670	0.22769
0.19971	0.43176
0.19971	0.50828
0.22521	0.15117
0.14870	0.10015
0.42922	0.17668
0.60773	-0.33348
-0.31033	0.04914
-0.31033	0.50828
-0.48884	0.25320
-0.66735	-0.53754
0.55673	-0.18043
-0.10631	0.53379
0.53123	0.25320
0.65874	0.58480
0.58223	0.50828
0.19971	0.48277
-0.38683	-0.00188
-0.53984	-0.71609
0.07220	-0.63957
0.55673	0.35523
0.12320	0.66132
0.09770	0.58480
0.78624	0.35523
0.50573	0.15117
0.19971	0.27871
-0.31033	-0.18043
-0.28482	0.10015
-0.05531	0.30422
-0.02981	-0.12942
0.12320	-0.05289
0.50573	0.35523
0.68424	0.61031
0.12320	-0.25695
0.22521	0.12566
-0.15732	0.27871
-0.59084	0.04914
0.22521	0.25320
0.32721	0.22769
-0.20832	-0.20594
0.63323	0.12566
0.63323	0.40625
-0.08081	-0.02739
-0.02981	0.17668
0.27621	0.63582
0.07220	0.45726
0.14870	-0.66508
0.76074	-0.35899
0.63323	0.55929
-0.38683	0.20219
-0.74385	0.17668
-0.76936	-0.10391
0.25071	0.30422
0.48022	-0.00188
0.48022	0.30422
0.07220	0.76336
0.22521	-0.00188
0.42922	-0.18043
0.42922	-0.18043
0.14870	-0.02739
0.14870	0.27871
-0.08081	0.20219
0.07220	-0.12942
-0.00431	0.35523
-0.13181	0.71234
0.40372	-0.07840
0.32721	-0.33348
0.17421	0.30422
0.02119	0.15117
0.12320	-0.20594
0.50573	0.02363
-0.02981	0.45726
-0.28482	0.10015
-0.33583	0.30422
0.14870	0.32972
0.32721	0.12566
0.32721	0.17668
0.93925	0.10015
0.37822	-0.25695
-0.08081	-0.23145
0.02119	0.43176
-0.23382	0.25320
-0.28482	0.27871
0.22521	0.40625
0.25071	-0.00188
0.40372	0.10015
-0.25932	0.15117
0.65874	0.10015
0.25071	0.12566
0.22521	-0.00188
-0.15732	0.12566
-0.00431	0.04914
0.37822	0.38074
0.78624	0.78886
0.09770	0.10015
-0.05531	-0.61406
-0.38683	0.07465
-0.51434	-0.25695
-0.33583	-0.10391
-0.18282	0.40625
1.75531	0.40625
0.25071	0.25320
0.12320	0.20219
-0.43783	0.20219
-0.31033	-0.12942
0.14870	0.53379
0.63323	0.15117
0.25071	0.04914
0.02119	0.22769
0.12320	0.02363
0.70974	-0.00188
0.35272	0.38074
-0.10631	0.04914
0.37822	0.25320
0.50573	-0.18043
0.45472	0.10015
-0.31033	0.22769
-0.53984	0.12566
-0.48884	0.22769
-0.38683	0.50828
0.78624	0.10015
0.07220	-0.05289
-0.02981	0.43176
0.53123	0.20219
0.63323	-0.07840
1.11776	-0.25695
-0.13181	0.12566
-0.48884	0.58480
-0.38683	-0.07840
0.02119	-0.02739
0.17421	-0.23145
0.88825	0.83988
0.55673	0.66132
0.37822	0.30422
-0.08081	-0.79262
-0.23382	-0.15492
-0.02981	0.27871
0.27621	0.32972
-0.15732	0.38074
-0.00431	0.07465
0.17421	0.22769
0.35272	0.22769
0.32721	0.30422
0.27621	0.22769
-0.48884	0.07465
0.40372	-0.25695
0.45472	0.17668
0.14870	0.15117
0.07220	-0.00188
0.30171	0.22769
0.17421	-0.43551
0.35272	0.10015
-0.00431	0.25320
0.19971	0.43176
0.37822	0.61031
-0.10631	0.35523
-0.33583	-0.48652
0.02119	-0.05289
0.22521	0.25320
-0.08081	0.40625
-1.02437	0.15117
0.42922	0.30422
1.16877	-0.05289
0.81175	0.35523
0.32721	0.22769
-0.08081	0.43176
-0.10631	-0.12942
0.17421	0.10015
-0.15732	0.30422
-0.08081	-0.28246
0.32721	-0.33348
0.40372	0.50828
0.02119	0.63582
0.12320	0.20219
0.30171	-0.02739
-0.43783	0.04914
0.32721	0.32972
0.19971	0.17668
-0.08081	-0.00188
0.22521	-0.02739
0.63323	0.20219
0.45472	0.38074
0.09770	0.58480
-0.48884	0.58480
-0.02981	0.07465
0.73524	-1.07320
0.07220	-0.23145
-0.05531	0.73785
0.02119	0.40625
-0.05531	0.04914
0.22521	-0.51203
0.02119	0.17668
0.70974	0.43176
0.04670	0.48277
0.09770	0.50828
0.17421	0.43176
0.30171	-0.10391
