-0.08081	0.40625
0.02119	1.60511
0.14870	1.01843
0.35272	0.40625
-0.02981	-0.38449
0.09770	-0.38449
-0.13181	-0.30797
0.07220	-0.25695
0.35272	-0.97117
0.22521	-0.53754
0.02119	1.37554
0.04670	0.66132
0.09770	-0.30797
0.58223	-0.48652
-0.00431	0.86539
0.19971	1.01843
0.02119	1.24800
0.07220	-0.18043
0.09770	-1.07320
-0.00431	-0.20594
0.12320	0.63582
-0.15732	0.50828
0.27621	-0.10391
0.58223	-0.63957
0.35272	0.96742
0.02119	0.50828
0.09770	-0.05289
-0.18282	0.30422
0.30171	-0.07840
0.60773	-0.05289
-0.46334	0.25320
-0.43783	0.38074
-0.02981	-0.15492
0.19971	0.02363
0.53123	-0.63957
0.37822	0.43176
0.09770	1.68163
-0.20832	1.17148
0.53123	-0.07840
-0.05531	-0.43551
-0.08081	0.04914
-0.25932	0.68683
0.02119	0.89089
0.76074	-0.86914
0.37822	-1.20074
0.19971	0.68683
-0.20832	1.01843
0.14870	-0.33348
0.58223	-1.04770
0.37822	-0.43551
0.04670	0.17668
-0.13181	1.01843
-0.13181	1.35003
0.27621	0.30422
0.04670	-0.12942
-0.10631	0.07465
-0.10631	0.76336
-0.00431	0.63582
0.55673	-0.61406
0.12320	-1.07320
0.19971	0.10015
-0.05531	1.47757
0.12320	0.76336
0.45472	-0.43551
0.35272	-0.15492
0.22521	0.27871
-0.38683	0.12566
-0.10631	-0.51203
0.48022	-0.35899
0.42922	0.71234
-0.41233	0.45726
-0.10631	0.73785
0.37822	-0.25695
0.17421	-0.43551
0.09770	-0.28246
0.30171	0.89089
-0.15732	1.52859
-0.28482	0.76336
0.42922	-0.15492
0.27621	-0.00188
-0.00431	0.15117
-0.05531	0.55929
0.12320	0.53379
0.32721	-2.01699
0.37822	-0.25695
0.25071	0.86539
-0.05531	0.78886
-0.18282	0.45726
0.14870	-0.63957
-0.02981	-0.46102
-0.08081	-0.35899
-0.18282	0.76336
0.19971	1.04394
0.58223	-0.48652
0.53123	0.45726
0.45472	0.45726
0.02119	0.63582
-0.15732	0.35523
0.50573	-0.35899
0.32721	0.22769
0.09770	0.30422
-0.15732	0.66132
-0.31033	0.07465
0.02119	-0.71609
0.14870	0.10015
0.27621	0.12566
-0.25932	1.06945
0.07220	0.12566
0.60773	-0.48652
0.50573	0.38074
0.22521	-0.35899
0.12320	0.32972
-0.02981	0.89089
0.27621	-0.35899
0.07220	-0.10391
0.04670	0.53379
-0.25932	1.01843
-0.15732	0.17668
0.30171	-0.84363
0.32721	-0.89465
0.22521	1.14597
-0.10631	1.24800
0.02119	-0.43551
0.12320	-0.76711
0.35272	0.38074
0.14870	0.81437
-0.02981	0.55929
0.02119	-0.02739
0.19971	-0.66508
-0.20832	-0.38449
0.02119	0.50828
-0.36133	0.55929
0.53123	0.20219
0.65874	-0.25695
0.42922	0.22769
0.65874	0.78886
-0.41233	1.12046
-0.23382	-0.69059
0.63323	-0.18043
-0.18282	0.66132
0.32721	2.39585
0.04670	0.10015
0.02119	-0.97117
0.22521	-1.07320
-0.28482	-0.10391
0.27621	-0.10391
-0.18282	0.63582
-0.02981	0.15117
0.35272	0.07465
0.35272	-0.35899
0.27621	0.55929
-0.08081	0.86539
0.32721	0.81437
0.37822	-0.18043
-0.00431	-0.00188
0.14870	0.02363
0.02119	0.32972
-0.15732	0.17668
0.42922	-0.10391
0.30171	-0.05289
0.22521	-0.02739
-0.05531	0.71234
0.02119	0.35523
0.40372	-0.28246
0.48022	0.20219
-0.15732	-0.02739
-0.15732	0.94191
-0.53984	1.01843
0.35272	-0.23145
0.19971	-0.28246
0.53123	-0.38449
0.27621	0.25320
0.19971	0.10015
0.42922	-0.63957
-0.18282	0.25320
0.19971	0.48277
-0.23382	1.27351
-0.33583	0.68683
0.73524	-0.56305
0.25071	-0.20594
0.02119	-0.25695
-0.33583	0.71234
0.07220	0.17668
0.45472	-0.23145
0.35272	-0.15492
-0.13181	0.12566
0.12320	0.35523
-0.00431	0.66132
0.42922	-0.10391
0.30171	-0.20594
0.04670	0.40625
0.02119	0.61031
0.09770	0.45726
0.25071	-0.48652
0.12320	0.45726
0.14870	0.53379
0.09770	0.50828
-0.20832	-0.07840
0.42922	-0.28246
0.25071	-0.15492
-0.08081	-0.43551
-0.10631	0.50828
-0.25932	0.61031
0.50573	-0.00188
0.30171	0.27871
0.12320	0.07465
-0.36133	0.66132
-0.02981	0.43176
0.50573	-0.35899
0.30171	0.43176
0.22521	-0.05289
-0.10631	0.22769
0.14870	-0.25695
0.09770	-0.10391
0.30171	0.45726
0.19971	0.40625
-0.18282	0.66132
-0.08081	0.43176
0.37822	-0.71609
0.19971	0.04914
-0.18282	-0.02739
-0.05531	0.43176
0.37822	0.71234
0.50573	-0.18043
0.14870	0.02363
0.07220	0.30422
-0.15732	0.45726
0.12320	0.27871
0.40372	-0.28246
0.22521	0.10015
0.17421	0.27871
-0.25932	0.40625
-0.18282	0.15117
0.27621	-0.25695
0.19971	-0.00188
0.42922	0.45726
-0.18282	0.43176
-0.02981	0.50828
0.30171	-0.20594
0.14870	-0.05289
0.30171	0.20219
-0.20832	0.53379
0.12320	-0.15492
0.19971	0.10015
0.02119	0.63582
0.02119	0.04914
0.14870	0.71234
-0.13181	0.45726
0.50573	-0.56305
0.32721	-0.20594
0.19971	0.04914
-0.18282	0.68683
-0.05531	0.55929
0.53123	-0.30797
0.14870	0.12566
0.17421	0.17668
-0.18282	0.35523
0.07220	0.20219
0.50573	-0.07840
0.30171	0.12566
-0.02981	-0.02739
-0.18282	0.71234
-0.02981	0.22769
0.48022	0.35523
0.04670	0.07465
0.27621	0.38074
-0.10631	0.48277
-0.10631	0.27871
0.30171	-0.10391
0.30171	-0.05289
0.14870	-0.33348
-0.25932	0.48277
-0.15732	0.40625
0.73524	-0.43551
0.19971	-0.20594
0.37822	0.15117
-0.13181	1.01843
0.19971	-0.05289
0.48022	-0.15492
0.02119	0.40625
-0.33583	0.50828
-0.20832	0.17668
0.12320	0.04914
0.53123	-0.38449
0.07220	-0.20594
0.32721	0.45726
0.02119	0.96742
0.30171	1.12046
0.40372	-0.35899
0.14870	0.22769
-0.10631	-0.41000
-0.18282	0.53379
0.30171	0.04914
0.40372	-1.14973
0.09770	0.50828
-0.05531	-0.18043
-0.23382	0.10015
0.09770	0.66132
0.68424	0.25320
0.55673	0.55929
0.07220	0.02363
-0.36133	0.96742
0.12320	0.22769
0.53123	-0.25695
0.27621	-0.41000
0.17421	-0.07840
-0.08081	0.66132
-0.23382	1.27351
0.53123	-0.05289
0.09770	-0.71609
0.09770	-0.23145
-0.31033	0.04914
-0.08081	0.27871
0.37822	0.30422
0.58223	0.40625
0.14870	0.45726
-0.00431	-0.07840
0.22521	-0.07840
0.73524	-0.38449
-0.15732	0.12566
-0.51434	1.24800
-0.25932	0.94191
0.19971	0.71234
0.48022	-0.48652
0.48022	-0.74160
0.32721	-0.15492
0.04670	0.99292
-0.08081	0.22769
0.40372	-0.66508
0.12320	-0.23145
-0.08081	-0.00188
-0.31033	0.55929
-0.05531	0.35523
0.63323	0.04914
0.32721	-0.00188
0.07220	0.22769
-0.28482	0.78886
0.09770	0.58480
0.73524	-0.28246
0.25071	-0.23145
0.04670	0.20219
-0.02981	0.48277
-0.13181	0.45726
0.53123	-1.27726
0.09770	-0.18043
0.27621	1.14597
-0.25932	1.57960
0.02119	0.27871
0.40372	-0.46102
0.27621	-0.46102
0.12320	-0.28246
-0.31033	-0.43551
0.02119	-0.10391
0.40372	0.35523
0.42922	0.96742
0.25071	0.96742
0.02119	0.43176
-0.08081	-0.25695
0.32721	-0.74160
0.09770	0.12566
0.04670	0.12566
-0.28482	0.94191
0.07220	0.27871
0.42922	-0.30797
0.09770	0.71234
0.02119	0.12566
0.02119	0.07465
0.17421	0.12566
0.48022	-0.23145
0.37822	0.35523
0.04670	-0.23145
-0.33583	0.81437
-0.13181	0.32972
0.37822	-0.30797
0.19971	-0.35899
0.40372	0.53379
0.04670	1.29902
-0.00431	0.89089
0.48022	-0.12942
-0.13181	-0.86914
-0.05531	-0.00188
-0.28482	0.07465
0.12320	0.43176
0.55673	-0.15492
0.27621	0.27871
0.02119	-0.02739
0.17421	0.43176
0.19971	0.40625
0.55673	-0.33348
-0.23382	0.20219
-0.13181	-0.84363
-0.13181	0.45726
0.32721	0.35523
0.55673	0.20219
0.45472	0.81437
-0.02981	1.45206
0.07220	0.89089
-0.08081	-0.00188
-0.02981	-0.94566
0.07220	-0.23145
0.19971	-0.30797
0.25071	-0.15492
0.14870	0.20219
0.14870	-0.41000
0.14870	0.30422
0.22521	0.38074
0.02119	0.40625
0.14870	0.50828
0.30171	-0.41000
0.27621	-0.15492
0.07220	0.35523
-0.05531	1.68163
-0.05531	0.89089
0.50573	-0.23145
0.12320	0.04914
0.12320	0.12566
0.09770	0.99292
-0.23382	-0.30797
0.45472	-0.86914
0.07220	-1.27726
0.07220	-0.02739
-0.13181	0.66132
0.07220	0.96742
0.55673	0.15117
0.12320	0.15117
0.27621	0.43176
0.07220	0.27871
0.07220	0.45726
0.30171	-0.46102
0.27621	-0.07840
0.07220	0.20219
-0.18282	0.76336
-0.02981	0.35523
0.58223	-0.51203
0.25071	0.27871
0.17421	0.53379
0.02119	1.06945
0.17421	0.02363
0.32721	-0.79262
0.02119	-0.33348
-0.13181	-0.15492
-0.36133	0.61031
-0.08081	0.50828
0.55673	0.68683
0.27621	0.40625
0.22521	-0.25695
-0.23382	0.30422
0.14870	0.45726
0.42922	-0.15492
0.25071	-0.28246
0.12320	-0.61406
-0.18282	0.73785
0.14870	0.96742
0.30171	-0.18043
0.32721	0.12566
0.04670	0.12566
0.02119	0.10015
-0.02981	-0.05289
0.45472	-0.15492
0.12320	-0.23145
0.02119	0.22769
-0.08081	0.53379
0.07220	0.45726
0.53123	0.48277
-0.05531	0.55929
0.53123	0.27871
-0.08081	0.32972
-0.28482	0.45726
0.50573	-0.33348
0.19971	-0.28246
0.25071	0.10015
-0.05531	0.53379
-0.08081	0.43176
0.40372	-0.51203
0.19971	-0.66508
0.19971	0.15117
0.12320	1.04394
-0.02981	1.12046
0.37822	-0.84363
0.25071	-0.35899
-0.10631	0.45726
-0.20832	-0.05289
-0.00431	-0.25695
0.37822	-0.15492
0.25071	0.15117
0.27621	0.27871
0.09770	0.66132
-0.05531	0.58480
0.42922	0.04914
0.25071	0.15117
0.17421	0.10015
-0.08081	0.43176
0.09770	0.61031
0.35272	-0.51203
0.09770	-0.12942
0.14870	-0.15492
-0.05531	0.73785
0.19971	1.22250
0.35272	-0.35899
0.14870	-0.86914
0.04670	-0.10391
-0.13181	0.81437
0.22521	0.58480
0.58223	-0.35899
0.12320	-0.18043
0.02119	0.30422
-0.00431	0.94191
0.02119	0.17668
0.40372	-0.76711
0.25071	-0.35899
-0.10631	0.15117
0.09770	0.61031
0.12320	0.58480
0.53123	-0.18043
0.19971	0.12566
0.04670	0.61031
-0.08081	0.76336
0.04670	0.53379
0.48022	-0.28246
0.12320	-0.12942
-0.08081	-0.66508
-0.18282	0.99292
0.14870	0.25320
0.37822	-0.43551
0.42922	0.32972
0.40372	-0.25695
0.12320	0.38074
-0.18282	0.76336
0.37822	0.20219
0.25071	-0.18043
-0.02981	-0.48652
-0.20832	0.25320
-0.15732	0.35523
0.48022	0.25320
0.30171	0.20219
0.27621	-0.00188
-0.28482	0.30422
-0.00431	0.35523
0.48022	-0.35899
0.14870	-0.07840
0.09770	-0.00188
-0.05531	0.66132
0.19971	0.12566
0.48022	-0.25695
0.27621	0.27871
0.02119	0.61031
-0.13181	0.04914
0.12320	0.27871
0.30171	-0.10391
0.17421	0.45726
-0.00431	0.07465
-0.02981	0.50828
0.12320	0.73785
0.53123	-0.81812
0.40372	-0.41000
-0.05531	0.81437
-0.20832	0.86539
0.12320	-0.02739
0.45472	-0.86914
0.17421	0.10015
0.02119	-0.12942
-0.15732	0.27871
0.07220	0.10015
0.40372	-0.15492
0.14870	0.12566
0.19971	0.61031
-0.20832	0.45726
-0.00431	0.43176
0.40372	-0.02739
0.17421	0.04914
0.25071	0.22769
-0.08081	0.30422
0.22521	0.22769
0.30171	-0.61406
0.09770	0.32972
0.14870	0.53379
0.07220	0.89089
0.14870	-0.07840
0.17421	-0.63957
0.25071	0.20219
0.12320	-0.05289
0.04670	-0.30797
0.22521	0.86539
0.02119	0.53379
0.17421	-0.10391
0.14870	-0.12942
-0.08081	0.38074
0.27621	0.55929
0.45472	0.02363
0.12320	0.35523
-0.02981	-0.51203
-0.18282	0.17668
0.17421	0.10015
0.60773	0.04914
0.25071	0.48277
0.19971	0.35523
0.07220	0.10015
0.09770	0.04914
0.40372	0.04914
0.07220	0.30422
-0.05531	0.17668
-0.13181	0.81437
0.04670	0.27871
0.37822	-0.46102
0.27621	0.10015
0.19971	0.04914
-0.10631	0.38074
-0.08081	-0.35899
0.48022	0.22769
0.27621	0.02363
0.45472	0.83988
-0.15732	0.35523
0.12320	0.20219
0.09770	-0.53754
0.09770	0.63582
0.17421	0.30422
0.02119	0.35523
0.14870	-0.28246
0.25071	-1.04770
0.12320	-0.23145
-0.08081	0.38074
-0.10631	0.66132
0.14870	0.22769
0.58223	-0.05289
0.22521	0.02363
0.30171	1.17148
-0.10631	0.83988
0.02119	0.04914
0.37822	-0.18043
0.14870	0.15117
-0.05531	-0.30797
-0.02981	-0.10391
0.04670	0.10015
0.53123	-0.23145
0.02119	0.32972
0.27621	0.40625
-0.08081	0.48277
-0.00431	0.30422
0.35272	-0.28246
0.12320	-0.05289
0.14870	0.43176
-0.10631	0.32972
0.07220	0.55929
0.50573	-0.05289
0.40372	-0.10391
0.22521	0.15117
-0.23382	0.45726
0.02119	0.63582
0.35272	-0.43551
0.12320	0.15117
-0.02981	0.07465
0.02119	0.10015
-0.05531	0.30422
0.42922	-0.58856
0.30171	0.22769
0.09770	0.20219
-0.00431	0.66132
-0.08081	0.32972
0.40372	-0.30797
0.22521	-0.07840
0.07220	0.20219
-0.05531	0.45726
0.19971	0.32972
0.37822	-0.15492
0.37822	0.20219
0.40372	0.38074
-0.10631	0.30422
-0.18282	0.22769
0.30171	-0.12942
0.12320	0.20219
-0.10631	0.04914
-0.15732	0.17668
0.30171	0.25320
0.53123	-0.20594
0.50573	0.17668
0.02119	0.15117
-0.15732	0.10015
0.12320	0.30422
0.27621	-0.30797
0.14870	0.35523
0.14870	0.15117
0.02119	0.35523
0.04670	0.45726
0.42922	-0.20594
0.09770	0.10015
0.19971	0.43176
-0.08081	0.35523
0.12320	-0.15492
0.40372	-0.28246
0.17421	0.40625
-0.00431	0.30422
-0.28482	0.66132
-0.00431	0.45726
0.32721	-0.53754
0.42922	0.12566
0.19971	0.25320
0.07220	0.45726
0.12320	0.48277
0.35272	-0.61406
0.27621	-0.18043
-0.02981	-0.02739
-0.02981	0.30422
0.07220	0.96742
0.42922	0.07465
0.40372	-0.18043
0.14870	-0.15492
-0.13181	0.25320
-0.08081	0.25320
0.45472	-0.23145
0.19971	-0.15492
0.12320	0.12566
-0.20832	0.66132
0.09770	0.68683
0.32721	0.48277
0.14870	0.10015
0.25071	-0.10391
0.12320	-0.15492
0.02119	0.63582
0.35272	-0.46102
0.04670	-0.12942
0.14870	-0.07840
-0.08081	0.91640
0.14870	0.68683
0.30171	-0.25695
0.30171	-0.20594
0.42922	0.22769
-0.18282	0.04914
0.19971	0.10015
0.07220	-0.41000
-0.02981	0.63582
0.17421	0.25320
-0.00431	0.30422
0.30171	0.30422
0.53123	-0.05289
0.09770	-0.15492
0.27621	0.35523
-0.10631	0.71234
0.07220	0.07465
0.19971	-0.35899
-0.05531	-0.15492
0.19971	-0.00188
-0.08081	0.61031
0.14870	0.63582
0.37822	0.15117
0.17421	0.43176
0.19971	0.20219
-0.08081	0.50828
0.07220	0.17668
0.19971	-0.61406
0.50573	-0.02739
0.09770	-0.48652
-0.13181	0.20219
-0.05531	0.71234
0.35272	-0.15492
0.22521	0.17668
-0.13181	0.30422
-0.00431	0.55929
-0.00431	0.27871
0.53123	-0.25695
0.53123	0.02363
0.19971	-0.23145
-0.15732	0.66132
0.02119	1.32453
0.35272	0.20219
0.27621	-0.10391
0.32721	-0.10391
-0.05531	-0.05289
-0.10631	-0.12942
0.45472	-0.28246
0.04670	-0.10391
-0.00431	0.12566
-0.10631	0.55929
0.14870	0.71234
0.53123	-0.05289
0.32721	-0.35899
-0.08081	0.10015
-0.18282	0.20219
0.17421	0.20219
0.45472	-0.02739
0.12320	0.73785
0.25071	0.35523
-0.02981	-0.43551
0.25071	0.25320
0.42922	-0.02739
0.09770	0.15117
0.12320	0.35523
-0.08081	0.55929
-0.02981	0.43176
0.42922	-0.28246
0.19971	-0.10391
0.22521	-0.05289
-0.08081	0.27871
0.04670	0.53379
0.19971	-0.05289
0.25071	-0.23145
0.22521	0.10015
-0.10631	0.38074
-0.18282	0.83988
0.42922	0.22769
0.48022	0.27871
0.32721	-0.28246
-0.08081	-0.15492
0.02119	0.15117
0.37822	-0.25695
0.09770	-0.18043
0.17421	0.32972
0.02119	0.53379
-0.00431	0.20219
0.45472	-0.07840
0.09770	-0.18043
0.02119	0.02363
-0.08081	0.15117
-0.00431	0.53379
0.48022	0.58480
0.30171	0.50828
0.17421	0.27871
0.02119	0.43176
0.04670	-0.15492
0.40372	-0.71609
0.42922	-0.07840
0.12320	0.38074
-0.10631	0.04914
0.22521	0.81437
0.40372	-0.41000
0.25071	-0.07840
0.30171	0.27871
-0.25932	0.58480
-0.10631	0.20219
0.37822	-0.41000
0.22521	-0.05289
0.12320	0.38074
-0.23382	0.45726
0.32721	0.30422
0.45472	0.30422
0.25071	0.55929
0.17421	0.63582
-0.08081	0.02363
-0.18282	-0.69059
0.48022	-1.02219
0.17421	-0.33348
0.14870	0.68683
-0.10631	0.58480
0.14870	0.40625
0.45472	-0.20594
0.42922	0.55929
0.22521	0.17668
-0.15732	0.17668
-0.02981	-0.00188
0.40372	-0.28246
0.22521	0.10015
-0.08081	0.30422
-0.10631	0.45726
0.19971	0.17668
0.45472	0.20219
0.45472	0.55929
0.19971	1.14597
0.02119	0.66132
0.02119	-0.41000
0.32721	-0.86914
0.19971	-0.48652
0.04670	-0.66508
-0.23382	-0.02739
-0.00431	0.30422
0.53123	0.30422
0.27621	0.83988
0.27621	0.73785
-0.00431	0.25320
-0.15732	0.15117
0.42922	-0.12942
0.27621	-0.23145
0.19971	-0.15492
-0.08081	0.45726
0.04670	0.38074
0.50573	-0.10391
0.30171	0.30422
0.27621	0.68683
-0.13181	0.15117
0.07220	-0.00188
0.32721	-0.56305
0.07220	-0.05289
-0.08081	0.20219
-0.10631	0.48277
0.19971	0.15117
0.35272	-0.10391
0.19971	0.35523
0.32721	-0.05289
0.07220	0.48277
0.02119	0.83988
0.19971	-0.05289
0.25071	-0.18043
0.07220	-0.02739
0.12320	0.25320
0.17421	-0.35899
0.35272	0.07465
0.09770	0.83988
0.17421	0.38074
-0.00431	0.12566
0.07220	0.10015
0.32721	-0.46102
0.19971	-0.51203
-0.02981	-0.07840
-0.20832	0.40625
0.25071	0.73785
0.45472	0.07465
0.30171	0.32972
0.42922	0.61031
-0.13181	0.25320
0.04670	0.35523
0.22521	-0.61406
0.07220	-0.23145
0.12320	0.40625
-0.13181	0.38074
0.12320	0.35523
0.48022	0.02363
0.27621	-0.02739
0.14870	0.17668
-0.08081	0.20219
-0.10631	0.02363
0.53123	-0.15492
0.30171	0.20219
0.14870	-0.00188
-0.15732	0.15117
0.12320	0.43176
0.48022	-0.30797
0.19971	0.25320
-0.00431	0.45726
-0.23382	0.53379
0.12320	0.32972
0.42922	-0.35899
0.32721	0.10015
0.12320	0.17668
-0.02981	0.35523
0.02119	0.38074
0.53123	0.15117
0.32721	-0.33348
0.12320	-0.05289
0.07220	0.71234
-0.00431	0.02363
0.42922	-0.05289
0.25071	-0.23145
-0.15732	-0.74160
-0.13181	0.61031
0.07220	1.40105
0.55673	0.53379
0.45472	0.50828
0.17421	-0.10391
-0.00431	-0.15492
0.07220	-0.33348
0.40372	-0.46102
0.14870	-0.56305
-0.05531	-0.38449
-0.18282	0.43176
0.09770	0.55929
0.42922	0.02363
0.37822	0.35523
0.12320	0.48277
-0.10631	0.45726
0.09770	0.45726
0.48022	0.04914
0.42922	0.48277
-0.13181	0.07465
-0.18282	0.10015
0.02119	-0.02739
0.48022	-0.46102
0.25071	0.27871
0.17421	0.15117
0.02119	0.43176
-0.08081	-0.18043
0.48022	-0.46102
0.14870	0.04914
0.12320	0.25320
-0.15732	0.63582
-0.02981	0.22769
0.50573	-0.10391
0.25071	-0.12942
0.22521	0.71234
-0.10631	0.25320
0.17421	0.04914
0.30171	-0.35899
0.19971	-0.05289
0.09770	0.07465
-0.10631	-0.10391
0.02119	0.12566
0.27621	-0.02739
0.27621	0.66132
0.17421	0.43176
0.02119	0.43176
0.02119	0.38074
0.48022	-0.46102
0.30171	-0.10391
-0.08081	-0.25695
0.04670	0.35523
0.25071	0.66132
0.45472	-0.51203
0.17421	0.20219
0.17421	0.35523
0.07220	0.35523
0.09770	0.20219
0.32721	-0.07840
0.02119	0.12566
0.12320	0.40625
-0.10631	0.38074
0.14870	0.58480
0.09770	0.32972
0.25071	-0.35899
0.17421	-0.12942
0.09770	0.43176
0.12320	0.68683
0.48022	-0.41000
0.40372	-0.89465
0.19971	0.89089
-0.18282	0.25320
0.14870	-0.38449
0.45472	-0.53754
0.25071	0.30422
0.02119	0.17668
0.09770	0.45726
-0.00431	0.35523
0.37822	0.10015
-0.02981	0.20219
-0.00431	0.22769
0.02119	0.22769
0.12320	0.76336
0.50573	-0.18043
0.37822	0.25320
0.22521	0.38074
-0.08081	0.15117
-0.25932	-0.30797
0.45472	-0.02739
0.27621	-0.25695
0.17421	0.15117
-0.13181	0.50828
-0.18282	0.50828
0.19971	-0.33348
0.37822	-0.10391
0.37822	0.10015
0.07220	0.20219
0.17421	0.38074
0.53123	0.20219
0.37822	0.73785
0.02119	-0.46102
-0.23382	-0.20594
-0.10631	0.99292
0.27621	0.58480
0.17421	-0.28246
0.25071	-0.05289
-0.18282	-0.05289
-0.10631	0.30422
0.27621	0.40625
0.19971	-0.53754
0.14870	-0.56305
0.02119	-0.12942
0.17421	0.20219
0.53123	-0.15492
0.32721	0.22769
0.22521	0.53379
0.12320	0.76336
-0.08081	0.27871
0.30171	-0.02739
0.22521	0.38074
0.17421	0.22769
-0.10631	0.27871
-0.02981	0.12566
0.40372	-0.30797
0.09770	-0.02739
0.22521	0.35523
0.09770	0.20219
0.12320	0.10015
0.35272	-0.41000
0.19971	-0.23145
-0.08081	0.15117
-0.05531	0.83988
0.12320	0.12566
0.42922	-0.71609
0.25071	0.81437
0.27621	0.89089
-0.00431	0.66132
0.02119	-0.35899
0.14870	-0.10391
0.22521	-0.86914
0.09770	-0.58856
0.04670	0.91640
0.12320	0.91640
0.40372	-0.05289
0.17421	-0.41000
0.25071	-0.02739
-0.00431	0.38074
0.07220	0.43176
0.37822	-0.20594
0.14870	-0.15492
0.04670	-0.05289
-0.00431	0.78886
-0.08081	0.48277
0.53123	0.02363
0.37822	0.12566
0.35272	0.35523
0.09770	0.25320
-0.05531	0.22769
0.32721	-0.10391
0.19971	0.04914
-0.05531	-0.25695
-0.46334	0.02363
-0.05531	0.89089
0.45472	0.50828
0.42922	-0.33348
0.48022	-0.30797
0.14870	-0.23145
0.04670	1.50308
0.32721	0.73785
0.17421	-0.69059
0.22521	-0.58856
-0.23382	-0.46102
0.12320	1.12046
0.40372	0.91640
0.22521	-0.25695
0.19971	-0.81812
-0.13181	-0.25695
-0.18282	0.43176
0.32721	0.12566
0.37822	0.35523
-0.00431	0.20219
-0.10631	0.71234
0.17421	0.04914
0.48022	0.07465
0.27621	0.58480
0.22521	0.25320
0.02119	-0.15492
0.02119	0.12566
0.42922	0.07465
0.04670	-0.10391
0.02119	0.10015
-0.08081	0.35523
0.07220	0.12566
0.58223	-0.43551
0.12320	0.32972
0.27621	0.45726
-0.13181	0.78886
0.12320	0.63582
0.30171	-0.66508
0.12320	-0.43551
0.07220	-0.41000
-0.13181	0.91640
0.12320	0.73785
0.55673	0.50828
0.32721	-0.84363
0.32721	-0.71609
0.04670	0.53379
-0.02981	0.35523
0.35272	-0.33348
0.35272	-0.25695
-0.18282	-0.38449
-0.33583	0.40625
0.07220	0.45726
0.45472	0.22769
0.30171	0.25320
0.25071	0.66132
-0.05531	0.22769
-0.02981	-0.10391
0.48022	-0.28246
0.27621	0.15117
0.27621	0.22769
-0.08081	0.96742
-0.02981	0.20219
0.27621	-0.25695
0.48022	-0.20594
0.19971	-0.02739
0.02119	-0.02739
0.07220	0.25320
0.12320	-0.61406
0.37822	0.27871
0.09770	1.27351
-0.10631	1.12046
0.22521	0.07465
0.04670	-1.14973
0.22521	-0.43551
0.09770	0.02363
-0.13181	0.10015
0.25071	0.76336
0.58223	0.32972
0.35272	-0.25695
-0.02981	-0.28246
-0.18282	0.10015
-0.08081	0.35523
0.45472	0.02363
0.35272	0.25320
0.30171	0.38074
0.02119	0.45726
0.12320	1.19699
0.40372	0.07465
0.19971	-0.33348
0.07220	-0.46102
-0.10631	0.02363
0.07220	0.17668
0.35272	0.10015
-0.05531	-0.43551
0.35272	0.94191
0.12320	0.35523
-0.05531	0.02363
0.32721	-0.69059
0.37822	-0.02739
0.12320	-0.12942
-0.08081	0.27871
0.12320	0.22769
0.48022	0.04914
0.22521	0.25320
0.35272	0.55929
0.09770	0.63582
-0.02981	0.17668
0.45472	-0.41000
0.22521	-0.18043
0.12320	0.15117
-0.13181	0.32972
-0.02981	0.38074
0.30171	-0.35899
0.02119	-0.18043
0.17421	-0.41000
0.17421	0.58480
0.09770	1.57960
0.53123	1.06945
0.37822	-0.10391
-0.08081	-0.00188
-0.20832	-0.35899
0.19971	-1.02219
0.37822	-0.63957
0.22521	-0.30797
0.02119	-0.38449
0.14870	0.48277
0.42922	0.76336
0.30171	0.12566
0.04670	-0.02739
-0.20832	0.32972
-0.00431	0.43176
0.27621	0.22769
0.50573	-0.05289
0.45472	0.20219
0.17421	0.66132
-0.08081	0.48277
-0.00431	0.22769
0.30171	-0.33348
0.32721	-0.35899
-0.08081	-0.10391
-0.23382	0.30422
0.27621	0.10015
0.50573	0.35523
0.19971	0.17668
0.12320	-0.43551
-0.08081	0.55929
0.17421	0.55929
0.27621	-0.10391
0.17421	-0.07840
0.02119	-0.25695
-0.00431	-0.10391
0.17421	0.27871
0.19971	-0.05289
0.12320	-0.05289
0.58223	1.17148
-0.02981	0.10015
0.12320	-0.30797
0.25071	0.07465
0.19971	-0.20594
0.07220	0.40625
-0.05531	0.66132
0.14870	0.48277
0.27621	-0.20594
0.30171	0.02363
0.19971	0.02363
-0.10631	0.45726
0.12320	0.71234
0.19971	-0.20594
0.22521	-0.10391
0.02119	-0.18043
-0.10631	-0.02739
0.30171	-0.00188
0.65874	-0.38449
0.32721	0.32972
0.07220	1.09496
0.07220	0.45726
0.19971	0.10015
0.30171	-0.51203
-0.05531	-0.05289
-0.13181	-0.35899
-0.31033	0.27871
0.17421	0.12566
0.48022	-0.25695
0.40372	0.12566
0.22521	0.55929
-0.15732	0.25320
0.27621	0.43176
0.48022	0.30422
0.32721	0.15117
0.19971	-0.33348
-0.13181	0.22769
0.09770	0.17668
0.27621	0.35523
0.12320	0.04914
0.32721	0.10015
0.12320	0.30422
-0.10631	-0.25695
0.19971	-0.33348
0.40372	0.12566
0.02119	0.43176
0.02119	0.02363
0.12320	0.04914
0.25071	0.10015
0.32721	0.76336
0.32721	0.71234
0.19971	0.30422
0.12320	0.02363
0.37822	-0.66508
-0.08081	-0.38449
0.14870	-0.23145
-0.05531	0.10015
0.04670	0.32972
0.27621	0.30422
0.22521	0.25320
0.35272	0.50828
-0.08081	0.25320
0.07220	0.30422
0.19971	-0.25695
0.19971	0.12566
0.14870	0.25320
-0.05531	0.58480
0.14870	0.22769
0.50573	-0.18043
0.35272	-0.05289
-0.02981	-0.30797
0.17421	-0.15492
0.09770	0.32972
0.25071	0.32972
0.32721	0.45726
-0.02981	-0.12942
-0.20832	-0.15492
-0.10631	-0.12942
0.12320	-0.05289
0.42922	0.73785
0.40372	0.66132
0.07220	0.30422
0.09770	-0.33348
0.32721	-0.35899
0.42922	-0.10391
0.27621	0.04914
-0.10631	0.04914
0.19971	0.04914
0.12320	-0.12942
0.17421	0.43176
0.35272	0.78886
0.04670	0.86539
0.04670	0.17668
0.37822	-0.33348
0.12320	-0.56305
-0.00431	-0.25695
-0.05531	0.53379
0.09770	0.66132
0.65874	-0.33348
0.17421	-0.23145
0.22521	0.50828
0.04670	0.55929
-0.00431	0.10015
0.22521	-0.23145
0.22521	-0.41000
0.12320	0.15117
-0.08081	0.27871
0.12320	0.43176
0.22521	0.10015
0.37822	-0.02739
0.19971	0.15117
0.09770	0.15117
-0.10631	0.53379
0.32721	0.17668
0.12320	0.20219
0.12320	-0.10391
-0.18282	0.04914
0.12320	0.07465
0.50573	-0.18043
0.14870	0.25320
0.07220	-0.15492
0.32721	0.58480
0.12320	0.17668
0.35272	0.61031
0.17421	-0.05289
-0.08081	-0.33348
-0.15732	-0.00188
0.12320	0.30422
0.37822	-0.25695
0.30171	0.86539
0.09770	0.50828
0.19971	0.40625
0.07220	-0.25695
0.35272	-0.61406
0.04670	-0.30797
0.25071	-0.05289
-0.05531	0.22769
0.09770	0.27871
0.35272	-0.05289
0.25071	-0.02739
0.32721	0.38074
-0.08081	0.81437
0.09770	0.78886
0.30171	-0.38449
0.42922	-0.10391
-0.00431	-0.05289
-0.08081	0.48277
0.12320	0.17668
0.48022	-0.41000
0.25071	-0.41000
0.09770	0.15117
0.04670	0.20219
0.17421	0.17668
0.37822	0.25320
0.12320	0.63582
0.02119	-0.51203
-0.08081	-0.05289
0.22521	0.38074
0.42922	-0.05289
0.09770	-0.28246
0.22521	0.15117
-0.05531	0.71234
0.22521	0.78886
0.37822	-0.61406
0.37822	-0.15492
-0.00431	-0.28246
-0.15732	0.76336
0.07220	0.48277
0.32721	-0.23145
0.40372	-0.18043
0.17421	0.17668
-0.08081	0.12566
-0.10631	0.04914
0.45472	0.25320
0.09770	0.15117
0.04670	-0.63957
0.09770	-0.02739
0.27621	1.45206
0.32721	0.63582
0.37822	-0.20594
0.02119	-0.23145
0.07220	0.17668
0.04670	-0.18043
0.42922	-0.48652
0.19971	-0.10391
0.14870	-0.23145
-0.23382	0.45726
0.02119	0.43176
0.35272	0.63582
0.35272	0.15117
-0.00431	0.43176
-0.05531	0.35523
0.12320	-0.20594
0.32721	-0.33348
0.35272	0.35523
0.12320	-0.38449
-0.08081	0.40625
0.02119	0.17668
0.45472	0.02363
0.09770	0.17668
0.19971	0.32972
-0.05531	0.48277
-0.10631	0.35523
0.32721	-0.81812
0.14870	-0.35899
0.25071	-0.10391
0.07220	0.58480
-0.00431	0.43176
0.30171	-0.00188
0.27621	0.15117
0.22521	0.27871
-0.05531	0.30422
0.07220	0.68683
0.42922	0.27871
0.14870	-0.12942
0.14870	-0.25695
-0.08081	-0.02739
0.27621	-0.00188
0.27621	-0.12942
0.22521	-0.05289
0.17421	-0.15492
0.04670	0.50828
0.07220	0.48277
0.65874	-0.12942
0.27621	0.32972
0.02119	0.38074
-0.33583	0.32972
0.17421	0.10015
0.32721	0.07465
0.25071	-0.15492
0.02119	-0.51203
0.12320	0.71234
0.17421	0.50828
0.25071	-0.46102
0.22521	-0.05289
0.04670	0.15117
0.04670	0.45726
0.09770	0.10015
0.48022	-0.00188
0.35272	0.07465
0.30171	0.17668
-0.02981	0.45726
-0.18282	-0.41000
0.27621	-0.12942
0.32721	0.58480
0.12320	0.71234
-0.10631	0.30422
0.04670	-0.25695
0.42922	-0.61406
0.32721	-0.28246
0.17421	0.32972
-0.18282	0.20219
-0.02981	0.61031
0.42922	0.50828
0.32721	0.15117
0.07220	0.25320
-0.18282	-0.05289
0.09770	0.10015
0.35272	-0.35899
0.35272	0.25320
0.35272	0.43176
-0.10631	-0.02739
0.09770	0.32972
0.12320	0.17668
0.27621	0.10015
-0.08081	-0.20594
-0.00431	-0.07840
0.27621	0.07465
0.40372	-0.23145
0.27621	0.61031
0.22521	0.48277
0.04670	0.27871
-0.00431	0.20219
0.40372	-0.33348
0.19971	-0.05289
0.12320	0.32972
-0.15732	0.12566
0.19971	-0.15492
0.35272	0.12566
0.14870	0.10015
0.32721	0.50828
-0.02981	0.38074
-0.02981	0.22769
0.32721	-0.18043
0.32721	-0.28246
0.25071	0.07465
-0.18282	0.07465
0.14870	0.15117
0.30171	0.30422
0.35272	0.15117
0.12320	0.07465
0.12320	0.40625
0.07220	0.35523
0.27621	0.12566
0.17421	-0.25695
0.12320	-0.18043
0.02119	0.10015
0.12320	0.22769
0.17421	-0.07840
0.22521	0.48277
0.45472	0.83988
0.12320	0.63582
-0.00431	0.17668
0.37822	-0.76711
0.17421	-0.38449
0.02119	-0.10391
-0.15732	0.45726
0.12320	0.45726
0.53123	0.07465
0.07220	-0.00188
0.07220	0.02363
0.12320	0.38074
0.12320	0.17668
0.40372	-0.43551
0.27621	0.20219
0.02119	0.43176
-0.18282	0.86539
0.07220	0.20219
0.50573	-0.20594
0.35272	-0.10391
0.14870	-0.02739
0.02119	0.12566
0.09770	0.07465
0.32721	-0.20594
0.30171	-0.10391
0.04670	0.17668
-0.05531	0.68683
-0.10631	0.73785
0.12320	-0.10391
0.35272	-0.38449
0.32721	-0.15492
0.02119	0.63582
0.04670	0.76336
0.32721	0.12566
0.14870	-0.15492
0.07220	-0.18043
-0.08081	-0.02739
0.09770	-0.05289
0.22521	0.20219
0.40372	0.38074
0.19971	0.25320
0.32721	0.45726
0.04670	0.04914
0.25071	-0.25695
0.04670	-0.58856
0.09770	-0.20594
-0.05531	0.43176
-0.02981	0.20219
0.40372	0.04914
0.27621	0.86539
0.19971	0.32972
0.22521	0.32972
-0.00431	0.35523
0.22521	-0.15492
0.25071	-0.02739
0.19971	-0.18043
-0.13181	-0.07840
0.04670	0.12566
0.37822	0.04914
0.42922	-0.28246
0.02119	0.04914
-0.00431	0.81437
-0.02981	0.83988
0.22521	0.15117
0.19971	-0.35899
0.07220	-0.33348
-0.08081	0.15117
0.30171	0.20219
0.58223	-0.02739
0.25071	-0.12942
0.09770	0.04914
0.07220	0.71234
-0.10631	0.27871
0.32721	0.15117
0.07220	0.15117
0.09770	-0.35899
0.02119	0.30422
-0.02981	0.25320
0.48022	-0.05289
0.19971	-0.07840
0.40372	0.71234
0.07220	0.48277
0.12320	0.27871
0.22521	-0.48652
0.30171	-0.18043
0.17421	0.32972
-0.28482	0.04914
0.07220	0.45726
0.35272	-0.18043
0.19971	-0.10391
0.17421	0.32972
0.07220	0.12566
0.30171	-0.12942
0.14870	0.35523
0.27621	0.76336
0.19971	0.10015
0.02119	0.17668
0.04670	0.20219
0.30171	-0.53754
0.37822	0.15117
0.12320	0.55929
-0.05531	-0.25695
0.09770	0.38074
0.19971	0.15117
0.22521	-0.00188
0.02119	-0.20594
-0.13181	0.07465
0.17421	0.32972
0.35272	-0.02739
0.37822	0.15117
0.14870	0.45726
0.12320	0.07465
0.07220	0.12566
0.32721	0.22769
0.19971	0.02363
0.09770	-0.00188
-0.13181	0.04914
0.30171	0.50828
0.19971	-0.05289
0.32721	0.04914
0.17421	-0.05289
0.14870	0.55929
-0.13181	-0.15492
0.09770	-0.23145
0.12320	0.15117
0.07220	0.48277
0.17421	0.43176
0.12320	0.04914
0.42922	-0.18043
0.09770	-0.48652
0.27621	0.07465
0.17421	0.78886
0.09770	0.58480
0.17421	-0.07840
0.12320	-0.53754
-0.02981	-0.05289
-0.02981	0.10015
0.14870	0.71234
0.32721	0.27871
0.14870	0.10015
0.35272	0.17668
0.09770	-0.00188
0.02119	0.20219
0.30171	-0.10391
0.17421	-0.46102
0.17421	0.20219
-0.08081	0.55929
0.12320	0.35523
0.14870	-0.02739
0.37822	0.04914
0.07220	-0.02739
0.19971	0.32972
-0.00431	0.15117
0.27621	0.02363
0.17421	-0.00188
0.07220	0.15117
-0.08081	0.43176
0.32721	0.40625
0.27621	0.17668
0.32721	-0.23145
0.19971	0.20219
0.14870	0.32972
0.02119	0.22769
0.32721	-0.07840
0.14870	-0.23145
0.09770	-0.28246
-0.08081	0.40625
0.14870	0.53379
0.37822	-0.07840
0.22521	-0.20594
0.12320	0.15117
0.14870	0.50828
-0.05531	0.10015
0.27621	0.50828
0.14870	0.76336
0.19971	-0.07840
-0.10631	-0.35899
0.19971	0.25320
0.37822	0.02363
0.17421	-0.66508
0.25071	-0.07840
0.12320	0.25320
0.09770	0.32972
0.25071	0.25320
0.27621	0.10015
-0.10631	0.30422
0.07220	0.04914
0.14870	0.48277
0.37822	0.15117
0.19971	0.25320
0.37822	0.45726
0.02119	0.32972
-0.00431	0.07465
0.07220	-0.20594
0.42922	0.04914
0.09770	-0.02739
0.04670	-0.28246
0.02119	0.17668
0.48022	0.07465
0.35272	0.10015
0.02119	0.07465
-0.05531	0.40625
0.02119	0.10015
0.27621	0.96742
0.42922	0.12566
-0.00431	-0.20594
-0.10631	0.27871
0.07220	-0.05289
0.48022	-0.23145
0.35272	0.02363
0.42922	0.15117
-0.05531	0.12566
0.02119	0.99292
0.07220	-0.02739
0.19971	-0.28246
0.02119	0.17668
0.07220	0.02363
0.22521	-0.12942
0.25071	0.20219
0.32721	0.10015
0.14870	0.27871
-0.05531	0.40625
-0.05531	0.78886
0.37822	0.20219
0.30171	0.10015
-0.00431	-0.33348
-0.10631	-0.46102
0.07220	0.32972
0.35272	0.68683
0.27621	0.02363
0.17421	0.02363
0.09770	-0.07840
0.04670	-0.10391
0.35272	0.02363
0.35272	0.04914
0.17421	0.04914
-0.05531	0.50828
-0.10631	0.04914
0.32721	0.32972
0.12320	-0.00188
0.09770	0.38074
0.07220	0.07465
0.22521	0.27871
0.17421	-0.10391
0.35272	0.20219
0.04670	-0.58856
0.07220	0.40625
0.12320	0.22769
0.40372	0.04914
0.19971	0.17668
0.14870	0.45726
-0.08081	0.02363
0.02119	0.22769
0.17421	-0.18043
0.25071	-0.20594
-0.10631	-0.00188
0.04670	0.63582
0.12320	0.10015
0.42922	0.10015
0.37822	-0.02739
0.22521	0.45726
0.07220	0.07465
0.07220	0.07465
0.02119	-0.25695
0.27621	0.53379
-0.00431	0.04914
0.04670	0.25320
0.19971	0.20219
0.19971	-0.86914
0.32721	-0.41000
0.07220	0.99292
0.14870	0.96742
0.02119	0.25320
0.30171	-0.12942
0.22521	-0.30797
0.04670	-0.10391
-0.08081	-0.12942
-0.05531	0.89089
0.48022	0.20219
0.30171	-0.23145
0.35272	0.53379
0.04670	0.07465
0.04670	-0.05289
0.32721	-0.10391
0.27621	0.12566
-0.05531	0.07465
-0.08081	0.50828
0.04670	0.17668
0.30171	0.61031
0.25071	0.15117
0.19971	-0.20594
0.12320	0.07465
0.14870	0.20219
0.19971	-0.00188
0.12320	-0.58856
0.30171	-0.05289
-0.00431	0.25320
0.07220	0.22769
0.09770	-0.28246
0.32721	0.50828
0.32721	0.99292
0.14870	0.38074
0.07220	0.20219
0.02119	-0.25695
0.22521	0.30422
0.07220	-0.23145
0.04670	-0.33348
0.12320	0.22769
0.30171	0.35523
0.37822	0.15117
0.22521	0.12566
0.09770	0.35523
-0.05531	0.15117
0.19971	0.15117
0.32721	-0.05289
0.09770	0.10015
-0.08081	0.10015
0.02119	0.22769
0.30171	0.17668
0.35272	0.07465
0.14870	0.35523
0.04670	0.20219
-0.02981	-0.30797
0.32721	-0.10391
0.19971	0.22769
0.19971	0.22769
-0.08081	-0.07840
0.04670	0.30422
0.19971	0.30422
0.32721	0.17668
0.25071	-0.05289
0.07220	0.27871
0.07220	-0.00188
0.12320	-0.30797
0.35272	0.22769
-0.02981	0.55929
0.07220	0.48277
0.09770	0.15117
0.30171	-0.25695
0.42922	0.27871
0.27621	-0.05289
-0.05531	0.22769
-0.02981	0.15117
0.27621	-0.10391
0.22521	-0.02739
0.02119	-0.12942
-0.08081	0.32972
0.09770	0.66132
0.42922	-0.00188
0.30171	-0.20594
0.22521	0.63582
0.04670	-0.07840
0.02119	0.53379
0.22521	0.10015
0.12320	-0.25695
0.12320	0.10015
-0.02981	-0.00188
0.12320	-0.02739
0.19971	0.32972
0.35272	0.25320
0.17421	0.40625
0.14870	0.27871
-0.08081	0.10015
0.17421	-0.30797
0.45472	-0.28246
0.09770	-0.28246
0.14870	0.48277
0.02119	1.09496
0.45472	0.17668
0.09770	-0.30797
0.19971	0.10015
-0.10631	0.20219
0.09770	-0.00188
0.07220	0.02363
0.25071	-0.20594
0.12320	-0.00188
0.09770	0.45726
0.19971	0.53379
0.32721	0.10015
0.12320	-0.18043
0.22521	-0.07840
0.07220	0.66132
0.17421	0.35523
0.22521	-0.18043
0.32721	0.10015
-0.10631	0.15117
0.02119	0.38074
0.04670	0.48277
0.22521	0.02363
0.27621	-0.43551
0.32721	0.20219
0.12320	0.40625
0.02119	-0.20594
0.09770	0.04914
0.25071	-0.33348
0.32721	0.30422
-0.08081	0.32972
0.14870	0.45726
0.19971	-0.05289
0.27621	-0.38449
0.22521	0.02363
-0.00431	0.55929
0.02119	0.63582
0.19971	0.99292
0.42922	-0.00188
0.17421	-0.53754
-0.10631	-0.25695
-0.02981	-0.28246
0.19971	-0.10391
0.42922	0.02363
0.14870	0.48277
0.12320	0.50828
0.17421	0.15117
0.17421	-0.15492
0.14870	-0.28246
0.07220	0.58480
-0.13181	0.22769
0.30171	0.22769
0.40372	0.02363
0.65874	0.20219
0.25071	0.04914
-0.10631	0.78886
-0.20832	0.15117
0.12320	0.10015
0.09770	-0.12942
0.07220	0.71234
0.04670	-0.05289
0.22521	-0.18043
0.14870	-0.41000
0.30171	-0.33348
0.30171	0.27871
0.04670	0.15117
-0.00431	-0.00188
0.12320	-0.05289
0.32721	0.25320
-0.02981	0.73785
0.09770	0.81437
0.12320	0.35523
0.25071	-0.05289
0.42922	-0.05289
0.42922	0.43176
-0.00431	-0.51203
0.19971	0.17668
0.02119	0.22769
0.14870	0.58480
0.07220	0.66132
-0.05531	-0.79262
0.09770	-0.89465
0.14870	-0.02739
0.27621	0.17668
0.30171	0.76336
0.09770	0.48277
0.02119	0.20219
0.32721	0.40625
0.14870	0.12566
-0.00431	-0.02739
0.17421	0.07465
-0.02981	0.48277
0.17421	-0.00188
0.22521	-0.15492
0.27621	-0.15492
0.07220	0.30422
0.04670	0.45726
0.12320	-0.25695
0.17421	-0.28246
0.22521	0.02363
0.22521	0.38074
0.14870	0.40625
0.12320	0.25320
-0.08081	0.04914
0.14870	-0.10391
0.25071	0.30422
0.04670	0.04914
0.35272	0.15117
0.45472	-0.02739
0.17421	0.10015
-0.25932	0.20219
-0.05531	0.83988
0.40372	-0.66508
0.42922	0.04914
0.22521	0.94191
-0.05531	-0.15492
-0.05531	-0.10391
0.07220	-0.15492
0.25071	-0.25695
-0.05531	0.68683
0.07220	0.12566
0.09770	0.91640
0.42922	0.22769
0.27621	0.10015
0.19971	0.10015
-0.05531	-0.00188
-0.02981	-0.02739
0.32721	-0.05289
0.19971	0.04914
0.22521	-0.02739
0.12320	0.55929
-0.10631	-0.02739
0.22521	-0.18043
0.35272	0.10015
0.32721	0.30422
0.04670	0.76336
0.35272	0.43176
0.22521	0.25320
0.35272	0.17668
-0.00431	-0.46102
-0.13181	-0.15492
-0.18282	0.15117
0.30171	0.96742
0.04670	-0.92016
0.04670	0.30422
0.35272	0.63582
0.37822	0.02363
0.25071	-0.71609
0.30171	-0.15492
0.07220	0.07465
-0.18282	0.15117
-0.00431	0.66132
0.22521	0.81437
0.40372	0.17668
0.30171	0.10015
0.07220	0.10015
0.09770	0.12566
0.25071	-0.07840
0.07220	-0.23145
0.09770	-0.05289
0.02119	0.20219
0.09770	0.58480
0.12320	0.07465
0.32721	0.38074
0.07220	0.15117
0.04670	0.53379
0.22521	-0.07840
0.27621	-0.25695
0.37822	-0.46102
0.14870	0.20219
-0.20832	0.10015
0.07220	0.32972
0.12320	0.50828
0.25071	0.35523
0.22521	0.43176
-0.08081	0.50828
-0.00431	-0.28246
0.37822	-0.41000
0.37822	0.25320
0.19971	-0.30797
0.12320	-0.07840
0.04670	0.43176
-0.05531	0.15117
0.17421	0.10015
0.17421	0.17668
0.30171	-0.20594
0.22521	0.66132
0.04670	0.55929
0.17421	0.25320
0.19971	-0.18043
0.12320	0.02363
0.07220	0.02363
0.12320	-0.38449
0.30171	0.15117
0.35272	0.89089
0.27621	0.22769
0.02119	-0.81812
-0.08081	-0.05289
0.27621	0.20219
-0.20832	0.63582
-0.38683	0.04914
-0.20832	0.20219
0.53123	0.63582
0.76074	-0.05289
0.22521	0.99292
-0.13181	0.12566
-0.00431	-1.02219
0.19971	-0.12942
0.14870	1.01843
0.17421	-0.02739
-0.10631	0.04914
-0.08081	0.04914
0.12320	-0.20594
0.35272	-0.15492
0.17421	-0.05289
0.17421	0.25320
0.17421	1.09496
0.53123	0.10015
0.27621	0.07465
0.17421	0.20219
-0.69285	0.22769
-0.13181	0.15117
0.22521	0.15117
0.45472	-0.23145
0.02119	-0.23145
0.17421	0.12566
-0.00431	0.43176
0.04670	0.04914
1.24527	0.35523
0.02119	0.07465
-0.33583	0.38074
0.07220	0.61031
0.42922	-0.07840
-0.43783	-0.02739
0.48022	-0.07840
0.32721	-0.66508
-0.02981	0.73785
0.50573	0.43176
0.04670	0.76336
0.14870	0.63582
0.04670	-0.28246
0.30171	0.20219
-0.38683	0.15117
0.17421	-0.38449
0.30171	-0.30797
1.04126	0.50828
-0.02981	0.25320
-0.05531	0.43176
0.22521	-0.02739
0.09770	0.15117
-0.20832	-0.05289
-0.20832	0.94191
0.12320	0.38074
0.27621	-0.41000
0.12320	-0.35899
-0.08081	-0.20594
-0.08081	0.40625
0.35272	-0.10391
0.32721	-0.51203
0.30171	0.20219
0.32721	1.01843
-0.13181	0.96742
0.02119	-0.05289
0.30171	-0.15492
0.07220	0.43176
0.19971	0.81437
0.17421	0.20219
0.19971	-0.02739
0.37822	-0.10391
0.37822	-0.43551
-0.00431	1.17148
-0.28482	-0.58856
-0.05531	-1.48133
0.27621	-0.18043
0.09770	1.17148
0.27621	0.89089
0.07220	0.83988
0.19971	-0.61406
0.63323	-0.43551
0.02119	0.25320
-0.08081	1.09496
-0.02981	0.71234
0.07220	0.02363
0.48022	-0.53754
0.04670	-0.07840
0.19971	0.15117
-0.08081	-0.07840
0.48022	0.04914
0.40372	-0.25695
0.07220	0.07465
-0.31033	0.25320
-0.08081	0.66132
0.17421	-0.46102
0.37822	0.71234
0.19971	1.83468
0.30171	0.96742
-0.15732	-0.86914
0.14870	-0.63957
0.48022	-0.30797
-0.05531	-0.28246
0.04670	0.12566
-0.10631	1.09496
0.17421	0.02363
0.22521	-0.66508
0.17421	0.15117
0.40372	0.55929
0.12320	0.50828
0.09770	0.40625
0.35272	0.20219
-0.08081	-0.12942
-0.08081	-0.28246
0.02119	0.15117
0.27621	0.66132
0.32721	-0.10391
0.25071	0.02363
-0.08081	0.10015
0.04670	0.30422
-0.05531	0.20219
0.30171	-0.02739
0.12320	-0.10391
0.22521	0.17668
0.02119	0.38074
0.17421	0.12566
0.30171	-0.18043
0.22521	0.25320
0.04670	0.45726
-0.10631	0.55929
0.19971	0.71234
0.14870	-0.58856
0.12320	-0.56305
-0.13181	0.27871
-0.20832	0.81437
0.32721	-0.12942
0.35272	-1.27726
0.37822	0.53379
0.14870	0.45726
0.07220	0.43176
0.09770	0.20219
0.19971	-0.15492
0.04670	-0.10391
-0.10631	0.43176
-0.02981	0.76336
0.42922	0.68683
0.45472	0.02363
0.27621	0.07465
0.22521	-0.05289
0.02119	0.02363
-0.10631	-0.35899
0.22521	-0.15492
0.25071	-0.05289
0.09770	0.40625
0.04670	0.53379
0.27621	0.38074
0.14870	-0.25695
0.19971	0.02363
-0.00431	0.25320
0.19971	0.86539
0.14870	0.35523
0.42922	0.15117
-0.13181	-0.05289
0.19971	0.50828
0.04670	0.02363
0.22521	-0.28246
0.35272	-0.53754
0.22521	-0.05289
0.12320	0.10015
-0.08081	1.12046
0.12320	0.35523
0.27621	-0.41000
0.09770	0.07465
-0.00431	0.66132
-0.08081	0.40625
0.32721	-0.25695
0.25071	-0.46102
0.14870	0.35523
-0.05531	0.45726
0.02119	0.50828
0.02119	0.04914
0.32721	-0.10391
0.22521	0.07465
0.12320	-0.05289
0.12320	0.12566
0.04670	0.38074
0.37822	0.17668
0.09770	0.68683
0.12320	-0.00188
-0.00431	-0.20594
-0.13181	0.61031
0.32721	-0.51203
0.17421	-0.58856
0.22521	-0.23145
0.12320	0.25320
0.17421	0.78886
0.42922	0.55929
-0.00431	0.81437
0.32721	0.35523
0.02119	-0.00188
0.02119	0.25320
0.19971	0.17668
0.02119	-0.28246
-0.02981	-1.20074
0.04670	-0.15492
0.25071	0.58480
0.42922	0.48277
0.19971	0.50828
-0.02981	0.22769
-0.10631	0.20219
0.09770	0.35523
0.40372	0.20219
0.22521	-0.05289
-0.02981	0.15117
0.22521	0.22769
0.37822	0.04914
0.40372	0.10015
0.02119	-0.05289
-0.15732	0.20219
0.12320	0.43176
-0.25932	-0.00188
0.12320	-0.05289
0.30171	0.40625
0.45472	0.04914
0.02119	0.78886
-0.20832	-0.92016
0.55673	0.15117
0.48022	0.55929
0.22521	0.73785
-0.08081	-0.05289
-0.48884	-0.86914
0.04670	0.71234
0.30171	0.86539
0.02119	0.17668
0.12320	-0.28246
0.32721	0.22769
0.68424	-0.07840
0.22521	0.15117
-0.15732	0.22769
-0.05531	0.20219
0.17421	-0.05289
0.40372	-0.10391
0.19971	0.40625
-0.25932	0.10015
-0.31033	0.38074
0.07220	0.04914
0.65874	0.07465
0.22521	0.40625
0.19971	0.66132
-0.13181	0.12566
0.14870	0.25320
0.42922	-0.20594
0.07220	-0.35899
-0.10631	0.22769
0.02119	-0.23145
0.27621	0.35523
0.40372	0.32972
0.40372	0.02363
0.22521	0.61031
-0.18282	0.32972
-0.05531	0.35523
0.22521	-0.28246
-0.05531	-0.30797
-0.00431	0.10015
-0.08081	0.48277
0.17421	0.35523
0.35272	-0.07840
0.19971	0.55929
0.22521	0.35523
0.40372	0.20219
0.09770	-0.02739
0.55673	-0.41000
0.02119	0.15117
-0.18282	0.07465
-0.10631	0.40625
-0.18282	-0.15492
0.32721	0.40625
0.07220	0.58480
0.17421	0.83988
0.30171	0.12566
0.12320	-0.00188
-0.10631	-0.46102
0.45472	-0.05289
0.09770	-0.02739
-0.13181	0.35523
-0.05531	0.15117
0.12320	-0.33348
0.22521	0.32972
0.14870	0.48277
-0.08081	1.01843
0.02119	-0.33348
0.42922	-0.41000
0.12320	0.17668
0.02119	0.22769
0.04670	0.17668
0.32721	-0.02739
0.45472	0.30422
0.09770	0.50828
0.45472	0.35523
-0.31033	0.43176
-0.20832	0.17668
0.32721	-0.05289
0.12320	-0.07840
0.02119	-0.07840
-0.18282	0.35523
-0.15732	0.17668
0.78624	-0.07840
0.09770	0.55929
0.07220	0.45726
-0.02981	0.20219
0.09770	0.32972
0.22521	-0.35899
0.09770	-0.69059
-0.10631	-0.81812
-0.05531	0.63582
0.27621	0.55929
0.42922	0.71234
0.27621	0.07465
0.02119	0.27871
-0.08081	0.55929
0.09770	0.22769
0.42922	-0.41000
0.32721	0.04914
0.07220	0.17668
-0.08081	0.78886
-0.00431	0.07465
0.32721	-0.41000
0.48022	-0.02739
-0.02981	0.20219
-0.13181	0.35523
-0.10631	0.35523
0.22521	-0.18043
0.09770	-0.23145
0.02119	0.25320
0.07220	0.83988
0.27621	0.45726
0.58223	-0.05289
0.12320	0.04914
0.12320	-0.12942
-0.20832	0.53379
-0.08081	0.07465
0.22521	-0.15492
0.22521	0.07465
0.17421	0.17668
0.22521	1.06945
0.12320	0.12566
0.30171	-0.71609
0.07220	-0.02739
-0.10631	0.07465
0.12320	0.22769
-0.00431	0.71234
0.55673	-0.18043
0.19971	-0.10391
0.17421	0.30422
-0.08081	0.66132
0.12320	0.15117
0.32721	0.10015
0.12320	0.17668
0.04670	0.35523
-0.13181	0.12566
-0.08081	-0.07840
0.30171	0.02363
0.27621	0.58480
0.07220	-0.02739
0.17421	0.22769
-0.02981	-0.25695
0.55673	-0.33348
0.12320	1.17148
0.19971	0.78886
-0.08081	0.07465
0.02119	-0.35899
0.22521	-0.23145
-0.02981	-0.05289
0.14870	-0.20594
-0.10631	0.12566
0.22521	0.73785
0.02119	0.68683
0.27621	0.86539
0.12320	-0.02739
-0.02981	0.02363
0.19971	-0.07840
0.40372	-0.48652
0.30171	0.04914
-0.05531	0.10015
-0.08081	0.48277
0.30171	0.83988
0.32721	-0.66508
0.42922	-0.33348
0.22521	0.81437
-0.10631	0.66132
-0.05531	0.25320
0.14870	-0.02739
0.04670	0.04914
0.02119	0.45726
-0.05531	0.25320
0.40372	0.07465
0.42922	-0.23145
0.07220	-0.10391
0.07220	0.22769
-0.15732	0.35523
0.04670	0.43176
0.17421	-0.23145
0.22521	-0.18043
0.30171	-0.07840
-0.00431	0.61031
0.17421	0.61031
0.40372	0.10015
0.04670	0.15117
0.07220	0.15117
-0.10631	0.27871
0.12320	0.22769
0.48022	0.07465
-0.00431	-0.05289
-0.05531	-0.25695
-0.13181	0.38074
0.07220	0.99292
0.37822	0.20219
0.22521	-0.12942
0.12320	-0.25695
-0.00431	0.12566
-0.15732	0.68683
0.42922	0.53379
-0.00431	-0.20594
0.19971	-0.41000
-0.02981	0.40625
0.09770	0.55929
0.40372	-0.28246
0.42922	0.48277
0.17421	0.04914
-0.18282	0.15117
0.04670	0.32972
0.32721	-0.05289
0.07220	0.15117
-0.00431	0.25320
0.09770	0.30422
0.12320	0.45726
0.45472	0.04914
0.12320	0.17668
0.17421	0.15117
-0.13181	0.45726
0.07220	0.38074
0.17421	0.17668
0.17421	-0.33348
0.07220	-0.20594
-0.00431	-0.46102
0.27621	0.71234
0.27621	0.07465
0.07220	1.19699
0.09770	0.71234
-0.08081	0.50828
0.17421	-0.94566
0.22521	-1.58336
-0.08081	-0.07840
0.32721	0.73785
-0.02981	0.73785
-0.08081	0.66132
0.30171	0.20219
0.02119	0.27871
0.30171	0.22769
0.02119	0.43176
0.14870	0.32972
0.45472	0.10015
0.09770	-0.28246
0.12320	-0.10391
-0.10631	0.40625
0.09770	0.27871
0.37822	-0.15492
0.12320	-0.00188
0.09770	0.07465
-0.02981	1.04394
-0.10631	0.61031
0.37822	0.12566
0.12320	-0.23145
0.07220	-0.12942
-0.08081	0.10015
0.17421	0.15117
0.50573	-0.02739
-0.00431	-0.38449
0.22521	0.66132
-0.00431	0.76336
0.09770	0.02363
0.30171	-0.41000
-0.05531	0.07465
0.17421	-0.00188
0.17421	0.91640
0.17421	0.48277
0.58223	-0.46102
0.45472	0.55929
0.19971	0.17668
-0.31033	0.32972
-0.23382	0.10015
0.12320	-0.20594
-0.02981	-0.07840
0.27621	0.12566
0.14870	0.86539
0.04670	0.50828
0.30171	-0.15492
0.27621	0.17668
0.02119	-0.05289
-0.00431	0.38074
0.09770	0.12566
0.19971	-0.15492
0.25071	0.15117
0.09770	-0.15492
0.09770	0.71234
0.09770	0.76336
0.40372	-0.00188
-0.02981	-0.56305
0.07220	-0.05289
-0.15732	0.83988
-0.05531	0.53379
0.27621	0.04914
0.09770	-0.00188
0.14870	-0.05289
-0.00431	0.25320
0.09770	0.30422
0.42922	-0.10391
0.22521	-0.00188
0.19971	0.27871
-0.10631	0.43176
-0.13181	-0.12942
0.12320	0.04914
0.22521	0.25320
0.12320	0.22769
0.07220	0.50828
0.25071	0.63582
0.40372	-0.00188
0.22521	0.30422
0.12320	0.04914
-0.08081	-0.10391
0.04670	0.12566
0.12320	-0.38449
0.09770	0.15117
0.17421	0.25320
-0.08081	0.61031
0.14870	0.02363
0.37822	-0.28246
0.09770	0.30422
0.27621	0.53379
-0.08081	0.30422
0.12320	-0.10391
0.42922	-0.07840
0.12320	0.25320
0.07220	0.27871
0.12320	0.96742
-0.02981	-0.05289
0.32721	-0.94566
0.32721	0.17668
0.09770	0.27871
-0.02981	0.58480
-0.13181	0.91640
0.22521	0.32972
0.27621	-0.51203
-0.00431	-0.05289
-0.02981	0.38074
0.14870	0.12566
0.14870	-0.25695
0.35272	0.27871
0.17421	0.12566
0.17421	0.81437
0.02119	0.58480
0.48022	-0.05289
0.25071	-0.15492
0.07220	0.07465
-0.51434	0.15117
-0.15732	0.10015
0.25071	-0.12942
0.32721	0.27871
0.09770	0.58480
0.04670	0.68683
0.14870	0.38074
0.53123	-0.25695
0.12320	-0.38449
0.09770	-0.10391
-0.02981	0.27871
0.07220	0.25320
0.27621	-0.05289
0.17421	0.55929
0.25071	0.30422
-0.02981	-0.20594
0.04670	0.20219
0.09770	0.32972
0.25071	0.38074
0.12320	0.43176
0.02119	0.25320
0.07220	0.27871
0.17421	-0.05289
0.07220	-0.23145
0.19971	0.25320
0.07220	0.38074
-0.00431	-0.10391
0.19971	-0.48652
0.14870	0.02363
0.02119	0.10015
-0.08081	0.53379
0.12320	0.55929
0.37822	-0.15492
0.14870	0.27871
0.19971	0.38074
-0.10631	0.40625
-0.10631	0.53379
0.42922	-0.00188
0.22521	-0.15492
0.12320	0.12566
-0.08081	0.12566
0.22521	0.43176
0.86275	0.38074
0.12320	0.12566
-0.18282	0.22769
-0.28482	0.02363
-0.08081	0.04914
0.27621	-0.61406
0.09770	0.02363
0.19971	0.48277
0.02119	0.61031
0.17421	0.43176
0.30171	-0.00188
0.17421	0.17668
0.09770	0.02363
-0.02981	-0.07840
0.12320	0.45726
0.37822	-0.15492
0.19971	0.30422
-0.10631	0.07465
-0.00431	0.45726
0.09770	0.40625
0.53123	0.07465
0.04670	0.27871
-0.02981	-0.23145
-0.02981	0.07465
-0.02981	0.63582
0.40372	-0.18043
0.07220	-0.20594
0.22521	0.63582
0.17421	0.40625
0.14870	-0.18043
0.50573	0.07465
-0.00431	0.53379
0.17421	0.50828
-0.05531	-0.07840
0.14870	-0.02739
0.27621	-0.07840
-0.02981	0.27871
-0.05531	0.15117
-0.20832	0.20219
0.12320	0.35523
0.40372	-0.18043
0.30171	0.10015
0.17421	0.22769
0.09770	0.35523
-0.13181	0.43176
0.42922	-0.07840
0.30171	0.17668
0.09770	0.25320
-0.02981	0.55929
0.07220	0.38074
0.42922	-0.05289
0.17421	-0.02739
0.12320	0.17668
-0.08081	-0.28246
-0.05531	-0.38449
0.37822	0.20219
0.04670	0.89089
0.22521	0.30422
-0.05531	0.35523
0.02119	0.07465
0.25071	-0.56305
0.25071	-0.15492
0.12320	0.38074
-0.02981	0.45726
0.02119	0.25320
0.35272	-0.35899
0.22521	0.12566
0.02119	0.15117
-0.10631	0.53379
0.09770	0.50828
0.25071	-0.00188
0.19971	0.35523
0.19971	0.20219
0.17421	0.43176
0.07220	0.30422
0.37822	-0.18043
0.14870	-0.07840
0.12320	0.04914
-0.18282	0.50828
-0.10631	0.40625
0.30171	-0.28246
0.14870	-0.23145
0.02119	0.30422
-0.05531	0.81437
0.09770	-0.10391
0.32721	-0.48652
0.37822	-0.15492
0.02119	0.12566
-0.02981	0.45726
0.09770	0.61031
0.48022	0.61031
0.12320	0.22769
0.17421	-0.43551
0.02119	0.07465
0.02119	-0.00188
0.40372	0.32972
0.19971	0.32972
-0.00431	-0.12942
0.02119	0.48277
0.04670	0.45726
-0.02981	-0.48652
0.25071	0.22769
0.30171	0.68683
0.12320	0.17668
0.22521	-0.20594
0.12320	-0.51203
0.09770	0.94191
-0.23382	0.53379
-0.31033	-0.12942
0.81175	0.53379
0.63323	0.38074
0.22521	0.61031
0.22521	-0.00188
0.02119	-0.58856
0.14870	-0.61406
-0.05531	-0.97117
-0.00431	-0.12942
-0.15732	0.71234
0.12320	0.04914
0.14870	0.71234
0.19971	0.15117
0.17421	0.27871
0.37822	0.53379
0.22521	1.37554
-0.02981	0.43176
0.14870	0.17668
0.12320	0.50828
0.02119	0.12566
-0.15732	0.10015
-0.08081	-0.25695
0.63323	-0.84363
0.40372	0.17668
0.25071	0.40625
-0.05531	-0.00188
-0.05531	-0.33348
0.55673	0.07465
0.12320	0.10015
-0.43783	-0.05289
-0.10631	0.53379
0.07220	0.48277
0.53123	0.32972
0.14870	0.15117
0.32721	-0.15492
-0.05531	0.81437
-0.18282	0.17668
0.19971	0.04914
0.04670	0.10015
0.45472	0.02363
-0.00431	0.30422
-0.02981	-0.33348
0.30171	0.30422
0.02119	0.22769
0.19971	0.32972
0.07220	0.66132
0.53123	0.86539
0.60773	-0.18043
0.02119	0.04914
-0.25932	-0.07840
-0.13181	-0.18043
0.14870	-0.38449
0.35272	-0.38449
-0.05531	-0.25695
0.73524	2.03874
0.07220	1.65613
-0.28482	0.07465
0.42922	-0.69059
0.22521	-0.58856
-0.05531	-0.53754
-0.08081	-0.35899
0.19971	0.10015
0.02119	0.53379
0.30171	0.32972
0.30171	0.17668
-0.00431	1.01843
0.17421	0.96742
0.42922	0.10015
0.09770	0.02363
-0.02981	-0.10391
-0.15732	0.63582
0.19971	0.20219
0.32721	-0.76711
0.40372	0.25320
0.07220	0.32972
-0.25932	0.32972
-0.23382	-0.12942
0.45472	-0.41000
0.48022	0.17668
0.02119	0.43176
-0.31033	0.68683
-0.18282	0.48277
0.48022	-0.02739
0.25071	-0.12942
0.09770	0.22769
0.14870	0.48277
-0.10631	-0.28246
0.60773	-0.81812
0.04670	0.17668
0.14870	0.55929
-0.02981	0.61031
-0.13181	0.76336
0.09770	-0.43551
0.22521	-0.23145
0.32721	0.35523
-0.05531	0.78886
0.04670	0.66132
0.27621	-0.48652
0.12320	-0.20594
0.35272	0.12566
-0.15732	0.50828
0.07220	0.66132
0.32721	-0.15492
0.25071	-0.10391
0.02119	0.02363
0.02119	0.53379
-0.10631	0.20219
0.25071	-0.23145
0.27621	0.45726
0.07220	0.38074
0.04670	0.32972
-0.08081	-0.25695
0.37822	-0.10391
0.09770	0.17668
0.12320	0.30422
-0.00431	0.35523
0.12320	0.25320
0.40372	-0.12942
0.37822	-0.15492
0.02119	-0.07840
0.12320	0.81437
-0.13181	0.96742
0.30171	-0.71609
-0.20832	-0.56305
-0.08081	-0.10391
0.19971	0.68683
0.50573	0.55929
0.63323	-0.12942
0.14870	-0.12942
-0.23382	-0.02739
0.02119	1.27351
-0.05531	0.48277
0.32721	-0.23145
-0.05531	-0.20594
0.37822	0.15117
0.07220	0.32972
0.22521	0.35523
0.35272	-0.25695
0.17421	0.30422
0.12320	0.35523
-0.02981	0.53379
-0.13181	0.48277
0.22521	-0.43551
0.32721	-0.43551
0.50573	0.04914
-0.10631	0.32972
-0.25932	0.25320
0.50573	-0.15492
0.12320	0.15117
0.17421	0.25320
-0.05531	0.53379
-0.02981	0.76336
0.45472	0.15117
0.27621	0.35523
0.22521	0.27871
0.07220	0.32972
-0.20832	-0.02739
0.32721	-0.69059
0.25071	-0.35899
-0.00431	0.15117
-0.46334	1.01843
0.09770	0.96742
0.53123	-0.15492
0.35272	0.07465
0.32721	-0.58856
0.02119	0.04914
-0.18282	0.15117
0.45472	0.07465
