0.12320	0.91640
-0.10631	0.58480
-0.08081	0.50828
0.32721	-0.38449
0.70974	-0.18043
0.25071	-0.56305
-0.69285	0.20219
-0.00431	0.30422
0.76074	0.17668
0.45472	0.48277
-0.08081	0.55929
-0.28482	0.86539
-0.08081	0.96742
0.60773	0.07465
-0.08081	0.32972
0.14870	0.15117
0.04670	0.02363
0.42922	0.20219
0.55673	-0.74160
-0.05531	0.66132
-0.36133	0.12566
-0.00431	-0.35899
0.02119	0.78886
0.60773	-0.56305
0.19971	-0.92016
0.17421	0.30422
-0.23382	1.09496
-0.15732	0.86539
0.40372	-0.38449
0.32721	-0.10391
0.30171	-0.35899
0.27621	-1.86394
0.17421	0.35523
0.40372	0.94191
0.09770	1.19699
0.07220	0.27871
-0.00431	0.76336
-0.15732	0.22769
0.37822	-0.56305
-0.13181	-0.69059
-0.31033	0.17668
-0.46334	0.40625
-0.10631	0.78886
0.93925	0.07465
0.99026	0.04914
0.22521	0.35523
-0.33583	0.50828
0.02119	0.78886
0.17421	-0.25695
0.04670	-1.22625
0.02119	0.50828
-0.00431	1.75816
-0.08081	0.38074
0.60773	-0.33348
0.04670	-0.30797
-0.38683	0.99292
-0.48884	0.27871
0.30171	0.35523
0.53123	0.04914
0.14870	-0.86914
0.14870	-1.09871
0.22521	-0.12942
0.25071	0.76336
0.32721	0.17668
0.32721	-0.28246
0.17421	-0.25695
-0.08081	-0.53754
-0.18282	0.45726
0.58223	0.27871
0.02119	1.29902
-0.23382	0.61031
-0.28482	0.61031
-0.46334	0.53379
0.50573	0.07465
0.58223	-0.05289
0.40372	0.38074
0.02119	0.07465
-0.36133	0.35523
0.58223	-0.05289
0.45472	-0.35899
0.07220	-0.51203
-0.41233	0.66132
-0.36133	0.73785
0.60773	0.63582
0.35272	0.63582
0.60773	0.02363
-0.31033	-1.17523
0.22521	-1.07320
0.37822	-0.76711
0.25071	-0.02739
-0.08081	-0.33348
-0.15732	0.78886
-0.59084	0.76336
0.40372	0.04914
0.25071	0.99292
0.83725	1.17148
0.19971	0.50828
-0.20832	0.45726
0.22521	-0.10391
-0.15732	-0.00188
0.19971	0.17668
-0.02981	0.55929
-0.00431	-0.02739
0.40372	-0.38449
0.27621	0.17668
0.37822	0.50828
0.02119	0.99292
0.02119	0.27871
0.37822	-0.81812
0.12320	-0.53754
0.25071	0.83988
-0.08081	0.68683
-0.38683	-0.10391
0.30171	-0.92016
-0.08081	-0.79262
0.27621	0.35523
0.35272	0.50828
-0.05531	0.40625
0.14870	-0.20594
0.32721	0.17668
0.02119	0.20219
0.22521	0.66132
0.07220	0.86539
0.09770	0.17668
0.40372	0.12566
0.09770	0.04914
0.09770	0.71234
0.58223	0.35523
-0.02981	-0.63957
-0.18282	0.30422
-0.84586	0.17668
-0.00431	0.38074
0.14870	0.83988
-0.20832	-0.18043
0.22521	-0.00188
1.21977	0.30422
0.37822	0.43176
-0.33583	-0.56305
0.19971	-0.74160
0.09770	0.17668
-0.18282	0.76336
-0.20832	0.38074
0.17421	0.17668
0.53123	1.09496
0.12320	-0.05289
0.32721	-0.41000
0.22521	0.25320
-0.18282	-0.10391
0.07220	-0.58856
0.09770	-0.30797
0.25071	0.45726
0.07220	0.78886
0.07220	0.43176
0.32721	-0.15492
0.27621	0.40625
0.14870	0.48277
-0.05531	0.99292
-0.10631	0.81437
0.32721	-0.25695
0.35272	0.02363
0.12320	-0.43551
-0.20832	-0.56305
-0.13181	0.58480
0.50573	0.66132
0.17421	-0.51203
-0.08081	-0.48652
0.14870	0.58480
-0.05531	1.17148
0.70974	1.17148
0.35272	-0.28246
-0.00431	-0.89465
0.30171	-0.74160
0.04670	0.76336
0.07220	0.45726
0.22521	-0.76711
-0.38683	-0.23145
-0.13181	1.12046
0.17421	1.01843
0.32721	0.15117
0.27621	0.02363
0.22521	-0.30797
0.30171	0.15117
-0.10631	-0.20594
0.04670	-0.66508
0.42922	-0.33348
0.22521	0.68683
0.14870	0.89089
0.02119	0.61031
0.53123	0.25320
0.04670	0.04914
0.09770	0.66132
-0.15732	1.19699
0.02119	0.27871
0.65874	-0.02739
0.22521	-0.10391
0.02119	-0.61406
-0.13181	0.38074
-0.15732	0.17668
-0.02981	-1.32828
0.17421	-1.58336
0.25071	0.20219
-0.15732	0.99292
0.50573	1.32453
0.93925	0.25320
-0.05531	0.12566
0.19971	0.25320
-0.31033	0.73785
0.40372	0.78886
-0.02981	-0.38449
0.12320	-0.58856
-0.38683	-0.00188
-0.00431	0.53379
0.37822	0.61031
0.60773	-0.20594
0.17421	-0.43551
0.14870	-0.25695
-0.02981	1.01843
0.12320	0.96742
0.50573	0.45726
0.19971	0.86539
-0.00431	0.71234
0.04670	-0.02739
-0.13181	-0.58856
0.02119	-0.81812
0.22521	-1.07320
0.27621	-0.71609
0.09770	0.76336
0.09770	1.42656
0.48022	0.15117
0.07220	0.35523
0.19971	0.07465
-0.05531	0.17668
-0.02981	0.15117
-0.31033	-0.07840
0.48022	0.53379
0.32721	0.76336
0.27621	-0.02739
-0.18282	0.94191
0.30171	-0.74160
0.40372	-0.51203
-0.02981	0.38074
-0.08081	0.43176
-0.38683	0.15117
0.58223	-0.10391
0.17421	0.40625
0.78624	0.45726
-0.18282	0.83988
0.04670	0.53379
0.27621	-0.43551
0.09770	-0.43551
0.30171	-0.02739
-0.53984	1.14597
-0.05531	0.20219
1.65330	-0.15492
0.19971	-0.35899
0.02119	0.25320
0.07220	0.27871
-0.00431	0.17668
0.14870	-0.41000
0.12320	-0.30797
-0.05531	-0.05289
0.02119	-0.10391
0.12320	0.40625
0.42922	0.40625
0.17421	0.35523
-0.00431	-0.12942
0.27621	1.04394
-0.08081	0.71234
0.30171	-0.63957
-0.05531	-0.61406
0.02119	0.10015
0.22521	1.24800
0.32721	0.50828
0.53123	-0.00188
0.42922	0.25320
-0.28482	0.43176
-0.28482	-0.18043
0.53123	0.45726
0.19971	-0.07840
-0.23382	-0.20594
-0.05531	-0.58856
0.09770	0.20219
0.17421	0.66132
0.60773	0.10015
0.45472	1.14597
0.09770	1.19699
-0.28482	-0.30797
0.04670	-0.63957
0.25071	-0.66508
0.14870	-0.30797
0.09770	0.22769
0.02119	0.15117
0.09770	0.73785
0.45472	0.32972
0.32721	1.01843
0.14870	-0.28246
-0.15732	-0.35899
-0.28482	-0.28246
0.32721	-0.28246
0.27621	0.25320
0.27621	0.25320
-0.53984	0.38074
-0.02981	0.30422
0.42922	-0.15492
0.60773	0.15117
0.65874	0.81437
0.02119	0.81437
0.12320	-0.20594
-0.10631	0.20219
0.48022	0.04914
-0.05531	-0.25695
0.04670	0.71234
0.30171	-0.15492
0.14870	-0.66508
-0.48884	0.27871
-0.51434	1.06945
-0.53984	1.24800
0.55673	0.55929
0.65874	-0.58856
0.45472	-0.66508
0.32721	-0.89465
0.17421	-0.25695
0.32721	-0.12942
0.35272	-1.32828
0.30171	0.15117
0.30171	1.52859
0.12320	1.60511
0.02119	0.83988
-0.51434	-0.48652
0.12320	-0.35899
-0.20832	-0.51203
-0.13181	0.35523
0.22521	0.30422
0.53123	0.15117
0.14870	0.30422
0.25071	0.83988
-0.25932	0.71234
0.37822	0.55929
0.53123	0.07465
0.40372	0.20219
-0.31033	-0.07840
0.35272	-0.02739
0.02119	0.30422
0.04670	-0.33348
0.07220	-0.38449
0.02119	0.30422
-0.51434	-0.25695
-0.33583	-0.51203
0.42922	-0.46102
0.86275	0.76336
0.45472	1.06945
-0.10631	0.83988
0.35272	1.09496
0.50573	-0.25695
0.19971	-0.86914
0.12320	-0.07840
-0.23382	0.45726
-0.05531	0.10015
0.04670	-1.02219
0.07220	-0.33348
0.12320	0.55929
-0.08081	0.63582
0.04670	0.20219
0.63323	0.17668
0.25071	0.53379
0.42922	0.35523
0.12320	0.86539
-0.36133	0.73785
0.02119	-0.05289
0.42922	-0.23145
0.09770	-0.28246
0.09770	0.50828
0.27621	0.53379
0.86275	-0.46102
0.25071	-0.84363
0.17421	-0.05289
0.12320	1.37554
-0.74385	0.96742
-0.18282	-0.25695
0.19971	0.04914
-0.18282	-0.35899
-0.13181	0.02363
0.35272	0.30422
0.60773	-0.12942
0.76074	0.32972
0.42922	0.63582
0.04670	0.58480
0.02119	0.38074
0.22521	-0.74160
0.12320	-0.51203
0.07220	0.48277
-0.10631	0.15117
0.25071	0.53379
0.42922	0.68683
0.14870	0.55929
0.14870	0.25320
-0.41233	-0.28246
-0.18282	-0.10391
0.48022	-0.56305
0.42922	-0.35899
0.27621	-0.18043
-0.08081	0.38074
-0.13181	0.91640
0.19971	0.17668
0.76074	0.45726
0.27621	0.86539
-0.53984	0.71234
0.58223	0.50828
-0.05531	-0.66508
-0.69285	-0.51203
-0.02981	-0.30797
0.37822	0.55929
-0.08081	0.04914
0.45472	-0.35899
0.68424	1.55410
0.14870	0.45726
0.09770	0.86539
-0.00431	-0.28246
0.12320	-1.27726
-0.33583	-1.40480
-0.13181	-0.02739
0.09770	1.06945
0.58223	0.32972
0.55673	-0.07840
0.09770	-0.18043
0.14870	0.83988
0.02119	1.12046
-0.10631	0.20219
0.12320	-0.76711
0.27621	-0.30797
0.14870	-0.00188
0.12320	0.63582
0.22521	0.43176
0.40372	0.30422
0.09770	0.68683
0.22521	0.53379
-0.08081	0.20219
-0.08081	-0.07840
0.12320	-0.38449
0.40372	-0.30797
0.07220	-0.05289
-0.25932	0.63582
-0.18282	0.15117
0.12320	-0.25695
0.78624	-0.51203
0.63323	0.30422
0.27621	1.98773
0.07220	1.04394
-0.23382	-0.46102
0.25071	0.17668
0.09770	-0.81812
-0.28482	0.10015
0.14870	0.45726
0.35272	-0.56305
0.07220	-0.46102
0.25071	-0.18043
0.19971	0.81437
-0.02981	0.45726
0.35272	-0.12942
0.48022	0.17668
0.14870	0.25320
-0.28482	0.66132
0.02119	0.17668
0.55673	-0.23145
0.12320	-0.33348
0.12320	0.25320
-0.10631	0.86539
-0.08081	1.27351
0.35272	-0.15492
0.32721	-0.25695
0.25071	-0.43551
0.09770	-0.35899
0.12320	-0.07840
0.07220	0.20219
0.19971	0.43176
0.07220	0.76336
-0.10631	0.22769
0.25071	0.27871
-0.00431	-0.20594
0.14870	-0.23145
0.35272	-0.05289
0.22521	0.86539
-0.08081	0.20219
-0.00431	-0.41000
-0.28482	0.48277
0.55673	0.83988
0.19971	0.10015
0.09770	-0.05289
0.48022	-0.48652
0.40372	-0.41000
-0.18282	-0.25695
-0.33583	0.45726
0.30171	0.94191
0.53123	0.43176
0.35272	0.35523
0.12320	0.55929
-0.18282	0.27871
-0.10631	-0.28246
0.32721	-0.76711
0.30171	-0.30797
0.09770	1.19699
-0.41233	0.99292
-0.02981	-0.38449
0.70974	-1.53234
0.32721	0.25320
0.25071	0.94191
-0.18282	1.40105
0.19971	-0.10391
0.42922	-1.35379
0.14870	-0.02739
0.02119	-0.02739
-0.15732	0.35523
-0.02981	0.20219
0.32721	0.02363
0.27621	0.45726
0.27621	0.27871
0.12320	0.53379
-0.20832	0.71234
0.58223	0.07465
0.07220	0.35523
0.22521	-0.07840
-0.13181	0.38074
-0.08081	0.12566
0.19971	-0.28246
0.37822	-0.35899
0.25071	-0.00188
0.14870	0.94191
-0.02981	0.61031
0.50573	0.02363
0.37822	-0.71609
-0.08081	-0.99668
-0.08081	1.35003
0.12320	1.06945
0.30171	0.20219
0.09770	0.66132
0.25071	-0.10391
0.17421	-0.05289
-0.00431	-0.25695
0.22521	-0.69059
-0.28482	-0.48652
-0.05531	-0.63957
0.25071	-0.05289
0.12320	0.53379
0.50573	0.12566
0.17421	0.58480
0.37822	0.55929
-0.38683	1.24800
0.60773	0.94191
0.83725	0.40625
0.19971	0.07465
-0.05531	0.07465
-0.43783	0.20219
-0.28482	-0.00188
0.40372	-0.46102
0.53123	-0.07840
0.45472	0.02363
-0.41233	0.35523
-0.08081	-0.18043
0.55673	0.04914
0.63323	-0.38449
0.07220	-0.33348
-0.20832	0.58480
0.04670	1.32453
0.42922	0.76336
0.19971	-0.56305
0.17421	0.30422
0.02119	-0.53754
0.14870	-0.23145
0.27621	0.22769
-0.10631	-0.33348
-0.13181	-0.43551
-0.10631	0.50828
0.19971	0.86539
0.68424	-0.23145
0.32721	-0.30797
0.27621	0.66132
-0.00431	1.24800
0.14870	0.50828
0.04670	-0.84363
-0.10631	-0.56305
-0.00431	0.07465
0.02119	1.01843
0.50573	1.19699
0.55673	-0.33348
-0.33583	-0.30797
-0.25932	-0.00188
0.32721	0.15117
-0.00431	0.04914
0.40372	-0.46102
0.60773	0.25320
-0.23382	-0.33348
0.40372	0.76336
0.40372	0.73785
0.50573	0.32972
0.02119	0.32972
0.19971	-0.53754
-0.41233	0.12566
-0.28482	1.14597
0.42922	0.40625
0.37822	-0.02739
0.07220	-0.92016
0.09770	0.40625
0.14870	0.27871
0.37822	0.20219
0.27621	-0.56305
0.32721	-1.12422
0.02119	-0.46102
-0.00431	-0.00188
0.30171	-0.71609
0.17421	0.15117
0.09770	0.89089
-0.08081	1.24800
-0.02981	1.37554
0.09770	0.66132
0.50573	0.73785
0.37822	0.35523
0.12320	0.45726
0.17421	0.20219
0.58223	-0.66508
-0.51434	-0.74160
0.22521	-0.20594
0.09770	0.12566
0.19971	0.55929
0.12320	0.20219
0.88825	0.15117
0.32721	-0.15492
-0.56534	-0.20594
0.09770	-0.56305
0.04670	0.04914
-0.31033	0.83988
0.09770	0.73785
0.27621	0.15117
0.27621	0.61031
0.19971	-0.61406
0.40372	-0.38449
0.73524	0.32972
-0.00431	-0.10391
-0.20832	0.04914
-0.00431	-0.74160
0.48022	0.68683
0.19971	1.14597
-0.28482	0.48277
0.42922	0.02363
0.25071	-0.43551
0.09770	-0.28246
0.25071	0.63582
0.09770	0.66132
0.09770	0.38074
0.17421	-0.35899
0.17421	-0.12942
-0.00431	-0.05289
-0.10631	0.27871
0.12320	0.27871
0.32721	0.12566
0.19971	0.63582
0.02119	-0.05289
0.19971	0.30422
-0.02981	0.25320
0.30171	-0.02739
0.48022	-0.23145
-0.25932	-0.46102
0.02119	-0.43551
0.19971	0.58480
-0.08081	1.75816
-0.02981	1.01843
0.60773	-0.74160
0.17421	0.20219
0.30171	0.12566
0.27621	-1.17523
0.14870	-1.17523
-0.28482	-0.23145
-0.20832	0.94191
0.27621	0.91640
0.58223	0.32972
0.17421	0.04914
0.14870	0.86539
0.09770	0.86539
0.32721	-0.35899
0.22521	-0.58856
0.14870	0.15117
-0.05531	0.10015
-0.20832	-0.18043
0.22521	0.38074
0.22521	0.12566
0.32721	0.73785
-0.00431	1.04394
0.07220	0.17668
0.25071	0.45726
0.19971	-1.14973
0.37822	-0.56305
0.27621	-0.66508
0.22521	1.06945
0.37822	1.55410
-0.00431	0.07465
0.19971	-0.18043
-0.00431	-0.18043
0.12320	-0.20594
0.14870	-0.00188
0.35272	-0.71609
-0.41233	-0.15492
-0.33583	0.63582
0.30171	0.66132
-0.00431	0.12566
0.65874	0.15117
0.42922	0.38074
0.19971	-0.05289
0.07220	0.43176
0.02119	0.20219
0.40372	0.25320
0.19971	0.48277
-0.05531	0.12566
0.17421	-0.18043
0.19971	0.22769
0.22521	-0.25695
0.14870	0.71234
-0.02981	-0.18043
-0.13181	-0.23145
0.14870	0.76336
0.50573	0.17668
0.30171	-1.25176
-0.38683	0.53379
-0.31033	0.58480
0.35272	-0.23145
0.50573	-0.56305
0.42922	0.86539
0.93925	0.55929
0.17421	0.71234
0.17421	0.07465
-0.13181	-0.63957
-0.23382	-0.23145
0.09770	-0.18043
0.02119	0.55929
0.40372	0.58480
0.19971	0.10015
0.22521	-0.02739
0.02119	0.12566
0.22521	0.48277
0.37822	0.35523
0.27621	0.07465
-0.02981	0.10015
-0.15732	-0.63957
-0.18282	0.10015
0.17421	1.29902
0.70974	0.61031
0.40372	-0.05289
0.35272	-0.53754
-0.02981	0.66132
0.02119	-0.25695
0.22521	0.04914
0.25071	-0.58856
0.09770	0.12566
-0.08081	-0.12942
-0.05531	-0.94566
0.35272	-0.66508
0.12320	0.07465
0.27621	0.99292
0.22521	1.70714
-0.08081	1.17148
0.27621	-0.05289
0.35272	-0.23145
0.32721	-0.51203
-0.13181	0.27871
0.12320	0.55929
0.53123	-0.18043
-0.02981	0.04914
0.14870	0.15117
0.09770	0.63582
-0.20832	0.12566
-0.23382	-0.33348
0.63323	0.27871
0.09770	0.10015
-0.02981	0.30422
-0.13181	0.10015
0.83725	-0.46102
0.50573	-0.76711
-0.23382	0.63582
0.22521	1.65613
0.27621	1.17148
0.42922	-0.12942
0.25071	0.20219
-0.53984	0.27871
0.81175	-0.07840
-0.31033	-1.02219
0.35272	-1.40480
0.42922	-0.61406
0.14870	0.10015
-0.00431	0.76336
0.09770	-0.05289
0.25071	-0.33348
0.12320	0.12566
-0.02981	0.02363
0.09770	0.91640
0.19971	0.89089
0.45472	0.40625
0.32721	0.71234
0.07220	0.66132
0.22521	0.81437
-0.02981	0.38074
0.30171	-0.23145
-0.25932	-0.23145
0.07220	-0.25695
-0.28482	-0.25695
0.07220	-0.05289
0.70974	0.63582
0.50573	0.40625
0.58223	-0.25695
-0.18282	-0.48652
0.25071	-0.76711
0.27621	-0.33348
-0.25932	0.50828
0.17421	1.04394
-0.33583	0.22769
-0.08081	0.48277
0.53123	-0.12942
0.50573	-0.71609
0.73524	0.25320
0.37822	0.35523
-0.18282	-0.10391
0.25071	0.27871
0.12320	0.22769
-0.25932	0.63582
0.07220	0.53379
0.17421	0.22769
0.50573	-0.94566
-0.02981	-0.12942
-0.00431	0.81437
-0.10631	0.55929
0.14870	-0.05289
0.58223	-0.46102
0.27621	-0.18043
0.19971	0.20219
-0.10631	0.94191
0.17421	0.27871
0.40372	-0.56305
0.53123	-0.10391
-0.05531	0.58480
-0.56534	0.81437
-0.46334	0.35523
0.53123	-0.18043
0.73524	0.40625
0.02119	-0.41000
0.22521	-0.05289
0.27621	-0.35899
0.40372	-0.02739
-0.36133	0.78886
1.14327	0.99292
0.25071	0.55929
-0.69285	-0.48652
0.42922	-1.22625
0.37822	-1.12422
-0.10631	0.30422
-0.15732	2.03874
0.04670	0.48277
0.63323	-0.86914
0.19971	-0.86914
0.27621	0.55929
0.07220	1.47757
0.07220	0.40625
0.19971	-0.51203
0.19971	-0.35899
0.07220	-0.53754
-0.02981	0.17668
0.25071	0.50828
0.40372	-0.25695
0.35272	0.48277
0.30171	0.58480
-0.31033	1.12046
-0.28482	0.10015
0.30171	-0.20594
0.45472	0.04914
-0.13181	-0.30797
0.27621	0.40625
0.09770	0.17668
0.53123	-0.94566
-0.10631	0.50828
0.22521	1.14597
-0.00431	0.76336
0.35272	-0.35899
0.27621	-0.71609
0.35272	-0.86914
-0.13181	-0.00188
-0.13181	0.73785
0.12320	0.91640
0.32721	-0.71609
0.07220	1.17148
0.14870	0.61031
0.25071	-0.84363
-0.08081	-0.12942
0.55673	-0.66508
0.42922	-0.25695
0.09770	-0.15492
-0.31033	0.43176
0.14870	0.83988
0.35272	-0.20594
0.17421	0.58480
0.25071	0.86539
0.12320	0.61031
-0.05531	-0.15492
0.27621	-0.25695
0.02119	-0.07840
0.09770	-0.12942
-0.28482	0.02363
-0.02981	0.04914
0.63323	0.22769
0.32721	-0.07840
0.63323	0.04914
-0.02981	0.27871
-0.41233	0.20219
0.22521	-0.12942
0.35272	-0.28246
0.09770	0.25320
0.09770	1.68163
-0.15732	1.52859
0.40372	-0.94566
0.55673	-1.14973
0.32721	-1.22625
0.40372	-0.66508
-0.31033	0.55929
0.07220	0.94191
-0.05531	0.61031
-0.18282	0.25320
0.14870	-0.10391
0.19971	-0.18043
0.30171	-0.69059
0.30171	-0.25695
0.50573	-0.05289
0.09770	-0.05289
0.22521	0.71234
0.25071	0.30422
0.32721	0.38074
0.09770	0.32972
-0.13181	0.96742
0.09770	0.53379
0.37822	-0.25695
0.02119	-0.38449
0.17421	-0.51203
0.22521	0.91640
0.19971	0.25320
0.55673	-0.48652
0.17421	0.25320
-0.53984	0.07465
-0.08081	-0.12942
0.09770	0.45726
0.76074	0.40625
0.19971	-1.02219
0.25071	-0.10391
-0.31033	1.65613
-0.05531	0.96742
0.55673	-0.25695
0.25071	-0.69059
0.12320	-0.07840
0.04670	0.32972
0.53123	-0.25695
0.32721	-0.71609
-0.08081	-0.02739
0.25071	0.17668
-0.08081	0.43176
0.12320	0.45726
0.45472	0.12566
0.32721	0.22769
-0.08081	0.32972
0.04670	1.19699
0.07220	0.43176
0.17421	0.04914
0.14870	-0.18043
0.02119	-0.07840
0.02119	0.07465
0.09770	-0.18043
0.63323	0.02363
0.25071	0.55929
0.02119	-0.07840
-0.02981	-0.05289
0.19971	0.04914
0.63323	-0.18043
0.12320	-0.99668
0.12320	0.32972
-0.02981	1.32453
-0.41233	1.19699
-0.31033	-1.30277
0.45472	0.10015
-0.00431	0.96742
0.42922	0.20219
0.40372	0.12566
0.81175	-0.69059
0.63323	-0.56305
-0.13181	-0.00188
-0.61635	0.71234
-0.02981	0.73785
0.25071	-0.05289
0.14870	-0.02739
0.12320	0.04914
0.09770	0.55929
0.14870	0.22769
0.35272	-0.12942
0.32721	-0.33348
0.19971	0.58480
0.09770	0.15117
-0.08081	-0.00188
0.35272	-0.46102
0.14870	0.27871
-0.00431	0.20219
0.02119	0.20219
0.04670	0.76336
0.32721	0.43176
0.58223	0.48277
0.30171	-0.63957
0.07220	0.40625
-0.05531	-0.00188
0.19971	-1.17523
0.07220	-0.18043
0.02119	1.09496
0.32721	-0.07840
-0.05531	-0.53754
0.35272	-0.28246
0.63323	-0.58856
0.65874	0.76336
0.09770	1.45206
-0.51434	0.81437
0.19971	-0.12942
-0.28482	-0.89465
-0.08081	0.02363
0.27621	0.53379
0.19971	0.66132
0.14870	0.35523
0.70974	0.15117
-0.25932	-0.02739
-0.25932	0.12566
0.48022	-0.20594
0.68424	-0.63957
0.42922	-0.58856
0.12320	-0.56305
-0.33583	1.24800
0.09770	2.08976
0.48022	0.68683
0.14870	-0.79262
-0.15732	0.22769
-0.38683	-0.35899
0.19971	-1.17523
0.48022	0.22769
0.30171	0.38074
0.25071	0.40625
-0.13181	0.91640
0.12320	0.22769
0.42922	-0.86914
0.30171	0.04914
0.14870	0.43176
-0.23382	0.45726
0.48022	0.04914
0.09770	0.48277
-0.33583	-0.38449
0.73524	0.25320
0.17421	0.43176
0.22521	0.25320
0.45472	-0.15492
0.07220	-0.10391
-0.08081	0.12566
-0.20832	0.07465
0.32721	0.15117
0.76074	-0.48652
0.65874	1.40105
-0.00431	2.01323
-0.48884	0.83988
-0.13181	-0.58856
0.19971	-1.88945
0.55673	-1.63437
0.22521	0.07465
-0.02981	0.71234
-0.13181	1.19699
0.25071	0.27871
0.22521	-0.69059
0.27621	-0.38449
0.09770	0.40625
0.12320	0.17668
0.40372	0.25320
0.14870	0.10015
-0.02981	0.17668
0.09770	0.25320
-0.15732	0.32972
0.22521	-0.07840
0.14870	0.61031
0.09770	0.30422
-0.08081	0.48277
0.30171	0.43176
0.25071	-0.23145
0.27621	-0.56305
0.42922	0.27871
-0.25932	0.50828
0.55673	-0.15492
0.37822	-0.94566
0.07220	0.73785
-0.15732	0.48277
-0.33583	0.96742
-0.33583	0.50828
1.16877	-0.74160
0.19971	-1.68539
0.42922	-0.46102
-0.08081	0.71234
-0.05531	1.04394
0.70974	0.30422
0.07220	0.27871
-0.43783	0.20219
-0.05531	-0.61406
0.27621	-0.99668
0.50573	-0.23145
0.27621	0.99292
0.30171	1.88570
0.04670	1.42656
-0.10631	0.15117
0.42922	-0.63957
0.19971	-0.53754
-0.23382	-0.69059
-0.10631	0.07465
0.04670	-0.12942
0.37822	-0.28246
0.30171	-0.00188
0.37822	0.76336
0.04670	0.71234
-0.20832	0.66132
0.50573	0.48277
0.17421	0.32972
0.27621	-0.81812
-0.08081	0.61031
0.22521	0.76336
0.30171	-0.48652
0.07220	-0.46102
0.68424	-0.74160
0.37822	0.55929
-0.23382	0.27871
-0.76936	0.53379
-0.38683	0.66132
0.07220	-0.63957
0.73524	-0.35899
0.17421	-0.53754
0.70974	-0.56305
0.68424	-0.30797
0.17421	1.04394
-0.41233	1.37554
0.25071	-0.15492
0.42922	0.10015
0.27621	1.17148
-0.00431	0.35523
-0.10631	-0.07840
0.09770	0.04914
0.35272	-0.41000
0.27621	-0.38449
0.25071	0.02363
-0.23382	0.45726
0.12320	0.17668
0.32721	-0.48652
0.32721	-0.05289
-0.00431	0.12566
-0.20832	0.38074
0.02119	0.20219
0.63323	-0.25695
0.63323	-0.07840
0.30171	0.32972
0.04670	1.93671
-0.08081	1.42656
0.55673	0.04914
-0.13181	-0.69059
0.17421	-0.56305
-0.10631	-0.46102
-0.36133	-0.07840
-0.13181	-0.48652
0.78624	-0.74160
0.32721	0.61031
0.65874	1.73265
0.37822	0.78886
-0.20832	-0.86914
-0.43783	-0.86914
0.32721	0.07465
0.17421	0.40625
0.55673	0.02363
0.65874	0.17668
0.53123	0.53379
-0.05531	-0.43551
0.02119	0.38074
-0.10631	1.37554
0.22521	0.10015
0.14870	0.55929
0.07220	-0.12942
-0.23382	-0.46102
-0.08081	-0.18043
0.42922	-0.41000
0.37822	-0.51203
0.27621	-0.02739
-0.00431	0.38074
0.09770	0.63582
0.45472	0.35523
0.12320	0.17668
0.12320	-0.18043
0.27621	0.30422
0.22521	0.10015
-0.13181	0.25320
0.32721	0.89089
0.76074	-0.05289
0.12320	0.40625
0.04670	-0.28246
-0.08081	0.07465
0.14870	0.96742
-0.25932	0.35523
-0.48884	-0.07840
1.55129	-0.92016
0.09770	-0.35899
0.32721	-0.15492
0.02119	0.22769
-0.23382	0.17668
0.17421	0.12566
0.42922	0.15117
0.14870	-0.05289
0.35272	0.50828
0.22521	0.07465
0.27621	0.22769
0.22521	-0.20594
0.27621	0.78886
0.32721	1.12046
-0.02981	0.38074
0.02119	0.02363
0.04670	-0.48652
0.07220	-0.53754
-0.05531	-0.23145
-0.20832	0.48277
0.22521	1.06945
0.22521	-0.76711
0.35272	-0.58856
0.25071	0.20219
0.12320	0.71234
0.25071	0.43176
0.30171	-0.33348
0.42922	-0.18043
-0.08081	0.27871
0.32721	0.45726
0.30171	0.40625
0.19971	0.02363
0.14870	0.30422
-0.18282	0.38074
0.22521	0.30422
0.35272	0.15117
0.17421	-0.33348
0.12320	-0.61406
-0.10631	-0.51203
0.17421	0.94191
0.02119	0.96742
0.37822	0.04914
0.53123	0.35523
0.42922	-0.15492
-0.02981	-0.56305
-0.51434	-0.41000
0.25071	0.12566
0.45472	0.94191
0.37822	-0.33348
0.40372	-0.18043
0.12320	-0.41000
0.14870	0.27871
0.02119	1.12046
0.07220	0.20219
-0.00431	-0.15492
-0.08081	-0.63957
0.04670	-0.97117
0.25071	-0.18043
0.12320	1.12046
0.04670	0.91640
0.14870	0.50828
-0.05531	0.27871
0.17421	0.45726
0.27621	0.35523
0.53123	0.22769
0.37822	0.68683
0.53123	0.02363
-0.02981	-0.61406
-0.18282	-0.43551
0.22521	0.22769
0.40372	0.38074
0.02119	-0.00188
0.19971	-0.02739
0.30171	0.17668
-0.08081	0.50828
-0.13181	0.53379
0.02119	-0.15492
-0.08081	-0.41000
0.14870	-0.58856
0.14870	0.63582
-0.36133	0.96742
1.70430	-0.23145
-0.05531	1.17148
0.40372	0.02363
0.27621	-0.46102
-0.00431	1.47757
0.04670	-0.00188
0.17421	-1.04770
-0.02981	-1.25176
-0.05531	-0.76711
-0.02981	-0.61406
0.09770	-0.05289
0.30171	0.53379
0.48022	1.01843
0.07220	0.81437
-0.10631	0.12566
0.30171	-0.23145
0.32721	0.86539
0.22521	1.14597
0.02119	0.66132
-0.08081	0.40625
0.60773	-0.23145
0.88825	-0.02739
0.19971	-0.38449
-0.41233	-0.18043
-0.02981	0.02363
-0.41233	-0.46102
0.91375	-0.10391
0.37822	0.50828
-0.51434	0.12566
-0.23382	-0.02739
0.63323	-0.05289
0.35272	0.02363
0.14870	-0.20594
0.09770	1.24800
0.02119	0.12566
0.25071	-0.86914
0.12320	0.71234
0.07220	0.04914
0.25071	0.83988
0.32721	-0.02739
0.30171	-0.74160
0.22521	0.25320
0.35272	0.20219
0.14870	0.04914
0.04670	0.02363
0.02119	-0.43551
0.02119	-0.41000
0.27621	0.15117
0.07220	0.20219
0.14870	0.58480
0.32721	0.38074
0.12320	0.02363
0.07220	0.35523
0.02119	0.55929
0.02119	0.04914
0.42922	0.53379
0.55673	0.53379
0.30171	0.40625
-0.31033	0.15117
-0.18282	-0.00188
0.81175	-0.20594
0.78624	-0.81812
0.12320	-0.25695
-0.41233	0.58480
-0.08081	-0.23145
0.70974	-0.28246
0.40372	0.76336
0.14870	0.22769
-0.64185	0.20219
-0.25932	0.17668
-0.33583	-0.07840
0.63323	0.78886
0.53123	0.27871
0.40372	-0.25695
0.04670	-0.53754
0.25071	-0.51203
0.27621	-0.23145
0.27621	-0.10391
0.12320	-0.07840
0.12320	1.29902
-0.18282	0.99292
0.12320	0.73785
0.14870	0.10015
0.09770	-0.05289
0.12320	-0.05289
0.27621	0.07465
0.04670	-0.30797
0.02119	-0.63957
0.09770	0.55929
0.07220	0.35523
0.30171	-0.00188
0.12320	0.50828
0.30171	0.71234
0.30171	0.07465
0.27621	-0.25695
0.32721	-0.71609
-0.00431	-0.30797
-0.71835	0.32972
0.78624	0.43176
0.35272	0.35523
0.19971	0.32972
0.12320	-0.28246
0.02119	0.32972
0.07220	0.48277
-0.28482	-0.02739
-0.08081	-0.56305
0.86275	-0.18043
0.60773	0.63582
-0.97337	1.47757
0.22521	0.76336
0.45472	-0.18043
0.48022	-0.53754
0.25071	-0.56305
-0.10631	-0.63957
-0.08081	-0.76711
0.17421	-0.41000
0.30171	0.73785
0.14870	1.57960
0.17421	1.14597
0.25071	0.55929
0.27621	0.27871
0.19971	-0.30797
0.04670	-0.30797
0.07220	-0.10391
-0.08081	0.20219
0.02119	-0.38449
0.48022	0.10015
-0.02981	0.48277
-0.13181	0.55929
0.19971	0.63582
0.32721	-0.07840
0.37822	0.12566
0.25071	-0.43551
-0.05531	-0.38449
0.27621	-0.20594
0.07220	0.94191
0.17421	1.83468
0.07220	-0.35899
0.04670	-0.33348
-0.33583	-0.33348
-0.05531	-0.28246
1.06676	0.53379
0.42922	0.58480
0.02119	0.07465
0.02119	0.04914
-0.05531	-0.38449
0.14870	-0.43551
0.17421	-0.12942
0.07220	0.04914
0.25071	0.22769
0.32721	-0.05289
0.22521	0.22769
0.07220	1.17148
0.22521	1.27351
0.17421	0.55929
0.32721	-0.07840
0.12320	-1.43031
-0.02981	-0.18043
-0.02981	0.71234
0.17421	0.61031
0.25071	0.61031
0.19971	0.22769
0.27621	-0.18043
0.02119	-0.61406
0.17421	0.04914
0.22521	-0.05289
0.37822	0.20219
-0.41233	0.32972
-0.13181	-0.33348
0.27621	-0.28246
0.14870	-0.74160
0.68424	0.22769
0.19971	0.78886
-0.02981	0.35523
0.50573	1.06945
0.37822	-0.18043
-0.05531	-0.69059
0.30171	0.10015
0.25071	0.89089
-0.28482	0.76336
-0.25932	0.20219
-0.15732	-0.41000
-0.02981	-0.18043
0.17421	-0.07840
0.17421	0.07465
0.40372	0.99292
0.48022	1.68163
0.27621	-0.33348
0.17421	-0.81812
0.14870	-0.53754
-0.00431	0.43176
0.30171	0.20219
0.12320	-0.07840
0.25071	-0.43551
-0.13181	-0.89465
0.02119	0.66132
0.27621	1.47757
0.14870	0.43176
-0.18282	-0.30797
-0.00431	0.32972
0.19971	-0.23145
0.32721	-0.69059
0.32721	0.15117
0.17421	0.48277
-0.23382	-0.07840
0.40372	0.43176
0.42922	0.38074
0.22521	0.35523
0.14870	0.68683
-0.13181	-0.02739
0.30171	-0.00188
0.32721	0.17668
-0.20832	0.71234
0.45472	0.10015
0.45472	-0.66508
0.63323	-0.48652
0.12320	0.30422
-0.15732	0.83988
-0.61635	0.17668
0.12320	0.27871
0.40372	-0.02739
0.27621	-0.35899
0.63323	-0.07840
-0.61635	-0.25695
0.12320	-0.30797
0.09770	0.81437
0.55673	0.96742
0.50573	0.78886
-0.00431	0.07465
0.07220	-0.20594
0.30171	-0.79262
0.48022	-0.05289
0.30171	-0.30797
-0.00431	0.35523
-0.28482	0.66132
0.04670	0.30422
0.30171	-0.20594
0.07220	-1.02219
-0.28482	0.96742
0.17421	1.70714
0.32721	1.35003
0.55673	-0.28246
0.07220	-0.48652
0.17421	-0.33348
0.07220	-0.18043
0.22521	-0.35899
0.32721	-0.10391
-0.05531	0.17668
-0.10631	0.68683
0.12320	0.45726
0.30171	0.25320
0.17421	-0.00188
0.76074	0.27871
0.14870	-0.10391
-0.05531	-0.41000
0.19971	-0.25695
-0.02981	0.12566
-0.10631	-0.10391
-0.18282	0.45726
0.30171	1.42656
0.45472	1.80917
0.58223	0.02363
0.27621	0.10015
-0.00431	-0.63957
-0.13181	-0.18043
-0.08081	-0.53754
0.32721	-1.25176
0.32721	-0.51203
0.09770	0.25320
0.04670	0.63582
0.09770	-0.05289
0.12320	0.43176
0.25071	0.43176
0.12320	0.30422
-0.02981	0.32972
0.09770	0.25320
0.32721	0.40625
0.14870	0.35523
-0.08081	0.17668
0.35272	0.81437
0.53123	0.76336
0.27621	-0.00188
0.04670	-0.51203
-0.18282	-0.25695
-0.02981	0.86539
0.12320	0.71234
0.45472	-0.71609
0.07220	-1.12422
-0.00431	-0.48652
-0.02981	0.45726
0.32721	0.58480
0.22521	-0.79262
0.17421	0.86539
0.37822	1.60511
-0.25932	0.27871
0.25071	-0.56305
0.32721	-0.76711
0.09770	-0.10391
0.27621	-0.63957
-0.08081	0.04914
0.14870	0.66132
0.17421	0.61031
0.17421	1.01843
-0.00431	0.91640
-0.13181	0.50828
0.32721	0.15117
0.32721	-0.79262
0.09770	-0.41000
-0.00431	0.02363
0.22521	0.27871
0.27621	0.73785
0.14870	-0.35899
0.14870	-0.25695
0.09770	-0.02739
-0.13181	0.35523
0.02119	-0.63957
0.37822	1.63062
0.22521	0.30422
0.14870	0.25320
0.35272	-0.05289
-0.00431	-0.33348
0.12320	-0.48652
-0.00431	-0.38449
-0.18282	0.86539
0.48022	0.17668
0.30171	-0.05289
0.22521	0.27871
0.02119	0.07465
-0.13181	0.89089
-0.28482	0.43176
0.14870	-0.12942
0.27621	-0.79262
0.37822	-0.74160
-0.10631	0.32972
0.40372	1.68163
0.40372	1.17148
0.37822	-0.53754
0.12320	-0.46102
-0.20832	-0.56305
-0.10631	-0.15492
0.17421	-0.12942
0.37822	-0.28246
0.17421	0.63582
0.09770	0.68683
-0.08081	1.04394
0.17421	0.35523
0.27621	-0.58856
0.04670	-0.74160
-0.28482	1.06945
0.09770	0.61031
0.35272	-0.63957
0.35272	0.53379
0.14870	0.15117
0.40372	-0.18043
0.04670	0.27871
0.17421	0.04914
0.48022	-0.30797
-0.13181	-0.15492
-0.18282	0.55929
-0.15732	1.52859
0.37822	0.12566
0.22521	-1.07320
0.58223	0.10015
-0.10631	0.17668
-0.25932	0.43176
0.07220	0.32972
0.45472	-0.35899
0.32721	0.02363
-0.00431	-1.02219
-0.18282	0.07465
0.04670	1.27351
0.53123	0.99292
0.42922	0.55929
0.25071	-0.00188
-0.10631	-0.07840
-0.02981	-0.35899
0.12320	-0.76711
0.81175	-0.43551
-0.25932	0.10015
-0.05531	0.66132
0.14870	0.43176
0.40372	1.14597
0.53123	0.61031
0.02119	0.76336
-0.18282	-0.05289
-0.13181	-0.84363
0.19971	-0.23145
0.07220	0.12566
0.12320	0.22769
0.19971	0.25320
-0.08081	0.17668
0.32721	-0.15492
0.17421	0.45726
-0.08081	0.50828
-0.05531	0.71234
0.27621	0.15117
0.63323	-0.61406
0.78624	-0.18043
-0.08081	-0.12942
-1.04987	-0.02739
-0.89686	0.32972
-0.08081	0.45726
0.17421	0.61031
0.55673	0.22769
0.65874	0.35523
0.12320	0.15117
0.58223	-0.41000
0.14870	0.30422
-0.10631	-1.12422
0.45472	-0.25695
0.17421	2.19179
-0.28482	1.65613
0.35272	0.04914
0.02119	-0.25695
0.22521	-1.25176
0.02119	-0.63957
0.32721	-0.18043
0.27621	0.10015
0.12320	0.38074
0.09770	0.43176
0.27621	0.20219
0.40372	-0.18043
0.04670	0.12566
0.07220	-0.15492
-0.13181	0.40625
-0.10631	0.10015
0.22521	0.20219
0.07220	0.58480
0.25071	0.30422
0.12320	0.38074
0.27621	0.55929
0.14870	0.20219
0.40372	0.15117
0.37822	0.07465
-0.13181	-0.23145
-0.08081	0.25320
0.30171	0.12566
0.30171	0.48277
0.04670	-0.41000
0.02119	-0.10391
0.04670	-0.30797
0.50573	0.63582
0.32721	0.45726
0.42922	-0.25695
0.27621	0.20219
-0.10631	-0.30797
-0.08081	0.35523
-0.15732	-0.48652
0.07220	0.99292
0.07220	1.35003
0.37822	-0.02739
0.50573	0.27871
0.22521	-0.51203
0.27621	-0.71609
-0.00431	-0.81812
-0.00431	-0.25695
0.27621	0.50828
0.22521	0.86539
-0.00431	-0.02739
0.04670	0.71234
0.32721	0.32972
0.30171	-0.25695
0.02119	0.12566
0.04670	0.40625
0.02119	0.22769
0.07220	0.22769
0.22521	-0.00188
0.12320	0.12566
0.02119	0.15117
0.32721	0.40625
0.32721	0.63582
0.42922	-0.05289
-0.18282	0.25320
0.02119	0.17668
-0.08081	0.32972
0.27621	0.04914
0.19971	-0.79262
0.22521	-1.12422
0.27621	-0.05289
-0.28482	1.78367
-0.23382	0.99292
0.73524	0.27871
0.58223	-0.25695
1.14327	-0.56305
0.09770	0.50828
-0.38683	0.94191
-0.02981	-0.33348
-0.46334	-0.35899
-0.18282	0.17668
0.12320	-0.07840
0.37822	-0.71609
0.55673	-0.05289
0.12320	-0.38449
0.25071	0.02363
0.17421	1.09496
0.02119	0.38074
0.22521	0.10015
0.25071	0.17668
-0.08081	0.43176
0.02119	1.09496
0.25071	0.91640
0.45472	0.43176
0.27621	-0.05289
0.14870	-0.10391
0.09770	-0.05289
0.14870	0.02363
0.09770	-0.18043
-0.05531	-0.20594
0.04670	-0.41000
0.17421	0.07465
0.19971	0.17668
0.32721	0.99292
0.07220	0.94191
0.17421	-0.02739
0.45472	-0.71609
0.12320	-0.12942
0.07220	-0.10391
-0.08081	0.20219
-0.08081	0.48277
-0.05531	0.63582
0.27621	0.02363
-0.18282	0.22769
-0.08081	0.02363
1.01576	-0.35899
0.12320	-0.05289
-0.08081	0.02363
0.09770	-0.46102
-0.00431	-0.38449
0.14870	0.40625
0.32721	1.04394
0.37822	0.32972
0.17421	0.38074
0.22521	1.14597
0.27621	1.47757
0.30171	0.22769
-0.10631	-0.23145
0.02119	-0.71609
-0.18282	-0.38449
-0.05531	0.17668
0.04670	0.15117
0.22521	0.10015
0.32721	-0.15492
0.14870	0.66132
0.17421	-0.18043
-0.08081	0.04914
0.12320	0.99292
0.19971	0.35523
0.02119	-0.43551
0.22521	-0.30797
0.17421	0.45726
-0.20832	0.02363
0.50573	-0.10391
-0.13181	-0.05289
0.73524	-0.15492
0.27621	0.20219
0.07220	-0.10391
-0.18282	-0.33348
-0.13181	0.61031
-0.10631	0.61031
-0.05531	1.17148
0.32721	0.86539
0.65874	0.45726
0.25071	0.22769
0.09770	-0.20594
0.12320	-0.33348
-0.00431	-0.33348
0.22521	-0.74160
0.19971	-0.05289
0.12320	0.66132
0.17421	0.99292
0.14870	0.83988
0.35272	-0.07840
0.17421	0.17668
0.02119	-0.43551
-0.13181	0.20219
-0.00431	-0.53754
0.25071	-0.30797
0.09770	0.58480
0.09770	-0.18043
0.04670	0.15117
0.14870	0.17668
0.25071	0.25320
0.27621	0.50828
0.12320	0.25320
-0.13181	-0.15492
0.02119	0.04914
0.40372	-0.12942
0.09770	0.17668
0.35272	0.12566
0.07220	0.04914
0.04670	1.24800
-0.10631	0.35523
0.55673	0.48277
0.22521	0.20219
-0.31033	0.02363
-0.10631	-0.10391
0.42922	-0.30797
0.35272	-0.25695
0.12320	-0.15492
0.17421	0.45726
-0.05531	0.15117
0.40372	0.15117
0.30171	0.83988
0.30171	0.83988
0.04670	0.32972
0.12320	-0.71609
0.19971	-0.86914
-0.05531	-0.51203
-0.02981	1.60511
0.12320	1.55410
0.19971	0.76336
0.45472	-0.15492
0.25071	-0.35899
0.12320	-0.71609
-0.18282	0.17668
-0.18282	-0.46102
0.14870	-1.14973
0.07220	-0.46102
0.09770	0.68683
0.09770	1.06945
0.27621	0.96742
0.48022	0.20219
0.19971	0.32972
0.22521	0.58480
0.09770	0.83988
-0.08081	0.02363
0.04670	-1.07320
0.02119	1.19699
0.12320	0.91640
0.55673	0.38074
0.30171	0.38074
0.12320	-0.69059
-0.13181	-0.66508
0.17421	-0.48652
-0.66735	-0.23145
-0.23382	-0.30797
1.01576	0.76336
0.07220	0.53379
0.09770	-0.05289
-0.41233	0.27871
0.07220	0.17668
0.40372	-0.07840
0.45472	0.20219
0.35272	-0.05289
-0.02981	-0.35899
-0.25932	0.91640
0.19971	1.06945
0.30171	0.76336
0.19971	0.30422
0.22521	0.45726
0.07220	0.04914
0.27621	-1.27726
0.17421	-0.63957
0.19971	-0.00188
-0.00431	1.78367
0.02119	1.01843
0.32721	-0.48652
0.12320	-0.33348
0.09770	-0.33348
-0.02981	-0.18043
0.02119	0.07465
0.30171	-0.23145
0.12320	0.07465
0.17421	0.63582
0.09770	0.66132
0.09770	0.53379
0.35272	-0.07840
0.14870	1.14597
0.25071	1.60511
0.25071	0.96742
0.19971	-0.28246
-0.05531	-0.86914
0.19971	-0.56305
0.02119	-0.15492
-0.18282	-0.02739
-0.08081	0.04914
0.22521	-0.30797
0.02119	-0.15492
0.12320	0.32972
0.12320	0.63582
0.17421	0.27871
0.37822	-0.25695
0.19971	-0.48652
0.19971	0.40625
0.02119	2.26831
0.12320	1.47757
0.25071	-0.30797
0.09770	-0.51203
0.04670	-0.94566
-0.00431	0.20219
0.09770	-0.43551
0.30171	-0.10391
0.19971	0.07465
0.25071	0.04914
-0.02981	-0.43551
0.02119	0.04914
0.22521	0.55929
0.02119	0.35523
0.02119	-0.07840
-0.08081	0.30422
0.27621	0.83988
0.22521	0.07465
0.35272	0.22769
0.37822	0.66132
0.07220	0.94191
-0.18282	0.12566
0.30171	-0.76711
-0.13181	-0.25695
0.02119	0.04914
-0.02981	0.25320
0.27621	0.45726
0.35272	-0.41000
0.60773	0.32972
0.19971	0.63582
-0.23382	0.94191
-0.00431	0.22769
0.37822	-0.35899
0.09770	-0.46102
0.02119	-0.10391
-0.20832	0.15117
0.12320	-0.35899
0.40372	0.04914
0.22521	1.14597
0.09770	0.81437
-0.05531	1.27351
-0.00431	0.12566
0.27621	-0.89465
-0.00431	-1.32828
-0.00431	-0.51203
-0.13181	0.43176
-0.02981	0.35523
0.37822	0.32972
0.30171	0.10015
0.17421	0.91640
0.02119	0.96742
0.02119	0.81437
0.35272	0.04914
0.22521	-0.69059
0.12320	-0.53754
0.02119	0.25320
0.19971	-0.20594
0.30171	0.12566
0.19971	0.40625
0.12320	1.06945
-0.00431	0.89089
0.30171	0.38074
0.12320	-0.43551
0.19971	-0.23145
0.19971	0.04914
-0.31033	0.30422
0.17421	0.55929
0.45472	-0.15492
0.14870	-0.15492
0.35272	0.22769
-0.10631	0.66132
-0.08081	0.83988
0.17421	-0.30797
0.12320	-0.99668
-0.02981	-0.56305
0.12320	1.06945
0.27621	1.40105
0.48022	0.76336
0.12320	0.27871
0.09770	-0.46102
0.07220	-0.00188
-0.02981	-0.02739
0.19971	-0.81812
0.12320	-1.91496
0.09770	0.25320
-0.08081	2.29382
0.07220	1.12046
0.35272	-0.23145
0.02119	-0.15492
0.07220	-0.05289
-0.08081	-0.02739
0.02119	0.12566
0.35272	-0.10391
0.12320	0.22769
0.07220	0.20219
-0.02981	0.35523
0.09770	1.04394
0.45472	0.86539
0.55673	0.86539
0.37822	0.04914
-0.20832	-0.10391
-0.20832	-0.25695
0.19971	-0.46102
-0.20832	-0.20594
-0.02981	-0.10391
0.04670	-0.00188
0.42922	-0.05289
0.42922	0.32972
0.09770	0.73785
0.09770	0.81437
-0.05531	0.30422
-0.05531	-0.15492
0.27621	-0.38449
0.12320	0.15117
0.12320	-0.07840
0.07220	-0.05289
0.04670	1.01843
0.40372	0.38074
0.40372	0.22769
0.17421	0.22769
0.02119	1.19699
-0.08081	-0.02739
0.30171	-1.04770
0.07220	-0.84363
-0.02981	0.22769
0.07220	0.10015
0.19971	-0.30797
0.40372	0.63582
0.09770	0.63582
0.07220	0.94191
-0.20832	0.43176
0.02119	-0.20594
0.42922	-0.15492
0.27621	0.10015
0.02119	0.15117
-0.02981	0.35523
0.04670	0.45726
0.32721	-0.53754
0.25071	0.43176
0.48022	0.73785
0.09770	0.96742
-0.08081	0.25320
-0.08081	-0.63957
0.04670	-0.56305
0.09770	-0.38449
0.19971	0.22769
0.14870	0.12566
0.22521	-0.41000
0.07220	0.04914
-0.05531	0.61031
-0.31033	1.78367
0.12320	0.66132
0.88825	-0.43551
0.45472	-0.81812
-0.13181	-0.48652
-0.31033	0.25320
-0.02981	0.63582
0.37822	0.17668
0.25071	0.12566
0.12320	0.15117
0.04670	0.94191
0.07220	0.83988
0.22521	-0.12942
-0.05531	-0.51203
0.09770	-0.86914
0.07220	-0.15492
0.02119	0.35523
0.42922	0.10015
0.32721	0.50828
0.30171	0.55929
0.09770	0.43176
-0.10631	0.10015
0.14870	-0.25695
0.14870	0.20219
0.02119	0.20219
-0.13181	0.68683
0.14870	0.58480
0.37822	-0.25695
0.32721	0.27871
0.32721	0.55929
-0.18282	0.20219
-0.00431	0.12566
0.25071	-0.46102
0.30171	-0.05289
-0.18282	0.10015
0.14870	0.27871
0.27621	0.25320
0.40372	-0.10391
0.14870	-0.07840
0.04670	0.38074
-0.38683	0.55929
-0.33583	0.38074
0.42922	-0.46102
0.19971	-0.79262
0.12320	-0.00188
0.12320	0.15117
0.32721	1.40105
0.58223	0.94191
0.35272	1.50308
0.27621	0.61031
-0.08081	-0.92016
-0.13181	-0.99668
0.19971	-1.20074
0.07220	0.15117
-0.00431	0.25320
-0.02981	0.27871
-0.02981	0.35523
0.40372	-0.02739
0.35272	0.35523
0.19971	0.61031
-0.23382	0.55929
0.02119	1.06945
0.19971	-0.07840
0.12320	0.30422
0.32721	0.02363
0.09770	0.27871
0.07220	0.25320
0.42922	-0.35899
0.27621	-0.15492
-0.00431	0.25320
-0.02981	0.27871
-0.13181	0.32972
0.60773	0.12566
0.27621	0.20219
-0.20832	-0.00188
-0.56534	0.04914
-0.08081	0.10015
0.50573	-0.00188
0.63323	0.27871
0.48022	0.40625
0.02119	0.38074
-0.08081	-0.00188
0.12320	-0.15492
0.04670	0.38074
0.02119	0.32972
0.09770	0.43176
0.19971	0.94191
0.27621	-0.25695
0.07220	0.43176
-0.00431	0.58480
-0.20832	-1.07320
-0.00431	-0.86914
0.30171	-0.10391
0.19971	0.32972
0.04670	0.35523
-0.00431	0.50828
0.22521	0.35523
0.37822	0.40625
0.25071	0.22769
0.27621	0.35523
0.02119	0.02363
-0.02981	-0.12942
0.22521	-0.38449
0.07220	0.17668
0.07220	0.53379
0.14870	0.55929
0.25071	0.43176
0.37822	-0.18043
-0.41233	0.38074
0.12320	0.04914
0.22521	0.22769
-0.15732	0.35523
0.12320	-0.38449
0.22521	-0.07840
0.22521	0.32972
-0.08081	0.73785
-0.13181	0.50828
0.30171	-0.63957
0.12320	-0.10391
0.07220	0.04914
-0.08081	0.27871
0.25071	0.45726
0.09770	0.40625
0.22521	0.10015
0.17421	0.27871
-0.05531	0.12566
0.04670	0.35523
0.32721	-0.35899
0.37822	-0.10391
-0.02981	-0.46102
-0.18282	0.12566
-0.10631	0.53379
0.32721	-0.20594
0.17421	-0.05289
0.12320	0.45726
-0.00431	0.68683
0.19971	1.01843
0.35272	0.12566
0.32721	-0.00188
0.22521	0.15117
-0.15732	0.20219
-0.00431	0.86539
0.50573	-0.38449
0.17421	-0.20594
-0.02981	0.17668
-0.08081	0.63582
0.19971	0.22769
0.55673	-0.33348
0.12320	0.12566
0.02119	-0.07840
0.02119	0.63582
-0.13181	0.73785
0.42922	-0.71609
0.32721	-0.07840
0.04670	0.20219
-0.10631	0.40625
0.12320	0.30422
0.19971	-0.41000
0.09770	-0.02739
-0.10631	0.48277
-0.00431	1.40105
0.12320	0.43176
0.45472	-0.15492
0.12320	0.04914
0.04670	-0.28246
0.07220	-0.00188
0.14870	0.12566
0.37822	-0.33348
0.30171	0.61031
0.07220	0.12566
-0.10631	0.99292
-0.15732	0.38074
0.25071	-0.38449
0.07220	-0.35899
0.02119	-0.00188
-0.10631	0.38074
0.17421	0.27871
0.50573	-0.15492
0.19971	0.04914
0.17421	0.58480
-0.00431	0.61031
0.04670	0.76336
0.40372	-0.48652
0.27621	-0.25695
-0.00431	-0.05289
-0.08081	0.45726
0.02119	0.63582
0.35272	0.02363
-0.10631	-0.25695
0.22521	-0.15492
0.53123	0.48277
-0.05531	1.14597
0.27621	0.38074
-0.00431	-0.43551
0.12320	-0.33348
-0.33583	0.25320
-0.18282	0.15117
0.32721	-0.46102
0.30171	0.10015
0.27621	0.07465
0.07220	0.17668
-0.00431	0.96742
0.37822	1.01843
0.30171	0.48277
0.07220	-0.43551
-0.15732	-0.30797
0.09770	-0.12942
0.48022	-0.05289
0.22521	0.02363
0.14870	0.12566
-0.10631	0.22769
-0.08081	0.55929
0.45472	-0.23145
0.22521	0.04914
0.07220	0.50828
-0.18282	0.73785
0.14870	0.55929
0.42922	-0.25695
0.14870	-0.00188
0.09770	0.63582
-0.28482	0.86539
-0.13181	-0.12942
0.37822	-0.89465
0.45472	0.04914
0.25071	0.15117
0.02119	0.45726
-0.13181	0.17668
0.25071	-0.10391
0.19971	0.07465
0.48022	0.15117
0.42922	0.43176
-0.36133	0.66132
-0.05531	-0.30797
0.04670	-0.20594
0.14870	-0.05289
-0.08081	0.76336
-0.13181	0.55929
0.70974	-0.05289
0.35272	-0.07840
0.42922	-0.23145
-0.02981	1.06945
0.02119	0.94191
0.27621	-0.69059
0.12320	0.10015
-0.02981	-0.23145
-0.10631	-0.05289
0.19971	0.25320
0.40372	-0.25695
0.30171	-0.02739
0.35272	0.55929
-0.08081	0.58480
-0.15732	0.25320
0.12320	-0.00188
0.09770	0.45726
0.17421	-0.18043
0.04670	0.40625
0.19971	0.53379
0.30171	-0.18043
0.12320	-0.20594
0.17421	0.22769
-0.00431	0.55929
0.14870	0.96742
0.30171	-0.53754
0.25071	-0.10391
0.14870	0.17668
0.22521	0.45726
0.09770	0.15117
0.09770	-0.46102
0.22521	-0.05289
-0.00431	0.15117
-0.00431	0.22769
-0.02981	0.48277
0.30171	0.04914
0.32721	0.12566
0.09770	0.02363
0.02119	0.63582
0.09770	0.45726
0.58223	-0.25695
0.19971	-0.07840
0.12320	0.17668
-0.10631	-0.23145
-0.13181	0.83988
0.19971	0.83988
-0.00431	0.53379
0.22521	-0.00188
0.09770	0.17668
0.22521	0.04914
0.30171	-0.84363
0.25071	0.07465
0.22521	0.40625
0.02119	0.22769
-0.08081	0.38074
0.14870	-0.02739
0.17421	0.12566
0.02119	0.10015
-0.02981	0.10015
-0.00431	0.15117
0.35272	0.04914
0.27621	0.38074
0.53123	0.38074
0.25071	0.55929
-0.00431	0.17668
0.14870	-0.05289
0.25071	-0.35899
-0.05531	-0.15492
-0.05531	0.58480
-0.05531	0.45726
0.30171	0.12566
0.22521	0.02363
0.12320	0.12566
0.04670	0.25320
-0.08081	0.81437
0.32721	-0.63957
0.35272	0.38074
0.07220	0.10015
-0.00431	0.12566
0.14870	0.27871
0.32721	-0.28246
0.04670	0.27871
0.37822	0.04914
0.04670	0.12566
-0.15732	0.94191
0.32721	0.53379
0.19971	-0.46102
0.12320	-0.05289
-0.10631	0.50828
0.04670	0.10015
0.42922	-0.46102
0.02119	0.17668
0.12320	0.45726
0.02119	0.27871
0.07220	-0.15492
0.32721	-0.48652
0.30171	0.07465
0.07220	0.22769
0.02119	0.81437
0.07220	0.53379
0.45472	0.12566
0.19971	0.20219
0.19971	0.50828
-0.10631	0.43176
0.37822	0.73785
0.30171	-0.35899
0.02119	-0.25695
0.02119	0.15117
0.07220	0.38074
-0.31033	-0.05289
0.30171	-0.69059
0.45472	0.43176
0.76074	0.94191
-0.05531	0.30422
-0.51434	-0.25695
-0.02981	-0.20594
0.12320	-0.02739
0.22521	0.55929
0.12320	0.50828
0.17421	0.38074
0.53123	-0.66508
0.32721	-0.20594
0.22521	0.22769
0.04670	0.50828
0.02119	-0.12942
0.35272	-0.15492
0.04670	-0.05289
0.02119	0.66132
-0.08081	0.55929
-0.08081	0.53379
0.22521	-0.28246
0.19971	-0.10391
0.19971	0.53379
-0.10631	0.86539
0.07220	-0.02739
0.40372	-0.38449
0.14870	-0.10391
-0.02981	0.27871
-0.05531	0.71234
0.12320	0.71234
0.37822	-0.23145
0.19971	-0.35899
0.25071	0.04914
-0.13181	0.25320
-0.28482	0.15117
0.68424	-0.43551
0.22521	-0.23145
0.25071	0.38074
-0.13181	0.83988
0.12320	0.53379
0.48022	-0.07840
-0.08081	-0.15492
-0.05531	0.02363
-0.10631	0.45726
-0.02981	0.66132
0.09770	-0.43551
0.27621	-0.38449
0.22521	0.38074
0.19971	0.58480
0.22521	0.07465
0.48022	-0.25695
0.25071	1.22250
0.19971	0.25320
-0.08081	-0.23145
0.04670	-0.38449
0.32721	-0.58856
0.14870	-0.18043
0.22521	-0.10391
0.02119	0.73785
0.02119	0.68683
0.32721	0.02363
0.19971	0.43176
0.27621	0.53379
-0.05531	0.50828
0.04670	0.40625
0.42922	-0.28246
0.25071	0.12566
0.09770	0.02363
-0.10631	0.25320
-0.05531	0.25320
0.27621	-0.33348
0.42922	0.35523
0.55673	0.15117
-0.02981	0.35523
-0.18282	0.15117
0.30171	-0.12942
0.07220	-0.35899
0.14870	-0.23145
-0.10631	0.12566
0.09770	0.38074
0.50573	-0.10391
0.19971	0.12566
-0.02981	0.68683
-0.28482	1.29902
0.07220	1.24800
0.53123	-1.22625
0.27621	-1.07320
0.02119	0.10015
-0.08081	0.61031
0.22521	0.35523
0.48022	-0.25695
0.25071	-0.25695
0.22521	0.27871
-0.13181	0.63582
-0.05531	0.66132
0.27621	-0.15492
0.04670	-0.18043
0.22521	-0.33348
-0.08081	0.71234
-0.08081	0.38074
0.42922	0.04914
0.22521	0.22769
0.04670	0.17668
-0.15732	-0.05289
0.09770	0.43176
0.32721	0.15117
0.04670	0.35523
0.17421	-0.35899
0.27621	0.38074
0.07220	0.27871
0.27621	-0.51203
0.17421	-0.33348
0.17421	0.50828
0.22521	0.61031
0.37822	0.45726
0.19971	-0.10391
-0.02981	-0.05289
-0.23382	-0.28246
-0.33583	0.20219
0.27621	-0.05289
0.76074	0.43176
0.09770	1.22250
0.07220	0.66132
-0.05531	0.22769
-0.08081	-0.43551
0.40372	-0.66508
0.25071	-0.58856
0.04670	-0.00188
-0.13181	0.94191
0.12320	1.17148
0.58223	-0.25695
0.27621	0.04914
0.22521	0.02363
0.02119	0.12566
0.04670	-0.15492
0.40372	-0.69059
0.17421	-0.02739
0.07220	0.20219
-0.05531	0.96742
0.25071	1.06945
0.50573	0.38074
0.30171	0.20219
0.22521	-0.05289
-0.23382	0.15117
-0.18282	0.17668
0.35272	-0.43551
0.12320	-0.15492
0.07220	-0.00188
0.02119	0.50828
0.12320	0.68683
0.81175	0.10015
-0.10631	0.25320
0.25071	0.27871
-0.46334	0.32972
-0.31033	0.15117
0.55673	-0.56305
0.22521	-0.30797
0.07220	-0.23145
-0.18282	-0.18043
0.04670	0.53379
0.35272	0.96742
0.35272	0.58480
0.25071	0.53379
-0.02981	0.66132
0.07220	0.17668
0.42922	-1.20074
0.02119	-0.28246
0.07220	0.43176
0.04670	0.20219
0.04670	0.15117
0.27621	-0.07840
0.17421	0.17668
0.22521	0.32972
-0.00431	0.25320
0.02119	0.20219
0.35272	-0.38449
0.12320	-0.02739
0.12320	0.48277
-0.02981	0.81437
0.37822	0.55929
0.42922	-0.33348
0.02119	0.15117
-0.05531	0.45726
-0.20832	0.40625
0.25071	0.32972
0.35272	-0.28246
0.50573	-0.33348
-0.18282	0.20219
0.04670	0.71234
0.32721	0.35523
0.22521	-0.43551
0.04670	-0.18043
0.40372	0.43176
-0.18282	-0.02739
-0.13181	0.12566
-0.00431	-0.25695
-0.15732	0.66132
0.04670	0.50828
0.04670	0.58480
0.42922	0.27871
0.63323	-0.35899
0.35272	-0.48652
0.25071	0.71234
-0.13181	0.86539
-0.02981	0.15117
0.35272	-0.20594
0.19971	-0.53754
0.09770	-0.30797
-0.00431	0.32972
0.17421	0.12566
0.25071	-0.35899
0.09770	0.25320
0.14870	0.40625
-0.02981	0.96742
0.09770	0.99292
0.42922	0.02363
0.25071	-0.12942
0.12320	0.15117
0.02119	0.35523
0.17421	0.02363
0.32721	-0.23145
0.30171	0.50828
0.19971	0.04914
-0.28482	0.81437
0.07220	0.32972
0.30171	-0.76711
0.25071	-0.43551
0.04670	-0.05289
-0.18282	1.09496
0.27621	0.22769
0.70974	-0.51203
0.93925	0.04914
0.09770	0.32972
-0.28482	0.73785
-0.20832	0.32972
0.02119	-0.63957
0.02119	-0.12942
0.04670	-0.00188
-0.05531	0.20219
0.19971	0.99292
0.35272	0.50828
0.17421	0.43176
0.09770	-0.25695
0.37822	-0.25695
-0.08081	-0.71609
0.30171	-0.02739
0.17421	0.25320
0.14870	-0.35899
0.02119	0.73785
0.07220	0.48277
0.30171	-0.41000
0.19971	-0.10391
0.02119	0.45726
-0.05531	1.12046
-0.00431	0.55929
0.48022	0.02363
0.17421	-0.10391
0.14870	-0.25695
-0.05531	0.17668
0.07220	0.38074
0.55673	-0.20594
0.35272	0.02363
0.14870	-0.07840
-0.28482	0.48277
-0.00431	0.58480
0.40372	-0.05289
0.30171	-0.02739
0.07220	-0.07840
-0.05531	0.25320
-0.08081	0.17668
0.37822	-0.46102
0.02119	-0.07840
0.63323	-0.38449
0.12320	0.68683
-0.28482	1.04394
0.09770	0.30422
0.27621	0.20219
0.02119	-0.48652
0.02119	0.43176
0.12320	0.73785
0.53123	0.10015
0.35272	-0.58856
0.22521	-0.76711
-0.02981	0.45726
-0.05531	0.66132
0.45472	-0.86914
0.32721	0.58480
-0.02981	0.12566
-0.18282	0.61031
-0.00431	0.07465
0.25071	-0.66508
0.12320	0.25320
0.12320	0.83988
0.02119	0.83988
0.07220	0.30422
0.27621	-0.05289
0.17421	-0.15492
0.12320	0.07465
0.12320	0.45726
0.17421	0.35523
0.32721	-0.30797
-0.00431	-0.15492
0.35272	0.22769
-0.13181	0.35523
-0.02981	0.20219
0.48022	-0.43551
0.17421	-0.05289
-0.38683	-0.30797
-0.00431	0.43176
0.22521	0.66132
0.40372	-0.51203
0.17421	-0.41000
0.07220	0.38074
-0.10631	1.37554
0.32721	0.89089
0.68424	0.76336
-0.33583	0.43176
-0.18282	0.43176
-0.05531	-0.66508
0.27621	0.02363
0.63323	-1.09871
0.37822	-0.86914
0.19971	0.63582
-0.08081	0.43176
0.07220	-0.15492
0.42922	-0.76711
-0.33583	0.45726
-0.18282	0.43176
-0.05531	0.61031
0.22521	0.10015
0.55673	-0.10391
0.14870	0.53379
0.12320	0.58480
-0.08081	0.35523
0.04670	0.81437
0.45472	0.04914
0.27621	0.17668
0.09770	0.07465
-0.08081	0.43176
0.04670	0.43176
0.53123	-0.71609
0.63323	-0.18043
0.12320	0.35523
-0.20832	0.43176
0.02119	-0.07840
0.07220	-1.09871
-0.00431	-0.05289
0.09770	0.25320
0.22521	0.78886
0.02119	0.35523
0.27621	-0.51203
0.27621	0.27871
0.32721	0.45726
0.04670	0.22769
-0.00431	-0.02739
0.32721	-0.48652
0.19971	0.17668
0.14870	0.50828
0.04670	0.91640
0.17421	0.45726
0.35272	-0.05289
0.14870	0.07465
0.09770	0.32972
-0.08081	0.30422
0.07220	0.22769
0.40372	-0.99668
0.30171	-0.41000
-0.08081	0.12566
-0.10631	0.66132
0.04670	0.40625
0.42922	-0.15492
0.25071	-0.00188
0.12320	0.71234
-0.00431	0.81437
0.30171	1.06945
0.37822	-0.35899
0.19971	-0.25695
-0.02981	-0.10391
-0.23382	0.12566
0.22521	0.12566
0.35272	-0.18043
0.42922	0.02363
0.14870	0.04914
-0.18282	0.40625
-0.02981	0.22769
0.17421	-0.10391
0.27621	0.04914
0.30171	0.45726
-0.20832	0.91640
0.50573	0.55929
0.48022	-0.10391
-0.20832	-0.56305
-0.10631	-0.51203
0.02119	0.55929
0.12320	0.76336
0.63323	-0.28246
0.32721	0.15117
0.22521	-0.07840
-0.08081	0.38074
0.02119	0.32972
0.32721	-0.53754
0.27621	0.43176
0.17421	0.10015
0.04670	0.20219
-0.00431	-0.69059
0.17421	0.32972
-0.02981	-0.20594
0.09770	-0.30797
0.09770	0.71234
0.19971	0.68683
0.37822	-0.05289
0.19971	0.12566
0.19971	0.22769
0.07220	0.73785
0.12320	0.45726
0.32721	-0.20594
0.27621	-0.07840
0.07220	0.15117
-0.10631	0.40625
0.07220	0.25320
0.53123	-0.05289
0.22521	-0.25695
0.04670	-0.02739
0.02119	0.53379
-0.02981	0.02363
0.32721	-0.25695
0.25071	0.20219
-0.08081	0.48277
0.02119	0.45726
0.19971	-0.00188
0.35272	-0.41000
-0.15732	-0.35899
0.22521	-0.10391
-0.00431	0.86539
0.04670	0.71234
0.42922	-0.25695
0.35272	-0.07840
-0.05531	0.43176
-0.18282	1.04394
0.32721	0.61031
0.53123	-0.84363
0.12320	-0.35899
0.12320	0.40625
-0.13181	0.25320
-0.05531	-0.30797
0.25071	-0.89465
0.12320	-0.00188
-0.00431	0.20219
0.04670	1.06945
0.30171	0.61031
0.45472	-0.23145
0.32721	-0.02739
0.19971	0.48277
0.04670	0.40625
0.04670	0.40625
0.32721	-0.20594
0.22521	0.04914
-0.15732	0.15117
-0.05531	0.53379
0.14870	0.45726
0.42922	-0.15492
0.25071	0.02363
0.32721	0.12566
0.12320	0.50828
-0.05531	0.27871
0.30171	-0.25695
0.14870	-0.23145
-0.05531	-0.07840
-0.28482	0.02363
0.14870	-0.18043
0.35272	-0.53754
-0.13181	0.78886
0.25071	1.04394
0.07220	-0.25695
0.70974	0.50828
0.86275	0.25320
0.17421	-0.23145
-0.18282	-0.35899
-0.33583	0.30422
-0.02981	0.22769
0.37822	-0.12942
0.30171	-0.10391
0.17421	0.89089
0.09770	0.76336
0.02119	0.32972
0.19971	-0.51203
0.09770	-0.33348
0.19971	-0.35899
-0.02981	0.27871
0.04670	0.07465
0.37822	0.02363
0.32721	0.48277
0.27621	0.50828
0.04670	1.01843
0.12320	0.32972
0.25071	-0.41000
0.14870	-0.00188
-0.13181	-0.15492
0.04670	0.07465
0.25071	0.17668
0.42922	-0.10391
-0.00431	0.35523
0.25071	0.10015
0.04670	0.25320
-0.02981	0.55929
0.25071	-0.51203
0.35272	-0.15492
0.09770	-0.07840
-0.33583	0.66132
0.30171	0.40625
0.50573	-0.25695
0.17421	-0.38449
0.22521	0.27871
-0.02981	-0.00188
-0.02981	0.50828
0.42922	0.35523
0.35272	0.20219
0.09770	-0.15492
-0.08081	0.45726
0.09770	0.30422
0.22521	-0.20594
0.96476	-0.23145
-0.05531	-0.05289
-0.02981	0.66132
-0.05531	0.40625
0.30171	-0.10391
0.14870	-0.02739
0.22521	0.25320
-0.00431	0.40625
0.02119	-0.20594
0.30171	0.04914
0.19971	-0.12942
0.09770	0.15117
0.04670	0.45726
0.17421	0.68683
0.48022	-0.07840
