0.48022	-0.43551
0.02119	-0.48652
0.02119	-0.15492
-0.18282	-0.35899
0.22521	0.15117
0.17421	0.30422
0.30171	0.38074
0.27621	0.94191
0.35272	0.22769
0.04670	-1.09871
-0.28482	-0.84363
-0.02981	0.45726
0.27621	1.75816
-0.05531	1.17148
-0.18282	0.81437
0.32721	0.27871
0.53123	0.35523
0.68424	-0.35899
-0.02981	-0.63957
-0.25932	-0.63957
-0.33583	-1.50683
1.04126	0.30422
-0.20832	0.71234
-0.13181	1.78367
-0.10631	0.71234
0.27621	0.04914
0.32721	0.25320
0.40372	0.63582
0.12320	-0.99668
0.04670	-1.25176
0.32721	-0.25695
0.17421	0.68683
0.32721	0.89089
0.04670	0.38074
-0.05531	0.22769
-0.08081	-0.05289
0.17421	-0.05289
0.55673	0.02363
-0.00431	0.55929
-0.31033	0.94191
0.07220	1.27351
0.48022	-0.74160
0.53123	0.61031
0.12320	0.76336
0.53123	-0.18043
0.32721	-0.63957
0.30171	-0.25695
-0.28482	-0.00188
-0.51434	-0.43551
-0.48884	-0.20594
0.12320	0.22769
0.65874	1.17148
0.07220	0.45726
0.40372	-0.02739
0.02119	-0.30797
0.37822	0.68683
0.32721	1.52859
-0.10631	0.10015
-0.13181	-0.05289
0.42922	-2.09351
0.22521	-0.61406
0.27621	-0.10391
-0.10631	0.07465
0.02119	0.27871
0.25071	1.17148
0.32721	0.25320
0.19971	-0.38449
0.07220	-0.28246
-0.02981	2.49788
-0.33583	2.11527
0.12320	0.35523
0.25071	0.40625
0.22521	0.99292
0.50573	-0.92016
0.12320	-2.85874
-0.15732	-2.52714
0.37822	-2.19554
-0.38683	-0.81812
-0.69285	0.27871
0.17421	0.32972
0.30171	1.86019
0.96476	1.96222
0.12320	2.21730
-0.08081	0.73785
0.86275	1.40105
0.50573	1.27351
0.68424	-0.02739
-0.51434	-0.02739
0.25071	-0.18043
0.02119	-0.23145
-0.00431	0.17668
-0.02981	-0.81812
-0.25932	-0.99668
0.12320	-0.86914
0.40372	-0.25695
-0.36133	-0.23145
-0.13181	-0.94566
0.14870	0.53379
0.50573	1.04394
0.04670	1.55410
0.58223	0.25320
0.40372	-0.43551
0.04670	0.30422
0.14870	1.37554
-0.13181	1.01843
0.14870	-0.69059
0.35272	-2.29757
-0.43783	1.06945
-0.08081	1.70714
0.30171	2.39585
0.40372	-0.38449
0.17421	-1.88945
0.17421	-0.99668
-0.08081	-1.07320
-0.38683	0.02363
0.32721	-0.00188
0.35272	0.17668
0.60773	0.83988
0.50573	0.81437
0.02119	0.73785
0.17421	0.32972
0.27621	0.10015
-0.38683	0.22769
-0.31033	0.55929
-0.00431	0.20219
0.07220	0.83988
0.35272	0.53379
0.53123	-0.53754
-0.05531	-0.48652
0.12320	-0.56305
0.30171	0.07465
0.42922	0.20219
-0.46334	0.86539
0.27621	0.71234
0.12320	0.76336
0.02119	-0.33348
0.48022	-1.45582
0.27621	-0.66508
-0.08081	-1.48133
0.04670	0.63582
-0.15732	1.55410
0.42922	0.61031
0.09770	-0.28246
0.19971	-0.97117
-0.13181	0.20219
0.12320	0.66132
-0.08081	0.10015
0.37822	0.94191
0.55673	0.15117
0.63323	0.20219
0.14870	0.48277
-0.13181	0.15117
-0.00431	0.66132
-0.31033	0.30422
-0.10631	0.10015
-0.10631	-1.27726
0.63323	0.76336
1.11776	1.32453
-0.00431	0.86539
-0.48884	0.45726
-0.25932	0.22769
0.55673	-1.17523
-0.08081	-1.07320
-0.41233	-0.00188
-0.08081	0.38074
0.42922	-0.48652
0.32721	-0.79262
0.30171	0.40625
0.12320	1.52859
-0.10631	1.57960
0.12320	0.30422
0.02119	-0.97117
0.27621	-0.76711
0.14870	-1.50683
0.17421	0.73785
0.17421	0.10015
0.12320	-0.35899
0.53123	2.14077
0.22521	1.80917
0.14870	0.50828
-0.05531	-0.00188
0.32721	-0.63957
-0.08081	-0.89465
-0.38683	-0.89465
-0.02981	0.91640
-0.05531	1.01843
0.09770	0.30422
0.37822	-0.18043
0.55673	-0.02739
0.96476	0.50828
0.55673	0.96742
-0.69285	-0.23145
-0.23382	-0.48652
-0.00431	-0.81812
-0.23382	0.55929
-0.02981	0.45726
0.88825	0.76336
0.25071	0.25320
-0.38683	0.04914
0.02119	0.22769
0.27621	-0.38449
0.58223	-0.76711
0.25071	-0.20594
-0.05531	-0.15492
0.12320	0.68683
-0.28482	1.17148
0.55673	0.68683
0.02119	-0.10391
-0.00431	0.38074
0.07220	-0.00188
0.17421	-0.15492
1.11776	0.17668
-0.18282	-0.79262
-0.18282	-0.05289
0.04670	2.44687
0.09770	1.40105
0.35272	0.45726
-0.15732	-0.48652
0.17421	-1.12422
0.12320	-1.04770
0.02119	-1.12422
0.32721	0.25320
0.04670	0.53379
-0.00431	0.61031
-0.02981	0.55929
0.22521	0.15117
0.70974	0.22769
0.02119	1.01843
0.32721	1.35003
-0.00431	1.27351
0.04670	0.81437
0.40372	-0.86914
0.32721	-1.91496
-0.36133	-1.55785
-0.08081	0.27871
0.50573	1.17148
0.37822	-0.05289
0.42922	0.15117
-0.97337	0.20219
-0.23382	0.81437
0.02119	-0.56305
0.76074	0.04914
0.35272	1.01843
0.37822	1.57960
0.30171	1.80917
0.37822	0.32972
0.42922	-1.50683
0.35272	-1.04770
0.04670	0.20219
-0.05531	0.04914
-0.51434	0.43176
0.09770	-0.66508
-0.08081	0.48277
0.09770	-0.30797
0.42922	0.30422
0.09770	-0.02739
0.30171	-0.05289
0.19971	0.07465
0.22521	0.66132
0.14870	0.86539
0.04670	0.40625
0.17421	-0.38449
-0.05531	-0.41000
0.19971	0.81437
0.25071	1.47757
0.02119	0.55929
0.32721	-0.05289
0.32721	-0.41000
0.14870	-0.53754
-0.13181	-0.97117
-0.48884	-0.66508
-0.08081	0.25320
0.50573	0.48277
0.63323	0.32972
0.04670	0.78886
0.37822	1.37554
0.27621	-0.18043
0.17421	0.17668
-0.15732	-0.12942
-0.23382	0.27871
-0.23382	-0.23145
0.22521	0.07465
0.48022	1.19699
0.40372	0.25320
0.32721	0.22769
-0.05531	-0.10391
0.22521	-0.53754
-0.02981	-0.76711
0.02119	0.43176
-0.02981	0.45726
0.22521	0.25320
0.35272	0.38074
0.14870	0.07465
0.19971	0.02363
-0.10631	0.22769
-0.13181	-0.15492
0.25071	-0.66508
0.04670	1.01843
0.19971	2.88050
0.27621	0.73785
0.12320	-0.41000
0.22521	-1.37929
-0.05531	-0.89465
0.14870	0.15117
0.12320	0.86539
0.17421	0.12566
0.14870	-0.35899
0.09770	-0.46102
0.25071	0.07465
0.35272	1.24800
0.27621	0.78886
0.09770	-0.12942
-0.02981	-0.25695
-0.15732	-0.10391
-0.23382	0.71234
0.14870	-0.30797
0.30171	-0.35899
0.35272	0.66132
0.07220	0.25320
0.02119	0.40625
0.09770	0.43176
0.27621	0.63582
0.09770	0.17668
-0.00431	-0.46102
-0.20832	-0.07840
-0.18282	0.58480
0.73524	0.40625
0.50573	-0.35899
0.07220	0.45726
0.02119	0.43176
-0.53984	-0.71609
0.12320	-0.18043
0.53123	0.66132
-0.10631	0.25320
0.35272	0.86539
0.07220	-0.02739
0.14870	-0.38449
0.27621	-0.66508
0.27621	0.15117
0.09770	0.48277
0.25071	0.94191
0.25071	0.25320
0.12320	-0.18043
0.09770	0.61031
-0.23382	1.01843
0.17421	0.04914
0.42922	-0.94566
0.35272	-0.05289
-0.00431	0.07465
-0.02981	0.86539
-0.00431	0.12566
0.42922	-0.51203
0.12320	-0.05289
0.04670	0.02363
-0.02981	1.42656
0.37822	-0.35899
0.50573	-0.86914
0.09770	0.71234
-0.10631	1.24800
0.02119	1.50308
0.02119	0.53379
-0.02981	-0.94566
-0.53984	-0.43551
0.30171	0.12566
0.35272	-0.69059
0.14870	-0.84363
0.25071	0.15117
0.19971	0.25320
0.17421	0.50828
-0.15732	0.40625
0.12320	0.22769
0.37822	0.07465
-0.10631	0.35523
0.14870	0.76336
-0.08081	0.48277
0.19971	0.40625
0.60773	-0.12942
0.30171	0.32972
-0.13181	-0.10391
-0.13181	0.25320
0.12320	0.20219
0.17421	-0.15492
0.96476	0.83988
-0.10631	0.04914
-0.53984	1.01843
-0.36133	0.35523
-0.13181	-1.04770
0.02119	-0.25695
0.65874	-0.38449
0.32721	-0.18043
0.30171	0.86539
0.22521	-0.02739
0.27621	0.78886
-0.10631	0.17668
-0.02981	0.32972
0.14870	0.27871
0.35272	-0.38449
0.19971	-0.35899
0.07220	0.43176
-0.25932	0.81437
0.14870	-0.05289
0.58223	-0.18043
0.14870	-0.00188
0.17421	0.96742
-0.43783	0.89089
0.07220	0.35523
0.37822	-0.41000
0.60773	-0.28246
0.32721	0.94191
-0.15732	0.55929
-0.25932	-0.23145
0.50573	-0.53754
0.42922	0.22769
0.09770	-0.10391
-0.00431	-0.00188
-0.20832	-0.71609
0.35272	0.22769
0.12320	1.04394
0.14870	0.61031
-0.08081	1.17148
-0.02981	0.04914
0.32721	-0.41000
-0.00431	-0.79262
-0.00431	-1.40480
-0.05531	-0.35899
0.17421	1.14597
0.58223	0.96742
0.25071	1.17148
0.02119	0.17668
0.09770	0.55929
-0.08081	0.15117
0.50573	-0.94566
0.04670	-0.28246
0.12320	-0.00188
0.53123	0.78886
-0.00431	0.17668
0.12320	-0.12942
-0.02981	0.94191
0.48022	0.20219
-0.10631	-0.00188
-0.36133	0.32972
0.27621	-0.41000
0.17421	-0.20594
0.09770	-0.46102
-0.05531	0.15117
0.09770	0.99292
0.78624	1.68163
0.19971	-0.00188
0.04670	0.38074
-0.00431	-0.25695
0.07220	-0.63957
0.02119	-0.81812
0.19971	0.58480
0.09770	0.22769
0.17421	0.25320
-0.18282	-0.46102
0.42922	-0.69059
0.27621	-0.02739
0.09770	0.78886
0.04670	1.37554
0.12320	1.65613
0.22521	-0.25695
-0.18282	0.04914
0.25071	-0.30797
0.04670	-0.05289
0.30171	-0.61406
0.50573	-0.12942
-0.05531	0.12566
0.12320	0.94191
-0.02981	0.73785
0.19971	0.40625
0.19971	0.35523
-0.28482	-0.18043
0.55673	-0.20594
0.27621	-0.53754
-0.18282	-0.28246
0.32721	1.04394
-0.00431	1.60511
0.22521	-0.71609
0.58223	0.15117
-0.20832	-0.07840
0.02119	-0.51203
0.07220	0.45726
-0.08081	0.53379
-0.18282	-0.02739
-0.08081	0.02363
0.35272	0.38074
0.60773	0.40625
0.48022	-0.53754
-0.15732	-0.41000
-0.20832	0.30422
0.27621	1.06945
0.27621	0.61031
-0.25932	-0.33348
-0.25932	-0.10391
0.45472	-0.05289
0.76074	-0.33348
0.07220	0.27871
-0.00431	0.48277
-0.08081	0.76336
-0.00431	0.25320
0.58223	0.15117
0.09770	0.17668
-0.08081	0.02363
-0.33583	0.53379
0.19971	0.12566
0.63323	-0.56305
0.12320	0.66132
0.30171	1.17148
0.27621	-0.20594
-0.02981	1.29902
-0.08081	0.53379
-0.10631	-0.12942
0.22521	-0.43551
0.27621	0.71234
-0.13181	-1.48133
0.42922	-1.76191
0.35272	-1.12422
0.30171	-0.71609
-0.08081	0.02363
-0.15732	0.66132
0.63323	0.25320
0.09770	0.94191
0.19971	1.57960
0.14870	1.88570
-0.18282	0.78886
0.30171	-0.33348
0.07220	0.04914
-0.08081	-0.10391
-0.18282	0.27871
-0.05531	0.89089
0.40372	0.99292
0.40372	-0.18043
0.14870	-0.89465
0.07220	-1.27726
0.12320	0.40625
0.19971	1.32453
-0.00431	0.50828
-0.08081	-0.71609
0.17421	-0.97117
0.32721	-0.35899
0.68424	0.17668
0.88825	1.04394
0.02119	0.61031
-0.41233	-0.02739
-0.53984	-0.84363
0.30171	-0.48652
0.09770	0.40625
0.32721	0.07465
0.22521	0.61031
0.07220	0.96742
0.42922	-0.41000
-0.00431	-0.10391
0.07220	0.55929
-0.10631	0.45726
0.27621	0.45726
-0.00431	-0.23145
0.02119	0.12566
0.30171	-0.30797
0.32721	1.47757
0.17421	1.57960
0.22521	-0.05289
0.09770	-0.76711
0.14870	-0.66508
-0.15732	-0.38449
0.09770	-0.61406
0.27621	-1.55785
-0.10631	0.58480
0.04670	1.55410
0.17421	1.86019
0.45472	0.48277
0.22521	-0.71609
-0.00431	-0.48652
-0.13181	-0.25695
0.02119	0.15117
0.22521	0.04914
0.14870	-0.33348
0.35272	1.12046
0.19971	1.29902
0.30171	1.57960
0.35272	-0.02739
0.35272	-1.22625
-0.31033	-1.02219
-0.18282	-0.61406
-0.23382	0.15117
0.25071	-0.35899
0.60773	0.63582
0.19971	0.45726
0.55673	0.71234
0.02119	0.99292
-0.25932	0.66132
0.02119	-0.51203
0.17421	-0.10391
-0.00431	-0.58856
0.14870	-0.07840
0.76074	0.22769
0.30171	0.27871
-0.10631	0.25320
0.14870	0.17668
0.14870	0.20219
-0.23382	0.48277
0.22521	0.07465
0.45472	0.17668
0.27621	0.12566
-0.10631	0.58480
0.17421	-0.53754
0.19971	0.45726
0.19971	1.57960
0.58223	0.20219
0.19971	0.40625
-0.15732	0.25320
0.17421	-0.58856
0.27621	-0.92016
-0.10631	-1.37929
-0.18282	-0.00188
-0.02981	0.15117
0.42922	0.20219
-0.00431	0.76336
0.27621	0.61031
-0.00431	0.50828
0.02119	0.68683
0.60773	0.38074
0.14870	0.32972
-0.15732	-0.28246
-0.25932	0.07465
0.37822	0.43176
0.58223	0.76336
0.30171	0.04914
-0.02981	-0.35899
0.09770	-0.18043
-0.13181	0.22769
0.14870	-0.12942
0.02119	0.15117
0.09770	0.27871
0.02119	-0.30797
0.17421	0.71234
0.30171	1.32453
0.17421	0.45726
0.25071	0.27871
-0.13181	-0.46102
-0.00431	-0.76711
0.42922	-0.51203
0.32721	-0.25695
0.02119	0.71234
-0.20832	-0.02739
-0.05531	0.27871
0.42922	0.38074
0.48022	0.71234
0.40372	0.50828
0.25071	0.10015
-0.23382	-0.25695
0.25071	-0.51203
0.19971	0.20219
-0.05531	-0.02739
-0.20832	0.68683
0.07220	0.78886
0.32721	0.35523
-0.15732	-0.07840
0.40372	0.10015
-0.02981	0.02363
0.09770	0.40625
0.12320	-0.66508
0.32721	-0.20594
0.42922	0.12566
-0.13181	1.14597
0.14870	1.14597
0.19971	0.04914
0.14870	-0.38449
-0.05531	-0.05289
-0.33583	-0.12942
-0.38683	-0.89465
0.68424	0.25320
0.53123	0.45726
0.50573	0.86539
0.02119	0.07465
0.02119	0.53379
0.30171	0.25320
0.04670	0.32972
0.17421	-0.30797
0.09770	-0.10391
-0.33583	0.83988
0.12320	0.10015
0.09770	-0.10391
0.22521	-0.23145
0.02119	-0.02739
-0.02981	0.07465
0.70974	-0.05289
0.73524	0.43176
-0.13181	-0.00188
-0.23382	0.30422
0.02119	1.12046
0.35272	0.43176
0.17421	-1.04770
0.07220	-0.23145
0.09770	0.86539
0.07220	1.22250
0.53123	0.55929
-0.00431	-0.46102
0.12320	-0.97117
-0.02981	0.73785
0.02119	0.17668
0.32721	-1.12422
0.25071	0.30422
0.22521	0.20219
-0.15732	0.27871
0.09770	0.02363
0.32721	-0.18043
0.27621	0.48277
0.32721	0.78886
0.04670	0.30422
-0.05531	0.66132
0.12320	-0.28246
0.86275	-0.10391
0.55673	0.32972
-0.10631	0.38074
-0.05531	0.20219
0.30171	-0.05289
-0.13181	-0.07840
-0.25932	-0.10391
-0.28482	0.38074
0.22521	0.53379
0.65874	-0.12942
0.42922	0.61031
-0.18282	0.04914
0.02119	0.04914
0.12320	0.71234
0.45472	-0.48652
0.32721	0.25320
0.12320	-0.56305
0.02119	0.45726
0.04670	-0.05289
0.45472	-0.20594
-0.00431	0.25320
0.32721	0.53379
-0.13181	0.71234
-0.05531	0.61031
0.42922	-0.43551
0.04670	-0.23145
-0.08081	0.22769
-0.20832	0.20219
0.30171	0.38074
0.37822	-0.20594
0.19971	0.35523
-0.05531	0.48277
0.37822	0.66132
0.37822	0.50828
0.22521	-0.05289
0.14870	-0.20594
-0.02981	-0.89465
-0.08081	0.04914
-0.10631	0.66132
0.48022	0.27871
-0.05531	0.76336
0.14870	0.12566
0.07220	0.22769
0.09770	-0.07840
0.30171	-0.30797
0.09770	0.10015
-0.00431	0.30422
0.09770	0.15117
0.42922	-0.20594
0.53123	-0.12942
-0.02981	0.20219
-0.20832	0.71234
-0.02981	1.01843
0.55673	0.15117
0.68424	-0.33348
0.14870	0.12566
-0.02981	0.10015
-0.28482	0.55929
-0.23382	0.17668
0.42922	-0.35899
0.68424	0.07465
-0.02981	0.12566
-0.18282	0.25320
-0.02981	-0.38449
0.40372	0.15117
0.27621	0.66132
0.12320	1.19699
0.27621	0.76336
0.25071	-0.28246
0.42922	-1.07320
0.22521	-1.35379
-0.13181	0.25320
-0.08081	1.17148
-0.02981	0.53379
0.58223	-0.35899
0.48022	0.76336
0.32721	0.35523
-0.33583	-0.07840
-0.00431	-0.10391
0.42922	-0.05289
0.30171	-0.25695
-0.00431	-0.35899
-0.18282	-0.00188
0.12320	0.63582
0.50573	1.47757
0.48022	0.32972
0.17421	0.07465
-0.20832	-0.00188
-0.36133	-0.07840
0.25071	-0.43551
0.25071	-0.63957
0.07220	0.83988
0.17421	0.76336
0.09770	0.66132
0.50573	-0.28246
0.27621	-0.00188
0.37822	-0.41000
-0.08081	-0.12942
-0.15732	0.76336
0.32721	1.17148
0.30171	-0.35899
0.22521	-0.71609
-0.38683	0.04914
0.19971	-0.25695
0.58223	-0.02739
0.22521	0.10015
0.17421	0.58480
0.02119	0.94191
-0.02981	0.55929
0.25071	-0.30797
0.32721	0.12566
-0.02981	-1.02219
0.02119	0.86539
0.02119	0.63582
0.53123	0.04914
0.48022	-0.10391
0.02119	-0.25695
0.27621	0.27871
-0.48884	0.17668
0.32721	0.17668
0.22521	0.40625
0.48022	0.12566
-0.48884	-0.05289
0.27621	-0.00188
0.63323	-0.05289
0.14870	0.43176
-0.31033	0.50828
0.07220	0.17668
0.27621	0.12566
0.40372	-0.56305
0.48022	0.02363
0.09770	-0.07840
-0.05531	0.10015
-0.15732	-0.10391
0.30171	0.15117
0.22521	0.55929
0.32721	0.96742
-0.02981	0.22769
0.22521	0.12566
0.07220	0.32972
-0.02981	0.12566
-0.02981	-0.25695
0.17421	-0.51203
0.04670	0.38074
0.22521	0.04914
0.27621	0.15117
0.22521	0.30422
0.14870	-0.23145
0.02119	-0.33348
0.35272	-0.05289
0.19971	0.17668
0.12320	0.63582
0.07220	0.71234
-0.00431	0.58480
0.45472	-0.15492
0.17421	-0.00188
0.17421	0.20219
0.09770	0.35523
0.25071	0.43176
0.25071	-0.05289
0.22521	-0.05289
-0.08081	-0.07840
0.07220	0.07465
0.04670	0.20219
0.30171	-0.02739
0.14870	0.22769
0.32721	-0.02739
0.12320	0.50828
0.22521	-0.02739
-0.08081	-0.43551
-0.08081	0.71234
0.27621	0.35523
0.09770	0.58480
-0.13181	-0.05289
0.27621	-0.30797
0.32721	0.66132
0.48022	-0.20594
0.14870	-0.46102
0.07220	-0.41000
0.30171	-0.41000
0.12320	-0.46102
0.14870	0.48277
0.12320	0.86539
-0.15732	0.15117
0.12320	0.17668
0.45472	0.68683
0.22521	0.63582
0.17421	0.45726
0.27621	0.35523
0.22521	-0.63957
0.27621	0.30422
-0.08081	0.30422
-0.20832	0.22769
-0.13181	-0.00188
0.37822	-0.38449
0.48022	-0.10391
0.32721	-0.12942
0.09770	-0.02739
0.02119	0.78886
0.37822	0.02363
0.14870	0.25320
0.02119	-0.53754
-0.08081	-0.28246
0.07220	0.07465
0.40372	-0.79262
0.12320	0.10015
0.22521	0.73785
-0.10631	1.57960
0.07220	0.55929
0.25071	-0.33348
0.12320	-0.56305
0.22521	-0.00188
-0.20832	0.58480
0.30171	0.30422
0.55673	-0.18043
0.32721	-0.25695
0.14870	-0.05289
0.04670	0.61031
0.02119	0.25320
0.25071	0.20219
0.04670	0.22769
0.14870	0.20219
0.12320	0.20219
0.19971	0.25320
0.42922	-0.00188
0.50573	0.58480
0.09770	0.73785
0.09770	-0.00188
-0.28482	-0.10391
0.14870	-0.94566
0.42922	-0.35899
0.02119	-0.84363
0.12320	1.19699
0.09770	0.91640
0.04670	0.43176
0.22521	-0.00188
0.32721	-0.18043
-0.00431	-0.18043
0.02119	-0.23145
0.40372	-1.09871
0.42922	0.91640
-0.02981	1.12046
0.02119	0.94191
0.17421	0.78886
0.17421	-0.94566
0.27621	-0.58856
0.02119	0.04914
-0.13181	0.68683
0.12320	0.81437
0.65874	0.15117
0.12320	-0.43551
0.02119	-0.15492
-0.28482	-0.02739
0.04670	0.15117
0.32721	-0.28246
0.07220	-0.12942
0.50573	0.63582
0.42922	0.15117
0.07220	0.50828
0.32721	0.27871
0.14870	0.15117
-0.02981	-0.30797
-0.28482	0.30422
0.35272	0.32972
0.32721	-0.63957
0.42922	-0.05289
0.12320	0.17668
-0.00431	0.68683
-0.10631	1.04394
0.17421	0.04914
0.30171	0.07465
0.04670	-0.18043
0.04670	-0.05289
0.22521	-0.79262
0.53123	-0.07840
0.07220	-0.20594
0.22521	0.63582
-0.02981	0.61031
0.04670	0.20219
0.30171	0.10015
0.35272	-0.02739
-0.08081	0.10015
-0.13181	-0.05289
-0.08081	0.27871
0.40372	-0.23145
0.45472	0.81437
0.22521	0.68683
-0.23382	0.45726
0.53123	0.15117
0.37822	-0.38449
0.12320	-0.28246
-0.00431	-0.20594
-0.10631	0.50828
-0.02981	0.38074
0.50573	0.20219
0.17421	-0.10391
0.17421	0.17668
-0.13181	0.10015
0.04670	0.66132
0.81175	-0.94566
0.09770	-0.46102
-0.05531	1.04394
-0.36133	0.86539
-0.08081	-0.30797
0.53123	-0.18043
0.45472	-0.07840
0.42922	-0.23145
-0.08081	0.38074
0.09770	0.30422
0.32721	-0.43551
0.25071	0.25320
0.12320	-0.12942
-0.31033	0.40625
0.09770	0.66132
0.40372	-0.07840
0.30171	0.02363
0.07220	0.53379
-0.00431	0.20219
0.02119	0.02363
0.27621	-0.41000
0.32721	-0.15492
0.04670	0.02363
-0.10631	0.30422
0.19971	0.81437
0.22521	0.25320
0.07220	-0.12942
0.30171	-0.02739
0.22521	0.12566
0.04670	-0.10391
0.35272	-0.15492
0.09770	-0.18043
0.19971	0.32972
-0.23382	0.86539
0.12320	0.50828
0.37822	0.32972
0.50573	-0.25695
0.40372	-0.12942
-0.20832	-0.28246
-0.28482	-0.20594
0.12320	-0.25695
0.37822	0.07465
0.22521	0.27871
0.02119	0.53379
-0.23382	0.35523
0.45472	-0.05289
0.48022	-0.07840
0.63323	-0.05289
-0.18282	-0.25695
0.02119	-0.10391
0.19971	0.89089
0.58223	0.78886
0.25071	1.04394
-0.13181	0.20219
-0.48884	-0.18043
0.55673	-0.30797
0.22521	-0.28246
0.07220	-0.20594
-0.20832	-0.15492
0.12320	0.43176
0.12320	-0.18043
0.30171	0.02363
0.76074	0.86539
0.04670	0.63582
-0.25932	0.66132
0.53123	0.20219
-0.10631	-0.56305
0.12320	-0.71609
0.25071	-0.56305
-0.38683	-0.18043
0.42922	0.53379
0.19971	0.35523
0.09770	0.58480
-0.00431	1.06945
0.22521	0.78886
0.35272	0.35523
0.17421	-0.41000
0.48022	-0.69059
0.22521	-0.81812
0.12320	-0.30797
0.09770	-0.53754
0.22521	0.07465
0.22521	0.38074
-0.20832	0.66132
0.25071	0.50828
0.63323	0.50828
0.09770	0.22769
0.50573	0.45726
-0.36133	0.10015
0.45472	0.55929
0.48022	-0.02739
0.02119	-0.05289
-0.38683	-0.35899
-0.18282	-0.23145
-0.08081	0.15117
0.53123	1.24800
0.91375	0.96742
0.30171	-0.66508
-0.31033	-0.51203
-0.28482	0.10015
1.11776	-0.35899
-0.02981	-0.18043
-0.10631	0.27871
-0.13181	-0.07840
-0.02981	0.22769
0.35272	1.09496
0.27621	0.76336
0.32721	0.32972
-0.18282	-0.00188
-0.15732	-0.92016
0.42922	-0.48652
0.50573	0.17668
0.17421	0.38074
-0.13181	0.10015
0.07220	1.19699
0.12320	0.27871
0.27621	0.15117
0.22521	-0.30797
0.22521	-0.15492
0.22521	-0.10391
0.40372	0.17668
0.30171	-0.12942
-0.00431	-0.02739
-0.31033	0.04914
-0.15732	0.71234
0.45472	0.55929
0.50573	0.22769
0.40372	0.61031
-0.08081	0.53379
0.04670	-0.35899
0.17421	-0.38449
0.32721	0.10015
0.09770	-0.02739
-0.31033	-0.07840
0.25071	0.83988
0.73524	0.12566
0.45472	-0.61406
0.22521	0.17668
-0.05531	0.91640
-0.00431	1.35003
-0.08081	-0.12942
-0.08081	-0.81812
-0.00431	-0.69059
0.04670	-0.61406
-0.05531	-0.05289
0.32721	-0.10391
0.45472	0.61031
0.48022	0.20219
0.09770	0.58480
-0.18282	0.73785
0.07220	-0.28246
0.40372	0.20219
0.17421	-0.02739
-0.10631	0.63582
0.04670	0.96742
0.32721	0.71234
0.19971	-0.25695
0.07220	0.17668
0.04670	0.10015
0.27621	-0.15492
0.50573	-0.23145
0.04670	-0.05289
-0.41233	-0.20594
0.17421	0.55929
0.04670	0.38074
0.22521	-0.10391
0.40372	-0.35899
0.48022	-0.05289
0.48022	0.40625
-0.15732	0.76336
0.35272	0.12566
-0.18282	-0.41000
-0.02981	-0.41000
-0.08081	0.27871
0.04670	0.45726
0.22521	0.10015
0.42922	0.02363
0.50573	0.53379
0.22521	0.22769
0.17421	-0.25695
0.22521	-0.46102
0.07220	0.32972
0.02119	0.73785
-0.00431	0.04914
0.09770	-0.12942
0.37822	-0.43551
0.17421	0.35523
0.02119	0.35523
0.12320	0.25320
0.19971	0.04914
0.27621	-0.07840
0.14870	0.32972
-0.08081	0.32972
-0.23382	-0.18043
0.42922	0.32972
0.60773	0.10015
0.63323	-0.10391
-0.10631	0.17668
0.07220	-0.25695
-0.00431	0.83988
-0.18282	0.66132
0.04670	0.45726
0.02119	-0.12942
0.27621	0.04914
0.50573	0.27871
0.30171	-0.12942
-0.13181	-0.61406
0.40372	-0.23145
0.55673	0.20219
-0.05531	0.27871
-0.00431	-0.25695
-0.59084	-0.05289
0.25071	0.73785
0.19971	0.91640
0.30171	-0.12942
0.12320	-0.38449
0.27621	-0.46102
0.37822	-0.10391
0.14870	0.35523
0.17421	1.14597
0.22521	0.48277
0.04670	-0.23145
0.02119	-0.05289
0.02119	0.02363
-0.15732	0.50828
0.65874	0.20219
0.19971	0.15117
0.04670	0.40625
-0.05531	0.17668
0.22521	0.20219
0.22521	-0.25695
-0.20832	-0.53754
0.27621	-0.28246
0.07220	-0.10391
0.65874	0.32972
0.35272	-0.25695
-0.08081	0.12566
0.19971	0.76336
0.07220	0.50828
-0.00431	0.50828
0.09770	0.32972
0.25071	0.38074
0.17421	-0.20594
0.68424	0.15117
-0.20832	0.73785
0.32721	-0.30797
0.12320	-0.63957
0.17421	-0.02739
0.07220	0.40625
-0.10631	0.25320
0.09770	0.30422
-0.00431	0.27871
0.04670	0.02363
0.07220	0.04914
0.42922	0.27871
0.30171	-0.46102
0.45472	-0.25695
0.19971	0.58480
-0.02981	0.78886
0.02119	0.43176
0.35272	-0.25695
0.14870	-0.79262
0.19971	0.50828
-0.25932	1.01843
0.37822	0.58480
0.12320	-0.28246
0.27621	-0.69059
0.32721	0.38074
0.14870	0.43176
-0.08081	0.53379
0.04670	-0.69059
0.07220	-0.63957
0.22521	0.30422
-0.05531	0.66132
0.48022	0.15117
0.37822	-0.05289
0.63323	0.40625
-0.10631	-0.18043
-0.33583	0.43176
0.19971	0.27871
0.48022	-0.56305
0.09770	0.12566
0.12320	-0.18043
0.02119	0.40625
0.22521	0.99292
0.42922	1.04394
0.55673	0.10015
-0.13181	-0.23145
0.22521	-0.10391
-0.02981	0.04914
0.40372	-0.05289
0.12320	-0.25695
0.02119	-0.30797
-0.20832	-0.25695
0.07220	0.83988
0.04670	0.38074
0.73524	0.02363
-0.00431	0.40625
0.02119	0.96742
0.02119	0.10015
0.02119	-1.22625
0.32721	-0.02739
0.42922	0.58480
0.19971	0.58480
0.30171	-0.05289
0.02119	-0.05289
0.04670	-0.46102
0.22521	0.25320
0.35272	0.27871
0.09770	0.30422
-0.33583	0.07465
0.04670	0.43176
0.22521	0.22769
0.27621	0.10015
0.12320	1.37554
0.37822	0.17668
-0.02981	-0.25695
0.40372	-0.00188
0.32721	-0.10391
0.19971	-0.33348
0.09770	0.15117
-0.08081	0.66132
0.09770	0.78886
0.04670	0.04914
0.60773	0.17668
0.32721	-0.43551
0.19971	-0.28246
-0.13181	-0.02739
0.22521	0.86539
-0.05531	0.10015
0.04670	-0.46102
0.27621	0.86539
0.19971	-0.25695
-0.08081	-0.05289
0.14870	0.15117
0.12320	0.25320
0.40372	0.96742
0.30171	0.63582
0.07220	-0.07840
-0.13181	-0.10391
0.17421	-0.15492
0.17421	-0.02739
-0.05531	0.02363
-0.00431	0.32972
0.22521	0.38074
0.86275	0.15117
0.37822	0.17668
-0.76936	-0.00188
0.02119	0.40625
0.12320	-0.18043
0.12320	-0.35899
0.17421	0.15117
0.07220	0.15117
0.04670	0.55929
0.27621	0.91640
0.55673	0.30422
0.63323	0.25320
0.25071	0.02363
-0.00431	-0.20594
-0.18282	-0.05289
-0.41233	-0.94566
0.07220	-0.12942
0.22521	0.63582
0.25071	0.81437
0.17421	0.04914
0.22521	0.10015
0.35272	-0.05289
0.22521	0.15117
-0.10631	-0.05289
-0.15732	0.35523
0.19971	0.32972
0.32721	0.30422
0.42922	-0.02739
0.27621	-0.02739
-0.08081	0.35523
-0.15732	0.15117
0.60773	-0.02739
0.58223	-0.38449
0.14870	0.55929
-0.02981	0.55929
-0.00431	0.38074
-0.02981	0.25320
0.07220	-0.07840
0.14870	-0.02739
0.09770	-0.02739
-0.00431	-0.15492
0.35272	0.30422
0.12320	0.12566
0.09770	0.22769
0.27621	0.07465
0.35272	0.91640
0.12320	-0.33348
0.07220	-0.02739
0.14870	-0.61406
0.22521	0.55929
0.25071	0.30422
0.35272	0.55929
0.12320	0.30422
-0.28482	-0.63957
-0.08081	0.04914
0.17421	0.04914
0.02119	0.15117
0.14870	0.12566
-0.18282	0.61031
0.27621	0.07465
0.60773	-0.23145
0.58223	0.12566
0.12320	0.04914
-0.05531	-0.00188
-0.18282	0.38074
0.04670	0.25320
0.42922	-0.02739
0.22521	0.35523
-0.18282	0.38074
0.12320	0.66132
-0.13181	0.15117
0.35272	0.15117
-0.08081	-0.18043
0.45472	0.35523
0.30171	0.43176
0.07220	-0.15492
0.22521	-0.43551
0.04670	-0.10391
-0.08081	0.48277
-0.02981	0.66132
0.37822	0.17668
0.35272	-0.58856
0.35272	0.43176
-0.13181	0.61031
0.07220	0.81437
0.02119	-0.43551
0.27621	-0.35899
0.12320	-0.15492
-0.10631	-0.15492
-0.00431	0.81437
0.32721	0.12566
0.27621	-0.33348
0.12320	0.20219
0.37822	0.89089
-0.02981	0.43176
0.09770	0.63582
0.27621	0.30422
0.14870	-0.15492
0.17421	-0.23145
-0.02981	-0.18043
0.37822	0.15117
0.22521	-0.05289
-0.13181	-0.12942
0.12320	0.22769
0.07220	0.53379
0.60773	0.78886
0.12320	-0.25695
0.17421	-0.23145
0.27621	0.58480
0.07220	0.40625
-0.13181	0.04914
-0.00431	-0.66508
0.19971	0.53379
0.32721	0.45726
0.37822	0.35523
-0.18282	-0.07840
-0.08081	-0.89465
-0.05531	-0.35899
0.37822	0.15117
0.48022	0.63582
0.25071	0.81437
0.48022	0.12566
0.12320	0.63582
0.17421	0.25320
-0.05531	-0.05289
0.22521	-0.38449
0.12320	0.04914
-0.00431	-0.15492
-0.10631	-0.02739
-0.08081	0.35523
0.55673	0.38074
0.35272	0.20219
0.35272	0.76336
0.04670	0.04914
-0.20832	0.04914
0.14870	0.15117
0.27621	-0.23145
0.12320	0.17668
0.02119	0.04914
0.22521	0.32972
0.32721	0.15117
0.17421	0.35523
0.32721	0.04914
0.09770	-0.18043
-0.10631	0.50828
-0.02981	0.30422
0.19971	-0.02739
0.17421	0.10015
0.12320	-0.18043
0.07220	0.20219
0.07220	0.43176
0.42922	-0.33348
0.22521	-0.35899
0.48022	0.68683
-0.20832	0.55929
0.04670	0.15117
0.19971	-0.00188
-0.00431	-0.66508
-0.18282	-0.51203
-0.08081	0.66132
0.40372	1.35003
0.76074	-0.05289
0.32721	0.04914
0.32721	0.04914
-0.46334	0.07465
-0.00431	0.15117
0.22521	0.07465
0.27621	0.02363
0.14870	-0.02739
-0.08081	0.25320
0.04670	0.17668
0.40372	0.02363
0.22521	0.66132
0.37822	0.35523
0.09770	-0.05289
0.09770	0.15117
0.07220	-0.05289
0.09770	-0.20594
0.19971	-0.12942
0.14870	0.66132
0.22521	0.63582
-0.00431	0.02363
0.12320	0.10015
0.07220	0.40625
-0.05531	0.12566
0.14870	-0.05289
0.25071	-0.48652
0.19971	0.20219
0.27621	0.43176
0.50573	0.68683
-0.18282	-0.18043
0.40372	0.02363
0.17421	1.47757
0.07220	0.04914
-0.02981	-0.15492
0.14870	-0.43551
0.12320	-0.35899
-0.18282	-0.33348
0.27621	0.48277
-0.18282	0.68683
0.19971	0.10015
0.30171	0.12566
0.17421	0.15117
0.17421	0.07465
0.27621	0.25320
0.07220	0.35523
0.35272	-0.02739
-0.02981	-0.07840
-0.00431	0.10015
0.02119	1.01843
0.17421	0.66132
0.30171	-0.10391
0.30171	-0.46102
0.45472	0.45726
-0.05531	0.25320
-0.02981	-0.20594
0.12320	-0.56305
-0.05531	0.07465
-0.05531	0.20219
0.04670	0.50828
0.22521	0.32972
0.50573	-0.20594
0.30171	0.02363
0.04670	-0.07840
0.07220	0.35523
0.35272	1.04394
0.14870	0.04914
0.02119	-0.23145
0.09770	-0.05289
-0.18282	0.63582
0.14870	-0.12942
0.42922	-0.18043
0.30171	0.02363
0.02119	1.47757
-0.08081	0.58480
0.14870	-0.38449
0.14870	-0.66508
0.12320	-0.15492
-0.00431	-0.71609
-0.05531	0.53379
0.04670	1.09496
0.42922	0.78886
0.22521	0.02363
0.30171	-0.02739
0.32721	-0.20594
-0.08081	-0.33348
0.27621	-0.20594
0.09770	0.63582
-0.05531	0.50828
0.19971	0.15117
0.12320	0.17668
0.19971	0.38074
-0.00431	0.22769
0.14870	-0.07840
-0.08081	0.04914
-0.05531	0.25320
0.50573	-0.20594
-0.00431	0.20219
0.02119	0.12566
-0.18282	0.15117
0.42922	0.58480
0.27621	0.10015
0.27621	0.17668
0.40372	0.50828
0.02119	-0.28246
-0.23382	0.10015
0.19971	0.12566
0.25071	0.45726
0.07220	-0.15492
-0.10631	0.20219
0.12320	0.45726
0.27621	-0.12942
0.25071	0.10015
0.09770	0.15117
0.12320	0.53379
0.02119	0.32972
0.27621	0.04914
0.07220	-0.12942
0.14870	0.43176
-0.13181	0.35523
0.02119	0.25320
0.19971	-0.38449
0.32721	-0.05289
0.25071	0.32972
0.22521	1.12046
-0.20832	0.43176
0.30171	0.38074
0.09770	-0.61406
0.25071	-0.38449
-0.05531	0.12566
0.02119	0.25320
0.40372	0.07465
0.35272	-0.18043
0.12320	0.25320
-0.15732	0.58480
0.17421	0.17668
0.07220	0.12566
0.32721	0.50828
0.12320	0.12566
-0.20832	0.25320
0.12320	0.25320
0.50573	-0.23145
0.14870	-0.05289
-0.08081	0.43176
-0.02981	0.89089
0.02119	0.35523
0.32721	-0.35899
0.07220	-0.15492
0.09770	-0.12942
-0.20832	0.15117
0.35272	0.94191
0.48022	0.53379
0.09770	-0.10391
0.37822	0.04914
0.02119	-0.46102
0.04670	0.12566
0.07220	0.55929
0.14870	1.09496
0.22521	0.20219
0.02119	-0.15492
-0.13181	-0.30797
-0.02981	-0.53754
0.30171	-0.10391
0.17421	0.15117
0.32721	0.89089
-0.00431	0.15117
0.32721	-0.38449
0.22521	0.10015
-0.05531	0.78886
-0.08081	0.71234
-0.00431	0.12566
0.48022	-0.00188
0.12320	-0.10391
0.27621	-0.12942
-0.18282	0.15117
-0.10631	0.15117
0.27621	-0.30797
0.22521	-0.23145
0.22521	-0.00188
-0.00431	0.94191
0.12320	1.27351
0.12320	0.35523
0.40372	0.04914
0.14870	-0.00188
-0.05531	-0.23145
-0.28482	-0.18043
0.19971	-0.20594
0.35272	-0.30797
0.12320	-0.00188
0.17421	0.53379
-0.05531	0.55929
0.37822	0.38074
0.09770	0.66132
-0.13181	0.25320
0.07220	-0.23145
0.37822	-0.18043
0.40372	-0.56305
0.22521	-0.12942
-0.00431	0.02363
-0.31033	0.76336
0.14870	0.15117
0.12320	-0.07840
0.02119	0.83988
0.30171	0.27871
0.35272	0.15117
0.04670	0.22769
0.22521	-0.38449
-0.05531	-0.30797
-0.00431	-0.10391
0.25071	0.76336
0.17421	0.86539
0.27621	0.30422
0.04670	0.32972
0.12320	0.25320
-0.18282	-0.28246
0.25071	0.20219
0.14870	-0.35899
0.02119	-0.46102
-0.05531	-0.43551
0.22521	0.63582
0.42922	1.27351
0.50573	0.27871
0.58223	0.15117
0.25071	-0.35899
-0.25932	0.17668
-0.33583	0.30422
-0.05531	-0.05289
-0.08081	0.25320
0.40372	-0.10391
0.12320	-0.00188
0.07220	0.38074
0.27621	0.27871
0.12320	0.61031
0.25071	1.22250
0.07220	0.30422
0.07220	-0.56305
0.12320	-0.61406
0.19971	0.22769
0.27621	-0.15492
0.14870	0.50828
-0.18282	0.02363
0.32721	-0.05289
0.37822	0.15117
0.14870	0.40625
0.07220	0.76336
-0.08081	-0.05289
0.40372	-0.20594
-0.00431	0.45726
0.07220	-0.10391
-0.15732	0.32972
0.27621	0.53379
0.37822	-0.02739
0.17421	-0.10391
0.25071	0.25320
0.07220	0.86539
0.09770	0.17668
0.04670	-0.23145
0.17421	-0.33348
0.42922	-0.25695
0.32721	0.35523
-0.38683	0.22769
0.50573	0.35523
0.02119	0.55929
0.48022	0.35523
0.12320	0.04914
-0.02981	0.04914
0.14870	-0.25695
-0.02981	0.12566
0.07220	0.27871
-0.20832	0.30422
0.09770	0.35523
0.35272	-0.38449
0.40372	0.10015
0.35272	0.73785
-0.18282	0.81437
0.02119	-0.18043
0.40372	-0.53754
0.04670	0.20219
0.17421	0.25320
-0.08081	0.68683
0.17421	-0.12942
0.40372	-0.20594
0.19971	0.48277
-0.00431	-0.05289
0.07220	-0.12942
0.09770	0.38074
0.22521	0.02363
0.12320	0.22769
-0.13181	-0.02739
-0.08081	-0.23145
0.04670	0.04914
0.37822	0.32972
0.32721	0.55929
0.22521	0.94191
0.22521	0.61031
0.02119	0.35523
0.37822	-0.28246
-0.08081	-0.05289
0.07220	0.02363
-0.15732	0.04914
0.30171	0.27871
0.37822	-0.15492
0.17421	0.20219
-0.00431	0.20219
0.02119	0.32972
-0.00431	0.15117
0.42922	-0.12942
-0.08081	-0.30797
0.09770	-0.00188
0.27621	0.58480
0.19971	0.89089
0.09770	-0.15492
0.22521	0.32972
0.25071	0.15117
-0.02981	0.55929
0.07220	-0.02739
0.37822	-0.12942
-0.08081	-0.61406
-0.10631	-0.20594
0.04670	0.30422
0.37822	0.50828
0.50573	0.45726
-0.05531	0.40625
0.02119	-0.05289
0.12320	0.53379
0.12320	0.68683
0.32721	-0.15492
0.02119	-0.35899
0.02119	-0.20594
0.12320	-0.15492
0.09770	0.53379
0.45472	0.48277
0.22521	0.66132
0.25071	0.43176
-0.31033	0.25320
-0.08081	0.07465
0.45472	-0.07840
-0.05531	0.07465
0.48022	-0.12942
0.02119	0.17668
0.19971	0.55929
0.32721	-0.15492
0.02119	0.07465
0.12320	0.17668
-0.20832	0.50828
-0.02981	0.76336
0.27621	0.66132
0.19971	-0.20594
-0.00431	-0.46102
0.14870	0.07465
0.14870	0.12566
0.65874	-0.66508
0.12320	-0.30797
0.07220	0.73785
-0.18282	0.81437
-0.05531	0.78886
0.30171	0.40625
0.25071	-0.35899
0.04670	-0.23145
0.02119	0.22769
0.02119	0.30422
0.30171	0.12566
0.37822	0.17668
0.50573	0.32972
-0.28482	0.66132
-0.36133	-0.00188
0.37822	0.02363
0.19971	0.32972
-0.00431	0.17668
-0.13181	0.04914
-0.13181	-0.07840
0.73524	-0.10391
0.37822	0.02363
0.32721	0.35523
-0.08081	0.32972
0.02119	0.91640
0.19971	0.02363
0.27621	-0.35899
-0.02981	0.22769
-0.28482	0.12566
-0.00431	0.02363
0.53123	-0.18043
0.32721	0.17668
0.37822	0.89089
-0.25932	0.66132
-0.08081	0.15117
0.32721	-0.51203
0.09770	0.27871
0.07220	-0.61406
-0.08081	0.71234
0.17421	1.19699
0.22521	0.58480
0.40372	0.35523
0.27621	-0.33348
0.12320	-0.07840
-0.20832	-0.05289
0.48022	0.04914
0.12320	0.15117
0.19971	-0.12942
0.12320	0.04914
-0.08081	0.32972
0.37822	0.15117
0.25071	0.25320
0.04670	0.10015
-0.31033	0.20219
-0.28482	0.35523
0.65874	-0.38449
0.48022	-0.02739
0.12320	-0.07840
-0.20832	1.12046
-0.18282	0.73785
0.50573	0.27871
0.88825	0.07465
0.35272	0.07465
-0.28482	-0.07840
-0.20832	0.17668
0.27621	-0.05289
0.12320	0.55929
-0.10631	-0.63957
-0.02981	-0.12942
-0.00431	0.45726
0.70974	0.43176
0.17421	0.76336
0.09770	0.66132
-0.28482	-0.48652
0.19971	-0.23145
0.35272	-0.56305
0.22521	0.04914
-0.02981	0.35523
0.04670	0.63582
-0.10631	0.35523
0.58223	0.25320
0.19971	0.20219
0.19971	0.45726
-0.13181	0.27871
-0.08081	0.55929
0.48022	-0.05289
0.12320	0.15117
0.02119	-0.15492
-0.31033	0.25320
0.37822	0.55929
0.48022	-0.25695
0.14870	-0.15492
0.25071	-0.33348
0.07220	-0.00188
0.04670	0.22769
0.40372	0.68683
-0.00431	0.91640
0.04670	0.50828
-0.48884	-0.15492
0.09770	-0.02739
0.37822	-0.25695
0.50573	-0.00188
0.30171	-0.51203
0.14870	0.50828
-0.02981	0.76336
0.35272	-0.07840
0.14870	0.35523
-0.33583	-0.02739
0.12320	0.07465
0.17421	0.27871
0.22521	-0.18043
0.09770	0.15117
0.14870	0.48277
-0.10631	0.45726
-0.02981	-0.02739
0.53123	0.35523
0.22521	0.20219
0.14870	0.58480
-0.08081	0.45726
0.32721	0.15117
0.12320	-0.20594
0.19971	-0.23145
0.22521	0.12566
-0.00431	0.15117
-0.10631	-0.15492
0.07220	-0.07840
0.02119	0.25320
0.32721	0.66132
-0.20832	0.43176
0.22521	0.38074
0.83725	-0.71609
0.17421	-0.25695
-0.00431	0.55929
0.07220	0.22769
-0.08081	0.02363
0.42922	-0.25695
0.02119	0.22769
0.07220	0.91640
-0.15732	0.50828
0.12320	-0.25695
0.48022	-0.23145
0.17421	-0.20594
0.02119	0.17668
0.19971	0.63582
-0.13181	0.61031
0.37822	0.15117
0.14870	-0.25695
-0.10631	-0.20594
-0.08081	0.45726
0.07220	0.02363
0.45472	-0.07840
0.27621	0.35523
0.12320	0.45726
0.14870	0.43176
0.09770	0.02363
0.30171	-0.15492
-0.08081	-0.20594
-0.08081	0.30422
-0.00431	0.22769
0.02119	0.48277
0.45472	-0.20594
0.09770	-0.18043
0.35272	0.30422
-0.02981	0.50828
0.04670	0.58480
0.42922	-0.15492
-0.00431	-0.25695
-0.31033	-0.07840
0.07220	0.55929
-0.08081	-0.00188
0.60773	-0.18043
0.25071	0.27871
0.25071	0.61031
0.14870	0.50828
0.02119	0.25320
0.37822	-0.02739
-0.02981	-0.35899
0.07220	-1.40480
0.09770	0.86539
-0.20832	1.60511
0.55673	1.24800
0.45472	-0.28246
0.27621	-0.30797
-0.25932	-0.07840
-0.28482	-0.05289
0.37822	-0.15492
0.12320	-0.41000
0.12320	0.12566
-0.31033	0.53379
0.04670	0.55929
0.53123	-0.05289
0.53123	0.25320
0.40372	0.55929
-0.02981	0.58480
-0.10631	0.15117
0.30171	-0.43551
0.09770	0.04914
-0.18282	-0.12942
-0.13181	0.15117
0.12320	0.89089
0.50573	0.76336
0.32721	0.27871
0.25071	0.22769
-0.00431	-0.56305
-0.28482	-0.41000
0.40372	-0.43551
0.09770	-0.20594
0.22521	0.27871
-0.20832	0.27871
0.22521	0.43176
0.42922	0.07465
0.42922	0.61031
0.48022	0.25320
0.07220	0.63582
-0.10631	0.17668
0.17421	-0.07840
-0.00431	-0.12942
-0.02981	-0.25695
-0.18282	0.45726
0.22521	0.30422
0.65874	-0.00188
0.35272	0.20219
-0.08081	0.20219
-0.33583	0.43176
0.02119	0.15117
0.42922	-0.28246
0.37822	-0.00188
-0.00431	-0.20594
0.07220	-0.02739
-0.00431	0.53379
0.35272	1.04394
0.40372	0.83988
0.22521	0.07465
0.04670	0.30422
-0.33583	-0.25695
0.42922	-0.43551
0.19971	-0.10391
0.09770	-0.05289
-0.02981	-0.99668
0.22521	0.71234
0.09770	0.86539
0.07220	0.10015
0.27621	0.04914
0.09770	0.50828
0.17421	0.30422
0.32721	-0.10391
0.09770	0.04914
0.04670	-0.02739
-0.10631	0.35523
-0.08081	0.20219
0.50573	-0.02739
0.42922	0.07465
0.37822	0.40625
-0.05531	0.27871
0.25071	0.32972
0.32721	-0.12942
0.07220	-0.07840
-0.02981	-0.12942
-0.18282	0.38074
-0.00431	0.43176
0.32721	-0.02739
0.19971	-0.23145
0.12320	-0.12942
-0.41233	0.66132
0.02119	0.04914
0.68424	0.10015
0.63323	0.50828
0.42922	0.12566
-0.05531	0.99292
-0.56534	0.40625
0.83725	-0.61406
0.17421	-0.56305
0.07220	-0.10391
-0.18282	0.12566
-0.00431	0.20219
0.32721	-0.23145
0.19971	0.07465
-0.31033	-0.02739
-0.23382	0.50828
0.14870	0.58480
0.73524	0.30422
0.53123	0.32972
0.53123	0.35523
0.09770	0.40625
-0.13181	0.35523
0.25071	-0.15492
0.17421	0.12566
-0.08081	-0.15492
-0.05531	0.32972
0.07220	0.12566
0.35272	-0.30797
0.07220	-0.10391
0.25071	-0.00188
0.12320	0.76336
-0.02981	0.30422
0.25071	-0.15492
0.27621	-0.28246
0.27621	0.15117
0.07220	0.22769
0.12320	0.66132
0.45472	-0.38449
0.32721	0.17668
-0.10631	0.43176
-0.05531	0.86539
-0.13181	-0.23145
0.35272	-1.30277
0.17421	0.15117
0.09770	0.40625
-0.25932	0.22769
0.19971	0.02363
0.53123	-0.05289
0.35272	1.17148
0.32721	0.91640
-0.00431	1.63062
0.14870	0.04914
0.53123	-0.92016
-0.02981	-0.61406
-0.05531	-0.46102
-0.25932	-0.05289
-0.36133	-0.43551
0.12320	-0.41000
0.81175	0.96742
0.40372	1.22250
0.12320	0.25320
-0.05531	0.04914
0.27621	-0.07840
0.02119	-0.10391
0.17421	0.02363
-0.08081	0.27871
0.19971	0.35523
0.53123	-0.07840
0.25071	0.32972
0.22521	0.30422
-0.18282	0.27871
-0.00431	-0.15492
0.35272	-0.23145
0.07220	0.35523
0.17421	0.32972
-0.13181	0.58480
0.17421	0.38074
0.53123	-0.53754
0.17421	-0.25695
0.37822	-0.23145
0.02119	0.22769
-0.20832	0.17668
0.12320	-0.30797
0.12320	0.32972
0.19971	0.12566
0.09770	0.32972
-0.10631	0.78886
0.48022	0.66132
0.37822	-0.18043
0.25071	0.10015
0.25071	0.32972
0.32721	0.25320
-0.10631	-0.48652
0.19971	-0.18043
-0.08081	-0.05289
-0.25932	0.12566
-0.00431	0.10015
0.48022	-0.10391
0.35272	0.20219
0.25071	0.32972
0.09770	0.55929
0.04670	0.10015
0.48022	0.15117
0.04670	0.53379
-0.02981	0.27871
-0.00431	0.38074
0.19971	0.12566
0.32721	-0.00188
0.27621	0.04914
0.32721	-0.05289
0.12320	0.30422
0.02119	0.10015
0.32721	-0.35899
-0.08081	-0.12942
0.07220	0.04914
-0.10631	0.35523
-0.08081	0.10015
0.48022	-0.12942
0.48022	0.76336
0.40372	0.76336
-0.15732	-0.05289
-0.20832	0.35523
0.25071	-0.41000
0.48022	-0.02739
0.37822	0.25320
0.09770	0.53379
-0.08081	0.22769
0.25071	-0.10391
0.09770	-0.15492
0.12320	0.22769
-0.00431	1.01843
0.19971	-0.02739
0.37822	-0.20594
0.22521	-0.02739
-0.05531	0.10015
-0.13181	0.10015
0.19971	0.35523
0.30171	-0.18043
0.30171	0.25320
0.19971	0.22769
0.09770	0.45726
0.02119	-0.02739
0.37822	-0.05289
0.19971	-0.35899
0.02119	0.30422
-0.00431	0.94191
0.09770	0.78886
0.58223	-0.35899
0.42922	-0.63957
0.25071	0.45726
-0.41233	0.45726
0.04670	0.07465
0.22521	-0.46102
0.25071	-0.18043
-0.02981	-0.02739
0.09770	0.32972
0.19971	0.35523
0.37822	-0.15492
0.12320	0.20219
0.19971	0.48277
0.12320	0.91640
0.02119	0.07465
0.45472	-0.63957
0.12320	-0.46102
-0.20832	0.04914
0.12320	1.01843
0.12320	0.68683
0.48022	-0.23145
0.17421	-0.30797
0.19971	0.04914
-0.18282	0.10015
0.07220	0.07465
0.37822	-0.61406
0.07220	-0.71609
-0.15732	0.73785
0.09770	1.86019
0.65874	0.53379
1.04126	0.40625
0.17421	-0.02739
-0.13181	-0.23145
-0.25932	-0.05289
-0.25932	-0.30797
0.27621	-0.61406
0.27621	-0.20594
-0.15732	-0.02739
0.14870	0.53379
-0.00431	0.32972
0.48022	0.20219
0.30171	0.35523
0.40372	0.50828
0.04670	0.30422
0.19971	0.35523
0.27621	-0.10391
0.27621	0.15117
-0.08081	-0.35899
-0.08081	0.12566
-0.18282	0.15117
0.60773	-0.25695
0.63323	1.47757
0.25071	1.01843
-0.89686	-0.20594
-0.10631	-0.43551
0.53123	-0.89465
0.30171	-0.33348
0.07220	-0.20594
0.19971	0.07465
0.02119	0.25320
0.50573	0.15117
0.60773	0.45726
0.09770	0.68683
-0.31033	0.15117
-0.33583	0.25320
0.37822	-0.35899
-0.05531	-0.02739
0.14870	-0.23145
0.25071	0.48277
0.40372	0.50828
0.45472	0.15117
0.17421	0.43176
0.30171	-0.10391
0.22521	1.29902
-0.20832	0.40625
0.27621	-0.76711
0.14870	-0.71609
-0.05531	-0.61406
-0.25932	0.30422
0.04670	0.55929
0.25071	-0.00188
0.25071	0.25320
0.27621	0.35523
0.09770	0.43176
0.09770	-0.05289
0.40372	-0.35899
0.32721	-0.10391
0.19971	0.58480
0.02119	0.30422
-0.08081	0.89089
0.27621	-0.25695
0.22521	-0.30797
0.22521	0.12566
-0.05531	0.07465
-0.02981	0.32972
0.45472	-0.18043
0.32721	-0.20594
0.12320	0.58480
-0.02981	0.07465
0.09770	0.15117
0.42922	0.02363
-0.05531	0.25320
-0.10631	0.10015
0.42922	0.63582
0.35272	0.07465
0.27621	-0.38449
0.07220	0.04914
0.02119	0.04914
-0.28482	0.22769
0.02119	0.40625
0.50573	0.04914
0.35272	0.63582
0.27621	0.45726
-0.10631	-0.28246
0.22521	-0.28246
0.40372	-0.74160
0.42922	0.10015
0.25071	1.04394
-0.08081	1.12046
0.04670	-0.10391
0.32721	-0.38449
0.02119	-0.25695
0.19971	0.10015
-0.00431	-0.00188
-0.02981	0.73785
0.32721	-0.20594
0.42922	-0.05289
0.07220	0.27871
0.14870	0.66132
-0.02981	0.04914
0.25071	-0.05289
0.12320	0.02363
0.27621	0.32972
0.12320	0.20219
-0.00431	0.15117
0.32721	-0.25695
0.25071	0.12566
0.17421	0.17668
0.04670	0.53379
0.22521	0.45726
0.50573	-0.05289
0.12320	0.07465
-0.23382	0.15117
0.12320	-0.12942
0.40372	0.15117
0.22521	0.15117
0.07220	-0.10391
-0.00431	-0.00188
0.07220	0.22769
0.19971	0.32972
-0.05531	-0.07840
0.30171	0.15117
0.22521	-0.02739
0.22521	0.07465
0.02119	-0.00188
0.30171	0.76336
0.37822	-0.18043
-0.08081	-0.25695
-0.08081	0.04914
-0.15732	-0.02739
-0.08081	0.25320
0.45472	0.38074
0.91375	0.58480
-0.13181	0.45726
0.02119	0.22769
0.35272	-0.38449
0.02119	-0.07840
0.09770	0.12566
-0.18282	0.22769
0.30171	0.55929
0.58223	0.07465
0.60773	-0.05289
-0.08081	-0.07840
0.07220	-0.07840
-0.15732	0.25320
0.17421	-0.12942
0.07220	0.07465
-0.08081	0.07465
-0.18282	0.38074
0.30171	0.25320
0.53123	-0.00188
0.37822	0.20219
0.53123	0.73785
0.09770	0.40625
0.04670	-0.35899
0.32721	-0.15492
-0.08081	0.55929
0.07220	-0.33348
0.19971	-0.02739
0.25071	-0.02739
0.27621	-0.46102
-0.08081	0.38074
0.40372	0.25320
0.12320	-0.05289
-0.28482	-0.00188
0.27621	0.71234
0.22521	0.35523
-0.20832	-0.23145
-0.00431	0.07465
0.37822	0.12566
0.68424	-0.05289
0.35272	-0.10391
0.04670	0.38074
0.22521	0.45726
-0.23382	0.55929
0.12320	-0.25695
0.02119	-0.05289
0.09770	0.22769
-0.28482	0.07465
-0.08081	0.12566
0.55673	0.02363
0.55673	0.02363
0.55673	0.78886
0.50573	0.53379
-0.00431	0.30422
-0.00431	-0.53754
-0.08081	-0.84363
-0.31033	-0.12942
-0.08081	0.40625
0.12320	-0.15492
0.42922	0.22769
0.60773	0.48277
0.27621	0.15117
0.32721	0.66132
-0.05531	-0.61406
0.42922	0.12566
-0.10631	0.22769
-0.13181	0.35523
0.04670	0.35523
0.17421	0.48277
0.19971	-0.48652
0.45472	-0.86914
0.04670	-0.15492
-0.28482	0.45726
0.32721	0.66132
0.45472	0.27871
0.22521	0.40625
-0.08081	0.25320
-0.00431	0.43176
-0.10631	0.25320
0.65874	-0.28246
1.09226	-0.69059
0.42922	0.25320
-0.61635	0.30422
-0.00431	0.48277
0.12320	-0.05289
0.14870	0.04914
0.14870	-0.02739
-0.18282	-0.07840
-0.00431	0.20219
0.25071	-0.07840
0.50573	0.45726
0.32721	0.91640
0.14870	0.55929
0.14870	0.10015
-0.10631	-0.61406
0.45472	-0.28246
0.22521	-0.05289
-0.33583	0.10015
0.02119	0.15117
0.22521	-0.07840
0.58223	0.04914
0.60773	0.22769
-0.05531	0.45726
-0.00431	0.45726
0.25071	0.02363
-0.05531	-0.35899
0.14870	-0.02739
-0.18282	0.20219
0.04670	0.66132
0.32721	0.25320
0.27621	0.50828
0.42922	-0.10391
0.04670	0.12566
0.04670	0.07465
-0.02981	-0.28246
0.27621	0.22769
0.22521	-0.07840
0.27621	0.53379
0.14870	0.02363
-0.02981	0.04914
0.83725	0.07465
0.14870	0.07465
-0.08081	0.20219
-0.13181	0.22769
-0.13181	-0.35899
-0.28482	0.12566
0.22521	-0.46102
0.40372	0.20219
0.04670	0.68683
0.22521	0.71234
0.30171	0.04914
0.48022	0.43176
0.30171	-0.12942
0.17421	-0.12942
0.30171	-0.15492
0.30171	0.12566
-0.02981	-0.15492
-0.31033	0.35523
0.04670	0.71234
0.35272	0.32972
0.40372	-0.20594
0.04670	0.02363
0.07220	-0.02739
-0.10631	-0.00188
0.27621	-0.02739
0.40372	0.15117
-0.20832	0.20219
-0.00431	0.76336
0.17421	0.45726
0.19971	-0.23145
0.09770	-0.33348
0.12320	0.58480
0.40372	0.32972
0.50573	0.12566
0.22521	-0.25695
-0.31033	-0.28246
0.17421	-0.00188
-0.13181	0.12566
-0.18282	0.30422
0.93925	0.45726
0.42922	0.10015
-0.00431	0.10015
0.07220	0.27871
0.48022	0.17668
0.27621	0.07465
0.12320	0.10015
-0.36133	0.04914
-0.28482	-0.51203
-0.10631	0.02363
-0.10631	0.55929
0.30171	1.32453
0.50573	0.66132
0.17421	-0.07840
0.12320	0.02363
0.09770	-0.35899
0.17421	-0.56305
0.14870	-0.61406
0.17421	-0.05289
0.12320	0.20219
0.48022	0.50828
0.14870	0.35523
0.30171	0.61031
0.09770	1.40105
-0.20832	0.50828
-0.00431	-0.12942
0.65874	-0.81812
-0.18282	-0.46102
-0.71835	0.10015
-0.13181	0.50828
0.53123	0.12566
0.81175	0.20219
0.27621	0.10015
-0.31033	0.12566
-0.28482	0.17668
0.60773	0.40625
0.40372	0.35523
0.40372	0.02363
0.09770	0.04914
-0.08081	0.10015
-0.05531	0.10015
0.14870	-0.05289
0.32721	0.30422
-0.02981	-0.18043
-0.20832	0.20219
0.09770	0.15117
0.25071	0.30422
0.09770	0.27871
-0.00431	-0.30797
0.53123	0.35523
0.45472	0.50828
0.45472	0.12566
0.32721	0.32972
-0.38683	0.20219
0.07220	-0.28246
0.30171	0.10015
0.17421	-0.05289
0.30171	-0.15492
0.09770	-0.38449
0.12320	0.38074
-0.00431	0.04914
0.50573	-0.02739
0.32721	0.27871
-0.46334	0.32972
0.09770	0.53379
-0.02981	0.25320
0.07220	0.55929
-0.08081	0.22769
0.19971	0.63582
0.02119	0.32972
-0.10631	-0.12942
0.83725	0.04914
0.45472	0.17668
0.27621	0.30422
0.14870	0.17668
0.17421	-0.05289
-0.08081	-0.23145
-0.18282	-0.30797
-0.33583	0.02363
0.22521	0.07465
0.22521	0.10015
0.37822	0.02363
0.02119	0.81437
0.07220	1.01843
0.27621	0.50828
0.30171	-0.53754
0.35272	-0.35899
0.12320	-0.10391
0.17421	-0.25695
0.27621	0.89089
0.07220	0.27871
0.02119	-0.05289
0.27621	0.07465
-0.02981	-0.00188
-0.18282	0.10015
0.04670	0.20219
0.30171	-0.25695
0.19971	0.76336
-0.13181	0.35523
0.14870	0.22769
0.40372	0.12566
-0.02981	-0.25695
0.25071	-0.00188
0.53123	0.10015
0.42922	0.35523
-0.00431	0.02363
0.35272	0.12566
0.09770	-0.20594
-0.18282	0.45726
-0.43783	0.43176
0.22521	-0.07840
0.86275	0.10015
0.19971	-0.05289
0.07220	0.22769
-0.10631	0.40625
0.02119	0.53379
-0.13181	-0.05289
0.32721	-0.28246
0.30171	0.04914
0.14870	0.40625
0.40372	-0.00188
0.30171	-0.12942
0.17421	0.22769
-0.18282	0.15117
0.25071	0.25320
0.27621	0.07465
0.22521	-0.02739
-0.15732	0.22769
-0.23382	-0.30797
-0.18282	0.17668
0.02119	0.32972
0.42922	0.04914
0.40372	0.27871
0.32721	0.30422
0.04670	0.10015
0.17421	0.17668
0.12320	-0.02739
-0.10631	-0.20594
0.04670	0.17668
0.12320	0.61031
0.07220	0.02363
0.30171	0.27871
0.55673	0.35523
0.22521	0.07465
-0.25932	0.32972
0.37822	0.10015
0.73524	-0.20594
-0.02981	-0.35899
-0.33583	0.15117
-0.18282	0.27871
0.27621	1.06945
0.40372	0.55929
0.22521	0.53379
-0.20832	-0.81812
-0.08081	-0.10391
0.12320	-0.81812
0.42922	-0.41000
0.27621	-0.20594
0.17421	0.53379
-0.15732	0.32972
0.35272	0.43176
0.45472	0.45726
0.12320	-0.10391
-0.02981	-0.07840
0.19971	0.55929
-0.02981	0.45726
0.35272	-0.25695
0.12320	-0.02739
0.12320	0.35523
0.09770	0.04914
0.25071	0.35523
0.17421	0.48277
0.09770	0.12566
-0.10631	-0.20594
0.17421	-0.18043
0.17421	-0.00188
0.22521	-0.02739
0.12320	0.20219
0.17421	0.02363
-0.28482	0.40625
0.12320	0.20219
-0.43783	0.22769
0.73524	0.73785
0.60773	0.89089
-0.02981	0.07465
0.37822	-0.38449
0.27621	-0.30797
-0.10631	-0.15492
-0.13181	-0.12942
-0.20832	0.15117
0.17421	0.55929
0.32721	0.58480
0.30171	-0.10391
0.04670	0.17668
0.27621	0.17668
0.14870	0.04914
0.22521	-0.53754
0.14870	0.20219
-0.02981	0.48277
0.19971	0.61031
0.35272	-0.12942
0.12320	-0.00188
0.12320	0.12566
0.09770	0.22769
-0.10631	0.32972
0.12320	0.38074
0.58223	-0.30797
-0.13181	0.15117
-0.02981	0.15117
0.19971	0.10015
0.17421	0.17668
0.53123	-0.02739
-0.31033	-0.20594
-0.00431	0.45726
0.76074	0.35523
0.07220	0.40625
-0.05531	-0.10391
-0.71835	-0.10391
0.09770	0.27871
0.40372	0.45726
0.42922	0.04914
1.16877	-0.07840
0.25071	0.27871
0.07220	0.50828
-0.46334	0.66132
0.25071	-0.12942
0.32721	0.10015
0.09770	-0.25695
-0.08081	0.04914
0.07220	0.17668
0.02119	0.10015
0.07220	-0.38449
0.40372	-0.02739
0.12320	0.10015
0.04670	0.30422
-0.05531	0.71234
0.32721	0.32972
0.19971	-0.18043
0.02119	0.45726
0.09770	0.43176
0.30171	0.27871
0.12320	-0.20594
0.09770	0.07465
0.45472	-0.00188
-0.15732	0.02363
-0.00431	-0.38449
-0.00431	0.04914
0.22521	0.50828
0.50573	0.66132
0.73524	0.71234
0.63323	0.40625
-0.33583	-0.15492
-0.46334	-0.05289
-0.00431	-0.12942
-0.20832	0.22769
-0.05531	-0.00188
0.42922	-0.05289
0.09770	-0.00188
0.58223	0.48277
0.02119	0.35523
0.25071	0.12566
0.35272	-0.15492
0.04670	-0.02739
0.17421	0.61031
-0.13181	0.50828
0.22521	0.15117
0.25071	0.04914
-0.00431	0.02363
-0.05531	-0.07840
0.27621	0.10015
0.02119	0.40625
0.17421	-0.02739
0.17421	0.17668
0.27621	-0.15492
-0.02981	0.20219
-0.18282	0.07465
0.27621	0.50828
-0.36133	0.43176
0.25071	-0.07840
0.76074	0.15117
0.42922	0.38074
0.09770	-0.05289
0.02119	0.04914
0.17421	0.07465
-0.05531	0.30422
0.07220	0.32972
0.09770	-0.02739
0.04670	-0.12942
-0.00431	-0.05289
0.17421	0.27871
0.37822	0.55929
0.37822	0.35523
0.02119	0.27871
0.07220	0.25320
-0.00431	0.12566
0.04670	0.35523
0.42922	-0.18043
0.37822	-0.07840
0.17421	0.15117
-0.13181	-0.30797
0.22521	-0.23145
-0.05531	0.15117
-0.00431	0.76336
0.19971	0.38074
0.32721	0.25320
-0.00431	-0.15492
0.12320	0.04914
-0.02981	-0.25695
0.17421	-0.23145
-0.10631	0.45726
0.53123	0.61031
0.60773	0.12566
0.22521	-0.15492
-0.33583	0.71234
0.07220	0.63582
0.22521	0.55929
0.02119	-0.15492
-0.31033	-0.07840
-0.05531	-0.10391
0.07220	0.17668
0.68424	0.22769
0.93925	0.10015
-0.00431	0.22769
-0.15732	0.04914
-0.08081	-0.15492
-0.02981	0.02363
0.40372	-0.18043
0.25071	0.25320
0.14870	0.91640
0.04670	0.63582
0.04670	0.12566
0.37822	0.02363
0.30171	-0.28246
0.12320	-0.46102
-0.20832	0.66132
-0.02981	0.25320
0.02119	-0.20594
-0.00431	0.10015
0.19971	-0.07840
0.19971	0.15117
0.40372	0.25320
0.30171	0.12566
0.04670	0.48277
0.19971	0.45726
0.07220	0.15117
0.19971	0.20219
0.14870	-0.63957
0.14870	-0.15492
0.27621	1.65613
0.07220	0.48277
-0.25932	-0.18043
0.81175	-0.15492
-0.05531	-0.15492
0.30171	0.20219
-0.48884	0.15117
-0.33583	0.10015
0.17421	-0.12942
0.30171	0.30422
0.45472	0.43176
-0.10631	0.35523
-0.08081	0.43176
0.58223	-0.18043
0.40372	-0.20594
0.22521	0.07465
-0.15732	0.35523
0.14870	0.63582
0.17421	0.07465
0.02119	0.27871
-0.08081	-0.15492
0.12320	-0.30797
0.17421	-0.00188
0.48022	0.17668
0.19971	0.45726
0.27621	0.58480
-0.23382	0.20219
-0.02981	-0.02739
0.19971	-0.28246
0.02119	-0.15492
0.19971	-0.05289
0.02119	0.76336
0.07220	0.43176
0.37822	0.27871
0.27621	0.07465
0.09770	0.15117
-0.00431	0.12566
-0.23382	0.10015
0.58223	-0.00188
0.40372	0.25320
-0.08081	-0.15492
-0.28482	-0.25695
0.04670	0.63582
0.32721	0.17668
0.09770	0.38074
0.42922	0.20219
0.09770	0.15117
0.09770	0.20219
0.09770	-0.10391
0.02119	0.32972
0.42922	-0.12942
-0.15732	0.12566
-0.20832	0.63582
0.09770	0.53379
0.35272	0.25320
